0.0025 0.00310216 -0.0020567 0.00448176 -0.00408629 -0.000893759 0.000329196
0.0125 0.00226979 -0.00289324 0.00364788 -0.00491892 -0.0017271 -0.000504343
0.0225 0.000107591 -0.00506806 0.00147473 -0.00708627 -0.00389644 -0.00267456
0.035 -0.00448844 -0.0096896 -0.00317185 -0.0117191 -0.00852765 -0.0073074
0.045 -0.00972324 -0.0149523 -0.00850265 -0.0170354 -0.0138339 -0.0126154
0.055 -0.0164077 -0.0216712 -0.0153642 -0.0238814 -0.0206561 -0.0194392
0.065 -0.0245967 -0.0299009 -0.0238488 -0.0323501 -0.0290813 -0.0278654
0.075 -0.0343415 -0.0396918 -0.0340515 -0.042537 -0.0391989 -0.0379832
0.085 -0.0456942 -0.0510952 -0.046073 -0.054544 -0.0511055 -0.0498889
0.095 -0.0587129 -0.0641688 -0.0600244 -0.0684844 -0.0649101 -0.0636911
0.105 -0.073437 -0.0789509 -0.0760017 -0.0844561 -0.0807084 -0.0794852
0.115 -0.0898493 -0.0954229 -0.0940471 -0.102503 -0.0985455 -0.0973155
0.125 -0.107824 -0.113456 -0.114095 -0.122562 -0.118362 -0.117122
0.135 -0.127077 -0.132759 -0.135921 -0.144409 -0.139944 -0.138692
0.145 -0.147143 -0.152865 -0.159113 -0.167637 -0.162896 -0.161628
0.155 -0.167375 -0.173128 -0.183072 -0.191651 -0.186645 -0.185357
0.165 -0.186994 -0.192761 -0.207051 -0.215707 -0.210476 -0.209163
0.175 -0.205151 -0.210911 -0.230214 -0.238972 -0.233593 -0.232252
0.185 -0.221012 -0.226738 -0.251717 -0.260605 -0.255205 -0.25383
0.195 -0.233812 -0.239477 -0.27076 -0.279805 -0.274569 -0.273157
0.205 -0.242855 -0.248428 -0.286575 -0.295805 -0.290989 -0.289539
0.215 -0.247444 -0.252892 -0.298362 -0.307804 -0.303742 -0.302253
0.225 -0.246808 -0.252097 -0.305213 -0.314889 -0.312006 -0.310477
0.235 -0.240043 -0.24514 -0.30605 -0.31598 -0.314792 -0.313226
0.245 -0.22611 -0.230979 -0.299622 -0.309822 -0.310941 -0.309343
0.255 -0.203948 -0.208553 -0.284614 -0.295094 -0.299234 -0.297608
0.265 -0.172806 -0.177113 -0.25999 -0.270747 -0.27872 -0.277076
0.275 -0.132718 -0.1367 -0.225461 -0.236487 -0.249189 -0.247542
0.285 -0.0849223 -0.0885674 -0.181914 -0.193188 -0.211597 -0.209965
0.295 -0.0318013 -0.0351174 -0.131379 -0.14286 -0.168016 -0.16642
0.305 0.0236844 0.0206649 -0.0764761 -0.0881007 -0.12108 -0.119541
0.315 0.0786207 0.075854 -0.0198203 -0.0315019 -0.0733761 -0.0719228
0.325 0.130433 0.127857 0.0362585 0.0246223 -0.0271659 -0.0258301
0.335 0.177051 0.17458 0.0898439 0.0783627 0.0157498 0.0169348
0.345 0.217091 0.214625 0.139614 0.128402 0.0542134 0.055215
0.355 0.249921 0.247364 0.1849 0.17407 0.0877732 0.0885631
0.365 0.27558 0.272824 0.225584 0.215246 0.116578 0.117133
0.375 0.294571 0.291521 0.261928 0.252179 0.141199 0.141499
0.385 0.307665 0.304254 0.294389 0.285307 0.162435 0.162468
0.395 0.315841 0.312018 0.323537 0.315194 0.181229 0.180992
0.405 0.320167 0.315885 0.349963 0.342399 0.19856 0.198057
0.415 0.321606 0.316837 0.37413 0.367364 0.215278 0.214522
0.425 0.320806 0.315543 0.396161 0.390187 0.231889 0.230902
0.435 0.317979 0.312225 0.415734 0.410524 0.248435 0.247246
0.445 0.313053 0.306821 0.432246 0.427755 0.264648 0.263294
0.455 0.306099 0.299414 0.445262 0.441428 0.280386 0.27891
0.465 0.297842 0.290741 0.455042 0.451775 0.296142 0.294597
0.475 0.289927 0.282466 0.462819 0.460004 0.313321 0.311761
0.485 0.284888 0.277147 0.470771 0.468285 0.334216 0.332704
0.495 0.286031 0.278113 0.481949 0.479658 0.361908 0.360509
0.5075 0.302175 0.294215 0.506297 0.504032 0.411814 0.410652
0.52 0.342303 0.334538 0.549907 0.547394 0.48612 0.485299
0.5325 0.413527 0.406224 0.620393 0.617356 0.591889 0.591509
0.545 0.520127 0.513552 0.722983 0.719176 0.733593 0.733741
0.5575 0.662424 0.656813 0.859411 0.854636 0.912016 0.912771
0.57 0.836255 0.831782 1.02732 1.02145 1.12373 1.12512
0.5825 1.03289 1.02963 1.22005 1.21307 1.36092 1.36292
0.595 1.23968 1.23761 1.42714 1.41916 1.61197 1.61457
0.6075 1.44239 1.44134 1.63645 1.62769 1.86369 1.86683
0.62 1.62845 1.62817 1.83721 1.828 2.10446 2.10804
0.6325 1.78932 1.78945 2.02219 2.01294 2.32644 2.33034
0.645 1.9208 1.92097 2.18796 2.17912 2.52587 2.52996
0.6575 2.02232 2.02216 2.33406 2.32608 2.70226 2.70642
0.67 2.096 2.09513 2.46203 2.45534 2.85749 2.8616
0.6825 2.14549 2.14361 2.57441 2.56937 2.99469 2.99864
0.695 2.17464 2.17148 2.67335 2.67026 3.1169 3.12062
0.7075 2.18705 2.18243 2.76037 2.75945 3.2267 3.23013
0.72 2.18707 2.18087 2.83741 2.83877 3.32722 3.33035
0.7325 2.18078 2.17296 2.90796 2.91161 3.4232 3.42605
0.745 2.17576 2.1664 2.97705 2.98287 3.52085 3.52347
0.7575 2.17973 2.16899 3.04994 3.0577 3.62651 3.62899
0.77 2.19848 2.18661 3.1303 3.13969 3.74472 3.74719
0.7825 2.23452 2.22181 3.21894 3.22956 3.87688 3.87947
0.795 2.2877 2.27447 3.31453 3.32596 4.02193 4.0248
0.8075 2.35671 2.34329 3.41513 3.42692 4.17787 4.18117
0.82 2.43968 2.42638 3.51876 3.53048 4.34231 4.34619
0.8325 2.53431 2.52142 3.6236 3.63484 4.51264 4.51724
0.845 2.63806 2.62585 3.72806 3.73845 4.68621 4.69163
0.8575 2.74833 2.737 3.83088 3.84013 4.8604 4.86675
0.87 2.86242 2.85213 3.93111 3.93899 5.03272 5.04005
0.8825 2.97744 2.96829 4.02781 4.03417 5.20049 5.20882
0.895 3.09031 3.08233 4.12001 4.12481 5.36099 5.37032
0.9075 3.19831 3.19148 4.20713 4.21042 5.51189 5.52215
0.92 3.29972 3.29394 4.28949 4.29139 5.65183 5.66295
0.9325 3.39393 3.38908 4.3684 4.36912 5.78062 5.79247
0.945 3.48094 3.47686 4.44549 4.44528 5.89861 5.91104
0.9575 3.55989 3.55635 4.52121 4.52039 6.00524 6.01809
0.97 3.62761 3.62439 4.59336 4.5923 6.09768 6.11076
0.9825 3.67864 3.67546 4.65697 4.65606 6.17064 6.18377
0.995 3.70661 3.70314 4.70565 4.70532 6.21784 6.23081
1.005 3.70855 3.70461 4.72964 4.73008 6.23316 6.24588
1.0175 3.68211 3.67729 4.73673 4.73847 6.22074 6.23298
1.03 3.62232 3.61631 4.71552 4.71891 6.17148 6.18309
1.0425 3.53043 3.52296 4.66514 4.67043 6.08594 6.09679
1.055 3.4095 3.40041 4.58612 4.59346 5.96628 5.9763
1.0675 3.26329 3.25248 4.47937 4.48879 5.81521 5.82437
1.08 3.09595 3.08342 4.34605 4.35747 5.63573 5.64403
1.0925 2.9118 2.89763 4.18752 4.20072 5.43094 5.43842
1.105 2.71482 2.69919 4.00493 4.01958 5.20358 5.21035
1.1175 2.50862 2.49176 3.79938 3.81505 4.95612 4.9623
1.13 2.29642 2.27865 3.57201 3.58817 4.69068 4.69644
1.1425 2.08077 2.06245 3.32381 3.3399 4.40889 4.4144
1.155 1.86375 1.84526 3.05593 3.07132 4.11205 4.1175
1.1675 1.64795 1.62972 2.77068 2.78474 3.80219 3.80776
1.18 1.43762 1.42006 2.47271 2.4848 3.48318 3.48905
1.1925 1.2383 1.22184 2.16868 2.17822 3.16047 3.16681
1.205 1.0546 1.03966 1.86505 1.87147 2.83888 2.8458
1.2175 0.888918 0.875856 1.5667 1.56956 2.52131 2.52892
1.23 0.741865 0.730989 1.27733 1.27629 2.20923 2.21756
1.2425 0.612788 0.604316 0.999852 0.994689 1.90312 1.91216
1.255 0.499916 0.493967 0.736357 0.727022 1.60265 1.61233
1.2675 0.400182 0.396771 0.487814 0.474405 1.30642 1.3166
1.28 0.30875 0.30776 0.25337 0.236146 1.01142 1.02193
1.2925 0.218762 0.219886 0.029844 0.00920619 0.712667 0.72327
1.305 0.121665 0.124604 -0.187828 -0.211367 0.403711 0.414121
1.3175 0.00963883 0.0140157 -0.404849 -0.430578 0.0786569 0.0885729
1.33 -0.121592 -0.11632 -0.623763 -0.650851 -0.265106 -0.25601
1.3425 -0.271765 -0.266109 -0.8432 -0.870873 -0.625716 -0.617778
1.355 -0.437288 -0.431725 -1.05942 -1.08697 -0.998229 -0.991771
1.3675 -0.614113 -0.609108 -1.26921 -1.29592 -1.37749 -1.37279
1.38 -0.80003 -0.795989 -1.47191 -1.49712 -1.76029 -1.75759
1.3925 -0.995066 -0.992335 -1.66974 -1.69295 -2.14585 -2.14538
1.405 -1.2 -1.19888 -1.86636 -1.88715 -2.5344 -2.53632
1.4175 -1.41493 -1.41563 -2.06519 -2.08326 -2.92567 -2.92999
1.43 -1.63939 -1.64204 -2.26941 -2.28463 -3.31892 -3.32561
1.4425 -1.873 -1.87765 -2.48252 -2.4949 -3.71366 -3.72269
1.455 -2.11568 -2.12227 -2.7083 -2.71802 -4.10989 -4.12112
1.4675 -2.36712 -2.37553 -2.95023 -2.95761 -4.50755 -4.52074
1.48 -2.62608 -2.63607 -3.21052 -3.216 -4.9057 -4.92057
1.4925 -2.88912 -2.90039 -3.48879 -3.49297 -5.30135 -5.31756
1.505 -3.1497 -3.16185 -3.78095 -3.78451 -5.68842 -5.70562
1.5175 -3.39837 -3.41092 -4.07927 -4.08302 -6.05799 -6.07575
1.53 -3.62484 -3.63722 -4.37427 -4.37906 -6.40013 -6.41803
1.5425 -3.82033 -3.83194 -4.65697 -4.6637 -6.7063 -6.72392
1.555 -3.97905 -3.98929 -4.92035 -4.92986 -6.97071 -6.98765
1.5675 -4.09905 -4.10734 -5.16013 -5.17318 -7.19111 -7.20701
1.58 -4.18211 -4.188 -5.37481 -5.39205 -7.36877 -7.38331
1.5925 -4.23331 -4.23643 -5.56534 -5.58724 -7.50795 -7.5209
1.605 -4.26034 -4.2605 -5.73472 -5.76154 -7.6154 -7.6266
1.6175 -4.27252 -4.26966 -5.88721 -5.91897 -7.69936 -7.70875
1.63 -4.27914 -4.27338 -6.02696 -6.0635 -7.76808 -7.77568
1.6425 -4.28833 -4.27995 -6.15724 -6.19815 -7.82872 -7.83463
1.655 -4.30686 -4.29624 -6.28038 -6.32506 -7.88726 -7.89167
1.6675 -4.34005 -4.32773 -6.39803 -6.44574 -7.9485 -7.95164
1.68 -4.39141 -4.37795 -6.51081 -6.56069 -8.0156 -8.01779
1.6925 -4.46445 -4.44809 -6.61794 -6.66896 -8.08948 -8.09104
1.705 -4.55628 -4.53588 -6.71756 -6.76888 -8.16924 -8.17041
1.7175 -4.66025 -4.64009 -6.80838 -6.85903 -8.25378 -8.25493
1.73 -4.77848 -4.75964 -6.89144 -6.94054 -8.34336 -8.34491
1.7425 -4.91376 -4.89526 -6.97064 -7.01749 -8.44069 -8.44296
1.755 -5.06739 -5.04943 -7.05181 -7.09646 -8.55031 -8.55332
1.7675 -5.24324 -5.22723 -7.14121 -7.1831 -8.67642 -8.68042
1.78 -5.44372 -5.42886 -7.24352 -7.28217 -8.82069 -8.82584
1.7925 -5.66504 -5.65163 -7.35931 -7.39435 -8.98115 -8.98761
1.805 -5.90039 -5.8888 -7.48561 -7.51707 -9.15218 -9.15993
1.8175 -6.14116 -6.13106 -7.61736 -7.64532 -9.32565 -9.3346
1.83 -6.37702 -6.36838 -7.74862 -7.77316 -9.49258 -9.50264
1.8425 -6.59914 -6.59195 -7.87433 -7.89572 -9.64523 -9.65629
1.855 -6.80203 -6.79602 -7.9922 -8.01094 -9.77905 -9.79092
1.8675 -6.98323 -6.97816 -8.10287 -8.11949 -9.89274 -9.90513
1.88 -7.1422 -7.13784 -8.20829 -8.22337 -9.98678 -9.9994
1.8925 -7.27874 -7.27475 -8.30994 -8.32414 -10.0618 -10.0744
1.905 -7.39168 -7.38773 -8.4077 -8.42177 -10.1176 -10.1298
1.9175 -7.47877 -7.47453 -8.49968 -8.51432 -10.1527 -10.1642
1.93 -7.53708 -7.53223 -8.58254 -8.59844 -10.1648 -10.1754
1.9425 -7.56374 -7.55797 -8.65225 -8.67006 -10.1518 -10.1611
1.955 -7.55649 -7.54924 -8.70463 -8.72503 -10.1117 -10.1196
1.9675 -7.51454 -7.50534 -8.73608 -8.75972 -10.044 -10.0502
1.98 -7.43971 -7.42817 -8.74483 -8.77219 -9.95017 -9.95451
1.9925 -7.33692 -7.32276 -8.73159 -8.76293 -9.83449 -9.83693
2.0025 -7.23935 -7.223 -8.70682 -8.74141 -9.7304 -9.73136
2.0125 -7.1327 -7.11415 -8.67129 -8.70908 -9.62002 -9.61954
2.0225 -7.02123 -7.00057 -8.62681 -8.66765 -9.50699 -9.50518
2.0325 -6.90899 -6.88636 -8.57506 -8.61867 -9.39472 -9.39171
2.0425 -6.7996 -6.77521 -8.51747 -8.56349 -9.28619 -9.28214
2.0525 -6.69617 -6.6703 -8.45524 -8.50323 -9.18388 -9.17901
2.0625 -6.60101 -6.57398 -8.38904 -8.43849 -9.08954 -9.08408
2.0725 -6.51519 -6.48736 -8.31873 -8.36909 -9.00375 -8.99795
2.0825 -6.4383 -6.41004 -8.24305 -8.29373 -8.92566 -8.91979
2.0925 -6.36844 -6.34012 -8.15968 -8.21009 -8.85302 -8.84732
2.1025 -6.30241 -6.27438 -8.06543 -8.11498 -8.78235 -8.7771
2.1125 -6.23645 -6.20904 -7.95691 -8.00505 -8.70966 -8.7051
2.1225 -6.16711 -6.14061 -7.83141 -7.87765 -8.63131 -8.62766
2.1325 -6.09197 -6.06662 -7.68757 -7.73143 -8.5447 -8.54218
2.1425 -6.00998 -5.986 -7.52568 -7.56677 -8.44863 -8.44741
2.1525 -5.92137 -5.89895 -7.34752 -7.3855 -8.34317 -8.34338
2.1625 -5.82692 -5.8062 -7.15565 -7.19025 -8.22894 -8.23071
2.1725 -5.7272 -5.70829 -6.95253 -6.98354 -8.10635 -8.10976
2.1825 -5.62212 -5.60508 -6.74008 -6.7674 -7.97519 -7.98027
2.1925 -5.51109 -5.49591 -6.51977 -6.54335 -7.8347 -7.84145
2.2025 -5.39337 -5.38002 -6.29291 -6.3128 -7.68403 -7.69239
2.2125 -5.26839 -5.25677 -6.06089 -6.07724 -7.52244 -7.53233
2.2225 -5.13572 -5.1257 -5.82517 -5.83818 -7.34934 -7.36065
2.2325 -4.99499 -4.98638 -5.58704 -5.59699 -7.16417 -7.17674
2.2425 -4.84579 -4.83839 -5.34758 -5.35482 -6.96632 -6.97997
2.2525 -4.68783 -4.68138 -5.1077 -5.11261 -6.75527 -6.76978
2.2625 -4.52105 -4.51529 -4.86828 -4.8713 -6.53072 -6.54585
2.2725 -4.3458 -4.34044 -4.63028 -4.63186 -6.29272 -6.30824
2.2825 -4.16279 -4.15756 -4.3947 -4.39531 -6.0417 -6.05735
2.2925 -3.97313 -3.96774 -4.1626 -4.16272 -5.77843 -5.79396
2.3025 -3.77826 -3.77245 -3.93509 -3.93515 -5.50404 -5.51919
2.3125 -3.5799 -3.57344 -3.71322 -3.71366 -5.21993 -5.23446
2.3225 -3.38006 -3.37273 -3.49808 -3.49927 -4.92778 -4.94146
2.3325 -3.18101 -3.17264 -3.29076 -3.29304 -4.62959 -4.64221
2.3425 -2.98506 -2.97585 -3.09237 -3.09597 -4.32756 -4.33894
2.3525 -2.79439 -2.78519 -2.90395 -2.90873 -4.02391 -4.03397
2.3625 -2.61119 -2.60132 -2.72613 -2.73226 -3.72057 -3.72915
2.3725 -2.43636 -2.42566 -2.55849 -2.5661 -3.4189 -3.42588
2.3825 -2.26953 -2.25821 -2.39973 -2.40901 -3.11927 -3.12457
2.3925 -2.10974 -2.09786 -2.24753 -2.2585 -2.82098 -2.82452
2.4025 -1.95511 -1.94257 -2.09869 -2.11125 -2.52249 -2.52424
2.4125 -1.80303 -1.78989 -1.94947 -1.9635 -2.22183 -2.22181
2.4225 -1.65084 -1.63726 -1.7961 -1.8115 -1.91702 -1.91527
2.4325 -1.4963 -1.48238 -1.6352 -1.65186 -1.60635 -1.60289
2.4425 -1.3377 -1.32352 -1.46416 -1.48187 -1.28874 -1.28366
2.4525 -1.17407 -1.1598 -1.28127 -1.29976 -0.963902 -0.957349
2.4625 -1.00533 -0.991149 -1.0858 -1.10474 -0.632485 -0.624565
2.4725 -0.832162 -0.818236 -0.877897 -0.896988 -0.295812 -0.28664
2.4825 -0.655521 -0.642036 -0.658165 -0.677153 0.0444826 0.0547747
2.4925 -0.476361 -0.46352 -0.427465 -0.446062 0.386791 0.398033
2.5025 -0.295371 -0.283367 -0.186616 -0.204472 0.729778 0.741786
2.5125 -0.112799 -0.101813 0.0638308 0.0470823 1.07254 1.08514
2.5225 0.071461 0.0812486 0.323519 0.308197 1.41453 1.42755
2.5325 0.257538 0.265963 0.59193 0.578302 1.75524 1.76853
2.5425 0.445228 0.452147 0.868014 0.85633 2.09389 2.1073
2.5525 0.633766 0.639058 1.14999 1.14049 2.42915 2.44253
2.5625 0.821747 0.825311 1.43531 1.42821 2.75905 2.77227
2.5725 1.00725 1.00901 1.72084 1.71629 3.08118 3.09412
2.5825 1.18817 1.18808 2.00316 2.00126 3.39293 3.4055
2.5925 1.36239 1.36043 2.27874 2.27954 3.69174 3.70387
2.6025 1.52779 1.52397 2.54403 2.54755 3.97503 3.98668
2.6125 1.68235 1.67671 2.79556 2.80177 4.24041 4.25154
2.6225 1.82441 1.81701 3.03024 3.03905 4.4858 4.4964
2.6325 1.95281 1.94376 3.24553 3.2568 4.70969 4.71977
2.6425 2.06694 2.05637 3.43949 3.45302 4.91109 4.9207
2.6525 2.16681 2.15487 3.6109 3.62647 5.08969 5.09888
2.6625 2.25311 2.23998 3.75937 3.7767 5.24588 5.25472
2.6725 2.32727 2.31315 3.88538 3.90416 5.3808 5.38937
2.6825 2.39132 2.37644 3.99021 4.0101 5.49625 5.50466
2.6925 2.44773 2.43233 4.07577 4.09641 5.5945 5.60285
2.7025 2.49901 2.48334 4.14426 4.16526 5.67791 5.68631
2.7125 2.54744 2.53177 4.1979 4.21886 5.7487 5.75727
2.7225 2.59518 2.57976 4.23899 4.25953 5.80902 5.81786
2.7325 2.6444 2.62947 4.27014 4.28989 5.86109 5.87031
2.7425 2.69733 2.68309 4.29423 4.31283 5.90728 5.91697
2.7525 2.75597 2.74262 4.3142 4.33134 5.94985 5.96009
2.7625 2.82189 2.80963 4.3328 4.34819 5.99071 6.00156
2.7725 2.896 2.88498 4.35228 4.36569 6.0312 6.0427
2.7825 2.97832 2.96867 4.3742 4.38545 6.07185 6.08403
2.7925 3.06796 3.05976 4.39934 4.40831 6.11239 6.12523
2.8025 3.16329 3.1566 4.42784 4.43448 6.15188 6.16535
2.8125 3.26241 3.25723 4.45962 4.46394 6.18917 6.20321
2.8225 3.36341 3.35972 4.49457 4.49667 6.22315 6.23768
2.8325 3.46453 3.46226 4.53268 4.53272 6.25291 6.26782
2.8425 3.56411 3.56314 4.57396 4.57214 6.27764 6.29281
2.8525 3.66052 3.66072 4.61832 4.6149 6.29663 6.31191
2.8625 3.75223 3.75343 4.66554 4.66085 6.30923 6.32446
2.8725 3.83787 3.83986 4.71538 4.70976 6.31493 6.32994
2.8825 3.91646 3.91904 4.76774 4.76159 6.31364 6.32824
2.8925 3.98771 3.99065 4.82295 4.81666 6.30588 6.31989
2.9025 4.05215 4.05522 4.88186 4.87585 6.29297 6.30622
2.9125 4.11098 4.11392 4.94574 4.94041 6.27686 6.28918
2.9225 4.16577 4.16797 5.01583 5.01167 6.25974 6.27094
2.9325 4.21784 4.21905 5.09284 5.09024 6.2435 6.25342
2.9425 4.2675 4.2677 5.17659 5.17584 6.22926 6.23779
2.9525 4.3143 4.31348 5.26568 5.26701 6.21708 6.22413
2.9625 4.35702 4.35516 5.35763 5.36122 6.20614 6.21167
2.9725 4.39402 4.39104 5.44946 5.45551 6.19523 6.19922
2.9825 4.42368 4.41947 5.53808 5.54671 6.1831 6.18553
2.9925 4.44439 4.43874 5.62026 5.63156 6.16836 6.16923
3.0025 4.45436 4.44704 5.69257 5.70657 6.14942 6.14878
3.0125 4.45141 4.44247 5.75141 5.76806 6.12446 6.12239
3.0225 4.43356 4.4231 5.79308 5.81229 6.0915 6.08814
3.0325 4.39899 4.38698 5.81395 5.83556 6.04852 6.04401
3.0425 4.34589 4.33236 5.81059 5.83436 5.99352 5.98801
3.0525 4.27315 4.25824 5.78033 5.806 5.92508 5.91876
3.0625 4.18107 4.16494 5.72196 5.7492 5.84299 5.83608
3.0725 4.07149 4.05424 5.63589 5.66432 5.7484 5.74118
3.0825 3.9471 3.92889 5.52367 5.55285 5.64334 5.63606
3.0925 3.81096 3.79204 5.38746 5.41691 5.53016 5.52307
3.1025 3.66629 3.64692 5.22981 5.25901 5.41124 5.40461
3.1125 3.51628 3.49673 5.05351 5.08194 5.28889 5.28297
3.1225 3.36401 3.34457 4.86162 4.88874 5.16532 5.1604
3.1325 3.21254 3.19353 4.65749 4.68279 5.04274 5.0391
3.1425 3.06496 3.04667 4.44488 4.46784 4.92344 4.92127
3.1525 2.92432 2.90706 4.22779 4.24794 4.80968 4.80916
3.1625 2.79327 2.77733 4.0102 4.02712 4.70336 4.70466
3.1725 2.67352 2.65914 3.79541 3.80875 4.60554 4.60881
3.1825 2.56552 2.55291 3.58577 3.59525 4.51611 4.52147
3.1925 2.46871 2.45804 3.38283 3.38826 4.43408 4.44157
3.2025 2.38179 2.37316 3.18753 3.18881 4.35778 4.36739
3.2125 2.30277 2.29621 3.00022 2.99737 4.28492 4.29659
3.2225 2.22907 2.22455 2.82067 2.81381 4.21268 4.22633
3.2325 2.15779 2.15521 2.64831 2.63764 4.138 4.1535
3.2425 2.08612 2.0853 2.48243 2.46827 4.05792 4.07507
3.2525 2.01157 2.01229 2.32252 2.30528 3.96985 3.98843
3.2625 1.93217 1.93415 2.16825 2.14839 3.87168 3.89142
3.2725 1.84624 1.84917 2.0193 1.99737 3.76164 3.78226
3.2825 1.75233 1.75586 1.87517 1.85174 3.63812 3.65931
3.2925 1.64917 1.65293 1.73515 1.71083 3.49969 3.52114
3.3025 1.53583 1.53945 1.59844 1.57386 3.34524 3.36662
3.3125 1.41181 1.41491 1.46427 1.44003 3.17406 3.19504
3.3225 1.27707 1.27931 1.33186 1.30855 2.98587 3.00613
3.3325 1.13202 1.13306 1.2005 1.17865 2.78078 2.80002
3.3425 0.977386 0.976945 1.06943 1.04953 2.55923 2.57719
3.3525 0.814121 0.811948 0.937764 0.920228 2.32185 2.3383
3.3625 0.643204 0.639107 0.804395 0.78954 2.06932 2.08405
3.3725 0.465535 0.459381 0.667907 0.655964 1.80223 1.81508
3.3825 0.281883 0.273597 0.526607 0.517709 1.52106 1.53191
3.3925 0.092832 0.0830883 0.378633 0.372684 1.22621 1.23501
3.4025 -0.101216 -0.112058 0.222301 0.218917 0.91813 0.924935
3.4125 -0.299414 -0.311622 0.0561355 0.0552177 0.597578 0.60235
3.4225 -0.50084 -0.514266 -0.120833 -0.119489 0.265987 0.2688
3.4325 -0.703795 -0.718091 -0.308511 -0.305076 -0.0744857 -0.0735787
3.4425 -0.905643 -0.920618 -0.50589 -0.500755 -0.421009 -0.421894
3.4525 -1.1035 -1.11899 -0.71137 -0.705036 -0.770305 -0.77282
3.4625 -1.29453 -1.31024 -0.923079 -0.91605 -1.11898 -1.12298
3.4725 -1.47614 -1.49169 -1.13909 -1.13182 -1.46382 -1.46909
3.4825 -1.64623 -1.66115 -1.35761 -1.35057 -1.80209 -1.80841
3.4925 -1.80326 -1.81728 -1.57714 -1.57088 -2.13166 -2.13879
3.5025 -1.94649 -1.95936 -1.79649 -1.7916 -2.45097 -2.45872
3.5125 -2.07585 -2.08722 -2.0147 -2.01174 -2.75899 -2.76716
3.5225 -2.19149 -2.20105 -2.23088 -2.23024 -3.05496 -3.06333
3.5325 -2.2936 -2.30112 -2.44382 -2.44586 -3.33813 -3.3465
3.5425 -2.38246 -2.38773 -2.65199 -2.65705 -3.60769 -3.6159
3.5525 -2.45856 -2.46141 -2.85382 -2.86224 -3.86305 -3.87094
3.5625 -2.52276 -2.52306 -3.04798 -3.05998 -4.10391 -4.1114
3.5725 -2.57644 -2.57407 -3.23352 -3.24921 -4.33053 -4.33753
3.5825 -2.62164 -2.61658 -3.41002 -3.42944 -4.5438 -4.55025
3.5925 -2.66124 -2.65353 -3.57782 -3.60092 -4.7454 -4.75129
3.6025 -2.69893 -2.68869 -3.73813 -3.76478 -4.93788 -4.94322
3.6125 -2.73907 -2.72648 -3.89297 -3.92291 -5.12448 -5.12934
3.6225 -2.7861 -2.77142 -4.04465 -4.07752 -5.30864 -5.31311
3.6325 -2.844 -2.82756 -4.19529 -4.23066 -5.49347 -5.49765
3.6425 -2.91589 -2.89805 -4.34647 -4.38385 -5.68132 -5.68536
3.6525 -3.00395 -2.98513 -4.49926 -4.53811 -5.87383 -5.87787
3.6625 -3.10935 -3.08982 -4.65416 -4.69398 -6.07183 -6.07603
3.6725 -3.23251 -3.21253 -4.81101 -4.85135 -6.27526 -6.27975
3.6825 -3.37261 -3.35248 -4.96894 -5.00925 -6.48309 -6.48804
3.6925 -3.52779 -3.50789 -5.12662 -5.16638 -6.69351 -6.69906
3.7025 -3.69562 -3.67632 -5.28238 -5.32106 -6.90418 -6.91047
3.7125 -3.87347 -3.85504 -5.43466 -5.47182 -7.11267 -7.11982
3.7225 -4.05889 -4.04156 -5.58242 -5.61769 -7.31687 -7.32499
3.7325 -4.24979 -4.23381 -5.72535 -5.75842 -7.51524 -7.52437
3.7425 -4.4443 -4.42984 -5.86351 -5.89411 -7.70645 -7.71663
3.7525 -4.64038 -4.62754 -5.99696 -6.02492 -7.88912 -7.90035
3.7625 -4.83582 -4.82466 -6.12573 -6.15097 -8.06179 -8.07405
3.7725 -5.02838 -5.01894 -6.2499 -6.27242 -8.22308 -8.23631
3.7825 -5.21589 -5.20813 -6.36954 -6.38943 -8.37167 -8.38576
3.7925 -5.39613 -5.38996 -6.48467 -6.5021 -8.50624 -8.52107
3.8025 -5.56695 -5.56227 -6.59524 -6.61044 -8.6256 -8.641
3.8125 -5.72647 -5.7231 -6.70125 -6.71455 -8.72877 -8.74458
3.8225 -5.87312 -5.87086 -6.8028 -6.81456 -8.81513 -8.83113
3.8325 -6.00552 -6.00414 -6.89991 -6.91058 -8.88421 -8.90019
3.8425 -6.12233 -6.12157 -6.99232 -7.00234 -8.93554 -8.95126
3.8525 -6.22212 -6.22171 -7.07936 -7.08922 -8.96853 -8.98376
3.8625 -6.30362 -6.30327 -7.16013 -7.17033 -8.98269 -8.9972
3.8725 -6.36609 -6.36552 -7.23391 -7.24495 -8.97799 -8.99155
3.8825 -6.40968 -6.40861 -7.30053 -7.31289 -8.95524 -8.96764
3.8925 -6.43551 -6.43366 -7.36037 -7.3745 -8.9161 -8.92715
3.9025 -6.4454 -6.44235 -7.41416 -7.43047 -8.86282 -8.87234
3.9125 -6.4414 -6.43688 -7.46268 -7.48155 -8.79794 -8.80578
3.9225 -6.4258 -6.41967 -7.50664 -7.52838 -8.72414 -8.73019
3.9325 -6.40119 -6.39327 -7.54671 -7.57153 -8.64413 -8.64832
3.9425 -6.37026 -6.36041 -7.58352 -7.61154 -8.56072 -8.56303
3.9525 -6.33578 -6.32397 -7.61776 -7.64901 -8.47684 -8.47727
3.9625 -6.30062 -6.28692 -7.65018 -7.68459 -8.39543 -8.39404
3.9725 -6.26754 -6.25202 -7.6814 -7.71881 -8.31924 -8.31613
3.9825 -6.23868 -6.2215 -7.7116 -7.75178 -8.25047 -8.24576
3.9925 -6.21519 -6.19655 -7.74015 -7.78276 -8.1903 -8.18418
4.0025 -6.19708 -6.17723 -7.7655 -7.81016 -8.13881 -8.13147
4.0125 -6.18355 -6.16275 -7.78553 -7.83182 -8.09526 -8.0869
4.0225 -6.17349 -6.15203 -7.79816 -7.84561 -8.05864 -8.04954
4.0325 -6.1658 -6.14398 -7.80162 -7.84974 -8.02796 -8.0184
4.0425 -6.15943 -6.13756 -7.7945 -7.84277 -8.00229 -7.99253
4.0525 -6.1534 -6.13176 -7.77576 -7.82369 -7.98074 -7.97102
4.0625 -6.14677 -6.12562 -7.74477 -7.79186 -7.96246 -7.95305
4.0725 -6.1389 -6.1185 -7.70149 -7.74728 -7.94689 -7.93805
4.0825 -6.12974 -6.11034 -7.64678 -7.69084 -7.93408 -7.92604
4.0925 -6.11994 -6.10172 -7.58243 -7.62436 -7.92467 -7.91767
4.1025 -6.11038 -6.09355 -7.51073 -7.5502 -7.91962 -7.91384
4.1125 -6.10178 -6.08647 -7.43397 -7.47071 -7.91965 -7.91526
4.1225 -6.09423 -6.08057 -7.35405 -7.38785 -7.92491 -7.92203
4.1325 -6.08711 -6.07516 -7.27222 -7.30295 -7.93475 -7.93345
4.1425 -6.07926 -6.06903 -7.18926 -7.21688 -7.94798 -7.94832
4.1525 -6.06951 -6.06097 -7.10598 -7.13051 -7.96335 -7.96536
4.1625 -6.05705 -6.0501 -7.02347 -7.04504 -7.97996 -7.98361
4.1725 -6.04147 -6.03599 -6.94314 -6.96193 -7.99725 -8.00249
4.1825 -6.0227 -6.01852 -6.86659 -6.88285 -8.01494 -8.02167
4.1925 -6.00097 -5.99788 -6.7955 -6.80956 -8.03301 -8.04111
4.2025 -5.97676 -5.97454 -6.73161 -6.74383 -8.05164 -8.06096
4.2125 -5.9507 -5.9491 -6.67651 -6.6873 -8.07109 -8.08146
4.2225 -5.92322 -5.92198 -6.63135 -6.64114 -8.09139 -8.10262
4.2325 -5.89429 -5.89312 -6.59649 -6.60573 -8.11206 -8.12396
4.2425 -5.86319 -5.86183 -6.57132 -6.58048 -8.13192 -8.14427
4.2525 -5.82853 -5.82668 -6.55422 -6.56376 -8.14904 -8.16163
4.2625 -5.78848 -5.78587 -6.54282 -6.5532 -8.16103 -8.17366
4.2725 -5.74105 -5.7374 -6.53427 -6.54592 -8.16528 -8.17774
4.2825 -5.68408 -5.67913 -6.52524 -6.53857 -8.15897 -8.17109
4.2925 -5.61538 -5.60888 -6.5121 -6.52745 -8.13919 -8.15078
4.3025 -5.53305 -5.52481 -6.49122 -6.50889 -8.10326 -8.11419
4.3125 -5.43584 -5.42567 -6.45938 -6.47962 -8.04911 -8.05925
4.3225 -5.3232 -5.31098 -6.4139 -6.43685 -7.97527 -7.98454
4.3325 -5.19533 -5.18097 -6.35267 -6.37842 -7.88104 -7.88937
4.3425 -5.05329 -5.03678 -6.2744 -6.30292 -7.76649 -7.77387
4.3525 -4.89902 -4.8804 -6.17862 -6.2098 -7.63259 -7.63901
4.3625 -4.73513 -4.71452 -6.0656 -6.09924 -7.48095 -7.48648
4.3725 -4.56463 -4.54218 -5.93613 -5.97193 -7.31363 -7.31833
4.3825 -4.39056 -4.36652 -5.79125 -5.82884 -7.13278 -7.13677
4.3925 -4.21569 -4.19035 -5.63195 -5.67088 -6.94033 -6.94374
4.4025 -4.04229 -4.01598 -5.45909 -5.49885 -6.73785 -6.74083
4.4125 -3.87222 -3.8453 -5.27341 -5.31345 -6.52655 -6.52927
4.4225 -3.70696 -3.67981 -5.07574 -5.11547 -6.30746 -6.31009
4.4325 -3.54776 -3.52077 -4.86705 -4.90589 -6.08146 -6.08418
4.4425 -3.39558 -3.36916 -4.64851 -4.68586 -5.84936 -5.85235
4.4525 -3.25117 -3.2257 -4.42144 -4.45674 -5.61185 -5.61526
4.4625 -3.11488 -3.09073 -4.18723 -4.21994 -5.36942 -5.3734
4.4725 -2.98665 -2.96432 -3.94724 -3.97686 -5.1223 -5.12697
4.4825 -2.86588 -2.84603 -3.70286 -3.72885 -4.87049 -4.87599
4.4925 -2.75219 -2.73467 -3.45562 -3.47774 -4.614 -4.62035
4.5025 -2.64508 -2.62986 -3.20727 -3.22529 -4.35304 -4.36027
4.5125 -2.54386 -2.53118 -2.96001 -2.97387 -4.08815 -4.09621
4.5225 -2.44836 -2.43837 -2.71633 -2.72597 -3.82006 -3.82889
4.5325 -2.35833 -2.35096 -2.47863 -2.48408 -3.54948 -3.559
4.5425 -2.27282 -2.26831 -2.24895 -2.25035 -3.27695 -3.28704
4.5525 -2.19109 -2.18951 -2.02887 -2.02647 -3.00267 -3.01318
4.5625 -2.11205 -2.11292 -1.81932 -1.81345 -2.72643 -2.73713
4.5725 -2.03369 -2.03671 -1.6207 -1.61175 -2.44766 -2.45831
4.5825 -1.95385 -1.95894 -1.43292 -1.42145 -2.16569 -2.17603
4.5925 -1.8708 -1.87764 -1.25571 -1.2423 -1.87989 -1.88967
4.6025 -1.78277 -1.79089 -1.0885 -1.07372 -1.58965 -1.59861
4.6125 -1.68773 -1.69678 -0.930241 -0.914675 -1.2943 -1.30215
4.6225 -1.58374 -1.59339 -0.779428 -0.763695 -0.993099 -0.999558
4.6325 -1.46907 -1.47892 -0.634247 -0.618996 -0.685351 -0.690157
4.6425 -1.34214 -1.35178 -0.492697 -0.478547 -0.370497 -0.373409
4.6525 -1.20152 -1.2106 -0.352555 -0.340059 -0.0480614 -0.048816
4.6625 -1.04597 -1.05417 -0.211324 -0.200998 0.282387 0.28392
4.6725 -0.874369 -0.881395 -0.0662556 -0.0585512 0.621234 0.625159
4.6825 -0.685738 -0.691327 0.0855724 0.0902825 0.9688 0.975231
4.6925 -0.479355 -0.483316 0.247086 0.248523 1.32527 1.3343
4.7025 -0.255052 -0.257248 0.420906 0.418889 1.69045 1.70213
4.7125 -0.013544 -0.0138841 0.608947 0.603397 2.06345 2.07769
4.7225 0.243359 0.244906 0.812108 0.803056 2.44233 2.45903
4.7325 0.51277 0.516162 1.03022 1.01781 2.8242 2.84319
4.7425 0.791047 0.79616 1.26229 1.24677 3.20546 3.22656
4.7525 1.07416 1.08079 1.50679 1.48854 3.58229 3.60528
4.7625 1.35787 1.36579 1.76177 1.74116 3.95096 3.97696
4.7725 1.63785 1.64683 2.02445 2.00205 4.30886 4.3369
4.7825 1.90964 1.91924 2.29208 2.26925 4.65241 4.67906
4.7925 2.169 2.1788 2.56194 2.53909 4.97642 5.00165
4.8025 2.41206 2.42177 2.8314 2.80873 5.27625 5.30137
4.8125 2.63624 2.6455 3.09812 3.07606 5.54989 5.57609
4.8225 2.84072 2.84911 3.36068 3.33996 5.7982 5.82539
4.8325 3.02639 3.03349 3.61924 3.6008 6.02359 6.05001
4.8425 3.19545 3.2009 3.87512 3.85971 6.22835 6.25252
4.8525 3.35063 3.35413 4.12982 4.11785 6.41436 6.4362
4.8625 3.4948 3.49607 4.38437 4.3762 6.58405 6.60433
4.8725 3.63081 3.62965 4.63939 4.63539 6.74079 6.75989
4.8825 3.76141 3.75765 4.89514 4.89571 6.88824 6.90563
4.8925 3.88903 3.88257 5.15154 5.1569 7.02929 7.04416
4.9025 4.0156 4.0064 5.4079 5.4181 7.16571 7.17775
4.9125 4.14235 4.13045 5.6628 5.67776 7.29851 7.30808
4.9225 4.26987 4.25537 5.91414 5.93371 7.42847 7.43605
4.9325 4.39819 4.38125 6.15938 6.18333 7.55621 7.56194
4.9425 4.52682 4.50764 6.39566 6.42366 7.68181 7.68554
4.9525 4.65488 4.63372 6.61998 6.65161 7.8047 7.80636
4.9625 4.78241 4.76261 6.82945 6.86381 7.92388 7.9238
4.9725 4.91172 4.893 7.02221 7.05694 8.0385 8.03753
4.9825 5.03705 5.01513 7.19715 7.2324 8.14833 8.14674
4.9925 5.15513 5.13428 7.35321 7.38901 8.25464 8.25246
5.0025 5.26981 5.25158 7.49186 7.52795 8.35957 8.35694
5.0125 5.38503 5.36712 7.6161 7.65228 8.46557 8.46252
5.0225 5.50191 5.48332 7.72853 7.76445 8.57523 8.57215
5.0325 5.62275 5.60495 7.83122 7.8665 8.6909 8.68814
5.0425 5.75006 5.73287 7.92622 7.96043 8.8142 8.81208
5.0525 5.88438 5.86751 8.01512 8.04776 8.94574 8.94437
5.0625 6.02444 6.00839 8.09857 8.12901 9.08503 9.08462
5.0725 6.16862 6.15383 8.17637 8.2042 9.2305 9.23129
5.0825 6.31477 6.3012 8.24766 8.27263 9.37971 9.38194
5.0925 6.4596 6.44726 8.31118 8.3331 9.52957 9.53339
5.1025 6.59939 6.58848 8.36559 8.38423 9.67669 9.68218
5.1125 6.73077 6.7214 8.40966 8.42486 9.81771 9.82488
5.1225 6.85077 6.84288 8.44248 8.45424 9.94954 9.95843
5.1325 6.95708 6.95062 8.46397 8.4724 10.0699 10.0805
5.1425 7.04847 7.04343 8.47512 8.48037 10.1777 10.19
5.1525 7.12481 7.12109 8.47778 8.48007 10.2726 10.2865
5.1625 7.18641 7.18385 8.4741 8.47371 10.355 10.3703
5.1725 7.23378 7.23222 8.46622 8.46352 10.4251 10.4418
5.1825 7.26756 7.26683 8.45615 8.45158 10.4837 10.5014
5.1925 7.28853 7.28841 8.44578 8.43979 10.5311 10.5498
5.2025 7.29752 7.29777 8.43673 8.42982 10.5682 10.5875
5.2125 7.29538 7.29575 8.43033 8.42299 10.5956 10.6153
5.2225 7.28291 7.28306 8.42749 8.42029 10.6138 10.6337
5.2325 7.26095 7.26053 8.42874 8.42227 10.6235 10.6433
5.2425 7.23043 7.22908 8.43429 8.42911 10.625 10.6445
5.2525 7.19237 7.18978 8.44412 8.44071 10.6191 10.638
5.2625 7.14796 7.14386 8.45802 8.45682 10.6064 10.6246
5.2725 7.09857 7.09274 8.47562 8.47699 10.5877 10.6049
5.2825 7.04561 7.03787 8.49637 8.50062 10.5638 10.58
5.2925 6.99041 6.98063 8.51942 8.52676 10.5356 10.5506
5.3025 6.93408 6.9222 8.54363 8.55418 10.5034 10.5172
5.3125 6.87755 6.86356 8.56757 8.58136 10.4678 10.4802
5.3225 6.82159 6.80554 8.58968 8.60663 10.4288 10.4399
5.3325 6.76687 6.74887 8.60834 8.62831 10.3866 10.3965
5.3425 6.71402 6.69422 8.62201 8.64476 10.3415 10.3502
5.3525 6.66363 6.64224 8.62932 8.65453 10.2935 10.3011
5.3625 6.61635 6.59361 8.62919 8.65647 10.243 10.2496
5.3725 6.57291 6.5491 8.62088 8.64979 10.1904 10.1963
5.3825 6.53413 6.50957 8.60407 8.63412 10.1364 10.1416
5.3925 6.50077 6.4758 8.57875 8.60941 10.0816 10.0864
5.4025 6.47335 6.44832 8.54502 8.57576 10.0266 10.0312
5.4125 6.4519 6.42715 8.5029 8.53315 9.97139 9.97598
5.4225 6.43577 6.41164 8.45208 8.48133 9.9156 9.92038
5.4325 6.42354 6.40034 8.39189 8.41963 9.85806 9.86321
5.4425 6.41312 6.39115 8.32132 8.34709 9.79706 9.80275
5.4525 6.40222 6.3817 8.23942 8.26284 9.73071 9.7371
5.4625 6.38861 6.36973 8.1456 8.16634 9.65726 9.66446
5.4725 6.37026 6.35315 8.03965 8.05745 9.57517 9.58328
5.4825 6.34535 6.3301 7.9217 7.93639 9.48315 9.49223
5.4925 6.31223 6.29886 7.79215 7.80364 9.38007 9.39015
5.5025 6.26942 6.25791 7.65156 7.65986 9.26493 9.276
5.5125 6.21544 6.20571 7.50049 7.50566 9.13674 9.14877
5.5225 6.14888 6.1408 7.33942 7.34161 8.99451 9.00743
5.5325 6.06853 6.06192 7.1689 7.16834 8.8374 8.8511
5.5425 5.97371 5.96836 6.9898 6.98678 8.66503 8.67939
5.5525 5.86472 5.86039 6.80373 6.79858 8.47793 8.4928
5.5625 5.7431 5.73953 6.61324 6.60634 8.2778 8.29301
5.5725 5.61148 5.60841 6.42172 6.41345 8.06734 8.08271
5.5825 5.47312 5.47031 6.23286 6.22363 7.84983 7.86519
5.5925 5.33131 5.32851 6.05012 6.04032 7.62854 7.6437
5.6025 5.18891 5.18591 5.87624 5.86626 7.40628 7.42105
5.6125 5.04803 5.04463 5.71301 5.7032 7.18511 7.19932
5.6225 4.91004 4.90606 5.5612 5.5519 6.96632 6.9798
5.6325 4.77566 4.77095 5.42075 5.41227 6.75055 6.76316
5.6425 4.64513 4.63956 5.29095 5.28354 6.53801 6.5496
5.6525 4.51832 4.51176 5.17053 5.16443 6.3285 6.33897
5.6625 4.39474 4.38712 5.0578 5.05318 6.12151 6.13077
5.6725 4.27374 4.26499 4.95077 4.94775 5.91637 5.92434
5.6825 4.15466 4.14476 4.8474 4.84605 5.71241 5.71907
5.6925 4.03695 4.02588 4.7457 4.74604 5.50908 5.5144
5.7025 3.91989 3.90769 4.64356 4.64554 5.30569 5.30969
5.7125 3.80245 3.78918 4.53856 4.5421 5.10122 5.10394
5.7225 3.68321 3.66893 4.42796 4.43292 4.89428 4.8957
5.7325 3.56052 3.54533 4.30896 4.31516 4.68311 4.68325
5.7425 3.43286 3.41688 4.17892 4.18607 4.46612 4.46539
5.7525 3.29916 3.28252 4.03578 4.04361 4.24232 4.24086
5.7625 3.15894 3.14192 3.87819 3.88645 4.01136 4.00918
5.7725 3.01187 2.99595 3.70563 3.71367 3.77321 3.77042
5.7825 2.85846 2.84306 3.51825 3.52579 3.52809 3.52483
5.7925 2.69952 2.68435 3.31636 3.32306 3.27661 3.27308
5.8025 2.53499 2.52044 3.1009 3.10657 3.01981 3.01624
5.8125 2.36605 2.35257 2.87362 2.87801 2.75918 2.75565
5.8225 2.19487 2.1824 2.63703 2.63979 2.49677 2.49337
5.8325 2.02348 2.01172 2.39416 2.39506 2.23506 2.23188
5.8425 1.85346 1.84303 2.1481 2.14715 1.97654 1.97367
5.8525 1.68729 1.6786 1.90165 1.89864 1.72326 1.72087
5.8625 1.52662 1.51918 1.65718 1.65199 1.47656 1.47473
5.8725 1.37151 1.36533 1.4163 1.40869 1.23712 1.23587
5.8825 1.22132 1.21673 1.17984 1.1698 1.00482 1.00419
5.8925 1.07542 1.0724 0.948097 0.935701 0.778947 0.778953
5.9025 0.932772 0.931143 0.721229 0.706557 0.558541 0.559194
5.9125 0.792134 0.791851 0.499444 0.482547 0.34271 0.343987
5.9225 0.652536 0.653621 0.283036 0.264 0.130751 0.132603
5.9325 0.513337 0.515671 0.0723211 0.0513236 -0.0779107 -0.0755534
5.9425 0.373831 0.377237 -0.132484 -0.155199 -0.28387 -0.28109
5.9525 0.233115 0.237471 -0.331365 -0.355546 -0.487847 -0.484737
5.9625 0.0902131 0.0953988 -0.524584 -0.549983 -0.690706 -0.687371
5.9725 -0.0558148 -0.0499755 -0.712619 -0.738967 -0.893354 -0.889907
5.9825 -0.205811 -0.199504 -0.89603 -0.923023 -1.0966 -1.09316
5.9925 -0.360413 -0.353802 -1.07534 -1.10266 -1.30105 -1.29775
6.0025 -0.52 -0.513248 -1.25102 -1.27836 -1.50712 -1.50408
6.0125 -0.684788 -0.678068 -1.42359 -1.45068 -1.71512 -1.71245
6.0225 -0.854988 -0.848457 -1.59376 -1.62033 -1.92535 -1.92316
6.0325 -1.03088 -1.02468 -1.76251 -1.7883 -2.13823 -2.13662
6.0425 -1.21283 -1.20708 -1.93105 -1.95584 -2.35432 -2.35337
6.0525 -1.40126 -1.39608 -2.1008 -2.12441 -2.57431 -2.57414
6.0625 -1.59653 -1.592 -2.27321 -2.29552 -2.7989 -2.79947
6.0725 -1.79874 -1.79492 -2.44966 -2.47059 -3.02846 -3.02971
6.0825 -2.00765 -2.00457 -2.63121 -2.65067 -3.26299 -3.26499
6.0925 -2.22262 -2.22029 -2.8186 -2.83657 -3.50219 -3.50504
6.1025 -2.44283 -2.44125 -3.01236 -3.02888 -3.74573 -3.74942
6.1125 -2.66748 -2.66658 -3.21301 -3.22817 -3.99326 -3.99768
6.1225 -2.89571 -2.89543 -3.421 -3.43495 -4.24436 -4.24939
6.1325 -3.12644 -3.12668 -3.6365 -3.6494 -4.49835 -4.50391
6.1425 -3.35813 -3.35877 -3.85906 -3.87113 -4.75409 -4.76011
6.1525 -3.5885 -3.5894 -4.08737 -4.09884 -5.00973 -5.01614
6.1625 -3.81449 -3.81549 -4.31917 -4.33033 -5.26266 -5.26933
6.1725 -4.03248 -4.0334 -4.55144 -4.56261 -5.50965 -5.51641
6.1825 -4.23869 -4.23936 -4.78083 -4.79231 -5.74728 -5.75398
6.1925 -4.42972 -4.42993 -5.00407 -5.0162 -5.97239 -5.97892
6.2025 -4.60279 -4.60237 -5.2183 -5.23141 -6.18246 -6.18872
6.2125 -4.75602 -4.75477 -5.42129 -5.43571 -6.3758 -6.38164
6.2225 -4.8885 -4.88625 -5.61155 -5.62758 -6.55159 -6.55688
6.2325 -5.00034 -4.99693 -5.78837 -5.80628 -6.70995 -6.71458
6.2425 -5.09273 -5.08804 -5.9519 -5.97193 -6.852 -6.8559
6.2525 -5.16797 -5.16188 -6.10321 -6.12554 -6.97991 -6.98303
6.2625 -5.22921 -5.22165 -6.2441 -6.26885 -7.09664 -7.09895
6.2725 -5.27994 -5.27084 -6.37652 -6.40379 -7.20543 -7.2069
6.2825 -5.32342 -5.31272 -6.50221 -6.53201 -7.30924 -7.30988
6.2925 -5.36255 -5.35026 -6.62248 -6.65478 -7.41064 -7.41048
6.3025 -5.39982 -5.386 -6.73822 -6.77292 -7.51172 -7.51084
6.3125 -5.43723 -5.42199 -6.84994 -6.88687 -7.61409 -7.61259
6.3225 -5.47629 -5.45976 -6.95775 -6.99668 -7.71888 -7.71686
6.3325 -5.51804 -5.50038 -7.06146 -7.10211 -7.82673 -7.82432
6.3425 -5.56308 -5.5445 -7.16064 -7.20271 -7.93792 -7.93527
6.3525 -5.61167 -5.59243 -7.25475 -7.29789 -8.05237 -8.04965
6.3625 -5.66363 -5.64394 -7.3431 -7.38696 -8.16971 -8.16708
6.3725 -5.71886 -5.69876 -7.42496 -7.46927 -8.2893 -8.28691
6.3825 -5.77686 -5.75649 -7.49962 -7.54401 -8.41032 -8.40835
6.3925 -5.83681 -5.81643 -7.56649 -7.61061 -8.53181 -8.5304
6.4025 -5.89798 -5.87783 -7.62507 -7.66855 -8.65269 -8.65201
6.4125 -5.95964 -5.93989 -7.67501 -7.71753 -8.77187 -8.77207
6.4225 -6.02105 -6.00182 -7.71624 -7.75749 -8.88833 -8.88954
6.4325 -6.08145 -6.0629 -7.74892 -7.78864 -9.00113 -9.00346
6.4425 -6.14003 -6.1223 -7.7733 -7.81127 -9.1094 -9.11305
6.4525 -6.1957 -6.1789 -7.7894 -7.82547 -9.21197 -9.21679
6.4625 -6.24686 -6.23103 -7.79696 -7.83104 -9.307 -9.31291
6.4725 -6.29161 -6.27682 -7.79546 -7.82744 -9.39237 -9.3995
6.4825 -6.32822 -6.31448 -7.78454 -7.8144 -9.4662 -9.47468
6.4925 -6.35539 -6.34269 -7.76426 -7.79202 -9.52718 -9.53702
6.5025 -6.37226 -6.36055 -7.73505 -7.76081 -9.57447 -9.58551
6.5125 -6.37816 -6.36737 -7.6975 -7.72142 -9.60731 -9.61935
6.5225 -6.37243 -6.36249 -7.65209 -7.67435 -9.62486 -9.6378
6.5325 -6.3543 -6.34508 -7.59904 -7.61984 -9.62615 -9.63994
6.5425 -6.32272 -6.31403 -7.5381 -7.55771 -9.61005 -9.6246
6.5525 -6.27645 -6.26809 -7.46858 -7.48734 -9.57518 -9.59029
6.5625 -6.21424 -6.20595 -7.38951 -7.40776 -9.52004 -9.53549
6.5725 -6.1352 -6.12674 -7.30006 -7.31814 -9.44341 -9.45901
6.5825 -6.03933 -6.03046 -7.19997 -7.21821 -9.34489 -9.36047
6.5925 -5.9278 -5.91831 -7.08991 -7.10861 -9.22519 -9.24065
6.6025 -5.80284 -5.79254 -6.97129 -6.99075 -9.08611 -9.10128
6.6125 -5.66709 -5.65581 -6.84575 -6.86623 -8.9298 -8.94448
6.6225 -5.5231 -5.51073 -6.7147 -6.73638 -8.75828 -8.7723
6.6325 -5.37313 -5.3596 -6.57908 -6.60208 -8.57325 -8.58651
6.6425 -5.21915 -5.20442 -6.43946 -6.46386 -8.37618 -8.38861
6.6525 -5.06308 -5.04714 -6.29631 -6.32213 -8.16852 -8.18008
6.6625 -4.90686 -4.88977 -6.15012 -6.17732 -7.95185 -7.96248
6.6725 -4.75221 -4.73406 -6.00123 -6.02972 -7.72757 -7.73722
6.6825 -4.60029 -4.58121 -5.84951 -5.87913 -7.49657 -7.50522
6.6925 -4.45167 -4.4318 -5.69436 -5.7249 -7.25922 -7.26692
6.7025 -4.30668 -4.2862 -5.53511 -5.56633 -7.01582 -7.02261
6.7125 -4.16582 -4.14492 -5.37145 -5.40309 -6.76688 -6.77282
6.7225 -4.02984 -4.00875 -5.20355 -5.23531 -6.51333 -6.51846
6.7325 -3.89966 -3.8786 -5.03197 -5.06351 -6.25628 -6.26068
6.7425 -3.77604 -3.75524 -4.85735 -4.88835 -5.99687 -6.00062
6.7525 -3.65936 -3.63907 -4.68024 -4.71037 -5.73593 -5.73913
6.7625 -3.54946 -3.5299 -4.50086 -4.5298 -5.47386 -5.47658
6.7725 -3.44547 -3.42685 -4.31899 -4.34645 -5.21047 -5.2128
6.7825 -3.34592 -3.32842 -4.13403 -4.15974 -4.94505 -4.94706
6.7925 -3.24896 -3.23274 -3.94519 -3.96892 -4.67661 -4.67834
6.8025 -3.15261 -3.13778 -3.75168 -3.77326 -4.40403 -4.40554
6.8125 -3.05499 -3.04162 -3.55296 -3.57227 -4.12639 -4.12771
6.8225 -2.95459 -2.94273 -3.34892 -3.36588 -3.84315 -3.8443
6.8325 -2.85039 -2.84003 -3.13995 -3.15455 -3.55424 -3.55521
6.8425 -2.74172 -2.73284 -2.92684 -2.9391 -3.25998 -3.26075
6.8525 -2.62822 -2.62075 -2.71058 -2.72059 -2.96095 -2.96149
6.8625 -2.50972 -2.50354 -2.49231 -2.50017 -2.65789 -2.65815
6.8725 -2.38609 -2.3806 -2.27331 -2.27924 -2.35181 -2.3517
6.8825 -2.25723 -2.2531 -2.05492 -2.05925 -2.04395 -2.04338
6.8925 -2.12451 -2.12172 -1.83872 -1.84166 -1.7358 -1.73468
6.9025 -1.98934 -1.98777 -1.62642 -1.6281 -1.42885 -1.427
6.9125 -1.85217 -1.85144 -1.41961 -1.42001 -1.12459 -1.12224
6.9225 -1.71325 -1.71342 -1.21939 -1.21879 -0.824496 -0.8216
6.9325 -1.57299 -1.57396 -1.02634 -1.02509 -0.529783 -0.526188
6.9425 -1.43146 -1.43296 -0.840707 -0.839176 -0.241085 -0.236552
6.9525 -1.28819 -1.28999 -0.66223 -0.660651 0.0414604 0.0470299
6.9625 -1.1424 -1.14441 -0.490146 -0.488713 0.318054 0.32464
6.9725 -0.993243 -0.995316 -0.323221 -0.322178 0.589081 0.596648
6.9825 -0.839719 -0.841653 -0.159864 -0.159495 0.855113 0.863704
6.9925 -0.680591 -0.682235 0.00175423 0.00121162 1.11695 1.12666
7.0025 -0.514591 -0.515842 0.163643 0.162026 1.3756 1.38649
7.0125 -0.340574 -0.341323 0.327902 0.32509 1.6321 1.64416
7.0225 -0.157636 -0.157782 0.496536 0.492421 1.88734 1.90047
7.0325 0.0347495 0.0352721 0.671238 0.665735 2.14183 2.15596
7.0425 0.236687 0.23791 0.853331 0.846412 2.39575 2.41084
7.0525 0.447957 0.449897 1.04387 1.03557 2.6491 2.66508
7.0625 0.668106 0.670753 1.24369 1.23409 2.90174 2.91852
7.0725 0.896441 0.899755 1.45339 1.4426 3.1534 3.17082
7.0825 1.13192 1.13583 1.67315 1.66132 3.4035 3.42139
7.0925 1.37299 1.37741 1.90256 1.8899 3.65101 3.66922
7.1025 1.61756 1.62238 2.14057 2.12732 3.89446 3.91282
7.1125 1.86301 1.8681 2.38548 2.37191 4.13189 4.15024
7.1225 2.10642 2.11163 2.63508 2.62149 4.3611 4.37926
7.1325 2.34488 2.35004 2.88701 2.87373 4.57998 4.59772
7.1425 2.57581 2.58075 3.13905 3.12641 4.78673 4.80381
7.1525 2.79717 2.80172 3.38926 3.37761 4.98004 4.99629
7.1625 3.00761 3.0116 3.63619 3.62585 5.15933 5.1746
7.1725 3.2066 3.20985 3.87898 3.87026 5.32484 5.33898
7.1825 3.39444 3.39681 4.1174 4.11058 5.47768 5.49052
7.1925 3.5722 3.57355 4.35176 4.34708 5.61961 5.63103
7.2025 3.74135 3.74156 4.5826 4.58029 5.75282 5.76271
7.2125 3.90354 3.90253 4.81055 4.81076 5.87965 5.88795
7.2225 4.06042 4.05811 5.03606 5.03889 6.00239 6.00907
7.2325 4.21339 4.20976 5.2593 5.26481 6.12311 6.12816
7.2425 4.36362 4.35866 5.48014 5.48833 6.24357 6.24701
7.2525 4.51204 4.50578 5.69824 5.70905 6.3653 6.36717
7.2625 4.65939 4.65187 5.91309 5.92642 6.4896 6.48998
7.2725 4.80625 4.79755 6.12407 6.13977 6.61756 6.61648
7.2825 4.95308 4.94329 6.33061 6.34847 6.75001 6.74765
7.2925 5.10025 5.0895 6.53211 6.55182 6.88777 6.88447
7.3025 5.24803 5.23646 6.728 6.74931 7.03161 7.02751
7.3125 5.39663 5.38438 6.91783 6.94047 7.18219 7.17737
7.3225 5.5462 5.53343 7.10129 7.12496 7.33994 7.33454
7.3325 5.69678 5.68366 7.27823 7.30259 7.50517 7.49941
7.3425 5.84836 5.83506 7.44857 7.47325 7.67806 7.67223
7.3525 6.00073 5.98741 7.61222 7.63691 7.85865 7.85299
7.3625 6.15338 6.1402 7.76905 7.79342 8.04665 8.04136
7.3725 6.30545 6.29256 7.91872 7.94249 8.24135 8.23658
7.3825 6.4558 6.44332 8.06083 8.0837 8.44166 8.4376
7.3925 6.60328 6.59133 8.19509 8.21682 8.64644 8.6433
7.4025 6.74708 6.73574 8.32168 8.34207 8.85485 8.8528
7.4125 6.88671 6.87608 8.44121 8.4601 9.0664 9.06563
7.4225 7.02186 7.01199 8.55452 8.5718 9.28071 9.28121
7.4325 7.15219 7.14309 8.66249 8.67811 9.49715 9.49894
7.4425 7.27727 7.26892 8.76595 8.77987 9.71496 9.71816
7.4525 7.39665 7.38902 8.86568 8.87793 9.93337 9.93812
7.4625 7.50992 7.50291 8.96244 8.97312 10.1517 10.158
7.4725 7.61698 7.61027 9.057 9.06639 10.3693 10.3772
7.4825 7.71811 7.71155 9.15012 9.15839 10.5857 10.5949
7.4925 7.81317 7.80668 9.24262 9.24992 10.8 10.8105
7.5025 7.90218 7.89573 9.33507 9.34154 11.0115 11.0234
7.5125 7.98518 7.97866 9.42781 9.43365 11.2195 11.2326
7.5225 8.06203 8.05528 9.52086 9.52636 11.4231 11.4374
7.5325 8.13233 8.12525 9.614 9.61941 11.621 11.6363
7.5425 8.19556 8.18806 9.70665 9.71221 11.8121 11.8282
7.5525 8.25127 8.24322 9.79809 9.80402 11.9948 12.0117
7.5625 8.29951 8.29056 9.88778 9.89432 12.1682 12.1858
7.5725 8.34053 8.33076 9.97559 9.98294 12.332 12.3501
7.5825 8.37502 8.36447 10.0618 10.0702 12.4861 12.5047
7.5925 8.40421 8.3928 10.1468 10.1563 12.631 12.6499
7.6025 8.42902 8.41654 10.2305 10.2414 12.7668 12.7859
7.6125 8.44966 8.43604 10.3123 10.3246 12.8929 12.9121
7.6225 8.46568 8.45092 10.3906 10.4045 13.0083 13.0274
7.6325 8.47629 8.46032 10.4635 10.4791 13.1113 13.1304
7.6425 8.48077 8.46355 10.5289 10.5462 13.2006 13.2195
7.6525 8.47902 8.46057 10.5857 10.6047 13.2754 13.2941
7.6625 8.47162 8.452 10.6332 10.6539 13.3357 13.3541
7.6725 8.45954 8.43879 10.6711 10.6933 13.3818 13.3999
7.6825 8.44389 8.42213 10.6994 10.723 13.4142 13.4321
7.6925 8.42591 8.40326 10.7183 10.7432 13.4339 13.4514
7.7025 8.40684 8.38347 10.7283 10.7541 13.4415 13.4588
7.7125 8.38796 8.36404 10.7297 10.7563 13.4381 13.4552
7.7225 8.37052 8.34626 10.7234 10.7505 13.4247 13.4416
7.7325 8.35577 8.33138 10.7103 10.7376 13.4024 13.4192
7.7425 8.3449 8.32059 10.6913 10.7185 13.3723 13.3891
7.7525 8.33882 8.31481 10.6676 10.6943 13.3356 13.3523
7.7625 8.33792 8.31444 10.6399 10.6659 13.2928 13.3096
7.7725 8.34182 8.31907 10.6083 10.6333 13.244 13.2608
7.7825 8.34914 8.32729 10.5724 10.5961 13.1881 13.205
7.7925 8.3576 8.33681 10.5308 10.553 13.1236 13.1406
7.8025 8.36447 8.34483 10.4818 10.5024 13.0483 13.0655
7.8125 8.36696 8.34854 10.4239 10.4428 12.9602 12.9774
7.8225 8.36262 8.34544 10.3559 10.3731 12.8576 12.8749
7.8325 8.34959 8.33364 10.2773 10.2927 12.7394 12.7567
7.8425 8.32665 8.31187 10.1879 10.2017 12.6051 12.6224
7.8525 8.29302 8.27934 10.0884 10.1005 12.4549 12.4721
7.8625 8.24818 8.23549 9.9791 9.98973 12.289 12.3059
7.8725 8.19173 8.1799 9.86068 9.86999 12.1076 12.1243
7.8825 8.12341 8.11229 9.73365 9.74183 11.9113 11.9276
7.8925 8.04297 8.03242 9.5984 9.60567 11.7005 11.7164
7.9025 7.95025 7.94008 9.45522 9.4618 11.4757 11.4909
7.9125 7.84515 7.83519 9.30425 9.31038 11.2373 11.2518
7.9225 7.72766 7.71774 9.14556 9.15147 10.9858 10.9995
7.9325 7.59793 7.58788 8.97916 8.98506 10.7219 10.7346
7.9425 7.45625 7.44591 8.80499 8.8111 10.4461 10.4579
7.9525 7.30303 7.29225 8.62298 8.62947 10.1593 10.17
7.9625 7.13887 7.12752 8.43306 8.44009 9.86217 9.87177
7.9725 6.96457 6.95255 8.23524 8.24293 9.55584 9.56429
7.9825 6.78118 6.76842 8.02965 8.03807 9.24144 9.24872
7.9925 6.59003 6.57648 7.81666 7.82583 8.92039 8.9265
8.0025 6.39283 6.37847 7.59692 7.60683 8.59442 8.59939
8.015 6.14089 6.12555 7.31427 7.32501 8.1831 8.18671
8.0275 5.88695 5.87074 7.025 7.03639 7.77152 7.77387
8.04 5.63515 5.61823 6.73149 6.74325 7.36373 7.36497
8.0525 5.38836 5.37093 6.43519 6.44698 6.96256 6.96274
8.065 5.14746 5.12977 6.13597 6.1474 6.56872 6.5681
8.0775 4.91157 4.89388 5.8323 5.84289 6.1813 6.18028
8.09 4.67908 4.66163 5.52233 5.53172 5.79892 5.79763
8.1025 4.44866 4.43166 5.20493 5.21277 5.42038 5.41884
8.115 4.21954 4.20322 4.88007 4.88597 5.04491 5.04332
8.1275 3.99095 3.9755 4.54797 4.55158 4.67178 4.67043
8.14 3.76082 3.74721 4.20798 4.20891 4.29925 4.29832
8.1525 3.52529 3.51395 3.8586 3.8563 3.92412 3.92374
8.165 3.28007 3.26974 3.49771 3.4924 3.54265 3.54273
8.1775 3.02066 3.01284 3.12399 3.11583 3.15201 3.15265
8.19 2.7469 2.74098 2.73851 2.72753 2.75108 2.75229
8.2025 2.45881 2.45437 2.34354 2.32977 2.34041 2.34218
8.215 2.15683 2.1542 1.94184 1.92561 1.92143 1.92366
8.2275 1.84287 1.84176 1.53644 1.51814 1.49571 1.49831
8.24 1.51876 1.51882 1.13057 1.11045 1.06513 1.06796
8.2525 1.18682 1.18802 0.727674 0.706047 0.632255 0.635214
8.265 0.850466 0.852553 0.331398 0.308692 0.200209 0.203147
8.2775 0.5129 0.515598 -0.054937 -0.0783181 -0.228 -0.225242
8.29 0.176404 0.179566 -0.429153 -0.452893 -0.650321 -0.647888
8.3025 -0.157812 -0.154396 -0.790763 -0.814543 -1.06593 -1.06389
8.315 -0.489591 -0.486122 -1.14063 -1.16411 -1.47498 -1.47348
8.3275 -0.819112 -0.815726 -1.48015 -1.50304 -1.87801 -1.87721
8.34 -1.14605 -1.14287 -1.8105 -1.83261 -2.27521 -2.2752
8.3525 -1.46941 -1.46655 -2.13242 -2.1536 -2.66611 -2.6669
8.365 -1.78776 -1.78525 -2.44631 -2.46646 -3.04973 -3.05134
8.3775 -2.09939 -2.09725 -2.75239 -2.77149 -3.42487 -3.42732
8.39 -2.40258 -2.40081 -3.05086 -3.06895 -3.79031 -3.7936
8.4025 -2.69598 -2.6945 -3.34215 -3.35935 -4.14521 -4.14925
8.415 -2.97877 -2.97749 -3.62714 -3.64363 -4.4892 -4.4939
8.4275 -3.25075 -3.24956 -3.90709 -3.92307 -4.82247 -4.82773
8.44 -3.51227 -3.51101 -4.18354 -4.19929 -5.14573 -5.15145
8.4525 -3.7643 -3.76281 -4.45838 -4.47419 -5.46028 -5.46632
8.465 -4.00811 -4.00623 -4.73346 -4.74963 -5.76765 -5.77386
8.4775 -4.2443 -4.24183 -5.00961 -5.02646 -6.06865 -6.07489
8.49 -4.47208 -4.46886 -5.28597 -5.30382 -6.36265 -6.36879
8.5025 -4.68967 -4.68552 -5.5603 -5.57944 -6.64798 -6.65389
8.515 -4.89488 -4.88966 -5.82967 -5.85038 -6.92254 -6.92809
8.5275 -5.08574 -5.0793 -6.09103 -6.11356 -7.18433 -7.18942
8.54 -5.26081 -5.25305 -6.3416 -6.36613 -7.43184 -7.43638
8.5525 -5.4195 -5.41035 -6.5792 -6.60588 -7.66431 -7.66826
8.565 -5.56265 -5.55205 -6.80291 -6.83181 -7.88234 -7.88569
8.5775 -5.69287 -5.68083 -7.01345 -7.04458 -8.08825 -8.091
8.59 -5.81447 -5.80103 -7.21323 -7.24651 -8.28598 -8.28817
8.6025 -5.93282 -5.91806 -7.40576 -7.44106 -8.48052 -8.48223
8.615 -6.05317 -6.03719 -7.59456 -7.63166 -8.67668 -8.67801
8.6275 -6.17976 -6.16272 -7.78238 -7.82102 -8.87834 -8.8794
8.64 -6.31543 -6.29749 -7.97084 -8.0107 -9.08794 -9.08889
8.6525 -6.46103 -6.44239 -8.15994 -8.20068 -9.30603 -9.30702
8.665 -6.6155 -6.59636 -8.34812 -8.38938 -9.53128 -9.53247
8.6775 -6.77654 -6.75709 -8.53299 -8.5744 -9.76117 -9.76273
8.69 -6.94098 -6.92142 -8.71163 -8.75287 -9.99238 -9.99445
8.7025 -7.10507 -7.08558 -8.88092 -8.92166 -10.221 -10.2238
8.715 -7.26467 -7.2454 -9.03759 -9.07757 -10.443 -10.4465
8.7275 -7.41553 -7.39661 -9.17858 -9.2176 -10.654 -10.6583
8.74 -7.55353 -7.53509 -9.30114 -9.33901 -10.8497 -10.8549
8.7525 -7.67489 -7.65702 -9.40296 -9.43955 -11.0262 -11.0324
8.765 -7.77626 -7.75897 -9.48215 -9.5174 -11.1802 -11.1874
8.7775 -7.85468 -7.83803 -9.53733 -9.57125 -11.3086 -11.3167
8.79 -7.90804 -7.89186 -9.56775 -9.60048 -11.409 -11.418
8.8025 -7.93531 -7.9195 -9.57328 -9.6049 -11.4797 -11.4897
8.815 -7.93555 -7.92015 -9.55426 -9.58488 -11.5197 -11.5305
8.8275 -7.90835 -7.89327 -9.5111 -9.54087 -11.5282 -11.5396
8.84 -7.8538 -7.83876 -9.44429 -9.47351 -11.5046 -11.5166
8.8525 -7.77261 -7.75738 -9.35463 -9.38363 -11.449 -11.4614
8.865 -7.66634 -7.65072 -9.24341 -9.27241 -11.3621 -11.3747
8.8775 -7.53748 -7.52127 -9.11234 -9.14156 -11.2454 -11.2581
8.89 -7.38948 -7.37252 -8.96375 -8.99341 -11.1013 -11.114
8.9025 -7.22674 -7.20894 -8.80069 -8.83092 -10.9329 -10.9455
8.915 -7.05443 -7.03576 -8.62679 -8.65765 -10.7444 -10.7568
8.9275 -6.87797 -6.85844 -8.44584 -8.47731 -10.5401 -10.5521
8.94 -6.70219 -6.68189 -8.26107 -8.29308 -10.3237 -10.3354
8.9525 -6.53066 -6.50973 -8.07457 -8.10698 -10.0981 -10.1093
8.965 -6.36509 -6.34369 -7.88681 -7.91941 -9.8643 -9.87509
8.9775 -6.20504 -6.18336 -7.69636 -7.72893 -9.62145 -9.63181
8.99 -6.04845 -6.02668 -7.50048 -7.53278 -9.36733 -9.37724
9.0025 -5.89279 -5.87112 -7.29627 -7.32804 -9.09942 -9.10889
9.015 -5.73606 -5.71468 -7.08166 -7.11265 -8.81593 -8.82498
9.0275 -5.57721 -5.55628 -6.8558 -6.88577 -8.51618 -8.52481
9.04 -5.4156 -5.39528 -6.61854 -6.64726 -8.20009 -8.20832
9.0525 -5.2503 -5.23072 -6.36967 -6.39694 -7.86743 -7.87525
9.065 -5.08 -5.06128 -6.10881 -6.13446 -7.5177 -7.5251
9.0775 -4.90323 -4.88545 -5.83558 -5.85949 -7.15036 -7.15734
9.09 -4.71841 -4.70161 -5.5496 -5.57168 -6.76487 -6.77138
9.1025 -4.52365 -4.50784 -5.25021 -5.27043 -6.36039 -6.3664
9.115 -4.3165 -4.30166 -4.93622 -4.95459 -5.93561 -5.94105
9.1275 -4.0944 -4.08046 -4.6062 -4.62278 -5.48904 -5.49386
9.14 -3.85579 -3.84264 -4.2596 -4.27448 -5.02019 -5.02431
9.1525 -3.60114 -3.58867 -3.89773 -3.91103 -4.53052 -4.53387
9.165 -3.33277 -3.32087 -3.52352 -3.53538 -4.02331 -4.02579
9.1775 -3.05365 -3.04263 -3.14052 -3.15093 -3.50247 -3.50405
9.19 -2.7657 -2.7561 -2.75226 -2.76106 -2.97185 -2.9725
9.2025 -2.47136 -2.46351 -2.36188 -2.36909 -2.43526 -2.43488
9.215 -2.17419 -2.16749 -1.97291 -1.97891 -1.89716 -1.89568
9.2275 -1.87759 -1.87206 -1.59009 -1.59517 -1.36291 -1.36003
9.24 -1.58628 -1.58196 -1.21898 -1.22313 -0.838562 -0.834699
9.2525 -1.3051 -1.30172 -0.864495 -0.867834 -0.33041 -0.325528
9.265 -1.03744 -1.03489 -0.530237 -0.533072 0.156355 0.162553
9.2775 -0.785551 -0.783774 -0.218696 -0.221235 0.618197 0.625848
9.29 -0.550379 -0.549212 0.0691934 0.0668781 1.05315 1.0621
9.3025 -0.331308 -0.330648 0.334202 0.331987 1.46048 1.4706
9.315 -0.126847 -0.126609 0.578135 0.575837 1.84031 1.85165
9.3275 0.0648108 0.0647424 0.803159 0.800657 2.19335 2.20598
9.34 0.245409 0.245119 1.01142 1.00866 2.52043 2.53426
9.3525 0.416859 0.416411 1.20538 1.20231 2.82262 2.83747
9.365 0.581932 0.581398 1.38846 1.38501 3.10189 3.11767
9.3775 0.744107 0.743539 1.56476 1.56092 3.36108 3.37773
9.39 0.906672 0.906106 1.73825 1.73404 3.6031 3.6205
9.4025 1.07184 1.0713 1.91186 1.90733 3.82999 3.84795
9.415 1.23992 1.23942 2.08665 2.08184 4.04202 4.06034
9.4275 1.40929 1.40882 2.26169 2.2567 4.23769 4.25622
9.44 1.57759 1.57714 2.43529 2.43023 4.41501 4.4336
9.4525 1.74341 1.74293 2.6066 2.6016 4.57315 4.59161
9.465 1.90685 1.90632 2.7762 2.77142 4.71298 4.73107
9.4775 2.06902 2.06839 2.94554 2.94115 4.83645 4.85398
9.49 2.2304 2.22961 3.11535 3.11149 4.94509 4.96188
9.5025 2.38971 2.38873 3.28447 3.28129 5.03882 5.05472
9.515 2.54427 2.54304 3.45017 3.44782 5.11631 5.13115
9.5275 2.69085 2.68933 3.60909 3.60771 5.17578 5.18941
9.54 2.82638 2.82452 3.75788 3.75757 5.21568 5.22798
9.5525 2.94789 2.94567 3.89317 3.89404 5.23461 5.24552
9.565 3.05233 3.04972 4.0114 4.01349 5.23115 5.24059
9.5775 3.13668 3.13369 4.10894 4.11229 5.20387 5.2118
9.59 3.19836 3.19498 4.18248 4.18709 5.15175 5.15817
9.6025 3.23544 3.23171 4.22938 4.2352 5.07438 5.07932
9.615 3.24695 3.24289 4.24785 4.2548 4.97219 4.97571
9.6275 3.23337 3.22895 4.2376 4.24559 4.84699 4.84917
9.64 3.19719 3.19242 4.20018 4.20911 4.70237 4.70331
9.6525 3.14287 3.13775 4.13915 4.14885 4.54352 4.54324
9.665 3.07596 3.07057 4.05939 4.06953 4.37663 4.37552
9.6775 3.00206 2.99657 3.96588 3.97617 4.20801 4.20629
9.69 2.92599 2.92053 3.86299 3.87315 4.04306 4.04077
9.7025 2.85114 2.8459 3.75415 3.76386 3.88557 3.88285
9.715 2.77935 2.77452 3.64152 3.65042 3.73767 3.73481
9.7275 2.71086 2.7066 3.52592 3.5337 3.59998 3.59725
9.74 2.64457 2.64105 3.40722 3.41361 3.4719 3.46942
9.7525 2.57877 2.57609 3.28489 3.28968 3.35198 3.34986
9.765 2.51188 2.5101 3.15878 3.16178 3.23883 3.23724
9.7775 2.44299 2.44215 3.02952 3.03063 3.1317 3.13081
9.79 2.37193 2.37203 2.89853 2.89772 3.03052 3.03039
9.8025 2.29871 2.29969 2.76742 2.76471 2.93526 2.93591
9.815 2.22305 2.22485 2.63745 2.63292 2.84546 2.84692
9.8275 2.14445 2.14695 2.50951 2.50331 2.76032 2.76261
9.84 2.06224 2.06529 2.38413 2.37645 2.67881 2.68191
9.8525 1.97531 1.97873 2.26112 2.25222 2.59938 2.60318
9.865 1.88184 1.88545 2.13934 2.1295 2.51951 2.52388
9.8775 1.77937 1.78292 2.01659 2.00611 2.43588 2.44079
9.89 1.66513 1.66841 1.89003 1.87923 2.34481 2.35021
9.9025 1.53669 1.53944 1.7567 1.74589 2.24283 2.24857
9.915 1.39224 1.39423 1.61389 1.60338 2.12688 2.13281
9.9275 1.23083 1.23185 1.45934 1.44938 1.99456 2.0006
9.94 1.05235 1.05224 1.29128 1.28208 1.84417 1.85028
9.9525 0.857286 0.855902 1.10822 1.09991 1.67454 1.68063
9.965 0.64657 0.643952 0.908931 0.901556 1.48484 1.49085
9.9775 0.421628 0.418738 0.692945 0.686113 1.27487 1.28084
9.99 0.184568 0.181058 0.460751 0.454322 1.04531 1.05124
10.0025 -0.0621307 -0.0661085 0.213411 0.207324 0.797802 0.803716
10.015 -0.315186 -0.319339 -0.0469133 -0.0526658 0.534732 0.540596
10.0275 -0.570022 -0.574365 -0.317104 -0.322829 0.259207 0.265046
10.04 -0.822532 -0.826922 -0.593845 -0.599845 -0.0254642 -0.0196044
10.0525 -1.06942 -1.07356 -0.874465 -0.880977 -0.31663 -0.31069
10.065 -1.3088 -1.31256 -1.15752 -1.16479 -0.613118 -0.607072
10.0775 -1.54064 -1.54383 -1.44284 -1.45119 -0.915246 -0.909077
10.09 -1.76579 -1.76818 -1.73086 -1.74058 -1.22405 -1.21773
10.1025 -1.9851 -1.98653 -2.02184 -2.03313 -1.54045 -1.53395
10.115 -2.19916 -2.1995 -2.31536 -2.32843 -1.86486 -1.8582
10.1275 -2.40841 -2.40753 -2.61059 -2.62565 -2.19738 -2.19058
10.14 -2.61338 -2.61119 -2.90664 -2.92382 -2.53803 -2.53114
10.1525 -2.81494 -2.81136 -3.20291 -3.22219 -2.88704 -2.88011
10.165 -3.01436 -3.00938 -3.49903 -3.52037 -3.24489 -3.23799
10.1775 -3.21322 -3.20683 -3.79485 -3.81824 -3.61218 -3.60545
10.19 -3.41292 -3.40517 -4.09021 -4.11553 -3.98931 -3.98286
10.2025 -3.61428 -3.60524 -4.38446 -4.41152 -4.37596 -4.36995
10.215 -3.81744 -3.8072 -4.67631 -4.70491 -4.77117 -4.76577
10.2275 -4.02196 -4.01065 -4.96423 -4.99417 -5.17331 -5.16854
10.24 -4.22693 -4.21468 -5.2464 -5.27739 -5.58008 -5.57615
10.2525 -4.43068 -4.41763 -5.52053 -5.55228 -5.98852 -5.98567
10.265 -4.63085 -4.61715 -5.78382 -5.81605 -6.39503 -6.3934
10.2775 -4.8247 -4.81049 -6.03341 -6.06588 -6.79559 -6.79525
10.29 -5.00984 -4.99525 -6.26702 -6.29947 -7.18641 -7.18747
10.3025 -5.1848 -5.16995 -6.48352 -6.51571 -7.56463 -7.56724
10.315 -5.34908 -5.33409 -6.68288 -6.71462 -7.9284 -7.93264
10.3275 -5.50273 -5.48769 -6.86584 -6.89697 -8.27644 -8.28233
10.34 -5.64609 -5.63108 -7.0335 -7.0639 -8.60772 -8.61525
10.3525 -5.77934 -5.76442 -7.18694 -7.21653 -8.92107 -8.93025
10.365 -5.90218 -5.88737 -7.32676 -7.3555 -9.21491 -9.22571
10.3775 -6.01384 -5.99916 -7.45314 -7.48105 -9.48727 -9.4996
10.39 -6.11351 -6.09895 -7.56616 -7.59328 -9.73616 -9.74991
10.4025 -6.20078 -6.18632 -7.66623 -7.69267 -9.96008 -9.97512
10.415 -6.27597 -6.26156 -7.75437 -7.78024 -10.1583 -10.1745
10.4275 -6.34038 -6.32593 -7.83226 -7.85783 -10.3318 -10.3488
10.44 -6.39614 -6.38155 -7.90192 -7.9277 -10.4832 -10.4997
10.4525 -6.44565 -6.43093 -7.96661 -7.9928 -10.6132 -10.6284
10.465 -6.49155 -6.47665 -8.0291 -8.05536 -10.7225 -10.7381
10.4775 -6.53567 -6.52055 -8.09089 -8.11728 -10.8133 -10.83
10.49 -6.57879 -6.56342 -8.15227 -8.17911 -10.8876 -10.9045
10.5025 -6.62044 -6.60475 -8.21257 -8.24001 -10.945 -10.9611
10.515 -6.65905 -6.64303 -8.26991 -8.29795 -10.9831 -10.9987
10.5275 -6.69213 -6.67577 -8.32121 -8.34995 -10.9995 -11.015
10.54 -6.71648 -6.69974 -8.3626 -8.3922 -10.992 -11.007
10.5525 -6.7288 -6.71168 -8.39014 -8.42069 -10.9578 -10.9718
10.565 -6.72674 -6.70919 -8.40077 -8.43228 -10.8949 -10.9078
10.5775 -6.7095 -6.69152 -8.39279 -8.4253 -10.803 -10.815
10.59 -6.67792 -6.65951 -8.36605 -8.39955 -10.6836 -10.6947
10.6025 -6.63416 -6.61535 -8.32174 -8.35615 -10.5398 -10.5497
10.615 -6.58109 -6.56196 -8.2618 -8.29701 -10.3753 -10.3839
10.6275 -6.52159 -6.50224 -8.18832 -8.22413 -10.1935 -10.2009
10.64 -6.45809 -6.43868 -8.1031 -8.13931 -9.99784 -10.0043
10.6525 -6.39233 -6.373 -8.00745 -8.04381 -9.79124 -9.79663
10.665 -6.32504 -6.30597 -7.90199 -7.93822 -9.57558 -9.57992
10.6775 -6.25582 -6.23717 -7.78641 -7.82227 -9.35159 -9.35498
10.69 -6.18306 -6.16498 -7.65955 -7.69477 -9.11893 -9.12153
10.7025 -6.10418 -6.08679 -7.51946 -7.5538 -8.87643 -8.8783
10.715 -6.01569 -5.99909 -7.3635 -7.39677 -8.62198 -8.62318
10.7275 -5.91366 -5.89789 -7.18873 -7.22077 -8.35293 -8.35353
10.74 -5.79482 -5.7799 -6.99293 -7.02363 -8.06724 -8.06733
10.7525 -5.65773 -5.64363 -6.77574 -6.80502 -7.76457 -7.76424
10.765 -5.50286 -5.48954 -6.53866 -6.56647 -7.4464 -7.44568
10.7775 -5.33202 -5.31943 -6.28444 -6.31077 -7.11534 -7.11427
10.79 -5.14771 -5.13578 -6.01647 -6.04132 -6.77455 -6.77318
10.8025 -4.95276 -4.94145 -5.73836 -5.76175 -6.42738 -6.42576
10.815 -4.7501 -4.73935 -5.45373 -5.47569 -6.07719 -6.07534
10.8275 -4.54262 -4.53236 -5.16604 -5.18662 -5.72714 -5.72507
10.84 -4.33288 -4.32306 -4.87838 -4.89763 -5.38001 -5.37773
10.8525 -4.12299 -4.11355 -4.59327 -4.61125 -5.03801 -5.03553
10.865 -3.9142 -3.90509 -4.31228 -4.32907 -4.70244 -4.69978
10.8775 -3.70664 -3.6978 -4.03582 -4.05149 -4.37343 -4.37056
10.89 -3.49966 -3.49102 -3.76343 -3.77806 -4.05009 -4.04708
10.9025 -3.29283 -3.28432 -3.49471 -3.50837 -3.73191 -3.72889
10.915 -3.08706 -3.07861 -3.23051 -3.24333 -3.41973 -3.41656
10.9275 -2.88504 -2.8766 -2.97337 -2.98544 -3.11594 -3.11251
10.94 -2.69063 -2.68212 -2.72698 -2.73835 -2.82399 -2.82034
10.9525 -2.50741 -2.49879 -2.49497 -2.50573 -2.54742 -2.54361
10.965 -2.33825 -2.33083 -2.28047 -2.29026 -2.28929 -2.2854
10.9775 -2.18581 -2.17888 -2.08583 -2.0948 -2.05184 -2.04773
10.99 -2.05113 -2.04466 -1.91261 -1.92092 -1.83676 -1.83247
11.0025 -1.93511 -1.92927 -1.76239 -1.7702 -1.64548 -1.64099
11.015 -1.83855 -1.83311 -1.63608 -1.64338 -1.47883 -1.47414
11.0275 -1.76055 -1.75542 -1.53313 -1.54001 -1.33643 -1.3315
11.04 -1.69896 -1.69415 -1.4516 -1.45825 -1.21658 -1.21139
11.0525 -1.65098 -1.64635 -1.38877 -1.39532 -1.11673 -1.11126
11.065 -1.61315 -1.6086 -1.3413 -1.34784 -1.03379 -1.02802
11.0775 -1.58196 -1.57744 -1.30564 -1.31229 -0.964612 -0.95854
11.09 -1.55459 -1.55 -1.2787 -1.28563 -0.906583 -0.900194
11.1025 -1.52938 -1.52462 -1.25858 -1.26589 -0.858253 -0.851539
11.115 -1.50605 -1.50106 -1.2446 -1.25238 -0.819473 -0.812441
11.1275 -1.48545 -1.48018 -1.23704 -1.24539 -0.791113 -0.783785
11.14 -1.46902 -1.4634 -1.23669 -1.24567 -0.774549 -0.766948
11.1525 -1.45827 -1.45228 -1.24443 -1.25406 -0.771219 -0.763377
11.165 -1.4547 -1.44833 -1.26102 -1.27131 -0.782428 -0.774389
11.1775 -1.45945 -1.45268 -1.2869 -1.29783 -0.809092 -0.800916
11.19 -1.47285 -1.46572 -1.32177 -1.33328 -0.851306 -0.843055
11.2025 -1.49385 -1.4864 -1.36397 -1.376 -0.907691 -0.899432
11.215 -1.51961 -1.5119 -1.41026 -1.42269 -0.975109 -0.966951
11.2275 -1.54636 -1.53843 -1.45649 -1.46923 -1.04946 -1.0415
11.24 -1.57089 -1.56277 -1.49918 -1.51214 -1.12716 -1.11949
11.2525 -1.59138 -1.58309 -1.53628 -1.54938 -1.20593 -1.1986
11.265 -1.60743 -1.59899 -1.56726 -1.58041 -1.2848 -1.27791
11.2775 -1.62003 -1.61147 -1.59299 -1.6061 -1.36413 -1.35777
11.29 -1.63121 -1.62257 -1.61548 -1.62846 -1.44528 -1.4395
11.3025 -1.64324 -1.63458 -1.63705 -1.64982 -1.5298 -1.52468
11.315 -1.65779 -1.64916 -1.65949 -1.67197 -1.61862 -1.61419
11.3275 -1.67532 -1.66677 -1.68354 -1.69564 -1.71145 -1.70777
11.34 -1.69561 -1.68718 -1.70929 -1.72097 -1.80737 -1.80447
11.3525 -1.71821 -1.70993 -1.73667 -1.74787 -1.90527 -1.90317
11.365 -1.7422 -1.73408 -1.76517 -1.77591 -2.00363 -2.00224
11.3775 -1.76599 -1.75801 -1.79364 -1.80395 -2.1002 -2.09947
11.39 -1.78746 -1.7796 -1.82043 -1.83034 -2.19221 -2.19217
11.4025 -1.80432 -1.79653 -1.84356 -1.85313 -2.27678 -2.27742
11.415 -1.8142 -1.80641 -1.86089 -1.87024 -2.35099 -2.35221
11.4275 -1.81479 -1.8069 -1.87023 -1.87947 -2.41191 -2.4136
11.44 -1.80397 -1.79589 -1.86942 -1.87866 -2.45672 -2.45882
11.4525 -1.78002 -1.77165 -1.85649 -1.86586 -2.48299 -2.48544
11.465 -1.7418 -1.73305 -1.82989 -1.8395 -2.48885 -2.49157
11.4775 -1.68866 -1.67942 -1.78833 -1.79829 -2.47288 -2.47576
11.49 -1.62011 -1.61032 -1.73056 -1.74094 -2.43375 -2.43671
11.5025 -1.536 -1.52569 -1.65551 -1.66633 -2.37043 -2.37341
11.515 -1.4372 -1.42677 -1.56323 -1.5743 -2.28305 -2.28605
11.5275 -1.32634 -1.31571 -1.45578 -1.46705 -2.17377 -2.17672
11.54 -1.20796 -1.19723 -1.33702 -1.34847 -2.0468 -2.04965
11.5525 -1.08732 -1.07655 -1.21168 -1.22327 -1.90703 -1.90973
11.565 -0.969168 -0.958417 -1.08412 -1.09571 -1.75897 -1.76148
11.5775 -0.857584 -0.846958 -0.958126 -0.969578 -1.60664 -1.60895
11.59 -0.756399 -0.745995 -0.837346 -0.848559 -1.45393 -1.45601
11.6025 -0.669243 -0.659153 -0.725461 -0.736317 -1.30469 -1.30653
11.615 -0.599326 -0.58965 -0.625963 -0.636314 -1.16256 -1.16411
11.6275 -0.549145 -0.539978 -0.541789 -0.551511 -1.03058 -1.03183
11.64 -0.520042 -0.511469 -0.474934 -0.483939 -0.910893 -0.911822
11.6525 -0.511699 -0.503987 -0.426139 -0.434354 -0.804338 -0.804912
11.665 -0.522973 -0.516165 -0.395014 -0.402334 -0.710619 -0.710791
11.6775 -0.551629 -0.54568 -0.380481 -0.386824 -0.628768 -0.6285
11.69 -0.594523 -0.589597 -0.380975 -0.386373 -0.557422 -0.556664
11.7025 -0.648213 -0.644316 -0.39441 -0.398979 -0.494751 -0.493455
11.715 -0.708714 -0.705741 -0.41832 -0.422158 -0.438359 -0.436394
11.7275 -0.771708 -0.769593 -0.449932 -0.453123 -0.385697 -0.383298
11.74 -0.833206 -0.831822 -0.486356 -0.489144 -0.334756 -0.331809
11.7525 -0.88993 -0.889067 -0.525194 -0.527907 -0.284032 -0.280241
11.765 -0.939597 -0.939053 -0.564891 -0.567806 -0.232664 -0.227909
11.7775 -0.981048 -0.980614 -0.604605 -0.607969 -0.180732 -0.175096
11.79 -1.01378 -1.01324 -0.643707 -0.647805 -0.128994 -0.122492
11.8025 -1.0373 -1.03643 -0.68125 -0.686365 -0.078097 -0.0706033
11.815 -1.05103 -1.04964 -0.71591 -0.722262 -0.0282692 -0.0196977
11.8275 -1.05482 -1.05276 -0.746483 -0.754236 0.0201056 0.0296986
11.84 -1.0496 -1.04672 -0.772528 -0.781805 0.0657353 0.0762486
11.8525 -1.03727 -1.03349 -0.794437 -0.805299 0.106437 0.117821
11.865 -1.0202 -1.01549 -0.812941 -0.825368 0.139809 0.152015
11.8775 -1.00069 -0.99505 -0.828677 -0.842577 0.163734 0.176636
11.89 -0.980689 -0.974194 -0.842021 -0.857238 0.176533 0.189943
11.9025 -0.961784 -0.954531 -0.853087 -0.869406 0.17699 0.190726
11.915 -0.945287 -0.937414 -0.861954 -0.879111 0.164222 0.178117
11.9275 -0.932478 -0.924149 -0.868937 -0.886626 0.137512 0.151396
11.94 -0.924699 -0.916101 -0.874746 -0.892623 0.0961908 0.109795
11.9525 -0.923261 -0.914596 -0.880401 -0.898106 0.0396022 0.0526464
11.965 -0.929144 -0.920614 -0.886949 -0.90414 -0.0326078 -0.0203285
11.9775 -0.942573 -0.934369 -0.895066 -0.911424 -0.11999 -0.108638
11.99 -0.962825 -0.955116 -0.904829 -0.920067 -0.221082 -0.210838
12.0025 -0.988452 -0.98137 -0.915889 -0.929775 -0.333696 -0.324737
12.015 -1.01782 -1.01146 -0.927944 -0.940313 -0.455479 -0.447928
12.0275 -1.04965 -1.04406 -0.941219 -0.951978 -0.584415 -0.578331
12.04 -1.08295 -1.07814 -0.956302 -0.965429 -0.718703 -0.714115
12.0525 -1.11655 -1.11248 -0.97363 -0.981174 -0.85634 -0.853259
12.065 -1.14902 -1.14561 -0.993248 -0.999328 -0.995176 -0.99374
12.0775 -1.17908 -1.17621 -1.01515 -1.02007 -1.13333 -1.13302
12.09 -1.20622 -1.20373 -1.04005 -1.04404 -1.2692 -1.26987
12.1025 -1.23115 -1.22887 -1.06959 -1.07287 -1.40236 -1.40414
12.115 -1.25541 -1.25318 -1.1058 -1.10868 -1.53353 -1.53642
12.1275 -1.28031 -1.27792 -1.15021 -1.15306 -1.6633 -1.66698
12.14 -1.30613 -1.30334 -1.20304 -1.20617 -1.79096 -1.7951
12.1525 -1.33187 -1.32861 -1.26302 -1.26668 -1.91446 -1.919
12.165 -1.35613 -1.35224 -1.32798 -1.33244 -2.03139 -2.03627
12.1775 -1.37753 -1.37283 -1.3955 -1.40106 -2.13955 -2.1446
12.19 -1.39489 -1.38924 -1.46319 -1.47008 -2.23695 -2.24191
12.2025 -1.40737 -1.40069 -1.52875 -1.53711 -2.32179 -2.32653
12.215 -1.41462 -1.4069 -1.59023 -1.60018 -2.39289 -2.39738
12.2275 -1.41694 -1.40824 -1.64627 -1.65783 -2.44993 -2.45411
12.24 -1.41522 -1.40556 -1.69602 -1.7092 -2.49324 -2.49695
12.2525 -1.41065 -1.40006 -1.73894 -1.75368 -2.52341 -2.5266
12.265 -1.40445 -1.39305 -1.7747 -1.79087 -2.54124 -2.54392
12.2775 -1.39774 -1.38565 -1.80294 -1.82035 -2.54753 -2.54974
12.29 -1.39113 -1.37848 -1.82301 -1.84144 -2.54273 -2.54447
12.3025 -1.38474 -1.37171 -1.83405 -1.85325 -2.52694 -2.52823
12.315 -1.37857 -1.36534 -1.83538 -1.85504 -2.50021 -2.50112
12.3275 -1.37287 -1.35963 -1.82686 -1.84667 -2.46298 -2.46359
12.34 -1.36832 -1.35528 -1.80911 -1.82876 -2.41628 -2.41666
12.3525 -1.3661 -1.35347 -1.78364 -1.8028 -2.36179 -2.36201
12.365 -1.36776 -1.35577 -1.75268 -1.77103 -2.30168 -2.3018
12.3775 -1.37451 -1.36336 -1.7185 -1.73576 -2.23795 -2.23806
12.39 -1.38657 -1.37643 -1.68267 -1.69862 -2.17178 -2.17191
12.4025 -1.40329 -1.39417 -1.64616 -1.66065 -2.10359 -2.10376
12.415 -1.42318 -1.41518 -1.60925 -1.6222 -2.03306 -2.03327
12.4275 -1.44412 -1.43727 -1.5717 -1.58307 -1.95925 -1.95948
12.44 -1.46373 -1.45801 -1.53302 -1.54283 -1.88101 -1.88123
12.4525 -1.47964 -1.475 -1.49271 -1.50106 -1.79729 -1.79744
12.465 -1.48966 -1.48593 -1.4503 -1.45735 -1.70717 -1.70715
12.4775 -1.49177 -1.48875 -1.40538 -1.41138 -1.60994 -1.60966
12.49 -1.48421 -1.48202 -1.35755 -1.36274 -1.50515 -1.50449
12.5025 -1.46588 -1.46419 -1.30628 -1.31097 -1.39242 -1.3913
12.515 -1.43521 -1.43373 -1.25063 -1.25518 -1.27123 -1.26953
12.5275 -1.39046 -1.38904 -1.18918 -1.19388 -1.14071 -1.13828
12.54 -1.33027 -1.32861 -1.12021 -1.12535 -0.999796 -0.996725
12.5525 -1.25347 -1.25132 -1.0418 -1.04765 -0.84788 -0.844163
12.565 -1.15918 -1.15666 -0.951905 -0.958668 -0.684329 -0.679753
12.5775 -1.04596 -1.04294 -0.848264 -0.855953 -0.508017 -0.502491
12.59 -0.912487 -0.909015 -0.728332 -0.737066 -0.317721 -0.311339
12.6025 -0.758554 -0.754496 -0.590233 -0.600161 -0.113124 -0.105998
12.615 -0.58561 -0.580922 -0.433885 -0.445024 0.104334 0.112223
12.6275 -0.39754 -0.392269 -0.261557 -0.273816 0.331016 0.339673
12.64 -0.20045 -0.19463 -0.0775697 -0.0908297 0.561366 0.570659
12.6525 -0.00133863 0.00494472 0.112705 0.0986047 0.788905 0.798654
12.665 0.192599 0.199207 0.303468 0.288779 1.00693 1.01699
12.6775 0.374046 0.380821 0.488576 0.473611 1.20867 1.21893
12.69 0.536337 0.5431 0.662217 0.647304 1.38802 1.39833
12.7025 0.675048 0.681597 0.820393 0.805877 1.54109 1.55125
12.715 0.788593 0.79473 0.961499 0.94775 1.66671 1.67652
12.7275 0.877355 0.882889 1.08548 1.07285 1.76558 1.77486
12.74 0.94285 0.947609 1.19302 1.18181 1.83943 1.84804
12.7525 0.987325 0.991168 1.28514 1.2756 1.89067 1.8985
12.765 1.01393 1.01671 1.36344 1.35577 1.92254 1.92949
12.7775 1.02675 1.02834 1.43022 1.42458 1.93916 1.94515
12.79 1.03048 1.03084 1.48814 1.48459 1.94514 1.95014
12.8025 1.03006 1.02919 1.54003 1.53853 1.94523 1.94927
12.815 1.03041 1.02841 1.58875 1.58915 1.94424 1.94736
12.8275 1.03624 1.03328 1.63713 1.6392 1.94679 1.94907
12.84 1.05174 1.04803 1.68773 1.69118 1.95702 1.9586
12.8525 1.08003 1.07583 1.74249 1.74694 1.97817 1.97917
12.865 1.12284 1.11843 1.80239 1.80744 2.01218 2.01273
12.8775 1.1805 1.17619 1.86753 1.87274 2.05973 2.0601
12.89 1.25238 1.24844 1.93759 1.94256 2.12082 2.12121
12.9025 1.33743 1.33382 2.01214 2.0167 2.19512 2.19558
12.915 1.4349 1.43175 2.09091 2.09477 2.28201 2.28265
12.9275 1.54321 1.54069 2.17378 2.1766 2.38052 2.3815
12.94 1.66035 1.65863 2.26017 2.2617 2.48927 2.49075
12.9525 1.7837 1.78282 2.34906 2.34917 2.60624 2.60827
12.965 1.90995 1.90997 2.43911 2.43773 2.72878 2.73139
12.9775 2.03569 2.03663 2.52892 2.526 2.85404 2.85729
12.99 2.15792 2.15971 2.61741 2.613 2.97958 2.98352
13.0025 2.27422 2.27679 2.70403 2.69828 3.10355 3.10813
13.015 2.38278 2.386 2.78869 2.78179 3.2246 3.22973
13.0275 2.48244 2.48616 2.8717 2.8639 3.34189 3.34751
13.04 2.57262 2.57668 2.95366 2.94524 3.45507 3.46111
13.0525 2.65321 2.65741 3.03524 3.02654 3.56417 3.57052
13.065 2.72434 2.72847 3.11705 3.1084 3.66936 3.6759
13.0775 2.78639 2.79026 3.19952 3.19127 3.77091 3.77751
13.09 2.84031 2.84351 3.28308 3.27556 3.86934 3.8759
13.1025 2.88709 2.88959 3.36819 3.36168 3.96548 3.97191
13.115 2.92759 2.92934 3.45494 3.44967 4.05999 4.0662
13.1275 2.96203 2.96283 3.54206 3.53826 4.15243 4.15834
13.14 2.98909 2.98877 3.62679 3.62466 4.24101 4.24655
13.1525 3.00702 3.00552 3.70572 3.7054 4.32341 4.32856
13.165 3.01446 3.01166 3.7755 3.77706 4.39745 4.4022
13.1775 3.01082 3.00668 3.8335 3.83695 4.46173 4.4661
13.19 2.99703 2.99159 3.87855 3.88382 4.51624 4.52029
13.2025 2.97537 2.96868 3.91082 3.91775 4.56222 4.56601
13.215 2.9482 2.94039 3.93073 3.93909 4.60098 4.60463
13.2275 2.91681 2.90806 3.93785 3.94733 4.63277 4.6364
13.24 2.88107 2.87158 3.9306 3.94086 4.65642 4.66018
13.2525 2.84036 2.83035 3.90725 3.91792 4.67031 4.67435
13.265 2.79422 2.78392 3.86655 3.87722 4.67305 4.67753
13.2775 2.74178 2.73141 3.8073 3.81757 4.66292 4.66789
13.29 2.6814 2.6712 3.72797 3.73743 4.63743 4.64305
13.3025 2.61115 2.60132 3.62704 3.63532 4.59386 4.60032
13.315 2.52954 2.52023 3.50379 3.51055 4.53008 4.53747
13.3275 2.43598 2.42736 3.35868 3.36366 4.44492 4.45327
13.34 2.33102 2.32319 3.19354 3.1965 4.33828 4.34762
13.3525 2.21605 2.20912 3.01123 3.012 4.211 4.22136
13.365 2.09268 2.08671 2.81497 2.81343 4.0642 4.07559
13.3775 1.96247 1.95749 2.60798 2.60409 3.89907 3.91141
13.39 1.82724 1.82325 2.39378 2.38755 3.71709 3.73027
13.4025 1.68931 1.68629 2.17637 2.16788 3.52033 3.53425
13.415 1.55127 1.54918 1.95994 1.94934 3.31127 3.32578
13.4275 1.41522 1.414 1.74808 1.73553 3.092 3.10692
13.44 1.28222 1.28177 1.54316 1.5289 2.86372 2.87886
13.4525 1.15235 1.15255 1.34637 1.33069 2.62681 2.64195
13.465 1.02513 1.02568 1.15816 1.14139 2.38127 2.39613
13.4775 0.899903 0.900908 0.978696 0.96128 2.12725 2.14158
13.49 0.776995 0.778866 0.808283 0.790359 1.86541 1.87902
13.5025 0.656695 0.658784 0.647315 0.629149 1.59673 1.60939
13.515 0.538761 0.541093 0.495833 0.477752 1.3226 1.33409
13.5275 0.423617 0.426148 0.353968 0.336371 1.0447 1.0548
13.54 0.31196 0.314413 0.221776 0.204892 0.764848 0.773378
13.5525 0.203666 0.205959 0.0985514 0.0825273 0.484458 0.491287
13.565 0.0976352 0.0997212 -0.0178536 -0.0328103 0.203912 0.208941
13.5775 -0.00841878 -0.00665224 -0.130937 -0.144597 -0.0777656 -0.0748929
13.59 -0.11779 -0.116386 -0.244955 -0.25737 -0.362966 -0.361748
13.6025 -0.234054 -0.232999 -0.364891 -0.376166 -0.653759 -0.65382
13.615 -0.360374 -0.3597 -0.495475 -0.505483 -0.951547 -0.953244
13.6275 -0.498799 -0.498487 -0.640067 -0.648819 -1.25727 -1.26091
13.64 -0.649523 -0.649506 -0.800059 -0.807765 -1.57049 -1.57578
13.6525 -0.810704 -0.810899 -0.974908 -0.981797 -1.88855 -1.89504
13.665 -0.979192 -0.97949 -1.16265 -1.16892 -2.20717 -2.21475
13.6775 -1.15142 -1.15168 -1.36061 -1.36651 -2.52186 -2.53059
13.69 -1.32396 -1.32403 -1.56596 -1.57183 -2.82869 -2.83839
13.7025 -1.4937 -1.4934 -1.77594 -1.78214 -3.12408 -3.13437
13.715 -1.65785 -1.65701 -1.98779 -1.99466 -3.4046 -3.41519
13.7275 -1.81439 -1.81284 -2.19914 -2.20702 -3.66758 -3.67837
13.74 -1.96292 -1.9605 -2.40889 -2.4181 -3.9122 -3.92303
13.7525 -2.1051 -2.10167 -2.61768 -2.62851 -4.13982 -4.15044
13.765 -2.24416 -2.23961 -2.82743 -2.84013 -4.35333 -4.36352
13.7775 -2.38385 -2.37811 -3.04039 -3.05514 -4.55627 -4.56584
13.79 -2.52757 -2.5206 -3.25828 -3.2752 -4.75189 -4.76071
13.8025 -2.67796 -2.66978 -3.48203 -3.50117 -4.94287 -4.95084
13.815 -2.83742 -2.82806 -3.71235 -3.73367 -5.1318 -5.13884
13.8275 -3.00816 -2.99771 -3.94982 -3.97325 -5.32126 -5.32731
13.84 -3.19132 -3.17989 -4.19415 -4.21954 -5.5129 -5.51795
13.8525 -3.38598 -3.3737 -4.4432 -4.47035 -5.70648 -5.71055
13.865 -3.58926 -3.5763 -4.69316 -4.72181 -5.89999 -5.90314
13.8775 -3.79718 -3.7837 -4.93937 -4.96928 -6.09043 -6.09272
13.89 -4.00551 -3.99167 -5.17725 -5.20814 -6.27469 -6.2762
13.9025 -4.21078 -4.19676 -5.40329 -5.43486 -6.45047 -6.45131
13.915 -4.41135 -4.39731 -5.61605 -5.64803 -6.61734 -6.61762
13.9275 -4.6078 -4.59389 -5.81662 -5.84872 -6.77716 -6.77698
13.94 -4.80208 -4.78845 -6.00769 -6.03966 -6.93314 -6.93262
13.9525 -4.99633 -4.98312 -6.19243 -6.22403 -7.08871 -7.08798
13.965 -5.19209 -5.17939 -6.37359 -6.40463 -7.2467 -7.24585
13.9775 -5.38949 -5.37739 -6.55275 -6.58306 -7.40853 -7.40765
13.99 -5.58691 -5.57547 -6.72988 -6.75934 -7.57386 -7.57304
14.0025 -5.78141 -5.77064 -6.90368 -6.93226 -7.74099 -7.74028
14.015 -5.96949 -5.95935 -7.07235 -7.10005 -7.90757 -7.90702
14.0275 -6.14757 -6.13802 -7.23392 -7.26082 -8.07112 -8.07075
14.04 -6.31216 -6.30309 -7.3864 -7.41261 -8.22908 -8.2289
14.0525 -6.45983 -6.45111 -7.52762 -7.55332 -8.37882 -8.37881
14.065 -6.58723 -6.57872 -7.65527 -7.68067 -8.51761 -8.51775
14.0775 -6.6913 -6.68282 -7.76697 -7.79232 -8.6428 -8.64306
14.09 -6.76962 -6.76098 -7.86067 -7.88622 -8.75217 -8.75252
14.1025 -6.82056 -6.8116 -7.9347 -7.96072 -8.84409 -8.84448
14.115 -6.84309 -6.8336 -7.98761 -8.01434 -8.91722 -8.91763
14.1275 -6.83677 -6.8265 -8.01818 -8.04589 -8.97067 -8.97106
14.14 -6.80262 -6.79132 -8.02615 -8.05508 -9.00461 -9.00497
14.1525 -6.74357 -6.73106 -8.01276 -8.04311 -9.02082 -9.02115
14.165 -6.66409 -6.65022 -7.98049 -8.01233 -9.02235 -9.02266
14.1775 -6.56897 -6.5537 -7.93194 -7.96525 -9.01236 -9.01271
14.19 -6.46254 -6.44588 -7.86909 -7.9038 -8.99337 -8.99383
14.2025 -6.34821 -6.33023 -7.79312 -7.82904 -8.96689 -8.96757
14.215 -6.22831 -6.20916 -7.70429 -7.74114 -8.93336 -8.93437
14.2275 -6.10396 -6.08381 -7.60184 -7.63932 -8.89195 -8.89342
14.24 -5.97474 -5.9538 -7.48383 -7.52157 -8.84035 -8.84243
14.2525 -5.83886 -5.81736 -7.3473 -7.38491 -8.77495 -8.77777
14.265 -5.69384 -5.672 -7.18897 -7.22605 -8.69147 -8.69516
14.2775 -5.53693 -5.51496 -7.00565 -7.0418 -8.58544 -8.59012
14.29 -5.36532 -5.34343 -6.79447 -6.82932 -8.4524 -8.45818
14.3025 -5.17678 -5.15515 -6.55346 -6.58666 -8.28854 -8.29548
14.315 -4.9704 -4.94919 -6.28216 -6.31342 -8.09155 -8.0998
14.3275 -4.74691 -4.72626 -5.98203 -6.01115 -7.86097 -7.87017
14.34 -4.5085 -4.48854 -5.65631 -5.68306 -7.5974 -7.60753
14.3525 -4.25813 -4.23898 -5.30916 -5.33328 -7.3024 -7.3137
14.365 -3.99879 -3.98056 -4.94484 -4.96618 -6.97807 -6.99059
14.3775 -3.7328 -3.71556 -4.56707 -4.58559 -6.6261 -6.63953
14.39 -3.46131 -3.44512 -4.1786 -4.19426 -6.2469 -6.261
14.4025 -3.1846 -3.16946 -3.78128 -3.79409 -5.84007 -5.8548
14.415 -2.90256 -2.88846 -3.37656 -3.38661 -5.40525 -5.42051
14.4275 -2.61499 -2.60311 -2.96594 -2.97306 -4.94247 -4.95807
14.44 -2.32152 -2.31129 -2.5513 -2.5555 -4.45208 -4.46766
14.4525 -2.02086 -2.01188 -2.13389 -2.13574 -3.93469 -3.94986
14.465 -1.71234 -1.70569 -1.71488 -1.71487 -3.39115 -3.40566
14.4775 -1.39728 -1.39192 -1.29573 -1.2942 -2.82269 -2.83626
14.49 -1.07538 -1.07114 -0.877776 -0.875006 -2.23145 -2.24373
14.5025 -0.747893 -0.744967 -0.462997 -0.459516 -1.62085 -1.63147
14.515 -0.418201 -0.416109 -0.0544008 -0.0506398 -0.995606 -1.00427
14.5275 -0.0891883 -0.0877295 0.345013 0.348737 -0.360911 -0.367362
14.54 0.236936 0.237759 0.733545 0.736835 0.278642 0.274634
14.5525 0.558652 0.559098 1.1108 1.11328 0.919455 0.918098
14.565 0.875975 0.876179 1.47772 1.4792 1.5593 1.56109
14.5775 1.19059 1.19059 1.83691 1.83738 2.19847 2.20276
14.59 1.50557 1.50543 2.19321 2.19276 2.83751 2.84353
14.6025 1.82498 1.82477 2.55237 2.55069 3.47722 3.48578
14.615 2.15255 2.15227 2.91959 2.91664 4.11935 4.1311
14.6275 2.4912 2.49082 3.29918 3.29517 4.76571 4.78017
14.64 2.84271 2.84216 3.69451 3.68964 5.41639 5.43284
14.6525 3.2074 3.20658 4.10743 4.10185 6.06946 6.08784
14.665 3.5843 3.58312 4.53823 4.53219 6.72215 6.7427
14.6775 3.97212 3.97042 4.9866 4.98044 7.37207 7.39458
14.69 4.36991 4.36752 5.45238 5.4465 8.01731 8.04118
14.7025 4.777 4.77374 5.93533 5.93015 8.65641 8.68172
14.715 5.19257 5.18826 6.43412 6.43033 9.2893 9.31472
14.7275 5.61485 5.6093 6.94739 6.9457 9.91292 9.93669
14.74 6.0416 6.03467 7.47257 7.47272 10.5229 10.5467
14.7525 6.47009 6.46166 8.00597 8.00817 11.1168 11.1415
14.765 6.89817 6.88812 8.54388 8.54858 11.694 11.7188
14.7775 7.32439 7.31259 9.08359 9.09113 12.2533 12.2771
14.79 7.74828 7.7347 9.62321 9.63365 12.7938 12.8165
14.8025 8.17043 8.15503 10.1615 10.175 13.3159 13.3381
14.815 8.56391 8.57917 10.6655 10.744 13.8237 13.8439
14.8275 8.92682 8.99354 11.1284 11.2969 14.321 14.3444
14.84 9.35814 9.38849 11.6807 11.8502 14.8238 14.8425
14.8525 9.75382 9.7841 12.2724 12.3966 15.3285 15.343
14.865 10.1275 10.1813 12.8074 12.9536 15.8292 15.8462
14.8775 10.5207 10.5796 13.318 13.5108 16.3342 16.3528
14.89 10.9024 10.97 13.8651 14.0582 16.8489 16.8631
14.9025 11.2722 11.3576 14.4187 14.5962 17.3672 17.3793
14.915 11.6413 11.7363 14.9374 15.1302 17.8863 17.9014
14.9275 12.0068 12.1042 15.4385 15.6556 18.4122 18.4284
14.94 12.3654 12.466 15.9458 16.1646 18.9477 18.9608
14.9525 12.7125 12.8177 16.4443 16.6589 19.4873 19.4991
14.965 13.0481 13.1539 16.9163 17.1374 20.0285 20.0436
14.9775 13.3719 13.4783 17.3704 17.601 20.5737 20.5918
14.99 13.6829 13.7917 17.8147 18.0466 21.1241 21.1425
15.0025 13.9799 14.0892 18.2427 18.4792 21.676 21.6939
15.015 14.2614 14.3709 18.647 18.8975 22.2271 22.245
15.0275 14.5375 14.7849 19.0321 19.2798 22.7772 22.7976
15.04 14.786 15.0999 19.4308 19.6175 23.3191 23.3581
15.0525 14.9981 15.3071 19.8085 20.0069 23.8493 23.8855
15.065 15.1607 15.5066 20.1425 20.3692 24.379 24.4183
15.0775 15.1535 15.7169 20.5138 20.7195 24.9018 24.9336
15.09 15.3147 15.8578 20.883 21.0746 25.4041 25.4405
15.1025 15.4923 15.9709 21.2085 21.4341 25.8878 25.9313
15.115 15.538 16.0813 21.5265 21.7925 26.3654 26.4058
15.1275 15.6091 16.1652 21.8569 22.1354 26.8346 26.8674
15.14 15.6906 16.2227 22.1758 22.471 27.287 27.3168
15.1525 15.7163 16.2728 22.4658 22.7848 27.7248 27.7578
15.165 15.7343 16.3091 22.7408 23.0726 28.1542 28.1931
15.1775 15.7549 16.3274 23.0132 23.3509 28.5775 28.6181
15.19 15.7537 16.3401 23.2743 23.6257 28.9965 29.0361
15.2025 15.7482 16.3481 23.5177 23.8886 29.4145 29.4551
15.215 15.7498 16.3557 23.7534 24.1384 29.8361 29.8786
15.2275 15.7498 16.3654 23.9875 24.3825 30.2627 30.3055
15.24 15.7517 16.378 24.2132 24.6223 30.6935 30.7359
15.2525 15.7596 16.3935 24.425 24.8519 31.1284 31.171
15.265 15.7683 16.416 24.6254 25.0666 31.5664 31.6093
15.2775 15.775 16.4365 24.8138 25.2655 32.0043 32.0474
15.29 15.7801 16.4505 24.9833 25.4485 32.4382 32.4815
15.3025 15.7799 16.4591 25.1296 25.6107 32.8665 32.9095
15.315 15.7721 16.46 25.254 25.7487 33.288 33.3308
15.3275 15.7585 16.4528 25.3578 25.8641 33.7015 33.7441
15.34 15.739 16.4378 25.4397 25.9571 34.1065 34.1496
15.3525 15.7133 16.4155 25.5005 26.035 34.503 34.5466
15.365 15.6841 16.3567 25.5769 26.2597 34.8936 34.9045
15.3775 15.6544 16.2974 25.6335 26.2858 35.2942 35.2906
15.39 15.5723 16.2384 25.6477 26.3107 35.6892 35.688
15.4025 15.4928 16.1601 25.6361 26.3297 36.0822 36.0842
15.415 15.4094 16.0695 25.6382 26.3362 36.4817 36.487
15.4275 15.3031 15.9715 25.6435 26.3364 36.8839 36.8859
15.44 15.1925 15.8647 25.6287 26.3378 37.2828 37.2883
15.4525 15.0799 15.7485 25.6057 26.3408 37.6813 37.6877
15.465 14.9565 15.6276 25.588 26.3335 38.0824 38.0887
15.4775 14.8245 15.499 25.5685 26.3234 38.4816 38.4865
15.49 14.6876 15.3624 25.5369 26.3061 38.8753 38.9067
15.5025 14.5409 15.2233 25.4974 26.2691 39.2663 39.3169
15.515 14.3871 15.071 25.4575 26.2519 39.6552 39.71
15.5275 14.2351 14.9161 25.4107 26.2152 40.0514 40.1095
15.54 14.0746 14.7593 25.3585 26.1796 40.4551 40.5089
15.5525 13.9143 14.6004 25.3059 26.1464 40.8584 40.9076
15.565 13.757 14.4425 25.2551 26.1085 41.2585 41.3123
15.5775 13.5976 14.2852 25.205 26.0735 41.659 41.7164
15.59 13.4399 14.1289 25.1544 26.0395 42.0627 42.1193
15.6025 13.284 13.9735 25.1043 26.0051 42.466 42.5203
15.615 13.1269 13.8178 25.0548 25.9711 42.8628 42.9172
15.6275 12.968 13.6602 25.0032 25.9343 43.2504 43.3073
15.64 12.8055 13.4988 24.9468 25.8939 43.6283 43.6863
15.6525 12.6375 13.3321 24.8846 25.8499 43.9946 44.0507
15.665 12.464 13.1596 24.816 25.7984 44.3458 44.4004
15.6775 12.2848 12.9816 24.741 25.7391 44.6793 44.7344
15.69 12.1 12.798 24.6592 25.6738 44.995 45.0508
15.7025 11.9111 12.6098 24.571 25.6018 45.294 45.3494
15.715 11.7191 12.4193 24.4773 25.5236 45.576 45.6304
15.7275 11.5252 12.2274 24.3785 25.4398 45.8438 45.8944
15.74 11.3318 12.0343 24.2685 25.3473 46.1262 46.1437
15.7525 11.1365 11.8419 24.1492 25.2485 46.4087 46.3651
15.765 10.9367 11.6431 24.0322 25.1491 46.6264 46.586
15.7775 10.737 11.4425 23.9087 25.0321 46.8011 46.8
15.79 10.5329 11.2399 23.7707 24.9033 46.9853 46.9931
15.8025 10.327 11.035 23.6208 24.7701 47.179 47.1579
15.815 10.1217 10.8286 23.4647 24.6267 47.3445 47.3078
15.8275 9.91417 10.6215 23.3035 24.4711 47.4674 47.4461
15.84 9.70612 10.4137 23.1345 24.3086 47.5696 47.564
15.8525 9.49933 10.206 22.9564 24.1398 47.6685 47.6568
15.865 9.29425 9.99998 22.7723 23.9639 47.7535 47.7283
15.8775 9.09259 9.79707 22.586 23.7837 47.8087 47.7834
15.89 8.89579 9.59874 22.3982 23.6009 47.8369 47.8212
15.9025 8.70418 9.40569 22.2082 23.4154 47.8507 47.8386
15.915 8.51784 9.21782 22.0161 23.2276 47.8514 47.8336
15.9275 8.33652 9.03464 21.8224 23.0375 47.8292 47.8071
15.94 8.15963 8.8559 21.6274 22.8442 47.7783 47.7593
15.9525 7.98723 8.6817 21.4307 22.6481 47.7027 47.6883
15.965 7.82055 8.51299 21.2331 22.4508 47.6075 47.5927
15.9775 7.66141 8.35167 21.0367 22.2542 47.492 47.4745
15.99 7.51203 8.20021 20.8445 22.0615 47.3541 47.3363
16.0025 7.37523 8.06128 20.6596 21.8758 47.196 47.1805
16.0125 7.27656 7.96083 20.5187 21.7341 47.0585 47.0443
16.0225 7.18842 7.87089 20.3852 21.6 46.9131 46.8984
16.0325 7.11119 7.79113 20.2601 21.4737 46.7597 46.7438
16.0425 7.04475 7.71989 20.1439 21.3557 46.5974 46.5807
16.0525 6.98898 7.66014 20.0359 21.2452 46.4258 46.4089
16.0625 6.94256 7.61006 19.935 21.1411 46.2448 46.2278
16.0725 6.90422 7.56784 19.8397 21.043 46.0541 46.0362
16.0825 6.87281 7.53293 19.7489 20.9489 45.8527 45.8333
16.0925 6.84667 7.50314 19.6612 20.8577 45.6393 45.6182
16.1025 6.82409 7.47699 19.5753 20.7681 45.4127 45.3882
16.1125 6.80356 7.45276 19.4894 20.6787 45.1719 45.1442
16.1225 6.78367 7.42917 19.4021 20.5877 44.9163 44.8855
16.1325 6.76296 7.40469 19.3126 20.4939 44.6445 44.6109
16.1425 6.74016 7.37876 19.2196 20.3927 44.3547 44.3213
16.1525 6.71428 7.3509 19.1219 20.286 44.0469 44.016
16.1625 6.68476 7.31793 19.0191 20.1759 43.7221 43.6919
16.1725 6.6514 7.28059 18.9103 20.0597 43.381 43.3498
16.1825 6.61319 7.23889 18.7949 19.9357 43.0227 42.9902
16.1925 6.5694 7.19146 18.6726 19.8048 42.646 42.6127
16.2025 6.52014 7.13794 18.5424 19.6665 42.2504 42.2172
16.2125 6.46517 7.07843 18.4038 19.5191 41.8366 41.8041
16.2225 6.40402 7.01263 18.2565 19.3628 41.4058 41.3733
16.2325 6.33693 6.94054 18.1003 19.1976 40.9585 40.9251
16.2425 6.26461 6.86284 17.9353 19.0233 40.4951 40.4608
16.2525 6.18762 6.78019 17.7618 18.8401 40.016 39.9813
16.2625 6.1066 6.69329 17.5802 18.6486 39.5226 39.4879
16.2725 6.02264 6.60319 17.3912 18.4493 39.0164 38.9818
16.2825 5.93708 6.51127 17.1957 18.2429 38.4995 38.4647
16.2925 5.8516 6.41923 16.9951 18.031 37.9739 37.9385
16.3025 5.76842 6.32939 16.7913 17.8154 37.4419 37.4062
16.3125 5.69029 6.2446 16.5871 17.5987 36.9067 36.8708
16.3225 5.62016 6.1679 16.3853 17.3838 36.3716 36.3359
16.3325 5.56076 6.10212 16.1887 17.1732 35.8401 35.8046
16.3425 5.51429 6.04955 15.9996 16.9695 35.3151 35.2796
16.3525 5.48233 6.01185 15.8201 16.7745 34.7987 34.7632
16.3625 5.46569 5.99007 15.6515 16.5897 34.2924 34.2571
16.3725 5.46491 5.98483 15.495 16.4163 33.7976 33.7627
16.3825 5.4805 5.99635 15.3515 16.2553 33.3152 33.2808
16.3925 5.51226 6.02438 15.2218 16.1075 32.8459 32.812
16.4025 5.55912 6.06804 15.106 15.9731 32.3899 32.3565
16.4125 5.61922 6.12556 15.0033 15.8516 31.9463 31.9133
16.4225 5.6901 6.19425 14.9123 15.7416 31.5134 31.4809
16.4325 5.76878 6.27101 14.8312 15.6415 31.0892 31.0573
16.4425 5.85203 6.3526 14.758 15.5495 30.6717 30.6404
16.4525 5.93667 6.43583 14.6909 15.464 30.2589 30.228
16.4625 6.01981 6.51769 14.628 15.3832 29.8489 29.8184
16.4725 6.09881 6.59544 14.5678 15.3058 29.4401 29.4099
16.4825 6.17127 6.66665 14.5087 15.2304 29.0312 29.0012
16.4925 6.23505 6.72917 14.4495 15.1558 28.6211 28.5912
16.5025 6.28856 6.78134 14.3893 15.0813 28.2091 28.1792
16.5125 6.33084 6.82216 14.3276 15.0063 27.7953 27.7652
16.5225 6.36157 6.8514 14.2643 14.931 27.3803 27.3499
16.5325 6.381 6.86924 14.1998 14.8556 26.9651 26.9342
16.5425 6.38984 6.87644 14.1348 14.7809 26.5512 26.5199
16.5525 6.38913 6.87408 14.0701 14.7076 26.1405 26.1085
16.5625 6.38016 6.86349 14.0066 14.6365 25.7349 25.7021
16.5725 6.3644 6.84618 13.9453 14.5686 25.3365 25.3029
16.5825 6.34337 6.8237 13.8869 14.5045 24.9474 24.9129
16.5925 6.31844 6.79742 13.832 14.4447 24.5696 24.5341
16.6025 6.29067 6.76843 13.7809 14.3895 24.2045 24.1681
16.6125 6.26093 6.73752 13.7334 14.3385 23.8536 23.8162
16.6225 6.23015 6.70563 13.6895 14.2917 23.5183 23.4797
16.6325 6.19949 6.67392 13.6494 14.2491 23.2 23.1604
16.6425 6.17024 6.64372 13.6133 14.211 22.9004 22.8598
16.6525 6.14368 6.61631 13.5816 14.1774 22.6213 22.5797
16.6625 6.12093 6.59281 13.5545 14.1485 22.3639 22.3215
16.6725 6.10295 6.57419 13.5321 14.1244 22.1297 22.0864
16.6825 6.09053 6.56118 13.5143 14.1049 21.9196 21.8756
16.6925 6.08406 6.55423 13.501 14.0898 21.7344 21.6898
16.7025 6.08356 6.55335 13.4916 14.0786 21.5743 21.5292
16.7125 6.08859 6.5581 13.4854 14.0703 21.4393 21.3938
16.7225 6.09846 6.56778 13.4814 14.0641 21.3288 21.2831
16.7325 6.11232 6.58154 13.4787 14.0589 21.2423 21.1964
16.7425 6.12914 6.59834 13.4762 14.0538 21.179 21.1331
16.7525 6.14753 6.61677 13.4727 14.0476 21.1375 21.0918
16.7625 6.16554 6.63489 13.4665 14.0386 21.1163 21.0708
16.7725 6.18082 6.65032 13.4558 14.025 21.1128 21.0674
16.7825 6.19087 6.66056 13.4385 14.0051 21.1242 21.0792
16.7925 6.19335 6.6632 13.413 13.977 21.1478 21.1038
16.8025 6.18629 6.65491 13.3775 13.9393 21.1813 21.1386
16.8125 6.16775 6.63403 13.3304 13.8911 21.2224 21.181
16.8225 6.13595 6.6 13.271 13.8307 21.2693 21.229
16.8325 6.09003 6.55143 13.1993 13.7582 21.3202 21.2812
16.8425 6.03039 6.48858 13.116 13.674 21.3741 21.3367
16.8525 5.95763 6.41211 13.0222 13.5793 21.4307 21.3951
16.8625 5.87246 6.32293 12.9188 13.4753 21.4895 21.456
16.8725 5.77588 6.22212 12.8072 13.3633 21.5504 21.5188
16.8825 5.66889 6.11059 12.6883 13.2442 21.6126 21.5829
16.8925 5.5523 5.98919 12.563 13.1189 21.6756 21.6484
16.9025 5.42688 5.85904 12.431 12.9877 21.7412 21.7168
16.9125 5.29339 5.72107 12.2927 12.852 21.8092 21.7835
16.9225 5.15301 5.57592 12.1496 12.7125 21.8776 21.8503
16.9325 5.0073 5.42572 12.0032 12.5696 21.9446 21.9184
16.9425 4.8579 5.27169 11.8552 12.4246 22.0112 21.9879
16.9525 4.70672 5.1158 11.7065 12.2789 22.0798 22.0594
16.9625 4.55576 4.96021 11.5582 12.1341 22.1526 22.1332
16.9725 4.40695 4.8068 11.4119 11.9916 22.2299 22.2104
16.9825 4.26207 4.65749 11.2693 11.8526 22.3113 22.292
16.9925 4.12234 4.51347 11.1313 11.7179 22.3961 22.3784
17.0025 3.98812 4.37511 10.998 11.5873 22.4842 22.4686
17.0125 3.85895 4.24193 10.8681 11.4603 22.5748 22.5611
17.0225 3.73376 4.11277 10.7403 11.3353 22.6663 22.6534
17.0325 3.61123 3.98625 10.6132 11.2108 22.7559 22.7435
17.0425 3.48997 3.86094 10.4852 11.0851 22.8406 22.8292
17.0525 3.36861 3.73542 10.3547 10.9567 22.918 22.908
17.0625 3.24595 3.60845 10.2203 10.8242 22.9863 22.9779
17.0725 3.12118 3.47915 10.081 10.6867 23.0441 23.037
17.0825 2.99402 3.34723 9.9364 10.5437 23.0903 23.084
17.0925 2.86482 3.21304 9.78671 10.3955 23.124 23.1185
17.1025 2.73455 3.07768 9.63287 10.2428 23.1453 23.1407
17.1125 2.60445 2.94403 9.47617 10.0867 23.1547 23.1513
17.1225 2.47555 2.81212 9.31823 9.9286 23.1529 23.1509
17.1325 2.34941 2.68191 9.16036 9.77055 23.1406 23.1397
17.1425 2.22751 2.55598 9.00342 9.61333 23.1185 23.1184
17.1525 2.11036 2.43473 8.84866 9.45809 23.0868 23.0874
17.1625 1.99848 2.31869 8.69724 9.30595 23.0456 23.0469
17.1725 1.89274 2.20894 8.54991 9.1576 22.9951 22.9971
17.1825 1.79376 2.10585 8.40732 9.01398 22.9354 22.9383
17.1925 1.70219 2.01008 8.27048 8.876 22.8672 22.8706
17.2025 1.61893 1.92275 8.14077 8.74474 22.7909 22.7946
17.2125 1.5448 1.84505 8.01929 8.62186 22.7072 22.7108
17.2225 1.48069 1.77733 7.90689 8.50799 22.6169 22.6205
17.2325 1.42757 1.72075 7.80475 8.40436 22.5205 22.524
17.2425 1.38593 1.67582 7.71385 8.31159 22.4186 22.4219
17.2525 1.35582 1.64284 7.63472 8.23011 22.3114 22.3147
17.2625 1.33726 1.62186 7.56752 8.16026 22.1993 22.2025
17.2725 1.3302 1.61274 7.51232 8.10233 22.0828 22.0854
17.2825 1.33448 1.61528 7.46923 8.05642 21.962 21.9638
17.2925 1.34967 1.6291 7.43837 8.02255 21.8371 21.8372
17.3025 1.37516 1.65358 7.41956 8.00083 21.7078 21.7054
17.3125 1.41035 1.688 7.41232 7.99045 21.5737 21.5694
17.3225 1.45431 1.73148 7.41636 7.99107 21.4336 21.4288
17.3325 1.50595 1.78267 7.43086 8.00199 21.2877 21.2831
17.3425 1.56405 1.84031 7.45475 8.02239 21.1366 21.1316
17.3525 1.62753 1.90331 7.48719 8.05166 20.9805 20.974
17.3625 1.69559 1.97084 7.52766 8.08917 20.8189 20.8105
17.3725 1.76762 2.04234 7.57593 8.13453 20.6515 20.6416
17.3825 1.84311 2.11729 7.63158 8.18741 20.4787 20.4678
17.3925 1.92147 2.19513 7.69396 8.2473 20.3012 20.2895
17.4025 2.00205 2.27519 7.76228 8.3135 20.1199 20.1068
17.4125 2.08414 2.35674 7.83573 8.38514 19.9351 19.9202
17.4225 2.16705 2.43912 7.9135 8.46134 19.7469 19.73
17.4325 2.25026 2.5218 7.99482 8.54127 19.5556 19.537
17.4425 2.33335 2.60446 8.07893 8.62416 19.3618 19.3418
17.4525 2.41582 2.68681 8.16519 8.7093 19.1667 19.1451
17.4625 2.49718 2.76871 8.25296 8.79601 18.9712 18.9478
17.4725 2.57736 2.85006 8.34168 8.88368 18.7762 18.7508
17.4825 2.65666 2.93083 8.43093 8.9719 18.5826 18.5553
17.4925 2.73547 3.01123 8.52042 9.06036 18.3917 18.3625
17.5025 2.81414 3.09167 8.60972 9.14759 18.2046 18.174
17.5125 2.89276 3.17273 8.69835 9.2333 18.0229 17.9914
17.5225 2.97171 3.25409 8.78636 9.31942 17.8474 17.8147
17.5325 3.05149 3.33586 8.87349 9.40445 17.679 17.6449
17.5425 3.13176 3.41817 8.9592 9.48718 17.5186 17.4835
17.5525 3.21215 3.50084 9.04284 9.56793 17.3667 17.3305
17.5625 3.29289 3.58376 9.12384 9.64615 17.224 17.1868
17.5725 3.37409 3.66695 9.20199 9.72119 17.0913 17.0534
17.5825 3.45551 3.75035 9.27725 9.79308 16.9693 16.9307
17.5925 3.537 3.83385 9.34941 9.86162 16.8587 16.8194
17.6025 3.61845 3.91723 9.41817 9.92649 16.7598 16.72
17.6125 3.69952 4.00013 9.48323 9.98756 16.673 16.6328
17.6225 3.7797 4.08207 9.54436 10.0446 16.5984 16.5579
17.6325 3.85845 4.16251 9.60135 10.0973 16.5361 16.4954
17.6425 3.93517 4.24084 9.65397 10.1455 16.486 16.4453
17.6525 4.00928 4.31642 9.70199 10.1891 16.4482 16.4074
17.6625 4.08016 4.38868 9.74531 10.2281 16.4223 16.3816
17.6725 4.14727 4.45706 9.78397 10.2625 16.4084 16.3679
17.6825 4.21011 4.52105 9.81807 10.2925 16.4063 16.3661
17.6925 4.26813 4.58013 9.84772 10.3183 16.4159 16.376
17.7025 4.32073 4.63367 9.87296 10.34 16.4367 16.397
17.7125 4.36726 4.68098 9.89385 10.3578 16.4681 16.4287
17.7225 4.40709 4.7214 9.91046 10.3717 16.5093 16.4707
17.7325 4.44003 4.75418 9.92307 10.3824 16.5602 16.5224
17.7425 4.46594 4.77979 9.9321 10.3901 16.6207 16.5836
17.7525 4.48441 4.79829 9.93819 10.3952 16.6905 16.6541
17.7625 4.49543 4.80964 9.94183 10.3981 16.7693 16.7337
17.7725 4.49907 4.81348 9.94329 10.3991 16.8561 16.8215
17.7825 4.49481 4.80928 9.94254 10.398 16.9499 16.9165
17.7925 4.48193 4.79643 9.93922 10.3944 17.0496 17.0173
17.8025 4.45995 4.7744 9.93277 10.388 17.1538 17.1227
17.8125 4.42849 4.74285 9.92258 10.3783 17.2611 17.2311
17.8225 4.38684 4.70152 9.90775 10.3652 17.3701 17.3413
17.8325 4.33473 4.65004 9.88743 10.3483 17.4795 17.4519
17.8425 4.27244 4.58825 9.86167 10.327 17.5884 17.5623
17.8525 4.20005 4.51608 9.83048 10.3004 17.6973 17.6723
17.8625 4.11734 4.43364 9.7935 10.2681 17.8056 17.78
17.8725 4.02444 4.34111 9.75019 10.2299 17.9112 17.8846
17.8825 3.92242 4.23935 9.70025 10.1854 18.0128 17.9871
17.8925 3.8128 4.12985 9.64443 10.1355 18.1113 18.0878
17.9025 3.69762 4.01476 9.58417 10.0811 18.2093 18.1876
17.9125 3.57923 3.89648 9.52087 10.0237 18.3089 18.2878
17.9225 3.45997 3.77727 9.45575 9.96448 18.4109 18.3899
17.9325 3.34182 3.6591 9.38981 9.9044 18.5157 18.4951
17.9425 3.22625 3.54351 9.32377 9.84401 18.6235 18.6041
17.9525 3.11425 3.4315 9.25793 9.78341 18.7346 18.7168
17.9625 3.00645 3.32361 9.19207 9.72236 18.8492 18.8328
17.9725 2.90325 3.22024 9.12584 9.6606 18.9671 18.9514
17.9825 2.80504 3.1218 9.05908 9.59793 19.0874 19.0724
17.9925 2.71224 3.02871 8.99185 9.53431 19.2095 19.1955
18.0025 2.62525 2.94135 8.92431 9.46976 19.3327 19.3201
18.0125 2.54435 2.86 8.85652 9.40437 19.457 19.4458
18.0225 2.46969 2.7848 8.78852 9.33824 19.5818 19.5719
18.0325 2.40133 2.71582 8.72041 9.2715 19.7067 19.6978
18.0425 2.33929 2.65308 8.65245 9.20438 19.8308 19.823
18.0525 2.28363 2.59665 8.58504 9.13725 19.9535 19.9468
18.0625 2.23448 2.54667 8.51874 9.07072 20.0743 20.0691
18.0725 2.19199 2.50332 8.45423 9.00551 20.1932 20.1892
18.0825 2.1562 2.46664 8.39213 8.94234 20.3097 20.3069
18.0925 2.1267 2.43649 8.33299 8.88178 20.4233 20.4216
18.1025 2.10307 2.4125 8.27713 8.82426 20.5332 20.5325
18.1125 2.08501 2.39407 8.22471 8.77013 20.6383 20.6388
18.1225 2.07183 2.38047 8.17587 8.71959 20.7379 20.7395
18.1325 2.06257 2.37086 8.13086 8.67265 20.8309 20.8336
18.1425 2.05623 2.36413 8.08968 8.62915 20.9162 20.9198
18.1525 2.05143 2.3589 8.05162 8.58867 20.9922 20.9965
18.1625 2.0464 2.3535 8.01549 8.55041 21.0571 21.062
18.1725 2.03942 2.34616 7.9802 8.5134 21.1088 21.1145
18.1825 2.02912 2.3354 7.94506 8.47682 21.1461 21.1523
18.1925 2.01459 2.32033 7.90978 8.44026 21.1678 21.1745
18.2025 1.99554 2.30068 7.87437 8.40385 21.1738 21.1807
18.2125 1.97229 2.2768 7.83928 8.36819 21.164 21.1712
18.2225 1.94564 2.24947 7.80534 8.33414 21.1393 21.1466
18.2325 1.91664 2.21975 7.77366 8.30264 21.1006 21.1079
18.2425 1.88647 2.18888 7.74525 8.27458 21.0493 21.0566
18.2525 1.85624 2.1582 7.72093 8.25078 20.9868 20.9937
18.2625 1.82705 2.12873 7.70134 8.23204 20.9144 20.9205
18.2725 1.80017 2.10165 7.68704 8.21894 20.8334 20.8379
18.2825 1.77683 2.07806 7.67871 8.21224 20.7446 20.7468
18.2925 1.75822 2.05924 7.67714 8.21213 20.6486 20.6499
18.3025 1.74555 2.04643 7.68309 8.21922 20.5467 20.5482
18.3125 1.74011 2.04073 7.6968 8.23403 20.4412 20.4429
18.3225 1.74284 2.04313 7.71833 8.25679 20.3341 20.335
18.3325 1.75439 2.05433 7.74777 8.2875 20.2262 20.2255
18.3425 1.77519 2.07479 7.78509 8.32585 20.1178 20.1154
18.3525 1.80546 2.10466 7.82994 8.37131 20.0088 20.0054
18.3625 1.84503 2.14377 7.88162 8.4232 19.8997 19.8959
18.3725 1.89338 2.19173 7.93912 8.48067 19.7912 19.7867
18.3825 1.94981 2.24792 8.0014 8.54267 19.6837 19.6779
18.3925 2.01323 2.31144 8.06735 8.60795 19.5765 19.5693
18.4025 2.08215 2.38114 8.13569 8.67506 19.4689 19.4604
18.4125 2.15525 2.4556 8.20499 8.74257 19.3602 19.3506
18.4225 2.23153 2.53337 8.27376 8.80917 19.2499 19.2395
18.4325 2.30996 2.6131 8.34073 8.87374 19.1378 19.1264
18.4425 2.3892 2.69356 8.40479 8.93519 19.0235 19.0109
18.4525 2.46788 2.77347 8.46497 8.99249 18.9066 18.8928
18.4625 2.54489 2.8516 8.52034 9.04472 18.7866 18.7717
18.4725 2.61937 2.92699 8.57026 9.0913 18.6632 18.6474
18.4825 2.69075 2.99913 8.61448 9.13208 18.5371 18.5205
18.4925 2.75878 3.06781 8.65318 9.16726 18.409 18.3914
18.5025 2.82347 3.13303 8.68677 9.19725 18.2796 18.261
18.5125 2.8849 3.19486 8.71572 9.22255 18.1497 18.1302
18.5225 2.94314 3.25339 8.74057 9.24371 18.0203 17.9999
18.5325 2.99824 3.30872 8.76178 9.26126 17.8922 17.8711
18.5425 3.05022 3.36085 8.7798 9.27567 17.7662 17.7443
18.5525 3.09897 3.40969 8.79494 9.2873 17.6429 17.6203
18.5625 3.14423 3.45499 8.80737 9.29633 17.5228 17.4995
18.5725 3.18558 3.49636 8.81706 9.30279 17.4062 17.3822
18.5825 3.22253 3.53325 8.82385 9.30654 17.293 17.2684
18.5925 3.2546 3.56519 8.82759 9.30745 17.1835 17.1583
18.6025 3.2814 3.59179 8.82818 9.30546 17.0777 17.052
18.6125 3.30278 3.61291 8.82572 9.30068 16.9761 16.9498
18.6225 3.31887 3.62868 8.82051 9.29344 16.8792 16.8524
18.6325 3.32994 3.63938 8.81299 9.28419 16.7876 16.7603
18.6425 3.33636 3.64541 8.80364 9.27339 16.702 16.6744
18.6525 3.33842 3.64713 8.79285 9.26142 16.6232 16.5951
18.6625 3.33643 3.64483 8.78093 9.2486 16.5515 16.5231
18.6725 3.33086 3.63897 8.76828 9.23533 16.4877 16.459
18.6825 3.32246 3.63031 8.75557 9.22226 16.4327 16.4037
18.6925 3.3123 3.61992 8.74377 9.21035 16.3874 16.3583
18.7025 3.30163 3.60905 8.73399 9.20069 16.3534 16.3241
18.7125 3.29163 3.59887 8.72726 9.19425 16.3317 16.3023
18.7225 3.28324 3.59033 8.72443 9.19176 16.3232 16.2937
18.7325 3.27704 3.58403 8.72598 9.19362 16.3285 16.299
18.7425 3.27315 3.58015 8.73187 9.19983 16.3476 16.318
18.7525 3.27113 3.57825 8.74147 9.20977 16.3796 16.3501
18.7625 3.27003 3.57734 8.75365 9.22229 16.4233 16.3941
18.7725 3.26866 3.57619 8.76707 9.23607 16.4772 16.4485
18.7825 3.26582 3.57363 8.78028 9.24987 16.54 16.5117
18.7925 3.26033 3.56853 8.79181 9.26258 16.6099 16.5821
18.8025 3.25119 3.55986 8.80049 9.27304 16.6855 16.6584
18.8125 3.23758 3.54667 8.80565 9.28021 16.7655 16.739
18.8225 3.21882 3.52821 8.80675 9.28327 16.8484 16.8227
18.8325 3.19451 3.50412 8.80333 9.28177 16.9334 16.9086
18.8425 3.16473 3.47449 8.79515 9.27575 17.02 16.9961
18.8525 3.13005 3.43987 8.78258 9.26563 17.1078 17.0849
18.8625 3.09136 3.40117 8.76652 9.25216 17.1971 17.1751
18.8725 3.04985 3.35962 8.74817 9.23637 17.2882 17.2673
18.8825 3.00689 3.31661 8.72874 9.21948 17.3817 17.362
18.8925 2.96385 3.27342 8.70896 9.20236 17.4794 17.461
18.9025 2.92167 3.23112 8.68956 9.18575 17.5821 17.5632
18.9125 2.88092 3.1903 8.67133 9.17043 17.6885 17.6687
18.9225 2.84231 3.15169 8.65474 9.15635 17.7976 17.7784
18.9325 2.80667 3.11607 8.64038 9.14429 17.9099 17.8924
18.9425 2.77499 3.08448 8.62895 9.13511 18.0269 18.0109
18.9525 2.74842 3.0581 8.6214 9.12978 18.1498 18.1345
18.9625 2.72797 3.03793 8.61876 9.12926 18.2791 18.2638
18.9725 2.71443 3.02479 8.6219 9.13429 18.4145 18.3994
18.9825 2.70831 3.01921 8.63143 9.14544 18.5557 18.5415
18.9925 2.70984 3.02143 8.64765 9.16308 18.7028 18.6898
19.0025 2.71906 3.03138 8.67062 9.18736 18.856 18.844
19.0125 2.73566 3.04868 8.70018 9.21816 19.0147 19.0034
19.0225 2.75906 3.07283 8.7361 9.25525 19.1781 19.1671
19.0325 2.78868 3.10326 8.77817 9.29839 19.3451 19.3346
19.0425 2.82384 3.13944 8.82613 9.34733 19.5148 19.5052
19.0525 2.86352 3.18066 8.87963 9.40167 19.6864 19.6777
19.0625 2.90669 3.22577 8.93794 9.46075 19.8591 19.851
19.0725 2.95224 3.27318 8.99984 9.52351 20.0311 20.0235
19.0825 2.99849 3.3212 9.06396 9.58866 20.2005 20.1933
19.0925 3.04376 3.36834 9.12912 9.65501 20.3657 20.359
19.1025 3.08693 3.41348 9.19451 9.72173 20.5254 20.5192
19.1125 3.12747 3.45589 9.25964 9.78837 20.679 20.6733
19.1225 3.16513 3.49536 9.32437 9.85484 20.8261 20.8208
19.1325 3.19999 3.53206 9.38889 9.92136 20.9668 20.9618
19.1425 3.23241 3.56633 9.45357 9.98826 21.1013 21.0965
19.1525 3.26278 3.59856 9.51871 10.0558 21.2297 21.2252
19.1625 3.29136 3.629 9.58442 10.1241 21.3522 21.3479
19.1725 3.31826 3.65778 9.65061 10.193 21.4689 21.4647
19.1825 3.34356 3.68496 9.71702 10.2623 21.5796 21.5755
19.1925 3.3673 3.71055 9.78343 10.332 21.6842 21.6801
19.2025 3.38962 3.73432 9.84995 10.4034 21.7827 21.7781
19.2125 3.41089 3.75726 9.9163 10.4744 21.8752 21.8699
19.2225 3.43107 3.7803 9.9819 10.543 21.9618 21.9563
19.2325 3.44978 3.8017 10.0466 10.6113 22.0427 22.037
19.2425 3.46763 3.82186 10.1103 10.6795 22.1183 22.1122
19.2525 3.48516 3.84168 10.1729 10.746 22.189 22.1824
19.2625 3.50227 3.86132 10.2345 10.811 22.255 22.2479
19.2725 3.5191 3.88054 10.2949 10.875 22.3166 22.3089
19.2825 3.53612 3.89982 10.3537 10.9373 22.3739 22.3657
19.2925 3.55349 3.91942 10.4108 10.9975 22.4274 22.4185
19.3025 3.57129 3.93932 10.466 11.056 22.4773 22.4676
19.3125 3.58978 3.95985 10.5194 11.1121 22.5239 22.5134
19.3225 3.60931 3.98142 10.5709 11.166 22.5676 22.5564
19.3325 3.63006 4.00411 10.6204 11.2176 22.6083 22.5969
19.3425 3.65211 4.02801 10.6679 11.2668 22.6463 22.635
19.3525 3.67525 4.05293 10.7129 11.3132 22.6819 22.6705
19.3625 3.69882 4.07817 10.7546 11.3559 22.7144 22.7028
19.3725 3.72192 4.10276 10.7921 11.3941 22.7431 22.7312
19.3825 3.74373 4.12585 10.8245 11.4269 22.767 22.7548
19.3925 3.76362 4.14681 10.8511 11.4536 22.7854 22.7733
19.4025 3.78108 4.16508 10.8716 11.4739 22.798 22.786
19.4125 3.79558 4.1801 10.8853 11.4875 22.8046 22.7926
19.4225 3.80659 4.19136 10.8918 11.4938 22.8048 22.7927
19.4325 3.8137 4.19858 10.891 11.4926 22.798 22.7859
19.4425 3.81661 4.20149 10.8827 11.4838 22.7842 22.772
19.4525 3.81516 4.19991 10.8673 11.4672 22.7631 22.7511
19.4625 3.80918 4.19382 10.8446 11.4425 22.7348 22.723
19.4725 3.79861 4.18313 10.8146 11.4105 22.6992 22.6876
19.4825 3.78387 4.16782 10.7776 11.3717 22.6565 22.6451
19.4925 3.76526 4.14807 10.734 11.3262 22.6068 22.5956
19.5025 3.74262 4.12357 10.6847 11.2749 22.5504 22.5395
19.5125 3.71646 4.09576 10.63 11.2183 22.4879 22.4771
19.5225 3.68744 4.06488 10.5706 11.1566 22.4194 22.4089
19.5325 3.65576 4.03109 10.5069 11.0906 22.3454 22.3349
19.5425 3.62152 3.99461 10.4392 11.0207 22.2657 22.2554
19.5525 3.58507 3.9559 10.368 10.947 22.1809 22.1707
19.5625 3.54698 3.91542 10.2941 10.8706 22.0911 22.0811
19.5725 3.50789 3.87384 10.2182 10.7921 21.9971 21.9874
19.5825 3.46827 3.83173 10.1409 10.7121 21.8994 21.89
19.5925 3.42834 3.78929 10.0627 10.6311 21.7981 21.789
19.6025 3.38819 3.74661 9.98372 10.5493 21.6933 21.6844
19.6125 3.3479 3.70377 9.90418 10.4669 21.585 21.5764
19.6225 3.30759 3.66091 9.82433 10.384 21.4733 21.4651
19.6325 3.26743 3.61823 9.74446 10.3012 21.3584 21.3504
19.6425 3.22759 3.57585 9.66485 10.2186 21.2404 21.2326
19.6525 3.18812 3.53385 9.58563 10.1364 21.1195 21.1117
19.6625 3.14898 3.49222 9.50688 10.0546 20.9955 20.9878
19.6725 3.11002 3.45078 9.42855 9.97319 20.8683 20.8606
19.6825 3.07105 3.40935 9.35049 9.89208 20.7377 20.7301
19.6925 3.03188 3.36772 9.27253 9.81107 20.6035 20.596
19.7025 2.99225 3.32563 9.19448 9.72999 20.4656 20.4581
19.7125 2.95195 3.28287 9.11612 9.64862 20.3238 20.3163
19.7225 2.91086 3.2393 9.03731 9.56682 20.1779 20.1704
19.7325 2.86894 3.19489 8.958 9.48453 20.0281 20.0204
19.7425 2.82633 3.14979 8.87827 9.40184 19.8743 19.8666
19.7525 2.78319 3.10426 8.79832 9.31893 19.7171 19.7093
19.7625 2.7399 3.05867 8.71839 9.23605 19.5568 19.5489
19.7725 2.69685 3.01326 8.63868 9.15334 19.3937 19.3857
19.7825 2.65412 2.96812 8.55915 9.07079 19.228 19.2198
19.7925 2.61146 2.92308 8.47951 8.9881 19.0595 19.0512
19.8025 2.56841 2.87769 8.39921 8.90468 18.888 18.8796
19.8125 2.52439 2.83126 8.31744 8.81977 18.7129 18.7043
19.8225 2.47859 2.78294 8.23326 8.73241 18.5335 18.5247
19.8325 2.43028 2.73202 8.14578 8.64173 18.349 18.3401
19.8425 2.37906 2.67808 8.05448 8.54719 18.1593 18.1502
19.8525 2.32502 2.6212 7.95923 8.44865 17.9644 17.9551
19.8625 2.26857 2.56178 7.86028 8.34634 17.7648 17.7554
19.8725 2.21032 2.50047 7.75807 8.24068 17.5613 17.5517
19.8825 2.15107 2.43809 7.65325 8.13228 17.3547 17.345
19.8925 2.09182 2.37566 7.54668 8.02197 17.1461 17.1362
19.9025 2.03376 2.3144 7.43941 7.91078 16.9367 16.9267
19.9125 1.97807 2.25552 7.33254 7.79977 16.7279 16.7178
19.9225 1.92579 2.20011 7.22707 7.68992 16.5207 16.5105
19.9325 1.87776 2.14904 7.12386 7.58207 16.3161 16.3059
19.9425 1.83478 2.10311 7.02373 7.47705 16.115 16.1048
19.9525 1.79766 2.06317 6.92762 7.37577 15.9184 15.9083
19.9625 1.76717 2.03002 6.83648 7.27919 15.7274 15.7172
19.9725 1.74388 2.00427 6.75113 7.18815 15.5425 15.5325
19.9825 1.72801 1.98614 6.6721 7.10318 15.3644 15.3544
19.9925 1.71946 1.97553 6.59962 7.02456 15.1931 15.1833
20.0025 1.7178 1.97203 6.53371 6.95235 15.0285 15.0189
20.0125 1.72226 1.97486 6.47404 6.88628 14.8702 14.8607
20.0225 1.73167 1.98285 6.41992 6.82573 14.7174 14.708
20.0325 1.74457 1.99445 6.3704 6.7698 14.5688 14.5596
20.0425 1.75929 2.00797 6.32429 6.71739 14.4232 14.4142
20.0525 1.77417 2.02171 6.28043 6.6674 14.2794 14.2704
20.0625 1.78769 2.03412 6.23776 6.61885 14.136 14.1272
20.0725 1.7986 2.04392 6.19545 6.57096 13.9923 13.9835
20.0825 1.80597 2.05014 6.15292 6.52321 13.8477 13.8389
20.0925 1.8091 2.05209 6.10978 6.47525 13.7017 13.6928
20.1025 1.80746 2.04923 6.06574 6.42681 13.5541 13.5452
20.1125 1.80065 2.04115 6.02054 6.37765 13.4049 13.3959
20.1225 1.78847 2.02764 5.97404 6.32764 13.2541 13.2448
20.1325 1.77095 2.00873 5.92624 6.2768 13.1019 13.0924
20.1425 1.7483 1.98464 5.87726 6.22521 12.9488 12.939
20.1525 1.72077 1.95561 5.82717 6.17294 12.7952 12.7851
20.1625 1.68847 1.92178 5.77582 6.11981 12.6413 12.6309
20.1725 1.65147 1.88319 5.72293 6.06551 12.4874 12.4766
20.1825 1.61005 1.84011 5.6684 6.00992 12.3339 12.3226
20.1925 1.56495 1.79331 5.61252 5.95329 12.1814 12.1697
20.2025 1.51723 1.74385 5.55587 5.89611 12.0313 12.0191
20.2125 1.4678 1.69268 5.49886 5.83875 11.8844 11.8718
20.2225 1.41716 1.64029 5.44147 5.78111 11.7412 11.7281
20.2325 1.36536 1.58671 5.38321 5.72269 11.6017 11.5883
20.2425 1.3123 1.5318 5.3234 5.66276 11.466 11.4521
20.2525 1.25781 1.47541 5.26139 5.60062 11.3336 11.3194
20.2625 1.20187 1.41749 5.19666 5.53573 11.2047 11.1902
20.2725 1.14461 1.35815 5.12885 5.46768 11.0792 11.0644
20.2825 1.0863 1.29766 5.05781 5.39627 10.9573 10.9422
20.2925 1.02735 1.23644 4.98357 5.32151 10.8393 10.8241
20.3025 0.968399 1.17513 4.90645 5.24365 10.7258 10.7105
20.3125 0.91024 1.11456 4.82697 5.16322 10.6174 10.6021
20.3225 0.853693 1.05554 4.74577 5.08079 10.5148 10.4995
20.3325 0.799435 0.998792 4.66342 4.99691 10.4186 10.4034
20.3425 0.747953 0.944809 4.58038 4.91205 10.3291 10.3141
20.3525 0.699614 0.893964 4.49712 4.82669 10.2465 10.2316
20.3625 0.654759 0.846608 4.41416 4.74131 10.1707 10.1563
20.3725 0.613755 0.803145 4.3321 4.65655 10.1021 10.0882
20.3825 0.576948 0.763931 4.25166 4.57313 10.0406 10.0275
20.3925 0.544555 0.729204 4.17348 4.49176 9.98656 9.97409
20.4025 0.516482 0.698887 4.09797 4.41287 9.93948 9.92773
20.4125 0.492224 0.672474 4.02523 4.3366 9.8986 9.88764
20.4225 0.470976 0.649152 3.95508 4.26283 9.86285 9.85277
20.4325 0.451833 0.628004 3.88725 4.19138 9.8311 9.82194
20.4425 0.43392 0.608177 3.82154 4.12213 9.80226 9.794
20.4525 0.416431 0.588838 3.75782 4.055 9.77531 9.7679
20.4625 0.398693 0.5693 3.69607 3.99001 9.74931 9.7427
20.4725 0.380178 0.549036 3.63635 3.92732 9.72345 9.71761
20.4825 0.360527 0.527691 3.57888 3.86716 9.69717 9.69205
20.4925 0.33955 0.505093 3.52397 3.8099 9.67007 9.6656
20.5025 0.317233 0.481236 3.47201 3.75597 9.64195 9.63801
20.5125 0.293738 0.456291 3.42352 3.70589 9.61277 9.60925
20.5225 0.269322 0.430535 3.37899 3.66018 9.58261 9.5794
20.5325 0.244274 0.404273 3.33889 3.61931 9.55159 9.5486
20.5425 0.218893 0.377816 3.30355 3.58361 9.5199 9.51702
20.5525 0.193461 0.351455 3.27324 3.55333 9.48773 9.48484
20.5625 0.168269 0.325478 3.24812 3.52854 9.45526 9.45225
20.5725 0.143612 0.300183 3.22828 3.50917 9.42268 9.41946
20.5825 0.1197 0.275774 3.21366 3.49514 9.39018 9.38667
20.5925 0.0967549 0.252411 3.20404 3.48627 9.35793 9.35406
20.6025 0.0751325 0.23041 3.19917 3.48235 9.3262 9.3219
20.6125 0.0553122 0.210154 3.19886 3.48314 9.29536 9.29055
20.6225 0.0377302 0.192092 3.20292 3.4884 9.26582 9.26043
20.6325 0.0227286 0.176632 3.21108 3.49779 9.23793 9.23194
20.6425 0.0105222 0.163994 3.22281 3.51078 9.2119 9.20529
20.6525 0.00109659 0.154143 3.23734 3.52658 9.18772 9.18049
20.6625 -0.00579422 0.146847 3.25374 3.54422 9.1652 9.15734
20.6725 -0.0104923 0.141801 3.27103 3.56271 9.14408 9.13561
20.6825 -0.0132409 0.138784 3.28833 3.58118 9.12421 9.11515
20.6925 -0.0140386 0.137782 3.30507 3.59903 9.10568 9.09607
20.7025 -0.0126065 0.139062 3.32107 3.61602 9.08887 9.07878
20.7125 -0.00841352 0.143151 3.33653 3.63225 9.07445 9.06393
20.7225 -0.00080257 0.150713 3.35183 3.64806 9.06324 9.05235
20.7325 0.0109032 0.162416 3.36745 3.6639 9.05605 9.04488
20.7425 0.0272853 0.178845 3.3839 3.68029 9.05366 9.04227
20.7525 0.0487553 0.200424 3.40163 3.69768 9.05667 9.04515
20.7625 0.0755186 0.227361 3.421 3.71644 9.06549 9.05393
20.7725 0.10759 0.259667 3.44231 3.73688 9.08038 9.06883
20.7825 0.14482 0.297188 3.46577 3.75923 9.10141 9.08996
20.7925 0.186915 0.339632 3.49159 3.78374 9.12854 9.11725
20.8025 0.233548 0.386656 3.51999 3.81064 9.16171 9.15063
20.8125 0.284553 0.437962 3.55148 3.84026 9.20087 9.19007
20.8225 0.339711 0.493364 3.58657 3.87317 9.2461 9.23558
20.8325 0.39872 0.552738 3.6256 3.91 9.29744 9.28726
20.8425 0.461394 0.615863 3.66895 3.95134 9.35494 9.34511
20.8525 0.527431 0.682371 3.71699 3.99726 9.41847 9.40902
20.8625 0.596208 0.751782 3.76995 4.04794 9.48766 9.47872
20.8725 0.667063 0.823279 3.82801 4.10425 9.56205 9.55354
20.8825 0.739553 0.896337 3.89121 4.16594 9.64133 9.63318
20.8925 0.813226 0.970598 3.95974 4.23325 9.72535 9.71752
20.9025 0.887721 1.04575 4.03385 4.30674 9.81405 9.80642
20.9125 0.9627 1.12147 4.11368 4.38633 9.90729 9.8998
20.9225 1.03769 1.19728 4.19914 4.47185 10.0048 9.99738
20.9325 1.11201 1.27245 4.28994 4.56289 10.106 10.0987
20.9425 1.18458 1.34622 4.38543 4.65881 10.2103 10.203
20.9525 1.25435 1.41775 4.48465 4.75889 10.3171 10.3096
20.9625 1.32053 1.4862 4.5865 4.86224 10.4254 10.4177
20.9725 1.38265 1.55072 4.69015 4.96787 10.5347 10.5268
20.9825 1.44014 1.61057 4.79482 5.07479 10.6443 10.6362
20.9925 1.49229 1.66523 4.89942 5.18207 10.7537 10.7452
21.0025 1.53857 1.71424 5.00266 5.28879 10.8624 10.8536
21.0125 1.57896 1.75732 5.10368 5.39407 10.9702 10.9611
21.0225 1.61354 1.79444 5.20209 5.49713 11.077 11.0675
21.0325 1.64248 1.8259 5.29767 5.5974 11.1831 11.1732
21.0425 1.66632 1.85223 5.39007 5.69458 11.2888 11.2785
21.0525 1.68585 1.87416 5.479 5.78852 11.3947 11.3841
21.0625 1.70193 1.89252 5.56436 5.87911 11.5015 11.4906
21.0725 1.7154 1.90819 5.64632 5.96629 11.6097 11.5986
21.0825 1.72721 1.92216 5.72508 6.05007 11.7201 11.7088
21.0925 1.73835 1.93542 5.80078 6.13059 11.8334 11.822
21.1025 1.74988 1.94899 5.87367 6.2081 11.9502 11.9389
21.1125 1.76302 1.96494 5.94419 6.28293 12.0713 12.0601
21.1225 1.77915 1.98506 6.0131 6.35519 12.1973 12.1866
21.1325 1.79884 2.00763 6.08132 6.4263 12.329 12.3188
21.1425 1.82297 2.03495 6.14926 6.49689 12.467 12.4573
21.1525 1.85255 2.06789 6.21757 6.56754 12.6118 12.6029
21.1625 1.88833 2.10671 6.28716 6.63921 12.7636 12.7555
21.1725 1.93058 2.15204 6.35862 6.71213 12.9224 12.9151
21.1825 1.97894 2.20354 6.43196 6.78641 13.0874 13.0811
21.1925 2.03272 2.26045 6.50675 6.86184 13.2576 13.2523
21.2025 2.09096 2.32179 6.58241 6.93792 13.4315 13.4275
21.2125 2.15246 2.38636 6.65831 7.01385 13.6081 13.6067
21.2225 2.21599 2.45305 6.73364 7.08893 13.787 13.7867
21.2325 2.28027 2.52018 6.80779 7.1631 13.9671 13.9659
21.2425 2.34418 2.58691 6.88024 7.23547 14.1458 14.1441
21.2525 2.40673 2.65231 6.95082 7.30584 14.3213 14.3203
21.2625 2.46713 2.71471 7.01936 7.37422 14.4931 14.4937
21.2725 2.52493 2.77319 7.08565 7.44162 14.6614 14.6631
21.2825 2.57954 2.82829 7.14955 7.50719 14.8263 14.8276
21.2925 2.63022 2.8799 7.211 7.56977 14.987 14.9878
21.3025 2.67666 2.92793 7.27027 7.63026 15.1424 15.143
21.3125 2.71905 2.97148 7.32773 7.68937 15.2923 15.2933
21.3225 2.75756 3.011 7.38377 7.74741 15.4369 15.4386
21.3325 2.79227 3.04715 7.43887 7.80456 15.5772 15.5791
21.3425 2.82342 3.08007 7.49364 7.8616 15.7134 15.7152
21.3525 2.85148 3.1099 7.54858 7.91924 15.8456 15.847
21.3625 2.87664 3.13688 7.60394 7.97758 15.9736 15.9748
21.3725 2.89874 3.16104 7.65974 8.03654 16.0972 16.0986
21.3825 2.91765 3.18207 7.71586 8.09617 16.2165 16.2181
21.3925 2.93338 3.19984 7.77207 8.15635 16.3317 16.333
21.4025 2.94591 3.21438 7.82817 8.21672 16.4425 16.4434
21.4125 2.9552 3.22574 7.88397 8.27708 16.5488 16.5492
21.4225 2.9613 3.23392 7.93927 8.33722 16.6503 16.6504
21.4325 2.96422 3.23894 7.99365 8.39667 16.7472 16.7469
21.4425 2.96382 3.241 8.04657 8.45468 16.8392 16.8386
21.4525 2.95986 3.23949 8.09743 8.51071 16.9261 16.9251
21.4625 2.95232 3.23423 8.14564 8.56439 17.0078 17.0062
21.4725 2.94117 3.22518 8.19057 8.61489 17.0838 17.0817
21.4825 2.92635 3.21243 8.23169 8.66152 17.1543 17.1517
21.4925 2.90794 3.19599 8.26856 8.70389 17.219 17.2161
21.5025 2.88623 3.17602 8.30078 8.7416 17.2783 17.275
21.5125 2.8616 3.1529 8.32809 8.77428 17.3323 17.3285
21.5225 2.83442 3.127 8.35029 8.80168 17.3813 17.377
21.5325 2.80504 3.09872 8.36724 8.82361 17.4254 17.4207
21.5425 2.77388 3.06842 8.37877 8.83984 17.4649 17.4598
21.5525 2.74132 3.03647 8.38472 8.85015 17.5 17.4946
21.5625 2.70762 3.00317 8.38491 8.85435 17.5308 17.5252
21.5725 2.67307 2.96889 8.37924 8.85228 17.5578 17.5517
21.5825 2.63815 2.93403 8.36779 8.84397 17.581 17.5745
21.5925 2.60352 2.89936 8.35089 8.82957 17.6008 17.594
21.6025 2.57001 2.86584 8.32917 8.80969 17.6176 17.6109
21.6125 2.5387 2.83444 8.30347 8.78518 17.6326 17.6261
21.6225 2.51079 2.80615 8.27472 8.757 17.6465 17.6403
21.6325 2.48711 2.78185 8.24379 8.72606 17.6603 17.6542
21.6425 2.46801 2.76218 8.21143 8.69312 17.6741 17.6683
21.6525 2.45374 2.74747 8.17824 8.65909 17.6883 17.6828
21.6625 2.44463 2.73795 8.14474 8.62452 17.7029 17.6979
21.6725 2.441 2.73377 8.11184 8.59002 17.7183 17.7139
21.6825 2.44295 2.7344 8.08063 8.55648 17.7348 17.7307
21.6925 2.45041 2.74063 8.05163 8.52477 17.7525 17.7486
21.7025 2.4633 2.75262 8.02496 8.49478 17.7712 17.7677
21.7125 2.48126 2.76995 8.00088 8.46691 17.7905 17.7878
21.7225 2.50362 2.79169 7.97988 8.4423 17.81 17.808
21.7325 2.52981 2.81721 7.96229 8.42076 17.8291 17.8276
21.7425 2.5593 2.84625 7.94836 8.40252 17.8475 17.8467
21.7525 2.59187 2.87852 7.93865 8.38867 17.8653 17.8649
21.7625 2.62775 2.91423 7.9341 8.38025 17.8826 17.8827
21.7725 2.66721 2.95371 7.93585 8.3782 17.9 17.9006
21.7825 2.71033 2.997 7.94486 8.38354 17.9178 17.9189
21.7925 2.75686 3.04382 7.96153 8.39681 17.9359 17.9373
21.8025 2.80617 3.09346 7.98576 8.41802 17.954 17.9557
21.8125 2.8574 3.14489 8.01731 8.44713 17.9714 17.9733
21.8225 2.90991 3.197 8.05586 8.48406 17.9878 17.9899
21.8325 2.96264 3.24982 8.10097 8.52789 18.0029 18.0048
21.8425 3.01438 3.30244 8.15206 8.57798 18.0163 18.0177
21.8525 3.06472 3.35379 8.20823 8.63381 18.0271 18.0275
21.8625 3.11304 3.40284 8.26841 8.69445 18.0345 18.0335
21.8725 3.15822 3.44895 8.33173 8.75853 18.0375 18.0359
21.8825 3.19965 3.49172 8.39764 8.8254 18.036 18.0344
21.8925 3.23777 3.53213 8.46574 8.8945 18.0306 18.0289
21.9025 3.27312 3.57096 8.53589 8.96529 18.0224 18.0201
21.9125 3.3057 3.60629 8.60811 9.03857 18.0118 18.0085
21.9225 3.33609 3.64003 8.68197 9.11422 17.9992 17.9949
21.9325 3.36511 3.67273 8.75741 9.19216 17.9855 17.9808
21.9425 3.39371 3.70493 8.83499 9.27256 17.9718 17.9667
21.9525 3.42266 3.73794 8.91508 9.35515 17.9595 17.9538
21.9625 3.45248 3.77198 8.9976 9.43994 17.9494 17.943
21.9725 3.48374 3.80743 9.082 9.52681 17.9421 17.9348
21.9825 3.51687 3.84483 9.16776 9.61523 17.9381 17.9302
21.9925 3.55204 3.88424 9.25462 9.70472 17.9377 17.9293
22.0025 3.58949 3.92592 9.34236 9.79479 17.9417 17.9328
22.0125 3.62968 3.97029 9.43073 9.88529 17.9508 17.9413
22.0225 3.67324 4.01774 9.51979 9.9768 17.9658 17.9556
22.0325 3.72081 4.06879 9.60962 10.0688 17.9875 17.9765
22.0425 3.77269 4.12426 9.70019 10.1604 18.0166 18.0053
22.0525 3.82875 4.18424 9.79133 10.2521 18.0533 18.0419
22.0625 3.8887 4.2478 9.88242 10.3438 18.0976 18.0859
22.0725 3.95205 4.31469 9.97264 10.4345 18.1491 18.1373
22.0825 4.01791 4.38415 10.0613 10.5231 18.2076 18.1956
22.0925 4.08533 4.45505 10.1477 10.6093 18.2722 18.26
22.1025 4.15354 4.52655 10.2311 10.6923 18.3423 18.3301
22.1125 4.22178 4.59794 10.3108 10.7716 18.4174 18.4053
22.1225 4.28949 4.66782 10.3868 10.8472 18.4974 18.4853
22.1325 4.35678 4.73602 10.4593 10.9195 18.5821 18.57
22.1425 4.42375 4.8042 10.5287 10.9886 18.6718 18.6598
22.1525 4.49059 4.87223 10.5962 11.0553 18.7671 18.7553
22.1625 4.55804 4.94054 10.6627 11.1212 18.8684 18.8571
22.1725 4.62684 5.00996 10.7291 11.1871 18.9765 18.9657
22.1825 4.69723 5.08103 10.7964 11.2539 19.0919 19.0815
22.1925 4.76928 5.15389 10.8656 11.3225 19.2145 19.2045
22.2025 4.84299 5.2284 10.9371 11.3935 19.3441 19.3346
22.2125 4.918 5.30423 11.0112 11.4674 19.4802 19.4713
22.2225 4.9937 5.38081 11.0879 11.5444 19.6224 19.614
22.2325 5.06966 5.45767 11.167 11.6241 19.7711 19.7628
22.2425 5.14534 5.53466 11.2486 11.7061 19.9259 19.9168
22.2525 5.22014 5.61139 11.3332 11.7913 20.0852 20.0751
22.2625 5.29359 5.68646 11.4206 11.8798 20.2479 20.2378
22.2725 5.36517 5.75991 11.5105 11.971 20.4136 20.4044
22.2825 5.43424 5.8314 11.6025 12.0649 20.5827 20.5741
22.2925 5.5002 5.89999 11.6966 12.1613 20.7551 20.7464
22.3025 5.5626 5.96514 11.7925 12.2602 20.9301 20.9207
22.3125 5.62081 6.02632 11.8899 12.3609 21.1065 21.0966
22.3225 5.67414 6.08301 11.9883 12.4629 21.2836 21.2738
22.3325 5.72203 6.13459 12.087 12.5659 21.4611 21.4515
22.3425 5.76411 6.18037 12.1857 12.6696 21.6388 21.6292
22.3525 5.80009 6.21995 12.2839 12.7734 21.8166 21.8065
22.3625 5.82973 6.25314 12.3812 12.8771 21.994 21.9832
22.3725 5.85286 6.2798 12.4772 12.98 22.1706 22.1592
22.3825 5.8694 6.29982 12.5713 13.0816 22.3461 22.3343
22.3925 5.87936 6.31311 12.663 13.1814 22.5205 22.5083
22.4025 5.88269 6.31966 12.7517 13.2787 22.6938 22.681
22.4125 5.87942 6.31944 12.8368 13.3728 22.8659 22.8522
22.4225 5.86957 6.31234 12.9175 13.4624 23.0363 23.0219
22.4325 5.85321 6.29867 12.9932 13.5472 23.2048 23.19
22.4425 5.83033 6.27892 13.0631 13.6265 23.3712 23.3558
22.4525 5.80091 6.25314 13.1264 13.699 23.5353 23.5196
22.4625 5.76516 6.2204 13.1826 13.7642 23.6971 23.681
22.4725 5.7233 6.18117 13.2308 13.822 23.8561 23.8395
22.4825 5.67539 6.13545 13.2705 13.8713 24.0123 23.9951
22.4925 5.62164 6.08374 13.3011 13.9112 24.1655 24.148
22.5025 5.56265 6.02651 13.3226 13.9418 24.3159 24.298
22.5125 5.49924 5.96438 13.335 13.9633 24.4639 24.4457
22.5225 5.43239 5.89864 13.3387 13.9758 24.6101 24.5917
22.5325 5.36324 5.83048 13.3342 13.9797 24.7555 24.7367
22.5425 5.29307 5.76096 13.3223 13.9756 24.9004 24.8815
22.5525 5.22306 5.69127 13.3036 13.9642 25.0458 25.0267
22.5625 5.15432 5.62278 13.2788 13.946 25.192 25.173
22.5725 5.08805 5.55648 13.2488 13.9218 25.3397 25.3209
22.5825 5.02531 5.49318 13.2142 13.8924 25.4892 25.4708
22.5925 4.96655 5.43358 13.1756 13.8583 25.6407 25.6227
22.6025 4.91189 5.3782 13.1336 13.8199 25.7941 25.7767
22.6125 4.8616 5.32733 13.0888 13.7782 25.9492 25.9324
22.6225 4.8159 5.28087 13.0414 13.734 26.1056 26.0892
22.6325 4.77481 5.23885 12.9918 13.6868 26.2628 26.247
22.6425 4.73801 5.20124 12.9407 13.6371 26.4204 26.4053
22.6525 4.70529 5.16777 12.8884 13.5859 26.5776 26.5633
22.6625 4.6765 5.13811 12.8354 13.5335 26.7338 26.7203
22.6725 4.6511 5.11176 12.7818 13.4801 26.8881 26.8755
22.6825 4.62809 5.08743 12.7278 13.4259 27.0394 27.0277
22.6925 4.60629 5.06327 12.6732 13.3715 27.1863 27.1753
22.7025 4.58505 5.04016 12.6178 13.3165 27.3274 27.317
22.7125 4.5634 5.0164 12.5614 13.2597 27.4615 27.4519
22.7225 4.54035 4.99145 12.5042 13.2022 27.5874 27.5787
22.7325 4.51531 4.96435 12.4463 13.1444 27.7042 27.6961
22.7425 4.488 4.93492 12.388 13.0861 27.8112 27.8037
22.7525 4.45824 4.90309 12.33 13.028 27.908 27.9011
22.7625 4.42606 4.86889 12.2728 12.9711 27.9944 27.988
22.7725 4.39174 4.83252 12.2174 12.9161 28.0703 28.0643
22.7825 4.3554 4.79417 12.1641 12.8633 28.1355 28.1299
