0 0 0
0 0 0
0 0 0
0 0 0
0 0 0
0 0 0
0 0 0
0 0 0
0 0 0
0 0 0
0 0 0
0 0 0
0 0 0
0 0 0
0 0 0
0 0 0
0 0 0
0 0 0
0 0 0
0 0 0
0 0 0
0 0 0
0 0 0
0 0 0
0 0 0
0 0 0
0 0 0
0 0 0
0 0 0
0 0 0
0 0 0
0 0 0
0 0 0
0 0 0
0 0 0
0 0 0
0 0 0
0 0 0
0 0 0
0 0 0
0 0 0
0 0 0
0 0 0
0 0 0
0 0 0
0 0 0
0 0 0
0 0 0
0 0 0
0 0 0
0 0 0
0 0 0
0 0 0
0 0 0
0 0 0
0 0 0
0 0 0
0 0 0
0 0 0
0 0 0
0 0 0
0 0 0
0 0 0
0.00401575 0 0
0.0135178 0 0
0.0223113 0 0
0.0304256 0 0
0.037925 0 0
0.0449867 0 0
0.0518884 0 0
0.0589162 0.00316932 0
0.0662364 0.0178775 0
0.0738211 0.0304335 0
0.0815275 0.040603 0
0.0892 0.048279 0
0.0967033 0.0534749 0
0.103931 0.0563174 0
0.110811 0.0570415 0
0.117311 0.0564948 0
0.123428 0.0552336 0.00707969
0.129165 0.053475 0.018833
0.134532 0.0514504 0.0302108
0.139568 0.0493901 0.0408513
0.144381 0.0475069 0.0504138
0.149137 0.0459864 0.0585943
0.154006 0.0449862 0.0651361
0.159046 0.044642 0.0698385
0.164105 0.0455023 0.0725633
0.168821 0.0480969 0.0732583
0.172735 0.0525181 0.072584
0.174984 0.0573494 0.0713458
0.176374 0.0648588 0.0689992
0.176196 0.0736951 0.0658836
0.175021 0.0833892 0.0621592
0.172861 0.093362 0.0580123
0.169699 0.102969 0.0536444
0.165529 0.111533 0.0492622
0.160347 0.118379 0.0450654
0.154147 0.122872 0.0412363
0.146926 0.124446 0.0379295
0.138691 0.123538 0.0379295
0.129454 0.120758 0.0379295
0.119244 0.115996 0.0379295
0.108149 0.109202 0.0379295
0.0963571 0.10038 0.0379295
0.0890564 0.0895985 0.0379295
0.0890564 0.0770079 0.0379295
0.0890564 0.0715158 0.0379295
0.0890564 0.0715158 0.0379295
0.0890564 0.0715158 0.0379295
0.0890564 0.0715158 0.0379295
0.0890564 0.0715158 0.0379295
0.0890564 0.0715158 0.0379295
0.0890564 0.0715158 0.0379295
0.0890564 0.0715158 0.0379295
0.0890564 0.0715158 0.0379295
0.0890564 0.0715158 0.0379295
0.0890564 0.0715158 0.0379295
0.0890564 0.0715158 0.0379295
0.0890564 0.0715158 0.0379295
0.0890564 0.0715158 0.0379295
0.0890564 0.0715158 0.0379295
0.0890564 0.0715158 0.0379295
0.0890564 0.0715158 0.0379295
0.0890564 0.0715158 0.0379295
0.0890564 0.0715158 0.0379295
0.0890564 0.0715158 0.0379295
0.0890564 0.0715158 0.0379295
0.0890564 0.0715158 0.0379295
0.0890564 0.0715158 0.0379295
0.0890564 0.0700492 0.0366947
0.0890564 0.0692149 0.0366947
0.0890564 0.0692149 0.0366947
0.0890564 0.0692149 0.0366592
0.0890564 0.0692149 0.0366592
0.0890564 0.0692149 0.0366592
0.0890564 0.0692149 0.0366592
0.0890564 0.0692149 0.0366592
0.0890564 0.0692149 0.0366592
0.0890564 0.0692149 0.0366592
0.0890564 0.0692149 0.0366592
0.0890564 0.0692149 0.0366592
0.0890564 0.0692149 0.0366592
0.0890564 0.0692149 0.0366592
0.0882653 0.0685339 0.0366592
0.0882298 0.0684778 0.0366592
0.0882298 0.0684778 0.0366592
0.0882298 0.0684778 0.0366424
0.0882298 0.0684778 0.0366424
0.0882298 0.0684778 0.0366424
0.0882298 0.0684778 0.0366424
0.0882298 0.0684778 0.0366424
0.0882298 0.0684778 0.0366424
0.0882298 0.0684778 0.0366424
0.0882298 0.0684778 0.0366424
0.0882298 0.0684778 0.0366424
0.0882298 0.0684778 0.0366424
0.0882298 0.0684778 0.0366424
0.0882298 0.0684778 0.0366424
0.0882298 0.0684778 0.0366424
0.0882298 0.0684778 0.0366424
0.0882298 0.0684778 0.0366424
0.0882298 0.0684778 0.0366424
0.0882298 0.0684606 0.0366424
0.0882298 0.0684606 0.0366424
0.0882298 0.0684606 0.0366424
0.0882298 0.0684606 0.0366424
0.0882298 0.0684606 0.0366424
0.0882298 0.0684606 0.0366424
0.0882298 0.0684606 0.0366424
0.0882298 0.0684606 0.0366424
0.0882288 0.0684606 0.0366424
0.0882288 0.0684606 0.0366424
0.0882288 0.0684606 0.0366424
0.0882288 0.0684606 0.0366424
0.0882288 0.0684606 0.0366424
0.0882288 0.0684606 0.0366424
0.0882288 0.0684606 0.0366424
0.0882288 0.0684435 0.0366424
0.0882288 0.0684435 0.0366424
0.0882288 0.0684435 0.0366424
0.0882288 0.0684435 0.0366424
0.0882288 0.0684435 0.0366424
0.0882288 0.0684435 0.0366424
0.0882288 0.0684435 0.0366424
0.0882288 0.0684435 0.0366424
0.0882288 0.0684435 0.0366424
0.0882288 0.0684435 0.0366424
0.0882288 0.0684435 0.0366424
0.0882288 0.0684435 0.0366424
0.0882288 0.0684435 0.0366424
0.0882288 0.0684435 0.0366424
0.0882288 0.0684435 0.0366424
0.0882288 0.0684435 0.0366424
0.0882288 0.0684435 0.0366424
0.0882288 0.0684435 0.0366424
0.0882288 0.0684435 0.0366424
0.0882288 0.0684435 0.0366424
0.0882288 0.0684435 0.0366424
0.0882288 0.0684435 0.0366424
0.0882288 0.0684435 0.0366424
0.0882288 0.0684435 0.0366424
0.0882288 0.0684435 0.0366424
0.0882288 0.0684435 0.0366424
0.0882288 0.0684435 0.0366424
0.0882288 0.0684435 0.0366424
0.0882288 0.0684435 0.0366424
0.0882288 0.0684435 0.0366424
0.0882288 0.0684435 0.0366424
0.0882288 0.0684435 0.0366424
0.0882288 0.0684435 0.0366424
0.0882288 0.0684435 0.0366424
0.0882288 0.0684435 0.0366424
0.0882288 0.0684435 0.0366424
0.0882288 0.0684435 0.0366424
0.0882288 0.0684435 0.0366424
0.0882288 0.0684435 0.0366424
0.0882288 0.0684435 0.0366424
0.0882288 0.0684435 0.0366424
0.0882288 0.0684435 0.0401287
0.0882288 0.0684435 0.052944
0.0882288 0.0684435 0.0639337
0.0882288 0.0684435 0.0730981
0.0882288 0.0684435 0.0804746
0.100704 0.0684435 0.0861422
0.11788 0.0684435 0.0902139
0.135501 0.0684435 0.0928286
0.153349 0.0684435 0.094148
0.171193 0.090067 0.0943777
0.188788 0.111477 0.0940284
0.205889 0.132419 0.0933305
0.222251 0.152631 0.0923908
0.237649 0.17185 0.0913163
0.25188 0.18982 0.0902131
0.264771 0.206294 0.0891815
0.276187 0.221039 0.0883132
0.286034 0.233839 0.0876884
0.294266 0.244501 0.087375
0.300882 0.25286 0.0875014
0.305919 0.258793 0.0884099
0.309444 0.262216 0.090161
0.311542 0.263107 0.092753
0.312312 0.262286 0.0961468
0.312084 0.260227 0.100271
0.311322 0.256984 0.105013
0.310126 0.252645 0.110228
0.308601 0.247323 0.115737
0.306844 0.241149 0.121339
0.304945 0.234278 0.126812
0.302988 0.226885 0.131921
0.301042 0.219156 0.136424
0.299178 0.211282 0.140082
0.297462 0.203455 0.142666
0.295964 0.195861 0.143964
0.294747 0.188676 0.14393
0.293866 0.182063 0.143027
0.293367 0.176166 0.14125
0.293305 0.171109 0.138559
0.294034 0.166988 0.134937
0.29571 0.166988 0.130393
0.298389 0.166988 0.124958
0.302084 0.166988 0.118689
0.306688 0.166988 0.111675
0.31233 0.166988 0.104009
0.319012 0.166988 0.0958099
0.326137 0.168566 0.0958099
0.333749 0.175669 0.0958099
0.342048 0.183983 0.0958099
0.350681 0.193255 0.0958099
0.358372 0.203195 0.0958099
0.365369 0.213694 0.0958099
0.371386 0.224536 0.0958099
0.376089 0.235419 0.0958099
0.379125 0.246033 0.0958099
0.380237 0.256075 0.0958099
0.379733 0.265289 0.0958099
0.378064 0.273331 0.0958099
0.375214 0.279864 0.0958099
0.371227 0.284609 0.0958099
0.366176 0.287327 0.0958099
0.360142 0.287862 0.0958099
0.353217 0.286917 0.0958099
0.345517 0.284744 0.0958099
0.337172 0.281347 0.0958099
0.328332 0.276735 0.0958099
0.319159 0.270974 0.0958099
0.309821 0.26416 0.0958099
0.300459 0.256426 0.0958099
0.291188 0.24794 0.0958099
0.282096 0.238902 0.101473
0.273256 0.229533 0.123885
0.264721 0.229533 0.145529
0.256523 0.229533 0.165913
0.248681 0.229533 0.184566
0.244899 0.229533 0.201044
0.244899 0.229533 0.214956
0.244899 0.229533 0.225966
0.244899 0.229533 0.233809
0.244899 0.229533 0.238287
0.244899 0.229533 0.239321
0.244899 0.229533 0.238052
0.244899 0.229533 0.235036
0.244899 0.229533 0.230332
0.244899 0.229533 0.224035
0.244899 0.229533 0.216276
0.244899 0.229533 0.207214
0.244899 0.229533 0.197034
0.244899 0.229533 0.185942
0.244899 0.229533 0.174159
0.244899 0.229533 0.16808
0.244899 0.229533 0.16808
0.244899 0.229533 0.16808
0.244899 0.229533 0.16808
0.244899 0.229533 0.16808
0.244899 0.229533 0.16808
0.244899 0.229533 0.16808
0.244899 0.229533 0.16808
0.244899 0.229533 0.16808
0.244899 0.229533 0.16808
0.244899 0.229533 0.16808
0.244899 0.229533 0.16808
0.244899 0.229533 0.16808
0.244899 0.229533 0.16808
0.244899 0.229533 0.165983
0.244899 0.229533 0.165983
0.244899 0.229533 0.165662
0.244899 0.229533 0.165662
0.244899 0.229533 0.165662
0.244899 0.229533 0.165659
0.244899 0.229533 0.165659
0.244899 0.226246 0.165659
0.244899 0.226246 0.165656
0.244899 0.226246 0.165656
0.244899 0.226246 0.165656
0.244899 0.226246 0.165656
0.243781 0.226246 0.165656
0.243781 0.226246 0.165656
0.243781 0.226246 0.165656
0.243781 0.226246 0.165656
0.243781 0.226232 0.165656
0.243781 0.226232 0.165656
0.243781 0.226232 0.165656
0.243781 0.226232 0.165656
0.243781 0.226232 0.165656
0.243781 0.226232 0.165656
0.243756 0.226232 0.165656
0.243753 0.226232 0.165656
0.243753 0.226232 0.165656
0.243753 0.226232 0.165656
0.243753 0.226232 0.165656
0.24375 0.226232 0.165656
0.24375 0.226232 0.165656
0.24375 0.226232 0.165656
0.24375 0.226232 0.165656
0.24375 0.226232 0.165656
0.24375 0.226232 0.165656
0.24375 0.226232 0.165656
0.24375 0.226232 0.165656
0.24375 0.226232 0.165656
0.24375 0.226232 0.165656
0.24375 0.226232 0.165656
0.24375 0.226232 0.165656
0.24375 0.226232 0.165656
0.24375 0.226232 0.165656
0.24375 0.226232 0.165656
0.24375 0.226232 0.165656
0.24375 0.226232 0.165656
0.24375 0.226232 0.165656
0.24375 0.226232 0.165656
0.24375 0.226232 0.165656
0.24375 0.226232 0.165656
0.24375 0.226232 0.165656
0.24375 0.226232 0.165656
0.24375 0.226232 0.165656
0.24375 0.226232 0.165656
0.24375 0.226232 0.165656
0.24375 0.226232 0.165656
0.24375 0.226232 0.165656
0.24375 0.226232 0.165656
0.24375 0.226232 0.165656
0.24375 0.226232 0.165656
0.24375 0.226232 0.165656
0.24375 0.226232 0.165656
0.24375 0.226232 0.165656
0.24375 0.226232 0.165656
0.24375 0.226232 0.165656
0.24375 0.226232 0.165656
0.24375 0.226232 0.165656
0.24375 0.226232 0.165656
0.24375 0.226232 0.165656
0.24375 0.226232 0.165656
0.24375 0.226232 0.165656
0.24375 0.226232 0.165656
0.24375 0.226232 0.165656
0.24375 0.226232 0.165656
0.24375 0.226232 0.165656
0.24375 0.226232 0.165656
0.24375 0.226232 0.165654
0.24375 0.226232 0.165654
0.24375 0.226232 0.165654
0.24375 0.226232 0.165654
0.24375 0.226232 0.165654
0.24375 0.226232 0.165654
0.24375 0.226232 0.165654
0.24375 0.226232 0.165654
0.24375 0.226232 0.165654
0.24375 0.226232 0.165654
0.24375 0.226232 0.165654
0.24375 0.226232 0.165654
0.24375 0.226232 0.165654
0.24375 0.226232 0.165654
0.24375 0.226232 0.165654
0.24375 0.226232 0.165654
0.24375 0.226232 0.165651
0.24375 0.226232 0.165651
0.24375 0.226232 0.165651
0.24375 0.226232 0.165651
0.24375 0.226232 0.165651
0.24375 0.226232 0.165651
0.24375 0.226232 0.165651
0.24375 0.226232 0.165651
0.24375 0.226232 0.165651
0.24375 0.226232 0.165651
0.24375 0.226232 0.165651
0.24375 0.226232 0.16565
0.24375 0.226232 0.16565
0.24375 0.226232 0.16565
0.24375 0.226232 0.16565
0.24375 0.226232 0.16565
0.24375 0.226232 0.16565
0.24375 0.226232 0.16565
0.24375 0.226232 0.16565
0.24375 0.226232 0.16565
0.24375 0.226232 0.16565
0.24375 0.234018 0.16565
0.24375 0.238716 0.16565
0.24375 0.24047 0.16565
0.24375 0.240031 0.16565
0.24375 0.238424 0.16565
0.24375 0.235851 0.189404
0.24375 0.234271 0.220705
0.24375 0.234271 0.251078
0.244736 0.234271 0.279975
0.24926 0.234271 0.306879
0.254834 0.234271 0.331307
0.261574 0.234271 0.352648
0.269717 0.234271 0.359973
0.279167 0.234271 0.361219
0.289881 0.234271 0.361105
0.30172 0.234271 0.360801
0.314716 0.234271 0.361195
0.328772 0.234271 0.361187
0.343844 0.234271 0.359109
0.359914 0.234271 0.354814
0.376956 0.238484 0.348578
0.394902 0.256644 0.340892
0.413646 0.276635 0.332103
0.433055 0.298082 0.322294
0.452958 0.320528 0.311493
0.473151 0.343453 0.299919
0.493401 0.366335 0.287984
0.513444 0.388682 0.276101
0.532992 0.410027 0.267391
0.551748 0.42992 0.267391
0.569417 0.447941 0.267391
0.585657 0.463718 0.267391
0.591862 0.472685 0.267391
0.591954 0.475526 0.267391
0.592972 0.477826 0.267391
0.595885 0.479832 0.267391
0.598004 0.480458 0.267391
0.597946 0.480365 0.267391
0.597643 0.479512 0.267391
0.596616 0.477529 0.267391
0.594547 0.474258 0.267391
0.591553 0.469802 0.267391
0.587832 0.464377 0.267391
0.583465 0.458138 0.267391
0.578505 0.451193 0.267391
0.573106 0.443743 0.267391
0.567439 0.436 0.267391
0.56163 0.42815 0.267391
0.555811 0.420391 0.276724
0.550141 0.412943 0.295208
0.544773 0.406 0.313088
0.539839 0.399727 0.329952
0.535463 0.394286 0.345441
0.531762 0.389829 0.359247
0.528832 0.386475 0.3711
0.526748 0.384312 0.380769
0.525563 0.383399 0.388078
0.52521 0.38422 0.39291
0.525306 0.387852 0.395193
0.526165 0.394223 0.395179
0.527801 0.403153 0.393858
0.530171 0.414392 0.391399
0.533207 0.427618 0.387908
0.536818 0.44246 0.383518
0.540894 0.4585 0.378383
0.545293 0.475281 0.372672
0.549849 0.492327 0.366562
0.554374 0.509157 0.36024
0.558674 0.525299 0.353891
0.562555 0.540298 0.3477
0.565833 0.553722 0.341838
0.568344 0.565181 0.336463
0.569955 0.57433 0.332835
0.57057 0.580883 0.332835
0.570351 0.584617 0.332835
0.569593 0.585426 0.332835
0.568293 0.584285 0.332835
0.566451 0.581629 0.332835
0.56406 0.577509 0.332835
0.561108 0.572018 0.332835
0.557576 0.565287 0.332835
0.553457 0.557478 0.332835
0.548762 0.548775 0.332835
0.543517 0.539377 0.338495
0.537765 0.529495 0.346434
0.531557 0.519346 0.354525
0.524951 0.509144 0.362441
0.518002 0.499099 0.36986
0.51076 0.489409 0.376477
0.503278 0.480252 0.382007
0.495616 0.471781 0.386202
0.487861 0.464113 0.38885
0.480126 0.460607 0.389788
0.472549 0.460607 0.389343
0.465267 0.460607 0.387951
0.458402 0.460607 0.3856
0.452043 0.460607 0.382305
0.446238 0.460607 0.378101
0.444876 0.460607 0.373044
0.444876 0.460607 0.367208
0.444876 0.460607 0.362376
0.444876 0.460607 0.362376
0.444876 0.460607 0.362376
0.444876 0.460607 0.362376
0.444876 0.460607 0.362376
0.444876 0.460607 0.362376
0.444876 0.460607 0.362376
0.444876 0.460607 0.362376
0.444876 0.460607 0.362376
0.444876 0.460607 0.362376
0.444876 0.460607 0.362376
0.444876 0.460607 0.362376
0.444876 0.460607 0.362376
0.444876 0.460607 0.362376
0.444876 0.460607 0.362376
0.444876 0.460607 0.362376
0.444876 0.460607 0.362376
0.444876 0.460607 0.362376
0.444876 0.460607 0.362376
0.444876 0.460607 0.362376
0.444876 0.460607 0.362376
0.444876 0.460607 0.362376
0.444876 0.460607 0.362376
0.444876 0.460607 0.362376
0.444876 0.460607 0.362376
0.444876 0.460607 0.362376
0.444876 0.460607 0.362376
0.444876 0.460607 0.362376
0.444876 0.460607 0.362376
0.444876 0.460607 0.362376
0.444876 0.460607 0.362376
0.444876 0.460607 0.362376
0.444876 0.460607 0.362376
0.443908 0.460607 0.362376
0.443908 0.460607 0.362376
0.443908 0.459019 0.362376
0.443908 0.457617 0.362376
0.443908 0.457617 0.362376
0.443908 0.457571 0.362376
0.443908 0.457571 0.362376
0.443908 0.457571 0.362376
0.443908 0.457571 0.362376
0.443908 0.457571 0.362376
0.443908 0.457571 0.362376
0.443908 0.457571 0.362376
0.443908 0.457571 0.362376
0.443908 0.457571 0.362376
0.443908 0.457571 0.362376
0.443908 0.457571 0.36007
0.443908 0.457571 0.357337
0.443908 0.457571 0.356719
0.443908 0.457571 0.356719
0.443908 0.457571 0.356351
0.443908 0.457571 0.356351
0.443908 0.457571 0.356339
0.443908 0.457571 0.356339
0.443908 0.457571 0.356339
0.443908 0.457571 0.356339
0.443908 0.457571 0.356339
0.443908 0.457571 0.356339
0.443908 0.457571 0.356339
0.443908 0.457571 0.356339
0.443908 0.457571 0.356339
0.443908 0.457571 0.356339
0.443908 0.457571 0.356339
0.443908 0.457571 0.356339
0.443908 0.457571 0.356339
0.443908 0.457571 0.356339
0.443908 0.457571 0.356339
0.443908 0.457571 0.356339
0.443908 0.457571 0.356339
0.443908 0.457571 0.356339
0.443908 0.457571 0.356339
0.443908 0.457571 0.356339
0.443908 0.457571 0.356339
0.443647 0.457571 0.356339
0.443647 0.457571 0.356339
0.443647 0.457571 0.356339
0.443647 0.457571 0.356339
0.443647 0.457571 0.356339
0.443647 0.457571 0.356339
0.443647 0.457571 0.356339
0.443647 0.457571 0.356339
0.443647 0.457571 0.356339
0.443647 0.457571 0.356339
0.443647 0.457571 0.356339
0.443647 0.457571 0.356339
0.443647 0.457571 0.356339
0.443647 0.457571 0.356339
0.443647 0.457571 0.356339
0.443647 0.457571 0.356339
0.443647 0.457571 0.356339
0.443647 0.457571 0.356339
0.443647 0.457571 0.356339
0.443647 0.457571 0.356325
0.443647 0.457571 0.356325
0.443647 0.457571 0.356325
0.443647 0.457571 0.356325
0.443647 0.457571 0.356325
0.443647 0.457571 0.356325
0.443647 0.457571 0.356325
0.443647 0.457571 0.356325
0.443647 0.457571 0.356325
0.443647 0.457571 0.356325
0.443647 0.457571 0.356325
0.443647 0.457571 0.356325
0.443647 0.457571 0.356325
0.443647 0.457571 0.356325
0.443647 0.457571 0.356325
0.443647 0.457571 0.356325
0.443647 0.457571 0.356325
0.443647 0.457571 0.356325
0.443647 0.457571 0.356325
0.443647 0.457571 0.356325
0.443647 0.457571 0.356325
0.443647 0.457571 0.356325
0.443647 0.457571 0.356325
0.443647 0.457571 0.356325
0.443647 0.457571 0.356325
0.443647 0.457571 0.356325
0.443647 0.457571 0.356325
0.443647 0.457571 0.356325
0.443647 0.457571 0.356325
0.443647 0.457571 0.356325
0.443647 0.457571 0.356325
0.443647 0.457571 0.356325
0.443647 0.457571 0.356325
0.443647 0.457571 0.356325
0.443647 0.457571 0.356325
0.443647 0.457571 0.356325
0.443647 0.457571 0.356325
0.443647 0.457571 0.356325
0.443647 0.457571 0.356325
0.443647 0.457571 0.356325
0.443647 0.457571 0.356325
0.443647 0.457571 0.359666
0.443647 0.457571 0.372871
0.443647 0.457571 0.385644
0.443647 0.457571 0.397776
0.443647 0.457571 0.409092
0.443647 0.457571 0.419426
0.443647 0.457571 0.428593
0.443647 0.457571 0.436398
0.443647 0.457571 0.442663
0.443647 0.457571 0.447248
0.443647 0.457571 0.450046
0.443647 0.457571 0.45097
0.443647 0.457571 0.450372
0.451867 0.457571 0.448659
0.460794 0.457571 0.445826
0.470378 0.457571 0.441905
0.480564 0.457571 0.436952
0.491291 0.457571 0.431045
0.502501 0.457571 0.424273
0.514134 0.457571 0.416744
0.526133 0.457571 0.408587
0.538432 0.457571 0.406467
0.550957 0.45989 0.406467
0.563619 0.469488 0.406467
0.576317 0.479448 0.406467
0.588936 0.489553 0.406467
0.601356 0.499589 0.406467
0.613457 0.509348 0.406467
0.62511 0.518711 0.406467
0.636217 0.527467 0.406467
0.646677 0.535383 0.406467
0.656424 0.54237 0.406467
0.66538 0.548325 0.406467
0.673505 0.55318 0.406467
0.680774 0.556897 0.406467
0.687182 0.559485 0.406467
0.692736 0.561013 0.406467
0.697464 0.561558 0.406467
0.701401 0.561393 0.406467
0.704595 0.560863 0.406467
0.707111 0.560055 0.406467
0.709037 0.559063 0.406467
0.710492 0.55795 0.406467
0.711561 0.55685 0.406467
0.712388 0.555867 0.406467
0.713111 0.555107 0.406467
0.713728 0.5547 0.406467
0.712434 0.555615 0.406467
0.711453 0.557391 0.406467
0.710737 0.560198 0.424315
0.710386 0.564169 0.441709
0.710509 0.569355 0.458468
0.71143 0.575788 0.474433
0.713218 0.583488 0.489428
0.7159 0.592446 0.503304
0.719466 0.602601 0.515965
0.723649 0.613708 0.527384
0.728328 0.62569 0.53753
0.733724 0.638452 0.546367
0.739763 0.651972 0.553856
0.746204 0.666043 0.560039
0.752627 0.680558 0.564979
0.759032 0.695346 0.568745
0.765279 0.710178 0.571429
0.771174 0.724804 0.573136
0.776573 0.738993 0.573987
0.781385 0.75251 0.574127
0.785539 0.765085 0.573885
0.788981 0.77645 0.573404
0.791688 0.786359 0.572751
0.793656 0.794593 0.57199
0.794881 0.800954 0.571178
0.79538 0.805277 0.570364
0.795288 0.807436 0.56958
0.794822 0.807492 0.568852
0.794014 0.806267 0.568193
0.792901 0.80389 0.567596
0.791519 0.800406 0.567044
0.789879 0.795882 0.566503
0.787966 0.790417 0.56593
0.785747 0.784138 0.565268
0.783184 0.777189 0.564456
0.780241 0.76972 0.563427
0.776899 0.761884 0.562115
0.773165 0.753832 0.560454
0.769063 0.745703 0.558383
0.764628 0.737627 0.555849
0.759897 0.729723 0.552806
0.754906 0.722095 0.549221
0.749687 0.71483 0.545072
0.74426 0.708001 0.540351
0.738643 0.701658 0.535063
0.732842 0.695835 0.52923
0.726859 0.690541 0.522888
0.720689 0.685767 0.516085
0.714323 0.681485 0.508886
0.707747 0.677644 0.501366
0.700947 0.67418 0.493609
0.693908 0.671012 0.493609
0.686618 0.668046 0.493609
0.679074 0.665176 0.493609
0.671281 0.662293 0.493609
0.661217 0.658495 0.493609
0.650844 0.654278 0.493609
0.640212 0.649446 0.493609
0.629333 0.643877 0.493609
0.622674 0.637472 0.493609
0.622674 0.637472 0.493609
0.622674 0.637472 0.493609
0.622674 0.637472 0.493609
0.622674 0.637472 0.493609
0.622674 0.637472 0.493609
0.622674 0.637472 0.493609
0.622674 0.637472 0.493609
0.622674 0.637472 0.493609
0.622674 0.637472 0.493609
0.622674 0.637472 0.493609
0.622674 0.637472 0.493609
0.622674 0.637472 0.493609
0.622674 0.637472 0.493609
0.622674 0.637472 0.493609
0.622674 0.637472 0.493609
0.622674 0.637472 0.493609
0.622674 0.637472 0.493609
0.621517 0.637472 0.493609
0.621517 0.637472 0.493609
0.621517 0.637472 0.493609
0.621517 0.637472 0.493609
0.621517 0.637472 0.493609
0.621517 0.637472 0.493609
0.621517 0.637472 0.493609
0.621517 0.637472 0.493609
0.621517 0.637472 0.493609
0.621517 0.637472 0.493609
0.621517 0.637472 0.4914
0.621517 0.637472 0.488104
0.621517 0.637472 0.487509
0.621517 0.637472 0.487509
0.621517 0.637472 0.487509
0.621517 0.636067 0.487509
0.621517 0.636067 0.487497
0.621517 0.636067 0.487484
0.621517 0.636067 0.487484
0.621517 0.636067 0.487484
0.621517 0.636067 0.487484
0.621517 0.636067 0.487484
0.621517 0.636067 0.487484
0.621517 0.636067 0.487484
0.621517 0.636067 0.487484
0.621517 0.636067 0.487484
0.621517 0.636067 0.487484
0.621517 0.636067 0.487484
0.621517 0.636067 0.487484
0.621517 0.636067 0.487484
0.621517 0.636067 0.487484
0.621517 0.636067 0.487484
0.621517 0.636067 0.487484
0.621517 0.636067 0.487484
0.621199 0.636063 0.487484
0.621199 0.636063 0.487484
0.621199 0.636063 0.487484
0.621198 0.636063 0.487484
0.621198 0.636063 0.487484
0.621198 0.636063 0.487484
0.621198 0.636063 0.487484
0.621198 0.636063 0.487484
0.621198 0.636063 0.487484
0.621198 0.636063 0.487484
0.621198 0.636062 0.487484
0.621198 0.636062 0.487484
0.621198 0.636062 0.487484
0.621198 0.636062 0.487484
0.621198 0.636062 0.487484
0.621198 0.636062 0.487484
0.621198 0.636062 0.487484
0.621198 0.636062 0.487484
0.621198 0.636055 0.487484
0.621198 0.636055 0.487484
0.621198 0.636055 0.487484
0.621198 0.636055 0.487484
0.621198 0.636055 0.487484
0.621198 0.636055 0.487484
0.621198 0.636055 0.487484
0.621198 0.636055 0.487484
0.621198 0.636055 0.487484
0.621198 0.636055 0.487484
0.621198 0.636055 0.487484
0.621198 0.636055 0.487484
0.621198 0.636055 0.487484
0.621198 0.636055 0.487484
0.621198 0.636055 0.487484
0.621198 0.636055 0.487484
0.621198 0.636055 0.487484
0.621198 0.636055 0.487484
0.621198 0.636055 0.487484
0.621198 0.636055 0.487484
0.621198 0.636055 0.487484
0.621198 0.636055 0.487484
0.621198 0.636055 0.487484
0.621198 0.636055 0.487484
0.621198 0.636055 0.487484
0.621198 0.636055 0.487484
0.621198 0.636055 0.487484
0.621198 0.636055 0.487484
0.621198 0.636055 0.487484
0.621198 0.636055 0.490933
0.621198 0.638258 0.50778
0.621198 0.648388 0.523819
0.621198 0.657065 0.538768
0.621198 0.664328 0.552402
0.625485 0.670237 0.564568
0.630508 0.674864 0.575111
0.635312 0.678298 0.583829
0.640034 0.68064 0.59055
0.644761 0.682016 0.595165
0.649526 0.682575 0.597603
0.654343 0.682536 0.597868
0.659237 0.682203 0.596674
0.664262 0.681645 0.5942
0.669476 0.680906 0.590491
0.67491 0.68002 0.585615
0.680531 0.679026 0.579652
0.686255 0.677957 0.572702
0.691973 0.676838 0.564889
0.697562 0.675685 0.55636
0.70289 0.674501 0.547276
0.707808 0.673282 0.543524
0.712157 0.672013 0.543524
0.715783 0.670673 0.543524
0.718539 0.669228 0.543524
0.720204 0.667653 0.543524
0.720159 0.666006 0.543524
0.719038 0.66417 0.543524
0.716972 0.662088 0.543524
0.714146 0.660627 0.543524
0.710726 0.660627 0.543524
0.706844 0.660627 0.543524
0.70262 0.660627 0.543524
0.698126 0.660627 0.543524
0.693395 0.660627 0.543524
0.688434 0.660627 0.543524
0.683247 0.660627 0.543524
0.677854 0.660627 0.543524
0.672311 0.660627 0.543524
0.672311 0.660627 0.543524
0.672311 0.660627 0.543524
0.672311 0.660627 0.543524
0.672311 0.660627 0.543524
0.672311 0.660627 0.543524
0.672311 0.660627 0.543524
0.672311 0.660627 0.543524
0.672311 0.660627 0.543524
0.672311 0.660627 0.543524
0.672311 0.660627 0.543524
0.672311 0.660627 0.543524
0.672311 0.660627 0.543524
0.672311 0.660627 0.543524
0.672311 0.660627 0.543524
0.672311 0.660627 0.543524
0.672311 0.660627 0.543524
0.672311 0.660627 0.543524
0.672311 0.660627 0.543524
0.672311 0.660627 0.543524
0.672311 0.660627 0.543524
0.672311 0.660627 0.543524
0.672311 0.660627 0.543524
0.672311 0.660627 0.543524
0.672311 0.660627 0.543524
0.672311 0.660627 0.543524
0.672311 0.660627 0.543524
0.672311 0.660627 0.543524
0.672311 0.660627 0.543524
0.672311 0.660627 0.543524
0.672311 0.660627 0.543524
0.672311 0.660627 0.543524
0.672311 0.660627 0.543524
0.672311 0.660627 0.543524
0.672311 0.660627 0.543524
0.670776 0.660627 0.543524
0.670776 0.660627 0.543524
0.670776 0.660627 0.543524
0.670776 0.660627 0.543524
0.670776 0.660627 0.543524
0.670776 0.660627 0.543524
0.670776 0.660627 0.543524
0.670776 0.659331 0.543524
0.670776 0.659331 0.543524
0.670776 0.659331 0.543524
0.670776 0.659331 0.543524
0.670776 0.659331 0.543524
0.670776 0.659331 0.543524
0.670776 0.659331 0.543524
0.670776 0.659331 0.543524
0.670776 0.659331 0.543524
0.670776 0.659331 0.543524
0.670776 0.659331 0.542786
0.670776 0.659331 0.542745
0.670776 0.659331 0.542739
0.670776 0.659331 0.542739
0.670776 0.659331 0.542739
0.670776 0.659331 0.542734
0.670776 0.659331 0.542734
0.670776 0.659331 0.542734
0.670776 0.659331 0.542734
0.670776 0.659331 0.542734
0.670776 0.659331 0.542734
0.670776 0.659324 0.542734
0.670772 0.659324 0.542734
0.670772 0.659324 0.542734
0.670772 0.659324 0.542734
0.670772 0.659324 0.542734
0.670772 0.659324 0.542734
0.670772 0.659324 0.542734
0.670772 0.659324 0.542734
0.670772 0.659324 0.542734
0.670772 0.659324 0.542734
0.670772 0.659324 0.542734
0.670772 0.659324 0.542734
0.670772 0.659324 0.542734
0.670772 0.659324 0.542734
0.670772 0.659324 0.542734
0.670772 0.659324 0.542734
0.670772 0.659324 0.542734
0.670772 0.659324 0.542734
0.670772 0.659324 0.542734
0.670772 0.659324 0.542734
0.670772 0.659324 0.542734
0.670772 0.659324 0.542734
0.670772 0.659324 0.542734
0.670772 0.659324 0.542734
0.670772 0.659324 0.542734
0.670772 0.659324 0.542734
0.670772 0.659324 0.542734
0.670772 0.659324 0.542734
0.670772 0.659324 0.542734
0.670772 0.659324 0.542734
0.670772 0.659324 0.542734
0.670772 0.659324 0.542734
0.670772 0.659324 0.542734
0.670772 0.659324 0.542734
0.670772 0.659324 0.542734
0.670772 0.659324 0.542734
0.670772 0.659324 0.542734
0.670772 0.659324 0.542734
0.670772 0.659324 0.542734
0.670772 0.659324 0.542734
0.670772 0.659324 0.542734
0.670772 0.659324 0.542734
0.670772 0.659324 0.542734
0.670772 0.659324 0.542734
0.670772 0.659324 0.542734
0.670772 0.659324 0.542734
0.670772 0.659324 0.542734
0.670772 0.659324 0.542734
0.670772 0.659324 0.542734
0.670772 0.659324 0.542734
0.670772 0.659324 0.542734
0.670772 0.659324 0.542734
0.670772 0.659324 0.542734
0.670772 0.659324 0.542734
0.670772 0.659324 0.542734
0.670772 0.659324 0.542734
0.670772 0.659324 0.542734
0.670772 0.659324 0.542734
0.670772 0.659324 0.542734
0.670772 0.659324 0.542734
0.670772 0.659324 0.542734
0.670772 0.659324 0.542734
0.670772 0.659324 0.542734
0.670772 0.659324 0.542734
0.670772 0.659324 0.542734
0.670772 0.659324 0.542734
0.670772 0.659324 0.542734
0.670772 0.659324 0.542734
0.670772 0.659324 0.542734
0.670772 0.659324 0.542734
0.670772 0.659324 0.542734
0.670772 0.659324 0.542734
0.670772 0.659324 0.542734
0.670772 0.659324 0.542734
0.670772 0.659324 0.542734
0.670772 0.659324 0.542734
0.670772 0.659324 0.542734
0.670772 0.659324 0.542734
0.670772 0.659324 0.542734
0.670772 0.659324 0.542734
0.670772 0.659324 0.542734
0.670772 0.659324 0.542734
0.670772 0.659324 0.542734
0.670772 0.659324 0.542734
0.670772 0.659324 0.542734
0.670772 0.659324 0.542734
0.670772 0.659324 0.542734
0.670772 0.659324 0.542734
0.670772 0.659324 0.542734
0.670772 0.659324 0.542734
0.670772 0.659324 0.542734
0.670772 0.659324 0.542734
0.670772 0.659324 0.542734
0.670772 0.659324 0.542734
0.670772 0.659324 0.542734
0.670772 0.659324 0.542734
0.670772 0.659324 0.542734
0.670772 0.659324 0.542734
0.670772 0.659324 0.542734
0.670772 0.659324 0.542734
0.670772 0.659324 0.542734
0.670772 0.659324 0.542734
0.670772 0.659324 0.542734
0.670772 0.659324 0.544405
0.670772 0.659324 0.551953
0.670772 0.659324 0.557952
0.670772 0.659324 0.562167
0.670772 0.659324 0.564435
0.670772 0.659324 0.564683
0.670772 0.659324 0.563459
0.670772 0.659324 0.560886
0.670772 0.659324 0.556991
0.670772 0.659324 0.554052
0.670772 0.659324 0.554052
0.670772 0.659324 0.554052
0.670772 0.659324 0.554052
0.670772 0.659324 0.554052
0.670772 0.659324 0.554052
0.670772 0.659324 0.554052
0.670772 0.659324 0.554052
0.670772 0.659324 0.554052
0.670772 0.659324 0.554052
0.670772 0.659324 0.554052
0.670772 0.659324 0.554052
0.670772 0.659324 0.554052
0.670772 0.659324 0.554052
0.670772 0.659324 0.554052
0.670772 0.659324 0.554052
0.670772 0.659324 0.554052
0.670772 0.659324 0.554052
0.670772 0.659324 0.554052
0.670772 0.659324 0.554052
0.670772 0.659324 0.554052
0.670772 0.659324 0.554052
0.670772 0.659324 0.554052
0.670772 0.659324 0.554052
0.670772 0.659324 0.554052
0.670772 0.659324 0.554052
0.670772 0.659324 0.554052
0.670772 0.659324 0.554052
0.670772 0.659324 0.554052
0.670772 0.659324 0.554052
0.670772 0.659324 0.554052
0.670772 0.659324 0.554052
0.670772 0.659324 0.554052
0.670772 0.659324 0.554052
0.670772 0.659324 0.554052
0.670772 0.659324 0.554052
0.670772 0.659324 0.554052
0.670772 0.659324 0.554052
0.670772 0.659324 0.554052
0.670772 0.659324 0.554052
0.670772 0.659324 0.554052
0.670772 0.659324 0.554052
0.670772 0.659324 0.554052
0.670772 0.659324 0.554052
0.670772 0.659324 0.554052
0.670772 0.659324 0.554052
0.670772 0.659324 0.554052
0.670772 0.659324 0.554052
0.670772 0.659324 0.554052
0.670772 0.659324 0.554052
0.670772 0.659324 0.554052
0.670772 0.659324 0.554052
0.670772 0.659324 0.554052
0.670772 0.659324 0.554052
0.670772 0.659324 0.554052
0.670772 0.659324 0.554052
0.670772 0.659324 0.554052
0.670772 0.659324 0.554052
0.670772 0.659324 0.554052
0.670772 0.659324 0.554052
0.670772 0.659324 0.554052
0.670772 0.659324 0.554052
0.670772 0.659324 0.554052
0.670772 0.659324 0.554052
0.670772 0.659324 0.554052
0.670772 0.659324 0.554052
0.670772 0.659324 0.554052
0.670772 0.659324 0.554052
0.670772 0.659324 0.554052
0.670772 0.659324 0.554052
0.670772 0.659324 0.554052
0.670772 0.659324 0.554052
0.670772 0.659324 0.554052
0.670772 0.659324 0.554052
0.670772 0.659324 0.554052
0.670772 0.659324 0.554052
0.670772 0.659324 0.554052
0.670772 0.659324 0.554052
0.670772 0.659324 0.554052
0.670772 0.659324 0.554052
0.670772 0.659324 0.554052
0.670772 0.659324 0.554052
0.670772 0.659324 0.554052
0.670772 0.659324 0.554052
0.670772 0.659324 0.554052
0.670772 0.659324 0.554052
0.670772 0.659324 0.554052
0.670772 0.659324 0.554052
0.670772 0.659324 0.554052
0.670772 0.659324 0.554052
0.671794 0.659324 0.554052
0.677283 0.659324 0.554052
0.683474 0.659324 0.554052
0.690121 0.659324 0.554052
0.69683 0.659324 0.554052
0.703231 0.659324 0.554052
0.709034 0.659324 0.554052
0.714034 0.659324 0.554052
0.718124 0.659324 0.554052
0.721258 0.672026 0.554052
0.723411 0.683447 0.554052
0.724507 0.693222 0.554052
0.724507 0.701061 0.554052
0.723729 0.706702 0.554052
0.722135 0.709903 0.554052
0.71968 0.710674 0.554052
0.716316 0.709828 0.554052
0.711998 0.707809 0.554052
0.706723 0.704698 0.554052
0.700539 0.700589 0.554052
0.699201 0.695588 0.554052
0.699201 0.689815 0.561818
0.699201 0.687319 0.570979
0.699201 0.687319 0.579196
0.699201 0.687319 0.586141
0.699201 0.687319 0.591512
0.699201 0.687319 0.595023
0.699201 0.687319 0.59642
0.699201 0.687319 0.595882
0.699201 0.687319 0.593961
0.699201 0.687319 0.590582
0.699201 0.687319 0.58573
0.699201 0.687319 0.57954
0.699201 0.687319 0.576664
0.699201 0.687319 0.576664
0.699201 0.687319 0.576664
0.699201 0.687319 0.576664
0.699201 0.687319 0.576664
0.699201 0.687319 0.576664
0.699201 0.687319 0.576664
0.699201 0.687319 0.576664
0.699201 0.687319 0.576664
0.699201 0.687319 0.576664
0.699201 0.687319 0.576664
0.699201 0.687319 0.576664
0.699201 0.687319 0.575063
0.699201 0.687319 0.575063
0.699201 0.687319 0.575063
0.699201 0.687319 0.575063
0.699201 0.687319 0.575063
0.699201 0.687319 0.575063
0.699201 0.687319 0.575063
0.699201 0.687319 0.575063
0.699201 0.687319 0.574958
0.699201 0.685936 0.574958
0.697992 0.685936 0.574958
0.697992 0.685936 0.574958
0.697992 0.685936 0.574958
0.697992 0.685936 0.574958
0.697992 0.685936 0.574958
0.697992 0.685022 0.574958
0.697992 0.685022 0.574958
0.697992 0.685022 0.574958
0.697992 0.685022 0.574958
0.697992 0.685022 0.574958
0.697992 0.685009 0.574958
0.697992 0.685009 0.574958
0.697992 0.685009 0.574958
0.697992 0.685009 0.574958
0.697992 0.685009 0.574958
0.697992 0.685009 0.574958
0.697992 0.685009 0.574958
0.697992 0.685009 0.574958
0.697992 0.685009 0.574958
0.697992 0.685009 0.574958
0.697992 0.685009 0.574958
0.697992 0.685009 0.574958
0.697992 0.685009 0.574958
0.697992 0.685009 0.574958
0.697992 0.685009 0.574958
0.697992 0.685009 0.574958
0.697992 0.685009 0.574958
0.697992 0.685009 0.574958
0.697701 0.685009 0.574958
0.697701 0.685009 0.574958
0.697693 0.685009 0.574958
0.697693 0.685009 0.574958
0.697693 0.685009 0.574958
0.697693 0.685009 0.574958
0.697693 0.685009 0.574958
0.697693 0.685009 0.574958
0.697693 0.685009 0.574958
0.697693 0.685009 0.574958
0.697693 0.685009 0.574958
0.697693 0.685009 0.574958
0.697693 0.685009 0.574958
0.697693 0.685009 0.574958
0.697693 0.685009 0.574958
0.697693 0.685009 0.574958
0.697693 0.685009 0.574958
0.697693 0.685009 0.574958
0.697693 0.685009 0.574958
0.697693 0.685009 0.574958
0.697693 0.685009 0.574958
0.697693 0.685009 0.574958
0.697693 0.685009 0.574958
0.697693 0.685009 0.574958
0.697693 0.685009 0.574958
0.697693 0.685009 0.574958
0.697693 0.685009 0.574958
0.697693 0.685009 0.574958
0.697693 0.685009 0.574958
0.697693 0.685009 0.574958
0.697693 0.685009 0.574958
0.697693 0.685009 0.574958
0.697693 0.685009 0.574958
0.697693 0.685009 0.574958
0.697693 0.685009 0.574958
0.697693 0.685009 0.574958
0.699921 0.685009 0.574958
0.710863 0.685009 0.574958
0.721779 0.685009 0.574958
0.732967 0.685009 0.60766
0.744695 0.697505 0.63896
0.757191 0.713245 0.668412
0.770633 0.729285 0.695967
0.785149 0.745824 0.721361
0.800826 0.763021 0.744003
0.817735 0.780964 0.763486
0.836066 0.798823 0.768675
0.855569 0.817473 0.769044
0.876278 0.837194 0.768964
0.897939 0.857532 0.769722
0.92046 0.878625 0.770854
0.943607 0.900224 0.77103
0.967218 0.92196 0.769998
0.991115 0.943376 0.767658
1.01511 0.96425 0.764222
0.980874 2.65869 0.705758
1.02726 2.65869 0.747205
1.03727 2.65869 0.738884
1.05898 2.65869 0.723961
1.07617 2.65869 0.716943
1.08537 2.65869 0.713389
1.10102 2.65869 0.703212
1.11734 2.65869 0.700983
1.12558 2.65869 0.700983
1.12916 2.65869 0.700983
1.13254 2.65869 0.700983
1.13678 2.65869 0.700983
1.14037 2.65869 0.700983
1.14362 2.65869 0.700983
1.14652 2.65869 0.700983
1.14984 2.65869 0.703123
1.15275 2.65869 0.716231
1.1481 2.65869 0.74914
1.14236 2.65869 0.770402
1.17635 2.65869 0.78174
3.32463 2.65869 0.821783
3.32463 2.65869 0.845181
3.32463 2.65869 0.87569
3.32463 2.65869 0.890497
3.32463 2.65869 0.88871
3.32463 2.65869 0.887467
3.32463 2.65869 0.888944
3.32463 2.65869 0.892304
3.32463 2.65869 0.894395
3.32463 2.65869 0.895907
3.32463 2.65869 0.899594
3.32463 2.65869 0.900632
3.32463 2.65869 0.900485
3.32463 2.65869 0.900075
3.32463 2.65869 0.90053
3.32463 2.65869 0.90165
3.32463 2.65869 0.902154
3.32463 2.65869 0.902799
3.32463 2.65869 0.904658
3.32463 2.65869 0.906736
3.32463 2.65869 0.908363
3.32463 2.65869 0.910467
3.32463 2.65869 0.913287
3.32463 2.65869 0.916309
3.32463 2.65869 0.910089
3.32463 2.65869 0.926673
3.32463 2.65869 0.937044
3.32463 2.65869 0.945466
3.32463 2.65869 0.946852
3.32463 2.65869 0.946532
3.32463 2.65869 0.952264
3.32463 2.65869 0.958436
3.32463 2.65869 0.959933
3.32463 2.65869 0.961934
3.32463 2.65869 0.938329
3.32463 2.65869 0.973029
3.32463 2.65869 0.99615
3.32463 2.65869 0.999786
3.32463 2.65869 0.999274
3.32463 2.65869 1.00202
3.32463 2.65869 1.00818
3.32463 2.65869 1.01413
3.32463 2.65869 1.01664
3.32463 2.65869 1.0184
3.32463 2.65869 1.02247
3.32463 2.65869 1.02762
3.32463 2.65869 1.03155
3.32463 2.65869 1.03419
3.32463 2.65869 1.03696
3.32463 2.65869 1.04082
3.32463 2.65869 1.04484
3.32463 2.65869 1.0478
3.32463 2.65869 1.05019
3.32463 2.65869 0.996582
3.32463 2.65869 0.918287
3.32463 2.65869 0.918287
3.32463 2.65869 0.918287
3.32463 2.65869 0.918287
3.32463 2.65869 0.918287
3.32463 2.65869 0.918287
3.32463 2.65869 0.918287
3.32463 2.65869 0.918287
3.32463 2.65869 0.918287
3.32463 2.65869 0.918287
3.32463 2.65869 0.918287
3.32463 2.65869 0.918287
3.32463 2.65869 0.918287
3.32463 2.65869 0.918287
3.32463 2.65869 0.918287
3.32463 2.65869 0.918287
3.32463 2.65869 0.918287
3.32463 2.65869 0.918287
3.32463 2.65869 0.918287
3.32463 2.65869 0.918287
3.32463 2.65869 0.918287
3.32463 2.65869 0.918287
3.32463 2.65869 0.918287
3.32463 2.65869 0.918287
3.32463 2.65869 0.918287
3.32463 2.65869 0.918287
3.32463 2.65869 0.918287
3.32463 2.65869 0.918287
3.32463 2.65869 0.918287
3.32463 2.65869 0.918287
3.32463 2.65869 0.918287
3.32463 2.65869 0.918287
3.32463 2.65869 0.918287
3.32463 2.65869 0.918287
3.32463 2.65869 0.918287
3.32463 2.65869 0.918287
3.32463 2.65869 0.918287
3.32463 2.65869 0.918287
3.32463 2.65869 0.918287
3.32463 2.65869 0.918287
3.32463 2.65869 0.918287
3.32463 2.65869 0.918287
3.32463 2.65869 0.918287
3.32463 2.65869 0.918287
3.32463 2.65869 0.918287
3.32463 2.65869 0.918287
3.32463 2.65869 0.918287
3.32463 2.65869 0.918287
3.32463 2.65869 0.918287
3.32463 2.65869 0.918287
3.32463 2.65869 0.918287
3.32463 2.65869 0.918287
3.32463 2.65869 0.918287
3.32463 2.65869 0.918287
3.32463 2.65869 0.918287
3.32463 2.65869 0.918287
3.32463 2.65869 0.918287
3.32463 2.65869 0.918287
3.32463 2.65869 0.918287
3.32463 2.65869 0.918287
3.32463 2.65869 0.918287
3.32463 2.65869 0.918287
3.32463 2.65869 0.918287
3.32463 2.65869 0.918287
3.32463 2.65869 0.918287
3.32463 2.65869 0.918287
3.32463 2.65869 0.918287
3.32463 2.65869 0.918287
3.32463 2.65869 0.918287
3.32463 2.65869 0.918287
3.32463 2.65869 0.918287
3.32463 2.65869 0.918287
3.32463 2.65869 0.917728
3.32463 2.65869 0.915446
3.32463 2.65869 0.913097
3.32463 2.65869 0.910692
3.32463 2.65869 0.910084
3.32463 2.65869 0.910084
3.32463 2.65869 0.910084
3.32463 2.65869 0.910084
3.32463 2.65869 0.910084
3.32463 2.65869 0.910084
3.32463 2.65869 0.910084
3.32463 2.65869 0.910084
3.32463 2.65869 0.910084
3.32463 2.65869 0.910084
3.32463 2.65869 0.910084
3.32463 2.65869 0.909625
3.32463 2.65869 0.909625
3.32463 2.65869 0.909625
3.32463 2.65869 0.909625
3.32463 2.65869 0.909625
3.32463 2.65869 0.909625
3.32463 2.65869 0.909625
3.32463 2.65869 0.909625
3.32463 2.65869 0.909625
3.32463 2.65869 0.909625
3.32463 2.65869 0.909622
3.32463 2.65869 0.909622
3.32463 2.65869 0.909622
3.32463 2.65869 0.909622
3.32463 2.65869 0.909622
3.32463 2.65869 0.909622
3.32463 2.65869 0.909622
3.32463 2.65869 0.909622
3.32463 2.65869 0.909622
3.32463 2.65869 0.909622
3.32463 2.65869 0.909622
3.32463 2.65869 0.909622
3.32463 2.65869 0.909622
3.32463 2.65869 0.909622
3.32463 2.65869 0.909622
3.32463 2.65869 0.909622
3.32463 2.65869 0.909622
3.32463 2.65869 0.909622
3.32463 2.65869 0.909622
3.32463 2.65869 0.909622
3.32463 2.65869 0.909622
3.32463 2.65869 0.909622
3.32463 2.65869 0.909622
3.32463 2.65869 0.909622
3.32463 2.65869 0.909622
3.32463 2.65869 0.909622
3.32463 2.65869 0.909622
3.32463 2.65869 0.909622
3.32463 2.65869 0.909622
3.32463 2.65869 0.909622
3.32463 2.65869 0.909622
3.32463 2.65869 0.909622
3.32463 2.65869 0.909622
3.32463 2.65869 0.909622
3.32463 2.65869 0.909622
3.32463 2.65869 0.909622
3.32463 2.65869 0.909622
3.32463 2.65869 0.909622
3.32463 2.65869 0.909622
3.32463 2.65869 0.909622
3.32463 2.65869 0.909622
3.32463 2.65869 0.909622
3.32463 2.65869 0.909622
3.32463 2.65869 0.909622
3.32463 2.65869 0.909622
3.32463 2.65869 0.909622
3.32463 2.65869 0.909622
3.32463 2.65869 0.909622
3.32463 2.65869 0.909622
3.32463 2.65869 0.909622
3.32463 2.65869 0.909622
3.32463 2.65869 0.909622
3.32463 2.65869 0.909622
3.32463 2.65869 0.909622
3.32463 2.65869 0.909622
3.32463 2.65869 0.909622
3.32463 2.65869 0.909622
3.32463 2.65869 0.909622
3.32463 2.65869 0.909622
3.32463 2.65869 0.909622
3.32463 2.65869 0.909622
3.32463 2.65869 0.909622
3.32463 2.65869 0.909622
3.32463 2.65869 0.909622
3.32463 2.65869 0.909622
3.32463 2.65869 0.909622
3.32463 2.65869 0.909622
3.32463 2.65869 0.909622
3.32463 2.65869 0.909622
3.32463 2.65869 0.909622
3.32463 2.65869 0.909622
3.32463 2.65869 0.909622
3.32463 2.65869 0.909622
3.32463 2.65869 0.909622
3.32463 2.65869 0.909622
3.32463 2.65869 0.909622
3.32463 2.65869 0.909622
3.32463 2.65869 0.909622
3.32463 2.65869 0.909622
3.32463 2.65869 0.909622
3.32463 2.65869 0.909622
3.32463 2.65869 0.909622
3.32463 2.65869 0.909622
3.32463 2.65869 0.909622
3.32463 2.65869 0.909622
3.32463 2.65869 0.909622
3.32463 2.65869 0.909622
3.32463 2.65869 0.909622
3.32463 2.65869 0.909622
3.32463 2.65869 0.909622
3.32463 2.65869 0.909622
3.32463 2.65869 0.909622
3.32463 2.65869 0.909622
3.32463 2.65869 0.909622
3.32463 2.65869 0.909622
3.32463 2.65869 0.909622
3.32463 2.65869 0.909622
3.32463 2.65869 0.909622
3.32463 2.65869 0.909622
3.32463 2.65869 0.909622
3.32463 2.65869 0.909622
3.32463 2.65869 0.909622
3.32463 2.65869 0.909622
3.32463 2.65869 0.909622
3.32463 2.65869 0.909622
3.32463 2.65869 0.909622
3.32463 2.65869 0.909622
3.32463 2.65869 0.909622
3.32463 2.65869 0.909622
3.32463 2.65869 0.909622
3.32463 2.65869 0.909622
3.32463 2.65869 0.909622
3.32463 2.65869 0.909622
3.32463 2.65869 0.909622
3.32463 2.65869 0.909622
3.32463 2.65869 0.909622
3.32463 2.65869 0.909622
3.32463 2.65869 0.909622
3.32463 2.65869 0.909622
3.32463 2.65869 0.909622
3.32463 2.65869 0.909622
3.32463 2.65869 0.909622
3.32463 2.65869 0.909622
3.32463 2.65869 0.909622
3.32463 2.65869 0.909622
3.32463 2.65869 0.909622
3.32463 2.65869 0.909622
3.32463 2.65869 0.909622
3.32463 2.65869 0.909622
3.32463 2.65869 0.909622
3.32463 2.65869 0.909622
3.32463 2.65869 0.909622
3.32463 2.65869 0.909622
3.32463 2.65869 0.909622
3.32463 2.65869 0.909622
3.32463 2.65869 0.909622
3.32463 2.65869 0.909622
3.32463 2.65869 0.909622
3.32463 2.65869 0.909622
3.32463 2.65869 0.909622
3.32463 2.65869 0.909622
3.32463 2.65869 0.909622
3.32463 2.65869 0.909622
3.32463 2.65869 0.909622
3.32463 2.65869 0.909622
3.32463 2.65869 0.909622
3.32463 2.65869 0.909622
3.32463 2.65869 0.909622
3.32463 2.65869 0.909622
3.32463 2.65869 0.909622
3.32463 2.65869 0.909622
3.32463 2.65869 0.909622
3.32463 2.65869 0.909622
3.32463 2.65869 0.909622
3.32463 2.65869 0.909622
3.32463 2.65869 0.909622
3.32463 2.65869 0.909622
3.32463 2.65869 0.909622
3.32463 2.65869 0.909622
3.32463 2.65869 0.909622
3.32463 2.65869 0.909622
3.32463 2.65869 0.909622
3.32463 2.65869 0.909622
3.32463 2.65869 0.909622
3.32463 2.65869 0.909622
3.32463 2.65869 0.909622
3.32463 2.65869 0.909622
3.32463 2.65869 0.909622
3.32463 2.65869 0.909622
3.32463 2.65869 0.909622
3.32463 2.65869 0.909622
3.32463 2.65869 0.909622
3.32463 2.65869 0.909622
3.32463 2.65869 0.909622
3.32463 2.65869 0.909622
3.32463 2.65869 0.909622
3.32463 2.65869 0.909622
3.32463 2.65869 0.909622
3.32463 2.65869 0.909622
3.32463 2.65869 0.909622
3.32463 2.65869 0.909622
3.32463 2.65869 0.909622
3.32463 2.65869 0.909622
3.32463 2.65869 0.909622
3.32463 2.65869 0.909622
3.32463 2.65869 0.909622
3.32463 2.65869 0.909622
3.32463 2.65869 0.909622
3.32463 2.65869 0.909622
3.32463 2.65869 0.909622
3.32463 2.65869 0.909622
3.32463 2.65869 0.909622
3.32463 2.65869 0.909622
3.32463 2.65869 0.909622
3.32463 2.65869 0.909622
3.32463 2.65869 0.909622
3.32463 2.65869 0.909622
3.32463 2.65869 0.909622
3.32463 2.65869 0.909622
3.32463 2.65869 0.909622
3.32463 2.65869 0.909622
3.32463 2.65869 0.909622
3.32463 2.65869 0.909622
3.32463 2.65869 0.909622
3.32463 2.65869 0.909622
3.32463 2.65869 0.909622
3.32463 2.65869 0.909622
3.32463 2.65869 0.909622
3.32463 2.65869 0.909622
3.32463 2.65869 0.909622
3.32463 2.65869 0.909622
3.32463 2.65869 0.909622
3.32463 2.65869 0.909622
3.32463 2.65869 0.909622
3.32463 2.65869 0.909622
3.32463 2.65869 0.909622
3.32463 2.65869 0.909622
3.32463 2.65869 0.909622
3.32463 2.65869 0.909622
3.32463 2.65869 0.909622
3.32463 2.65869 0.909622
3.32463 2.65869 0.909622
3.32463 2.65869 0.909622
3.32463 2.65869 0.909622
3.32463 2.65869 0.909622
3.32463 2.65869 0.909622
3.32463 2.65869 0.909622
3.32463 2.65869 0.909622
3.32463 2.65869 0.909622
3.32463 2.65869 0.909622
3.32463 2.65869 0.909622
3.32463 2.65869 0.909622
3.32463 2.65869 0.909622
3.32463 2.65869 0.909622
3.32463 2.65869 0.909622
3.32463 2.65869 0.909622
3.32463 2.65869 0.909622
3.32463 2.65869 0.909622
3.32463 2.65869 0.909622
3.32463 2.65869 0.909622
3.32463 2.65869 0.909622
3.32463 2.65869 0.909622
3.32463 2.65869 0.909622
3.32463 2.65869 0.909622
3.32463 2.65869 0.909622
3.32463 2.65869 0.909622
3.32463 2.65869 0.909622
3.32463 2.65869 0.909622
3.32463 2.65869 0.909622
3.32463 2.65869 0.909622
3.32463 2.65869 0.909622
3.32463 2.65869 0.909622
3.32463 2.65869 0.909622
3.32463 2.65869 0.909622
3.32463 2.65869 0.909622
3.32463 2.65869 0.909622
3.32463 2.65869 0.909622
3.32463 2.65869 0.909622
3.32463 2.65869 0.909622
3.32463 2.65869 0.909622
3.32463 2.65869 0.909622
3.32463 2.65869 0.909622
3.32463 2.65869 0.909622
3.32463 2.65869 0.909622
3.32463 2.65869 0.909622
3.32463 2.65869 0.909622
3.32463 2.65869 0.909622
3.32463 2.65869 0.909622
3.32463 2.65869 0.909622
3.32463 2.65869 0.909622
3.32463 2.65869 0.909622
3.32463 2.65869 0.909622
3.32463 2.65869 0.909622
3.32463 2.65869 0.909622
3.32463 2.65869 0.909622
3.32463 2.65869 0.909622
3.32463 2.65869 0.909622
3.32463 2.65869 0.909622
3.32463 2.65869 0.909622
3.32463 2.65869 0.909622
3.32463 2.65869 0.909622
3.32463 2.65869 0.909622
3.32463 2.65869 0.909622
3.32463 2.65869 0.909622
3.32463 2.65869 0.909622
3.32463 2.65869 0.909622
3.32463 2.65869 0.909622
3.32463 2.65869 0.909622
3.32463 2.65869 0.909622
3.32463 2.65869 0.909622
3.32463 2.65869 0.909622
3.32463 2.65869 0.909622
3.32463 2.65869 0.909622
3.32463 2.65869 0.909622
3.32463 2.65869 0.909622
3.32463 2.65869 0.909622
3.32463 2.65869 0.909622
3.32463 2.65869 0.909622
3.32463 2.65869 0.909622
3.32463 2.65869 0.909622
3.32463 2.65869 0.909622
3.32463 2.65869 0.909622
3.32463 2.65869 0.909622
3.32463 2.65869 0.909622
3.32463 2.65869 0.909622
3.32463 2.65869 0.909622
3.32463 2.65869 0.909622
3.32463 2.65869 0.909622
3.32463 2.65869 0.909622
3.32463 2.65869 0.909622
3.32463 2.65869 0.909622
3.32463 2.65869 0.909622
3.32463 2.65869 0.909622
3.32463 2.65869 0.909622
3.32463 2.65869 0.909622
3.32463 2.65869 0.909622
3.32463 2.65869 0.909622
3.32463 2.65869 0.909622
3.32463 2.65869 0.909622
3.32463 2.65869 0.909622
3.32463 2.65869 0.909622
3.32463 2.65869 0.909622
3.32463 2.65869 0.909622
3.32463 2.65869 0.909622
3.32463 2.65869 0.909622
3.32463 2.65869 0.909622
3.32463 2.65869 0.909622
3.32463 2.65869 0.909622
3.32463 2.65869 0.909622
3.32463 2.65869 0.909622
3.32463 2.65869 0.909622
3.32463 2.65869 0.909622
3.32463 2.65869 0.909622
3.32463 2.65869 0.909622
3.32463 2.65869 0.909622
3.32463 2.65869 0.909622
3.32463 2.65869 0.909622
3.32463 2.65869 0.909622
3.32463 2.65869 0.909622
3.32463 2.65869 0.909622
3.32463 2.65869 0.909622
3.32463 2.65869 0.909622
3.32463 2.65869 0.909622
3.32463 2.65869 0.909622
3.32463 2.65869 0.909622
3.32463 2.65869 0.909622
3.32463 2.65869 0.909622
3.32463 2.65869 0.909622
3.32463 2.65869 0.909622
3.32463 2.65869 0.909622
3.32463 2.65869 0.909622
3.32463 2.65869 0.909622
3.32463 2.65869 0.909622
3.32463 2.65869 0.909622
3.32463 2.65869 0.909622
3.32463 2.65869 0.909622
3.32463 2.65869 0.909622
3.32463 2.65869 0.909621
3.32463 2.65869 0.909621
3.32463 2.65869 0.909621
3.32463 2.65869 0.909621
3.32463 2.65869 0.909621
3.32463 2.65869 0.909621
3.32463 2.65869 0.909621
3.32463 2.65869 0.909621
3.32463 2.65869 0.909621
3.32463 2.65869 0.909621
3.32463 2.65869 0.909621
3.32463 2.65869 0.909621
3.32463 2.65869 0.909621
3.32463 2.65869 0.909621
3.32463 2.65869 0.909621
3.32463 2.65869 0.909621
3.32463 2.65869 0.909621
3.32463 2.65869 0.909621
3.32463 2.65869 0.909621
3.32463 2.65869 0.909621
3.32463 2.65869 0.909621
3.32463 2.65869 0.909621
3.32463 2.65869 0.909621
3.32463 2.65869 0.909621
3.32463 2.65869 0.909621
3.32463 2.65869 0.909621
3.32463 2.65869 0.909621
3.32463 2.65869 0.909621
3.32463 2.65869 0.909621
3.32463 2.65869 0.909621
3.32463 2.65869 0.909621
3.32463 2.65869 0.909621
3.32463 2.65869 0.909621
3.32463 2.65869 0.909621
3.32463 2.65869 0.909621
3.32463 2.65869 0.909621
3.32463 2.65869 0.909621
3.32463 2.65869 0.909621
3.32463 2.65869 0.909621
3.32463 2.65869 0.909621
3.32463 2.65869 0.909621
3.32463 2.65869 0.909621
3.32463 2.65869 0.909621
3.32463 2.65869 0.909621
3.32463 2.65869 0.909621
3.32463 2.65869 0.909621
3.32463 2.65869 0.909621
3.32463 2.65869 0.909621
3.32463 2.65869 0.909621
3.32463 2.65869 0.909621
3.32463 2.65869 0.909621
3.32463 2.65869 0.909621
3.32463 2.65869 0.909621
3.32463 2.65869 0.909621
3.32463 2.65869 0.909621
3.32463 2.65869 0.909621
3.32463 2.65869 0.909621
3.32463 2.65869 0.909621
3.32463 2.65869 0.909621
3.32463 2.65869 0.909621
3.32463 2.65869 0.909621
3.32463 2.65869 0.909621
3.32463 2.65869 0.909621
3.32463 2.65869 0.909621
3.32463 2.65869 0.909621
3.32463 2.65869 0.909621
3.32463 2.65869 0.909621
3.32463 2.65869 0.909621
3.32463 2.65869 0.909621
3.32463 2.65869 0.909621
3.32463 2.65869 0.909621
3.32463 2.65869 0.909621
3.32463 2.65869 0.909621
3.32463 2.65869 0.909621
3.32463 2.65869 0.909621
3.32463 2.65869 0.909621
3.32463 2.65869 0.909621
3.32463 2.65869 0.909621
3.32463 2.65869 0.909621
3.32463 2.65869 0.909621
3.32463 2.65869 0.909621
3.32463 2.65869 0.909621
3.32463 2.65869 0.909621
3.32463 2.65869 0.909621
3.32463 2.65869 0.909621
3.32463 2.65869 0.909621
3.32463 2.65869 0.909621
3.32463 2.65869 0.909621
3.32463 2.65869 0.909621
3.32463 2.65869 0.909621
3.32463 2.65869 0.909621
3.32463 2.65869 0.909621
3.32463 2.65869 0.909621
3.32463 2.65869 0.909621
3.32463 2.65869 0.909621
3.32463 2.65869 0.909621
3.32463 2.65869 0.909621
3.32463 2.65869 0.909621
3.32463 2.65869 0.909621
3.32463 2.65869 0.909621
3.32463 2.65869 0.909621
3.32463 2.65869 0.909621
3.32463 2.65869 0.909621
3.32463 2.65869 0.909621
3.32463 2.65869 0.909621
3.32463 2.65869 0.909621
3.32463 2.65869 0.909621
3.32463 2.65869 0.909621
3.32463 2.65869 0.909621
3.32463 2.65869 0.909621
3.32463 2.65869 0.909621
3.32463 2.65869 0.909621
3.32463 2.65869 0.909621
3.32463 2.65869 0.909621
3.32463 2.65869 0.909621
3.32463 2.65869 0.909621
3.32463 2.65869 0.909621
3.32463 2.65869 0.909621
3.32463 2.65869 0.909621
3.32463 2.65869 0.909621
3.32463 2.65869 0.909621
3.32463 2.65869 0.909621
3.32463 2.65869 0.909621
3.32463 2.65869 0.909621
3.32463 2.65869 0.909621
3.32463 2.65869 0.909621
3.32463 2.65869 0.909621
3.32463 2.65869 0.909621
3.32463 2.65869 0.909621
3.32463 2.65869 0.909621
3.32463 2.65869 0.909621
3.32463 2.65869 0.909621
3.32463 2.65869 0.909621
3.32463 2.65869 0.909621
3.32463 2.65869 0.909621
3.32463 2.65869 0.909621
3.32463 2.65869 0.909621
3.32463 2.65869 0.909621
3.32463 2.65869 0.909621
3.32463 2.65869 0.909621
3.32463 2.65869 0.909621
3.32463 2.65869 0.909621
3.32463 2.65869 0.909621
3.32463 2.65869 0.909621
3.32463 2.65869 0.909621
3.32463 2.65869 0.909621
3.32463 2.65869 0.909621
3.32463 2.65869 0.909621
3.32463 2.65869 0.909621
3.32463 2.65869 0.909621
3.32463 2.65869 0.909621
3.32463 2.65869 0.909621
3.32463 2.65869 0.909621
3.32463 2.65869 0.909621
3.32463 2.65869 0.909621
3.32463 2.65869 0.909621
3.32463 2.65869 0.909621
3.32463 2.65869 0.909621
3.32463 2.65869 0.909621
3.32463 2.65869 0.909621
3.32463 2.65869 0.909621
3.32463 2.65869 0.909621
3.32463 2.65869 0.909621
3.32463 2.65869 0.909621
3.32463 2.65869 0.909621
3.32463 2.65869 0.909621
3.32463 2.65869 0.909621
3.32463 2.65869 0.909621
3.32463 2.65869 0.909621
3.32463 2.65869 0.909621
3.32463 2.65869 0.909621
3.32463 2.65869 0.909621
3.32463 2.65869 0.909621
3.32463 2.65869 0.909621
3.32463 2.65869 0.909621
3.32463 2.65869 0.909621
3.32463 2.65869 0.909621
3.32463 2.65869 0.909621
3.32463 2.65869 0.909621
3.32463 2.65869 0.909621
3.32463 2.65869 0.909621
3.32463 2.65869 0.909621
3.32463 2.65869 0.909621
3.32463 2.65869 0.909621
3.32463 2.65869 0.909621
3.32463 2.65869 0.909621
3.32463 2.65869 0.909621
3.32463 2.65869 0.909621
3.32463 2.65869 0.909621
3.32463 2.65869 0.909621
3.32463 2.65869 0.909621
3.32463 2.65869 0.909621
3.32463 2.65869 0.909621
3.32463 2.65869 0.909621
3.32463 2.65869 0.909621
3.32463 2.65869 0.909621
3.32463 2.65869 0.909621
3.32463 2.65869 0.909621
3.32463 2.65869 0.909621
3.32463 2.65869 0.909621
3.32463 2.65869 0.909621
3.32463 2.65869 0.909621
3.32463 2.65869 0.909621
3.32463 2.65869 0.909621
3.32463 2.65869 0.909621
3.32463 2.65869 0.909621
3.32463 2.65869 0.909621
3.32463 2.65869 0.909621
3.32463 2.65869 0.909621
3.32463 2.65869 0.909621
3.32463 2.65869 0.909621
3.32463 2.65869 0.909621
3.32463 2.65869 0.909621
3.32463 2.65869 0.909621
3.32463 2.65869 0.909621
3.32463 2.65869 0.909621
3.32463 2.65869 0.909621
3.32463 2.65869 0.909621
3.32463 2.65869 0.909621
3.32463 2.65869 0.909621
3.32463 2.65869 0.909621
3.32463 2.65869 0.909621
3.32463 2.65869 0.909621
3.32463 2.65869 0.909621
3.32463 2.65869 0.909621
3.32463 2.65869 0.909621
3.32463 2.65869 0.909621
3.32463 2.65869 0.909621
3.32463 2.65869 0.909621
3.32463 2.65869 0.909621
3.32463 2.65869 0.909621
3.32463 2.65869 0.909621
3.32463 2.65869 0.909621
3.32463 2.65869 0.909621
3.32463 2.65869 0.909621
3.32463 2.65869 0.909621
3.32463 2.65869 0.909621
3.32463 2.65869 0.909621
3.32463 2.65869 0.909621
3.32463 2.65869 0.909621
3.32463 2.65869 0.909621
3.32463 2.65869 0.909621
3.32463 2.65869 0.909621
3.32463 2.65869 0.909621
3.32463 2.65869 0.909621
3.32463 2.65869 0.909621
3.32463 2.65869 0.909621
3.32463 2.65869 0.909621
3.32463 2.65869 0.909621
3.32463 2.65869 0.909621
3.32463 2.65869 0.909621
3.32463 2.65869 0.909621
3.32463 2.65869 0.909621
3.32463 2.65869 0.909621
3.32463 2.65869 0.909621
3.32463 2.65869 0.909621
3.32463 2.65869 0.909621
3.32463 2.65869 0.909621
3.32463 2.65869 0.909621
3.32463 2.65869 0.909621
3.32463 2.65869 0.909621
3.32463 2.65869 0.909621
3.32463 2.65869 0.909621
3.32463 2.65869 0.909621
3.32463 2.65869 0.909621
3.32463 2.65869 0.909621
3.32463 2.65869 0.909621
3.32463 2.65869 0.909621
3.32463 2.65869 0.909621
3.32463 2.65869 0.909621
3.32463 2.65869 0.909621
3.32463 2.65869 0.909621
3.32463 2.65869 0.909621
3.32463 2.65869 0.909621
3.32463 2.65869 0.909621
3.32463 2.65869 0.909621
3.32463 2.65869 0.909621
3.32463 2.65869 0.909621
3.32463 2.65869 0.909621
3.32463 2.65869 0.909621
3.32463 2.65869 0.909621
3.32463 2.65869 0.909621
3.32463 2.65869 0.909621
3.32463 2.65869 0.909621
3.32463 2.65869 0.909621
3.32463 2.65869 0.909621
3.32463 2.65869 0.909621
3.32463 2.65869 0.909621
3.32463 2.65869 0.909621
3.32463 2.65869 0.909621
3.32463 2.65869 0.909621
3.32463 2.65869 0.909621
3.32463 2.65869 0.909621
3.32463 2.65869 0.909621
3.32463 2.65869 0.909621
3.32463 2.65869 0.909621
3.32463 2.65869 0.909621
3.32463 2.65869 0.909621
3.32463 2.65869 0.909621
3.32463 2.65869 0.909621
3.32463 2.65869 0.909621
3.32463 2.65869 0.909621
3.32463 2.65869 0.909621
3.32463 2.65869 0.909621
3.32463 2.65869 0.909621
3.32463 2.65869 0.909621
3.32463 2.65869 0.909621
3.32463 2.65869 0.909621
3.32463 2.65869 0.909621
3.32463 2.65869 0.909621
3.32463 2.65869 0.909621
3.32463 2.65869 0.909621
3.32463 2.65869 0.909621
3.32463 2.65869 0.909621
3.32463 2.65869 0.909621
3.32463 2.65869 0.909621
3.32463 2.65869 0.909621
3.32463 2.65869 0.909621
3.32463 2.65869 0.909621
3.32463 2.65869 0.909621
3.32463 2.65869 0.909621
3.32463 2.65869 0.909621
3.32463 2.65869 0.909621
3.32463 2.65869 0.909621
3.32463 2.65869 0.909621
3.32463 2.65869 0.909621
3.32463 2.65869 0.909621
3.32463 2.65869 0.909621
3.32463 2.65869 0.909621
3.32463 2.65869 0.909621
3.32463 2.65869 0.909621
3.32463 2.65869 0.909621
3.32463 2.65869 0.909621
3.32463 2.65869 0.909621
3.32463 2.65869 0.909621
3.32463 2.65869 0.909621
3.32463 2.65869 0.909621
3.32463 2.65869 0.909621
3.32463 2.65869 0.909621
3.32463 2.65869 0.909621
3.32463 2.65869 0.909621
3.32463 2.65869 0.909621
3.32463 2.65869 0.909621
3.32463 2.65869 0.909621
3.32463 2.65869 0.909621
3.32463 2.65869 0.909621
3.32463 2.65869 0.909621
3.32463 2.65869 0.909621
3.32463 2.65869 0.909621
3.32463 2.65869 0.909621
3.32463 2.65869 0.909621
3.32463 2.65869 0.909621
3.32463 2.65869 0.909621
3.32463 2.65869 0.909621
3.32463 2.65869 0.909621
3.32463 2.65869 0.909621
3.32463 2.65869 0.909621
3.32463 2.65869 0.909621
3.32463 2.65869 0.909621
3.32463 2.65869 0.909621
3.32463 2.65869 0.909621
3.32463 2.65869 0.909621
3.32463 2.65869 0.909621
3.32463 2.65869 0.909621
3.32463 2.65869 0.909621
3.32463 2.65869 0.909621
3.32463 2.65869 0.909621
3.32463 2.65869 0.909621
3.32463 2.65869 0.909621
3.32463 2.65869 0.909621
3.32463 2.65869 0.909621
3.32463 2.65869 0.909621
3.32463 2.65869 0.909621
3.32463 2.65869 0.909621
3.32463 2.65869 0.909621
3.32463 2.65869 0.909621
3.32463 2.65869 0.909621
3.32463 2.65869 0.909621
3.32463 2.65869 0.909621
3.32463 2.65869 0.909621
3.32463 2.65869 0.909621
3.32463 2.65869 0.909621
3.32463 2.65869 0.909621
3.32463 2.65869 0.909621
3.32463 2.65869 0.909621
3.32463 2.65869 0.909621
3.32463 2.65869 0.909621
3.32463 2.65869 0.909621
3.32463 2.65869 0.909621
3.32463 2.65869 0.909621
3.32463 2.65869 0.909621
3.32463 2.65869 0.909621
3.32463 2.65869 0.909621
3.32463 2.65869 0.909621
3.32463 2.65869 0.909621
3.32463 2.65869 0.909621
3.32463 2.65869 0.909621
3.32463 2.65869 0.909621
3.32463 2.65869 0.909621
3.32463 2.65869 0.909621
3.32463 2.65869 0.909621
3.32463 2.65869 0.909621
3.32463 2.65869 0.909621
3.32463 2.65869 0.909621
3.32463 2.65869 0.909621
3.32463 2.65869 0.909621
3.32463 2.65869 0.909621
3.32463 2.65869 0.909621
3.32463 2.65869 0.909621
3.32463 2.65869 0.909621
3.32463 2.65869 0.909621
3.32463 2.65869 0.909621
3.32463 2.65869 0.909621
3.32463 2.65869 0.909621
3.32463 2.65869 0.909621
3.32463 2.65869 0.909621
3.32463 2.65869 0.909621
3.32463 2.65869 0.909621
3.32463 2.65869 0.909621
3.32463 2.65869 0.909621
3.32463 2.65869 0.909621
3.32463 2.65869 0.909621
3.32463 2.65869 0.909621
3.32463 2.65869 0.909621
3.32463 2.65869 0.909621
3.32463 2.65869 0.909621
3.32463 2.65869 0.909621
3.32463 2.65869 0.909621
3.32463 2.65869 0.909621
3.32463 2.65869 0.909621
3.32463 2.65869 0.909621
3.32463 2.65869 0.909621
3.32463 2.65869 0.909621
3.32463 2.65869 0.909621
3.32463 2.65869 0.909621
3.32463 2.65869 0.909621
3.32463 2.65869 0.909621
3.32463 2.65869 0.909621
3.32463 2.65869 0.909621
3.32463 2.65869 0.909621
3.32463 2.65869 0.909621
3.32463 2.65869 0.909621
3.32463 2.65869 0.909621
3.32463 2.65869 0.909621
3.32463 2.65869 0.909621
3.32463 2.65869 0.909621
3.32463 2.65869 0.909621
3.32463 2.65869 0.909621
3.32463 2.65869 0.909621
3.32463 2.65869 0.909621
3.32463 2.65869 0.909621
3.32463 2.65869 0.909621
3.32463 2.65869 0.909621
3.32463 2.65869 0.909621
3.32463 2.65869 0.909621
3.32463 2.65869 0.909621
3.32463 2.65869 0.909621
3.32463 2.65869 0.909621
3.32463 2.65869 0.909621
3.32463 2.65869 0.909621
3.32463 2.65869 0.909621
3.32463 2.65869 0.909621
3.32463 2.65869 0.909621
3.32463 2.65869 0.909621
3.32463 2.65869 0.909621
3.32463 2.65869 0.909621
3.32463 2.65869 0.909621
3.32463 2.65869 0.909621
3.32463 2.65869 0.909621
3.32463 2.65869 0.909621
3.32463 2.65869 0.909621
3.32463 2.65869 0.909621
3.32463 2.65869 0.909621
3.32463 2.65869 0.909621
3.32463 2.65869 0.909621
3.32463 2.65869 0.909621
3.32463 2.65869 0.909621
3.32463 2.65869 0.909621
3.32463 2.65869 0.909621
3.32463 2.65869 0.909621
3.32463 2.65869 0.909621
3.32463 2.65869 0.909621
3.32463 2.65869 0.909621
3.32463 2.65869 0.909621
3.32463 2.65869 0.909621
3.32463 2.65869 0.909621
3.32463 2.65869 0.909621
3.32463 2.65869 0.909621
3.32463 2.65869 0.909621
3.32463 2.65869 0.909621
3.32463 2.65869 0.909621
3.32463 2.65869 0.909621
3.32463 2.65869 0.909621
3.32463 2.65869 0.909621
3.32463 2.65869 0.909621
3.32463 2.65869 0.909621
3.32463 2.65869 0.909621
3.32463 2.65869 0.909621
3.32463 2.65869 0.909621
3.32463 2.65869 0.909621
3.32463 2.65869 0.909621
3.32463 2.65869 0.909621
3.32463 2.65869 0.909621
3.32463 2.65869 0.909621
3.32463 2.65869 0.909621
3.32463 2.65869 0.909621
3.32463 2.65869 0.909621
3.32463 2.65869 0.909621
3.32463 2.65869 0.909621
3.32463 2.65869 0.909621
3.32463 2.65869 0.909621
3.32463 2.65869 0.909621
3.32463 2.65869 0.909621
3.32463 2.65869 0.909621
3.32463 2.65869 0.909621
3.32463 2.65869 0.909621
3.32463 2.65869 0.909621
3.32463 2.65869 0.909621
3.32463 2.65869 0.909621
3.32463 2.65869 0.909621
3.32463 2.65869 0.909621
3.32463 2.65869 0.909621
3.32463 2.65869 0.909621
3.32463 2.65869 0.909621
3.32463 2.65869 0.909621
3.32463 2.65869 0.909621
3.32463 2.65869 0.909621
3.32463 2.65869 0.909621
3.32463 2.65869 0.909621
3.32463 2.65869 0.909621
3.32463 2.65869 0.909621
3.32463 2.65869 0.909621
3.32463 2.65869 0.909621
3.32463 2.65869 0.909621
3.32463 2.65869 0.909621
3.32463 2.65869 0.909621
3.32463 2.65869 0.909621
3.32463 2.65869 0.909621
3.32463 2.65869 0.909621
3.32463 2.65869 0.909621
3.32463 2.65869 0.909621
3.32463 2.65869 0.909621
3.32463 2.65869 0.909621
3.32463 2.65869 0.909621
3.32463 2.65869 0.909621
3.32463 2.65869 0.909621
3.32463 2.65869 0.909621
3.32463 2.65869 0.909621
3.32463 2.65869 0.909621
3.32463 2.65869 0.909621
3.32463 2.65869 0.909621
3.32463 2.65869 0.909621
3.32463 2.65869 0.909621
3.32463 2.65869 0.909621
3.32463 2.65869 0.909621
3.32463 2.65869 0.909621
3.32463 2.65869 0.909621
3.32463 2.65869 0.909621
3.32463 2.65869 0.909621
3.32463 2.65869 0.909621
3.32463 2.65869 0.909621
3.32463 2.65869 0.909621
3.32463 2.65869 0.909621
3.32463 2.65869 0.909621
3.32463 2.65869 0.909621
3.32463 2.65869 0.909621
3.32463 2.65869 0.909621
3.32463 2.65869 0.909621
3.32463 2.65869 0.909621
3.32463 2.65869 0.909621
3.32463 2.65869 0.909621
3.32463 2.65869 0.909621
3.32463 2.65869 0.909621
3.32463 2.65869 0.909621
3.32463 2.65869 0.909621
3.32463 2.65869 0.909621
3.32463 2.65869 0.909621
3.32463 2.65869 0.909621
3.32463 2.65869 0.909621
3.32463 2.65869 0.909621
3.32463 2.65869 0.909621
3.32463 2.65869 0.909621
3.32463 2.65869 0.909621
3.32463 2.65869 0.909621
3.32463 2.65869 0.909621
3.32463 2.65869 0.909621
3.32463 2.65869 0.909621
3.32463 2.65869 0.909621
3.32463 2.65869 0.909621
3.32463 2.65869 0.909621
3.32463 2.65869 0.909621
3.32463 2.65869 0.909621
3.32463 2.65869 0.909621
3.32463 2.65869 0.909621
3.32463 2.65869 0.909621
3.32463 2.65869 0.909621
3.32463 2.65869 0.909621
3.32463 2.65869 0.909621
3.32463 2.65869 0.909621
3.32463 2.65869 0.909621
3.32463 2.65869 0.909621
3.32463 2.65869 0.909621
3.32463 2.65869 0.909621
3.32463 2.65869 0.909621
3.32463 2.65869 0.909621
3.32463 2.65869 0.909621
3.32463 2.65869 0.909621
3.32463 2.65869 0.909621
3.32463 2.65869 0.909621
3.32463 2.65869 0.909621
3.32463 2.65869 0.909621
3.32463 2.65869 0.909621
3.32463 2.65869 0.909621
3.32463 2.65869 0.909621
3.32463 2.65869 0.909621
3.32463 2.65869 0.909621
3.32463 2.65869 0.909621
3.32463 2.65869 0.909621
3.32463 2.65869 0.909621
3.32463 2.65869 0.909621
3.32463 2.65869 0.909621
3.32463 2.65869 0.909621
3.32463 2.65869 0.909621
3.32463 2.65869 0.909621
3.32463 2.65869 0.909621
3.32463 2.65869 0.909621
3.32463 2.65869 0.909621
3.32463 2.65869 0.909621
3.32463 2.65869 0.909621
3.32463 2.65869 0.909621
3.32463 2.65869 0.909621
3.32463 2.65869 0.909621
3.32463 2.65869 0.909621
3.32463 2.65869 0.909621
3.32463 2.65869 0.909621
3.32463 2.65869 0.909621
3.32463 2.65869 0.909621
3.32463 2.65869 0.909621
3.32463 2.65869 0.909621
3.32463 2.65869 0.909621
3.32463 2.65869 0.909621
3.32463 2.65869 0.909621
3.32463 2.65869 0.909621
3.32463 2.65869 0.909621
3.32463 2.65869 0.909621
3.32463 2.65869 0.909621
3.32463 2.65869 0.909621
3.32463 2.65869 0.909621
3.32463 2.65869 0.909621
3.32463 2.65869 0.909621
3.32463 2.65869 0.909621
3.32463 2.65869 0.909621
3.32463 2.65869 0.909621
3.32463 2.65869 0.909621
3.32463 2.65869 0.909621
3.32463 2.65869 0.909621
3.32463 2.65869 0.909621
3.32463 2.65869 0.909621
3.32463 2.65869 0.909621
3.32463 2.65869 0.909621
3.32463 2.65869 0.909621
3.32463 2.65869 0.909621
3.32463 2.65869 0.909621
3.32463 2.65869 0.909621
3.32463 2.65869 0.909621
3.32463 2.65869 0.909621
3.32463 2.65869 0.909621
3.32463 2.65869 0.909621
3.32463 2.65869 0.909621
3.32463 2.65869 0.909621
3.32463 2.65869 0.909621
3.32463 2.65869 0.909621
3.32463 2.65869 0.909621
3.32463 2.65869 0.909621
3.32463 2.65869 0.909621
3.32463 2.65869 0.909621
3.32463 2.65869 0.909621
3.32463 2.65869 0.909621
3.32463 2.65869 0.909621
3.32463 2.65869 0.909621
3.32463 2.65869 0.909621
3.32463 2.65869 0.909621
3.32463 2.65869 0.909621
3.32463 2.65869 0.909621
3.32463 2.65869 0.909621
3.32463 2.65869 0.909621
3.32463 2.65869 0.909621
3.32463 2.65869 0.909621
3.32463 2.65869 0.909621
3.32463 2.65869 0.909621
3.32463 2.65869 0.909621
3.32463 2.65869 0.909621
3.32463 2.65869 0.909621
3.32463 2.65869 0.909621
3.32463 2.65869 0.909621
3.32463 2.65869 0.909621
3.32463 2.65869 0.909621
3.32463 2.65869 0.909621
3.32463 2.65869 0.909621
3.32463 2.65869 0.909621
3.32463 2.65869 0.909621
3.32463 2.65869 0.909621
3.32463 2.65869 0.909621
3.32463 2.65869 0.909621
3.32463 2.65869 0.909621
3.32463 2.65869 0.909621
3.32463 2.65869 0.909621
3.32463 2.65869 0.909621
3.32463 2.65869 0.909621
3.32463 2.65869 0.909621
3.32463 2.65869 0.909621
3.32463 2.65869 0.909621
3.32463 2.65869 0.909621
3.32463 2.65869 0.909621
3.32463 2.65869 0.909621
3.32463 2.65869 0.909621
3.32463 2.65869 0.909621
3.32463 2.65869 0.909621
3.32463 2.65869 0.909621
3.32463 2.65869 0.909621
3.32463 2.65869 0.909621
3.32463 2.65869 0.909621
3.32463 2.65869 0.909621
3.32463 2.65869 0.909621
3.32463 2.65869 0.909621
3.32463 2.65869 0.909621
3.32463 2.65869 0.909621
3.32463 2.65869 0.909621
3.32463 2.65869 0.909621
3.32463 2.65869 0.909621
3.32463 2.65869 0.909621
3.32463 2.65869 0.909621
3.32463 2.65869 0.909621
3.32463 2.65869 0.909621
3.32463 2.65869 0.909621
3.32463 2.65869 0.909621
3.32463 2.65869 0.909621
3.32463 2.65869 0.909621
3.32463 2.65869 0.909621
3.32463 2.65869 0.909621
3.32463 2.65869 0.909621
3.32463 2.65869 0.909621
3.32463 2.65869 0.909621
3.32463 2.65869 0.909621
3.32463 2.65869 0.909621
3.32463 2.65869 0.909621
3.32463 2.65869 0.909621
3.32463 2.65869 0.909621
3.32463 2.65869 0.909621
3.32463 2.65869 0.909621
3.32463 2.65869 0.909621
3.32463 2.65869 0.909621
3.32463 2.65869 0.909621
3.32463 2.65869 0.909621
3.32463 2.65869 0.909621
3.32463 2.65869 0.909621
3.32463 2.65869 0.909621
3.32463 2.65869 0.909621
3.32463 2.65869 0.909621
3.32463 2.65869 0.909621
3.32463 2.65869 0.909621
3.32463 2.65869 0.909621
3.32463 2.65869 0.909621
3.32463 2.65869 0.909621
3.32463 2.65869 0.909621
3.32463 2.65869 0.909621
3.32463 2.65869 0.909621
3.32463 2.65869 0.909621
3.32463 2.65869 0.909621
3.32463 2.65869 0.909621
3.32463 2.65869 0.909621
3.32463 2.65869 0.909621
3.32463 2.65869 0.909621
3.32463 2.65869 0.909621
3.32463 2.65869 0.909621
3.32463 2.65869 0.909621
3.32463 2.65869 0.909621
3.32463 2.65869 0.909621
3.32463 2.65869 0.909621
3.32463 2.65869 0.909621
3.32463 2.65869 0.909621
3.32463 2.65869 0.909621
3.32463 2.65869 0.909621
3.32463 2.65869 0.909621
3.32463 2.65869 0.909621
3.32463 2.65869 0.909621
3.32463 2.65869 0.909621
3.32463 2.65869 0.909621
3.32463 2.65869 0.909621
3.32463 2.65869 0.909621
3.32463 2.65869 0.909621
3.32463 2.65869 0.909621
3.32463 2.65869 0.909621
3.32463 2.65869 0.909621
3.32463 2.65869 0.909621
3.32463 2.65869 0.909621
3.32463 2.65869 0.909621
3.32463 2.65869 0.909621
3.32463 2.65869 0.909621
3.32463 2.65869 0.909621
3.32463 2.65869 0.909621
3.32463 2.65869 0.909621
3.32463 2.65869 0.909621
3.32463 2.65869 0.909621
3.32463 2.65869 0.909621
3.32463 2.65869 0.909621
3.32463 2.65869 0.909621
3.32463 2.65869 0.909621
3.32463 2.65869 0.909621
3.32463 2.65869 0.909621
3.32463 2.65869 0.909621
3.32463 2.65869 0.909621
3.32463 2.65869 0.909621
3.32463 2.65869 0.909621
3.32463 2.65869 0.909621
3.32463 2.65869 0.909621
3.32463 2.65869 0.909621
3.32463 2.65869 0.909621
3.32463 2.65869 0.909621
3.32463 2.65869 0.909621
3.32463 2.65869 0.909621
3.32463 2.65869 0.909621
3.32463 2.65869 0.909621
3.32463 2.65869 0.909621
3.32463 2.65869 0.909621
3.32463 2.65869 0.909621
3.32463 2.65869 0.909621
3.32463 2.65869 0.909621
3.32463 2.65869 0.909621
3.32463 2.65869 0.909621
3.32463 2.65869 0.909621
3.32463 2.65869 0.909621
3.32463 2.65869 0.909621
3.32463 2.65869 0.909621
3.32463 2.65869 0.909621
3.32463 2.65869 0.909621
3.32463 2.65869 0.909621
3.32463 2.65869 0.909621
3.32463 2.65869 0.909621
3.32463 2.65869 0.909621
3.32463 2.65869 0.909621
3.32463 2.65869 0.909621
3.32463 2.65869 0.909621
3.32463 2.65869 0.909621
3.32463 2.65869 0.909621
3.32463 2.65869 0.909621
3.32463 2.65869 0.909621
3.32463 2.65869 0.909621
3.32463 2.65869 0.909621
3.32463 2.65869 0.909621
3.32463 2.65869 0.909621
3.32463 2.65869 0.909621
3.32463 2.65869 0.909621
3.32463 2.65869 0.909621
3.32463 2.65869 0.909621
3.32463 2.65869 0.909621
3.32463 2.65869 0.909621
3.32463 2.65869 0.909621
3.32463 2.65869 0.909621
3.32463 2.65869 0.909621
3.32463 2.65869 0.909621
3.32463 2.65869 0.909621
3.32463 2.65869 0.909621
3.32463 2.65869 0.909621
3.32463 2.65869 0.909621
3.32463 2.65869 0.909621
3.32463 2.65869 0.909621
3.32463 2.65869 0.909621
3.32463 2.65869 0.909621
3.32463 2.65869 0.909621
3.32463 2.65869 0.909621
3.32463 2.65869 0.909621
3.32463 2.65869 0.909621
3.32463 2.65869 0.909621
3.32463 2.65869 0.909621
3.32463 2.65869 0.909621
3.32463 2.65869 0.909621
3.32463 2.65869 0.909621
3.32463 2.65869 0.909621
3.32463 2.65869 0.909621
3.32463 2.65869 0.909621
3.32463 2.65869 0.909621
3.32463 2.65869 0.909621
3.32463 2.65869 0.909621
3.32463 2.65869 0.909621
3.32463 2.65869 0.909621
3.32463 2.65869 0.909621
3.32463 2.65869 0.909621
3.32463 2.65869 0.909621
3.32463 2.65869 0.909621
3.32463 2.65869 0.909621
3.32463 2.65869 0.909621
3.32463 2.65869 0.909621
3.32463 2.65869 0.909621
3.32463 2.65869 0.909621
3.32463 2.65869 0.909621
3.32463 2.65869 0.909621
3.32463 2.65869 0.909621
3.32463 2.65869 0.909621
3.32463 2.65869 0.909621
3.32463 2.65869 0.909621
3.32463 2.65869 0.909621
3.32463 2.65869 0.909621
3.32463 2.65869 0.909621
3.32463 2.65869 0.909621
3.32463 2.65869 0.909621
3.32463 2.65869 0.909621
3.32463 2.65869 0.909621
3.32463 2.65869 0.909621
3.32463 2.65869 0.909621
3.32463 2.65869 0.909621
3.32463 2.65869 0.909621
3.32463 2.65869 0.909621
3.32463 2.65869 0.909621
3.32463 2.65869 0.909621
3.32463 2.65869 0.909621
3.32463 2.65869 0.909621
3.32463 2.65869 0.909621
3.32463 2.65869 0.909621
3.32463 2.65869 0.909621
3.32463 2.65869 0.909621
3.32463 2.65869 0.909621
3.32463 2.65869 0.909621
3.32463 2.65869 0.909621
3.32463 2.65869 0.909621
3.32463 2.65869 0.909621
3.32463 2.65869 0.909621
3.32463 2.65869 0.909621
3.32463 2.65869 0.909621
3.32463 2.65869 0.909621
3.32463 2.65869 0.909621
3.32463 2.65869 0.909621
3.32463 2.65869 0.909621
3.32463 2.65869 0.909621
3.32463 2.65869 0.909621
3.32463 2.65869 0.909621
3.32463 2.65869 0.909621
3.32463 2.65869 0.909621
3.32463 2.65869 0.909621
3.32463 2.65869 0.909621
3.32463 2.65869 0.909621
3.32463 2.65869 0.909621
3.32463 2.65869 0.909621
3.32463 2.65869 0.909621
3.32463 2.65869 0.909621
3.32463 2.65869 0.909621
3.32463 2.65869 0.909621
3.32463 2.65869 0.909621
3.32463 2.65869 0.909621
3.32463 2.65869 0.909621
3.32463 2.65869 0.909621
3.32463 2.65869 0.909621
3.32463 2.65869 0.909621
3.32463 2.65869 0.909621
3.32463 2.65869 0.909621
3.32463 2.65869 0.909621
3.32463 2.65869 0.909621
3.32463 2.65869 0.909621
3.32463 2.65869 0.909621
3.32463 2.65869 0.909621
3.32463 2.65869 0.909621
3.32463 2.65869 0.909621
3.32463 2.65869 0.909621
3.32463 2.65869 0.909621
3.32463 2.65869 0.909621
3.32463 2.65869 0.909621
3.32463 2.65869 0.909621
3.32463 2.65869 0.909621
3.32463 2.65869 0.909621
3.32463 2.65869 0.909621
3.32463 2.65869 0.909621
3.32463 2.65869 0.909621
3.32463 2.65869 0.909621
3.32463 2.65869 0.909621
3.32463 2.65869 0.909621
3.32463 2.65869 0.909621
3.32463 2.65869 0.909621
3.32463 2.65869 0.909621
3.32463 2.65869 0.909621
3.32463 2.65869 0.909621
3.32463 2.65869 0.909621
3.32463 2.65869 0.909621
3.32463 2.65869 0.909621
3.32463 2.65869 0.909621
3.32463 2.65869 0.909621
3.32463 2.65869 0.909621
3.32463 2.65869 0.909621
3.32463 2.65869 0.909621
3.32463 2.65869 0.909621
3.32463 2.65869 0.909621
3.32463 2.65869 0.909621
3.32463 2.65869 0.909621
3.32463 2.65869 0.909621
3.32463 2.65869 0.909621
3.32463 2.65869 0.909621
3.32463 2.65869 0.909621
3.32463 2.65869 0.909621
3.32463 2.65869 0.909621
3.32463 2.65869 0.909621
3.32463 2.65869 0.909621
3.32463 2.65869 0.909621
3.32463 2.65869 0.909621
3.32463 2.65869 0.909621
3.32463 2.65869 0.909621
3.32463 2.65869 0.909621
3.32463 2.65869 0.909621
3.32463 2.65869 0.909621
3.32463 2.65869 0.909621
3.32463 2.65869 0.909621
3.32463 2.65869 0.909621
3.32463 2.65869 0.909621
3.32463 2.65869 0.909621
3.32463 2.65869 0.909621
3.32463 2.65869 0.909621
3.32463 2.65869 0.909621
3.32463 2.65869 0.909621
3.32463 2.65869 0.909621
3.32463 2.65869 0.909621
3.32463 2.65869 0.909621
3.32463 2.65869 0.909621
3.32463 2.65869 0.909621
3.32463 2.65869 0.909621
3.32463 2.65869 0.909621
3.32463 2.65869 0.909621
3.32463 2.65869 0.909621
3.32463 2.65869 0.909621
3.32463 2.65869 0.909621
3.32463 2.65869 0.909621
3.32463 2.65869 0.909621
3.32463 2.65869 0.909621
3.32463 2.65869 0.909621
3.32463 2.65869 0.909621
3.32463 2.65869 0.909621
3.32463 2.65869 0.909621
3.32463 2.65869 0.909621
3.32463 2.65869 0.909621
3.32463 2.65869 0.909621
3.32463 2.65869 0.909621
3.32463 2.65869 0.909621
3.32463 2.65869 0.909621
3.32463 2.65869 0.909621
3.32463 2.65869 0.909621
3.32463 2.65869 0.909621
3.32463 2.65869 0.909621
3.32463 2.65869 0.909621
3.32463 2.65869 0.909621
3.32463 2.65869 0.909621
3.32463 2.65869 0.909621
3.32463 2.65869 0.909621
3.32463 2.65869 0.909621
3.32463 2.65869 0.909621
3.32463 2.65869 0.909621
3.32463 2.65869 0.909621
3.32463 2.65869 0.909621
3.32463 2.65869 0.909621
3.32463 2.65869 0.909621
3.32463 2.65869 0.909621
3.32463 2.65869 0.909621
3.32463 2.65869 0.909621
3.32463 2.65869 0.909621
3.32463 2.65869 0.909621
3.32463 2.65869 0.909621
3.32463 2.65869 0.909621
3.32463 2.65869 0.909621
3.32463 2.65869 0.909621
3.32463 2.65869 0.909621
3.32463 2.65869 0.909621
3.32463 2.65869 0.909621
3.32463 2.65869 0.909621
3.32463 2.65869 0.909621
3.32463 2.65869 0.909621
3.32463 2.65869 0.909621
3.32463 2.65869 0.909621
3.32463 2.65869 0.909621
3.32463 2.65869 0.909621
3.32463 2.65869 0.909621
3.32463 2.65869 0.909621
3.32463 2.65869 0.909621
3.32463 2.65869 0.909621
3.32463 2.65869 0.909621
3.32463 2.65869 0.909621
3.32463 2.65869 0.909621
3.32463 2.65869 0.909621
3.32463 2.65869 0.909621
3.32463 2.65869 0.909621
3.32463 2.65869 0.909621
3.32463 2.65869 0.909621
3.32463 2.65869 0.909621
3.32463 2.65869 0.909621
3.32463 2.65869 0.909621
3.32463 2.65869 0.909621
3.32463 2.65869 0.909621
3.32463 2.65869 0.909621
3.32463 2.65869 0.909621
3.32463 2.65869 0.909621
3.32463 2.65869 0.909621
3.32463 2.65869 0.909621
3.32463 2.65869 0.909621
3.32463 2.65869 0.909621
3.32463 2.65869 0.909621
3.32463 2.65869 0.909621
3.32463 2.65869 0.909621
3.32463 2.65869 0.909621
3.32463 2.65869 0.909621
3.32463 2.65869 0.909621
3.32463 2.65869 0.909621
3.32463 2.65869 0.909621
3.32463 2.65869 0.909621
3.32463 2.65869 0.909621
3.32463 2.65869 0.909621
3.32463 2.65869 0.909621
3.32463 2.65869 0.909621
3.32463 2.65869 0.909621
3.32463 2.65869 0.909621
3.32463 2.65869 0.909621
3.32463 2.65869 0.909621
3.32463 2.65869 0.909621
3.32463 2.65869 0.909621
3.32463 2.65869 0.909621
3.32463 2.65869 0.909621
3.32463 2.65869 0.909621
3.32463 2.65869 0.909621
3.32463 2.65869 0.909621
3.32463 2.65869 0.909621
3.32463 2.65869 0.909621
3.32463 2.65869 0.909621
3.32463 2.65869 0.909621
3.32463 2.65869 0.909621
3.32463 2.65869 0.909621
3.32463 2.65869 0.909621
3.32463 2.65869 0.909621
3.32463 2.65869 0.909621
3.32463 2.65869 0.909621
3.32463 2.65869 0.909621
3.32463 2.65869 0.909621
3.32463 2.65869 0.909621
3.32463 2.65869 0.909621
3.32463 2.65869 0.909621
3.32463 2.65869 0.909621
3.32463 2.65869 0.909621
3.32463 2.65869 0.909621
3.32463 2.65869 0.909621
3.32463 2.65869 0.909621
3.32463 2.65869 0.909621
3.32463 2.65869 0.909621
3.32463 2.65869 0.909621
3.32463 2.65869 0.909621
3.32463 2.65869 0.909621
3.32463 2.65869 0.909621
3.32463 2.65869 0.909621
3.32463 2.65869 0.909621
3.32463 2.65869 0.909621
3.32463 2.65869 0.909621
3.32463 2.65869 0.909621
3.32463 2.65869 0.909621
3.32463 2.65869 0.909621
3.32463 2.65869 0.909621
3.32463 2.65869 0.909621
3.32463 2.65869 0.909621
3.32463 2.65869 0.909621
3.32463 2.65869 0.909621
3.32463 2.65869 0.909621
3.32463 2.65869 0.909621
3.32463 2.65869 0.909621
3.32463 2.65869 0.909621
3.32463 2.65869 0.909621
3.32463 2.65869 0.909621
3.32463 2.65869 0.909621
3.32463 2.65869 0.909621
3.32463 2.65869 0.909621
3.32463 2.65869 0.909621
3.32463 2.65869 0.909621
3.32463 2.65869 0.909621
3.32463 2.65869 0.909621
3.32463 2.65869 0.909621
3.32463 2.65869 0.909621
3.32463 2.65869 0.909621
3.32463 2.65869 0.909621
3.32463 2.65869 0.909621
3.32463 2.65869 0.909621
3.32463 2.65869 0.909621
3.32463 2.65869 0.909621
3.32463 2.65869 0.909621
3.32463 2.65869 0.909621
3.32463 2.65869 0.909621
3.32463 2.65869 0.909621
3.32463 2.65869 0.909621
3.32463 2.65869 0.909621
3.32463 2.65869 0.909621
3.32463 2.65869 0.909621
3.32463 2.65869 0.909621
3.32463 2.65869 0.909621
3.32463 2.65869 0.909621
3.32463 2.65869 0.909621
3.32463 2.65869 0.909621
3.32463 2.65869 0.909621
3.32463 2.65869 0.909621
3.32463 2.65869 0.909621
3.32463 2.65869 0.909621
3.32463 2.65869 0.909621
3.32463 2.65869 0.909621
3.32463 2.65869 0.909621
3.32463 2.65869 0.909621
3.32463 2.65869 0.909621
3.32463 2.65869 0.909621
3.32463 2.65869 0.909621
3.32463 2.65869 0.909621
3.32463 2.65869 0.909621
3.32463 2.65869 0.909621
3.32463 2.65869 0.909621
3.32463 2.65869 0.909621
3.32463 2.65869 0.909621
3.32463 2.65869 0.909621
3.32463 2.65869 0.909621
3.32463 2.65869 0.909621
3.32463 2.65869 0.909621
3.32463 2.65869 0.909621
3.32463 2.65869 0.909621
3.32463 2.65869 0.909621
3.32463 2.65869 0.909621
3.32463 2.65869 0.909621
3.32463 2.65869 0.909621
3.32463 2.65869 0.909621
3.32463 2.65869 0.909621
3.32463 2.65869 0.909621
3.32463 2.65869 0.909621
3.32463 2.65869 0.909621
3.32463 2.65869 0.909621
3.32463 2.65869 0.909621
3.32463 2.65869 0.909621
3.32463 2.65869 0.909621
3.32463 2.65869 0.909621
3.32463 2.65869 0.909621
3.32463 2.65869 0.909621
3.32463 2.65869 0.909621
3.32463 2.65869 0.909621
3.32463 2.65869 0.909621
3.32463 2.65869 0.909621
3.32463 2.65869 0.909621
3.32463 2.65869 0.909621
3.32463 2.65869 0.909621
3.32463 2.65869 0.909621
3.32463 2.65869 0.909621
3.32463 2.65869 0.909621
3.32463 2.65869 0.909621
3.32463 2.65869 0.909621
3.32463 2.65869 0.909621
3.32463 2.65869 0.909621
3.32463 2.65869 0.909621
3.32463 2.65869 0.909621
3.32463 2.65869 0.909621
3.32463 2.65869 0.909621
3.32463 2.65869 0.909621
3.32463 2.65869 0.909621
3.32463 2.65869 0.909621
3.32463 2.65869 0.909621
3.32463 2.65869 0.909621
3.32463 2.65869 0.909621
3.32463 2.65869 0.909621
3.32463 2.65869 0.909621
3.32463 2.65869 0.909621
3.32463 2.65869 0.909621
3.32463 2.65869 0.909621
3.32463 2.65869 0.909621
3.32463 2.65869 0.909621
3.32463 2.65869 0.909621
3.32463 2.65869 0.909621
3.32463 2.65869 0.909621
3.32463 2.65869 0.909621
3.32463 2.65869 0.909621
3.32463 2.65869 0.909621
3.32463 2.65869 0.909621
3.32463 2.65869 0.909621
3.32463 2.65869 0.909621
3.32463 2.65869 0.909621
3.32463 2.65869 0.909621
3.32463 2.65869 0.909621
3.32463 2.65869 0.909621
3.32463 2.65869 0.909621
3.32463 2.65869 0.909621
3.32463 2.65869 0.909621
3.32463 2.65869 0.909621
3.32463 2.65869 0.909621
3.32463 2.65869 0.909621
3.32463 2.65869 0.909621
3.32463 2.65869 0.909621
3.32463 2.65869 0.909621
3.32463 2.65869 0.909621
3.32463 2.65869 0.909621
3.32463 2.65869 0.909621
3.32463 2.65869 0.909621
3.32463 2.65869 0.909621
3.32463 2.65869 0.909621
3.32463 2.65869 0.909621
3.32463 2.65869 0.909621
3.32463 2.65869 0.909621
3.32463 2.65869 0.909621
3.32463 2.65869 0.909621
3.32463 2.65869 0.909621
3.32463 2.65869 0.909621
3.32463 2.65869 0.909621
3.32463 2.65869 0.909621
3.32463 2.65869 0.909621
3.32463 2.65869 0.909621
3.32463 2.65869 0.909621
3.32463 2.65869 0.909621
3.32463 2.65869 0.909621
3.32463 2.65869 0.909621
3.32463 2.65869 0.909621
3.32463 2.65869 0.909621
3.32463 2.65869 0.909621
3.32463 2.65869 0.909621
3.32463 2.65869 0.909621
3.32463 2.65869 0.909621
3.32463 2.65869 0.909621
3.32463 2.65869 0.909621
3.32463 2.65869 0.909621
3.32463 2.65869 0.909621
3.32463 2.65869 0.909621
3.32463 2.65869 0.909621
3.32463 2.65869 0.909621
3.32463 2.65869 0.909621
3.32463 2.65869 0.909621
3.32463 2.65869 0.909621
3.32463 2.65869 0.909621
3.32463 2.65869 0.909621
3.32463 2.65869 0.909621
3.32463 2.65869 0.909621
3.32463 2.65869 0.909621
3.32463 2.65869 0.909621
3.32463 2.65869 0.909621
3.32463 2.65869 0.909621
3.32463 2.65869 0.909621
3.32463 2.65869 0.909621
3.32463 2.65869 0.909621
3.32463 2.65869 0.909621
3.32463 2.65869 0.909621
3.32463 2.65869 0.909621
3.32463 2.65869 0.909621
3.32463 2.65869 0.909621
3.32463 2.65869 0.909621
3.32463 2.65869 0.909621
3.32463 2.65869 0.909621
3.32463 2.65869 0.909621
3.32463 2.65869 0.909621
3.32463 2.65869 0.909621
3.32463 2.65869 0.909621
3.32463 2.65869 0.909621
3.32463 2.65869 0.909621
3.32463 2.65869 0.909621
3.32463 2.65869 0.909621
3.32463 2.65869 0.909621
3.32463 2.65869 0.909621
3.32463 2.65869 0.909621
3.32463 2.65869 0.909621
3.32463 2.65869 0.909621
3.32463 2.65869 0.909621
3.32463 2.65869 0.909621
3.32463 2.65869 0.909621
3.32463 2.65869 0.909621
3.32463 2.65869 0.909621
3.32463 2.65869 0.909621
3.32463 2.65869 0.909621
3.32463 2.65869 0.909621
3.32463 2.65869 0.909621
3.32463 2.65869 0.909621
3.32463 2.65869 0.909621
3.32463 2.65869 0.909621
3.32463 2.65869 0.909621
3.32463 2.65869 0.909621
3.32463 2.65869 0.909621
3.32463 2.65869 0.909621
3.32463 2.65869 0.909621
3.32463 2.65869 0.909621
3.32463 2.65869 0.909621
3.32463 2.65869 0.909621
3.32463 2.65869 0.909621
3.32463 2.65869 0.909621
3.32463 2.65869 0.909621
3.32463 2.65869 0.909621
3.32463 2.65869 0.909621
3.32463 2.65869 0.909621
3.32463 2.65869 0.909621
3.32463 2.65869 0.909621
3.32463 2.65869 0.909621
3.32463 2.65869 0.909621
3.32463 2.65869 0.909621
3.32463 2.65869 0.909621
3.32463 2.65869 0.909621
3.32463 2.65869 0.909621
3.32463 2.65869 0.909621
3.32463 2.65869 0.909621
3.32463 2.65869 0.909621
3.32463 2.65869 0.909621
3.32463 2.65869 0.909621
3.32463 2.65869 0.909621
3.32463 2.65869 0.909621
3.32463 2.65869 0.909621
3.32463 2.65869 0.909621
3.32463 2.65869 0.909621
3.32463 2.65869 0.909621
3.32463 2.65869 0.909621
3.32463 2.65869 0.909621
3.32463 2.65869 0.909621
3.32463 2.65869 0.909621
3.32463 2.65869 0.909621
3.32463 2.65869 0.909621
3.32463 2.65869 0.909621
3.32463 2.65869 0.909621
3.32463 2.65869 0.909621
3.32463 2.65869 0.909621
3.32463 2.65869 0.909621
3.32463 2.65869 0.909621
3.32463 2.65869 0.909621
3.32463 2.65869 0.909621
3.32463 2.65869 0.909621
3.32463 2.65869 0.909621
3.32463 2.65869 0.909621
3.32463 2.65869 0.909621
3.32463 2.65869 0.909621
3.32463 2.65869 0.909621
3.32463 2.65869 0.909621
3.32463 2.65869 0.909621
3.32463 2.65869 0.909621
3.32463 2.65869 0.909621
3.32463 2.65869 0.909621
3.32463 2.65869 0.909621
3.32463 2.65869 0.909621
3.32463 2.65869 0.909621
3.32463 2.65869 0.909621
3.32463 2.65869 0.909621
3.32463 2.65869 0.909621
3.32463 2.65869 0.909621
3.32463 2.65869 0.909621
3.32463 2.65869 0.909621
3.32463 2.65869 0.909621
3.32463 2.65869 0.909621
3.32463 2.65869 0.909621
3.32463 2.65869 0.909621
3.32463 2.65869 0.909621
3.32463 2.65869 0.909621
3.32463 2.65869 0.909621
3.32463 2.65869 0.909621
3.32463 2.65869 0.909621
3.32463 2.65869 0.909621
3.32463 2.65869 0.909621
3.32463 2.65869 0.909621
3.32463 2.65869 0.909621
3.32463 2.65869 0.909621
3.32463 2.65869 0.909621
3.32463 2.65869 0.909621
3.32463 2.65869 0.909621
3.32463 2.65869 0.909621
3.32463 2.65869 0.909621
3.32463 2.65869 0.909621
3.32463 2.65869 0.909621
3.32463 2.65869 0.909621
3.32463 2.65869 0.909621
3.32463 2.65869 0.909621
3.32463 2.65869 0.909621
3.32463 2.65869 0.909621
3.32463 2.65869 0.909621
3.32463 2.65869 0.909621
3.32463 2.65869 0.909621
3.32463 2.65869 0.909621
3.32463 2.65869 0.909621
3.32463 2.65869 0.909621
3.32463 2.65869 0.909621
3.32463 2.65869 0.909621
3.32463 2.65869 0.909621
3.32463 2.65869 0.909621
3.32463 2.65869 0.909621
3.32463 2.65869 0.909621
3.32463 2.65869 0.909621
3.32463 2.65869 0.909621
3.32463 2.65869 0.909621
3.32463 2.65869 0.909621
3.32463 2.65869 0.909621
3.32463 2.65869 0.909621
3.32463 2.65869 0.909621
3.32463 2.65869 0.909621
3.32463 2.65869 0.909621
3.32463 2.65869 0.909621
3.32463 2.65869 0.909621
3.32463 2.65869 0.909621
3.32463 2.65869 0.909621
3.32463 2.65869 0.909621
3.32463 2.65869 0.909621
3.32463 2.65869 0.909621
3.32463 2.65869 0.909621
3.32463 2.65869 0.909621
3.32463 2.65869 0.909621
3.32463 2.65869 0.909621
3.32463 2.65869 0.909621
3.32463 2.65869 0.909621
3.32463 2.65869 0.909621
3.32463 2.65869 0.909621
3.32463 2.65869 0.909621
3.32463 2.65869 0.909621
3.32463 2.65869 0.909621
3.32463 2.65869 0.909621
3.32463 2.65869 0.909621
3.32463 2.65869 0.909621
3.32463 2.65869 0.909621
3.32463 2.65869 0.909621
3.32463 2.65869 0.909621
3.32463 2.65869 0.909621
3.32463 2.65869 0.909621
3.32463 2.65869 0.909621
3.32463 2.65869 0.909621
3.32463 2.65869 0.909621
3.32463 2.65869 0.909621
3.32463 2.65869 0.909621
3.32463 2.65869 0.909621
3.32463 2.65869 0.909621
3.32463 2.65869 0.909621
3.32463 2.65869 0.909621
3.32463 2.65869 0.909621
3.32463 2.65869 0.909621
3.32463 2.65869 0.909621
3.32463 2.65869 0.909621
3.32463 2.65869 0.909621
3.32463 2.65869 0.909621
3.32463 2.65869 0.909621
3.32463 2.65869 0.909621
3.32463 2.65869 0.909621
3.32463 2.65869 0.909621
3.32463 2.65869 0.909621
3.32463 2.65869 0.909621
3.32463 2.65869 0.909621
3.32463 2.65869 0.909621
3.32463 2.65869 0.909621
3.32463 2.65869 0.909621
3.32463 2.65869 0.909621
3.32463 2.65869 0.909621
3.32463 2.65869 0.909621
3.32463 2.65869 0.909621
3.32463 2.65869 0.909621
3.32463 2.65869 0.909621
3.32463 2.65869 0.909621
