0 0 0
0 0 0
0 0 0
0 0 0
0 0 0
0 0 0
0 0 0
0 0 0
0 0 0
0 0 0
0 0 0
0 0 0
0 0 0
0 0 0
0 0 0
0 0 0
0 0 0
0 0 0
0 0 0
0 0 0
0 0 0
0 0 0
0 0 0
0 0 0
0 0 0
0 0 0
0 0 0
0 0 0
0 0 0
0 0 0
0 0 0
0 0 0
0 0 0
0 0 0
0 0 0
0 0 0
0 0 0
0 0 0
0 0 0
0 0 0
0 0 0
0 0 0
0 0 0
0 0 0
0 0 0
0 0 0
0 0 0
0 0 0
0 0 0
0 0 0
0 0 0
0 0 0
0 0 0
0 0 0
0 0 0
0 0 0
0 0 0
0 0 0
0 0 0
0 0 0
0 0 0
0 0 0
0 0 0
0 0 0
0 0 0
0 0 0
0 0 0
0 0 0
0 0 0
0 0 0
0 0 0
0 0 0
0 0 0
0 0 0
0 0 0
0 0 0
0 0 0
0 0 0
0 0 0
0 0 0
0 0 0
0 0 0
0 0 0
0 0 0
0 0 0
0 0 0
0 0 0
0 0 0
0 0 0
0 0 0
0 0 0
0 0 0
0 0 0
0 0 0
0 0 0
0 0 0
0 0 0
0 0 0
0 0 0
0 0 0
0 0 0
0 0 0
0 0 0
0 0 0
0 0 0
0 0 0
0 0 0
0 0 0
0 0 0
0 0 0
0 0 0
0 0 0
0 0 0
0 0 0
0 0 0
0 0 0
0 0 0
0 0 0
0 0 0
0 0 0
0 0 0
0 0 0
0 0 0
0 0 0
0 0 0
0 0 0.0248809
0.0032016 0 0.0480762
0.0125845 0 0.0690225
0.0243218 0 0.0871739
0.0387228 0 0.102056
0.0558306 0 0.113326
0.0754195 0 0.120766
0.097084 0.0110027 0.124293
0.120341 0.0237913 0.124289
0.144686 0.0382865 0.122305
0.169636 0.0542532 0.118689
0.194737 0.0713131 0.113697
0.219564 0.088973 0.107634
0.243726 0.106653 0.100846
0.266856 0.123724 0.0937014
0.288571 0.139556 0.0865733
0.30847 0.153562 0.0798158
0.326164 0.165227 0.0737496
0.341318 0.174132 0.0686482
0.351994 0.179988 0.0647369
0.360269 0.182434 0.0647369
0.366223 0.182506 0.0647369
0.367359 0.18059 0.0647369
0.36696 0.177403 0.0647369
0.364459 0.173362 0.0669089
0.357019 0.16919 0.0732392
0.348701 0.163513 0.081643
0.339683 0.157639 0.0906987
0.329918 0.15124 0.100454
0.319759 0.14451 0.110265
0.309845 0.137778 0.119592
0.300349 0.131252 0.127914
0.291655 0.125086 0.134711
0.284145 0.119452 0.139578
0.278049 0.114525 0.142203
0.273584 0.110452 0.142443
0.270937 0.10732 0.141137
0.270177 0.105184 0.13846
0.272464 0.104089 0.134455
0.278464 0.104141 0.129208
0.287692 0.106063 0.122852
0.297832 0.110311 0.115537
0.308452 0.116459 0.107528
0.318963 0.124207 0.104194
0.328951 0.13307 0.104194
0.336274 0.140574 0.104194
0.34279 0.148097 0.104194
0.348312 0.155339 0.104194
0.352653 0.162015 0.104194
0.355633 0.167853 0.104194
0.357098 0.172606 0.104194
0.35706 0.176072 0.104194
0.356058 0.178108 0.104194
0.354073 0.178635 0.104194
0.351023 0.178121 0.104194
0.346829 0.176843 0.104194
0.341435 0.174832 0.104194
0.334824 0.172138 0.104194
0.327035 0.168818 0.104194
0.318165 0.164937 0.104194
0.30836 0.160563 0.104194
0.297793 0.155774 0.104194
0.286641 0.150656 0.104194
0.27507 0.145301 0.107812
0.263236 0.139806 0.122105
0.251295 0.134267 0.13584
0.239399 0.13014 0.148664
0.230595 0.13014 0.160245
0.230595 0.13014 0.170278
0.230595 0.13014 0.178495
0.230595 0.13014 0.184668
0.230595 0.13014 0.188614
0.230595 0.13014 0.190203
0.230595 0.13014 0.18979
0.230595 0.13014 0.188139
0.230595 0.13014 0.185273
0.230595 0.13014 0.181233
0.230595 0.13014 0.176083
0.230595 0.13014 0.169907
0.230595 0.13014 0.162824
0.230595 0.13014 0.155105
0.230595 0.13014 0.148732
0.230595 0.13014 0.148732
0.230595 0.13014 0.148732
0.230595 0.13014 0.148732
0.230595 0.13014 0.148732
0.230595 0.13014 0.148732
0.230595 0.13014 0.148732
0.230595 0.13014 0.148732
0.230595 0.13014 0.148732
0.230595 0.13014 0.148732
0.230595 0.13014 0.148732
0.230595 0.13014 0.148732
0.230595 0.13014 0.148732
0.230595 0.13014 0.148732
0.230595 0.13014 0.148732
0.230595 0.13014 0.145161
0.230595 0.13014 0.144263
0.230595 0.13014 0.144263
0.230595 0.13014 0.144263
0.228126 0.13014 0.144263
0.228126 0.13014 0.144263
0.228126 0.13014 0.144263
0.228126 0.13014 0.144253
0.228126 0.13014 0.144253
0.228126 0.13014 0.144253
0.228126 0.13014 0.144253
0.228126 0.13014 0.144253
0.228126 0.13014 0.144253
0.228126 0.128771 0.144253
0.228126 0.128771 0.144253
0.228126 0.128771 0.144253
0.228126 0.128771 0.144253
0.22724 0.128771 0.144253
0.22724 0.128771 0.144253
0.22724 0.128771 0.144253
0.22724 0.128771 0.144253
0.22724 0.128741 0.144253
0.22724 0.128741 0.144253
0.22724 0.128741 0.144253
0.22724 0.128741 0.144253
0.22724 0.128741 0.144253
0.22724 0.128741 0.144253
0.22724 0.128741 0.144253
0.22724 0.128741 0.144253
0.22724 0.128741 0.144253
0.22724 0.128741 0.144253
0.22724 0.128741 0.144253
0.22724 0.128741 0.144253
0.22724 0.128741 0.14425
0.22724 0.128741 0.14425
0.22724 0.128741 0.14425
0.22724 0.128741 0.14425
0.22724 0.128741 0.14425
0.227226 0.128741 0.14425
0.227226 0.128741 0.14425
0.227226 0.128741 0.14425
0.227226 0.128741 0.14425
0.227226 0.128741 0.14425
0.227226 0.128741 0.14425
0.227226 0.128741 0.14425
0.227226 0.128741 0.14425
0.227226 0.128741 0.14425
0.227226 0.128741 0.14425
0.227226 0.128741 0.14425
0.227226 0.128741 0.14425
0.227226 0.128741 0.14425
0.227226 0.128741 0.14425
0.227226 0.128741 0.14425
0.227226 0.128741 0.14425
0.227226 0.128741 0.14425
0.227226 0.128741 0.14425
0.227226 0.128741 0.14425
0.227226 0.128741 0.14425
0.227226 0.128741 0.14425
0.227226 0.128741 0.14425
0.227226 0.128741 0.14425
0.227226 0.128741 0.14425
0.227226 0.128741 0.14425
0.227226 0.128741 0.14425
0.227226 0.128741 0.14425
0.227226 0.128741 0.14425
0.227226 0.128741 0.14425
0.227226 0.128741 0.14425
0.227226 0.128741 0.14425
0.227226 0.128741 0.14425
0.227226 0.128741 0.14425
0.227226 0.128741 0.14425
0.227226 0.128741 0.14425
0.227226 0.128741 0.14425
0.227226 0.128741 0.14425
0.227226 0.128741 0.14425
0.227226 0.128741 0.14425
0.227226 0.128741 0.14425
0.227226 0.128741 0.14425
0.227226 0.128741 0.14425
0.227226 0.128741 0.14425
0.227226 0.128741 0.14425
0.227226 0.128741 0.14425
0.227226 0.128741 0.14425
0.227226 0.128741 0.14425
0.227226 0.128741 0.14425
0.227226 0.128741 0.14425
0.227226 0.128741 0.14425
0.227226 0.128741 0.14425
0.227226 0.128741 0.14425
0.227226 0.128741 0.14425
0.227226 0.128741 0.14425
0.227226 0.128741 0.14425
0.227226 0.128741 0.14425
0.227226 0.128741 0.14425
0.227226 0.128741 0.14425
0.227226 0.128741 0.14425
0.227226 0.128741 0.14425
0.227226 0.128741 0.14425
0.227226 0.128741 0.14425
0.227226 0.128741 0.14425
0.227226 0.128741 0.14425
0.227226 0.128741 0.14425
0.227226 0.128741 0.14425
0.227226 0.128741 0.14425
0.227226 0.128741 0.14425
0.227226 0.128741 0.14425
0.243658 0.128741 0.14425
0.264881 0.138962 0.14425
0.285136 0.158631 0.14425
0.304269 0.177022 0.14425
0.322161 0.193848 0.14425
0.338713 0.208844 0.14425
0.35384 0.221796 0.145445
0.367405 0.232567 0.148592
0.377138 0.241444 0.152739
0.385087 0.248162 0.157852
0.390746 0.252505 0.164095
0.394198 0.254782 0.171214
0.395555 0.255031 0.179188
0.395283 0.254146 0.18778
0.394116 0.252359 0.196821
0.392178 0.24978 0.206078
0.389636 0.246531 0.215297
0.386653 0.242736 0.224197
0.383387 0.238513 0.232494
0.380009 0.233998 0.239913
0.376694 0.229329 0.246187
0.373604 0.224642 0.251067
0.370888 0.22006 0.254322
0.368684 0.215697 0.255759
0.367114 0.211657 0.25552
0.366276 0.208032 0.254214
0.366321 0.204899 0.251839
0.367919 0.202313 0.248392
0.37121 0.200313 0.243895
0.376157 0.19892 0.238396
0.382684 0.198132 0.231973
0.390549 0.19793 0.224728
0.399338 0.19873 0.216773
0.408818 0.200586 0.208251
0.418772 0.203287 0.201593
0.429091 0.206698 0.201593
0.439571 0.210601 0.201593
0.449946 0.214762 0.201593
0.460005 0.218946 0.201593
0.469559 0.22294 0.201593
0.478376 0.226547 0.201593
0.486198 0.229592 0.201593
0.492764 0.231932 0.201593
0.497828 0.23345 0.201593
0.501166 0.234085 0.201593
0.502618 0.233946 0.201593
0.502368 0.233336 0.201593
0.501072 0.232266 0.201593
0.498761 0.230761 0.201593
0.495469 0.228854 0.201593
0.491278 0.226591 0.201593
0.486311 0.224027 0.201593
0.480712 0.221219 0.201593
0.47463 0.218248 0.201593
0.468219 0.215201 0.201593
0.461619 0.212172 0.201593
0.454965 0.211429 0.201593
0.448393 0.211429 0.201593
0.442044 0.211429 0.201593
0.436064 0.211429 0.201593
0.430591 0.211429 0.205091
0.425754 0.211429 0.218399
0.42167 0.211429 0.230428
0.418435 0.211429 0.240973
0.416118 0.211429 0.249875
0.414748 0.211429 0.257016
0.41431 0.211429 0.262322
0.415182 0.211429 0.265765
0.417616 0.211429 0.267366
0.421364 0.215106 0.267345
0.426119 0.223096 0.266429
0.431528 0.231796 0.264761
0.43721 0.241011 0.262434
0.442784 0.250517 0.259562
0.447871 0.260061 0.256268
0.452111 0.269371 0.252686
0.455176 0.278155 0.248955
0.456782 0.286111 0.245214
0.456822 0.292939 0.241597
0.455822 0.29835 0.238229
0.453785 0.302078 0.235222
0.450642 0.303891 0.235222
0.446335 0.303809 0.235222
0.440829 0.302535 0.235222
0.43411 0.300087 0.235222
0.426195 0.296441 0.235222
0.41713 0.2916 0.235222
0.406989 0.285594 0.235222
0.404296 0.278477 0.235222
0.404296 0.27021 0.235222
0.404296 0.260848 0.235222
0.404296 0.258465 0.236951
0.404296 0.258465 0.240388
0.404296 0.258465 0.243239
0.404296 0.258465 0.245259
0.404296 0.258465 0.246092
0.404296 0.258465 0.245778
0.404296 0.258465 0.244596
0.404296 0.258465 0.242383
0.404296 0.258465 0.24088
0.404296 0.258465 0.24088
0.404296 0.258465 0.24088
0.404296 0.258465 0.24088
0.403065 0.258465 0.24088
0.401011 0.258465 0.24088
0.401011 0.258465 0.24088
0.401011 0.258465 0.24088
0.400988 0.258465 0.24088
0.400988 0.258465 0.24088
0.400988 0.258465 0.24088
0.400988 0.258465 0.24088
0.400988 0.257342 0.24088
0.400988 0.256517 0.24088
0.400988 0.256326 0.24088
0.400988 0.256326 0.24088
0.400988 0.256326 0.24088
0.400988 0.256326 0.24088
0.400988 0.256326 0.238491
0.400988 0.256326 0.238491
0.400988 0.256326 0.238461
0.400988 0.256326 0.238461
0.400988 0.256326 0.238461
0.400988 0.256326 0.238415
0.400988 0.256326 0.238415
0.400988 0.256326 0.238415
0.400988 0.256326 0.238415
0.400988 0.256326 0.238415
0.400988 0.256326 0.238415
0.400988 0.256326 0.238415
0.400988 0.256326 0.238415
0.400988 0.256326 0.238415
0.400988 0.256326 0.238415
0.400988 0.256326 0.238415
0.400988 0.256326 0.238415
0.400988 0.256326 0.238415
0.400988 0.256326 0.238415
0.400988 0.256326 0.238415
0.400988 0.256326 0.238415
0.400988 0.256326 0.238415
0.400988 0.256326 0.238415
0.400988 0.256326 0.238415
0.400988 0.256323 0.238415
0.400988 0.256323 0.238415
0.400988 0.256323 0.238415
0.400988 0.256314 0.238415
0.400988 0.256314 0.238415
0.400988 0.256314 0.238415
0.400988 0.256314 0.238415
0.400988 0.256314 0.238415
0.400988 0.256314 0.238415
0.400988 0.256314 0.238415
0.400988 0.256314 0.238415
0.400988 0.256314 0.238415
0.400988 0.256314 0.238415
0.400988 0.256314 0.238415
0.400988 0.256314 0.238415
0.400988 0.256314 0.238415
0.400988 0.256314 0.238415
0.400988 0.256314 0.238415
0.400988 0.256314 0.238415
0.400988 0.256314 0.238415
0.400988 0.256314 0.238415
0.400988 0.25631 0.238415
0.40098 0.25631 0.238415
0.40098 0.25631 0.238415
0.40098 0.25631 0.238415
0.40098 0.25631 0.238415
0.40098 0.25631 0.238415
0.40098 0.25631 0.238415
0.40098 0.25631 0.238415
0.40098 0.25631 0.238415
0.40098 0.25631 0.238415
0.40098 0.25631 0.238415
0.40098 0.25631 0.238415
0.40098 0.25631 0.238415
0.40098 0.25631 0.238415
0.40098 0.25631 0.238415
0.40098 0.25631 0.238415
0.40098 0.25631 0.238415
0.40098 0.25631 0.238415
0.40098 0.25631 0.238415
0.40098 0.25631 0.238415
0.40098 0.25631 0.238415
0.40098 0.25631 0.238415
0.40098 0.25631 0.238415
0.40098 0.25631 0.238415
0.40098 0.25631 0.238415
0.40098 0.25631 0.238415
0.40098 0.25631 0.238415
0.40098 0.25631 0.238415
0.40098 0.25631 0.238415
0.40098 0.25631 0.238415
0.40098 0.25631 0.238415
0.40098 0.25631 0.238415
0.40098 0.25631 0.238415
0.40098 0.25631 0.238415
0.40098 0.25631 0.238415
0.40098 0.25631 0.238415
0.40098 0.25631 0.238415
0.40098 0.25631 0.238415
0.40098 0.25631 0.238415
0.40098 0.25631 0.238415
0.40098 0.25631 0.238415
0.40098 0.25631 0.238415
0.40098 0.25631 0.238415
0.40098 0.25631 0.238415
0.40098 0.25631 0.238415
0.40098 0.25631 0.238415
0.40098 0.25631 0.238415
0.40098 0.25631 0.238415
0.40098 0.25631 0.238415
0.40098 0.25631 0.238415
0.40098 0.25631 0.238415
0.40098 0.25631 0.238415
0.40098 0.25631 0.238415
0.40098 0.25631 0.238415
0.40098 0.25631 0.238415
0.40098 0.25631 0.238415
0.40098 0.25631 0.238415
0.40098 0.25631 0.238415
0.40098 0.25631 0.238415
0.40098 0.25631 0.238415
0.40098 0.25631 0.238415
0.40098 0.25631 0.238415
0.40098 0.25631 0.238415
0.40098 0.25631 0.238415
0.40098 0.25631 0.238415
0.40098 0.25631 0.238415
0.40098 0.25631 0.238415
0.40098 0.25631 0.238415
0.40098 0.25631 0.238415
0.40098 0.25631 0.238415
0.40098 0.25631 0.238415
0.40098 0.25631 0.238415
0.40098 0.25631 0.238415
0.40098 0.25631 0.238415
0.40098 0.25631 0.238415
0.409236 0.25631 0.238415
0.41916 0.25631 0.238415
0.427759 0.25631 0.238415
0.435009 0.25631 0.238415
0.440926 0.25631 0.238415
0.445534 0.25631 0.238415
0.44888 0.25631 0.238415
0.45106 0.25631 0.238415
0.452203 0.25631 0.238415
0.452463 0.25631 0.238415
0.45224 0.25631 0.238415
0.451776 0.25631 0.238415
0.451135 0.25631 0.238415
0.450461 0.25631 0.238415
0.449836 0.25631 0.238415
0.449375 0.25631 0.238415
0.449179 0.25631 0.238415
0.449516 0.25631 0.238415
0.450761 0.25631 0.238415
0.453064 0.25631 0.242408
0.456544 0.25631 0.245512
0.461271 0.25631 0.247694
0.467278 0.25631 0.248923
0.474555 0.25631 0.249168
0.483065 0.25631 0.248696
0.492741 0.25631 0.247664
0.503478 0.25631 0.246122
0.51516 0.25631 0.244132
0.52764 0.25631 0.244132
0.540758 0.25631 0.244132
0.554345 0.25631 0.244132
0.568221 0.25631 0.244132
0.582161 0.266563 0.244132
0.595772 0.277078 0.244132
0.609017 0.28759 0.244132
0.621725 0.297931 0.244132
0.633781 0.307931 0.244132
0.64504 0.317424 0.244132
0.655357 0.326265 0.244132
0.66461 0.334332 0.244132
0.672766 0.341514 0.244132
0.678577 0.347966 0.244132
0.683008 0.353643 0.244132
0.685854 0.358186 0.244132
0.687019 0.361893 0.244132
0.686813 0.364604 0.244132
0.685809 0.366392 0.244132
0.684065 0.367255 0.244132
0.681644 0.367341 0.255554
0.678654 0.366893 0.265915
0.675209 0.366061 0.276883
0.671359 0.365042 0.2881
0.667268 0.363793 0.299229
0.663001 0.36246 0.310003
0.658698 0.361048 0.320368
0.654462 0.359633 0.330196
0.650403 0.358273 0.339288
0.646614 0.357027 0.347392
0.64315 0.355942 0.354312
0.639825 0.355097 0.359938
0.636672 0.354517 0.364214
0.633682 0.354204 0.367105
0.630832 0.354181 0.368537
0.628105 0.354599 0.36854
0.625493 0.355384 0.36761
0.622993 0.356393 0.365874
0.620587 0.357484 0.363404
0.618241 0.358494 0.360262
0.615902 0.359258 0.35651
0.613503 0.359589 0.352231
0.610972 0.359446 0.347528
0.608239 0.358907 0.34251
0.605234 0.357892 0.337275
0.601876 0.35633 0.331909
0.598082 0.354159 0.326491
0.59378 0.351329 0.321102
0.588917 0.347804 0.315816
0.583466 0.343557 0.310693
0.577422 0.338576 0.306985
0.570796 0.332866 0.306985
0.563608 0.326448 0.306985
0.555885 0.319359 0.306985
0.547655 0.317488 0.306985
0.547655 0.317488 0.306985
0.547655 0.317488 0.306985
0.547655 0.317488 0.306985
0.547655 0.317488 0.306985
0.547655 0.317488 0.306985
0.547655 0.317488 0.306985
0.547655 0.317488 0.306985
0.547655 0.317488 0.306985
0.547655 0.317488 0.306985
0.547655 0.317488 0.306985
0.547655 0.317488 0.306985
0.547655 0.317488 0.306985
0.547655 0.317488 0.306985
0.547655 0.317488 0.306985
0.547655 0.317488 0.306985
0.547655 0.317488 0.306985
0.547655 0.317488 0.306985
0.547655 0.317488 0.306985
0.547655 0.317488 0.306985
0.547655 0.317488 0.306985
0.547655 0.317488 0.306985
0.547655 0.317488 0.306985
0.547655 0.317488 0.306985
0.547655 0.317488 0.306985
0.547655 0.316891 0.306985
0.547655 0.31646 0.306985
0.547655 0.316367 0.306985
0.547655 0.316109 0.306102
0.547655 0.315603 0.306102
0.547655 0.315447 0.306102
0.547655 0.315447 0.306102
0.547655 0.315447 0.306102
0.547655 0.315447 0.306086
0.547655 0.315447 0.306086
0.547655 0.315447 0.306086
0.547655 0.315447 0.306086
0.547655 0.315447 0.306086
0.546453 0.315447 0.306086
0.546453 0.315447 0.306086
0.546453 0.315447 0.306086
0.546453 0.315447 0.306086
0.546453 0.315447 0.306086
0.546453 0.315447 0.306086
0.546453 0.314683 0.306086
0.546453 0.314683 0.306086
0.546453 0.314683 0.306086
0.546453 0.314683 0.306086
0.546453 0.314683 0.306086
0.546453 0.314683 0.306086
0.546453 0.314683 0.306086
0.546453 0.314683 0.306086
0.546453 0.314683 0.306086
0.546453 0.314683 0.306086
0.546453 0.314683 0.306086
0.546453 0.314683 0.306086
0.545675 0.314683 0.306086
0.545675 0.314683 0.306086
0.545675 0.314683 0.306086
0.545675 0.314683 0.306086
0.545675 0.314683 0.306086
0.545663 0.314683 0.306086
0.545663 0.314683 0.306086
0.545663 0.314683 0.306086
0.545663 0.314683 0.306086
0.545663 0.314683 0.306086
0.545663 0.314683 0.306086
0.545663 0.314683 0.306086
0.545663 0.314683 0.306086
0.545663 0.314683 0.306086
0.545663 0.314683 0.306086
0.545663 0.314683 0.306086
0.545663 0.314683 0.306086
0.545663 0.314683 0.306086
0.545663 0.314683 0.306086
0.545663 0.314683 0.306086
0.545663 0.314683 0.306086
0.545663 0.314683 0.306086
0.545663 0.314683 0.306086
0.545663 0.314683 0.306086
0.545663 0.314683 0.306086
0.545663 0.314683 0.306086
0.545663 0.314683 0.306086
0.545663 0.314683 0.306086
0.545663 0.314683 0.306086
0.545663 0.314683 0.306086
0.545663 0.314683 0.306086
0.545663 0.314683 0.306086
0.545663 0.314683 0.306086
0.545663 0.314683 0.306086
0.545663 0.314683 0.306086
0.545663 0.314683 0.306086
0.545663 0.314683 0.306086
0.545663 0.314683 0.306086
0.545663 0.314683 0.306086
0.545663 0.314564 0.306086
0.545663 0.314564 0.306086
0.545663 0.314564 0.306086
0.545663 0.314564 0.306086
0.545663 0.314564 0.306086
0.545663 0.314564 0.306086
0.545663 0.314564 0.306086
0.545663 0.314564 0.306086
0.545663 0.314564 0.306086
0.545663 0.314564 0.306086
0.545663 0.314564 0.306086
0.545663 0.314564 0.306086
0.545663 0.314564 0.306086
0.545663 0.314564 0.306086
0.545663 0.314564 0.306086
0.545663 0.314564 0.306086
0.545663 0.314564 0.306086
0.545663 0.314564 0.306086
0.545663 0.314564 0.306086
0.545663 0.314564 0.306086
0.545663 0.314564 0.306086
0.545663 0.314564 0.306086
0.545663 0.314564 0.306086
0.545663 0.314564 0.306086
0.545663 0.314564 0.306086
0.545663 0.314564 0.306086
0.545663 0.314564 0.306086
0.545663 0.314564 0.306086
0.545663 0.314564 0.306086
0.545663 0.314564 0.306086
0.545663 0.314564 0.306086
0.545663 0.314564 0.306086
0.545663 0.314564 0.306086
0.545663 0.314564 0.306086
0.545663 0.314564 0.306086
0.545663 0.314564 0.306086
0.545663 0.314564 0.306086
0.545663 0.314564 0.306086
0.545663 0.314564 0.306086
0.545663 0.314564 0.306086
0.545663 0.314564 0.306086
0.545663 0.314564 0.306086
0.545663 0.314564 0.306086
0.545663 0.314564 0.306086
0.545663 0.314564 0.306086
0.545663 0.314564 0.306086
0.545663 0.314564 0.306086
0.545663 0.314564 0.306086
0.545663 0.314564 0.306086
0.545663 0.314564 0.306086
0.557713 0.314564 0.306086
0.568036 0.314564 0.306086
0.576639 0.314564 0.306086
0.583697 0.314564 0.306086
0.58945 0.314564 0.306086
0.594129 0.314564 0.306086
0.598001 0.314564 0.306086
0.601367 0.314564 0.306086
0.604507 0.314564 0.306086
0.60771 0.314564 0.306086
0.611259 0.314564 0.306086
0.615412 0.314564 0.306086
0.620404 0.314564 0.307167
0.626436 0.314564 0.31198
0.633665 0.314564 0.315756
0.6422 0.314564 0.318449
0.652084 0.314564 0.320044
0.663279 0.314564 0.320574
0.675675 0.314564 0.320285
0.689106 0.314564 0.319495
0.703348 0.324106 0.318295
0.718145 0.334208 0.316785
0.733216 0.344726 0.315086
0.748271 0.355484 0.313682
0.763033 0.366289 0.313682
0.777251 0.376939 0.313682
0.7907 0.387232 0.313682
0.80318 0.396976 0.313682
0.814512 0.406007 0.313682
0.824548 0.414191 0.313682
0.833166 0.421437 0.313682
0.840276 0.427696 0.313682
0.845835 0.432957 0.317068
0.849848 0.437249 0.323758
0.85237 0.440621 0.330856
0.853538 0.442946 0.338664
0.853524 0.44466 0.346951
0.852903 0.44575 0.355737
0.851781 0.446407 0.364703
0.850283 0.446747 0.373762
0.848308 0.446931 0.382699
0.845625 0.447407 0.391143
0.843342 0.447597 0.399005
0.841232 0.447961 0.40605
0.838963 0.448562 0.412184
0.836336 0.449569 0.417166
0.833388 0.450857 0.42095
0.830135 0.45241 0.423491
0.826592 0.454056 0.424807
0.822751 0.455553 0.424962
0.818621 0.456653 0.42437
0.814213 0.457112 0.423191
0.80953 0.456883 0.421503
0.804563 0.456067 0.419372
0.799283 0.454561 0.416868
0.793624 0.452289 0.414061
0.787492 0.449194 0.411005
0.780777 0.445252 0.407741
0.773388 0.440461 0.404295
0.765272 0.434836 0.400683
0.756425 0.428403 0.396912
0.746872 0.421204 0.392976
0.736648 0.413301 0.388855
0.725794 0.404769 0.384521
0.71436 0.395692 0.379944
0.702404 0.388101 0.375087
0.702404 0.388101 0.369915
0.702404 0.388101 0.369915
0.702404 0.388101 0.369915
0.702404 0.388101 0.369915
0.702404 0.388101 0.369915
0.702404 0.388101 0.369915
0.702404 0.388101 0.369915
0.702404 0.388101 0.369915
0.702404 0.388101 0.369915
0.702404 0.388101 0.369915
0.702404 0.388101 0.369915
0.702404 0.388101 0.369915
0.702404 0.388101 0.369915
0.702404 0.388101 0.369915
0.702404 0.388101 0.369915
0.702404 0.388101 0.369915
0.702404 0.388101 0.369915
0.702404 0.38694 0.369915
0.702404 0.385857 0.369915
0.702404 0.385857 0.369915
0.702404 0.385857 0.369915
0.70037 0.385857 0.369915
0.699652 0.385857 0.369021
0.699652 0.385857 0.369021
0.699652 0.385857 0.369021
0.699652 0.385857 0.369021
0.699652 0.385857 0.369021
0.699652 0.385839 0.36901
0.699652 0.385839 0.36901
0.699652 0.385839 0.36901
0.699652 0.385839 0.36901
0.699652 0.385839 0.36901
0.699652 0.385839 0.36901
0.699652 0.385839 0.36901
0.699652 0.385839 0.36901
0.699652 0.385839 0.36901
0.699652 0.385839 0.36901
0.699652 0.385839 0.36901
0.699652 0.385839 0.36901
0.699652 0.385839 0.36901
0.699652 0.385839 0.36901
0.699652 0.385839 0.36901
0.699652 0.385839 0.36901
0.699652 0.385839 0.36901
0.699652 0.385839 0.36901
0.699652 0.385839 0.36901
0.699652 0.385839 0.36901
0.699652 0.385839 0.36901
0.699652 0.385839 0.36901
0.699652 0.385839 0.36901
0.699652 0.385839 0.36901
0.699652 0.385839 0.36901
0.699652 0.385839 0.36901
0.699652 0.385839 0.36901
0.699652 0.385839 0.36901
0.699652 0.385839 0.36901
0.699652 0.385839 0.36901
0.699652 0.385839 0.36901
0.699652 0.385839 0.36901
0.699652 0.385839 0.36901
0.699652 0.385839 0.36901
0.699652 0.385839 0.36901
0.699652 0.385839 0.36901
0.699652 0.385839 0.36901
0.699652 0.385839 0.36901
0.699652 0.385839 0.36901
0.699652 0.385839 0.36901
0.699652 0.385839 0.36901
0.699652 0.385839 0.36901
0.699652 0.385839 0.36901
0.699652 0.385839 0.36901
0.699652 0.385839 0.36901
0.699652 0.385839 0.36901
0.699652 0.385839 0.36901
0.699652 0.385839 0.36901
0.699652 0.385839 0.36901
0.699652 0.385839 0.36901
0.699652 0.385839 0.36901
0.699652 0.385839 0.36901
0.699652 0.385839 0.36901
0.699652 0.385839 0.36901
0.699652 0.385839 0.36901
0.699652 0.385839 0.36901
0.699652 0.385839 0.36901
0.699652 0.385839 0.36901
0.715086 0.385839 0.36901
0.734256 0.385839 0.36901
0.753087 0.385839 0.36901
0.771363 0.385839 0.36901
0.788905 0.385839 0.36901
0.805456 0.385839 0.36901
0.820919 0.385839 0.36901
0.835126 0.385839 0.36901
0.84799 0.395281 0.36901
0.85944 0.410489 0.36901
0.869461 0.425014 0.36901
0.878093 0.438818 0.36901
0.885432 0.451866 0.383573
0.891614 0.464148 0.401984
0.896798 0.475673 0.420353
0.901158 0.486447 0.438369
0.904859 0.496488 0.455749
0.908055 0.505822 0.472231
0.910894 0.514475 0.487551
0.913517 0.522463 0.501448
0.91606 0.529795 0.513699
0.918742 0.535975 0.517452
0.92183 0.539966 0.518902
0.924803 0.544523 0.519952
0.928249 0.548455 0.519895
0.931826 0.55215 0.519543
0.93569 0.554986 0.519684
0.939737 0.557228 0.519185
0.943922 0.558603 0.517474
0.948043 0.559091 0.514597
0.95195 0.558841 0.51093
0.955393 0.558141 0.506603
0.957891 0.557016 0.501495
0.959286 0.555412 0.495659
0.959448 0.553301 0.489345
0.958822 0.550648 0.482774
0.957503 0.547419 0.476
0.955487 0.543577 0.469077
0.952781 0.539116 0.462152
0.949388 0.534041 0.45539
0.945305 0.528372 0.448864
0.940526 0.522154 0.445071
0.935034 0.515455 0.445071
0.928812 0.508358 0.445071
0.921833 0.500956 0.445071
0.914076 0.493351 0.445071
0.905543 0.485644 0.445071
0.896291 0.47792 0.445071
0.886417 0.473307 0.445071
0.876048 0.473307 0.445071
0.865316 0.473307 0.445071
0.854357 0.473307 0.445071
0.843297 0.473307 0.445071
0.832256 0.473307 0.445071
0.832256 0.473307 0.445071
0.832256 0.473307 0.445071
0.832256 0.473307 0.445071
0.832256 0.473307 0.445071
0.832256 0.473307 0.445071
0.832256 0.473307 0.445071
0.832256 0.473307 0.445071
0.832256 0.473307 0.445071
0.832256 0.473307 0.445071
0.832256 0.473307 0.445071
0.832256 0.473307 0.445071
0.832256 0.473307 0.445071
0.832256 0.473307 0.445071
0.832256 0.473307 0.445071
0.832256 0.473307 0.445071
0.832256 0.473307 0.445071
0.832256 0.473307 0.445071
0.832256 0.473307 0.445071
0.832256 0.473307 0.445071
0.832256 0.473307 0.445071
0.832256 0.473307 0.445071
0.832256 0.473307 0.445071
0.832256 0.473307 0.445071
0.832256 0.473307 0.445071
0.832256 0.473307 0.445071
0.832256 0.473307 0.445071
0.832256 0.473307 0.445071
0.832256 0.473307 0.445071
0.832256 0.473307 0.445071
0.832256 0.473307 0.445071
0.832256 0.473307 0.445071
0.832256 0.473307 0.445071
0.832256 0.473307 0.445071
0.832256 0.473307 0.445071
0.832256 0.473307 0.445071
0.832256 0.473307 0.445071
0.832256 0.473307 0.445071
0.832256 0.473307 0.445071
0.832256 0.473307 0.445071
0.832256 0.473307 0.445071
0.832256 0.473307 0.445071
0.832256 0.473307 0.445071
0.832256 0.473307 0.445071
0.832256 0.473307 0.445071
0.832256 0.473307 0.445071
0.832256 0.473307 0.445071
0.832256 0.473307 0.445071
0.832256 0.473307 0.445071
0.832256 0.473307 0.445071
0.832256 0.473307 0.445071
0.832256 0.473307 0.445071
0.832256 0.473307 0.445071
0.832256 0.473307 0.445071
0.832256 0.473307 0.445071
0.832256 0.473307 0.445071
0.832256 0.473307 0.445071
0.832256 0.473307 0.445071
0.832256 0.473307 0.445071
0.832256 0.473307 0.445071
0.832256 0.473307 0.445071
0.832256 0.473307 0.445071
0.832256 0.473307 0.445071
0.832256 0.473307 0.445071
0.832256 0.473307 0.445071
0.832256 0.473307 0.445071
0.832256 0.473307 0.445071
0.832256 0.473307 0.445071
0.832256 0.473307 0.445071
0.832256 0.473307 0.445071
0.832256 0.473307 0.445071
0.832256 0.473307 0.445071
0.832256 0.473307 0.445071
0.832256 0.473307 0.445071
0.832256 0.473307 0.445071
0.832256 0.473307 0.445071
0.832256 0.473307 0.445071
0.832256 0.473307 0.445071
0.832256 0.473307 0.445071
0.832256 0.473307 0.445071
0.832256 0.473307 0.445071
0.832256 0.473307 0.445071
0.832256 0.473307 0.445071
0.832256 0.473307 0.445071
0.832256 0.473307 0.445071
0.832256 0.473307 0.445071
0.832256 0.473307 0.445071
0.832256 0.473307 0.445071
0.832256 0.473307 0.445071
0.832256 0.473307 0.445071
0.832256 0.473307 0.445071
0.832256 0.473307 0.445071
0.832256 0.473307 0.445071
0.832256 0.473307 0.445071
0.832256 0.473307 0.445071
0.832256 0.473307 0.445071
0.832256 0.473307 0.445071
0.832256 0.473307 0.445071
0.832256 0.473307 0.445071
0.832256 0.473307 0.445071
0.832256 0.473307 0.445071
0.832256 0.473307 0.445071
0.832256 0.473307 0.445071
0.832256 0.473307 0.445071
0.832256 0.473307 0.445071
0.832256 0.473307 0.445071
0.832256 0.473307 0.445071
0.832256 0.473307 0.445071
0.832256 0.473307 0.445071
0.832256 0.473307 0.445071
0.832256 0.473307 0.445071
0.832256 0.473307 0.445071
0.832256 0.473307 0.445071
0.832256 0.473307 0.445071
0.832256 0.473307 0.445071
0.832256 0.473307 0.445071
0.832256 0.473307 0.445071
0.832256 0.473307 0.445071
0.832256 0.473307 0.445071
0.832256 0.473307 0.445071
0.832256 0.473307 0.445071
0.832256 0.473307 0.445071
0.832256 0.473307 0.445071
0.832256 0.473307 0.445071
0.832256 0.473307 0.445071
0.832256 0.473307 0.445071
0.832256 0.473307 0.445071
0.832256 0.473307 0.445071
0.832256 0.473307 0.445071
0.832256 0.473307 0.445071
0.832256 0.473307 0.445071
0.832256 0.473307 0.445071
0.832256 0.473307 0.445071
0.832256 0.473307 0.445071
0.832256 0.473307 0.445071
0.832256 0.473307 0.445071
0.832256 0.473307 0.445071
0.832256 0.473307 0.445071
0.832256 0.473307 0.445071
0.832256 0.473307 0.445071
0.832256 0.473307 0.445071
0.832256 0.473307 0.445071
0.832256 0.473307 0.445071
0.832256 0.473307 0.445071
0.832256 0.473307 0.445071
0.832256 0.473307 0.445071
0.832256 0.473307 0.445071
0.832256 0.473307 0.445071
0.832256 0.473307 0.445071
0.832256 0.473307 0.445071
0.832256 0.473307 0.445071
0.832256 0.473307 0.445071
0.832256 0.473307 0.445071
0.832256 0.473307 0.445071
0.832256 0.473307 0.445071
0.832256 0.473307 0.445071
0.832256 0.473307 0.445071
0.832256 0.473307 0.445071
0.832256 0.473307 0.445071
0.832256 0.473307 0.445071
0.832256 0.473307 0.445071
0.832256 0.473307 0.445071
0.832256 0.473307 0.445071
0.832256 0.473307 0.445071
0.832256 0.473307 0.445071
0.832256 0.473307 0.445071
0.832256 0.473307 0.445071
0.832256 0.473307 0.445071
0.832256 0.473307 0.445071
0.832256 0.473307 0.445071
0.832256 0.473307 0.445071
0.832256 0.473307 0.445071
0.832256 0.473307 0.445071
0.832256 0.473307 0.445071
0.832256 0.473307 0.445071
0.832256 0.473307 0.445071
0.832256 0.473307 0.445071
0.832256 0.473307 0.445071
0.832256 0.473307 0.445071
0.832256 0.473307 0.445071
0.832256 0.473307 0.445071
0.832256 0.473307 0.445071
0.832256 0.473307 0.445071
0.832256 0.473307 0.445071
0.832256 0.473307 0.445071
0.830368 0.473307 0.445071
0.830368 0.473307 0.445071
0.830368 0.473307 0.445071
0.830368 0.473307 0.445071
0.82959 0.473307 0.445071
0.82959 0.473307 0.445071
0.82959 0.472515 0.445071
0.82959 0.472515 0.445071
0.82959 0.472515 0.445071
0.829585 0.472515 0.445071
0.829585 0.472515 0.445071
0.829585 0.472515 0.445071
0.829585 0.472469 0.445071
0.829585 0.472469 0.445071
0.829585 0.472469 0.445071
0.829585 0.472469 0.445071
0.829585 0.472469 0.445071
0.829585 0.472469 0.445071
0.829585 0.472469 0.445071
0.829585 0.472469 0.445071
0.829585 0.472469 0.445071
0.829585 0.472469 0.444655
0.829585 0.472469 0.444655
0.829585 0.472469 0.444655
0.829585 0.472469 0.444652
0.829585 0.472469 0.444652
0.829585 0.472469 0.444652
0.829585 0.472469 0.444652
0.829585 0.472469 0.444652
0.829585 0.472469 0.444652
0.829585 0.472469 0.444652
0.829585 0.472469 0.444652
0.829585 0.472469 0.444652
0.829585 0.472469 0.444652
0.829585 0.472469 0.444652
0.829585 0.472469 0.444652
0.829585 0.472469 0.444652
0.829585 0.472469 0.444652
0.829585 0.472469 0.444652
0.829585 0.472469 0.444652
0.829585 0.472469 0.444652
0.829585 0.472469 0.444652
0.829585 0.472469 0.455167
0.829585 0.472469 0.466633
0.829585 0.472469 0.476284
0.829585 0.472469 0.484121
0.829585 0.472469 0.489977
0.829585 0.472469 0.49374
0.829585 0.472469 0.495511
0.829585 0.472469 0.495533
0.829585 0.472469 0.494436
0.841637 0.472469 0.492405
0.857014 0.472469 0.489569
0.872509 0.480528 0.486083
0.88788 0.487688 0.482108
0.902898 0.493813 0.477802
0.917337 0.498803 0.473315
0.93096 0.502601 0.471503
0.943533 0.505184 0.471503
0.954845 0.506566 0.471503
0.964731 0.506824 0.471503
0.973096 0.50641 0.471503
0.979931 0.505511 0.471503
0.985328 0.504185 0.471503
0.989454 0.502496 0.471503
0.992519 0.500524 0.471503
0.99476 0.498357 0.471503
0.996414 0.496096 0.471503
0.997701 0.493854 0.471503
0.998829 0.491745 0.471503
0.999993 0.490232 0.471503
1.00138 0.490232 0.471503
1.00315 0.490232 0.471503
1.00544 0.490232 0.471503
1.00833 0.490232 0.471503
1.01186 0.490232 0.471503
1.01603 0.490232 0.471503
1.02079 0.493765 0.471503
1.026 0.499369 0.471503
1.03081 0.506379 0.471503
1.03505 0.514555 0.471503
1.03861 0.52367 0.471503
1.0414 0.533416 0.471503
1.04326 0.543441 0.471503
1.04403 0.553359 0.471503
1.04376 0.562839 0.471503
1.04273 0.571557 0.471503
1.04082 0.579225 0.471503
1.0379 0.585599 0.471503
1.03385 0.590493 0.477163
1.02854 0.593761 0.487325
1.02189 0.595297 0.498248
1.01384 0.59522 0.509714
1.00436 0.594168 0.521305
0.993516 0.59205 0.530837
0.981394 0.588948 0.54022
0.968132 0.58493 0.549107
0.953917 0.580039 0.556959
0.938944 0.574242 0.563713
0.938944 0.567592 0.569255
0.938944 0.560156 0.573218
0.938944 0.552008 0.575174
0.938944 0.543202 0.575057
0.938944 0.543202 0.573619
0.938944 0.543202 0.570535
0.938944 0.543202 0.565711
0.938944 0.543202 0.559202
0.938944 0.543202 0.550874
0.938944 0.543202 0.540898
0.938944 0.543202 0.529295
0.938944 0.543202 0.526791
0.938944 0.543202 0.526791
0.938944 0.543202 0.526791
0.938944 0.543202 0.526791
0.938944 0.543202 0.526791
0.938944 0.543202 0.526791
0.937347 0.543202 0.526791
0.937347 0.543202 0.526791
0.937347 0.543202 0.524176
0.937347 0.543202 0.524176
0.937347 0.543202 0.524176
0.937347 0.543202 0.524176
0.937347 0.543202 0.522102
0.937347 0.543202 0.522102
0.937347 0.543202 0.522102
0.937347 0.543202 0.522088
0.937347 0.543202 0.522082
0.937347 0.543202 0.522082
0.937347 0.543202 0.522082
0.937347 0.543202 0.522082
0.937347 0.543202 0.522082
0.937347 0.543202 0.522082
0.937347 0.543202 0.522082
0.937347 0.543202 0.522082
0.937347 0.543202 0.522082
0.937347 0.543202 0.522082
0.937347 0.54225 0.522082
0.936858 0.54225 0.522082
0.936856 0.54225 0.522082
0.936856 0.54225 0.522082
0.936856 0.54225 0.522082
0.936856 0.54225 0.522082
0.936856 0.54225 0.522082
0.936856 0.54225 0.522082
0.936856 0.54225 0.522082
0.936856 0.54225 0.522082
0.936856 0.54225 0.522082
0.936856 0.54225 0.522082
0.936856 0.54225 0.522082
0.936856 0.54225 0.522082
0.936856 0.54224 0.522082
0.936856 0.54224 0.522082
0.936856 0.54224 0.522082
0.936856 0.54224 0.522082
0.936856 0.54224 0.522082
0.936856 0.54224 0.522082
0.936856 0.54224 0.522082
0.936856 0.54224 0.522082
0.936856 0.54224 0.522082
0.936856 0.54224 0.522082
0.936856 0.54224 0.522082
0.936856 0.54224 0.522082
0.936856 0.54224 0.522082
0.936856 0.54224 0.522082
0.936856 0.54224 0.522082
0.936856 0.54224 0.522082
0.936856 0.54224 0.522082
0.936856 0.54224 0.522082
0.936856 0.54224 0.522082
0.936856 0.54224 0.522079
0.936856 0.54224 0.522079
0.936856 0.54224 0.522079
0.936856 0.54224 0.522079
0.936856 0.54224 0.522078
0.936856 0.54224 0.522078
0.936856 0.54224 0.522078
0.936856 0.54224 0.522078
0.936856 0.54224 0.522078
0.936856 0.54224 0.522078
0.936856 0.54224 0.522078
0.936856 0.54224 0.522078
0.936856 0.54224 0.522078
0.936856 0.54224 0.522078
0.936856 0.54224 0.522078
0.936856 0.54224 0.522078
0.936856 0.54224 0.522078
0.936856 0.54224 0.522078
0.936856 0.54224 0.522078
0.936856 0.54224 0.522078
0.936856 0.54224 0.522078
0.936856 0.54224 0.522078
0.936856 0.54224 0.522078
0.936856 0.54224 0.522078
0.936856 0.54224 0.522078
0.936856 0.54224 0.522078
0.936856 0.54224 0.522078
0.936856 0.54224 0.522078
0.936856 0.54224 0.522078
0.936856 0.54224 0.522078
0.936856 0.54224 0.522078
0.936856 0.54224 0.522078
0.936856 0.54224 0.522078
0.936856 0.54224 0.522078
0.936856 0.54224 0.522078
0.936856 0.54224 0.522078
0.936856 0.54224 0.522078
0.936856 0.54224 0.522078
0.936856 0.54224 0.522078
0.936856 0.54224 0.522078
0.936856 0.54224 0.522078
0.936856 0.54224 0.522078
0.936856 0.54224 0.522078
0.936856 0.54224 0.522078
0.936856 0.54224 0.522078
0.936856 0.54224 0.522078
0.936856 0.54224 0.522078
0.936856 0.54224 0.522078
0.936856 0.54224 0.522078
0.936856 0.54224 0.522078
0.936856 0.54224 0.522078
0.936856 0.54224 0.522078
0.936856 0.54224 0.522078
0.936856 0.54224 0.522078
0.936856 0.54224 0.522078
0.936856 0.54224 0.522078
0.936856 0.54224 0.522078
0.936856 0.54224 0.522078
0.936856 0.54224 0.522078
0.936856 0.54224 0.522078
0.936856 0.54224 0.522078
0.936856 0.54224 0.522078
0.936856 0.54224 0.522078
0.936856 0.54224 0.522078
0.936856 0.54224 0.522078
0.936856 0.54224 0.522078
0.936856 0.54224 0.522078
0.936856 0.54224 0.522078
0.936856 0.54224 0.522078
0.936856 0.54224 0.522078
0.936856 0.54224 0.522078
0.936856 0.54224 0.522078
0.936856 0.54224 0.522078
0.936856 0.54224 0.522078
0.936856 0.54224 0.522078
0.936856 0.54224 0.522078
0.936856 0.54224 0.522078
0.936856 0.54224 0.522078
0.936856 0.54224 0.522078
0.936856 0.54224 0.522078
0.936856 0.54224 0.522078
0.936856 0.54224 0.522078
0.936856 0.54224 0.522078
0.936856 0.54224 0.522078
0.936856 0.54224 0.522078
0.936856 0.54224 0.522078
0.936856 0.54224 0.522078
0.936856 0.54224 0.522078
0.936856 0.54224 0.522078
0.936856 0.54224 0.522078
0.936856 0.54224 0.522078
0.936856 0.54224 0.522078
0.936856 0.54224 0.522078
0.936856 0.54224 0.522078
0.936856 0.54224 0.522078
0.936856 0.54224 0.522078
0.936856 0.54224 0.522078
0.936856 0.54224 0.522078
0.936856 0.54224 0.522078
0.936856 0.54224 0.522078
0.936856 0.54224 0.522078
0.936856 0.54224 0.522078
0.936856 0.54224 0.522078
0.936856 0.54224 0.522078
0.936856 0.54224 0.522078
0.936856 0.545211 0.522078
0.936856 0.551135 0.522078
0.936856 0.557027 0.522078
0.936856 0.562877 0.522078
0.936856 0.568675 0.525132
0.936856 0.574422 0.528192
0.936856 0.580106 0.531252
0.936856 0.585703 0.53432
0.936856 0.591219 0.537396
0.936856 0.596624 0.540475
0.936856 0.601915 0.543545
0.936856 0.607076 0.546582
0.936856 0.612096 0.549578
0.936856 0.616958 0.552525
0.936856 0.621642 0.555415
0.936856 0.62614 0.558234
0.936856 0.630432 0.560968
0.936856 0.634499 0.563606
0.936856 0.638352 0.566126
0.936856 0.641971 0.568517
0.936856 0.645335 0.570772
0.936856 0.648442 0.572874
0.936856 0.651297 0.574809
0.936856 0.653895 0.576568
0.936856 0.656226 0.578138
0.936856 0.658284 0.579512
0.936856 0.660061 0.580685
0.936856 0.661559 0.581653
0.936856 0.662783 0.582409
0.936856 0.663727 0.582952
0.936856 0.664389 0.58328
0.936856 0.66477 0.582932
0.936856 0.664812 0.581162
0.936856 0.664566 0.578135
0.936856 0.664123 0.573951
0.936856 0.663498 0.568714
0.936856 0.661858 0.562598
0.936856 0.660459 0.555039
0.936856 0.657978 0.553003
0.936856 0.654816 0.553003
0.936856 0.651011 0.553003
0.936856 0.646592 0.553003
0.936856 0.641696 0.553003
0.936856 0.636239 0.553003
0.936856 0.630464 0.553003
0.936856 0.626761 0.553003
0.936856 0.622318 0.553003
0.936856 0.617597 0.553003
0.936856 0.613009 0.553003
0.936856 0.60758 0.553003
0.936856 0.604835 0.553003
0.936856 0.604835 0.553003
0.936856 0.604835 0.553003
0.936856 0.604835 0.553003
0.936856 0.604835 0.553003
0.936856 0.604835 0.553003
0.936856 0.604835 0.553003
0.936856 0.604835 0.553003
0.936856 0.604835 0.553003
0.936856 0.604835 0.553003
0.936856 0.604835 0.553003
0.936856 0.604835 0.553003
0.936856 0.604835 0.553003
0.936856 0.604835 0.553003
0.936856 0.604835 0.553003
0.936856 0.604835 0.553003
0.936856 0.604835 0.553003
0.936856 0.604835 0.553003
0.937512 0.604835 0.553003
0.939674 0.604835 0.553003
0.942061 0.604835 0.553003
0.944887 0.604835 0.553003
0.947586 0.604835 0.553003
0.950355 0.604835 0.553003
0.95317 0.604835 0.553003
0.955724 0.604835 0.553003
0.958084 0.604835 0.553003
0.960742 0.604835 0.553003
0.96322 0.604835 0.553003
0.9655 0.604835 0.553003
0.967615 0.604835 0.553003
0.96955 0.604835 0.553003
0.971244 0.604835 0.553003
0.972646 0.604835 0.553003
0.973821 0.604835 0.553003
0.974906 0.604835 0.553003
0.975695 0.604835 0.553003
0.976184 0.604835 0.553003
0.976244 0.604835 0.553003
0.975812 0.604835 0.553003
0.975003 0.604835 0.553003
0.973804 0.604835 0.553003
0.972188 0.604835 0.553003
0.97019 0.604835 0.553003
0.967805 0.610429 0.553003
0.965071 0.62159 0.553003
0.96202 0.632641 0.553003
0.958677 0.643507 0.553003
0.956917 0.654135 0.553003
0.956917 0.664603 0.553003
0.956917 0.674839 0.553003
0.956917 0.684884 0.553003
0.956917 0.694742 0.553003
0.956917 0.704377 0.553003
0.956917 0.712911 0.553003
0.956917 0.715589 0.553003
0.956917 0.719515 0.553003
0.956917 0.72269 0.553003
0.956917 0.725557 0.553003
0.956917 0.728477 0.553003
0.956917 0.731146 0.553003
0.956917 0.733807 0.556803
0.956917 0.736505 0.560268
0.956917 0.73889 0.563457
0.956917 0.741012 0.566383
0.956917 0.743062 0.569037
0.956917 0.744995 0.571464
0.956917 0.746745 0.573617
0.956917 0.748292 0.575435
0.956917 0.74962 0.576943
0.956917 0.75077 0.578177
0.956917 0.751762 0.579141
0.956917 0.752565 0.579832
0.956917 0.753142 0.580244
0.956917 0.753499 0.580082
0.956917 0.753621 0.578984
0.956917 0.753521 0.577114
0.956917 0.753275 0.574565
0.956917 0.752823 0.571449
0.956917 0.752224 0.567664
0.956917 0.751208 0.567664
0.956917 0.749587 0.567664
0.956917 0.747344 0.567664
0.956917 0.744388 0.567664
0.956917 0.740707 0.567664
0.956917 0.736407 0.567664
0.956917 0.731609 0.567664
0.956917 0.726529 0.567664
0.956917 0.721442 0.567664
0.956917 0.716179 0.567664
0.956917 0.711256 0.567664
0.956917 0.706021 0.567664
0.956917 0.69997 0.567664
0.956917 0.69423 0.567664
0.956917 0.688127 0.567664
0.956917 0.681877 0.567664
0.956917 0.680305 0.567664
0.956917 0.680305 0.567664
0.956917 0.680305 0.567664
0.956917 0.680305 0.567664
0.956917 0.680305 0.567664
0.956917 0.680305 0.567664
0.956917 0.680305 0.567664
0.956917 0.680305 0.567664
0.956917 0.680305 0.567664
0.956917 0.680305 0.567664
0.956917 0.680305 0.567664
0.956917 0.680305 0.567664
0.956917 0.680305 0.567664
0.956917 0.680305 0.567664
0.956917 0.680305 0.567664
0.956917 0.680305 0.567664
0.956917 0.680305 0.567664
0.956917 0.680305 0.567664
0.956917 0.680305 0.567664
0.956917 0.680305 0.567664
0.956917 0.680305 0.567664
0.956917 0.680305 0.567664
0.956917 0.680305 0.567664
0.956917 0.680305 0.567664
0.956917 0.680305 0.567664
0.956917 0.680305 0.567664
0.956917 0.680305 0.567664
0.956917 0.680305 0.567664
0.956917 0.680305 0.567664
0.956917 0.680305 0.567664
0.956917 0.680305 0.567664
0.956917 0.680305 0.567664
0.956917 0.680305 0.567664
0.956917 0.680305 0.567664
0.956917 0.680305 0.567664
0.956917 0.680305 0.567664
0.956917 0.680305 0.567664
0.956917 0.680305 0.567664
0.956917 0.680305 0.567664
0.956917 0.680305 0.567664
0.956917 0.680305 0.567664
0.956917 0.680305 0.567664
0.956917 0.680305 0.567664
0.956917 0.680305 0.567664
0.956917 0.680305 0.567664
0.956917 0.680305 0.567664
0.956917 0.680305 0.567664
0.956917 0.680305 0.567664
0.956917 0.680305 0.567664
0.956917 0.680305 0.567664
0.956917 0.680305 0.567664
0.956917 0.680305 0.567664
0.956917 0.680305 0.567664
0.956917 0.680305 0.567664
0.956917 0.680305 0.567664
0.956917 0.680305 0.567664
0.956917 0.680305 0.567664
0.956917 0.680305 0.567664
0.956917 0.680305 0.567664
0.956917 0.680305 0.567664
0.956917 0.685469 0.567664
0.956917 0.695728 0.567664
0.956917 0.705832 0.567664
0.956917 0.715725 0.567664
0.956917 0.72533 0.567664
0.956917 0.734527 0.567664
0.956917 0.74333 0.567664
0.956917 0.751663 0.567664
0.956917 0.75947 0.567664
0.956917 0.766714 0.567664
0.956917 0.773345 0.567664
0.956917 0.779351 0.567664
0.956917 0.784694 0.567664
0.956917 0.789354 0.567664
0.956917 0.793332 0.567664
0.956917 0.796598 0.567664
0.956917 0.79918 0.567664
0.956917 0.801081 0.567664
0.956917 0.802306 0.567664
0.956917 0.802885 0.567664
0.956917 0.802873 0.567664
0.956917 0.802503 0.567664
0.956917 0.801769 0.567664
0.956917 0.800641 0.567664
0.956917 0.79916 0.567664
0.956917 0.797327 0.567664
0.956917 0.795145 0.567664
0.956917 0.792663 0.567664
0.956917 0.790031 0.567664
0.956917 0.787327 0.567664
0.956917 0.784344 0.567664
0.956917 0.780975 0.567664
0.956917 0.777307 0.567664
0.956917 0.773475 0.567664
0.956917 0.769535 0.567664
0.956917 0.765426 0.567664
0.956917 0.761124 0.567664
0.956917 0.756723 0.567664
0.956917 0.753194 0.567664
0.956917 0.749861 0.567664
0.956917 0.746011 0.567664
0.956917 0.742476 0.567664
0.956917 0.742476 0.567664
0.956917 0.742476 0.567664
0.956917 0.742476 0.567664
0.956917 0.742476 0.567664
0.956917 0.742476 0.567664
0.956917 0.742476 0.567664
0.956917 0.742476 0.567664
0.956917 0.742476 0.567664
0.956917 0.742476 0.567664
0.956917 0.742476 0.567664
0.956917 0.742476 0.567664
0.956917 0.742476 0.567664
0.956917 0.742476 0.567664
0.956917 0.742476 0.567664
0.956917 0.742476 0.567664
0.956917 0.742476 0.567664
0.956917 0.742476 0.567664
0.956917 0.742476 0.567664
0.956917 0.742476 0.567664
0.956917 0.742476 0.567664
0.956917 0.742476 0.567664
0.956917 0.742476 0.567664
0.956917 0.742476 0.567664
0.956917 0.742476 0.567664
0.956917 0.742476 0.567664
0.956917 0.742476 0.567664
0.956917 0.742476 0.567664
0.956917 0.742476 0.567664
0.956917 0.742476 0.567664
0.956917 0.742476 0.567664
0.956917 0.742476 0.567664
0.956917 0.742476 0.567664
0.956917 0.742476 0.567664
0.956917 0.742476 0.567664
0.956917 0.742476 0.567664
0.956917 0.742476 0.567664
0.956917 0.742476 0.567664
0.956917 0.742476 0.567664
0.956917 0.742476 0.567664
0.956917 0.742476 0.567664
0.956917 0.742476 0.567664
0.956917 0.742476 0.567664
0.956917 0.742476 0.567664
0.956917 0.742476 0.567664
0.956917 0.742476 0.567664
0.956917 0.742476 0.567664
0.956917 0.742476 0.567664
0.956917 0.742476 0.567664
0.956917 0.742476 0.567664
0.956917 0.742476 0.567664
0.956917 0.742476 0.567664
0.956917 0.742476 0.567664
0.956917 0.742476 0.567664
0.956917 0.742476 0.567664
0.956917 0.742476 0.567664
0.956917 0.742476 0.567664
0.956917 0.742476 0.567664
0.956917 0.742476 0.567664
0.956917 0.742476 0.567664
0.956917 0.742476 0.567664
0.956917 0.742476 0.567664
0.956917 0.742476 0.567664
0.956917 0.742476 0.567664
0.956917 0.742476 0.567664
0.956917 0.742476 0.567664
0.956917 0.742476 0.567664
0.956917 0.742476 0.567664
0.956917 0.742476 0.567664
0.956917 0.742476 0.567664
0.956917 0.742476 0.567664
0.956917 0.742476 0.567664
0.956917 0.742476 0.567664
0.956917 0.742476 0.567664
0.956917 0.742476 0.567664
0.956917 0.742476 0.567664
0.956917 0.742476 0.567664
0.956917 0.742476 0.567664
0.956917 0.742476 0.567664
0.956917 0.742476 0.567664
0.956917 0.742476 0.567664
0.956917 0.742476 0.567664
0.956917 0.742476 0.567664
0.956917 0.742476 0.567664
0.956917 0.742476 0.567664
0.956917 0.742476 0.567664
0.956917 0.742476 0.567664
0.956917 0.742476 0.567664
0.956917 0.742476 0.567664
0.956917 0.742476 0.567664
0.956917 0.742476 0.567664
0.956917 0.742476 0.567664
0.956917 0.742476 0.567664
0.956917 0.742476 0.567664
0.956917 0.742476 0.567664
0.956917 0.742476 0.567664
0.956917 0.742476 0.567664
0.956917 0.742476 0.567664
0.956917 0.742476 0.567664
0.956917 0.742476 0.567664
0.956917 0.742476 0.567664
0.956917 0.742476 0.567664
0.956917 0.742476 0.567664
0.956917 0.742476 0.567664
0.956917 0.742476 0.567664
0.956917 0.742476 0.567664
0.956917 0.742476 0.567664
0.956917 0.742476 0.567664
0.956917 0.742476 0.567664
0.956917 0.742476 0.567664
0.956917 0.742476 0.567664
0.956917 0.742476 0.567664
0.956917 0.742476 0.567664
0.956917 0.742476 0.567664
0.956917 0.742476 0.567664
0.956917 0.742476 0.567664
0.956917 0.742476 0.567664
0.956917 0.744039 0.567664
0.956917 0.747093 0.567664
0.956917 0.750043 0.567664
0.956917 0.75288 0.567664
0.956917 0.755604 0.567664
0.956917 0.75821 0.567664
0.956917 0.760695 0.567664
0.956917 0.763058 0.567664
0.956917 0.765297 0.567664
0.956917 0.76742 0.567664
0.956917 0.76943 0.567664
0.956917 0.771329 0.567664
0.956917 0.773122 0.567664
0.956917 0.774807 0.567664
0.956917 0.776396 0.567664
0.956917 0.777895 0.567664
0.956917 0.779311 0.567664
0.956917 0.780651 0.567664
0.956917 0.781914 0.567664
0.956917 0.783109 0.567664
0.956917 0.784242 0.567664
0.956917 0.78532 0.567664
0.956917 0.78635 0.567664
0.956917 0.787332 0.567664
0.956917 0.788272 0.567664
0.956917 0.789165 0.567664
0.956917 0.789931 0.567664
0.956917 0.790584 0.567664
0.956917 0.791159 0.567664
0.956917 0.791647 0.567664
0.956917 0.792067 0.567664
0.956917 0.792429 0.567664
0.956917 0.792724 0.567664
0.956917 0.79296 0.567664
0.956917 0.793155 0.567664
0.956917 0.793308 0.567664
0.956917 0.793438 0.567664
0.956917 0.793547 0.567664
0.956917 0.793638 0.567664
0.959472 0.793718 0.567664
0.961803 0.793802 0.567664
0.963885 0.793892 0.567664
0.965687 0.793993 0.567664
0.967192 0.794107 0.567664
0.968388 0.794237 0.567664
0.969262 0.794391 0.567664
0.96981 0.794534 0.567664
0.970005 0.794495 0.567664
0.969893 0.794339 0.567664
0.969538 0.794011 0.567664
0.968903 0.793536 0.567664
0.967976 0.792971 0.567664
0.966769 0.792328 0.567664
0.965321 0.791623 0.567664
0.963712 0.790882 0.567664
0.963712 0.790155 0.567664
0.963712 0.789474 0.567664
0.963712 0.788864 0.567664
0.963712 0.788352 0.567664
0.963712 0.787977 0.567664
0.963712 0.787766 0.567664
0.963712 0.787715 0.567664
0.963712 0.787903 0.567664
0.963712 0.788409 0.567664
0.963712 0.789229 0.567664
0.963712 0.790382 0.567664
0.963712 0.791857 0.567664
0.963712 0.793615 0.567664
0.963712 0.795639 0.567664
0.963712 0.797868 0.567664
0.963712 0.800258 0.567664
0.963712 0.802733 0.567664
0.963712 0.805154 0.567664
0.963712 0.80724 0.567664
0.963712 0.809339 0.567664
0.963712 0.811392 0.567664
0.963712 0.811366 0.567664
0.963712 0.811683 0.567664
0.963712 0.811578 0.567664
0.963712 0.811471 0.567664
0.963712 0.811373 0.567664
0.963712 0.811145 0.567664
0.963712 0.81074 0.567664
0.963712 0.810019 0.567664
0.963712 0.808865 0.567664
0.963712 0.807312 0.567664
0.963712 0.805383 0.567664
0.963712 0.803261 0.567664
0.963712 0.800799 0.567664
0.963712 0.797902 0.567664
0.963712 0.794613 0.567664
0.963712 0.791232 0.567664
0.963712 0.787729 0.567664
0.963712 0.78393 0.567664
0.963712 0.780861 0.567664
0.963712 0.780861 0.567664
0.963712 0.780861 0.567664
0.963712 0.780861 0.567664
0.963712 0.780861 0.567664
0.963712 0.780861 0.567664
0.963712 0.780861 0.567664
0.963712 0.780861 0.567664
0.963712 0.780861 0.567664
0.963712 0.780861 0.567664
0.963712 0.780861 0.567664
0.963712 0.780861 0.567664
0.963712 0.780861 0.567664
0.963712 0.780861 0.567664
0.963712 0.780861 0.567664
0.963712 0.780861 0.567664
0.963712 0.780861 0.567664
0.963712 0.780861 0.567664
0.963712 0.780861 0.567664
0.963712 0.780861 0.567664
0.963712 0.780861 0.567664
0.963712 0.780861 0.567664
0.963712 0.780861 0.567664
0.963712 0.780861 0.567664
0.963712 0.780861 0.567664
0.963712 0.780861 0.567664
0.963712 0.780861 0.567664
0.963712 0.780861 0.567664
0.963712 0.780861 0.567664
0.963712 0.780861 0.567664
0.963712 0.780861 0.567664
0.963712 0.780861 0.567664
0.963712 0.780861 0.567664
0.963712 0.780861 0.567664
0.963712 0.780861 0.567664
0.963712 0.780861 0.567664
0.963712 0.780861 0.567664
0.963712 0.780861 0.567664
0.963712 0.780861 0.567664
0.963712 0.780861 0.567664
0.963712 0.780861 0.567664
0.963712 0.780861 0.567664
0.963712 0.780861 0.567664
0.963712 0.780861 0.567664
0.963712 0.780861 0.567664
0.963712 0.780861 0.567664
0.963712 0.780861 0.567664
0.963712 0.780861 0.567664
0.963712 0.780861 0.567664
0.963712 0.780861 0.567664
0.963712 0.780861 0.567664
0.963712 0.780861 0.567664
0.963712 0.780861 0.567664
0.963712 0.780861 0.567664
0.963712 0.780861 0.567664
0.963712 0.780861 0.567664
0.963712 0.780861 0.567664
0.963712 0.780861 0.567664
0.963712 0.780861 0.567664
0.963712 0.780861 0.567664
0.963712 0.780861 0.567664
0.963712 0.780861 0.567664
0.963712 0.780861 0.567664
0.963712 0.780861 0.567664
0.963712 0.780861 0.567664
0.963712 0.780861 0.567664
0.963712 0.780861 0.567664
0.963712 0.780861 0.567664
0.963712 0.780861 0.567664
0.963712 0.780861 0.567664
0.963712 0.780861 0.567664
0.963712 0.780861 0.567664
0.963712 0.780861 0.567664
0.963712 0.780861 0.567664
0.963712 0.780861 0.567664
0.963712 0.780861 0.567664
0.963712 0.780861 0.567664
0.963712 0.780861 0.567664
0.963712 0.780861 0.567664
0.963712 0.780861 0.567664
0.963712 0.780861 0.567664
0.963712 0.780861 0.567664
0.963712 0.780861 0.567664
0.963712 0.780861 0.567664
0.963712 0.780861 0.567664
0.963712 0.780861 0.567664
0.963712 0.780861 0.567664
0.963712 0.780861 0.567664
0.963712 0.780861 0.567664
0.963712 0.780861 0.567664
0.963712 0.780861 0.567664
0.963712 0.780861 0.567664
0.963712 0.780861 0.567664
0.963712 0.780861 0.567664
0.963712 0.780861 0.567664
0.963712 0.780861 0.567664
0.963712 0.780861 0.567664
0.963712 0.780861 0.567664
0.963712 0.780861 0.567664
0.963712 0.780861 0.567664
0.963712 0.780861 0.567664
0.963712 0.780861 0.567664
0.963712 0.780861 0.567664
0.963712 0.780861 0.567664
0.963712 0.780861 0.567664
0.963712 0.780861 0.567664
0.963712 0.780861 0.567664
0.963712 0.780861 0.567664
0.963712 0.780861 0.567664
0.963712 0.780861 0.567664
0.963712 0.780861 0.567664
0.963712 0.780861 0.567664
0.963712 0.780861 0.567664
0.963712 0.780861 0.567664
0.963712 0.780861 0.567664
0.963712 0.780861 0.567664
0.963712 0.780861 0.567664
0.963712 0.780861 0.567664
0.963712 0.780861 0.567664
0.963712 0.780861 0.567664
0.963712 0.780861 0.567664
0.963712 0.780861 0.567664
0.963712 0.780861 0.567664
0.963712 0.780861 0.567664
0.963712 0.780861 0.567664
0.963712 0.780861 0.567664
0.963712 0.780861 0.567664
0.963712 0.780861 0.567664
0.963712 0.780861 0.567664
0.963712 0.780861 0.567664
0.963712 0.780861 0.567664
0.963712 0.780861 0.567664
0.963712 0.780861 0.567664
0.963712 0.780861 0.567664
0.963712 0.780861 0.567664
0.963712 0.780861 0.567664
0.963712 0.780861 0.567664
0.963712 0.780861 0.567664
0.963712 0.780861 0.567664
0.963712 0.780861 0.567664
0.963712 0.780861 0.567664
0.963712 0.780861 0.567664
0.963712 0.780861 0.567664
0.963712 0.780861 0.567664
0.963712 0.780861 0.567664
0.963712 0.780861 0.567664
0.963712 0.780861 0.567664
0.963712 0.780861 0.567664
0.963712 0.780861 0.567664
0.963712 0.780861 0.567664
0.963712 0.780861 0.567664
0.963712 0.780861 0.567664
0.963712 0.780861 0.567664
0.963712 0.780861 0.567664
0.963712 0.780861 0.567664
0.963712 0.780861 0.567664
0.963712 0.780861 0.567664
0.963712 0.780861 0.567664
0.963712 0.780861 0.567664
0.963712 0.780861 0.567664
0.963712 0.780861 0.567664
0.963712 0.780861 0.567664
0.963712 0.780861 0.567664
0.963712 0.780861 0.567664
0.963712 0.780861 0.567664
0.963712 0.780861 0.567664
0.963712 0.780861 0.567664
0.963712 0.780861 0.567664
0.963712 0.780861 0.567664
0.963712 0.780861 0.567664
0.963712 0.780861 0.567664
0.963712 0.780861 0.567664
0.963712 0.780861 0.567664
0.963712 0.780861 0.567664
0.963712 0.780861 0.567664
0.963712 0.780861 0.567664
0.963712 0.780861 0.567664
0.963712 0.780861 0.567664
0.963712 0.780861 0.567664
0.963712 0.780861 0.567664
0.963712 0.780861 0.567664
0.963712 0.780861 0.567664
0.963712 0.780861 0.567664
0.963712 0.780861 0.567664
0.963712 0.780861 0.567664
0.963712 0.780861 0.567664
0.963712 0.780861 0.567664
0.963712 0.780861 0.567664
0.963712 0.780861 0.567664
0.963712 0.780861 0.567664
0.963712 0.780861 0.567664
0.963712 0.780861 0.567664
0.963712 0.780861 0.567664
0.963712 0.780861 0.567664
0.963712 0.780861 0.567664
0.963712 0.780861 0.567664
0.963712 0.780861 0.567664
0.963712 0.780861 0.567664
0.963712 0.780861 0.567664
0.963712 0.780861 0.567664
0.963712 0.780861 0.567664
0.963712 0.780861 0.567664
0.963712 0.780861 0.567664
0.963712 0.780861 0.567664
0.963712 0.780861 0.567664
0.963712 0.780861 0.567664
0.963712 0.780861 0.567664
0.963712 0.780861 0.567664
0.963712 0.780861 0.567664
0.963712 0.780861 0.567664
0.963712 0.780861 0.567664
0.963712 0.780861 0.567664
0.963712 0.780861 0.567664
0.963712 0.780861 0.567664
0.963712 0.780861 0.567664
0.963712 0.780861 0.567664
0.963712 0.780861 0.567664
0.963712 0.780861 0.567664
0.963712 0.780861 0.567664
0.963712 0.780861 0.567664
0.963712 0.780861 0.567664
0.963712 0.780861 0.567664
0.963712 0.780861 0.567664
0.963712 0.780861 0.567664
0.963712 0.780861 0.567664
0.963712 0.780861 0.567664
0.963712 0.780861 0.567664
0.963712 0.780861 0.567664
0.963712 0.780861 0.567664
0.963712 0.780861 0.567664
0.963712 0.780861 0.567664
0.963712 0.780861 0.567664
0.963712 0.780861 0.567664
0.963712 0.780861 0.567664
0.963712 0.780861 0.567664
0.963712 0.780861 0.567664
0.963712 0.780861 0.567664
0.963712 0.780861 0.567664
0.963712 0.780861 0.567664
0.963712 0.780861 0.567664
0.963712 0.780861 0.567664
0.963712 0.780861 0.567664
0.963712 0.780861 0.567664
0.963712 0.780861 0.567664
0.963712 0.780861 0.567664
0.963712 0.780861 0.567664
0.963712 0.780861 0.567664
0.963712 0.780861 0.567664
0.963712 0.780861 0.567664
0.963712 0.780861 0.567664
0.963712 0.780861 0.567664
0.963712 0.780861 0.567664
0.963712 0.780861 0.567664
0.963712 0.780861 0.567664
0.963712 0.780861 0.567664
0.963712 0.780861 0.567664
0.963712 0.780861 0.567664
0.963712 0.780861 0.567664
0.963712 0.780861 0.567664
0.963712 0.780861 0.567664
0.963712 0.780861 0.567664
0.963712 0.780861 0.567664
0.963712 0.780861 0.567664
0.963712 0.780861 0.567664
0.963712 0.780861 0.567664
0.963712 0.780861 0.567664
0.963712 0.780861 0.567664
0.963712 0.780861 0.567664
0.963712 0.780861 0.567664
0.963712 0.780861 0.567664
0.963712 0.780861 0.567664
0.963712 0.780861 0.567664
0.963712 0.780861 0.567664
0.963712 0.780861 0.567664
0.963712 0.780861 0.567664
0.963712 0.780861 0.567664
0.963712 0.780861 0.567664
0.963712 0.780861 0.567664
0.963712 0.780861 0.567664
0.963712 0.780861 0.567664
0.963712 0.780861 0.567664
0.963712 0.780861 0.567664
0.963712 0.780861 0.567664
0.963712 0.780861 0.567664
0.963712 0.780861 0.567664
0.963712 0.780861 0.567664
0.963712 0.780861 0.567664
0.963712 0.780861 0.567664
0.963712 0.780861 0.567664
0.963712 0.780861 0.567664
0.963712 0.780861 0.567664
0.963712 0.780861 0.567664
0.963712 0.780861 0.567664
0.963712 0.780861 0.567664
0.963712 0.780861 0.567664
0.963712 0.780861 0.567664
0.963712 0.780861 0.567664
0.963712 0.780861 0.567664
0.963712 0.780861 0.567664
0.963712 0.780861 0.567664
0.963712 0.780861 0.567664
0.963712 0.780861 0.567664
0.963712 0.780861 0.567664
0.963712 0.780861 0.567664
0.963712 0.780861 0.567664
0.963712 0.780861 0.567664
0.963712 0.780861 0.567664
0.963712 0.780861 0.567664
0.963712 0.780861 0.567664
0.963712 0.780861 0.567664
0.963712 0.780861 0.567664
0.963712 0.780861 0.567664
0.963712 0.780861 0.567664
0.963712 0.780861 0.567664
0.963712 0.780861 0.567664
0.963712 0.780861 0.567664
0.963712 0.780861 0.567664
0.963712 0.780861 0.567664
0.963712 0.780861 0.567664
0.963712 0.780861 0.567664
0.963712 0.780861 0.567664
0.963712 0.780861 0.567664
0.963712 0.780861 0.567664
0.963712 0.780861 0.567664
0.963712 0.780861 0.567664
0.963712 0.780861 0.567664
0.963712 0.780861 0.567664
0.963712 0.780861 0.567664
0.963712 0.780861 0.567664
0.963712 0.780861 0.567664
0.963712 0.780861 0.567664
0.963712 0.780861 0.567664
0.963712 0.780861 0.567664
0.963712 0.780861 0.567664
0.963712 0.780861 0.567664
0.963712 0.780861 0.567664
0.963712 0.780861 0.567664
0.963712 0.780861 0.567664
0.963712 0.780861 0.567664
0.963712 0.780861 0.567664
0.963712 0.780861 0.567664
0.963712 0.780861 0.567664
0.963712 0.780861 0.567664
0.963712 0.780861 0.567664
0.963712 0.780861 0.567664
0.963712 0.780861 0.567664
0.963712 0.780861 0.567664
0.963712 0.780861 0.567664
0.963712 0.780861 0.567664
0.963712 0.780861 0.567664
0.963712 0.780861 0.567664
0.963712 0.780861 0.567664
0.963712 0.780861 0.567664
0.963712 0.780861 0.567664
0.963712 0.780861 0.567664
0.963712 0.780861 0.567664
0.963712 0.780861 0.567664
0.963712 0.780861 0.567664
0.963712 0.780861 0.567664
0.963712 0.780861 0.567664
0.963712 0.780861 0.567664
0.963712 0.780861 0.567664
0.963712 0.780861 0.567664
0.963712 0.780861 0.567664
0.963712 0.780861 0.567664
0.963712 0.780861 0.567664
0.963712 0.780861 0.567664
0.963712 0.780861 0.567664
0.963712 0.780861 0.567664
0.963712 0.780861 0.567664
0.963712 0.780861 0.567664
0.963712 0.780861 0.567664
0.963712 0.780861 0.567664
0.963712 0.780861 0.567664
0.963712 0.780861 0.567664
0.963712 0.780861 0.567664
0.963712 0.780861 0.567664
0.963712 0.780861 0.567664
0.963712 0.780861 0.567664
0.963712 0.780861 0.567664
0.963712 0.780861 0.567664
0.963712 0.780861 0.567664
0.963712 0.780861 0.567664
0.963712 0.780861 0.567664
0.963712 0.780861 0.567664
0.963712 0.780861 0.567664
0.963712 0.780861 0.567664
0.963712 0.780861 0.567664
0.963712 0.780861 0.567664
0.963712 0.780861 0.567664
0.963712 0.780861 0.567664
0.963712 0.780861 0.567664
0.963712 0.780861 0.567664
0.963712 0.780861 0.567664
0.963712 0.780861 0.567664
0.963712 0.780861 0.567664
0.963712 0.780861 0.567664
0.963712 0.780861 0.567664
0.963712 0.780861 0.567664
0.963712 0.780861 0.567664
0.963712 0.780861 0.567664
0.963712 0.780861 0.567664
0.963712 0.780861 0.567664
0.963712 0.780861 0.567664
0.963712 0.780861 0.567664
0.963712 0.780861 0.567664
0.963712 0.780861 0.567664
0.963712 0.780861 0.567664
0.963712 0.780861 0.567664
0.963712 0.780861 0.567664
0.963712 0.780861 0.567664
0.963712 0.780861 0.567664
0.963712 0.780861 0.567664
0.963712 0.780861 0.567664
0.963712 0.780861 0.567664
0.963712 0.780861 0.567664
0.963712 0.780861 0.567664
0.963712 0.780861 0.567664
0.963712 0.780861 0.567664
0.963712 0.780861 0.567664
0.963712 0.780861 0.567664
0.963712 0.780861 0.567664
0.963712 0.780861 0.567664
0.963712 0.780861 0.567664
0.963712 0.780861 0.567664
0.963712 0.780861 0.567664
0.963712 0.780861 0.567664
0.963712 0.780861 0.567664
0.963712 0.780861 0.567664
0.963712 0.780861 0.567664
0.963712 0.780861 0.567664
0.963712 0.780861 0.567664
0.963712 0.780861 0.567664
0.963712 0.780861 0.567664
0.963712 0.780861 0.567664
0.963712 0.780861 0.567664
0.963712 0.780861 0.567664
0.963712 0.780861 0.567664
0.963712 0.780861 0.567664
0.963712 0.780861 0.567664
0.963712 0.780861 0.567664
0.963712 0.780861 0.567664
0.963712 0.780861 0.567664
0.963712 0.780861 0.567664
0.963712 0.780861 0.567664
0.963712 0.780861 0.567664
0.963712 0.780861 0.567664
0.963712 0.780861 0.567664
0.963712 0.780861 0.567664
0.963712 0.780861 0.567664
0.963712 0.780861 0.567664
0.963712 0.780861 0.567664
0.963712 0.780861 0.567664
0.963712 0.780861 0.567664
0.963712 0.780861 0.567664
0.963712 0.780861 0.567664
0.963712 0.780861 0.567664
0.963712 0.780861 0.567664
0.963712 0.780861 0.567664
0.963712 0.780861 0.567664
0.963712 0.780861 0.567664
0.963712 0.780861 0.567664
0.963712 0.780861 0.567664
0.963712 0.780861 0.567664
0.963712 0.780861 0.567664
0.963712 0.780861 0.567664
0.963712 0.780861 0.567664
0.963712 0.780861 0.567664
0.963712 0.780861 0.567664
0.963712 0.780861 0.567664
0.963712 0.780861 0.567664
0.963712 0.780861 0.567664
0.963712 0.780861 0.567664
0.963712 0.780861 0.567664
0.963712 0.780861 0.567664
0.963712 0.780861 0.567664
0.963712 0.780861 0.567664
0.963712 0.780861 0.567664
0.963712 0.780861 0.567664
0.963712 0.780861 0.567664
0.963712 0.780861 0.567664
0.963712 0.780861 0.567664
0.963712 0.780861 0.567664
0.963712 0.780861 0.567664
0.963712 0.780861 0.567664
0.963712 0.780861 0.567664
0.963712 0.780861 0.567664
0.963712 0.780861 0.567664
0.963712 0.780861 0.567664
0.963712 0.780861 0.567664
0.963712 0.780861 0.567664
0.963712 0.780861 0.567664
0.963712 0.780861 0.567664
0.963712 0.780861 0.567664
0.963712 0.780861 0.567664
0.963712 0.780861 0.567664
0.963712 0.780861 0.567664
0.963712 0.780861 0.567664
0.963712 0.780861 0.567664
0.963712 0.780861 0.567664
0.963712 0.780861 0.567664
0.963712 0.780861 0.567664
0.963712 0.780861 0.567664
0.963712 0.780861 0.567664
0.963712 0.780861 0.567664
0.963712 0.780861 0.567664
0.963712 0.780861 0.567664
0.963712 0.780861 0.567664
0.963712 0.780861 0.567664
0.963712 0.780861 0.567664
0.963712 0.780861 0.567664
0.963712 0.780861 0.567664
0.963712 0.780861 0.567664
0.963712 0.780861 0.567664
0.963712 0.780861 0.567664
0.963712 0.780861 0.567664
0.963712 0.780861 0.567664
0.963712 0.780861 0.567664
0.963712 0.780861 0.567664
0.963712 0.780861 0.567664
0.963712 0.780861 0.567664
0.963712 0.780861 0.567664
0.963712 0.780861 0.567664
0.963712 0.780861 0.567664
0.963712 0.780861 0.567664
0.963712 0.780861 0.567664
0.963712 0.780861 0.567664
0.963712 0.780861 0.567664
0.963712 0.780861 0.567664
0.963712 0.780861 0.567664
0.963712 0.780861 0.567664
0.963712 0.780861 0.567664
0.963712 0.780861 0.567664
0.963712 0.780861 0.567664
0.963712 0.780861 0.567664
0.963712 0.780861 0.567664
0.963712 0.780861 0.567664
0.963712 0.780861 0.567664
0.963712 0.780861 0.567664
0.963712 0.780861 0.567664
0.963712 0.781837 0.567664
0.963712 0.783787 0.567664
0.963712 0.785734 0.567664
0.963712 0.787667 0.567664
0.963712 0.789589 0.567664
0.963712 0.791497 0.567664
0.963712 0.793382 0.567664
0.963712 0.795244 0.567664
0.963712 0.797079 0.567664
0.963712 0.798883 0.567664
0.963712 0.800654 0.567664
0.963712 0.802386 0.567664
0.963712 0.804077 0.567664
0.963712 0.805722 0.567664
0.963712 0.807319 0.567664
0.963712 0.808866 0.567664
0.963712 0.810355 0.567664
0.963712 0.811785 0.567664
0.963712 0.813147 0.567664
0.963712 0.814396 0.567664
0.963712 0.815521 0.567664
0.963712 0.816676 0.567664
0.963712 0.817711 0.567664
0.963712 0.818611 0.567664
0.963712 0.819471 0.567664
0.963712 0.820273 0.567664
0.963712 0.820967 0.567664
0.963712 0.821584 0.567664
0.963712 0.82213 0.567664
0.963712 0.822578 0.567664
0.963712 0.822916 0.567664
0.963712 0.823148 0.567664
0.963712 0.823279 0.567664
0.963712 0.82332 0.567664
0.963712 0.823296 0.567664
0.963712 0.823028 0.567664
0.963712 0.822548 0.567664
0.963712 0.821649 0.567664
0.963712 0.820418 0.567664
0.963712 0.818882 0.567664
0.963712 0.817076 0.567664
0.963712 0.815025 0.567664
0.963712 0.812774 0.567664
0.963712 0.810556 0.567664
0.963712 0.80837 0.567664
0.963712 0.805994 0.567664
0.963712 0.803364 0.567664
0.963712 0.802673 0.567664
0.963712 0.802673 0.567664
0.963712 0.802673 0.567664
0.963712 0.802673 0.567664
0.963712 0.802673 0.567664
0.963712 0.802673 0.567664
0.963712 0.802673 0.567664
0.963712 0.802673 0.567664
0.963712 0.802673 0.567664
0.963712 0.802673 0.567664
0.963712 0.802673 0.567664
0.963712 0.802673 0.567664
0.963712 0.802673 0.567664
0.963712 0.802673 0.567664
0.963712 0.802673 0.567664
0.963712 0.802673 0.567664
0.963712 0.802673 0.567664
0.963712 0.802673 0.567664
0.963712 0.802673 0.567664
0.963712 0.802673 0.567664
0.963712 0.802673 0.567664
0.963712 0.802673 0.567664
0.963712 0.802673 0.567664
0.963712 0.802673 0.567664
0.963712 0.802673 0.567664
0.963712 0.802673 0.567664
0.963712 0.802673 0.567664
0.963712 0.802673 0.567664
0.963712 0.802673 0.567664
0.963712 0.802673 0.567664
0.963712 0.802673 0.567664
0.963712 0.802673 0.567664
0.963712 0.802673 0.567664
0.963712 0.802673 0.567664
0.963712 0.802673 0.567664
0.963712 0.802673 0.567664
0.963712 0.802673 0.567664
0.963712 0.802673 0.567664
0.963712 0.802673 0.567664
0.963712 0.802673 0.567664
0.963712 0.802673 0.567664
0.963712 0.802673 0.567664
0.963712 0.802673 0.567664
0.963712 0.802673 0.567664
0.963712 0.802673 0.567664
0.963712 0.802673 0.567664
0.963712 0.802673 0.567664
0.963712 0.802673 0.567664
0.963712 0.802673 0.567664
0.963712 0.802673 0.567664
0.963712 0.802673 0.567664
0.963712 0.802673 0.567664
0.963712 0.802673 0.567664
0.963712 0.802673 0.567664
0.963712 0.802673 0.567664
0.963712 0.802673 0.567664
0.963712 0.802673 0.567664
0.963712 0.802673 0.567664
0.963712 0.802673 0.567664
0.963712 0.802673 0.567664
0.963712 0.802673 0.567664
0.963712 0.802673 0.567664
0.963712 0.802673 0.567664
0.963712 0.802673 0.567664
0.963712 0.802673 0.567664
0.963712 0.802673 0.567664
0.963712 0.802673 0.567664
0.963712 0.802673 0.567664
0.963712 0.802673 0.567664
0.963712 0.802673 0.567664
0.963712 0.802673 0.567664
0.963712 0.802673 0.567664
0.963712 0.802673 0.567664
0.963712 0.802673 0.567664
0.963712 0.802673 0.567664
0.963712 0.802673 0.567664
0.963712 0.802673 0.567664
0.963712 0.802673 0.567664
0.963712 0.802673 0.567664
0.963712 0.802673 0.567664
0.963712 0.802673 0.567664
0.963712 0.802673 0.567664
0.963712 0.802673 0.567664
0.963712 0.802673 0.567664
0.963712 0.802673 0.567664
0.963712 0.802673 0.567664
0.963712 0.802673 0.567664
0.963712 0.802673 0.567664
0.963712 0.802673 0.567664
0.963712 0.802673 0.567664
0.963712 0.802673 0.567664
0.963712 0.802673 0.567664
0.963712 0.802673 0.567664
0.963712 0.802673 0.567664
0.963712 0.802673 0.567664
0.963712 0.802673 0.567664
0.963712 0.802673 0.567664
0.963712 0.802673 0.567664
0.963712 0.802673 0.567664
0.963712 0.802673 0.567664
0.963712 0.802673 0.567664
0.963712 0.802673 0.567664
0.963712 0.802673 0.567664
0.963712 0.802673 0.567664
0.963712 0.802673 0.567664
0.963712 0.802673 0.567664
0.963712 0.802673 0.567664
0.963712 0.802673 0.567664
0.963712 0.802673 0.567664
0.963712 0.802673 0.567664
0.963712 0.802673 0.567664
0.963712 0.802673 0.567664
0.963712 0.802673 0.567664
0.963712 0.802673 0.567664
0.963712 0.802673 0.567664
0.963712 0.802673 0.567664
0.963712 0.802673 0.567664
0.963712 0.802673 0.567664
0.963712 0.802673 0.567664
0.963712 0.802673 0.567664
0.963712 0.802673 0.567664
0.963712 0.802673 0.567664
0.963712 0.802673 0.567664
0.963712 0.802673 0.567664
0.963712 0.802673 0.567664
0.963712 0.802673 0.567664
0.963712 0.802673 0.567664
0.963712 0.802673 0.567664
0.963712 0.802673 0.567664
0.963712 0.802673 0.567664
0.963712 0.802673 0.567664
0.963712 0.802673 0.567664
0.963712 0.802673 0.567664
0.963712 0.802673 0.567664
0.963712 0.802673 0.567664
0.963712 0.802673 0.567664
0.963712 0.802673 0.567664
0.963712 0.802673 0.567664
0.963712 0.802673 0.567664
0.963712 0.802673 0.567664
0.963712 0.802673 0.567664
0.963712 0.802673 0.567664
0.963712 0.802673 0.567664
0.963712 0.802673 0.567664
0.963712 0.802673 0.567664
0.963712 0.802673 0.567664
0.963712 0.802673 0.567664
0.963712 0.802673 0.567664
0.963712 0.802673 0.567664
0.963712 0.802673 0.567664
0.963712 0.802673 0.567664
0.963712 0.802673 0.567664
0.963712 0.802673 0.567664
0.963712 0.802673 0.567664
0.963712 0.802673 0.567664
0.963712 0.802673 0.567664
0.963712 0.802673 0.567664
0.963712 0.802673 0.567664
0.963712 0.802673 0.567664
0.963712 0.802673 0.567664
0.963712 0.802673 0.567664
0.963712 0.802673 0.567664
0.963712 0.802673 0.567664
0.963712 0.802673 0.567664
0.963712 0.802673 0.567664
0.963712 0.802673 0.567664
0.963712 0.802673 0.567664
0.963712 0.802673 0.567664
0.963712 0.802673 0.567664
0.963712 0.802673 0.567664
0.963712 0.802673 0.567664
0.963712 0.802673 0.567664
0.963712 0.802673 0.567664
0.963712 0.802673 0.567664
0.963712 0.802673 0.567664
0.963712 0.802673 0.567664
0.963712 0.802673 0.567664
0.963712 0.802673 0.567664
0.963712 0.802673 0.567664
0.963712 0.802673 0.567664
0.963712 0.802673 0.567664
0.963712 0.802673 0.567664
0.963712 0.802673 0.567664
0.963712 0.802673 0.567664
0.963712 0.802673 0.567664
0.963712 0.802673 0.567664
0.963712 0.802673 0.567664
0.963712 0.802673 0.567664
0.963712 0.802673 0.567664
0.963712 0.802673 0.567664
0.963712 0.802673 0.567664
0.963712 0.802673 0.567664
0.963712 0.802673 0.567664
0.963712 0.802673 0.567664
0.963712 0.802673 0.567664
0.963712 0.802673 0.567664
0.963712 0.802673 0.567664
0.963712 0.802673 0.567664
0.963712 0.802673 0.567664
0.963712 0.802673 0.567664
0.963712 0.802673 0.567664
0.963712 0.802673 0.567664
0.963712 0.802673 0.567664
0.963712 0.802673 0.567664
0.963712 0.802673 0.567664
0.963712 0.802673 0.567664
0.963712 0.802673 0.567664
0.963712 0.802673 0.567664
0.963712 0.802673 0.567664
0.963712 0.802673 0.567664
0.963712 0.802673 0.567664
0.963712 0.802673 0.567664
0.963712 0.802673 0.567664
0.963712 0.802673 0.567664
0.963712 0.802673 0.567664
0.963712 0.802673 0.567664
0.963712 0.802673 0.567664
0.963712 0.802673 0.567664
0.963712 0.802673 0.567664
0.963712 0.802673 0.567664
0.963712 0.802673 0.567664
0.963712 0.802673 0.567664
0.963712 0.802673 0.567664
0.963712 0.802673 0.567664
0.963712 0.802673 0.567664
0.963712 0.802673 0.567664
0.963712 0.802673 0.567664
0.963712 0.802673 0.567664
0.963712 0.802673 0.567664
0.963712 0.802673 0.567664
0.963712 0.802673 0.567664
0.963712 0.802673 0.567664
0.963712 0.802673 0.567664
0.963712 0.802673 0.567664
0.963712 0.802673 0.567664
0.963712 0.802673 0.567664
0.963712 0.802673 0.567664
0.963712 0.802673 0.567664
0.963712 0.802673 0.567664
0.963712 0.802673 0.567664
0.963712 0.802673 0.567664
0.963712 0.802673 0.567664
0.963712 0.802673 0.567664
0.963712 0.802673 0.567664
0.963712 0.802673 0.567664
0.963712 0.802673 0.567664
0.963712 0.802673 0.567664
0.963712 0.802673 0.567664
0.963712 0.802673 0.567664
0.963712 0.802673 0.567664
0.963712 0.802673 0.567664
0.963712 0.802673 0.567664
0.963712 0.802673 0.567664
0.963712 0.802673 0.567664
0.963712 0.802673 0.567664
0.963712 0.802673 0.567664
0.963712 0.802673 0.567664
0.963712 0.802673 0.567664
0.963712 0.802673 0.567664
0.963712 0.802673 0.567664
0.963712 0.802673 0.567664
0.963712 0.802673 0.567664
0.963712 0.802673 0.567664
0.963712 0.802673 0.567664
0.963712 0.802673 0.567664
0.963712 0.802673 0.567664
0.963712 0.802673 0.567664
0.963712 0.802673 0.567664
0.963712 0.802673 0.567664
0.963712 0.802673 0.567664
0.963712 0.802673 0.567664
0.963712 0.802673 0.567664
0.963712 0.802673 0.567664
0.963712 0.802673 0.567664
0.963712 0.802673 0.567664
0.963712 0.802673 0.567664
0.963712 0.802673 0.567664
0.963712 0.802673 0.567664
0.963712 0.802673 0.567664
0.963712 0.802673 0.567664
0.963712 0.802673 0.567664
0.963712 0.802673 0.567664
0.963712 0.802673 0.567664
0.963712 0.802673 0.567664
0.963712 0.802673 0.567664
0.963712 0.802673 0.567664
0.963712 0.802673 0.567664
0.963712 0.802673 0.567664
0.963712 0.802673 0.567664
0.963712 0.802673 0.567664
0.963712 0.802673 0.567664
0.963712 0.802673 0.567664
0.963712 0.802673 0.567664
0.963712 0.802673 0.567664
0.963712 0.802673 0.567664
0.963712 0.802673 0.567664
0.963712 0.802673 0.567664
0.963712 0.802673 0.567664
0.963712 0.802673 0.567664
0.963712 0.802673 0.567664
0.963712 0.802673 0.567664
0.963712 0.802673 0.567664
0.963712 0.802673 0.567664
0.963712 0.802673 0.567664
0.963712 0.802673 0.567664
0.963712 0.802673 0.567664
0.963712 0.802673 0.567664
0.963712 0.802673 0.567664
0.963712 0.802673 0.567664
0.963712 0.802673 0.567664
0.963712 0.802673 0.567664
0.963712 0.802673 0.567664
0.963712 0.802673 0.567664
0.963712 0.802673 0.567664
0.963712 0.802673 0.567664
0.963712 0.802673 0.567664
0.963712 0.802673 0.567664
0.963712 0.802673 0.567664
0.963712 0.802673 0.567664
0.963712 0.802673 0.567664
0.963712 0.802673 0.567664
0.963712 0.802673 0.567664
0.963712 0.802673 0.567664
0.963712 0.802673 0.567664
0.963712 0.802673 0.567664
0.963712 0.802673 0.567664
0.963712 0.802673 0.567664
0.963712 0.802673 0.567664
0.963712 0.802673 0.567664
0.963712 0.802673 0.567664
0.963712 0.802673 0.567664
0.963712 0.802673 0.567664
0.963712 0.802673 0.567664
0.963712 0.802673 0.567664
0.963712 0.802673 0.567664
0.963712 0.802673 0.567664
0.963712 0.802673 0.567664
0.963712 0.802673 0.567664
0.963712 0.802673 0.567664
0.963712 0.802673 0.567664
0.963712 0.802673 0.567664
0.963712 0.802673 0.567664
0.963712 0.802673 0.567664
0.963712 0.802673 0.567664
0.963712 0.802673 0.567664
0.963712 0.802673 0.567664
0.963712 0.802673 0.567664
0.963712 0.802673 0.567664
0.963712 0.802673 0.567664
0.963712 0.802673 0.567664
0.963712 0.802673 0.567664
0.963712 0.802673 0.567664
0.963712 0.802673 0.567664
0.963712 0.802673 0.567664
0.963712 0.802673 0.567664
0.963712 0.802673 0.567664
0.963712 0.802673 0.567664
0.963712 0.802673 0.567664
0.963712 0.802673 0.567664
0.963712 0.802673 0.567664
0.963712 0.802673 0.567664
0.963712 0.802673 0.567664
0.963712 0.802673 0.567664
0.963712 0.802673 0.567664
0.963712 0.802673 0.567664
0.963712 0.802673 0.567664
0.963712 0.802673 0.567664
0.963712 0.802673 0.567664
0.963712 0.802673 0.567664
0.963712 0.802673 0.567664
0.963712 0.802673 0.567664
0.963712 0.802673 0.567664
0.963712 0.802673 0.567664
0.963712 0.802673 0.567664
0.963712 0.802673 0.567664
0.963712 0.802673 0.567664
0.963712 0.802673 0.567664
0.963712 0.802673 0.567664
0.963712 0.802673 0.567664
0.963712 0.802673 0.567664
0.963712 0.802673 0.567664
0.963712 0.802673 0.567664
0.963712 0.802673 0.567664
0.963712 0.802673 0.567664
0.963712 0.802673 0.567664
0.963712 0.802673 0.567664
0.963712 0.802673 0.567664
0.963712 0.802673 0.567664
0.963712 0.802673 0.567664
0.963712 0.802673 0.567664
0.963712 0.802673 0.567664
0.963712 0.802673 0.567664
0.963712 0.802673 0.567664
0.963712 0.802673 0.567664
0.963712 0.802673 0.567664
0.963712 0.802673 0.567664
0.963712 0.802673 0.567664
0.963712 0.802673 0.567664
0.963712 0.802673 0.567664
0.963712 0.802673 0.567664
0.963712 0.802673 0.567664
0.963712 0.802673 0.567664
0.963712 0.802673 0.567664
0.963712 0.802673 0.567664
0.963712 0.802673 0.567664
0.963712 0.802673 0.567664
0.963712 0.802673 0.567664
0.963712 0.802673 0.567664
0.963712 0.802673 0.567664
0.963712 0.802673 0.567664
0.963712 0.802673 0.567664
0.963712 0.802673 0.567664
0.963712 0.802673 0.567664
0.963712 0.802673 0.567664
0.963712 0.802673 0.567664
0.963712 0.802673 0.567664
0.963712 0.802673 0.567664
0.963712 0.802673 0.567664
0.963712 0.802673 0.567664
0.963712 0.802673 0.567664
0.963712 0.802673 0.567664
0.963712 0.802673 0.567664
0.963712 0.802673 0.567664
0.963712 0.802673 0.567664
0.963712 0.802673 0.567664
0.963712 0.802673 0.567664
0.963712 0.802673 0.567664
0.963712 0.802673 0.567664
0.963712 0.802673 0.567664
0.963712 0.802673 0.567664
0.963712 0.802673 0.567664
0.963712 0.802673 0.567664
0.963712 0.802673 0.567664
0.963712 0.802673 0.567664
0.963712 0.802673 0.567664
0.963712 0.802673 0.567664
0.963712 0.802673 0.567664
0.963712 0.802673 0.567664
0.963712 0.802673 0.567664
0.963712 0.802673 0.567664
0.963712 0.802673 0.567664
0.963712 0.802673 0.567664
0.963712 0.802673 0.567664
0.963712 0.802673 0.567664
0.963712 0.802673 0.567664
0.963712 0.802673 0.567664
0.963712 0.802673 0.567664
0.963712 0.802673 0.567664
0.963712 0.802673 0.567664
0.963712 0.802673 0.567664
0.963712 0.802673 0.567664
0.963712 0.802673 0.567664
0.963712 0.802673 0.567664
0.963712 0.802673 0.567664
0.963712 0.802673 0.567664
0.963712 0.802673 0.567664
0.963712 0.802673 0.567664
0.963712 0.802673 0.567664
0.963712 0.802673 0.567664
0.963712 0.802673 0.567664
0.963712 0.802673 0.567664
0.963712 0.802673 0.567664
0.963712 0.802673 0.567664
0.963712 0.802673 0.567664
0.963712 0.802673 0.567664
0.963712 0.802673 0.567664
0.963712 0.802673 0.567664
0.963712 0.802673 0.567664
0.963712 0.802673 0.567664
0.963712 0.802673 0.567664
0.963712 0.802673 0.567664
0.963712 0.802673 0.567664
0.963712 0.802673 0.567664
0.963712 0.802673 0.567664
0.963712 0.802673 0.567664
0.963712 0.802673 0.567664
0.963712 0.802673 0.567664
0.963712 0.802673 0.567664
0.963712 0.802673 0.567664
0.963712 0.802673 0.567664
0.963712 0.802673 0.567664
0.963712 0.802673 0.567664
0.963712 0.802673 0.567664
0.963712 0.802673 0.567664
0.963712 0.802673 0.567664
0.963712 0.802673 0.567664
0.963712 0.802673 0.567664
0.963712 0.802673 0.567664
0.963712 0.802673 0.567664
0.963712 0.802673 0.567664
0.963712 0.802673 0.567664
0.963712 0.802673 0.567664
0.963712 0.802673 0.567664
0.963712 0.802673 0.567664
0.963712 0.802673 0.567664
0.963712 0.802673 0.567664
0.963712 0.802673 0.567664
0.963712 0.802673 0.567664
0.963712 0.802673 0.567664
0.963712 0.802673 0.567664
0.963712 0.802673 0.567664
0.963712 0.802673 0.567664
0.963712 0.802673 0.567664
0.963712 0.802673 0.567664
0.963712 0.802673 0.567664
0.963712 0.802673 0.567664
0.963712 0.802673 0.567664
0.963712 0.802673 0.567664
0.963712 0.802673 0.567664
0.963712 0.802673 0.567664
0.963712 0.802673 0.567664
0.963712 0.802673 0.567664
0.963712 0.802673 0.567664
0.963712 0.802673 0.567664
0.963712 0.802673 0.567664
0.963712 0.802673 0.567664
0.963712 0.802673 0.567664
0.963712 0.802673 0.567664
0.963712 0.802673 0.567664
0.963712 0.802673 0.567664
0.963712 0.802673 0.567664
0.963712 0.802673 0.567664
0.963712 0.802673 0.567664
0.963712 0.802673 0.567664
0.963712 0.802673 0.567664
0.963712 0.802673 0.567664
0.963712 0.802673 0.567664
0.963712 0.802673 0.567664
0.963712 0.802673 0.567664
0.963712 0.802673 0.567664
0.963712 0.802673 0.567664
0.963712 0.802673 0.567664
0.963712 0.802673 0.567664
0.963712 0.802673 0.567664
0.963712 0.802673 0.567664
0.963712 0.802673 0.567664
0.963712 0.802673 0.567664
0.963712 0.802673 0.567664
0.963712 0.802673 0.567664
0.963712 0.802673 0.567664
0.963712 0.802673 0.567664
0.963712 0.802673 0.567664
0.963712 0.802673 0.567664
0.963712 0.802673 0.567664
0.963712 0.802673 0.567664
0.963712 0.802673 0.567664
0.963712 0.802673 0.567664
0.963712 0.802673 0.567664
0.963712 0.802673 0.567664
0.963712 0.802673 0.567664
0.963712 0.802673 0.567664
0.963712 0.802673 0.567664
0.963712 0.802673 0.567664
0.963712 0.802673 0.567664
0.963712 0.802673 0.567664
0.963712 0.802673 0.567664
0.963712 0.802673 0.567664
0.963712 0.802673 0.567664
0.963712 0.802673 0.567664
0.963712 0.802673 0.567664
0.963712 0.802673 0.567664
0.963712 0.802673 0.567664
0.963712 0.802673 0.567664
0.963712 0.802673 0.567664
0.963712 0.802673 0.567664
0.963712 0.802673 0.567664
0.963712 0.802673 0.567664
0.963712 0.802673 0.567664
0.963712 0.802673 0.567664
0.963712 0.802673 0.567664
0.963712 0.802673 0.567664
0.963712 0.802673 0.567664
0.963712 0.802673 0.567664
0.963712 0.802673 0.567664
0.963712 0.802673 0.567664
0.963712 0.802673 0.567664
0.963712 0.802673 0.567664
0.963712 0.802673 0.567664
0.963712 0.802673 0.567664
0.963712 0.802673 0.567664
0.963712 0.802673 0.567664
0.963712 0.802673 0.567664
0.963712 0.802673 0.567664
0.963712 0.802673 0.567664
0.963712 0.802673 0.567664
0.963712 0.802673 0.567664
0.963712 0.802673 0.567664
0.963712 0.802673 0.567664
0.963712 0.802673 0.567664
0.963712 0.802673 0.567664
0.963712 0.802673 0.567664
0.963712 0.802673 0.567664
0.963712 0.802673 0.567664
0.963712 0.802673 0.567664
0.963712 0.802673 0.567664
0.963712 0.802673 0.567664
0.963712 0.802673 0.567664
0.963712 0.802673 0.567664
0.963712 0.802673 0.567664
0.963712 0.802673 0.567664
0.963712 0.802673 0.567664
0.963712 0.802673 0.567664
0.963712 0.802673 0.567664
0.963712 0.802673 0.567664
0.963712 0.802673 0.567664
0.963712 0.802673 0.567664
0.963712 0.802673 0.567664
0.963712 0.802673 0.567664
0.963712 0.802673 0.567664
0.963712 0.802673 0.567664
0.963712 0.802673 0.567664
0.963712 0.802673 0.567664
0.963712 0.802673 0.567664
0.963712 0.802673 0.567664
0.963712 0.802673 0.567664
0.963712 0.802673 0.567664
0.963712 0.802673 0.567664
0.963712 0.802673 0.567664
0.963712 0.802673 0.567664
0.963712 0.802673 0.567664
0.963712 0.802673 0.567664
0.963712 0.802673 0.567664
0.963712 0.802673 0.567664
0.963712 0.802673 0.567664
0.963712 0.802673 0.567664
0.963712 0.802673 0.567664
0.963712 0.802673 0.567664
0.963712 0.802673 0.567664
0.963712 0.802673 0.567664
0.963712 0.802673 0.567664
0.963712 0.802673 0.567664
0.963712 0.802673 0.567664
0.963712 0.802673 0.567664
0.963712 0.802673 0.567664
0.963712 0.802673 0.567664
0.963712 0.802673 0.567664
0.963712 0.802673 0.567664
0.963712 0.802673 0.567664
0.963712 0.802673 0.567664
0.963712 0.802673 0.567664
0.963712 0.802673 0.567664
0.963712 0.802673 0.567664
0.963712 0.802673 0.567664
0.963712 0.802673 0.567664
0.963712 0.802673 0.567664
0.963712 0.802673 0.567664
0.963712 0.802673 0.567664
0.963712 0.802673 0.567664
0.963712 0.802673 0.567664
0.963712 0.802673 0.567664
0.963712 0.802673 0.567664
0.963712 0.802673 0.567664
0.963712 0.802673 0.567664
0.963712 0.802673 0.567664
0.963712 0.802673 0.567664
0.963712 0.802673 0.567664
0.963712 0.802673 0.567664
0.963712 0.802673 0.567664
0.963712 0.802673 0.567664
0.963712 0.802673 0.567664
0.963712 0.802673 0.567664
0.963712 0.802673 0.567664
0.963712 0.802673 0.567664
0.963712 0.802673 0.567664
0.963712 0.802673 0.567664
0.963712 0.802673 0.567664
0.963712 0.802673 0.567664
0.963712 0.802673 0.567664
0.963712 0.802673 0.567664
0.963712 0.802673 0.567664
0.963712 0.802673 0.567664
0.963712 0.802673 0.567664
0.963712 0.802673 0.567664
0.963712 0.802673 0.567664
0.963712 0.802673 0.567664
0.963712 0.802673 0.567664
0.963712 0.802673 0.567664
0.963712 0.802673 0.567664
0.963712 0.802673 0.567664
0.963712 0.802673 0.567664
0.963712 0.802673 0.567664
0.963712 0.802673 0.567664
0.963712 0.802673 0.567664
0.963712 0.802673 0.567664
0.963712 0.802673 0.567664
0.963712 0.802673 0.567664
0.963712 0.802673 0.567664
0.963712 0.802673 0.567664
0.963712 0.802673 0.567664
0.963712 0.802673 0.567664
0.963712 0.802673 0.567664
0.963712 0.802673 0.567664
0.963712 0.802673 0.567664
0.963712 0.802673 0.567664
0.963712 0.802673 0.567664
0.963712 0.802673 0.567664
0.963712 0.802673 0.567664
0.963712 0.802673 0.567664
0.963712 0.802673 0.567664
0.963712 0.802673 0.567664
0.963712 0.802673 0.567664
0.963712 0.802673 0.567664
0.963712 0.802673 0.567664
0.963712 0.802673 0.567664
0.963712 0.802673 0.567664
0.963712 0.802673 0.567664
0.963712 0.802673 0.567664
0.963712 0.802673 0.567664
0.963712 0.802673 0.567664
0.963712 0.802673 0.567664
0.963712 0.802673 0.567664
0.963712 0.802673 0.567664
0.963712 0.802673 0.567664
0.963712 0.802673 0.567664
0.963712 0.802673 0.567664
0.963712 0.802673 0.567664
0.963712 0.802673 0.567664
0.963712 0.802673 0.567664
0.963712 0.802673 0.567664
0.963712 0.802673 0.567664
0.963712 0.802673 0.567664
0.963712 0.802673 0.567664
0.963712 0.802673 0.567664
0.963712 0.802673 0.567664
0.963712 0.802673 0.567664
0.963712 0.802673 0.567664
0.963712 0.802673 0.567664
0.963712 0.802673 0.567664
0.963712 0.802673 0.567664
0.963712 0.802673 0.567664
0.963712 0.802673 0.567664
0.963712 0.802673 0.567664
0.963712 0.802673 0.567664
0.963712 0.802673 0.567664
0.963712 0.802673 0.567664
0.963712 0.802673 0.567664
0.963712 0.802673 0.567664
0.963712 0.802673 0.567664
0.963712 0.802673 0.567664
0.963712 0.802673 0.567664
0.963712 0.802673 0.567664
0.963712 0.802673 0.567664
0.963712 0.802673 0.567664
0.963712 0.802673 0.567664
0.963712 0.802673 0.567664
0.963712 0.802673 0.567664
0.963712 0.802673 0.567664
0.963712 0.802673 0.567664
0.963712 0.802673 0.567664
0.963712 0.802673 0.567664
0.963712 0.802673 0.567664
0.963712 0.802673 0.567664
0.963712 0.802673 0.567664
0.963712 0.802673 0.567664
0.963712 0.802673 0.567664
0.963712 0.802673 0.567664
0.963712 0.802673 0.567664
0.963712 0.802673 0.567664
0.963712 0.802673 0.567664
0.963712 0.802673 0.567664
0.963712 0.802673 0.567664
0.963712 0.802673 0.567664
0.963712 0.802673 0.567664
0.963712 0.802673 0.567664
0.963712 0.802673 0.567664
0.963712 0.802673 0.567664
0.963712 0.802673 0.567664
0.963712 0.802673 0.567664
0.963712 0.802673 0.567664
0.963712 0.802673 0.567664
0.963712 0.802673 0.567664
0.963712 0.802673 0.567664
0.963712 0.802673 0.567664
0.963712 0.802673 0.567664
0.963712 0.802673 0.567664
0.963712 0.802673 0.567664
0.963712 0.802673 0.567664
0.963712 0.802673 0.567664
0.963712 0.802673 0.567664
0.963712 0.802673 0.567664
0.963712 0.802673 0.567664
0.963712 0.802673 0.567664
0.963712 0.802673 0.567664
0.963712 0.802673 0.567664
0.963712 0.802673 0.567664
0.963712 0.802673 0.567664
0.963712 0.802673 0.567664
0.963712 0.802673 0.567664
0.963712 0.802673 0.567664
0.963712 0.802673 0.567664
0.963712 0.802673 0.567664
0.963712 0.802673 0.567664
0.963712 0.802673 0.567664
0.963712 0.802673 0.567664
0.963712 0.802673 0.567664
0.963712 0.802673 0.567664
0.963712 0.802673 0.567664
0.963712 0.802673 0.567664
0.963712 0.802673 0.567664
0.963712 0.802673 0.567664
0.963712 0.802673 0.567664
0.963712 0.802673 0.567664
0.963712 0.802673 0.567664
0.963712 0.802673 0.567664
0.963712 0.802673 0.567664
0.963712 0.802673 0.567664
0.963712 0.802673 0.567664
0.963712 0.802673 0.567664
0.963712 0.802673 0.567664
0.963712 0.802673 0.567664
0.963712 0.802673 0.567664
0.963712 0.802673 0.567664
0.963712 0.802673 0.567664
0.963712 0.802673 0.567664
0.963712 0.802673 0.567664
0.963712 0.802673 0.567664
0.963712 0.802673 0.567664
0.963712 0.802673 0.567664
0.963712 0.802673 0.567664
0.963712 0.802673 0.567664
0.963712 0.802673 0.567664
0.963712 0.802673 0.567664
0.963712 0.802673 0.567664
0.963712 0.802673 0.567664
0.963712 0.802673 0.567664
0.963712 0.802673 0.567664
0.963712 0.802673 0.567664
0.963712 0.802673 0.567664
0.963712 0.802673 0.567664
0.963712 0.802673 0.567664
0.963712 0.802673 0.567664
0.963712 0.802673 0.567664
0.963712 0.802673 0.567664
0.963712 0.802673 0.567664
0.963712 0.802673 0.567664
0.963712 0.802673 0.567664
0.963712 0.802673 0.567664
0.963712 0.802673 0.567664
0.963712 0.802673 0.567664
0.963712 0.802673 0.567664
0.963712 0.802673 0.567664
0.963712 0.802673 0.567664
0.963712 0.802673 0.567664
0.963712 0.802673 0.567664
0.963712 0.802673 0.567664
0.963712 0.802673 0.567664
0.963712 0.802673 0.567664
0.963712 0.802673 0.567664
0.963712 0.802673 0.567664
0.963712 0.802673 0.567664
0.963712 0.802673 0.567664
0.963712 0.802673 0.567664
0.963712 0.802673 0.567664
0.963712 0.802673 0.567664
0.963712 0.802673 0.567664
0.963712 0.802673 0.567664
0.963712 0.802673 0.567664
0.963712 0.802673 0.567664
0.963712 0.802673 0.567664
0.963712 0.802673 0.567664
0.963712 0.802673 0.567664
0.963712 0.802673 0.567664
0.963712 0.802673 0.567664
0.963712 0.802673 0.567664
0.963712 0.802673 0.567664
0.963712 0.802673 0.567664
0.963712 0.802673 0.567664
0.963712 0.802673 0.567664
0.963712 0.802673 0.567664
0.963712 0.802673 0.567664
0.963712 0.802673 0.567664
0.963712 0.802673 0.567664
0.963712 0.802673 0.567664
0.963712 0.802673 0.567664
0.963712 0.802673 0.567664
0.963712 0.802673 0.567664
0.963712 0.802673 0.567664
0.963712 0.802673 0.567664
0.963712 0.802673 0.567664
0.963712 0.802673 0.567664
0.963712 0.802673 0.567664
0.963712 0.802673 0.567664
0.963712 0.802673 0.567664
