0 1.5761e-05 7.97802e-06 0 -1.57069e-05 -8.02467e-06
0 1.57043e-05 7.98615e-06 0 -1.57621e-05 -8.01738e-06
0 1.5586e-05 8.0001e-06 0 -1.58786e-05 -8.00066e-06
0 1.53578e-05 8.02253e-06 0 -1.61013e-05 -7.97294e-06
0 1.51177e-05 8.0412e-06 0 -1.63342e-05 -7.94916e-06
0 1.48346e-05 8.05655e-06 0 -1.66073e-05 -7.9289e-06
0 1.45184e-05 8.06321e-06 0 -1.69096e-05 -7.91754e-06
0 1.41813e-05 8.05505e-06 0 -1.72282e-05 -7.92118e-06
0 1.38369e-05 8.02605e-06 0 -1.75486e-05 -7.94651e-06
0 1.35002e-05 7.9702e-06 0 -1.78549e-05 -8.00049e-06
0 1.31885e-05 7.8812e-06 0 -1.81288e-05 -8.09032e-06
0 1.29232e-05 7.75217e-06 0 -1.8348e-05 -8.22326e-06
0 1.27314e-05 7.5762e-06 0 -1.84944e-05 -8.40611e-06
0 1.26429e-05 7.347e-06 0 -1.85375e-05 -8.64323e-06
0 1.27055e-05 7.05808e-06 0 -1.84181e-05 -8.94665e-06
0 1.29683e-05 6.70413e-06 0 -1.80897e-05 -9.32272e-06
0 1.34795e-05 6.28288e-06 0 -1.75055e-05 -9.77473e-06
0 1.42831e-05 5.79551e-06 0 -1.66187e-05 -1.03024e-05
0 1.54145e-05 5.2477e-06 0 -1.53947e-05 -1.09004e-05
0 1.68957e-05 4.65045e-06 0 -1.38135e-05 -1.15578e-05
0 1.87338e-05 4.02166e-06 0 -1.18688e-05 -1.2257e-05
0 2.09265e-05 3.3835e-06 0 -9.56526e-06 -1.29746e-05
0 2.34643e-05 2.76291e-06 0 -6.91516e-06 -1.36822e-05
0 2.63323e-05 2.19103e-06 0 -3.9365e-06 -1.43471e-05
0 2.95093e-05 1.70346e-06 0 -6.54503e-07 -1.49336e-05
0 3.29593e-05 1.33932e-06 0 2.88611e-06 -1.5417e-05
0 3.66143e-05 1.14146e-06 0 6.62167e-06 -1.57234e-05
0 4.03525e-05 1.16857e-06 0 1.04186e-05 -1.58037e-05
0 4.39801e-05 1.48346e-06 0 1.40792e-05 -1.55852e-05
0 4.7251e-05 2.15134e-06 0 1.73514e-05 -1.49957e-05
0 4.99051e-05 3.22879e-06 0 1.99698e-05 -1.39652e-05
0 5.16964e-05 4.76371e-06 0 2.16457e-05 -1.24291e-05
0 5.24355e-05 6.78435e-06 0 2.22204e-05 -1.03647e-05
0 5.19874e-05 9.29663e-06 0 2.15596e-05 -7.75705e-06
0 5.02836e-05 1.22818e-05 0 1.96066e-05 -4.62545e-06
0 4.73023e-05 1.56974e-05 0 1.63612e-05 -1.01832e-06
0 4.3096e-05 1.94773e-05 0 1.18797e-05 2.99172e-06
0 3.78409e-05 2.35223e-05 0 6.3027e-06 7.31055e-06
0 3.16759e-05 2.77269e-05 0 -2.03939e-07 1.18047e-05
0 2.47948e-05 3.19616e-05 0 -7.43867e-06 1.63387e-05
0 1.74275e-05 3.61005e-05 0 -1.51785e-05 2.07851e-05
0 9.79059e-06 4.00086e-05 0 -2.31892e-05 2.50088e-05
0 2.09151e-06 4.35559e-05 0 -3.12519e-05 2.88606e-05
0 -5.47846e-06 4.66146e-05 0 -3.9169e-05 3.22069e-05
0 -1.27432e-05 4.90651e-05 0 -4.6758e-05 3.49225e-05
0 -1.95246e-05 5.07924e-05 0 -5.38313e-05 3.68908e-05
0 -2.56328e-05 5.1667e-05 0 -6.01827e-05 3.79965e-05
0 -3.08222e-05 5.16465e-05 0 -6.55725e-05 3.8152e-05
0 -3.48531e-05 5.0654e-05 0 -6.97512e-05 3.72769e-05
0 -3.74803e-05 4.8634e-05 0 -7.24706e-05 3.53167e-05
0 -3.84428e-05 4.46371e-05 0 -7.34737e-05 3.12986e-05
0 -3.65131e-05 3.90442e-05 0 -7.15063e-05 2.55617e-05
0 -3.15647e-05 3.19827e-05 0 -6.64547e-05 1.82365e-05
0 -2.37778e-05 2.36877e-05 0 -5.85216e-05 9.57628e-06
0 -1.36832e-05 1.44888e-05 0 -4.82646e-05 -6.17538e-08
0 -2.16122e-06 4.84674e-06 0 -3.65958e-05 -1.02107e-05
0 9.60206e-06 -4.72939e-06 0 -2.47387e-05 -2.02772e-05
0 2.02191e-05 -1.37076e-05 0 -1.41113e-05 -2.96938e-05
0 2.82954e-05 -2.1579e-05 0 -6.13857e-06 -3.78885e-05
0 3.26577e-05 -2.79212e-05 0 -2.01572e-06 -4.44084e-05
0 3.2507e-05 -3.24437e-05 0 -2.55397e-06 -4.89255e-05
0 2.74571e-05 -3.50045e-05 0 -8.1458e-06 -5.12887e-05
0 1.75086e-05 -3.56126e-05 0 -1.87873e-05 -5.15061e-05
0 3.00318e-06 -3.44236e-05 0 -3.41256e-05 -4.97514e-05
0 -1.54525e-05 -3.17227e-05 0 -5.35335e-05 -4.63332e-05
0 -3.70799e-05 -2.78964e-05 0 -7.62059e-05 -4.16714e-05
0 -6.09706e-05 -2.34102e-05 0 -0.000101201 -3.62692e-05
0 -8.60703e-05 -1.879e-05 0 -0.000127426 -3.06948e-05
0 -0.000111186 -1.4595e-05 0 -0.000153648 -2.55553e-05
0 -0.000135065 -1.13795e-05 0 -0.000178574 -2.14562e-05
0 -0.000156525 -9.65012e-06 0 -0.000200987 -1.8952e-05
0 -0.000174608 -9.82292e-06 0 -0.000219898 -1.84972e-05
0 -0.000188677 -1.21919e-05 0 -0.000234648 -2.04109e-05
0 -0.000198384 -1.69201e-05 0 -0.000244873 -2.48691e-05
0 -0.000203619 -2.40382e-05 0 -0.000250455 -3.19068e-05
0 -0.000204488 -3.34462e-05 0 -0.000251498 -4.14196e-05
0 -0.000201296 -4.49201e-05 0 -0.000248319 -5.31708e-05
0 -0.000194528 -5.81253e-05 0 -0.000241418 -6.68035e-05
0 -0.000184812 -7.26324e-05 0 -0.000231446 -8.18602e-05
0 -0.000172893 -8.79374e-05 0 -0.000219181 -9.7804e-05
0 -0.000159611 -0.000103485 0 -0.000205493 -0.000114042
0 -0.000145851 -0.000118696 0 -0.000191304 -0.000129955
0 -0.00013248 -0.000132996 0 -0.000177518 -0.000144929
0 -0.000120282 -0.00014585 0 -0.000164952 -0.000158391
0 -0.000109921 -0.000156778 0 -0.000154302 -0.000169831
0 -0.00010195 -0.000165376 0 -0.000146148 -0.000178819
0 -9.68697e-05 -0.000171322 0 -0.000141013 -0.000185012
0 -9.51624e-05 -0.000174384 0 -0.000139394 -0.000188159
0 -9.72586e-05 -0.000174437 0 -0.000141727 -0.000188119
0 -0.000103435 -0.000171482 0 -0.000148283 -0.000184884
0 -0.000111345 -0.000167043 0 -0.000156589 -0.000180091
0 -0.00012474 -0.000159132 0 -0.000170573 -0.000171585
0 -0.000141516 -0.000148978 0 -0.000188012 -0.000160695
0 -0.00016083 -0.000137109 0 -0.000208025 -0.000147987
0 -0.000181629 -0.000124147 0 -0.000229513 -0.00013413
0 -0.000202739 -0.000110765 0 -0.000251258 -0.00011985
0 -0.000222927 -9.76593e-05 0 -0.000271977 -0.000105895
0 -0.000240969 -8.55082e-05 0 -0.000290399 -9.29958e-05
0 -0.000255724 -7.49328e-05 0 -0.00030534 -8.18222e-05
0 -0.00026618 -6.64675e-05 0 -0.000315749 -7.29512e-05
0 -0.000271498 -6.05312e-05 0 -0.000320757 -6.68359e-05
0 -0.000271066 -5.74027e-05 0 -0.00031973 -6.378e-05
0 -0.000264498 -5.72075e-05 0 -0.000312273 -6.39228e-05
0 -0.000251606 -5.99164e-05 0 -0.000298199 -6.72385e-05
0 -0.000232353 -6.53473e-05 0 -0.000277482 -7.35402e-05
0 -0.000206897 -7.31605e-05 0 -0.000250308 -8.24762e-05
0 -0.000175707 -8.28538e-05 0 -0.000217183 -9.35195e-05
0 -0.000139585 -9.37771e-05 0 -0.000178959 -0.000105979
0 -9.96105e-05 -0.000105162 0 -0.00013677 -0.000119032
0 -5.70694e-05 -0.000116153 0 -9.1964e-05 -0.000131766
0 -1.34028e-05 -0.000125852 0 -4.60494e-05 -0.000143217
0 2.98425e-05 -0.000133356 0 -6.38784e-07 -0.000152412
0 7.08268e-05 -0.000137766 0 4.2565e-05 -0.000158419
0 0.000108056 -0.000138565 0 8.16146e-05 -0.000160378
0 0.000140037 -0.000134894 0 0.00011506 -0.000157834
0 0.000165616 -0.000126288 0 0.000141918 -0.00015002
0 0.000184131 -0.000112546 0 0.000161314 -0.000136735
0 0.000195322 -9.36331e-05 0 0.0001731 -0.000117906
0 0.000199426 -6.98065e-05 0 0.00017749 -9.38817e-05
0 0.000196985 -4.15949e-05 0 0.000175027 -6.51517e-05
0 0.00018868 -9.77925e-06 0 0.000166446 -3.24869e-05
0 0.00017531 2.49749e-05 0 0.000152586 3.2229e-06
0 0.000157876 6.16674e-05 0 0.000134485 4.11078e-05
0 0.000137566 9.92246e-05 0 0.000113402 7.99594e-05
0 0.000115701 0.000136523 0 9.07268e-05 0.00011861
0 9.36483e-05 0.000172426 0 6.78856e-05 0.000155823
0 7.2762e-05 0.000205799 0 4.63037e-05 0.000190411
0 5.43583e-05 0.000235579 0 2.73604e-05 0.000221261
0 3.97022e-05 0.00026082 0 1.23755e-05 0.000247352
0 3.00157e-05 0.000280706 0 2.62346e-06 0.000267813
0 2.64697e-05 0.000294584 0 -6.86108e-07 0.000281946
0 3.00978e-05 0.000302011 0 3.5077e-06 0.000289268
0 4.16356e-05 0.000302795 0 1.59516e-05 0.000289559
0 6.13705e-05 0.000297026 0 3.69257e-05 0.000282899
0 8.90623e-05 0.000285082 0 6.61649e-05 0.000269688
0 0.000123916 0.000267631 0 0.000102832 0.000250631
0 0.000164625 0.000245595 0 0.000145562 0.000226713
0 0.000209459 0.000220111 0 0.000192552 0.000199147
0 0.000256363 0.000192464 0 0.000241671 0.000169312
0 0.000303118 0.000164021 0 0.000290612 0.000138677
0 0.000347513 0.000136157 0 0.000337081 0.000108713
0 0.000387487 0.000110175 0 0.000378938 8.08199e-05
0 0.00042123 8.72502e-05 0 0.000414301 5.62552e-05
0 0.000447257 6.83718e-05 0 0.000441626 3.60784e-05
0 0.000462786 5.45449e-05 0 0.000459444 2.11366e-05
0 0.000460104 4.78796e-05 0 0.000465438 1.20278e-05
0 0.00044953 4.6386e-05 0 0.000462781 8.38048e-06
0 0.000435861 4.882e-05 0 0.000451142 1.07513e-05
0 0.000415113 5.6007e-05 0 0.00043132 1.83627e-05
0 0.000388477 6.75437e-05 0 0.000409121 2.98265e-05
0 0.000364957 8.14439e-05 0 0.00038503 4.4347e-05
0 0.00033647 9.83215e-05 0 0.000356157 6.23802e-05
0 0.000303917 0.000117439 0 0.000323679 8.26061e-05
0 0.000269309 0.000137679 0 0.000288983 0.000104096
0 0.000233843 0.000158203 0 0.000253149 0.000125904
0 0.000198449 0.000178058 0 0.000217826 0.000146875
0 0.000164776 0.000196127 0 0.000184122 0.000166093
0 0.000134042 0.000211571 0 0.000153337 0.000182582
0 0.000107215 0.000223661 0 0.00012662 0.000195472
0 8.53456e-05 0.000231671 0 0.000104907 0.000204092
0 6.91847e-05 0.000235083 0 8.89591e-05 0.000207919
0 5.92116e-05 0.000233622 0 7.93448e-05 0.000206596
0 5.57633e-05 0.000227163 0 7.63524e-05 0.000199994
0 5.89122e-05 0.000215767 0 8.00436e-05 0.0001882
0 6.84708e-05 0.000199711 0 9.02343e-05 0.000171503
0 8.43256e-05 0.000179437 0 0.000106871 0.000150346
0 0.00010725 0.000155423 0 0.000130974 0.0001251
0 0.000136402 0.000128555 0 0.000161508 9.67273e-05
0 0.000170371 9.986e-05 0 0.000196978 6.63295e-05
0 0.000207376 7.05187e-05 0 0.000235576 3.51889e-05
0 0.000237834 4.74381e-05 0 0.000267301 1.06532e-05
0 0.000267895 2.54262e-05 0 0.000298582 -1.27842e-05
0 0.000296501 5.11999e-06 0 0.000328323 -3.44366e-05
0 0.000322654 -1.28882e-05 0 0.000355488 -5.36588e-05
0 0.000345447 -2.80613e-05 0 0.000379133 -6.98713e-05
0 0.000364091 -3.99347e-05 0 0.00039844 -8.25794e-05
0 0.000377956 -4.81405e-05 0 0.000412755 -9.13891e-05
0 0.000386608 -5.24229e-05 0 0.000421628 -9.60213e-05
0 0.000389832 -5.26427e-05 0 0.000424831 -9.63227e-05
0 0.000387627 -4.87767e-05 0 0.000422359 -9.22697e-05
0 0.000380191 -4.09162e-05 0 0.000414416 -8.3964e-05
0 0.000367874 -2.92594e-05 0 0.000401361 -7.16205e-05
0 0.000351123 -1.40992e-05 0 0.000383653 -5.55517e-05
0 0.000330433 4.19173e-06 0 0.000361807 -3.61534e-05
0 0.000306323 2.5174e-05 0 0.000336363 -1.38916e-05
0 0.000279331 4.83502e-05 0 0.000307887 1.07076e-05
0 0.000250045 7.31706e-05 0 0.000276995 3.70641e-05
0 0.000219122 9.90427e-05 0 0.000244376 6.4552e-05
0 0.00018728 0.000125345 0 0.000210785 9.25126e-05
0 0.000155277 0.000151442 0 0.000177014 0.000120272
0 0.000123862 0.000176706 0 0.000143849 0.000147164
0 9.37502e-05 0.00020053 0 0.000112036 0.000172544
0 6.5604e-05 0.000222343 0 8.22701e-05 0.000195809
0 4.00234e-05 0.000241624 0 5.51792e-05 0.000216411
0 1.75306e-05 0.000257916 0 3.13104e-05 0.000233864
0 -1.45016e-06 0.000270836 0 1.11084e-05 0.000247764
0 -1.66112e-05 0.000280084 0 -5.10368e-06 0.000257794
0 -2.77741e-05 0.000285451 0 -1.71373e-05 0.000263738
0 -3.48921e-05 0.000286823 0 -2.49411e-05 0.000265475
0 -3.80508e-05 0.00028418 0 -2.86013e-05 0.000262991
0 -3.74622e-05 0.000277599 0 -2.8336e-05 0.000256368
0 -3.3455e-05 0.000267242 0 -2.44845e-05 0.000245783
0 -2.64646e-05 0.000253358 0 -1.74977e-05 0.000231502
0 -1.70206e-05 0.000236266 0 -7.93177e-06 0.000213871
0 -6.78203e-06 0.000216395 0 2.42816e-07 0.000193762
0 2.04944e-06 0.000194329 0 8.63549e-06 0.000171715
0 1.18252e-05 0.000170395 0 1.81221e-05 0.000146995
0 2.20444e-05 0.00014478 0 2.8036e-05 0.000120822
0 3.25061e-05 0.000117966 0 3.81094e-05 9.33766e-05
0 4.2608e-05 9.0389e-05 0 4.80087e-05 6.51838e-05
0 5.19172e-05 6.24907e-05 0 5.71942e-05 3.66542e-05
0 6.02292e-05 3.46945e-05 0 6.52555e-05 8.29749e-06
0 6.72649e-05 7.45065e-06 0 7.18993e-05 -1.94391e-05
0 7.26718e-05 -1.89098e-05 0 7.68456e-05 -4.62297e-05
0 7.61601e-05 -4.39282e-05 0 7.97601e-05 -7.16184e-05
0 7.75317e-05 -6.73123e-05 0 8.03402e-05 -9.52775e-05
0 7.65416e-05 -8.87708e-05 0 7.83577e-05 -0.000116888
0 7.29648e-05 -0.00010812 0 7.3617e-05 -0.000136164
0 6.67006e-05 -0.000125038 0 6.5975e-05 -0.00015288
0 5.76788e-05 -0.0001394 0 5.53691e-05 -0.000166891
0 4.5907e-05 -0.000151141 0 4.18215e-05 -0.000178108
0 3.14761e-05 -0.000160244 0 2.54282e-05 -0.000186508
0 1.45566e-05 -0.000166728 0 6.35654e-06 -0.000192141
0 -4.62713e-06 -0.000170676 0 -1.51557e-05 -0.000195116
0 -2.58066e-05 -0.000172243 0 -3.88159e-05 -0.000195594
0 -4.86766e-05 -0.000171636 0 -6.42947e-05 -0.00019378
0 -7.29075e-05 -0.000169088 0 -9.12346e-05 -0.000189928
0 -9.81516e-05 -0.000164856 0 -0.000119251 -0.00018433
0 -0.000124036 -0.000159232 0 -0.00014793 -0.000177306
0 -0.000150164 -0.000152542 0 -0.000176835 -0.000169198
0 -0.000176128 -0.000145122 0 -0.000205516 -0.000160364
0 -0.000201514 -0.000137311 0 -0.000233517 -0.00015117
0 -0.000225901 -0.000129445 0 -0.000260377 -0.000141982
0 -0.000248868 -0.000121853 0 -0.000285638 -0.000133156
0 -0.00027 -0.000114854 0 -0.000308855 -0.000125028
0 -0.0002889 -0.00010874 0 -0.000329602 -0.00011791
0 -0.00030519 -0.000103769 0 -0.000347484 -0.000112078
0 -0.000318527 -0.000100161 0 -0.000362143 -0.000107768
0 -0.000328608 -9.80912e-05 0 -0.000373275 -0.000105168
0 -0.00033519 -9.76851e-05 0 -0.000380637 -0.000104408
0 -0.000338107 -9.90093e-05 0 -0.00038407 -0.000105558
0 -0.000337279 -0.000102069 0 -0.000383507 -0.000108622
0 -0.000332711 -0.000106808 0 -0.000378972 -0.000113539
0 -0.000324419 -0.000113127 0 -0.000370558 -0.000120187
0 -0.000312567 -0.000120853 0 -0.000358474 -0.000128375
0 -0.000297433 -0.000129755 0 -0.000343008 -0.000137857
0 -0.000279386 -0.000139546 0 -0.000324538 -0.000148336
0 -0.000258865 -0.000149903 0 -0.000303537 -0.000159463
0 -0.000236394 -0.000160463 0 -0.000280554 -0.000170851
0 -0.000212572 -0.000170838 0 -0.000256206 -0.000182087
0 -0.000188045 -0.000180625 0 -0.000231154 -0.000192743
0 -0.000163471 -0.000189423 0 -0.00020608 -0.000202389
0 -0.000139505 -0.000196843 0 -0.000181655 -0.000210609
0 -0.000116778 -0.00020252 0 -0.000158529 -0.000217015
0 -9.58806e-05 -0.000206125 0 -0.000137307 -0.000221254
0 -7.73492e-05 -0.000207379 0 -0.000118543 -0.000223023
0 -6.16551e-05 -0.000206053 0 -0.00010272 -0.000222079
0 -4.91888e-05 -0.000201987 0 -9.02372e-05 -0.000218244
0 -4.02427e-05 -0.000195088 0 -8.1395e-05 -0.000211415
0 -3.49976e-05 -0.000185339 0 -7.63804e-05 -0.000201571
0 -3.35166e-05 -0.000172803 0 -7.52612e-05 -0.000188771
0 -3.57209e-05 -0.000157623 0 -7.84405e-05 -0.000173103
0 -4.11333e-05 -0.000140153 0 -8.66008e-05 -0.00015448
0 -4.9918e-05 -0.000120513 0 -9.75254e-05 -0.000133749
0 -6.18363e-05 -9.90202e-05 0 -0.000111471 -0.000111096
0 -7.69343e-05 -7.59822e-05 0 -0.000127887 -8.69967e-05
0 -9.44528e-05 -5.18968e-05 0 -0.000146296 -6.1922e-05
0 -0.000113656 -2.73213e-05 0 -0.000166466 -3.62383e-05
0 -0.000134104 -2.73343e-06 0 -0.000188072 -1.04849e-05
0 -0.00015516 2.13228e-05 0 -0.000210766 1.48859e-05
0 -0.000176821 4.44433e-05 0 -0.000234185 3.93325e-05
0 -0.000198814 6.61653e-05 0 -0.000257683 6.23129e-05
0 -0.000220582 8.5994e-05 0 -0.000280777 8.33076e-05
0 -0.000241547 0.000103397 0 -0.000302956 0.000101818
0 -0.000261279 0.000118039 0 -0.000323696 0.000117398
0 -0.000279325 0.000129519 0 -0.000342444 0.000129662
0 -0.000295036 0.000137466 0 -0.00035862 0.000138232
0 -0.000307785 0.000141577 0 -0.000371659 0.000142803
0 -0.000317078 0.000141641 0 -0.000381016 0.000143129
0 -0.000322491 0.00013753 0 -0.000386224 0.000139047
0 -0.000323654 0.000129185 0 -0.000386925 0.000130501
0 -0.00032031 0.000116648 0 -0.000382881 0.000117534
0 -0.000312346 0.000100065 0 -0.000373967 0.000100288
0 -0.000299755 7.96147e-05 0 -0.000360182 7.8961e-05
0 -0.000282653 5.57087e-05 0 -0.000341665 5.39084e-05
0 -0.000261271 2.87533e-05 0 -0.000318675 2.5625e-05
0 -0.000235988 -7.36737e-07 0 -0.000291617 -5.36292e-06
0 -0.000207335 -3.21657e-05 0 -0.000261054 -3.84344e-05
0 -0.000175992 -6.48678e-05 0 -0.000227705 -7.28992e-05
0 -0.000142753 -9.81316e-05 0 -0.000192407 -0.000108004
0 -0.000108499 -0.000131217 0 -0.00015608 -0.000142961
0 -7.41685e-05 -0.000163373 0 -0.000119703 -0.000176967
0 -4.07212e-05 -0.000193852 0 -8.42827e-05 -0.000209233
0 -9.10217e-06 -0.00022194 0 -5.08029e-05 -0.000239
0 1.98055e-05 -0.000246974 0 -2.01837e-05 -0.000265565
0 4.52191e-05 -0.000268365 0 6.75903e-06 -0.000288299
0 6.6479e-05 -0.000285613 0 2.93374e-05 -0.000306668
0 8.30577e-05 -0.000298312 0 4.70019e-05 -0.000320242
0 9.45688e-05 -0.000306169 0 5.93501e-05 -0.000328709
0 0.00010078 -0.000309009 0 6.61413e-05 -0.000331883
0 0.000101627 -0.000306778 0 6.73096e-05 -0.000329706
0 9.72167e-05 -0.000299546 0 6.29698e-05 -0.000322253
0 8.78275e-05 -0.000287504 0 5.34134e-05 -0.00030973
0 7.38971e-05 -0.000270958 0 3.90993e-05 -0.000292462
0 5.60067e-05 -0.000250319 0 2.0636e-05 -0.00027089
0 3.48571e-05 -0.000226091 0 -1.24285e-06 -0.00024555
0 1.12421e-05 -0.000198853 0 -2.57059e-05 -0.000217061
0 -1.39779e-05 -0.000169246 0 -5.18519e-05 -0.000186107
0 -3.99003e-05 -0.000137953 0 -7.87348e-05 -0.000153414
0 -6.2627e-05 -0.000106037 0 -0.000100229 -0.000120612
0 -8.35985e-05 -7.37826e-05 0 -0.000121064 -8.74412e-05
0 -0.000102509 -4.18441e-05 0 -0.000139606 -5.45796e-05
0 -0.000118888 -1.08677e-05 0 -0.000156049 -2.27816e-05
0 -0.000132322 1.86126e-05 0 -0.000169178 7.48004e-06
0 -0.000142019 4.60672e-05 0 -0.000178422 3.55661e-05
0 -0.00014745 7.10886e-05 0 -0.000183309 6.09861e-05
0 -0.000148484 9.33513e-05 0 -0.000183481 8.33722e-05
0 -0.000145112 0.000112587 0 -0.000178923 0.000102526
0 -0.000136826 0.00012854 0 -0.00016907 0.000118191
0 -0.000123466 0.000141111 0 -0.000154082 0.000130247
0 -0.00010526 0.000150102 0 -0.000134104 0.000138657
0 -8.24929e-05 0.000155823 0 -0.000109427 0.000143344
0 -5.55383e-05 0.000158385 0 -8.03389e-05 0.000144795
0 -2.48365e-05 0.000158062 0 -4.74303e-05 0.000143179
0 9.00739e-06 0.000155225 0 -1.13091e-05 0.000138908
0 4.53009e-05 0.000150309 0 2.73273e-05 0.0001324
0 8.33603e-05 0.000143745 0 6.77998e-05 0.000124146
0 0.000122525 0.000135992 0 0.000109425 0.00011465
0 0.000161854 0.000127589 0 0.000151175 0.000104514
0 0.000200345 0.000119102 0 0.000192014 9.43157e-05
0 0.000236973 0.000111074 0 0.000230874 8.46461e-05
0 0.000270733 0.000104014 0 0.000266714 7.6068e-05
0 0.000300697 9.83836e-05 0 0.00029857 6.90927e-05
0 0.000326062 9.4587e-05 0 0.000325616 6.41536e-05
0 0.000346195 9.29457e-05 0 0.000347194 6.15922e-05
0 0.00036158 9.3549e-05 0 0.000363008 6.16465e-05
0 0.000372006 9.65184e-05 0 0.000374852 6.4129e-05
0 0.000376868 0.00010201 0 0.000380576 6.92952e-05
0 0.000376145 0.000109969 0 0.00038071 7.71461e-05
0 0.000370183 0.000120195 0 0.000375303 8.7526e-05
0 0.000359283 0.000132464 0 0.000364818 0.000100181
0 0.000343885 0.000146492 0 0.000349694 0.000114752
0 0.000324572 0.000161899 0 0.000330496 0.000130841
0 0.000301967 0.000178237 0 0.000307877 0.000147995
0 0.000276749 0.000195024 0 0.000282585 0.000165699
0 0.000249686 0.000211751 0 0.000255421 0.0001834
0 0.000221608 0.000227888 0 0.000227211 0.000200531
0 0.000193346 0.000242902 0 0.0001988 0.000216524
0 0.000165711 0.000256272 0 0.000171035 0.000230828
0 0.000139495 0.000267507 0 0.000144727 0.000242921
0 0.000115447 0.000276161 0 0.000120636 0.000252331
0 9.42344e-05 0.000281854 0 9.94441e-05 0.000258642
0 7.64331e-05 0.00028427 0 8.17455e-05 0.000261518
0 6.25215e-05 0.000283172 0 6.80274e-05 0.000260705
0 5.2873e-05 0.000278408 0 5.86677e-05 0.000256042
0 4.77446e-05 0.000269924 0 5.39259e-05 0.000247464
0 4.72671e-05 0.000257761 0 5.39318e-05 0.000235008
0 5.14314e-05 0.000242056 0 5.86706e-05 0.000218815
0 6.00781e-05 0.000223046 0 6.79766e-05 0.00019913
0 7.26775e-05 0.000201112 0 8.1535e-05 0.000176298
0 8.93015e-05 0.000176574 0 9.94404e-05 0.000150648
0 0.000109444 0.00014993 0 0.000120966 0.000122725
0 0.000132436 0.000121735 0 0.000145405 9.3142e-05
0 0.000157428 9.26109e-05 0 0.000171939 6.25341e-05
0 0.000183565 6.31995e-05 0 0.000199684 3.15888e-05
0 0.00021 3.41546e-05 0 0.000227704 1.01455e-06
0 0.000235846 6.13704e-06 0 0.000255073 -2.84899e-05
0 0.000260231 -2.02161e-05 0 0.000280906 -5.62528e-05
0 0.000282387 -4.43209e-05 0 0.000304394 -8.16452e-05
0 0.000301678 -6.56545e-05 0 0.000324848 -0.000104104
0 0.000317589 -8.37675e-05 0 0.000341729 -0.000123174
0 0.000329743 -9.83215e-05 0 0.000354635 -0.00013845
0 0.000337867 -0.000108975 0 0.000363271 -0.000149625
0 0.000341808 -0.000115556 0 0.000367459 -0.00015647
0 0.000341487 -0.000117961 0 0.000367137 -0.000158903
0 0.000336915 -0.000116181 0 0.000362353 -0.000156924
0 0.000328256 -0.000110305 0 0.000353285 -0.000150633
0 0.000315774 -0.000100521 0 0.000340193 -0.000140223
0 0.000299793 -8.70972e-05 0 0.000323414 -0.000125978
0 0.000280692 -7.04104e-05 0 0.000303355 -0.000108293
0 0.000258923 -5.08512e-05 0 0.000280495 -8.75902e-05
0 0.000235031 -2.88841e-05 0 0.000255399 -6.43804e-05
0 0.000209644 -5.04452e-06 0 0.000228727 -3.91925e-05
0 0.000183465 2.01034e-05 0 0.000201217 -1.26456e-05
0 0.000157239 4.59705e-05 0 0.000173649 1.46335e-05
0 0.000131708 7.19631e-05 0 0.000146795 4.20111e-05
0 0.000107572 9.74976e-05 0 0.00012139 6.88713e-05
0 8.54737e-05 0.000122017 0 9.81084e-05 9.46269e-05
0 6.59869e-05 0.000145004 0 7.75506e-05 0.000118733
0 4.96017e-05 0.000165996 0 6.0232e-05 0.000140699
0 3.67144e-05 0.000184592 0 4.65699e-05 0.000160101
0 2.76277e-05 0.000200457 0 3.68841e-05 0.00017659
0 2.25589e-05 0.000213332 0 3.14035e-05 0.000189895
0 2.16481e-05 0.000223035 0 3.02762e-05 0.000199825
0 2.49628e-05 0.000229464 0 3.35723e-05 0.000206276
0 3.24931e-05 0.000232599 0 4.12793e-05 0.000209227
0 4.41359e-05 0.000232504 0 5.32862e-05 0.000208747
0 5.96853e-05 0.000229326 0 6.93732e-05 0.000204993
0 7.88382e-05 0.000223291 0 8.92188e-05 0.000198209
0 0.000101192 0.000214701 0 0.000112397 0.000188716
0 0.000126232 0.000203927 0 0.000138366 0.000176908
0 0.000153333 0.000191399 0 0.000166468 0.000163246
0 0.000181773 0.000177598 0 0.000195946 0.000148247
0 0.000210743 0.00016304 0 0.000225954 0.000132462
0 0.000239368 0.000148261 0 0.00025558 0.00011647
0 0.00026673 0.000133802 0 0.000283867 0.000100852
0 0.000291903 0.00012019 0 0.000309851 8.6176e-05
0 0.000313993 0.000107918 0 0.000332602 7.29754e-05
0 0.000332178 9.7425e-05 0 0.000351268 6.17277e-05
0 0.00034575 8.90853e-05 0 0.000365114 5.28369e-05
0 0.000354135 8.319e-05 0 0.000373544 4.66189e-05
0 0.000356908 7.99394e-05 0 0.000376119 4.3292e-05
0 0.000353798 7.94368e-05 0 0.000372557 4.29701e-05
0 0.000344691 8.16842e-05 0 0.000362743 4.56588e-05
0 0.000329633 8.6582e-05 0 0.000346726 5.12542e-05
0 0.000308831 9.39303e-05 0 0.000324725 5.9545e-05
0 0.000282649 0.000103434 0 0.000297122 7.02169e-05
0 0.00025178 0.000114654 0 0.000263002 8.312e-05
0 0.000215838 0.000127239 0 0.000224637 9.75939e-05
0 0.000176379 0.000140676 0 0.000183158 0.000112618
0 0.00013437 0.0001543 0 0.000139343 0.000128023
0 9.10042e-05 0.000167483 0 9.39845e-05 0.000142972
0 4.70792e-05 0.000179597 0 4.80427e-05 0.000156887
0 3.73353e-06 0.00019002 0 2.18159e-06 0.00016912
0 -3.80344e-05 0.000198061 0 -4.22196e-05 0.000179082
0 -7.76667e-05 0.000203342 0 -8.45433e-05 0.000186151
0 -0.000114647 0.000205425 0 -0.000123896 0.000189494
0 -0.000148046 0.000203575 0 -0.0001594 0.000189014
0 -0.000177 0.000197763 0 -0.000190361 0.000184326
0 -0.000201136 0.000187798 0 -0.000216205 0.000175172
0 -0.000220053 0.00017353 0 -0.000236482 0.000161443
0 -0.00023335 0.00015491 0 -0.000250908 0.000143139
0 -0.000240862 0.000132056 0 -0.000259323 0.00012035
0 -0.000242637 0.000105211 0 -0.000261717 9.32707e-05
0 -0.000238812 7.4686e-05 0 -0.000258258 6.22401e-05
0 -0.000229623 4.07632e-05 0 -0.000249252 2.76284e-05
0 -0.000215515 4.12719e-06 0 -0.000235161 -9.98789e-06
0 -0.00019704 -3.46393e-05 0 -0.000216563 -4.9875e-05
0 -0.000174839 -7.48476e-05 0 -0.000194164 -9.13291e-05
0 -0.000149649 -0.000115761 0 -0.000168768 -0.000133567
0 -0.000122333 -0.000156585 0 -0.000141271 -0.000175768
0 -9.3836e-05 -0.000196499 0 -0.000112643 -0.000217073
0 -6.5152e-05 -0.000234683 0 -8.39116e-05 -0.00025661
0 -3.72741e-05 -0.000270341 0 -5.61288e-05 -0.000293524
0 -1.11382e-05 -0.000302725 0 -3.03148e-05 -0.000327007
0 1.2239e-05 -0.000331094 0 -7.49292e-06 -0.000356282
0 3.16051e-05 -0.000351225 0 1.08697e-05 -0.000375108
0 4.65335e-05 -0.000365126 0 2.43434e-05 -0.000388753
0 5.64744e-05 -0.000375359 0 3.32049e-05 -0.000399449
0 6.11196e-05 -0.000381013 0 3.61294e-05 -0.000404648
0 5.99399e-05 -0.000382281 0 3.31504e-05 -0.000405533
0 5.28004e-05 -0.000378815 0 2.40253e-05 -0.00040148
0 3.97234e-05 -0.000369759 0 8.62598e-06 -0.000391294
0 2.09302e-05 -0.000355424 0 -1.26635e-05 -0.00037562
0 -3.14069e-06 -0.000336104 0 -3.9414e-05 -0.000354734
0 -3.18692e-05 -0.000312269 0 -7.1026e-05 -0.000329167
0 -6.45165e-05 -0.000284582 0 -0.000106753 -0.000299496
0 -0.000100258 -0.000253763 0 -0.000145719 -0.000266467
0 -0.000138193 -0.000220537 0 -0.000186971 -0.00023091
0 -0.000177368 -0.000185659 0 -0.000229522 -0.000193689
0 -0.00021682 -0.000149952 0 -0.000272371 -0.000155657
0 -0.000255605 -0.000114283 0 -0.000314524 -0.000117669
0 -0.000292811 -7.94866e-05 0 -0.000355018 -8.05834e-05
0 -0.000327588 -4.63302e-05 0 -0.000392946 -4.52495e-05
0 -0.000359165 -1.55219e-05 0 -0.00042748 -1.24585e-05
0 -0.000386818 1.22677e-05 0 -0.000457813 1.70819e-05
0 -0.000396349 3.40756e-05 0 -0.000463968 3.95695e-05
0 -0.000395112 5.17768e-05 0 -0.000457751 5.49139e-05
0 -0.000393428 6.55241e-05 0 -0.000460738 7.08417e-05
0 -0.000393223 7.61914e-05 0 -0.000457192 8.06036e-05
0 -0.000392032 8.27789e-05 0 -0.00045092 8.60324e-05
0 -0.000390768 8.5751e-05 0 -0.000447823 8.8535e-05
0 -0.000387694 8.47577e-05 0 -0.00044716 8.8107e-05
0 -0.00038088 7.9513e-05 0 -0.00043931 8.22466e-05
0 -0.000368863 6.97836e-05 0 -0.000427711 7.23319e-05
0 -0.00035238 5.61231e-05 0 -0.000411659 5.82726e-05
0 -0.000332379 3.90281e-05 0 -0.000391597 4.03862e-05
0 -0.000309246 1.88079e-05 0 -0.000368086 1.9151e-05
0 -0.000283256 -4.16901e-06 0 -0.000341893 -4.81577e-06
0 -0.000255212 -2.92666e-05 0 -0.000313631 -3.09524e-05
0 -0.000225993 -5.57854e-05 0 -0.000283952 -5.86738e-05
0 -0.000196249 -8.31206e-05 0 -0.00025365 -8.73051e-05
0 -0.000166649 -0.000110687 0 -0.00022352 -0.000116144
0 -0.000137989 -0.000137844 0 -0.000194293 -0.000144526
0 -0.000111013 -0.000163944 0 -0.000166682 -0.000171811
0 -8.6343e-05 -0.00018839 0 -0.000141389 -0.000197382
0 -6.45613e-05 -0.000210655 0 -0.000119045 -0.000220668
0 -4.6215e-05 -0.000230269 0 -0.000100188 -0.000241162
0 -3.17493e-05 -0.000246826 0 -8.52793e-05 -0.000258432
0 -2.14977e-05 -0.00025999 0 -7.46888e-05 -0.00027213
0 -1.57033e-05 -0.000269512 0 -6.86763e-05 -0.000282002
0 -1.46962e-05 -0.000275217 0 -6.75408e-05 -0.000287872
0 -1.90286e-05 -0.000276984 0 -7.20214e-05 -0.000289552
0 -2.85367e-05 -0.000274897 0 -8.18855e-05 -0.000287116
0 -4.29053e-05 -0.000269116 0 -9.68621e-05 -0.00028074
0 -6.16997e-05 -0.000259887 0 -0.000116469 -0.000270706
0 -8.43508e-05 -0.000247559 0 -0.000140115 -0.000257394
0 -0.000110181 -0.000232568 0 -0.000167094 -0.000241263
0 -0.000138429 -0.000215416 0 -0.00019661 -0.000222841
0 -0.000168278 -0.000196643 0 -0.00022781 -0.00020271
0 -0.000198882 -0.00017682 0 -0.000259806 -0.000181489
0 -0.000229386 -0.00015654 0 -0.000291701 -0.00015981
0 -0.000258941 -0.000136399 0 -0.000322608 -0.000138305
0 -0.000286733 -0.000116974 0 -0.000351669 -0.000117587
0 -0.000311994 -9.88085e-05 0 -0.00037808 -9.82385e-05
0 -0.000334024 -8.23995e-05 0 -0.000401106 -8.07906e-05
0 -0.000352204 -6.8186e-05 0 -0.000420099 -6.57112e-05
0 -0.000366009 -5.6538e-05 0 -0.000434508 -5.33923e-05
0 -0.000375027 -4.77429e-05 0 -0.000443901 -4.414e-05
0 -0.00037897 -4.19976e-05 0 -0.000447979 -3.81653e-05
0 -0.0003777 -3.94031e-05 0 -0.000446596 -3.55768e-05
0 -0.000371236 -3.99616e-05 0 -0.000439774 -3.63762e-05
0 -0.000359765 -4.35764e-05 0 -0.000427707 -4.04583e-05
0 -0.00034364 -5.00543e-05 0 -0.00041076 -4.76154e-05
0 -0.000323355 -5.91143e-05 0 -0.000389447 -5.75457e-05
0 -0.000299512 -7.04006e-05 0 -0.000364394 -6.98677e-05
0 -0.000272793 -8.3496e-05 0 -0.00033631 -8.41341e-05
0 -0.000243932 -9.79347e-05 0 -0.00030596 -9.98466e-05
0 -0.000213699 -0.000113217 0 -0.00027415 -0.000116471
0 -0.00018288 -0.000128823 0 -0.0002417 -0.000133453
0 -0.000152257 -0.000144232 0 -0.000209427 -0.000150235
0 -0.000122594 -0.000158929 0 -0.000178131 -0.000166267
0 -9.46136e-05 -0.000172428 0 -0.000148568 -0.000181029
0 -6.8967e-05 -0.000184282 0 -0.000121419 -0.000194044
0 -4.62015e-05 -0.000194099 0 -9.72589e-05 -0.000204892
0 -2.67253e-05 -0.000201555 0 -7.6518e-05 -0.000213229
0 -1.07883e-05 -0.000206403 0 -5.94648e-05 -0.000218791
0 1.50931e-06 -0.000208474 0 -4.62127e-05 -0.000221401
0 1.01915e-05 -0.000207677 0 -3.67468e-05 -0.000220968
0 1.53756e-05 -0.000203995 0 -3.09543e-05 -0.000217476
0 1.72444e-05 -0.000197481 0 -2.86515e-05 -0.000210985
0 1.60294e-05 -0.000188254 0 -2.96017e-05 -0.00020162
0 1.20035e-05 -0.00017649 0 -3.35222e-05 -0.000189573
0 5.47999e-06 -0.000162423 0 -4.00853e-05 -0.000175089
0 -3.1879e-06 -0.000146336 0 -4.892e-05 -0.000158469
0 -1.36139e-05 -0.000128552 0 -5.96194e-05 -0.000140058
0 -2.53847e-05 -0.000109431 0 -7.17467e-05 -0.000120236
0 -3.80629e-05 -8.93607e-05 0 -8.484e-05 -9.94137e-05
0 -5.11882e-05 -6.87457e-05 0 -9.84124e-05 -7.80194e-05
0 -6.42889e-05 -4.80006e-05 0 -0.000111966 -5.64926e-05
0 -7.69056e-05 -2.75374e-05 0 -0.000125014 -3.52699e-05
0 -8.86111e-05 -7.75501e-06 0 -0.000137105 -1.47737e-05
0 -9.89908e-05 1.06568e-05 0 -0.000147784 4.11962e-06
0 -0.00010771 2.73008e-05 0 -0.000156657 2.11782e-05
0 -0.000114482 4.23767e-05 0 -0.000163551 3.66437e-05
0 -0.000119052 5.55554e-05 0 -0.000168066 5.00588e-05
0 -0.000121288 6.66389e-05 0 -0.000167583 6.09579e-05
0 -0.000118449 7.53597e-05 0 -0.000161361 6.84278e-05
0 -0.000111705 8.14544e-05 0 -0.000153987 7.45157e-05
0 -0.00010186 8.52199e-05 0 -0.000143256 7.77113e-05
0 -8.96447e-05 8.66572e-05 0 -0.000129768 7.86701e-05
0 -7.51105e-05 8.59681e-05 0 -0.000113717 7.72145e-05
0 -5.81202e-05 8.3236e-05 0 -9.53708e-05 7.36954e-05
0 -4.15178e-05 7.91299e-05 0 -7.73761e-05 6.8586e-05
0 -2.38365e-05 7.33095e-05 0 -5.76792e-05 6.19688e-05
0 -4.79547e-06 6.61189e-05 0 -3.65772e-05 5.35493e-05
0 1.56601e-05 5.75254e-05 0 -1.44187e-05 4.41379e-05
0 3.68047e-05 4.81919e-05 0 8.38497e-06 3.36856e-05
0 5.80434e-05 3.83723e-05 0 3.15912e-05 2.26302e-05
0 7.92868e-05 2.83147e-05 0 5.4678e-05 1.13929e-05
0 0.000100162 1.83572e-05 0 7.72149e-05 3.79129e-07
0 0.000120085 8.91894e-06 0 9.88009e-05 -1.01336e-05
0 0.000138651 3.09318e-07 0 0.000119045 -1.98184e-05
0 0.000155613 -7.24636e-06 0 0.00013756 -2.83448e-05
0 0.000170657 -1.35062e-05 0 0.000154021 -3.54426e-05
0 0.000183448 -1.82228e-05 0 0.000168164 -4.0899e-05
0 0.000193765 -2.12104e-05 0 0.000179752 -4.45356e-05
0 0.000201471 -2.23575e-05 0 0.000188603 -4.62128e-05
0 0.000206453 -2.16008e-05 0 0.000194615 -4.58496e-05
0 0.000208655 -1.8917e-05 0 0.000197759 -4.34268e-05
0 0.000208115 -1.4333e-05 0 0.000198067 -3.89813e-05
0 0.00020494 -7.93134e-06 0 0.000195639 -3.26035e-05
0 0.000199282 1.51e-07 0 0.000190644 -2.44363e-05
0 0.000191349 9.7298e-06 0 0.000183307 -1.46713e-05
0 0.000181407 2.05307e-05 0 0.000173903 -3.55179e-06
0 0.000169792 3.20232e-05 0 0.000162788 8.25011e-06
0 0.000156796 4.42886e-05 0 0.000150297 2.08368e-05
0 0.000142825 5.69709e-05 0 0.000136805 3.38708e-05
0 0.000128267 6.97692e-05 0 0.000122753 4.70555e-05
0 0.000113568 8.23722e-05 0 0.000108589 6.00279e-05
0 9.91624e-05 9.44667e-05 0 9.47599e-05 7.24629e-05
0 8.54815e-05 0.000105745 0 8.17158e-05 8.40347e-05
0 7.29405e-05 0.000115912 0 6.98834e-05 9.44388e-05
0 6.19358e-05 0.000124701 0 5.96702e-05 0.000103393
0 5.28413e-05 0.000131879 0 5.14569e-05 0.000110647
0 4.60054e-05 0.00013725 0 4.55938e-05 0.000115987
0 4.17459e-05 0.000140655 0 4.23934e-05 0.000119251
0 4.0335e-05 0.000141983 0 4.21172e-05 0.000120324
0 4.19786e-05 0.000141175 0 4.49581e-05 0.000119147
0 4.6803e-05 0.000138192 0 5.103e-05 0.000115666
0 5.48347e-05 0.000133098 0 6.03469e-05 0.000109947
0 6.60007e-05 0.000126025 0 7.28189e-05 0.000102131
0 8.01242e-05 0.000117166 0 8.82576e-05 9.24259e-05
0 9.69307e-05 0.000106774 0 0.000106377 8.10968e-05
0 0.000116052 9.51521e-05 0 0.000126801 6.84628e-05
0 0.000137035 8.26503e-05 0 0.000149068 5.48892e-05
0 0.00015936 6.96485e-05 0 0.000172657 4.07775e-05
0 0.000182492 5.65458e-05 0 0.000197101 2.65386e-05
0 0.000206012 4.37359e-05 0 0.000222005 1.25569e-05
0 0.000229263 3.1638e-05 0 0.000246575 -6.74897e-07
0 0.000251595 2.06609e-05 0 0.000270169 -1.27379e-05
0 0.000272408 1.11785e-05 0 0.000292158 -2.32193e-05
0 0.00029118 3.52831e-06 0 0.000312002 -3.17588e-05
0 0.000307475 -2.00068e-06 0 0.000329236 -3.8046e-05
0 0.000320938 -5.17539e-06 0 0.000343493 -4.18343e-05
0 0.000332241 -6.00556e-06 0 0.000354459 -4.29051e-05
0 0.000340544 -4.21351e-06 0 0.000363375 -4.13918e-05
0 0.00034568 2.80444e-07 0 0.00036889 -3.71336e-05
0 0.00034764 7.40393e-06 0 0.000371256 -3.00592e-05
0 0.000346612 1.70499e-05 0 0.000370334 -2.02968e-05
0 0.000342625 2.90842e-05 0 0.000366352 -7.95828e-06
0 0.000335653 4.33627e-05 0 0.000359262 6.74646e-06
0 0.000325925 5.96288e-05 0 0.000349362 2.35482e-05
0 0.000313817 7.74678e-05 0 0.000336961 4.21066e-05
0 0.00029977 9.60353e-05 0 0.000322555 6.12617e-05
0 0.000284117 0.00011561 0 0.000306497 8.16195e-05
0 0.000267363 0.0001357 0 0.000289271 0.000102433
0 0.000249998 0.000155886 0 0.000271401 0.000123434
0 0.000232535 0.000175776 0 0.00025339 0.000144117
0 0.00021545 0.000194964 0 0.000235739 0.000164091
0 0.000199203 0.000213062 0 0.00021892 0.000182939
0 0.000184224 0.000229696 0 0.000203371 0.000200283
0 0.000170901 0.000244532 0 0.000189493 0.000215768
0 0.000159743 0.000257257 0 0.000177737 0.000229075
0 0.00015132 0.000267592 0 0.000168829 0.000239873
0 0.000145884 0.000275359 0 0.000162999 0.000247962
0 0.000143574 0.000280434 0 0.00016043 0.000253217
0 0.000144432 0.000282757 0 0.000161146 0.000255581
0 0.000148349 0.000282335 0 0.000165037 0.00025507
0 0.000155067 0.0002792 0 0.000171841 0.000251692
0 0.000164191 0.000273532 0 0.00018115 0.000245655
0 0.000175242 0.000265555 0 0.000192464 0.000237201
0 0.000187687 0.000255541 0 0.000205232 0.000226635
0 0.000200965 0.000243806 0 0.000218875 0.000214292
0 0.000214499 0.000230693 0 0.000232792 0.000200537
0 0.000227697 0.000216565 0 0.000246368 0.000185756
0 0.000239971 0.000201783 0 0.00025899 0.000170343
0 0.000250767 0.000186703 0 0.000270083 0.00015468
0 0.000259597 0.000171664 0 0.000279137 0.000139129
0 0.000266045 0.000156977 0 0.000285719 0.000124019
0 0.000269757 0.00014292 0 0.000289459 0.000109643
0 0.000270438 0.000129731 0 0.000290047 9.62532e-05
0 0.000267851 0.0001176 0 0.000287236 8.40553e-05
0 0.000261839 0.00010667 0 0.000280861 7.31995e-05
0 0.000252335 9.70282e-05 0 0.000270855 6.37755e-05
0 0.000239386 8.87032e-05 0 0.000257265 5.58104e-05
0 0.000223151 8.16642e-05 0 0.000240256 4.92675e-05
0 0.000203906 7.58231e-05 0 0.000220114 4.40486e-05
0 0.000182028 7.10415e-05 0 0.00019723 3.99996e-05
0 0.000157974 6.71379e-05 0 0.000172074 3.69195e-05
0 0.000132253 6.3897e-05 0 0.000145177 3.45712e-05
0 0.000105405 6.10801e-05 0 0.000117096 3.26932e-05
0 7.79698e-05 5.84354e-05 0 8.83911e-05 3.10112e-05
0 5.04725e-05 5.57085e-05 0 5.96096e-05 2.92483e-05
0 2.34159e-05 5.26501e-05 0 3.12748e-05 2.71335e-05
0 -2.72614e-06 4.90243e-05 0 3.88093e-06 2.44102e-05
0 -2.74675e-05 4.45899e-05 0 -2.20862e-05 2.05873e-05
0 -4.90397e-05 3.87506e-05 0 -4.37489e-05 1.52739e-05
0 -6.77601e-05 3.16368e-05 0 -6.43387e-05 8.98533e-06
0 -8.43943e-05 2.34734e-05 0 -8.23778e-05 1.44368e-06
0 -0.000101625 1.49055e-05 0 -0.00010189 -6.28528e-06
0 -0.000116625 4.87582e-06 0 -0.000117768 -1.57765e-05
0 -0.000128897 -6.49305e-06 0 -0.000131458 -2.64847e-05
0 -0.000138561 -1.90461e-05 0 -0.000142149 -3.86801e-05
0 -0.000145587 -3.27641e-05 0 -0.000150157 -5.22059e-05
0 -0.000149885 -4.76384e-05 0 -0.00015532 -6.69483e-05
0 -0.00015142 -6.35509e-05 0 -0.000157671 -8.27475e-05
0 -0.00015035 -8.02668e-05 0 -0.000157301 -9.94774e-05
0 -0.000146843 -9.75528e-05 0 -0.000154393 -0.000116919
0 -0.000141044 -0.000115199 0 -0.000149155 -0.000134799
0 -0.000133172 -0.00013296 0 -0.000141825 -0.000152819
0 -0.000123531 -0.000150528 0 -0.000132694 -0.000170684
0 -0.000112448 -0.000167574 0 -0.000122108 -0.000188072
0 -0.000100269 -0.000183776 0 -0.000110457 -0.000204642
0 -8.73843e-05 -0.000198818 0 -9.81471e-05 -0.000220042
0 -7.42129e-05 -0.000212385 0 -8.56031e-05 -0.000233932
0 -6.11724e-05 -0.000224163 0 -7.32607e-05 -0.000245987
0 -4.86749e-05 -0.000233856 0 -6.15537e-05 -0.000255902
0 -3.71294e-05 -0.000241202 0 -5.09024e-05 -0.000263398
0 -2.69327e-05 -0.000245979 0 -4.17086e-05 -0.000268233
0 -1.84565e-05 -0.000248002 0 -3.43496e-05 -0.000270204
0 -1.20461e-05 -0.00024707 0 -2.91719e-05 -0.000269103
0 -7.99717e-06 -0.000243067 0 -2.64732e-05 -0.000264784
0 -6.54167e-06 -0.000235971 0 -2.64694e-05 -0.000257238
0 -7.82909e-06 -0.000225827 0 -2.9305e-05 -0.000246501
0 -1.19249e-05 -0.000212745 0 -3.50352e-05 -0.000232687
0 -1.8803e-05 -0.000196903 0 -4.36233e-05 -0.00021598
0 -2.8343e-05 -0.000178544 0 -5.49385e-05 -0.000196635
0 -4.03335e-05 -0.000157975 0 -6.87602e-05 -0.00017497
0 -5.44824e-05 -0.000135556 0 -8.4788e-05 -0.000151361
0 -7.04347e-05 -0.000111691 0 -0.000102657 -0.000126231
0 -8.77872e-05 -8.68221e-05 0 -0.000121955 -0.000100041
0 -0.000106106 -6.14165e-05 0 -0.000142234 -7.32801e-05
0 -0.000124941 -3.59555e-05 0 -0.000163032 -4.64511e-05
0 -0.000143841 -1.09235e-05 0 -0.000183879 -2.00623e-05
0 -0.000162361 1.32016e-05 0 -0.000204314 5.38564e-06
0 -0.000180075 3.59588e-05 0 -0.000223893 2.941e-05
0 -0.000196551 5.65781e-05 0 -0.000242155 5.10652e-05
0 -0.000211464 7.48903e-05 0 -0.000258752 7.04073e-05
0 -0.000224494 9.07575e-05 0 -0.000273406 8.71887e-05
0 -0.000235403 0.000103875 0 -0.000285814 0.000101109
0 -0.000243968 0.000113994 0 -0.000295768 0.000111917
0 -0.000250054 0.000120955 0 -0.000303121 0.000119437
0 -0.000253584 0.000124653 0 -0.000307789 0.000123551
0 -0.000254544 0.000125018 0 -0.000309763 0.0001242
0 -0.00025299 0.000121994 0 -0.000309094 0.000121312
0 -0.000249056 0.000115672 0 -0.000305918 0.000114994
0 -0.000242947 0.000106205 0 -0.000300445 0.000105389
0 -0.000234931 9.38018e-05 0 -0.000292948 9.27222e-05
0 -0.000225321 7.87176e-05 0 -0.00028375 7.72665e-05
0 -0.000214459 6.12452e-05 0 -0.000273195 5.93152e-05
0 -0.000202734 4.20009e-05 0 -0.000261628 3.95567e-05
0 -0.000190462 2.10687e-05 0 -0.000249467 1.80424e-05
0 -0.000178069 -1.12269e-06 0 -0.000237136 -4.72738e-06
0 -0.000165982 -2.41768e-05 0 -0.000225103 -2.83914e-05
0 -0.000154804 -4.76737e-05 0 -0.000213795 -5.24995e-05
0 -0.000147274 -7.08097e-05 0 -0.000205419 -7.64838e-05
0 -0.000140703 -9.38852e-05 0 -0.000199171 -9.98311e-05
0 -0.000135579 -0.000116361 0 -0.000194336 -0.000122716
0 -0.000132245 -0.000137923 0 -0.000191269 -0.000144533
0 -0.000130911 -0.000158257 0 -0.000190137 -0.000165178
0 -0.000131624 -0.000177195 0 -0.000191171 -0.000184313
0 -0.000134475 -0.000194545 0 -0.000194449 -0.000201735
0 -0.000139551 -0.00021012 0 -0.000199973 -0.000217292
0 -0.000146832 -0.000223788 0 -0.000207729 -0.000230875
0 -0.000155647 -0.000235599 0 -0.000217531 -0.000242422
0 -0.000166069 -0.0002455 0 -0.000229303 -0.000251878
0 -0.000178136 -0.00025343 0 -0.000241878 -0.0002595
0 -0.000191805 -0.000259433 0 -0.000256358 -0.000265066
0 -0.000206851 -0.000263588 0 -0.000272166 -0.000268769
0 -0.000223166 -0.000266024 0 -0.000289521 -0.0002706
0 -0.000240542 -0.000266873 0 -0.000307897 -0.000270804
0 -0.000258649 -0.000266311 0 -0.000326997 -0.000269555
0 -0.00027711 -0.000264545 0 -0.000346481 -0.00026708
0 -0.000295576 -0.0002618 0 -0.000365972 -0.000263612
0 -0.000313671 -0.000258313 0 -0.000385031 -0.000259413
0 -0.000330951 -0.000254325 0 -0.0004032 -0.000254734
0 -0.000346958 -0.00025008 0 -0.000420022 -0.00024984
0 -0.000361272 -0.000245811 0 -0.000435052 -0.000244989
0 -0.000373507 -0.000241733 0 -0.000447873 -0.000240415
0 -0.000383304 -0.000238043 0 -0.000458121 -0.000236322
0 -0.000390363 -0.000234899 0 -0.000465489 -0.00023288
0 -0.000394445 -0.000232418 0 -0.00046973 -0.000230219
0 -0.000395283 -0.000230696 0 -0.000470566 -0.000228441
0 -0.000392753 -0.000229768 0 -0.000467902 -0.000227586
0 -0.000386879 -0.000229615 0 -0.000461752 -0.000227626
0 -0.000377799 -0.000230161 0 -0.000452248 -0.000228491
0 -0.000365746 -0.000231288 0 -0.00043964 -0.000230047
0 -0.000351073 -0.000232832 0 -0.000424304 -0.000232115
0 -0.000334242 -0.000234587 0 -0.000406714 -0.000234472
0 -0.000315776 -0.000236323 0 -0.000387404 -0.000236867
0 -0.000296221 -0.000237794 0 -0.000366943 -0.000239032
0 -0.000276117 -0.000238753 0 -0.000345894 -0.000240697
0 -0.00025598 -0.000238955 0 -0.000324789 -0.000241597
0 -0.000236279 -0.000238176 0 -0.000304117 -0.000241489
0 -0.000217437 -0.000236213 0 -0.00028432 -0.000240151
0 -0.000199833 -0.00023289 0 -0.000265796 -0.000237392
0 -0.000183795 -0.000228067 0 -0.000248887 -0.000233059
0 -0.000169591 -0.000221645 0 -0.000233874 -0.000227041
0 -0.000157428 -0.000213566 0 -0.000220974 -0.000219271
0 -0.000147447 -0.000203818 0 -0.000210333 -0.000209733
0 -0.000139718 -0.000192438 0 -0.000202024 -0.000198462
0 -0.000134234 -0.000179509 0 -0.000196041 -0.000185543
0 -0.000130918 -0.000165163 0 -0.000192302 -0.000171112
0 -0.000129621 -0.000149573 0 -0.000190651 -0.000155352
0 -0.000130127 -0.000132955 0 -0.00019086 -0.000138488
0 -0.000132156 -0.000115559 0 -0.000192639 -0.000120785
0 -0.000135375 -9.76618e-05 0 -0.000195639 -0.000102538
0 -0.000139405 -7.95645e-05 0 -0.000199464 -8.40627e-05
0 -0.000143823 -6.1581e-05 0 -0.000203674 -6.56946e-05
0 -0.00014818 -4.40302e-05 0 -0.000207803 -4.77727e-05
0 -0.000152835 -2.31786e-05 0 -0.000212117 -2.65078e-05
0 -0.000155786 -4.07427e-06 0 -0.000214634 -7.08299e-06
0 -0.00015624 1.27701e-05 0 -0.000214534 9.95365e-06
0 -0.000153559 2.66644e-05 0 -0.000211128 2.36621e-05
0 -0.000147374 3.73311e-05 0 -0.000204059 3.41464e-05
0 -0.000137582 4.50322e-05 0 -0.000193231 4.14379e-05
0 -0.000124216 4.96733e-05 0 -0.00017866 4.5545e-05
0 -0.000107438 5.13508e-05 0 -0.000160511 4.65217e-05
0 -8.75253e-05 5.02595e-05 0 -0.000139076 4.45724e-05
0 -6.48881e-05 4.668e-05 0 -0.000114787 4.0003e-05
0 -3.88601e-05 4.09965e-05 0 -8.27179e-05 3.22388e-05
0 -7.89522e-06 3.3125e-05 0 -4.97908e-05 2.29466e-05
0 1.95096e-05 2.48785e-05 0 -2.09943e-05 1.35495e-05
0 4.55454e-05 1.62624e-05 0 8.94608e-06 3.21618e-06
0 7.10055e-05 7.60977e-06 0 3.69184e-05 -6.70606e-06
0 9.46395e-05 -3.26837e-07 0 6.31094e-05 -1.60987e-05
0 0.000115502 -7.0517e-06 0 8.68409e-05 -2.42074e-05
0 0.000133686 -1.2262e-05 0 0.000107647 -3.05866e-05
0 0.000148724 -1.55046e-05 0 0.000125072 -3.49009e-05
0 0.000160234 -1.653e-05 0 0.000139054 -3.69213e-05
0 0.000168352 -1.53048e-05 0 0.000149394 -3.64645e-05
0 0.000173112 -1.18762e-05 0 0.000156181 -3.35475e-05
0 0.000174581 -6.26457e-06 0 0.000159589 -2.84791e-05
0 0.000173058 1.42652e-06 0 0.000159808 -2.11339e-05
0 0.000168833 1.0967e-05 0 0.000157172 -1.1804e-05
0 0.000162269 2.20868e-05 0 0.000152094 -7.92651e-07
0 0.000153864 3.44323e-05 0 0.000145062 1.15214e-05
0 0.000144173 4.75838e-05 0 0.000136657 2.47119e-05
0 0.000133789 6.1096e-05 0 0.000127502 3.83075e-05
0 0.000123344 7.45209e-05 0 0.000118242 5.18261e-05
0 0.000113457 8.74094e-05 0 0.000109515 6.47882e-05
0 0.000104709 9.93282e-05 0 0.000101924 7.67437e-05
0 9.76214e-05 0.000109888 0 9.60087e-05 8.72839e-05
0 9.26343e-05 0.000118764 0 9.22262e-05 9.60559e-05
0 9.00907e-05 0.000125694 0 9.09393e-05 0.000102781
0 9.0228e-05 0.000130491 0 9.23999e-05 0.000107266
0 9.3178e-05 0.000133055 0 9.67517e-05 0.000109401
0 9.89878e-05 0.00013337 0 0.000104047 0.000109166
0 0.000107636 0.000131501 0 0.000114258 0.000106628
0 0.000119024 0.000127564 0 0.000127271 0.000101905
0 0.000132957 0.000121769 0 0.000142872 9.52192e-05
0 0.000149142 0.00011443 0 0.000160741 8.69008e-05
0 0.000167182 0.000105926 0 0.000180457 7.73538e-05
0 0.000186595 9.66904e-05 0 0.000201512 6.70379e-05
0 0.000206805 8.72018e-05 0 0.000223309 5.6457e-05
0 0.000227162 7.79598e-05 0 0.000245186 4.6139e-05
0 0.00024697 6.94659e-05 0 0.000266437 3.66138e-05
0 0.000265529 6.22003e-05 0 0.000286362 2.83873e-05
0 0.000282193 5.65966e-05 0 0.000304313 2.19166e-05
0 0.000296413 5.30196e-05 0 0.000319739 1.75871e-05
0 0.000307769 5.17476e-05 0 0.000332217 1.5694e-05
0 0.000315999 5.29597e-05 0 0.000341476 1.64282e-05
0 0.000321 5.67291e-05 0 0.000347405 1.98689e-05
0 0.00032282 6.30228e-05 0 0.000350038 2.59848e-05
0 0.000321636 7.17058e-05 0 0.00034955 3.46361e-05
0 0.000317772 8.2328e-05 0 0.000346242 4.54732e-05
0 0.000311608 9.46209e-05 0 0.000340558 5.78313e-05
0 0.000303628 0.000108364 0 0.000332896 7.18348e-05
0 0.00029432 0.000123146 0 0.000323759 8.69767e-05
0 0.00028413 0.000138558 0 0.000313595 0.0001028
0 0.00027359 0.000154145 0 0.000303011 0.00011883
0 0.000264613 0.000169195 0 0.000293035 0.000134575
0 0.000256038 0.00018369 0 0.000284421 0.000149373
0 0.000248064 0.000197128 0 0.000276335 0.000163198
0 0.0002412 0.000209141 0 0.000269124 0.000175597
0 0.000236757 0.000219288 0 0.000264334 0.000186105
0 0.000235026 0.000227395 0 0.000262335 0.000194406
0 0.000236041 0.000233327 0 0.000263187 0.000200397
0 0.000239586 0.000237029 0 0.000266626 0.000204075
0 0.00024526 0.000238587 0 0.000272276 0.000205521
0 0.000252523 0.000238172 0 0.000279552 0.000204909
0 0.000260685 0.00023596 0 0.000287758 0.000202431
0 0.000268961 0.000232228 0 0.000296086 0.000198417
0 0.000276543 0.0002273 0 0.000303697 0.000193215
0 0.000282667 0.000221507 0 0.000309804 0.000187178
0 0.000286683 0.000215146 0 0.000313739 0.000180635
0 0.000288119 0.000208471 0 0.000315007 0.000173867
0 0.000286694 0.000201689 0 0.000313317 0.00016709
0 0.000282301 0.000194943 0 0.000308551 0.000160452
0 0.000274951 0.000188321 0 0.000300715 0.000154043
0 0.000264718 0.00018186 0 0.00028988 0.0001479
0 0.000251725 0.000175551 0 0.000276172 0.00014201
0 0.000236173 0.000169339 0 0.000259797 0.000136309
0 0.000218362 0.000163118 0 0.000241064 0.000130681
0 0.000198676 0.000156748 0 0.00022037 0.000124971
0 0.000177556 0.000150062 0 0.000198171 0.00011899
0 0.000155482 0.000142875 0 0.000174965 0.000112538
0 0.000132967 0.000135001 0 0.000151279 0.000105406
0 0.00011054 0.000126259 0 0.000127661 9.73933e-05
0 8.8699e-05 0.000116496 0 0.000104623 8.8326e-05
0 6.78293e-05 0.000105602 0 8.25618e-05 7.8079e-05
0 4.81437e-05 9.35249e-05 0 6.16989e-05 6.65922e-05
0 2.9702e-05 8.02722e-05 0 4.20994e-05 5.38705e-05
0 8.30313e-06 6.65164e-05 0 1.92793e-05 4.06957e-05
0 -1.1168e-05 5.12124e-05 0 -2.96552e-06 2.6186e-05
0 -2.95678e-05 3.45794e-05 0 -2.38016e-05 1.05321e-05
0 -4.69051e-05 1.70171e-05 0 -4.32194e-05 -6.45204e-06
0 -6.2413e-05 -8.32856e-07 0 -6.07897e-05 -2.35256e-05
0 -7.61348e-05 -1.97069e-05 0 -7.66958e-05 -4.17253e-05
0 -8.82595e-05 -3.92759e-05 0 -9.06293e-05 -6.07287e-05
0 -9.86548e-05 -5.93205e-05 0 -0.00010283 -8.02976e-05
0 -0.000107388 -7.96781e-05 0 -0.000113223 -0.000100289
0 -0.00011458 -0.000100121 0 -0.000121872 -0.000120395
0 -0.000120231 -0.000120366 0 -0.000128856 -0.000140401
0 -0.000124419 -0.000140115 0 -0.000134254 -0.000159983
0 -0.000127264 -0.000159101 0 -0.000138177 -0.000178865
0 -0.000128869 -0.00017704 0 -0.00014076 -0.000196718
0 -0.000129377 -0.000193615 0 -0.000142172 -0.000213252
0 -0.000128936 -0.000208536 0 -0.000142566 -0.000228162
0 -0.00012767 -0.000221547 0 -0.000142108 -0.00024116
0 -0.000125727 -0.000232399 0 -0.00014097 -0.00025198
0 -0.000123294 -0.000240849 0 -0.000139357 -0.000260386
0 -0.000120593 -0.000246697 0 -0.000137506 -0.000266162
0 -0.000117886 -0.00024978 0 -0.00013568 -0.000269126
0 -0.000115429 -0.000249964 0 -0.000134132 -0.000269141
0 -0.000113427 -0.000247098 0 -0.00013307 -0.000266033
0 -0.000112003 -0.000241184 0 -0.000132625 -0.000259806
0 -0.00011122 -0.000232292 0 -0.000132865 -0.00025052
0 -0.000111117 -0.000220552 0 -0.000133836 -0.00023831
0 -0.000111737 -0.000206152 0 -0.00013557 -0.000223369
0 -0.00011311 -0.000189336 0 -0.000138079 -0.000205947
0 -0.000115234 -0.000170403 0 -0.000141341 -0.000186356
0 -0.000118062 -0.000149704 0 -0.000145282 -0.000164958
0 -0.000121502 -0.000127632 0 -0.000149788 -0.000142162
0 -0.000125432 -0.000104619 0 -0.000154706 -0.000118418
0 -0.000129694 -8.11205e-05 0 -0.000159853 -9.42008e-05
0 -0.000134099 -5.76115e-05 0 -0.000165008 -7.00036e-05
0 -0.000138422 -3.45724e-05 0 -0.000169924 -4.63268e-05
0 -0.000142526 -1.2464e-05 0 -0.000174459 -2.36497e-05
0 -0.000146671 8.32304e-06 0 -0.000178988 -2.32685e-06
0 -0.000150209 2.72419e-05 0 -0.00018275 1.704e-05
0 -0.000152456 4.33755e-05 0 -0.000185092 3.33684e-05
0 -0.000152955 5.69769e-05 0 -0.000185584 4.71886e-05
0 -0.000151245 6.77259e-05 0 -0.00018368 5.79756e-05
0 -0.000146954 7.54106e-05 0 -0.000179075 6.55927e-05
0 -0.000139948 7.99636e-05 0 -0.000171604 6.99305e-05
0 -0.000130265 8.14163e-05 0 -0.000161315 7.10134e-05
0 -0.000118129 7.98733e-05 0 -0.000148456 6.89865e-05
0 -0.000103939 7.5528e-05 0 -0.000133432 6.40449e-05
0 -8.82102e-05 6.86769e-05 0 -0.000116773 5.64858e-05
0 -7.15076e-05 5.9708e-05 0 -9.90799e-05 4.67294e-05
0 -5.44112e-05 4.90455e-05 0 -8.09536e-05 3.52413e-05
0 -3.74884e-05 3.71546e-05 0 -6.29893e-05 2.25086e-05
0 -2.13013e-05 2.452e-05 0 -4.57786e-05 9.03555e-06
0 -6.40246e-06 1.16174e-05 0 -2.9902e-05 -4.67134e-06
0 6.69482e-06 -1.10197e-06 0 -1.58984e-05 -1.81275e-05
0 1.75276e-05 -1.31353e-05 0 -4.25032e-06 -3.08136e-05
0 2.57201e-05 -2.41881e-05 0 4.63414e-06 -4.23792e-05
0 3.09504e-05 -3.39734e-05 0 1.04458e-05 -5.25718e-05
0 3.29987e-05 -4.2273e-05 0 1.29431e-05 -6.11446e-05
0 3.17635e-05 -4.89477e-05 0 1.20315e-05 -6.79593e-05
0 2.73063e-05 -5.39509e-05 0 7.78104e-06 -7.29664e-05
0 1.9863e-05 -5.73304e-05 0 4.41531e-07 -7.62326e-05
0 9.84588e-06 -5.92277e-05 0 -9.55312e-06 -7.79064e-05
0 -2.17384e-06 -5.98623e-05 0 -2.16063e-05 -7.82349e-05
0 -1.55022e-05 -5.95175e-05 0 -3.49921e-05 -7.75296e-05
0 -2.83971e-05 -5.85982e-05 0 -4.67611e-05 -7.64049e-05
0 -3.67114e-05 -5.78834e-05 0 -5.45383e-05 -7.58273e-05
0 -4.4498e-05 -5.69434e-05 0 -6.13059e-05 -7.48447e-05
0 -5.15209e-05 -5.60019e-05 0 -6.74206e-05 -7.40182e-05
0 -5.69242e-05 -5.5363e-05 0 -7.15778e-05 -7.34567e-05
0 -5.97506e-05 -5.51615e-05 0 -7.33688e-05 -7.34713e-05
0 -5.98106e-05 -5.54958e-05 0 -7.22e-05 -7.41483e-05
0 -5.68556e-05 -5.64646e-05 0 -6.78657e-05 -7.55565e-05
0 -5.0645e-05 -5.80598e-05 0 -6.02566e-05 -7.76571e-05
0 -4.12769e-05 -6.01364e-05 0 -4.94107e-05 -8.03768e-05
0 -2.89381e-05 -6.25456e-05 0 -3.54835e-05 -8.35465e-05
0 -1.38475e-05 -6.51031e-05 0 -1.87637e-05 -8.6921e-05
0 3.6331e-06 -6.75676e-05 0 3.9934e-07 -9.0232e-05
0 2.30293e-05 -6.97166e-05 0 2.15577e-05 -9.31985e-05
0 4.3924e-05 -7.11066e-05 0 4.42022e-05 -9.55734e-05
0 6.57893e-05 -7.14385e-05 0 6.77868e-05 -9.69523e-05
0 8.80712e-05 -7.03596e-05 0 9.17847e-05 -9.68275e-05
0 0.000110204 -6.75104e-05 0 0.000115605 -9.49314e-05
0 0.000131647 -6.26301e-05 0 0.000138677 -9.09722e-05
0 0.000151951 -5.57822e-05 0 0.000160541 -8.48757e-05
0 0.000170684 -4.66523e-05 0 0.000180791 -7.65629e-05
0 0.000187532 -3.50516e-05 0 0.000199033 -6.56558e-05
0 0.000202251 -2.09668e-05 0 0.000215049 -5.21236e-05
0 0.000214726 -4.4429e-06 0 0.000228702 -3.60443e-05
0 0.000224937 1.43883e-05 0 0.000239962 -1.75443e-05
0 0.000232959 3.53121e-05 0 0.000248899 3.16152e-06
0 0.000238934 5.80373e-05 0 0.000255654 2.57839e-05
0 0.000243039 8.22293e-05 0 0.000260406 4.9971e-05
0 0.00024548 0.000107502 0 0.000263375 7.53208e-05
0 0.0002465 0.000133423 0 0.000264816 0.000101391
0 0.000246373 0.000159529 0 0.00026502 0.000127705
0 0.000245406 0.000185346 0 0.000264312 0.000153766
0 0.000243935 0.000210387 0 0.000263043 0.000179069
0 0.00024231 0.000234175 0 0.000261577 0.000203119
0 0.000240864 0.000256253 0 0.000260261 0.000225444
0 0.000239887 0.000276206 0 0.000259399 0.000245612
0 0.000239606 0.00029367 0 0.00025923 0.000263244
0 0.000240504 0.000304904 0 0.000260085 0.00027623
0 0.000242134 0.000313533 0 0.000262089 0.000284342
0 0.000244627 0.000319907 0 0.00026468 0.000290993
0 0.000247705 0.000324018 0 0.000268071 0.000295023
0 0.000251375 0.000326001 0 0.000272041 0.000296792
0 0.000255529 0.000325675 0 0.000276514 0.000296245
0 0.000260117 0.000322696 0 0.000281447 0.000293051
0 0.00026509 0.000316856 0 0.00028682 0.000286946
0 0.000270355 0.000308432 0 0.000292496 0.000278121
0 0.000275794 0.000297625 0 0.000298347 0.000266869
0 0.00028133 0.000284653 0 0.000304281 0.000253481
0 0.00028702 0.000269831 0 0.00031039 0.000238213
0 0.000292597 0.000253561 0 0.000316361 0.000221444
0 0.000297602 0.000236246 0 0.000321719 0.000203625
0 0.000301496 0.000218298 0 0.000325921 0.000185237
0 0.000303812 0.000200154 0 0.000328469 0.000166715
0 0.000304122 0.000182231 0 0.000328915 0.000148473
0 0.000302073 0.000164882 0 0.000326905 0.000130893
0 0.000297442 0.000148398 0 0.000322198 0.000114301
0 0.000290145 0.000133023 0 0.000314702 9.89388e-05
0 0.000280245 0.000118927 0 0.000304487 8.49633e-05
0 0.000267962 0.000106194 0 0.000291772 7.24591e-05
0 0.000253644 9.48408e-05 0 0.000276914 6.14395e-05
0 0.000237746 8.48281e-05 0 0.000260377 5.18478e-05
0 0.000220785 7.60699e-05 0 0.000242694 4.35748e-05
0 0.000203258 6.84501e-05 0 0.000224373 3.64854e-05
0 0.000185565 6.18426e-05 0 0.000205828 3.04402e-05
0 0.000168001 5.61216e-05 0 0.000187366 2.53015e-05
0 0.000150784 5.11626e-05 0 0.000169216 2.09345e-05
0 0.000134072 4.68446e-05 0 0.000151548 1.72086e-05
0 0.00011798 4.30514e-05 0 0.000134489 1.40006e-05
0 0.00010259 3.96735e-05 0 0.00011813 1.11953e-05
0 8.79579e-05 3.66086e-05 0 0.000102536 8.68581e-06
0 7.41265e-05 3.37622e-05 0 8.77588e-05 6.37287e-06
0 6.11379e-05 3.1048e-05 0 7.38475e-05 4.16576e-06
0 4.90529e-05 2.83855e-05 0 6.08692e-05 1.9808e-06
0 3.79288e-05 2.59542e-05 0 4.89021e-05 -9.34162e-08
0 2.78912e-05 2.35253e-05 0 3.80072e-05 -2.04575e-06
0 1.89556e-05 2.09669e-05 0 2.83012e-05 -4.22014e-06
0 1.10659e-05 1.82617e-05 0 1.96588e-05 -6.60092e-06
0 4.01592e-06 1.54091e-05 0 1.18991e-05 -9.15292e-06
0 -2.338e-06 1.24165e-05 0 4.98339e-06 -1.19415e-05
0 -9.77936e-06 9.52997e-06 0 -2.84422e-06 -1.48376e-05
0 -1.77624e-05 6.44701e-06 0 -1.29187e-05 -1.70902e-05
0 -2.57474e-05 3.2331e-06 0 -2.19606e-05 -1.98194e-05
0 -3.30421e-05 -1.16653e-07 0 -3.02266e-05 -2.29014e-05
0 -3.94115e-05 -3.7546e-06 0 -3.75317e-05 -2.61726e-05
0 -4.50741e-05 -7.68816e-06 0 -4.38964e-05 -2.98455e-05
0 -4.9749e-05 -1.19303e-05 0 -4.90925e-05 -3.38691e-05
0 -5.32998e-05 -1.6453e-05 0 -5.31509e-05 -3.82574e-05
0 -5.57235e-05 -2.12519e-05 0 -5.58611e-05 -4.30079e-05
0 -5.68673e-05 -2.63225e-05 0 -5.72087e-05 -4.80559e-05
0 -5.66637e-05 -3.15815e-05 0 -5.71384e-05 -5.33524e-05
0 -5.51458e-05 -3.6925e-05 0 -5.56606e-05 -5.88078e-05
0 -5.22844e-05 -4.22737e-05 0 -5.276e-05 -6.43162e-05
0 -4.81852e-05 -4.74993e-05 0 -4.8602e-05 -6.97216e-05
0 -4.30807e-05 -5.24237e-05 0 -4.33853e-05 -7.48664e-05
0 -3.72119e-05 -5.68764e-05 0 -3.73599e-05 -7.95679e-05
0 -3.08311e-05 -6.06922e-05 0 -3.07933e-05 -8.36379e-05
0 -2.42116e-05 -6.36979e-05 0 -2.39515e-05 -8.68982e-05
0 -1.76061e-05 -6.57313e-05 0 -1.70925e-05 -8.91825e-05
0 -1.1412e-05 -6.65987e-05 0 -1.05914e-05 -9.02998e-05
0 -5.81542e-06 -6.61592e-05 0 -4.71843e-06 -9.00506e-05
0 -8.09857e-07 -6.43618e-05 0 5.31985e-07 -8.83965e-05
0 3.67436e-06 -6.11829e-05 0 5.22848e-06 -8.53199e-05
0 7.69619e-06 -5.66338e-05 0 9.42338e-06 -8.08354e-05
0 1.12714e-05 -5.07563e-05 0 1.31282e-05 -7.49778e-05
0 1.43656e-05 -4.36086e-05 0 1.63068e-05 -6.78051e-05
0 1.68996e-05 -3.52661e-05 0 1.88805e-05 -5.93973e-05
0 1.87649e-05 -2.58706e-05 0 2.07505e-05 -4.98614e-05
0 1.98998e-05 -1.55286e-05 0 2.1844e-05 -3.93382e-05
0 2.03027e-05 -4.40642e-06 0 2.21756e-05 -2.79913e-05
0 2.00674e-05 7.28975e-06 0 2.18457e-05 -1.60321e-05
0 1.93435e-05 1.93369e-05 0 2.10021e-05 -3.71651e-06
0 1.83289e-05 3.1234e-05 0 1.98652e-05 8.39335e-06
0 1.7216e-05 4.299e-05 0 1.8633e-05 2.041e-05
0 1.6258e-05 5.43639e-05 0 1.75611e-05 3.19985e-05
0 1.57126e-05 6.51203e-05 0 1.69192e-05 4.29648e-05
0 1.5819e-05 7.50545e-05 0 1.69564e-05 5.30727e-05
0 1.67843e-05 8.39843e-05 0 1.78701e-05 6.21241e-05
0 1.87622e-05 9.17543e-05 0 1.98382e-05 6.99691e-05
0 2.18429e-05 9.8258e-05 0 2.29405e-05 7.64941e-05
0 2.60263e-05 0.000103444 0 2.71853e-05 8.1641e-05
0 3.12133e-05 0.000107309 0 3.24481e-05 8.54132e-05
0 3.72253e-05 0.000109893 0 3.85443e-05 8.78631e-05
0 4.38207e-05 0.000111281 0 4.52267e-05 8.90845e-05
0 4.916e-05 0.000111818 0 5.05947e-05 8.94264e-05
0 5.3365e-05 0.000111504 0 5.42593e-05 8.91736e-05
0 5.66825e-05 0.000110315 0 5.71197e-05 8.804e-05
0 5.90705e-05 0.000108477 0 5.90969e-05 8.62028e-05
0 6.0234e-05 0.000106045 0 5.97616e-05 8.38136e-05
0 5.99323e-05 0.000103086 0 5.89506e-05 8.09428e-05
0 5.80003e-05 9.96934e-05 0 5.64885e-05 7.77012e-05
0 5.43093e-05 9.59559e-05 0 5.22535e-05 7.4122e-05
0 4.88005e-05 9.18898e-05 0 4.62244e-05 7.02503e-05
0 4.15013e-05 8.74822e-05 0 3.84186e-05 6.60842e-05
0 3.2506e-05 8.27175e-05 0 2.89616e-05 6.15883e-05
0 2.23928e-05 7.74819e-05 0 1.81319e-05 5.66848e-05
0 1.09711e-05 7.1711e-05 0 6.08736e-06 5.12979e-05
0 -2.00671e-06 6.54535e-05 0 -7.45768e-06 4.52677e-05
0 -1.60595e-05 5.85346e-05 0 -2.18917e-05 3.85808e-05
0 -3.04501e-05 5.06376e-05 0 -3.67266e-05 3.10709e-05
0 -4.45794e-05 4.18943e-05 0 -5.12174e-05 2.25349e-05
0 -5.78313e-05 3.26316e-05 0 -6.47262e-05 1.35579e-05
0 -6.93284e-05 2.21008e-05 0 -7.64206e-05 3.17311e-06
0 -7.85107e-05 1.03278e-05 0 -8.57211e-05 -8.50624e-06
0 -8.49708e-05 -2.68015e-06 0 -9.21561e-05 -2.1557e-05
0 -8.84041e-05 -1.687e-05 0 -9.5458e-05 -3.59033e-05
0 -8.87157e-05 -3.20826e-05 0 -9.55161e-05 -5.13751e-05
0 -8.59598e-05 -4.80586e-05 0 -9.23879e-05 -6.77488e-05
0 -8.0293e-05 -6.45076e-05 0 -8.62502e-05 -8.46966e-05
0 -7.19904e-05 -8.10791e-05 0 -7.73931e-05 -0.000101844
0 -6.14591e-05 -9.73526e-05 0 -6.62386e-05 -0.000118759
0 -4.92377e-05 -0.000112866 0 -5.33549e-05 -0.000134965
0 -3.59712e-05 -0.000127148 0 -3.94146e-05 -0.000149952
0 -2.23505e-05 -0.000139729 0 -2.51358e-05 -0.000163212
0 -9.06002e-06 -0.000150155 0 -1.12305e-05 -0.000174266
0 3.26096e-06 -0.000158014 0 1.63642e-06 -0.000182679
0 1.40483e-05 -0.000162966 0 1.28777e-05 -0.000188083
0 2.28254e-05 -0.00016473 0 2.1998e-05 -0.00019018
0 2.92032e-05 -0.000162995 0 2.85872e-05 -0.000188621
0 3.29176e-05 -0.000157681 0 3.23761e-05 -0.000183332
0 3.38359e-05 -0.00014883 0 3.32286e-05 -0.00017434
0 3.19768e-05 -0.000136594 0 3.11678e-05 -0.000161808
0 2.75292e-05 -0.000121251 0 2.63939e-05 -0.000146021
0 2.08488e-05 -0.000103183 0 1.92808e-05 -0.000127381
0 1.24253e-05 -8.28613e-05 0 1.03409e-05 -0.000106388
0 2.83203e-06 -6.08296e-05 0 1.73135e-07 -8.3616e-05
0 -7.32313e-06 -3.76794e-05 0 -1.05865e-05 -5.96858e-05
0 -1.74145e-05 -1.40285e-05 0 -2.12821e-05 -3.52475e-05
0 -2.68036e-05 9.47212e-06 0 -3.12441e-05 -1.10061e-05
0 -3.47915e-05 3.1323e-05 0 -3.96908e-05 1.13948e-05
0 -4.09319e-05 5.2063e-05 0 -4.62699e-05 3.27598e-05
0 -4.48251e-05 7.11345e-05 0 -5.04514e-05 5.22718e-05
0 -4.62079e-05 8.80842e-05 0 -5.20114e-05 6.96173e-05
0 -4.49577e-05 0.000102699 0 -5.07981e-05 8.44853e-05
0 -4.10668e-05 0.000114781 0 -4.65506e-05 9.66258e-05
0 -3.44102e-05 0.000124139 0 -3.94846e-05 0.00010588
0 -2.51219e-05 0.000130741 0 -2.98745e-05 0.000112259
0 -1.34944e-05 0.000134672 0 -1.77918e-05 0.000115861
0 1.56457e-07 0.000136072 0 -3.61232e-06 0.000116801
0 1.52204e-05 0.000135171 0 1.22613e-05 0.000115304
0 3.14271e-05 0.000132212 0 2.92814e-05 0.000111722
0 4.7901e-05 0.000127535 0 4.64491e-05 0.000106347
0 6.45088e-05 0.00012141 0 6.36867e-05 9.95704e-05
0 8.05859e-05 0.00011426 0 8.03267e-05 9.17687e-05
0 9.55438e-05 0.000106501 0 9.58345e-05 8.33754e-05
0 0.000108857 9.85183e-05 0 0.000109623 7.48108e-05
0 0.000120015 9.0681e-05 0 0.000121191 6.64696e-05
0 0.000128608 8.33168e-05 0 0.000130112 5.8692e-05
0 0.000134325 7.66952e-05 0 0.000136053 5.17672e-05
0 0.000136943 7.10223e-05 0 0.000138789 4.59092e-05
0 0.000136316 6.64387e-05 0 0.000138171 4.12655e-05
0 0.000132322 6.3022e-05 0 0.000134056 3.79207e-05
0 0.000124924 6.07666e-05 0 0.000126384 3.58814e-05
0 0.000114294 5.95803e-05 0 0.000115348 3.50439e-05
0 0.000100742 5.92934e-05 0 0.000101273 3.52227e-05
0 8.47398e-05 5.96624e-05 0 8.46553e-05 3.61513e-05
0 6.74468e-05 6.03261e-05 0 6.69845e-05 3.73611e-05
0 4.91021e-05 6.09945e-05 0 4.79712e-05 3.86542e-05
0 3.02929e-05 6.13444e-05 0 2.86059e-05 3.96172e-05
0 1.17618e-05 6.10179e-05 0 9.49839e-06 3.98928e-05
0 -5.80308e-06 5.9698e-05 0 -8.60063e-06 3.91265e-05
0 -2.16796e-05 5.70721e-05 0 -2.46795e-05 3.68459e-05
0 -3.50033e-05 5.28786e-05 0 -3.82788e-05 3.2862e-05
0 -4.55495e-05 4.68989e-05 0 -4.93529e-05 2.71872e-05
0 -5.3267e-05 3.92237e-05 0 -5.74166e-05 1.96635e-05
0 -5.76596e-05 2.98443e-05 0 -6.19673e-05 1.02653e-05
0 -5.85884e-05 1.92628e-05 0 -6.30439e-05 -4.46173e-07
0 -5.616e-05 7.29848e-06 0 -6.06109e-05 -1.26771e-05
0 -5.08802e-05 -5.74596e-06 0 -5.4891e-05 -2.60826e-05
0 -4.56519e-05 -1.91878e-05 0 -5.0067e-05 -3.98607e-05
0 -3.81831e-05 -3.30814e-05 0 -4.23242e-05 -5.4169e-05
0 -2.89616e-05 -4.70646e-05 0 -3.35773e-05 -6.84056e-05
0 -1.86664e-05 -6.0582e-05 0 -2.35192e-05 -8.23534e-05
0 -7.78101e-06 -7.32921e-05 0 -1.3066e-05 -9.54241e-05
0 3.05813e-06 -8.47739e-05 0 -2.73646e-06 -0.000107186
0 1.31037e-05 -9.45588e-05 0 6.70367e-06 -0.000117195
0 2.1677e-05 -0.00010226 0 1.45928e-05 -0.000125065
0 2.81529e-05 -0.000107584 0 2.02959e-05 -0.00013043
0 3.19661e-05 -0.000110284 0 2.32808e-05 -0.000133047
0 3.27007e-05 -0.000110192 0 2.31491e-05 -0.00013275
0 3.01281e-05 -0.00010719 0 1.96733e-05 -0.000129413
0 2.42352e-05 -0.000101365 0 1.28612e-05 -0.000123116
0 1.52028e-05 -9.29191e-05 0 2.89362e-06 -0.00011407
0 3.36906e-06 -8.21558e-05 0 -9.88233e-06 -0.000102603
0 -1.07953e-05 -6.94803e-05 0 -2.49847e-05 -8.91408e-05
0 -2.69005e-05 -5.53515e-05 0 -4.2108e-05 -7.41457e-05
0 -4.44313e-05 -4.03073e-05 0 -6.06907e-05 -5.81526e-05
0 -6.24263e-05 -2.49517e-05 0 -7.97238e-05 -4.1842e-05
0 -7.98953e-05 -9.9083e-06 0 -9.81894e-05 -2.58725e-05
0 -9.58867e-05 4.2179e-06 0 -0.000115102 -1.08942e-05
0 -0.000109522 1.68662e-05 0 -0.000129551 2.49984e-06
0 -0.000120053 2.75581e-05 0 -0.000140769 1.37998e-05
0 -0.00012693 3.58863e-05 0 -0.000148187 2.25416e-05
0 -0.000129843 4.15453e-05 0 -0.000151462 2.83874e-05
0 -0.000128725 4.4529e-05 0 -0.00015057 3.14386e-05
0 -0.000125666 4.52614e-05 0 -0.000146877 3.18388e-05
0 -0.000119705 4.33478e-05 0 -0.000141312 2.99819e-05
0 -0.000110847 3.90874e-05 0 -0.00013268 2.55045e-05
0 -9.95167e-05 3.28246e-05 0 -0.000121381 1.88182e-05
0 -8.62338e-05 2.48896e-05 0 -0.000108089 1.04156e-05
0 -7.15901e-05 1.56058e-05 0 -9.34683e-05 6.48e-07
0 -5.63503e-05 5.43793e-06 0 -7.81971e-05 -1.00196e-05
0 -4.12455e-05 -5.12766e-06 0 -6.30619e-05 -2.11277e-05
0 -2.69836e-05 -1.56459e-05 0 -4.87861e-05 -3.21547e-05
0 -1.42511e-05 -2.56773e-05 0 -3.60681e-05 -4.26337e-05
0 -3.64991e-06 -3.48021e-05 0 -2.55179e-05 -5.21344e-05
0 4.32303e-06 -4.2667e-05 0 -1.76627e-05 -6.02866e-05
0 9.27655e-06 -4.90004e-05 0 -1.2898e-05 -6.67915e-05
0 1.095e-05 -5.36078e-05 0 -1.14968e-05 -7.144e-05
0 9.21441e-06 -5.63739e-05 0 -1.35965e-05 -7.41175e-05
0 4.34121e-06 -5.73202e-05 0 -1.91407e-05 -7.48105e-05
0 -3.2714e-06 -5.66026e-05 0 -2.79304e-05 -7.35857e-05
0 -1.36495e-05 -5.42445e-05 0 -3.89187e-05 -7.07851e-05
0 -2.66188e-05 -5.04554e-05 0 -5.26714e-05 -6.64163e-05
0 -4.16435e-05 -4.5547e-05 0 -6.8603e-05 -6.08561e-05
0 -5.8551e-05 -3.98359e-05 0 -8.65251e-05 -5.43857e-05
0 -7.69764e-05 -3.36758e-05 0 -0.000105957 -4.74305e-05
0 -9.62998e-05 -2.75043e-05 0 -0.000126317 -4.04352e-05
0 -0.000115877 -2.17666e-05 0 -0.000146897 -3.3882e-05
0 -0.00013496 -1.69144e-05 0 -0.000166891 -2.82615e-05
0 -0.000152721 -1.33868e-05 0 -0.00018546 -2.40454e-05
0 -0.000168412 -1.15693e-05 0 -0.00020182 -2.16543e-05
0 -0.000181437 -1.17718e-05 0 -0.000215339 -2.14257e-05
0 -0.000191363 -1.42135e-05 0 -0.000225569 -2.35946e-05
0 -0.000197786 -1.89677e-05 0 -0.000232091 -2.82907e-05
0 -0.00020039 -2.59716e-05 0 -0.000234623 -3.5326e-05
0 -0.000199158 -3.52761e-05 0 -0.000233099 -4.48789e-05
0 -0.000194239 -4.66893e-05 0 -0.000227683 -5.67028e-05
0 -0.000185903 -5.99339e-05 0 -0.000218659 -7.05073e-05
0 -0.000174514 -7.46553e-05 0 -0.000206408 -8.59247e-05
0 -0.000160489 -9.04239e-05 0 -0.000191358 -0.000102506
0 -0.000144259 -0.000106767 0 -0.000173975 -0.000119758
0 -0.000126283 -0.000123177 0 -0.000154744 -0.000137142
0 -0.00010706 -0.000139122 0 -0.000134193 -0.0001541
0 -8.71095e-05 -0.000154058 0 -0.000112878 -0.000170062
0 -6.69423e-05 -0.000167458 0 -9.13417e-05 -0.000184472
0 -4.70287e-05 -0.000178824 0 -7.00861e-05 -0.000196805
0 -2.78012e-05 -0.000187701 0 -4.95742e-05 -0.00020658
0 -9.67893e-06 -0.000193685 0 -3.02529e-05 -0.000213372
0 6.92083e-06 -0.000196384 0 -1.25623e-05 -0.000216776
0 2.16162e-05 -0.00019549 0 3.08735e-06 -0.000216443
0 3.32502e-05 -0.000190691 0 1.53647e-05 -0.00021204
0 4.18715e-05 -0.000181985 0 2.5139e-05 -0.000203592
0 5.04428e-05 -0.000169792 0 3.54523e-05 -0.000191919
0 5.71405e-05 -0.000154071 0 4.23732e-05 -0.000176093
0 6.12091e-05 -0.000134888 0 4.70568e-05 -0.000156913
0 6.3013e-05 -0.000112633 0 4.93483e-05 -0.000134412
0 6.28949e-05 -8.77865e-05 0 4.95065e-05 -0.000109137
0 6.10064e-05 -6.07034e-05 0 4.78177e-05 -8.15686e-05
0 5.76849e-05 -3.19859e-05 0 4.46391e-05 -5.2366e-05
0 5.34563e-05 -3.67821e-06 0 4.04926e-05 -2.36032e-05
0 4.84488e-05 2.50686e-05 0 3.55774e-05 5.78419e-06
0 4.30325e-05 5.37136e-05 0 3.02765e-05 3.48249e-05
0 3.75939e-05 8.16641e-05 0 2.49861e-05 6.33165e-05
0 3.25173e-05 0.000108413 0 2.01438e-05 9.0527e-05
0 2.82503e-05 0.000133447 0 1.62221e-05 0.000115908
0 2.52828e-05 0.000156216 0 1.37071e-05 0.00013896
0 2.40752e-05 0.000176258 0 1.3072e-05 0.000159184
0 2.50248e-05 0.000193218 0 1.47244e-05 0.000176185
0 2.84424e-05 0.000206809 0 1.89598e-05 0.000189655
0 3.45261e-05 0.000216813 0 2.59724e-05 0.000199404
0 4.33535e-05 0.000223138 0 3.5833e-05 0.000205342
0 5.48631e-05 0.00022582 0 4.84674e-05 0.000207482
0 6.88289e-05 0.000224991 0 6.36401e-05 0.000205968
0 8.48631e-05 0.000220853 0 8.09532e-05 0.000201035
0 0.000102454 0.000213624 0 9.98959e-05 0.000192899
0 0.000120995 0.000203737 0 0.00011985 0.000182025
0 0.000139849 0.000191675 0 0.000140169 0.000168912
0 0.000158385 0.000177951 0 0.000160205 0.000154113
0 0.000175976 0.000163105 0 0.000179315 0.000138197
0 0.000192037 0.000147679 0 0.000196898 0.000121724
0 0.00020607 0.000132182 0 0.000212437 0.000105233
0 0.000217713 0.000117075 0 0.000225549 8.92105e-05
0 0.000226745 0.000102764 0 0.000235986 7.4079e-05
0 0.000233067 8.95895e-05 0 0.000243624 6.01916e-05
0 0.000236677 7.78207e-05 0 0.00024844 4.78285e-05
0 0.000237642 6.76584e-05 0 0.000250486 3.71969e-05
0 0.00023606 5.92393e-05 0 0.000249856 2.84331e-05
0 0.000232056 5.26346e-05 0 0.00024668 2.16042e-05
0 0.000225798 4.7846e-05 0 0.000241144 1.6705e-05
0 0.000217538 4.4806e-05 0 0.000233518 1.36561e-05
0 0.00020762 4.33809e-05 0 0.000224165 1.23072e-05
0 0.000196492 4.33748e-05 0 0.000213552 1.24436e-05
0 0.000184702 4.45406e-05 0 0.000202241 1.37971e-05
0 0.00017286 4.65971e-05 0 0.00019085 1.60638e-05
0 0.00016159 4.92484e-05 0 0.000180015 1.89247e-05
0 0.000151498 5.22013e-05 0 0.000170346 2.20646e-05
0 0.000143143 5.51821e-05 0 0.00016241 2.51906e-05
0 0.000137016 5.79522e-05 0 0.000156701 2.80469e-05
0 0.00013352 6.03209e-05 0 0.000153623 3.04293e-05
0 0.000132949 6.21569e-05 0 0.000153467 3.21976e-05
0 0.000135465 6.33968e-05 0 0.000156391 3.32845e-05
0 0.000141087 6.405e-05 0 0.000162407 3.37005e-05
0 0.000149802 6.41842e-05 0 0.00017151 3.35193e-05
0 0.000161992 6.38636e-05 0 0.000184198 3.27634e-05
0 0.00017721 6.33472e-05 0 0.000199947 3.17162e-05
0 0.000194705 6.29529e-05 0 0.000217993 3.07149e-05
0 0.000213562 6.30416e-05 0 0.000237404 3.01806e-05
0 0.000232769 6.40155e-05 0 0.000257139 3.05443e-05
0 0.000251294 6.62722e-05 0 0.000276132 3.22373e-05
0 0.000268243 7.01464e-05 0 0.00029346 3.56337e-05
0 0.000282841 7.59087e-05 0 0.000308305 4.10467e-05
0 0.000294448 8.37576e-05 0 0.000320013 4.8692e-05
0 0.000302623 9.37888e-05 0 0.000328123 5.86814e-05
0 0.000307114 0.000105988 0 0.000332366 7.1014e-05
0 0.000307822 0.000120241 0 0.000332642 8.55771e-05
0 0.000304793 0.000136335 0 0.000328993 0.000102152
0 0.00029819 0.000153963 0 0.000321585 0.000120422
0 0.000288252 0.000172695 0 0.000310664 0.000139982
0 0.000275314 0.000191354 0 0.000296605 0.000159499
0 0.000259532 0.000210359 0 0.00027954 0.00017958
0 0.000241164 0.000229156 0 0.000259778 0.000199424
0 0.000220497 0.00024723 0 0.000237599 0.000218671
0 0.000197869 0.000264078 0 0.000213373 0.000236719
0 0.000173703 0.000279151 0 0.000187543 0.000253024
0 0.000148505 0.000291895 0 0.000160645 0.000267015
0 0.000122826 0.000301799 0 0.000133259 0.000278137
0 9.72163e-05 0.000308352 0 0.000105835 0.000285871
0 6.6462e-05 0.000311582 0 7.04771e-05 0.000291019
0 3.61879e-05 0.000310455 0 3.96312e-05 0.00029097
0 1.09764e-05 0.000304076 0 1.23794e-05 0.000285451
0 -1.13225e-05 0.000292427 0 -1.29941e-05 0.000275155
0 -3.16237e-05 0.000275778 0 -3.5412e-05 0.000259193
0 -4.87418e-05 0.000253881 0 -5.45999e-05 0.00023802
0 -6.2513e-05 0.000227016 0 -7.07521e-05 0.000211698
0 -7.35482e-05 0.000195584 0 -8.36465e-05 0.000180349
0 -8.17481e-05 0.0001597 0 -9.37044e-05 0.000144496
0 -8.73234e-05 0.000120201 0 -0.00010108 0.000105039
0 -9.08118e-05 7.78898e-05 0 -0.000106129 6.24855e-05
0 -9.2715e-05 3.5326e-05 0 -0.000109477 1.954e-05
0 -9.31699e-05 -8.24777e-06 0 -0.000111513 -2.42912e-05
0 -9.276e-05 -5.2316e-05 0 -0.000112546 -6.84403e-05
0 -9.17891e-05 -9.61688e-05 0 -0.000113031 -0.000112729
0 -9.06957e-05 -0.000139149 0 -0.000113489 -0.000155921
0 -8.9958e-05 -0.000180489 0 -0.000114405 -0.000197462
0 -9.00391e-05 -0.000219422 0 -0.000116266 -0.000236521
0 -9.14076e-05 -0.000255285 0 -0.000119603 -0.000272433
0 -9.4512e-05 -0.000287517 0 -0.000124863 -0.000304527
0 -9.97275e-05 -0.000315594 0 -0.00013244 -0.000332287
0 -0.000107336 -0.000339071 0 -0.000142625 -0.000355303
0 -0.000117896 -0.000353753 0 -0.000155906 -0.000369819
0 -0.000130925 -0.000363468 0 -0.000172226 -0.000377945
0 -0.000146509 -0.000369315 0 -0.000190979 -0.000382728
0 -0.0001643 -0.000371377 0 -0.000212259 -0.000383531
0 -0.000184202 -0.000370041 0 -0.000235739 -0.000380754
0 -0.000205847 -0.000365364 0 -0.00026109 -0.000374564
0 -0.000228901 -0.000357203 0 -0.000287927 -0.000364816
0 -0.000252922 -0.000345506 0 -0.000315821 -0.000351467
0 -0.000277328 -0.000330958 0 -0.00034415 -0.000335113
0 -0.000120692 -4.69463e-05 0 -0.000297917 -0.000224919
0 -0.000158795 -3.28977e-05 0 -0.00034137 -0.000217458
0 -0.0001714 6.60159e-07 0 -0.000394015 -0.000180732
0 -0.000217158 6.55445e-05 0 -0.000436632 -0.000161248
0 -0.00025222 0.000107506 0 -0.000456358 -0.000128385
0 -0.000268273 0.000131363 0 -0.000452977 -0.000100695
0 -0.000298072 0.000178193 0 -0.000465322 -8.08851e-05
0 -0.000330275 0.000225787 0 -0.00046565 -6.76813e-05
0 -0.000346555 0.000254855 0 -0.000470582 -4.82417e-05
0 -0.000349672 0.000272669 0 -0.000479508 -3.04169e-05
0 -0.000353732 0.000294639 0 -0.000480907 -2.36687e-05
0 -0.000360113 0.000314911 0 -0.00048239 -2.27177e-05
0 -0.000365279 0.000326915 0 -0.000491584 -3.11982e-05
0 -0.000369498 0.000335498 0 -0.000496819 -3.93363e-05
0 -0.000373885 0.000343888 0 -0.000498192 -5.21083e-05
0 -0.000378037 0.000349307 0 -0.000503718 -5.07746e-05
0 -0.000381381 0.000349653 0 -0.000508067 -4.37687e-05
0 -0.000286649 0.000305876 0 0.000131193 -0.000170099
0 -0.00028276 0.000321693 0 8.3546e-05 -0.000221123
0 -0.000320905 0.000326393 0 0.000116041 -0.000236801
0 0.000265985 0.000181743 0 0.000111085 -0.000227583
0 0.00010738 0.000242717 0 0.00014117 -0.000264445
0 0.000112479 0.000224239 0 8.38102e-05 -0.000249849
0 0.000104933 0.000221375 0 2.60809e-05 -0.000223867
0 6.77819e-05 0.000262255 0 3.11025e-06 -0.000186974
0 4.23442e-05 0.000294921 0 -4.60271e-05 -0.000155104
0 1.84559e-05 0.000323887 0 -9.54667e-05 -0.000112383
0 -1.67676e-05 0.000359116 0 -0.000121858 -0.000104132
0 -4.94751e-05 0.000391361 0 -0.000151686 -0.000116461
0 -6.83108e-05 0.000419652 0 -0.000187621 -0.000112314
0 -8.32855e-05 0.000445818 0 -0.000216638 -9.09164e-05
0 -9.78365e-05 0.00046882 0 -0.000248734 -8.19094e-05
0 -0.000110866 0.000488751 0 -0.000279549 -8.48019e-05
0 -0.00012384 0.000508553 0 -0.000308287 -8.13509e-05
0 -0.000136101 0.000524376 0 -0.00033427 -7.10953e-05
0 -0.000146597 0.000534122 0 -0.000355728 -6.61579e-05
0 -0.000156337 0.000540897 0 -0.000358968 -6.94823e-05
0 -0.000165384 0.000544762 0 -0.000367183 -7.40541e-05
0 -0.000173134 0.000543529 0 -0.000377229 -7.3758e-05
0 -0.000180026 0.000537576 0 -0.000382815 -7.73601e-05
0 -0.0001863 0.000528093 0 -0.000389182 -8.58732e-05
0 -0.000191682 0.000514774 0 -0.000394637 -9.75974e-05
0 -0.000196202 0.00049721 0 -0.000400412 -0.000112496
0 -0.000196864 0.000480331 0 -0.000390092 -0.00010401
0 -0.000177819 0.000479823 0 -0.000156979 0.000347052
0 -0.000181101 0.000453347 0 -0.000232872 0.000209243
0 -0.000204051 0.000428691 0 -0.000231966 0.00019805
0 -0.000212016 0.00039102 0 -0.000253578 0.000149629
0 -0.000220435 0.000364147 0 -0.000276109 0.000121809
0 -0.000234499 0.000346592 0 -0.000294773 8.12195e-05
0 -0.000241174 0.000318352 0 -0.000306843 6.37547e-05
0 -0.000248147 0.000289476 0 -0.000317793 4.98608e-05
0 -0.000258089 0.000266702 0 -0.000332423 2.59461e-05
0 -0.000267649 0.000243878 0 -0.000345653 8.08575e-06
0 -0.000279398 0.000237598 0 -0.000370232 6.98311e-05
0 -0.000289273 0.000201371 0 -0.000393648 1.90443e-05
0 -0.000298389 0.000171223 0 -0.000397329 2.72424e-05
0 -0.000308683 0.000144376 0 -0.000419886 -1.08504e-05
0 -0.000319511 0.000118505 0 -0.000432521 -2.63118e-05
0 -0.000330159 9.13438e-05 0 -0.000444529 -4.59764e-05
0 -0.000340274 6.34548e-05 0 -0.000461036 -6.99694e-05
0 -0.000350937 3.62377e-05 0 -0.000473813 -8.99369e-05
0 -0.000361301 8.93706e-06 0 -0.000487544 -0.000111283
0 -0.000371543 -1.8046e-05 0 -0.000501993 -0.00013287
0 -0.000382 -4.44906e-05 0 -0.000515489 -0.000152948
0 -0.000392529 -7.06782e-05 0 -0.000529657 -0.000173393
0 -0.000403247 -9.61422e-05 0 -0.000544846 -0.000190294
0 -0.000414281 -0.000120563 0 -0.000559051 -0.000202063
0 -0.000425588 -0.000144134 0 -0.000574047 -0.000216209
0 -0.000437205 -0.000166816 0 -0.000589626 -0.000230475
0 -0.000449072 -0.000188574 0 -0.000604522 -0.000241778
0 -0.000461079 -0.000209339 0 -0.000619672 -0.000253491
0 -0.000473137 -0.000229033 0 -0.000632097 -0.000265634
0 -0.000487861 -0.000217607 0 -0.000642928 -0.000273685
0 -0.000501552 -0.000182761 0 -0.000658174 -0.000270486
0 -0.000509528 -0.00020283 0 -0.00066197 -0.00030422
0 -0.000519585 -0.000224826 0 -0.00067045 -0.000304914
0 -0.000526998 -0.00025019 0 -0.00068152 -0.000326296
0 -0.00053536 -0.000270913 0 -0.0006923 -0.000342849
0 -0.000542263 -0.000289174 0 -0.000698407 -0.000352881
0 -0.000547094 -0.000310313 0 -0.000704746 -0.000367004
0 -0.000551173 -0.000334185 0 -0.000824888 -0.000386528
0 -0.000554297 -0.000357958 0 -0.000930641 -0.000402356
0 -0.000557865 -0.000379043 0 -0.000992771 -0.000417312
0 -0.000563585 -0.000398307 0 -0.00105318 -0.000434764
0 -0.000570066 -0.000418325 0 -0.0010875 -0.00045067
0 -0.000576328 -0.000438658 0 -0.00108919 -0.000465486
0 -0.000581999 -0.000457424 0 -0.00108813 -0.000481186
0 -0.000587187 -0.000474427 0 -0.00108591 -0.000496391
0 -0.000591762 -0.000490973 0 -0.00108255 -0.000510636
0 -0.000595803 -0.000507307 0 -0.00107836 -0.000524923
0 -0.000599374 -0.000522449 0 -0.00107331 -0.000538705
0 -0.000602417 -0.000535754 0 -0.00106727 -0.000551365
0 -0.000604704 -0.000546808 0 -0.0010603 -0.000562831
0 -0.000606076 -0.00055601 0 -0.00105182 -0.00057143
0 -0.000606443 -0.000563033 0 -0.00104205 -0.000577462
0 -0.000606198 -0.000566622 0 -0.00103336 -0.000580233
0 -0.000605474 -0.000568762 0 -0.00102391 -0.000581075
0 -0.000604775 -0.000570572 0 -0.00101756 -0.000579538
0 -0.000603964 -0.000571367 0 -0.00101748 -0.000574498
0 -0.000602811 -0.000570523 0 -0.00101161 -0.000568065
0 -0.000600975 -0.000567991 0 -0.00100624 -0.000559508
0 -0.000598368 -0.000563847 0 -0.00100055 -0.000548038
0 -0.000595075 -0.000558191 0 -0.000992968 -0.000534939
0 -0.00059129 -0.000551393 0 -0.000985309 -0.00052019
0 -0.000587009 -0.000544134 0 -0.000976354 -0.00050875
0 -0.000582604 -0.000535426 0 -0.000967358 -0.000493916
0 -0.000578065 -0.000526286 0 -0.000957964 -0.000478179
0 -0.000573222 -0.000518331 0 -0.000948997 -0.000463302
0 -0.000568753 -0.000509212 0 -0.000943706 -0.000457522
0 -0.000564676 -0.000498935 0 -0.000936135 -0.000448878
0 -0.000560951 -0.000487454 0 -0.000930274 -0.000436315
0 -0.000557569 -0.000474713 0 -0.000924155 -0.000423451
0 -0.000554753 -0.000460718 0 -0.000918603 -0.000411391
0 -0.000552489 -0.000445733 0 -0.000913346 -0.000396801
0 -0.000550569 -0.000430088 0 -0.000908448 -0.000381098
0 -0.000549023 -0.00041373 0 -0.000903891 -0.000365482
0 -0.000547942 -0.000396549 0 -0.000899573 -0.00034904
0 -0.000547177 -0.000378764 0 -0.000895389 -0.0003317
0 -0.000546514 -0.000360721 0 -0.000891238 -0.000314334
0 -0.000545847 -0.000342619 0 -0.00088697 -0.000296936
0 -0.000545056 -0.000324581 0 -0.000882396 -0.000279377
0 -0.000543938 -0.000306766 0 -0.000877367 -0.000262088
0 -0.000542276 -0.000289355 0 -0.00087164 -0.000245358
0 -0.000539833 -0.000272562 0 -0.000865026 -0.000229178
0 -0.000536308 -0.000256632 0 -0.000857167 -0.000213799
0 -0.000531367 -0.000241777 0 -0.000847786 -0.000199511
0 -0.000524691 -0.000228143 0 -0.000836562 -0.000186435
0 -0.000516013 -0.000215837 0 -0.000823236 -0.000174682
0 -0.000505139 -0.000204935 0 -0.000807635 -0.000164372
0 -0.000491971 -0.000195464 0 -0.000789679 -0.000155514
0 -0.000476579 -0.000187323 0 -0.000769377 -0.000148036
0 -0.000458966 -0.000180442 0 -0.000746737 -0.000141878
0 -0.000439148 -0.00017475 0 -0.000721964 -0.000136889
0 -0.000417309 -0.000170027 0 -0.000695251 -0.00013283
0 -0.000393795 -0.00016596 0 -0.00066686 -0.000129483
0 -0.000368989 -0.000162243 0 -0.000637188 -0.000126561
0 -0.000343315 -0.000158572 0 -0.000606757 -0.000123676
0 -0.000317278 -0.000154577 0 -0.0005761 -0.000120434
0 -0.000291433 -0.000149847 0 -0.000545748 -0.00011648
0 -0.000266299 -0.000144005 0 -0.000516224 -0.000111453
0 -0.000242339 -0.000136732 0 -0.000488026 -0.000105
0 -0.000219978 -0.000127736 0 -0.000461612 -9.68126e-05
0 -0.00019961 -0.000116752 0 -0.000437373 -8.66441e-05
0 -0.000181571 -0.000103564 0 -0.000415643 -7.42884e-05
0 -0.000166102 -8.80379e-05 0 -0.000396685 -5.9597e-05
0 -0.000153341 -7.01126e-05 0 -0.000379616 -4.24904e-05
0 -0.000143341 -4.97956e-05 0 -0.000359595 -2.29347e-05
0 -0.000136065 -2.71634e-05 0 -0.000344276 -1.12428e-06
0 -0.000131395 -2.36841e-06 0 -0.000333172 2.28682e-05
0 -0.00012916 2.43893e-05 0 -0.000326099 4.87762e-05
0 -0.000129132 5.28517e-05 0 -0.000322696 7.63805e-05
0 -0.000131035 8.27062e-05 0 -0.000322434 0.000105355
0 -0.000134575 0.00011361 0 -0.000324176 0.000135387
0 -0.000139464 0.000145205 0 -0.000327443 0.000166105
0 -0.000145433 0.000177119 0 -0.00033198 0.00019715
0 -0.00015222 0.000208972 0 -0.000337712 0.000228212
0 -0.000159538 0.000240365 0 -0.000344232 0.000258931
0 -0.000167074 0.000270894 0 -0.000351232 0.000288842
0 -0.00017451 0.00030016 0 -0.000358333 0.000317557
0 -0.000181537 0.000327777 0 -0.000365286 0.000344691
0 -0.000187943 0.000353403 0 -0.000371761 0.000369876
0 -0.000193527 0.000376729 0 -0.000377389 0.00039279
0 -0.000198068 0.000397453 0 -0.000381905 0.000413148
0 -0.000201404 0.000415339 0 -0.000385097 0.000430692
0 -0.000203422 0.000430198 0 -0.000386825 0.000445225
0 -0.000204051 0.000441884 0 -0.000386998 0.000456608
0 -0.000203271 0.000450307 0 -0.000385613 0.00046475
0 -0.000201102 0.000455431 0 -0.000382692 0.000469612
0 -0.00019761 0.000457269 0 -0.000378291 0.000471204
0 -0.000192909 0.000455889 0 -0.000372531 0.000469594
0 -0.000187152 0.000451261 0 -0.000365581 0.00046479
0 -0.000180383 0.000442885 0 -0.000355153 0.0004561
0 -0.000172894 0.000431047 0 -0.000341637 0.000444253
0 -0.000165711 0.000416198 0 -0.000327578 0.000429127
0 -0.000160251 0.000399405 0 -0.000318999 0.000412263
0 -0.000155401 0.000380052 0 -0.00031158 0.000393623
0 -0.000151798 0.000358634 0 -0.000305166 0.000371685
0 -0.000150015 0.000334977 0 -0.000302009 0.000347744
0 -0.000149984 0.000309467 0 -0.000301113 0.000321602
0 -0.000151769 0.000282339 0 -0.000302315 0.000293707
0 -0.000155435 0.000253827 0 -0.000305337 0.000264416
0 -0.000160902 0.00022423 0 -0.000309984 0.000233925
0 -0.000168056 0.000193838 0 -0.000316364 0.000202524
0 -0.00017682 0.000169398 0 -0.000324509 0.000173982
0 -0.000186208 0.000149025 0 -0.000334791 0.000154013
0 -0.00019608 0.000129928 0 -0.00034543 0.000130118
0 -0.000206532 0.000111343 0 -0.000358604 0.000107856
0 -0.000217546 9.29247e-05 0 -0.000371766 8.5021e-05
0 -0.000229079 7.45053e-05 0 -0.000386076 6.199e-05
0 -0.000240847 5.61115e-05 0 -0.000400645 3.89178e-05
0 -0.000252573 3.76758e-05 0 -0.000415045 1.56024e-05
0 -0.000264012 1.90676e-05 0 -0.000429325 -7.83412e-06
0 -0.000274935 1.27071e-07 0 -0.000442906 -3.15729e-05
0 -0.000285182 -1.92331e-05 0 -0.000455786 -5.55391e-05
0 -0.000294682 -3.89861e-05 0 -0.0004678 -7.97003e-05
0 -0.000303465 -5.90208e-05 0 -0.000478932 -0.000103962
0 -0.000311629 -7.92345e-05 0 -0.000489286 -0.000128251
0 -0.000319293 -9.95795e-05 0 -0.000498962 -0.000152499
0 -0.000326579 -0.000120028 0 -0.000508083 -0.000176605
0 -0.000333608 -0.000140508 0 -0.000516758 -0.000200458
0 -0.000340485 -0.000160894 0 -0.000525082 -0.000223947
0 -0.000347285 -0.000181056 0 -0.00053311 -0.000246982
0 -0.000354022 -0.00020092 0 -0.00054084 -0.000269495
0 -0.000360637 -0.00022048 0 -0.000548202 -0.000291419
0 -0.000367011 -0.000239748 0 -0.000553911 -0.000312822
0 -0.000373076 -0.000258608 0 -0.000551764 -0.000335033
0 -0.00037885 -0.000276805 0 -0.000550633 -0.000356252
0 -0.000384045 -0.00029454 0 -0.000551004 -0.000375836
0 -0.000388477 -0.000311864 0 -0.000548869 -0.000394987
0 -0.00039229 -0.000328492 0 -0.00054698 -0.000412635
0 -0.000395405 -0.000344156 0 -0.000545068 -0.00042907
0 -0.000397468 -0.000358428 0 -0.000542098 -0.000444123
0 -0.000398724 -0.000371687 0 -0.000539051 -0.000457528
0 -0.000399662 -0.000384703 0 -0.000535792 -0.000469547
0 -0.000399851 -0.000396454 0 -0.000532608 -0.000478795
0 -0.000399243 -0.000407025 0 -0.000528131 -0.000485883
0 -0.000397735 -0.000416371 0 -0.000524557 -0.000491307
0 -0.000395269 -0.000424462 0 -0.000519932 -0.00049472
0 -0.000391889 -0.000431095 0 -0.000514552 -0.000496493
0 -0.000387757 -0.000435668 0 -0.000508118 -0.000495764
0 -0.000382927 -0.000438049 0 -0.000500777 -0.000492589
0 -0.000377422 -0.000438228 0 -0.000492651 -0.000486778
0 -0.000371312 -0.000436139 0 -0.000483763 -0.00047843
0 -0.000364572 -0.000432594 0 -0.000474129 -0.000469808
0 -0.000357503 -0.000427081 0 -0.000463795 -0.000459948
0 -0.000350087 -0.000421399 0 -0.00045328 -0.000447809
0 -0.000343193 -0.000413402 0 -0.000442356 -0.000433962
0 -0.000336761 -0.000403204 0 -0.000431837 -0.000417932
0 -0.000331075 -0.000390609 0 -0.000422176 -0.000399792
0 -0.000326221 -0.000375604 0 -0.000413352 -0.000379524
0 -0.000322259 -0.000358254 0 -0.000405551 -0.000357205
0 -0.000319242 -0.000338663 0 -0.000398971 -0.000332734
0 -0.000317203 -0.000316915 0 -0.000393627 -0.000306136
0 -0.000316148 -0.000293085 0 -0.000389569 -0.000277525
0 -0.000316067 -0.000267265 0 -0.000386773 -0.000247051
0 -0.000316943 -0.000239602 0 -0.000385215 -0.000214894
0 -0.000318794 -0.000210295 0 -0.000384855 -0.000181251
0 -0.000321102 -0.000179722 0 -0.000385528 -0.000146346
0 -0.000323214 -0.000148349 0 -0.000386931 -0.000110461
0 -0.000324864 -0.000116376 0 -0.000388924 -7.38451e-05
0 -0.00032579 -8.40779e-05 0 -0.000391192 -3.68253e-05
0 -0.000325899 -5.17234e-05 0 -0.000393631 3.66848e-07
0 -0.000325572 -1.9499e-05 0 -0.000396223 3.74984e-05
0 -0.000325062 1.2389e-05 0 -0.000398923 7.42785e-05
0 -0.000324126 4.34453e-05 0 -0.000403778 0.000106207
0 -0.000323071 7.37504e-05 0 -0.000409257 0.000136249
0 -0.000321592 0.000102932 0 -0.000412854 0.00016707
0 -0.000319423 0.000130731 0 -0.000416103 0.000196017
0 -0.000316736 0.000157074 0 -0.000419121 0.000222779
0 -0.000313445 0.000181666 0 -0.000420661 0.000248191
0 -0.00030937 0.000204189 0 -0.000421155 0.000271661
0 -0.000304462 0.00022453 0 -0.000420811 0.000292652
0 -0.000298764 0.000242675 0 -0.000419117 0.000311489
0 -0.000292255 0.000258505 0 -0.00041615 0.000327908
0 -0.000284905 0.000271879 0 -0.000412085 0.000341738
0 -0.00027676 0.000282765 0 -0.000406808 0.000353126
0 -0.000267919 0.000291218 0 -0.000400396 0.000362041
0 -0.00025849 0.000297304 0 -0.00039302 0.000368446
0 -0.000248577 0.000301086 0 -0.000384763 0.000372486
0 -0.000238314 0.000302651 0 -0.000375769 0.000374281
0 -0.000227846 0.000302124 0 -0.000366221 0.00037393
0 -0.000217325 0.000299667 0 -0.000356287 0.0003716
0 -0.000206909 0.000295453 0 -0.00034285 0.000367509
0 -0.00019675 0.000289572 0 -0.000327873 0.000361756
0 -0.000186946 0.000281835 0 -0.000313064 0.000353979
0 -0.000177702 0.000272501 0 -0.000298663 0.000344749
0 -0.000169194 0.00026183 0 -0.000286646 0.000334238
0 -0.000161458 0.000250005 0 -0.000277001 0.000323425
0 -0.000154489 0.000237222 0 -0.000267629 0.000311456
0 -0.000148612 0.000223849 0 -0.000260037 0.000298041
0 -0.000144363 0.000209555 0 -0.000254246 0.000283395
0 -0.000141852 0.000194314 0 -0.000250744 0.000267653
0 -0.000141276 0.000178422 0 -0.000249957 0.000251042
0 -0.000142816 0.000162069 0 -0.000251713 0.000233823
0 -0.000146455 0.000145405 0 -0.00025575 0.000216183
0 -0.000151233 0.000130287 0 -0.000261027 0.000198497
0 -0.000156882 0.000118204 0 -0.000267765 0.000181488
0 -0.000164046 0.000107473 0 -0.000276144 0.000165022
0 -0.000173219 0.000100139 0 -0.000286529 0.000149827
0 -0.000184548 9.55737e-05 0 -0.000299434 0.000139825
0 -0.000197554 9.21835e-05 0 -0.000313872 0.000129224
0 -0.000212042 8.93219e-05 0 -0.000330273 0.000118564
0 -0.000227694 8.65868e-05 0 -0.000348491 0.000108348
0 -0.000244203 8.38486e-05 0 -0.00036745 9.78624e-05
0 -0.000261307 8.1177e-05 0 -0.000386831 8.70561e-05
0 -0.000278621 7.83563e-05 0 -0.00040625 7.57473e-05
0 -0.000295708 7.49378e-05 0 -0.000425291 6.37949e-05
0 -0.00031221 7.05359e-05 0 -0.00044361 5.1152e-05
0 -0.000327871 6.49572e-05 0 -0.000460853 3.7637e-05
0 -0.000342497 5.81277e-05 0 -0.00047675 2.31094e-05
0 -0.000355917 4.9961e-05 0 -0.000491069 7.48398e-06
0 -0.000367983 4.03155e-05 0 -0.00050358 -9.28375e-06
0 -0.000378568 2.90492e-05 0 -0.000514109 -2.72097e-05
0 -0.000387571 1.60878e-05 0 -0.000522522 -4.63102e-05
0 -0.000394925 1.44005e-06 0 -0.000528736 -6.6579e-05
0 -0.000400596 -1.48353e-05 0 -0.000532698 -8.79693e-05
0 -0.000404578 -3.26639e-05 0 -0.000534389 -0.000110396
0 -0.000406894 -5.19582e-05 0 -0.000533901 -0.000133746
0 -0.000407596 -7.25975e-05 0 -0.000531435 -0.000157888
0 -0.000406753 -9.44192e-05 0 -0.000527103 -0.000182665
0 -0.000404448 -0.000117222 0 -0.000521046 -0.000207898
0 -0.000400779 -0.000140774 0 -0.00051342 -0.00023337
0 -0.000395893 -0.000164818 0 -0.000504441 -0.000258865
0 -0.000390052 -0.00018895 0 -0.000494341 -0.000284131
0 -0.000383137 -0.000212553 0 -0.000483172 -0.000308871
0 -0.000375275 -0.000235503 0 -0.000471225 -0.000332794
0 -0.000367014 -0.000257839 0 -0.000458859 -0.000355687
0 -0.000359035 -0.000279756 0 -0.000446529 -0.00037752
0 -0.000351259 -0.000300239 0 -0.000434534 -0.000397877
0 -0.000343899 -0.000319011 0 -0.000423171 -0.000416501
0 -0.00033726 -0.000335857 0 -0.000412757 -0.000433055
0 -0.000331629 -0.000350504 0 -0.00040361 -0.000447344
0 -0.000327255 -0.000362649 0 -0.000396038 -0.000459221
0 -0.000324313 -0.000372078 0 -0.000390245 -0.000468559
0 -0.000322878 -0.000378705 0 -0.000386315 -0.000475241
0 -0.000322931 -0.000382523 0 -0.000384277 -0.000479181
0 -0.000324395 -0.000383532 0 -0.000384099 -0.000480368
0 -0.000327321 -0.000381473 0 -0.000385752 -0.000478508
0 -0.000331584 -0.000376111 0 -0.000388815 -0.000473159
0 -0.000337021 -0.000367484 0 -0.000392933 -0.000464775
0 -0.00034323 -0.000355632 0 -0.000398405 -0.000453125
0 -0.000349922 -0.00034187 0 -0.000404707 -0.000440446
0 -0.000356957 -0.000327293 0 -0.000411481 -0.000427209
0 -0.000364228 -0.000311546 0 -0.00041909 -0.000411432
0 -0.000371829 -0.000294299 0 -0.000427045 -0.000394268
0 -0.000379376 -0.000275791 0 -0.000435149 -0.00037554
0 -0.000386696 -0.000256235 0 -0.000443163 -0.00035553
0 -0.000393544 -0.000235856 0 -0.000450749 -0.00033451
0 -0.000399821 -0.000215078 0 -0.000457563 -0.000312749
0 -0.000405151 -0.000194188 0 -0.000463365 -0.000290474
0 -0.000409569 -0.000173331 0 -0.000468048 -0.000267866
0 -0.000413011 -0.000152637 0 -0.000471421 -0.000245119
0 -0.000414842 -0.000132474 0 -0.000473282 -0.000222429
0 -0.000414487 -0.000113149 0 -0.000473449 -0.000200002
0 -0.000411705 -9.48655e-05 0 -0.000471793 -0.000178011
0 -0.000407171 -7.75042e-05 0 -0.000468486 -0.000156529
0 -0.000401426 -6.10189e-05 0 -0.00046381 -0.000135562
0 -0.000394791 -4.53994e-05 0 -0.000457933 -0.000115139
0 -0.000387419 -3.06089e-05 0 -0.000450935 -9.53273e-05
0 -0.000379603 -1.65602e-05 0 -0.00044295 -7.61779e-05
0 -0.000371449 -3.2875e-06 0 -0.000434158 -5.77014e-05
0 -0.000363072 9.21434e-06 0 -0.000424716 -3.98978e-05
0 -0.00035458 2.09929e-05 0 -0.000414714 -2.27799e-05
0 -0.00034605 3.20952e-05 0 -0.000404261 -6.35919e-06
0 -0.000337528 4.2544e-05 0 -0.00039348 9.3615e-06
0 -0.000329062 5.23585e-05 0 -0.000382485 2.4389e-05
0 -0.000320703 6.15703e-05 0 -0.000371383 3.87366e-05
0 -0.00031251 7.02239e-05 0 -0.000360282 5.24199e-05
0 -0.000304545 7.83733e-05 0 -0.000349312 6.54589e-05
0 -0.000296885 8.60764e-05 0 -0.000338602 7.78741e-05
0 -0.000289623 9.33894e-05 0 -0.000324542 8.97233e-05
0 -0.000282861 0.000100366 0 -0.000310322 0.000100999
0 -0.000276698 0.000107056 0 -0.000297067 0.000111734
0 -0.00027123 0.000113514 0 -0.000284965 0.000121937
0 -0.000266536 0.000119785 0 -0.000274141 0.000131625
0 -0.000262659 0.00012589 0 -0.000264693 0.000140799
0 -0.000259604 0.000131824 0 -0.000256688 0.000149453
0 -0.00025735 0.000137574 0 -0.000250143 0.000157571
0 -0.000255759 0.000143082 0 -0.000245017 0.000165122
0 -0.000254814 0.000148333 0 -0.000241282 0.000172071
0 -0.000254485 0.000153288 0 -0.000238899 0.000178385
0 -0.000254717 0.000157892 0 -0.000237819 0.000184025
0 -0.000255446 0.000162088 0 -0.000237871 0.000188944
0 -0.000256639 0.000165828 0 -0.000238679 0.00019309
0 -0.000258241 0.000169049 0 -0.000240131 0.000196409
0 -0.000260239 0.00017137 0 -0.000242132 0.000198788
0 -0.000262503 0.000172718 0 -0.000244593 0.000200147
0 -0.000264901 0.000172973 0 -0.000247413 0.000200368
0 -0.00026728 0.000171807 0 -0.00025043 0.000199064
0 -0.000269648 0.000169208 0 -0.000253664 0.000196336
0 -0.000272079 0.0001652 0 -0.000257123 0.000192156
0 -0.000274532 0.00016014 0 -0.000260843 0.000186611
0 -0.000276698 0.00015483 0 -0.000264738 0.000179966
0 -0.000278638 0.000149345 0 -0.000268777 0.000172364
0 -0.000280707 0.00014316 0 -0.000273106 0.000163732
0 -0.000283049 0.000136229 0 -0.000277834 0.000154044
0 -0.000285893 0.000128698 0 -0.000283066 0.000143319
0 -0.000289254 0.000120587 0 -0.000288763 0.000131656
0 -0.000293117 0.000111905 0 -0.000294887 0.000119197
0 -0.00029735 0.000102641 0 -0.000301373 0.000106026
0 -0.000301891 9.29069e-05 0 -0.000308504 9.21857e-05
0 -0.000306639 8.27799e-05 0 -0.000316206 7.77282e-05
0 -0.000311772 7.42647e-05 0 -0.000324082 6.34561e-05
0 -0.000317275 6.72901e-05 0 -0.000332673 5.35677e-05
0 -0.000322523 6.00027e-05 0 -0.000341021 4.23266e-05
0 -0.000327513 5.22585e-05 0 -0.000348805 3.06172e-05
0 -0.00033211 4.39554e-05 0 -0.000356398 1.87815e-05
0 -0.000336202 3.5038e-05 0 -0.00036336 6.38423e-06
0 -0.000339687 2.56202e-05 0 -0.000369662 -6.37348e-06
0 -0.000342465 1.57631e-05 0 -0.000375179 -1.95182e-05
0 -0.000344436 5.42628e-06 0 -0.000379819 -3.30732e-05
0 -0.000345532 -5.45271e-06 0 -0.000383579 -4.6932e-05
0 -0.000345728 -1.68687e-05 0 -0.000386443 -6.10577e-05
0 -0.000345199 -2.86656e-05 0 -0.000388471 -7.53673e-05
0 -0.000344112 -4.06447e-05 0 -0.000389797 -8.97615e-05
0 -0.000342546 -5.26934e-05 0 -0.000390535 -0.000104144
0 -0.000340615 -6.47025e-05 0 -0.000390806 -0.000118406
0 -0.000338328 -7.65931e-05 0 -0.000390759 -0.000132431
0 -0.000334833 -8.8574e-05 0 -0.000390348 -0.000146142
0 -0.000330366 -0.000100397 0 -0.000389634 -0.000159465
0 -0.000325825 -0.000111568 0 -0.000389021 -0.000172221
0 -0.000321339 -0.000122074 0 -0.000388815 -0.000184234
0 -0.000317165 -0.000131744 0 -0.000389213 -0.000195364
0 -0.000313567 -0.00014037 0 -0.000390335 -0.000205531
0 -0.000310685 -0.000147825 0 -0.000392507 -0.000214646
0 -0.000308583 -0.000154038 0 -0.000395871 -0.00022263
0 -0.000307306 -0.000158948 0 -0.000400399 -0.000229433
0 -0.000306857 -0.00016253 0 -0.000406071 -0.000235033
0 -0.000307189 -0.000164803 0 -0.000412863 -0.000239428
0 -0.000308245 -0.000165799 0 -0.000420793 -0.000242623
0 -0.000309978 -0.000165554 0 -0.000429743 -0.000244668
0 -0.000312342 -0.000164123 0 -0.000439608 -0.000245598
0 -0.000315278 -0.000161586 0 -0.00045028 -0.000245476
0 -0.000318711 -0.000157967 0 -0.000461004 -0.000243324
0 -0.000322567 -0.000153289 0 -0.000469235 -0.000235234
0 -0.000326623 -0.000147832 0 -0.000474936 -0.000228264
0 -0.00033099 -0.000141681 0 -0.000479815 -0.000224126
0 -0.000335725 -0.000134649 0 -0.00048612 -0.000217057
0 -0.000340615 -0.000126946 0 -0.000492162 -0.000207889
0 -0.00034551 -0.00011889 0 -0.000498455 -0.000200146
0 -0.000350465 -0.000110376 0 -0.000504478 -0.000192107
0 -0.000355365 -0.000101578 0 -0.000510601 -0.000182929
0 -0.000359995 -9.29461e-05 0 -0.000516372 -0.000174206
0 -0.000364257 -8.47315e-05 0 -0.000521591 -0.000166873
0 -0.000368178 -7.67426e-05 0 -0.000526428 -0.000158938
0 -0.000371635 -6.91913e-05 0 -0.000530747 -0.000151789
0 -0.000374448 -6.2642e-05 0 -0.000534294 -0.000145436
0 -0.000376666 -5.67103e-05 0 -0.000537199 -0.000139555
0 -0.000378218 -5.15159e-05 0 -0.000539299 -0.000134343
0 -0.000379118 -4.70658e-05 0 -0.000540624 -0.000130036
0 -0.000379431 -4.33572e-05 0 -0.000541236 -0.000126509
0 -0.000379236 -4.04136e-05 0 -0.000541243 -0.000123699
0 -0.000378601 -3.82565e-05 0 -0.00054076 -0.000121674
0 -0.000377586 -3.68698e-05 0 -0.000539847 -0.000120413
0 -0.000376118 -3.59828e-05 0 -0.000538433 -0.000119546
0 -0.000374248 -3.55303e-05 0 -0.000536673 -0.000119063
0 -0.000372049 -3.54943e-05 0 -0.000534505 -0.000118918
0 -0.000369448 -3.60336e-05 0 -0.000531489 -0.000119235
0 -0.000366802 -3.77527e-05 0 -0.000527815 -0.000120149
0 -0.000363926 -4.02748e-05 0 -0.00052377 -0.000122073
0 -0.000360758 -4.33932e-05 0 -0.00051977 -0.000125781
0 -0.000357899 -4.68314e-05 0 -0.000515057 -0.000129327
0 -0.000355628 -5.0434e-05 0 -0.000510139 -0.000133138
0 -0.00035343 -5.43778e-05 0 -0.000505739 -0.000137404
0 -0.000351442 -5.83085e-05 0 -0.000503537 -0.00014074
0 -0.000349523 -6.235e-05 0 -0.000499903 -0.000144339
0 -0.000347589 -6.64861e-05 0 -0.000496898 -0.000148629
0 -0.000345689 -7.0647e-05 0 -0.000493573 -0.000152332
0 -0.000343898 -7.47728e-05 0 -0.000490362 -0.000156108
0 -0.000342158 -7.88586e-05 0 -0.000487066 -0.000160022
0 -0.000340433 -8.2854e-05 0 -0.000483776 -0.000163654
0 -0.000338678 -8.67726e-05 0 -0.000480419 -0.000167117
0 -0.000336896 -9.05358e-05 0 -0.000476989 -0.000170488
0 -0.000335101 -9.40896e-05 0 -0.000473513 -0.00017357
0 -0.000333302 -9.74002e-05 0 -0.000470017 -0.000176343
0 -0.000331515 -0.000100434 0 -0.000466522 -0.00017882
0 -0.000329753 -0.00010315 0 -0.000463043 -0.000180909
0 -0.000328016 -0.000105552 0 -0.000459563 -0.000182853
0 -0.000326305 -0.000107593 0 -0.000456051 -0.000184596
0 -0.000324643 -0.000109224 0 -0.000452641 -0.000185778
0 -0.000323055 -0.000110417 0 -0.000449253 -0.000186696
0 -0.000321572 -0.000111143 0 -0.000445993 -0.000187028
0 -0.000320217 -0.000111384 0 -0.000442854 -0.000186913
0 -0.000319022 -0.000111118 0 -0.000439884 -0.000186311
0 -0.000318018 -0.000110324 0 -0.000437104 -0.000185174
0 -0.000317224 -0.000109003 0 -0.000434528 -0.000183514
0 -0.000316645 -0.000107163 0 -0.000432174 -0.000181352
0 -0.000316274 -0.000104823 0 -0.000430025 -0.000178685
0 -0.000316094 -0.000102005 0 -0.000428056 -0.000175544
0 -0.000316108 -9.87114e-05 0 -0.000426229 -0.000171974
0 -0.000316225 -9.50166e-05 0 -0.000424453 -0.000168029
0 -0.000316354 -9.10061e-05 0 -0.000422737 -0.000163741
0 -0.000316485 -8.67128e-05 0 -0.000421034 -0.00015915
0 -0.000316649 -8.21491e-05 0 -0.000419323 -0.000154311
0 -0.000316864 -7.73553e-05 0 -0.000417626 -0.000149256
0 -0.000317153 -7.23793e-05 0 -0.000415983 -0.000144002
0 -0.000317565 -6.72491e-05 0 -0.000414441 -0.000138579
0 -0.000318151 -6.19886e-05 0 -0.000413018 -0.000133028
0 -0.000318908 -5.66517e-05 0 -0.000411698 -0.000127399
0 -0.000319777 -5.13167e-05 0 -0.000410437 -0.000121757
0 -0.000320675 -4.60638e-05 0 -0.000409145 -0.000116181
0 -0.000321512 -4.09711e-05 0 -0.000407721 -0.000110758
0 -0.000322175 -3.61262e-05 0 -0.00040605 -0.000105572
0 -0.000322526 -3.16246e-05 0 -0.000404 -0.00010071
0 -0.000322423 -2.75556e-05 0 -0.000401436 -9.62563e-05
0 -0.000321733 -2.39927e-05 0 -0.000398223 -9.22882e-05
0 -0.000320352 -2.09923e-05 0 -0.00039426 -8.88633e-05
0 -0.000318195 -1.85951e-05 0 -0.000389474 -8.60167e-05
0 -0.000315193 -1.68258e-05 0 -0.000383801 -8.37682e-05
0 -0.000311283 -1.56909e-05 0 -0.000377195 -8.21243e-05
0 -0.000306425 -1.51765e-05 0 -0.000369617 -8.10758e-05
0 -0.000300609 -1.52436e-05 0 -0.000361071 -8.05873e-05
0 -0.000293874 -1.58245e-05 0 -0.000351615 -8.0593e-05
0 -0.000286301 -1.68269e-05 0 -0.000341337 -8.10017e-05
0 -0.000278008 -1.81343e-05 0 -0.000330373 -8.17011e-05
0 -0.000269163 -1.96052e-05 0 -0.000314784 -8.25177e-05
0 -0.000259974 -2.10771e-05 0 -0.000297721 -8.33382e-05
0 -0.000250674 -2.23805e-05 0 -0.000280663 -8.39854e-05
0 -0.000241513 -2.33414e-05 0 -0.000263884 -8.43112e-05
0 -0.000232738 -2.37875e-05 0 -0.000247813 -8.41333e-05
0 -0.000224574 -2.35644e-05 0 -0.000232733 -8.33163e-05
0 -0.000217204 -2.25421e-05 0 -0.000218949 -8.1733e-05
0 -0.000210771 -2.06177e-05 0 -0.000206677 -7.92844e-05
0 -0.000205389 -1.77136e-05 0 -0.000196083 -7.5902e-05
0 -0.000201138 -1.37798e-05 0 -0.000187291 -7.15398e-05
0 -0.000198073 -8.79523e-06 0 -0.000180389 -6.61783e-05
0 -0.000196212 -2.77047e-06 0 -0.0001754 -5.98266e-05
0 -0.000195536 4.25333e-06 0 -0.000172304 -5.25261e-05
0 -0.000195993 1.22062e-05 0 -0.000171015 -4.43479e-05
0 -0.000197523 2.09969e-05 0 -0.000171294 -3.53821e-05
0 -0.000200062 3.05169e-05 0 -0.0001727 -2.57306e-05
0 -0.000203537 4.0639e-05 0 -0.000175135 -1.55156e-05
0 -0.000207834 5.12088e-05 0 -0.000178478 -4.88096e-06
0 -0.000212784 6.20433e-05 0 -0.000182545 5.9938e-06
0 -0.000218192 7.29456e-05 0 -0.000187125 1.69119e-05
0 -0.000223877 8.37194e-05 0 -0.000192023 2.76776e-05
0 -0.000229702 9.41794e-05 0 -0.000197086 3.8113e-05
0 -0.000235566 0.000104152 0 -0.000202203 4.80577e-05
0 -0.000241385 0.000113474 0 -0.000207271 5.7356e-05
0 -0.000247082 0.00012199 0 -0.000212187 6.58564e-05
0 -0.00025257 0.000129554 0 -0.000216844 7.34126e-05
0 -0.000257745 0.000136017 0 -0.000221123 7.9883e-05
0 -0.000262499 0.000141244 0 -0.000224911 8.51405e-05
0 -0.000266722 0.000145113 0 -0.000228082 8.90666e-05
0 -0.000270293 0.000147515 0 -0.000230502 9.15536e-05
0 -0.000273087 0.000148356 0 -0.000232046 9.25119e-05
0 -0.000274993 0.000147568 0 -0.000232599 9.1875e-05
0 -0.000275934 0.000145114 0 -0.000232083 8.96076e-05
0 -0.00027583 0.000140778 0 -0.000230435 8.54829e-05
0 -0.000274657 0.000134537 0 -0.000227591 7.94885e-05
0 -0.000272416 0.000126456 0 -0.000223614 7.17186e-05
0 -0.000269129 0.000116655 0 -0.000218503 6.22236e-05
0 -0.000264843 0.000105299 0 -0.000212336 5.12276e-05
0 -0.000259634 9.25826e-05 0 -0.000205198 3.8896e-05
0 -0.000253629 7.87429e-05 0 -0.000197231 2.54413e-05
0 -0.000247008 6.40577e-05 0 -0.00018864 1.11622e-05
0 -0.000239985 4.88291e-05 0 -0.000179656 -3.64825e-06
0 -0.000232786 3.33729e-05 0 -0.000170352 -1.86858e-05
0 -0.000225636 1.80121e-05 0 -0.000157266 -3.35912e-05
0 -0.00021875 3.06235e-06 0 -0.000144696 -4.81193e-05
0 -0.000212321 -1.11809e-05 0 -0.000132886 -6.19536e-05
0 -0.000206521 -2.44393e-05 0 -0.000122139 -7.48366e-05
0 -0.000201497 -3.64619e-05 0 -0.000112684 -8.65152e-05
0 -0.000197364 -4.70294e-05 0 -0.000104712 -9.67832e-05
0 -0.000194204 -5.5962e-05 0 -9.83658e-05 -0.000105462
0 -0.000192063 -6.31193e-05 0 -9.37322e-05 -0.000112415
0 -0.000190966 -6.83998e-05 0 -9.08606e-05 -0.000117542
0 -0.000190914 -7.1741e-05 0 -8.97562e-05 -0.000120785
0 -0.00019189 -7.31207e-05 0 -9.0213e-05 -0.000122117
0 -0.000193885 -7.25824e-05 0 -9.18412e-05 -0.000121553
0 -0.000197006 -7.0495e-05 0 -9.46967e-05 -0.000119385
0 -0.00020118 -6.68858e-05 0 -9.86732e-05 -0.000115765
0 -0.000206326 -6.18486e-05 0 -0.000103804 -0.000110743
0 -0.000212335 -5.55441e-05 0 -0.000110232 -0.000104367
0 -0.00021928 -4.81003e-05 0 -0.00011773 -9.68151e-05
0 -0.000226958 -3.97101e-05 0 -0.000126123 -8.82564e-05
0 -0.00023515 -3.05491e-05 0 -0.00013515 -7.89128e-05
0 -0.000243647 -2.08225e-05 0 -0.00014453 -6.90106e-05
0 -0.000252205 -1.07725e-05 0 -0.000154009 -5.87721e-05
0 -0.000260589 -6.38456e-07 0 -0.00016334 -4.84216e-05
0 -0.000268572 9.39498e-06 0 -0.000172286 -3.81846e-05
0 -0.000275895 1.92601e-05 0 -0.000180598 -2.8239e-05
0 -0.000282394 2.86985e-05 0 -0.00018807 -1.88008e-05
0 -0.000287926 3.74502e-05 0 -0.000194521 -1.00631e-05
0 -0.000292396 4.5275e-05 0 -0.000199784 -2.21957e-06
0 -0.000295678 5.20363e-05 0 -0.000203718 4.54726e-06
0 -0.00029776 5.74564e-05 0 -0.000206205 1.00981e-05
0 -0.000298523 6.14684e-05 0 -0.000207148 1.43422e-05
0 -0.000297938 6.39899e-05 0 -0.000206502 1.72228e-05
0 -0.000295982 6.50254e-05 0 -0.000204259 1.87279e-05
0 -0.000292694 6.4602e-05 0 -0.000200464 1.88745e-05
0 -0.000288149 6.27868e-05 0 -0.000195221 1.77224e-05
0 -0.000282461 5.96859e-05 0 -0.00018867 1.53628e-05
0 -0.000275782 5.54405e-05 0 -0.000180991 1.19209e-05
0 -0.000268636 4.97624e-05 0 -0.000172443 7.47891e-06
0 -0.00026121 4.28954e-05 0 -0.000163381 2.05307e-06
0 -0.000253308 3.54986e-05 0 -0.000153866 -3.92127e-06
0 -0.000245204 2.7758e-05 0 -0.000144127 -1.03008e-05
0 -0.000237037 1.98466e-05 0 -0.000134417 -1.68124e-05
0 -0.000229019 1.19593e-05 0 -0.000125676 -2.44915e-05
0 -0.00022142 4.46087e-06 0 -0.000117733 -3.23257e-05
0 -0.000214375 -2.3112e-06 0 -0.000110092 -3.86766e-05
0 -0.000208036 -8.23673e-06 0 -0.000103622 -4.45062e-05
0 -0.000202614 -1.30772e-05 0 -9.8359e-05 -4.93254e-05
0 -0.000198066 -1.67035e-05 0 -9.42346e-05 -5.26269e-05
0 -0.000194465 -1.90605e-05 0 -9.17265e-05 -5.49025e-05
0 -0.00019174 -2.05504e-05 0 -9.09187e-05 -5.61526e-05
0 -0.000189934 -2.10753e-05 0 -9.20102e-05 -5.63249e-05
0 -0.000188939 -2.04648e-05 0 -9.49149e-05 -5.5424e-05
0 -0.000188239 -1.78682e-05 0 -9.95096e-05 -5.31817e-05
0 -0.000188428 -1.42586e-05 0 -0.000105957 -4.98167e-05
0 -0.000189653 -9.50664e-06 0 -0.000114365 -4.53408e-05
0 -0.000192165 -3.2294e-06 0 -0.000124765 -3.98812e-05
0 -0.000195437 5.03051e-06 0 -0.000136818 -3.3322e-05
0 -0.000199837 1.47541e-05 0 -0.000150462 -2.58684e-05
0 -0.000205277 2.54231e-05 0 -0.000165597 -1.77539e-05
0 -0.000211662 3.67649e-05 0 -0.000182031 -9.27787e-06
0 -0.000219015 4.86104e-05 0 -0.000199524 -7.79192e-07
0 -0.000227086 6.05798e-05 0 -0.000217754 7.53277e-06
0 -0.000235594 7.22601e-05 0 -0.000236411 1.54344e-05
0 -0.000244298 8.33308e-05 0 -0.00025557 2.26499e-05
0 -0.000252975 9.35408e-05 0 -0.000277358 2.88558e-05
0 -0.000261387 0.000102614 0 -0.000298581 3.38316e-05
0 -0.000269282 0.00011024 0 -0.000318743 3.73491e-05
0 -0.000276404 0.000116123 0 -0.000337558 3.9215e-05
0 -0.000282338 0.00011995 0 -0.000349797 3.85439e-05
0 -0.000286985 0.000121595 0 -0.000355774 3.45065e-05
0 -0.000290401 0.000121234 0 -0.000364071 2.98432e-05
0 -0.000292383 0.000118628 0 -0.000368793 2.27676e-05
0 -0.000292793 0.000113695 0 -0.000371526 1.37765e-05
0 -0.000291607 0.000106607 0 -0.00037282 3.19526e-06
0 -0.000288868 9.75084e-05 0 -0.000371854 -9.28998e-06
0 -0.00028471 8.66125e-05 0 -0.000369404 -2.32882e-05
0 -0.000279274 7.40991e-05 0 -0.000365603 -3.85501e-05
0 -0.000272795 6.05395e-05 0 -0.000360585 -5.448e-05
0 -0.000266089 4.91977e-05 0 -0.000355265 -6.59376e-05
0 -0.000258829 3.745e-05 0 -0.000348791 -7.93439e-05
0 -0.000251283 2.54447e-05 0 -0.000342357 -9.28947e-05
0 -0.000243603 1.31509e-05 0 -0.000335674 -0.000106335
0 -0.000236007 7.02018e-07 0 -0.000328916 -0.000120003
0 -0.000228677 -1.15941e-05 0 -0.000326419 -0.000132467
0 -0.000221707 -2.34652e-05 0 -0.000324696 -0.000141026
0 -0.0002153 -3.47071e-05 0 -0.000322645 -0.000149694
0 -0.000209659 -4.50998e-05 0 -0.000321054 -0.00015885
0 -0.00020484 -5.46656e-05 0 -0.000318702 -0.000167479
0 -0.000200837 -6.33673e-05 0 -0.000317991 -0.000174483
0 -0.000197689 -7.10544e-05 0 -0.000317529 -0.000180455
0 -0.000195497 -7.75049e-05 0 -0.000316998 -0.000186118
0 -0.000194272 -8.26434e-05 0 -0.000317067 -0.000190689
0 -0.000193946 -8.65461e-05 0 -0.000317774 -0.000193865
0 -0.000194516 -8.92265e-05 0 -0.000318955 -0.000195949
0 -0.000196041 -9.06095e-05 0 -0.000320895 -0.000197034
0 -0.000198529 -9.06619e-05 0 -0.00032393 -0.000196657
0 -0.000201943 -8.94258e-05 0 -0.00032787 -0.000194889
0 -0.000206256 -8.69536e-05 0 -0.000332756 -0.000192004
0 -0.000211443 -8.33176e-05 0 -0.000338499 -0.00018799
0 -0.000217441 -7.86235e-05 0 -0.000345063 -0.000182845
0 -0.00022418 -7.29791e-05 0 -0.000351806 -0.000176833
0 -0.00023163 -6.64612e-05 0 -0.000358169 -0.000170572
0 -0.000239743 -5.9171e-05 0 -0.000365573 -0.000163585
0 -0.000248414 -5.13017e-05 0 -0.000373391 -0.000155696
0 -0.000257554 -4.30118e-05 0 -0.000383065 -0.000147462
0 -0.000267096 -3.44139e-05 0 -0.000393017 -0.000139118
0 -0.00027694 -2.56395e-05 0 -0.000403214 -0.000130528
0 -0.000286928 -1.69282e-05 0 -0.000413621 -0.000121927
0 -0.000296902 -8.52123e-06 0 -0.00042393 -0.000113683
0 -0.000306734 -6.1044e-07 0 -0.000434089 -0.000105943
0 -0.000316295 6.61723e-06 0 -0.00044393 -9.88167e-05
0 -0.000325432 1.29508e-05 0 -0.000453313 -9.25607e-05
0 -0.000333897 1.82678e-05 0 -0.000462103 -8.73371e-05
0 -0.000341552 2.25854e-05 0 -0.000470212 -8.31344e-05
0 -0.000348216 2.56234e-05 0 -0.000477477 -8.02609e-05
0 -0.00035379 2.72983e-05 0 -0.000483893 -7.82053e-05
0 -0.000358082 2.74334e-05 0 -0.000488778 -7.78615e-05
0 -0.000361057 2.59878e-05 0 -0.00049173 -7.91944e-05
0 -0.00036316 2.31093e-05 0 -0.000492901 -8.21777e-05
0 -0.000364309 1.87627e-05 0 -0.000492411 -8.68307e-05
0 -0.000364049 1.27953e-05 0 -0.000490275 -9.31029e-05
0 -0.000362054 5.7277e-06 0 -0.000486277 -0.00010068
0 -0.000358255 -2.23668e-06 0 -0.000480174 -0.000108997
0 -0.000352967 -1.14196e-05 0 -0.000472126 -0.000118183
0 -0.000346952 -2.27351e-05 0 -0.000462629 -0.000128331
0 -0.000339954 -3.48076e-05 0 -0.000454571 -0.000138544
0 -0.000331878 -4.75974e-05 0 -0.000444283 -0.000149372
0 -0.000322862 -6.10503e-05 0 -0.000433863 -0.000162187
0 -0.000313056 -7.49013e-05 0 -0.00042263 -0.000175737
0 -0.000302723 -8.8786e-05 0 -0.000410766 -0.000188621
0 -0.000292049 -0.000102389 0 -0.00039858 -0.000201465
0 -0.000281256 -0.000115455 0 -0.000386307 -0.00021408
0 -0.000270489 -0.000127818 0 -0.000374097 -0.000225731
0 -0.000259846 -0.000139286 0 -0.000362101 -0.000236433
0 -0.000249581 -0.000149552 0 -0.000350544 -0.0002461
0 -0.00024006 -0.000158275 0 -0.000339586 -0.000254353
0 -0.000231415 -0.000165311 0 -0.000329434 -0.00026103
0 -0.000223879 -0.00017047 0 -0.000320657 -0.000265927
0 -0.000217511 -0.000173496 0 -0.00031496 -0.000268381
0 -0.000211294 -0.000174428 0 -0.000311958 -0.0002673
0 -0.000205451 -0.00017312 0 -0.000310238 -0.000264395
0 -0.000201058 -0.00016903 0 -0.000310347 -0.000258988
0 -0.000197948 -0.000162906 0 -0.000311957 -0.000252252
0 -0.000196053 -0.000155448 0 -0.000315217 -0.000243286
0 -0.00019572 -0.000146011 0 -0.000320449 -0.000232639
0 -0.000197211 -0.000135035 0 -0.000327408 -0.000220452
0 -0.000200092 -0.000122542 0 -0.000331147 -0.00020771
0 -0.000204217 -0.000108385 0 -0.000333383 -0.000194735
0 -0.000209307 -9.24391e-05 0 -0.000339617 -0.000179445
0 -0.000214761 -7.44507e-05 0 -0.000345272 -0.000163517
0 -0.000220759 -5.55253e-05 0 -0.000351948 -0.000146443
0 -0.000227191 -3.59023e-05 0 -0.000359062 -0.000128869
0 -0.00023391 -1.56756e-05 0 -0.000365159 -0.000111362
0 -0.000240742 4.85384e-06 0 -0.000371851 -9.36674e-05
0 -0.000247415 2.52058e-05 0 -0.000378534 -7.60364e-05
0 -0.000253738 4.50647e-05 0 -0.000384716 -5.87591e-05
0 -0.000259622 6.42908e-05 0 -0.000390702 -4.19839e-05
0 -0.000264939 8.27088e-05 0 -0.000396166 -2.60029e-05
0 -0.000269502 0.00010006 0 -0.000400746 -1.0705e-05
0 -0.000273135 0.000116092 0 -0.000404184 5.12582e-06
0 -0.000275681 0.000130553 0 -0.000406835 1.85647e-05
0 -0.000277067 0.000143328 0 -0.000408717 2.84469e-05
0 -0.000277304 0.000154338 0 -0.000408665 3.73739e-05
0 -0.000276345 0.00016346 0 -0.000408007 4.52614e-05
0 -0.000274209 0.000170616 0 -0.000405946 5.12068e-05
0 -0.000271038 0.000175891 0 -0.000402858 5.51533e-05
0 -0.000266958 0.000179349 0 -0.000398869 5.79517e-05
0 -0.000261947 0.000181154 0 -0.000394077 5.91866e-05
0 -0.00025616 0.000181321 0 -0.00038879 5.88315e-05
0 -0.000249856 0.000179348 0 -0.000386899 5.7693e-05
0 -0.000242903 0.000175502 0 -0.000385778 5.57211e-05
0 -0.000235361 0.000169915 0 -0.000382051 5.16744e-05
0 -0.000227345 0.000162815 0 -0.00037907 4.58475e-05
0 -0.000218801 0.00015429 0 -0.000375841 3.95222e-05
0 -0.000209706 0.000144399 0 -0.000372162 3.18817e-05
0 -0.000200196 0.000133402 0 -0.000368235 2.28757e-05
0 -0.000190407 0.000121616 0 -0.000363974 1.32978e-05
0 -0.000180435 0.000109241 0 -0.000359698 3.25793e-06
0 -0.000170452 9.65107e-05 0 -0.000355916 -6.368e-06
0 -0.000160931 8.55464e-05 0 -0.000352208 -1.45922e-05
0 -0.000151902 7.55541e-05 0 -0.000349595 -2.11354e-05
0 -0.000143444 6.60158e-05 0 -0.000346864 -2.85929e-05
0 -0.000135736 5.68358e-05 0 -0.000343189 -3.54091e-05
0 -0.000128587 4.86237e-05 0 -0.000341508 -4.08714e-05
0 -0.00012226 4.11136e-05 0 -0.000339656 -4.59633e-05
0 -0.000116945 3.46064e-05 0 -0.000337991 -5.07749e-05
0 -0.000112782 2.93166e-05 0 -0.00033737 -5.45737e-05
0 -0.000109841 2.52761e-05 0 -0.000337272 -5.71537e-05
0 -0.000108212 2.24704e-05 0 -0.000337924 -5.89594e-05
0 -0.000107993 2.09353e-05 0 -0.000339201 -5.99079e-05
0 -0.000109253 2.07449e-05 0 -0.000341214 -5.96447e-05
0 -0.000112019 2.19519e-05 0 -0.000344794 -5.7984e-05
0 -0.000116296 2.45277e-05 0 -0.000350018 -5.4852e-05
0 -0.000122068 2.83771e-05 0 -0.000356726 -5.0433e-05
0 -0.000129294 3.33792e-05 0 -0.000364966 -4.48035e-05
0 -0.000137902 3.94133e-05 0 -0.000374625 -3.80388e-05
0 -0.000147811 4.63631e-05 0 -0.000385642 -3.02918e-05
0 -0.000158928 5.40814e-05 0 -0.000397892 -2.17595e-05
0 -0.000171138 6.23693e-05 0 -0.000410944 -1.30161e-05
0 -0.00018431 7.10127e-05 0 -0.000425569 -5.02622e-06
0 -0.000198319 7.97985e-05 0 -0.000440408 3.23868e-06
0 -0.000213037 8.85009e-05 0 -0.000452558 1.12089e-05
0 -0.00022836 9.69621e-05 0 -0.000464594 1.75539e-05
0 -0.000244096 0.000104931 0 -0.000478323 2.3878e-05
0 -0.000260073 0.000112133 0 -0.000491282 3.03963e-05
0 -0.000276188 0.000118405 0 -0.000506916 3.57992e-05
0 -0.000292299 0.000123556 0 -0.000522498 3.98413e-05
0 -0.000308097 0.000127336 0 -0.000537713 4.28948e-05
0 -0.000323037 0.000129388 0 -0.00055284 4.50007e-05
0 -0.000336978 0.000129589 0 -0.000567003 4.5469e-05
0 -0.000349714 0.000127759 0 -0.000580253 4.40369e-05
0 -0.000361014 0.000123716 0 -0.000592552 4.07179e-05
0 -0.000370709 0.000117343 0 -0.000603549 3.53433e-05
0 -0.000379077 0.000108679 0 -0.000612151 2.74988e-05
0 -0.000386717 9.79491e-05 0 -0.000618787 1.70803e-05
0 -0.000393113 8.4933e-05 0 -0.000623147 4.38429e-06
0 -0.000397831 6.95552e-05 0 -0.000625079 -1.07238e-05
0 -0.000400833 5.1968e-05 0 -0.000624667 -2.82842e-05
0 -0.000402155 3.22805e-05 0 -0.000622828 -4.65063e-05
0 -0.000401764 1.05472e-05 0 -0.000618516 -6.54975e-05
0 -0.000399791 -1.30103e-05 0 -0.000612809 -8.69591e-05
0 -0.000396449 -3.80506e-05 0 -0.00060579 -0.000110204
0 -0.000391867 -6.43345e-05 0 -0.000597098 -0.0001342
0 -0.000386159 -9.16475e-05 0 -0.000587236 -0.000159066
0 -0.000379617 -0.000119638 0 -0.000576662 -0.000184905
0 -0.000372639 -0.000147872 0 -0.000567618 -0.000210723
0 -0.000365396 -0.000175977 0 -0.000561127 -0.000234488
0 -0.000357935 -0.000203666 0 -0.000551964 -0.000258464
0 -0.000350565 -0.000230592 0 -0.000544722 -0.000282944
0 -0.000343625 -0.000256465 0 -0.000536966 -0.000305975
0 -0.000337325 -0.000281072 0 -0.000530106 -0.000327419
0 -0.000331825 -0.000304202 0 -0.000523956 -0.000347758
0 -0.000327332 -0.000325616 0 -0.000518838 -0.000366825
0 -0.000323974 -0.000345122 0 -0.000514724 -0.000383699
0 -0.000321803 -0.000362598 0 -0.000511708 -0.000398561
0 -0.00032088 -0.000377898 0 -0.000509968 -0.000411534
0 -0.000320865 -0.000390201 0 -0.000509488 -0.000422292
0 -0.000322066 -0.000399954 0 -0.00051027 -0.00043059
0 -0.000324497 -0.000407124 0 -0.000512368 -0.000436572
0 -0.000328138 -0.000411649 0 -0.000515775 -0.000440306
0 -0.000332907 -0.000413555 0 -0.000520108 -0.00044173
0 -0.000338697 -0.000412947 0 -0.000523731 -0.000441364
0 -0.000345398 -0.00040991 0 -0.000529019 -0.000439021
0 -0.000352886 -0.000404171 0 -0.000535082 -0.00043345
0 -0.000360987 -0.000395798 0 -0.000542431 -0.000425093
0 -0.000369528 -0.000384988 0 -0.000550852 -0.000414573
0 -0.000378428 -0.000371987 0 -0.000559962 -0.000401605
0 -0.000387669 -0.000357031 0 -0.000569693 -0.000386682
0 -0.000396764 -0.000341452 0 -0.000579571 -0.000372604
0 -0.000405645 -0.000324771 0 -0.00058876 -0.000357212
0 -0.000413676 -0.000309291 0 -0.000598129 -0.000341151
0 -0.000421295 -0.000293227 0 -0.000607251 -0.000325437
0 -0.000428031 -0.00027708 0 -0.000615538 -0.000308717
0 -0.000433588 -0.000261018 0 -0.000622644 -0.000292414
0 -0.00043668 -0.000245346 0 -0.000622804 -0.000277024
0 -0.000436956 -0.000229455 0 -0.000622325 -0.0002614
0 -0.000434853 -0.000213803 0 -0.000620423 -0.000245427
0 -0.000431336 -0.00019955 0 -0.00061595 -0.000230033
0 -0.000426764 -0.000186809 0 -0.000610458 -0.000214852
0 -0.000420849 -0.000174551 0 -0.000603275 -0.000200139
0 -0.000413721 -0.000162795 0 -0.000594579 -0.000185749
0 -0.000405415 -0.000151738 0 -0.000584562 -0.000171607
0 -0.000396011 -0.000141455 0 -0.000573809 -0.000158469
0 -0.000385663 -0.000131831 0 -0.00056368 -0.000150572
0 -0.000374604 -0.000122547 0 -0.000551451 -0.000141809
0 -0.000362893 -0.000113582 0 -0.000539525 -0.000132438
0 -0.000350616 -0.000104908 0 -0.00052666 -0.000123829
0 -0.000338051 -9.63593e-05 0 -0.000513482 -0.000115962
0 -0.000325399 -8.78133e-05 0 -0.000500251 -0.000107366
0 -0.000312761 -7.92152e-05 0 -0.000487112 -9.87748e-05
0 -0.000300334 -7.041e-05 0 -0.000474169 -9.03084e-05
0 -0.000288348 -6.12362e-05 0 -0.000461698 -8.13573e-05
0 -0.000276965 -5.16258e-05 0 -0.000449897 -7.18958e-05
0 -0.000266358 -4.15105e-05 0 -0.000439411 -6.20405e-05
0 -0.000256681 -3.0832e-05 0 -0.00043691 -4.97792e-05
0 -0.000247947 -1.97117e-05 0 -0.000435298 -3.49934e-05
0 -0.000240364 -8.01249e-06 0 -0.000431836 -2.23197e-05
0 -0.000234104 4.43889e-06 0 -0.000429619 -9.58655e-06
0 -0.000229002 1.73908e-05 0 -0.000428545 4.65011e-06
0 -0.000224892 3.06066e-05 0 -0.000428285 1.90377e-05
0 -0.000221848 4.41022e-05 0 -0.000427729 3.26945e-05
0 -0.000219913 5.79037e-05 0 -0.000427913 4.65596e-05
0 -0.00021891 7.18042e-05 0 -0.000429036 6.07786e-05
0 -0.000218709 8.55826e-05 0 -0.000430299 7.44484e-05
0 -0.000219475 9.887e-05 0 -0.000431828 8.75806e-05
0 -0.000221191 0.000111508 0 -0.000434009 0.000100207
0 -0.000223613 0.00012351 0 -0.00043613 0.0001107
0 -0.000226721 0.000134732 0 -0.000439099 0.000120322
0 -0.000230158 0.000145376 0 -0.000442482 0.000128779
0 -0.000233481 0.000155867 0 -0.000446398 0.000136562
0 -0.000236852 0.000165457 0 -0.000450506 0.000143234
0 -0.000240287 0.000173867 0 -0.0004549 0.000148674
0 -0.00024371 0.000181074 0 -0.000459369 0.000152665
0 -0.000247034 0.00018696 0 -0.000463829 0.000155155
0 -0.000250118 0.000191256 0 -0.000468144 0.000156044
0 -0.000252769 0.000193499 0 -0.000472163 0.000154898
0 -0.000254924 0.000193678 0 -0.000475843 0.000151757
0 -0.000256546 0.00019183 0 -0.000479069 0.000146512
0 -0.000257605 0.000187958 0 -0.000481839 0.000139233
0 -0.000258082 0.000182069 0 -0.000484143 0.000129999
0 -0.000257995 0.000174328 0 -0.000485363 0.000120286
0 -0.000257488 0.000165147 0 -0.000484981 0.00011354
0 -0.000256583 0.000154406 0 -0.000485239 0.000104151
0 -0.000255431 0.000142189 0 -0.0004844 9.17449e-05
0 -0.000254219 0.00012884 0 -0.000483903 7.93588e-05
0 -0.000253451 0.000117457 0 -0.000483531 6.80641e-05
0 -0.000253107 0.000106691 0 -0.000484216 5.94083e-05
0 -0.000253128 9.58224e-05 0 -0.000484845 4.74843e-05
0 -0.000253576 8.4652e-05 0 -0.000485834 3.78492e-05
0 -0.00025439 7.30339e-05 0 -0.000487543 2.75713e-05
0 -0.000255688 6.11924e-05 0 -0.00048968 1.64653e-05
0 -0.000257511 4.94005e-05 0 -0.000492349 5.77909e-06
0 -0.000259777 3.77284e-05 0 -0.00049566 -4.37291e-06
0 -0.000262519 2.61776e-05 0 -0.00049947 -1.39642e-05
0 -0.000265764 1.47071e-05 0 -0.00050391 -2.35215e-05
0 -0.000269669 3.41732e-06 0 -0.000508257 -3.30805e-05
0 -0.000274173 -7.60949e-06 0 -0.000513304 -4.25306e-05
0 -0.00027926 -1.831e-05 0 -0.000518796 -5.15433e-05
0 -0.000284926 -2.86606e-05 0 -0.000524832 -6.02894e-05
0 -0.000291207 -3.86493e-05 0 -0.000531381 -6.88043e-05
0 -0.000298069 -4.83157e-05 0 -0.000538402 -7.70026e-05
0 -0.000305666 -5.7618e-05 0 -0.00054591 -8.48724e-05
0 -0.000314275 -6.64493e-05 0 -0.000553964 -9.24677e-05
0 -0.000324017 -7.47623e-05 0 -0.000562554 -9.97571e-05
0 -0.000334593 -8.2702e-05 0 -0.000571536 -0.000106763
0 -0.000345809 -9.03627e-05 0 -0.000580786 -0.000113619
0 -0.000357508 -9.78252e-05 0 -0.000590202 -0.000120412
0 -0.000369617 -0.000105156 0 -0.000599688 -0.00012717
0 -0.00038204 -0.000112433 0 -0.000609155 -0.000133952
0 -0.000394684 -0.000119725 0 -0.000618495 -0.000140856
0 -0.000407421 -0.000127118 0 -0.000627968 -0.00014797
0 -0.00042008 -0.000134722 0 -0.000638226 -0.000155384
0 -0.000432474 -0.000142651 0 -0.000647849 -0.000163164
0 -0.000444413 -0.000150999 0 -0.000656695 -0.00017139
0 -0.00045574 -0.000159846 0 -0.000664611 -0.000180138
0 -0.000466352 -0.000169234 0 -0.000671491 -0.000189457
0 -0.000476053 -0.000179257 0 -0.000677209 -0.000199381
0 -0.000484765 -0.000189929 0 -0.000681679 -0.000209945
0 -0.000492401 -0.000201268 0 -0.00068484 -0.000221155
0 -0.000498876 -0.000213275 0 -0.000686646 -0.00023299
0 -0.000504126 -0.000225922 0 -0.000687069 -0.000245423
0 -0.000508117 -0.000239161 0 -0.000686246 -0.000258411
0 -0.000510834 -0.000252927 0 -0.000684265 -0.000271886
0 -0.000512294 -0.000267131 0 -0.000681173 -0.000285752
0 -0.000512709 -0.000281579 0 -0.000680563 -0.000299319
0 -0.000511981 -0.000296234 0 -0.000679659 -0.000311314
0 -0.000510161 -0.00031102 0 -0.000676361 -0.0003245
0 -0.000507194 -0.00032538 0 -0.000673619 -0.000338103
0 -0.000503159 -0.000339114 0 -0.00066905 -0.000350893
0 -0.000498118 -0.000352121 0 -0.000663999 -0.000363014
0 -0.000492213 -0.000364221 0 -0.00065783 -0.000373918
0 -0.000486187 -0.000376134 0 -0.0006512 -0.000383975
0 -0.000480172 -0.000387658 0 -0.000644066 -0.000393038
0 -0.000473907 -0.00039803 0 -0.000636536 -0.000400876
0 -0.000467418 -0.000407118 0 -0.000628726 -0.000407251
0 -0.000460772 -0.000414855 0 -0.000620649 -0.000412015
0 -0.000454039 -0.00042105 0 -0.000612508 -0.000415095
0 -0.000447451 -0.000425342 0 -0.000604404 -0.000416328
0 -0.000441574 -0.00042702 0 -0.000596575 -0.000415067
0 -0.000436428 -0.000426118 0 -0.000589182 -0.000411329
0 -0.000432144 -0.000422567 0 -0.000582895 -0.000404909
0 -0.000428841 -0.000416315 0 -0.000577689 -0.000395885
0 -0.000426543 -0.000407465 0 -0.00057388 -0.000384663
0 -0.000425017 -0.000397192 0 -0.000572642 -0.000377773
0 -0.000423343 -0.000385011 0 -0.000571545 -0.000366598
0 -0.000420186 -0.000373619 0 -0.00057103 -0.000354061
0 -0.00041708 -0.000360289 0 -0.000569125 -0.000340642
0 -0.000414453 -0.000345261 0 -0.000565547 -0.00032685
0 -0.000412499 -0.000328493 0 -0.00056464 -0.000310429
