-7.58898e-06 -1.02258e-05 -2.37515e-06
-7.53829e-06 -1.02359e-05 -2.37228e-06
-7.41997e-06 -1.02606e-05 -2.36425e-06
-7.17609e-06 -1.03044e-05 -2.35367e-06
-6.89853e-06 -1.03475e-05 -2.34651e-06
-6.54069e-06 -1.03931e-05 -2.34498e-06
-6.09585e-06 -1.04362e-05 -2.35273e-06
-5.55678e-06 -1.04708e-05 -2.37438e-06
-4.91549e-06 -1.04899e-05 -2.41449e-06
-4.16336e-06 -1.04861e-05 -2.47756e-06
-3.29252e-06 -1.04508e-05 -2.56789e-06
-2.29795e-06 -1.03744e-05 -2.68933e-06
-1.18467e-06 -1.02462e-05 -2.84517e-06
2.57721e-08 -1.00577e-05 -3.0354e-06
1.33367e-06 -9.78867e-06 -3.26538e-06
2.70789e-06 -9.42623e-06 -3.53269e-06
4.11282e-06 -8.95543e-06 -3.83474e-06
5.50837e-06 -8.36368e-06 -4.16457e-06
6.85342e-06 -7.64251e-06 -4.5109e-06
8.10713e-06 -6.78829e-06 -4.85774e-06
9.22835e-06 -5.80252e-06 -5.18289e-06
1.01714e-05 -4.69141e-06 -5.45949e-06
1.08826e-05 -3.46543e-06 -5.65704e-06
1.12978e-05 -2.13995e-06 -5.74159e-06
1.13419e-05 -7.31875e-07 -5.67687e-06
1.09356e-05 7.22675e-07 -5.42505e-06
1.0015e-05 2.19211e-06 -4.94759e-06
8.55388e-06 3.63802e-06 -4.19147e-06
6.5863e-06 4.98981e-06 -3.10634e-06
4.19673e-06 6.16823e-06 -1.64905e-06
1.49403e-06 7.08909e-06 2.04792e-07
-1.45616e-06 7.66895e-06 2.50458e-06
-4.5166e-06 7.85268e-06 5.25383e-06
-7.61305e-06 7.59358e-06 8.43507e-06
-1.06806e-05 6.86521e-06 1.20142e-05
-1.36967e-05 5.66318e-06 1.59279e-05
-1.66362e-05 4.00133e-06 2.00947e-05
-1.95077e-05 1.91571e-06 2.44096e-05
-2.23065e-05 -5.49185e-07 2.87501e-05
-2.50368e-05 -3.3622e-06 3.29683e-05
-2.76924e-05 -6.41506e-06 3.69448e-05
-3.02606e-05 -9.64356e-06 4.05282e-05
-3.27096e-05 -1.29718e-05 4.35788e-05
-3.49844e-05 -1.63309e-05 4.59622e-05
-3.702e-05 -1.96541e-05 4.75558e-05
-3.87659e-05 -2.28765e-05 4.82472e-05
-4.02143e-05 -2.59262e-05 4.79297e-05
-4.14062e-05 -2.87253e-05 4.65345e-05
-4.24357e-05 -3.11962e-05 4.39993e-05
-4.34444e-05 -3.3267e-05 4.029e-05
-4.49608e-05 -3.5201e-05 3.40015e-05
-4.71509e-05 -3.6336e-05 2.5947e-05
-5.0413e-05 -3.66649e-05 1.62932e-05
-5.50471e-05 -3.62765e-05 5.3085e-06
-6.12038e-05 -3.53707e-05 -6.79153e-06
-6.88578e-05 -3.42378e-05 -1.94647e-05
-7.77882e-05 -3.32597e-05 -3.21452e-05
-8.76028e-05 -3.2867e-05 -4.43525e-05
-9.78376e-05 -3.3491e-05 -5.5572e-05
-0.000108099 -3.54968e-05 -6.54247e-05
-0.000118145 -3.91372e-05 -7.36209e-05
-0.000127879 -4.45391e-05 -8.00301e-05
-0.000137299 -5.17053e-05 -8.46604e-05
-0.000146452 -6.05254e-05 -8.76666e-05
-0.000155389 -7.07938e-05 -8.93308e-05
-0.000164098 -8.22369e-05 -9.00378e-05
-0.000172513 -9.45281e-05 -9.02529e-05
-0.00018058 -0.000107291 -9.04966e-05
-0.000188317 -0.000120106 -9.13184e-05
-0.000195812 -0.00013254 -9.32578e-05
-0.000203168 -0.000144183 -9.68036e-05
-0.000210415 -0.000154689 -0.000102354
-0.000217466 -0.00016381 -0.000110184
-0.000224178 -0.000171388 -0.000120439
-0.000230421 -0.000177349 -0.000133122
-0.000236102 -0.000181695 -0.000148103
-0.000241172 -0.0001845 -0.000165118
-0.000245625 -0.000185905 -0.000183787
-0.000249498 -0.000186105 -0.000203625
-0.000252865 -0.000185339 -0.000224072
-0.000255813 -0.00018388 -0.000244513
-0.000258436 -0.00018202 -0.000264308
-0.000260852 -0.000180049 -0.000282824
-0.000263219 -0.000178237 -0.000299465
-0.000265732 -0.000176818 -0.0003137
-0.000268575 -0.000175993 -0.000325083
-0.000271841 -0.000175933 -0.000333261
-0.000275463 -0.00017679 -0.000337993
-0.000279209 -0.000178685 -0.00033916
-0.000282758 -0.000181677 -0.000336783
-0.000285227 -0.000184847 -0.000332439
-0.000287593 -0.000189688 -0.000324216
-0.000288931 -0.000195308 -0.000313304
-0.000289073 -0.000201406 -0.000300264
-0.000287881 -0.00020761 -0.000285749
-0.000285216 -0.000213506 -0.000270466
-0.000280944 -0.000218657 -0.00025514
-0.000274936 -0.000222628 -0.00024047
-0.000267068 -0.000225008 -0.000227098
-0.000257235 -0.000225431 -0.000215567
-0.000245361 -0.000223588 -0.000206294
-0.000231402 -0.00021925 -0.000199547
-0.00021536 -0.000212266 -0.000195425
-0.000197351 -0.000202566 -0.000193859
-0.000177655 -0.000190149 -0.000194609
-0.000156688 -0.000175093 -0.000197267
-0.000134886 -0.000157586 -0.00020126
-0.000112643 -0.00013793 -0.000205864
-9.03398e-05 -0.00011652 -0.000210242
-6.83466e-05 -9.38308e-05 -0.000213478
-4.7013e-05 -7.03926e-05 -0.000214623
-2.66363e-05 -4.67739e-05 -0.00021274
-7.43567e-06 -2.35741e-05 -0.000206946
1.03394e-05 -1.43899e-06 -0.000196502
2.68875e-05 1.89187e-05 -0.000180842
4.2372e-05 3.73084e-05 -0.000159497
5.67894e-05 5.34044e-05 -0.000132283
6.99963e-05 6.71158e-05 -9.93377e-05
8.18266e-05 7.84166e-05 -6.09826e-05
9.21964e-05 8.74124e-05 -1.78593e-05
0.000101219 9.42513e-05 2.85772e-05
0.000109174 9.92022e-05 7.78301e-05
0.000116442 0.000102554 0.000128987
0.00012341 0.00010469 0.000180714
0.000130475 0.000106037 0.000231714
0.000138069 0.000107033 0.000280716
0.00014663 0.000108134 0.000326399
0.000156568 0.00010978 0.000367604
0.000168205 0.000112392 0.000403254
0.000181695 0.000116371 0.000432453
0.000196972 0.000122082 0.000454512
0.000213745 0.000129832 0.000468973
0.000231596 0.000139825 0.000475666
0.000250082 0.000152121 0.000474718
0.000268788 0.000166613 0.000466569
0.000287369 0.000183023 0.000451957
0.00030555 0.000200911 0.000431887
0.000323117 0.000219706 0.000407582
0.00033992 0.000238736 0.000380423
0.000355837 0.000257277 0.000351876
0.000370734 0.000274604 0.00032342
0.000384445 0.000290041 0.000296463
0.000396794 0.000302992 0.000272286
0.000407623 0.000312972 0.000251976
0.000416094 0.000319557 0.00023644
0.000422507 0.000321817 0.000226592
0.000426789 0.000321054 0.000221892
0.000429642 0.000317033 0.000222639
0.000430974 0.000310145 0.000228291
0.000428402 0.000301118 0.000238297
0.000417625 0.000291942 0.000251059
0.000405989 0.000280106 0.000267689
0.000392809 0.000267236 0.000285925
0.000378778 0.000253312 0.000305528
0.000364323 0.000238907 0.000325207
0.000350013 0.000224522 0.000343888
0.000336388 0.000210601 0.000360583
0.00032396 0.000197595 0.000374306
0.000313166 0.000185928 0.000384205
0.000304417 0.000175947 0.000389591
0.000298027 0.000167944 0.000389943
0.000294217 0.00016214 0.000384943
0.000293116 0.000158671 0.000374497
0.000294745 0.00015759 0.000358735
0.000299025 0.00015887 0.000338008
0.000305552 0.000162434 0.000312875
0.000312242 0.000168526 0.000283928
0.000318795 0.000176751 0.000252191
0.000324835 0.000186689 0.000218812
0.000330145 0.000197745 0.000185102
0.000333745 0.00020696 0.000158806
0.000336688 0.00021612 0.000133877
0.000338902 0.000224875 0.00011099
0.000340313 0.00023289 9.07809e-05
0.000340851 0.000239855 7.38175e-05
0.00034045 0.000245502 6.05832e-05
0.000339039 0.000249607 5.1461e-05
0.000336528 0.00025201 4.67193e-05
0.000332799 0.000252615 4.65032e-05
0.000327712 0.000251393 5.08311e-05
0.000321111 0.000248379 5.95965e-05
0.000312865 0.000243656 7.25755e-05
0.000302907 0.000237346 8.94382e-05
0.00029126 0.000229592 0.000109761
0.000278043 0.000220555 0.000133039
0.000263462 0.000210407 0.000158698
0.000247766 0.00019934 0.000186102
0.000231198 0.000187565 0.000214571
0.000213981 0.000175313 0.00024339
0.00019632 0.000162822 0.000271829
0.000178414 0.00015033 0.000299167
0.000160465 0.000138064 0.000324705
0.000142665 0.000126231 0.000347782
0.000125188 0.00011502 0.000367797
0.000108181 0.000104591 0.000384215
9.17665e-05 9.50738e-05 0.000396584
7.60485e-05 8.65591e-05 0.000404547
6.11134e-05 7.90964e-05 0.000407845
4.70288e-05 7.26933e-05 0.000406325
3.38431e-05 6.7315e-05 0.000399941
2.15848e-05 6.2887e-05 0.000388752
1.02607e-05 5.92978e-05 0.000372919
-1.40497e-07 5.64032e-05 0.000352696
-9.6454e-06 5.40294e-05 0.000328424
-1.63585e-05 5.17005e-05 0.000300554
-1.92271e-05 4.83969e-05 0.000270115
-2.2148e-05 4.58482e-05 0.000236401
-2.45554e-05 4.28982e-05 0.000200675
-2.66339e-05 3.98692e-05 0.000163132
-2.85423e-05 3.64775e-05 0.000124405
-3.05342e-05 3.26645e-05 8.50102e-05
-3.28412e-05 2.83225e-05 4.5481e-05
-3.56591e-05 2.33463e-05 6.36367e-06
-3.91808e-05 1.76488e-05 -3.24171e-05
-4.35779e-05 1.11871e-05 -6.98445e-05
-4.89781e-05 3.86489e-06 -0.000105478
-5.54813e-05 -4.4462e-06 -0.000138964
-6.31168e-05 -1.3672e-05 -0.000169894
-7.19089e-05 -2.38351e-05 -0.000198041
-8.18412e-05 -3.49278e-05 -0.000223179
-9.28857e-05 -4.69073e-05 -0.000245188
-0.000105001 -5.97157e-05 -0.000264
-0.000118132 -7.3269e-05 -0.000279624
-0.000132198 -8.74645e-05 -0.000292135
-0.000147088 -0.000102181 -0.000301671
-0.000162654 -0.000117287 -0.000308431
-0.000178716 -0.000132638 -0.000312657
-0.000195069 -0.000148085 -0.000314637
-0.000211492 -0.00016347 -0.000314693
-0.000227755 -0.000178627 -0.000313176
-0.000243624 -0.000193389 -0.000310455
-0.000258869 -0.000207587 -0.000306908
-0.000273267 -0.000221053 -0.000302912
-0.00028662 -0.000233623 -0.000298836
-0.000298748 -0.000245137 -0.000295027
-0.000309503 -0.000255447 -0.000291807
-0.000318773 -0.000264414 -0.000289458
-0.000326481 -0.000271917 -0.00028822
-0.000332593 -0.000277853 -0.000288279
-0.000337108 -0.000282143 -0.000289763
-0.000340058 -0.000284735 -0.000292738
-0.000341497 -0.000285611 -0.000297203
-0.000341504 -0.000284784 -0.000303089
-0.000340195 -0.000282292 -0.000310265
-0.000337713 -0.000278211 -0.000318535
-0.000334232 -0.000272653 -0.000327642
-0.000329944 -0.000265755 -0.000337281
-0.000325044 -0.000257689 -0.000347096
-0.000319727 -0.000248653 -0.000356702
-0.000314177 -0.00023887 -0.000365686
-0.000308574 -0.000228576 -0.000373628
-0.000303093 -0.000218019 -0.000380109
-0.00029791 -0.000207444 -0.000384728
-0.000293194 -0.000197093 -0.000387115
-0.000289105 -0.000187194 -0.000386942
-0.000285784 -0.000177959 -0.000383935
-0.00028335 -0.000169581 -0.000377884
-0.000281898 -0.000162221 -0.000368649
-0.000281503 -0.000156014 -0.000356172
-0.000282223 -0.000151056 -0.000340477
-0.000284102 -0.000147404 -0.000321674
-0.000286998 -0.000145106 -0.000299952
-0.000290004 -0.000144453 -0.000275448
-0.000294679 -0.000144889 -0.0002487
-0.00030045 -0.000146487 -0.000220184
-0.000307209 -0.000149183 -0.00019023
-0.000314909 -0.000152746 -0.000159523
-0.000323224 -0.000157188 -0.000128484
-0.000331894 -0.000162299 -9.77653e-05
-0.0003402 -0.000168022 -6.7919e-05
-0.000348014 -0.000174194 -3.95359e-05
-0.000355042 -0.000180654 -1.32075e-05
-0.000360979 -0.000187214 1.04672e-05
-0.000365538 -0.000193724 3.06841e-05
-0.000368454 -0.000199968 4.73411e-05
-0.000369499 -0.000205769 5.99708e-05
-0.000368521 -0.000210918 6.82206e-05
-0.000365467 -0.000215218 7.17968e-05
-0.000360349 -0.000218482 7.04919e-05
-0.000353221 -0.00022054 6.41911e-05
-0.000344173 -0.000221259 5.28911e-05
-0.000333329 -0.000220536 3.66995e-05
-0.000320845 -0.000218309 1.58321e-05
-0.000306915 -0.000214572 -9.79601e-06
-0.000291781 -0.000209323 -3.93744e-05
-0.000275715 -0.000202632 -7.23762e-05
-0.000259007 -0.0001946 -0.000108139
-0.000241927 -0.000185384 -0.00014595
-0.000224716 -0.000175185 -0.000185028
-0.00020759 -0.000164244 -0.000224534
-0.000190749 -0.000152827 -0.000263595
-0.000174364 -0.000141221 -0.000301326
-0.000158583 -0.000129721 -0.000336863
-0.000143529 -0.000118616 -0.00036938
-0.000129315 -0.000108179 -0.000398117
-0.000116046 -9.86529e-05 -0.000422389
-0.00010382 -9.02413e-05 -0.000441614
-9.27083e-05 -8.31058e-05 -0.000455322
-8.27467e-05 -7.73616e-05 -0.000463167
-7.39342e-05 -7.30731e-05 -0.000464937
-6.62381e-05 -7.02499e-05 -0.000460559
-5.95977e-05 -6.88452e-05 -0.000450098
-5.39257e-05 -6.87568e-05 -0.000433758
-4.9109e-05 -6.98304e-05 -0.00041187
-4.50083e-05 -7.18649e-05 -0.000384887
-4.14552e-05 -7.46197e-05 -0.000353367
-3.82511e-05 -7.7823e-05 -0.000317957
-3.51686e-05 -8.1181e-05 -0.000279377
-3.19572e-05 -8.43859e-05 -0.000238396
-3.28446e-05 -8.62262e-05 -0.000196047
-3.32374e-05 -8.7013e-05 -0.000153237
-3.30791e-05 -8.72043e-05 -0.000109829
-3.19409e-05 -8.6001e-05 -6.73641e-05
-2.96322e-05 -8.3545e-05 -2.59642e-05
-2.59896e-05 -7.95127e-05 1.32249e-05
-2.09199e-05 -7.38585e-05 4.96107e-05
-1.44494e-05 -6.64182e-05 8.32353e-05
-6.58596e-06 -5.71893e-05 0.000113691
2.66039e-06 -4.61257e-05 0.000140728
1.33112e-05 -3.32369e-05 0.000164137
2.52615e-05 -1.86574e-05 0.000183854
3.8409e-05 -2.58416e-06 0.00019993
5.26264e-05 1.48135e-05 0.00021249
6.77334e-05 3.34544e-05 0.00022183
8.35387e-05 5.30527e-05 0.000228301
9.9792e-05 7.33549e-05 0.000232287
0.000116188 9.40706e-05 0.000234253
0.000132261 0.000114946 0.000234669
0.000147892 0.000135603 0.000234085
0.000162933 0.000155687 0.00023305
0.000177298 0.00017483 0.000232101
0.000190944 0.000192677 0.000231759
0.000203852 0.000208904 0.000232489
0.000216004 0.000223229 0.000234689
0.000227382 0.000235427 0.000238675
0.000237741 0.000245388 0.000244658
0.000245377 0.000253333 0.000252653
0.000251847 0.000259032 0.000262654
0.000256793 0.000262312 0.000274879
0.000260331 0.000263395 0.000288895
0.000262498 0.000262298 0.000304626
0.000263355 0.000259228 0.000321644
0.000263026 0.000254359 0.000339585
0.000261671 0.000247921 0.000357977
0.000259487 0.000240168 0.000376309
0.000256685 0.000231381 0.000394037
0.000253484 0.00022185 0.000410602
0.000250107 0.000211877 0.000425449
0.000246778 0.000201763 0.000438039
0.000243708 0.000191801 0.00044787
0.000241094 0.000182268 0.000454492
0.000239115 0.000173418 0.000457519
0.000237928 0.000165477 0.000456644
0.000237661 0.000158637 0.00045165
0.000238399 0.000153053 0.000442417
0.000240187 0.00014884 0.000428925
0.000243024 0.00014607 0.000411262
0.000246882 0.000144771 0.000389624
0.000251711 0.000144917 0.00036431
0.000257393 0.000146422 0.00033573
0.000263394 0.000149294 0.000304326
0.000269707 0.000153369 0.000270662
0.000276233 0.000158412 0.00023542
0.000282875 0.000164208 0.000199268
0.000289529 0.00017049 0.000162953
0.000296085 0.000176988 0.000127221
0.000302437 0.000183423 9.28138e-05
0.000308474 0.000189534 6.04467e-05
0.000314072 0.000195074 3.07876e-05
0.000319075 0.000199832 4.44021e-06
0.000323302 0.000203638 -1.81615e-05
0.000326566 0.000206355 -3.67156e-05
0.000328702 0.000207904 -5.05611e-05
0.000329588 0.000208224 -5.9495e-05
0.000329133 0.000207296 -6.33996e-05
0.00032729 0.000205132 -6.22729e-05
0.000324051 0.00020179 -5.62104e-05
0.000319464 0.000197352 -4.54082e-05
0.000313639 0.000191926 -3.01662e-05
0.000306751 0.000185641 -1.10107e-05
0.000299008 0.000178648 1.14658e-05
0.000290626 0.000171138 3.69587e-05
0.00028181 0.000163315 6.48316e-05
0.00027274 0.000155407 9.4453e-05
0.000263583 0.000147651 0.000125143
0.000254508 0.000140284 0.000156221
0.000245699 0.000133526 0.00018702
0.000237347 0.000127582 0.0002169
0.00022964 0.000122632 0.00024526
0.000222758 0.000118828 0.000271554
0.000216868 0.000116289 0.000295303
0.00021211 0.000115105 0.000316103
0.000208581 0.00011533 0.000333632
0.000206319 0.000116991 0.000347657
0.000205293 0.000120084 0.000358033
0.000205403 0.000124575 0.00036471
0.000206495 0.000130396 0.000367732
0.000208374 0.00013744 0.000367237
0.000210801 0.000145568 0.000363448
0.000213504 0.000154603 0.000356674
0.000216202 0.000164334 0.000347296
0.000218618 0.000174513 0.000335759
0.00022049 0.00018486 0.00032256
0.000221578 0.000195071 0.000308233
0.000221674 0.000204825 0.000293329
0.000220614 0.000213788 0.000278404
0.00021827 0.000221626 0.000263994
0.000214546 0.000228021 0.0002506
0.000209368 0.00023268 0.000238667
0.000202676 0.000235347 0.000228569
0.000194422 0.000235815 0.000220596
0.000184579 0.000233927 0.000214938
0.00017315 0.00022958 0.000211688
0.000160173 0.00022273 0.00021083
0.000145722 0.000213389 0.000212242
0.000129907 0.000201628 0.000215699
0.000112864 0.000187574 0.000220873
9.5663e-05 0.000171249 0.000227391
7.79387e-05 0.000152743 0.000234926
5.90849e-05 0.000133115 0.00024235
3.97408e-05 0.000112019 0.00024958
2.0081e-05 9.01283e-05 0.000255676
4.38863e-07 6.76402e-05 0.00026013
-1.89692e-05 4.49464e-05 0.000262272
-3.78026e-05 2.23996e-05 0.000261517
-5.56578e-05 2.73863e-07 0.000257336
-7.24253e-05 -2.12627e-05 0.000249101
-8.77894e-05 -4.17376e-05 0.000236536
-0.00010159 -6.08832e-05 0.000219342
-0.000113682 -7.8414e-05 0.00019737
-0.000124002 -9.41313e-05 0.000170519
-0.000132499 -0.000107902 0.000138863
-0.000139189 -0.00011963 0.000102568
-0.000144142 -0.000129269 6.19337e-05
-0.000147474 -0.00013683 1.73842e-05
-0.000149338 -0.000142411 -3.13327e-05
-0.000149952 -0.000146075 -8.2793e-05
-0.000149562 -0.000148 -0.000136261
-0.000148455 -0.000148376 -0.000190869
-0.000146939 -0.000147443 -0.000245753
-0.000145339 -0.000145468 -0.000300003
-0.000143972 -0.000142751 -0.000352676
-0.000143133 -0.000139608 -0.000402818
-0.000143073 -0.000136369 -0.000449499
-0.000144047 -0.000133354 -0.000491851
-0.000146234 -0.000130888 -0.00053493
-0.00014999 -0.000128379 -0.00108447
-0.000155531 -0.00012583 -0.00164979
-0.000162134 -0.000126438 -0.00197513
-0.000170507 -0.000127968 -0.00222337
-0.000180334 -0.00013172 -0.00234099
-0.000191617 -0.000137496 -0.00234564
-0.00020443 -0.000144789 -0.00233724
-0.000218641 -0.000153776 -0.00232221
-0.000234195 -0.00016425 -0.00230135
-0.00025099 -0.000176021 -0.00227506
-0.000268854 -0.000188877 -0.00224401
-0.000287588 -0.000202545 -0.00220903
-0.000306946 -0.000216758 -0.00217101
-0.000326669 -0.000231214 -0.00213092
-0.000346467 -0.000245601 -0.00208968
-0.000366033 -0.000259607 -0.00204824
-0.000385042 -0.000272939 -0.00200757
-0.000403169 -0.000285325 -0.00196861
-0.000420099 -0.00029652 -0.00193223
-0.00043881 -0.0003063 -0.00189923
-0.000853733 -0.000311588 -0.00187163
-0.00153769 -0.000310545 -0.0018514
-0.00191719 -0.000313731 -0.00183242
-0.00226212 -0.000314015 -0.00181893
-0.0025632 -0.000312909 -0.00179148
-0.00270595 -0.000312397 -0.00177411
-0.00271002 -0.000311884 -0.00177351
-0.00270761 -0.000309211 -0.00177918
-0.00270271 -0.000305178 -0.0017905
-0.00269611 -0.00029994 -0.00180661
-0.00268793 -0.000293389 -0.00182752
-0.00267834 -0.000285877 -0.00185231
-0.00266761 -0.000277541 -0.00188054
-0.00265603 -0.000268635 -0.00191146
-0.00264389 -0.000259367 -0.00194437
-0.0026315 -0.000249998 -0.00197848
-0.00261916 -0.000240783 -0.00201301
-0.00260719 -0.000231958 -0.00204718
-0.00259589 -0.000223756 -0.00208021
-0.00258554 -0.000216401 -0.0021114
-0.00257638 -0.000210095 -0.00214006
-0.00256865 -0.000205006 -0.0021656
-0.00256254 -0.000201279 -0.00218751
-0.00255819 -0.000199026 -0.00220536
-0.00255571 -0.000198324 -0.00221885
-0.00255506 -0.00019923 -0.00222777
-0.00255547 -0.000201911 -0.00223197
-0.00255702 -0.000206307 -0.00223152
-0.00255964 -0.000212279 -0.00222684
-0.00256325 -0.000219687 -0.00221818
-0.00256775 -0.000228317 -0.00220593
-0.00257301 -0.000237932 -0.00219055
-0.00257886 -0.000248262 -0.00217256
-0.00258513 -0.000259015 -0.00215257
-0.00259159 -0.000269892 -0.00213119
-0.00259803 -0.000280588 -0.00210908
-0.00260421 -0.000290802 -0.00208688
-0.00260991 -0.000300245 -0.00206524
-0.0026149 -0.000308644 -0.00204476
-0.00261901 -0.000315754 -0.00202598
-0.00262206 -0.000321358 -0.0020094
-0.00262392 -0.000325273 -0.00199543
-0.00262453 -0.00032736 -0.00198439
-0.00262381 -0.000327524 -0.00197651
-0.00262177 -0.000325719 -0.0019719
-0.0026184 -0.000321956 -0.00197058
-0.00261371 -0.0003163 -0.00197245
-0.0026077 -0.00030887 -0.00197732
-0.00260042 -0.000299833 -0.00198488
-0.0025919 -0.000289396 -0.00199477
-0.00258222 -0.000277792 -0.00200654
-0.00257151 -0.000265274 -0.00201968
-0.0025599 -0.000252112 -0.00203365
-0.00254755 -0.000238578 -0.00204789
-0.00253461 -0.000224947 -0.00206183
-0.00252126 -0.000211483 -0.0020749
-0.00250764 -0.000198439 -0.00208657
-0.00249388 -0.00018604 -0.00209635
-0.00248014 -0.000174479 -0.00210379
-0.00246658 -0.000163907 -0.00210853
-0.00245341 -0.000154423 -0.00211028
-0.00244083 -0.000146081 -0.00210885
-0.00242905 -0.000138894 -0.0021041
-0.00241826 -0.000132839 -0.00209601
-0.00240855 -0.000127869 -0.00208463
-0.0024 -0.000123915 -0.00207008
-0.00239257 -0.000120891 -0.00205256
-0.00238621 -0.000118695 -0.00203232
-0.00238082 -0.000117206 -0.00200968
-0.00237624 -0.000116294 -0.00198503
-0.00237232 -0.000115817 -0.00195878
-0.00236885 -0.000115626 -0.00193136
-0.00236566 -0.000115564 -0.00190325
-0.00236254 -0.000115471 -0.00187494
-0.00235929 -0.000115191 -0.0018469
-0.00235571 -0.000114576 -0.00181959
-0.00235155 -0.000113548 -0.00174852
-0.00234657 -0.000112147 -0.00165522
-0.00234065 -0.000109866 -0.00157136
-0.00233357 -0.000106844 -0.00149491
-0.00232627 -0.000102739 -0.00142809
-0.00232175 -9.62817e-05 -0.0013735
-0.00231449 -8.99282e-05 -0.00132729
-0.00230659 -8.2056e-05 -0.0012919
-0.0022974 -7.34614e-05 -0.00126694
-0.00228719 -6.39773e-05 -0.00125138
-0.00227605 -5.37321e-05 -0.00124533
-0.00222395 -4.32125e-05 -0.00124558
-0.00215393 -3.26395e-05 -0.0012477
-0.00208216 -2.11656e-05 -0.00125188
-0.00200804 -9.77102e-06 -0.0012572
-0.00193336 1.89565e-06 -0.00126372
-0.0018589 1.34115e-05 -0.00127097
-0.00178518 2.48344e-05 -0.00127854
-0.0017131 3.59595e-05 -0.00128607
-0.00164345 4.66548e-05 -0.00129319
-0.00157702 5.6792e-05 -0.00129958
-0.00151446 6.62328e-05 -0.0013049
-0.00145639 7.48699e-05 -0.00130888
-0.00140333 8.26102e-05 -0.00131127
-0.00135566 8.93751e-05 -0.0013119
-0.00131358 9.51046e-05 -0.00131061
-0.00127722 9.97652e-05 -0.00130733
-0.00124656 0.000103348 -0.00130202
-0.00122147 0.000105867 -0.00129474
-0.00120169 0.000107357 -0.00128556
-0.00118681 0.00010788 -0.00127463
-0.00117629 0.000107517 -0.00126216
-0.00116945 0.000106366 -0.00124862
-0.00116544 0.000104474 -0.00120424
-0.00116335 0.000101962 -0.00114525
-0.00116256 9.91357e-05 -0.00108524
-0.00116187 9.60149e-05 -0.00102474
-0.00116056 9.28429e-05 -0.000965493
-0.00115767 8.97535e-05 -0.000908645
-0.00115235 8.69228e-05 -0.00085551
-0.00114376 8.45106e-05 -0.000807289
-0.00113115 8.26657e-05 -0.000765051
-0.00111392 8.15315e-05 -0.000729759
-0.00109165 8.12359e-05 -0.000702191
-0.0010641 8.1894e-05 -0.000682941
-0.00103127 8.36e-05 -0.000672391
-0.000993308 8.64229e-05 -0.000670427
-0.000950479 9.03914e-05 -0.000672353
-0.000903159 9.5503e-05 -0.000676489
-0.000851852 0.000101742 -0.000682686
-0.000797098 0.000109042 -0.000690708
-0.000739517 0.000117314 -0.000700273
-0.000679758 0.000126434 -0.00071104
-0.000618487 0.000136251 -0.000722627
-0.000556381 0.000146592 -0.000734617
-0.000494342 0.000157279 -0.000746576
-0.000434278 0.000168184 -0.000758087
-0.000376005 0.000179041 -0.000768681
-0.000320034 0.000189645 -0.00077792
-0.000266742 0.000199792 -0.000785409
-0.000216605 0.000209295 -0.000790779
-0.000170119 0.000217998 -0.000793728
-0.000127748 0.000225768 -0.000794008
-9.06725e-05 0.000232547 -0.000791461
-6.32997e-05 0.000238384 -0.000785987
-4.23184e-05 0.000243243 -0.000777688
-2.83437e-05 0.000246863 -0.000766306
-2.12762e-05 0.000249447 -0.000752199
-2.0397e-05 0.000250892 -0.000735376
-2.14816e-05 0.000251271 -0.000716156
-2.36309e-05 0.000250621 -0.000694792
-2.67317e-05 0.00024906 -0.000672072
-3.06303e-05 0.000246543 -0.000586023
-3.51933e-05 0.000243301 -0.000490239
-4.03491e-05 0.000239633 -0.000392532
-4.58794e-05 0.000235527 -0.000294684
-5.16911e-05 0.00023126 -0.000198901
-5.76036e-05 0.000226928 -0.000106741
-6.34757e-05 0.000222707 -2.00371e-05
-6.91547e-05 0.000218727 5.96086e-05
-7.45086e-05 0.000215114 0.000130692
-7.95036e-05 0.00021199 0.000191857
-8.44975e-05 0.000209539 0.000241858
-8.94637e-05 0.000207838 0.000279752
-9.4437e-05 0.000206904 0.00030504
-9.94535e-05 0.000206744 0.000317329
-0.000104534 0.000207301 0.000318008
-0.00010967 0.000208455 0.000314399
-0.000114833 0.000210068 0.000307588
-0.000120012 0.000211982 0.000297808
-0.000125217 0.000214007 0.000285337
-0.000130492 0.000215951 0.000270493
-0.0001359 0.000217611 0.00025363
-0.000141515 0.000218787 0.000235125
-0.000147402 0.000219277 0.000215368
-0.000153638 0.000218893 0.000194743
-0.000160317 0.00021747 0.00017362
-0.000167546 0.000214865 0.000152344
-0.000175421 0.000210963 0.000131226
-0.000184004 0.000205671 0.000110539
-0.000193322 0.000198922 9.05106e-05
-0.000203369 0.000190678 7.13172e-05
-0.000214121 0.000180939 5.30771e-05
-0.000225545 0.000169739 3.58504e-05
-0.000237609 0.000157156 1.9638e-05
-0.000250289 0.000143302 4.38391e-06
-0.000263563 0.000128328 -1.002e-05
-0.000277405 0.000112408 -2.37261e-05
-0.000291778 9.57393e-05 -3.69224e-05
-0.000306623 7.85297e-05 -4.98218e-05
-0.000321856 6.09913e-05 -6.26523e-05
-0.000337366 4.3334e-05 -7.56462e-05
-0.000353025 2.57617e-05 -8.90322e-05
-0.0003687 8.46964e-06 -0.000103026
-0.00038975 -8.50019e-06 -0.000117867
-0.000465294 -2.44178e-05 -0.000133985
-0.000537431 -3.96341e-05 -0.000151254
-0.000607487 -5.40523e-05 -0.0001863
-0.000660168 -6.80089e-05 -0.000257557
-0.000711721 -8.0953e-05 -0.000330178
-0.000756582 -9.26419e-05 -0.000408837
-0.000796714 -0.00010325 -0.000490471
-0.000831611 -0.000112524 -0.00057654
-0.000861416 -0.000120537 -0.000665461
-0.000886219 -0.000127244 -0.00075698
-0.000906358 -0.00013267 -0.000850133
-0.000922309 -0.000136851 -0.000943997
-0.000934647 -0.00013984 -0.00103745
-0.000944006 -0.000141718 -0.00112929
-0.000951125 -0.000142578 -0.00121823
-0.000956791 -0.000142537 -0.00130295
-0.000961804 -0.000141725 -0.00138208
-0.000966955 -0.000140286 -0.00145426
-0.000973025 -0.00013837 -0.00151818
-0.000980775 -0.000136136 -0.00157258
-0.000990926 -0.000133745 -0.00161632
-0.00100413 -0.000131356 -0.0016484
-0.00102091 -0.000129121 -0.00166796
-0.0010417 -0.00012719 -0.00167435
-0.00106676 -0.000125687 -0.00167219
-0.00109625 -0.000124709 -0.00166619
-0.00113015 -0.00012437 -0.00165632
-0.00116837 -0.000124739 -0.00164268
-0.00121075 -0.000125867 -0.00162546
-0.00125701 -0.000127772 -0.00160488
-0.00130684 -0.000130446 -0.0015813
-0.00135987 -0.000133851 -0.00155508
-0.00141569 -0.000137925 -0.0015267
-0.00147382 -0.000142583 -0.00149665
-0.0015337 -0.000147723 -0.00146547
-0.00159471 -0.000153234 -0.00143374
-0.00165615 -0.000158995 -0.00140205
-0.0017173 -0.000164881 -0.001371
-0.00177739 -0.000170771 -0.00134116
-0.00183569 -0.000176545 -0.0013131
-0.00189141 -0.000182163 -0.00124702
-0.00194379 -0.000187572 -0.00117597
-0.00199265 -0.000192431 -0.00111564
-0.00203718 -0.00019685 -0.00106588
-0.00207716 -0.000200674 -0.00102807
-0.00211227 -0.000203909 -0.0010027
-0.00214238 -0.000206529 -0.000990262
-0.00216746 -0.000208542 -0.000989697
-0.00218756 -0.000210004 -0.000994253
-0.00220288 -0.000210962 -0.00100299
-0.00221369 -0.000211484 -0.00101573
-0.00222034 -0.000211665 -0.00103225
-0.0022233 -0.000211605 -0.00105225
-0.00222347 -0.000211421 -0.00107541
-0.00222294 -0.000211171 -0.00112689
-0.00222208 -0.000210969 -0.00119101
-0.00222099 -0.000211066 -0.00125919
-0.00221988 -0.000211495 -0.00133057
-0.00221884 -0.00021245 -0.00140394
-0.00221612 -0.000214346 -0.00147811
-0.00221322 -0.000217263 -0.00155188
-0.00221124 -0.000220613 -0.00162502
-0.00220988 -0.000224858 -0.00169617
-0.00220935 -0.000229842 -0.0017647
-0.0022097 -0.000235635 -0.00182987
-0.00221094 -0.000242231 -0.00189099
-0.00221311 -0.000249591 -0.0019476
-0.00221619 -0.000257686 -0.00199928
-0.00222014 -0.000266411 -0.00204578
-0.00222861 -0.000275713 -0.00208689
-0.00225744 -0.000285302 -0.00212272
-0.0022879 -0.000295335 -0.00215318
-0.0023214 -0.00030565 -0.00217816
-0.00235541 -0.0003162 -0.00219811
-0.00238996 -0.000326831 -0.00221312
-0.00242421 -0.000337382 -0.00222378
-0.00245732 -0.000347724 -0.0022304
-0.00248852 -0.000357693 -0.00223354
-0.00251715 -0.000367123 -0.00223385
-0.00254272 -0.000375838 -0.00223287
-0.00256482 -0.00038367 -0.00223106
-0.00258312 -0.000390461 -0.00222868
-0.00259737 -0.000396064 -0.00222595
-0.00260738 -0.000400352 -0.00222307
-0.00261308 -0.000403221 -0.00222019
-0.0026145 -0.000404589 -0.00221744
-0.00261388 -0.000404386 -0.00221491
-0.00261245 -0.000402576 -0.00221265
-0.00261024 -0.000399187 -0.00221063
-0.00260732 -0.000394264 -0.00220879
-0.00260372 -0.000387902 -0.00220701
-0.00259947 -0.000380232 -0.00220515
-0.00259456 -0.000371417 -0.00220299
-0.00258898 -0.000361643 -0.00220033
-0.00258273 -0.000351109 -0.00219693
-0.00257584 -0.000340016 -0.00219255
-0.00256836 -0.000328558 -0.00218697
-0.00256038 -0.000316922 -0.00217996
-0.002552 -0.000305277 -0.00217135
-0.0025433 -0.000293783 -0.00216097
-0.00253438 -0.000282579 -0.0021487
-0.00252529 -0.000271783 -0.00213447
-0.0025161 -0.000261494 -0.00211824
-0.00250684 -0.000251785 -0.00210003
-0.00249753 -0.000242703 -0.00207992
-0.00248817 -0.00023427 -0.00205803
-0.00247874 -0.000226481 -0.00203453
-0.00246921 -0.000219304 -0.00200963
-0.00245954 -0.000212685 -0.00198361
-0.00244968 -0.000206544 -0.00195676
-0.00243957 -0.000200786 -0.00192941
-0.00242916 -0.000195295 -0.0019019
-0.00241839 -0.000189944 -0.0018746
-0.00240724 -0.000184593 -0.00184787
-0.00239272 -0.00017769 -0.0018158
-0.00237755 -0.000170296 -0.00178584
-0.00236173 -0.000162165 -0.00175855
-0.00234521 -0.00015319 -0.00168924
-0.00232789 -0.000143255 -0.00161335
-0.00230971 -0.000132137 -0.00155106
-0.00229053 -0.000119908 -0.00150229
-0.00227035 -0.000106601 -0.00146673
-0.0022492 -9.23093e-05 -0.00144363
-0.00222716 -7.71739e-05 -0.00143179
-0.0022085 -6.05135e-05 -0.00142981
-0.0021788 -4.31365e-05 -0.00143187
-0.00207507 -2.6914e-05 -0.00143444
-0.0019767 -1.05885e-05 -0.00143812
-0.00187783 4.81983e-06 -0.00144168
-0.00178131 1.93545e-05 -0.00144498
-0.00168852 3.29242e-05 -0.00144717
-0.00160038 4.53108e-05 -0.00144786
-0.00151813 5.63917e-05 -0.00144665
-0.0014426 6.61114e-05 -0.00144329
-0.00137436 7.44239e-05 -0.00143758
-0.00131375 8.13363e-05 -0.00142968
-0.00126076 8.68543e-05 -0.00139202
-0.00121505 9.11253e-05 -0.00134532
-0.00117592 9.42488e-05 -0.00129108
-0.00114247 9.63992e-05 -0.00123066
-0.00111364 9.77502e-05 -0.00116552
-0.00108831 9.85183e-05 -0.00109728
-0.0010653 9.89287e-05 -0.00102776
-0.00104344 9.9216e-05 -0.000958835
-0.00102155 9.9611e-05 -0.000892351
-0.000998485 0.000100335 -0.00083008
-0.000973162 0.000101585 -0.000773608
-0.000944593 0.000103532 -0.000724308
-0.000911927 0.000106315 -0.000683268
-0.000874467 0.000110033 -0.000651245
-0.000831719 0.00011475 -0.00062865
-0.000783495 0.000120492 -0.000615535
-0.000729977 0.000127254 -0.000611594
-0.000671676 0.000134991 -0.000612875
-0.000609357 0.000143616 -0.000616158
-0.000544015 0.000153027 -0.000621107
-0.000476762 0.000163075 -0.000627282
-0.000408805 0.000173586 -0.0006342
-0.000341334 0.000184355 -0.000641328
-0.000275443 0.00019516 -0.000648118
-0.000212078 0.000205761 -0.000654024
-0.000152041 0.000215923 -0.000658529
-9.60423e-05 0.000225426 -0.000661168
-4.472e-05 0.000234081 -0.000661552
1.36694e-06 0.000241738 -0.000659384
4.17232e-05 0.000248294 -0.000654474
7.59392e-05 0.000253699 -0.000646748
0.000103767 0.000257949 -0.000636246
0.000125145 0.000261086 -0.000623122
0.000140218 0.000263175 -0.000600037
0.000149423 0.000264207 -0.000533873
0.00015296 0.000264537 -0.000463451
0.000152785 0.000264199 -0.000388364
0.000151755 0.000263402 -0.000310972
0.000150093 0.000262315 -0.000233141
0.000147384 0.000261215 -0.00015698
0.000143617 0.000260379 -8.46785e-05
0.000140314 0.00025944 -1.71713e-05
0.000137313 0.000258738 4.33386e-05
0.000133814 0.000258442 9.56966e-05
0.000129427 0.000258763 0.000138232
0.000124252 0.000259604 0.000170564
0.000118324 0.000260889 0.000192243
0.000111688 0.00026246 0.000203368
0.000104394 0.000264106 0.000204879
9.65146e-05 0.000265559 0.000202544
8.81315e-05 0.000266543 0.000197898
7.9327e-05 0.000266771 0.000191242
7.0153e-05 0.000265977 0.000182869
6.06112e-05 0.000263928 0.00017307
5.06346e-05 0.00026045 0.000162106
4.00817e-05 0.000255427 0.000150189
2.87726e-05 0.000248806 0.000137482
1.65468e-05 0.000240576 0.000124098
3.30823e-06 0.000230763 0.0001101
-1.09619e-05 0.000219419 9.5506e-05
-2.62381e-05 0.00020663 8.02864e-05
-4.24878e-05 0.000192519 6.43681e-05
-5.96733e-05 0.000177242 4.76423e-05
-7.77461e-05 0.000160975 2.9976e-05
-9.66523e-05 0.000143913 1.12236e-05
-0.000116351 0.000126258 -8.76176e-06
-0.000136831 0.00010822 -3.0115e-05
-0.000158093 8.99954e-05 -5.29443e-05
-0.000180095 7.1751e-05 -7.7314e-05
-0.000202716 5.36052e-05 -0.000103232
-0.000225771 3.56318e-05 -0.00013065
-0.000277998 1.69382e-05 -0.000159217
-0.000361171 -1.51121e-06 -0.000189077
-0.00044016 -1.99169e-05 -0.00022033
-0.000517431 -3.74991e-05 -0.000261827
-0.000590582 -5.42246e-05 -0.000380074
-0.0006593 -7.01997e-05 -0.000498374
-0.000722887 -8.51708e-05 -0.000619822
-0.000780942 -9.92103e-05 -0.00074145
-0.000833307 -0.000112199 -0.000863006
-0.000879961 -0.000124122 -0.000982811
-0.000921139 -0.00013494 -0.00109982
-0.000957242 -0.000144639 -0.00121249
-0.000988731 -0.000153209 -0.00131948
-0.00101611 -0.000160661 -0.00141935
-0.00103997 -0.000167018 -0.00151072
-0.00106101 -0.000172307 -0.00159225
-0.00108001 -0.000176566 -0.00166268
-0.00109774 -0.000179844 -0.00172088
-0.00111489 -0.000182207 -0.00176587
-0.001132 -0.000183732 -0.0017968
-0.00114936 -0.000184513 -0.00181301
-0.00116722 -0.000184646 -0.00181503
-0.00118583 -0.000184193 -0.00181084
-0.0012055 -0.000183232 -0.00180223
-0.00122651 -0.000181828 -0.00178937
-0.00124899 -0.000180044 -0.00177244
-0.00127285 -0.000177941 -0.00175174
-0.00129774 -0.00017558 -0.00172762
-0.0013232 -0.00017301 -0.00170053
-0.0013487 -0.00017027 -0.00167096
-0.00137362 -0.000167388 -0.00163945
-0.00139725 -0.000164378 -0.00160661
-0.00141882 -0.000161245 -0.00157305
-0.00143756 -0.000157982 -0.00153941
-0.0014527 -0.000154569 -0.00150634
-0.00146324 -0.000150992 -0.00147447
-0.00146552 -0.000147385 -0.00144434
-0.0014643 -0.000143575 -0.00141074
-0.0014615 -0.000139637 -0.00132981
-0.00145739 -0.000135165 -0.00126095
-0.00145213 -0.00013018 -0.00120349
-0.00144592 -0.00012454 -0.00115878
-0.00143891 -0.000118268 -0.00112702
-0.00143122 -0.000111383 -0.00110831
-0.00142292 -0.000103988 -0.00110217
-0.00141405 -9.62276e-05 -0.00110399
-0.00140467 -8.82973e-05 -0.00110908
-0.00139487 -8.03785e-05 -0.00111704
-0.0013848 -7.26688e-05 -0.00112739
-0.00137462 -6.53575e-05 -0.0011396
-0.00136454 -5.86292e-05 -0.00115312
-0.00135471 -5.26578e-05 -0.0011674
-0.00134527 -4.75981e-05 -0.0011819
-0.00133633 -4.3568e-05 -0.00120438
-0.00132794 -4.06499e-05 -0.00123273
-0.00132007 -3.89592e-05 -0.00125878
-0.00131264 -3.84956e-05 -0.00128189
-0.0013055 -3.92445e-05 -0.00130167
-0.00129849 -4.1124e-05 -0.00131786
-0.00129141 -4.3991e-05 -0.00133046
-0.00128409 -4.76405e-05 -0.00133963
-0.00127634 -5.18137e-05 -0.00134571
-0.00126796 -5.6208e-05 -0.00134918
-0.00125987 -6.0322e-05 -0.00135065
-0.00125617 -6.25813e-05 -0.00135194
-0.00125071 -6.46894e-05 -0.00135166
-0.00123705 -6.57989e-05 -0.00135121
-0.00121126 -6.5984e-05 -0.00135038
-0.00118196 -6.48106e-05 -0.00134958
-0.0011491 -6.22149e-05 -0.00134875
-0.0011127 -5.80481e-05 -0.00134797
-0.00107278 -5.22644e-05 -0.00134716
-0.00102941 -4.48569e-05 -0.00134619
-0.000982704 -3.58666e-05 -0.00134488
-0.000932916 -2.53827e-05 -0.00134298
-0.000880465 -1.35485e-05 -0.00134019
-0.00082592 -4.97498e-07 -0.00133623
-0.000769959 1.34232e-05 -0.00133078
-0.000713046 2.81465e-05 -0.00132339
-0.000655889 4.34756e-05 -0.00131379
-0.000599053 5.91839e-05 -0.00130162
-0.00054311 7.50458e-05 -0.00128669
-0.000488617 9.08277e-05 -0.00125335
-0.000436062 0.000106241 -0.00118975
-0.000386135 0.000121303 -0.00111673
-0.000339143 0.000135774 -0.00103412
-0.000295561 0.000149594 -0.000942349
-0.000255699 0.000162676 -0.000842078
-0.000219814 0.000174982 -0.000734275
-0.000188006 0.000186492 -0.000620133
-0.000160198 0.000197202 -0.000501093
-0.000136145 0.000207126 -0.000378757
-0.000115484 0.000216291 -0.000254879
-9.77712e-05 0.000224734 -0.000131325
-8.25428e-05 0.000232506 -1.00223e-05
-6.93615e-05 0.000239668 0.000107086
-5.78315e-05 0.000246286 0.000218098
-4.75797e-05 0.000252421 0.0003212
-3.82359e-05 0.000258128 0.000414723
-2.94232e-05 0.000263442 0.000497185
-2.05139e-05 0.00026802 0.000625718
-1.0903e-05 0.000271517 0.000986776
-1.54873e-06 0.000275382 0.00123031
8.86005e-06 0.000278628 0.00142434
1.96442e-05 0.000281782 0.00153607
3.11346e-05 0.000284523 0.00157179
4.30157e-05 0.000286874 0.00156886
5.52015e-05 0.00028858 0.00156206
6.7071e-05 0.000289704 0.00155134
7.80941e-05 0.000290179 0.00153708
8.75131e-05 0.000289989 0.0015196
9.37069e-05 0.000289152 0.00149929
9.62428e-05 0.000287582 0.00147658
9.58599e-05 0.000285184 0.00145199
9.43578e-05 0.000281828 0.00142606
9.17872e-05 0.000277414 0.00139929
8.81882e-05 0.000271843 0.00137219
8.35968e-05 0.000265059 0.00134521
7.80385e-05 0.000257042 0.00131875
7.15202e-05 0.000247815 0.00129315
6.40232e-05 0.000237448 0.00126867
5.55031e-05 0.000226059 0.00124547
4.58957e-05 0.000213805 0.00122369
3.51172e-05 0.000200873 0.00120335
2.30818e-05 0.00018747 0.00118444
9.75322e-06 0.000173794 0.00116691
-4.81019e-06 0.000160019 0.00115067
-2.04633e-05 0.000146289 0.00113564
-3.70094e-05 0.000132721 0.00112171
-5.42305e-05 0.00011941 0.00110877
-7.19054e-05 0.000106431 0.00109671
-8.98193e-05 9.38462e-05 0.0010854
-0.000107772 8.17011e-05 0.00107475
-0.000125586 7.00325e-05 0.00106465
-0.00014312 5.88701e-05 0.00105499
-0.000160285 4.82418e-05 0.00104569
-0.000177058 3.81946e-05 0.00102372
-0.000193474 2.88439e-05 0.000978685
-0.000209501 2.00069e-05 0.000934873
-0.00022512 1.17626e-05 0.00089147
-0.00024019 4.00581e-06 0.0008484
-0.000264872 -3.39342e-06 0.000805612
-0.000325026 -1.03674e-05 0.000762242
-0.000364823 -1.82656e-05 0.000723298
-0.000403319 -2.50282e-05 0.000680826
-0.000437832 -3.15296e-05 0.000640456
-0.000467866 -3.74109e-05 0.000598546
-0.000493301 -4.26902e-05 0.000556622
-0.000514015 -4.73014e-05 0.000514139
-0.000530112 -5.12175e-05 0.000471422
-0.000541775 -5.4382e-05 0.000428614
-0.000549322 -5.67682e-05 0.000386088
-0.000553121 -5.83615e-05 0.000344352
-0.000553743 -5.91592e-05 0.000303981
-0.000553256 -5.91662e-05 0.000265709
-0.00055225 -5.84286e-05 0.000230368
-0.000550786 -5.70136e-05 0.000198934
-0.000548922 -5.50033e-05 0.00017239
-0.000546716 -5.24884e-05 0.000151752
-0.000544236 -4.95622e-05 0.000137976
-0.000541549 -4.63179e-05 0.000131943
-0.000538594 -4.28645e-05 0.000132352
-0.000535359 -3.92855e-05 0.000134769
-0.000532056 -3.56054e-05 0.000139096
-0.000528908 -3.1837e-05 0.00014534
-0.000526093 -2.79944e-05 0.000153475
-0.000523706 -2.41023e-05 0.000163438
-0.00052177 -2.0197e-05 0.000175132
-0.000520233 -1.63258e-05 0.000188425
-0.000518987 -1.25465e-05 0.000203151
-0.00051791 -8.89819e-06 0.0002191
-0.000516901 -5.4066e-06 0.000236044
-0.000515912 -2.06763e-06 0.000253702
-0.00051491 1.12624e-06 0.000271776
-0.000513862 4.10142e-06 0.00030953
-0.000512766 7.01094e-06 0.00034948
-0.000511651 9.88949e-06 0.000388457
-0.000510569 1.27967e-05 0.000425492
-0.000509589 1.57642e-05 0.000460096
-0.000508803 1.88283e-05 0.00049166
-0.000508298 2.19977e-05 0.000519754
-0.000508175 2.52648e-05 0.000544018
-0.000508536 2.85904e-05 0.000564218
-0.000509493 3.19028e-05 0.00058026
-0.000511138 3.51078e-05 0.000592153
-0.000513576 3.80856e-05 0.000600018
-0.000515702 4.04843e-05 0.000604147
-0.000516558 4.17611e-05 0.000605414
-0.000518238 4.26011e-05 0.000604288
-0.000520403 4.25642e-05 0.000601895
-0.000523102 4.16864e-05 0.000598181
-0.000526273 3.9864e-05 0.000593298
-0.000529888 3.70553e-05 0.000587321
-0.000533897 3.32325e-05 0.00058031
-0.000538222 2.84013e-05 0.000572314
-0.000542776 2.25953e-05 0.000563353
-0.000547454 1.58811e-05 0.000553426
-0.000552106 8.38042e-06 0.000542498
-0.000566104 1.9002e-07 0.000530538
-0.00058317 -8.74915e-06 0.000517465
-0.000596319 -1.81289e-05 0.000503341
-0.000605387 -2.77338e-05 0.000488002
-0.000610505 -3.72571e-05 0.000471739
-0.000611988 -4.62504e-05 0.000401365
-0.00061158 -5.46065e-05 0.000318157
-0.000610557 -6.20205e-05 0.000228438
-0.000608972 -6.83438e-05 0.000133885
-0.000606874 -7.33948e-05 3.48508e-05
-0.000604289 -7.71077e-05 -6.73389e-05
-0.000601266 -7.94437e-05 -0.000171255
-0.000597893 -8.04223e-05 -0.000275056
-0.000594298 -8.01062e-05 -0.000376668
-0.000590616 -7.86086e-05 -0.000473834
-0.000586955 -7.60921e-05 -0.000564121
-0.000583397 -7.27565e-05 -0.00064505
-0.000580015 -6.8823e-05 -0.000714173
-0.00057689 -6.4519e-05 -0.000769218
-0.000574109 -6.00637e-05 -0.000808162
-0.000571761 -5.56568e-05 -0.000829325
-0.000569922 -5.14713e-05 -0.000832506
-0.000568638 -4.76133e-05 -0.000828282
-0.000567909 -4.41896e-05 -0.000819401
-0.000567696 -4.1266e-05 -0.000805968
-0.000567933 -3.88633e-05 -0.000788193
-0.000568553 -3.69486e-05 -0.00076643
-0.000569493 -3.54418e-05 -0.000741153
-0.00057069 -3.42206e-05 -0.000712945
-0.000572059 -3.3136e-05 -0.000682466
-0.000573474 -3.20267e-05 -0.000650437
-0.000574792 -3.07259e-05 -0.000617609
-0.000575877 -2.9067e-05 -0.00057873
-0.00057657 -2.71633e-05 -0.000467304
-0.000576842 -2.44928e-05 -0.00036166
-0.000576545 -2.11209e-05 -0.000261855
-0.000575558 -1.68963e-05 -0.000170685
-0.000573715 -1.18568e-05 -8.92995e-05
-0.000571097 -5.96487e-06 -1.8885e-05
-0.000567597 6.58438e-07 3.96691e-05
-0.0005632 7.91331e-06 8.6423e-05
-0.000558033 1.57454e-05 0.000121033
-0.000552338 2.39967e-05 0.000144035
-0.000545095 3.25042e-05 0.000156125
-0.000531545 4.10315e-05 0.000158468
-0.000517139 4.93317e-05 0.00015653
-0.000502963 5.71793e-05 0.00015252
-0.000489423 6.44326e-05 0.000146762
-0.000477012 7.08643e-05 0.00013974
-0.000466086 7.62691e-05 0.000131865
-0.000457006 8.04799e-05 0.000123539
-0.000450084 8.33513e-05 0.000115129
-0.000445584 8.47767e-05 0.000106942
-0.000443693 8.46865e-05 9.92198e-05
-0.000444037 8.30475e-05 9.21332e-05
-0.000445558 7.98445e-05 8.57858e-05
-0.000448013 7.50963e-05 8.02014e-05
-0.000451254 6.89009e-05 7.53045e-05
-0.00045511 6.13982e-05 7.09476e-05
-0.000459425 5.2787e-05 6.69055e-05
-0.000464766 4.3476e-05 6.28374e-05
-0.000470343 3.35411e-05 5.8514e-05
-0.000476039 2.33089e-05 5.35839e-05
-0.000481707 1.30201e-05 4.7759e-05
-0.0004872 2.96087e-06 4.07223e-05
-0.00050209 -6.66593e-06 3.21836e-05
-0.000524489 -1.54356e-05 2.19038e-05
-0.000544535 -2.34127e-05 9.96513e-06
-0.000562426 -3.03113e-05 -3.77415e-06
-0.000579042 -3.598e-05 -1.92475e-05
-0.000594671 -4.03159e-05 -6.47081e-05
-0.000609905 -4.32873e-05 -0.000133631
-0.000625026 -4.50993e-05 -0.000205899
-0.00062772 -4.65e-05 -0.000279444
-0.000630489 -4.6982e-05 -0.000353055
-0.00063274 -4.67855e-05 -0.00042554
-0.000636025 -4.59503e-05 -0.000494933
-0.000641114 -4.47698e-05 -0.000559112
-0.000648528 -4.34239e-05 -0.000616557
-0.000658764 -4.21692e-05 -0.000665295
-0.000672043 -4.1232e-05 -0.000703949
-0.000688509 -4.08304e-05 -0.000731151
-0.000708107 -4.11449e-05 -0.000746047
-0.000730651 -4.23183e-05 -0.000748582
-0.000755948 -4.44103e-05 -0.000745601
-0.000783816 -4.74309e-05 -0.00073926
-0.000813982 -5.13367e-05 -0.000729827
-0.000846045 -5.60292e-05 -0.000717659
-0.000879447 -6.13627e-05 -0.000703231
-0.000912584 -6.72001e-05 -0.000687081
-0.000943783 -7.33866e-05 -0.000669795
-0.000973167 -7.95932e-05 -0.000652093
-0.00100071 -8.55308e-05 -0.00063465
-0.00102642 -9.09001e-05 -0.000618151
-0.00105033 -9.54318e-05 -0.000603218
-0.00107252 -9.89019e-05 -0.000590393
-0.00109303 -0.000101154 -0.000571289
-0.00111176 -0.000102159 -0.000544847
-0.00112875 -0.000101806 -0.000529248
-0.00113959 -0.000100411 -0.000523928
-0.00114 -9.84457e-05 -0.000525111
-0.00113975 -9.53022e-05 -0.000529186
-0.00113866 -9.15067e-05 -0.000535459
-0.00113709 -8.70778e-05 -0.000554445
-0.00113518 -8.22933e-05 -0.00058579
-0.00113312 -7.74343e-05 -0.000620707
-0.00113108 -7.27503e-05 -0.000657764
-0.00112925 -6.85076e-05 -0.000695378
-0.00112782 -6.49468e-05 -0.000732068
-0.00112696 -6.22852e-05 -0.000766445
-0.00112685 -6.07054e-05 -0.000797313
-0.0011276 -6.03464e-05 -0.000823702
-0.00112931 -6.13023e-05 -0.000844917
-0.00113205 -6.36193e-05 -0.000860554
-0.00113576 -6.72784e-05 -0.000870532
-0.0011413 -7.21919e-05 -0.000875098
-0.00116799 -7.81398e-05 -0.000875295
-0.00119808 -8.51833e-05 -0.000873808
-0.00123152 -9.30558e-05 -0.000871246
-0.00126598 -0.000101706 -0.000867921
-0.00129991 -0.000110908 -0.000864284
-0.00133197 -0.000120441 -0.000860765
-0.00136102 -0.000130035 -0.000857843
-0.00138621 -0.0001394 -0.000855987
-0.00140703 -0.000148234 -0.000855638
-0.00142299 -0.00015625 -0.000857182
-0.00143347 -0.000163204 -0.000860918
-0.0014377 -0.000168904 -0.000867046
-0.0014371 -0.000173182 -0.000875495
-0.00143489 -0.000175825 -0.000908709
-0.00143099 -0.000176874 -0.000949227
-0.00142536 -0.000176287 -0.000996289
-0.00141794 -0.000174144 -0.00104857
-0.00140878 -0.000170516 -0.00110477
-0.00139799 -0.000165519 -0.00116327
-0.00138575 -0.000159278 -0.00122226
-0.00137231 -0.000151933 -0.00127982
-0.00135795 -0.000143641 -0.00133395
-0.00134294 -0.000134572 -0.00138263
-0.00132756 -0.000124894 -0.00142389
-0.00131213 -0.000114774 -0.00145588
-0.00129696 -0.000104366 -0.00147692
-0.00128231 -9.38241e-05 -0.00148555
-0.00126839 -8.32928e-05 -0.00148388
-0.00125531 -7.28876e-05 -0.00147734
-0.00122464 -6.28729e-05 -0.00146577
-0.00118503 -5.34138e-05 -0.00144902
-0.00115878 -4.34442e-05 -0.00142784
-0.00113475 -3.42569e-05 -0.00140167
-0.00111484 -2.53493e-05 -0.00137129
-0.00109856 -1.69982e-05 -0.00133685
-0.00108557 -9.1179e-06 -0.00129907
-0.00107554 -1.69844e-06 -0.00125849
-0.00106782 5.29177e-06 -0.00121588
-0.00106143 1.15947e-05 -0.00105959
-0.00105549 1.75143e-05 -0.000873497
-0.00104941 2.33109e-05 -0.000686766
-0.00104199 2.90228e-05 -0.000504691
-0.00103244 3.47293e-05 -0.000329342
-0.00102019 4.05842e-05 -0.000164334
-0.00100475 4.66841e-05 -1.21075e-05
-0.000985851 5.31489e-05 0.000124723
-0.000963379 6.00671e-05 0.00024402
-0.00093732 6.75032e-05 0.000344209
-0.00090778 7.549e-05 0.000424123
-0.000874986 8.40189e-05 0.000483203
-0.000839272 9.30376e-05 0.00052141
-0.000800994 0.00010245 0.000539261
-0.000760479 0.000112113 0.000540126
-0.000718025 0.000121809 0.000535578
-0.000674032 0.00013135 0.000527342
-0.000628988 0.000140525 0.000515975
-0.000583482 0.000149138 0.000502062
-0.000538108 0.000156996 0.000486229
-0.000493435 0.000163925 0.000469103
-0.000450049 0.000169785 0.000451298
-0.000408612 0.000174478 0.000433388
-0.00036983 0.000177955 0.000415893
-0.000334365 0.000180206 0.000399266
-0.000302756 0.000181262 0.00038389
-0.000275345 0.000181181 0.00037007
-0.000252179 0.000180045 0.000358032
-0.000232992 0.000177953 0.000347927
-0.000217285 0.000175028 0.000339825
-0.000204433 0.000171416 0.000333715
-0.000193763 0.000167297 0.000329513
-0.000184635 0.000162878 0.000327068
-0.000176492 0.000158389 0.000326172
-0.000168849 0.000154076 0.000326579
-0.000161261 0.000150186 0.000328024
-0.000153312 0.000146952 0.000330235
-0.000144646 0.00014459 0.000332961
-0.000134993 0.000143283 0.000335976
-0.000124197 0.000143178 0.000339103
-0.000112222 0.00014438 0.000342218
-9.91357e-05 0.000146941 0.00034526
-8.51062e-05 0.000150858 0.000348239
-7.06215e-05 0.000156088 0.000351229
-5.86755e-05 0.000162705 0.000354298
-4.95796e-05 0.000170497 0.000357675
-4.35513e-05 0.000179201 0.000361645
-4.05677e-05 0.000188473 0.00036654
-4.03746e-05 0.000197944 0.000372696
-4.13207e-05 0.000207224 0.000380443
-4.32566e-05 0.000215957 0.000390051
-4.62974e-05 0.000223808 0.000401726
-5.05911e-05 0.000230493 0.00041558
-5.63235e-05 0.000235778 0.000431622
-6.3703e-05 0.000239488 0.000449746
-7.29233e-05 0.0002415 0.000469735
-8.41468e-05 0.000241738 0.000491261
-9.74966e-05 0.000240168 0.000513898
-0.000113027 0.000236788 0.000536912
-0.000130665 0.000231434 0.000620844
-0.000150287 0.000224311 0.000717237
-0.000171672 0.000215472 0.000809282
-0.000194522 0.000205008 0.000893016
-0.000218532 0.000192974 0.000965826
-0.000243432 0.000179519 0.00102455
-0.000268988 0.00016478 0.00106645
-0.000295011 0.000148931 0.00108864
-0.000321296 0.000132134 0.00109067
-0.000340367 0.000112739 0.00108549
-0.000384748 9.33984e-05 0.00107371
-0.000478589 7.43426e-05 0.00105504
-0.000566017 5.48648e-05 0.00102978
-0.00064919 3.57751e-05 0.000997472
-0.000726858 1.69253e-05 0.000958544
-0.000798733 -1.50917e-06 0.00091316
-0.000864805 -1.9635e-05 0.000861737
-0.000924797 -3.72771e-05 0.000804992
-0.000979063 -5.43697e-05 0.000743713
-0.00102823 -7.09249e-05 0.000678806
-0.0010733 -8.67322e-05 0.000476321
-0.00111599 -0.000101488 0.000155796
-0.00115596 -0.000116228 -0.000165296
-0.00119602 -0.000130503 -0.00048488
-0.00123686 -0.000144587 -0.00079814
-0.00128001 -0.000158541 -0.00110023
-0.00132669 -0.000172461 -0.00138713
-0.00137789 -0.000186456 -0.00165428
-0.00143444 -0.000200599 -0.00189829
-0.00149688 -0.000214974 -0.00211569
-0.00156571 -0.000229626 -0.00230414
-0.0016417 -0.000244004 -0.00269513
-0.00172564 -0.000257626 -0.0032694
-0.00181374 -0.000272737 -0.00364352
-0.00190857 -0.000287667 -0.0039322
-0.00200719 -0.000303215 -0.00409139
-0.00210969 -0.00031879 -0.00414268
-0.00221469 -0.000334355 -0.00413904
-0.00232166 -0.000349422 -0.0041308
-0.00242919 -0.000363952 -0.00411822
-0.00244284 -0.000324932 -0.00401533
-0.00248053 -0.000307125 -0.00401805
-0.00256963 -0.000331712 -0.00398845
-0.00269134 -0.000348298 -0.00396694
-0.00317662 -0.000360096 -0.00393763
-0.0044002 -0.00036368 -0.00391716
-0.00543486 -0.000376645 -0.00389623
-0.00663076 -0.000386208 -0.00388132
-0.00772336 -0.00039574 -0.00386785
-0.00859469 -0.000407271 -0.00385893
-0.00962105 -0.000418156 -0.00385781
-0.0105842 -0.000429393 -0.00386132
-0.0112376 -0.00043098 -0.00387527
-0.0118657 -0.000438074 -0.00389056
-0.0125738 -0.000542232 -0.00391302
-0.0131463 -0.00101201 -0.00393146
-0.0136587 -0.00170483 -0.00394993
-0.0296544 -0.00194313 -0.00401446
-0.0363791 -0.00189521 -0.00412686
-0.0362942 -0.00194301 -0.00409696
-0.0352573 -0.00195845 -0.00452723
-0.0355212 -0.0019592 -0.00549123
-0.0357609 -0.00199674 -0.0062269
-0.0360582 -0.00245126 -0.00645677
-0.036209 -0.00361958 -0.00651054
-0.0364662 -0.00469895 -0.00653251
-0.0366803 -0.00608632 -0.00653642
-0.0372795 -0.00684332 -0.00664084
-0.0381427 -0.00694386 -0.00736823
-0.0388714 -0.00743708 -0.00790957
-0.0395722 -0.0084347 -0.00816851
-0.0401993 -0.00919039 -0.00854135
-0.0408969 -0.00964664 -0.00916385
-0.0415293 -0.0102848 -0.00974577
-0.0421092 -0.011151 -0.0102368
-0.0426975 -0.0119407 -0.0108344
-0.0435656 -0.0125906 -0.0115977
-0.0443171 -0.0132515 -0.0124464
-0.0448836 -0.0140609 -0.013279
-0.045445 -0.0148723 -0.0141581
-0.045913 -0.0155843 -0.0152032
-0.0462871 -0.0163102 -0.0162975
-0.0465475 -0.0170066 -0.0174892
-0.0467218 -0.0191794 -0.0187454
-0.0465233 -0.036277 -0.0187136
-0.0462377 -0.0379769 -0.0188618
-0.0463273 -0.0379843 -0.0189134
-0.0463402 -0.0380627 -0.0198795
-0.0463439 -0.0381597 -0.021841
-0.0463501 -0.038337 -0.023354
-0.0463609 -0.0390673 -0.0250825
-0.0463606 -0.0401282 -0.0264107
-0.0463869 -0.0409358 -0.0280677
-0.0464013 -0.0418844 -0.0297639
-0.0464358 -0.042651 -0.0408439
-0.0465406 -0.0426981 -0.0453429
-0.0465317 -0.0442543 -0.0466815
-0.0465393 -0.0449577 -0.0485145
-0.0465447 -0.0458667 -0.0503549
-0.0465449 -0.0469882 -0.0518573
-0.0465666 -0.0478487 -0.0537267
-0.0465744 -0.0488508 -0.055431
-0.0465871 -0.0498361 -0.0571284
-0.0466041 -0.0507615 -0.0588681
-0.0466152 -0.051744 -0.0605416
-0.0466304 -0.0526915 -0.0622259
-0.0466488 -0.053659 -0.063866
-0.0466606 -0.0547467 -0.0653748
-0.046677 -0.0557658 -0.0668841
-0.0466942 -0.0567236 -0.0683997
-0.0467075 -0.0577247 -0.0698247
-0.0467213 -0.058691 -0.0712073
-0.0468046 -0.0595975 -0.0725686
-0.0469486 -0.0604555 -0.0728197
-0.0471118 -0.0610259 -0.0727744
-0.0473299 -0.061644 -0.0727981
-0.0473265 -0.0628819 -0.0728386
-0.047327 -0.063667 -0.0735592
-0.0473276 -0.0642275 -0.0749825
-0.0473254 -0.0650157 -0.0759627
-0.0473234 -0.0657195 -0.0770288
-0.04732 -0.0662219 -0.0782731
-0.0473163 -0.0667713 -0.0794093
-0.0473121 -0.0673159 -0.0804051
-0.0473084 -0.0677441 -0.0813896
-0.0473045 -0.0681484 -0.0823516
-0.0473006 -0.0685447 -0.0832534
-0.0472966 -0.0688588 -0.0840991
-0.0472922 -0.069114 -0.0848618
-0.0472875 -0.0693361 -0.0855467
-0.0472826 -0.0694926 -0.0861892
-0.0472776 -0.069587 -0.0867643
-0.0472723 -0.0696354 -0.0872369
-0.0472668 -0.069637 -0.08762
-0.0472609 -0.0696354 -0.0879007
-0.0472548 -0.0696322 -0.088076
-0.0472497 -0.0696288 -0.0881338
-0.0472446 -0.0696247 -0.0881333
-0.0471495 -0.06962 -0.0881283
-0.0469019 -0.0696161 -0.0881187
-0.0467221 -0.0696107 -0.0881053
-0.0465485 -0.0696039 -0.0880892
-0.0463547 -0.0695972 -0.0880685
-0.0461889 -0.0695889 -0.0880449
-0.0460175 -0.0695801 -0.0878991
-0.0458465 -0.0695722 -0.087208
-0.0456698 -0.0695637 -0.0864623
-0.0454987 -0.0695538 -0.0857207
-0.0453211 -0.0694548 -0.085017
-0.0451716 -0.0690353 -0.0843742
-0.0450701 -0.068556 -0.0837699
-0.0448907 -0.0681748 -0.0829953
-0.0447176 -0.0677701 -0.0821872
-0.0445692 -0.0672904 -0.0813895
-0.0443922 -0.0668325 -0.0805265
-0.0441952 -0.0663833 -0.0796044
-0.0440023 -0.0658941 -0.0786727
-0.0437965 -0.0653918 -0.0777091
-0.0435687 -0.0648917 -0.076701
-0.0433315 -0.0643707 -0.0756736
-0.0430839 -0.0638279 -0.0746326
-0.0428188 -0.0632744 -0.0735706
-0.0425406 -0.0627037 -0.0724951
-0.0422528 -0.0621095 -0.0714143
-0.0419522 -0.0614952 -0.0703282
-0.0416419 -0.0608598 -0.0692405
-0.0413267 -0.0601978 -0.068159
-0.0410098 -0.0595089 -0.0670858
-0.0406942 -0.0587932 -0.066022
-0.0403841 -0.0580486 -0.0649708
-0.0400827 -0.0572754 -0.0639337
-0.0397913 -0.0564757 -0.0629105
-0.0395121 -0.055651 -0.0619009
-0.0392483 -0.0548033 -0.0609039
-0.0390012 -0.0539369 -0.0599163
-0.0387717 -0.0530557 -0.058935
-0.0385604 -0.0521636 -0.0579573
-0.0383665 -0.0512669 -0.0569787
-0.0381886 -0.0503726 -0.0559938
-0.0380254 -0.0494863 -0.0549981
-0.0378757 -0.0486141 -0.0539872
-0.0377381 -0.0477622 -0.0529567
-0.0376117 -0.0469361 -0.0519032
-0.0374955 -0.0461409 -0.0508241
-0.0373886 -0.0453807 -0.0497176
-0.0372902 -0.0446594 -0.0485825
-0.0372001 -0.0439798 -0.0474192
-0.0371215 -0.0433448 -0.0462288
-0.0370503 -0.042753 -0.0450146
-0.0369883 -0.0422052 -0.0437813
-0.0369362 -0.0417004 -0.0425327
-0.0368939 -0.0412371 -0.0412755
-0.0368624 -0.0408135 -0.0400159
-0.0368418 -0.0404273 -0.0387613
-0.0368318 -0.0400759 -0.0375193
-0.0368305 -0.0397567 -0.0362981
-0.0368307 -0.0394677 -0.0351053
-0.0368311 -0.0392074 -0.0339482
-0.0368317 -0.0389712 -0.0328361
-0.0368323 -0.0387555 -0.0317779
-0.0368331 -0.0385576 -0.030781
-0.0368339 -0.0383742 -0.0298534
-0.0368347 -0.0382025 -0.0290021
-0.0368355 -0.0380404 -0.0282331
-0.0368363 -0.0378858 -0.0275522
-0.0368371 -0.0377369 -0.026964
-0.0368377 -0.0375932 -0.0264719
-0.036838 -0.0374543 -0.0260785
-0.0368382 -0.0373201 -0.0257853
-0.036838 -0.0371912 -0.0255928
-0.0368374 -0.0370688 -0.0255005
-0.0368365 -0.0369545 -0.0254931
-0.036835 -0.0368548 -0.0254998
-0.0368328 -0.0367798 -0.0255117
-0.0368269 -0.0367236 -0.0255285
-0.0367278 -0.0366986 -0.0255496
-0.0365831 -0.0367 -0.0255741
-0.0364416 -0.0367012 -0.0256036
-0.0362709 -0.0367041 -0.0256365
-0.0360883 -0.0367079 -0.0256728
-0.0358962 -0.0367128 -0.0257122
-0.0356917 -0.0367189 -0.025754
-0.0354817 -0.0367258 -0.0257981
-0.0352661 -0.0367337 -0.0258441
-0.035047 -0.0367419 -0.0261246
-0.0348361 -0.0367475 -0.0271035
-0.0346232 -0.0367547 -0.0279719
-0.0343847 -0.0367623 -0.0288501
-0.0341631 -0.0367695 -0.0297825
-0.0339334 -0.0367776 -0.0307111
-0.0337028 -0.0367856 -0.0316544
-0.0334781 -0.0367937 -0.0326021
-0.0332516 -0.0368018 -0.0335493
-0.0330315 -0.0368098 -0.0345041
-0.0328164 -0.0368176 -0.0354671
-0.032605 -0.0368252 -0.0364316
-0.0323965 -0.0368325 -0.0373929
-0.0321879 -0.0368395 -0.0383459
-0.0319773 -0.0368462 -0.0392891
-0.0317627 -0.0368525 -0.0402218
-0.0315416 -0.0368585 -0.0411404
-0.0313122 -0.0368642 -0.0420403
-0.0310728 -0.0368695 -0.0429166
-0.0308231 -0.0368744 -0.0437654
-0.0305633 -0.0368788 -0.0445852
-0.0302985 -0.0368828 -0.0453739
-0.0301142 -0.0368849 -0.0461375
-0.0299333 -0.0368862 -0.0468828
-0.0296975 -0.0368882 -0.0475616
-0.0294875 -0.0368888 -0.0481967
-0.0292707 -0.036889 -0.0487959
-0.0290365 -0.036889 -0.0493269
-0.0288104 -0.036888 -0.0498082
-0.0285802 -0.0368865 -0.0502299
-0.0283473 -0.0368847 -0.0505851
-0.0281289 -0.036883 -0.0508782
-0.0279331 -0.0368819 -0.051078
-0.0277263 -0.0368796 -0.0512178
-0.0275313 -0.036877 -0.0512884
-0.0273502 -0.0368738 -0.0512919
-0.0271886 -0.0368697 -0.0512876
-0.0270477 -0.0368648 -0.0512794
-0.0269258 -0.0368592 -0.0512673
-0.0268255 -0.0368528 -0.0512512
-0.0267456 -0.036846 -0.0509648
-0.0266822 -0.0368398 -0.0504669
-0.0266412 -0.0368322 -0.0500308
-0.026627 -0.0368247 -0.0495207
-0.0266262 -0.0368168 -0.0489529
-0.0266271 -0.0368086 -0.0483257
-0.0266286 -0.0368004 -0.0476327
-0.0266307 -0.0367919 -0.0468834
-0.0266333 -0.0367835 -0.0460794
-0.0266366 -0.0367754 -0.0452209
-0.0266405 -0.0367673 -0.0443127
-0.0266448 -0.0367595 -0.0433571
-0.0266497 -0.0367519 -0.0423589
-0.0266549 -0.0367446 -0.0413249
-0.0266604 -0.0367374 -0.0402609
-0.0266662 -0.0367305 -0.039174
-0.0266719 -0.0367237 -0.03807
-0.0266776 -0.0367171 -0.0369553
-0.0266833 -0.0367106 -0.0358374
-0.0266888 -0.0367042 -0.0347225
-0.0266944 -0.0366924 -0.0336172
-0.0267004 -0.0365219 -0.0325432
-0.0267072 -0.0362665 -0.0315535
-0.0267129 -0.0360698 -0.0305476
-0.0267187 -0.0358763 -0.0295662
-0.0267245 -0.0356532 -0.0286581
-0.0267299 -0.0354438 -0.0277805
-0.0267349 -0.035238 -0.026949
-0.0267397 -0.0350185 -0.0261834
-0.0267441 -0.0348016 -0.0254741
-0.0267482 -0.0345864 -0.0248243
-0.0267519 -0.034366 -0.0242437
-0.0267552 -0.0341464 -0.0237295
-0.0267581 -0.0339298 -0.0232816
-0.0267607 -0.0337146 -0.0229037
-0.0267628 -0.0335044 -0.0225939
-0.0267645 -0.0333019 -0.0223507
-0.0267659 -0.0331078 -0.0221739
-0.0267669 -0.032925 -0.0220612
-0.0267677 -0.0327567 -0.0220097
-0.0267681 -0.0326058 -0.0220071
-0.0267683 -0.0324758 -0.0220113
-0.0267681 -0.0323736 -0.0220188
-0.0267673 -0.0322981 -0.0220292
-0.0267651 -0.0322643 -0.022042
-0.0267633 -0.0322613 -0.0220571
-0.0267618 -0.032262 -0.022075
-0.0267605 -0.0322638 -0.0220952
-0.0267596 -0.0322667 -0.0221175
-0.026759 -0.0322708 -0.0221417
-0.0267586 -0.0322761 -0.0221675
-0.0267582 -0.0322826 -0.0221946
-0.0267585 -0.0322897 -0.0222226
-0.026759 -0.0322971 -0.0222507
-0.0267595 -0.0323052 -0.0222792
-0.0267604 -0.0323139 -0.0223159
-0.0267617 -0.0323222 -0.0227996
-0.0267632 -0.0323309 -0.0233788
-0.0267645 -0.0323408 -0.0239203
-0.0267659 -0.0323506 -0.0245068
-0.0267673 -0.032361 -0.0250977
-0.0267685 -0.0323716 -0.0257011
-0.0267697 -0.0323822 -0.0263218
-0.0267707 -0.0323929 -0.0269562
-0.0267716 -0.0324034 -0.0276132
-0.0267723 -0.0324136 -0.0282945
-0.0267726 -0.0324235 -0.0289997
-0.0267727 -0.0324329 -0.029728
-0.0267724 -0.0324418 -0.0304784
-0.0267716 -0.03245 -0.0312517
-0.0267705 -0.0324577 -0.0320484
-0.0267688 -0.0324646 -0.032867
-0.0267668 -0.0324707 -0.0337045
-0.0267643 -0.0324762 -0.0345569
-0.0267613 -0.0324808 -0.0354208
-0.0267579 -0.0324847 -0.0362929
-0.0267542 -0.0324879 -0.0371689
-0.0267501 -0.0324903 -0.0380439
-0.0267458 -0.032492 -0.0389121
-0.0267414 -0.0324932 -0.0397665
-0.0267367 -0.0324937 -0.040601
-0.026732 -0.0324936 -0.0414093
-0.0267275 -0.032493 -0.0421837
-0.026723 -0.0324921 -0.0429181
-0.0267188 -0.0324909 -0.0436085
-0.0267149 -0.0324897 -0.0442488
-0.0267112 -0.0324883 -0.0448294
-0.0267078 -0.032487 -0.0453462
-0.0267046 -0.0324857 -0.045793
-0.0267017 -0.0324845 -0.0461656
-0.0266991 -0.0324836 -0.0464609
-0.0266967 -0.0324828 -0.0466756
-0.0266947 -0.0324823 -0.046808
-0.026693 -0.0324821 -0.0468571
-0.0266918 -0.032482 -0.0468542
-0.0266912 -0.0324818 -0.0468474
-0.0266916 -0.0324815 -0.0468363
-0.0266923 -0.0324811 -0.0468211
-0.0266935 -0.0324807 -0.0465882
-0.0266948 -0.0324811 -0.0461712
-0.0266968 -0.0324808 -0.0457784
-0.0266991 -0.0324805 -0.0453306
-0.0267018 -0.03248 -0.0448369
-0.0267048 -0.0324792 -0.0443056
-0.026708 -0.032478 -0.0437354
-0.0267116 -0.0324763 -0.0431377
-0.0267155 -0.0324742 -0.0425177
-0.0267196 -0.0324715 -0.0418784
-0.0267238 -0.0324683 -0.0412239
-0.0267281 -0.0324645 -0.0405581
-0.0267321 -0.0324601 -0.0398863
-0.0267359 -0.032455 -0.039214
-0.0267394 -0.0324494 -0.038544
-0.0267426 -0.0324432 -0.0378779
-0.0267456 -0.0324367 -0.0372169
-0.0267482 -0.0324297 -0.0365635
-0.0267505 -0.0324223 -0.0359202
-0.0267525 -0.0324147 -0.035289
-0.0267541 -0.0324068 -0.0346712
-0.0267554 -0.0323988 -0.0340678
-0.0267563 -0.0323906 -0.0334801
-0.026757 -0.0323824 -0.0329091
-0.0267574 -0.0323741 -0.0323561
-0.0267576 -0.032366 -0.031822
-0.0267575 -0.0323579 -0.0313074
-0.0267574 -0.03235 -0.0308127
-0.0267571 -0.0323423 -0.0303385
-0.0267568 -0.032335 -0.0298849
-0.0267564 -0.0323279 -0.0294525
-0.0267559 -0.0323213 -0.0290421
-0.0267554 -0.0323151 -0.0286536
-0.0267548 -0.0323094 -0.0282876
-0.0267542 -0.0323041 -0.0279447
-0.0267535 -0.0322995 -0.0276254
-0.0267528 -0.0322953 -0.0273307
-0.0267522 -0.0322918 -0.0270614
-0.0267515 -0.0322888 -0.0268185
-0.0267509 -0.0322864 -0.0266028
-0.0267503 -0.0322845 -0.0264153
-0.0267498 -0.0322832 -0.026257
-0.0267495 -0.0322824 -0.026129
-0.0267493 -0.0322822 -0.0260323
-0.0267493 -0.0322825 -0.0259681
-0.0267495 -0.0322833 -0.0259386
-0.02675 -0.0322847 -0.0259374
-0.0267507 -0.0322866 -0.0259403
-0.0267516 -0.0322891 -0.0259455
-0.0267525 -0.0322921 -0.0259529
-0.0267535 -0.0322956 -0.0259624
-0.0267544 -0.0322993 -0.0259738
-0.0267551 -0.0323032 -0.025987
-0.0267558 -0.0323074 -0.0260019
-0.0267562 -0.0323121 -0.0260186
-0.0267565 -0.0323171 -0.0260369
-0.0267566 -0.0323225 -0.0260567
-0.0267565 -0.0323282 -0.0260779
-0.0267563 -0.0323342 -0.0261003
-0.0267558 -0.0323405 -0.0261237
-0.0267553 -0.032347 -0.0261482
-0.0267548 -0.0323535 -0.0261874
-0.0267544 -0.0323592 -0.0266343
-0.0267542 -0.0323646 -0.0271483
-0.0267537 -0.0323707 -0.0276335
-0.0267534 -0.0323762 -0.0281636
-0.0267532 -0.0323819 -0.0286971
-0.0267529 -0.0323874 -0.0292401
-0.0267528 -0.0323926 -0.0297922
-0.0267528 -0.0323978 -0.030347
-0.0267531 -0.0324027 -0.0309098
-0.0267535 -0.0324073 -0.0314783
-0.0267541 -0.0324118 -0.0320492
-0.0267551 -0.0324161 -0.0326183
-0.0267563 -0.0324202 -0.0331819
-0.0267578 -0.0324242 -0.0337382
-0.0267596 -0.032428 -0.0342853
-0.0267615 -0.0324318 -0.034821
-0.0267636 -0.0324354 -0.0353427
-0.0267659 -0.032439 -0.0358457
-0.0267684 -0.0324427 -0.0363256
-0.0267711 -0.0324464 -0.0367804
-0.026774 -0.0324503 -0.037208
-0.026777 -0.0324544 -0.0376063
-0.0267801 -0.0324586 -0.0379727
-0.0267834 -0.032463 -0.0383056
-0.0267868 -0.0324677 -0.0386043
-0.0267904 -0.0324725 -0.0388686
-0.0267942 -0.0324774 -0.0390987
-0.0267982 -0.0324826 -0.0392948
-0.0268023 -0.0324878 -0.0394578
-0.0268066 -0.0324931 -0.0395885
-0.0268109 -0.0325523 -0.0396874
-0.0268141 -0.0327882 -0.0397135
-0.0269094 -0.0330285 -0.0397125
-0.0271008 -0.0331674 -0.0397135
-0.0272591 -0.0333282 -0.0397118
-0.0273968 -0.033534 -0.0397078
-0.0275541 -0.0336943 -0.0397044
-0.0277193 -0.0338376 -0.0397004
-0.0278657 -0.033997 -0.039695
-0.0280118 -0.0341431 -0.0396754
-0.0281606 -0.0342701 -0.0395683
-0.0282959 -0.0344009 -0.0394548
-0.0284249 -0.0345178 -0.0393434
-0.0285535 -0.0346145 -0.0392581
-0.0286721 -0.0347011 -0.0391772
-0.0287822 -0.0347758 -0.0391008
-0.028886 -0.034832 -0.0390338
-0.0289805 -0.0348728 -0.0389749
-0.0290621 -0.0349017 -0.0389228
-0.0291307 -0.0349169 -0.0388797
-0.0291857 -0.034919 -0.0388463
-0.0292243 -0.0349186 -0.0388197
-0.0292433 -0.0349179 -0.0387962
-0.0292461 -0.0349169 -0.0387785
-0.0292455 -0.0349155 -0.0387659
-0.0292445 -0.0349139 -0.0387608
-0.0292431 -0.0348914 -0.0387612
-0.0292415 -0.0348253 -0.0387626
-0.0292395 -0.0347595 -0.0387639
-0.0292371 -0.0346922 -0.0387651
-0.029214 -0.0346126 -0.0387668
-0.029119 -0.0345433 -0.0387678
-0.0290272 -0.0344761 -0.0387685
-0.0289314 -0.0343863 -0.0387697
-0.0288269 -0.0343023 -0.0387702
-0.0287149 -0.0342155 -0.0387704
-0.0286017 -0.0341189 -0.0387707
-0.0284832 -0.0340209 -0.0387705
-0.0283614 -0.0339202 -0.03877
-0.0282393 -0.0338129 -0.0387692
-0.0281158 -0.0337023 -0.038768
-0.0279913 -0.0335888 -0.0387663
-0.0278671 -0.0334709 -0.0387642
-0.0277431 -0.0333497 -0.0387615
-0.0276203 -0.033226 -0.0387212
-0.0274978 -0.0331026 -0.0386394
-0.0273761 -0.0329767 -0.0385505
-0.0272577 -0.0328461 -0.0384483
-0.0271398 -0.0327153 -0.0383322
-0.0270233 -0.032583 -0.0382017
-0.0269087 -0.0324483 -0.0380581
-0.0267949 -0.0323127 -0.0378998
-0.0266819 -0.0321763 -0.037727
-0.0265698 -0.0320384 -0.0375406
-0.0264582 -0.0318996 -0.0373403
-0.0263474 -0.0317598 -0.0371268
-0.0262372 -0.0316183 -0.0369007
-0.026128 -0.0314749 -0.036663
-0.0260199 -0.0313293 -0.0364145
-0.0259127 -0.0311815 -0.0361561
-0.0258058 -0.0310313 -0.0358886
-0.0256983 -0.0308783 -0.0356131
-0.0255891 -0.030723 -0.0353302
-0.025477 -0.0305656 -0.0350407
-0.0253604 -0.030406 -0.0347457
-0.0252388 -0.030244 -0.0344463
-0.0251116 -0.0300794 -0.0341436
-0.0249791 -0.0299116 -0.0338391
-0.0248416 -0.0297398 -0.0335342
-0.0246996 -0.0295633 -0.0332304
-0.024554 -0.0293814 -0.0329291
-0.0244058 -0.0291931 -0.0326316
-0.0242561 -0.0289978 -0.0323393
-0.0241063 -0.0287949 -0.032053
-0.023957 -0.0285839 -0.0317735
-0.0238093 -0.028365 -0.0315011
-0.0236645 -0.0281378 -0.0312361
-0.0235239 -0.0279027 -0.0309784
-0.0233886 -0.02766 -0.0307277
-0.0232596 -0.0274104 -0.0304831
-0.0231374 -0.0271551 -0.0302435
-0.0230226 -0.0268954 -0.0300076
-0.0229164 -0.0266335 -0.0297734
-0.022818 -0.0263712 -0.0295388
-0.0227255 -0.0261102 -0.0293026
-0.0226389 -0.025853 -0.029062
-0.0225567 -0.0256016 -0.0288155
-0.0224785 -0.0253582 -0.0285609
-0.0224035 -0.0251246 -0.028297
-0.0223315 -0.0249023 -0.0280226
-0.0222623 -0.0246925 -0.027737
-0.0221959 -0.0244962 -0.02744
-0.022132 -0.0243141 -0.0271315
-0.0220704 -0.0241467 -0.0268122
-0.0220111 -0.023994 -0.026483
-0.021954 -0.0238557 -0.0261454
-0.0218991 -0.0237315 -0.0258011
-0.021846 -0.0236208 -0.0254522
-0.0217937 -0.023523 -0.0251011
-0.0217417 -0.023437 -0.0247502
-0.0216897 -0.0233617 -0.0244028
-0.0216379 -0.0232951 -0.024062
-0.0215863 -0.0232357 -0.0237313
-0.021534 -0.0231821 -0.0234139
-0.0214798 -0.0231331 -0.0231126
-0.0214221 -0.0230875 -0.0228304
-0.0213597 -0.0230441 -0.02257
-0.0212911 -0.0230019 -0.0223339
-0.0212156 -0.0229595 -0.0221245
-0.0211324 -0.022916 -0.0219442
-0.0210412 -0.02287 -0.0217946
-0.0209419 -0.0228205 -0.0216776
-0.020835 -0.0227663 -0.0215943
-0.020721 -0.0227065 -0.0215457
-0.0206005 -0.0226404 -0.0215321
-0.0204739 -0.022568 -0.0215339
-0.0203409 -0.022492 -0.0215377
-0.0202025 -0.0224116 -0.0215436
-0.0200606 -0.0223258 -0.0215514
-0.0199159 -0.022236 -0.021561
-0.0197699 -0.0221428 -0.0215721
-0.0196242 -0.0220463 -0.0215845
-0.0194795 -0.0219483 -0.0215979
-0.0193365 -0.0218501 -0.0216119
-0.0191959 -0.021753 -0.0216264
-0.0190599 -0.0216594 -0.0216409
-0.0189275 -0.0215699 -0.0216551
-0.0188 -0.0214859 -0.0216687
-0.0186785 -0.0214088 -0.0216814
-0.0185637 -0.0213396 -0.0216931
-0.018457 -0.0212789 -0.0217033
-0.0183594 -0.0212276 -0.021712
-0.018272 -0.0211859 -0.0217189
-0.0181958 -0.0211541 -0.021724
-0.0181316 -0.0211322 -0.0217272
-0.0180799 -0.0211199 -0.0217285
-0.0180412 -0.0211171 -0.0217277
-0.018016 -0.0211175 -0.0217252
-0.0180059 -0.0211181 -0.021721
-0.0180056 -0.0211192 -0.0217152
-0.0180062 -0.0211206 -0.0217079
-0.0180072 -0.0211223 -0.0216993
-0.0180086 -0.0211242 -0.0216896
-0.0180103 -0.0211263 -0.0216789
-0.0180123 -0.0211285 -0.0216676
-0.0180146 -0.0211307 -0.0216558
-0.0180169 -0.0211328 -0.0216438
-0.0180193 -0.0211348 -0.0216319
-0.0180216 -0.0211365 -0.0216202
-0.0180238 -0.0211379 -0.021609
-0.0180258 -0.021139 -0.0215985
-0.0180276 -0.0211398 -0.021589
-0.0180291 -0.0211401 -0.0215805
-0.0180305 -0.0211401 -0.0215733
-0.0180316 -0.0211397 -0.0215675
-0.0180325 -0.0211388 -0.0215631
-0.0180332 -0.0211376 -0.0215601
-0.0180338 -0.021136 -0.0215586
-0.0180342 -0.0211341 -0.0215585
-0.0180346 -0.0211318 -0.0215598
-0.0180349 -0.0211293 -0.0215622
-0.0180353 -0.0211269 -0.0215658
-0.0180357 -0.0211243 -0.0215705
-0.0180363 -0.0211218 -0.0215759
-0.018037 -0.0211194 -0.0215819
-0.018038 -0.0211167 -0.0215881
-0.0180394 -0.0210689 -0.0215948
-0.0180414 -0.0210019 -0.0216022
-0.0180434 -0.0209629 -0.0216084
-0.0180459 -0.0209303 -0.0216142
-0.0180489 -0.0209058 -0.0216195
-0.0180522 -0.0209012 -0.0216236
-0.0180561 -0.0209017 -0.0216269
-0.0180604 -0.0209027 -0.0216295
-0.0180651 -0.0209046 -0.0216311
-0.0180703 -0.0209071 -0.0216319
-0.0180757 -0.0209102 -0.0216316
-0.0180815 -0.0209139 -0.0216305
-0.0180875 -0.0209184 -0.0216286
-0.0180938 -0.0209234 -0.0216259
-0.0181003 -0.020929 -0.0216225
-0.0181069 -0.020935 -0.0216185
-0.0181135 -0.0209415 -0.0216143
-0.0181203 -0.0209484 -0.02161
-0.018127 -0.0209558 -0.021606
-0.0181336 -0.0209635 -0.0216025
-0.0181401 -0.0209715 -0.0215998
-0.0181465 -0.0209796 -0.0215982
-0.0181525 -0.0209877 -0.0215978
-0.0181585 -0.0209959 -0.021599
-0.0181641 -0.021004 -0.021602
-0.0181694 -0.0210119 -0.0216069
-0.0182888 -0.0210192 -0.0216141
-0.0185317 -0.0210247 -0.0216246
-0.0187021 -0.0210313 -0.0216364
-0.0188722 -0.0210371 -0.0216504
-0.019042 -0.0210423 -0.0216669
-0.0191886 -0.0210475 -0.0216849
-0.0193338 -0.0210521 -0.0217051
-0.0194712 -0.0210564 -0.0217268
-0.0195989 -0.0210603 -0.0217498
-0.0197221 -0.0210639 -0.0218477
-0.0198435 -0.0210662 -0.0223596
-0.0199717 -0.021068 -0.0228594
-0.020081 -0.0210704 -0.0233161
-0.0201878 -0.0210721 -0.0238067
-0.0202957 -0.021074 -0.0242912
-0.0203544 -0.0210884 -0.0247712
-0.0203555 -0.0212107 -0.0252118
-0.0203556 -0.0213629 -0.0255997
-0.0203758 -0.0214726 -0.0260184
-0.0204252 -0.0215834 -0.026423
-0.0204591 -0.0217193 -0.0267934
-0.0204982 -0.021869 -0.0271405
-0.0205643 -0.0220115 -0.0274705
-0.0206437 -0.0221578 -0.0277797
-0.0207292 -0.0223223 -0.0280536
-0.0208287 -0.0224964 -0.0282998
-0.0209438 -0.0226734 -0.0285243
-0.0210619 -0.0228643 -0.0287183
-0.0211836 -0.0230725 -0.028877
-0.0213123 -0.0232891 -0.0290084
-0.0214469 -0.0235142 -0.0291148
-0.021584 -0.0237506 -0.0291941
-0.0217278 -0.0239951 -0.02925
-0.0218965 -0.0242354 -0.0292901
-0.0220626 -0.0244747 -0.0293184
-0.0222229 -0.0247285 -0.0293235
-0.0223804 -0.0249831 -0.0293232
-0.0225369 -0.0252313 -0.0293227
-0.0226864 -0.0254791 -0.0293217
-0.0228246 -0.0257256 -0.0293207
-0.0229541 -0.0259651 -0.0293198
-0.023072 -0.026196 -0.0293192
-0.0231749 -0.0264191 -0.0293191
-0.0232621 -0.0266315 -0.0293196
-0.0233323 -0.0268305 -0.0293206
-0.0233826 -0.0270146 -0.0293221
-0.0234122 -0.0271817 -0.029329
-0.0234202 -0.0273298 -0.0294015
-0.0234199 -0.0274521 -0.0295051
-0.0234191 -0.0275483 -0.0296332
-0.0234179 -0.0276176 -0.0297903
-0.0234165 -0.0276599 -0.0299727
-0.0234147 -0.0276757 -0.0301803
-0.0234126 -0.027675 -0.0304121
-0.0234099 -0.0276737 -0.0306566
-0.023407 -0.0276717 -0.0309124
-0.0233996 -0.0276692 -0.0311831
-0.0233179 -0.0276667 -0.0314606
-0.0232327 -0.0276639 -0.0317308
-0.0231555 -0.0275935 -0.0320159
-0.0230887 -0.0274782 -0.0323278
-0.0230169 -0.0273751 -0.0326121
-0.0229476 -0.027268 -0.0328768
-0.0228894 -0.0271478 -0.0331385
-0.0228344 -0.0270318 -0.0333706
-0.0227873 -0.0269187 -0.0335699
-0.0227535 -0.0268036 -0.0337426
-0.0227328 -0.0266946 -0.0338774
-0.0227264 -0.0265936 -0.0339687
-0.0227269 -0.0264996 -0.0340171
-0.0227272 -0.0264204 -0.0340221
-0.0227267 -0.0263678 -0.0340183
-0.0227273 -0.0263186 -0.034012
-0.0227285 -0.026275 -0.034002
-0.0227302 -0.0262529 -0.0338219
-0.0227323 -0.0262516 -0.0335906
-0.0227353 -0.026252 -0.0333492
-0.0227388 -0.0262531 -0.0330737
-0.0228632 -0.0262543 -0.0327725
-0.0231039 -0.0262544 -0.0324629
-0.0233006 -0.0262562 -0.0321216
-0.0235231 -0.0262578 -0.0317508
-0.0237596 -0.0262593 -0.0313773
-0.0239979 -0.0262613 -0.0309833
-0.0242687 -0.026263 -0.0305888
-0.0245421 -0.026265 -0.0301952
-0.0248119 -0.0262671 -0.0297986
-0.0250888 -0.026269 -0.0294128
-0.0253613 -0.0262709 -0.0290383
-0.0256283 -0.0262727 -0.0286785
-0.0258903 -0.0262897 -0.0283396
-0.0261323 -0.0263597 -0.028011
-0.0263501 -0.0264258 -0.027702
-0.0265702 -0.0264316 -0.0274572
-0.0267964 -0.0264313 -0.0272452
-0.0269964 -0.0264457 -0.0270489
-0.0271927 -0.0264486 -0.0268951
-0.0273847 -0.0264363 -0.0267837
-0.02756 -0.0264293 -0.0267034
-0.0277208 -0.0264218 -0.0266556
-0.0278705 -0.0264074 -0.0266468
-0.0279572 -0.0264018 -0.0266486
-0.0279831 -0.0264091 -0.0266519
-0.0280292 -0.0264258 -0.0266577
-0.0280566 -0.0264347 -0.0266659
-0.0280607 -0.0264647 -0.0266754
-0.0280606 -0.026501 -0.0266866
-0.0280605 -0.0265318 -0.0266997
-0.0280603 -0.0265731 -0.0267139
-0.0280601 -0.0266256 -0.026729
-0.0280602 -0.0266939 -0.0267448
-0.0280602 -0.0267928 -0.0267564
-0.0280609 -0.02688 -0.0269925
-0.0280931 -0.0269416 -0.0273199
-0.0281608 -0.027031 -0.027623
-0.0282142 -0.0271498 -0.0279251
-0.0282882 -0.0272813 -0.0282232
-0.0283936 -0.0274162 -0.0285222
-0.0285103 -0.0275686 -0.0288127
-0.0286426 -0.0277517 -0.0290824
-0.0287952 -0.0279518 -0.0293427
-0.0289722 -0.0281647 -0.0295991
-0.0291697 -0.028401 -0.0298406
-0.0293758 -0.028665 -0.0300639
-0.0295853 -0.0289589 -0.0302694
-0.0298004 -0.0292806 -0.0304585
-0.0300193 -0.0296273 -0.0306362
-0.0302404 -0.0299995 -0.0308033
-0.0304615 -0.0303961 -0.0309614
-0.0306814 -0.030814 -0.0311144
-0.030897 -0.0312493 -0.0312664
-0.0311002 -0.0316761 -0.031434
-0.0313059 -0.0321095 -0.0316202
-0.0315367 -0.0325612 -0.0318067
-0.0317905 -0.0329925 -0.0320244
-0.0320113 -0.0334221 -0.0322757
-0.03222 -0.0338851 -0.0325236
-0.032404 -0.0343459 -0.032799
-0.0325744 -0.0347913 -0.0331193
-0.0327248 -0.0352376 -0.0334682
-0.0328399 -0.0356881 -0.0338475
-0.0329301 -0.0361298 -0.034266
-0.0329951 -0.0365541 -0.0347312
-0.0330287 -0.0369635 -0.0352413
-0.0330337 -0.0373559 -0.0357967
-0.0330332 -0.0377225 -0.0364025
-0.0330322 -0.0380565 -0.0370619
-0.0330307 -0.038364 -0.0377692
-0.0330286 -0.0386435 -0.0385213
-0.0330261 -0.0388893 -0.0393213
-0.0330234 -0.0391226 -0.0401566
-0.0330199 -0.0393671 -0.0409985
-0.0330162 -0.0395727 -0.0418769
-0.0330123 -0.0397372 -0.0427983
-0.033008 -0.0398931 -0.0437263
-0.0330034 -0.0400354 -0.0446599
-0.0329987 -0.0401494 -0.0456063
-0.0329274 -0.0402484 -0.04655
-0.0327546 -0.0403729 -0.0474632
-0.0326126 -0.0405004 -0.0483374
-0.0324636 -0.0405777 -0.0492205
-0.0323227 -0.0406572 -0.0500705
-0.0321742 -0.0407533 -0.0508602
-0.0320328 -0.0408414 -0.0516135
-0.0319005 -0.0409191 -0.0523236
-0.031772 -0.0410076 -0.0529728
-0.0316507 -0.0411055 -0.0535559
-0.0315408 -0.0412018 -0.0540802
-0.0314415 -0.0412964 -0.0545386
-0.0313509 -0.0413967 -0.0549227
-0.0312716 -0.0414999 -0.0552345
-0.0312045 -0.0416033 -0.055476
-0.0311502 -0.0417095 -0.0556444
-0.0311311 -0.0418117 -0.0557416
-0.0311279 -0.0419012 -0.0557771
-0.0311283 -0.0420023 -0.0557738
-0.0311291 -0.0421016 -0.0557672
-0.0311304 -0.0421871 -0.0557573
-0.0311322 -0.0422689 -0.0557441
-0.0311345 -0.0423427 -0.055728
-0.0311371 -0.0424063 -0.0554411
-0.0311397 -0.0424907 -0.0549858
-0.0311427 -0.0425558 -0.0546092
-0.0311461 -0.0425893 -0.0542129
-0.0311496 -0.0426199 -0.0537939
-0.0311651 -0.042629 -0.0533513
-0.0313177 -0.0426273 -0.0529057
-0.0314769 -0.0426246 -0.052451
-0.0316073 -0.042622 -0.0519705
-0.0317592 -0.0426181 -0.0514894
-0.0319097 -0.042614 -0.0510088
-0.0320635 -0.0426095 -0.0505172
-0.0322205 -0.0426044 -0.0500269
-0.0323764 -0.0425989 -0.0495327
-0.0325338 -0.0425475 -0.0490376
-0.0327208 -0.0423333 -0.0485838
-0.0329332 -0.0421035 -0.0481614
-0.0331096 -0.0419099 -0.0476896
-0.0333008 -0.0416989 -0.0472337
-0.0335092 -0.0414639 -0.0467968
-0.0337078 -0.0412457 -0.0463464
-0.033907 -0.0410324 -0.0458915
-0.0341175 -0.0408123 -0.0454467
-0.0343284 -0.0406025 -0.0449976
-0.0345382 -0.040406 -0.0445423
-0.0347518 -0.0402168 -0.044089
-0.0348834 -0.0400593 -0.043628
-0.0349589 -0.0399695 -0.0431303
-0.0350999 -0.0398568 -0.0426467
-0.0352609 -0.0397266 -0.0422058
-0.0354023 -0.0396468 -0.0417375
-0.035543 -0.0395852 -0.0412726
-0.0357138 -0.0395149 -0.0408383
-0.035888 -0.0394608 -0.0404148
-0.0360525 -0.0394335 -0.0399977
-0.036228 -0.0394149 -0.0396029
-0.0364133 -0.0394044 -0.0392364
-0.0365953 -0.039405 -0.0388919
-0.0367725 -0.039405 -0.0385842
-0.0369452 -0.0394053 -0.0383234
-0.0371139 -0.0394062 -0.0380859
-0.037272 -0.0394073 -0.0378885
-0.0374234 -0.0394087 -0.037726
-0.0375664 -0.0394104 -0.0376049
-0.0377034 -0.0394124 -0.0375284
-0.0378332 -0.0394147 -0.037497
-0.0379551 -0.0394173 -0.0374978
-0.038069 -0.0394203 -0.0375017
-0.0381743 -0.0394237 -0.0375086
-0.0382727 -0.0394274 -0.0375185
-0.0383639 -0.0394313 -0.0375313
-0.038448 -0.0394356 -0.0375469
-0.0385244 -0.0394999 -0.0375649
-0.0385641 -0.0397152 -0.0375827
-0.0385814 -0.0399385 -0.0376031
-0.0386276 -0.0401238 -0.0376271
-0.038653 -0.0403341 -0.0376522
-0.0386614 -0.040575 -0.0377355
-0.0386857 -0.0407732 -0.0382649
-0.0387273 -0.040938 -0.0388227
-0.0387395 -0.0411675 -0.0393627
-0.0387405 -0.0414115 -0.0399219
-0.0387543 -0.0416391 -0.0405212
-0.0387609 -0.0418861 -0.0411293
-0.0387607 -0.0421589 -0.0417313
-0.0387607 -0.0424505 -0.04234
-0.0387604 -0.0427543 -0.0429536
-0.0387607 -0.043064 -0.0435786
-0.0387607 -0.0433802 -0.0442113
-0.0387608 -0.0437112 -0.0448427
-0.0387608 -0.0440529 -0.0454716
-0.0387608 -0.0444005 -0.0461024
-0.0387606 -0.0447563 -0.0467326
-0.0387605 -0.0451207 -0.0473602
-0.0387603 -0.0454909 -0.0479855
-0.0387601 -0.0458664 -0.0486065
-0.0387599 -0.0462469 -0.049222
-0.0387595 -0.0466294 -0.0498337
-0.038759 -0.0470112 -0.0504434
-0.0387583 -0.0473916 -0.0510506
-0.0387575 -0.0477691 -0.0516546
-0.0387564 -0.0481411 -0.0522561
-0.038755 -0.0485054 -0.0528559
-0.0387534 -0.0488599 -0.0534547
-0.0387516 -0.0492028 -0.0540531
-0.0387496 -0.0495318 -0.0546511
-0.0387474 -0.0498449 -0.0552488
-0.038745 -0.0501399 -0.0558462
-0.0387424 -0.0504157 -0.0564428
-0.0387396 -0.0506704 -0.0570382
-0.0387366 -0.0509028 -0.0576315
-0.0387335 -0.0511119 -0.0582212
-0.0387303 -0.0512969 -0.0588053
-0.0387269 -0.0514572 -0.0593822
-0.0387235 -0.0515924 -0.0599493
-0.03872 -0.0517025 -0.0605041
-0.0386275 -0.0517923 -0.0610416
-0.0384829 -0.0518954 -0.0615408
-0.0383685 -0.0519704 -0.0620079
-0.0382479 -0.051988 -0.0624831
-0.0381351 -0.0519966 -0.062916
-0.0380187 -0.051997 -0.0633039
-0.0379103 -0.0519959 -0.0636596
-0.0378052 -0.0519946 -0.0639639
-0.0377093 -0.0519928 -0.0642267
-0.0376238 -0.0519908 -0.0644412
-0.0375468 -0.0519884 -0.0645996
-0.0374816 -0.0519857 -0.0647022
-0.0374291 -0.0519827 -0.0647452
-0.0373915 -0.0519795 -0.0647449
-0.0373721 -0.0519758 -0.0647403
-0.0373699 -0.0519719 -0.0647321
-0.0373706 -0.0519678 -0.0647203
-0.0373719 -0.0519636 -0.064705
-0.0373739 -0.0519398 -0.0646651
-0.0373771 -0.0518079 -0.064266
-0.0373804 -0.051694 -0.0637732
-0.0373839 -0.0515956 -0.0633174
-0.0374578 -0.0514845 -0.0628316
-0.0376309 -0.0513501 -0.0623239
-0.0377868 -0.0512249 -0.0617711
-0.0379524 -0.0511267 -0.0611529
-0.0381297 -0.0510135 -0.0605099
-0.0383162 -0.0509037 -0.0598399
-0.0385005 -0.0508088 -0.0591299
-0.038689 -0.0507146 -0.0583996
-0.0388813 -0.0506174 -0.0576527
-0.0390708 -0.050525 -0.056888
-0.039258 -0.0504336 -0.0561138
-0.0394434 -0.0503386 -0.0553403
-0.0396232 -0.0502418 -0.0545702
-0.0397955 -0.050142 -0.0538079
-0.0399607 -0.050036 -0.0530606
-0.040118 -0.0499232 -0.0523333
-0.0402672 -0.0498026 -0.0516312
-0.0404093 -0.0496719 -0.0509604
-0.040545 -0.0495298 -0.0503252
-0.0406742 -0.0493761 -0.0497286
-0.0407973 -0.0492105 -0.0491738
-0.0409144 -0.049033 -0.0486632
-0.0410257 -0.0488445 -0.0481985
-0.041132 -0.0486458 -0.0477807
-0.0412344 -0.0484379 -0.0474101
-0.0413338 -0.0482227 -0.0470861
-0.0414308 -0.0480022 -0.0468071
-0.041526 -0.0477791 -0.0465715
-0.0416174 -0.0475567 -0.0463767
-0.0416295 -0.0473651 -0.0462102
-0.0416286 -0.0472269 -0.0460419
-0.0416278 -0.0470566 -0.0459306
-0.0416271 -0.0468973 -0.0458619
-0.0416261 -0.0467693 -0.0457961
-0.0416255 -0.0466484 -0.0457663
-0.0416249 -0.0465406 -0.045762
-0.0416244 -0.046459 -0.0457629
-0.0416242 -0.0463982 -0.0457648
-0.0416242 -0.0463604 -0.0457675
-0.0416245 -0.0463495 -0.0457709
-0.0416251 -0.0463501 -0.045775
-0.0416261 -0.0463516 -0.0457802
-0.0416277 -0.0463542 -0.0457862
-0.0416297 -0.0463578 -0.0457931
-0.0416462 -0.0463621 -0.0458008
-0.0417308 -0.0463666 -0.0458089
-0.0418048 -0.0463718 -0.0458176
-0.0418767 -0.0463778 -0.0458267
-0.0419547 -0.0463843 -0.0458369
-0.0420141 -0.0463904 -0.0458485
-0.0420736 -0.0464039 -0.0458609
-0.0421167 -0.0466245 -0.0458722
-0.0421216 -0.0470277 -0.0458797
-0.0421726 -0.0473563 -0.0458921
-0.0422369 -0.0476314 -0.0459065
-0.0422616 -0.0479843 -0.045932
-0.0422775 -0.0483485 -0.0461724
-0.0423109 -0.0486406 -0.0465027
-0.0423383 -0.048945 -0.0468567
-0.0423399 -0.0492949 -0.0472058
-0.04234 -0.0496237 -0.0475972
-0.0423399 -0.0499224 -0.0480454
-0.0423392 -0.0502221 -0.0485163
-0.0423382 -0.0505085 -0.0490234
-0.042337 -0.0507703 -0.049579
-0.0423354 -0.0510172 -0.0501707
-0.0423334 -0.0512468 -0.0507973
-0.0423312 -0.0514549 -0.0514612
-0.0423287 -0.0516603 -0.0521487
-0.0423258 -0.0518555 -0.052855
-0.0423228 -0.0520231 -0.0535962
-0.0423195 -0.0521746 -0.0543587
-0.042316 -0.052317 -0.0551305
-0.0423124 -0.0524429 -0.0559145
-0.0423088 -0.052554 -0.0567052
-0.042305 -0.0526569 -0.0574925
-0.0423012 -0.0527508 -0.0582727
-0.0422974 -0.052836 -0.0590415
-0.042227 -0.0529187 -0.0597899
-0.0420795 -0.0530302 -0.0604974
-0.0419638 -0.0531434 -0.0611604
-0.0418486 -0.0532237 -0.0618195
-0.0417416 -0.0533176 -0.0624316
-0.0416326 -0.0534242 -0.062986
-0.0415352 -0.0535227 -0.0635044
-0.0414472 -0.0536188 -0.0639754
-0.0413634 -0.0537256 -0.064388
-0.0412985 -0.0538332 -0.0647453
-0.0412475 -0.053932 -0.0650559
-0.041204 -0.0540371 -0.0653078
-0.0411698 -0.0541483 -0.0654964
-0.0411468 -0.0542552 -0.0656329
-0.0411356 -0.0543612 -0.0657145
-0.0411313 -0.0544703 -0.0657378
-0.0411315 -0.0545774 -0.0657355
-0.041132 -0.0546757 -0.0657308
-0.0411327 -0.0547663 -0.0657235
-0.0411335 -0.0548482 -0.0657138
-0.0411345 -0.0549173 -0.0657022
-0.0411356 -0.0549722 -0.0656888
-0.0411366 -0.0550146 -0.0654534
-0.0411373 -0.0550648 -0.0650874
-0.0411381 -0.0550887 -0.0647692
-0.0411389 -0.0550884 -0.0644755
-0.0411393 -0.0550878 -0.0641686
-0.0411396 -0.0550862 -0.0638519
-0.0411394 -0.0550839 -0.0635233
-0.0411389 -0.0550808 -0.0631846
-0.0411381 -0.0550771 -0.0628426
-0.0411371 -0.0550728 -0.0625036
-0.0411358 -0.0550681 -0.0621648
-0.0411341 -0.0550627 -0.0618235
-0.0411321 -0.0550565 -0.0614812
-0.0411027 -0.0549277 -0.0611434
-0.0410459 -0.0546651 -0.0608674
-0.0409838 -0.0544236 -0.0605744
-0.0408894 -0.0541874 -0.0602541
-0.0408072 -0.053914 -0.0599613
-0.040717 -0.0536232 -0.0596689
-0.0406138 -0.0533367 -0.0593623
-0.0405111 -0.0530324 -0.0590575
-0.0404096 -0.0527128 -0.0587561
-0.0403036 -0.0523915 -0.0584435
-0.0401976 -0.052064 -0.0581235
-0.040095 -0.051728 -0.0577982
-0.039994 -0.0513906 -0.0574614
-0.0398955 -0.0510534 -0.0571115
-0.0398021 -0.0507154 -0.0567498
-0.0397136 -0.0503798 -0.0563731
-0.0396302 -0.0500492 -0.0559792
-0.0395532 -0.0497239 -0.0555684
-0.0394832 -0.0494056 -0.05514
-0.03942 -0.0490965 -0.0546927
-0.0393638 -0.0487974 -0.0542266
-0.039315 -0.0485091 -0.0537421
-0.0392731 -0.0482329 -0.0532394
-0.0392382 -0.0479693 -0.0527195
-0.0392102 -0.0477188 -0.0521839
-0.0391886 -0.0474816 -0.0516342
-0.0391729 -0.0472577 -0.0510724
-0.0391627 -0.0470471 -0.050501
-0.0391573 -0.0468493 -0.0499227
-0.0391558 -0.0466638 -0.0493404
-0.0391559 -0.0464902 -0.0487575
-0.039156 -0.0463282 -0.048177
-0.0391562 -0.0461765 -0.0476025
-0.0391563 -0.0460338 -0.0470381
-0.0391564 -0.0458993 -0.0464875
-0.0391563 -0.0457715 -0.0459544
-0.0391562 -0.0456492 -0.0454427
-0.0391559 -0.0455311 -0.0449561
-0.0391446 -0.0454166 -0.0444978
-0.0391194 -0.0453084 -0.044069
-0.0390886 -0.0452016 -0.0436733
-0.039049 -0.0450935 -0.0433172
-0.0389998 -0.0449873 -0.0429987
-0.0389404 -0.0448807 -0.042721
-0.0388715 -0.0447719 -0.042487
-0.0387921 -0.0446617 -0.0422965
-0.0387021 -0.0445501 -0.0421502
-0.0386019 -0.0444363 -0.0420488
-0.0384917 -0.0443205 -0.041992
-0.0383716 -0.0442033 -0.0419779
-0.038242 -0.0440856 -0.0419801
-0.0381024 -0.0439716 -0.0419846
-0.0379534 -0.0438612 -0.0419912
-0.0377975 -0.0437533 -0.042
-0.0376348 -0.04365 -0.0420106
-0.0374663 -0.0435526 -0.0420228
-0.0372946 -0.0434609 -0.0420364
-0.0371196 -0.0433764 -0.0420511
-0.0369435 -0.0432998 -0.0420665
-0.0367679 -0.043232 -0.0420825
-0.0365938 -0.0431744 -0.0420987
-0.0364226 -0.0431271 -0.0421149
-0.0362557 -0.0430906 -0.0421307
-0.0360943 -0.0430658 -0.042146
-0.0359399 -0.0430542 -0.04216
-0.0357966 -0.0430546 -0.0422202
-0.0356632 -0.0430543 -0.042466
-0.0355414 -0.0430548 -0.0426768
-0.0354232 -0.0430559 -0.0428663
-0.035319 -0.043057 -0.0430513
-0.035222 -0.0430587 -0.0432125
-0.0351332 -0.0430608 -0.0433549
-0.0350535 -0.0430631 -0.0434779
-0.0349796 -0.0430658 -0.0435823
-0.0349122 -0.0430685 -0.0436716
-0.0348484 -0.0430712 -0.0437455
-0.0347858 -0.0430738 -0.043802
-0.0347241 -0.0430763 -0.0438434
-0.034663 -0.0430786 -0.0438728
-0.0346021 -0.0430808 -0.0438935
-0.0345402 -0.0430828 -0.0439078
-0.0344764 -0.0430846 -0.0439167
-0.0344096 -0.0430861 -0.0439208
-0.0343389 -0.0430872 -0.0439224
-0.034264 -0.043088 -0.0439231
-0.0341842 -0.0430883 -0.0439242
-0.0341006 -0.0430882 -0.0439265
-0.0340265 -0.0430874 -0.0439318
-0.0339366 -0.0430863 -0.0439386
-0.0338383 -0.0430848 -0.0439423
-0.0337348 -0.0430828 -0.0439484
-0.0336204 -0.0430804 -0.0439533
-0.0335014 -0.0430776 -0.0439556
-0.0333787 -0.0430743 -0.0439571
-0.0332517 -0.0430706 -0.0439569
-0.0331237 -0.0430668 -0.0439565
-0.0329965 -0.0430629 -0.0439554
-0.0328661 -0.0430585 -0.0439539
-0.0327371 -0.0430517 -0.0439384
-0.0326128 -0.0429317 -0.0438918
-0.0325186 -0.0427252 -0.0438859
-0.0324148 -0.0425495 -0.0438392
-0.0323 -0.0423939 -0.0437618
-0.0322056 -0.0422064 -0.0436949
-0.0321159 -0.0420145 -0.0436121
-0.032023 -0.0418415 -0.0434931
-0.0319388 -0.0416614 -0.0433571
-0.0318653 -0.0414743 -0.0432058
-0.0317946 -0.0412973 -0.0430248
-0.0317298 -0.0411249 -0.0428184
-0.0316747 -0.0409503 -0.0425925
-0.0316264 -0.0407817 -0.0423413
-0.0315839 -0.0406213 -0.0420635
-0.0315495 -0.0404645 -0.0417639
-0.0315226 -0.0403127 -0.0414427
-0.0315015 -0.0401677 -0.0410996
-0.0314868 -0.0400277 -0.0407375
-0.0314783 -0.0398918 -0.0403588
-0.0314748 -0.0397609 -0.0399647
-0.0314746 -0.0396341 -0.0395579
-0.0314748 -0.0395107 -0.0391412
-0.0314751 -0.0393908 -0.0387166
-0.0314754 -0.039273 -0.0382875
-0.0314758 -0.0391562 -0.037857
-0.0314763 -0.0390399 -0.0374278
-0.0314767 -0.0389229 -0.0370031
-0.0314771 -0.0388043 -0.0365859
-0.0314775 -0.0386834 -0.0361789
-0.0314779 -0.0385595 -0.0357848
-0.0314781 -0.038432 -0.0354059
-0.0314783 -0.0383003 -0.0350446
-0.0314783 -0.0381642 -0.0347026
-0.0314782 -0.0380236 -0.0343818
-0.0314781 -0.0378783 -0.0340833
-0.0314777 -0.0377287 -0.0338082
-0.0314773 -0.0375749 -0.033557
-0.0314767 -0.0374176 -0.0333302
-0.031476 -0.0372574 -0.0331277
-0.0314751 -0.0370952 -0.0329493
-0.0314703 -0.0369327 -0.0327939
-0.0314357 -0.0367741 -0.0326592
-0.0313989 -0.0366234 -0.0325414
-0.031363 -0.0364684 -0.0324474
-0.031325 -0.0363182 -0.0323736
-0.031285 -0.0361766 -0.0323128
-0.0312456 -0.0360395 -0.03227
-0.0312074 -0.0359093 -0.0322415
-0.0311697 -0.0357897 -0.0322241
-0.0311353 -0.0356802 -0.0322171
-0.0311033 -0.0355816 -0.0322172
-0.0310739 -0.0354962 -0.0322178
-0.0310476 -0.035425 -0.0322187
-0.0310251 -0.0353681 -0.03222
-0.0310068 -0.0353264 -0.0322215
-0.0309928 -0.0353004 -0.0322232
-0.0309836 -0.0352904 -0.0322249
-0.0309795 -0.0352907 -0.0322268
-0.0309797 -0.0352916 -0.0322291
-0.0309801 -0.0352932 -0.0322317
-0.0309808 -0.0352953 -0.0322345
-0.0309817 -0.0352981 -0.0322377
-0.0309828 -0.0353013 -0.0322412
-0.0309841 -0.035305 -0.032245
-0.0309854 -0.0353087 -0.032249
-0.0309868 -0.0353125 -0.0322532
-0.0309882 -0.0353165 -0.0322579
-0.0309896 -0.0353207 -0.0322631
-0.0309911 -0.0353251 -0.0322689
-0.0309927 -0.0353296 -0.0322754
-0.0309942 -0.0353342 -0.0322826
-0.0309956 -0.0353388 -0.0322906
-0.030997 -0.0353434 -0.0322993
-0.0309983 -0.035348 -0.0323089
-0.0309996 -0.0353525 -0.0323192
-0.0310008 -0.0353569 -0.0323302
-0.0310018 -0.0353612 -0.032342
-0.0310027 -0.0353653 -0.0323586
-0.0310037 -0.0353689 -0.0325817
-0.0310046 -0.0353718 -0.0328623
-0.0310053 -0.035375 -0.0331116
-0.031006 -0.0353776 -0.0333864
-0.0310065 -0.0353801 -0.0336701
-0.0310069 -0.0353824 -0.0339599
-0.0310073 -0.0353844 -0.0342595
-0.0310076 -0.0353862 -0.0345609
-0.0310078 -0.0353878 -0.0348646
-0.0310079 -0.0353892 -0.03517
-0.0310081 -0.0353904 -0.0354752
-0.0310082 -0.0353915 -0.0357783
-0.0310084 -0.0353925 -0.0360756
-0.0310086 -0.0353935 -0.0363647
-0.0310088 -0.0353944 -0.0366439
-0.0310091 -0.0353952 -0.0369114
-0.0310095 -0.0353961 -0.0371656
-0.0310101 -0.035397 -0.0374041
-0.0310108 -0.035398 -0.0376248
-0.0310116 -0.0353991 -0.0378259
-0.0310126 -0.0354003 -0.0380065
-0.0310138 -0.0354016 -0.0381657
-0.0310152 -0.0354031 -0.0383027
-0.0310167 -0.0354046 -0.0384167
-0.0310185 -0.0354063 -0.0385074
-0.0310204 -0.0354082 -0.0385747
-0.0310225 -0.0354102 -0.0386192
-0.0310248 -0.0354123 -0.0386417
-0.0310272 -0.0354145 -0.0386443
-0.0310298 -0.0354167 -0.038643
-0.0310325 -0.035419 -0.0386407
-0.0310353 -0.0354212 -0.0386375
-0.0310382 -0.0354234 -0.0386335
-0.0310411 -0.0354257 -0.0385778
-0.0310439 -0.035428 -0.0384883
-0.0310467 -0.0354301 -0.0384072
-0.0310495 -0.0354321 -0.0383193
-0.0310523 -0.035434 -0.0382277
-0.0310549 -0.0354357 -0.0381347
-0.0310575 -0.0354373 -0.0380404
-0.0310599 -0.0354386 -0.0379475
-0.0310623 -0.0354397 -0.0378571
-0.0310645 -0.0354405 -0.03777
-0.0310667 -0.0354412 -0.0376871
-0.0310687 -0.0354415 -0.037609
-0.0310705 -0.0354417 -0.0375365
-0.0310723 -0.0354415 -0.0374699
-0.0310739 -0.0354411 -0.0374089
-0.0310754 -0.0354405 -0.0373538
-0.0310767 -0.0354397 -0.0373048
-0.031078 -0.0354388 -0.0372633
-0.0310792 -0.0354378 -0.0372275
-0.0310804 -0.0354367 -0.0371966
-0.0310814 -0.0354355 -0.0371704
-0.0310824 -0.0354342 -0.0371475
-0.0310834 -0.035433 -0.0371277
-0.0310843 -0.0354317 -0.0371103
-0.0310853 -0.0354305 -0.0370943
-0.0310862 -0.0354294 -0.0370789
-0.0310872 -0.0354284 -0.0370633
-0.0310882 -0.0354275 -0.037047
-0.0310893 -0.0354268 -0.0370293
-0.0310905 -0.0354263 -0.0370099
-0.0310917 -0.035426 -0.0369882
-0.031093 -0.0354259 -0.0369641
-0.0310944 -0.0354261 -0.0369375
-0.0311209 -0.0354265 -0.036909
-0.0311924 -0.0354266 -0.0368835
-0.031253 -0.0354274 -0.0368567
-0.0313184 -0.0354282 -0.0368236
-0.0313884 -0.0354292 -0.0367931
-0.0314582 -0.0354304 -0.0367599
-0.0315317 -0.0354318 -0.0367277
-0.0316071 -0.0354334 -0.0366977
-0.0316833 -0.0354352 -0.0366693
-0.0317602 -0.0354371 -0.0366445
-0.0318371 -0.0354391 -0.0366238
-0.0319135 -0.0354412 -0.0366085
-0.0319888 -0.0354434 -0.0365999
-0.0320622 -0.0354457 -0.0365984
-0.0321328 -0.0354633 -0.0365989
-0.0321895 -0.0355585 -0.0365988
-0.0322282 -0.0356705 -0.036599
-0.0322804 -0.0357566 -0.0366009
-0.0323267 -0.035843 -0.0366034
-0.0323594 -0.0359428 -0.0366062
-0.0323918 -0.0360351 -0.0366101
-0.0324224 -0.0361208 -0.0366149
-0.0324445 -0.0362107 -0.0366203
-0.0324619 -0.0362986 -0.0366248
-0.0324785 -0.0363749 -0.0367129
-0.032494 -0.0364397 -0.0368603
-0.032504 -0.036506 -0.0370092
-0.032507 -0.0365738 -0.0371715
-0.0325092 -0.0366341 -0.0373482
-0.0325095 -0.0366909 -0.0375365
-0.0325093 -0.0367471 -0.0377315
-0.0325091 -0.0367996 -0.0379355
-0.0325088 -0.0368494 -0.0381482
-0.0325084 -0.0368985 -0.0383662
-0.032508 -0.0369466 -0.0385888
-0.0325075 -0.0369939 -0.0388143
-0.032507 -0.0370417 -0.0390403
-0.0325065 -0.0370904 -0.0392657
-0.032506 -0.0371404 -0.0394895
-0.0325055 -0.0371923 -0.0397099
-0.032505 -0.0372467 -0.0399254
-0.0325045 -0.0373039 -0.0401344
-0.0325041 -0.0373643 -0.0403356
-0.0325037 -0.0374284 -0.0405282
-0.0325034 -0.0374961 -0.0407113
-0.0325031 -0.0375676 -0.0408842
-0.0325029 -0.0376427 -0.0410463
-0.0325027 -0.0377213 -0.0411971
-0.0325026 -0.0378032 -0.0413365
-0.0325025 -0.0378881 -0.0414644
-0.0325025 -0.0379755 -0.041581
-0.0325025 -0.0380649 -0.0416866
-0.0325026 -0.0381556 -0.0417815
-0.0325026 -0.0382472 -0.0418663
-0.0325027 -0.0383389 -0.0419414
-0.0325028 -0.0384299 -0.042008
-0.032503 -0.0385195 -0.0420666
-0.0325031 -0.0386069 -0.0421182
-0.0325032 -0.0386912 -0.0421636
-0.0325034 -0.0387717 -0.0422039
-0.0325035 -0.0388475 -0.0422399
-0.0325035 -0.0389178 -0.0422726
-0.0325036 -0.0389821 -0.0423028
-0.0325036 -0.0390396 -0.0423312
-0.0325035 -0.0390896 -0.0423585
-0.0325034 -0.0391317 -0.0423853
-0.0325032 -0.0391655 -0.042412
-0.032503 -0.0391906 -0.0424391
-0.0325028 -0.0392067 -0.0424666
-0.0325024 -0.0392137 -0.0424947
-0.032502 -0.0392139 -0.0425231
-0.0324926 -0.0392136 -0.0425488
-0.0324721 -0.0392131 -0.042569
-0.0324525 -0.0392123 -0.0425868
-0.0324294 -0.0392114 -0.0426023
-0.0324057 -0.0392103 -0.042614
-0.0323803 -0.0392091 -0.0426218
-0.0323531 -0.0392078 -0.0426236
-0.0323249 -0.0392063 -0.0426233
-0.032296 -0.0392047 -0.0426227
-0.0322678 -0.0391757 -0.0426218
-0.0322485 -0.0391117 -0.0426213
-0.0322268 -0.0390544 -0.0426199
-0.0322013 -0.0390007 -0.0426177
-0.0321824 -0.0389373 -0.0426154
-0.0321631 -0.0388745 -0.0426124
-0.0321433 -0.0388142 -0.042577
-0.0321255 -0.0387545 -0.0424911
-0.0321078 -0.038696 -0.0424099
-0.0320928 -0.0386365 -0.0423274
-0.0320785 -0.0385795 -0.042237
-0.0320658 -0.0385231 -0.042137
-0.0320551 -0.0384674 -0.042028
-0.0320455 -0.0384132 -0.0419098
-0.0320374 -0.0383605 -0.0417832
-0.0320308 -0.0383087 -0.0416494
-0.0320254 -0.0382584 -0.0415086
-0.0320209 -0.0382091 -0.0413613
-0.0320174 -0.0381607 -0.0412083
-0.0320146 -0.038113 -0.0410506
-0.0320121 -0.038066 -0.0408893
-0.0320099 -0.0380194 -0.0407255
-0.0320076 -0.0379727 -0.0405602
-0.032005 -0.037926 -0.0403943
-0.0320019 -0.0378788 -0.0402288
-0.0319979 -0.0378309 -0.0400649
-0.0319928 -0.0377821 -0.0399037
-0.0319865 -0.0377322 -0.0397462
-0.0319786 -0.0376809 -0.0395932
-0.031969 -0.0376281 -0.0394455
-0.0319576 -0.0375737 -0.039304
-0.0319441 -0.0375176 -0.0391694
-0.0319285 -0.0374597 -0.0390422
-0.0319106 -0.0374001 -0.0389229
-0.0318905 -0.0373387 -0.0388119
-0.0318682 -0.0372758 -0.0387093
-0.0318435 -0.0372114 -0.0386154
-0.0318167 -0.0371457 -0.0385302
-0.0317877 -0.037079 -0.0384535
-0.0317568 -0.0370115 -0.0383851
-0.0317239 -0.0369436 -0.0383249
-0.0316894 -0.0368757 -0.0382722
-0.0316533 -0.036808 -0.0382268
-0.0316159 -0.036741 -0.0381881
-0.0315773 -0.0366752 -0.0381555
-0.0315379 -0.0366108 -0.0381284
-0.0314978 -0.0365483 -0.0381061
-0.0314573 -0.0364882 -0.038088
-0.0314166 -0.0364308 -0.0380734
-0.0313759 -0.0363765 -0.0380618
-0.0313354 -0.0363256 -0.0380523
-0.0312954 -0.0362783 -0.0380446
-0.0312558 -0.0362351 -0.0380381
-0.0312171 -0.036196 -0.0380322
-0.0311791 -0.0361613 -0.0380267
-0.031142 -0.0361311 -0.0380213
-0.031106 -0.0361053 -0.0380156
-0.0310709 -0.036084 -0.0380096
-0.031037 -0.0360672 -0.0380031
-0.031004 -0.0360546 -0.0379963
-0.0309719 -0.0360462 -0.0379892
-0.0309408 -0.0360418 -0.037982
-0.0309104 -0.0360409 -0.0379749
-0.0308809 -0.036041 -0.0379687
-0.0308528 -0.0360412 -0.0379647
-0.0308252 -0.0360416 -0.0379624
-0.0307981 -0.036042 -0.0379621
-0.0307712 -0.0360425 -0.0379624
-0.030744 -0.036043 -0.0379627
-0.0307166 -0.0360436 -0.0379634
-0.0306884 -0.0360441 -0.0379642
-0.0306593 -0.0360447 -0.0379653
-0.0306288 -0.0360452 -0.0379666
-0.0305969 -0.0360456 -0.0379682
-0.0305633 -0.036046 -0.0379701
-0.0305278 -0.0360463 -0.0379722
-0.0304906 -0.0360465 -0.0379745
-0.0304516 -0.0360466 -0.0379771
-0.0304107 -0.0360467 -0.0379798
-0.0303682 -0.0360466 -0.0379827
-0.030324 -0.0360464 -0.0379858
-0.0302784 -0.0360461 -0.0379889
-0.0302315 -0.0360457 -0.0379921
-0.0301835 -0.0360452 -0.0379952
-0.0301348 -0.0360446 -0.0379983
-0.0300861 -0.036044 -0.0380014
-0.0300375 -0.0360434 -0.0380043
-0.0299887 -0.0360427 -0.0380069
-0.0299403 -0.0360419 -0.0380093
-0.0298924 -0.036041 -0.0380114
-0.0298459 -0.0360263 -0.0380131
-0.0298051 -0.0359933 -0.0380148
-0.0297643 -0.0359638 -0.0380156
-0.0297228 -0.0359355 -0.0380159
-0.0296857 -0.0359029 -0.038016
-0.0296492 -0.0358705 -0.0380157
-0.0296141 -0.0358389 -0.0380149
-0.0295814 -0.0358053 -0.0380138
-0.0295506 -0.0357712 -0.0380123
-0.0295212 -0.0357371 -0.0380103
-0.029494 -0.035702 -0.0380079
-0.0294685 -0.0356662 -0.0380052
-0.0294446 -0.0356298 -0.038002
-0.0294224 -0.0355925 -0.0379986
-0.0294016 -0.0355541 -0.0379948
-0.0293821 -0.0355148 -0.0379907
-0.0293638 -0.0354743 -0.0379863
-0.0293466 -0.0354323 -0.0379817
-0.02933 -0.035389 -0.0379769
-0.0293142 -0.035344 -0.037972
-0.0292989 -0.0352972 -0.0379669
-0.0292838 -0.0352487 -0.037959
-0.0292685 -0.0351997 -0.0378625
-0.0292507 -0.0351555 -0.0377451
-0.0292338 -0.0351049 -0.0376352
-0.0292187 -0.0350506 -0.0375245
-0.0292007 -0.0349977 -0.0374129
-0.0291834 -0.0349417 -0.0373024
-0.0291663 -0.0348824 -0.0371948
-0.0291481 -0.0348225 -0.0370874
-0.0291296 -0.0347608 -0.0369818
-0.029111 -0.0346968 -0.0368788
-0.0290919 -0.0346318 -0.0367776
-0.0290724 -0.0345657 -0.0366783
-0.0290529 -0.0344983 -0.0365814
-0.0290331 -0.0344303 -0.0364865
-0.0290132 -0.034362 -0.0363936
-0.0289934 -0.0342934 -0.0363027
-0.0289737 -0.034225 -0.0362136
-0.0289542 -0.0341571 -0.0361261
-0.028935 -0.03409 -0.0360401
-0.0289164 -0.034024 -0.0359556
-0.0288982 -0.0339595 -0.0358722
-0.0288807 -0.0338967 -0.0357899
-0.028864 -0.0338359 -0.0357086
-0.0288481 -0.0337775 -0.0356281
-0.0288331 -0.0337216 -0.0355483
-0.0288191 -0.0336685 -0.0354694
-0.0288062 -0.0336183 -0.0353912
-0.0287942 -0.0335714 -0.0353138
-0.0287834 -0.0335277 -0.0352373
-0.0287737 -0.0334874 -0.0351618
-0.028765 -0.0334506 -0.0350875
-0.0287574 -0.0334173 -0.0350147
-0.0287508 -0.0333875 -0.0349437
-0.0287451 -0.0333612 -0.0348746
-0.0287403 -0.0333383 -0.034808
-0.0287362 -0.0333188 -0.0347442
-0.0287329 -0.0333026 -0.0346835
-0.0287301 -0.0332894 -0.0346264
-0.0287277 -0.0332793 -0.0345735
-0.0287257 -0.0332719 -0.034525
-0.0287239 -0.0332672 -0.0344815
-0.0287222 -0.0332649 -0.0344434
-0.0287205 -0.0332648 -0.0344111
-0.028719 -0.0332649 -0.0343856
-0.0287176 -0.0332651 -0.0343674
-0.028716 -0.0332654 -0.0343563
-0.0287141 -0.0332656 -0.0343528
-0.0287118 -0.033266 -0.0343532
-0.0287089 -0.0332664 -0.0343541
-0.0287053 -0.0332668 -0.0343554
-0.0287009 -0.0332673 -0.0343572
-0.0286958 -0.0332679 -0.0343596
-0.02869 -0.0332684 -0.0343624
-0.0286834 -0.033269 -0.0343656
-0.0286762 -0.0332696 -0.0343692
-0.0286684 -0.0332703 -0.0343732
-0.0286602 -0.0332709 -0.0343774
-0.0286515 -0.0332716 -0.034382
-0.0286426 -0.0332722 -0.0343868
-0.0286339 -0.0332729 -0.0343917
-0.0286254 -0.0332736 -0.0343968
-0.0286174 -0.0332744 -0.0344019
-0.02861 -0.0332751 -0.034407
-0.0286033 -0.0332759 -0.034412
-0.0285976 -0.0332767 -0.0344169
-0.028593 -0.0332774 -0.0344204
-0.0285904 -0.0332781 -0.0344237
-0.0285886 -0.0332789 -0.0344265
-0.0285881 -0.0332796 -0.0344293
-0.0285881 -0.0332804 -0.034432
-0.0285882 -0.0332812 -0.0344344
-0.0285884 -0.033282 -0.0344366
-0.0285886 -0.0332829 -0.0344386
-0.0285888 -0.0332837 -0.0344403
-0.0285891 -0.0332846 -0.0344418
-0.0285895 -0.0332855 -0.0344431
-0.0285899 -0.0332863 -0.0344442
-0.0285903 -0.0332872 -0.0344451
-0.0285908 -0.033288 -0.0344458
-0.0285913 -0.0332888 -0.0344462
-0.0285919 -0.0332896 -0.0344465
-0.0285924 -0.0332903 -0.0344466
-0.028593 -0.033291 -0.0344465
-0.0285936 -0.0332916 -0.0344462
-0.0285942 -0.0332922 -0.0344458
-0.0285948 -0.0332926 -0.0344451
-0.0285953 -0.0332931 -0.0344444
-0.0285959 -0.0332934 -0.0344437
-0.0285965 -0.0332936 -0.0344429
-0.0285971 -0.0332938 -0.0344422
-0.0285976 -0.0332939 -0.0344413
-0.0285981 -0.0332939 -0.0344405
-0.0285986 -0.0332938 -0.0344396
-0.0285991 -0.0332936 -0.0344386
-0.0285996 -0.0332934 -0.0344377
-0.0286 -0.0332931 -0.0344367
-0.0286005 -0.0332927 -0.0344357
-0.0286009 -0.0332923 -0.0344347
-0.0286013 -0.0332918 -0.0344337
-0.0286017 -0.0332913 -0.0344326
-0.0286021 -0.0332908 -0.0344315
-0.0286025 -0.0332902 -0.0344304
-0.028603 -0.0332896 -0.0344292
-0.0286034 -0.0332891 -0.034428
-0.0286038 -0.0332885 -0.0344268
-0.0286043 -0.033288 -0.0344255
-0.0286048 -0.0332874 -0.0344241
-0.0286053 -0.033287 -0.0344227
-0.0286058 -0.0332865 -0.0344213
-0.0286064 -0.0332861 -0.0344198
-0.0286069 -0.0332858 -0.0344183
-0.0286076 -0.0332855 -0.0344167
-0.0286082 -0.0332853 -0.0344151
-0.0286088 -0.0332852 -0.0344135
-0.0286095 -0.0332851 -0.0344119
-0.0286102 -0.0332852 -0.0344104
-0.0286109 -0.0332853 -0.0344088
-0.0286116 -0.0332855 -0.0344074
-0.0286124 -0.0332857 -0.034406
-0.0286131 -0.033286 -0.0344046
-0.0286138 -0.0332864 -0.0344034
-0.0286146 -0.0332868 -0.0344023
-0.0286153 -0.0332872 -0.0344013
-0.0286161 -0.0332877 -0.0344005
-0.0286168 -0.0332883 -0.0343999
-0.0286175 -0.0332889 -0.0343994
-0.0286182 -0.0332895 -0.0343992
-0.0286188 -0.0332902 -0.0343992
-0.0286195 -0.0332908 -0.0343995
-0.0286201 -0.0332915 -0.0344001
-0.0286207 -0.0332923 -0.0344011
-0.0286212 -0.033293 -0.0344024
-0.0286217 -0.0332938 -0.034404
-0.0286222 -0.0332946 -0.034406
-0.0286227 -0.0332953 -0.0344082
-0.0286231 -0.0332961 -0.0344108
-0.0286234 -0.0332969 -0.0344137
-0.0286238 -0.0332977 -0.0344162
-0.0286241 -0.0332985 -0.0344187
-0.0286244 -0.0332992 -0.0344211
-0.0286247 -0.0333 -0.0344236
-0.028625 -0.0333008 -0.0344263
-0.0286252 -0.0333015 -0.0344291
-0.0286254 -0.0333023 -0.034432
-0.0286256 -0.0333031 -0.034435
-0.0286258 -0.0333039 -0.0344379
-0.028626 -0.0333047 -0.0344409
-0.0286262 -0.0333056 -0.0344439
-0.0286264 -0.0333064 -0.0344469
-0.0286266 -0.0333072 -0.0344499
-0.0286268 -0.0333081 -0.0344582
-0.028627 -0.0333089 -0.034532
-0.0286273 -0.0333096 -0.0346109
-0.0286275 -0.0333105 -0.0346819
-0.0286277 -0.0333113 -0.0347546
-0.028628 -0.0333121 -0.034823
-0.0286282 -0.033313 -0.0348887
-0.0286285 -0.0333138 -0.0349523
-0.0286288 -0.0333147 -0.0350128
-0.028629 -0.0333155 -0.0350707
-0.0286293 -0.0333163 -0.0351258
-0.0286296 -0.0333172 -0.0351778
-0.0286298 -0.033318 -0.0352269
-0.0286301 -0.0333187 -0.0352733
-0.0286303 -0.0333195 -0.0353169
-0.0286306 -0.0333202 -0.0353579
-0.0286308 -0.0333209 -0.0353961
-0.028631 -0.0333215 -0.0354316
-0.0286312 -0.0333221 -0.0354646
-0.0286314 -0.0333226 -0.0354951
-0.0286316 -0.0333231 -0.0355231
-0.0286317 -0.0333235 -0.0355487
-0.0286319 -0.0333239 -0.0355718
-0.028632 -0.0333242 -0.0355925
-0.0286321 -0.0333244 -0.0356108
-0.0286321 -0.0333246 -0.0356266
-0.0286321 -0.0333247 -0.03564
-0.0286322 -0.0333247 -0.0356507
-0.0286322 -0.0333247 -0.0356588
-0.0286321 -0.0333246 -0.035664
-0.0286321 -0.0333244 -0.0356662
-0.028632 -0.0333242 -0.0356662
-0.0286319 -0.0333239 -0.035666
-0.0286318 -0.0333236 -0.0356656
-0.0286317 -0.0333233 -0.0356651
-0.0286316 -0.0333229 -0.0356643
-0.0286315 -0.0333224 -0.0356581
-0.0286313 -0.033322 -0.0356365
-0.0286312 -0.0333215 -0.0356131
-0.0286311 -0.0333209 -0.0355861
-0.0286309 -0.0333204 -0.0355553
-0.0286308 -0.0333198 -0.0355258
-0.0286307 -0.0333193 -0.0354951
-0.0286305 -0.0333187 -0.0354625
-0.0286304 -0.0333181 -0.0354271
-0.0286303 -0.0333175 -0.035389
-0.0286301 -0.0333169 -0.0353484
-0.02863 -0.0333163 -0.0353055
-0.0286299 -0.0333157 -0.0352605
-0.0286298 -0.0333151 -0.0352137
-0.0286297 -0.0333145 -0.035165
-0.0286296 -0.0333139 -0.0351147
-0.0286294 -0.0333134 -0.0350631
-0.0286293 -0.0333128 -0.0350105
-0.0286292 -0.0333122 -0.0349572
-0.0286291 -0.0333116 -0.0349033
-0.028629 -0.033311 -0.0348492
-0.0286288 -0.0333104 -0.0347951
-0.0286287 -0.0333098 -0.0347414
-0.0286285 -0.0333092 -0.0346884
-0.0286283 -0.0333086 -0.0346363
-0.0286282 -0.033308 -0.0345854
-0.0286279 -0.0333074 -0.0345359
-0.0286277 -0.0333068 -0.0344881
-0.0286275 -0.0333062 -0.0344422
-0.0286272 -0.0333056 -0.0343984
-0.0286269 -0.0333049 -0.0343569
-0.0286265 -0.0333043 -0.0343178
-0.0286262 -0.0333036 -0.0342813
-0.0286258 -0.033303 -0.0342474
-0.0286254 -0.0333023 -0.0342162
-0.028625 -0.0333016 -0.0341877
-0.0286246 -0.033301 -0.034162
-0.0286241 -0.0333003 -0.034139
-0.0286236 -0.0332997 -0.0341188
-0.0286231 -0.0332991 -0.0341012
-0.0286226 -0.0332984 -0.0340862
-0.0286221 -0.0332978 -0.0340737
-0.0286216 -0.0332973 -0.0340636
-0.028621 -0.0332967 -0.0340558
-0.0286205 -0.0332962 -0.0340501
-0.0286199 -0.0332957 -0.0340465
-0.0286194 -0.0332952 -0.0340447
-0.0286188 -0.0332948 -0.0340446
-0.0286182 -0.0332944 -0.0340447
-0.0286177 -0.0332941 -0.0340449
-0.0286172 -0.0332938 -0.0340452
-0.0286166 -0.0332936 -0.0340456
-0.0286161 -0.0332934 -0.0340461
-0.0286156 -0.0332932 -0.0340466
-0.028615 -0.0332931 -0.0340471
-0.0286145 -0.033293 -0.0340477
-0.028614 -0.0332929 -0.0340484
-0.0286135 -0.0332929 -0.0340491
-0.0286129 -0.033293 -0.03405
-0.0286123 -0.0332931 -0.034051
-0.0286118 -0.0332932 -0.034052
-0.0286112 -0.0332934 -0.034053
-0.0286106 -0.0332936 -0.0340541
-0.0286101 -0.0332938 -0.0340551
-0.0286095 -0.033294 -0.0340562
-0.0286089 -0.0332942 -0.0340573
-0.0286083 -0.0332943 -0.0340584
-0.0286078 -0.0332944 -0.0340595
-0.0286071 -0.0332944 -0.0340605
-0.0286065 -0.0332944 -0.0340615
-0.0286059 -0.0332944 -0.0340625
-0.0286052 -0.0332942 -0.0340634
-0.0286046 -0.033294 -0.0340642
-0.0286039 -0.0332938 -0.0340649
-0.0286032 -0.0332934 -0.0340653
-0.0286026 -0.0332931 -0.0340656
-0.0286019 -0.0332926 -0.0340659
-0.0286012 -0.0332922 -0.034066
-0.0286006 -0.0332917 -0.0340659
-0.0285999 -0.0332911 -0.0340657
-0.0285993 -0.0332905 -0.0340654
-0.0285987 -0.0332898 -0.0340649
-0.0285981 -0.0332892 -0.0340642
-0.0285975 -0.0332885 -0.0340633
-0.028597 -0.0332878 -0.0340622
-0.0285965 -0.033287 -0.034061
-0.028596 -0.0332863 -0.0340595
-0.0285956 -0.0332855 -0.0340579
-0.0285952 -0.0332848 -0.0340561
-0.0285948 -0.033284 -0.0340542
-0.0285944 -0.0332832 -0.0340521
-0.0285941 -0.0332825 -0.0340498
-0.0285938 -0.0332817 -0.0340475
-0.0285935 -0.0332809 -0.034045
-0.0285933 -0.0332802 -0.0340111
-0.028593 -0.0332796 -0.033958
-0.0285928 -0.0332789 -0.0339067
-0.0285926 -0.0332782 -0.033854
-0.0285924 -0.0332775 -0.0338019
-0.0285922 -0.0332769 -0.0337498
-0.0285921 -0.0332762 -0.0336987
-0.0285919 -0.0332756 -0.0336485
-0.0285918 -0.0332749 -0.0335998
-0.0285917 -0.0332743 -0.0335528
-0.0285916 -0.0332737 -0.0335079
-0.0285914 -0.0332731 -0.0334652
-0.0285913 -0.0332725 -0.0334251
-0.0285912 -0.033272 -0.0333877
-0.0285911 -0.0332715 -0.0333532
-0.028591 -0.033271 -0.0333217
-0.028591 -0.0332705 -0.0332934
-0.0285909 -0.0332701 -0.0332684
-0.0285908 -0.0332697 -0.0332466
-0.0285908 -0.0332693 -0.0332282
-0.0285908 -0.033269 -0.033213
-0.0285908 -0.0332688 -0.0332012
-0.0285908 -0.0332686 -0.0331928
-0.0285908 -0.0332684 -0.0331875
-0.0285908 -0.0332684 -0.0331856
-0.0285909 -0.0332684 -0.0331857
-0.028591 -0.0332685 -0.033186
-0.0285911 -0.0332686 -0.0331865
-0.0285912 -0.0332689 -0.0331872
-0.0285914 -0.0332692 -0.0331882
-0.0285916 -0.0332696 -0.0331893
-0.0285918 -0.0332701 -0.0331906
-0.028592 -0.0332707 -0.033192
-0.0285923 -0.0332712 -0.0331936
-0.0285926 -0.0332719 -0.0331953
-0.0285928 -0.0332725 -0.0331971
-0.0285931 -0.0332732 -0.033199
-0.0285934 -0.0332739 -0.033201
-0.0285937 -0.0332746 -0.033203
-0.0285941 -0.0332753 -0.0332051
-0.0285944 -0.0332761 -0.0332066
-0.0285948 -0.0332768 -0.0332081
-0.0285952 -0.0332776 -0.0332096
-0.0285956 -0.0332783 -0.0332112
-0.028596 -0.0332791 -0.0332127
-0.0285964 -0.0332799 -0.0332143
-0.0285968 -0.0332806 -0.0332159
-0.0285972 -0.0332814 -0.0332174
-0.0285977 -0.0332821 -0.033219
-0.0285981 -0.0332828 -0.0332205
-0.0285985 -0.0332835 -0.0332439
-0.028599 -0.0332841 -0.033287
-0.0285994 -0.0332847 -0.033326
-0.0285999 -0.0332852 -0.0333658
-0.0286003 -0.0332858 -0.0334039
-0.0286007 -0.0332863 -0.0334413
-0.0286011 -0.0332868 -0.0334774
-0.0286016 -0.0332872 -0.0335124
-0.028602 -0.0332877 -0.0335457
-0.0286024 -0.0332881 -0.0335772
-0.0286029 -0.0332885 -0.0336068
-0.0286033 -0.0332889 -0.0336344
-0.0286037 -0.0332893 -0.0336597
-0.0286042 -0.0332897 -0.0336826
-0.0286047 -0.0332901 -0.033703
-0.0286051 -0.0332905 -0.0337208
-0.0286056 -0.0332908 -0.033736
-0.0286061 -0.0332912 -0.0337485
-0.0286067 -0.0332916 -0.0337583
-0.0286072 -0.0332919 -0.0337654
-0.0286077 -0.0332923 -0.0337701
-0.0286083 -0.0332927 -0.0337723
-0.0286089 -0.0332931 -0.0337725
-0.0286095 -0.0332934 -0.0337724
-0.02861 -0.0332938 -0.0337722
-0.0286106 -0.0332942 -0.0337719
-0.0286112 -0.0332945 -0.0337714
-0.0286118 -0.0332948 -0.0337641
-0.0286124 -0.0332952 -0.0337556
-0.028613 -0.0332955 -0.0337467
-0.0286135 -0.0332958 -0.0337378
-0.0286141 -0.0332961 -0.0337292
-0.0286146 -0.0332964 -0.0337218
-0.0286152 -0.0332966 -0.0337158
-0.0286157 -0.0332969 -0.0337106
-0.0286162 -0.0332971 -0.0337061
-0.0286167 -0.0332973 -0.0337026
-0.0286172 -0.0332975 -0.0337001
-0.0286176 -0.0332977 -0.0336987
-0.028618 -0.0332978 -0.0336983
-0.0286185 -0.033298 -0.0336984
-0.0286189 -0.0332982 -0.0336985
-0.0286193 -0.0332983 -0.0336987
-0.0286197 -0.0332985 -0.0336989
-0.02862 -0.0332987 -0.0336991
-0.0286204 -0.0332989 -0.0336994
-0.0286208 -0.0332991 -0.0337041
-0.0286211 -0.0332993 -0.0337133
-0.0286215 -0.0332995 -0.0337225
-0.0286218 -0.0332997 -0.0337328
-0.0286221 -0.0333 -0.0337437
-0.0286225 -0.0333003 -0.0337554
-0.0286228 -0.0333006 -0.0337678
-0.0286231 -0.0333009 -0.0337809
-0.0286235 -0.0333012 -0.0337947
-0.0286238 -0.0333016 -0.0338093
-0.0286241 -0.033302 -0.0338248
-0.0286244 -0.0333024 -0.0338411
-0.0286246 -0.0333028 -0.0338584
-0.0286249 -0.0333032 -0.0338767
-0.0286252 -0.0333036 -0.0338961
-0.0286254 -0.033304 -0.0339167
-0.0286256 -0.0333045 -0.0339385
-0.0286258 -0.0333049 -0.0339616
-0.028626 -0.0333053 -0.0339859
-0.0286262 -0.0333057 -0.0340115
-0.0286263 -0.0333061 -0.0340384
-0.0286264 -0.0333064 -0.0340665
-0.0286265 -0.0333068 -0.0340958
-0.0286266 -0.0333071 -0.034126
-0.0286266 -0.0333074 -0.0341572
-0.0286267 -0.0333077 -0.0341892
-0.0286266 -0.0333079 -0.0342217
-0.0286266 -0.0333082 -0.0342546
-0.0286265 -0.0333084 -0.0342877
-0.0286265 -0.0333086 -0.0343206
-0.0286264 -0.0333087 -0.0343531
-0.0286263 -0.0333089 -0.0343849
-0.0286261 -0.033309 -0.0344158
-0.028626 -0.0333091 -0.0344454
-0.0286258 -0.0333092 -0.0344735
-0.0286257 -0.0333093 -0.0344997
-0.0286255 -0.0333094 -0.0345239
-0.0286253 -0.0333095 -0.0345458
-0.0286252 -0.0333095 -0.0345652
-0.028625 -0.0333096 -0.034582
-0.0286248 -0.0333096 -0.0345961
-0.0286247 -0.0333097 -0.0346074
-0.0286245 -0.0333097 -0.0346157
-0.0286243 -0.0333097 -0.0346212
-0.0286242 -0.0333097 -0.0346237
-0.028624 -0.0333096 -0.0346238
-0.0286238 -0.0333096 -0.0346236
-0.0286236 -0.0333095 -0.0346233
-0.0286234 -0.0333093 -0.0346228
-0.0286232 -0.0333091 -0.0346222
-0.028623 -0.0333089 -0.034611
-0.0286227 -0.0333087 -0.0345967
-0.0286225 -0.0333085 -0.0345827
-0.0286222 -0.0333082 -0.0345674
-0.0286219 -0.0333079 -0.0345508
-0.0286216 -0.0333075 -0.0345328
-0.0286213 -0.0333071 -0.0345138
-0.028621 -0.0333067 -0.0344937
-0.0286207 -0.0333063 -0.0344727
-0.0286203 -0.0333058 -0.0344508
-0.02862 -0.0333052 -0.0344279
-0.0286196 -0.0333047 -0.0344043
-0.0286192 -0.0333041 -0.0343799
-0.0286188 -0.0333035 -0.0343546
-0.0286184 -0.0333028 -0.0343286
-0.028618 -0.0333022 -0.0343019
-0.0286175 -0.0333015 -0.0342745
-0.0286171 -0.0333008 -0.0342463
-0.0286167 -0.0333002 -0.0342174
-0.0286162 -0.0332995 -0.0341879
-0.0286158 -0.0332988 -0.0341578
-0.0286154 -0.0332981 -0.0341271
-0.028615 -0.0332975 -0.0340959
-0.0286145 -0.0332968 -0.0340642
-0.0286141 -0.0332962 -0.0340323
-0.0286137 -0.0332955 -0.0340002
-0.0286133 -0.0332949 -0.033968
-0.0286129 -0.0332943 -0.0339359
-0.0286125 -0.0332938 -0.033904
-0.0286121 -0.0332932 -0.0338725
-0.0286117 -0.0332927 -0.0338417
-0.0286113 -0.0332921 -0.0338115
-0.0286109 -0.0332916 -0.0337824
-0.0286105 -0.0332911 -0.0337543
-0.0286101 -0.0332907 -0.0337276
-0.0286097 -0.0332902 -0.0337023
-0.0286093 -0.0332897 -0.0336787
-0.0286089 -0.0332893 -0.0336568
-0.0286084 -0.0332888 -0.0336368
-0.028608 -0.0332884 -0.0336187
-0.0286076 -0.033288 -0.0336026
-0.0286071 -0.0332876 -0.0335886
-0.0286067 -0.0332872 -0.0335767
-0.0286062 -0.0332868 -0.0335668
-0.0286058 -0.0332864 -0.033559
-0.0286053 -0.033286 -0.0335531
-0.0286049 -0.0332857 -0.0335491
-0.0286044 -0.0332854 -0.0335469
-0.0286039 -0.033285 -0.0335464
-0.0286035 -0.0332847 -0.0335465
-0.028603 -0.0332844 -0.0335466
-0.0286026 -0.0332842 -0.0335469
-0.0286021 -0.0332839 -0.0335472
-0.0286017 -0.0332837 -0.0335475
-0.0286013 -0.0332835 -0.0335479
-0.0286009 -0.0332834 -0.0335484
-0.0286005 -0.0332832 -0.0335488
-0.0286001 -0.0332831 -0.0335492
-0.0285998 -0.033283 -0.0335497
-0.0285994 -0.033283 -0.0335501
-0.0285991 -0.0332829 -0.0335505
-0.0285988 -0.0332829 -0.0335508
-0.0285985 -0.0332829 -0.0335511
-0.0285983 -0.0332829 -0.0335514
-0.028598 -0.0332829 -0.0335517
-0.0285978 -0.0332829 -0.0335519
-0.0285976 -0.033283 -0.0335521
-0.0285974 -0.033283 -0.0335522
-0.0285972 -0.033283 -0.0335524
-0.028597 -0.033283 -0.0335524
-0.0285968 -0.033283 -0.0335525
-0.0285966 -0.033283 -0.0335525
-0.0285965 -0.033283 -0.0335525
-0.0285963 -0.0332829 -0.0335525
-0.0285962 -0.0332828 -0.0335525
-0.028596 -0.0332827 -0.0335524
-0.0285959 -0.0332826 -0.0335523
-0.0285957 -0.0332824 -0.0335521
-0.0285956 -0.0332823 -0.033552
-0.0285955 -0.0332821 -0.0335518
-0.0285954 -0.033282 -0.0335516
-0.0285953 -0.0332818 -0.0335514
-0.0285952 -0.0332816 -0.0335511
-0.0285952 -0.0332814 -0.0335508
-0.0285951 -0.0332812 -0.0335504
-0.0285951 -0.033281 -0.03355
-0.0285951 -0.0332808 -0.0335496
-0.0285951 -0.0332806 -0.0335491
-0.0285951 -0.0332804 -0.0335485
-0.0285952 -0.0332802 -0.0335479
-0.0285952 -0.0332801 -0.0335473
-0.0285953 -0.03328 -0.0335467
-0.0285955 -0.0332798 -0.0335419
-0.0285956 -0.0332798 -0.0335308
-0.0285958 -0.0332797 -0.0335209
-0.0285959 -0.0332797 -0.0335103
-0.0285961 -0.0332797 -0.0335001
-0.0285964 -0.0332797 -0.03349
-0.0285966 -0.0332798 -0.0334804
-0.0285969 -0.0332798 -0.0334713
-0.0285971 -0.0332799 -0.0334629
-0.0285974 -0.0332801 -0.0334554
-0.0285977 -0.0332802 -0.0334489
-0.028598 -0.0332804 -0.0334436
-0.0285984 -0.0332806 -0.0334396
-0.0285987 -0.0332807 -0.033437
-0.028599 -0.0332809 -0.0334361
-0.0285993 -0.0332811 -0.0334361
-0.0285997 -0.0332814 -0.0334363
-0.0286 -0.0332816 -0.0334366
-0.0286003 -0.0332818 -0.033437
-0.0286006 -0.033282 -0.0334375
-0.0286009 -0.0332822 -0.0334381
-0.0286012 -0.0332825 -0.0334388
-0.0286014 -0.0332827 -0.0334396
-0.0286017 -0.033283 -0.0334405
-0.028602 -0.0332833 -0.0334415
-0.0286023 -0.0332836 -0.0334424
-0.0286026 -0.0332839 -0.0334435
-0.0286029 -0.0332842 -0.0334445
-0.0286032 -0.0332846 -0.0334455
-0.0286036 -0.033285 -0.0334466
-0.0286039 -0.0332854 -0.0334476
-0.0286043 -0.0332859 -0.0334485
-0.0286046 -0.0332863 -0.0334495
-0.028605 -0.0332868 -0.0334504
-0.0286054 -0.0332873 -0.0334512
-0.0286059 -0.0332879 -0.033452
-0.0286063 -0.0332884 -0.0334526
-0.0286067 -0.0332889 -0.0334532
-0.0286072 -0.0332895 -0.0334553
-0.0286076 -0.03329 -0.0334681
-0.0286081 -0.0332905 -0.0334801
-0.0286085 -0.033291 -0.0334925
-0.028609 -0.0332915 -0.0335048
-0.0286094 -0.033292 -0.0335174
-0.0286098 -0.0332924 -0.0335306
-0.0286102 -0.0332929 -0.0335445
-0.0286106 -0.0332933 -0.033559
-0.028611 -0.0332937 -0.0335744
-0.0286114 -0.033294 -0.0335905
-0.0286117 -0.0332943 -0.0336075
-0.0286121 -0.0332946 -0.0336253
-0.0286124 -0.0332949 -0.0336437
-0.0286127 -0.0332951 -0.0336626
-0.028613 -0.0332954 -0.033682
-0.0286133 -0.0332956 -0.0337016
-0.0286135 -0.0332958 -0.0337212
-0.0286138 -0.033296 -0.0337406
-0.0286141 -0.0332961 -0.0337596
-0.0286143 -0.0332963 -0.033778
-0.0286146 -0.0332965 -0.0337957
-0.0286149 -0.0332967 -0.0338123
-0.0286151 -0.0332969 -0.0338279
-0.0286154 -0.0332971 -0.0338421
-0.0286157 -0.0332973 -0.033855
-0.028616 -0.0332976 -0.0338665
-0.0286163 -0.0332978 -0.0338765
-0.0286166 -0.0332981 -0.033885
-0.0286169 -0.0332984 -0.0338921
-0.0286172 -0.0332987 -0.033898
-0.0286176 -0.033299 -0.0339026
-0.0286179 -0.0332993 -0.0339062
-0.0286182 -0.0332997 -0.0339089
-0.0286185 -0.0333 -0.0339109
-0.0286189 -0.0333003 -0.0339125
-0.0286192 -0.0333007 -0.0339138
-0.0286195 -0.033301 -0.033915
-0.0286198 -0.0333013 -0.0339165
-0.02862 -0.0333016 -0.0339183
-0.0286203 -0.0333018 -0.0339207
-0.0286205 -0.0333021 -0.0339238
-0.0286207 -0.0333023 -0.0339277
-0.0286209 -0.0333025 -0.0339325
-0.0286211 -0.0333026 -0.0339383
-0.0286212 -0.0333027 -0.0339451
-0.0286214 -0.0333028 -0.0339528
-0.0286215 -0.0333029 -0.0339614
-0.0286215 -0.033303 -0.0339709
-0.0286216 -0.033303 -0.0339809
-0.0286216 -0.033303 -0.0339915
-0.0286216 -0.033303 -0.0340023
-0.0286216 -0.0333029 -0.0340132
-0.0286216 -0.0333029 -0.034024
-0.0286216 -0.0333028 -0.0340345
-0.0286216 -0.0333028 -0.0340446
-0.0286216 -0.0333027 -0.034054
-0.0286215 -0.0333027 -0.0340626
-0.0286215 -0.0333027 -0.0340702
-0.0286215 -0.0333027 -0.0340766
