0 0 1055.84 0 0 -1055.84 0 0 1030.03 0 0 -1030.03 0 0 34.6858 0 0 -34.6858
0 0 1048.78 0 0 -1048.78 0 0 1031.05 0 0 -1031.05 0 0 34.6439 0 0 -34.6439
0 0 1032.32 0 0 -1032.32 0 0 1033.53 0 0 -1033.53 0 0 34.5266 0 0 -34.5266
0 0 998.391 0 0 -998.391 0 0 1037.94 0 0 -1037.94 0 0 34.3721 0 0 -34.3721
0 0 959.776 0 0 -959.776 0 0 1042.28 0 0 -1042.28 0 0 34.2675 0 0 -34.2675
0 0 909.99 0 0 -909.99 0 0 1046.88 0 0 -1046.88 0 0 34.2452 0 0 -34.2452
0 0 848.101 0 0 -848.101 0 0 1051.22 0 0 -1051.22 0 0 34.3583 0 0 -34.3583
0 0 773.102 0 0 -773.102 0 0 1054.71 0 0 -1054.71 0 0 34.6744 0 0 -34.6744
0 0 683.88 0 0 -683.88 0 0 1056.63 0 0 -1056.63 0 0 35.2603 0 0 -35.2603
0 0 579.238 0 0 -579.238 0 0 1056.24 0 0 -1056.24 0 0 36.1814 0 0 -36.1814
0 0 458.08 0 0 -458.08 0 0 1052.69 0 0 -1052.69 0 0 37.5004 0 0 -37.5004
0 0 319.708 0 0 -319.708 0 0 1045 0 0 -1045 0 0 39.274 0 0 -39.274
0 0 164.82 0 0 -164.82 0 0 1032.09 0 0 -1032.09 0 0 41.5498 0 0 -41.5498
0 0 -3.58561 0 0 3.58561 0 0 1013.09 0 0 -1013.09 0 0 44.3278 0 0 -44.3278
0 0 -185.55 0 0 185.55 0 0 985.995 0 0 -985.995 0 0 47.6864 0 0 -47.6864
0 0 -376.741 0 0 376.741 0 0 949.487 0 0 -949.487 0 0 51.59 0 0 -51.59
0 0 -572.207 0 0 572.207 0 0 902.064 0 0 -902.064 0 0 56.001 0 0 -56.001
0 0 -766.366 0 0 766.366 0 0 842.459 0 0 -842.459 0 0 60.8178 0 0 -60.8178
0 0 -953.499 0 0 953.499 0 0 769.816 0 0 -769.816 0 0 65.8754 0 0 -65.8754
0 0 -1127.93 0 0 1127.93 0 0 683.772 0 0 -683.772 0 0 70.9406 0 0 -70.9406
0 0 -1283.92 0 0 1283.92 0 0 584.477 0 0 -584.477 0 0 75.6889 0 0 -75.6889
0 0 -1415.12 0 0 1415.12 0 0 472.558 0 0 -472.558 0 0 79.7282 0 0 -79.7282
0 0 -1514.07 0 0 1514.07 0 0 349.066 0 0 -349.066 0 0 82.6132 0 0 -82.6132
0 0 -1571.83 0 0 1571.83 0 0 215.553 0 0 -215.553 0 0 83.848 0 0 -83.848
0 0 -1577.97 0 0 1577.97 0 0 73.7205 0 0 -73.7205 0 0 82.9028 0 0 -82.9028
0 0 -1521.44 0 0 1521.44 0 0 -72.7938 0 0 72.7938 0 0 79.2252 0 0 -79.2252
0 0 -1393.36 0 0 1393.36 0 0 -220.807 0 0 220.807 0 0 72.2527 0 0 -72.2527
0 0 -1190.08 0 0 1190.08 0 0 -366.451 0 0 366.451 0 0 61.2105 0 0 -61.2105
0 0 -916.336 0 0 916.336 0 0 -502.615 0 0 502.615 0 0 45.3637 0 0 -45.3637
0 0 -583.881 0 0 583.881 0 0 -621.315 0 0 621.315 0 0 24.082 0 0 -24.082
0 0 -207.861 0 0 207.861 0 0 -714.072 0 0 714.072 0 0 -2.9907 0 0 2.9907
0 0 202.591 0 0 -202.591 0 0 -772.479 0 0 772.479 0 0 -36.5759 0 0 36.5759
0 0 628.383 0 0 -628.383 0 0 -790.986 0 0 790.986 0 0 -76.7249 0 0 76.7249
0 0 1059.19 0 0 -1059.19 0 0 -764.887 0 0 764.887 0 0 -123.182 0 0 123.182
0 0 1485.97 0 0 -1485.97 0 0 -691.52 0 0 691.52 0 0 -175.45 0 0 175.45
0 0 1905.59 0 0 -1905.59 0 0 -570.442 0 0 570.442 0 0 -232.605 0 0 232.605
0 0 2314.56 0 0 -2314.56 0 0 -403.047 0 0 403.047 0 0 -293.455 0 0 293.455
0 0 2714.06 0 0 -2714.06 0 0 -192.966 0 0 192.966 0 0 -356.468 0 0 356.468
0 0 3103.45 0 0 -3103.45 0 0 55.3184 0 0 -55.3184 0 0 -419.855 0 0 419.855
0 0 3483.31 0 0 -3483.31 0 0 338.668 0 0 -338.668 0 0 -481.456 0 0 481.456
0 0 3852.78 0 0 -3852.78 0 0 646.177 0 0 -646.177 0 0 -539.527 0 0 539.527
0 0 4210.08 0 0 -4210.08 0 0 971.378 0 0 -971.378 0 0 -591.858 0 0 591.858
0 0 4550.81 0 0 -4550.81 0 0 1306.62 0 0 -1306.62 0 0 -636.408 0 0 636.408
0 0 4867.29 0 0 -4867.29 0 0 1644.98 0 0 -1644.98 0 0 -671.214 0 0 671.214
0 0 5150.5 0 0 -5150.5 0 0 1979.72 0 0 -1979.72 0 0 -694.486 0 0 694.486
0 0 5393.41 0 0 -5393.41 0 0 2304.31 0 0 -2304.31 0 0 -704.583 0 0 704.583
0 0 5594.92 0 0 -5594.92 0 0 2611.5 0 0 -2611.5 0 0 -699.947 0 0 699.947
0 0 5760.75 0 0 -5760.75 0 0 2893.45 0 0 -2893.45 0 0 -679.571 0 0 679.571
0 0 5903.98 0 0 -5903.98 0 0 3142.33 0 0 -3142.33 0 0 -642.548 0 0 642.548
0 0 6044.31 0 0 -6044.31 0 0 3350.92 0 0 -3350.92 0 0 -588.38 0 0 588.38
0 0 6255.28 0 0 -6255.28 0 0 3545.73 0 0 -3545.73 0 0 -496.545 0 0 496.545
0 0 6559.99 0 0 -6559.99 0 0 3660.06 0 0 -3660.06 0 0 -378.92 0 0 378.92
0 0 7013.84 0 0 -7013.84 0 0 3693.19 0 0 -3693.19 0 0 -237.94 0 0 237.94
0 0 7658.57 0 0 -7658.57 0 0 3654.07 0 0 -3654.07 0 0 -77.5233 0 0 77.5233
0 0 8515.13 0 0 -8515.13 0 0 3562.83 0 0 -3562.83 0 0 99.1809 0 0 -99.1809
0 0 9580.02 0 0 -9580.02 0 0 3448.71 0 0 -3448.71 0 0 284.254 0 0 -284.254
0 0 10822.5 0 0 -10822.5 0 0 3350.19 0 0 -3350.19 0 0 469.436 0 0 -469.436
0 0 12188 0 0 -12188 0 0 3310.63 0 0 -3310.63 0 0 647.706 0 0 -647.706
0 0 13611.9 0 0 -13611.9 0 0 3373.49 0 0 -3373.49 0 0 811.552 0 0 -811.552
0 0 15039.5 0 0 -15039.5 0 0 3575.53 0 0 -3575.53 0 0 955.437 0 0 -955.437
0 0 16437.3 0 0 -16437.3 0 0 3942.22 0 0 -3942.22 0 0 1075.13 0 0 -1075.13
0 0 17791.5 0 0 -17791.5 0 0 4486.35 0 0 -4486.35 0 0 1168.73 0 0 -1168.73
0 0 19102 0 0 -19102 0 0 5208.18 0 0 -5208.18 0 0 1236.35 0 0 -1236.35
0 0 20375.6 0 0 -20375.6 0 0 6096.61 0 0 -6096.61 0 0 1280.25 0 0 -1280.25
0 0 21618.9 0 0 -21618.9 0 0 7130.93 0 0 -7130.93 0 0 1304.55 0 0 -1304.55
0 0 22830.6 0 0 -22830.6 0 0 8283.58 0 0 -8283.58 0 0 1314.88 0 0 -1314.88
0 0 24001.3 0 0 -24001.3 0 0 9521.65 0 0 -9521.65 0 0 1318.02 0 0 -1318.02
0 0 25123.7 0 0 -25123.7 0 0 10807.2 0 0 -10807.2 0 0 1321.58 0 0 -1321.58
0 0 26200.1 0 0 -26200.1 0 0 12098.1 0 0 -12098.1 0 0 1333.58 0 0 -1333.58
0 0 27242.9 0 0 -27242.9 0 0 13350.5 0 0 -13350.5 0 0 1361.9 0 0 -1361.9
0 0 28266.2 0 0 -28266.2 0 0 14523.3 0 0 -14523.3 0 0 1413.68 0 0 -1413.68
0 0 29274.5 0 0 -29274.5 0 0 15581.6 0 0 -15581.6 0 0 1494.73 0 0 -1494.73
0 0 30255.6 0 0 -30255.6 0 0 16500.3 0 0 -16500.3 0 0 1609.09 0 0 -1609.09
0 0 31189.4 0 0 -31189.4 0 0 17263.6 0 0 -17263.6 0 0 1758.84 0 0 -1758.84
0 0 32057.9 0 0 -32057.9 0 0 17864.1 0 0 -17864.1 0 0 1944.06 0 0 -1944.06
0 0 32848.3 0 0 -32848.3 0 0 18301.8 0 0 -18301.8 0 0 2162.84 0 0 -2162.84
0 0 33553.7 0 0 -33553.7 0 0 18584.3 0 0 -18584.3 0 0 2411.33 0 0 -2411.33
0 0 34173.1 0 0 -34173.1 0 0 18725.9 0 0 -18725.9 0 0 2683.95 0 0 -2683.95
0 0 34712 0 0 -34712 0 0 18746 0 0 -18746 0 0 2973.66 0 0 -2973.66
0 0 35180.5 0 0 -35180.5 0 0 18668.8 0 0 -18668.8 0 0 3272.26 0 0 -3272.26
0 0 35590.6 0 0 -35590.6 0 0 18521.9 0 0 -18521.9 0 0 3570.77 0 0 -3570.77
0 0 35955.5 0 0 -35955.5 0 0 18334.5 0 0 -18334.5 0 0 3859.85 0 0 -3859.85
0 0 36291.7 0 0 -36291.7 0 0 18136 0 0 -18136 0 0 4130.25 0 0 -4130.25
0 0 36621 0 0 -36621 0 0 17953.5 0 0 -17953.5 0 0 4373.27 0 0 -4373.27
0 0 36970.6 0 0 -36970.6 0 0 17810.6 0 0 -17810.6 0 0 4581.16 0 0 -4581.16
0 0 37366.1 0 0 -37366.1 0 0 17727.4 0 0 -17727.4 0 0 4747.38 0 0 -4747.38
0 0 37820.6 0 0 -37820.6 0 0 17721.4 0 0 -17721.4 0 0 4866.81 0 0 -4866.81
0 0 38324.5 0 0 -38324.5 0 0 17807.8 0 0 -17807.8 0 0 4935.92 0 0 -4935.92
0 0 38845.6 0 0 -38845.6 0 0 17998.6 0 0 -17998.6 0 0 4952.96 0 0 -4952.96
0 0 39339.4 0 0 -39339.4 0 0 18300 0 0 -18300 0 0 4918.24 0 0 -4918.24
0 0 39683 0 0 -39683 0 0 18619.4 0 0 -18619.4 0 0 4854.81 0 0 -4854.81
0 0 40012.1 0 0 -40012.1 0 0 19107 0 0 -19107 0 0 4734.73 0 0 -4734.73
0 0 40198.3 0 0 -40198.3 0 0 19673.1 0 0 -19673.1 0 0 4575.37 0 0 -4575.37
0 0 40218 0 0 -40218 0 0 20287.3 0 0 -20287.3 0 0 4384.94 0 0 -4384.94
0 0 40052.2 0 0 -40052.2 0 0 20912.2 0 0 -20912.2 0 0 4172.97 0 0 -4172.97
0 0 39681.5 0 0 -39681.5 0 0 21506.1 0 0 -21506.1 0 0 3949.78 0 0 -3949.78
0 0 39087 0 0 -39087 0 0 22024.9 0 0 -22024.9 0 0 3725.96 0 0 -3725.96
0 0 38251.1 0 0 -38251.1 0 0 22424.9 0 0 -22424.9 0 0 3511.74 0 0 -3511.74
0 0 37156.5 0 0 -37156.5 0 0 22664.6 0 0 -22664.6 0 0 3316.45 0 0 -3316.45
0 0 35788.4 0 0 -35788.4 0 0 22707.2 0 0 -22707.2 0 0 3148.05 0 0 -3148.05
0 0 34136.5 0 0 -34136.5 0 0 22521.7 0 0 -22521.7 0 0 3012.64 0 0 -3012.64
0 0 32194.4 0 0 -32194.4 0 0 22084.6 0 0 -22084.6 0 0 2914.1 0 0 -2914.1
0 0 29962.5 0 0 -29962.5 0 0 21381.2 0 0 -21381.2 0 0 2853.92 0 0 -2853.92
0 0 27457 0 0 -27457 0 0 20404.1 0 0 -20404.1 0 0 2831.05 0 0 -2831.05
0 0 24716.7 0 0 -24716.7 0 0 19153.3 0 0 -19153.3 0 0 2841.99 0 0 -2841.99
0 0 21799.7 0 0 -21799.7 0 0 17636.8 0 0 -17636.8 0 0 2880.81 0 0 -2880.81
0 0 18766.3 0 0 -18766.3 0 0 15873.4 0 0 -15873.4 0 0 2939.12 0 0 -2939.12
0 0 15671.8 0 0 -15671.8 0 0 13893.4 0 0 -13893.4 0 0 3006.36 0 0 -3006.36
0 0 12568.8 0 0 -12568.8 0 0 11736.8 0 0 -11736.8 0 0 3070.3 0 0 -3070.3
0 0 9508.9 0 0 -9508.9 0 0 9451.4 0 0 -9451.4 0 0 3117.55 0 0 -3117.55
0 0 6540.8 0 0 -6540.8 0 0 7090.52 0 0 -7090.52 0 0 3134.27 0 0 -3134.27
0 0 3705.85 0 0 -3705.85 0 0 4711.45 0 0 -4711.45 0 0 3106.78 0 0 -3106.78
0 0 1034.51 0 0 -1034.51 0 0 2374.58 0 0 -2374.58 0 0 3022.15 0 0 -3022.15
0 0 -1438.5 0 0 1438.5 0 0 144.947 0 0 -144.947 0 0 2869.64 0 0 -2869.64
0 0 -3740.8 0 0 3740.8 0 0 -1905.64 0 0 1905.64 0 0 2640.94 0 0 -2640.94
0 0 -5895.11 0 0 5895.11 0 0 -3758.01 0 0 3758.01 0 0 2329.23 0 0 -2329.23
0 0 -7900.97 0 0 7900.97 0 0 -5379.33 0 0 5379.33 0 0 1931.8 0 0 -1931.8
0 0 -9738.42 0 0 9738.42 0 0 -6760.46 0 0 6760.46 0 0 1450.69 0 0 -1450.69
0 0 -11384.3 0 0 11384.3 0 0 -7898.76 0 0 7898.76 0 0 890.565 0 0 -890.565
0 0 -12827.1 0 0 12827.1 0 0 -8804.89 0 0 8804.89 0 0 260.81 0 0 -260.81
0 0 -14082.3 0 0 14082.3 0 0 -9493.76 0 0 9493.76 0 0 -417.331 0 0 417.331
0 0 -15189.1 0 0 15189.1 0 0 -9992.46 0 0 9992.46 0 0 -1136.6 0 0 1136.6
0 0 -16200.3 0 0 16200.3 0 0 -10330.1 0 0 10330.1 0 0 -1883.68 0 0 1883.68
0 0 -17169.7 0 0 17169.7 0 0 -10545.2 0 0 10545.2 0 0 -2639.08 0 0 2639.08
0 0 -18152.7 0 0 18152.7 0 0 -10680.9 0 0 10680.9 0 0 -3383.86 0 0 3383.86
0 0 -19209.2 0 0 19209.2 0 0 -10781.2 0 0 10781.2 0 0 -4099.47 0 0 4099.47
0 0 -20400.3 0 0 20400.3 0 0 -10892.1 0 0 10892.1 0 0 -4766.61 0 0 4766.61
0 0 -21783 0 0 21783 0 0 -11057.9 0 0 11057.9 0 0 -5368.35 0 0 5368.35
0 0 -23401.9 0 0 23401.9 0 0 -11321.1 0 0 11321.1 0 0 -5888.97 0 0 5888.97
0 0 -25278.8 0 0 25278.8 0 0 -11721.8 0 0 11721.8 0 0 -6315.38 0 0 6315.38
0 0 -27404.2 0 0 27404.2 0 0 -12297.1 0 0 12297.1 0 0 -6637.51 0 0 6637.51
0 0 -29737.8 0 0 29737.8 0 0 -13077.7 0 0 13077.7 0 0 -6848.7 0 0 6848.7
0 0 -32221.4 0 0 32221.4 0 0 -14084.3 0 0 14084.3 0 0 -6946.43 0 0 6946.43
0 0 -34793.3 0 0 34793.3 0 0 -15322.9 0 0 15322.9 0 0 -6932.6 0 0 6932.6
0 0 -37395.9 0 0 37395.9 0 0 -16782.7 0 0 16782.7 0 0 -6813.59 0 0 6813.59
0 0 -39981 0 0 39981 0 0 -18435.6 0 0 18435.6 0 0 -6600.21 0 0 6600.21
0 0 -42510.4 0 0 42510.4 0 0 -20237.4 0 0 20237.4 0 0 -6307.12 0 0 6307.12
0 0 -44954.5 0 0 44954.5 0 0 -22130.6 0 0 22130.6 0 0 -5952.17 0 0 5952.17
0 0 -47292.2 0 0 47292.2 0 0 -24047.5 0 0 24047.5 0 0 -5555.54 0 0 5555.54
0 0 -49506.7 0 0 49506.7 0 0 -25915 0 0 25915 0 0 -5138.66 0 0 5138.66
0 0 -51579.3 0 0 51579.3 0 0 -27660.3 0 0 27660.3 0 0 -4723.09 0 0 4723.09
0 0 -53486.9 0 0 53486.9 0 0 -29215.3 0 0 29215.3 0 0 -4329.43 0 0 4329.43
0 0 -55205 0 0 55205 0 0 -30519.8 0 0 30519.8 0 0 -3976.36 0 0 3976.36
0 0 -56711.5 0 0 56711.5 0 0 -31525.1 0 0 31525.1 0 0 -3679.77 0 0 3679.77
0 0 -57890.1 0 0 57890.1 0 0 -32188.4 0 0 32188.4 0 0 -3452.87 0 0 3452.87
0 0 -58782.3 0 0 58782.3 0 0 -32416.1 0 0 32416.1 0 0 -3309.06 0 0 3309.06
0 0 -59378.1 0 0 59378.1 0 0 -32339.2 0 0 32339.2 0 0 -3240.42 0 0 3240.42
0 0 -59775.1 0 0 59775.1 0 0 -31934.2 0 0 31934.2 0 0 -3251.33 0 0 3251.33
0 0 -59960.3 0 0 59960.3 0 0 -31240.4 0 0 31240.4 0 0 -3333.87 0 0 3333.87
0 0 -59602.5 0 0 59602.5 0 0 -30331.1 0 0 30331.1 0 0 -3480 0 0 3480
0 0 -58103.2 0 0 58103.2 0 0 -29406.7 0 0 29406.7 0 0 -3666.37 0 0 3666.37
0 0 -56484.3 0 0 56484.3 0 0 -28214.5 0 0 28214.5 0 0 -3909.23 0 0 3909.23
0 0 -54650.6 0 0 54650.6 0 0 -26918.2 0 0 26918.2 0 0 -4175.54 0 0 4175.54
0 0 -52698.5 0 0 52698.5 0 0 -25515.7 0 0 25515.7 0 0 -4461.82 0 0 4461.82
0 0 -50687.4 0 0 50687.4 0 0 -24064.7 0 0 24064.7 0 0 -4749.2 0 0 4749.2
0 0 -48696.4 0 0 48696.4 0 0 -22615.7 0 0 22615.7 0 0 -5022.01 0 0 5022.01
0 0 -46800.9 0 0 46800.9 0 0 -21213.5 0 0 21213.5 0 0 -5265.81 0 0 5265.81
0 0 -45071.7 0 0 45071.7 0 0 -19903.4 0 0 19903.4 0 0 -5466.22 0 0 5466.22
0 0 -43570 0 0 43570 0 0 -18728.2 0 0 18728.2 0 0 -5610.79 0 0 5610.79
0 0 -42352.7 0 0 42352.7 0 0 -17722.8 0 0 17722.8 0 0 -5689.44 0 0 5689.44
0 0 -41463.8 0 0 41463.8 0 0 -16916.7 0 0 16916.7 0 0 -5694.58 0 0 5694.58
0 0 -40933.7 0 0 40933.7 0 0 -16332.1 0 0 16332.1 0 0 -5621.55 0 0 5621.55
0 0 -40780.5 0 0 40780.5 0 0 -15982.6 0 0 15982.6 0 0 -5469 0 0 5469
0 0 -41007.2 0 0 41007.2 0 0 -15873.8 0 0 15873.8 0 0 -5238.83 0 0 5238.83
0 0 -41602.6 0 0 41602.6 0 0 -16002.7 0 0 16002.7 0 0 -4936.14 0 0 4936.14
0 0 -42510.7 0 0 42510.7 0 0 -16361.7 0 0 16361.7 0 0 -4569.11 0 0 4569.11
0 0 -43441.5 0 0 43441.5 0 0 -16975.4 0 0 16975.4 0 0 -4146.37 0 0 4146.37
0 0 -44353.2 0 0 44353.2 0 0 -17803.8 0 0 17803.8 0 0 -3682.9 0 0 3682.9
0 0 -45193.5 0 0 45193.5 0 0 -18804.9 0 0 18804.9 0 0 -3195.45 0 0 3195.45
0 0 -45932.3 0 0 45932.3 0 0 -19918.5 0 0 19918.5 0 0 -2703.15 0 0 2703.15
0 0 -46433.1 0 0 46433.1 0 0 -20846.7 0 0 20846.7 0 0 -2319.15 0 0 2319.15
0 0 -46842.6 0 0 46842.6 0 0 -21769.4 0 0 21769.4 0 0 -1955.08 0 0 1955.08
0 0 -47150.5 0 0 47150.5 0 0 -22651.3 0 0 22651.3 0 0 -1620.85 0 0 1620.85
0 0 -47346.8 0 0 47346.8 0 0 -23458.5 0 0 23458.5 0 0 -1325.73 0 0 1325.73
0 0 -47421.7 0 0 47421.7 0 0 -24160.2 0 0 24160.2 0 0 -1078 0 0 1078
0 0 -47365.9 0 0 47365.9 0 0 -24728.9 0 0 24728.9 0 0 -884.733 0 0 884.733
0 0 -47169.6 0 0 47169.6 0 0 -25142.5 0 0 25142.5 0 0 -751.516 0 0 751.516
0 0 -46820.3 0 0 46820.3 0 0 -25384.5 0 0 25384.5 0 0 -682.27 0 0 682.27
0 0 -46301.6 0 0 46301.6 0 0 -25445.5 0 0 25445.5 0 0 -679.114 0 0 679.114
0 0 -45593.7 0 0 45593.7 0 0 -25322.4 0 0 25322.4 0 0 -742.318 0 0 742.318
0 0 -44675.3 0 0 44675.3 0 0 -25018.8 0 0 25018.8 0 0 -870.324 0 0 870.324
0 0 -43528.1 0 0 43528.1 0 0 -24543 0 0 24543 0 0 -1059.86 0 0 1059.86
0 0 -42142.8 0 0 42142.8 0 0 -23907.4 0 0 23907.4 0 0 -1306.12 0 0 1306.12
0 0 -40522.2 0 0 40522.2 0 0 -23126.4 0 0 23126.4 0 0 -1602.91 0 0 1602.91
0 0 -38683.4 0 0 38683.4 0 0 -22216.1 0 0 22216.1 0 0 -1942.85 0 0 1942.85
0 0 -36654.9 0 0 36654.9 0 0 -21193.9 0 0 21193.9 0 0 -2317.56 0 0 2317.56
0 0 -34471.1 0 0 34471.1 0 0 -20079.2 0 0 20079.2 0 0 -2717.76 0 0 2717.76
0 0 -32165.9 0 0 32165.9 0 0 -18893.1 0 0 18893.1 0 0 -3133.51 0 0 3133.51
0 0 -29770.6 0 0 29770.6 0 0 -17658.9 0 0 17658.9 0 0 -3554.37 0 0 3554.37
0 0 -27313.5 0 0 27313.5 0 0 -16400.8 0 0 16400.8 0 0 -3969.69 0 0 3969.69
0 0 -24822.3 0 0 24822.3 0 0 -15142.5 0 0 15142.5 0 0 -4368.92 0 0 4368.92
0 0 -22325 0 0 22325 0 0 -13906.9 0 0 13906.9 0 0 -4741.86 0 0 4741.86
0 0 -19848.6 0 0 19848.6 0 0 -12715 0 0 12715 0 0 -5078.87 0 0 5078.87
0 0 -17417.1 0 0 17417.1 0 0 -11585.7 0 0 11585.7 0 0 -5371.16 0 0 5371.16
0 0 -15050.9 0 0 15050.9 0 0 -10535.3 0 0 10535.3 0 0 -5610.92 0 0 5610.92
0 0 -12767.3 0 0 12767.3 0 0 -9576.61 0 0 9576.61 0 0 -5791.56 0 0 5791.56
0 0 -10580.4 0 0 10580.4 0 0 -8718.94 0 0 8718.94 0 0 -5907.85 0 0 5907.85
0 0 -8502.55 0 0 8502.55 0 0 -7967.24 0 0 7967.24 0 0 -5956 0 0 5956
0 0 -6543 0 0 6543 0 0 -7322.26 0 0 7322.26 0 0 -5933.81 0 0 5933.81
0 0 -4708.51 0 0 4708.51 0 0 -6780.52 0 0 6780.52 0 0 -5840.58 0 0 5840.58
0 0 -3003.04 0 0 3003.04 0 0 -6334.49 0 0 6334.49 0 0 -5677.18 0 0 5677.18
0 0 -1427.55 0 0 1427.55 0 0 -5972.96 0 0 5972.96 0 0 -5445.96 0 0 5445.96
0 0 19.547 0 0 -19.547 0 0 -5681.39 0 0 5681.39 0 0 -5150.64 0 0 5150.64
0 0 1341.94 0 0 -1341.94 0 0 -5442.29 0 0 5442.29 0 0 -4796.18 0 0 4796.18
0 0 2275.92 0 0 -2275.92 0 0 -5207.69 0 0 5207.69 0 0 -4389.18 0 0 4389.18
0 0 2675.01 0 0 -2675.01 0 0 -4874.93 0 0 4874.93 0 0 -3944.65 0 0 3944.65
0 0 3081.4 0 0 -3081.4 0 0 -4618.21 0 0 4618.21 0 0 -3452.31 0 0 3452.31
0 0 3416.33 0 0 -3416.33 0 0 -4321.05 0 0 4321.05 0 0 -2930.57 0 0 2930.57
0 0 3705.51 0 0 -3705.51 0 0 -4015.95 0 0 4015.95 0 0 -2382.31 0 0 2382.31
0 0 3971.01 0 0 -3971.01 0 0 -3674.31 0 0 3674.31 0 0 -1816.76 0 0 1816.76
0 0 4248.15 0 0 -4248.15 0 0 -3290.24 0 0 3290.24 0 0 -1241.46 0 0 1241.46
0 0 4569.11 0 0 -4569.11 0 0 -2852.87 0 0 2852.87 0 0 -664.187 0 0 664.187
0 0 4961.16 0 0 -4961.16 0 0 -2351.63 0 0 2351.63 0 0 -92.9325 0 0 92.9325
0 0 5451.12 0 0 -5451.12 0 0 -1777.74 0 0 1777.74 0 0 473.407 0 0 -473.407
0 0 6062.89 0 0 -6062.89 0 0 -1126.85 0 0 1126.85 0 0 1019.98 0 0 -1019.98
0 0 6814.21 0 0 -6814.21 0 0 -389.303 0 0 389.303 0 0 1540.36 0 0 -1540.36
0 0 7718.97 0 0 -7718.97 0 0 447.858 0 0 -447.858 0 0 2029.37 0 0 -2029.37
0 0 8781.28 0 0 -8781.28 0 0 1377.15 0 0 -1377.15 0 0 2481.06 0 0 -2481.06
0 0 10004.5 0 0 -10004.5 0 0 2400.86 0 0 -2400.86 0 0 2892.12 0 0 -2892.12
0 0 11386.4 0 0 -11386.4 0 0 3518.21 0 0 -3518.21 0 0 3259.22 0 0 -3259.22
0 0 12923 0 0 -12923 0 0 4724.89 0 0 -4724.89 0 0 3580.63 0 0 -3580.63
0 0 14608.5 0 0 -14608.5 0 0 6015.06 0 0 -6015.06 0 0 3855.36 0 0 -3855.36
0 0 16435.4 0 0 -16435.4 0 0 7380.26 0 0 -7380.26 0 0 4083.53 0 0 -4083.53
0 0 18392.4 0 0 -18392.4 0 0 8810.14 0 0 -8810.14 0 0 4266.22 0 0 -4266.22
0 0 20464 0 0 -20464 0 0 10292.5 0 0 -10292.5 0 0 4405.49 0 0 -4405.49
0 0 22629.6 0 0 -22629.6 0 0 11814.1 0 0 -11814.1 0 0 4504.2 0 0 -4504.2
0 0 24864.3 0 0 -24864.3 0 0 13360.4 0 0 -13360.4 0 0 4565.92 0 0 -4565.92
0 0 27139.5 0 0 -27139.5 0 0 14916.4 0 0 -14916.4 0 0 4594.83 0 0 -4594.83
0 0 29424.3 0 0 -29424.3 0 0 16466 0 0 -16466 0 0 4595.65 0 0 -4595.65
0 0 31687 0 0 -31687 0 0 17992.8 0 0 -17992.8 0 0 4573.49 0 0 -4573.49
0 0 33894.9 0 0 -33894.9 0 0 19479.7 0 0 -19479.7 0 0 4533.76 0 0 -4533.76
0 0 36015.7 0 0 -36015.7 0 0 20909.9 0 0 -20909.9 0 0 4481.96 0 0 -4481.96
0 0 38019 0 0 -38019 0 0 22266.3 0 0 -22266.3 0 0 4423.61 0 0 -4423.61
0 0 39876.7 0 0 -39876.7 0 0 23532.4 0 0 -23532.4 0 0 4364.08 0 0 -4364.08
0 0 41564 0 0 -41564 0 0 24692.2 0 0 -24692.2 0 0 4308.47 0 0 -4308.47
0 0 43060.4 0 0 -43060.4 0 0 25730.7 0 0 -25730.7 0 0 4261.43 0 0 -4261.43
0 0 44350.1 0 0 -44350.1 0 0 26634 0 0 -26634 0 0 4227.13 0 0 -4227.13
0 0 45422.5 0 0 -45422.5 0 0 27389.7 0 0 -27389.7 0 0 4209.05 0 0 -4209.05
0 0 46272.8 0 0 -46272.8 0 0 27987.6 0 0 -27987.6 0 0 4209.91 0 0 -4209.91
0 0 46901 0 0 -46901 0 0 28419.7 0 0 -28419.7 0 0 4231.59 0 0 -4231.59
0 0 47311.4 0 0 -47311.4 0 0 28680.9 0 0 -28680.9 0 0 4275.04 0 0 -4275.04
0 0 47511.6 0 0 -47511.6 0 0 28769.1 0 0 -28769.1 0 0 4340.23 0 0 -4340.23
0 0 47512.6 0 0 -47512.6 0 0 28685.8 0 0 -28685.8 0 0 4426.19 0 0 -4426.19
0 0 47330.4 0 0 -47330.4 0 0 28434.7 0 0 -28434.7 0 0 4530.99 0 0 -4530.99
0 0 46985.1 0 0 -46985.1 0 0 28023.7 0 0 -28023.7 0 0 4651.77 0 0 -4651.77
0 0 46500.9 0 0 -46500.9 0 0 27463.8 0 0 -27463.8 0 0 4784.76 0 0 -4784.76
0 0 45904.3 0 0 -45904.3 0 0 26769 0 0 -26769 0 0 4925.52 0 0 -4925.52
0 0 45222.6 0 0 -45222.6 0 0 25956.5 0 0 -25956.5 0 0 5068.86 0 0 -5068.86
0 0 44482.8 0 0 -44482.8 0 0 25046.4 0 0 -25046.4 0 0 5209.13 0 0 -5209.13
0 0 43710.7 0 0 -43710.7 0 0 24060.9 0 0 -24060.9 0 0 5340.34 0 0 -5340.34
0 0 42931.2 0 0 -42931.2 0 0 23024.1 0 0 -23024.1 0 0 5456.32 0 0 -5456.32
0 0 42168.6 0 0 -42168.6 0 0 21960.6 0 0 -21960.6 0 0 5550.96 0 0 -5550.96
0 0 41447.5 0 0 -41447.5 0 0 20895.5 0 0 -20895.5 0 0 5618.42 0 0 -5618.42
0 0 40791.4 0 0 -40791.4 0 0 19852.8 0 0 -19852.8 0 0 5653.28 0 0 -5653.28
0 0 40222.5 0 0 -40222.5 0 0 18855.7 0 0 -18855.7 0 0 5650.76 0 0 -5650.76
0 0 39760.5 0 0 -39760.5 0 0 17925.5 0 0 -17925.5 0 0 5606.84 0 0 -5606.84
0 0 39421.8 0 0 -39421.8 0 0 17081.6 0 0 -17081.6 0 0 5518.47 0 0 -5518.47
0 0 39219.8 0 0 -39219.8 0 0 16340.3 0 0 -16340.3 0 0 5383.61 0 0 -5383.61
0 0 39164.8 0 0 -39164.8 0 0 15715 0 0 -15715 0 0 5201.4 0 0 -5201.4
0 0 39264.9 0 0 -39264.9 0 0 15215.5 0 0 -15215.5 0 0 4972.2 0 0 -4972.2
0 0 39526.5 0 0 -39526.5 0 0 14847.8 0 0 -14847.8 0 0 4697.6 0 0 -4697.6
0 0 39929.4 0 0 -39929.4 0 0 14616.2 0 0 -14616.2 0 0 4380.38 0 0 -4380.38
0 0 40347.6 0 0 -40347.6 0 0 14550.4 0 0 -14550.4 0 0 4022.54 0 0 -4022.54
0 0 40997.9 0 0 -40997.9 0 0 14594.4 0 0 -14594.4 0 0 3631.91 0 0 -3631.91
0 0 41800.9 0 0 -41800.9 0 0 14755.4 0 0 -14755.4 0 0 3215.49 0 0 -3215.49
0 0 42741.2 0 0 -42741.2 0 0 15026.9 0 0 -15026.9 0 0 2778.05 0 0 -2778.05
0 0 43812.5 0 0 -43812.5 0 0 15385.8 0 0 -15385.8 0 0 2329.61 0 0 -2329.61
0 0 44969.4 0 0 -44969.4 0 0 15833.3 0 0 -15833.3 0 0 1876.33 0 0 -1876.33
0 0 46175.5 0 0 -46175.5 0 0 16348.1 0 0 -16348.1 0 0 1427.73 0 0 -1427.73
0 0 47331.1 0 0 -47331.1 0 0 16924.6 0 0 -16924.6 0 0 991.862 0 0 -991.862
0 0 48418.3 0 0 -48418.3 0 0 17546.3 0 0 -17546.3 0 0 577.367 0 0 -577.367
0 0 49396.1 0 0 -49396.1 0 0 18196.9 0 0 -18196.9 0 0 192.877 0 0 -192.877
0 0 50222.1 0 0 -50222.1 0 0 18857.8 0 0 -18857.8 0 0 -152.859 0 0 152.859
0 0 50856.5 0 0 -50856.5 0 0 19513.5 0 0 -19513.5 0 0 -448.098 0 0 448.098
0 0 51262.1 0 0 -51262.1 0 0 20142.4 0 0 -20142.4 0 0 -691.351 0 0 691.351
0 0 51407.5 0 0 -51407.5 0 0 20726.7 0 0 -20726.7 0 0 -875.79 0 0 875.79
0 0 51271.4 0 0 -51271.4 0 0 21245.4 0 0 -21245.4 0 0 -996.268 0 0 996.268
0 0 50846.6 0 0 -50846.6 0 0 21678.5 0 0 -21678.5 0 0 -1048.49 0 0 1048.49
0 0 50134.5 0 0 -50134.5 0 0 22007.3 0 0 -22007.3 0 0 -1029.44 0 0 1029.44
0 0 49142.8 0 0 -49142.8 0 0 22214.6 0 0 -22214.6 0 0 -937.421 0 0 937.421
0 0 47884 0 0 -47884 0 0 22287 0 0 -22287 0 0 -772.4 0 0 772.4
0 0 46375.2 0 0 -46375.2 0 0 22214.2 0 0 -22214.2 0 0 -535.945 0 0 535.945
0 0 44638.4 0 0 -44638.4 0 0 21989.8 0 0 -21989.8 0 0 -231.205 0 0 231.205
0 0 42700.3 0 0 -42700.3 0 0 21613.5 0 0 -21613.5 0 0 143.057 0 0 -143.057
0 0 40594.7 0 0 -40594.7 0 0 21084.7 0 0 -21084.7 0 0 575.008 0 0 -575.008
0 0 38359.5 0 0 -38359.5 0 0 20410.8 0 0 -20410.8 0 0 1056.95 0 0 -1056.95
0 0 36034.9 0 0 -36034.9 0 0 19601.7 0 0 -19601.7 0 0 1579.21 0 0 -1579.21
0 0 33658.7 0 0 -33658.7 0 0 18673.4 0 0 -18673.4 0 0 2131.4 0 0 -2131.4
0 0 31264.2 0 0 -31264.2 0 0 17646.1 0 0 -17646.1 0 0 2702.08 0 0 -2702.08
0 0 28881.6 0 0 -28881.6 0 0 16544 0 0 -16544 0 0 3279.01 0 0 -3279.01
0 0 26538.4 0 0 -26538.4 0 0 15394 0 0 -15394 0 0 3849.43 0 0 -3849.43
0 0 24258.9 0 0 -24258.9 0 0 14225 0 0 -14225 0 0 4400.45 0 0 -4400.45
0 0 22063.2 0 0 -22063.2 0 0 13066.5 0 0 -13066.5 0 0 4919.41 0 0 -4919.41
0 0 19968.8 0 0 -19968.8 0 0 11948 0 0 -11948 0 0 5394.29 0 0 -5394.29
0 0 17991.2 0 0 -17991.2 0 0 10896.7 0 0 -10896.7 0 0 5813.94 0 0 -5813.94
0 0 16145.2 0 0 -16145.2 0 0 9937.13 0 0 -9937.13 0 0 6168.4 0 0 -6168.4
0 0 14444.2 0 0 -14444.2 0 0 9089.84 0 0 -9089.84 0 0 6449.16 0 0 -6449.16
0 0 12898.3 0 0 -12898.3 0 0 8371.09 0 0 -8371.09 0 0 6649.35 0 0 -6649.35
0 0 11512.3 0 0 -11512.3 0 0 7792.49 0 0 -7792.49 0 0 6763.91 0 0 -6763.91
0 0 10286.3 0 0 -10286.3 0 0 7360.52 0 0 -7360.52 0 0 6789.76 0 0 -6789.76
0 0 9215.55 0 0 -9215.55 0 0 7076.14 0 0 -7076.14 0 0 6725.82 0 0 -6725.82
0 0 8291.68 0 0 -8291.68 0 0 6934.65 0 0 -6934.65 0 0 6573.06 0 0 -6573.06
0 0 7502.54 0 0 -7502.54 0 0 6925.74 0 0 -6925.74 0 0 6334.43 0 0 -6334.43
0 0 6832.41 0 0 -6832.41 0 0 7033.89 0 0 -7033.89 0 0 6014.78 0 0 -6014.78
0 0 6261.89 0 0 -6261.89 0 0 7238.82 0 0 -7238.82 0 0 5620.73 0 0 -5620.73
0 0 5767.56 0 0 -5767.56 0 0 7516.3 0 0 -7516.3 0 0 5160.43 0 0 -5160.43
0 0 5321.78 0 0 -5321.78 0 0 7838.97 0 0 -7838.97 0 0 4643.32 0 0 -4643.32
0 0 4892.92 0 0 -4892.92 0 0 8177.22 0 0 -8177.22 0 0 4079.92 0 0 -4079.92
0 0 4446.13 0 0 -4446.13 0 0 8500.04 0 0 -8500.04 0 0 3481.44 0 0 -3481.44
0 0 4569.59 0 0 -4569.59 0 0 8685.41 0 0 -8685.41 0 0 2862.99 0 0 -2862.99
0 0 4624.23 0 0 -4624.23 0 0 8764.66 0 0 -8764.66 0 0 2237.81 0 0 -2237.81
0 0 4602.22 0 0 -4602.22 0 0 8783.93 0 0 -8783.93 0 0 1603.9 0 0 -1603.9
0 0 4443.86 0 0 -4443.86 0 0 8662.73 0 0 -8662.73 0 0 983.76 0 0 -983.76
0 0 4122.66 0 0 -4122.66 0 0 8415.33 0 0 -8415.33 0 0 379.171 0 0 -379.171
0 0 3615.87 0 0 -3615.87 0 0 8009.17 0 0 -8009.17 0 0 -193.131 0 0 193.131
0 0 2910.53 0 0 -2910.53 0 0 7439.63 0 0 -7439.63 0 0 -724.495 0 0 724.495
0 0 2010.32 0 0 -2010.32 0 0 6690.18 0 0 -6690.18 0 0 -1215.54 0 0 1215.54
0 0 916.288 0 0 -916.288 0 0 5760.58 0 0 -5760.58 0 0 -1660.29 0 0 1660.29
0 0 -370.133 0 0 370.133 0 0 4646.16 0 0 -4646.16 0 0 -2055.14 0 0 2055.14
0 0 -1851.95 0 0 1851.95 0 0 3347.89 0 0 -3347.89 0 0 -2397 0 0 2397
0 0 -3514.57 0 0 3514.57 0 0 1879.33 0 0 -1879.33 0 0 -2684.93 0 0 2684.93
0 0 -5343.75 0 0 5343.75 0 0 260.297 0 0 -260.297 0 0 -2919.69 0 0 2919.69
0 0 -7321.78 0 0 7321.78 0 0 -1492.14 0 0 1492.14 0 0 -3103.12 0 0 3103.12
0 0 -9423.58 0 0 9423.58 0 0 -3369.8 0 0 3369.8 0 0 -3239.52 0 0 3239.52
0 0 -11622.5 0 0 11622.5 0 0 -5343.9 0 0 5343.9 0 0 -3334.01 0 0 3334.01
0 0 -13883.8 0 0 13883.8 0 0 -7388.91 0 0 7388.91 0 0 -3392.23 0 0 3392.23
0 0 -16164.9 0 0 16164.9 0 0 -9475.56 0 0 9475.56 0 0 -3420.93 0 0 3420.93
0 0 -18401.1 0 0 18401.1 0 0 -11578.3 0 0 11578.3 0 0 -3427.01 0 0 3427.01
0 0 -20575.8 0 0 20575.8 0 0 -13659.1 0 0 13659.1 0 0 -3418.48 0 0 3418.48
0 0 -22668.5 0 0 22668.5 0 0 -15682.1 0 0 15682.1 0 0 -3403.37 0 0 3403.37
0 0 -24667.1 0 0 24667.1 0 0 -17610.3 0 0 17610.3 0 0 -3389.52 0 0 3389.52
0 0 -26565.6 0 0 26565.6 0 0 -19408 0 0 19408 0 0 -3384.52 0 0 3384.52
0 0 -28361.4 0 0 28361.4 0 0 -21042.6 0 0 21042.6 0 0 -3395.17 0 0 3395.17
0 0 -30052.1 0 0 30052.1 0 0 -22485.5 0 0 22485.5 0 0 -3427.31 0 0 3427.31
0 0 -31635.2 0 0 31635.2 0 0 -23714.1 0 0 23714.1 0 0 -3485.52 0 0 3485.52
0 0 -33076.3 0 0 33076.3 0 0 -24717.5 0 0 24717.5 0 0 -3572.89 0 0 3572.89
0 0 -34138.8 0 0 34138.8 0 0 -25517.7 0 0 25517.7 0 0 -3689.64 0 0 3689.64
0 0 -35038.8 0 0 35038.8 0 0 -26091.8 0 0 26091.8 0 0 -3835.69 0 0 3835.69
0 0 -35726.9 0 0 35726.9 0 0 -26422.2 0 0 26422.2 0 0 -4014.22 0 0 4014.22
0 0 -36219.2 0 0 36219.2 0 0 -26531.3 0 0 26531.3 0 0 -4218.9 0 0 4218.9
0 0 -36520.6 0 0 36520.6 0 0 -26420.8 0 0 26420.8 0 0 -4448.64 0 0 4448.64
0 0 -36639.9 0 0 36639.9 0 0 -26111.6 0 0 26111.6 0 0 -4697.16 0 0 4697.16
0 0 -36594.2 0 0 36594.2 0 0 -25621.1 0 0 25621.1 0 0 -4959.17 0 0 4959.17
0 0 -36405.6 0 0 36405.6 0 0 -24972.6 0 0 24972.6 0 0 -5227.75 0 0 5227.75
0 0 -36101.8 0 0 36101.8 0 0 -24191.7 0 0 24191.7 0 0 -5495.47 0 0 5495.47
0 0 -35712 0 0 35712 0 0 -23306.6 0 0 23306.6 0 0 -5754.36 0 0 5754.36
0 0 -35266.6 0 0 35266.6 0 0 -22346.6 0 0 22346.6 0 0 -5996.27 0 0 5996.27
0 0 -34796.8 0 0 34796.8 0 0 -21342 0 0 21342 0 0 -6213.09 0 0 6213.09
0 0 -34333.6 0 0 34333.6 0 0 -20323.2 0 0 20323.2 0 0 -6396.95 0 0 6396.95
0 0 -33906.5 0 0 33906.5 0 0 -19319.7 0 0 19319.7 0 0 -6540.52 0 0 6540.52
0 0 -33542.8 0 0 33542.8 0 0 -18359.5 0 0 18359.5 0 0 -6637.23 0 0 6637.23
0 0 -33267.5 0 0 33267.5 0 0 -17468.1 0 0 17468.1 0 0 -6681.43 0 0 6681.43
0 0 -33102.4 0 0 33102.4 0 0 -16668.2 0 0 16668.2 0 0 -6668.65 0 0 6668.65
0 0 -33065.2 0 0 33065.2 0 0 -15979.2 0 0 15979.2 0 0 -6595.72 0 0 6595.72
0 0 -33167.9 0 0 33167.9 0 0 -15416.7 0 0 15416.7 0 0 -6460.88 0 0 6460.88
0 0 -33416.6 0 0 33416.6 0 0 -14992.4 0 0 14992.4 0 0 -6263.85 0 0 6263.85
0 0 -33811.3 0 0 33811.3 0 0 -14713.4 0 0 14713.4 0 0 -6005.91 0 0 6005.91
0 0 -34348.1 0 0 34348.1 0 0 -14582.5 0 0 14582.5 0 0 -5689.91 0 0 5689.91
0 0 -35019.9 0 0 35019.9 0 0 -14597.2 0 0 14597.2 0 0 -5320.24 0 0 5320.24
0 0 -35810.5 0 0 35810.5 0 0 -14748.8 0 0 14748.8 0 0 -4902.87 0 0 4902.87
0 0 -36645.3 0 0 36645.3 0 0 -15038.1 0 0 15038.1 0 0 -4444.25 0 0 4444.25
0 0 -37523.7 0 0 37523.7 0 0 -15448.6 0 0 15448.6 0 0 -3952.64 0 0 3952.64
0 0 -38431.6 0 0 38431.6 0 0 -15956.5 0 0 15956.5 0 0 -3437.98 0 0 3437.98
0 0 -39355.8 0 0 39355.8 0 0 -16540.3 0 0 16540.3 0 0 -2910.03 0 0 2910.03
0 0 -40281.5 0 0 40281.5 0 0 -17173.2 0 0 17173.2 0 0 -2379.71 0 0 2379.71
0 0 -41193.6 0 0 41193.6 0 0 -17827.6 0 0 17827.6 0 0 -1857.88 0 0 1857.88
0 0 -42077.3 0 0 42077.3 0 0 -18475.9 0 0 18475.9 0 0 -1355.42 0 0 1355.42
0 0 -42917.3 0 0 42917.3 0 0 -19091.4 0 0 19091.4 0 0 -882.739 0 0 882.739
0 0 -43696.1 0 0 43696.1 0 0 -19649.4 0 0 19649.4 0 0 -449.61 0 0 449.61
0 0 -44392.2 0 0 44392.2 0 0 -20128.7 0 0 20128.7 0 0 -64.8431 0 0 64.8431
0 0 -44980.2 0 0 44980.2 0 0 -20512.1 0 0 20512.1 0 0 265.223 0 0 -265.223
0 0 -45434.3 0 0 45434.3 0 0 -20785.8 0 0 20785.8 0 0 536.18 0 0 -536.18
0 0 -45731.4 0 0 45731.4 0 0 -20941.8 0 0 20941.8 0 0 738.375 0 0 -738.375
0 0 -45854.8 0 0 45854.8 0 0 -20974 0 0 20974 0 0 868.842 0 0 -868.842
0 0 -45791.5 0 0 45791.5 0 0 -20880.5 0 0 20880.5 0 0 925.863 0 0 -925.863
0 0 -45535.1 0 0 45535.1 0 0 -20662.6 0 0 20662.6 0 0 909.409 0 0 -909.409
0 0 -45084.4 0 0 45084.4 0 0 -20326 0 0 20326 0 0 820.874 0 0 -820.874
0 0 -44446.2 0 0 44446.2 0 0 -19878.9 0 0 19878.9 0 0 663.124 0 0 -663.124
0 0 -43635.9 0 0 43635.9 0 0 -19332.4 0 0 19332.4 0 0 440.535 0 0 -440.535
0 0 -42677.5 0 0 42677.5 0 0 -18699.3 0 0 18699.3 0 0 160.795 0 0 -160.795
0 0 -41600.3 0 0 41600.3 0 0 -17994.9 0 0 17994.9 0 0 -167.441 0 0 167.441
0 0 -40434.1 0 0 40434.1 0 0 -17238.4 0 0 17238.4 0 0 -539.73 0 0 539.73
0 0 -39207.5 0 0 39207.5 0 0 -16450.4 0 0 16450.4 0 0 -946.776 0 0 946.776
0 0 -37945.7 0 0 37945.7 0 0 -15653.9 0 0 15653.9 0 0 -1379.35 0 0 1379.35
0 0 -36671.7 0 0 36671.7 0 0 -14872.7 0 0 14872.7 0 0 -1827.54 0 0 1827.54
0 0 -35409.1 0 0 35409.1 0 0 -14130.5 0 0 14130.5 0 0 -2281.39 0 0 2281.39
0 0 -34183.5 0 0 34183.5 0 0 -13449.8 0 0 13449.8 0 0 -2731.17 0 0 2731.17
0 0 -33021.5 0 0 33021.5 0 0 -12851.1 0 0 12851.1 0 0 -3167.52 0 0 3167.52
0 0 -31949.2 0 0 31949.2 0 0 -12352.5 0 0 12352.5 0 0 -3581.68 0 0 3581.68
0 0 -30991.8 0 0 30991.8 0 0 -11969.3 0 0 11969.3 0 0 -3965.67 0 0 3965.67
0 0 -30172.4 0 0 30172.4 0 0 -11713.6 0 0 11713.6 0 0 -4312.5 0 0 4312.5
0 0 -29510.4 0 0 29510.4 0 0 -11594.3 0 0 11594.3 0 0 -4616.25 0 0 4616.25
0 0 -29019.4 0 0 29019.4 0 0 -11617 0 0 11617 0 0 -4872.24 0 0 4872.24
0 0 -28704.7 0 0 28704.7 0 0 -11784.3 0 0 11784.3 0 0 -5077.04 0 0 5077.04
0 0 -28561.9 0 0 28561.9 0 0 -12095.8 0 0 12095.8 0 0 -5228.57 0 0 5228.57
0 0 -28577.2 0 0 28577.2 0 0 -12548.2 0 0 12548.2 0 0 -5326.08 0 0 5326.08
0 0 -28729.1 0 0 28729.1 0 0 -13134.5 0 0 13134.5 0 0 -5370.22 0 0 5370.22
0 0 -28990.5 0 0 28990.5 0 0 -13844.1 0 0 13844.1 0 0 -5362.98 0 0 5362.98
0 0 -29328.2 0 0 29328.2 0 0 -14662.8 0 0 14662.8 0 0 -5307.66 0 0 5307.66
0 0 -29704.3 0 0 29704.3 0 0 -15572.9 0 0 15572.9 0 0 -5208.73 0 0 5208.73
0 0 -30079.7 0 0 30079.7 0 0 -16553.1 0 0 16553.1 0 0 -5071.77 0 0 5071.77
0 0 -30415.8 0 0 30415.8 0 0 -17578.3 0 0 17578.3 0 0 -4903.29 0 0 4903.29
0 0 -30676.3 0 0 30676.3 0 0 -18620.6 0 0 18620.6 0 0 -4710.54 0 0 4710.54
0 0 -30827.5 0 0 30827.5 0 0 -19649.2 0 0 19649.2 0 0 -4501.31 0 0 4501.31
0 0 -30841 0 0 30841 0 0 -20631.7 0 0 20631.7 0 0 -4283.66 0 0 4283.66
0 0 -30693.5 0 0 30693.5 0 0 -21534.5 0 0 21534.5 0 0 -4065.7 0 0 4065.7
0 0 -30367.4 0 0 30367.4 0 0 -22324 0 0 22324 0 0 -3855.26 0 0 3855.26
0 0 -29849.3 0 0 29849.3 0 0 -22968.2 0 0 22968.2 0 0 -3659.66 0 0 3659.66
0 0 -29128.8 0 0 29128.8 0 0 -23437.4 0 0 23437.4 0 0 -3485.4 0 0 3485.4
0 0 -28197.8 0 0 28197.8 0 0 -23706.1 0 0 23706.1 0 0 -3337.94 0 0 3337.94
0 0 -27049.4 0 0 27049.4 0 0 -23753.2 0 0 23753.2 0 0 -3221.49 0 0 3221.49
0 0 -25680 0 0 25680 0 0 -23563 0 0 23563 0 0 -3138.87 0 0 3138.87
0 0 -24089.9 0 0 24089.9 0 0 -23125.2 0 0 23125.2 0 0 -3091.41 0 0 3091.41
0 0 -22284.5 0 0 22284.5 0 0 -22435.2 0 0 22435.2 0 0 -3078.88 0 0 3078.88
0 0 -20274 0 0 20274 0 0 -21494.3 0 0 21494.3 0 0 -3099.51 0 0 3099.51
0 0 -18073.7 0 0 18073.7 0 0 -20309.6 0 0 20309.6 0 0 -3149.98 0 0 3149.98
0 0 -15702.6 0 0 15702.6 0 0 -18894 0 0 18894 0 0 -3225.54 0 0 3225.54
0 0 -13309.4 0 0 13309.4 0 0 -17249.6 0 0 17249.6 0 0 -3320.74 0 0 3320.74
0 0 -10843.4 0 0 10843.4 0 0 -15385.5 0 0 15385.5 0 0 -3430.77 0 0 3430.77
0 0 -8220.33 0 0 8220.33 0 0 -13408.5 0 0 13408.5 0 0 -3539.18 0 0 3539.18
0 0 -5529.03 0 0 5529.03 0 0 -11283.5 0 0 11283.5 0 0 -3644.77 0 0 3644.77
0 0 -2793.82 0 0 2793.82 0 0 -9078.47 0 0 9078.47 0 0 -3733.79 0 0 3733.79
0 0 -61.0579 0 0 61.0579 0 0 -6813.28 0 0 6813.28 0 0 -3798.84 0 0 3798.84
0 0 2639.14 0 0 -2639.14 0 0 -4527.37 0 0 4527.37 0 0 -3830.12 0 0 3830.12
0 0 5259.38 0 0 -5259.38 0 0 -2256.27 0 0 2256.27 0 0 -3819.09 0 0 3819.09
0 0 7743.53 0 0 -7743.53 0 0 -27.5858 0 0 27.5858 0 0 -3758.03 0 0 3758.03
0 0 10076.4 0 0 -10076.4 0 0 2141.75 0 0 -2141.75 0 0 -3637.77 0 0 3637.77
0 0 12213.9 0 0 -12213.9 0 0 4204.15 0 0 -4204.15 0 0 -3454.28 0 0 3454.28
0 0 14133.9 0 0 -14133.9 0 0 6132.65 0 0 -6132.65 0 0 -3203.18 0 0 3203.18
0 0 15816.3 0 0 -15816.3 0 0 7898.5 0 0 -7898.5 0 0 -2882.31 0 0 2882.31
0 0 17252.1 0 0 -17252.1 0 0 9481.68 0 0 -9481.68 0 0 -2490.19 0 0 2490.19
0 0 18434.2 0 0 -18434.2 0 0 10868.7 0 0 -10868.7 0 0 -2027.89 0 0 2027.89
0 0 19365 0 0 -19365 0 0 12050.1 0 0 -12050.1 0 0 -1497.87 0 0 1497.87
0 0 20054.1 0 0 -20054.1 0 0 13021 0 0 -13021 0 0 -904.455 0 0 904.455
0 0 20517.7 0 0 -20517.7 0 0 13782.6 0 0 -13782.6 0 0 -253.872 0 0 253.872
0 0 20777 0 0 -20777 0 0 14344.8 0 0 -14344.8 0 0 457.57 0 0 -457.57
0 0 20862.4 0 0 -20862.4 0 0 14713.9 0 0 -14713.9 0 0 1209.08 0 0 -1209.08
0 0 20808.1 0 0 -20808.1 0 0 14907.8 0 0 -14907.8 0 0 1989.9 0 0 -1989.9
0 0 20654.1 0 0 -20654.1 0 0 14945.6 0 0 -14945.6 0 0 2787.38 0 0 -2787.38
0 0 20443.3 0 0 -20443.3 0 0 14851.6 0 0 -14851.6 0 0 3588.88 0 0 -3588.88
0 0 20220.6 0 0 -20220.6 0 0 14652.8 0 0 -14652.8 0 0 4381.12 0 0 -4381.12
0 0 20030.5 0 0 -20030.5 0 0 14379.1 0 0 -14379.1 0 0 5150.34 0 0 -5150.34
0 0 19913.7 0 0 -19913.7 0 0 14062.5 0 0 -14062.5 0 0 5882.59 0 0 -5882.59
0 0 19905.4 0 0 -19905.4 0 0 13736.2 0 0 -13736.2 0 0 6564.3 0 0 -6564.3
0 0 20040.9 0 0 -20040.9 0 0 13432.5 0 0 -13432.5 0 0 7182.79 0 0 -7182.79
0 0 20345.2 0 0 -20345.2 0 0 13184.1 0 0 -13184.1 0 0 7713.89 0 0 -7713.89
0 0 20867.8 0 0 -20867.8 0 0 12931.4 0 0 -12931.4 0 0 7721.22 0 0 -7721.22
0 0 21638.6 0 0 -21638.6 0 0 12674.7 0 0 -12674.7 0 0 7728.76 0 0 -7728.76
0 0 22557.3 0 0 -22557.3 0 0 12735.8 0 0 -12735.8 0 0 7733.1 0 0 -7733.1
0 0 23722.3 0 0 -23722.3 0 0 12890 0 0 -12890 0 0 7736.41 0 0 -7736.41
0 0 25089.4 0 0 -25089.4 0 0 13267.9 0 0 -13267.9 0 0 7737.98 0 0 -7737.98
0 0 26659.3 0 0 -26659.3 0 0 13849.7 0 0 -13849.7 0 0 7704.44 0 0 -7704.44
0 0 28441.8 0 0 -28441.8 0 0 14584.4 0 0 -14584.4 0 0 7581.73 0 0 -7581.73
0 0 30419 0 0 -30419 0 0 15489.6 0 0 -15489.6 0 0 7362.25 0 0 -7362.25
0 0 32582.9 0 0 -32582.9 0 0 16544.6 0 0 -16544.6 0 0 7057.61 0 0 -7057.61
0 0 34919.7 0 0 -34919.7 0 0 17730.3 0 0 -17730.3 0 0 6673.72 0 0 -6673.72
0 0 37405.1 0 0 -37405.1 0 0 19025.2 0 0 -19025.2 0 0 6220.26 0 0 -6220.26
0 0 40011.4 0 0 -40011.4 0 0 20402 0 0 -20402 0 0 5709.38 0 0 -5709.38
0 0 42704.7 0 0 -42704.7 0 0 21833.7 0 0 -21833.7 0 0 5154.26 0 0 -5154.26
0 0 45448.6 0 0 -45448.6 0 0 23289.7 0 0 -23289.7 0 0 4568.72 0 0 -4568.72
0 0 48203.2 0 0 -48203.2 0 0 24738.9 0 0 -24738.9 0 0 3966.46 0 0 -3966.46
0 0 50925.3 0 0 -50925.3 0 0 26149.8 0 0 -26149.8 0 0 3361.36 0 0 -3361.36
0 0 53570 0 0 -53570 0 0 27492.6 0 0 -27492.6 0 0 2767.41 0 0 -2767.41
0 0 56091.9 0 0 -56091.9 0 0 28740.3 0 0 -28740.3 0 0 2198.36 0 0 -2198.36
0 0 58447.3 0 0 -58447.3 0 0 29867.9 0 0 -29867.9 0 0 1667.11 0 0 -1667.11
0 0 60544.8 0 0 -60544.8 0 0 30853 0 0 -30853 0 0 1185.27 0 0 -1185.27
0 0 60639.4 0 0 -60639.4 0 0 31385.7 0 0 -31385.7 0 0 782.141 0 0 -782.141
0 0 60795.3 0 0 -60795.3 0 0 31280.6 0 0 -31280.6 0 0 486.729 0 0 -486.729
0 0 60881.7 0 0 -60881.7 0 0 31601.5 0 0 -31601.5 0 0 209.631 0 0 -209.631
0 0 60960.4 0 0 -60960.4 0 0 31630.2 0 0 -31630.2 0 0 12.5655 0 0 -12.5655
0 0 61029 0 0 -61029 0 0 31518.7 0 0 -31518.7 0 0 -87.4297 0 0 87.4297
0 0 61061.5 0 0 -61061.5 0 0 31467.2 0 0 -31467.2 0 0 -144.515 0 0 144.515
0 0 60767.9 0 0 -60767.9 0 0 31415.5 0 0 -31415.5 0 0 -139.047 0 0 139.047
0 0 60432.7 0 0 -60432.7 0 0 31146.3 0 0 -31146.3 0 0 -56.3319 0 0 56.3319
0 0 59752.1 0 0 -59752.1 0 0 30740.1 0 0 -30740.1 0 0 102.296 0 0 -102.296
0 0 58833 0 0 -58833 0 0 30212.4 0 0 -30212.4 0 0 322.945 0 0 -322.945
0 0 57694.6 0 0 -57694.6 0 0 29552.5 0 0 -29552.5 0 0 609.396 0 0 -609.396
0 0 56360.6 0 0 -56360.6 0 0 28795.8 0 0 -28795.8 0 0 948.953 0 0 -948.953
0 0 54868.6 0 0 -54868.6 0 0 27956.2 0 0 -27956.2 0 0 1335.67 0 0 -1335.67
0 0 53256.5 0 0 -53256.5 0 0 27059.1 0 0 -27059.1 0 0 1759.14 0 0 -1759.14
0 0 51567.6 0 0 -51567.6 0 0 26125.6 0 0 -26125.6 0 0 2209.93 0 0 -2209.93
0 0 49843.7 0 0 -49843.7 0 0 25181.8 0 0 -25181.8 0 0 2677.27 0 0 -2677.27
0 0 48127.3 0 0 -48127.3 0 0 24253.6 0 0 -24253.6 0 0 3150.24 0 0 -3150.24
0 0 46462.2 0 0 -46462.2 0 0 23364.7 0 0 -23364.7 0 0 3618.2 0 0 -3618.2
0 0 44890 0 0 -44890 0 0 22538.5 0 0 -22538.5 0 0 4070.74 0 0 -4070.74
0 0 43449.5 0 0 -43449.5 0 0 21797.7 0 0 -21797.7 0 0 4497.9 0 0 -4497.9
0 0 42175.9 0 0 -42175.9 0 0 21162.5 0 0 -21162.5 0 0 4890.49 0 0 -4890.49
0 0 41100.6 0 0 -41100.6 0 0 20649.9 0 0 -20649.9 0 0 5240.35 0 0 -5240.35
0 0 40250.1 0 0 -40250.1 0 0 20274.5 0 0 -20274.5 0 0 5540.44 0 0 -5540.44
0 0 39644.9 0 0 -39644.9 0 0 20047.5 0 0 -20047.5 0 0 5785.02 0 0 -5785.02
0 0 39299.8 0 0 -39299.8 0 0 19976.9 0 0 -19976.9 0 0 5969.79 0 0 -5969.79
0 0 39208.8 0 0 -39208.8 0 0 20068.1 0 0 -20068.1 0 0 6091.95 0 0 -6091.95
0 0 39267.1 0 0 -39267.1 0 0 20338.1 0 0 -20338.1 0 0 6149.44 0 0 -6149.44
0 0 39482.2 0 0 -39482.2 0 0 20780.9 0 0 -20780.9 0 0 6142.6 0 0 -6142.6
0 0 39846.3 0 0 -39846.3 0 0 21382.5 0 0 -21382.5 0 0 6074.22 0 0 -6074.22
0 0 40348.9 0 0 -40348.9 0 0 22128.7 0 0 -22128.7 0 0 5947.76 0 0 -5947.76
0 0 40975.3 0 0 -40975.3 0 0 22998 0 0 -22998 0 0 5768.92 0 0 -5768.92
0 0 41706.7 0 0 -41706.7 0 0 23966.5 0 0 -23966.5 0 0 5544.28 0 0 -5544.28
0 0 42521 0 0 -42521 0 0 25006.9 0 0 -25006.9 0 0 5281.65 0 0 -5281.65
0 0 43392.5 0 0 -43392.5 0 0 26090.1 0 0 -26090.1 0 0 4989.65 0 0 -4989.65
0 0 44291.7 0 0 -44291.7 0 0 27185.7 0 0 -27185.7 0 0 4677.44 0 0 -4677.44
0 0 45187.4 0 0 -45187.4 0 0 28263.1 0 0 -28263.1 0 0 4354.52 0 0 -4354.52
0 0 46047.4 0 0 -46047.4 0 0 29292 0 0 -29292 0 0 4030.39 0 0 -4030.39
0 0 46840 0 0 -46840 0 0 30243.1 0 0 -30243.1 0 0 3714.35 0 0 -3714.35
0 0 47535.2 0 0 -47535.2 0 0 31089.2 0 0 -31089.2 0 0 3415.2 0 0 -3415.2
0 0 48106.3 0 0 -48106.3 0 0 31805.3 0 0 -31805.3 0 0 3141 0 0 -3141
0 0 48530.4 0 0 -48530.4 0 0 32369.8 0 0 -32369.8 0 0 2898.9 0 0 -2898.9
0 0 48790.3 0 0 -48790.3 0 0 32764.2 0 0 -32764.2 0 0 2694.89 0 0 -2694.89
0 0 48874 0 0 -48874 0 0 32974.4 0 0 -32974.4 0 0 2533.67 0 0 -2533.67
0 0 48775.1 0 0 -48775.1 0 0 32990.9 0 0 -32990.9 0 0 2418.54 0 0 -2418.54
0 0 48490.9 0 0 -48490.9 0 0 32809.1 0 0 -32809.1 0 0 2351.23 0 0 -2351.23
0 0 48021.6 0 0 -48021.6 0 0 32430 0 0 -32430 0 0 2331.94 0 0 -2331.94
0 0 47368.6 0 0 -47368.6 0 0 31860.3 0 0 -31860.3 0 0 2359.27 0 0 -2359.27
0 0 46533.6 0 0 -46533.6 0 0 31111.9 0 0 -31111.9 0 0 2430.33 0 0 -2430.33
0 0 45520 0 0 -45520 0 0 30201.7 0 0 -30201.7 0 0 2540.82 0 0 -2540.82
0 0 44334.4 0 0 -44334.4 0 0 29150.3 0 0 -29150.3 0 0 2685.23 0 0 -2685.23
0 0 42988.4 0 0 -42988.4 0 0 27981.4 0 0 -27981.4 0 0 2857.05 0 0 -2857.05
0 0 41498.1 0 0 -41498.1 0 0 26720.6 0 0 -26720.6 0 0 3048.94 0 0 -3048.94
0 0 39882.7 0 0 -39882.7 0 0 25394.7 0 0 -25394.7 0 0 3253 0 0 -3253
0 0 38164.1 0 0 -38164.1 0 0 24031.5 0 0 -24031.5 0 0 3460.98 0 0 -3460.98
0 0 36364.9 0 0 -36364.9 0 0 22658.5 0 0 -22658.5 0 0 3664.52 0 0 -3664.52
0 0 34507.3 0 0 -34507.3 0 0 21302.3 0 0 -21302.3 0 0 3855.43 0 0 -3855.43
0 0 32611.7 0 0 -32611.7 0 0 19988.4 0 0 -19988.4 0 0 4025.87 0 0 -4025.87
0 0 30697.8 0 0 -30697.8 0 0 18739.4 0 0 -18739.4 0 0 4168.62 0 0 -4168.62
0 0 28786.1 0 0 -28786.1 0 0 17575 0 0 -17575 0 0 4277.3 0 0 -4277.3
0 0 26899.8 0 0 -26899.8 0 0 16510 0 0 -16510 0 0 4346.53 0 0 -4346.53
0 0 25066.5 0 0 -25066.5 0 0 15554.7 0 0 -15554.7 0 0 4372.13 0 0 -4372.13
0 0 23316.4 0 0 -23316.4 0 0 14714.5 0 0 -14714.5 0 0 4351.13 0 0 -4351.13
0 0 21678.4 0 0 -21678.4 0 0 13990.5 0 0 -13990.5 0 0 4281.83 0 0 -4281.83
0 0 20176.3 0 0 -20176.3 0 0 13380.6 0 0 -13380.6 0 0 4163.73 0 0 -4163.73
0 0 18826.3 0 0 -18826.3 0 0 12880 0 0 -12880 0 0 3997.53 0 0 -3997.53
0 0 17635.6 0 0 -17635.6 0 0 12481.7 0 0 -12481.7 0 0 3785.03 0 0 -3785.03
0 0 16602.5 0 0 -16602.5 0 0 12177.2 0 0 -12177.2 0 0 3529.1 0 0 -3529.1
0 0 15718.1 0 0 -15718.1 0 0 11955.9 0 0 -11955.9 0 0 3233.53 0 0 -3233.53
0 0 14967.5 0 0 -14967.5 0 0 11805.9 0 0 -11805.9 0 0 2903.03 0 0 -2903.03
0 0 14331.1 0 0 -14331.1 0 0 11714.1 0 0 -11714.1 0 0 2543.02 0 0 -2543.02
0 0 13785 0 0 -13785 0 0 11666.1 0 0 -11666.1 0 0 2159.56 0 0 -2159.56
0 0 13303.1 0 0 -13303.1 0 0 11646.8 0 0 -11646.8 0 0 1759.18 0 0 -1759.18
0 0 12858.5 0 0 -12858.5 0 0 11640.5 0 0 -11640.5 0 0 1348.73 0 0 -1348.73
0 0 12424.2 0 0 -12424.2 0 0 11631.2 0 0 -11631.2 0 0 935.244 0 0 -935.244
0 0 11972.7 0 0 -11972.7 0 0 11603 0 0 -11603 0 0 525.723 0 0 -525.723
0 0 11474.2 0 0 -11474.2 0 0 11541 0 0 -11541 0 0 126.993 0 0 -126.993
0 0 10895.8 0 0 -10895.8 0 0 11437.5 0 0 -11437.5 0 0 -205.711 0 0 205.711
0 0 10202.6 0 0 -10202.6 0 0 11296.3 0 0 -11296.3 0 0 -513.39 0 0 513.39
0 0 9378.57 0 0 -9378.57 0 0 11066.6 0 0 -11066.6 0 0 -789.939 0 0 789.939
0 0 8394.7 0 0 -8394.7 0 0 10762.2 0 0 -10762.2 0 0 -1042.03 0 0 1042.03
0 0 7379.04 0 0 -7379.04 0 0 10348.7 0 0 -10348.7 0 0 -1262.39 0 0 1262.39
0 0 6749.91 0 0 -6749.91 0 0 9698.28 0 0 -9698.28 0 0 -1442.44 0 0 1442.44
0 0 5740.06 0 0 -5740.06 0 0 9058.3 0 0 -9058.3 0 0 -1594.8 0 0 1594.8
0 0 4640.32 0 0 -4640.32 0 0 8265.35 0 0 -8265.35 0 0 -1711.53 0 0 1711.53
0 0 3362.1 0 0 -3362.1 0 0 7399.63 0 0 -7399.63 0 0 -1793.83 0 0 1793.83
0 0 1941.81 0 0 -1941.81 0 0 6444.32 0 0 -6444.32 0 0 -1845.14 0 0 1845.14
0 0 391.872 0 0 -391.872 0 0 5412.34 0 0 -5412.34 0 0 -1865.09 0 0 1865.09
0 0 -1101.74 0 0 1101.74 0 0 4352.72 0 0 -4352.72 0 0 -1858.38 0 0 1858.38
0 0 -2666.96 0 0 2666.96 0 0 3287.72 0 0 -3287.72 0 0 -1827.43 0 0 1827.43
0 0 -4271.39 0 0 4271.39 0 0 2131.97 0 0 -2131.97 0 0 -1766.33 0 0 1766.33
0 0 -5928.26 0 0 5928.26 0 0 984.218 0 0 -984.218 0 0 -1688.58 0 0 1688.58
0 0 -7597.55 0 0 7597.55 0 0 -190.945 0 0 190.945 0 0 -1593.48 0 0 1593.48
0 0 -9262.14 0 0 9262.14 0 0 -1350.92 0 0 1350.92 0 0 -1487.5 0 0 1487.5
0 0 -10910 0 0 10910 0 0 -2501.53 0 0 2501.53 0 0 -1377.04 0 0 1377.04
0 0 -12521.4 0 0 12521.4 0 0 -3622.14 0 0 3622.14 0 0 -1267.11 0 0 1267.11
0 0 -14078.4 0 0 14078.4 0 0 -4699.45 0 0 4699.45 0 0 -1163.1 0 0 1163.1
0 0 -15563.3 0 0 15563.3 0 0 -5720.56 0 0 5720.56 0 0 -1069.79 0 0 1069.79
0 0 -16961.7 0 0 16961.7 0 0 -6671.51 0 0 6671.51 0 0 -992.063 0 0 992.063
0 0 -18259.8 0 0 18259.8 0 0 -7541.51 0 0 7541.51 0 0 -933.978 0 0 933.978
0 0 -19445.9 0 0 19445.9 0 0 -8321.18 0 0 8321.18 0 0 -898.979 0 0 898.979
0 0 -20511.7 0 0 20511.7 0 0 -9002.59 0 0 9002.59 0 0 -889.855 0 0 889.855
0 0 -21452.3 0 0 21452.3 0 0 -9579.71 0 0 9579.71 0 0 -908.674 0 0 908.674
0 0 -22265.1 0 0 22265.1 0 0 -10049.2 0 0 10049.2 0 0 -956.633 0 0 956.633
0 0 -22950.4 0 0 22950.4 0 0 -10410.1 0 0 10410.1 0 0 -1034.06 0 0 1034.06
0 0 -23511.2 0 0 23511.2 0 0 -10663.8 0 0 10663.8 0 0 -1140.47 0 0 1140.47
0 0 -23953.4 0 0 23953.4 0 0 -10813.9 0 0 10813.9 0 0 -1274.51 0 0 1274.51
0 0 -24286.1 0 0 24286.1 0 0 -10866.6 0 0 10866.6 0 0 -1434.04 0 0 1434.04
0 0 -24521.3 0 0 24521.3 0 0 -10830 0 0 10830 0 0 -1616.15 0 0 1616.15
0 0 -24674.2 0 0 24674.2 0 0 -10714 0 0 10714 0 0 -1813.88 0 0 1813.88
0 0 -24763.7 0 0 24763.7 0 0 -10523.5 0 0 10523.5 0 0 -2000.62 0 0 2000.62
0 0 -24810.6 0 0 24810.6 0 0 -10270.5 0 0 10270.5 0 0 -2195.15 0 0 2195.15
0 0 -24828.2 0 0 24828.2 0 0 -9985.76 0 0 9985.76 0 0 -2393.04 0 0 2393.04
0 0 -24843.6 0 0 24843.6 0 0 -9671.41 0 0 9671.41 0 0 -2592.54 0 0 2592.54
0 0 -24872.8 0 0 24872.8 0 0 -9351.9 0 0 9351.9 0 0 -2787.93 0 0 2787.93
0 0 -24937.5 0 0 24937.5 0 0 -9040.71 0 0 9040.71 0 0 -2975.4 0 0 2975.4
0 0 -25056.5 0 0 25056.5 0 0 -8755.57 0 0 8755.57 0 0 -3150.63 0 0 3150.63
0 0 -25248.5 0 0 25248.5 0 0 -8512.6 0 0 8512.6 0 0 -3309.65 0 0 3309.65
0 0 -25530.3 0 0 25530.3 0 0 -8326.77 0 0 8326.77 0 0 -3448.94 0 0 3448.94
0 0 -25915.4 0 0 25915.4 0 0 -8212.52 0 0 8212.52 0 0 -3565.32 0 0 3565.32
0 0 -26413.4 0 0 26413.4 0 0 -8182.74 0 0 8182.74 0 0 -3656.24 0 0 3656.24
0 0 -27029.1 0 0 27029.1 0 0 -8249.04 0 0 8249.04 0 0 -3719.72 0 0 3719.72
0 0 -27763 0 0 27763 0 0 -8420.88 0 0 8420.88 0 0 -3754.51 0 0 3754.51
0 0 -28611.7 0 0 28611.7 0 0 -8705.22 0 0 8705.22 0 0 -3759.44 0 0 3759.44
0 0 -29569.1 0 0 29569.1 0 0 -9104.96 0 0 9104.96 0 0 -3731.31 0 0 3731.31
0 0 -30626.9 0 0 30626.9 0 0 -9619.84 0 0 9619.84 0 0 -3670.91 0 0 3670.91
0 0 -31773.8 0 0 31773.8 0 0 -10248.3 0 0 10248.3 0 0 -3580.41 0 0 3580.41
0 0 -32997.8 0 0 32997.8 0 0 -10983.6 0 0 10983.6 0 0 -3463.26 0 0 3463.26
0 0 -34284.9 0 0 34284.9 0 0 -11816.9 0 0 11816.9 0 0 -3323.58 0 0 3323.58
0 0 -35620.8 0 0 35620.8 0 0 -12735.5 0 0 12735.5 0 0 -3166.34 0 0 3166.34
0 0 -36990.4 0 0 36990.4 0 0 -13724.3 0 0 13724.3 0 0 -2997.13 0 0 2997.13
0 0 -38378.8 0 0 38378.8 0 0 -14766 0 0 14766 0 0 -2822.03 0 0 2822.03
0 0 -39765.6 0 0 39765.6 0 0 -15842.5 0 0 15842.5 0 0 -2647.39 0 0 2647.39
0 0 -41108.3 0 0 41108.3 0 0 -16940.9 0 0 16940.9 0 0 -2479.28 0 0 2479.28
0 0 -42410.9 0 0 42410.9 0 0 -18034.4 0 0 18034.4 0 0 -2324.57 0 0 2324.57
0 0 -43662.1 0 0 43662.1 0 0 -19102.6 0 0 19102.6 0 0 -2189.66 0 0 2189.66
0 0 -44853.4 0 0 44853.4 0 0 -20124.6 0 0 20124.6 0 0 -2080.29 0 0 2080.29
0 0 -45974.2 0 0 45974.2 0 0 -21081.9 0 0 21081.9 0 0 -2001.87 0 0 2001.87
0 0 -47013.3 0 0 47013.3 0 0 -21958.6 0 0 21958.6 0 0 -1958.8 0 0 1958.8
0 0 -47960.5 0 0 47960.5 0 0 -22741.2 0 0 22741.2 0 0 -1954.7 0 0 1954.7
0 0 -48789.3 0 0 48789.3 0 0 -23424 0 0 23424 0 0 -1991.9 0 0 1991.9
0 0 -49401.2 0 0 49401.2 0 0 -24012 0 0 24012 0 0 -2071.84 0 0 2071.84
0 0 -49870.2 0 0 49870.2 0 0 -24501.4 0 0 24501.4 0 0 -2193.04 0 0 2193.04
0 0 -50182.6 0 0 50182.6 0 0 -24866.1 0 0 24866.1 0 0 -2359.27 0 0 2359.27
0 0 -50340.6 0 0 50340.6 0 0 -25126.3 0 0 25126.3 0 0 -2565.27 0 0 2565.27
0 0 -50343.4 0 0 50343.4 0 0 -25271.9 0 0 25271.9 0 0 -2810.94 0 0 2810.94
0 0 -50192.5 0 0 50192.5 0 0 -25310.1 0 0 25310.1 0 0 -3091.63 0 0 3091.63
0 0 -49893.4 0 0 49893.4 0 0 -25244.6 0 0 25244.6 0 0 -3403.62 0 0 3403.62
0 0 -49462 0 0 49462 0 0 -25087.4 0 0 25087.4 0 0 -3735.41 0 0 3735.41
0 0 -48919.6 0 0 48919.6 0 0 -24833.8 0 0 24833.8 0 0 -4039.33 0 0 4039.33
0 0 -48284.8 0 0 48284.8 0 0 -24507.3 0 0 24507.3 0 0 -4355.2 0 0 4355.2
0 0 -47567.5 0 0 47567.5 0 0 -24137.8 0 0 24137.8 0 0 -4677.42 0 0 4677.42
0 0 -46798 0 0 46798 0 0 -23724.3 0 0 23724.3 0 0 -5000.1 0 0 5000.1
0 0 -45989.5 0 0 45989.5 0 0 -23294.4 0 0 23294.4 0 0 -5315.96 0 0 5315.96
0 0 -45166.9 0 0 45166.9 0 0 -22858 0 0 22858 0 0 -5619.88 0 0 5619.88
0 0 -44349.9 0 0 44349.9 0 0 -22432.9 0 0 22432.9 0 0 -5905.81 0 0 5905.81
0 0 -43559.8 0 0 43559.8 0 0 -22032 0 0 22032 0 0 -6168.46 0 0 6168.46
0 0 -42814.9 0 0 42814.9 0 0 -21668 0 0 21668 0 0 -6402.88 0 0 6402.88
0 0 -42120 0 0 42120 0 0 -21353.3 0 0 21353.3 0 0 -6604.59 0 0 6604.59
0 0 -41425.2 0 0 41425.2 0 0 -21106.4 0 0 21106.4 0 0 -6769.48 0 0 6769.48
0 0 -40734.3 0 0 40734.3 0 0 -20935.1 0 0 20935.1 0 0 -6894.44 0 0 6894.44
0 0 -40042.4 0 0 40042.4 0 0 -20841.1 0 0 20841.1 0 0 -6977.83 0 0 6977.83
0 0 -39344.4 0 0 39344.4 0 0 -20825 0 0 20825 0 0 -7018.36 0 0 7018.36
0 0 -38637.5 0 0 38637.5 0 0 -20881 0 0 20881 0 0 -7013.93 0 0 7013.93
0 0 -37923.1 0 0 37923.1 0 0 -20997.3 0 0 20997.3 0 0 -6961.22 0 0 6961.22
0 0 -37204.7 0 0 37204.7 0 0 -21159.8 0 0 21159.8 0 0 -6861.75 0 0 6861.75
0 0 -36484.1 0 0 36484.1 0 0 -21352.6 0 0 21352.6 0 0 -6718.93 0 0 6718.93
0 0 -35760 0 0 35760 0 0 -21556.5 0 0 21556.5 0 0 -6536.82 0 0 6536.82
0 0 -35026.2 0 0 35026.2 0 0 -21752.3 0 0 21752.3 0 0 -6320.04 0 0 6320.04
0 0 -34273.7 0 0 34273.7 0 0 -21919.6 0 0 21919.6 0 0 -6073.78 0 0 6073.78
0 0 -33492.6 0 0 33492.6 0 0 -22038 0 0 22038 0 0 -5803.54 0 0 5803.54
0 0 -32673.5 0 0 32673.5 0 0 -22087.3 0 0 22087.3 0 0 -5515.01 0 0 5515.01
0 0 -31805.9 0 0 31805.9 0 0 -22048.7 0 0 22048.7 0 0 -5213.81 0 0 5213.81
0 0 -30876.6 0 0 30876.6 0 0 -21905.3 0 0 21905.3 0 0 -4905.35 0 0 4905.35
0 0 -29870.9 0 0 29870.9 0 0 -21643 0 0 21643 0 0 -4594.64 0 0 4594.64
0 0 -28775.3 0 0 28775.3 0 0 -21250 0 0 21250 0 0 -4286.23 0 0 4286.23
0 0 -27581.1 0 0 27581.1 0 0 -20716.9 0 0 20716.9 0 0 -3984.13 0 0 3984.13
0 0 -26284.7 0 0 26284.7 0 0 -20037 0 0 20037 0 0 -3691.65 0 0 3691.65
0 0 -24886.9 0 0 24886.9 0 0 -19206.7 0 0 19206.7 0 0 -3411.35 0 0 3411.35
0 0 -23391.1 0 0 23391.1 0 0 -18225.6 0 0 18225.6 0 0 -3144.98 0 0 3144.98
0 0 -21801.7 0 0 21801.7 0 0 -17097.5 0 0 17097.5 0 0 -2893.41 0 0 2893.41
0 0 -20123.2 0 0 20123.2 0 0 -15830 0 0 15830 0 0 -2656.65 0 0 2656.65
0 0 -18359.1 0 0 18359.1 0 0 -14434.6 0 0 14434.6 0 0 -2433.89 0 0 2433.89
0 0 -16512.3 0 0 16512.3 0 0 -12926.2 0 0 12926.2 0 0 -2223.54 0 0 2223.54
0 0 -14586.5 0 0 14586.5 0 0 -11322.7 0 0 11322.7 0 0 -2023.38 0 0 2023.38
0 0 -12586.8 0 0 12586.8 0 0 -9643.65 0 0 9643.65 0 0 -1830.66 0 0 1830.66
0 0 -10521.4 0 0 10521.4 0 0 -7910.16 0 0 7910.16 0 0 -1642.29 0 0 1642.29
0 0 -8402.06 0 0 8402.06 0 0 -6143.54 0 0 6143.54 0 0 -1454.92 0 0 1454.92
0 0 -6244.26 0 0 6244.26 0 0 -4364.95 0 0 4364.95 0 0 -1265.16 0 0 1265.16
0 0 -4065.68 0 0 4065.68 0 0 -2594.93 0 0 2594.93 0 0 -1069.67 0 0 1069.67
0 0 -1884.86 0 0 1884.86 0 0 -853.131 0 0 853.131 0 0 -865.312 0 0 865.312
0 0 196.629 0 0 -196.629 0 0 856.208 0 0 -856.208 0 0 -648.588 0 0 648.588
0 0 2176.52 0 0 -2176.52 0 0 2459.57 0 0 -2459.57 0 0 -413.197 0 0 413.197
0 0 4067.14 0 0 -4067.14 0 0 3992.27 0 0 -3992.27 0 0 -161.009 0 0 161.009
0 0 5903.18 0 0 -5903.18 0 0 5444.59 0 0 -5444.59 0 0 85.0429 0 0 -85.0429
0 0 7283.9 0 0 -7283.9 0 0 6850.42 0 0 -6850.42 0 0 337.318 0 0 -337.318
0 0 8635 0 0 -8635 0 0 8154.25 0 0 -8154.25 0 0 594.425 0 0 -594.425
0 0 9810.76 0 0 -9810.76 0 0 9331.65 0 0 -9331.65 0 0 872.907 0 0 -872.907
0 0 10862.6 0 0 -10862.6 0 0 10400.2 0 0 -10400.2 0 0 1161.92 0 0 -1161.92
0 0 11777.1 0 0 -11777.1 0 0 11334.4 0 0 -11334.4 0 0 1466.64 0 0 -1466.64
0 0 12558.3 0 0 -12558.3 0 0 12141.5 0 0 -12141.5 0 0 1781.45 0 0 -1781.45
0 0 13208.3 0 0 -13208.3 0 0 12817 0 0 -12817 0 0 2105.46 0 0 -2105.46
0 0 13736.2 0 0 -13736.2 0 0 13363.6 0 0 -13363.6 0 0 2435.26 0 0 -2435.26
0 0 14154.2 0 0 -14154.2 0 0 13784.7 0 0 -13784.7 0 0 2767.58 0 0 -2767.58
0 0 14477.6 0 0 -14477.6 0 0 14085.8 0 0 -14085.8 0 0 3098.45 0 0 -3098.45
0 0 14722.8 0 0 -14722.8 0 0 14275 0 0 -14275 0 0 3423.56 0 0 -3423.56
0 0 14909.4 0 0 -14909.4 0 0 14361.7 0 0 -14361.7 0 0 3738.46 0 0 -3738.46
0 0 15057.9 0 0 -15057.9 0 0 14357.5 0 0 -14357.5 0 0 4038.4 0 0 -4038.4
0 0 15189.3 0 0 -15189.3 0 0 14275.7 0 0 -14275.7 0 0 4318.56 0 0 -4318.56
0 0 15324.3 0 0 -15324.3 0 0 14130.7 0 0 -14130.7 0 0 4574.11 0 0 -4574.11
0 0 15483.4 0 0 -15483.4 0 0 13937.8 0 0 -13937.8 0 0 4800.39 0 0 -4800.39
0 0 15686.5 0 0 -15686.5 0 0 13712.8 0 0 -13712.8 0 0 4992.99 0 0 -4992.99
0 0 15952.6 0 0 -15952.6 0 0 13471.9 0 0 -13471.9 0 0 5147.86 0 0 -5147.86
0 0 16298.5 0 0 -16298.5 0 0 13231.2 0 0 -13231.2 0 0 5261.43 0 0 -5261.43
0 0 16738.5 0 0 -16738.5 0 0 13006.2 0 0 -13006.2 0 0 5330.69 0 0 -5330.69
0 0 17283.3 0 0 -17283.3 0 0 12811.6 0 0 -12811.6 0 0 5353.3 0 0 -5353.3
0 0 17940.1 0 0 -17940.1 0 0 12660.2 0 0 -12660.2 0 0 5321.71 0 0 -5321.71
0 0 18712.9 0 0 -18712.9 0 0 12561.7 0 0 -12561.7 0 0 5234.13 0 0 -5234.13
0 0 19601.4 0 0 -19601.4 0 0 12527.6 0 0 -12527.6 0 0 5089.95 0 0 -5089.95
0 0 20603.2 0 0 -20603.2 0 0 12564.8 0 0 -12564.8 0 0 4890.85 0 0 -4890.85
0 0 21713.7 0 0 -21713.7 0 0 12678.3 0 0 -12678.3 0 0 4639.27 0 0 -4639.27
0 0 22926.1 0 0 -22926.1 0 0 12870.2 0 0 -12870.2 0 0 4338.86 0 0 -4338.86
0 0 24232.1 0 0 -24232.1 0 0 13139.6 0 0 -13139.6 0 0 3994.39 0 0 -3994.39
0 0 25622.1 0 0 -25622.1 0 0 13482.6 0 0 -13482.6 0 0 3611.58 0 0 -3611.58
0 0 27085.1 0 0 -27085.1 0 0 13892.9 0 0 -13892.9 0 0 3197.05 0 0 -3197.05
0 0 28608.5 0 0 -28608.5 0 0 14362.1 0 0 -14362.1 0 0 2758.17 0 0 -2758.17
0 0 30177.9 0 0 -30177.9 0 0 14879.9 0 0 -14879.9 0 0 2302.88 0 0 -2302.88
0 0 31776.7 0 0 -31776.7 0 0 15435 0 0 -15435 0 0 1839.55 0 0 -1839.55
0 0 33387.1 0 0 -33387.1 0 0 16015.3 0 0 -16015.3 0 0 1376.79 0 0 -1376.79
0 0 34989.7 0 0 -34989.7 0 0 16608.2 0 0 -16608.2 0 0 923.265 0 0 -923.265
0 0 36564.7 0 0 -36564.7 0 0 17201.5 0 0 -17201.5 0 0 487.515 0 0 -487.515
0 0 38092.6 0 0 -38092.6 0 0 17783 0 0 -17783 0 0 77.7773 0 0 -77.7773
0 0 39552.9 0 0 -39552.9 0 0 18348.9 0 0 -18348.9 0 0 -255.271 0 0 255.271
0 0 40925.8 0 0 -40925.8 0 0 18893.8 0 0 -18893.8 0 0 -553.767 0 0 553.767
0 0 42206.3 0 0 -42206.3 0 0 19383.3 0 0 -19383.3 0 0 -807.232 0 0 807.232
0 0 43373.3 0 0 -43373.3 0 0 19828.3 0 0 -19828.3 0 0 -1016.29 0 0 1016.29
0 0 44421.2 0 0 -44421.2 0 0 20213.5 0 0 -20213.5 0 0 -1175.16 0 0 1175.16
0 0 45341.3 0 0 -45341.3 0 0 20539.3 0 0 -20539.3 0 0 -1281.76 0 0 1281.76
0 0 46130.4 0 0 -46130.4 0 0 20803.3 0 0 -20803.3 0 0 -1334.02 0 0 1334.02
0 0 46787.7 0 0 -46787.7 0 0 21006.1 0 0 -21006.1 0 0 -1328.82 0 0 1328.82
0 0 47314.6 0 0 -47314.6 0 0 21153.3 0 0 -21153.3 0 0 -1262.28 0 0 1262.28
0 0 47716 0 0 -47716 0 0 21249.8 0 0 -21249.8 0 0 -1134.74 0 0 1134.74
0 0 47999.4 0 0 -47999.4 0 0 21302.4 0 0 -21302.4 0 0 -948.672 0 0 948.672
0 0 48173.8 0 0 -48173.8 0 0 21320.7 0 0 -21320.7 0 0 -707.451 0 0 707.451
0 0 48251.3 0 0 -48251.3 0 0 21314.6 0 0 -21314.6 0 0 -415.335 0 0 415.335
0 0 48244.4 0 0 -48244.4 0 0 21296 0 0 -21296 0 0 -77.1381 0 0 77.1381
0 0 48171 0 0 -48171 0 0 21270.8 0 0 -21270.8 0 0 282.128 0 0 -282.128
0 0 48050.6 0 0 -48050.6 0 0 21250.6 0 0 -21250.6 0 0 673.662 0 0 -673.662
0 0 47899.7 0 0 -47899.7 0 0 21260.3 0 0 -21260.3 0 0 1089.98 0 0 -1089.98
0 0 47745.3 0 0 -47745.3 0 0 21303.5 0 0 -21303.5 0 0 1525.82 0 0 -1525.82
0 0 47600.1 0 0 -47600.1 0 0 21399.7 0 0 -21399.7 0 0 1973.84 0 0 -1973.84
0 0 47222.5 0 0 -47222.5 0 0 21590.7 0 0 -21590.7 0 0 2426.74 0 0 -2426.74
0 0 46818.2 0 0 -46818.2 0 0 21884.5 0 0 -21884.5 0 0 2877.19 0 0 -2877.19
0 0 46542.7 0 0 -46542.7 0 0 22221.9 0 0 -22221.9 0 0 3323.78 0 0 -3323.78
0 0 46354 0 0 -46354 0 0 22649.5 0 0 -22649.5 0 0 3758.26 0 0 -3758.26
0 0 46280.7 0 0 -46280.7 0 0 23151.6 0 0 -23151.6 0 0 4176.69 0 0 -4176.69
0 0 46328.1 0 0 -46328.1 0 0 23735.1 0 0 -23735.1 0 0 4574.65 0 0 -4574.65
0 0 46501.2 0 0 -46501.2 0 0 24399.5 0 0 -24399.5 0 0 4947.81 0 0 -4947.81
0 0 46803.1 0 0 -46803.1 0 0 25140.8 0 0 -25140.8 0 0 5293.54 0 0 -5293.54
0 0 47232.1 0 0 -47232.1 0 0 25956.2 0 0 -25956.2 0 0 5609.09 0 0 -5609.09
0 0 47781.2 0 0 -47781.2 0 0 26835.1 0 0 -26835.1 0 0 5893.01 0 0 -5893.01
0 0 48390.5 0 0 -48390.5 0 0 27772.1 0 0 -27772.1 0 0 6144.04 0 0 -6144.04
0 0 49145.9 0 0 -49145.9 0 0 28738 0 0 -28738 0 0 6362.81 0 0 -6362.81
0 0 49944.2 0 0 -49944.2 0 0 29748.6 0 0 -29748.6 0 0 6548.81 0 0 -6548.81
0 0 50822.3 0 0 -50822.3 0 0 30787.6 0 0 -30787.6 0 0 6701.34 0 0 -6701.34
0 0 51713.8 0 0 -51713.8 0 0 31850.3 0 0 -31850.3 0 0 6823.14 0 0 -6823.14
0 0 52619.3 0 0 -52619.3 0 0 32921.1 0 0 -32921.1 0 0 6914.83 0 0 -6914.83
0 0 53516.8 0 0 -53516.8 0 0 33983.8 0 0 -33983.8 0 0 6979.9 0 0 -6979.9
0 0 54384.7 0 0 -54384.7 0 0 35025.6 0 0 -35025.6 0 0 7020.32 0 0 -7020.32
0 0 55202.3 0 0 -55202.3 0 0 36029.8 0 0 -36029.8 0 0 7039.52 0 0 -7039.52
0 0 55952.7 0 0 -55952.7 0 0 36979.6 0 0 -36979.6 0 0 7040.47 0 0 -7040.47
0 0 56622.8 0 0 -56622.8 0 0 37857.4 0 0 -37857.4 0 0 7026.02 0 0 -7026.02
0 0 57202 0 0 -57202 0 0 38646.4 0 0 -38646.4 0 0 6999.68 0 0 -6999.68
0 0 57681.6 0 0 -57681.6 0 0 39330.5 0 0 -39330.5 0 0 6964.94 0 0 -6964.94
0 0 58055 0 0 -58055 0 0 39894.8 0 0 -39894.8 0 0 6925.08 0 0 -6925.08
0 0 58317.5 0 0 -58317.5 0 0 40326.8 0 0 -40326.8 0 0 6882.93 0 0 -6882.93
0 0 58466.7 0 0 -58466.7 0 0 40615.7 0 0 -40615.7 0 0 6840.87 0 0 -6840.87
0 0 58502 0 0 -58502 0 0 40753.5 0 0 -40753.5 0 0 6800.72 0 0 -6800.72
0 0 58416.9 0 0 -58416.9 0 0 40733.1 0 0 -40733.1 0 0 6763.82 0 0 -6763.82
0 0 58217.2 0 0 -58217.2 0 0 40550.8 0 0 -40550.8 0 0 6730.81 0 0 -6730.81
0 0 57909.8 0 0 -57909.8 0 0 40209.4 0 0 -40209.4 0 0 6701.29 0 0 -6701.29
0 0 57503.3 0 0 -57503.3 0 0 39713.5 0 0 -39713.5 0 0 6674.43 0 0 -6674.43
0 0 57003.3 0 0 -57003.3 0 0 39072.7 0 0 -39072.7 0 0 6648.49 0 0 -6648.49
0 0 56412 0 0 -56412 0 0 38300.1 0 0 -38300.1 0 0 6621.2 0 0 -6621.2
0 0 55728.8 0 0 -55728.8 0 0 37412.2 0 0 -37412.2 0 0 6589.73 0 0 -6589.73
0 0 54952.1 0 0 -54952.1 0 0 36427.7 0 0 -36427.7 0 0 6550.87 0 0 -6550.87
0 0 54082.5 0 0 -54082.5 0 0 35366.6 0 0 -35366.6 0 0 6501.22 0 0 -6501.22
0 0 53123.6 0 0 -53123.6 0 0 34249.2 0 0 -34249.2 0 0 6437.3 0 0 -6437.3
0 0 52083.4 0 0 -52083.4 0 0 33095.1 0 0 -33095.1 0 0 6355.75 0 0 -6355.75
0 0 50973.5 0 0 -50973.5 0 0 31922.9 0 0 -31922.9 0 0 6253.47 0 0 -6253.47
0 0 49807.1 0 0 -49807.1 0 0 30750 0 0 -30750 0 0 6127.69 0 0 -6127.69
0 0 48597.1 0 0 -48597.1 0 0 29592.3 0 0 -29592.3 0 0 5976.09 0 0 -5976.09
0 0 47355.1 0 0 -47355.1 0 0 28463.6 0 0 -28463.6 0 0 5796.93 0 0 -5796.93
0 0 46091.2 0 0 -46091.2 0 0 27376.2 0 0 -27376.2 0 0 5589.06 0 0 -5589.06
0 0 44812.7 0 0 -44812.7 0 0 26339.8 0 0 -26339.8 0 0 5352.05 0 0 -5352.05
0 0 43524.7 0 0 -43524.7 0 0 25361.8 0 0 -25361.8 0 0 5086.18 0 0 -5086.18
0 0 42229.3 0 0 -42229.3 0 0 24447 0 0 -24447 0 0 4792.5 0 0 -4792.5
0 0 40926.7 0 0 -40926.7 0 0 23597.6 0 0 -23597.6 0 0 4472.78 0 0 -4472.78
0 0 39614.7 0 0 -39614.7 0 0 22813 0 0 -22813 0 0 4129.56 0 0 -4129.56
0 0 38289 0 0 -38289 0 0 22090.1 0 0 -22090.1 0 0 3766.04 0 0 -3766.04
0 0 36943.7 0 0 -36943.7 0 0 21423.3 0 0 -21423.3 0 0 3386.04 0 0 -3386.04
0 0 35571.7 0 0 -35571.7 0 0 20804.8 0 0 -20804.8 0 0 2993.92 0 0 -2993.92
0 0 34165.2 0 0 -34165.2 0 0 20224.8 0 0 -20224.8 0 0 2594.45 0 0 -2594.45
0 0 32716.4 0 0 -32716.4 0 0 19671.7 0 0 -19671.7 0 0 2192.73 0 0 -2192.73
0 0 31218.5 0 0 -31218.5 0 0 19132.7 0 0 -19132.7 0 0 1794.04 0 0 -1794.04
0 0 29666.6 0 0 -29666.6 0 0 18593.7 0 0 -18593.7 0 0 1403.68 0 0 -1403.68
0 0 27646.6 0 0 -27646.6 0 0 17898.4 0 0 -17898.4 0 0 935.377 0 0 -935.377
0 0 25536.3 0 0 -25536.3 0 0 17153.6 0 0 -17153.6 0 0 497.773 0 0 -497.773
0 0 23335.4 0 0 -23335.4 0 0 16334.6 0 0 -16334.6 0 0 99.3201 0 0 -99.3201
0 0 21036.9 0 0 -21036.9 0 0 15430.6 0 0 -15430.6 0 0 -211.48 0 0 211.48
0 0 18627.8 0 0 -18627.8 0 0 14429.8 0 0 -14429.8 0 0 -468.255 0 0 468.255
0 0 16097.8 0 0 -16097.8 0 0 13310 0 0 -13310 0 0 -678.998 0 0 678.998
0 0 13429.8 0 0 -13429.8 0 0 12078.1 0 0 -12078.1 0 0 -844.016 0 0 844.016
0 0 10621.2 0 0 -10621.2 0 0 10737.7 0 0 -10737.7 0 0 -964.309 0 0 964.309
0 0 7678.6 0 0 -7678.6 0 0 9298.15 0 0 -9298.15 0 0 -1042.45 0 0 1042.45
0 0 4613.33 0 0 -4613.33 0 0 7773.59 0 0 -7773.59 0 0 -1082.52 0 0 1082.52
0 0 2017.43 0 0 -2017.43 0 0 6095.42 0 0 -6095.42 0 0 -1085.97 0 0 1085.97
0 0 -350.082 0 0 350.082 0 0 4345.07 0 0 -4345.07 0 0 -1055.9 0 0 1055.9
0 0 -2738.76 0 0 2738.76 0 0 2711 0 0 -2711 0 0 -1018.39 0 0 1018.39
0 0 -5004.1 0 0 5004.1 0 0 1066.56 0 0 -1066.56 0 0 -964.696 0 0 964.696
0 0 -7280.72 0 0 7280.72 0 0 -485.493 0 0 485.493 0 0 -912.639 0 0 912.639
0 0 -9503.35 0 0 9503.35 0 0 -1949.54 0 0 1949.54 0 0 -864.515 0 0 864.515
0 0 -11640.2 0 0 11640.2 0 0 -3316.4 0 0 3316.4 0 0 -832.547 0 0 832.547
0 0 -13669.8 0 0 13669.8 0 0 -4564.07 0 0 4564.07 0 0 -822.358 0 0 822.358
0 0 -15563.9 0 0 15563.9 0 0 -5680.23 0 0 5680.23 0 0 -840.036 0 0 840.036
0 0 -17303.2 0 0 17303.2 0 0 -6659.28 0 0 6659.28 0 0 -889.134 0 0 889.134
0 0 -18874.7 0 0 18874.7 0 0 -7496.59 0 0 7496.59 0 0 -972.574 0 0 972.574
0 0 -20270.3 0 0 20270.3 0 0 -8192.86 0 0 8192.86 0 0 -1087.97 0 0 1087.97
0 0 -21490.5 0 0 21490.5 0 0 -8748.67 0 0 8748.67 0 0 -1217.06 0 0 1217.06
0 0 -22543.1 0 0 22543.1 0 0 -9178.89 0 0 9178.89 0 0 -1375.07 0 0 1375.07
0 0 -23444.2 0 0 23444.2 0 0 -9493.51 0 0 9493.51 0 0 -1558.59 0 0 1558.59
0 0 -24214.4 0 0 24214.4 0 0 -9710.12 0 0 9710.12 0 0 -1763 0 0 1763
0 0 -24878.5 0 0 24878.5 0 0 -9846.2 0 0 9846.2 0 0 -1983.4 0 0 1983.4
0 0 -25461.8 0 0 25461.8 0 0 -9923.57 0 0 9923.57 0 0 -2214.28 0 0 2214.28
0 0 -25991.5 0 0 25991.5 0 0 -9964.91 0 0 9964.91 0 0 -2449.49 0 0 2449.49
0 0 -26494.9 0 0 26494.9 0 0 -9993.85 0 0 9993.85 0 0 -2682.67 0 0 2682.67
0 0 -26999 0 0 26999 0 0 -10033.6 0 0 10033.6 0 0 -2907.61 0 0 2907.61
0 0 -27530.1 0 0 27530.1 0 0 -10106.5 0 0 10106.5 0 0 -3118.29 0 0 3118.29
0 0 -28113.3 0 0 28113.3 0 0 -10232.5 0 0 10232.5 0 0 -3309.35 0 0 3309.35
0 0 -28771.2 0 0 28771.2 0 0 -10428.6 0 0 10428.6 0 0 -3476.15 0 0 3476.15
0 0 -29523.4 0 0 29523.4 0 0 -10708.9 0 0 10708.9 0 0 -3615 0 0 3615
0 0 -30386 0 0 30386 0 0 -11083.5 0 0 11083.5 0 0 -3723.34 0 0 3723.34
0 0 -31370.4 0 0 31370.4 0 0 -11558.6 0 0 11558.6 0 0 -3799.79 0 0 3799.79
0 0 -32480.9 0 0 32480.9 0 0 -12136.9 0 0 12136.9 0 0 -3844.16 0 0 3844.16
0 0 -33713.3 0 0 33713.3 0 0 -12818.1 0 0 12818.1 0 0 -3857.49 0 0 3857.49
0 0 -35055.8 0 0 35055.8 0 0 -13597.4 0 0 13597.4 0 0 -3838.79 0 0 3838.79
0 0 -36490.9 0 0 36490.9 0 0 -14466.2 0 0 14466.2 0 0 -3790.84 0 0 3790.84
0 0 -37995.6 0 0 37995.6 0 0 -15414.1 0 0 15414.1 0 0 -3718.58 0 0 3718.58
0 0 -39544.3 0 0 39544.3 0 0 -16426.2 0 0 16426.2 0 0 -3628.39 0 0 3628.39
0 0 -41109.2 0 0 41109.2 0 0 -17485 0 0 17485 0 0 -3527.37 0 0 3527.37
0 0 -42662.9 0 0 42662.9 0 0 -18569.8 0 0 18569.8 0 0 -3423.28 0 0 3423.28
0 0 -44180.2 0 0 44180.2 0 0 -19658.1 0 0 19658.1 0 0 -3324.12 0 0 3324.12
0 0 -45639.3 0 0 45639.3 0 0 -20725.9 0 0 20725.9 0 0 -3237.87 0 0 3237.87
0 0 -47021.9 0 0 47021.9 0 0 -21749.5 0 0 21749.5 0 0 -3172.08 0 0 3172.08
0 0 -48311.4 0 0 48311.4 0 0 -22706.7 0 0 22706.7 0 0 -3133.54 0 0 3133.54
0 0 -49493.2 0 0 49493.2 0 0 -23578.5 0 0 23578.5 0 0 -3127.93 0 0 3127.93
0 0 -50554.5 0 0 50554.5 0 0 -24349.8 0 0 24349.8 0 0 -3159.6 0 0 3159.6
0 0 -51483.8 0 0 51483.8 0 0 -25010.2 0 0 25010.2 0 0 -3231.29 0 0 3231.29
0 0 -52271.7 0 0 52271.7 0 0 -25554.7 0 0 25554.7 0 0 -3344.12 0 0 3344.12
0 0 -52912.6 0 0 52912.6 0 0 -25982.8 0 0 25982.8 0 0 -3497.48 0 0 3497.48
0 0 -53404.8 0 0 53404.8 0 0 -26298.7 0 0 26298.7 0 0 -3689.14 0 0 3689.14
0 0 -53751.9 0 0 53751.9 0 0 -26509.1 0 0 26509.1 0 0 -3896.59 0 0 3896.59
0 0 -53963.9 0 0 53963.9 0 0 -26613.1 0 0 26613.1 0 0 -4120.45 0 0 4120.45
0 0 -54045.3 0 0 54045.3 0 0 -26646.3 0 0 26646.3 0 0 -4358.71 0 0 4358.71
0 0 -54009.3 0 0 54009.3 0 0 -26612.2 0 0 26612.2 0 0 -4612.75 0 0 4612.75
0 0 -53866.1 0 0 53866.1 0 0 -26532 0 0 26532 0 0 -4874.59 0 0 4874.59
0 0 -53634.8 0 0 53634.8 0 0 -26422.5 0 0 26422.5 0 0 -5137.92 0 0 5137.92
0 0 -53257.9 0 0 53257.9 0 0 -26311.7 0 0 26311.7 0 0 -5395.59 0 0 5395.59
0 0 -52733.9 0 0 52733.9 0 0 -26227.5 0 0 26227.5 0 0 -5640.21 0 0 5640.21
0 0 -52274.3 0 0 52274.3 0 0 -26133 0 0 26133 0 0 -5868.61 0 0 5868.61
0 0 -51856.7 0 0 51856.7 0 0 -26062.2 0 0 26062.2 0 0 -6073.33 0 0 6073.33
0 0 -51370 0 0 51370 0 0 -26032.4 0 0 26032.4 0 0 -6250.47 0 0 6250.47
0 0 -50759.6 0 0 50759.6 0 0 -26064.8 0 0 26064.8 0 0 -6394.38 0 0 6394.38
0 0 -50039.7 0 0 50039.7 0 0 -26149.4 0 0 26149.4 0 0 -6503.77 0 0 6503.77
0 0 -49214.9 0 0 49214.9 0 0 -26278.8 0 0 26278.8 0 0 -6577.12 0 0 6577.12
0 0 -48291.7 0 0 48291.7 0 0 -26437.1 0 0 26437.1 0 0 -6614.76 0 0 6614.76
0 0 -47276.9 0 0 47276.9 0 0 -26602.9 0 0 26602.9 0 0 -6617.08 0 0 6617.08
0 0 -46180.6 0 0 46180.6 0 0 -26749.3 0 0 26749.3 0 0 -6582.98 0 0 6582.98
0 0 -45014.3 0 0 45014.3 0 0 -26848.4 0 0 26848.4 0 0 -6515.13 0 0 6515.13
0 0 -43789.3 0 0 43789.3 0 0 -26871.4 0 0 26871.4 0 0 -6417.92 0 0 6417.92
0 0 -42513 0 0 42513 0 0 -26791.4 0 0 26791.4 0 0 -6295.65 0 0 6295.65
0 0 -41185.5 0 0 41185.5 0 0 -26585 0 0 26585 0 0 -6152.56 0 0 6152.56
0 0 -39797.4 0 0 39797.4 0 0 -26234.6 0 0 26234.6 0 0 -5992.44 0 0 5992.44
0 0 -38329.2 0 0 38329.2 0 0 -25728.7 0 0 25728.7 0 0 -5818.4 0 0 5818.4
0 0 -36755.8 0 0 36755.8 0 0 -25061.7 0 0 25061.7 0 0 -5632.84 0 0 5632.84
0 0 -35054.9 0 0 35054.9 0 0 -24232.8 0 0 24232.8 0 0 -5437.39 0 0 5437.39
0 0 -33213 0 0 33213 0 0 -23244.3 0 0 23244.3 0 0 -5232.97 0 0 5232.97
0 0 -31227.7 0 0 31227.7 0 0 -22101.7 0 0 22101.7 0 0 -5019.84 0 0 5019.84
0 0 -29102.3 0 0 29102.3 0 0 -20813.4 0 0 20813.4 0 0 -4797.58 0 0 4797.58
0 0 -26841.5 0 0 26841.5 0 0 -19392.1 0 0 19392.1 0 0 -4565.11 0 0 4565.11
0 0 -24450.6 0 0 24450.6 0 0 -17853.2 0 0 17853.2 0 0 -4320.86 0 0 4320.86
0 0 -21936.1 0 0 21936.1 0 0 -16214.7 0 0 16214.7 0 0 -4062.86 0 0 4062.86
0 0 -19305.8 0 0 19305.8 0 0 -14496.1 0 0 14496.1 0 0 -3789.01 0 0 3789.01
0 0 -16565.1 0 0 16565.1 0 0 -12717.8 0 0 12717.8 0 0 -3497.15 0 0 3497.15
0 0 -13715.7 0 0 13715.7 0 0 -10900.8 0 0 10900.8 0 0 -3185.32 0 0 3185.32
0 0 -10757.7 0 0 10757.7 0 0 -9065.07 0 0 9065.07 0 0 -2851.93 0 0 2851.93
0 0 -7696.54 0 0 7696.54 0 0 -7227.34 0 0 7227.34 0 0 -2496.04 0 0 2496.04
0 0 -4549.4 0 0 4549.4 0 0 -5399.55 0 0 5399.55 0 0 -2117.54 0 0 2117.54
0 0 -1341.82 0 0 1341.82 0 0 -3589.13 0 0 3589.13 0 0 -1717.14 0 0 1717.14
0 0 1049.87 0 0 -1049.87 0 0 -1706.15 0 0 1706.15 0 0 -1299.96 0 0 1299.96
0 0 3100.48 0 0 -3100.48 0 0 152.221 0 0 -152.221 0 0 -863.904 0 0 863.904
0 0 5047.93 0 0 -5047.93 0 0 2006.19 0 0 -2006.19 0 0 -407.496 0 0 407.496
0 0 6953.03 0 0 -6953.03 0 0 3777.21 0 0 -3777.21 0 0 50.096 0 0 -50.096
0 0 8756.56 0 0 -8756.56 0 0 5461.94 0 0 -5461.94 0 0 485.872 0 0 -485.872
0 0 10450.8 0 0 -10450.8 0 0 7071.09 0 0 -7071.09 0 0 921.843 0 0 -921.843
0 0 12018.5 0 0 -12018.5 0 0 8579.1 0 0 -8579.1 0 0 1369.42 0 0 -1369.42
0 0 13449.8 0 0 -13449.8 0 0 9993.28 0 0 -9993.28 0 0 1817.65 0 0 -1817.65
0 0 14740.9 0 0 -14740.9 0 0 11301.6 0 0 -11301.6 0 0 2265.62 0 0 -2265.62
0 0 15891.1 0 0 -15891.1 0 0 12502.5 0 0 -12502.5 0 0 2707.14 0 0 -2707.14
0 0 16906.3 0 0 -16906.3 0 0 13592.3 0 0 -13592.3 0 0 3138.37 0 0 -3138.37
0 0 17796.4 0 0 -17796.4 0 0 14569.2 0 0 -14569.2 0 0 3553.58 0 0 -3553.58
0 0 18572.8 0 0 -18572.8 0 0 15432.5 0 0 -15432.5 0 0 3947.86 0 0 -3947.86
0 0 19247.9 0 0 -19247.9 0 0 16183.1 0 0 -16183.1 0 0 4315.92 0 0 -4315.92
0 0 19836.1 0 0 -19836.1 0 0 16823.4 0 0 -16823.4 0 0 4652.64 0 0 -4652.64
0 0 20354.8 0 0 -20354.8 0 0 17356.2 0 0 -17356.2 0 0 4953.11 0 0 -4953.11
0 0 20823.2 0 0 -20823.2 0 0 17785.2 0 0 -17785.2 0 0 5212.66 0 0 -5212.66
0 0 21260.3 0 0 -21260.3 0 0 18115.4 0 0 -18115.4 0 0 5427.17 0 0 -5427.17
0 0 21683.3 0 0 -21683.3 0 0 18353.3 0 0 -18353.3 0 0 5592.95 0 0 -5592.95
0 0 22105 0 0 -22105 0 0 18507 0 0 -18507 0 0 5706.93 0 0 -5706.93
0 0 22533.2 0 0 -22533.2 0 0 18585.7 0 0 -18585.7 0 0 5766.69 0 0 -5766.69
0 0 22973.4 0 0 -22973.4 0 0 18599.1 0 0 -18599.1 0 0 5769.1 0 0 -5769.1
0 0 23432.3 0 0 -23432.3 0 0 18553.4 0 0 -18553.4 0 0 5707.78 0 0 -5707.78
0 0 23917.2 0 0 -23917.2 0 0 18456.7 0 0 -18456.7 0 0 5582.17 0 0 -5582.17
0 0 24435.1 0 0 -24435.1 0 0 18315.2 0 0 -18315.2 0 0 5394.27 0 0 -5394.27
0 0 24989.5 0 0 -24989.5 0 0 18135.5 0 0 -18135.5 0 0 5147.06 0 0 -5147.06
0 0 25577.6 0 0 -25577.6 0 0 17923.7 0 0 -17923.7 0 0 4844.74 0 0 -4844.74
0 0 26191.2 0 0 -26191.2 0 0 17685.8 0 0 -17685.8 0 0 4492.6 0 0 -4492.6
0 0 26819.1 0 0 -26819.1 0 0 17427 0 0 -17427 0 0 4096.97 0 0 -4096.97
0 0 27447.8 0 0 -27447.8 0 0 17151 0 0 -17151 0 0 3665.08 0 0 -3665.08
0 0 28062.1 0 0 -28062.1 0 0 16860.7 0 0 -16860.7 0 0 3204.97 0 0 -3204.97
0 0 28644.7 0 0 -28644.7 0 0 16557.5 0 0 -16557.5 0 0 2725.3 0 0 -2725.3
0 0 29176.6 0 0 -29176.6 0 0 16241.9 0 0 -16241.9 0 0 2235.19 0 0 -2235.19
0 0 29638.6 0 0 -29638.6 0 0 15913.2 0 0 -15913.2 0 0 1743.98 0 0 -1743.98
0 0 30011.9 0 0 -30011.9 0 0 15569.5 0 0 -15569.5 0 0 1261.08 0 0 -1261.08
0 0 30271.8 0 0 -30271.8 0 0 15209.2 0 0 -15209.2 0 0 795.668 0 0 -795.668
0 0 30320.1 0 0 -30320.1 0 0 14845.9 0 0 -14845.9 0 0 355.572 0 0 -355.572
0 0 30150 0 0 -30150 0 0 14462 0 0 -14462 0 0 -36.6218 0 0 36.6218
0 0 29761.2 0 0 -29761.2 0 0 14065.4 0 0 -14065.4 0 0 -357.068 0 0 357.068
0 0 29188.8 0 0 -29188.8 0 0 13614.9 0 0 -13614.9 0 0 -629.717 0 0 629.717
0 0 28457.1 0 0 -28457.1 0 0 13112.8 0 0 -13112.8 0 0 -857.197 0 0 857.197
0 0 27593.6 0 0 -27593.6 0 0 12544.7 0 0 -12544.7 0 0 -1034.24 0 0 1034.24
0 0 26618.4 0 0 -26618.4 0 0 11912.9 0 0 -11912.9 0 0 -1159.98 0 0 1159.98
0 0 25548.3 0 0 -25548.3 0 0 11219.4 0 0 -11219.4 0 0 -1234.07 0 0 1234.07
0 0 24392.9 0 0 -24392.9 0 0 10474.5 0 0 -10474.5 0 0 -1258.4 0 0 1258.4
0 0 23159.2 0 0 -23159.2 0 0 9692.84 0 0 -9692.84 0 0 -1231.83 0 0 1231.83
0 0 21854.3 0 0 -21854.3 0 0 8894.03 0 0 -8894.03 0 0 -1157.45 0 0 1157.45
0 0 20491.1 0 0 -20491.1 0 0 8096.38 0 0 -8096.38 0 0 -1041.13 0 0 1041.13
0 0 19089.2 0 0 -19089.2 0 0 7319.79 0 0 -7319.79 0 0 -890.011 0 0 890.011
0 0 17673.9 0 0 -17673.9 0 0 6583.34 0 0 -6583.34 0 0 -711.731 0 0 711.731
0 0 16271.2 0 0 -16271.2 0 0 5905.62 0 0 -5905.62 0 0 -514.274 0 0 514.274
0 0 14903.6 0 0 -14903.6 0 0 5304.13 0 0 -5304.13 0 0 -305.759 0 0 305.759
0 0 13590.2 0 0 -13590.2 0 0 4794.47 0 0 -4794.47 0 0 -93.9678 0 0 93.9678
0 0 12345.8 0 0 -12345.8 0 0 4388.52 0 0 -4388.52 0 0 107.022 0 0 -107.022
0 0 11178.4 0 0 -11178.4 0 0 4094.59 0 0 -4094.59 0 0 296.237 0 0 -296.237
0 0 10083.5 0 0 -10083.5 0 0 3924.29 0 0 -3924.29 0 0 470.099 0 0 -470.099
0 0 9050.01 0 0 -9050.01 0 0 3877.59 0 0 -3877.59 0 0 624.262 0 0 -624.262
0 0 8057.31 0 0 -8057.31 0 0 3953.02 0 0 -3953.02 0 0 756.244 0 0 -756.244
0 0 7081.65 0 0 -7081.65 0 0 4142.35 0 0 -4142.35 0 0 864.307 0 0 -864.307
0 0 6097.42 0 0 -6097.42 0 0 4431.13 0 0 -4431.13 0 0 948.396 0 0 -948.396
0 0 5078.77 0 0 -5078.77 0 0 4798.75 0 0 -4798.75 0 0 1009.58 0 0 -1009.58
0 0 3999.88 0 0 -3999.88 0 0 5219.1 0 0 -5219.1 0 0 1050.13 0 0 -1050.13
0 0 2834.07 0 0 -2834.07 0 0 5661.72 0 0 -5661.72 0 0 1073.28 0 0 -1073.28
0 0 1708.85 0 0 -1708.85 0 0 6076.13 0 0 -6076.13 0 0 1083.15 0 0 -1083.15
0 0 1194.12 0 0 -1194.12 0 0 6303.7 0 0 -6303.7 0 0 1091.75 0 0 -1091.75
0 0 434.271 0 0 -434.271 0 0 6516.04 0 0 -6516.04 0 0 1087.45 0 0 -1087.45
0 0 -379.201 0 0 379.201 0 0 6627.8 0 0 -6627.8 0 0 1080.77 0 0 -1080.77
0 0 -1307.19 0 0 1307.19 0 0 6646.45 0 0 -6646.45 0 0 1068.7 0 0 -1068.7
0 0 -2361.42 0 0 2361.42 0 0 6528.25 0 0 -6528.25 0 0 1057 0 0 -1057
0 0 -3543.42 0 0 3543.42 0 0 6266.8 0 0 -6266.8 0 0 1044.93 0 0 -1044.93
0 0 -4853.03 0 0 4853.03 0 0 5847.08 0 0 -5847.08 0 0 1033.46 0 0 -1033.46
0 0 -6289.33 0 0 6289.33 0 0 5264.5 0 0 -5264.5 0 0 1021.64 0 0 -1021.64
0 0 -7849.88 0 0 7849.88 0 0 4518.35 0 0 -4518.35 0 0 1007.49 0 0 -1007.49
0 0 -9530.3 0 0 9530.3 0 0 3612.78 0 0 -3612.78 0 0 988.39 0 0 -988.39
0 0 -11321.6 0 0 11321.6 0 0 2556.75 0 0 -2556.75 0 0 960.581 0 0 -960.581
0 0 -13208.8 0 0 13208.8 0 0 1364.71 0 0 -1364.71 0 0 919.867 0 0 -919.867
0 0 -15171.2 0 0 15171.2 0 0 50.1121 0 0 -50.1121 0 0 861.98 0 0 -861.98
0 0 -17184.7 0 0 17184.7 0 0 -1352.09 0 0 1352.09 0 0 782.48 0 0 -782.48
0 0 -19232.3 0 0 19232.3 0 0 -2835.15 0 0 2835.15 0 0 674.608 0 0 -674.608
0 0 -21288.8 0 0 21288.8 0 0 -4379.22 0 0 4379.22 0 0 534.333 0 0 -534.333
0 0 -23333.7 0 0 23333.7 0 0 -5961.49 0 0 5961.49 0 0 356.566 0 0 -356.566
0 0 -25346.4 0 0 25346.4 0 0 -7559.23 0 0 7559.23 0 0 138.619 0 0 -138.619
0 0 -27307.1 0 0 27307.1 0 0 -9148.91 0 0 9148.91 0 0 -101.921 0 0 101.921
0 0 -29197.9 0 0 29197.9 0 0 -10701.5 0 0 10701.5 0 0 -373.623 0 0 373.623
0 0 -30994.3 0 0 30994.3 0 0 -12218.6 0 0 12218.6 0 0 -685.619 0 0 685.619
0 0 -32685 0 0 32685 0 0 -13676.3 0 0 13676.3 0 0 -1038.57 0 0 1038.57
0 0 -34253 0 0 34253 0 0 -15068.4 0 0 15068.4 0 0 -1430.69 0 0 1430.69
0 0 -35687.2 0 0 35687.2 0 0 -16386 0 0 16386 0 0 -1859.1 0 0 1859.1
0 0 -36978.4 0 0 36978.4 0 0 -17625.6 0 0 17625.6 0 0 -2319.7 0 0 2319.7
0 0 -38122.8 0 0 38122.8 0 0 -18785 0 0 18785 0 0 -2807.38 0 0 2807.38
0 0 -39123.3 0 0 39123.3 0 0 -19863.8 0 0 19863.8 0 0 -3315.99 0 0 3315.99
0 0 -39988.7 0 0 39988.7 0 0 -20863.5 0 0 20863.5 0 0 -3838.69 0 0 3838.69
0 0 -40732.1 0 0 40732.1 0 0 -21786.6 0 0 21786.6 0 0 -4367.97 0 0 4367.97
0 0 -41369.3 0 0 41369.3 0 0 -22637 0 0 22637 0 0 -4895.86 0 0 4895.86
0 0 -41917.2 0 0 41917.2 0 0 -23419.9 0 0 23419.9 0 0 -5414.14 0 0 5414.14
0 0 -42391.5 0 0 42391.5 0 0 -24141.4 0 0 24141.4 0 0 -5914.5 0 0 5914.5
0 0 -42806.3 0 0 42806.3 0 0 -24807.9 0 0 24807.9 0 0 -6388.81 0 0 6388.81
0 0 -43175.2 0 0 43175.2 0 0 -25425.9 0 0 25425.9 0 0 -6829.32 0 0 6829.32
0 0 -43511.3 0 0 43511.3 0 0 -26000.7 0 0 26000.7 0 0 -7228.91 0 0 7228.91
0 0 -43828.4 0 0 43828.4 0 0 -26536 0 0 26536 0 0 -7581.24 0 0 7581.24
0 0 -44149 0 0 44149 0 0 -26997.2 0 0 26997.2 0 0 -7718.11 0 0 7718.11
0 0 -44494.8 0 0 44494.8 0 0 -27349.4 0 0 27349.4 0 0 -7734.05 0 0 7734.05
0 0 -44831.3 0 0 44831.3 0 0 -27738.7 0 0 27738.7 0 0 -7744.8 0 0 7744.8
0 0 -45205.8 0 0 45205.8 0 0 -28065.7 0 0 28065.7 0 0 -7753.37 0 0 7753.37
0 0 -45593.8 0 0 45593.8 0 0 -28383.4 0 0 28383.4 0 0 -7758.31 0 0 7758.31
0 0 -46007.2 0 0 46007.2 0 0 -28659.5 0 0 28659.5 0 0 -7759.88 0 0 7759.88
0 0 -46434.7 0 0 46434.7 0 0 -28896.3 0 0 28896.3 0 0 -7717.1 0 0 7717.1
0 0 -46873.1 0 0 46873.1 0 0 -29068.1 0 0 29068.1 0 0 -7617.85 0 0 7617.85
0 0 -47300.2 0 0 47300.2 0 0 -29181.4 0 0 29181.4 0 0 -7461.28 0 0 7461.28
0 0 -47696.8 0 0 47696.8 0 0 -29229.2 0 0 29229.2 0 0 -7253.01 0 0 7253.01
0 0 -48035.7 0 0 48035.7 0 0 -29210.1 0 0 29210.1 0 0 -6997.79 0 0 6997.79
0 0 -48258.5 0 0 48258.5 0 0 -29125.8 0 0 29125.8 0 0 -6701.12 0 0 6701.12
0 0 -48349.8 0 0 48349.8 0 0 -28967.6 0 0 28967.6 0 0 -6369.47 0 0 6369.47
0 0 -48293 0 0 48293 0 0 -28726.1 0 0 28726.1 0 0 -6010.39 0 0 6010.39
0 0 -48084 0 0 48084 0 0 -28388.1 0 0 28388.1 0 0 -5631.7 0 0 5631.7
0 0 -47726.4 0 0 47726.4 0 0 -27943.4 0 0 27943.4 0 0 -5240.86 0 0 5240.86
0 0 -47225.7 0 0 47225.7 0 0 -27382.2 0 0 27382.2 0 0 -4845.09 0 0 4845.09
0 0 -46586.9 0 0 46586.9 0 0 -26698.9 0 0 26698.9 0 0 -4451.05 0 0 4451.05
0 0 -45813.6 0 0 45813.6 0 0 -25891.4 0 0 25891.4 0 0 -4064.66 0 0 4064.66
0 0 -44906.7 0 0 44906.7 0 0 -24962 0 0 24962 0 0 -3690.82 0 0 3690.82
0 0 -43863.7 0 0 43863.7 0 0 -23917.8 0 0 23917.8 0 0 -3333.23 0 0 3333.23
0 0 -42678.3 0 0 42678.3 0 0 -22770.5 0 0 22770.5 0 0 -2994.55 0 0 2994.55
0 0 -41341.6 0 0 41341.6 0 0 -21536.2 0 0 21536.2 0 0 -2676.38 0 0 2676.38
0 0 -39842 0 0 39842 0 0 -20233.6 0 0 20233.6 0 0 -2379.34 0 0 2379.34
0 0 -38167.6 0 0 38167.6 0 0 -18883.5 0 0 18883.5 0 0 -2103.2 0 0 2103.2
0 0 -36313.2 0 0 36313.2 0 0 -17505.9 0 0 17505.9 0 0 -1847.15 0 0 1847.15
0 0 -34287 0 0 34287 0 0 -16118.4 0 0 16118.4 0 0 -1610.06 0 0 1610.06
0 0 -32109.3 0 0 32109.3 0 0 -14735.4 0 0 14735.4 0 0 -1390.56 0 0 1390.56
0 0 -29807.2 0 0 29807.2 0 0 -13368.8 0 0 13368.8 0 0 -1187.14 0 0 1187.14
0 0 -27411.3 0 0 27411.3 0 0 -12027.9 0 0 12027.9 0 0 -998.173 0 0 998.173
0 0 -24952.2 0 0 24952.2 0 0 -10720.6 0 0 10720.6 0 0 -821.991 0 0 821.991
0 0 -22459.9 0 0 22459.9 0 0 -9452.95 0 0 9452.95 0 0 -656.946 0 0 656.946
0 0 -19962.3 0 0 19962.3 0 0 -8229.6 0 0 8229.6 0 0 -501.424 0 0 501.424
0 0 -17483.8 0 0 17483.8 0 0 -7054.24 0 0 7054.24 0 0 -353.875 0 0 353.875
0 0 -15044.3 0 0 15044.3 0 0 -5929.88 0 0 5929.88 0 0 -212.848 0 0 212.848
0 0 -12656.2 0 0 12656.2 0 0 -4859.31 0 0 4859.31 0 0 -76.9313 0 0 76.9313
0 0 -10322.6 0 0 10322.6 0 0 -3847.28 0 0 3847.28 0 0 38.1337 0 0 -38.1337
0 0 -8038.75 0 0 8038.75 0 0 -2905.39 0 0 2905.39 0 0 140.984 0 0 -140.984
0 0 -5808.97 0 0 5808.97 0 0 -2015.26 0 0 2015.26 0 0 241.039 0 0 -241.039
0 0 -3635.83 0 0 3635.83 0 0 -1184.83 0 0 1184.83 0 0 340.159 0 0 -340.159
0 0 -1539.21 0 0 1539.21 0 0 -403.498 0 0 403.498 0 0 438.518 0 0 -438.518
0 0 337.936 0 0 -337.936 0 0 341.813 0 0 -341.813 0 0 536.235 0 0 -536.235
0 0 1830.55 0 0 -1830.55 0 0 1044.29 0 0 -1044.29 0 0 635.28 0 0 -635.28
0 0 2818.04 0 0 -2818.04 0 0 1839.86 0 0 -1839.86 0 0 724.217 0 0 -724.217
0 0 3773.27 0 0 -3773.27 0 0 2521.05 0 0 -2521.05 0 0 821.211 0 0 -821.211
0 0 4629.66 0 0 -4629.66 0 0 3175.92 0 0 -3175.92 0 0 913.406 0 0 -913.406
0 0 5374.9 0 0 -5374.9 0 0 3768.33 0 0 -3768.33 0 0 1009.11 0 0 -1009.11
0 0 6006.03 0 0 -6006.03 0 0 4300.11 0 0 -4300.11 0 0 1104.86 0 0 -1104.86
0 0 6520.02 0 0 -6520.02 0 0 4764.58 0 0 -4764.58 0 0 1201.88 0 0 -1201.88
0 0 6919.45 0 0 -6919.45 0 0 5159.05 0 0 -5159.05 0 0 1299.43 0 0 -1299.43
0 0 7208.84 0 0 -7208.84 0 0 5477.8 0 0 -5477.8 0 0 1397.19 0 0 -1397.19
0 0 7396.1 0 0 -7396.1 0 0 5718.15 0 0 -5718.15 0 0 1494.31 0 0 -1494.31
0 0 7490.36 0 0 -7490.36 0 0 5878.65 0 0 -5878.65 0 0 1589.62 0 0 -1589.62
0 0 7500.87 0 0 -7500.87 0 0 5959 0 0 -5959 0 0 1681.82 0 0 -1681.82
0 0 7433.14 0 0 -7433.14 0 0 5959.71 0 0 -5959.71 0 0 1769.22 0 0 -1769.22
0 0 7293.13 0 0 -7293.13 0 0 5885.41 0 0 -5885.41 0 0 1849.93 0 0 -1849.93
0 0 7089.53 0 0 -7089.53 0 0 5742.87 0 0 -5742.87 0 0 1921.72 0 0 -1921.72
0 0 6830.09 0 0 -6830.09 0 0 5540.39 0 0 -5540.39 0 0 1982.34 0 0 -1982.34
0 0 6523.27 0 0 -6523.27 0 0 5287.06 0 0 -5287.06 0 0 2029.47 0 0 -2029.47
0 0 6178.13 0 0 -6178.13 0 0 4992.31 0 0 -4992.31 0 0 2060.93 0 0 -2060.93
0 0 5804.33 0 0 -5804.33 0 0 4665.52 0 0 -4665.52 0 0 2074.71 0 0 -2074.71
0 0 5393.27 0 0 -5393.27 0 0 4317.66 0 0 -4317.66 0 0 2066.18 0 0 -2066.18
0 0 4943.22 0 0 -4943.22 0 0 3957.15 0 0 -3957.15 0 0 2030.89 0 0 -2030.89
0 0 4483.6 0 0 -4483.6 0 0 3586.46 0 0 -3586.46 0 0 1967.69 0 0 -1967.69
0 0 4045.69 0 0 -4045.69 0 0 3206.89 0 0 -3206.89 0 0 1876.51 0 0 -1876.51
0 0 3653.96 0 0 -3653.96 0 0 2819.83 0 0 -2819.83 0 0 1757.71 0 0 -1757.71
0 0 3321.92 0 0 -3321.92 0 0 2427.78 0 0 -2427.78 0 0 1612.22 0 0 -1612.22
0 0 3052.59 0 0 -3052.59 0 0 2034.41 0 0 -2034.41 0 0 1441.44 0 0 -1441.44
0 0 2838.69 0 0 -2838.69 0 0 1644.47 0 0 -1644.47 0 0 1247.3 0 0 -1247.3
0 0 2665.33 0 0 -2665.33 0 0 1263.79 0 0 -1263.79 0 0 1032.26 0 0 -1032.26
0 0 2515.5 0 0 -2515.5 0 0 896.299 0 0 -896.299 0 0 799.341 0 0 -799.341
0 0 2375.16 0 0 -2375.16 0 0 544.597 0 0 -544.597 0 0 551.907 0 0 -551.907
0 0 2237.49 0 0 -2237.49 0 0 208.269 0 0 -208.269 0 0 294.024 0 0 -294.024
0 0 2098.19 0 0 -2098.19 0 0 -113.445 0 0 113.445 0 0 30.0897 0 0 -30.0897
0 0 1952.32 0 0 -1952.32 0 0 -413.129 0 0 413.129 0 0 -213.397 0 0 213.397
0 0 1799.87 0 0 -1799.87 0 0 -706.2 0 0 706.2 0 0 -452.241 0 0 452.241
0 0 1644.7 0 0 -1644.7 0 0 -996.15 0 0 996.15 0 0 -685.271 0 0 685.271
0 0 1494.25 0 0 -1494.25 0 0 -1288.99 0 0 1288.99 0 0 -906.687 0 0 906.687
0 0 1357.84 0 0 -1357.84 0 0 -1587.9 0 0 1587.9 0 0 -1113.57 0 0 1113.57
0 0 1248.43 0 0 -1248.43 0 0 -1896.54 0 0 1896.54 0 0 -1302.27 0 0 1302.27
0 0 1178.18 0 0 -1178.18 0 0 -2215.79 0 0 2215.79 0 0 -1470.24 0 0 1470.24
0 0 1161.11 0 0 -1161.11 0 0 -2544.88 0 0 2544.88 0 0 -1615.3 0 0 1615.3
0 0 1211.31 0 0 -1211.31 0 0 -2879.86 0 0 2879.86 0 0 -1736.07 0 0 1736.07
0 0 1344.47 0 0 -1344.47 0 0 -3213.51 0 0 3213.51 0 0 -1831.97 0 0 1831.97
0 0 1573.31 0 0 -1573.31 0 0 -3536.35 0 0 3536.35 0 0 -1903.08 0 0 1903.08
0 0 1912.57 0 0 -1912.57 0 0 -3836.3 0 0 3836.3 0 0 -1950.1 0 0 1950.1
0 0 2208.29 0 0 -2208.29 0 0 -4077.91 0 0 4077.91 0 0 -1974.79 0 0 1974.79
0 0 2327.39 0 0 -2327.39 0 0 -4206.52 0 0 4206.52 0 0 -1982.19 0 0 1982.19
0 0 2561.16 0 0 -2561.16 0 0 -4291.13 0 0 4291.13 0 0 -1965.75 0 0 1965.75
0 0 2862.41 0 0 -2862.41 0 0 -4287.41 0 0 4287.41 0 0 -1930.81 0 0 1930.81
0 0 3237.91 0 0 -3237.91 0 0 -4198.99 0 0 4198.99 0 0 -1876.57 0 0 1876.57
0 0 3679 0 0 -3679 0 0 -4015.43 0 0 4015.43 0 0 -1805.26 0 0 1805.26
0 0 4182.03 0 0 -4182.03 0 0 -3732.52 0 0 3732.52 0 0 -1717.96 0 0 1717.96
0 0 4739.69 0 0 -4739.69 0 0 -3347.45 0 0 3347.45 0 0 -1615.58 0 0 1615.58
0 0 5341.48 0 0 -5341.48 0 0 -2860.81 0 0 2860.81 0 0 -1498.81 0 0 1498.81
0 0 5975 0 0 -5975 0 0 -2275.99 0 0 2275.99 0 0 -1367.95 0 0 1367.95
0 0 6625.88 0 0 -6625.88 0 0 -1599.68 0 0 1599.68 0 0 -1222.98 0 0 1222.98
0 0 7273.07 0 0 -7273.07 0 0 -844.144 0 0 844.144 0 0 -1063.4 0 0 1063.4
0 0 7812.53 0 0 -7812.53 0 0 -19.1403 0 0 19.1403 0 0 -888.729 0 0 888.729
0 0 8235.99 0 0 -8235.99 0 0 881.286 0 0 -881.286 0 0 -697.813 0 0 697.813
0 0 8562.27 0 0 -8562.27 0 0 1826.09 0 0 -1826.09 0 0 -491.555 0 0 491.555
0 0 8787.27 0 0 -8787.27 0 0 2793.58 0 0 -2793.58 0 0 -267.547 0 0 267.547
0 0 8914.27 0 0 -8914.27 0 0 3752.84 0 0 -3752.84 0 0 -30.0547 0 0 30.0547
0 0 8951.05 0 0 -8951.05 0 0 4658.72 0 0 -4658.72 0 0 187.618 0 0 -187.618
0 0 8894.35 0 0 -8894.35 0 0 5500.42 0 0 -5500.42 0 0 416.133 0 0 -416.133
0 0 8752.01 0 0 -8752.01 0 0 6247.21 0 0 -6247.21 0 0 662.528 0 0 -662.528
0 0 8531.42 0 0 -8531.42 0 0 6884.14 0 0 -6884.14 0 0 922.201 0 0 -922.201
0 0 8239.66 0 0 -8239.66 0 0 7392.93 0 0 -7392.93 0 0 1194.18 0 0 -1194.18
0 0 7879.99 0 0 -7879.99 0 0 7766.92 0 0 -7766.92 0 0 1474.82 0 0 -1474.82
0 0 7459.41 0 0 -7459.41 0 0 8002.22 0 0 -8002.22 0 0 1760.21 0 0 -1760.21
0 0 6990.14 0 0 -6990.14 0 0 8100.8 0 0 -8100.8 0 0 2045.28 0 0 -2045.28
0 0 6489.96 0 0 -6489.96 0 0 8068.95 0 0 -8068.95 0 0 2324.34 0 0 -2324.34
0 0 5977.65 0 0 -5977.65 0 0 7918.1 0 0 -7918.1 0 0 2591.19 0 0 -2591.19
0 0 5468.35 0 0 -5468.35 0 0 7664.62 0 0 -7664.62 0 0 2839.14 0 0 -2839.14
0 0 4973.31 0 0 -4973.31 0 0 7328.63 0 0 -7328.63 0 0 3061.4 0 0 -3061.4
0 0 4502.8 0 0 -4502.8 0 0 6932.41 0 0 -6932.41 0 0 3251.23 0 0 -3251.23
0 0 4067.98 0 0 -4067.98 0 0 6498.88 0 0 -6498.88 0 0 3402.4 0 0 -3402.4
0 0 3681.06 0 0 -3681.06 0 0 6050.11 0 0 -6050.11 0 0 3509.35 0 0 -3509.35
0 0 3354.47 0 0 -3354.47 0 0 5606.2 0 0 -5606.2 0 0 3567.47 0 0 -3567.47
0 0 3098.5 0 0 -3098.5 0 0 5184.61 0 0 -5184.61 0 0 3571.07 0 0 -3571.07
0 0 2919.85 0 0 -2919.85 0 0 4796 0 0 -4796 0 0 3509.38 0 0 -3509.38
0 0 2818.5 0 0 -2818.5 0 0 4451.14 0 0 -4451.14 0 0 3379.68 0 0 -3379.68
0 0 2788.81 0 0 -2788.81 0 0 4156.64 0 0 -4156.64 0 0 3183.51 0 0 -3183.51
0 0 2821.82 0 0 -2821.82 0 0 3914.63 0 0 -3914.63 0 0 2923.93 0 0 -2923.93
0 0 2908.05 0 0 -2908.05 0 0 3721.77 0 0 -3721.77 0 0 2606.11 0 0 -2606.11
0 0 3038.85 0 0 -3038.85 0 0 3569.99 0 0 -3569.99 0 0 2236.98 0 0 -2236.98
0 0 3205.4 0 0 -3205.4 0 0 3446.98 0 0 -3446.98 0 0 1825.04 0 0 -1825.04
0 0 3395.82 0 0 -3395.82 0 0 3337.73 0 0 -3337.73 0 0 1379.94 0 0 -1379.94
0 0 3592.79 0 0 -3592.79 0 0 3225.99 0 0 -3225.99 0 0 912.195 0 0 -912.195
0 0 3776.14 0 0 -3776.14 0 0 3094.97 0 0 -3094.97 0 0 432.787 0 0 -432.787
0 0 3927.08 0 0 -3927.08 0 0 2927.86 0 0 -2927.86 0 0 -33.2115 0 0 33.2115
0 0 4023.46 0 0 -4023.46 0 0 2736.11 0 0 -2736.11 0 0 -433.557 0 0 433.557
0 0 4061.27 0 0 -4061.27 0 0 2467.11 0 0 -2467.11 0 0 -813.13 0 0 813.13
0 0 4020.03 0 0 -4020.03 0 0 2127.47 0 0 -2127.47 0 0 -1171.72 0 0 1171.72
0 0 3882.61 0 0 -3882.61 0 0 1701.93 0 0 -1701.93 0 0 -1499.29 0 0 1499.29
0 0 3626.33 0 0 -3626.33 0 0 1194.31 0 0 -1194.31 0 0 -1791.7 0 0 1791.7
0 0 3261.97 0 0 -3261.97 0 0 600.83 0 0 -600.83 0 0 -2044.7 0 0 2044.7
0 0 2775.12 0 0 -2775.12 0 0 -66.3232 0 0 66.3232 0 0 -2255.08 0 0 2255.08
0 0 2163.32 0 0 -2163.32 0 0 -797.093 0 0 797.093 0 0 -2423.06 0 0 2423.06
0 0 1444.46 0 0 -1444.46 0 0 -1586.01 0 0 1586.01 0 0 -2547.42 0 0 2547.42
0 0 652.131 0 0 -652.131 0 0 -2417.15 0 0 2417.15 0 0 -2630.06 0 0 2630.06
0 0 -157.442 0 0 157.442 0 0 -3274.09 0 0 3274.09 0 0 -2673.5 0 0 2673.5
0 0 -992.152 0 0 992.152 0 0 -4133.03 0 0 4133.03 0 0 -2680.68 0 0 2680.68
0 0 -1879.58 0 0 1879.58 0 0 -4969.09 0 0 4969.09 0 0 -2652.38 0 0 2652.38
0 0 -2752.84 0 0 2752.84 0 0 -5759.57 0 0 5759.57 0 0 -2593.82 0 0 2593.82
0 0 -3586.95 0 0 3586.95 0 0 -6490.18 0 0 6490.18 0 0 -2509.73 0 0 2509.73
0 0 -4351.52 0 0 4351.52 0 0 -7138.03 0 0 7138.03 0 0 -2407.19 0 0 2407.19
0 0 -5024.56 0 0 5024.56 0 0 -7682.45 0 0 7682.45 0 0 -2292.18 0 0 2292.18
0 0 -5583.91 0 0 5583.91 0 0 -8106.59 0 0 8106.59 0 0 -2170.6 0 0 2170.6
0 0 -6010.37 0 0 6010.37 0 0 -8395.83 0 0 8395.83 0 0 -2047.78 0 0 2047.78
0 0 -6287.55 0 0 6287.55 0 0 -8539.4 0 0 8539.4 0 0 -1928.22 0 0 1928.22
0 0 -6404.02 0 0 6404.02 0 0 -8530.31 0 0 8530.31 0 0 -1815.45 0 0 1815.45
0 0 -6351.92 0 0 6351.92 0 0 -8365.22 0 0 8365.22 0 0 -1711.96 0 0 1711.96
0 0 -6140.27 0 0 6140.27 0 0 -8042.59 0 0 8042.59 0 0 -1619.26 0 0 1619.26
0 0 -5798.76 0 0 5798.76 0 0 -7564.32 0 0 7564.32 0 0 -1537.71 0 0 1537.71
0 0 -5347.81 0 0 5347.81 0 0 -6940.27 0 0 6940.27 0 0 -1466.2 0 0 1466.2
0 0 -4811.34 0 0 4811.34 0 0 -6184.53 0 0 6184.53 0 0 -1402.57 0 0 1402.57
0 0 -4211.06 0 0 4211.06 0 0 -5317.14 0 0 5317.14 0 0 -1343.54 0 0 1343.54
0 0 -3467.89 0 0 3467.89 0 0 -4379.26 0 0 4379.26 0 0 -1284.13 0 0 1284.13
0 0 -2692 0 0 2692 0 0 -3378.54 0 0 3378.54 0 0 -1220.99 0 0 1220.99
0 0 -1899.61 0 0 1899.61 0 0 -2347.86 0 0 2347.86 0 0 -1149 0 0 1149
0 0 -1111.04 0 0 1111.04 0 0 -1311.49 0 0 1311.49 0 0 -1063.93 0 0 1063.93
0 0 -346.747 0 0 346.747 0 0 -298.243 0 0 298.243 0 0 -961.171 0 0 961.171
0 0 340.645 0 0 -340.645 0 0 671.447 0 0 -671.447 0 0 -836.474 0 0 836.474
0 0 956.056 0 0 -956.056 0 0 1554.8 0 0 -1554.8 0 0 -686.352 0 0 686.352
0 0 1506.82 0 0 -1506.82 0 0 2358.32 0 0 -2358.32 0 0 -512.005 0 0 512.005
0 0 1998.41 0 0 -1998.41 0 0 3053.2 0 0 -3053.2 0 0 -311.362 0 0 311.362
0 0 2454.93 0 0 -2454.93 0 0 3624.2 0 0 -3624.2 0 0 -85.3946 0 0 85.3946
0 0 2884.36 0 0 -2884.36 0 0 4060.95 0 0 -4060.95 0 0 131.963 0 0 -131.963
0 0 3302.9 0 0 -3302.9 0 0 4360.25 0 0 -4360.25 0 0 361.565 0 0 -361.565
0 0 3718.37 0 0 -3718.37 0 0 4542.77 0 0 -4542.77 0 0 602.311 0 0 -602.311
0 0 3791.5 0 0 -3791.5 0 0 4683.86 0 0 -4683.86 0 0 847.308 0 0 -847.308
0 0 3868.47 0 0 -3868.47 0 0 4732.42 0 0 -4732.42 0 0 1092.53 0 0 -1092.53
0 0 3930.32 0 0 -3930.32 0 0 4712.62 0 0 -4712.62 0 0 1334 0 0 -1334
0 0 4020.59 0 0 -4020.59 0 0 4628.49 0 0 -4628.49 0 0 1565.16 0 0 -1565.16
0 0 4160.41 0 0 -4160.41 0 0 4509.58 0 0 -4509.58 0 0 1778.96 0 0 -1778.96
0 0 4364.11 0 0 -4364.11 0 0 4374.01 0 0 -4374.01 0 0 1970.33 0 0 -1970.33
0 0 4645.34 0 0 -4645.34 0 0 4247.63 0 0 -4247.63 0 0 2132.69 0 0 -2132.69
0 0 5010.19 0 0 -5010.19 0 0 4153.23 0 0 -4153.23 0 0 2261.46 0 0 -2261.46
0 0 5462.59 0 0 -5462.59 0 0 4112.77 0 0 -4112.77 0 0 2352.08 0 0 -2352.08
0 0 6001.07 0 0 -6001.07 0 0 4144.45 0 0 -4144.45 0 0 2401.7 0 0 -2401.7
0 0 6620.47 0 0 -6620.47 0 0 4262.65 0 0 -4262.65 0 0 2407.38 0 0 -2407.38
0 0 7315.53 0 0 -7315.53 0 0 4473.37 0 0 -4473.37 0 0 2363.84 0 0 -2363.84
0 0 8081.21 0 0 -8081.21 0 0 4777.63 0 0 -4777.63 0 0 2271.24 0 0 -2271.24
0 0 8910.05 0 0 -8910.05 0 0 5171.05 0 0 -5171.05 0 0 2133.48 0 0 -2133.48
0 0 9791 0 0 -9791 0 0 5643.72 0 0 -5643.72 0 0 1955.79 0 0 -1955.79
0 0 10708.7 0 0 -10708.7 0 0 6180.95 0 0 -6180.95 0 0 1745.08 0 0 -1745.08
0 0 11619.2 0 0 -11619.2 0 0 6768.95 0 0 -6768.95 0 0 1509.24 0 0 -1509.24
0 0 12476.4 0 0 -12476.4 0 0 7392.1 0 0 -7392.1 0 0 1256.81 0 0 -1256.81
0 0 13283.7 0 0 -13283.7 0 0 8017.28 0 0 -8017.28 0 0 998.288 0 0 -998.288
0 0 14040.5 0 0 -14040.5 0 0 8615.37 0 0 -8615.37 0 0 743.551 0 0 -743.551
0 0 14746.8 0 0 -14746.8 0 0 9156.2 0 0 -9156.2 0 0 502.609 0 0 -502.609
0 0 15403.8 0 0 -15403.8 0 0 9612.67 0 0 -9612.67 0 0 284.538 0 0 -284.538
0 0 16013.6 0 0 -16013.6 0 0 9962.21 0 0 -9962.21 0 0 97.2418 0 0 -97.2418
0 0 16577 0 0 -16577 0 0 10189 0 0 -10189 0 0 -44.8034 0 0 44.8034
0 0 17091.6 0 0 -17091.6 0 0 10290.3 0 0 -10290.3 0 0 -139.993 0 0 139.993
0 0 17558.6 0 0 -17558.6 0 0 10254.8 0 0 -10254.8 0 0 -196.151 0 0 196.151
0 0 17856.4 0 0 -17856.4 0 0 10114.2 0 0 -10114.2 0 0 -215.302 0 0 215.302
0 0 17867.6 0 0 -17867.6 0 0 9916.26 0 0 -9916.26 0 0 -198.028 0 0 198.028
0 0 17812.4 0 0 -17812.4 0 0 9599.62 0 0 -9599.62 0 0 -138.511 0 0 138.511
0 0 17661.3 0 0 -17661.3 0 0 9217.3 0 0 -9217.3 0 0 -46.9129 0 0 46.9129
0 0 17442.5 0 0 -17442.5 0 0 8771.19 0 0 -8771.19 0 0 67.4644 0 0 -67.4644
0 0 17177.5 0 0 -17177.5 0 0 8289.25 0 0 -8289.25 0 0 201.524 0 0 -201.524
0 0 16889.8 0 0 -16889.8 0 0 7799.81 0 0 -7799.81 0 0 350.858 0 0 -350.858
0 0 16606.2 0 0 -16606.2 0 0 7328.01 0 0 -7328.01 0 0 509.349 0 0 -509.349
0 0 16351.7 0 0 -16351.7 0 0 6900.64 0 0 -6900.64 0 0 670.222 0 0 -670.222
0 0 16152.7 0 0 -16152.7 0 0 6541.98 0 0 -6541.98 0 0 827.139 0 0 -827.139
0 0 16033.9 0 0 -16033.9 0 0 6273.88 0 0 -6273.88 0 0 974.167 0 0 -974.167
0 0 16017.6 0 0 -16017.6 0 0 6114.75 0 0 -6114.75 0 0 1106.18 0 0 -1106.18
0 0 16121.9 0 0 -16121.9 0 0 6078.58 0 0 -6078.58 0 0 1219.05 0 0 -1219.05
0 0 16360.5 0 0 -16360.5 0 0 6174.87 0 0 -6174.87 0 0 1309.78 0 0 -1309.78
0 0 16740.9 0 0 -16740.9 0 0 6408.25 0 0 -6408.25 0 0 1376.66 0 0 -1376.66
0 0 17258.1 0 0 -17258.1 0 0 6776.83 0 0 -6776.83 0 0 1419.34 0 0 -1419.34
0 0 17903.2 0 0 -17903.2 0 0 7271.76 0 0 -7271.76 0 0 1438.86 0 0 -1438.86
0 0 18636.8 0 0 -18636.8 0 0 7870.88 0 0 -7870.88 0 0 1437.41 0 0 -1437.41
0 0 19463.3 0 0 -19463.3 0 0 8580.36 0 0 -8580.36 0 0 1415.69 0 0 -1415.69
0 0 20382.3 0 0 -20382.3 0 0 9373.34 0 0 -9373.34 0 0 1378.28 0 0 -1378.28
0 0 21329 0 0 -21329 0 0 10244.6 0 0 -10244.6 0 0 1329.73 0 0 -1329.73
0 0 22261.2 0 0 -22261.2 0 0 11171.5 0 0 -11171.5 0 0 1276.61 0 0 -1276.61
0 0 23142 0 0 -23142 0 0 12131.8 0 0 -12131.8 0 0 1225.22 0 0 -1225.22
0 0 23940.1 0 0 -23940.1 0 0 13098.2 0 0 -13098.2 0 0 1182.55 0 0 -1182.55
0 0 24632.4 0 0 -24632.4 0 0 14041.5 0 0 -14041.5 0 0 1155.44 0 0 -1155.44
0 0 25204.3 0 0 -25204.3 0 0 14931.3 0 0 -14931.3 0 0 1150.35 0 0 -1150.35
0 0 25642.8 0 0 -25642.8 0 0 15738.8 0 0 -15738.8 0 0 1172.89 0 0 -1172.89
0 0 25930.8 0 0 -25930.8 0 0 16439.2 0 0 -16439.2 0 0 1227.46 0 0 -1227.46
0 0 26047 0 0 -26047 0 0 17013.4 0 0 -17013.4 0 0 1316.94 0 0 -1316.94
0 0 25960.6 0 0 -25960.6 0 0 17444.3 0 0 -17444.3 0 0 1440.33 0 0 -1440.33
0 0 25652.8 0 0 -25652.8 0 0 17710.6 0 0 -17710.6 0 0 1582.61 0 0 -1582.61
0 0 25111 0 0 -25111 0 0 17816.2 0 0 -17816.2 0 0 1755.91 0 0 -1755.91
0 0 24327 0 0 -24327 0 0 17757.1 0 0 -17757.1 0 0 1957.19 0 0 -1957.19
0 0 23295.4 0 0 -23295.4 0 0 17541.2 0 0 -17541.2 0 0 2180.78 0 0 -2180.78
0 0 22021.1 0 0 -22021.1 0 0 17175.8 0 0 -17175.8 0 0 2421.16 0 0 -2421.16
0 0 20519.3 0 0 -20519.3 0 0 16672.4 0 0 -16672.4 0 0 2671.34 0 0 -2671.34
0 0 18816.4 0 0 -18816.4 0 0 16043.8 0 0 -16043.8 0 0 2923.64 0 0 -2923.64
0 0 16947.3 0 0 -16947.3 0 0 15304 0 0 -15304 0 0 3169.84 0 0 -3169.84
0 0 14949.2 0 0 -14949.2 0 0 14468.7 0 0 -14468.7 0 0 3401.34 0 0 -3401.34
0 0 12860.2 0 0 -12860.2 0 0 13555.2 0 0 -13555.2 0 0 3609.54 0 0 -3609.54
0 0 10720.6 0 0 -10720.6 0 0 12580.4 0 0 -12580.4 0 0 3786 0 0 -3786
0 0 8573.98 0 0 -8573.98 0 0 11560.9 0 0 -11560.9 0 0 3922.83 0 0 -3922.83
0 0 6463.44 0 0 -6463.44 0 0 10512.6 0 0 -10512.6 0 0 4012.82 0 0 -4012.82
0 0 4425.99 0 0 -4425.99 0 0 9450.73 0 0 -9450.73 0 0 4049.71 0 0 -4049.71
0 0 2488.72 0 0 -2488.72 0 0 8389.94 0 0 -8389.94 0 0 4024.12 0 0 -4024.12
0 0 669.024 0 0 -669.024 0 0 7341.83 0 0 -7341.83 0 0 3928.68 0 0 -3928.68
0 0 -929.009 0 0 929.009 0 0 6333.07 0 0 -6333.07 0 0 3759.64 0 0 -3759.64
0 0 -2351.43 0 0 2351.43 0 0 5380.27 0 0 -5380.27 0 0 3515.1 0 0 -3515.1
0 0 -3294.23 0 0 3294.23 0 0 4376.05 0 0 -4376.05 0 0 3205.72 0 0 -3205.72
0 0 -4157.39 0 0 4157.39 0 0 3450.63 0 0 -3450.63 0 0 2823.61 0 0 -2823.61
0 0 -4872.5 0 0 4872.5 0 0 2553.39 0 0 -2553.39 0 0 2379.83 0 0 -2379.83
0 0 -5457.21 0 0 5457.21 0 0 1712.2 0 0 -1712.2 0 0 1877.01 0 0 -1877.01
0 0 -5923.87 0 0 5923.87 0 0 918.43 0 0 -918.43 0 0 1325.15 0 0 -1325.15
0 0 -6284.01 0 0 6284.01 0 0 171.081 0 0 -171.081 0 0 732.6 0 0 -732.6
0 0 -6561.35 0 0 6561.35 0 0 -533.03 0 0 533.03 0 0 110.385 0 0 -110.385
0 0 -6790.95 0 0 6790.95 0 0 -1167.92 0 0 1167.92 0 0 -415.136 0 0 415.136
0 0 -7004.13 0 0 7004.13 0 0 -1764.19 0 0 1764.19 0 0 -934.574 0 0 934.574
0 0 -7222.43 0 0 7222.43 0 0 -2348.06 0 0 2348.06 0 0 -1455.78 0 0 1455.78
0 0 -7489.21 0 0 7489.21 0 0 -2923.41 0 0 2923.41 0 0 -1963.99 0 0 1963.99
0 0 -7832.05 0 0 7832.05 0 0 -3498.22 0 0 3498.22 0 0 -2453.43 0 0 2453.43
0 0 -8271.97 0 0 8271.97 0 0 -4087.97 0 0 4087.97 0 0 -2914 0 0 2914
0 0 -8826.79 0 0 8826.79 0 0 -4702.4 0 0 4702.4 0 0 -3338.9 0 0 3338.9
0 0 -9505.41 0 0 9505.41 0 0 -5353.6 0 0 5353.6 0 0 -3720.82 0 0 3720.82
0 0 -10312.6 0 0 10312.6 0 0 -6050.45 0 0 6050.45 0 0 -4053.8 0 0 4053.8
0 0 -11248.5 0 0 11248.5 0 0 -6799.47 0 0 6799.47 0 0 -4333.45 0 0 4333.45
0 0 -12309.5 0 0 12309.5 0 0 -7603.97 0 0 7603.97 0 0 -4556.51 0 0 4556.51
0 0 -13487.3 0 0 13487.3 0 0 -8463.07 0 0 8463.07 0 0 -4721.41 0 0 4721.41
0 0 -14770.1 0 0 14770.1 0 0 -9371.51 0 0 9371.51 0 0 -4828.06 0 0 4828.06
0 0 -16144.9 0 0 16144.9 0 0 -10319.6 0 0 10319.6 0 0 -4877.88 0 0 4877.88
0 0 -17600.1 0 0 17600.1 0 0 -11293 0 0 11293 0 0 -4870.78 0 0 4870.78
0 0 -19124.9 0 0 19124.9 0 0 -12269.6 0 0 12269.6 0 0 -4804.37 0 0 4804.37
0 0 -20705 0 0 20705 0 0 -13230.7 0 0 13230.7 0 0 -4684.09 0 0 4684.09
0 0 -22322.8 0 0 22322.8 0 0 -14154.9 0 0 14154.9 0 0 -4518.1 0 0 4518.1
0 0 -23957.3 0 0 23957.3 0 0 -15022.4 0 0 15022.4 0 0 -4314.92 0 0 4314.92
0 0 -25587 0 0 25587 0 0 -15813.9 0 0 15813.9 0 0 -4083.7 0 0 4083.7
0 0 -27191.5 0 0 27191.5 0 0 -16511.9 0 0 16511.9 0 0 -3833.59 0 0 3833.59
0 0 -28749.8 0 0 28749.8 0 0 -17102.1 0 0 17102.1 0 0 -3573.58 0 0 3573.58
0 0 -30238 0 0 30238 0 0 -17574.9 0 0 17574.9 0 0 -3312.03 0 0 3312.03
0 0 -31631 0 0 31631 0 0 -17925.1 0 0 17925.1 0 0 -3056.54 0 0 3056.54
0 0 -32904.8 0 0 32904.8 0 0 -18151.8 0 0 18151.8 0 0 -2813.73 0 0 2813.73
0 0 -34040 0 0 34040 0 0 -18258.2 0 0 18258.2 0 0 -2589.19 0 0 2589.19
0 0 -35024.6 0 0 35024.6 0 0 -18250 0 0 18250 0 0 -2387.35 0 0 2387.35
0 0 -35856.6 0 0 35856.6 0 0 -18135.6 0 0 18135.6 0 0 -2211.56 0 0 2211.56
0 0 -36545.7 0 0 36545.7 0 0 -17924.9 0 0 17924.9 0 0 -2063.99 0 0 2063.99
0 0 -37109.9 0 0 37109.9 0 0 -17630.2 0 0 17630.2 0 0 -1945.67 0 0 1945.67
0 0 -37571.5 0 0 37571.5 0 0 -17266.5 0 0 17266.5 0 0 -1856.44 0 0 1856.44
0 0 -37954.7 0 0 37954.7 0 0 -16851.6 0 0 16851.6 0 0 -1795.08 0 0 1795.08
0 0 -38282.6 0 0 38282.6 0 0 -16406.4 0 0 16406.4 0 0 -1759.37 0 0 1759.37
0 0 -38575.1 0 0 38575.1 0 0 -15954.2 0 0 15954.2 0 0 -1746.29 0 0 1746.29
0 0 -38849.6 0 0 38849.6 0 0 -15519.8 0 0 15519.8 0 0 -1752.24 0 0 1752.24
0 0 -39122.1 0 0 39122.1 0 0 -15127.9 0 0 15127.9 0 0 -1773.33 0 0 1773.33
0 0 -39407.6 0 0 39407.6 0 0 -14802.3 0 0 14802.3 0 0 -1805.63 0 0 1805.63
0 0 -39718.9 0 0 39718.9 0 0 -14564.3 0 0 14564.3 0 0 -1845.43 0 0 1845.43
0 0 -40065.6 0 0 40065.6 0 0 -14432.6 0 0 14432.6 0 0 -1889.47 0 0 1889.47
0 0 -40453.3 0 0 40453.3 0 0 -14422.1 0 0 14422.1 0 0 -1935.13 0 0 1935.13
0 0 -40883.4 0 0 40883.4 0 0 -14543.1 0 0 14543.1 0 0 -1980.61 0 0 1980.61
0 0 -41353.5 0 0 41353.5 0 0 -14801.1 0 0 14801.1 0 0 -2025.04 0 0 2025.04
0 0 -41857.3 0 0 41857.3 0 0 -15195.7 0 0 15195.7 0 0 -2068.55 0 0 2068.55
0 0 -42377.6 0 0 42377.6 0 0 -15722.5 0 0 15722.5 0 0 -2112.21 0 0 2112.21
0 0 -42806.7 0 0 42806.7 0 0 -16389 0 0 16389 0 0 -2157.03 0 0 2157.03
0 0 -43133.4 0 0 43133.4 0 0 -17173.9 0 0 17173.9 0 0 -2206.35 0 0 2206.35
0 0 -43349.9 0 0 43349.9 0 0 -18050.6 0 0 18050.6 0 0 -2264.33 0 0 2264.33
0 0 -43457 0 0 43457 0 0 -18984.5 0 0 18984.5 0 0 -2335.81 0 0 2335.81
0 0 -43450.2 0 0 43450.2 0 0 -19938.6 0 0 19938.6 0 0 -2425.7 0 0 2425.7
0 0 -43318.6 0 0 43318.6 0 0 -20873.3 0 0 20873.3 0 0 -2538.84 0 0 2538.84
0 0 -43049.2 0 0 43049.2 0 0 -21752.9 0 0 21752.9 0 0 -2679.15 0 0 2679.15
0 0 -42626.2 0 0 42626.2 0 0 -22543.8 0 0 22543.8 0 0 -2849.66 0 0 2849.66
0 0 -42028.8 0 0 42028.8 0 0 -23217.2 0 0 23217.2 0 0 -3051.97 0 0 3051.97
0 0 -41231.2 0 0 41231.2 0 0 -23749.5 0 0 23749.5 0 0 -3286.24 0 0 3286.24
0 0 -40204.6 0 0 40204.6 0 0 -24123.2 0 0 24123.2 0 0 -3550.92 0 0 3550.92
0 0 -38921.8 0 0 38921.8 0 0 -24325.9 0 0 24325.9 0 0 -3842.82 0 0 3842.82
0 0 -37360.3 0 0 37360.3 0 0 -24349.8 0 0 24349.8 0 0 -4157.19 0 0 4157.19
0 0 -35502.9 0 0 35502.9 0 0 -24191.7 0 0 24191.7 0 0 -4487.77 0 0 4487.77
0 0 -33342.2 0 0 33342.2 0 0 -23851.3 0 0 23851.3 0 0 -4823.86 0 0 4823.86
0 0 -30888.2 0 0 30888.2 0 0 -23311.9 0 0 23311.9 0 0 -5105.6 0 0 5105.6
0 0 -28158.3 0 0 28158.3 0 0 -22594.4 0 0 22594.4 0 0 -5374.65 0 0 5374.65
0 0 -25183.1 0 0 25183.1 0 0 -21704.1 0 0 21704.1 0 0 -5631.57 0 0 5631.57
0 0 -22004.1 0 0 22004.1 0 0 -20650.1 0 0 20650.1 0 0 -5865.29 0 0 5865.29
0 0 -18663.6 0 0 18663.6 0 0 -19437.9 0 0 19437.9 0 0 -6068.52 0 0 6068.52
0 0 -15199.3 0 0 15199.3 0 0 -18082.6 0 0 18082.6 0 0 -6232.43 0 0 6232.43
0 0 -11643.7 0 0 11643.7 0 0 -16598 0 0 16598 0 0 -6349.38 0 0 6349.38
0 0 -8023.28 0 0 8023.28 0 0 -15001.5 0 0 15001.5 0 0 -6411.31 0 0 6411.31
0 0 -4366.27 0 0 4366.27 0 0 -13309.7 0 0 13309.7 0 0 -6407.82 0 0 6407.82
0 0 -1713.04 0 0 1713.04 0 0 -11356 0 0 11356 0 0 -6332.11 0 0 6332.11
0 0 829.939 0 0 -829.939 0 0 -9407.85 0 0 9407.85 0 0 -6160.06 0 0 6160.06
0 0 3258.54 0 0 -3258.54 0 0 -7488.39 0 0 7488.39 0 0 -5887.48 0 0 5887.48
0 0 5521.18 0 0 -5521.18 0 0 -5526.44 0 0 5526.44 0 0 -5518.54 0 0 5518.54
0 0 7673.73 0 0 -7673.73 0 0 -3603.56 0 0 3603.56 0 0 -5046.77 0 0 5046.77
0 0 9683.78 0 0 -9683.78 0 0 -1704.86 0 0 1704.86 0 0 -4478.28 0 0 4478.28
0 0 11543.9 0 0 -11543.9 0 0 152.015 0 0 -152.015 0 0 -3815.5 0 0 3815.5
0 0 13253.8 0 0 -13253.8 0 0 1977.8 0 0 -1977.8 0 0 -3064.55 0 0 3064.55
0 0 14806.5 0 0 -14806.5 0 0 3754.85 0 0 -3754.85 0 0 -2235.87 0 0 2235.87
0 0 16210.9 0 0 -16210.9 0 0 5476.56 0 0 -5476.56 0 0 -1340.97 0 0 1340.97
0 0 17483.3 0 0 -17483.3 0 0 7144.13 0 0 -7144.13 0 0 -393.099 0 0 393.099
0 0 18649.8 0 0 -18649.8 0 0 8736.37 0 0 -8736.37 0 0 452.877 0 0 -452.877
0 0 19754.6 0 0 -19754.6 0 0 10222.7 0 0 -10222.7 0 0 1279.67 0 0 -1279.67
0 0 20788.9 0 0 -20788.9 0 0 11707.4 0 0 -11707.4 0 0 2107.93 0 0 -2107.93
0 0 21825.7 0 0 -21825.7 0 0 13145.4 0 0 -13145.4 0 0 2932.3 0 0 -2932.3
0 0 22882.8 0 0 -22882.8 0 0 14564 0 0 -14564 0 0 3740.35 0 0 -3740.35
0 0 23999.4 0 0 -23999.4 0 0 15969.5 0 0 -15969.5 0 0 4519.58 0 0 -4519.58
0 0 25207.5 0 0 -25207.5 0 0 17371.7 0 0 -17371.7 0 0 5259.65 0 0 -5259.65
0 0 26532.5 0 0 -26532.5 0 0 18781.3 0 0 -18781.3 0 0 5948.77 0 0 -5948.77
0 0 27995.9 0 0 -27995.9 0 0 20205.9 0 0 -20205.9 0 0 6578.2 0 0 -6578.2
0 0 29612.1 0 0 -29612.1 0 0 21653.9 0 0 -21653.9 0 0 7138.98 0 0 -7138.98
0 0 31393.3 0 0 -31393.3 0 0 23129.8 0 0 -23129.8 0 0 7625.09 0 0 -7625.09
0 0 33359.9 0 0 -33359.9 0 0 24578.1 0 0 -24578.1 0 0 7742.71 0 0 -7742.71
0 0 35532.3 0 0 -35532.3 0 0 25950.2 0 0 -25950.2 0 0 7750.37 0 0 -7750.37
0 0 37812.3 0 0 -37812.3 0 0 27472.3 0 0 -27472.3 0 0 7755.36 0 0 -7755.36
0 0 40266.5 0 0 -40266.5 0 0 28976.1 0 0 -28976.1 0 0 7759.21 0 0 -7759.21
0 0 42818.9 0 0 -42818.9 0 0 30542.3 0 0 -30542.3 0 0 7761.33 0 0 -7761.33
0 0 45471.7 0 0 -45471.7 0 0 32111.1 0 0 -32111.1 0 0 7762.02 0 0 -7762.02
0 0 48189 0 0 -48189 0 0 33679 0 0 -33679 0 0 7708.86 0 0 -7708.86
0 0 50957.3 0 0 -50957.3 0 0 35196.7 0 0 -35196.7 0 0 7588.53 0 0 -7588.53
0 0 53740.3 0 0 -53740.3 0 0 36660.2 0 0 -36660.2 0 0 7404.73 0 0 -7404.73
0 0 52720.7 0 0 -52720.7 0 0 32729.8 0 0 -32729.8 0 0 5902.11 0 0 -5902.11
0 0 55069 0 0 -55069 0 0 30936.1 0 0 -30936.1 0 0 5941.97 0 0 -5941.97
0 0 57374.9 0 0 -57374.9 0 0 33412.7 0 0 -33412.7 0 0 5509.58 0 0 -5509.58
0 0 60524.8 0 0 -60524.8 0 0 35083.5 0 0 -35083.5 0 0 5195.56 0 0 -5195.56
0 0 61168.8 0 0 -61168.8 0 0 36271.9 0 0 -36271.9 0 0 4767.41 0 0 -4767.41
0 0 61447.6 0 0 -61447.6 0 0 36632.9 0 0 -36632.9 0 0 4468.5 0 0 -4468.5
0 0 61683.4 0 0 -61683.4 0 0 37938.8 0 0 -37938.8 0 0 4162.94 0 0 -4162.94
0 0 61955.9 0 0 -61955.9 0 0 38902.1 0 0 -38902.1 0 0 3945.08 0 0 -3945.08
0 0 62204.9 0 0 -62204.9 0 0 39862.2 0 0 -39862.2 0 0 3748.38 0 0 -3748.38
0 0 62403.5 0 0 -62403.5 0 0 41023.6 0 0 -41023.6 0 0 3618.14 0 0 -3618.14
0 0 62637.4 0 0 -62637.4 0 0 42120.1 0 0 -42120.1 0 0 3601.81 0 0 -3601.81
0 0 62856.9 0 0 -62856.9 0 0 43251.9 0 0 -43251.9 0 0 3653.03 0 0 -3653.03
0 0 63005.8 0 0 -63005.8 0 0 43411.9 0 0 -43411.9 0 0 3856.8 0 0 -3856.8
0 0 63149 0 0 -63149 0 0 44126.4 0 0 -44126.4 0 0 4080.11 0 0 -4080.11
0 0 63310.3 0 0 -63310.3 0 0 44286.3 0 0 -44286.3 0 0 4408.05 0 0 -4408.05
0 0 63440.8 0 0 -63440.8 0 0 44347.8 0 0 -44347.8 0 0 4677.35 0 0 -4677.35
0 0 63557.6 0 0 -63557.6 0 0 44438.6 0 0 -44438.6 0 0 4947.14 0 0 -4947.14
0 0 12108.8 0 0 -12108.8 0 0 38051.4 0 0 -38051.4 0 0 5889.49 0 0 -5889.49
0 0 -348.578 0 0 348.578 0 0 33225.2 0 0 -33225.2 0 0 7530.92 0 0 -7530.92
0 0 5584.37 0 0 -5584.37 0 0 38040 0 0 -38040 0 0 7094.29 0 0 -7094.29
0 0 -1725.93 0 0 1725.93 0 0 39595 0 0 -39595 0 0 7767.15 0 0 -7767.15
0 0 706.565 0 0 -706.565 0 0 39670.7 0 0 -39670.7 0 0 7761.53 0 0 -7761.53
0 0 4219.23 0 0 -4219.23 0 0 43451.7 0 0 -43451.7 0 0 7789.82 0 0 -7789.82
0 0 6773.07 0 0 -6773.07 0 0 44536.4 0 0 -44536.4 0 0 7792.88 0 0 -7792.88
0 0 8068.71 0 0 -8068.71 0 0 44689.6 0 0 -44689.6 0 0 7700.42 0 0 -7700.42
0 0 10278.3 0 0 -10278.3 0 0 44831 0 0 -44831 0 0 7793.89 0 0 -7793.89
0 0 12108.8 0 0 -12108.8 0 0 45012.8 0 0 -45012.8 0 0 7719.15 0 0 -7719.15
0 0 12108.8 0 0 -12108.8 0 0 45112 0 0 -45112 0 0 7795.34 0 0 -7795.34
0 0 12108.8 0 0 -12108.8 0 0 45125.2 0 0 -45125.2 0 0 7805.04 0 0 -7805.04
0 0 12108.8 0 0 -12108.8 0 0 45189.8 0 0 -45189.8 0 0 7812.26 0 0 -7812.26
0 0 12108.8 0 0 -12108.8 0 0 45320.6 0 0 -45320.6 0 0 7815.72 0 0 -7815.72
0 0 12108.8 0 0 -12108.8 0 0 45419.6 0 0 -45419.6 0 0 7820.69 0 0 -7820.69
0 0 12108.8 0 0 -12108.8 0 0 45479.4 0 0 -45479.4 0 0 7828.99 0 0 -7828.99
0 0 12108.8 0 0 -12108.8 0 0 45563.1 0 0 -45563.1 0 0 7836.76 0 0 -7836.76
0 0 12108.8 0 0 -12108.8 0 0 45676.6 0 0 -45676.6 0 0 7843.31 0 0 -7843.31
0 0 12108.8 0 0 -12108.8 0 0 45780.1 0 0 -45780.1 0 0 7851.28 0 0 -7851.28
0 0 12108.8 0 0 -12108.8 0 0 45865.2 0 0 -45865.2 0 0 7861.46 0 0 -7861.46
0 0 12108.8 0 0 -12108.8 0 0 45951.8 0 0 -45951.8 0 0 7872.78 0 0 -7872.78
0 0 12108.8 0 0 -12108.8 0 0 46057.9 0 0 -46057.9 0 0 7883.89 0 0 -7883.89
0 0 12108.8 0 0 -12108.8 0 0 46164.2 0 0 -46164.2 0 0 7895.61 0 0 -7895.61
0 0 12108.8 0 0 -12108.8 0 0 46257.6 0 0 -46257.6 0 0 7909.55 0 0 -7909.55
0 0 12108.8 0 0 -12108.8 0 0 46352.7 0 0 -46352.7 0 0 7924.15 0 0 -7924.15
0 0 12108.8 0 0 -12108.8 0 0 46444 0 0 -46444 0 0 7940.05 0 0 -7940.05
0 0 12108.8 0 0 -12108.8 0 0 35121.3 0 0 -35121.3 0 0 7956.8 0 0 -7956.8
0 0 -143.463 0 0 143.463 0 0 8854.56 0 0 -8854.56 0 0 5121.22 0 0 -5121.22
0 0 4025.73 0 0 -4025.73 0 0 -218.079 0 0 218.079 0 0 7285.66 0 0 -7285.66
0 0 2546.2 0 0 -2546.2 0 0 4645.23 0 0 -4645.23 0 0 7690.08 0 0 -7690.08
0 0 4343.36 0 0 -4343.36 0 0 5080.29 0 0 -5080.29 0 0 7971.93 0 0 -7971.93
0 0 4852.25 0 0 -4852.25 0 0 7373.6 0 0 -7373.6 0 0 7998.1 0 0 -7998.1
0 0 5716.67 0 0 -5716.67 0 0 8854.56 0 0 -8854.56 0 0 8018.28 0 0 -8018.28
0 0 6053.66 0 0 -6053.66 0 0 8854.56 0 0 -8854.56 0 0 8041.34 0 0 -8041.34
0 0 6019.16 0 0 -6019.16 0 0 8854.56 0 0 -8854.56 0 0 8059.05 0 0 -8059.05
0 0 6515.93 0 0 -6515.93 0 0 8854.56 0 0 -8854.56 0 0 8081.16 0 0 -8081.16
0 0 6757.1 0 0 -6757.1 0 0 8854.56 0 0 -8854.56 0 0 7856.73 0 0 -7856.73
0 0 7333.47 0 0 -7333.47 0 0 8854.56 0 0 -8854.56 0 0 1542.76 0 0 -1542.76
0 0 9081.96 0 0 -9081.96 0 0 8854.56 0 0 -8854.56 0 0 1542.76 0 0 -1542.76
0 0 7853.09 0 0 -7853.09 0 0 8854.56 0 0 -8854.56 0 0 1542.76 0 0 -1542.76
0 0 8904.92 0 0 -8904.92 0 0 8854.56 0 0 -8854.56 0 0 1542.76 0 0 -1542.76
0 0 9045.72 0 0 -9045.72 0 0 8854.56 0 0 -8854.56 0 0 1542.76 0 0 -1542.76
0 0 9080.46 0 0 -9080.46 0 0 8854.56 0 0 -8854.56 0 0 1542.76 0 0 -1542.76
0 0 9516.13 0 0 -9516.13 0 0 8854.56 0 0 -8854.56 0 0 1542.76 0 0 -1542.76
0 0 9647.11 0 0 -9647.11 0 0 8854.56 0 0 -8854.56 0 0 1542.76 0 0 -1542.76
0 0 9858.98 0 0 -9858.98 0 0 8854.56 0 0 -8854.56 0 0 1542.76 0 0 -1542.76
0 0 10142.1 0 0 -10142.1 0 0 8854.56 0 0 -8854.56 0 0 1542.76 0 0 -1542.76
0 0 10327.4 0 0 -10327.4 0 0 8854.56 0 0 -8854.56 0 0 1542.76 0 0 -1542.76
0 0 10582.3 0 0 -10582.3 0 0 8854.56 0 0 -8854.56 0 0 1542.76 0 0 -1542.76
0 0 10888.7 0 0 -10888.7 0 0 8854.56 0 0 -8854.56 0 0 1542.76 0 0 -1542.76
0 0 11086.6 0 0 -11086.6 0 0 8854.56 0 0 -8854.56 0 0 1542.76 0 0 -1542.76
0 0 11359.3 0 0 -11359.3 0 0 8854.56 0 0 -8854.56 0 0 1542.76 0 0 -1542.76
0 0 11647 0 0 -11647 0 0 8854.56 0 0 -8854.56 0 0 1542.76 0 0 -1542.76
0 0 11869.9 0 0 -11869.9 0 0 8854.56 0 0 -8854.56 0 0 1542.76 0 0 -1542.76
0 0 12099.3 0 0 -12099.3 0 0 8854.56 0 0 -8854.56 0 0 1542.76 0 0 -1542.76
0 0 12108.8 0 0 -12108.8 0 0 8854.56 0 0 -8854.56 0 0 1542.76 0 0 -1542.76
0 0 12108.8 0 0 -12108.8 0 0 8854.56 0 0 -8854.56 0 0 1074.12 0 0 -1074.12
0 0 12108.8 0 0 -12108.8 0 0 8854.56 0 0 -8854.56 0 0 412.31 0 0 -412.31
0 0 12108.8 0 0 -12108.8 0 0 8854.56 0 0 -8854.56 0 0 758.685 0 0 -758.685
0 0 11540.6 0 0 -11540.6 0 0 8854.56 0 0 -8854.56 0 0 1350.62 0 0 -1350.62
0 0 11610.9 0 0 -11610.9 0 0 8854.56 0 0 -8854.56 0 0 1542.76 0 0 -1542.76
0 0 11697.5 0 0 -11697.5 0 0 8854.56 0 0 -8854.56 0 0 1542.76 0 0 -1542.76
0 0 11392.3 0 0 -11392.3 0 0 8854.56 0 0 -8854.56 0 0 1542.76 0 0 -1542.76
0 0 11119.3 0 0 -11119.3 0 0 8854.56 0 0 -8854.56 0 0 1542.76 0 0 -1542.76
0 0 10647.5 0 0 -10647.5 0 0 8854.56 0 0 -8854.56 0 0 1542.76 0 0 -1542.76
0 0 10121.3 0 0 -10121.3 0 0 8854.56 0 0 -8854.56 0 0 1542.76 0 0 -1542.76
0 0 9549.04 0 0 -9549.04 0 0 8854.56 0 0 -8854.56 0 0 1542.76 0 0 -1542.76
0 0 9023.47 0 0 -9023.47 0 0 8854.56 0 0 -8854.56 0 0 1542.76 0 0 -1542.76
0 0 8486.77 0 0 -8486.77 0 0 8854.56 0 0 -8854.56 0 0 1542.76 0 0 -1542.76
0 0 7942.65 0 0 -7942.65 0 0 8854.56 0 0 -8854.56 0 0 1542.76 0 0 -1542.76
0 0 7379.62 0 0 -7379.62 0 0 8854.56 0 0 -8854.56 0 0 1542.76 0 0 -1542.76
0 0 6777.93 0 0 -6777.93 0 0 8854.56 0 0 -8854.56 0 0 1542.76 0 0 -1542.76
0 0 6121.31 0 0 -6121.31 0 0 8854.56 0 0 -8854.56 0 0 1542.76 0 0 -1542.76
0 0 5444.96 0 0 -5444.96 0 0 8854.56 0 0 -8854.56 0 0 1542.76 0 0 -1542.76
0 0 4742.25 0 0 -4742.25 0 0 8854.56 0 0 -8854.56 0 0 1542.76 0 0 -1542.76
0 0 4000.2 0 0 -4000.2 0 0 8854.56 0 0 -8854.56 0 0 1542.76 0 0 -1542.76
0 0 3236.3 0 0 -3236.3 0 0 8767.22 0 0 -8767.22 0 0 1542.76 0 0 -1542.76
0 0 2416.53 0 0 -2416.53 0 0 8598.88 0 0 -8598.88 0 0 1542.76 0 0 -1542.76
0 0 1565.43 0 0 -1565.43 0 0 8278.68 0 0 -8278.68 0 0 1542.76 0 0 -1542.76
0 0 864.391 0 0 -864.391 0 0 7933.66 0 0 -7933.66 0 0 1542.76 0 0 -1542.76
0 0 152.252 0 0 -152.252 0 0 7524.92 0 0 -7524.92 0 0 1515.13 0 0 -1515.13
0 0 -119.343 0 0 119.343 0 0 7054.22 0 0 -7054.22 0 0 1441.35 0 0 -1441.35
0 0 -433.814 0 0 433.814 0 0 6656.51 0 0 -6656.51 0 0 1301.2 0 0 -1301.2
0 0 -662.107 0 0 662.107 0 0 6113.35 0 0 -6113.35 0 0 1106.7 0 0 -1106.7
0 0 -882.551 0 0 882.551 0 0 5430.06 0 0 -5430.06 0 0 870.795 0 0 -870.795
0 0 -1128.7 0 0 1128.7 0 0 4751.96 0 0 -4751.96 0 0 568.555 0 0 -568.555
0 0 -1339.15 0 0 1339.15 0 0 3918.13 0 0 -3918.13 0 0 224.135 0 0 -224.135
0 0 -1556.85 0 0 1556.85 0 0 3034.15 0 0 -3034.15 0 0 -11.2972 0 0 11.2972
0 0 -1773.91 0 0 1773.91 0 0 2240.4 0 0 -2240.4 0 0 -71.1527 0 0 71.1527
0 0 -1998.32 0 0 1998.32 0 0 1379.46 0 0 -1379.46 0 0 -135.729 0 0 135.729
0 0 -2215.62 0 0 2215.62 0 0 387.035 0 0 -387.035 0 0 -199.956 0 0 199.956
0 0 -2441.2 0 0 2441.2 0 0 -60.2102 0 0 60.2102 0 0 -260.904 0 0 260.904
0 0 -2631 0 0 2631 0 0 -325.593 0 0 325.593 0 0 -316.571 0 0 316.571
0 0 -2759.89 0 0 2759.89 0 0 -628.753 0 0 628.753 0 0 -368.906 0 0 368.906
0 0 -2987.63 0 0 2987.63 0 0 -869.905 0 0 869.905 0 0 -435.993 0 0 435.993
0 0 -3207.46 0 0 3207.46 0 0 -1125.88 0 0 1125.88 0 0 -505.972 0 0 505.972
0 0 -3395.93 0 0 3395.93 0 0 -1429.31 0 0 1429.31 0 0 -575.062 0 0 575.062
0 0 -3620.64 0 0 3620.64 0 0 -1719 0 0 1719 0 0 -649.796 0 0 649.796
0 0 -3870.81 0 0 3870.81 0 0 -2003.12 0 0 2003.12 0 0 -729.655 0 0 729.655
0 0 -4115.84 0 0 4115.84 0 0 -2312.59 0 0 2312.59 0 0 -810.345 0 0 810.345
0 0 -4377.15 0 0 4377.15 0 0 -2630.33 0 0 2630.33 0 0 -893.796 0 0 893.796
0 0 -4666.35 0 0 4666.35 0 0 -2946.69 0 0 2946.69 0 0 -981.105 0 0 981.105
0 0 -4967.57 0 0 4967.57 0 0 -3276.26 0 0 3276.26 0 0 -1070.09 0 0 1070.09
0 0 -5282.05 0 0 5282.05 0 0 -3619.61 0 0 3619.61 0 0 -1160.24 0 0 1160.24
0 0 -5618.66 0 0 5618.66 0 0 -3969.71 0 0 3969.71 0 0 -1252.21 0 0 1252.21
0 0 -5971.85 0 0 5971.85 0 0 -4330.73 0 0 4330.73 0 0 -1345.36 0 0 1345.36
0 0 -6337.43 0 0 6337.43 0 0 -4706.61 0 0 4706.61 0 0 -1438.96 0 0 1438.96
0 0 -6719.05 0 0 6719.05 0 0 -5095.17 0 0 5095.17 0 0 -1533.02 0 0 1533.02
0 0 -7113.09 0 0 7113.09 0 0 -5497.1 0 0 5497.1 0 0 -1627.21 0 0 1627.21
0 0 -7513.42 0 0 7513.42 0 0 -5915.83 0 0 5915.83 0 0 -1720.88 0 0 1720.88
0 0 -7915.79 0 0 7915.79 0 0 -6351.6 0 0 6351.6 0 0 -1813.83 0 0 1813.83
0 0 -8316.48 0 0 8316.48 0 0 -6804.37 0 0 6804.37 0 0 -1905.95 0 0 1905.95
0 0 -8710.26 0 0 8710.26 0 0 -7275.36 0 0 7275.36 0 0 -1996.99 0 0 1996.99
0 0 -9093 0 0 9093 0 0 -7764.47 0 0 7764.47 0 0 -2086.81 0 0 2086.81
0 0 -9463.07 0 0 9463.07 0 0 -8270.32 0 0 8270.32 0 0 -2175.42 0 0 2175.42
0 0 -9817.57 0 0 9817.57 0 0 -8791.97 0 0 8791.97 0 0 -2262.86 0 0 2262.86
0 0 -10152.6 0 0 10152.6 0 0 -9328.23 0 0 9328.23 0 0 -2349.21 0 0 2349.21
0 0 -10466.4 0 0 10466.4 0 0 -9876.28 0 0 9876.28 0 0 -2434.74 0 0 2434.74
0 0 -10757.8 0 0 10757.8 0 0 -10433.7 0 0 10433.7 0 0 -2519.72 0 0 2519.72
0 0 -11026.2 0 0 11026.2 0 0 -10998 0 0 10998 0 0 -2604.39 0 0 2604.39
0 0 -11272.4 0 0 11272.4 0 0 -11565.2 0 0 11565.2 0 0 -2689.14 0 0 2689.14
0 0 -11498.3 0 0 11498.3 0 0 -12130.9 0 0 12130.9 0 0 -2774.44 0 0 2774.44
0 0 -11705.5 0 0 11705.5 0 0 -12691.5 0 0 12691.5 0 0 -2860.68 0 0 2860.68
0 0 -11895.6 0 0 11895.6 0 0 -13243.3 0 0 13243.3 0 0 -2948.23 0 0 2948.23
0 0 -12070.3 0 0 12070.3 0 0 -13782.2 0 0 13782.2 0 0 -3037.47 0 0 3037.47
0 0 -12230.8 0 0 12230.8 0 0 -14304.7 0 0 14304.7 0 0 -3128.71 0 0 3128.71
0 0 -12378.3 0 0 12378.3 0 0 -14807.7 0 0 14807.7 0 0 -3222.16 0 0 3222.16
0 0 -12514.1 0 0 12514.1 0 0 -15288.6 0 0 15288.6 0 0 -3317.99 0 0 3317.99
0 0 -12639.1 0 0 12639.1 0 0 -15744.8 0 0 15744.8 0 0 -3416.29 0 0 3416.29
0 0 -12753.5 0 0 12753.5 0 0 -16174.7 0 0 16174.7 0 0 -3517.04 0 0 3517.04
0 0 -12853.3 0 0 12853.3 0 0 -16576.5 0 0 16576.5 0 0 -3620.14 0 0 3620.14
0 0 -12943.6 0 0 12943.6 0 0 -16950.8 0 0 16950.8 0 0 -3725.29 0 0 3725.29
0 0 -13022.4 0 0 13022.4 0 0 -17297.3 0 0 17297.3 0 0 -3832.1 0 0 3832.1
0 0 -13088.6 0 0 13088.6 0 0 -17616.6 0 0 17616.6 0 0 -3940.24 0 0 3940.24
0 0 -13142.3 0 0 13142.3 0 0 -17909.7 0 0 17909.7 0 0 -4049.11 0 0 4049.11
0 0 -13182.3 0 0 13182.3 0 0 -18177.6 0 0 18177.6 0 0 -4158.2 0 0 4158.2
0 0 -13208.5 0 0 13208.5 0 0 -18421.9 0 0 18421.9 0 0 -4266.85 0 0 4266.85
0 0 -13221.1 0 0 13221.1 0 0 -18644.2 0 0 18644.2 0 0 -4374.42 0 0 4374.42
0 0 -13213.9 0 0 13213.9 0 0 -18846.2 0 0 18846.2 0 0 -4480.18 0 0 4480.18
0 0 -13182.7 0 0 13182.7 0 0 -19029 0 0 19029 0 0 -4583.48 0 0 4583.48
0 0 -13126.7 0 0 13126.7 0 0 -19193.6 0 0 19193.6 0 0 -4683.69 0 0 4683.69
0 0 -13050.5 0 0 13050.5 0 0 -19343 0 0 19343 0 0 -4780 0 0 4780
0 0 -12959.3 0 0 12959.3 0 0 -19479.5 0 0 19479.5 0 0 -4871.65 0 0 4871.65
0 0 -12856 0 0 12856 0 0 -19604.7 0 0 19604.7 0 0 -4957.98 0 0 4957.98
0 0 -12744.9 0 0 12744.9 0 0 -19720.6 0 0 19720.6 0 0 -5038.32 0 0 5038.32
0 0 -12628.8 0 0 12628.8 0 0 -19829.3 0 0 19829.3 0 0 -5112.05 0 0 5112.05
0 0 -12511 0 0 12511 0 0 -19931.8 0 0 19931.8 0 0 -5178.64 0 0 5178.64
0 0 -12399.6 0 0 12399.6 0 0 -20029.6 0 0 20029.6 0 0 -5237.61 0 0 5237.61
0 0 -12298.8 0 0 12298.8 0 0 -20123.8 0 0 20123.8 0 0 -5288.55 0 0 5288.55
0 0 -12218 0 0 12218 0 0 -20214.7 0 0 20214.7 0 0 -5331.17 0 0 5331.17
0 0 -12166.2 0 0 12166.2 0 0 -20302.6 0 0 20302.6 0 0 -5365.24 0 0 5365.24
0 0 -12148.3 0 0 12148.3 0 0 -20387.5 0 0 20387.5 0 0 -5390.63 0 0 5390.63
0 0 -12173.3 0 0 12173.3 0 0 -20469 0 0 20469 0 0 -5407.3 0 0 5407.3
0 0 -12247.5 0 0 12247.5 0 0 -20546.4 0 0 20546.4 0 0 -5415.3 0 0 5415.3
0 0 -12382 0 0 12382 0 0 -20618.7 0 0 20618.7 0 0 -5392.44 0 0 5392.44
0 0 -12592.5 0 0 12592.5 0 0 -20681.8 0 0 20681.8 0 0 -5295.49 0 0 5295.49
0 0 -12899.2 0 0 12899.2 0 0 -20729.2 0 0 20729.2 0 0 -5122.1 0 0 5122.1
0 0 -13227.4 0 0 13227.4 0 0 -20764.8 0 0 20764.8 0 0 -4875.65 0 0 4875.65
0 0 -13353.2 0 0 13353.2 0 0 -20780.6 0 0 20780.6 0 0 -4567.67 0 0 4567.67
0 0 -13537 0 0 13537 0 0 -20643 0 0 20643 0 0 -4209.58 0 0 4209.58
0 0 -13716.6 0 0 13716.6 0 0 -20517.9 0 0 20517.9 0 0 -3778.72 0 0 3778.72
0 0 -13933.4 0 0 13933.4 0 0 -20229.9 0 0 20229.9 0 0 -3298.93 0 0 3298.93
0 0 -14165.2 0 0 14165.2 0 0 -19842 0 0 19842 0 0 -2768.45 0 0 2768.45
0 0 -14409.2 0 0 14409.2 0 0 -19348.3 0 0 19348.3 0 0 -2193.42 0 0 2193.42
0 0 -14668.9 0 0 14668.9 0 0 -18740.1 0 0 18740.1 0 0 -1582.45 0 0 1582.45
0 0 -14935.6 0 0 14935.6 0 0 -18038.5 0 0 18038.5 0 0 -938.936 0 0 938.936
0 0 -15209.3 0 0 15209.3 0 0 -17243.1 0 0 17243.1 0 0 -266.729 0 0 266.729
0 0 -15487.5 0 0 15487.5 0 0 -16421.4 0 0 16421.4 0 0 6.49579 0 0 -6.49579
0 0 -15755.3 0 0 15755.3 0 0 -15855.9 0 0 15855.9 0 0 30.7481 0 0 -30.7481
0 0 -16025.7 0 0 16025.7 0 0 -15136.3 0 0 15136.3 0 0 52.2606 0 0 -52.2606
0 0 -16328.6 0 0 16328.6 0 0 -14363.2 0 0 14363.2 0 0 74.0191 0 0 -74.0191
0 0 -16609.9 0 0 16609.9 0 0 -13639.3 0 0 13639.3 0 0 97.1176 0 0 -97.1176
0 0 -16901.6 0 0 16901.6 0 0 -12829.8 0 0 12829.8 0 0 120.122 0 0 -120.122
0 0 -17194.5 0 0 17194.5 0 0 -12015.9 0 0 12015.9 0 0 143.492 0 0 -143.492
0 0 -17479.8 0 0 17479.8 0 0 -11205.9 0 0 11205.9 0 0 166.97 0 0 -166.97
0 0 -17767.4 0 0 17767.4 0 0 -10384.2 0 0 10384.2 0 0 190.437 0 0 -190.437
0 0 -18046.8 0 0 18046.8 0 0 -9580.97 0 0 9580.97 0 0 214.091 0 0 -214.091
0 0 -18320.1 0 0 18320.1 0 0 -8794.3 0 0 8794.3 0 0 237.95 0 0 -237.95
0 0 -18588.5 0 0 18588.5 0 0 -8029.06 0 0 8029.06 0 0 261.845 0 0 -261.845
0 0 -18853.2 0 0 18853.2 0 0 -7295.38 0 0 7295.38 0 0 285.66 0 0 -285.66
0 0 -19118.1 0 0 19118.1 0 0 -6590.86 0 0 6590.86 0 0 309.27 0 0 -309.27
0 0 -19385.5 0 0 19385.5 0 0 -5918.1 0 0 5918.1 0 0 332.637 0 0 -332.637
0 0 -19658 0 0 19658 0 0 -5278.69 0 0 5278.69 0 0 355.743 0 0 -355.743
0 0 -19938.8 0 0 19938.8 0 0 -4672.56 0 0 4672.56 0 0 378.501 0 0 -378.501
0 0 -20230.2 0 0 20230.2 0 0 -4102.8 0 0 4102.8 0 0 400.795 0 0 -400.795
0 0 -20534.1 0 0 20534.1 0 0 -3570.29 0 0 3570.29 0 0 422.503 0 0 -422.503
0 0 -20851.2 0 0 20851.2 0 0 -3077.47 0 0 3077.47 0 0 443.533 0 0 -443.533
0 0 -21181.1 0 0 21181.1 0 0 -2628.95 0 0 2628.95 0 0 463.843 0 0 -463.843
0 0 -21517.3 0 0 21517.3 0 0 -2233.35 0 0 2233.35 0 0 483.383 0 0 -483.383
0 0 -21751.4 0 0 21751.4 0 0 -2017.37 0 0 2017.37 0 0 502.3 0 0 -502.3
0 0 -21981.1 0 0 21981.1 0 0 -1889.15 0 0 1889.15 0 0 520.764 0 0 -520.764
0 0 -22280.5 0 0 22280.5 0 0 -1684.23 0 0 1684.23 0 0 537.582 0 0 -537.582
0 0 -22547.2 0 0 22547.2 0 0 -1619.76 0 0 1619.76 0 0 553.315 0 0 -553.315
0 0 -22822.5 0 0 22822.5 0 0 -1604.01 0 0 1604.01 0 0 568.161 0 0 -568.161
0 0 -23119.9 0 0 23119.9 0 0 -1607.24 0 0 1607.24 0 0 581.315 0 0 -581.315
0 0 -23406.9 0 0 23406.9 0 0 -1708.2 0 0 1708.2 0 0 593.238 0 0 -593.238
0 0 -23699.3 0 0 23699.3 0 0 -1852.26 0 0 1852.26 0 0 603.685 0 0 -603.685
0 0 -23995 0 0 23995 0 0 -2032.3 0 0 2032.3 0 0 612.485 0 0 -612.485
0 0 -24272.4 0 0 24272.4 0 0 -2207.86 0 0 2207.86 0 0 619.748 0 0 -619.748
0 0 -24521.1 0 0 24521.1 0 0 -2317.39 0 0 2317.39 0 0 624.696 0 0 -624.696
0 0 -24783.6 0 0 24783.6 0 0 -2548.7 0 0 2548.7 0 0 628.161 0 0 -628.161
0 0 -25031.2 0 0 25031.2 0 0 -2809.43 0 0 2809.43 0 0 629.908 0 0 -629.908
0 0 -25261.2 0 0 25261.2 0 0 -3138.45 0 0 3138.45 0 0 618.689 0 0 -618.689
0 0 -25466.4 0 0 25466.4 0 0 -3548.21 0 0 3548.21 0 0 556.134 0 0 -556.134
0 0 -25645.4 0 0 25645.4 0 0 -4043.5 0 0 4043.5 0 0 437.159 0 0 -437.159
0 0 -25800.1 0 0 25800.1 0 0 -4609.48 0 0 4609.48 0 0 259.909 0 0 -259.909
0 0 -25927.5 0 0 25927.5 0 0 -5251.77 0 0 5251.77 0 0 25.3594 0 0 -25.3594
0 0 -26028.9 0 0 26028.9 0 0 -5933.13 0 0 5933.13 0 0 -41.8247 0 0 41.8247
0 0 -26109.5 0 0 26109.5 0 0 -6563.21 0 0 6563.21 0 0 -114.971 0 0 114.971
0 0 -26161.4 0 0 26161.4 0 0 -7322.13 0 0 7322.13 0 0 -179.042 0 0 179.042
0 0 -26179.5 0 0 26179.5 0 0 -8079.46 0 0 8079.46 0 0 -253.973 0 0 253.973
0 0 -26145.2 0 0 26145.2 0 0 -8875.68 0 0 8875.68 0 0 -337.39 0 0 337.39
0 0 -26021.7 0 0 26021.7 0 0 -9701.03 0 0 9701.03 0 0 -429.529 0 0 429.529
0 0 -25816.2 0 0 25816.2 0 0 -10531.5 0 0 10531.5 0 0 -531.333 0 0 531.333
0 0 -25529.6 0 0 25529.6 0 0 -11382.2 0 0 11382.2 0 0 -641.411 0 0 641.411
0 0 -25156.6 0 0 25156.6 0 0 -12227.4 0 0 12227.4 0 0 -759.526 0 0 759.526
0 0 -24701.6 0 0 24701.6 0 0 -13051 0 0 13051 0 0 -885.647 0 0 885.647
0 0 -24165.2 0 0 24165.2 0 0 -13859.7 0 0 13859.7 0 0 -1019.07 0 0 1019.07
0 0 -23556.9 0 0 23556.9 0 0 -14647.3 0 0 14647.3 0 0 -1159.46 0 0 1159.46
0 0 -22884.3 0 0 22884.3 0 0 -15412 0 0 15412 0 0 -1306.09 0 0 1306.09
0 0 -22151.6 0 0 22151.6 0 0 -16154 0 0 16154 0 0 -1458.01 0 0 1458.01
0 0 -21385.3 0 0 21385.3 0 0 -16871.6 0 0 16871.6 0 0 -1614.31 0 0 1614.31
0 0 -20585.9 0 0 20585.9 0 0 -17572.2 0 0 17572.2 0 0 -1773.99 0 0 1773.99
0 0 -19786.1 0 0 19786.1 0 0 -18253.5 0 0 18253.5 0 0 -1936.18 0 0 1936.18
0 0 -18993.6 0 0 18993.6 0 0 -18921.5 0 0 18921.5 0 0 -2099.94 0 0 2099.94
0 0 -18209.1 0 0 18209.1 0 0 -19578.1 0 0 19578.1 0 0 -2264.16 0 0 2264.16
0 0 -17434.3 0 0 17434.3 0 0 -20220.8 0 0 20220.8 0 0 -2427.94 0 0 2427.94
0 0 -16662.4 0 0 16662.4 0 0 -20784.5 0 0 20784.5 0 0 -2590.33 0 0 2590.33
0 0 -15820.3 0 0 15820.3 0 0 -20892.3 0 0 20892.3 0 0 -2748.11 0 0 2748.11
0 0 -14884.9 0 0 14884.9 0 0 -21053.9 0 0 21053.9 0 0 -2893.5 0 0 2893.5
0 0 -14081.3 0 0 14081.3 0 0 -21178.3 0 0 21178.3 0 0 -3041.29 0 0 3041.29
0 0 -13282.7 0 0 13282.7 0 0 -21300.7 0 0 21300.7 0 0 -3185.46 0 0 3185.46
0 0 -12471 0 0 12471 0 0 -21441.9 0 0 21441.9 0 0 -3318.86 0 0 3318.86
0 0 -11728.2 0 0 11728.2 0 0 -21574.3 0 0 21574.3 0 0 -3447.79 0 0 3447.79
0 0 -11031.9 0 0 11031.9 0 0 -21704.5 0 0 21704.5 0 0 -3569.95 0 0 3569.95
0 0 -10358.7 0 0 10358.7 0 0 -21843.4 0 0 21843.4 0 0 -3682.41 0 0 3682.41
0 0 -9743.39 0 0 9743.39 0 0 -21980.6 0 0 21980.6 0 0 -3786.61 0 0 3786.61
0 0 -9182.46 0 0 9182.46 0 0 -22116.7 0 0 22116.7 0 0 -3882.08 0 0 3882.08
0 0 -8664.1 0 0 8664.1 0 0 -22256.1 0 0 22256.1 0 0 -3967.37 0 0 3967.37
0 0 -8202.8 0 0 8202.8 0 0 -22395 0 0 22395 0 0 -4042.92 0 0 4042.92
0 0 -7797.76 0 0 7797.76 0 0 -22532 0 0 22532 0 0 -4108.71 0 0 4108.71
0 0 -7444.27 0 0 7444.27 0 0 -22668.1 0 0 22668.1 0 0 -4164.23 0 0 4164.23
0 0 -7146.74 0 0 7146.74 0 0 -22801.1 0 0 22801.1 0 0 -4209.74 0 0 4209.74
0 0 -6903.13 0 0 6903.13 0 0 -22929.2 0 0 22929.2 0 0 -4245.47 0 0 4245.47
0 0 -6711.41 0 0 6711.41 0 0 -23052 0 0 23052 0 0 -4271.45 0 0 4271.45
0 0 -6568.18 0 0 6568.18 0 0 -23167.7 0 0 23167.7 0 0 -4288 0 0 4288
0 0 -6463.81 0 0 6463.81 0 0 -23274.1 0 0 23274.1 0 0 -4295.56 0 0 4295.56
0 0 -6403.51 0 0 6403.51 0 0 -23369.5 0 0 23369.5 0 0 -4280.43 0 0 4280.43
0 0 -6383.48 0 0 6383.48 0 0 -23451.8 0 0 23451.8 0 0 -4218.03 0 0 4218.03
0 0 -6409.61 0 0 6409.61 0 0 -23516.4 0 0 23516.4 0 0 -4109.05 0 0 4109.05
0 0 -6525.69 0 0 6525.69 0 0 -23564.1 0 0 23564.1 0 0 -3957.19 0 0 3957.19
0 0 -6828.02 0 0 6828.02 0 0 -23585.5 0 0 23585.5 0 0 -3771.02 0 0 3771.02
0 0 -7073.42 0 0 7073.42 0 0 -23581.2 0 0 23581.2 0 0 -3549.74 0 0 3549.74
0 0 -7290.58 0 0 7290.58 0 0 -23509.8 0 0 23509.8 0 0 -3288.22 0 0 3288.22
0 0 -7465.29 0 0 7465.29 0 0 -23326.9 0 0 23326.9 0 0 -2993.9 0 0 2993.9
0 0 -7587.76 0 0 7587.76 0 0 -23034.1 0 0 23034.1 0 0 -2667.52 0 0 2667.52
0 0 -7667.22 0 0 7667.22 0 0 -22622.6 0 0 22622.6 0 0 -2314.05 0 0 2314.05
0 0 -7734.73 0 0 7734.73 0 0 -22084.5 0 0 22084.5 0 0 -1937.55 0 0 1937.55
0 0 -7780.84 0 0 7780.84 0 0 -21430 0 0 21430 0 0 -1541.44 0 0 1541.44
0 0 -7741.93 0 0 7741.93 0 0 -20717.2 0 0 20717.2 0 0 -1133.04 0 0 1133.04
0 0 -7681 0 0 7681 0 0 -19967.9 0 0 19967.9 0 0 -721.889 0 0 721.889
0 0 -7598.01 0 0 7598.01 0 0 -19156.8 0 0 19156.8 0 0 -306.145 0 0 306.145
0 0 -7482.77 0 0 7482.77 0 0 -18284.2 0 0 18284.2 0 0 0.368614 0 0 -0.368614
0 0 -7304.17 0 0 7304.17 0 0 -17448.2 0 0 17448.2 0 0 11.7026 0 0 -11.7026
0 0 -7093.81 0 0 7093.81 0 0 -16571.1 0 0 16571.1 0 0 25.2759 0 0 -25.2759
0 0 -6914.72 0 0 6914.72 0 0 -15568.1 0 0 15568.1 0 0 37.9661 0 0 -37.9661
0 0 -6709.17 0 0 6709.17 0 0 -14580.8 0 0 14580.8 0 0 51.7096 0 0 -51.7096
0 0 -6524.01 0 0 6524.01 0 0 -13532.1 0 0 13532.1 0 0 65.5573 0 0 -65.5573
0 0 -6347.12 0 0 6347.12 0 0 -12466.4 0 0 12466.4 0 0 79.696 0 0 -79.696
0 0 -6181.85 0 0 6181.85 0 0 -11394.6 0 0 11394.6 0 0 94.2415 0 0 -94.2415
0 0 -6039.64 0 0 6039.64 0 0 -10320.1 0 0 10320.1 0 0 109.107 0 0 -109.107
0 0 -5919.63 0 0 5919.63 0 0 -9265.39 0 0 9265.39 0 0 124.505 0 0 -124.505
0 0 -5830.68 0 0 5830.68 0 0 -8236.51 0 0 8236.51 0 0 140.47 0 0 -140.47
0 0 -5778.84 0 0 5778.84 0 0 -7243.23 0 0 7243.23 0 0 156.996 0 0 -156.996
0 0 -5770.99 0 0 5770.99 0 0 -6295.33 0 0 6295.33 0 0 174.063 0 0 -174.063
0 0 -5816.55 0 0 5816.55 0 0 -5399.97 0 0 5399.97 0 0 191.646 0 0 -191.646
0 0 -5918.28 0 0 5918.28 0 0 -4566.48 0 0 4566.48 0 0 209.768 0 0 -209.768
0 0 -6081.07 0 0 6081.07 0 0 -3799.45 0 0 3799.45 0 0 228.437 0 0 -228.437
0 0 -6306.05 0 0 6306.05 0 0 -3102.89 0 0 3102.89 0 0 247.62 0 0 -247.62
0 0 -6592.59 0 0 6592.59 0 0 -2480.91 0 0 2480.91 0 0 267.245 0 0 -267.245
0 0 -6943.42 0 0 6943.42 0 0 -1934.74 0 0 1934.74 0 0 287.221 0 0 -287.221
0 0 -7354.05 0 0 7354.05 0 0 -1466.16 0 0 1466.16 0 0 307.465 0 0 -307.465
0 0 -7821.77 0 0 7821.77 0 0 -1074.31 0 0 1074.31 0 0 327.901 0 0 -327.901
0 0 -8342.12 0 0 8342.12 0 0 -756.753 0 0 756.753 0 0 348.43 0 0 -348.43
0 0 -8905.45 0 0 8905.45 0 0 -511.741 0 0 511.741 0 0 368.935 0 0 -368.935
0 0 -9505.68 0 0 9505.68 0 0 -334.553 0 0 334.553 0 0 389.279 0 0 -389.279
