-0.0550541 -2.77064e-05 -0.139531 -4.38742e-05 -0.0426907 -7.66388e-06
-0.0546951 -2.75258e-05 -0.139609 -4.38986e-05 -0.0426666 -7.65956e-06
-0.053845 -2.70979e-05 -0.139798 -4.39583e-05 -0.042576 -7.6433e-06
-0.0520804 -2.62099e-05 -0.14009 -4.40501e-05 -0.0424647 -7.62331e-06
-0.0500553 -2.51908e-05 -0.140375 -4.41397e-05 -0.0423925 -7.61036e-06
-0.047425 -2.3867e-05 -0.140673 -4.42335e-05 -0.0423876 -7.60948e-06
-0.0441276 -2.22076e-05 -0.140938 -4.43165e-05 -0.0424841 -7.6268e-06
-0.0400951 -2.01782e-05 -0.141104 -4.4369e-05 -0.0427324 -7.67138e-06
-0.0352536 -1.77417e-05 -0.141116 -4.43728e-05 -0.0431862 -7.75283e-06
-0.0295231 -1.48578e-05 -0.140917 -4.431e-05 -0.0438968 -7.88042e-06
-0.0228274 -1.14881e-05 -0.140434 -4.41581e-05 -0.0449098 -8.06226e-06
-0.0151091 -7.60378e-06 -0.139581 -4.38901e-05 -0.0462626 -8.30512e-06
-0.00639269 -3.21718e-06 -0.138264 -4.34758e-05 -0.0479884 -8.61494e-06
0.00317458 1.59764e-06 -0.136422 -4.28968e-05 -0.05008 -8.99042e-06
0.0137929 6.94139e-06 -0.133869 -4.20938e-05 -0.05261 -9.44462e-06
0.0250871 1.26253e-05 -0.130513 -4.10385e-05 -0.0555362 -9.96994e-06
0.0368194 1.85297e-05 -0.126228 -3.96914e-05 -0.0588259 -1.05605e-05
0.0487086 2.4513e-05 -0.120906 -3.80179e-05 -0.0623955 -1.12013e-05
0.0604416 3.04178e-05 -0.114474 -3.59954e-05 -0.0661159 -1.18692e-05
0.0717014 3.60844e-05 -0.106901 -3.3614e-05 -0.0697965 -1.253e-05
0.0821661 4.13508e-05 -0.0981926 -3.08758e-05 -0.0732094 -1.31427e-05
0.0914652 4.60306e-05 -0.0883926 -2.77943e-05 -0.0760416 -1.36511e-05
0.0991551 4.99006e-05 -0.0775798 -2.43943e-05 -0.0779349 -1.3991e-05
0.104705 5.26935e-05 -0.0659367 -2.07332e-05 -0.078504 -1.40931e-05
0.107493 5.40966e-05 -0.0537293 -1.68947e-05 -0.0773517 -1.38863e-05
0.106849 5.37727e-05 -0.041138 -1.29355e-05 -0.0740668 -1.32966e-05
0.102206 5.14358e-05 -0.0283794 -8.92366e-06 -0.0681888 -1.22413e-05
0.0932512 4.69295e-05 -0.0157158 -4.9417e-06 -0.0591619 -1.06208e-05
0.0801171 4.03196e-05 -0.00375199 -1.17978e-06 -0.0464308 -8.33532e-06
0.0632933 3.18529e-05 0.00689907 2.16935e-06 -0.0295222 -5.29987e-06
0.0436208 2.19526e-05 0.0156057 4.90707e-06 -0.00818573 -1.46951e-06
0.0214128 1.07762e-05 0.0217 6.82337e-06 0.0181938 3.26618e-06
-0.00244493 -1.23043e-06 0.0247809 7.79213e-06 0.0495775 8.90022e-06
-0.0275335 -1.38565e-05 0.0244217 7.67918e-06 0.0857198 1.53885e-05
-0.0533924 -2.68702e-05 0.0203614 6.40247e-06 0.126258 2.2666e-05
-0.0797497 -4.01347e-05 0.0125528 3.94711e-06 0.17049 3.06067e-05
-0.106515 -5.36048e-05 0.00107609 3.38367e-07 0.217486 3.90434e-05
-0.133593 -6.72319e-05 -0.013904 -4.37199e-06 0.26608 4.7767e-05
-0.160733 -8.08904e-05 -0.0321201 -1.00999e-05 0.314833 5.65191e-05
-0.187852 -9.4538e-05 -0.0539416 -1.69615e-05 0.362062 6.49978e-05
-0.214787 -0.000108093 -0.0780874 -2.45539e-05 0.406503 7.29759e-05
-0.24123 -0.000121401 -0.104102 -3.2734e-05 0.446423 8.01424e-05
-0.266738 -0.000134238 -0.131433 -4.13278e-05 0.480234 8.62122e-05
-0.29074 -0.000146317 -0.159573 -5.01761e-05 0.506421 9.09134e-05
-0.312594 -0.000157316 -0.188005 -5.91164e-05 0.523616 9.40002e-05
-0.331744 -0.000166953 -0.216196 -6.7981e-05 0.530568 9.52483e-05
-0.347972 -0.00017512 -0.243609 -7.66005e-05 0.526141 9.44535e-05
-0.361438 -0.000181897 -0.269814 -8.48404e-05 0.509433 9.14541e-05
-0.372666 -0.000187547 -0.294048 -9.24606e-05 0.479832 8.614e-05
-0.382597 -0.000192545 -0.315665 -9.9258e-05 0.436983 7.84478e-05
-0.395206 -0.000198891 -0.338376 -0.000106399 0.364765 6.54831e-05
-0.410872 -0.000206775 -0.355857 -0.000111896 0.272583 4.89345e-05
-0.432664 -0.000217742 -0.367955 -0.0001157 0.162369 2.91486e-05
-0.463121 -0.00023307 -0.375233 -0.000117989 0.0371773 6.67411e-06
-0.503856 -0.00025357 -0.379224 -0.000119243 -0.100667 -1.80719e-05
-0.555352 -0.000279485 -0.382161 -0.000120167 -0.244999 -4.39825e-05
-0.616787 -0.000310403 -0.386862 -0.000121645 -0.389945 -7.00034e-05
-0.686132 -0.000345302 -0.396466 -0.000124665 -0.52946 -9.50493e-05
-0.760787 -0.000382872 -0.414266 -0.000130262 -0.657738 -0.000118078
-0.838546 -0.000422006 -0.44305 -0.000139313 -0.770822 -0.000138379
-0.918127 -0.000462055 -0.484692 -0.000152407 -0.865665 -0.000155405
-0.999066 -0.000502788 -0.540163 -0.000169849 -0.940586 -0.000168855
-1.08135 -0.0005442 -0.609537 -0.000191663 -0.995562 -0.000178725
-1.16511 -0.000586351 -0.692001 -0.000217593 -1.03239 -0.000185335
-1.25025 -0.000629201 -0.785979 -0.000247144 -1.05438 -0.000189283
-1.33609 -0.0006724 -0.889398 -0.000279663 -1.0658 -0.000191334
-1.42138 -0.000715323 -0.999774 -0.00031437 -1.07179 -0.000192409
-1.50486 -0.000757333 -1.11421 -0.000350353 -1.07816 -0.000193553
-1.58572 -0.000798029 -1.22949 -0.000386601 -1.09116 -0.000195886
-1.66369 -0.000837265 -1.34229 -0.000422072 -1.11682 -0.000200494
-1.73861 -0.000874972 -1.44949 -0.00045578 -1.1606 -0.000208352
-1.80999 -0.000910892 -1.54841 -0.000486884 -1.22689 -0.000220253
-1.87661 -0.000944422 -1.63707 -0.000514761 -1.31883 -0.000236757
-1.93706 -0.000974842 -1.71415 -0.000539 -1.438 -0.000258151
-1.99021 -0.00100159 -1.77897 -0.00055938 -1.58445 -0.000284443
-2.03542 -0.00102434 -1.8314 -0.000575869 -1.75665 -0.000315357
-2.07253 -0.00104302 -1.87189 -0.000588599 -1.95163 -0.000350359
-2.1019 -0.0010578 -1.90132 -0.000597854 -2.16507 -0.000388677
-2.12433 -0.00106909 -1.921 -0.000604042 -2.39154 -0.000429332
-2.141 -0.00107748 -1.93258 -0.000607683 -2.62467 -0.000471185
-2.15328 -0.00108365 -1.93796 -0.000609373 -2.85754 -0.000512988
-2.16263 -0.00108836 -1.93917 -0.000609753 -3.08291 -0.000553448
-2.17068 -0.00109241 -1.93825 -0.000609464 -3.29366 -0.000591282
-2.17932 -0.00109676 -1.93709 -0.000609102 -3.48307 -0.000625286
-2.19063 -0.00110245 -1.93738 -0.000609192 -3.64515 -0.000654381
-2.2065 -0.00111044 -1.94054 -0.000610184 -3.77484 -0.000677664
-2.22809 -0.00112131 -1.94781 -0.000612473 -3.86821 -0.000694426
-2.25524 -0.00113497 -1.96032 -0.000616406 -3.92253 -0.000704177
-2.28646 -0.00115068 -1.97894 -0.000622261 -3.93646 -0.000706678
-2.31942 -0.00116727 -2.00411 -0.000630174 -3.91026 -0.000701975
-2.34527 -0.00118028 -2.02887 -0.00063796 -3.86165 -0.000693248
-2.37472 -0.0011951 -2.06494 -0.000649303 -3.76925 -0.000676661
-2.39879 -0.00120721 -2.10528 -0.000661986 -3.64636 -0.0006546
-2.41545 -0.0012156 -2.14766 -0.000675312 -3.4993 -0.000628198
-2.4228 -0.00121929 -2.18936 -0.000688424 -3.3354 -0.000598776
-2.41877 -0.00121726 -2.22732 -0.000700362 -3.16263 -0.000567759
-2.4013 -0.00120848 -2.25829 -0.0007101 -2.98911 -0.000536608
-2.36841 -0.00119192 -2.279 -0.000716612 -2.82272 -0.000506738
-2.31818 -0.00116664 -2.28638 -0.000718933 -2.67065 -0.000479439
-2.24895 -0.0011318 -2.27765 -0.000716185 -2.53901 -0.000455806
-2.15945 -0.00108676 -2.25042 -0.000707624 -2.43247 -0.000436681
-2.04882 -0.00103109 -2.20289 -0.000692677 -2.35403 -0.000422598
-1.91678 -0.000964634 -2.13383 -0.000670962 -2.30479 -0.000413759
-1.76407 -0.000887781 -2.04257 -0.000642266 -2.28393 -0.000410014
-1.59288 -0.000801632 -1.92895 -0.00060654 -2.28873 -0.000410875
-1.40668 -0.000707921 -1.79343 -0.000563929 -2.31456 -0.000415513
-1.20927 -0.000608573 -1.63731 -0.000514837 -2.35496 -0.000422765
-1.00446 -0.000505501 -1.46269 -0.00045993 -2.40175 -0.000431165
-0.796133 -0.000400661 -1.27242 -0.000400099 -2.44549 -0.000439017
-0.588279 -0.000296057 -1.06995 -0.000336435 -2.47587 -0.000444471
-0.384833 -0.000193671 -0.859246 -0.000270182 -2.48222 -0.000445611
-0.189399 -9.53165e-05 -0.644583 -0.000202683 -2.454 -0.000440545
-0.00480588 -2.4186e-06 -0.430402 -0.000135336 -2.38132 -0.000427497
0.165421 8.32496e-05 -0.222848 -7.00725e-05 -2.25545 -0.000404901
0.322829 0.000162466 -0.0302169 -9.50144e-06 -2.07102 -0.000371792
0.466882 0.000234962 0.15034 4.72731e-05 -1.82206 -0.000327099
0.596453 0.00030017 0.316589 9.95485e-05 -1.50647 -0.000270443
0.710604 0.000357617 0.466728 0.000146759 -1.12638 -0.000202208
0.808207 0.000406737 0.599834 0.000188612 -0.685317 -0.000123029
0.888815 0.000447304 0.71692 0.000225429 -0.190304 -3.41636e-05
0.95401 0.000480114 0.818575 0.000257393 0.342678 6.15179e-05
1.0067 0.000506633 0.905855 0.000284838 0.904821 0.000162435
1.0507 0.000528775 0.980589 0.000308337 1.48904 0.000267314
1.0901 0.000548603 1.04546 0.000328735 2.08025 0.000373449
1.12918 0.000568268 1.10294 0.000346811 2.66332 0.000478123
1.17246 0.000590052 1.15562 0.000363373 3.22276 0.000578554
1.22459 0.000616287 1.2066 0.000379405 3.7443 0.000672181
1.28992 0.000649165 1.25888 0.000395844 4.21538 0.00075675
1.37205 0.000690494 1.31516 0.000413539 4.62373 0.000830057
1.4732 0.000741399 1.37812 0.000433337 4.95859 0.000890173
1.59373 0.00080206 1.4504 0.000456064 5.21231 0.000935721
1.73211 0.0008717 1.53419 0.000482411 5.38002 0.000965828
1.8855 0.000948894 1.63091 0.000512825 5.45989 0.000980167
2.0505 0.00103193 1.74106 0.000547459 5.45314 0.000978955
2.22354 0.00111902 1.86404 0.000586132 5.36466 0.000963071
2.40118 0.00120842 1.99803 0.000628261 5.2029 0.000934031
2.58015 0.00129848 2.13999 0.000672901 4.9793 0.00089389
2.75737 0.00138767 2.28602 0.00071882 4.70759 0.000845113
2.92999 0.00147455 2.43151 0.000764566 4.40327 0.000790481
3.09533 0.00155775 2.57142 0.000808561 4.0829 0.000732968
3.25058 0.00163588 2.70075 0.000849225 3.76321 0.000675576
3.39281 0.00170746 2.81479 0.000885086 3.46009 0.000621159
3.51921 0.00177107 2.90946 0.000914852 3.18793 0.0005723
3.62734 0.00182549 2.98141 0.000937478 2.959 0.000531203
3.70309 0.00186361 3.02865 0.000952333 2.78341 0.00049968
3.76189 0.00189321 3.05002 0.000959052 2.66873 0.000479094
3.80436 0.00191458 3.05025 0.000959123 2.61274 0.000469042
3.81128 0.00191806 3.01837 0.000949099 2.62141 0.000470598
3.80463 0.00191471 2.96601 0.000932635 2.68263 0.00048159
3.76845 0.00189651 2.90061 0.000912072 2.79174 0.000501177
3.66235 0.00184311 2.83259 0.000890683 2.93342 0.00052661
3.54353 0.00178331 2.73787 0.000860899 3.12219 0.0005605
3.415 0.00171863 2.64196 0.00083074 3.32491 0.000596892
3.27569 0.00164852 2.53714 0.00079778 3.54337 0.000636111
3.1307 0.00157555 2.42612 0.000762871 3.76318 0.000675571
2.98929 0.00150439 2.31495 0.000727916 3.97219 0.000713093
2.85382 0.00143621 2.20714 0.000694015 4.15864 0.000746565
2.72976 0.00137378 2.10477 0.000661826 4.3107 0.000773862
2.62263 0.00131986 2.0105 0.000632185 4.41943 0.000793382
2.53566 0.00127609 1.92731 0.000606026 4.47798 0.000803892
2.47195 0.00124403 1.85772 0.000584145 4.4799 0.000804238
2.43419 0.00122503 1.80306 0.000566955 4.42088 0.000793642
2.42335 0.00121957 1.76412 0.000554713 4.30025 0.000771987
2.43968 0.00122779 1.74183 0.000547704 4.12012 0.000739649
2.48249 0.00124933 1.73635 0.00054598 3.8843 0.000697314
2.54835 0.00128248 1.74717 0.00054938 3.59872 0.000646046
2.62098 0.00131903 1.77704 0.000558774 3.27003 0.000587039
2.69727 0.00135742 1.82225 0.000572991 2.91028 0.000522457
2.773 0.00139553 1.88067 0.000591358 2.53246 0.00045463
2.84517 0.00143186 1.94852 0.000612696 2.15114 0.000386176
2.89823 0.00145856 2.00647 0.000630916 1.8537 0.000332779
2.94558 0.00148239 2.06482 0.000649264 1.57177 0.000282165
2.98584 0.00150265 2.1212 0.000666993 1.31308 0.000235727
3.01765 0.00151866 2.17337 0.000683395 1.08483 0.00019475
3.03972 0.00152976 2.21912 0.000697784 0.893297 0.000160366
3.05089 0.00153539 2.25646 0.000709524 0.743822 0.000133532
3.05013 0.001535 2.28373 0.000718098 0.640732 0.000115025
3.03637 0.00152808 2.29977 0.000723142 0.587133 0.000105403
3.00849 0.00151405 2.3039 0.00072444 0.584697 0.000104966
2.96533 0.00149233 2.29582 0.000721901 0.633581 0.000113741
2.90579 0.00146237 2.27566 0.000715562 0.732521 0.000131503
2.82909 0.00142376 2.24389 0.000705571 0.878979 0.000157795
2.73501 0.00137642 2.20125 0.000692164 1.06928 0.000191958
2.62412 0.00132061 2.14865 0.000675623 1.29866 0.000233136
2.49781 0.00125704 2.08706 0.000656256 1.5614 0.000280305
2.35818 0.00118677 2.01753 0.000634394 1.85099 0.000332292
2.2077 0.00111104 1.94125 0.000610407 2.16023 0.000387807
2.04888 0.00103112 1.85953 0.000584714 2.48142 0.000445467
1.8841 0.000948189 1.77383 0.000557765 2.8065 0.000503826
1.71561 0.000863396 1.68562 0.000530028 3.12722 0.000561403
1.54563 0.000777853 1.59637 0.000501964 3.43541 0.000616728
1.37636 0.000692663 1.50749 0.000474016 3.72312 0.00066838
1.20988 0.000608881 1.42027 0.000446592 3.98291 0.000715018
1.04807 0.000527452 1.33588 0.000420056 4.20795 0.000755417
0.892555 0.000449186 1.25528 0.000394711 4.39218 0.00078849
0.744656 0.000374755 1.17922 0.000370794 4.53049 0.000813319
0.605463 0.000304704 1.10819 0.000348462 4.61879 0.000829171
0.475822 0.000239461 1.04245 0.000327789 4.65415 0.00083552
0.356321 0.000179322 0.981939 0.000308762 4.63484 0.000832052
0.24729 0.000124451 0.926339 0.000291279 4.5603 0.000818671
0.148792 7.48808e-05 0.875063 0.000275156 4.4312 0.000795495
0.0606279 3.05115e-05 0.827294 0.000260135 4.24934 0.000762847
-0.0175952 -8.85492e-06 0.782008 0.000245896 4.01758 0.000721241
-0.0854814 -4.30193e-05 0.737993 0.000232055 3.73977 0.000671368
-0.129581 -6.52129e-05 0.690766 0.000217205 3.42115 0.000614169
-0.146698 -7.38272e-05 0.631939 0.000198707 3.07412 0.00055187
-0.16114 -8.10953e-05 0.582668 0.000183215 2.6877 0.000482499
-0.170404 -8.57572e-05 0.525452 0.000165224 2.27948 0.000409216
-0.178735 -8.99499e-05 0.465209 0.000146281 1.85037 0.000332181
-0.185738 -9.34744e-05 0.400854 0.000126045 1.40797 0.000252761
-0.192971 -9.71146e-05 0.333486 0.000104862 0.957754 0.000171937
-0.203726 -0.000102527 0.261655 8.22752e-05 0.505602 9.07663e-05
-0.220092 -0.000110763 0.183877 5.78184e-05 0.057892 1.03928e-05
-0.243159 -0.000122372 0.1 3.14442e-05 -0.385522 -6.92093e-05
-0.274432 -0.00013811 0.0105117 3.30531e-06 -0.814683 -0.000146253
-0.315561 -0.000158809 -0.0849758 -2.67199e-05 -1.2242 -0.00021977
-0.367532 -0.000184963 -0.187672 -5.90117e-05 -1.60926 -0.000288897
-0.430483 -0.000216644 -0.297089 -9.34171e-05 -1.96458 -0.000352684
-0.504827 -0.000254059 -0.413573 -0.000130044 -2.28818 -0.000410777
-0.590539 -0.000297194 -0.536467 -0.000168687 -2.57794 -0.000462796
-0.687304 -0.000345892 -0.664494 -0.000208944 -2.83252 -0.000508498
-0.794711 -0.000399945 -0.797007 -0.000250612 -3.05085 -0.000547692
-0.912245 -0.000459095 -0.933728 -0.000293602 -3.23283 -0.000580363
-1.03908 -0.000522924 -1.07405 -0.000337727 -3.37933 -0.000606661
-1.17406 -0.000590856 -1.21679 -0.000382609 -3.49201 -0.000626889
-1.31579 -0.000662185 -1.36061 -0.000427832 -3.57317 -0.000641461
-1.4626 -0.000736065 -1.50443 -0.000473056 -3.6256 -0.000650872
-1.61254 -0.000811525 -1.64731 -0.000517982 -3.65245 -0.000655692
-1.76355 -0.000887524 -1.78811 -0.000562256 -3.65726 -0.000656557
-1.9135 -0.000962984 -1.92552 -0.000605462 -3.64399 -0.000654174
-2.06019 -0.00103681 -2.05818 -0.000647178 -3.61686 -0.000649303
-2.20145 -0.0011079 -2.18491 -0.000687025 -3.58021 -0.000642724
-2.33519 -0.00117521 -2.30454 -0.000724643 -3.53831 -0.000635202
-2.45948 -0.00123775 -2.41591 -0.000759661 -3.49523 -0.000627467
-2.57257 -0.00129467 -2.51781 -0.000791702 -3.45485 -0.000620219
-2.67298 -0.0013452 -2.60913 -0.000820417 -3.42082 -0.000614109
-2.75948 -0.00138873 -2.6889 -0.000845499 -3.39638 -0.000609723
-2.83121 -0.00142483 -2.75626 -0.000866682 -3.38426 -0.000607546
-2.88766 -0.00145324 -2.81048 -0.000883731 -3.3865 -0.00060795
-2.92862 -0.00147385 -2.85097 -0.000896461 -3.40453 -0.000611185
-2.95422 -0.00148673 -2.87734 -0.000904752 -3.43906 -0.000617384
-2.96481 -0.00149207 -2.88946 -0.000908564 -3.49011 -0.000626549
-2.96101 -0.00149015 -2.88744 -0.000907928 -3.55692 -0.000638542
-2.94376 -0.00148147 -2.87158 -0.000902942 -3.63798 -0.000653094
-2.91451 -0.00146675 -2.84247 -0.000893788 -3.73104 -0.0006698
-2.87478 -0.00144676 -2.80088 -0.00088071 -3.83321 -0.000688142
-2.82627 -0.00142235 -2.7478 -0.00086402 -3.94106 -0.000707505
-2.77097 -0.00139451 -2.6845 -0.000844117 -4.05061 -0.000727171
-2.71088 -0.00136427 -2.61245 -0.000821462 -4.15749 -0.000746357
-2.64791 -0.00133258 -2.53327 -0.000796562 -4.25707 -0.000764234
-2.58399 -0.00130042 -2.4487 -0.00076997 -4.34462 -0.000779952
-2.52107 -0.00126875 -2.36059 -0.000742267 -4.41545 -0.000792667
-2.46106 -0.00123855 -2.27082 -0.000714038 -4.46505 -0.000801572
-2.4058 -0.00121074 -2.1812 -0.000685858 -4.48928 -0.00080592
-2.35703 -0.0011862 -2.0935 -0.000658281 -4.48445 -0.000805054
-2.31631 -0.0011657 -2.00939 -0.000631834 -4.4475 -0.000798421
-2.28493 -0.00114991 -1.93039 -0.000606994 -4.37609 -0.000785601
-2.26396 -0.00113936 -1.85785 -0.000584184 -4.26868 -0.000766319
-2.25422 -0.00113445 -1.7929 -0.000563761 -4.12463 -0.000740459
-2.2563 -0.0011355 -1.73642 -0.000546003 -3.94423 -0.000708073
-2.27061 -0.0011427 -1.68906 -0.000531108 -3.72875 -0.00066939
-2.29569 -0.00115533 -1.65149 -0.000519296 -3.48034 -0.000624796
-2.32347 -0.00116931 -1.62815 -0.000511957 -3.19983 -0.000574438
-2.36882 -0.00119213 -1.61137 -0.00050668 -2.89452 -0.000519627
-2.42415 -0.00121998 -1.60336 -0.000504163 -2.56988 -0.000461348
-2.49003 -0.00125313 -1.60411 -0.000504398 -2.22885 -0.000400126
-2.56571 -0.00129121 -1.61132 -0.000506664 -1.87961 -0.000337429
-2.64727 -0.00133226 -1.62629 -0.000511373 -1.52634 -0.00027401
-2.73282 -0.00137532 -1.64726 -0.000517966 -1.17716 -0.000211325
-2.81598 -0.00141716 -1.675 -0.000526689 -0.838169 -0.000150469
-2.89657 -0.00145773 -1.70787 -0.000537023 -0.516128 -9.26559e-05
-2.97028 -0.00149482 -1.74457 -0.000548565 -0.217446 -3.90362e-05
-3.03471 -0.00152724 -1.78389 -0.000560929 0.0511738 9.18679e-06
-3.08803 -0.00155408 -1.82518 -0.00057391 0.280326 5.03245e-05
-3.12736 -0.00157387 -1.86678 -0.000586992 0.468326 8.40745e-05
-3.15009 -0.00158531 -1.90723 -0.000599713 0.610257 0.000109554
-3.15466 -0.00158761 -1.94502 -0.000611595 0.702877 0.000126181
-3.14071 -0.00158059 -1.97882 -0.000622222 0.742935 0.000133373
-3.10766 -0.00156395 -2.0072 -0.000631147 0.727639 0.000130627
-3.05533 -0.00153762 -2.02874 -0.000637917 0.65537 0.000117653
-2.98432 -0.00150188 -2.04224 -0.000642165 0.526266 9.44759e-05
-2.89551 -0.00145719 -2.0468 -0.000643597 0.341907 6.13796e-05
-2.78996 -0.00140407 -2.0417 -0.000641994 0.104915 1.88345e-05
-2.66913 -0.00134326 -2.02675 -0.000637295 -0.185648 -3.33278e-05
-2.53511 -0.00127581 -2.00166 -0.000629405 -0.521607 -9.36395e-05
-2.39026 -0.00120292 -1.96658 -0.000618374 -0.896764 -0.000160988
-2.23717 -0.00112588 -1.92182 -0.0006043 -1.30281 -0.000233883
-2.0784 -0.00104597 -1.8683 -0.00058747 -1.73139 -0.000310822
-1.91644 -0.000964463 -1.80724 -0.000568271 -2.17393 -0.000390267
-1.75364 -0.000882536 -1.74009 -0.000547154 -2.62136 -0.00047059
-1.5923 -0.00080134 -1.66841 -0.000524616 -3.06388 -0.000550031
-1.43455 -0.000721951 -1.59401 -0.000501221 -3.49123 -0.00062675
-1.28233 -0.000645346 -1.51881 -0.000477577 -3.89338 -0.000698945
-1.13739 -0.000572403 -1.44474 -0.000454286 -4.26102 -0.000764943
-1.00133 -0.000503926 -1.37355 -0.0004319 -4.5857 -0.000823231
-0.875611 -0.000440659 -1.30677 -0.000410904 -4.85987 -0.000872449
-0.761542 -0.000383253 -1.24575 -0.000391714 -5.07688 -0.000911408
-0.660116 -0.000332209 -1.19154 -0.000374668 -5.2313 -0.00093913
-0.571924 -0.000287826 -1.14489 -0.000360001 -5.31916 -0.000954902
-0.497147 -0.000250193 -1.10619 -0.000347833 -5.33809 -0.000958301
-0.435575 -0.000219207 -1.07544 -0.000338163 -5.28735 -0.000949192
-0.386642 -0.000194581 -1.05227 -0.000330876 -5.1677 -0.000927712
-0.349432 -0.000175854 -1.03594 -0.000325741 -4.98137 -0.000894262
-0.322698 -0.0001624 -1.02536 -0.000322415 -4.73205 -0.000849503
-0.30487 -0.000153428 -1.01912 -0.000320453 -4.42481 -0.000794347
-0.29405 -0.000147983 -1.01553 -0.000319323 -4.06599 -0.000729931
-0.288025 -0.000144951 -1.01269 -0.000318433 -3.66291 -0.00065757
-0.284299 -0.000143076 -1.0086 -0.000317144 -3.22368 -0.000578718
-0.280155 -0.00014099 -1.00112 -0.000314793 -2.75694 -0.00049493
-0.307078 -0.000154539 -0.978895 -0.000307805 -2.27454 -0.000408329
-0.326257 -0.000164192 -0.948312 -0.000298188 -1.78747 -0.00032089
-0.341952 -0.00017209 -0.915019 -0.00028772 -1.29099 -0.00023176
-0.347325 -0.000174794 -0.867124 -0.000272659 -0.806437 -0.000144773
-0.339864 -0.000171039 -0.808415 -0.000254199 -0.33308 -5.97949e-05
-0.319341 -0.000160711 -0.73749 -0.000231897 0.115534 2.07409e-05
-0.28454 -0.000143197 -0.655333 -0.000206064 0.531619 9.54369e-05
-0.234865 -0.000118198 -0.559484 -0.000175925 0.916451 0.000164522
-0.169879 -8.54929e-05 -0.449261 -0.000141266 1.26607 0.000227287
-0.0887117 -4.46449e-05 -0.325069 -0.000102215 1.57807 0.000283297
0.00730371 3.67565e-06 -0.187913 -5.90876e-05 1.8492 0.000331971
0.11749 5.91279e-05 -0.0387074 -1.21712e-05 2.07872 0.000373174
0.241215 0.000121394 0.119777 3.76628e-05 2.26638 0.000406864
0.377085 0.000189771 0.285913 8.99027e-05 2.41456 0.000433465
0.522921 0.000263165 0.459659 0.000144536 2.52682 0.000453619
0.676881 0.000340646 0.639196 0.000200989 2.60677 0.000467971
0.836501 0.000420977 0.822334 0.000258575 2.65827 0.000477215
0.998684 0.000502597 1.00721 0.000316707 2.68663 0.000482307
1.15906 0.000583308 1.19249 0.000374967 2.69739 0.000484239
1.31598 0.000662277 1.37506 0.000432376 2.69683 0.000484138
1.46746 0.000738511 1.55204 0.000488026 2.69097 0.000483087
1.61203 0.000811267 1.72068 0.000541053 2.68572 0.000482145
1.74855 0.000879974 1.87852 0.000590685 2.68694 0.000482363
1.87614 0.000944185 2.02328 0.000636202 2.69989 0.000484688
1.99408 0.00100354 2.15276 0.000676916 2.7291 0.000489932
2.10172 0.00105771 2.26517 0.000712261 2.77808 0.000498725
2.19818 0.00110625 2.35925 0.000741846 2.84934 0.000511517
2.26727 0.00114103 2.43768 0.000766507 2.94297 0.000528326
2.32359 0.00116937 2.49808 0.0007855 3.05809 0.000548992
2.36352 0.00118946 2.53849 0.000798206 3.19862 0.00057422
2.38762 0.00120159 2.5618 0.000805536 3.3587 0.000602958
2.3967 0.00120616 2.56741 0.0008073 3.53793 0.000635134
2.39194 0.00120376 2.55676 0.00080395 3.7309 0.000669776
2.37462 0.00119505 2.53076 0.000795775 3.93387 0.000706214
2.34626 0.00118078 2.49127 0.000783359 4.14167 0.000743518
2.30926 0.00116216 2.44035 0.000767348 4.34855 0.000780658
2.26597 0.00114037 2.37995 0.000748353 4.54821 0.000816501
2.21864 0.00111655 2.31194 0.000726967 4.73428 0.000849904
2.1697 0.00109192 2.23846 0.000703864 4.90056 0.000879755
2.12169 0.00106776 2.16185 0.000679773 5.04111 0.000904987
2.07693 0.00104523 2.08429 0.000655386 5.15033 0.000924593
2.03755 0.00102541 2.00778 0.000631327 5.22306 0.000937651
2.00551 0.00100929 1.93415 0.000608175 5.25493 0.000943372
1.98258 0.000997752 1.86513 0.000586473 5.2425 0.000941141
1.97015 0.000991497 1.80226 0.000566704 5.18342 0.000930534
1.9692 0.000991019 1.7468 0.000549266 5.07638 0.000911318
1.98029 0.000996597 1.69972 0.000534461 4.92118 0.000883456
2.00352 0.00100829 1.66168 0.0005225 4.7188 0.000847125
2.03865 0.00102597 1.63307 0.000513503 4.47149 0.000802727
2.08515 0.00104937 1.61394 0.00050749 4.18267 0.000750878
2.14123 0.00107759 1.60407 0.000504386 3.85696 0.000692407
2.20408 0.00110922 1.60394 0.000504343 3.49942 0.00062822
2.27194 0.00114337 1.61226 0.000506961 3.11639 0.000559458
2.34326 0.00117926 1.62734 0.000511703 2.71577 0.000487538
2.41724 0.0012165 1.6483 0.000518294 2.30492 0.000413781
2.49243 0.00125434 1.67347 0.000526206 1.89234 0.000339714
2.56689 0.00129181 1.70095 0.000534849 1.48647 0.000266854
2.63907 0.00132814 1.72891 0.000543641 1.09576 0.000196712
2.70763 0.00136264 1.75572 0.000552071 0.728229 0.000130733
2.77089 0.00139447 1.77986 0.000559661 0.391445 7.02727e-05
2.82699 0.00142271 1.79996 0.000565982 0.0922221 1.65558e-05
2.87407 0.0014464 1.81491 0.000570682 -0.164808 -2.95865e-05
2.91037 0.00146467 1.82378 0.000573473 -0.375734 -6.74523e-05
2.93432 0.00147672 1.82611 0.000574204 -0.533504 -9.57754e-05
2.94475 0.00148197 1.8216 0.000572787 -0.635895 -0.000114157
2.94082 0.00147999 1.81027 0.000569222 -0.681039 -0.000122261
2.92231 0.00147068 1.79221 0.000563544 -0.668786 -0.000120061
2.88931 0.00145407 1.76778 0.000555864 -0.600425 -0.000107789
2.84228 0.0014304 1.7375 0.00054634 -0.478431 -8.58886e-05
2.78239 0.00140026 1.70211 0.000535214 -0.306229 -5.49746e-05
2.71141 0.00136454 1.66248 0.000522751 -0.0891487 -1.60041e-05
2.63138 0.00132427 1.61943 0.000509215 0.164698 2.95668e-05
2.54445 0.00128052 1.57427 0.000495015 0.452965 8.13169e-05
2.45279 0.00123439 1.52835 0.000480575 0.768542 0.00013797
2.35843 0.0011869 1.48315 0.000466362 1.10426 0.000198238
2.26331 0.00113903 1.44013 0.000452835 1.45217 0.000260695
2.16936 0.00109175 1.40076 0.000440456 1.80447 0.000323942
2.07864 0.00104609 1.36645 0.000429667 2.15374 0.000386642
1.99321 0.0010031 1.33847 0.000420871 2.49286 0.000447522
1.91505 0.000963767 1.31793 0.00041441 2.81509 0.000505369
1.84601 0.000929022 1.30569 0.000410561 3.11414 0.000559054
1.78776 0.000899705 1.30241 0.000409532 3.38447 0.000607585
1.74167 0.000876512 1.30857 0.000411469 3.62151 0.000650138
1.70872 0.000859928 1.32441 0.000416449 3.82167 0.00068607
1.68932 0.000850162 1.34997 0.000424486 3.98232 0.00071491
1.68326 0.000847117 1.38508 0.000435526 4.10179 0.000736359
1.68975 0.000850379 1.42938 0.000449456 4.17945 0.0007503
1.70743 0.00085928 1.48228 0.000466089 4.21574 0.000756815
1.73457 0.000872937 1.54293 0.00048516 4.21222 0.000756184
1.76898 0.000890256 1.61026 0.000506331 4.17145 0.000748864
1.80815 0.000909968 1.68294 0.000529186 4.09686 0.000735474
1.84938 0.000930715 1.7594 0.000553227 3.99273 0.00071678
1.88992 0.00095112 1.8378 0.000577879 3.86406 0.00069368
1.9271 0.000969829 1.91609 0.000602499 3.71642 0.000667177
1.95832 0.000985541 1.99207 0.000626387 3.55584 0.00063835
1.98124 0.000997074 2.06334 0.000648799 3.38853 0.000608314
1.99379 0.00100339 2.12748 0.000668966 3.22072 0.000578187
1.99423 0.00100362 2.18202 0.000686118 3.05842 0.000549052
1.9811 0.000997008 2.22464 0.000699518 2.90726 0.000521916
1.95318 0.000982952 2.25316 0.000708485 2.77225 0.000497679
1.90942 0.000960932 2.26567 0.000712421 2.65759 0.000477093
1.84901 0.000930532 2.26063 0.000710834 2.5665 0.000460741
1.77142 0.000891482 2.23682 0.000703347 2.50113 0.000449007
1.67646 0.000843691 2.19343 0.000689706 2.46251 0.000442073
1.56435 0.000787273 2.13009 0.000669788 2.45044 0.000439906
1.43575 0.000722551 2.04682 0.000643603 2.46354 0.000442259
1.29169 0.000650055 1.94406 0.000611292 2.49926 0.000448671
1.13358 0.000570485 1.82269 0.000573128 2.55392 0.000458483
0.971677 0.000489005 1.68173 0.000528803 2.62351 0.000470976
0.799408 0.000402309 1.52214 0.000478623 2.70475 0.000485559
0.616341 0.000310179 1.35582 0.000426326 2.78251 0.000499521
0.428692 0.000215743 1.17479 0.000369403 2.85875 0.000513207
0.236 0.000118769 0.985881 0.000310001 2.92179 0.000524523
0.0433099 2.17961e-05 0.7904 0.000248534 2.96615 0.000532487
-0.144012 -7.24754e-05 0.59169 0.000186052 2.98374 0.000535644
-0.32785 -0.000164993 0.391327 0.000123049 2.96855 0.000532917
-0.502354 -0.000252814 0.189691 5.96467e-05 2.91436 0.000523189
-0.66402 -0.000334174 -0.0121102 -3.80796e-06 2.81374 0.000505127
-0.811662 -0.000408476 -0.206915 -6.50625e-05 2.66515 0.00047845
-0.944663 -0.00047541 -0.394362 -0.000124004 2.46385 0.000442313
-1.05978 -0.000533344 -0.571641 -0.000179747 2.20831 0.000396438
-1.15583 -0.000581681 -0.736125 -0.000231468 1.89745 0.000340633
-1.23308 -0.000620557 -0.886738 -0.000278827 1.5326 0.000275135
-1.29162 -0.000650017 -1.02297 -0.000321665 1.11564 0.000200282
-1.33147 -0.000670073 -1.14436 -0.000359834 0.649746 0.000116643
-1.3537 -0.000681259 -1.2505 -0.00039321 0.13974 2.50863e-05
-1.36005 -0.000684457 -1.34177 -0.000421906 -0.416647 -7.4797e-05
-1.35256 -0.000680687 -1.41827 -0.000445961 -1.0051 -0.000180438
-1.33348 -0.000671086 -1.48105 -0.000465702 -1.61675 -0.000290242
-1.30568 -0.000657094 -1.53108 -0.000481436 -2.24034 -0.000402189
-1.27234 -0.000640315 -1.56985 -0.000493625 -2.86569 -0.000514452
-1.23671 -0.000622384 -1.59899 -0.000502789 -3.48316 -0.000625302
-1.20199 -0.00060491 -1.62041 -0.000509523 -4.08288 -0.000732963
-1.17136 -0.000589495 -1.63614 -0.000514469 -4.6541 -0.000835511
-1.14755 -0.000577514 -1.64834 -0.000518307 -5.18581 -0.000930964
-1.13359 -0.000570487 -1.6592 -0.00052172 -5.66774 -0.00101748
-1.13168 -0.000569529 -1.67095 -0.000525415 -6.08001 -0.00109149
-1.1454 -0.000576432 -1.67517 -0.000526743 -6.03631 -0.00108365
-1.17762 -0.000592649 -1.66464 -0.000523431 -6.02916 -0.00108236
-1.22143 -0.000614694 -1.68142 -0.000528706 -6.05686 -0.00108733
-1.28485 -0.000646611 -1.70034 -0.000534658 -6.08712 -0.00109277
-1.36359 -0.00068624 -1.7413 -0.000547535 -6.08277 -0.00109199
-1.45846 -0.000733982 -1.7984 -0.000565491 -6.02574 -0.00108175
-1.5708 -0.00079052 -1.86107 -0.000585195 -5.90544 -0.00106015
-1.69892 -0.000854994 -1.93084 -0.000607134 -5.74068 -0.00103057
-1.84186 -0.00092693 -2.00833 -0.000631502 -5.52951 -0.000992664
-1.99846 -0.00100574 -2.09462 -0.000658634 -5.24688 -0.000941926
-2.16676 -0.00109044 -2.18802 -0.000688002 -4.88828 -0.00087755
-2.34448 -0.00117988 -2.28499 -0.000718495 -4.47671 -0.000803665
-2.52893 -0.00127271 -2.38333 -0.000749418 -4.04131 -0.000725501
-2.71733 -0.00136752 -2.48181 -0.000780384 -3.59624 -0.000645601
-2.90659 -0.00146277 -2.57919 -0.000811003 -3.14015 -0.000563723
-3.09343 -0.00155679 -2.67343 -0.000840635 -2.67252 -0.000479774
-3.27454 -0.00164794 -2.76224 -0.000868561 -2.20514 -0.00039587
-3.44668 -0.00173457 -2.84374 -0.000894189 -1.75793 -0.000315585
-3.60673 -0.00181512 -2.91652 -0.000917075 -1.34682 -0.000241783
-3.74851 -0.00188647 -2.97939 -0.000936842 -0.97814 -0.000175597
-3.74334 -0.00188387 -3.00733 -0.000945629 -0.667369 -0.000119807
-3.77733 -0.00190097 -2.97703 -0.0009361 -0.442369 -7.94147e-05
-3.7955 -0.00191012 -3.01428 -0.000947815 -0.215935 -3.87649e-05
-3.79254 -0.00190863 -3.00606 -0.000945229 -0.06102 -1.09544e-05
-3.79057 -0.00190764 -2.9817 -0.000937568 0.00996949 1.78974e-06
-3.79805 -0.0019114 -2.97469 -0.000935365 0.05187 9.31176e-06
-3.77797 -0.00190129 -2.97637 -0.000935893 0.0487801 8.75706e-06
-3.74955 -0.00188699 -2.95575 -0.000929408 -0.0131261 -2.35642e-06
-3.70057 -0.00186234 -2.92694 -0.00092035 -0.134779 -2.41958e-05
-3.63727 -0.00183049 -2.89351 -0.000909839 -0.304984 -5.47511e-05
-3.55598 -0.00178958 -2.85212 -0.000896824 -0.528583 -9.48919e-05
-3.45974 -0.00174115 -2.80505 -0.000882024 -0.791969 -0.000142175
-3.35397 -0.00168791 -2.75235 -0.000865452 -1.09044 -0.000195758
-3.24015 -0.00163063 -2.69635 -0.000847843 -1.41717 -0.000254412
-3.12004 -0.00157019 -2.63891 -0.000829781 -1.76638 -0.000317102
-2.99739 -0.00150846 -2.58191 -0.000811857 -2.12928 -0.000382252
-2.87586 -0.0014473 -2.52651 -0.000794439 -2.49622 -0.000448125
-2.75804 -0.00138801 -2.47379 -0.000777861 -2.85862 -0.000513182
-2.64656 -0.0013319 -2.42555 -0.000762694 -3.20895 -0.000576074
-2.54446 -0.00128052 -2.38372 -0.000749538 -3.54011 -0.000635525
-2.45435 -0.00123517 -2.34949 -0.000738775 -3.84501 -0.000690261
-2.37825 -0.00119688 -2.32358 -0.00073063 -4.11693 -0.000739077
-2.31797 -0.00116654 -2.30684 -0.000725364 -4.35012 -0.000780939
-2.27506 -0.00114494 -2.30018 -0.000723271 -4.54022 -0.000815066
-2.25057 -0.00113262 -2.30419 -0.000724531 -4.68417 -0.000840908
-2.24442 -0.00112953 -2.31904 -0.000729202 -4.77995 -0.000858102
-2.25095 -0.00113281 -2.34609 -0.000737708 -4.82585 -0.000866343
-2.27057 -0.00114268 -2.38459 -0.000749813 -4.82179 -0.000865614
-2.3026 -0.0011588 -2.4334 -0.000765162 -4.7701 -0.000856334
-2.34607 -0.00118068 -2.49184 -0.000783536 -4.67344 -0.000838981
-2.39968 -0.00120766 -2.55832 -0.000804442 -4.53631 -0.000814364
-2.46184 -0.00123894 -2.63101 -0.000827297 -4.36368 -0.000783374
-2.5307 -0.00127359 -2.7078 -0.000851445 -4.16154 -0.000747085
-2.60412 -0.00131055 -2.78668 -0.000876248 -3.93652 -0.00070669
-2.67977 -0.00134862 -2.86559 -0.000901059 -3.69576 -0.000663468
-2.75517 -0.00138656 -2.94234 -0.000925194 -3.44658 -0.000618735
-2.82781 -0.00142312 -3.01473 -0.000947956 -3.1963 -0.000573804
-2.89525 -0.00145706 -3.08066 -0.000968686 -2.95207 -0.00052996
-2.95515 -0.00148721 -3.13824 -0.00098679 -2.72071 -0.000488426
-3.00543 -0.00151251 -3.18576 -0.00100173 -2.50847 -0.000450324
-3.0443 -0.00153207 -3.22169 -0.00101303 -2.32086 -0.000416644
-3.07033 -0.00154517 -3.24472 -0.00102027 -2.16251 -0.000388216
-3.08253 -0.00155131 -3.25387 -0.00102315 -2.03706 -0.000365695
-3.08028 -0.00155018 -3.2485 -0.00102146 -1.94705 -0.000349536
-3.06334 -0.00154165 -3.22833 -0.00101512 -1.89385 -0.000339986
-3.03171 -0.00152573 -3.19344 -0.00100415 -1.87761 -0.00033707
-2.98563 -0.00150254 -3.14431 -0.000988701 -1.89725 -0.000340597
-2.92549 -0.00147228 -3.08182 -0.000969051 -1.95056 -0.000350167
-2.85187 -0.00143523 -3.00718 -0.000945582 -2.03423 -0.000365187
-2.76564 -0.00139183 -2.92189 -0.000918761 -2.14401 -0.000384895
-2.66801 -0.0013427 -2.82761 -0.000889116 -2.27487 -0.000408388
-2.56047 -0.00128858 -2.72617 -0.00085722 -2.42116 -0.00043465
-2.44474 -0.00123034 -2.6195 -0.00082368 -2.57678 -0.000462587
-2.32271 -0.00116892 -2.50958 -0.000789113 -2.73536 -0.000491055
-2.19627 -0.00110529 -2.39833 -0.000754135 -2.89046 -0.000518898
-2.0673 -0.00104038 -2.28768 -0.00071934 -3.03573 -0.000544979
-1.93753 -0.000975079 -2.17939 -0.00068529 -3.16514 -0.00056821
-1.80861 -0.000910198 -2.07509 -0.000652492 -3.27311 -0.000587592
-1.68212 -0.000846542 -1.97613 -0.000621375 -3.35469 -0.000602239
-1.55972 -0.000784943 -1.88356 -0.000592269 -3.40575 -0.000611405
-1.44317 -0.00072629 -1.79809 -0.000565393 -3.42303 -0.000614507
-1.33427 -0.000671484 -1.72008 -0.000540862 -3.40424 -0.000611133
-1.23464 -0.000621342 -1.6496 -0.000518702 -3.34804 -0.000601045
-1.14554 -0.000576504 -1.58651 -0.000498864 -3.25405 -0.000584172
-1.06776 -0.00053736 -1.53046 -0.00048124 -3.1228 -0.000560608
-1.00152 -0.000504023 -1.48097 -0.000465679 -2.95566 -0.000530604
-0.946502 -0.000476335 -1.43745 -0.000451994 -2.75484 -0.000494553
-0.901953 -0.000453916 -1.3992 -0.000439965 -2.52329 -0.000452985
-0.86675 -0.000436199 -1.36541 -0.000429342 -2.26463 -0.00040655
-0.839458 -0.000422464 -1.33522 -0.000419848 -1.98307 -0.000356003
-0.818395 -0.000411864 -1.30769 -0.00041119 -1.68328 -0.000302185
-0.801711 -0.000403468 -1.28182 -0.000403057 -1.37033 -0.000246003
-0.787507 -0.00039632 -1.2566 -0.000395125 -1.04951 -0.00018841
-0.773877 -0.00038946 -1.23096 -0.000387064 -0.726283 -0.000130383
-0.758869 -0.000381907 -1.20389 -0.000378553 -0.406072 -7.28986e-05
-0.740443 -0.000372634 -1.17444 -0.000369292 -0.0941687 -1.69053e-05
-0.716401 -0.000360535 -1.14236 -0.000359205 0.16064 2.88382e-05
-0.684385 -0.000344422 -1.10943 -0.00034885 0.398937 7.16176e-05
-0.643428 -0.000323811 -1.06995 -0.000336436 0.616527 0.00011068
-0.591472 -0.000297663 -1.02575 -0.000322539 0.816416 0.000146564
-0.537236 -0.000270369 -0.972266 -0.00030572 0.988413 0.000177441
-0.498971 -0.000251111 -0.896276 -0.000281826 1.12525 0.000202007
-0.434916 -0.000218875 -0.831852 -0.000261568 1.24479 0.000223467
-0.367811 -0.000185104 -0.753087 -0.000236801 1.3383 0.000240253
-0.28532 -0.00014359 -0.668932 -0.00021034 1.40586 0.000252381
-0.191514 -9.63808e-05 -0.578144 -0.000181792 1.44881 0.000260092
-0.0898291 -4.52072e-05 -0.483551 -0.000152048 1.46631 0.000263233
0.00620837 3.12441e-06 -0.387808 -0.000121943 1.4628 0.000262604
0.114299 5.75221e-05 -0.293095 -9.21611e-05 1.44217 0.0002589
0.224655 0.00011306 -0.188419 -5.92465e-05 1.39717 0.000250822
0.335935 0.000169062 -0.0883216 -2.77719e-05 1.34122 0.000240777
0.448795 0.00022586 0.0123304 3.87717e-06 1.27016 0.000228021
0.563563 0.000283618 0.109472 3.44225e-05 1.19014 0.000213655
0.676863 0.000340637 0.206558 6.49502e-05 1.10707 0.000198743
0.786633 0.00039588 0.301011 9.46501e-05 1.02479 0.000183972
0.892927 0.000449373 0.391519 0.00012311 0.946909 0.00016999
0.99457 0.000500526 0.477426 0.000150122 0.87686 0.000157415
1.08963 0.000548363 0.558136 0.000175501 0.818752 0.000146983
1.17701 0.000592341 0.633164 0.000199093 0.775855 0.000139282
1.25632 0.000632252 0.701665 0.000220632 0.750745 0.000134775
1.32684 0.000667742 0.762788 0.000239852 0.745506 0.000133834
1.38788 0.000698464 0.816154 0.000256632 0.761763 0.000136753
1.43928 0.000724328 0.861822 0.000270992 0.800463 0.0001437
1.48115 0.0007454 0.899823 0.000282941 0.861834 0.000154718
1.51365 0.000761758 0.930066 0.000292451 0.94548 0.000169734
1.53713 0.000773575 0.952673 0.00029956 1.0504 0.000188569
1.55227 0.000781195 0.968139 0.000304423 1.17495 0.000210929
1.55999 0.000785079 0.977137 0.000307252 1.3169 0.000236412
1.56135 0.000785763 0.980346 0.000308261 1.46944 0.000263796
1.55769 0.000783923 0.977581 0.000307391 1.61175 0.000289343
1.55057 0.000780338 0.969109 0.000304727 1.76342 0.000316571
1.5409 0.000775469 0.958629 0.000301432 1.91777 0.00034428
1.53075 0.000770361 0.945654 0.000297352 2.07195 0.000371958
1.52128 0.000765596 0.932343 0.000293167 2.22097 0.000398712
1.51414 0.000762004 0.919175 0.000289026 2.36383 0.000424357
1.51078 0.000760312 0.90743 0.000285333 2.49858 0.000448549
1.51261 0.000761235 0.89841 0.000282497 2.62198 0.0004707
1.52093 0.000765419 0.893294 0.000280888 2.73005 0.000490102
1.5368 0.000773409 0.893125 0.000280835 2.81961 0.00050618
1.56108 0.000785627 0.898759 0.000282607 2.88915 0.000518664
1.59429 0.00080234 0.911036 0.000286467 2.93809 0.00052745
1.63665 0.00082366 0.930706 0.000292652 2.9658 0.000532424
1.68813 0.000849565 0.958338 0.000301341 2.97084 0.00053333
1.74844 0.00087992 0.994129 0.000312595 2.94977 0.000529547
1.81713 0.000914488 1.03798 0.000326382 2.90354 0.000521247
1.89346 0.0009529 1.08987 0.000342701 2.83444 0.000508843
1.97658 0.000994731 1.14943 0.000361427 2.74537 0.000492852
2.06545 0.00103946 1.21613 0.0003824 2.63911 0.000473776
2.15894 0.0010865 1.28916 0.000405366 2.5191 0.000452232
2.25581 0.00113526 1.36752 0.000430005 2.38965 0.000428993
2.35478 0.00118506 1.45005 0.000455956 2.25576 0.000404957
2.45424 0.00123512 1.53559 0.000482852 2.12257 0.000381047
2.55138 0.001284 1.6235 0.000510493 1.99464 0.00035808
2.64593 0.00133159 1.71152 0.000538173 1.87711 0.000336981
2.73665 0.00137724 1.79838 0.000565484 1.77482 0.000318618
2.82269 0.00142054 1.88272 0.000592005 1.69225 0.000303795
2.90301 0.00146097 1.96323 0.00061732 1.63373 0.000293288
2.97657 0.00149799 2.0387 0.000641051 1.60266 0.000287712
3.0425 0.00153116 2.10813 0.000662882 1.60179 0.000287555
3.10062 0.00156041 2.17042 0.000682468 1.63313 0.000293182
3.14196 0.00158122 2.22722 0.000700328 1.69733 0.000304707
3.17347 0.00159708 2.27811 0.000716332 1.79279 0.000321843
3.19367 0.00160724 2.31974 0.000729421 1.9239 0.000345381
3.20184 0.00161135 2.35495 0.000740492 2.08553 0.000374396
3.19843 0.00160964 2.38218 0.000749056 2.27801 0.00040895
3.18393 0.00160234 2.40206 0.000755307 2.49715 0.000448292
3.15887 0.00158973 2.41444 0.000759199 2.74045 0.000491969
3.12414 0.00157225 2.42025 0.000761025 2.99676 0.000537982
3.08129 0.00155069 2.41807 0.000760341 3.22882 0.000579641
3.03194 0.00152585 2.40924 0.000757563 3.47537 0.000623903
2.97684 0.00149812 2.39739 0.000753839 3.72764 0.000669191
2.91831 0.00146866 2.38159 0.000748869 3.97747 0.00071404
2.85728 0.00143795 2.36431 0.000743437 4.21881 0.000757366
2.79576 0.00140699 2.3454 0.000737489 4.45096 0.000799043
2.73523 0.00137653 2.32605 0.000731405 4.67146 0.000838627
2.67723 0.00134734 2.30719 0.000725474 4.87572 0.000875295
2.62315 0.00132012 2.28978 0.000720001 5.05772 0.000907969
2.57374 0.00129525 2.27456 0.000715214 5.2129 0.000935827
2.52641 0.00127144 2.26277 0.000711507 5.33893 0.000958452
2.48165 0.00124891 2.25475 0.000708985 5.43477 0.000975657
2.43932 0.00122761 2.25045 0.000707634 5.49975 0.000987322
2.39913 0.00120738 2.25008 0.000707519 5.53202 0.000993116
2.3608 0.00118809 2.25318 0.000708491 5.52871 0.000992522
2.32424 0.00116969 2.2586 0.000710197 5.48677 0.000984991
2.28936 0.00115214 2.26513 0.000712251 5.40861 0.000970961
2.25589 0.0011353 2.27164 0.000714297 5.29767 0.000951044
2.22335 0.00111892 2.27682 0.000715925 5.1566 0.00092572
2.19093 0.00110261 2.27935 0.000716721 4.98802 0.000895456
2.15768 0.00108587 2.27771 0.000716206 4.79559 0.000860911
2.12256 0.0010682 2.27041 0.000713909 4.58404 0.000822933
2.08456 0.00104907 2.25602 0.000709386 4.35836 0.000782418
2.04264 0.00102798 2.23329 0.000702237 4.12297 0.00074016
1.99566 0.00100433 2.20108 0.00069211 3.88162 0.000696834
1.94243 0.000977545 2.15843 0.0006787 3.63786 0.000653074
1.8819 0.000947081 2.10455 0.000661757 3.39527 0.000609523
1.81332 0.000912568 2.03885 0.000641098 3.15725 0.000566793
1.7363 0.000873808 1.96095 0.000616603 2.92656 0.000525379
1.65076 0.000830759 1.8707 0.000588224 2.70509 0.000485621
1.55685 0.000783498 1.76819 0.000555991 2.49398 0.000447723
1.45486 0.00073217 1.6538 0.000520021 2.29386 0.000411798
1.34517 0.000676967 1.52818 0.000480524 2.10488 0.00037787
1.22819 0.000618097 1.3923 0.000437796 1.92655 0.000345856
1.10438 0.000555789 1.24734 0.000392213 1.7577 0.000315544
0.974302 0.000490326 1.09469 0.000344214 1.59655 0.000286615
0.838653 0.000422059 0.935889 0.000294282 1.44094 0.00025868
0.698317 0.000351434 0.772574 0.000242929 1.28852 0.000231317
0.554403 0.000279008 0.606395 0.000190675 1.13681 0.000204082
0.40822 0.00020544 0.438988 0.000138036 0.983264 0.000176517
0.261188 0.000131445 0.271949 8.55119e-05 0.825308 0.00014816
0.114758 5.77531e-05 0.106812 3.35861e-05 0.660495 0.000118573
-0.0238529 -1.20042e-05 -0.0588046 -1.84906e-05 0.486048 8.7256e-05
-0.151632 -7.631e-05 -0.215701 -6.78253e-05 0.297201 5.33539e-05
-0.27746 -0.000139634 -0.369741 -0.000116262 0.0959931 1.72328e-05
-0.397546 -0.000200068 -0.518238 -0.000162955 -0.0968824 -1.73924e-05
-0.488678 -0.000245931 -0.661453 -0.000207988 -0.295778 -5.30985e-05
-0.576718 -0.000290239 -0.794518 -0.000249829 -0.499788 -8.97225e-05
-0.653735 -0.000328998 -0.91686 -0.000288298 -0.722727 -0.000129745
-0.721905 -0.000363305 -1.03241 -0.000324633 -0.94999 -0.000170543
-0.779159 -0.000392119 -1.13684 -0.000357469 -1.18728 -0.000213142
-0.826522 -0.000415954 -1.23005 -0.000386777 -1.43153 -0.00025699
-0.864709 -0.000435172 -1.31136 -0.000412344 -1.6845 -0.000302404
-0.893772 -0.000449798 -1.38164 -0.000434443 -1.94316 -0.000348839
-0.914284 -0.000460121 -1.4414 -0.000453234 -2.20313 -0.000395508
-0.927604 -0.000466825 -1.4906 -0.000468707 -2.46007 -0.000441635
-0.934994 -0.000470544 -1.52928 -0.000480869 -2.71132 -0.000486739
-0.937601 -0.000471856 -1.55799 -0.000489895 -2.95494 -0.000530474
-0.936832 -0.000471469 -1.57783 -0.000496135 -3.18783 -0.000572283
-0.934301 -0.000470195 -1.58986 -0.000499917 -3.40549 -0.000611358
-0.931526 -0.000468798 -1.5949 -0.000501501 -3.60326 -0.000646862
-0.929949 -0.000468005 -1.59384 -0.000501168 -3.7775 -0.000678141
-0.931057 -0.000468563 -1.58789 -0.000499297 -3.92552 -0.000704714
-0.936305 -0.000471204 -1.57838 -0.000496307 -4.04478 -0.000726125
-0.946988 -0.00047658 -1.56652 -0.000492578 -4.13243 -0.000741858
-0.964209 -0.000485246 -1.55342 -0.000488458 -4.18565 -0.000751413
-0.988884 -0.000497664 -1.54019 -0.0004843 -4.20243 -0.000754426
-1.02171 -0.000514182 -1.52789 -0.000480432 -4.17634 -0.000749743
-1.06314 -0.000535035 -1.51713 -0.000477049 -4.10693 -0.000737281
-1.11333 -0.000560292 -1.50895 -0.000474476 -3.99419 -0.000717041
-1.17225 -0.000589947 -1.50396 -0.000472908 -3.83924 -0.000689225
-1.23969 -0.000623887 -1.50281 -0.000472545 -3.64329 -0.000654049
-1.31522 -0.000661897 -1.50589 -0.000473513 -3.40893 -0.000611976
-1.39826 -0.000703685 -1.51335 -0.000475858 -3.14017 -0.000563727
-1.48807 -0.000748886 -1.52515 -0.000479568 -2.8419 -0.000510181
-1.58381 -0.000797065 -1.54109 -0.00048458 -2.51936 -0.000452278
-1.68444 -0.000847707 -1.56086 -0.000490798 -2.178 -0.000390997
-1.7888 -0.00090023 -1.58403 -0.000498083 -1.82372 -0.000327397
-1.89561 -0.000953982 -1.61005 -0.000506266 -1.46305 -0.000262649
-2.00346 -0.00100826 -1.63832 -0.000515155 -1.10288 -0.000197991
-2.11088 -0.00106232 -1.66821 -0.000524552 -0.750097 -0.000134658
-2.21636 -0.0011154 -1.69908 -0.000534262 -0.411272 -7.38321e-05
-2.31844 -0.00116678 -1.73035 -0.000544093 -0.0926662 -1.66355e-05
-2.41562 -0.00121568 -1.76224 -0.000554122 0.162327 2.91411e-05
-2.50637 -0.00126135 -1.79546 -0.000564567 0.393273 7.06008e-05
-2.59036 -0.00130362 -1.82602 -0.000574175 0.590893 0.000106078
-2.66597 -0.00134167 -1.8555 -0.000583446 0.753926 0.000135346
-2.73289 -0.00137535 -1.88207 -0.0005918 0.875587 0.000157186
-2.79041 -0.0014043 -1.90648 -0.000599474 0.955734 0.000171575
-2.83828 -0.00142839 -1.92886 -0.000606511 0.994868 0.0001786
-2.87648 -0.00144761 -1.94924 -0.000612921 0.990942 0.000177895
-2.90511 -0.00146202 -1.96801 -0.000618822 0.939468 0.000168654
-2.92457 -0.00147182 -1.98552 -0.00062433 0.83987 0.000150775
-2.93546 -0.00147729 -2.00236 -0.000629625 0.694143 0.000124613
-2.93849 -0.00147882 -2.01925 -0.000634936 0.505542 9.07556e-05
-2.93463 -0.00147688 -2.03677 -0.000640445 0.277764 4.98646e-05
-2.92485 -0.00147196 -2.05563 -0.000646374 0.0154283 2.76971e-06
-2.9105 -0.00146474 -2.07587 -0.00065274 -0.262547 -4.71328e-05
-2.89299 -0.00145592 -2.09782 -0.000659642 -0.569091 -0.000102164
-2.87359 -0.00144616 -2.12418 -0.00066793 -0.895319 -0.000160729
-2.85428 -0.00143644 -2.1545 -0.000677464 -1.23528 -0.00022176
-2.83622 -0.00142735 -2.19032 -0.000688728 -1.58301 -0.000284185
-2.80822 -0.00141326 -2.23332 -0.000702248 -1.93557 -0.000347476
-2.77793 -0.00139802 -2.28684 -0.000719076 -2.28605 -0.000410395
-2.75793 -0.00138795 -2.34207 -0.000736441 -2.63572 -0.000473167
-2.74359 -0.00138073 -2.4058 -0.000756484 -2.97593 -0.000534242
-2.73695 -0.0013774 -2.47544 -0.000778381 -3.30302 -0.000592963
-2.73907 -0.00137846 -2.55109 -0.000802167 -3.61361 -0.00064872
-2.75029 -0.00138411 -2.63213 -0.000827649 -3.90521 -0.000701068
-2.77045 -0.00139425 -2.71816 -0.000854701 -4.17656 -0.000749781
-2.79948 -0.00140886 -2.80924 -0.00088334 -4.42507 -0.000794393
-2.83597 -0.00142722 -2.90468 -0.000913351 -4.64868 -0.000834537
-2.8787 -0.00144873 -3.00375 -0.000944501 -4.84615 -0.000869986
-2.93166 -0.00147538 -3.10259 -0.000975582 -5.01879 -0.000900979
-2.98658 -0.00150302 -3.20385 -0.00100742 -5.16652 -0.000927501
-3.04777 -0.00153382 -3.30588 -0.0010395 -5.28823 -0.000949351
-3.11136 -0.00156582 -3.40819 -0.00107167 -5.38618 -0.000966933
-3.17634 -0.00159852 -3.50914 -0.00110342 -5.46041 -0.000980259
-3.24119 -0.00163116 -3.60758 -0.00113437 -5.514 -0.00098988
-3.30493 -0.00166323 -3.70288 -0.00116434 -5.54832 -0.000996041
-3.36602 -0.00169398 -3.79357 -0.00119285 -5.5661 -0.000999233
-3.42288 -0.00172259 -3.87814 -0.00121945 -5.56949 -0.000999842
-3.4745 -0.00174857 -3.95522 -0.00124368 -5.56058 -0.000998242
-3.52009 -0.00177152 -4.02368 -0.00126521 -5.54211 -0.000994927
-3.55874 -0.00179096 -4.08236 -0.00128366 -5.51687 -0.000990396
-3.58966 -0.00180653 -4.13007 -0.00129866 -5.48736 -0.000985099
-3.61236 -0.00181795 -4.16581 -0.0013099 -5.45566 -0.000979407
-3.6265 -0.00182507 -4.18883 -0.00131714 -5.42356 -0.000973645
-3.63178 -0.00182772 -4.19856 -0.0013202 -5.39252 -0.000968071
-3.62757 -0.00182561 -4.19451 -0.00131893 -5.36358 -0.000962876
-3.61437 -0.00181897 -4.17638 -0.00131322 -5.33728 -0.000958156
-3.59252 -0.00180797 -4.14448 -0.0013032 -5.31324 -0.000953839
-3.56243 -0.00179283 -4.09909 -0.00128892 -5.29083 -0.000949817
-3.5247 -0.00177384 -4.04097 -0.00127065 -5.26874 -0.00094585
-3.47981 -0.00175124 -3.97116 -0.00124869 -5.24522 -0.000941628
-3.42804 -0.00172519 -3.8909 -0.00122346 -5.21813 -0.000936766
-3.36969 -0.00169582 -3.80161 -0.00119538 -5.18503 -0.000930823
-3.30526 -0.0016634 -3.70482 -0.00116495 -5.14328 -0.000923328
-3.23541 -0.00162825 -3.6021 -0.00113265 -5.09022 -0.000913803
-3.16099 -0.00159079 -3.49498 -0.00109896 -5.0233 -0.000901789
-3.08301 -0.00155155 -3.38491 -0.00106435 -4.94014 -0.00088686
-3.00258 -0.00151107 -3.27328 -0.00102925 -4.83863 -0.000868637
-2.92071 -0.00146987 -3.16135 -0.000994057 -4.71701 -0.000846804
-2.83834 -0.00142842 -3.05026 -0.000959128 -4.57393 -0.000821118
-2.75622 -0.00138709 -2.94104 -0.000924782 -4.40855 -0.000791428
-2.67495 -0.00134619 -2.83451 -0.000891285 -4.22054 -0.000757677
-2.5949 -0.0013059 -2.73135 -0.000858847 -4.01015 -0.000719907
-2.51625 -0.00126632 -2.63205 -0.000827624 -3.77819 -0.000678266
-2.43899 -0.00122744 -2.5369 -0.000797707 -3.52607 -0.000633005
-2.36294 -0.00118917 -2.44601 -0.000769127 -3.25575 -0.000584476
-2.28771 -0.00115131 -2.35929 -0.000741857 -2.96971 -0.000533127
-2.2128 -0.00111361 -2.27645 -0.000715811 -2.67094 -0.00047949
-2.13757 -0.00107575 -2.19707 -0.00069085 -2.36279 -0.000424172
-2.06129 -0.00103736 -2.12056 -0.00066679 -2.04899 -0.000367837
-1.98323 -0.000998079 -2.04618 -0.000643402 -1.73346 -0.000311193
-1.90265 -0.000957527 -1.9731 -0.000620425 -1.4203 -0.000254974
-1.81891 -0.000915382 -1.90043 -0.000597574 -1.11363 -0.000199919
-1.70898 -0.000860057 -1.8087 -0.000568731 -0.74552 -0.000133837
-1.59247 -0.000801424 -1.71428 -0.00053904 -0.401228 -7.20289e-05
-1.46873 -0.000739151 -1.61551 -0.000507982 -0.0872895 -1.56703e-05
-1.33684 -0.000672776 -1.5121 -0.000475468 0.154228 2.76872e-05
-1.19575 -0.000601772 -1.40384 -0.000441425 0.356814 6.40558e-05
-1.04481 -0.000525808 -1.28811 -0.000405033 0.525943 9.4418e-05
-0.883076 -0.000444416 -1.16491 -0.000366295 0.658741 0.000118258
-0.710559 -0.000357595 -1.03451 -0.000325293 0.753682 0.000135302
-0.527803 -0.000265621 -0.898191 -0.000282428 0.817494 0.000146758
-0.335801 -0.000168995 -0.756856 -0.000237986 0.854132 0.000153335
-0.170266 -8.56877e-05 -0.600876 -0.00018894 0.861782 0.000154708
-0.00785457 -3.95288e-06 -0.445305 -0.000140022 0.842205 0.000151194
0.148746 7.48578e-05 -0.301146 -9.46927e-05 0.817693 0.000146793
0.305074 0.000153531 -0.149524 -4.70166e-05 0.779563 0.000139948
0.456788 0.000229882 -0.0117602 -3.6979e-06 0.744247 0.000133608
0.603249 0.00030359 0.115694 3.63789e-05 0.710697 0.000127585
0.745738 0.000375299 0.237953 7.48222e-05 0.689431 0.000123768
0.878333 0.000442028 0.351458 0.000110513 0.68486 0.000122947
1.00015 0.000503332 0.453788 0.00014269 0.701667 0.000125964
1.11142 0.000559331 0.545942 0.000171667 0.742563 0.000133306
1.20978 0.000608834 0.628126 0.000197508 0.810102 0.000145431
1.29505 0.000651743 0.699963 0.000220097 0.900868 0.000161725
1.368 0.000688459 0.760462 0.00023912 1.00232 0.000179938
1.42868 0.000718993 0.811504 0.00025517 1.1266 0.000202248
1.47832 0.000743976 0.854227 0.000268604 1.26983 0.000227961
1.51865 0.000764275 0.88972 0.000279765 1.42772 0.000256306
1.55132 0.000780716 0.918766 0.000288898 1.59821 0.000286912
1.57824 0.000794264 0.943213 0.000296585 1.77753 0.000319104
1.60155 0.000805996 0.964852 0.000303389 1.96012 0.000351883
1.62327 0.000816926 0.985186 0.000309783 2.14044 0.000384254
1.64546 0.000828092 1.00575 0.000316249 2.31432 0.00041547
1.67014 0.000840512 1.02824 0.000323319 2.47772 0.000444804
1.69916 0.000855117 1.0541 0.000331452 2.62631 0.000471479
1.7342 0.000872751 1.0845 0.000341012 2.75605 0.00049477
1.77669 0.000894133 1.12044 0.000352312 2.86419 0.000514183
1.82775 0.000919831 1.16269 0.000365598 2.94914 0.000529432
1.88816 0.000950234 1.21175 0.000381024 3.00985 0.000540331
1.95822 0.000985494 1.26783 0.000398659 3.04594 0.000546812
2.03767 0.00102547 1.33096 0.000418509 3.05815 0.000549004
2.12572 0.00106979 1.40085 0.000440483 3.04545 0.000546723
2.22119 0.00111783 1.47681 0.00046437 3.01033 0.000540419
2.32248 0.00116881 1.55821 0.000489964 2.95683 0.000530814
2.42778 0.0012218 1.6441 0.000516972 2.88947 0.000518722
2.53507 0.0012758 1.73336 0.000545039 2.81357 0.000505095
2.64228 0.00132975 1.82459 0.000573726 2.73527 0.000491039
2.74744 0.00138267 1.91626 0.000602551 2.66102 0.000477709
2.84872 0.00143364 2.00678 0.000631014 2.59685 0.000466189
2.94452 0.00148186 2.09454 0.00065861 2.54843 0.000457497
3.03339 0.00152658 2.17803 0.00068486 2.521 0.000452572
3.11405 0.00156717 2.2559 0.000709347 2.51908 0.000452228
3.18543 0.0016031 2.3271 0.000731735 2.54603 0.000457066
3.24667 0.00163391 2.39088 0.000751792 2.6039 0.000467455
3.29712 0.0016593 2.44683 0.000769385 2.69348 0.000483538
3.33647 0.00167911 2.49485 0.000784483 2.8144 0.000505244
3.36477 0.00169335 2.53513 0.00079715 2.96493 0.000532267
3.38242 0.00170223 2.56804 0.000807495 3.12403 0.000560829
3.39041 0.00170625 2.59208 0.000815057 3.29968 0.000592363
3.38917 0.00170563 2.61125 0.000821085 3.48604 0.000625818
3.38 0.00170101 2.62527 0.000825492 3.68338 0.000661245
3.3637 0.00169281 2.63572 0.000828777 3.88437 0.000697328
3.34208 0.00168193 2.64337 0.000831183 4.08762 0.000733814
3.31384 0.00166772 2.64923 0.000833026 4.28847 0.000769871
3.27552 0.00164843 2.65765 0.000835674 4.47807 0.000803909
3.24296 0.00163205 2.66304 0.000837369 4.6545 0.000835581
3.21286 0.0016169 2.66969 0.00083946 4.81258 0.000863961
3.18061 0.00160067 2.67778 0.000842005 4.95039 0.000888701
3.14343 0.00158196 2.68863 0.000845415 5.0623 0.00090879
3.10185 0.00156103 2.70105 0.00084932 5.14731 0.000924052
3.05606 0.00153799 2.71513 0.000853747 5.2044 0.0009343
3.0063 0.00151294 2.72934 0.000858217 5.23403 0.000939619
2.95238 0.00148581 2.74154 0.000862054 5.23618 0.000940006
2.89444 0.00145665 2.74969 0.000864617 5.20952 0.000935219
2.83258 0.00142552 2.75183 0.000865289 5.15652 0.000925705
2.7668 0.00139242 2.74564 0.000863341 5.08065 0.000912085
2.69697 0.00135727 2.72899 0.000858107 4.98477 0.000894872
2.62261 0.00131985 2.70024 0.000849065 4.87203 0.000874633
2.54281 0.00127969 2.6581 0.000835816 4.74556 0.000851928
2.4562 0.0012361 2.60169 0.000818078 4.6079 0.000827216
2.36124 0.00118831 2.53058 0.000795717 4.46079 0.000800807
2.25662 0.00113567 2.44476 0.000768734 4.30538 0.000772907
2.14163 0.00107779 2.34451 0.00073721 4.14244 0.000743656
2.0162 0.00101467 2.23026 0.000701284 3.97229 0.000713111
1.88069 0.000946475 2.10273 0.000661184 3.79463 0.000681217
1.73562 0.000873464 1.96296 0.000617234 3.60859 0.000647819
1.58157 0.000795937 1.8122 0.000569831 3.41295 0.000612698
1.41929 0.000714267 1.65188 0.000519419 3.2063 0.0005756
1.24958 0.000628862 1.48355 0.000466488 2.98706 0.000536241
1.07318 0.000540088 1.30886 0.00041156 2.75359 0.000494329
0.890604 0.000448204 1.1295 0.000355162 2.50439 0.000449591
0.702233 0.000353405 0.947071 0.000297798 2.23829 0.000401821
0.508701 0.000256008 0.762942 0.0002399 1.95463 0.000350898
0.311177 0.000156602 0.578164 0.000181798 1.65335 0.000296812
0.111205 5.59646e-05 0.393479 0.000123726 1.33503 0.000239667
-0.0409478 -2.06073e-05 0.201175 6.32575e-05 1.00336 0.000180125
-0.173911 -8.75221e-05 0.0104469 3.28494e-06 0.657949 0.000118116
-0.301753 -0.00015186 -0.183747 -5.77776e-05 0.29641 5.32119e-05
-0.422987 -0.000212872 -0.371759 -0.000116896 -0.0637183 -1.14388e-05
-0.538481 -0.000270995 -0.553104 -0.000173918 -0.403301 -7.24012e-05
-0.646738 -0.000325476 -0.726383 -0.000228404 -0.750431 -0.000134718
-0.745327 -0.000375092 -0.88998 -0.000279846 -1.10496 -0.000198364
-0.835028 -0.000420235 -1.04711 -0.000329254 -1.45486 -0.000261178
-0.915576 -0.000460772 -1.19451 -0.000375604 -1.80257 -0.000323599
-0.986394 -0.000496411 -1.3307 -0.000418428 -2.14903 -0.000385796
-1.04837 -0.000527601 -1.45612 -0.000457864 -2.48876 -0.000446785
-1.10209 -0.000554638 -1.57099 -0.000493985 -2.81369 -0.000505117
-1.1481 -0.000577793 -1.67424 -0.000526449 -3.12004 -0.000560113
-1.18741 -0.000597573 -1.76533 -0.000555093 -3.4069 -0.000611611
-1.22095 -0.000614455 -1.8446 -0.000580018 -3.67076 -0.00065898
-1.24977 -0.000628958 -1.91219 -0.000601271 -3.90587 -0.000701187
-1.27514 -0.000641724 -1.96798 -0.000618814 -4.10759 -0.0007374
-1.29829 -0.000653378 -2.01211 -0.00063269 -4.2741 -0.000767292
-1.32034 -0.000664473 -2.04509 -0.00064306 -4.4035 -0.000790522
-1.34221 -0.00067548 -2.0675 -0.000650107 -4.49276 -0.000806545
-1.36458 -0.000686737 -2.07993 -0.000654014 -4.53914 -0.000814872
-1.38795 -0.000698496 -2.0831 -0.000655011 -4.54035 -0.000815089
-1.41286 -0.000711035 -2.07745 -0.000653237 -4.49166 -0.000806349
-1.43985 -0.000724618 -2.06363 -0.000648888 -4.39337 -0.000788703
-1.46936 -0.000739469 -2.04231 -0.000642185 -4.24654 -0.000762345
-1.50162 -0.000755702 -2.01434 -0.000633391 -4.05284 -0.000727572
-1.53649 -0.000773251 -1.98048 -0.000622746 -3.81573 -0.000685004
-1.57352 -0.000791885 -1.94149 -0.000610484 -3.53988 -0.000635483
-1.61203 -0.000811269 -1.89812 -0.000596846 -3.23024 -0.000579897
-1.65122 -0.000830989 -1.85112 -0.000582069 -2.89211 -0.000519196
-1.69011 -0.000850565 -1.80116 -0.000566358 -2.53167 -0.000454489
-1.72761 -0.000869436 -1.74879 -0.000549892 -2.15593 -0.000387035
-1.76248 -0.000886986 -1.69453 -0.000532829 -1.77213 -0.000318134
-1.79346 -0.000902572 -1.63879 -0.000515304 -1.38744 -0.000249075
-1.81926 -0.000915558 -1.58192 -0.000497421 -1.00908 -0.00018115
-1.83842 -0.0009252 -1.52423 -0.00047928 -0.64428 -0.000115662
-1.84531 -0.000928667 -1.46742 -0.000461417 -0.299241 -5.37202e-05
-1.83904 -0.000925512 -1.41002 -0.000443367 0.0070397 1.26378e-06
-1.8195 -0.000915679 -1.35439 -0.000425875 0.255818 4.59247e-05
-1.78802 -0.000899834 -1.29695 -0.000407816 0.469885 8.43543e-05
-1.74544 -0.000878407 -1.23776 -0.000389202 0.650664 0.000116808
-1.69342 -0.000852228 -1.17505 -0.000369484 0.788451 0.000141544
-1.63275 -0.000821693 -1.11002 -0.000349034 0.886359 0.00015912
-1.56441 -0.000787303 -1.043 -0.000327961 0.94603 0.000169832
-1.48923 -0.000749468 -0.974457 -0.000306409 0.968589 0.000173882
-1.40788 -0.000708525 -0.905326 -0.000284672 0.949924 0.000170532
-1.32114 -0.000664873 -0.837426 -0.000263321 0.893012 0.000160315
-1.23024 -0.000619129 -0.772093 -0.000242778 0.80432 0.000144393
-1.13674 -0.000572077 -0.710504 -0.000223412 0.689419 0.000123765
-1.04256 -0.000524676 -0.65386 -0.0002056 0.55268 9.92179e-05
-0.949616 -0.000477902 -0.603488 -0.000189761 0.399964 7.18021e-05
-0.859646 -0.000432624 -0.560518 -0.00017625 0.238538 4.28227e-05
-0.774148 -0.000389597 -0.525827 -0.000165341 0.0749384 1.3453e-05
-0.694345 -0.000349435 -0.500019 -0.000157226 -0.0793261 -1.42407e-05
-0.621015 -0.000312531 -0.483267 -0.000151959 -0.226735 -4.07037e-05
-0.554127 -0.000278869 -0.476614 -0.000149867 -0.363102 -6.51845e-05
-0.493254 -0.000248235 -0.479727 -0.000150846 -0.482682 -8.66517e-05
-0.437289 -0.000220069 -0.492255 -0.000154785 -0.584875 -0.000104998
-0.384842 -0.000193675 -0.513273 -0.000161394 -0.669519 -0.000120193
-0.334269 -0.000168224 -0.54148 -0.000170263 -0.736489 -0.000132215
-0.283766 -0.000142808 -0.575142 -0.000180848 -0.785267 -0.000140972
-0.231414 -0.000116461 -0.612074 -0.000192461 -0.817542 -0.000146766
-0.175144 -8.81426e-05 -0.64973 -0.000204302 -0.836472 -0.000150165
-0.121109 -6.0949e-05 -0.683738 -0.000214995 -0.84547 -0.00015178
-0.0976163 -4.91262e-05 -0.70036 -0.000220222 -0.854054 -0.000153321
-0.0606135 -3.05042e-05 -0.719067 -0.000226104 -0.850333 -0.000152653
-0.0194805 -9.80373e-06 -0.725151 -0.000228017 -0.845655 -0.000151813
0.0316333 1.59198e-05 -0.722259 -0.000227108 -0.83619 -0.000150114
0.0906124 4.56015e-05 -0.707991 -0.000222622 -0.82728 -0.000148514
0.159324 8.0181e-05 -0.681596 -0.000214322 -0.817153 -0.000146696
0.238463 0.000120009 -0.64031 -0.00020134 -0.806748 -0.000144828
0.326969 0.00016455 -0.584411 -0.000183763 -0.795803 -0.000142864
0.425208 0.00021399 -0.514298 -0.000161716 -0.782936 -0.000140554
0.532973 0.000268223 -0.429799 -0.000135146 -0.765602 -0.000137442
0.649156 0.000326693 -0.331185 -0.000104138 -0.740677 -0.000132967
0.772768 0.000388902 -0.219397 -6.89873e-05 -0.705343 -0.000126624
0.902298 0.000454089 -0.0966597 -3.03938e-05 -0.656315 -0.000117823
1.03584 0.000521297 0.0323869 1.01838e-05 -0.590342 -0.000105979
1.17217 0.000589903 0.170757 5.36931e-05 -0.501436 -9.00184e-05
1.30929 0.000658909 0.316493 9.95184e-05 -0.387106 -6.94938e-05
1.44556 0.00072749 0.467184 0.000146902 -0.243649 -4.37402e-05
1.57941 0.000794854 0.621466 0.000195415 -0.0683682 -1.22735e-05
1.70929 0.000860216 0.777803 0.000244573 0.12119 2.17561e-05
1.83392 0.000922937 0.932501 0.000293216 0.337521 6.05921e-05
1.95147 0.000982095 1.08665 0.000341689 0.58547 0.000105104
2.06124 0.00103734 1.2382 0.000389341 0.864347 0.000155169
2.16205 0.00108807 1.38661 0.000436008 1.17149 0.000210307
2.25327 0.00113398 1.53046 0.000481239 1.50745 0.000270619
2.33442 0.00117482 1.6692 0.000524863 1.86934 0.000335587
2.40538 0.00121053 1.80251 0.000566783 2.25211 0.000404302
2.46646 0.00124127 1.92997 0.000606861 2.64993 0.000475719
2.51834 0.00126738 2.05111 0.000644954 3.05836 0.000549041
2.56198 0.00128934 2.16575 0.000681001 3.47236 0.000623362
2.59854 0.00130774 2.27383 0.000714985 3.88543 0.000697518
2.62923 0.00132318 2.37528 0.000746885 4.2905 0.000770235
2.65525 0.00133628 2.4701 0.0007767 4.68121 0.000840377
2.67771 0.00134758 2.55837 0.000804457 5.05178 0.000906901
2.69766 0.00135762 2.6402 0.000830187 5.39625 0.000968741
2.7161 0.0013669 2.71561 0.000853899 5.70873 0.00102484
2.73401 0.00137591 2.78456 0.000875579 5.98419 0.00107429
2.75296 0.00138545 2.84234 0.000893749 6.06258 0.00108836
2.77485 0.00139647 2.87786 0.000904917 6.09913 0.00109492
2.79591 0.00140706 2.91884 0.000917803 6.12573 0.0010997
2.82039 0.00141938 2.95449 0.000929013 6.11927 0.00109854
2.84579 0.00143217 2.98765 0.000939439 6.09954 0.001095
2.87325 0.00144599 3.01202 0.000947104 6.1021 0.00109546
2.90203 0.00146047 3.03068 0.000952969 6.08182 0.00109182
2.93181 0.00147546 3.04124 0.00095629 6.00498 0.00107802
2.96116 0.00149023 3.04325 0.000956922 5.87428 0.00105456
2.989 0.00150424 3.03575 0.000954565 5.70895 0.00102488
3.01358 0.00151661 3.01982 0.000949555 5.51531 0.000990116
3.03149 0.00152563 2.99602 0.000942072 5.28604 0.000948957
3.04162 0.00153072 2.96332 0.000931789 5.02299 0.000901734
3.04259 0.00153121 2.92141 0.00091861 4.73843 0.000850649
3.03397 0.00152687 2.86986 0.000902401 4.44308 0.000797627
3.01549 0.00151757 2.80824 0.000883025 4.13859 0.000742965
2.98707 0.00150327 2.73599 0.000860307 3.8269 0.000687011
2.94883 0.00148402 2.65314 0.000834256 3.51486 0.000630992
2.90077 0.00145984 2.55989 0.000804935 3.21038 0.000576331
2.84284 0.00143068 2.45663 0.000772466 2.91666 0.000523603
2.77497 0.00139653 2.3442 0.000737111 2.63436 0.000472924
2.69695 0.00135726 2.22382 0.00069926 2.36535 0.00042463
2.60852 0.00131276 2.09692 0.000659357 2.11255 0.000379247
2.50934 0.00126285 1.96506 0.000617895 1.87698 0.000336958
2.39911 0.00120738 1.82998 0.000575419 1.65755 0.000297566
2.27793 0.00114639 1.69338 0.00053247 1.45307 0.000260857
2.14656 0.00108028 1.55672 0.000489498 1.26325 0.00022678
2.00644 0.00100976 1.42116 0.00044687 1.08762 0.000195252
1.85934 0.000935727 1.28767 0.000404896 0.924799 0.000166021
1.70714 0.000859135 1.15707 0.000363832 0.773073 0.000138783
1.55176 0.000780937 1.02999 0.000323872 0.63124 0.000113321
1.395 0.000702044 0.906888 0.000285163 0.498361 8.94664e-05
1.23853 0.0006233 0.788122 0.000247818 0.373232 6.7003e-05
1.08382 0.000545443 0.673982 0.000211927 0.254423 4.56743e-05
0.932064 0.000469069 0.56468 0.000177558 0.14073 2.5264e-05
0.784027 0.000394568 0.460393 0.000144766 0.0312043 5.60183e-06
0.639957 0.000322064 0.361459 0.000113658 -0.0583752 -1.04796e-05
0.499565 0.00025141 0.269814 8.48407e-05 -0.142935 -2.56598e-05
0.363285 0.000182826 0.182521 5.73922e-05 -0.225225 -4.04327e-05
0.231086 0.000116296 0.100342 3.15516e-05 -0.304436 -5.46527e-05
0.104044 5.23612e-05 0.0224144 7.04801e-06 -0.380845 -6.83698e-05
-0.00788878 -3.9701e-06 -0.0534439 -1.68049e-05 -0.458377 -8.22885e-05
-0.0992661 -4.99565e-05 -0.124206 -3.90556e-05 -0.538994 -9.67609e-05
-0.164204 -8.26373e-05 -0.205399 -6.45859e-05 -0.608515 -0.000109241
-0.224026 -0.000112743 -0.271756 -8.54514e-05 -0.685967 -0.000123146
-0.278619 -0.000140217 -0.33876 -0.00010652 -0.758171 -0.000136108
-0.327313 -0.000164723 -0.400054 -0.000125793 -0.834017 -0.000149724
-0.367515 -0.000184955 -0.45437 -0.000142872 -0.909545 -0.000163283
-0.400447 -0.000201528 -0.502613 -0.000158042 -0.985738 -0.000176961
-0.426365 -0.000214572 -0.545325 -0.000171473 -1.06202 -0.000190655
-0.444591 -0.000223744 -0.58088 -0.000182652 -1.13834 -0.000204355
-0.456002 -0.000229487 -0.608824 -0.000191439 -1.214 -0.000217939
-0.461195 -0.0002321 -0.629594 -0.00019797 -1.28811 -0.000231244
-0.460373 -0.000231687 -0.643178 -0.000202242 -1.35956 -0.000244071
-0.453993 -0.000228476 -0.649213 -0.000204139 -1.42697 -0.000256171
-0.442699 -0.000222792 -0.647996 -0.000203757 -1.48902 -0.000267311
-0.426931 -0.000214857 -0.640149 -0.000201289 -1.54413 -0.000277205
-0.407362 -0.000205008 -0.626267 -0.000196924 -1.59045 -0.000285519
-0.384765 -0.000193636 -0.606875 -0.000190826 -1.6261 -0.000291919
-0.359803 -0.000181074 -0.582641 -0.000183206 -1.64953 -0.000296127
-0.333232 -0.000167702 -0.55435 -0.000174311 -1.65932 -0.000297884
-0.304949 -0.000153468 -0.522789 -0.000164386 -1.65144 -0.000296469
-0.274896 -0.000138344 -0.488448 -0.000153588 -1.62247 -0.000291268
-0.244829 -0.000123212 -0.451446 -0.000141953 -1.57211 -0.000282228
-0.216463 -0.000108937 -0.412127 -0.00012959 -1.50005 -0.000269291
-0.19114 -9.61927e-05 -0.370738 -0.000116575 -1.40613 -0.000252431
-0.169634 -8.53696e-05 -0.327472 -0.000102971 -1.29111 -0.000231781
-0.15214 -7.6566e-05 -0.282707 -8.88948e-05 -1.15647 -0.000207611
-0.138295 -6.95983e-05 -0.237016 -7.45277e-05 -1.00377 -0.000180198
-0.12732 -6.40748e-05 -0.190955 -6.00441e-05 -0.834657 -0.000149839
-0.118329 -5.95501e-05 -0.145154 -4.56423e-05 -0.651435 -0.000116946
-0.110463 -5.55913e-05 -0.0999466 -3.14273e-05 -0.456924 -8.20275e-05
-0.103247 -5.19598e-05 -0.0553404 -1.74013e-05 -0.254348 -4.56608e-05
-0.0963438 -4.84859e-05 -0.0116893 -3.67561e-06 -0.0470693 -8.44995e-06
-0.0892902 -4.49361e-05 0.029633 9.31784e-06 0.142113 2.55124e-05
-0.0819032 -4.12185e-05 0.0695518 2.18699e-05 0.329692 5.91867e-05
-0.0742267 -3.73552e-05 0.108746 3.41941e-05 0.513263 9.21417e-05
-0.0664927 -3.3463e-05 0.147765 4.64634e-05 0.686221 0.000123191
-0.0590169 -2.97008e-05 0.186349 5.85957e-05 0.847339 0.000152115
-0.0523902 -2.63658e-05 0.224442 7.05736e-05 0.995187 0.000178657
-0.0471644 -2.37359e-05 0.262067 8.24048e-05 1.1276 0.000202428
-0.0440888 -2.21881e-05 0.299111 9.40527e-05 1.24173 0.000222917
-0.043962 -2.21243e-05 0.33503 0.000105347 1.33635 0.000239903
-0.0477617 -2.40365e-05 0.369079 0.000116054 1.41178 0.000253445
-0.0563359 -2.83515e-05 0.400501 0.000125934 1.46833 0.000263596
-0.07074 -3.56005e-05 0.428301 0.000134676 1.50602 0.000270362
-0.0839209 -4.22339e-05 0.449742 0.000141417 1.52565 0.000273887
-0.0873569 -4.39631e-05 0.459776 0.000144573 1.53219 0.000275061
-0.0981346 -4.93871e-05 0.466349 0.000146639 1.51923 0.000272733
-0.113659 -5.72e-05 0.462686 0.000145488 1.4921 0.000267864
-0.134303 -6.7589e-05 0.450421 0.000141631 1.44956 0.000260227
-0.159705 -8.03731e-05 0.429471 0.000135043 1.39348 0.00025016
-0.189951 -9.55943e-05 0.399153 0.00012551 1.32446 0.000237769
-0.224617 -0.000113041 0.358803 0.000112822 1.24325 0.00022319
-0.263123 -0.000132419 0.308863 9.71193e-05 1.15064 0.000206565
-0.304812 -0.000153399 0.249959 7.85974e-05 1.04684 0.000187929
-0.348748 -0.00017551 0.182483 5.73803e-05 0.931581 0.000167239
-0.39287 -0.000197715 0.107101 3.3677e-05 0.804637 0.00014445
-0.433171 -0.000217997 0.0237298 7.46161e-06 0.665887 0.000119541
-0.467422 -0.000235234 -0.0672099 -2.11335e-05 0.514044 9.22818e-05
-0.496087 -0.00024966 -0.16226 -5.10211e-05 0.350298 6.28859e-05
-0.520054 -0.000261722 -0.260025 -8.17626e-05 0.172784 3.10183e-05
-0.53796 -0.000270733 -0.358535 -0.000112738 -0.0130135 -2.33619e-06
-0.549637 -0.000276609 -0.452072 -0.00014215 -0.18373 -3.29834e-05
-0.554864 -0.00027924 -0.540006 -0.0001698 -0.365694 -6.56499e-05
-0.553451 -0.000278529 -0.620835 -0.000195216 -0.561286 -0.000100763
-0.545221 -0.000274387 -0.69363 -0.000218106 -0.761543 -0.000136713
-0.530636 -0.000267047 -0.755563 -0.00023758 -0.97148 -0.000174401
-0.509749 -0.000256536 -0.805825 -0.000253385 -1.19066 -0.000213748
-0.482926 -0.000243037 -0.844326 -0.000265491 -1.41413 -0.000253866
-0.451065 -0.000227002 -0.871033 -0.000273889 -1.63478 -0.000293477
-0.415403 -0.000209055 -0.885806 -0.000278534 -1.84934 -0.000331995
-0.377323 -0.000189891 -0.889224 -0.000279608 -2.05534 -0.000368977
-0.338147 -0.000170176 -0.882498 -0.000277494 -2.24759 -0.00040349
-0.29903 -0.000150489 -0.866959 -0.000272607 -2.4191 -0.00043428
-0.261104 -0.000131403 -0.844019 -0.000265394 -2.56441 -0.000460367
-0.225565 -0.000113518 -0.815284 -0.000256359 -2.67992 -0.000481102
-0.19362 -9.7441e-05 -0.782383 -0.000246013 -2.7619 -0.000495819
-0.166426 -8.37554e-05 -0.746781 -0.000234819 -2.80613 -0.00050376
-0.144952 -7.29485e-05 -0.709782 -0.000223184 -2.80736 -0.000503981
-0.129895 -6.53707e-05 -0.67201 -0.000211307 -2.75695 -0.000494931
-0.121461 -6.11264e-05 -0.634177 -0.000199411 -2.65458 -0.000476553
-0.119431 -6.01048e-05 -0.596942 -0.000187703 -2.50133 -0.000449042
-0.123266 -6.20346e-05 -0.560793 -0.000176336 -2.29816 -0.000412568
-0.132265 -6.65633e-05 -0.525707 -0.000165304 -2.04881 -0.000367804
-0.145645 -7.32971e-05 -0.491298 -0.000154484 -1.75964 -0.000315893
-0.162507 -8.1783e-05 -0.456969 -0.00014369 -1.43766 -0.000258091
-0.181704 -9.14442e-05 -0.422002 -0.000132695 -1.0898 -0.000195643
-0.201754 -0.000101534 -0.385564 -0.000121237 -0.72377 -0.000129932
-0.220995 -0.000111217 -0.346758 -0.000109035 -0.348419 -6.25487e-05
-0.237834 -0.000119692 -0.304708 -9.58127e-05 0.0149478 2.68345e-06
-0.250402 -0.000126017 -0.262277 -8.24707e-05 0.322189 5.78398e-05
-0.25817 -0.000129926 -0.214864 -6.75619e-05 0.621218 0.000111522
-0.259543 -0.000130617 -0.162739 -5.11718e-05 0.904524 0.000162381
-0.253479 -0.000127565 -0.103787 -3.2635e-05 1.15821 0.000207924
-0.238509 -0.000120032 -0.040202 -1.26411e-05 1.38329 0.000248329
-0.215363 -0.000108383 0.0283648 8.91906e-06 1.58191 0.000283986
-0.182537 -9.18634e-05 0.100872 3.17184e-05 1.74964 0.000314098
-0.140863 -7.08903e-05 0.176424 5.5475e-05 1.88275 0.000337993
-0.0910605 -4.5827e-05 0.2535 7.97107e-05 1.97984 0.000355423
-0.0352381 -1.77339e-05 0.331129 0.000104121 2.04579 0.000367263
0.0226054 1.13763e-05 0.408795 0.000128542 2.08315 0.00037397
0.0831495 4.18457e-05 0.484397 0.000152314 2.09209 0.000375575
0.147543 7.42521e-05 0.556165 0.000174881 2.07137 0.000371855
0.210953 0.000106164 0.621938 0.000195563 2.02733 0.000363948
0.271941 0.000136857 0.681097 0.000214165 1.96426 0.000352626
0.328096 0.000165117 0.731892 0.000230137 1.88683 0.000338726
0.377596 0.000190028 0.772942 0.000243045 1.79849 0.000322867
0.418873 0.000210801 0.80321 0.000252562 1.70426 0.000305951
0.450497 0.000226717 0.821601 0.000258345 1.60913 0.000288873
0.471199 0.000237135 0.827387 0.000260165 1.51651 0.000272247
0.480185 0.000241657 0.820233 0.000257915 1.42848 0.000256442
0.476846 0.000239977 0.800013 0.000251557 1.34688 0.000241793
0.461673 0.000232341 0.766634 0.000241061 1.27332 0.000228588
0.436367 0.000219605 0.72031 0.000226495 1.20829 0.000216915
0.402184 0.000202403 0.66196 0.000208147 1.15068 0.000206572
0.360795 0.000181573 0.592663 0.000186358 1.09866 0.000197232
0.313818 0.000157932 0.513956 0.000161609 1.04986 0.000188472
0.257514 0.000129596 0.429297 0.000134988 1.00063 0.000179635
0.198599 9.99465e-05 0.338489 0.000106435 0.948406 0.000170259
0.138289 6.9595e-05 0.244796 7.69739e-05 0.889094 0.000159611
0.0785117 3.95117e-05 0.149976 4.71587e-05 0.819548 0.000147126
0.0212213 1.06798e-05 0.0554111 1.74235e-05 0.73622 0.000132167
-0.0301159 -1.51561e-05 -0.0379449 -1.19314e-05 0.635898 0.000114157
-0.0749242 -3.77062e-05 -0.124867 -3.92632e-05 0.515936 9.26215e-05
-0.11542 -5.80862e-05 -0.206692 -6.49924e-05 0.377894 6.784e-05
-0.149084 -7.50276e-05 -0.280359 -8.81564e-05 0.21903 3.93205e-05
-0.178008 -8.95843e-05 -0.344584 -0.000108351 0.0412298 7.40162e-06
-0.203307 -0.000102316 -0.398133 -0.000125189 -0.125674 -2.25611e-05
-0.224984 -0.000113225 -0.439504 -0.000138198 -0.30756 -5.52136e-05
-0.24452 -0.000123057 -0.471783 -0.000148348 -0.497528 -8.93169e-05
-0.243836 -0.000122713 -0.501109 -0.000157569 -0.687102 -0.00012335
-0.242122 -0.00012185 -0.520999 -0.000163823 -0.874882 -0.00015706
-0.238385 -0.000119969 -0.535351 -0.000168336 -1.06241 -0.000190724
-0.235097 -0.000118314 -0.54394 -0.000171037 -1.24334 -0.000223207
-0.234274 -0.0001179 -0.548631 -0.000172512 -1.40882 -0.000252913
-0.237447 -0.000119497 -0.550114 -0.000172978 -1.55553 -0.00027925
-0.245605 -0.000123603 -0.550877 -0.000173218 -1.68069 -0.000301719
-0.259779 -0.000130736 -0.552705 -0.000173793 -1.78111 -0.000319748
-0.280767 -0.000141298 -0.556863 -0.000175101 -1.85164 -0.000332408
-0.308795 -0.000155404 -0.564642 -0.000177546 -1.88969 -0.000339239
-0.343923 -0.000173082 -0.577422 -0.000181565 -1.89384 -0.000339985
-0.386057 -0.000194287 -0.595575 -0.000187273 -1.86012 -0.000333932
-0.434881 -0.000218858 -0.61896 -0.000194626 -1.78874 -0.000321118
-0.489833 -0.000246513 -0.64746 -0.000203588 -1.68249 -0.000302043
-0.550018 -0.000276801 -0.680697 -0.000214039 -1.54495 -0.000277351
-0.614165 -0.000309084 -0.717709 -0.000225677 -1.38166 -0.000248037
-0.679485 -0.000341957 -0.757624 -0.000238228 -1.19903 -0.000215251
-0.742815 -0.000373828 -0.799557 -0.000251413 -1.0036 -0.000180167
-0.803606 -0.000404421 -0.841025 -0.000264453 -0.803378 -0.000144224
-0.861133 -0.000433372 -0.880343 -0.000276816 -0.605876 -0.000108768
-0.914581 -0.000460271 -0.915398 -0.000287839 -0.418988 -7.52172e-05
-0.9633 -0.000484789 -0.944258 -0.000296913 -0.249811 -4.48464e-05
-1.00686 -0.00050671 -0.965456 -0.000303579 -0.104398 -1.87417e-05
-1.04484 -0.000525826 -0.978049 -0.000307539 0.00540567 9.70433e-07
-1.07684 -0.000541927 -0.982282 -0.00030887 0.0783036 1.40572e-05
-1.10289 -0.000555037 -0.976956 -0.000307195 0.122641 2.20166e-05
-1.11878 -0.000563037 -0.963786 -0.000303054 0.138836 2.4924e-05
-1.11335 -0.000560303 -0.948851 -0.000298358 0.125961 2.26126e-05
-1.10374 -0.000555467 -0.923882 -0.000290506 0.0790903 1.41984e-05
-1.08612 -0.000546601 -0.896528 -0.000281905 0.00967045 1.73605e-06
-1.06291 -0.000534916 -0.865121 -0.00027203 -0.0774047 -1.38958e-05
-1.03628 -0.000521516 -0.831248 -0.000261378 -0.180606 -3.24226e-05
-1.00773 -0.00050715 -0.797619 -0.000250804 -0.296066 -5.31502e-05
-0.979453 -0.000492918 -0.766457 -0.000241006 -0.417739 -7.4993e-05
-0.953576 -0.000479895 -0.739395 -0.000232496 -0.540964 -9.71145e-05
-0.932042 -0.000469058 -0.717861 -0.000225725 -0.661772 -0.000118802
-0.91673 -0.000461352 -0.703702 -0.000221273 -0.77572 -0.000139258
-0.909362 -0.000457644 -0.698418 -0.000219611 -0.878063 -0.000157631
-0.911249 -0.000458594 -0.702824 -0.000220997 -0.965442 -0.000173317
-0.923373 -0.000464696 -0.717502 -0.000225612 -1.03606 -0.000185995
-0.946285 -0.000476226 -0.742879 -0.000233592 -1.08888 -0.000195478
-0.979071 -0.000492726 -0.778962 -0.000244937 -1.12328 -0.000201653
-1.02232 -0.000514494 -0.825346 -0.000259523 -1.13961 -0.000204584
-1.073 -0.000539999 -0.879168 -0.000276447 -1.14011 -0.000204673
-1.12986 -0.000568612 -0.942116 -0.00029624 -1.12503 -0.000201967
-1.19449 -0.000601139 -1.01139 -0.000318022 -1.09808 -0.000197129
-1.26215 -0.000635186 -1.08696 -0.000341786 -1.06266 -0.00019077
-1.32983 -0.000669246 -1.16697 -0.000366943 -1.02388 -0.000183809
-1.39544 -0.000702269 -1.24997 -0.000393042 -0.986373 -0.000177075
-1.45653 -0.000733012 -1.33377 -0.000419391 -0.955657 -0.000171561
-1.51102 -0.000760434 -1.4161 -0.000445281 -0.937125 -0.000168234
-1.5576 -0.000783878 -1.49476 -0.000470015 -0.935668 -0.000167972
-1.59491 -0.000802652 -1.56755 -0.000492901 -0.955511 -0.000171535
-1.62143 -0.000815996 -1.63247 -0.000513316 -1.00003 -0.000179527
-1.63564 -0.000823148 -1.68798 -0.000530769 -1.0715 -0.000192357
-1.63529 -0.000822976 -1.73267 -0.000544824 -1.1685 -0.00020977
-1.61951 -0.000815034 -1.76422 -0.000554744 -1.27909 -0.000229625
-1.58736 -0.000798853 -1.78324 -0.000560724 -1.41522 -0.000254063
-1.53839 -0.000774208 -1.78915 -0.000562581 -1.57184 -0.000282179
-1.47264 -0.00074112 -1.78246 -0.000560479 -1.74427 -0.000313134
-1.39067 -0.000699865 -1.76321 -0.000554425 -1.92938 -0.000346365
-1.29361 -0.000651022 -1.73204 -0.000544624 -2.12272 -0.000381074
-1.18339 -0.000595552 -1.68971 -0.000531315 -2.31741 -0.000416024
-1.06234 -0.000534633 -1.637 -0.00051474 -2.50644 -0.00044996
-0.932984 -0.000469532 -1.57476 -0.000495171 -2.68354 -0.000481753
-0.79792 -0.00040156 -1.50403 -0.000472928 -2.84273 -0.00051033
-0.659861 -0.000332081 -1.42585 -0.000448347 -2.97734 -0.000534496
-0.521658 -0.000262529 -1.34127 -0.00042175 -3.08082 -0.000553073
-0.386136 -0.000194326 -1.25128 -0.000393453 -3.1476 -0.000565062
-0.255743 -0.000128705 -1.15692 -0.000363782 -3.1732 -0.000569657
-0.132358 -6.66102e-05 -1.05916 -0.000333044 -3.14986 -0.000565466
-0.0172684 -8.69048e-06 -0.958618 -0.000301429 -3.07201 -0.00055149
0.0820614 4.12981e-05 -0.857293 -0.000269568 -2.93724 -0.000527298
0.171521 8.63197e-05 -0.756412 -0.000237847 -2.74357 -0.000492529
0.233032 0.000117275 -0.646178 -0.000203185 -2.49974 -0.000448757
0.286592 0.00014423 -0.542797 -0.000170678 -2.19792 -0.000394574
0.330739 0.000166447 -0.436464 -0.000137242 -1.84899 -0.000331932
0.365741 0.000184062 -0.331531 -0.000104247 -1.45386 -0.000260998
0.391373 0.000196962 -0.228556 -7.18673e-05 -1.02046 -0.000183193
0.40978 0.000206226 -0.128312 -4.03467e-05 -0.555231 -9.96757e-05
0.422422 0.000212588 -0.0307946 -9.68307e-06 -0.066777 -1.19879e-05
0.431189 0.000216999 0.0609484 1.91647e-05 0.333089 5.97965e-05
0.43874 0.0002208 0.146667 4.61181e-05 0.74076 0.000132982
0.446309 0.000224609 0.231055 7.26531e-05 1.15517 0.000207378
0.456597 0.000229786 0.315706 9.9271e-05 1.54929 0.000278131
0.471687 0.000237381 0.399458 0.000125606 1.92345 0.0003453
0.493206 0.00024821 0.481928 0.000151538 2.28038 0.000409377
0.522511 0.000262958 0.564078 0.000177369 2.61564 0.000469563
0.560486 0.000282069 0.647392 0.000203566 2.91537 0.000523371
0.607746 0.000305853 0.731788 0.000230104 3.17268 0.000569564
0.664534 0.000334433 0.817015 0.000256903 3.38937 0.000608465
0.7308 0.000367781 0.903378 0.000284059 3.56593 0.000640161
0.80612 0.000405687 0.990937 0.000311591 3.69815 0.000663897
0.889734 0.000447766 1.07909 0.000339309 3.78301 0.00067913
0.980723 0.000493557 1.16695 0.000366936 3.823 0.000686309
1.07811 0.000542566 1.25353 0.00039416 3.82002 0.000685774
1.18086 0.00059428 1.33708 0.000420432 3.77119 0.000677009
1.28769 0.000648043 1.41622 0.000445317 3.68034 0.0006607
1.39708 0.000703095 1.48959 0.000468387 3.55328 0.00063789
1.5073 0.000758561 1.5561 0.000489301 3.39694 0.000609822
1.61661 0.000813571 1.61452 0.000507672 3.21856 0.000577801
1.72336 0.000867294 1.6638 0.000523166 3.02528 0.000543103
1.82593 0.000918917 1.70322 0.000535563 2.82382 0.000506935
1.92265 0.000967591 1.73245 0.000544752 2.62071 0.000470474
2.01184 0.00101248 1.75137 0.000550701 2.42198 0.000434797
2.09201 0.00105282 1.76019 0.000553477 2.23288 0.00040085
2.16201 0.00108805 1.75947 0.00055325 2.05768 0.000369397
2.22114 0.00111781 1.74995 0.000550255 1.89983 0.000341061
2.26936 0.00114207 1.73249 0.000544766 1.76199 0.000316315
2.30732 0.00116118 1.70809 0.000537095 1.64595 0.000295484
2.3362 0.00117571 1.67794 0.000527612 1.55253 0.000278712
2.35751 0.00118644 1.64336 0.00051674 1.48161 0.000265981
2.37292 0.00119419 1.60587 0.000504952 1.4323 0.000257128
2.38413 0.00119984 1.56718 0.000492784 1.40295 0.000251859
2.39273 0.00120416 1.52913 0.00048082 1.39128 0.000249764
2.40019 0.00120792 1.49366 0.000469668 1.39453 0.000250349
2.40794 0.00121182 1.46268 0.000459927 1.40974 0.000253079
2.4173 0.00121652 1.438 0.000452165 1.43392 0.000257419
2.42945 0.00122264 1.42125 0.0004469 1.46424 0.000262862
2.44533 0.00123063 1.41385 0.000444574 1.49821 0.000268961
2.46559 0.00124083 1.41692 0.000445538 1.53382 0.000275354
2.49051 0.00125337 1.43123 0.000450037 1.5697 0.000281794
2.52007 0.00126825 1.45717 0.000458193 1.60518 0.000288164
2.55394 0.00128529 1.49471 0.000469999 1.64037 0.000294481
2.59111 0.001304 1.5435 0.00048534 1.67609 0.000300894
2.62556 0.00132133 1.60429 0.000504455 1.71309 0.000307535
2.6562 0.00133675 1.67494 0.000526671 1.7539 0.000314862
2.68209 0.00134979 1.75365 0.00055142 1.80175 0.000323452
2.70261 0.00136011 1.83792 0.000577919 1.86032 0.000333967
2.71657 0.00136714 1.92482 0.000605243 1.93327 0.000347062
2.72276 0.00137025 2.01111 0.000632374 2.02427 0.000363399
2.71968 0.0013687 2.09403 0.00065845 2.13636 0.000383522
2.70572 0.00136168 2.17089 0.000682618 2.27181 0.000407838
2.67927 0.00134836 2.23924 0.000704108 2.43172 0.000436546
2.63847 0.00132783 2.29696 0.000722259 2.61616 0.000469656
2.58143 0.00129913 2.34243 0.000736558 2.82391 0.000506952
2.50652 0.00126143 2.37436 0.000746598 3.05246 0.000547981
2.41248 0.0012141 2.39174 0.00075206 3.29802 0.000592065
2.29843 0.0011567 2.39385 0.000752724 3.5557 0.000638324
2.16414 0.00108912 2.38024 0.000748447 3.8159 0.000685035
2.01052 0.00101181 2.34805 0.000738325 4.02906 0.000723303
1.83868 0.000925334 2.29848 0.000722738 4.24016 0.000761198
1.65066 0.000830709 2.233 0.000702146 4.43978 0.000797035
1.44909 0.000729267 2.1523 0.000676772 4.61514 0.000828515
1.23674 0.000622399 2.05541 0.000646304 4.76562 0.00085553
1.01616 0.00051139 1.94308 0.000610985 4.88953 0.000877774
0.789666 0.000397406 1.81645 0.000571167 4.97818 0.000893689
0.559206 0.000281425 1.67671 0.000527227 5.02129 0.000901429
0.326929 0.00016453 1.52456 0.000479385 5.011 0.000899582
0.149043 7.50073e-05 1.34366 0.0004225 4.94523 0.000887773
-0.0197259 -9.9272e-06 1.16429 0.000366101 4.80575 0.000862735
-0.176937 -8.9045e-05 0.979015 0.000307843 4.58807 0.000823657
-0.328894 -0.000165519 0.779387 0.000245071 4.2945 0.000770954
-0.46558 -0.000234307 0.581972 0.000182996 3.91891 0.000703527
-0.593188 -0.000298527 0.381455 0.000119945 3.46945 0.00062284
-0.711461 -0.000358049 0.174832 5.49743e-05 2.94694 0.000529039
-0.816483 -0.000410902 -0.0346103 -1.08829e-05 2.35489 0.000422753
-0.910407 -0.00045817 -0.242331 -7.61987e-05 1.70286 0.000305699
-0.994603 -0.000500543 -0.449551 -0.000141357 0.999036 0.000179348
-1.06849 -0.000537725 -0.655406 -0.000206087 0.254219 4.56377e-05
-1.13483 -0.000571115 -0.855548 -0.000269019 -0.387621 -6.95862e-05
-1.19741 -0.000602608 -1.04121 -0.0003274 -1.04251 -0.000187153
-1.25436 -0.00063127 -1.22888 -0.000386409 -1.7041 -0.000305922
-1.31125 -0.0006599 -1.4138 -0.000444557 -2.34399 -0.000420796
-1.36916 -0.000689041 -1.59648 -0.000501997 -2.95986 -0.000531357
-1.43073 -0.000720029 -1.77488 -0.000558095 -3.56395 -0.000639804
-1.49826 -0.000754015 -1.95036 -0.000613272 -4.14845 -0.000744734
-1.57356 -0.00079191 -2.12427 -0.000667958 -4.68853 -0.000841691
-1.65818 -0.000834492 -2.29599 -0.000721953 -5.17358 -0.000928768
-1.75328 -0.000882356 -2.46519 -0.000775155 -5.60679 -0.00100654
-1.85984 -0.000935979 -2.63208 -0.000827634 -5.9891 -0.00107517
-1.97922 -0.000996059 -2.79026 -0.000877371 -6.04604 -0.00108539
-2.11358 -0.00106368 -2.92505 -0.000919756 -6.06607 -0.00108899
-2.2549 -0.0011348 -3.07485 -0.000966858 -6.09271 -0.00109377
-2.40888 -0.00121229 -3.22164 -0.00101302 -6.08776 -0.00109288
-2.5694 -0.00129307 -3.37285 -0.00106056 -6.06577 -0.00108893
-2.73742 -0.00137763 -3.51774 -0.00110612 -6.06578 -0.00108894
-2.91026 -0.00146461 -3.65913 -0.00115058 -6.04049 -0.0010844
-3.08678 -0.00155345 -3.79313 -0.00119272 -5.95306 -0.0010687
-3.26444 -0.00164286 -3.91889 -0.00123226 -5.80544 -0.0010422
-3.12582 -0.00157309 -4.07031 -0.00127987 -5.17188 -0.000928462
-3.01093 -0.00151528 -2.97923 -0.000936791 -4.84185 -0.000869214
-3.42449 -0.00172341 -3.56125 -0.0011198 -4.5758 -0.000821453
-3.58037 -0.00180185 -4.25425 -0.00133771 -4.53617 -0.000814338
-3.53223 -0.00177762 -4.09991 -0.00128918 -4.10157 -0.000736319
-3.64414 -0.00183395 -3.73969 -0.00117591 -3.79529 -0.000681334
-3.66089 -0.00184237 -4.02869 -0.00126679 -3.70354 -0.000664864
-3.66335 -0.00184361 -4.31873 -0.00135799 -3.63424 -0.000652424
-3.69564 -0.00185986 -4.27267 -0.0013435 -3.40697 -0.000611624
-3.71442 -0.00186931 -4.24396 -0.00133448 -3.27352 -0.000587667
-3.73955 -0.00188196 -4.4393 -0.0013959 -3.36512 -0.000604111
-3.75389 -0.00188918 -4.65281 -0.00146304 -3.46358 -0.000621787
-3.76424 -0.00189439 -4.5906 -0.00144347 -3.59953 -0.000646191
-3.7753 -0.00189995 -4.61918 -0.00145246 -3.7628 -0.000675503
-3.78677 -0.00190572 -4.66444 -0.00146669 -4.08936 -0.000734128
-3.79563 -0.00191018 -4.70736 -0.00148019 -4.33415 -0.000778072
-3.80462 -0.00191471 -4.69611 -0.00147665 -4.53029 -0.000813283
-0.684821 -0.000344642 -3.88437 -0.00122141 -5.29293 -0.000950193
0.0927531 4.66788e-05 -3.54385 -0.00111433 -6.82363 -0.00122499
-0.326758 -0.000164444 -4.17786 -0.00131369 -6.2101 -0.00111485
-0.432975 -0.000217898 -4.23785 -0.00133255 -6.72287 -0.0012069
0.475508 0.000239303 -4.48985 -0.00141179 -7.06749 -0.00126877
-0.221341 -0.000111392 -5.17755 -0.00162803 -6.84052 -0.00122802
-0.687109 -0.000345793 -5.04513 -0.0015864 -6.64205 -0.00119239
-0.381542 -0.000192014 -4.9027 -0.00154161 -6.64931 -0.00119369
-0.609374 -0.000306673 -5.02002 -0.0015785 -6.90145 -0.00123896
-0.895436 -0.000450636 -5.1012 -0.00160403 -6.8261 -0.00122543
-0.787479 -0.000396306 -4.9772 -0.00156503 -6.85432 -0.0012305
-0.8034 -0.000404318 -4.87388 -0.00153255 -6.9004 -0.00123877
-0.887527 -0.000446655 -4.92173 -0.00154759 -6.96667 -0.00125066
-0.859494 -0.000432548 -4.96344 -0.00156071 -6.99407 -0.00125559
-0.852941 -0.00042925 -4.90118 -0.00154113 -6.99514 -0.00125578
-0.890414 -0.000448108 -4.85453 -0.00152646 -7.02917 -0.00126189
-0.890026 -0.000447913 -4.8861 -0.00153639 -7.07565 -0.00127023
-0.887936 -0.000446861 -4.90514 -0.00154238 -7.08949 -0.00127271
-0.904378 -0.000455136 -4.87378 -0.00153252 -7.09134 -0.00127305
-0.910681 -0.000458308 -4.8599 -0.00152815 -7.11581 -0.00127744
-0.907324 -0.000456618 -4.88429 -0.00153582 -7.14029 -0.00128183
-0.915943 -0.000460956 -4.90358 -0.00154189 -7.13545 -0.00128097
-0.920105 -0.000463051 -4.89922 -0.00154051 -7.12979 -0.00127995
-0.917458 -0.000461718 -4.90498 -0.00154233 -7.14246 -0.00128222
-0.918907 -0.000462448 -4.93306 -0.00155116 -7.1461 -0.00128288
-0.919819 -0.000462907 -4.95669 -0.00155859 -7.13499 -0.00128088
-0.917197 -0.000461587 -3.52569 -0.00110862 -7.12282 -0.0012787
-0.118571 -5.9672e-05 -0.801811 -0.000252122 -4.40785 -0.000791302
-0.551686 -0.000277641 0.204247 6.42236e-05 -6.62362 -0.00118908
-0.286338 -0.000144102 -0.335968 -0.000105642 -6.78142 -0.00121741
-0.450139 -0.000226536 -0.127636 -4.01341e-05 -6.86722 -0.00123281
-0.520228 -0.000261809 -0.499137 -0.000156949 -6.92147 -0.00124255
-0.530063 -0.000266759 -0.81647 -0.000256732 -7.0229 -0.00126076
-0.548807 -0.000276192 -0.755943 -0.0002377 -6.9565 -0.00124884
-0.566231 -0.000284961 -0.694008 -0.000218225 -6.87345 -0.00123393
-0.589107 -0.000296473 -0.747938 -0.000235182 -6.92026 -0.00124233
-0.59373 -0.0002988 -0.812496 -0.000255482 -6.74033 -0.00121003
-0.643197 -0.000323695 -0.784271 -0.000246607 -1.33612 -0.000239861
-0.74909 -0.000376986 -0.757545 -0.000238203 -1.27669 -0.000229193
-0.647875 -0.000326049 -0.828158 -0.000260407 -1.09926 -0.00019734
-0.748421 -0.000376649 -0.833926 -0.000262221 -1.07348 -0.000192713
-0.734723 -0.000369756 -0.826459 -0.000259873 -1.17721 -0.000211335
-0.734685 -0.000369737 -0.832512 -0.000261776 -1.17732 -0.000211354
-0.77553 -0.000390292 -0.854467 -0.000268679 -1.0833 -0.000194475
-0.772352 -0.000388693 -0.876747 -0.000275685 -0.994053 -0.000178454
-0.785552 -0.000395336 -0.880064 -0.000276728 -1.00015 -0.000179549
-0.807569 -0.000406416 -0.884741 -0.000278199 -1.0272 -0.000184404
-0.81498 -0.000410146 -0.902134 -0.000283668 -0.989452 -0.000177628
-0.830701 -0.000418058 -0.91733 -0.000288446 -0.920335 -0.00016522
-0.851123 -0.000428335 -0.926394 -0.000291296 -0.88381 -0.000158663
-0.861469 -0.000433542 -0.934577 -0.000293869 -0.881719 -0.000158287
-0.87993 -0.000442833 -0.942184 -0.000296261 -0.874444 -0.000156981
-0.898346 -0.0004521 -0.95273 -0.000299577 -0.835438 -0.000149979
-0.911908 -0.000458926 -0.963134 -0.000302849 -0.789569 -0.000141744
-0.928266 -0.000467158 -0.96821 -0.000304445 -0.771178 -0.000138443
-0.93031 -0.000468187 -0.972812 -0.000305892 -0.766295 -0.000137566
-0.934146 -0.000470117 -0.969397 -0.000304818 -0.0767769 -1.37831e-05
-0.951444 -0.000478822 -0.878796 -0.000276329 0.149371 2.68152e-05
-0.959436 -0.000482844 -0.79824 -0.000250999 -1.21249 -0.000217667
-0.910766 -0.000458351 -0.861278 -0.000270821 -1.27333 -0.00022859
-0.9276 -0.000466823 -0.925768 -0.000291099 -0.614462 -0.000110309
-0.92738 -0.000466712 -0.919357 -0.000289084 -0.61003 -0.000109513
-0.905976 -0.00045594 -0.891996 -0.00028048 -1.16636 -0.000209386
-0.897375 -0.000451612 -0.895952 -0.000281724 -1.33226 -0.000239168
-0.863671 -0.00043465 -0.931062 -0.000292764 -0.957269 -0.00017185
-0.829012 -0.000417207 -0.958503 -0.000301393 -0.673513 -0.00012091
-0.796018 -0.000400603 -0.957529 -0.000301087 -0.827651 -0.000148581
-0.763692 -0.000384334 -0.951973 -0.000299339 -1.06014 -0.000190319
-0.730808 -0.000367785 -0.964915 -0.000303409 -0.993968 -0.000178438
-0.698164 -0.000351357 -0.984289 -0.000309501 -0.776684 -0.000139431
-0.663234 -0.000333778 -0.992291 -0.000312017 -0.730275 -0.0001311
-0.626146 -0.000315113 -0.992979 -0.000312233 -0.848265 -0.000152282
-0.586459 -0.000295141 -0.997826 -0.000313757 -0.897582 -0.000161135
-0.544928 -0.00027424 -1.00853 -0.000317123 -0.807973 -0.000145048
-0.501186 -0.000252226 -1.01895 -0.0003204 -0.722739 -0.000129747
-0.455837 -0.000229404 -1.02424 -0.000322063 -0.741181 -0.000133058
-0.409267 -0.000205967 -1.0176 -0.000319974 -0.794801 -0.000142684
-0.357674 -0.000180003 -1.00526 -0.000316096 -0.784564 -0.000140846
-0.303947 -0.000152964 -0.977464 -0.000307355 -0.732295 -0.000131463
-0.259462 -0.000130577 -0.944843 -0.000297097 -0.7137 -0.000128124
-0.214087 -0.000107741 -0.901304 -0.000283407 -0.703285 -0.000126255
-0.197211 -9.92483e-05 -0.844963 -0.000265691 -0.658809 -0.00011827
-0.175556 -8.83502e-05 -0.802137 -0.000252225 -0.54294 -9.74693e-05
-0.163397 -8.22307e-05 -0.742198 -0.000233378 -0.370375 -6.64903e-05
-0.149656 -7.53158e-05 -0.662952 -0.000208459 -0.168304 -3.02141e-05
-0.133148 -6.70077e-05 -0.582818 -0.000183262 0.0791586 1.42107e-05
-0.12039 -6.05875e-05 -0.480452 -0.000151074 0.350583 6.29372e-05
-0.106874 -5.37855e-05 -0.374037 -0.000117613 0.526602 9.45363e-05
-0.0929173 -4.67614e-05 -0.28272 -8.88988e-05 0.565026 0.000101434
-0.0785576 -3.95348e-05 -0.179708 -5.65077e-05 0.608697 0.000109274
-0.0654849 -3.29558e-05 -0.0568368 -1.78718e-05 0.634384 0.000113885
-0.0511635 -2.57485e-05 -0.00835918 -2.62847e-06 0.652066 0.00011706
-0.0393204 -1.97883e-05 0.0253306 7.96498e-06 0.70526 0.000126609
-0.0307107 -1.54554e-05 0.0667895 2.10014e-05 0.770228 0.000138272
-0.0150565 -7.57729e-06 0.0976018 3.069e-05 0.835911 0.000150064
-0.00403988 -2.0331e-06 0.133303 4.19159e-05 0.866202 0.000155502
0.00559106 2.81375e-06 0.177139 5.56998e-05 0.881602 0.000158266
0.0199729 1.00516e-05 0.217043 6.82472e-05 0.922847 0.000165671
0.0339772 1.70993e-05 0.25682 8.07547e-05 0.990782 0.000177866
0.0457235 2.30108e-05 0.302257 9.50419e-05 1.05863 0.000190046
0.0597837 3.00866e-05 0.348888 0.000109705 1.11328 0.000199858
0.0759816 3.82384e-05 0.395058 0.000124223 1.15826 0.000207933
0.0915296 4.6063e-05 0.44383 0.000139558 1.20493 0.000216311
0.107809 5.42556e-05 0.494486 0.000155487 1.26341 0.00022681
0.12633 6.35769e-05 0.545032 0.00017138 1.33185 0.000239095
0.145868 7.34092e-05 0.596309 0.000187504 1.39898 0.000251146
0.166062 8.3572e-05 0.649095 0.000204102 1.45861 0.000261852
0.18782 9.45218e-05 0.702773 0.000220981 1.51492 0.000271961
0.211077 0.000106226 0.756908 0.000238003 1.57488 0.000282725
0.235407 0.000118471 0.811346 0.00025512 1.64067 0.000294536
0.260757 0.000131228 0.865674 0.000272203 1.7092 0.000306837
0.287176 0.000144524 0.919845 0.000289237 1.77581 0.000318796
0.314355 0.000158202 0.974198 0.000306328 1.83899 0.000330138
0.341286 0.000171755 1.02858 0.000323427 1.90131 0.000341325
0.369536 0.000185972 1.08256 0.000340401 1.9657 0.000352884
0.398914 0.000200757 1.13616 0.000357255 2.03258 0.000364892
0.427371 0.000215078 1.18943 0.000374006 2.10009 0.000377011
0.454787 0.000228876 1.24227 0.000390621 2.1662 0.000388879
0.482184 0.000242663 1.29479 0.000407136 2.23062 0.000400443
0.509382 0.000256351 1.34713 0.000423592 2.2949 0.000411983
0.53536 0.000269424 1.39926 0.000439984 2.36067 0.000423791
0.559794 0.000281721 1.45113 0.000456296 2.42774 0.000435831
0.582969 0.000293384 1.50296 0.000472593 2.49469 0.000447849
0.604889 0.000304415 1.55497 0.000488945 2.56074 0.000459708
0.625098 0.000314586 1.60714 0.000505352 2.62645 0.000471503
0.643244 0.000323718 1.65949 0.000521813 2.69269 0.000483395
0.659401 0.000331849 1.71198 0.000538316 2.75974 0.000495432
0.6736 0.000338995 1.7646 0.000554864 2.82716 0.000507536
0.685659 0.000345064 1.81743 0.000571476 2.89441 0.000519607
0.695412 0.000349972 1.87039 0.000588127 2.96125 0.000531608
0.702597 0.000353588 1.92325 0.000604749 3.02794 0.00054358
0.707817 0.000356215 1.97607 0.000621356 3.09455 0.000555538
0.710713 0.000357673 2.0285 0.000637845 3.16098 0.000567464
0.711473 0.000358055 2.08048 0.000654188 3.22697 0.00057931
0.710355 0.000357492 2.1318 0.000670324 3.29195 0.000590976
0.707324 0.000355967 2.18228 0.000686199 3.35581 0.00060244
0.70251 0.000353544 2.23168 0.00070173 3.41841 0.000613678
0.696217 0.000350377 2.2797 0.000716831 3.47965 0.000624672
0.688173 0.000346329 2.3262 0.000731453 3.53925 0.000635371
0.678381 0.000341401 2.3709 0.000745507 3.59693 0.000645725
0.666887 0.000335617 2.41354 0.000758917 3.6525 0.000655702
0.654168 0.000329216 2.45416 0.000771688 3.70553 0.000665221
0.640813 0.000322495 2.49243 0.000783721 3.75577 0.000674241
0.627144 0.000315616 2.52807 0.000794927 3.80318 0.000682752
0.613697 0.000308848 2.56097 0.000805274 3.84741 0.000690693
0.600693 0.000302304 2.59112 0.000814756 3.88813 0.000698002
0.588385 0.00029611 2.61845 0.000823349 3.92523 0.000704663
0.577543 0.000290654 2.64278 0.000830999 3.95843 0.000710623
0.568467 0.000286086 2.664 0.00083767 3.98756 0.000715853
0.561694 0.000282677 2.68199 0.000843329 4.01258 0.000720343
0.557785 0.00028071 2.6968 0.000847983 4.03337 0.000724076
0.557013 0.000280321 2.70846 0.000851651 4.04983 0.000727031
0.559916 0.000281783 2.71692 0.00085431 4.06187 0.000729192
0.566735 0.000285214 2.72218 0.000855964 4.06948 0.000730558
0.578017 0.000290892 2.72429 0.000856627 4.05199 0.000727418
0.594662 0.000299269 2.72237 0.000856024 3.97165 0.000712995
0.617989 0.000311008 2.71499 0.000853705 3.8354 0.000688537
0.643925 0.000324061 2.70331 0.000850032 3.64813 0.000654916
0.656792 0.000330536 2.68801 0.00084522 3.41364 0.000612821
0.672188 0.000338284 2.65379 0.000834459 3.13958 0.000563622
0.687656 0.000346069 2.62485 0.00082536 2.79907 0.000502492
0.706138 0.00035537 2.57572 0.000809913 2.42158 0.000434726
0.723099 0.000363906 2.51379 0.000790439 2.00699 0.000360297
0.73926 0.000372039 2.44015 0.000767284 1.55982 0.000280022
0.756176 0.000380552 2.35581 0.000740765 1.0842 0.000194636
0.772641 0.000388838 2.2633 0.000711674 0.579865 0.000104098
0.788068 0.000396602 2.1606 0.000679381 0.0517418 9.28875e-06
0.802716 0.000403974 2.05126 0.000645001 -0.0914143 -1.64108e-05
0.81608 0.000410699 1.98243 0.000623357 -0.102011 -1.83131e-05
0.831402 0.00041841 1.90123 0.000597825 -0.155103 -2.78442e-05
0.848869 0.000427201 1.8152 0.000570772 -0.200701 -3.60301e-05
0.864325 0.000434979 1.73071 0.000544207 -0.197629 -3.54785e-05
0.880528 0.000443133 1.62915 0.000512272 -0.161734 -2.90347e-05
0.896436 0.000451139 1.52849 0.000480621 -0.140455 -2.52147e-05
0.911718 0.00045883 1.43345 0.000450736 -0.154595 -2.77531e-05
0.927567 0.000466806 1.33884 0.000420986 -0.186119 -3.34123e-05
0.943119 0.000474633 1.24404 0.000391177 -0.204394 -3.66931e-05
0.958644 0.000482446 1.14725 0.000360743 -0.198052 -3.55546e-05
0.974313 0.000490332 1.05153 0.000330645 -0.18202 -3.26764e-05
0.990135 0.000498294 0.960739 0.000302096 -0.177329 -3.18343e-05
1.00626 0.000506408 0.874269 0.000274906 -0.1888 -3.38937e-05
1.02269 0.000514677 0.790737 0.00024864 -0.20405 -3.66313e-05
1.0396 0.000523189 0.709477 0.000223089 -0.209325 -3.75784e-05
1.05718 0.000532037 0.631169 0.000198465 -0.203302 -3.6497e-05
1.07547 0.000541238 0.557443 0.000175283 -0.19578 -3.51467e-05
1.09447 0.000550799 0.488736 0.000153679 -0.195469 -3.50909e-05
1.11418 0.00056072 0.424869 0.000133596 -0.201672 -3.62044e-05
1.13466 0.000571025 0.365898 0.000115053 -0.207022 -3.71649e-05
1.15545 0.00058149 0.312769 9.83473e-05 -0.206182 -3.70141e-05
1.16856 0.000588088 0.282245 8.87493e-05 -0.201866 -3.62392e-05
1.18375 0.00059573 0.25947 8.15879e-05 -0.199661 -3.58433e-05
1.20378 0.000605812 0.224569 7.06136e-05 -0.197311 -3.54215e-05
1.21901 0.000613478 0.211076 6.63709e-05 -0.197521 -3.54593e-05
1.23591 0.000621983 0.203554 6.40058e-05 -0.197991 -3.55436e-05
1.25601 0.000632098 0.19491 6.12877e-05 -0.195037 -3.50133e-05
1.2752 0.000641755 0.195995 6.16287e-05 -0.191847 -3.44406e-05
1.2949 0.000651669 0.204068 6.41675e-05 -0.187102 -3.35888e-05
1.31493 0.000661749 0.220019 6.91831e-05 -0.18025 -3.23586e-05
1.33306 0.000670874 0.231473 7.27846e-05 -0.177137 -3.17999e-05
1.34985 0.000679324 0.233234 7.33382e-05 -0.172021 -3.08815e-05
1.36882 0.000688872 0.254213 7.99351e-05 -0.166802 -2.99444e-05
1.3865 0.000697766 0.27904 8.77416e-05 -0.158859 -2.85186e-05
1.40275 0.000705948 0.310318 9.75768e-05 -0.141139 -2.53374e-05
1.41786 0.00071355 0.349831 0.000110001 -0.0794274 -1.42589e-05
1.43171 0.000720521 0.40072 0.000126003 0.0271808 4.87953e-06
1.44385 0.00072663 0.462575 0.000145452 0.175414 3.14905e-05
1.45389 0.000731685 0.535459 0.00016837 0.365402 6.55974e-05
1.46234 0.000735933 0.612812 0.000192693 0.407533 7.31609e-05
1.47017 0.000739877 0.682786 0.000214696 0.455055 8.1692e-05
1.4759 0.000742757 0.771104 0.000242467 0.482647 8.66454e-05
1.4795 0.00074457 0.856599 0.00026935 0.553033 9.92812e-05
1.47934 0.00074449 0.947198 0.000297838 0.637259 0.000114401
1.47331 0.000741458 1.04445 0.000328416 0.712532 0.000127915
1.46193 0.000735727 1.14594 0.000360331 0.77417 0.00013898
1.44499 0.000727203 1.25244 0.000393817 0.835674 0.000150021
1.42212 0.000715693 1.35884 0.000427275 0.913518 0.000163996
1.39381 0.000701449 1.46347 0.000460175 1.00898 0.000181133
1.36001 0.000684435 1.56888 0.000493319 1.10954 0.000199186
1.32122 0.000664914 1.67474 0.000526607 1.20493 0.000216311
1.27792 0.000643123 1.78007 0.000559726 1.29582 0.000232627
1.23046 0.000619241 1.88396 0.000592394 1.39044 0.000249613
1.18069 0.00059419 1.98584 0.000624431 1.49462 0.000268316
1.12759 0.000567472 2.0864 0.00065605 1.60619 0.000288346
1.0738 0.000540402 2.18485 0.000687008 1.71728 0.000308288
1.02084 0.000513747 2.2815 0.000717397 1.82421 0.000327485
0.968996 0.000487655 2.3763 0.000747205 1.9288 0.000346262
0.917282 0.00046163 2.46892 0.000776331 2.03514 0.000365351
0.865453 0.000435546 2.55116 0.000802189 2.14437 0.00038496
0.808473 0.000406871 2.57925 0.000811021 2.25042 0.000403997
0.747353 0.000376112 2.62032 0.000823937 2.34237 0.000420506
0.696036 0.000350286 2.65375 0.000834449 2.4416 0.000438319
0.642536 0.000323362 2.6836 0.000843833 2.53625 0.00045531
0.588765 0.000296301 2.71346 0.000853222 2.62034 0.000470408
0.541966 0.000272749 2.74062 0.000861765 2.70597 0.000485779
0.498015 0.00025063 2.76777 0.000870301 2.78945 0.000500765
0.454891 0.000228928 2.79508 0.000878887 2.8654 0.0005144
0.416741 0.000209728 2.81874 0.000886327 2.93519 0.000526929
0.383174 0.000192836 2.83932 0.000892799 2.99923 0.000538426
0.35249 0.000177394 2.85894 0.000898967 3.05754 0.000548894
0.325899 0.000164012 2.87719 0.000904706 3.11123 0.000558532
0.303639 0.000152809 2.89334 0.000909785 3.15905 0.000567117
0.285219 0.000143539 2.90711 0.000914116 3.19943 0.000574366
0.270738 0.000136251 2.91842 0.00091767 3.233 0.000580393
0.259989 0.000130842 2.92776 0.000920607 3.26071 0.000585367
0.25288 0.000127264 2.93542 0.000923017 3.28266 0.000589308
0.249103 0.000125363 2.94107 0.000924794 3.2987 0.000592187
0.247857 0.000124736 2.94437 0.00092583 3.30862 0.000593968
0.249551 0.000125589 2.94542 0.000926159 3.29948 0.000592327
0.253784 0.000127719 2.94413 0.000925756 3.24994 0.000583434
0.260911 0.000131306 2.93964 0.000924342 3.1661 0.000568383
0.273889 0.000137837 2.93222 0.000922009 3.05227 0.000547947
0.297927 0.000149934 2.92081 0.000918423 2.91321 0.000522982
0.31641 0.000159236 2.90678 0.000914011 2.74352 0.00049252
0.334422 0.000168301 2.88512 0.000907199 2.53695 0.000455436
0.349936 0.000176108 2.85284 0.000897051 2.30493 0.000413784
0.359686 0.000181015 2.80951 0.000883424 2.05 0.000368019
0.364966 0.000183672 2.75325 0.000865733 1.77465 0.000318587
0.369008 0.000185707 2.68401 0.000843964 1.47972 0.000265642
0.370331 0.000186372 2.60402 0.000818812 1.16727 0.00020955
0.364495 0.000183435 2.5142 0.000790568 0.841629 0.00015109
0.359613 0.000180978 2.41889 0.000760598 0.51028 9.16061e-05
0.354508 0.000178409 2.32548 0.000731228 0.178153 3.19822e-05
0.345113 0.000173681 2.22994 0.000701184 -0.0363451 -6.52471e-06
0.328742 0.000165442 2.14123 0.000673292 -0.0452438 -8.12223e-06
0.310157 0.000156089 2.04651 0.000643507 -0.0942802 -1.69253e-05
0.294231 0.000148074 1.93667 0.000608969 -0.130599 -2.34453e-05
0.274997 0.000138395 1.83367 0.00057658 -0.134159 -2.40845e-05
0.256381 0.000129026 1.72411 0.000542132 -0.117196 -2.10393e-05
0.238363 0.000119958 1.61163 0.000506762 -0.113315 -2.03424e-05
0.221137 0.000111289 1.49755 0.000470892 -0.134188 -2.40896e-05
0.205277 0.000103307 1.3834 0.000434998 -0.163878 -2.94196e-05
0.191013 9.61287e-05 1.27195 0.000399952 -0.181918 -3.26581e-05
0.17943 9.02998e-05 1.16195 0.000365364 -0.183529 -3.29474e-05
0.170865 8.59895e-05 1.05334 0.000331212 -0.180767 -3.24515e-05
0.165574 8.33265e-05 0.947864 0.000298047 -0.186329 -3.34501e-05
0.164314 8.26924e-05 0.847395 0.000266456 -0.200849 -3.60566e-05
0.167409 8.42498e-05 0.753022 0.000236781 -0.215171 -3.86277e-05
0.17524 8.81911e-05 0.664105 0.000208822 -0.221488 -3.97618e-05
0.187835 9.45297e-05 0.580349 0.000182485 -0.220559 -3.9595e-05
0.205129 0.000103233 0.502672 0.000158061 -0.218885 -3.92945e-05
0.227375 0.000114429 0.432001 0.000135839 -0.221009 -3.96758e-05
0.254209 0.000127933 0.368468 0.000115861 -0.225587 -4.04977e-05
0.285426 0.000143643 0.311818 9.80482e-05 -0.228098 -4.09485e-05
0.320741 0.000161416 0.261656 8.22754e-05 -0.225983 -4.05687e-05
0.359452 0.000180897 0.218122 6.85864e-05 -0.220769 -3.96327e-05
0.401161 0.000201888 0.181216 5.69818e-05 -0.215681 -3.87194e-05
0.443854 0.000223373 0.150897 4.74482e-05 -0.212232 -3.81001e-05
0.489715 0.000246453 0.126407 3.97475e-05 -0.209576 -3.76233e-05
0.537286 0.000270394 0.107523 3.38096e-05 -0.206405 -3.70541e-05
0.583699 0.000293752 0.0947456 2.97919e-05 -0.200783 -3.60448e-05
0.628724 0.000316411 0.0877817 2.76022e-05 -0.193628 -3.47603e-05
0.671519 0.000337948 0.0850392 2.67398e-05 -0.185905 -3.33739e-05
0.711324 0.00035798 0.0811868 2.55285e-05 -0.182074 -3.26862e-05
0.748432 0.000376655 0.0779864 2.45221e-05 -0.179044 -3.21422e-05
0.78296 0.000394032 0.0790326 2.48511e-05 -0.174564 -3.1338e-05
0.814849 0.00041008 0.0831171 2.61354e-05 -0.168853 -3.03126e-05
0.843407 0.000424452 0.0871662 2.74086e-05 -0.164285 -2.94927e-05
0.868356 0.000437008 0.0898984 2.82678e-05 -0.162127 -2.91052e-05
0.889916 0.000447858 0.0922208 2.8998e-05 -0.16151 -2.89944e-05
0.907645 0.00045678 0.095686 3.00876e-05 -0.161076 -2.89166e-05
0.921167 0.000463585 0.0999212 3.14193e-05 -0.160624 -2.88354e-05
0.930032 0.000468047 0.104489 3.28556e-05 -0.121901 -2.18837e-05
0.931615 0.000468843 0.112879 3.54938e-05 -0.0393167 -7.05819e-06
0.924103 0.000465063 0.1262 3.96825e-05 0.0866526 1.5556e-05
0.913803 0.000459879 0.142466 4.4797e-05 0.254375 4.56656e-05
0.898778 0.000452318 0.162589 5.11245e-05 0.301251 5.4081e-05
0.881725 0.000443736 0.173931 5.4691e-05 0.323268 5.80334e-05
0.85961 0.000432606 0.193187 6.0746e-05 0.358464 6.43518e-05
0.834885 0.000420163 0.209092 6.5747e-05 0.424874 7.62738e-05
0.806755 0.000406006 0.228728 7.19215e-05 0.492635 8.84384e-05
0.775735 0.000390395 0.256001 8.04971e-05 0.543436 9.75583e-05
0.743311 0.000374078 0.287973 9.05506e-05 0.585198 0.000105055
0.708709 0.000356664 0.324954 0.000102179 0.63563 0.000114109
0.671264 0.000337819 0.365323 0.000114872 0.703846 0.000126355
0.632442 0.000318282 0.410201 0.000128984 0.782237 0.000140428
0.593356 0.000298612 0.461949 0.000145256 0.8572 0.000153886
0.554671 0.000279143 0.520275 0.000163596 0.924259 0.000165924
0.51764 0.000260507 0.583993 0.000183631 0.989406 0.000177619
0.484349 0.000243753 0.651652 0.000204906 1.06056 0.000190393
0.45526 0.000229114 0.723085 0.000227367 1.13856 0.000204396
0.428429 0.00021561 0.799108 0.000251272 1.21843 0.000218734
0.403377 0.000203003 0.880088 0.000276736 1.2948 0.000232445
0.381215 0.00019185 0.965511 0.000303596 1.36673 0.000245358
0.362914 0.00018264 1.05388 0.000331383 1.43751 0.000258064
0.34777 0.000175018 1.14417 0.000359773 1.51052 0.00027117
0.33533 0.000168758 1.23643 0.000388784 1.58523 0.000284583
0.326217 0.000164171 1.33047 0.000418354 1.65842 0.000297722
0.320187 0.000161137 1.4258 0.00044833 1.72775 0.000310167
0.316665 0.000159364 1.52133 0.000478368 1.79377 0.000322019
0.31535 0.000158703 1.61621 0.000508202 1.85854 0.000333647
0.315871 0.000158965 1.71022 0.000537762 1.92305 0.000345229
0.318113 0.000160093 1.80277 0.000566864 1.98635 0.000356591
0.32156 0.000161828 1.89336 0.00059535 2.04675 0.000367435
0.325864 0.000163994 1.9813 0.000623003 2.10359 0.000377638
0.330412 0.000166283 2.06548 0.000649472 2.15754 0.000387324
0.335676 0.000168932 2.14608 0.000674815 2.20955 0.00039666
0.341326 0.000171775 2.22244 0.000698826 2.2596 0.000405646
0.347216 0.000174739 2.29403 0.000721338 2.30704 0.000414163
0.353247 0.000177775 2.36056 0.000742256 2.35108 0.000422069
0.359497 0.00018092 2.42155 0.000761435 2.39164 0.00042935
0.365489 0.000183936 2.47694 0.000778852 2.42913 0.000436081
0.371198 0.000186808 2.52635 0.000794389 2.46383 0.00044231
0.376544 0.000189499 2.56958 0.00080798 2.49562 0.000448017
0.381477 0.000191982 2.60659 0.000819619 2.52395 0.000453102
0.386072 0.000194294 2.63713 0.00082922 2.54852 0.000457514
0.389923 0.000196232 2.66144 0.000836864 2.56944 0.000461268
0.392937 0.000197749 2.67954 0.000842556 2.58687 0.000464398
0.39493 0.000198752 2.69145 0.000846303 2.60078 0.000466895
0.395331 0.000198954 2.69745 0.000848189 2.61096 0.000468724
0.393774 0.00019817 2.69772 0.000848273 2.6179 0.000469969
0.389837 0.000196189 2.69177 0.000846404 2.62085 0.000470498
0.38386 0.000193181 2.67897 0.000842378 2.61009 0.000468566
0.376431 0.000189442 2.65876 0.000836024 2.57339 0.000461979
0.367714 0.000185055 2.63204 0.000827621 2.51211 0.000450978
0.358175 0.000180255 2.59874 0.000817151 2.42802 0.000435881
0.348284 0.000175277 2.55861 0.000804531 2.31933 0.000416369
0.339319 0.000170765 2.51229 0.000789966 2.18605 0.000392443
0.332799 0.000167484 2.46324 0.000774543 2.03066 0.000364547
0.327978 0.000165058 2.41342 0.000758879 1.85501 0.000333014
0.324186 0.000163149 2.35831 0.00074155 1.65997 0.000297999
0.321617 0.000161856 2.29541 0.00072177 1.4458 0.000259551
0.320541 0.000161315 2.22669 0.000700162 1.2136 0.000217867
0.321247 0.00016167 2.15522 0.000677689 0.965384 0.000173307
0.323164 0.000162635 2.08211 0.000654701 0.703053 0.000126213
0.326303 0.000164215 2.00584 0.000630717 0.428065 7.68467e-05
0.330329 0.000166241 1.9257 0.000605518 0.142069 2.55045e-05
0.334421 0.0001683 1.84363 0.000579714 -0.0407439 -7.3144e-06
0.335826 0.000169007 1.77892 0.000559365 -0.0405842 -7.28573e-06
0.336418 0.000169305 1.71837 0.000540327 -0.0752775 -1.35139e-05
0.339723 0.000170969 1.64764 0.000518086 -0.103669 -1.86108e-05
0.341251 0.000171738 1.58239 0.00049757 -0.106627 -1.91419e-05
0.343325 0.000172781 1.51268 0.000475649 -0.0886167 -1.59086e-05
0.345196 0.000173723 1.44568 0.000454582 -0.076899 -1.3805e-05
0.346544 0.000174401 1.3817 0.000434463 -0.0850091 -1.52609e-05
0.347151 0.000174707 1.31886 0.000414703 -0.103494 -1.85794e-05
0.346686 0.000174473 1.25715 0.000395301 -0.114907 -2.06283e-05
0.344982 0.000173615 1.19629 0.000376162 -0.112012 -2.01085e-05
0.341947 0.000172088 1.13692 0.000357495 -0.103185 -1.85239e-05
0.336872 0.000169534 1.07973 0.000339511 -0.100559 -1.80525e-05
0.329444 0.000165796 1.02469 0.000322204 -0.106918 -1.91941e-05
0.320016 0.000161051 0.971147 0.000305368 -0.115603 -2.07533e-05
0.308413 0.000155212 0.918628 0.000288854 -0.118956 -2.1355e-05
0.294891 0.000148406 0.866672 0.000272517 -0.115451 -2.07259e-05
0.281192 0.000141512 0.815156 0.000256318 -0.111133 -1.99508e-05
0.266604 0.000134171 0.763501 0.000240076 -0.112195 -2.01414e-05
0.248738 0.00012518 0.711859 0.000223838 -0.116714 -2.09527e-05
0.228283 0.000114885 0.660661 0.000207739 -0.120726 -2.16728e-05
0.206946 0.000104147 0.609145 0.00019154 -0.121954 -2.18933e-05
0.18437 9.27856e-05 0.556465 0.000174975 -0.121608 -2.18313e-05
0.159499 8.0269e-05 0.502596 0.000158037 -0.122433 -2.19793e-05
0.132774 6.68195e-05 0.447862 0.000140826 -0.125884 -2.25988e-05
0.10445 5.25651e-05 0.392742 0.000123494 -0.130995 -2.35164e-05
0.0745639 3.75249e-05 0.336889 0.000105932 -0.135822 -2.4383e-05
0.0422694 2.12724e-05 0.279857 8.79985e-05 -0.139579 -2.50574e-05
0.00802993 4.04113e-06 0.222195 6.98673e-05 -0.143141 -2.56969e-05
-0.0278176 -1.39994e-05 0.163783 5.14999e-05 -0.14775 -2.65242e-05
-0.0652054 -3.28152e-05 0.105203 3.30801e-05 -0.153657 -2.75847e-05
-0.103199 -5.1936e-05 0.085938 2.70224e-05 -0.16002 -2.87269e-05
-0.132135 -6.64979e-05 0.0831259 2.61382e-05 -0.152648 -2.74036e-05
-0.138852 -6.98785e-05 0.0782894 2.46174e-05 -0.143469 -2.57558e-05
-0.150855 -7.59189e-05 0.0806464 2.53585e-05 -0.164517 -2.95342e-05
-0.158299 -7.96655e-05 0.0832254 2.61695e-05 -0.147931 -2.65567e-05
-0.165747 -8.34137e-05 0.0857059 2.69495e-05 -0.100627 -1.80646e-05
-0.176207 -8.86778e-05 0.0912395 2.86894e-05 -0.0698686 -1.25429e-05
-0.185903 -9.35573e-05 0.0955635 3.00491e-05 -0.0324505 -5.82556e-06
-0.193733 -9.7498e-05 0.0980655 3.08358e-05 0.0252896 4.54001e-06
-0.202564 -0.000101942 0.1025 3.22303e-05 0.066416 1.19231e-05
-0.211676 -0.000106528 0.108218 3.40283e-05 0.0754329 1.35418e-05
-0.219334 -0.000110382 0.112323 3.53188e-05 0.084676 1.52011e-05
-0.226561 -0.000114019 0.115776 3.64047e-05 0.0921119 1.6536e-05
-0.233713 -0.000117618 0.119044 3.74323e-05 0.0935825 1.68e-05
-0.23984 -0.000120702 0.12134 3.81543e-05 0.104263 1.87175e-05
-0.24524 -0.000123419 0.123201 3.87394e-05 0.117962 2.11767e-05
-0.250133 -0.000125881 0.125048 3.93203e-05 0.126894 2.27802e-05
-0.254277 -0.000127967 0.126547 3.97915e-05 0.129757 2.32941e-05
-0.257543 -0.000129611 0.127484 4.00862e-05 0.131085 2.35326e-05
-0.260074 -0.000130885 0.128055 4.02659e-05 0.134809 2.4201e-05
-0.261879 -0.000131793 0.129542 4.07335e-05 0.141111 2.53325e-05
-0.262681 -0.000132196 0.132756 4.17438e-05 0.146906 2.63727e-05
-0.262254 -0.000131982 0.138653 4.35981e-05 0.150286 2.69796e-05
-0.259749 -0.000130721 0.148563 4.67143e-05 0.151082 2.71224e-05
-0.253759 -0.000127706 0.162365 5.10543e-05 0.152089 2.73031e-05
-0.243861 -0.000122725 0.17998 5.65932e-05 0.155516 2.79184e-05
-0.230931 -0.000116218 0.184591 5.8043e-05 0.154745 2.778e-05
-0.216737 -0.000109075 0.188658 5.93217e-05 0.13892 2.49391e-05
-0.19683 -9.90564e-05 0.193676 6.08995e-05 0.126203 2.26562e-05
-0.174871 -8.80055e-05 0.200716 6.31134e-05 0.115053 2.06545e-05
-0.162764 -8.19122e-05 0.209867 6.59909e-05 0.0985472 1.76913e-05
-0.148986 -7.49786e-05 0.215187 6.76635e-05 0.0896792 1.60993e-05
-0.135492 -6.81875e-05 0.220092 6.92059e-05 0.0849277 1.52463e-05
-0.122538 -6.16685e-05 0.22995 7.23059e-05 0.0745173 1.33774e-05
-0.108671 -5.46896e-05 0.238428 7.49716e-05 0.0724111 1.29993e-05
-0.0934443 -4.70266e-05 0.247253 7.77464e-05 0.0718956 1.29068e-05
-0.078166 -3.93377e-05 0.257629 8.10092e-05 0.0711121 1.27661e-05
-0.0622733 -3.13396e-05 0.267935 8.42497e-05 0.0773865 1.38925e-05
-0.0461281 -2.32144e-05 0.278839 8.76786e-05 0.0879969 1.57973e-05
-0.0298964 -1.50456e-05 0.290967 9.1492e-05 0.101216 1.81705e-05
-0.0133669 -6.72703e-06 0.303358 9.53882e-05 0.119124 2.13853e-05
0.0031693 1.59498e-06 0.31616 9.94137e-05 0.142503 2.55823e-05
0.01954 9.83365e-06 0.329832 0.000103713 0.171516 3.07907e-05
0.0358864 1.80601e-05 0.344272 0.000108253 0.207271 3.72095e-05
0.0520679 2.62036e-05 0.359309 0.000112981 0.224655 4.03303e-05
0.0682696 3.43572e-05 0.37439 0.000117724 0.239562 4.30064e-05
0.0842583 4.24037e-05 0.390295 0.000122725 0.253723 4.55487e-05
0.0997531 5.02016e-05 0.407259 0.000128059 0.269803 4.84354e-05
0.115195 5.79726e-05 0.424394 0.000133447 0.288585 5.18072e-05
0.130249 6.55488e-05 0.442132 0.000139024 0.309814 5.56182e-05
0.144876 7.291e-05 0.460747 0.000144878 0.332252 5.96463e-05
0.159291 8.01648e-05 0.479929 0.000150909 0.355913 6.3894e-05
0.173458 8.72942e-05 0.499664 0.000157115 0.381077 6.84115e-05
0.187281 9.42508e-05 0.520104 0.000163542 0.408128 7.32676e-05
0.20088 0.000101095 0.541094 0.000170142 0.437349 7.85134e-05
0.213881 0.000107637 0.562644 0.000176918 0.468377 8.40837e-05
0.227137 0.000114309 0.584872 0.000183908 0.500612 8.98705e-05
0.240511 0.000121039 0.60773 0.000191095 0.534061 9.58754e-05
0.253179 0.000127415 0.631151 0.00019846 0.568939 0.000102137
0.265439 0.000133584 0.654967 0.000205949 0.605295 0.000108663
0.277916 0.000139864 0.679259 0.000213587 0.642859 0.000115407
0.290611 0.000146252 0.70416 0.000221417 0.681426 0.00012233
0.303306 0.000152641 0.729574 0.000229408 0.720946 0.000129425
0.316115 0.000159087 0.755468 0.00023755 0.761301 0.00013667
0.329456 0.000165802 0.781837 0.000245841 0.802377 0.000144044
0.343465 0.000172852 0.808679 0.000254282 0.844146 0.000151542
0.358018 0.000180176 0.836045 0.000262887 0.886517 0.000159149
0.373159 0.000187795 0.863857 0.000271632 0.929256 0.000166821
0.388995 0.000195765 0.89208 0.000280506 0.972122 0.000174517
0.40556 0.000204101 0.920698 0.000289505 1.015 0.000182214
0.422758 0.000212757 0.949689 0.000298621 1.05782 0.000189902
0.440491 0.000221681 0.979087 0.000307865 1.10049 0.000197561
0.458759 0.000230875 1.00881 0.000317213 1.14281 0.000205159
0.47749 0.000240301 1.03883 0.000326651 1.18463 0.000212666
0.496589 0.000249913 1.06913 0.000336179 1.22589 0.000220074
0.515952 0.000259657 1.09967 0.000345782 1.2666 0.000227381
0.535448 0.000269469 1.13048 0.00035547 1.30673 0.000234587
0.554985 0.000279301 1.16148 0.000365218 1.34628 0.000241686
0.574388 0.000289066 1.1926 0.000375002 1.38523 0.000248678
0.593502 0.000298685 1.22381 0.000384815 1.42363 0.000255572
0.612224 0.000308107 1.25502 0.000394631 1.46161 0.00026239
0.630401 0.000317255 1.28627 0.000404456 1.49929 0.000269155
0.64778 0.000326001 1.31738 0.000414237 1.53686 0.000275899
0.664404 0.000334367 1.34832 0.000423966 1.57448 0.000282653
0.680344 0.000342389 1.37914 0.000433658 1.61215 0.000289415
0.695376 0.000349954 1.40969 0.000443264 1.65024 0.000296253
0.709604 0.000357114 1.43997 0.000452785 1.68881 0.000303177
0.722988 0.00036385 1.46992 0.000462203 1.72807 0.000310225
0.735494 0.000370144 1.49948 0.000471498 1.76808 0.000317409
0.747023 0.000375946 1.52859 0.000480652 1.80895 0.000324746
0.757589 0.000381263 1.55715 0.000489631 1.85071 0.000332242
0.767148 0.000386074 1.5851 0.000498421 1.89336 0.000339898
0.775708 0.000390382 1.61242 0.000507011 1.93688 0.000347711
0.783276 0.00039419 1.63902 0.000515374 1.98121 0.000355668
0.789843 0.000397495 1.6649 0.000523511 2.02621 0.000363747
0.795493 0.000400339 1.68997 0.000531396 2.07171 0.000371916
0.800273 0.000402744 1.71419 0.000539013 2.11751 0.000380139
0.804266 0.000404754 1.73754 0.000546355 2.1634 0.000388377
0.807652 0.000406458 1.75996 0.000553404 2.20914 0.000396587
0.810546 0.000407914 1.7815 0.000560177 2.25446 0.000404723
0.813078 0.000409188 1.80214 0.000566667 2.29905 0.000412729
0.815381 0.000410347 1.82184 0.000572861 2.34254 0.000420536
0.817583 0.000411456 1.84057 0.000578752 2.38456 0.00042808
0.819883 0.000412613 1.85828 0.00058432 2.42479 0.000435301
0.82246 0.00041391 1.87503 0.000589587 2.46292 0.000442147
0.825577 0.000415479 1.89087 0.000594568 2.49869 0.000448567
0.829418 0.000417412 1.90582 0.000599267 2.53177 0.000454507
0.834323 0.00041988 1.9199 0.000603696 2.5619 0.000459916
0.840416 0.000422947 1.93309 0.000607841 2.58884 0.000464751
0.847764 0.000426645 1.94541 0.000611716 2.61237 0.000468977
0.85655 0.000431066 1.95691 0.000615331 2.63231 0.000472556
0.866887 0.000436268 1.96759 0.00061869 2.64848 0.000475458
0.878744 0.000442236 1.97752 0.000621813 2.66075 0.000477662
0.892122 0.000448968 1.98666 0.000624687 2.66906 0.000479154
0.906988 0.000456449 1.99503 0.000627319 2.67337 0.000479927
0.923343 0.00046468 2.00258 0.000629692 2.65313 0.000476294
0.9413 0.000473717 2.00847 0.000631546 2.61089 0.000468711
0.960701 0.000483481 2.01286 0.000632926 2.54735 0.000457304
0.981222 0.000493808 2.01609 0.000633942 2.4635 0.00044225
1.0028 0.000504668 2.01813 0.000634584 2.35973 0.000423622
1.02516 0.000515922 2.01923 0.000634927 2.23712 0.000401612
1.04802 0.000527425 2.01949 0.000635011 2.09894 0.000376805
1.07116 0.00053907 2.01891 0.000634828 1.95022 0.000350105
1.09438 0.000550754 2.01761 0.00063442 1.79485 0.000322213
1.11739 0.000562336 2.01588 0.000633875 1.6355 0.000293607
1.13977 0.000573599 2.0138 0.000633221 1.47523 0.000264836
1.16159 0.000584579 2.01162 0.000632536 1.31719 0.000236464
1.18246 0.000595083 2.00941 0.000631842 1.16541 0.000209216
1.20212 0.000604979 2.00728 0.000631172 1.02384 0.000183802
1.22042 0.000614186 2.00536 0.000630566 0.895186 0.000160705
1.2371 0.000622583 2.00383 0.000630086 0.781651 0.000140323
1.25199 0.000630073 2.00276 0.000629749 0.685087 0.000122988
1.26484 0.000636544 2.00221 0.000629578 0.607521 0.000109063
1.27556 0.000641939 2.00225 0.000629589 0.550585 9.88418e-05
1.28405 0.000646211 2.00287 0.000629786 0.515319 9.25107e-05
1.29022 0.000649313 2.00418 0.000630196 0.502017 9.01227e-05
1.29404 0.000651238 2.00589 0.000630734 0.510509 9.16472e-05
1.29532 0.000651879 2.00619 0.000630829 0.539313 9.68181e-05
1.29357 0.000651 2.00479 0.000630388 0.586035 0.000105206
1.28834 0.000648366 2.00052 0.000629047 0.651237 0.000116911
1.27911 0.000643724 1.994 0.000626994 0.733442 0.000131668
1.26572 0.000636985 1.98633 0.000624584 0.830781 0.000149143
1.24833 0.000628235 1.9776 0.000621839 0.940661 0.000168869
1.22751 0.000617756 1.96795 0.000618803 1.06085 0.000190445
1.20442 0.000606133 1.95773 0.00061559 1.18872 0.000213401
1.17956 0.000593623 1.94784 0.000612482 1.32182 0.000237295
1.15367 0.000580596 1.93882 0.000609645 1.45729 0.000261615
1.12778 0.000567565 1.93095 0.000607169 1.59214 0.000285822
1.10289 0.000555041 1.92461 0.000605177 1.72381 0.000309461
1.08004 0.000543538 1.92054 0.000603895 1.85001 0.000332117
1.05944 0.000533171 1.91919 0.000603472 1.96841 0.000353372
1.04145 0.000524121 1.92035 0.000603836 2.07671 0.000372813
1.02629 0.00051649 1.92375 0.000604906 2.17255 0.000390019
1.0138 0.000510203 1.92963 0.000606753 2.25447 0.000404726
1.00402 0.000505281 1.93789 0.000609351 2.32119 0.000416704
0.996795 0.000501645 1.94873 0.000612761 2.37215 0.000425851
0.991915 0.00049919 1.96206 0.000616951 2.40685 0.00043208
0.989352 0.0004979 1.97749 0.000621805 2.42537 0.000435406
0.988582 0.000497513 1.99491 0.000627282 2.42816 0.000435907
0.989391 0.000497919 2.0138 0.000633221 2.41613 0.000433746
0.991376 0.000498918 2.0338 0.000639509 2.39051 0.000429148
0.993809 0.000500143 2.05477 0.000646104 2.35282 0.000422382
0.994972 0.000500728 2.07488 0.000652426 2.3031 0.000413456
0.995137 0.000500811 2.09125 0.000657575 2.24499 0.000403024
0.994761 0.000500622 2.10782 0.000662784 2.1808 0.0003915
0.992744 0.000499607 2.12435 0.000667982 2.11321 0.000379366
0.986393 0.000496411 2.1206 0.000666803 2.0394 0.000366115
0.975309 0.000490833 2.12156 0.000667107 1.95542 0.00035104
0.964087 0.000485185 2.11745 0.000665812 1.88958 0.00033922
0.947508 0.000476842 2.11357 0.000664594 1.82436 0.000327511
0.926737 0.000466388 2.11022 0.00066354 1.76442 0.000316751
0.902751 0.000454317 2.10482 0.000661842 1.71837 0.000308485
