-0.0541038 -2.72282e-05 -0.139273 -4.3793e-05 -0.0440352 -7.90526e-06
-0.054624 -2.749e-05 -0.139104 -4.374e-05 -0.0440881 -7.91475e-06
-0.0558067 -2.80852e-05 -0.138739 -4.36253e-05 -0.0441762 -7.93057e-06
-0.058239 -2.93093e-05 -0.138043 -4.34065e-05 -0.0442969 -7.95224e-06
-0.0609896 -3.06936e-05 -0.137357 -4.31905e-05 -0.0443666 -7.96474e-06
-0.064513 -3.24667e-05 -0.136621 -4.29593e-05 -0.0443665 -7.96473e-06
-0.0688607 -3.46547e-05 -0.135905 -4.27342e-05 -0.0442382 -7.9417e-06
-0.0740863 -3.72846e-05 -0.135289 -4.25405e-05 -0.0439193 -7.88444e-06
-0.0802503 -4.03867e-05 -0.13487 -4.24088e-05 -0.0433521 -7.78262e-06
-0.087417 -4.39933e-05 -0.134759 -4.23738e-05 -0.0424824 -7.62649e-06
-0.0956422 -4.81328e-05 -0.135075 -4.2473e-05 -0.0412546 -7.40607e-06
-0.10495 -5.2817e-05 -0.13595 -4.27484e-05 -0.0396141 -7.11157e-06
-0.115305 -5.80281e-05 -0.137541 -4.32484e-05 -0.0375166 -6.73503e-06
-0.126569 -6.36971e-05 -0.140004 -4.4023e-05 -0.0349443 -6.27325e-06
-0.138556 -6.97297e-05 -0.143569 -4.51439e-05 -0.0318697 -5.72129e-06
-0.150977 -7.59804e-05 -0.148457 -4.6681e-05 -0.0283033 -5.08105e-06
-0.163451 -8.22583e-05 -0.154872 -4.86982e-05 -0.0242933 -4.36116e-06
-0.175564 -8.8354e-05 -0.162986 -5.12496e-05 -0.0199355 -3.57885e-06
-0.186905 -9.40618e-05 -0.172923 -5.43741e-05 -0.0153844 -2.76182e-06
-0.197082 -9.9183e-05 -0.184733 -5.80875e-05 -0.0108282 -1.9439e-06
-0.205703 -0.000103522 -0.198388 -6.23812e-05 -0.00660242 -1.18527e-06
-0.212351 -0.000106867 -0.213792 -6.72249e-05 -0.00305852 -5.4907e-07
-0.216543 -0.000108977 -0.23079 -7.25698e-05 -0.000591295 -1.0615e-07
-0.217701 -0.00010956 -0.249168 -7.83487e-05 0.000348418 6.25484e-08
-0.215156 -0.000108279 -0.268666 -8.44795e-05 -0.00073713 -1.3233e-07
-0.208219 -0.000104788 -0.28891 -9.08452e-05 -0.00437819 -7.85979e-07
-0.196364 -9.88216e-05 -0.309388 -9.72842e-05 -0.0109977 -1.97432e-06
-0.179472 -9.03209e-05 -0.329408 -0.00010358 -0.0213508 -3.83292e-06
-0.158022 -7.95261e-05 -0.347997 -0.000109425 -0.0360842 -6.47789e-06
-0.133023 -6.69449e-05 -0.363979 -0.00011445 -0.05579 -1.00155e-05
-0.105715 -5.32017e-05 -0.376113 -0.000118265 -0.0808862 -1.45208e-05
-0.0772552 -3.88793e-05 -0.383248 -0.000120509 -0.111758 -2.00629e-05
-0.0487355 -2.45265e-05 -0.384476 -0.000120895 -0.148516 -2.66618e-05
-0.0210393 -1.05882e-05 -0.379168 -0.000119226 -0.190979 -3.42848e-05
0.00523014 2.63211e-06 -0.36699 -0.000115397 -0.238634 -4.28398e-05
0.0300528 1.51243e-05 -0.347861 -0.000109382 -0.290647 -5.21773e-05
0.0530675 2.67067e-05 -0.321983 -0.000101245 -0.345961 -6.21073e-05
0.0747914 3.76394e-05 -0.290087 -9.12153e-05 -0.403092 -7.23636e-05
0.095027 4.78232e-05 -0.252881 -7.95162e-05 -0.460528 -8.26745e-05
0.113959 5.7351e-05 -0.211252 -6.64264e-05 -0.516409 -9.27063e-05
0.131726 6.6292e-05 -0.166366 -5.23124e-05 -0.568944 -0.000102138
0.148436 7.47016e-05 -0.119353 -3.75296e-05 -0.61622 -0.000110625
0.164001 8.2535e-05 -0.071335 -2.24307e-05 -0.6564 -0.000117838
0.178088 8.96242e-05 -0.0233785 -7.35114e-06 -0.687704 -0.000123458
0.190257 9.57482e-05 0.0235077 7.39179e-06 -0.708479 -0.000127187
0.200218 0.000100761 0.068447 2.15225e-05 -0.717221 -0.000128757
0.208099 0.000104727 0.110133 3.46303e-05 -0.712359 -0.000127884
0.214471 0.000107934 0.147438 4.63605e-05 -0.693323 -0.000124466
0.220462 0.000110949 0.179338 5.63912e-05 -0.659147 -0.000118331
0.227619 0.000114551 0.20482 6.44037e-05 -0.609369 -0.000109395
0.241169 0.00012137 0.226234 7.11374e-05 -0.525281 -9.42991e-05
0.26376 0.000132739 0.234951 7.38782e-05 -0.417949 -7.50308e-05
0.299225 0.000150588 0.23094 7.26169e-05 -0.289584 -5.19865e-05
0.350192 0.000176237 0.215611 6.77968e-05 -0.14371 -2.57989e-05
0.41758 0.000210151 0.191923 6.03484e-05 0.0161608 2.90121e-06
0.50033 0.000251795 0.164288 5.16589e-05 0.18391 3.30158e-05
0.595282 0.000299581 0.138424 4.35263e-05 0.35138 6.30801e-05
0.69748 0.000351013 0.12088 3.80095e-05 0.512675 9.2036e-05
0.801293 0.000403258 0.118098 3.71349e-05 0.661331 0.000118723
0.901928 0.000453903 0.135527 4.26154e-05 0.792027 0.000142186
0.99635 0.000501421 0.176982 5.56505e-05 0.900971 0.000161743
1.08325 0.000545155 0.244368 7.68392e-05 0.986548 0.000177106
1.16259 0.000585081 0.3377 0.000106187 1.04897 0.000188313
1.23511 0.00062158 0.455313 0.000143169 1.09021 0.000195715
1.30184 0.000655161 0.594144 0.000186823 1.11385 0.00019996
1.36341 0.000686147 0.750099 0.000235862 1.125 0.000201961
1.42007 0.00071466 0.918287 0.000288747 1.12982 0.000202827
1.47231 0.000740952 1.09309 0.000343712 1.1352 0.000203793
1.52144 0.00076568 1.26827 0.000398797 1.14829 0.000206142
1.56949 0.000789861 1.43736 0.000451965 1.17614 0.000211142
1.61854 0.000814543 1.59424 0.000501293 1.22518 0.000219946
1.6698 0.000840339 1.7338 0.000545176 1.30064 0.000233492
1.7231 0.000867162 1.85237 0.000582461 1.40613 0.000252431
1.77744 0.00089451 1.9477 0.000612437 1.54353 0.000277096
1.83172 0.000921829 2.01878 0.000634786 1.71291 0.000307504
1.88498 0.000948633 2.06575 0.000649556 1.91254 0.000343342
1.93645 0.000974536 2.08987 0.000657142 2.13895 0.000383987
1.9856 0.000999269 2.09341 0.000658253 2.38707 0.000428531
2.03217 0.00102271 2.07943 0.00065386 2.65055 0.000475829
2.07611 0.00104482 2.0517 0.000645139 2.92195 0.000524552
2.11741 0.0010656 2.01446 0.00063343 3.19316 0.00057324
2.15609 0.00108507 1.97226 0.000620159 3.45573 0.000620376
2.19242 0.00110335 1.92959 0.000606744 3.70128 0.000664459
2.2271 0.00112081 1.89064 0.000594495 3.92197 0.000704077
2.26131 0.00113802 1.85903 0.000584555 4.11075 0.000737967
2.29622 0.00115559 1.83784 0.000577892 4.2617 0.000765066
2.33222 0.00117371 1.82972 0.000575339 4.37018 0.00078454
2.36821 0.00119182 1.83699 0.000577624 4.43299 0.000795816
2.40162 0.00120864 1.86145 0.000585315 4.44861 0.000798619
2.42916 0.0012225 1.904 0.000598697 4.41735 0.000793008
2.44481 0.00123037 1.95087 0.000613435 4.36007 0.000782725
2.45413 0.00123506 2.02405 0.000636444 4.25156 0.000763246
2.45044 0.00123321 2.11044 0.000663608 4.10755 0.000737392
2.43296 0.00122441 2.20546 0.000693487 3.93543 0.000706493
2.40143 0.00120854 2.30346 0.000724304 3.74381 0.000672093
2.35567 0.00118551 2.39817 0.000754083 3.54201 0.000635867
2.29561 0.00115529 2.48298 0.000780749 3.33959 0.000599528
2.22128 0.00111788 2.5513 0.000802235 3.14579 0.000564736
2.13262 0.00107326 2.59697 0.000816595 2.96902 0.000533002
2.02964 0.00102144 2.61448 0.000822099 2.81645 0.000505613
1.91248 0.000962474 2.59924 0.000817307 2.69357 0.000483553
1.78132 0.000896466 2.54784 0.000801146 2.60388 0.000467452
1.63659 0.00082363 2.45814 0.000772941 2.54869 0.000457544
1.47956 0.000744604 2.3292 0.000732395 2.52704 0.000453657
1.3129 0.000660727 2.16112 0.000679546 2.53573 0.000455217
1.14033 0.000573879 1.95526 0.000614815 2.56931 0.000461245
0.965441 0.000485866 1.71457 0.000539132 2.62015 0.000470373
0.791166 0.000398161 1.44372 0.000453965 2.6787 0.000480883
0.619995 0.000312018 1.14882 0.000361237 2.73387 0.000490787
0.454133 0.000228546 0.837099 0.000263218 2.77356 0.000497914
0.295439 0.000148682 0.516571 0.000162431 2.78525 0.000500012
0.145193 7.30694e-05 0.195798 6.15669e-05 2.75658 0.000494865
0.00601357 3.02638e-06 -0.115932 -3.64538e-05 2.67583 0.000480369
-0.123542 -6.21735e-05 -0.409038 -0.000128618 2.53449 0.000454995
-0.247396 -0.000124504 -0.677487 -0.00021303 2.32285 0.000417001
-0.367369 -0.000184882 -0.914226 -0.00028747 2.03631 0.00036556
-0.48444 -0.000243798 -1.11459 -0.000350471 1.67277 0.000300297
-0.597337 -0.000300615 -1.27724 -0.000401616 1.23311 0.000221369
-0.704238 -0.000354414 -1.40256 -0.000441021 0.721925 0.000129601
-0.803979 -0.000404609 -1.49219 -0.000469207 0.147913 2.65535e-05
-0.89685 -0.000451347 -1.54891 -0.000487039 -0.468599 -8.41234e-05
-0.984644 -0.000495531 -1.57727 -0.00049596 -1.12576 -0.000202098
-1.06991 -0.000538439 -1.58219 -0.000497506 -1.80675 -0.000324351
-1.15502 -0.000581276 -1.56961 -0.00049355 -2.49453 -0.000447822
-1.2424 -0.000625249 -1.54651 -0.000486287 -3.17229 -0.000569494
-1.33466 -0.000671681 -1.52014 -0.000477994 -3.82369 -0.000686434
-1.43453 -0.000721941 -1.4976 -0.000470908 -4.43113 -0.000795482
-1.54449 -0.000777276 -1.48586 -0.000467214 -4.97851 -0.000893749
-1.66625 -0.000838553 -1.49162 -0.000469027 -5.45187 -0.000978727
-1.80006 -0.000905897 -1.52117 -0.000478319 -5.83978 -0.00104836
-1.94419 -0.00097843 -1.58013 -0.000496859 -6.13305 -0.00110101
-2.09502 -0.00105433 -1.6732 -0.000526124 -6.32554 -0.00113557
-2.24805 -0.00113135 -1.80349 -0.000567092 -6.415 -0.00115163
-2.39897 -0.0012073 -1.97183 -0.000620023 -6.40339 -0.00114955
-2.54426 -0.00128042 -2.17642 -0.000684355 -6.29661 -0.00113037
-2.68154 -0.00134951 -2.41284 -0.000758697 -6.10435 -0.00109586
-2.80956 -0.00141394 -2.67425 -0.000840893 -5.83985 -0.00104838
-2.92803 -0.00147356 -2.9517 -0.000928136 -5.51929 -0.000990831
-3.03751 -0.00152865 -3.23476 -0.00101714 -5.16097 -0.000926503
-3.13899 -0.00157972 -3.51218 -0.00110437 -4.78422 -0.000858869
-3.23331 -0.00162719 -3.77272 -0.0011863 -4.40849 -0.000791418
-3.32088 -0.00167126 -4.00589 -0.00125962 -4.0524 -0.000727492
-3.40181 -0.00171199 -4.20244 -0.00132142 -3.73287 -0.00067013
-3.47601 -0.00174933 -4.3548 -0.00136933 -3.4643 -0.000621915
-3.52856 -0.00177578 -4.45405 -0.00140054 -3.2591 -0.000585078
-3.52917 -0.00177608 -4.47012 -0.00140559 -3.13772 -0.000563288
-3.52726 -0.00177512 -4.43753 -0.00139534 -3.08501 -0.000553825
-3.54705 -0.00178509 -4.37592 -0.00137597 -3.09399 -0.000555437
-3.56645 -0.00179485 -4.27106 -0.001343 -3.16979 -0.000569044
-3.5729 -0.00179809 -4.12772 -0.00129793 -3.30548 -0.000593404
-3.50357 -0.0017632 -3.98326 -0.0012525 -3.47974 -0.000624688
-3.42937 -0.00172586 -3.81197 -0.00119864 -3.69516 -0.000663361
-3.34382 -0.00168281 -3.61478 -0.00113663 -3.93988 -0.000707292
-3.25356 -0.00163738 -3.40422 -0.00107043 -4.19991 -0.000753973
-3.16152 -0.00159106 -3.1884 -0.00100256 -4.46117 -0.000800876
-3.06989 -0.00154495 -2.97222 -0.000934589 -4.70941 -0.000845439
-2.98311 -0.00150127 -2.76391 -0.000869085 -4.93057 -0.000885142
-2.90432 -0.00146162 -2.57101 -0.000808431 -5.11269 -0.000917837
-2.83593 -0.00142721 -2.39967 -0.000754554 -5.24447 -0.000941494
-2.78089 -0.00139951 -2.25546 -0.000709208 -5.31565 -0.000954272
-2.74128 -0.00137957 -2.14265 -0.000673737 -5.31959 -0.00095498
-2.71839 -0.00136805 -2.06455 -0.000649179 -5.25291 -0.000943009
-2.71314 -0.00136541 -2.0234 -0.00063624 -5.11412 -0.000918093
-2.72561 -0.00137169 -2.01973 -0.000635085 -4.9044 -0.000880445
-2.75514 -0.00138655 -2.05275 -0.000645469 -4.62853 -0.00083092
-2.79827 -0.00140825 -2.1213 -0.000667025 -4.29425 -0.000770909
-2.83724 -0.00142787 -2.22725 -0.000700339 -3.91012 -0.00070195
-2.86885 -0.00144378 -2.36582 -0.000743911 -3.48929 -0.000626402
-2.89143 -0.00145514 -2.52961 -0.000795413 -3.047 -0.000547002
-2.90449 -0.00146171 -2.7093 -0.000851916 -2.60045 -0.000466836
-2.90829 -0.00146362 -2.85779 -0.000898606 -2.25241 -0.000404356
-2.90654 -0.00146274 -3.00464 -0.000944783 -1.92263 -0.000345153
-2.89956 -0.00145923 -3.14441 -0.00098873 -1.61997 -0.000290818
-2.88761 -0.00145322 -3.27185 -0.0010288 -1.35273 -0.000242844
-2.87093 -0.00144482 -3.38224 -0.00106352 -1.12849 -0.000202587
-2.84964 -0.0014341 -3.4715 -0.00109158 -0.953709 -0.000171211
-2.82367 -0.00142104 -3.53625 -0.00111194 -0.833452 -0.000149622
-2.79263 -0.00140542 -3.57405 -0.00112383 -0.771178 -0.000138443
-2.75564 -0.0013868 -3.58347 -0.00112679 -0.768756 -0.000138008
-2.71141 -0.00136454 -3.56412 -0.00112071 -0.826467 -0.000148368
-2.65837 -0.00133785 -3.51663 -0.00110577 -0.942967 -0.000169283
-2.59499 -0.00130595 -3.44238 -0.00108243 -1.11532 -0.000200223
-2.52025 -0.00126834 -3.34333 -0.00105128 -1.33913 -0.000240402
-2.43387 -0.00122486 -3.22181 -0.00101307 -1.60875 -0.000288805
-2.33645 -0.00117584 -3.08043 -0.000968612 -1.9175 -0.000344232
-2.22933 -0.00112193 -2.922 -0.000918796 -2.25776 -0.000405317
-2.1142 -0.00106399 -2.74963 -0.000864596 -2.62113 -0.000470548
-1.99265 -0.00100282 -2.56674 -0.000807089 -2.99852 -0.000538298
-1.86601 -0.000939085 -2.37705 -0.000747443 -3.38046 -0.000606865
-1.73543 -0.000873369 -2.18443 -0.000686874 -3.75731 -0.000674517
-1.60201 -0.000806225 -1.99272 -0.000626593 -4.11949 -0.000739535
-1.46689 -0.000738223 -1.80558 -0.000567748 -4.45774 -0.00080026
-1.33118 -0.00066993 -1.62639 -0.000511405 -4.76335 -0.000855122
-1.19589 -0.000601843 -1.45822 -0.000458524 -5.0283 -0.000902687
-1.06185 -0.000534386 -1.3037 -0.000409936 -5.24554 -0.000941686
-0.929765 -0.000467912 -1.16496 -0.000366311 -5.40908 -0.000971045
-0.800277 -0.000402746 -1.04354 -0.000328132 -5.51418 -0.000989913
-0.673999 -0.000339196 -0.940311 -0.000295672 -5.55741 -0.000997674
-0.551497 -0.000277546 -0.855482 -0.000268998 -5.53675 -0.000993964
-0.43329 -0.000218057 -0.788593 -0.000247966 -5.45156 -0.000978671
-0.319836 -0.00016096 -0.738548 -0.00023223 -5.30262 -0.000951934
-0.211515 -0.000106447 -0.703659 -0.000221259 -5.09205 -0.00091413
-0.108646 -5.46768e-05 -0.681706 -0.000214356 -4.82318 -0.000865863
-0.0115098 -5.79241e-06 -0.670009 -0.000210678 -4.5005 -0.000807936
0.0662543 3.3343e-05 -0.663534 -0.000208642 -4.12934 -0.000741305
0.105742 5.32158e-05 -0.650518 -0.000204549 -3.71981 -0.000667786
0.144291 7.26158e-05 -0.63929 -0.000201019 -3.27246 -0.000587476
0.179923 9.05476e-05 -0.628994 -0.000197782 -2.79514 -0.000501787
0.21187 0.000106625 -0.618711 -0.000194548 -2.29486 -0.000411976
0.242223 0.000121901 -0.604595 -0.000190109 -1.77833 -0.000319248
0.272997 0.000137388 -0.583967 -0.000183623 -1.25278 -0.0002249
0.30542 0.000153705 -0.555982 -0.000174823 -0.72542 -0.000130228
0.340973 0.000171597 -0.51964 -0.000163396 -0.203424 -3.65189e-05
0.38139 0.000191938 -0.472956 -0.000148717 0.313806 5.63349e-05
0.427979 0.000215384 -0.414632 -0.000130377 0.812605 0.00014588
0.481454 0.000242296 -0.343459 -0.000107998 1.28716 0.000231072
0.542401 0.000272968 -0.258411 -8.1255e-05 1.7333 0.000311163
0.611116 0.000307549 -0.158997 -4.99952e-05 2.14673 0.000385383
0.687598 0.00034604 -0.0449849 -1.41451e-05 2.52347 0.000453017
0.771595 0.000388312 0.0835332 2.62662e-05 2.86015 0.000513457
0.862887 0.000434256 0.226642 7.12654e-05 3.15523 0.000566431
0.961207 0.000483736 0.38363 0.000120629 3.40816 0.000611837
1.06619 0.000536568 0.553087 0.000173913 3.61897 0.000649682
1.17734 0.000592505 0.733405 0.000230613 3.78853 0.000680121
1.29393 0.000651182 0.922978 0.000290222 3.91864 0.000703479
1.41494 0.000712081 1.12002 0.00035218 4.01191 0.000720223
1.53905 0.000774541 1.32242 0.000415822 4.07154 0.000730927
1.66474 0.000837796 1.52785 0.000480418 4.10128 0.000736267
1.79037 0.000901017 1.73392 0.000545215 4.10542 0.00073701
1.91422 0.000963349 1.93822 0.000609455 4.08864 0.000733998
2.03457 0.00102392 2.13827 0.000672361 4.0558 0.000728102
2.14971 0.00108186 2.33153 0.000733129 4.01181 0.000720205
2.25803 0.00113637 2.5154 0.000790946 3.96163 0.000711197
2.35813 0.00118675 2.68738 0.000845022 3.91016 0.000701958
2.44879 0.00123238 2.84506 0.000894603 3.86206 0.000693323
2.52908 0.00127278 2.98618 0.000938977 3.82156 0.00068605
2.59833 0.00130763 3.10861 0.000977475 3.79234 0.000680805
2.65623 0.00133677 3.21047 0.0010095 3.77755 0.00067815
2.70279 0.0013602 3.29016 0.00103456 3.77967 0.000678531
2.7383 0.00137807 3.34645 0.00105226 3.80045 0.000682261
2.76321 0.00139061 3.37855 0.00106236 3.84075 0.000689496
2.77814 0.00139812 3.38616 0.00106475 3.90052 0.000700227
2.7838 0.00140097 3.36943 0.00105949 3.97887 0.000714292
2.78092 0.00139952 3.32882 0.00104672 4.07414 0.000731394
2.77059 0.00139432 3.26542 0.00102678 4.18375 0.000751073
2.75422 0.00138609 3.18094 0.00100022 4.30433 0.000772719
2.7333 0.00137556 3.07756 0.00096771 4.43176 0.000795595
2.70918 0.00136342 2.95787 0.000930075 4.56138 0.000818864
2.68314 0.00135032 2.82488 0.000888258 4.68807 0.000841608
2.65631 0.00133681 2.682 0.00084333 4.80639 0.00086285
2.62968 0.00132341 2.53286 0.000796434 4.91076 0.000881587
2.60419 0.00131058 2.38118 0.000748742 4.99565 0.000896826
2.58079 0.00129881 2.2307 0.000701425 5.05576 0.000907616
2.56043 0.00128856 2.08504 0.000655622 5.08618 0.000913078
2.54398 0.00128028 1.94762 0.00061241 5.0826 0.000912434
2.5322 0.00127435 1.82158 0.000572778 5.04138 0.000905035
2.52572 0.00127109 1.70972 0.000537606 4.95976 0.000890383
2.52504 0.00127075 1.61442 0.00050764 4.83593 0.000868152
2.53055 0.00127352 1.53756 0.000483471 4.66911 0.000838204
2.54263 0.0012796 1.48043 0.000465507 4.45965 0.000800601
2.56167 0.00128918 1.44375 0.000453973 4.20902 0.000755608
2.5878 0.00130233 1.42763 0.000448904 3.91984 0.000703695
2.62026 0.00131867 1.4311 0.000449996 3.59636 0.000645623
2.65987 0.0013386 1.45383 0.000457145 3.24264 0.000582124
2.7068 0.00136222 1.49471 0.000469999 2.86422 0.000514189
2.75676 0.00138736 1.55274 0.000488245 2.46705 0.000442887
2.81005 0.00141418 1.62544 0.000511104 2.05856 0.000369555
2.86817 0.00144343 1.70974 0.000537613 1.64673 0.000295624
2.9286 0.00147385 1.8032 0.000567001 1.23908 0.000222441
2.98233 0.00150089 1.90284 0.000598331 0.843679 0.000151458
3.03106 0.00152541 2.00759 0.000631269 0.46771 8.39639e-05
3.07286 0.00154644 2.11536 0.000665156 0.11917 2.13935e-05
3.10537 0.0015628 2.22318 0.000699059 -0.194333 -3.4887e-05
3.12605 0.00157321 2.32794 0.000732001 -0.461785 -8.29002e-05
3.13312 0.00157677 2.42672 0.000763059 -0.682344 -0.000122495
3.12522 0.00157279 2.517 0.000791449 -0.849775 -0.000152553
3.1009 0.00156056 2.59547 0.000816123 -0.958589 -0.000172087
3.0599 0.00153992 2.65881 0.00083604 -1.0048 -0.000180384
3.0029 0.00151124 2.70431 0.000850344 -0.986108 -0.000177027
2.93098 0.00147504 2.72966 0.000858318 -0.90136 -0.000161813
2.84526 0.0014319 2.73292 0.000859342 -0.750406 -0.000134714
2.74707 0.00138249 2.71268 0.000852979 -0.534435 -9.59425e-05
2.63808 0.00132764 2.66825 0.000839006 -0.25621 -4.59952e-05
2.52012 0.00126827 2.59968 0.000817446 0.0849098 1.52431e-05
2.39531 0.00120546 2.50724 0.000788378 0.477655 8.57492e-05
2.26596 0.00114036 2.39227 0.000752227 0.91518 0.000164294
2.13442 0.00107416 2.25671 0.000709604 1.38948 0.000249441
2.00269 0.00100787 2.10322 0.00066134 1.89121 0.000339512
1.87235 0.000942275 1.93512 0.000608482 2.40969 0.000432591
1.74463 0.000878002 1.75636 0.00055227 2.9335 0.000526626
1.62054 0.000815551 1.57132 0.000494087 3.45105 0.000619538
1.50077 0.000755277 1.38465 0.000435391 3.95087 0.000709265
1.38575 0.000697391 1.20106 0.000377663 4.42167 0.000793783
1.27571 0.000642014 1.02519 0.000322361 4.85252 0.00087113
1.17085 0.000589242 0.861385 0.000270855 5.23319 0.000939469
1.0714 0.000539189 0.713542 0.000224367 5.55456 0.000997162
0.9776 0.000491986 0.584923 0.000183924 5.80895 0.00104283
0.889623 0.00044771 0.478104 0.000150336 5.99019 0.00107537
0.807425 0.000406344 0.394929 0.000124182 6.09378 0.00109396
0.730771 0.000367767 0.336455 0.000105795 6.11687 0.00109811
0.659289 0.000331793 0.302883 9.52388e-05 6.05843 0.00108762
0.592515 0.000298188 0.293522 9.22954e-05 5.91933 0.00106264
0.529896 0.000266675 0.306807 9.64728e-05 5.70226 0.00102368
0.470796 0.000236932 0.340357 0.000107022 5.41168 0.000971511
0.414469 0.000208585 0.391057 0.000122964 5.05358 0.000907225
0.360017 0.000181182 0.455174 0.000143125 4.63533 0.00083214
0.306353 0.000154175 0.528477 0.000166175 4.16547 0.000747791
0.252186 0.000126915 0.606375 0.000190669 3.65353 0.000655887
0.196056 9.86668e-05 0.684051 0.000215094 3.10972 0.000558261
0.168788 8.49441e-05 0.747953 0.000235187 2.54641 0.000457135
0.149201 7.50869e-05 0.797658 0.000250816 1.97318 0.000354228
0.123385 6.20947e-05 0.833274 0.000262016 1.39852 0.000251063
0.0911141 4.5854e-05 0.853339 0.000268325 0.831988 0.00014936
0.0514944 2.5915e-05 0.854886 0.000268811 0.281905 5.06079e-05
0.00306061 1.54028e-06 0.833446 0.00026207 -0.239112 -4.29257e-05
-0.0544233 -2.7389e-05 0.786532 0.000247318 -0.725711 -0.000130281
-0.119498 -6.01385e-05 0.713275 0.000224283 -1.17565 -0.000211055
-0.190782 -9.60129e-05 0.614227 0.000193138 -1.58349 -0.00028427
-0.268686 -0.000135219 0.487494 0.000153288 -1.94504 -0.000349175
-0.353955 -0.000178131 0.332521 0.000104558 -2.25875 -0.000405494
-0.445748 -0.000224327 0.151061 4.74998e-05 -2.52283 -0.000452901
-0.543436 -0.000273489 -0.0556915 -1.75117e-05 -2.74012 -0.00049191
-0.646104 -0.000325158 -0.284326 -8.94038e-05 -2.91076 -0.000522544
-0.752899 -0.000378903 -0.532086 -0.00016731 -3.03821 -0.000545423
-0.862474 -0.000434048 -0.795662 -0.000250189 -3.12739 -0.000561433
-0.973374 -0.000489859 -1.07115 -0.000336812 -3.18407 -0.000571608
-1.08373 -0.000545396 -1.35408 -0.000425779 -3.21407 -0.000576995
-1.19043 -0.000599095 -1.64011 -0.000515718 -3.22344 -0.000578676
-1.29296 -0.000650692 -1.92397 -0.000604974 -3.2193 -0.000577934
-1.39103 -0.000700048 -2.20032 -0.00069187 -3.2091 -0.000576102
-1.48482 -0.000747248 -2.46367 -0.000774679 -3.20007 -0.00057448
-1.57488 -0.000792571 -2.70861 -0.000851697 -3.19891 -0.000574272
-1.66189 -0.000836362 -2.93017 -0.000921364 -3.21167 -0.000576563
-1.74646 -0.000878921 -3.12416 -0.000982364 -3.2436 -0.000582294
-1.82899 -0.000920453 -3.28728 -0.00103366 -3.29888 -0.000592219
-1.90392 -0.000958166 -3.41912 -0.00107511 -3.37995 -0.000606772
-1.9648 -0.000988802 -3.52067 -0.00110704 -3.48707 -0.000626003
-2.01895 -0.00101606 -3.58845 -0.00112835 -3.62275 -0.000650361
-2.06579 -0.00103963 -3.62209 -0.00113893 -3.78587 -0.000679644
-2.10547 -0.0010596 -3.62302 -0.00113923 -3.97347 -0.000713322
-2.13786 -0.0010759 -3.59286 -0.00112974 -4.18269 -0.000750882
-2.16301 -0.00108855 -3.53415 -0.00111128 -4.40934 -0.00079157
-2.18147 -0.00109784 -3.45005 -0.00108484 -4.648 -0.000834415
-2.19398 -0.00110414 -3.34396 -0.00105148 -4.8923 -0.000878273
-2.20146 -0.0011079 -3.21957 -0.00101236 -5.13547 -0.000921925
-2.20502 -0.00110969 -3.08117 -0.000968846 -5.37044 -0.000964108
-2.20589 -0.00111013 -2.93344 -0.000922395 -5.58992 -0.00100351
-2.2053 -0.00110984 -2.78103 -0.000874471 -5.78653 -0.00103881
-2.20441 -0.00110939 -2.62844 -0.000826491 -5.95305 -0.0010687
-2.20433 -0.00110935 -2.48012 -0.000779851 -6.08276 -0.00109199
-2.20613 -0.00111026 -2.34032 -0.000735894 -6.16978 -0.00110761
-2.21074 -0.00111257 -2.21294 -0.000695839 -6.20907 -0.00111466
-2.21898 -0.00111672 -2.10133 -0.000660743 -6.19659 -0.00111242
-2.23152 -0.00112303 -2.00832 -0.000631497 -6.12941 -0.00110036
-2.24877 -0.00113171 -1.93617 -0.000608812 -6.0059 -0.00107819
-2.27083 -0.00114282 -1.88654 -0.000593207 -5.82586 -0.00104587
-2.29758 -0.00115628 -1.8604 -0.000584986 -5.59049 -0.00100361
-2.32874 -0.00117196 -1.85796 -0.000584218 -5.3024 -0.000951894
-2.36403 -0.00118972 -1.87865 -0.000590725 -4.96555 -0.000891423
-2.4018 -0.00120872 -1.92045 -0.000603868 -4.58557 -0.000823207
-2.43808 -0.00122698 -1.98301 -0.000623541 -4.16832 -0.000748302
-2.47393 -0.00124503 -2.06399 -0.000649004 -3.72151 -0.000668091
-2.50925 -0.0012628 -2.16014 -0.000679238 -3.25358 -0.000584087
-2.54364 -0.00128011 -2.26729 -0.000712928 -2.77385 -0.000497965
-2.57693 -0.00129686 -2.38119 -0.000748743 -2.29203 -0.000411468
-2.60918 -0.00131309 -2.4977 -0.00078538 -1.81795 -0.000326361
-2.64028 -0.00132875 -2.61247 -0.000821468 -1.36147 -0.000244412
-2.66998 -0.00134369 -2.72114 -0.000855639 -0.932069 -0.000167326
-2.6979 -0.00135774 -2.81981 -0.000886665 -0.538576 -9.66859e-05
-2.72337 -0.00137056 -2.90516 -0.000913503 -0.188953 -3.39212e-05
-2.74523 -0.00138156 -2.97448 -0.000935298 0.110177 1.97791e-05
-2.76219 -0.0013901 -3.0256 -0.000951371 0.355497 6.38192e-05
-2.77309 -0.00139558 -3.05718 -0.000961302 0.539043 9.67697e-05
-2.777 -0.00139755 -3.06823 -0.000964778 0.657316 0.000118002
-2.77303 -0.00139555 -3.05833 -0.000961664 0.709191 0.000127315
-2.76046 -0.00138922 -3.02756 -0.000951989 0.694571 0.00012469
-2.73908 -0.00137847 -2.97678 -0.00093602 0.614565 0.000110327
-2.70914 -0.0013634 -2.90736 -0.000914192 0.471654 8.46719e-05
-2.67134 -0.00134437 -2.82102 -0.000887043 0.269805 4.84358e-05
-2.62686 -0.00132199 -2.71975 -0.0008552 0.0177523 3.18692e-06
-2.57715 -0.00129697 -2.60615 -0.000819481 -0.281003 -5.04461e-05
-2.52371 -0.00127008 -2.48315 -0.000780804 -0.619395 -0.000111195
-2.46777 -0.00124193 -2.35402 -0.0007402 -0.989258 -0.000177593
-2.41033 -0.00121302 -2.22238 -0.000698809 -1.38213 -0.000248121
-2.35217 -0.00118375 -2.09208 -0.000657835 -1.78928 -0.000321213
-2.29415 -0.00115455 -1.96689 -0.000618472 -2.20179 -0.000395268
-2.23727 -0.00112593 -1.85041 -0.000581846 -2.61074 -0.000468683
-2.18265 -0.00109844 -1.74593 -0.000548992 -3.00749 -0.000539908
-2.13144 -0.00107267 -1.65639 -0.000520837 -3.38406 -0.000607511
-2.08482 -0.0010492 -1.58432 -0.000498174 -3.73329 -0.000670205
-2.04391 -0.00102862 -1.53173 -0.00048164 -4.04888 -0.000726861
-2.0097 -0.0010114 -1.50014 -0.000471707 -4.32547 -0.000776513
-1.98285 -0.000997886 -1.49056 -0.000468692 -4.55873 -0.000818388
-1.96357 -0.000988185 -1.5035 -0.000472763 -4.74552 -0.000851922
-1.95152 -0.000982117 -1.53906 -0.000483943 -4.88398 -0.000876778
-1.94578 -0.000979232 -1.5968 -0.000502098 -4.97347 -0.000892844
-1.94507 -0.000978874 -1.67576 -0.000526927 -5.0146 -0.000900227
-1.94779 -0.000980244 -1.7744 -0.000557943 -5.00916 -0.000899251
-1.95207 -0.000982394 -1.89062 -0.000594487 -4.96012 -0.000890447
-1.9558 -0.000984275 -2.02178 -0.000635731 -4.87154 -0.000874545
-1.95692 -0.000984838 -2.16469 -0.000680666 -4.7485 -0.000852457
-1.9535 -0.000983116 -2.31558 -0.000728113 -4.5969 -0.000825242
-1.94383 -0.000978251 -2.47023 -0.000776742 -4.42332 -0.000794079
-1.92648 -0.00096952 -2.62403 -0.000825103 -4.23477 -0.000760231
-1.9004 -0.000956394 -2.77208 -0.000871655 -4.03855 -0.000725006
-1.86494 -0.000938545 -2.90933 -0.000914812 -3.84198 -0.000689718
-1.81978 -0.000915818 -3.03074 -0.00095299 -3.65215 -0.000655638
-1.76488 -0.00088819 -3.1315 -0.000984673 -3.47564 -0.000623952
-1.70033 -0.000855705 -3.20719 -0.00100847 -3.31833 -0.000595711
-1.62623 -0.000818416 -3.25396 -0.00102318 -3.18512 -0.000571798
-1.54268 -0.000776369 -3.2687 -0.00102781 -3.07982 -0.000552893
-1.44982 -0.000729637 -3.24908 -0.00102164 -3.00495 -0.000539453
-1.34793 -0.000678356 -3.19361 -0.0010042 -2.96172 -0.000531691
-1.23744 -0.00062275 -3.10165 -0.000975285 -2.94989 -0.000529569
-1.11898 -0.000563138 -2.97345 -0.000934974 -2.96786 -0.000532793
-0.993365 -0.000499919 -2.81014 -0.000883623 -3.0126 -0.000540825
-0.86149 -0.000433552 -2.61373 -0.000821863 -3.0798 -0.000552889
-0.725471 -0.000365099 -2.3871 -0.000750603 -3.16381 -0.000567971
-0.593719 -0.000298794 -2.1315 -0.000670231 -3.25842 -0.000584957
-0.458436 -0.000230712 -1.85297 -0.000582651 -3.35638 -0.000602541
-0.319541 -0.000160812 -1.55719 -0.000489644 -3.44919 -0.000619203
-0.179999 -9.05863e-05 -1.25055 -0.000393224 -3.52761 -0.000633282
-0.0412928 -2.07809e-05 -0.937347 -0.00029474 -3.58346 -0.000643307
0.0948406 4.77294e-05 -0.622758 -0.000195821 -3.60874 -0.000647845
0.225228 0.000113348 -0.314267 -9.88183e-05 -3.59431 -0.000645256
0.348962 0.000175618 -0.014871 -4.67605e-06 -3.53427 -0.000634477
0.466038 0.000234537 0.272178 8.55839e-05 -3.42223 -0.000614364
0.574499 0.000289121 0.542395 0.000170551 -3.25062 -0.000583555
0.672595 0.000338489 0.788843 0.000248045 -3.01829 -0.000541848
0.760494 0.000382725 1.00929 0.000317362 -2.72262 -0.000488769
0.838052 0.000421757 1.20185 0.00037791 -2.36258 -0.000424133
0.904852 0.000455375 1.36414 0.000428941 -1.9384 -0.000347984
0.961164 0.000483714 1.49465 0.00046998 -1.45259 -0.000260772
1.00785 0.00050721 1.59308 0.00050093 -0.909505 -0.000163276
1.04582 0.00052632 1.65993 0.00052195 -0.314727 -5.65003e-05
1.07609 0.000541553 1.69672 0.000533518 0.334652 6.00772e-05
1.10019 0.00055368 1.70492 0.000536097 1.01953 0.000183028
1.11987 0.000563584 1.68748 0.000530612 1.73014 0.000310597
1.13699 0.000572198 1.64764 0.000518085 2.45646 0.000440988
1.15351 0.000580515 1.58924 0.000499724 3.18715 0.000572161
1.17159 0.000589614 1.51672 0.00047692 3.90949 0.000701837
1.19324 0.00060051 1.43493 0.000451201 4.61038 0.000827661
1.22016 0.000614054 1.349 0.00042418 5.27716 0.000947363
1.25345 0.000630809 1.26416 0.000397502 5.89798 0.00105881
1.29412 0.000651276 1.18534 0.000372719 6.46172 0.00116002
1.34294 0.000675846 1.1177 0.000351449 6.95435 0.00124845
1.40156 0.000705347 1.05857 0.000332859 7.12893 0.0012798
1.46924 0.000739409 1.01708 0.000319811 7.15941 0.00128527
1.54573 0.000777904 1.00546 0.000316157 7.14882 0.00128336
1.62993 0.000820278 1.01986 0.000320687 7.13077 0.00128012
1.72215 0.000866686 1.06283 0.000334198 7.14062 0.00128189
1.82166 0.000916768 1.13578 0.000357135 7.13667 0.00128118
1.92812 0.000970342 1.23747 0.00038911 7.04435 0.00126461
2.04142 0.00102736 1.36804 0.000430167 6.84513 0.00122885
2.16142 0.00108775 1.52405 0.000479224 6.55344 0.00117648
2.28764 0.00115127 1.7014 0.000534989 6.19623 0.00111236
2.41936 0.00121756 1.89672 0.000596406 5.79129 0.00103966
2.55567 0.00128616 2.10667 0.000662424 5.34044 0.000958723
2.6954 0.00135648 2.3269 0.000731672 4.84227 0.00086929
2.83714 0.00142781 2.5521 0.000802486 4.30637 0.000773084
2.97927 0.00149934 2.77698 0.000873197 3.75348 0.00067383
3.11996 0.00157014 2.99669 0.000942282 3.20439 0.000575257
3.2572 0.00163921 3.2067 0.00100832 2.67137 0.000479568
3.38891 0.0017055 3.4026 0.00106992 2.16033 0.000387826
3.51305 0.00176797 3.58025 0.00112578 1.67857 0.00030134
3.62721 0.00182543 3.73591 0.00117472 1.23848 0.000222333
3.67173 0.00184783 3.82546 0.00120288 0.87222 0.000156582
3.67042 0.00184717 3.85561 0.00121236 0.580427 0.000104199
3.67693 0.00185044 3.87652 0.00121894 0.34401 6.17572e-05
3.69796 0.00186103 3.8975 0.00122553 0.163097 2.92795e-05
3.7133 0.00186875 3.90587 0.00122817 0.049964 8.96959e-06
3.71202 0.0018681 3.90302 0.00122727 -0.0070049 -1.25753e-06
3.7078 0.00186598 3.88568 0.00122182 0.000229464 4.11936e-08
3.6937 0.00185889 3.84709 0.00120968 0.0771374 1.38478e-05
3.66483 0.00184436 3.78322 0.0011896 0.221463 3.97573e-05
3.62286 0.00182324 3.69557 0.00116204 0.425417 7.63715e-05
3.57085 0.00179706 3.58857 0.00112839 0.684261 0.000122839
3.50987 0.00176637 3.46542 0.00108967 0.993377 0.000178332
3.44047 0.00173145 3.32851 0.00104662 1.34672 0.000241766
3.36492 0.00169343 3.18159 0.00100042 1.73422 0.00031133
3.28566 0.00165354 3.0287 0.000952348 2.14519 0.000385107
3.20441 0.00161265 2.87347 0.000903536 2.57039 0.00046144
3.12298 0.00157167 2.71996 0.000855268 3.00118 0.000538776
3.04363 0.00153173 2.57255 0.000808916 3.4281 0.000615417
2.96852 0.00149393 2.43499 0.00076566 3.84106 0.000689552
2.89947 0.00145918 2.31046 0.000726502 4.23051 0.000759466
2.83821 0.00142836 2.20216 0.000692448 4.58813 0.000823666
2.78641 0.00140229 2.11315 0.000664461 4.90684 0.000880882
2.74542 0.00138166 2.04582 0.000643291 5.18047 0.000930005
2.71625 0.00136698 2.00184 0.000629461 5.40369 0.000970078
2.69967 0.00135863 1.98239 0.000623345 5.57235 0.00100036
2.6947 0.00135613 1.98863 0.000625307 5.68377 0.00102036
2.69494 0.00135625 2.02272 0.000636025 5.73628 0.00102978
2.70067 0.00135913 2.08376 0.000655219 5.73089 0.00102882
2.7117 0.00136469 2.17 0.000682336 5.66964 0.00101782
2.72777 0.00137277 2.27892 0.000716585 5.55583 0.00099739
2.74841 0.00138316 2.4074 0.000756984 5.39435 0.0009684
2.773 0.00139553 2.55184 0.000802402 5.19134 0.000931956
2.80078 0.00140952 2.70817 0.000851559 4.95395 0.000889339
2.8308 0.00142462 2.87192 0.000903048 4.68993 0.000841941
2.86189 0.00144027 3.0384 0.000955398 4.40751 0.000791242
2.89277 0.00145581 3.20293 0.00100713 4.11528 0.00073878
2.92209 0.00147057 3.3609 0.00105681 3.8219 0.000686113
2.9485 0.00148386 3.50786 0.00110302 3.53581 0.000634753
2.97074 0.00149505 3.63959 0.00114444 3.26495 0.000586127
2.98766 0.00150357 3.75223 0.00117986 3.0166 0.000541544
2.99835 0.00150895 3.84245 0.00120822 2.79723 0.000502163
3.00214 0.00151085 3.90742 0.00122865 2.61229 0.000468962
2.99865 0.0015091 3.94498 0.00124046 2.46603 0.000442705
2.98771 0.00150359 3.9536 0.00124318 2.36141 0.000423923
2.96929 0.00149432 3.9326 0.00123657 2.29999 0.000412898
2.94338 0.00148128 3.88208 0.00122069 2.28195 0.000409659
2.90989 0.00146443 3.80306 0.00119584 2.30604 0.000413984
2.86862 0.00144366 3.69735 0.0011626 2.36964 0.000425401
2.81928 0.00141883 3.56752 0.00112177 2.46887 0.000443215
2.76175 0.00138988 3.4167 0.00107435 2.59876 0.000466532
2.69615 0.00135686 3.24851 0.00102146 2.7534 0.000494295
2.62284 0.00131997 3.06684 0.000964341 2.92619 0.000525313
2.54238 0.00127947 2.87583 0.000904279 3.10996 0.000558303
2.45547 0.00123574 2.67969 0.000842605 3.29724 0.000591925
2.36289 0.00118915 2.48264 0.000780643 3.48049 0.000624821
2.2654 0.00114008 2.28876 0.00071968 3.65227 0.000655661
2.16369 0.00108889 2.10193 0.000660933 3.80551 0.00068317
2.05846 0.00103594 1.92564 0.000605502 3.93367 0.000706177
1.95057 0.000981642 1.76288 0.000554323 4.03097 0.000723646
1.84121 0.000926606 1.61597 0.000508126 4.09256 0.000734702
1.73201 0.000871647 1.48646 0.000467403 4.11463 0.000738665
1.62488 0.000817736 1.37519 0.000432416 4.09449 0.000735047
1.52181 0.000765864 1.28236 0.000403226 4.03055 0.00072357
1.42452 0.000716901 1.20764 0.000379733 3.92237 0.000704149
1.33427 0.000671482 1.15031 0.000361704 3.77057 0.000676897
1.25176 0.000629961 1.10929 0.000348805 3.57677 0.000642106
1.17716 0.000592417 1.08322 0.000340609 3.34357 0.000600241
1.11016 0.000558696 1.07049 0.000336605 3.07442 0.000551924
1.0501 0.00052847 1.06921 0.000336203 2.77358 0.000497917
0.996024 0.000501257 1.0773 0.000338747 2.446 0.000439109
0.94674 0.000476455 1.09251 0.00034353 2.09715 0.000376483
0.900899 0.000453385 1.11246 0.000349805 1.73297 0.000311105
0.85714 0.000431363 1.13467 0.000356785 1.35967 0.00024409
0.814115 0.00040971 1.15657 0.000363672 0.983635 0.000176583
0.7704 0.00038771 1.17567 0.000369679 0.611208 0.000109725
0.724414 0.000364568 1.18962 0.000374065 0.248578 4.46251e-05
0.674367 0.000339381 1.19677 0.000376313 -0.0715467 -1.28442e-05
0.618512 0.000311271 1.19562 0.000375953 -0.359163 -6.44773e-05
0.555423 0.000279521 1.18269 0.000371885 -0.617527 -0.000110859
0.483952 0.000243553 1.15709 0.000363836 -0.85026 -0.00015264
0.404649 0.000203643 1.11758 0.000351412 -1.05678 -0.000189714
0.347387 0.000174825 1.05522 0.000331803 -1.23414 -0.000221555
0.286907 0.000144389 0.973005 0.000305953 -1.37679 -0.000247163
0.216961 0.000109187 0.874288 0.000274912 -1.4863 -0.000266822
0.140116 7.05146e-05 0.763333 0.000240023 -1.56369 -0.000280716
0.0564299 2.83988e-05 0.639716 0.000201153 -1.61222 -0.000289429
-0.0343674 -1.72957e-05 0.502696 0.000158068 -1.63319 -0.000293193
-0.122139 -6.14675e-05 0.361921 0.000113803 -1.63053 -0.000292714
-0.20629 -0.000103817 0.216082 6.79449e-05 -1.60206 -0.000287604
-0.293933 -0.000147925 0.0630526 1.98263e-05 -1.55071 -0.000278386
-0.384297 -0.000193401 -0.0956989 -3.00917e-05 -1.47885 -0.000265484
-0.474973 -0.000239034 -0.258177 -8.11814e-05 -1.3944 -0.000250325
-0.564124 -0.000283901 -0.420083 -0.000132091 -1.30073 -0.000233509
-0.652234 -0.000328243 -0.580195 -0.000182437 -1.20203 -0.00021579
-0.738844 -0.00037183 -0.736762 -0.000231668 -1.10318 -0.000198045
-0.822573 -0.000413967 -0.887197 -0.000278971 -1.00997 -0.000181311
-0.902635 -0.000454259 -1.02919 -0.000323621 -0.927066 -0.000166428
-0.978768 -0.000492573 -1.1609 -0.000365034 -0.858133 -0.000154053
-1.05042 -0.000528634 -1.28045 -0.000402627 -0.806703 -0.00014482
-1.11692 -0.000562102 -1.38627 -0.0004359 -0.776203 -0.000139345
-1.178 -0.000592837 -1.47729 -0.00046452 -0.769336 -0.000138112
-1.23361 -0.000620825 -1.5527 -0.000488232 -0.787856 -0.000141437
-1.2837 -0.000646034 -1.61179 -0.000506812 -0.832756 -0.000149497
-1.32827 -0.000668462 -1.65428 -0.000520174 -0.904374 -0.000162354
-1.3675 -0.000688204 -1.68051 -0.00052842 -1.00231 -0.000179937
-1.40172 -0.000705427 -1.69114 -0.000531765 -1.12537 -0.000202027
-1.43135 -0.000720342 -1.68708 -0.000530486 -1.27153 -0.000228267
-1.45697 -0.000733231 -1.66948 -0.000524953 -1.43815 -0.000258179
-1.4793 -0.000744469 -1.63988 -0.000515645 -1.61569 -0.00029005
-1.49929 -0.000754531 -1.59937 -0.000502908 -1.79225 -0.000321747
-1.51768 -0.000763784 -1.55104 -0.000487712 -1.97213 -0.000354039
-1.53553 -0.000772767 -1.49684 -0.000470668 -2.15658 -0.000387151
-1.55364 -0.000781883 -1.439 -0.000452481 -2.3428 -0.000420582
-1.57295 -0.000791601 -1.38018 -0.000433984 -2.52681 -0.000453616
-1.59428 -0.000802333 -1.32303 -0.000416016 -2.70342 -0.000485322
-1.61844 -0.000814493 -1.27013 -0.000399379 -2.86771 -0.000514815
-1.64621 -0.00082847 -1.22383 -0.000384822 -3.01612 -0.000541457
-1.67826 -0.0008446 -1.18642 -0.000373058 -3.14621 -0.000564811
-1.71508 -0.000863126 -1.16006 -0.000364772 -3.25562 -0.000584453
-1.75688 -0.000884167 -1.14678 -0.000360595 -3.34166 -0.000599899
-1.80365 -0.000907703 -1.14832 -0.000361078 -3.40186 -0.000610707
-1.85509 -0.00093359 -1.16609 -0.000366665 -3.4348 -0.00061662
-1.91074 -0.000961595 -1.20112 -0.000377682 -3.44002 -0.000617556
-1.97004 -0.000991438 -1.25391 -0.000394281 -3.41554 -0.000613162
-2.03236 -0.0010228 -1.32456 -0.000416496 -3.3619 -0.000603533
-2.09709 -0.00105538 -1.41262 -0.000444187 -3.2808 -0.000588973
-2.16359 -0.00108885 -1.5171 -0.000477038 -3.17509 -0.000569996
-2.23126 -0.0011229 -1.63646 -0.00051457 -3.04884 -0.000547331
-2.29955 -0.00115727 -1.76874 -0.000556163 -2.90683 -0.000521839
-2.36799 -0.00119171 -1.91153 -0.000601062 -2.75419 -0.000494436
-2.43616 -0.00122602 -2.06208 -0.000648402 -2.59622 -0.000466077
-2.50349 -0.0012599 -2.21747 -0.000697262 -2.43855 -0.000437772
-2.56811 -0.00129242 -2.37518 -0.000746854 -2.28695 -0.000410556
-2.63027 -0.00132371 -2.53181 -0.000796104 -2.14762 -0.000385543
-2.69008 -0.00135381 -2.68398 -0.000843953 -2.02635 -0.000363773
-2.74745 -0.00138268 -2.82845 -0.00088938 -1.9284 -0.000346189
-2.80218 -0.00141022 -2.96239 -0.000931498 -1.85846 -0.000333633
-2.854 -0.0014363 -3.08345 -0.000969562 -1.82056 -0.000326829
-2.90258 -0.00146075 -3.18962 -0.00100295 -1.81799 -0.000326368
-2.94182 -0.0014805 -3.28205 -0.00103201 -1.8521 -0.000332492
-2.9749 -0.00149714 -3.35812 -0.00105593 -1.9252 -0.000345614
-3.0009 -0.00151023 -3.41677 -0.00107437 -2.03782 -0.000365833
-3.01989 -0.00151979 -3.45764 -0.00108723 -2.18943 -0.00039305
-3.03234 -0.00152605 -3.48124 -0.00109464 -2.37818 -0.000426934
-3.03799 -0.00152889 -3.4877 -0.00109667 -2.60211 -0.000467134
-3.03635 -0.00152807 -3.47726 -0.00109339 -2.85843 -0.00051315
-3.02767 -0.0015237 -3.45114 -0.00108518 -3.14304 -0.000564243
-3.01273 -0.00151618 -3.41099 -0.00107255 -3.44019 -0.000617587
-2.99253 -0.00150602 -3.35737 -0.00105569 -3.72912 -0.000669456
-2.96745 -0.0014934 -3.29447 -0.00103592 -4.02262 -0.000722145
-2.93845 -0.0014788 -3.22405 -0.00101377 -4.32139 -0.000775781
-2.9062 -0.00146257 -3.1485 -0.000990016 -4.62194 -0.000829737
-2.87159 -0.00144515 -3.07057 -0.000965513 -4.91866 -0.000883004
-2.83545 -0.00142697 -2.99289 -0.000941089 -5.20397 -0.000934224
-2.79873 -0.00140849 -2.91793 -0.000917518 -5.47092 -0.000982147
-2.76234 -0.00139017 -2.84785 -0.000895479 -5.71481 -0.00102593
-2.72709 -0.00137243 -2.78458 -0.000875585 -5.93255 -0.00106502
-2.69238 -0.00135496 -2.7303 -0.000858517 -6.12081 -0.00109882
-2.65516 -0.00133623 -2.68768 -0.000845115 -6.27521 -0.00112653
-2.61531 -0.00131618 -2.65783 -0.000835731 -6.39222 -0.00114754
-2.57239 -0.00129458 -2.64131 -0.000830536 -6.46962 -0.00116143
-2.52605 -0.00127126 -2.63806 -0.000829513 -6.50693 -0.00116813
-2.4762 -0.00124617 -2.64733 -0.000832428 -6.50337 -0.00116749
-2.42315 -0.00121947 -2.66756 -0.000838791 -6.4566 -0.0011591
-2.36748 -0.00119145 -2.69681 -0.000847989 -6.36728 -0.00114306
-2.30977 -0.00116241 -2.73258 -0.000859236 -6.23787 -0.00111983
-2.25042 -0.00113254 -2.77202 -0.000871636 -6.07228 -0.0010901
-2.18955 -0.00110191 -2.81213 -0.00088425 -5.87538 -0.00105476
-2.12712 -0.00107049 -2.84989 -0.000896122 -5.65209 -0.00101467
-2.06304 -0.00103824 -2.8822 -0.000906282 -5.40709 -0.000970687
-1.99724 -0.00100513 -2.90598 -0.000913759 -5.14506 -0.000923648
-1.92955 -0.000971062 -2.9183 -0.000917633 -4.87103 -0.000874454
-1.85957 -0.000935843 -2.91656 -0.000917085 -4.59016 -0.000824031
-1.78672 -0.00089918 -2.89855 -0.000911422 -4.30726 -0.000773244
-1.71046 -0.000860805 -2.86243 -0.000900066 -4.02643 -0.000722829
-1.63051 -0.000820567 -2.80672 -0.000882547 -3.75106 -0.000673396
-1.54684 -0.00077846 -2.73028 -0.000858513 -3.48405 -0.000625461
-1.45966 -0.000734585 -2.63248 -0.000827759 -3.22778 -0.000579456
-1.36925 -0.000689086 -2.51317 -0.000790243 -2.98399 -0.000535689
-1.27587 -0.000642092 -2.37281 -0.000746107 -2.75352 -0.000494315
-1.17967 -0.000593678 -2.21243 -0.00069568 -2.53632 -0.000455323
-1.08062 -0.000543832 -2.03368 -0.000639473 -2.33158 -0.000418568
-0.978578 -0.000492478 -1.8387 -0.000578164 -2.13788 -0.000383795
-0.87335 -0.000439521 -1.63007 -0.00051256 -1.95329 -0.000350657
-0.764806 -0.000384895 -1.41065 -0.000443568 -1.77541 -0.000318723
-0.65297 -0.000328613 -1.18352 -0.000372149 -1.60142 -0.000287489
-0.538108 -0.000270808 -0.951802 -0.000299285 -1.4283 -0.00025641
-0.420735 -0.000211738 -0.718579 -0.000225951 -1.25295 -0.00022493
-0.301533 -0.000151749 -0.486863 -0.00015309 -1.07237 -0.000192513
-0.181271 -9.12264e-05 -0.259524 -8.1605e-05 -0.883761 -0.000158654
-0.0614652 -3.09329e-05 -0.0390552 -1.22806e-05 -0.684318 -0.00012285
0.0512225 2.57782e-05 0.167892 5.27922e-05 -0.468732 -8.41474e-05
0.157587 7.93071e-05 0.35906 0.000112903 -0.237028 -4.25515e-05
0.262445 0.000132078 0.537389 0.000168977 5.07472e-05 9.11021e-09
0.343941 0.000173091 0.711284 0.000223657 0.23421 4.20456e-05
0.420134 0.000211436 0.87114 0.000273922 0.478242 8.58547e-05
0.488981 0.000246084 1.01404 0.000318857 0.735869 0.000132104
0.551482 0.000277538 1.13898 0.000358141 1.00801 0.000180959
0.608094 0.000306028 1.24598 0.000391788 1.29396 0.000232294
0.658641 0.000331467 1.3351 0.000419809 1.59057 0.000285542
0.703125 0.000353854 1.40604 0.000442117 1.89432 0.000340071
0.742249 0.000373543 1.45899 0.000458766 2.20221 0.000395344
0.776772 0.000390917 1.49451 0.000469935 2.51224 0.000451
0.807339 0.000406301 1.51361 0.000475942 2.82185 0.000506582
0.834811 0.000420126 1.51777 0.000477249 3.12679 0.000561325
0.860272 0.000432939 1.50861 0.000474369 3.42173 0.000614273
0.884775 0.00044527 1.48779 0.000467822 3.70176 0.000664545
0.909278 0.000457602 1.45723 0.000458214 3.96294 0.000711432
0.934746 0.000470419 1.41926 0.000446275 4.20155 0.000754267
0.962142 0.000484206 1.37636 0.000432784 4.41335 0.000792291
0.99235 0.000499409 1.33091 0.000418492 4.59373 0.000824673
1.02617 0.000516428 1.28525 0.000404135 4.73849 0.00085066
1.06429 0.000535615 1.24177 0.000390463 4.8444 0.000869673
1.10726 0.000557236 1.20283 0.00037822 4.90907 0.000881282
1.15536 0.000581446 1.17065 0.000368099 4.93053 0.000885135
1.20871 0.000608296 1.14706 0.000360682 4.9031 0.000880212
1.2672 0.00063773 1.13372 0.000356489 4.82422 0.00086605
1.33059 0.00066963 1.1321 0.000355978 4.69352 0.000842586
1.39853 0.000703822 1.14318 0.000359463 4.51248 0.000810087
1.47062 0.000740104 1.16752 0.000367116 4.2839 0.000769051
1.54645 0.000778266 1.2052 0.000378964 4.01128 0.00072011
1.62559 0.000818093 1.25587 0.000394896 3.69874 0.000664002
1.70764 0.000859383 1.31872 0.000414661 3.35121 0.000601613
1.79219 0.000901933 1.39255 0.000437874 2.97466 0.000534014
1.87879 0.000945519 1.47577 0.000464042 2.57596 0.00046244
1.96695 0.000989884 1.56655 0.000492588 2.16254 0.000388222
2.05604 0.00103472 1.66289 0.000522882 1.742 0.000312726
2.14537 0.00107967 1.76268 0.00055426 1.32203 0.000237333
2.23413 0.00112435 1.86377 0.000586044 0.910406 0.000163437
2.32151 0.00116832 1.964 0.000617561 0.514921 9.24394e-05
2.40665 0.00121117 2.0613 0.000648159 0.143162 2.57005e-05
2.48866 0.00125244 2.15443 0.000677442 -0.173932 -3.12245e-05
2.56688 0.00129181 2.24116 0.000704711 -0.447802 -8.03901e-05
2.64058 0.00132889 2.31937 0.000729304 -0.681474 -0.000122339
2.70931 0.00136348 2.38815 0.000750932 -0.873066 -0.000156734
2.77252 0.00139529 2.44661 0.000769314 -1.02023 -0.000183154
2.82994 0.00142419 2.49395 0.0007842 -1.11954 -0.000200981
2.8814 0.00145009 2.52972 0.000795449 -1.16772 -0.000209631
2.92685 0.00147296 2.55404 0.000803094 -1.16199 -0.000208601
2.96634 0.00149284 2.56757 0.000807349 -1.09993 -0.000197461
3.00008 0.00150981 2.57107 0.000808448 -0.982772 -0.000176428
3.02829 0.00152401 2.56558 0.000806722 -0.812701 -0.000145897
3.05132 0.0015356 2.55251 0.000802613 -0.592341 -0.000106338
3.0696 0.0015448 2.53356 0.000796654 -0.325266 -5.83922e-05
3.08373 0.00155192 2.51062 0.000789441 -0.0163001 -2.92622e-06
3.09458 0.00155737 2.48497 0.000781375 0.316627 5.68412e-05
3.1027 0.00156146 2.45931 0.000773308 0.675385 0.000121246
3.10912 0.00156469 2.43555 0.000765838 1.058 0.000189933
3.11478 0.00156754 2.41585 0.000759642 1.45954 0.000262019
3.11965 0.00156999 2.40273 0.000755518 1.87384 0.000336394
3.10162 0.00156091 2.40626 0.000756627 2.29049 0.000411191
3.08803 0.00155408 2.41794 0.000760301 2.70853 0.000486238
3.07808 0.00154907 2.43981 0.000767175 3.12008 0.000560121
3.07327 0.00154665 2.47273 0.000777528 3.52119 0.000632128
3.07405 0.00154704 2.51736 0.000791561 3.90772 0.00070152
3.08061 0.00155034 2.57414 0.000809416 4.27601 0.000767635
3.09323 0.00155669 2.6434 0.000831194 4.62185 0.000829721
3.11211 0.0015662 2.72503 0.000856863 4.94173 0.000887146
3.13719 0.00157882 2.8184 0.000886219 5.23345 0.000939516
3.16662 0.00159363 2.92112 0.000918521 5.49656 0.000986749
3.19943 0.00161014 3.03255 0.000953557 5.73036 0.00102872
3.23723 0.00162916 3.15191 0.00099109 5.9339 0.00106526
3.27962 0.0016505 3.27882 0.001031 6.10627 0.00109621
3.32479 0.00167323 3.41133 0.00107266 6.24846 0.00112173
3.36973 0.00169585 3.54846 0.00111578 6.36198 0.00114211
3.41452 0.00171838 3.68861 0.00115985 6.44842 0.00115763
3.45817 0.00174035 3.82953 0.00120416 6.5099 0.00116867
3.49929 0.00176105 3.96874 0.00124793 6.54882 0.00117565
3.53688 0.00177996 4.10401 0.00129047 6.568 0.0011791
3.57032 0.0017968 4.23312 0.00133107 6.57047 0.00117954
3.59913 0.00181129 4.35345 0.0013689 6.55888 0.00117746
3.62291 0.00182326 4.46236 0.00140315 6.53634 0.00117341
3.64156 0.00183265 4.55745 0.00143305 6.5059 0.00116795
3.65503 0.00183943 4.6366 0.00145794 6.47053 0.0011616
3.66334 0.00184361 4.69789 0.00147721 6.4329 0.00115484
3.66659 0.00184524 4.73971 0.00149036 6.39518 0.00114807
3.66501 0.00184445 4.76083 0.001497 6.35896 0.00114157
3.65837 0.0018411 4.76013 0.00149678 6.32542 0.00113555
3.64698 0.00183537 4.73711 0.00148954 6.29507 0.0011301
3.6314 0.00182753 4.69201 0.00147536 6.26771 0.00112519
3.61213 0.00181784 4.62569 0.00145451 6.24245 0.00112065
3.58932 0.00180636 4.53948 0.0014274 6.2178 0.00111623
3.56273 0.00179297 4.43529 0.00139464 6.19169 0.00111154
3.53189 0.00177745 4.31559 0.001357 6.16156 0.00110613
3.49621 0.0017595 4.18316 0.00131536 6.12453 0.00109948
3.45518 0.00173885 4.04094 0.00127064 6.07755 0.00109105
3.40851 0.00171536 3.8919 0.00122377 6.01752 0.00108027
3.35627 0.00168907 3.73894 0.00117568 5.94139 0.00106661
3.29877 0.00166013 3.58478 0.0011272 5.84636 0.00104955
3.23651 0.0016288 3.43193 0.00107914 5.72994 0.00102865
3.17 0.00159533 3.28269 0.00103221 5.59006 0.00100353
3.09974 0.00155997 3.13905 0.000987047 5.42515 0.000973929
3.02614 0.00152293 3.00273 0.000944183 5.23419 0.000939649
2.94953 0.00148437 2.87509 0.000904045 5.01681 0.000900624
2.87011 0.00144441 2.7571 0.000866945 4.77328 0.000856905
2.78799 0.00140308 2.64937 0.000833071 4.50456 0.000808664
2.70319 0.0013604 2.55209 0.000802483 4.21229 0.000756196
2.61564 0.00131635 2.46506 0.000775114 3.89878 0.000699913
2.52524 0.00127085 2.38765 0.000750776 3.56694 0.000640341
2.43178 0.00122382 2.31892 0.000729163 3.22024 0.000578101
2.33508 0.00117515 2.25755 0.000709865 2.86264 0.000513905
2.23494 0.00112475 2.20193 0.000692377 2.49848 0.00044853
2.1312 0.00107254 2.15022 0.000676117 2.13237 0.000382806
2.02383 0.00101851 2.10036 0.000660438 1.7691 0.000317591
1.91294 0.000962704 2.05015 0.000644651 1.41347 0.000253747
1.76979 0.00089066 1.98347 0.000623685 0.986825 0.000177156
1.62231 0.00081644 1.90845 0.000600096 0.588099 0.000105576
1.47125 0.000740419 1.82125 0.000572676 0.224913 4.03766e-05
1.31682 0.000662703 1.71941 0.000540654 -0.0746217 -1.33962e-05
1.1586 0.000583073 1.60085 0.000503373 -0.316321 -5.67863e-05
0.995671 0.00050108 1.46382 0.000460284 -0.512309 -9.19703e-05
0.827114 0.000416252 1.30888 0.000411566 -0.666493 -0.00011965
0.652507 0.00032838 1.13675 0.000357441 -0.781431 -0.000140284
0.47205 0.000237563 0.948597 0.000298278 -0.856335 -0.00015373
0.286088 0.000143976 0.746626 0.00023477 -0.894298 -0.000160546
0.11391 5.7326e-05 0.530258 0.000166735 -0.901584 -0.000161854
-0.0210623 -1.05998e-05 0.293723 9.23584e-05 -0.879868 -0.000157955
-0.148641 -7.48047e-05 0.0694761 2.18461e-05 -0.846625 -0.000151987
-0.27415 -0.000137968 -0.146168 -4.59614e-05 -0.802015 -0.000143979
-0.401844 -0.000202232 -0.356347 -0.00011205 -0.755486 -0.000135626
-0.528474 -0.000265959 -0.555897 -0.000174797 -0.715447 -0.000128438
-0.650859 -0.000327551 -0.738267 -0.000232141 -0.689391 -0.00012376
-0.769627 -0.000387322 -0.90354 -0.00028411 -0.682636 -0.000122548
-0.88306 -0.000444407 -1.05013 -0.000330204 -0.701311 -0.0001259
-0.989318 -0.000497883 -1.17563 -0.000369666 -0.748966 -0.000134455
-1.08825 -0.00054767 -1.27986 -0.000402439 -0.827163 -0.000148493
-1.17917 -0.000593425 -1.36295 -0.000428568 -0.929801 -0.000166919
-1.26159 -0.000634908 -1.42576 -0.000448316 -1.05339 -0.000189106
-1.33611 -0.00067241 -1.46986 -0.000462184 -1.20249 -0.000215872
-1.40342 -0.000706285 -1.49678 -0.00047065 -1.37517 -0.000246872
-1.46443 -0.000736987 -1.50897 -0.000474481 -1.56821 -0.000281527
-1.5203 -0.000765103 -1.50952 -0.000474655 -1.77589 -0.000318809
-1.57215 -0.0007912 -1.50154 -0.000472146 -1.99258 -0.000357711
-1.62109 -0.000815826 -1.4884 -0.000468014 -2.21319 -0.000397315
-1.66826 -0.000839564 -1.47382 -0.00046343 -2.43232 -0.000436654
-1.71477 -0.000862974 -1.46143 -0.000459534 -2.64379 -0.000474616
-1.76173 -0.000886604 -1.45454 -0.000457367 -2.84159 -0.000510125
-1.81022 -0.000911007 -1.45619 -0.000457886 -3.02085 -0.000542307
-1.86126 -0.000936697 -1.46903 -0.000461924 -3.17765 -0.000570456
-1.91579 -0.000964136 -1.49516 -0.000470141 -3.30853 -0.000593951
-1.97459 -0.000993731 -1.53608 -0.000483007 -3.41083 -0.000612316
-2.0383 -0.00102579 -1.59269 -0.000500806 -3.48325 -0.000625317
-2.10713 -0.00106043 -1.66537 -0.00052366 -3.52581 -0.000632959
-2.18084 -0.00109753 -1.754 -0.000551529 -3.53956 -0.000635427
-2.25874 -0.00113673 -1.85788 -0.000584194 -3.5245 -0.000632724
-2.33987 -0.00117756 -1.97578 -0.000621268 -3.48257 -0.000625196
-2.42303 -0.00121941 -2.10598 -0.000662205 -3.41837 -0.000613669
-2.50697 -0.00126166 -2.24614 -0.000706278 -3.33786 -0.000599217
-2.59039 -0.00130363 -2.39347 -0.000752606 -3.24767 -0.000583027
-2.67211 -0.00134476 -2.54478 -0.000800183 -3.15473 -0.00056634
-2.7512 -0.00138456 -2.69651 -0.000847892 -3.06615 -0.000550439
-2.827 -0.00142271 -2.84489 -0.000894549 -2.98925 -0.000536633
-2.89907 -0.00145898 -2.98619 -0.00093898 -2.93101 -0.000526178
-2.96705 -0.00149319 -3.11696 -0.0009801 -2.89759 -0.00052018
-3.03059 -0.00152517 -3.23424 -0.00101698 -2.89408 -0.000519549
-3.0893 -0.00155472 -3.3357 -0.00104888 -2.92439 -0.00052499
-3.14271 -0.00158159 -3.41979 -0.00107532 -2.99109 -0.000536964
-3.1903 -0.00160555 -3.48577 -0.00109607 -3.09519 -0.000555653
-3.23165 -0.00162636 -3.53367 -0.00111113 -3.2361 -0.000580949
-3.26646 -0.00164388 -3.56424 -0.00112074 -3.41174 -0.00061248
-3.29465 -0.00165806 -3.57849 -0.00112522 -3.60422 -0.000647035
-3.31618 -0.0016689 -3.57835 -0.00112518 -3.80937 -0.000683863
-3.33128 -0.00167649 -3.56663 -0.0011215 -4.03214 -0.000723855
-3.34011 -0.00168094 -3.54567 -0.0011149 -4.26929 -0.000766428
-3.34278 -0.00168228 -3.51804 -0.00110622 -4.51541 -0.000810612
-3.33973 -0.00168075 -3.48663 -0.00109634 -4.76199 -0.000854879
-3.32081 -0.00167123 -3.45852 -0.0010875 -5.00088 -0.000897764
-3.29877 -0.00166013 -3.43105 -0.00107886 -5.22994 -0.000938886
-3.27698 -0.00164917 -3.40548 -0.00107082 -5.44343 -0.000977212
-3.25716 -0.00163919 -3.38379 -0.001064 -5.6352 -0.00101164
-3.22969 -0.00162537 -3.37048 -0.00105982 -5.7997 -0.00104117
-3.19182 -0.00160631 -3.36743 -0.00105886 -5.93425 -0.00106532
-3.14421 -0.00158235 -3.37433 -0.00106103 -6.03676 -0.00108373
-3.08738 -0.00155375 -3.38951 -0.0010658 -6.10577 -0.00109611
-3.02201 -0.00152085 -3.41083 -0.0010725 -6.14137 -0.00110251
-2.94913 -0.00148417 -3.4355 -0.00108026 -6.14443 -0.00110306
-2.86998 -0.00144434 -3.45966 -0.00108786 -6.11443 -0.00109767
-2.78603 -0.0014021 -3.47907 -0.00109396 -6.05353 -0.00108674
-2.69879 -0.00135819 -3.48961 -0.00109728 -5.96553 -0.00107094
-2.60941 -0.00131321 -3.48731 -0.00109655 -5.85464 -0.00105103
-2.51852 -0.00126747 -3.46869 -0.0010907 -5.72473 -0.00102771
-2.42596 -0.00122089 -3.43107 -0.00107887 -5.57903 -0.00100155
-2.3307 -0.00117294 -3.37276 -0.00106053 -5.42029 -0.000973058
-2.23121 -0.00112288 -3.29291 -0.00103543 -5.25079 -0.000942628
-2.12604 -0.00106995 -3.19134 -0.00100349 -5.07208 -0.000910546
-2.01422 -0.00101368 -3.06834 -0.000964812 -4.88499 -0.00087696
-1.89548 -0.000953917 -2.92465 -0.00091963 -4.68971 -0.000841902
-1.76984 -0.000890688 -2.76149 -0.000868327 -4.48585 -0.000805305
-1.63732 -0.000823995 -2.58062 -0.000811454 -4.2725 -0.000767004
-1.49789 -0.000753825 -2.38428 -0.000749715 -4.04825 -0.000726747
-1.35158 -0.000680192 -2.17503 -0.00068392 -3.81135 -0.000684218
-1.19841 -0.000603109 -1.9557 -0.000614951 -3.55986 -0.00063907
-1.03826 -0.000522515 -1.72921 -0.000543734 -3.29187 -0.000590962
-0.870743 -0.000438209 -1.49858 -0.000471216 -3.00567 -0.000539581
-0.695361 -0.000349947 -1.26668 -0.000398295 -2.69983 -0.000484676
-0.512109 -0.000257723 -1.03586 -0.000325716 -2.37352 -0.000426097
-0.321888 -0.000161993 -0.807762 -0.000253993 -2.02664 -0.000363826
-0.126299 -6.35612e-05 -0.583344 -0.000183427 -1.65986 -0.000297981
0.0273875 1.3783e-05 -0.350579 -0.000110236 -1.27766 -0.000229368
0.144922 7.29334e-05 -0.122924 -3.86523e-05 -0.875371 -0.000157148
0.260893 0.000131297 0.0991713 3.11835e-05 -0.455646 -8.17982e-05
0.374861 0.000188652 0.310598 9.76649e-05 -0.022295 -4.00243e-06
0.483974 0.000243564 0.509348 0.00016016 0.379759 6.81749e-05
0.587264 0.000295546 0.697334 0.000219271 0.788107 0.000141482
0.684354 0.000344407 0.873196 0.000274569 1.20463 0.000216257
0.773927 0.000389485 1.03477 0.000325374 1.62618 0.000291934
0.855561 0.000430569 1.18242 0.000371803 2.04783 0.000367628
0.929486 0.000467772 1.31676 0.000414043 2.46106 0.000441813
0.995754 0.000501122 1.43684 0.000451803 2.86311 0.000513989
1.05493 0.000530902 1.54237 0.000484984 3.25155 0.000583723
1.10776 0.000557492 1.63397 0.000513788 3.62171 0.000650174
1.1549 0.000581216 1.71212 0.000538361 3.96658 0.000712086
1.19715 0.000602477 1.77716 0.000558812 4.28088 0.00076851
1.23557 0.00062181 1.82967 0.000575322 4.56143 0.000818874
1.27129 0.000639789 1.87045 0.000588145 4.80471 0.000862548
1.30548 0.000656992 1.90039 0.000597561 5.00595 0.000898674
1.3391 0.000673912 1.92049 0.00060388 5.16096 0.000926502
1.37276 0.000690852 1.93196 0.000607488 5.26738 0.000945607
1.40669 0.000707929 1.9363 0.000608851 5.32364 0.000955706
1.44097 0.000725178 1.93494 0.000608423 5.32703 0.000956316
1.47577 0.000742694 1.92894 0.000606537 5.27205 0.000946445
1.51147 0.000760659 1.91937 0.000603529 5.15793 0.000925959
1.54848 0.000779288 1.90702 0.000599645 4.9868 0.000895237
1.58702 0.000798682 1.89253 0.000595088 4.76189 0.000854861
1.62685 0.000818727 1.87654 0.000590062 4.48692 0.000805498
1.66738 0.000839124 1.85969 0.000584761 4.16635 0.000747949
1.70783 0.000859481 1.84238 0.00057932 3.80594 0.000683248
1.74734 0.000879362 1.82482 0.000573797 3.41254 0.000612623
1.78496 0.000898296 1.80699 0.000568192 2.99353 0.000537402
1.81965 0.000915756 1.78874 0.000562453 2.55664 0.000458972
1.8503 0.000931178 1.7697 0.000556467 2.11008 0.000378805
1.8758 0.000944011 1.74934 0.000550063 1.66246 0.000298446
1.89514 0.000953744 1.72693 0.000543018 1.22239 0.000219445
1.90674 0.000959582 1.7019 0.000535146 0.798179 0.00014329
1.90489 0.000958651 1.67526 0.000526772 0.397123 7.1292e-05
1.8888 0.000950554 1.64476 0.000517181 0.0309635 5.5586e-06
1.85934 0.000935726 1.60904 0.000505949 -0.267118 -4.79533e-05
1.81916 0.000915506 1.56419 0.000491844 -0.520862 -9.35058e-05
1.77063 0.000891084 1.50928 0.00047458 -0.730881 -0.000131209
1.71566 0.000863421 1.44319 0.000453798 -0.896959 -0.000161023
1.65594 0.000833367 1.36529 0.000429303 -1.01552 -0.000182307
1.59251 0.000801446 1.27596 0.000401213 -1.08508 -0.000194795
1.52581 0.000767878 1.17677 0.000370023 -1.10733 -0.000198789
1.45594 0.000732714 1.07002 0.000336459 -1.08435 -0.000194663
1.38291 0.000695962 0.958337 0.00030134 -1.01834 -0.000182813
1.30701 0.000657765 0.844604 0.000265578 -0.913497 -0.000163992
1.22901 0.000618512 0.731984 0.000230166 -0.776143 -0.000139334
1.15006 0.000578779 0.623509 0.000196057 -0.614279 -0.000110276
1.07134 0.000539163 0.522052 0.000164154 -0.435457 -7.81738e-05
0.993843 0.00050016 0.430414 0.00013534 -0.246348 -4.42247e-05
0.918335 0.00046216 0.351176 0.000110424 -0.0536657 -9.63414e-06
0.845377 0.000425443 0.286328 9.00333e-05 0.131324 2.35755e-05
0.775049 0.00039005 0.237735 7.47538e-05 0.304124 5.45967e-05
0.706874 0.000355741 0.206624 6.49711e-05 0.462875 8.30959e-05
0.639778 0.000321974 0.193568 6.08657e-05 0.605077 0.000108624
0.572328 0.000288029 0.198475 6.24088e-05 0.727359 0.000130576
0.502967 0.000253122 0.220366 6.92922e-05 0.827366 0.00014853
0.430188 0.000216496 0.257305 8.09072e-05 0.904992 0.000162465
0.352639 0.000177469 0.306422 9.63515e-05 0.96213 0.000172723
0.269123 0.000135438 0.364044 0.00011447 1.00084 0.000179673
0.178503 8.98332e-05 0.425855 0.000133906 1.02354 0.000183747
0.0882244 4.43997e-05 0.485121 0.000152542 1.03364 0.000185561
0.0399828 2.01217e-05 0.523238 0.000164528 1.03874 0.000186476
-0.0211411 -1.06395e-05 0.552369 0.000173687 1.03684 0.000186135
-0.0843188 -4.24341e-05 0.573433 0.000180311 1.02935 0.000184791
-0.152768 -7.6882e-05 0.581126 0.00018273 1.01889 0.000182913
-0.227949 -0.000114717 0.570043 0.000179245 1.00707 0.00018079
-0.308729 -0.000155371 0.538882 0.000169446 0.995242 0.000178667
-0.394505 -0.000198538 0.486887 0.000153097 0.983992 0.000176648
-0.485535 -0.00024435 0.412496 0.000129706 0.972235 0.000174537
-0.581503 -0.000292646 0.31563 9.92469e-05 0.95777 0.00017194
-0.682196 -0.000343321 0.197327 6.20477e-05 0.938544 0.000168489
-0.787454 -0.000396293 0.059003 1.8553e-05 0.91161 0.000163653
-0.896578 -0.00045121 -0.0970522 -3.05172e-05 0.872768 0.00015668
-1.00859 -0.000507583 -0.269726 -8.48131e-05 0.81841 0.000146922
-1.12265 -0.000564982 -0.455019 -0.000143077 0.743306 0.000133439
-1.23786 -0.000622961 -0.649795 -0.000204322 0.643141 0.000115458
-1.3533 -0.000681058 -0.851124 -0.000267628 0.513176 9.21259e-05
-1.46817 -0.000738867 -1.05602 -0.000332057 0.348724 6.26035e-05
-1.58164 -0.000795972 -1.26095 -0.000396495 0.148336 2.66294e-05
-1.6929 -0.000851965 -1.46222 -0.000459783 -0.0766969 -1.37687e-05
-1.80097 -0.000906356 -1.65746 -0.000521172 -0.330695 -5.93668e-05
-1.905 -0.000958707 -1.84475 -0.000580064 -0.62192 -0.000111648
-2.00406 -0.00100856 -2.0219 -0.000635767 -0.951518 -0.000170818
-2.09737 -0.00105552 -2.18765 -0.000687888 -1.31869 -0.000236732
-2.18412 -0.00109918 -2.3414 -0.000736231 -1.71893 -0.000308585
-2.26362 -0.00113918 -2.4828 -0.000780693 -2.14814 -0.000385636
-2.33547 -0.00117534 -2.61181 -0.00082126 -2.60225 -0.000467159
-2.39966 -0.00120765 -2.72879 -0.000858042 -3.07634 -0.000552268
-2.45654 -0.00123628 -2.83435 -0.000891234 -3.56345 -0.000639716
-2.50674 -0.00126154 -2.92926 -0.000921078 -4.05607 -0.000728151
-2.551 -0.00128381 -3.01445 -0.000947868 -4.54699 -0.000816281
-2.59011 -0.00130349 -3.0911 -0.000971968 -5.02908 -0.000902826
-2.62474 -0.00132092 -3.16051 -0.000993793 -5.49459 -0.000986396
-2.65547 -0.00133639 -3.22403 -0.00101377 -5.93564 -0.00106557
-2.68283 -0.00135016 -3.28297 -0.0010323 -6.34499 -0.00113906
-2.70739 -0.00136252 -3.33844 -0.00104974 -6.7163 -0.00120572
-2.7298 -0.00137379 -3.39131 -0.00106637 -7.0438 -0.00126451
-2.7518 -0.00138487 -3.43553 -0.00108027 -7.09776 -0.0012742
-2.77267 -0.00139537 -3.48024 -0.00109433 -7.07916 -0.00127086
-2.79389 -0.00140605 -3.52388 -0.00110805 -7.06517 -0.00126835
-2.8153 -0.00141682 -3.56395 -0.00112065 -7.08118 -0.00127122
-2.83765 -0.00142807 -3.6028 -0.00113287 -7.10631 -0.00127573
-2.86081 -0.00143973 -3.64012 -0.0011446 -7.10555 -0.0012756
-2.88449 -0.00145164 -3.67358 -0.00115512 -7.06038 -0.00126749
-2.90811 -0.00146353 -3.70158 -0.00116393 -6.969 -0.00125108
-2.93066 -0.00147488 -3.72441 -0.00117111 -6.83281 -0.00122664
-2.9508 -0.00148502 -3.74153 -0.00117649 -6.64513 -0.00119294
-2.96694 -0.00149314 -3.75186 -0.00117974 -6.40859 -0.00115048
-2.97553 -0.00149746 -3.75532 -0.00118083 -6.13604 -0.00110155
-2.9756 -0.0014975 -3.75094 -0.00117945 -5.8362 -0.00104772
-2.96655 -0.00149294 -3.73679 -0.001175 -5.51121 -0.00098938
-2.94843 -0.00148382 -3.7105 -0.00116673 -5.16482 -0.000927196
-2.92199 -0.00147052 -3.67023 -0.00115407 -4.80667 -0.0008629
-2.88803 -0.00145343 -3.61443 -0.00113653 -4.44601 -0.000798154
-2.84718 -0.00143287 -3.54183 -0.0011137 -4.08771 -0.000733831
-2.7999 -0.00140907 -3.45177 -0.00108538 -3.73481 -0.000670478
-2.74635 -0.00138213 -3.34438 -0.00105161 -3.39217 -0.000608967
-2.6863 -0.0013519 -3.22045 -0.00101264 -3.06486 -0.000550207
-2.61915 -0.00131811 -3.08146 -0.000968936 -2.75543 -0.000494658
-2.54401 -0.0012803 -2.92951 -0.000921157 -2.46424 -0.000442384
-2.45969 -0.00123786 -2.76725 -0.000870138 -2.19158 -0.000393436
-2.36493 -0.00119017 -2.59759 -0.000816788 -1.93797 -0.000347907
-2.25894 -0.00113683 -2.42333 -0.000761993 -1.70315 -0.000305751
-2.14185 -0.0010779 -2.24695 -0.000706534 -1.48571 -0.000266717
-2.01469 -0.00101391 -2.07053 -0.000651058 -1.28408 -0.000230519
-1.87903 -0.000945639 -1.89571 -0.000596089 -1.09703 -0.00019694
-1.7367 -0.000874009 -1.72386 -0.000542052 -0.923406 -0.000165771
-1.58959 -0.000799975 -1.55608 -0.000489294 -0.761646 -0.000136732
-1.43958 -0.000724482 -1.39325 -0.000438095 -0.610018 -0.000109511
-1.28845 -0.000648423 -1.23608 -0.000388673 -0.467019 -8.38398e-05
-1.13776 -0.000572585 -1.0851 -0.0003412 -0.33139 -5.94915e-05
-0.988764 -0.000497604 -0.940783 -0.000295821 -0.201864 -3.62388e-05
-0.842238 -0.000423863 -0.803568 -0.000252675 -0.0770905 -1.38394e-05
-0.698282 -0.000351416 -0.674355 -0.000212045 0.0288182 5.17348e-06
-0.556714 -0.000280171 -0.5532 -0.000173949 0.12199 2.18998e-05
-0.417404 -0.000210062 -0.439967 -0.000138344 0.213069 3.82503e-05
-0.28093 -0.00014138 -0.334557 -0.000105199 0.304681 5.46968e-05
-0.148605 -7.47868e-05 -0.235958 -7.41949e-05 0.396978 7.1266e-05
-0.0233326 -1.17423e-05 -0.14298 -4.49586e-05 0.487309 8.74824e-05
0.0678983 3.41704e-05 -0.0525077 -1.65106e-05 0.575873 0.000103381
0.128992 6.49162e-05 0.0410414 1.29051e-05 0.663448 0.000119103
0.187318 9.42693e-05 0.129054 4.058e-05 0.751111 0.00013484
0.238791 0.000120174 0.209044 6.5732e-05 0.838713 0.000150567
0.28311 0.000142478 0.280897 8.83257e-05 0.927057 0.000166426
0.321006 0.000161549 0.34597 0.000108787 1.01628 0.000182444
0.351819 0.000177056 0.402131 0.000126447 1.10647 0.000198636
0.375692 0.00018907 0.448282 0.000140958 1.19711 0.000214907
0.39349 0.000198027 0.484738 0.000152421 1.28767 0.000231165
0.405631 0.000204137 0.510991 0.000160676 1.37766 0.00024732
0.41279 0.00020774 0.52645 0.000165538 1.46586 0.000263153
0.415791 0.00020925 0.53124 0.000167044 1.55099 0.000278436
0.414837 0.00020877 0.525617 0.000165275 1.63174 0.000292932
0.410166 0.00020642 0.51021 0.000160431 1.70627 0.000306311
0.402162 0.000202392 0.486091 0.000152847 1.77237 0.000318178
0.39108 0.000196814 0.454525 0.000142921 1.82807 0.000328177
0.377161 0.000189809 0.416947 0.000131105 1.87137 0.000335951
0.360742 0.000181546 0.374836 0.000117864 1.90017 0.000341121
0.342193 0.000172211 0.329559 0.000103627 1.91252 0.000343337
0.320361 0.000161224 0.28286 8.89429e-05 1.90447 0.000341893
0.295391 0.000148658 0.235927 7.41852e-05 1.87203 0.000336069
0.269132 0.000135443 0.189193 5.949e-05 1.81399 0.000325649
0.243743 0.000122666 0.142693 4.48684e-05 1.73029 0.000310624
0.220924 0.000111182 0.0965346 3.03544e-05 1.62158 0.000291107
0.201596 0.000101455 0.0510364 1.60479e-05 1.48871 0.000267255
0.185939 9.35754e-05 0.0066364 2.08676e-06 1.33274 0.000239255
0.173403 8.72665e-05 -0.0363299 -1.14236e-05 1.15535 0.00020741
0.162914 8.1988e-05 -0.0771353 -2.42545e-05 0.959085 0.000172176
0.153268 7.71334e-05 -0.115023 -3.61678e-05 0.74675 0.000134057
0.143546 7.22408e-05 -0.150026 -4.71745e-05 0.521224 9.35709e-05
0.133392 6.71305e-05 -0.182268 -5.73126e-05 0.286224 5.13833e-05
0.122643 6.1721e-05 -0.212267 -6.67455e-05 0.0457203 8.20777e-06
0.111172 5.59485e-05 -0.240012 -7.54695e-05 -0.180004 -3.23145e-05
0.099247 4.99469e-05 -0.267101 -8.39874e-05 -0.398565 -7.1551e-05
0.0873609 4.39651e-05 -0.294192 -9.25059e-05 -0.610807 -0.000109653
0.0761934 3.8345e-05 -0.322126 -0.00010129 -0.81383 -0.0001461
0.0666259 3.35301e-05 -0.351828 -0.000110629 -1.00381 -0.000180206
0.0596427 3.00157e-05 -0.384002 -0.000120746 -1.17674 -0.000211249
0.0562733 2.832e-05 -0.418909 -0.000131722 -1.33021 -0.0002388
0.0575539 2.89645e-05 -0.45651 -0.000143546 -1.46311 -0.000262659
0.0644493 3.24347e-05 -0.496415 -0.000156093 -1.5743 -0.000282621
0.0777923 3.91496e-05 -0.537721 -0.000169081 -1.6627 -0.000298489
0.0983102 4.94754e-05 -0.579068 -0.000182083 -1.72812 -0.000310234
0.126759 6.37925e-05 -0.618772 -0.000194567 -1.77155 -0.00031803
0.151056 7.60202e-05 -0.651097 -0.000204732 -1.79513 -0.000322264
0.166362 8.37231e-05 -0.671754 -0.000211227 -1.80063 -0.000323252
0.186909 9.40638e-05 -0.684468 -0.000215225 -1.78639 -0.000320695
0.211405 0.000106391 -0.68787 -0.000216295 -1.75382 -0.000314848
0.239667 0.000120614 -0.680384 -0.000213941 -1.70421 -0.000305942
0.271017 0.000136391 -0.660392 -0.000207654 -1.63855 -0.000294155
0.304841 0.000153414 -0.627385 -0.000197276 -1.55824 -0.000279738
0.340497 0.000171358 -0.581138 -0.000182734 -1.46429 -0.000262871
0.377199 0.000189829 -0.521454 -0.000163967 -1.35703 -0.000243615
0.414045 0.000208372 -0.448617 -0.000141064 -1.23667 -0.000222009
0.45015 0.000226542 -0.363614 -0.000114335 -1.10346 -0.000198095
0.483083 0.000243116 -0.268798 -8.45211e-05 -0.956836 -0.000171772
0.507446 0.000255377 -0.165615 -5.2076e-05 -0.795926 -0.000142886
0.523853 0.000263634 -0.0530024 -1.66661e-05 -0.621043 -0.00011149
0.533302 0.000268389 0.0657052 2.06604e-05 -0.431604 -7.74821e-05
0.535456 0.000269473 0.187138 5.88439e-05 -0.225429 -4.04692e-05
0.531536 0.0002675 0.305369 9.60204e-05 -0.011779 -2.11457e-06
0.522604 0.000263005 0.416755 0.000131045 0.189955 3.4101e-05
0.508863 0.00025609 0.518672 0.000163092 0.400807 7.19534e-05
0.491474 0.000247339 0.606853 0.000190819 0.62621 0.000112418
0.471544 0.000237308 0.678625 0.000213388 0.86805 0.000155833
0.44962 0.000226275 0.732448 0.000230312 1.1205 0.000201154
0.42611 0.000214444 0.76739 0.000241299 1.37884 0.00024753
0.401426 0.000202021 0.783018 0.000246213 1.64047 0.0002945
0.376193 0.000189322 0.779802 0.000245202 1.90321 0.000341667
0.351332 0.000176811 0.759127 0.000238701 2.16107 0.000387958
0.327714 0.000164925 0.722925 0.000227317 2.40664 0.000432043
0.305818 0.000153906 0.673718 0.000211844 2.63378 0.00047282
0.285772 0.000143817 0.61469 0.000193284 2.83758 0.000509405
0.267603 0.000134673 0.54937 0.000172745 3.01215 0.000540745
0.251392 0.000126515 0.481261 0.000151328 3.15092 0.000565658
0.237342 0.000119444 0.413689 0.000130081 3.24841 0.000583158
0.225739 0.000113605 0.349694 0.000109958 3.30091 0.000592584
0.216814 0.000109114 0.291875 9.17775e-05 3.30399 0.000593137
0.210629 0.000106001 0.242047 7.61095e-05 3.24786 0.00058306
0.206931 0.00010414 0.201816 6.34591e-05 3.12929 0.000561774
0.205228 0.000103283 0.172025 5.40918e-05 2.94961 0.000529517
0.204947 0.000103141 0.152729 4.80243e-05 2.71268 0.000486984
0.20564 0.00010349 0.14323 4.50374e-05 2.42341 0.000435053
0.207083 0.000104216 0.142076 4.46747e-05 2.08743 0.000374739
0.209161 0.000105262 0.14713 4.62638e-05 1.71216 0.00030737
0.211639 0.000106509 0.155802 4.89906e-05 1.30676 0.000234591
0.213958 0.000107676 0.165316 5.1982e-05 0.881065 0.00015817
0.215388 0.000108396 0.172814 5.43398e-05 0.444866 7.98628e-05
0.215303 0.000108353 0.175427 5.51615e-05 0.0114561 2.05661e-06
0.213036 0.000107212 0.172359 5.41968e-05 -0.354843 -6.37019e-05
0.208491 0.000104925 0.158105 4.97147e-05 -0.70207 -0.000126037
0.200964 0.000101137 0.131606 4.13822e-05 -1.02813 -0.000184571
0.189355 9.52943e-05 0.0930093 2.92459e-05 -1.33008 -0.000238778
0.172411 8.67676e-05 0.0407531 1.28144e-05 -1.60109 -0.000287429
0.149587 7.52809e-05 -0.0251204 -7.89889e-06 -1.83343 -0.000329141
0.122067 6.14311e-05 -0.104006 -3.27038e-05 -2.02574 -0.000363663
0.0890743 4.48274e-05 -0.194867 -6.12743e-05 -2.17987 -0.000391332
0.0514154 2.58753e-05 -0.296081 -9.31001e-05 -2.29607 -0.000412194
0.0111202 5.59635e-06 -0.405676 -0.000127561 -2.3733 -0.000426058
-0.0282387 -1.42114e-05 -0.520443 -0.000163649 -2.41344 -0.000433264
-0.0678533 -3.41478e-05 -0.637904 -0.000200583 -2.42055 -0.000434541
-0.110807 -5.57646e-05 -0.753636 -0.000236974 -2.39694 -0.000430301
-0.152325 -7.66591e-05 -0.865662 -0.0002722 -2.34476 -0.000420935
-0.191361 -9.63042e-05 -0.970558 -0.000305183 -2.26881 -0.000407299
-0.226842 -0.00011416 -1.06502 -0.000334887 -2.17564 -0.000390574
-0.257861 -0.000129771 -1.14601 -0.000360352 -2.07156 -0.00037189
-0.283439 -0.000142643 -1.2107 -0.000380695 -1.96162 -0.000352153
-0.302724 -0.000152348 -1.25689 -0.000395219 -1.85006 -0.000332125
-0.31499 -0.000158522 -1.28291 -0.000403399 -1.741 -0.000312547
-0.319683 -0.000160883 -1.28756 -0.000404861 -1.63812 -0.000294078
-0.316473 -0.000159268 -1.27021 -0.000399408 -1.54376 -0.000277137
-0.30593 -0.000153962 -1.23064 -0.000386963 -1.45896 -0.000261915
-0.289927 -0.000145908 -1.16912 -0.000367619 -1.38386 -0.000248433
-0.269744 -0.000135751 -1.08694 -0.000341778 -1.31767 -0.000236549
-0.246635 -0.000124121 -0.986194 -0.0003101 -1.25855 -0.000225936
-0.221601 -0.000111523 -0.869795 -0.000273499 -1.20347 -0.000216048
-0.189447 -9.5341e-05 -0.743151 -0.000233677 -1.148 -0.00020609
-0.155474 -7.82436e-05 -0.608651 -0.000191385 -1.08904 -0.000195505
-0.121054 -6.09217e-05 -0.470136 -0.00014783 -1.02205 -0.00018348
-0.0865604 -4.35622e-05 -0.331566 -0.000104258 -0.942965 -0.000169282
-0.0526739 -2.65086e-05 -0.197167 -6.19974e-05 -0.84791 -0.000152218
-0.0201128 -1.01219e-05 -0.0709058 -2.22957e-05 -0.733258 -0.000131635
0.00855413 4.30494e-06 0.0427279 1.34354e-05 -0.596052 -0.000107004
0.0347225 1.74744e-05 0.142733 4.48811e-05 -0.435089 -7.81077e-05
0.0606783 3.05369e-05 0.226426 7.11975e-05 -0.251411 -4.51337e-05
0.0874214 4.39956e-05 0.291655 9.17083e-05 -0.0437306 -7.85057e-06
0.115352 5.80519e-05 0.336946 0.00010595 0.15458 2.77504e-05
0.14573 7.33397e-05 0.36398 0.00011445 0.36263 6.50998e-05
0.177671 8.94146e-05 0.373854 0.000117555 0.581938 0.00010447
0.189947 9.55923e-05 0.377372 0.000118661 0.807097 0.000144891
0.203654 0.000102491 0.368896 0.000115996 1.0352 0.000185841
0.219332 0.000110381 0.349557 0.000109915 1.25733 0.000225717
0.238193 0.000119872 0.32233 0.000101354 1.46825 0.000263583
0.260996 0.000131348 0.290701 9.14083e-05 1.66503 0.000298908
0.288044 0.000144961 0.258186 8.11842e-05 1.84207 0.00033069
0.319503 0.000160793 0.22835 7.18027e-05 1.99193 0.000357594
0.354987 0.00017865 0.204642 6.43477e-05 2.10982 0.000378757
0.393981 0.000198275 0.190538 5.99131e-05 2.19317 0.00039372
0.435806 0.000219323 0.18894 5.94106e-05 2.23954 0.000402045
0.479608 0.000241367 0.201812 6.3458e-05 2.2458 0.00040317
0.524738 0.000264079 0.230157 7.23708e-05 2.2069 0.000396185
0.57084 0.00028728 0.274266 8.62404e-05 2.12322 0.000381163
0.617612 0.000310819 0.333292 0.000104801 1.99837 0.00035875
0.664672 0.000334502 0.405478 0.000127499 1.83744 0.000329859
0.71152 0.000358079 0.488476 0.000153597 1.64655 0.000295591
0.755961 0.000380444 0.579957 0.000182362 1.43272 0.000257204
0.795735 0.000400461 0.677049 0.000212892 1.20404 0.000216151
0.83175 0.000418586 0.775126 0.000243731 0.96976 0.000174092
0.864874 0.000435255 0.869281 0.000273338 0.739048 0.000132675
0.896043 0.000450941 0.954911 0.000300263 0.520759 9.34872e-05
0.926199 0.000466117 1.02784 0.000323195 0.323097 5.80028e-05
0.956164 0.000481198 1.08448 0.000341006 0.153246 2.75109e-05
0.986538 0.000496484 1.1223 0.000352896 0.0195709 3.51338e-06
1.01755 0.000512092 1.14007 0.000358486 -0.07163 -1.28591e-05
1.04916 0.000527999 1.13726 0.000357601 -0.122734 -2.20334e-05
1.06738 0.000537166 1.12065 0.000352377 -0.140876 -2.52902e-05
1.07835 0.000542688 1.08907 0.000342447 -0.124274 -2.23098e-05
1.08454 0.000545802 1.04263 0.000327845 -0.0712513 -1.27911e-05
1.08756 0.000547325 0.983342 0.000309203 0.0104853 1.88234e-06
1.08822 0.000547657 0.914269 0.000287484 0.114047 2.04738e-05
1.0871 0.000547092 0.839337 0.000263922 0.236037 4.23736e-05
1.08524 0.000546158 0.762418 0.000239735 0.372295 6.68348e-05
1.08353 0.000545295 0.687301 0.000216116 0.517453 9.28939e-05
1.08286 0.000544959 0.618102 0.000194356 0.665183 0.000119414
1.08433 0.0005457 0.558756 0.000175696 0.809073 0.000145246
1.08897 0.000548033 0.512455 0.000161137 0.943563 0.00016939
1.09772 0.000552435 0.481885 0.000151524 1.06451 0.000191102
1.11143 0.000559335 0.469314 0.000147571 1.16832 0.000209739
1.13075 0.00056906 0.476242 0.00014975 1.25195 0.000224751
1.15606 0.000581796 0.503319 0.000158264 1.31356 0.000235812
1.18622 0.000596975 0.549904 0.000172912 1.35316 0.00024292
1.22032 0.000614137 0.613758 0.000192991 1.37245 0.000246384
1.25883 0.000633519 0.694633 0.000218421 1.37223 0.000246344
1.3023 0.000655391 0.791073 0.000248746 1.35353 0.000242988
1.34886 0.000678826 0.90016 0.000283047 1.32054 0.000237064
1.39579 0.000702443 1.02019 0.000320789 1.27783 0.000229397
1.44049 0.000724937 1.14846 0.000361123 1.23084 0.000220962
1.4809 0.000745274 1.28119 0.00040286 1.1857 0.000212859
1.5156 0.00076274 1.41455 0.000444793 1.14856 0.00020619
1.54387 0.000776966 1.54426 0.00048558 1.12551 0.000202052
1.5654 0.000787801 1.6657 0.000523763 1.12241 0.000201496
1.58006 0.000795179 1.77461 0.000558011 1.14436 0.000205437
1.58732 0.000798832 1.86747 0.00058721 1.19531 0.000214584
1.58615 0.000798244 1.94148 0.000610482 1.27784 0.0002294
1.57487 0.000792567 1.99411 0.000627031 1.38818 0.000249207
1.55216 0.000781136 2.02314 0.000636157 1.52046 0.000272955
1.51736 0.000763626 2.02839 0.000637808 1.67922 0.000301456
1.46981 0.000739694 2.01001 0.00063203 1.86357 0.000334551
1.40885 0.000709015 1.96898 0.000619128 2.06917 0.00037146
1.33444 0.000671566 1.90692 0.000599613 2.28991 0.000411088
1.24722 0.000627674 1.82573 0.000574083 2.51879 0.000452176
1.14853 0.000578007 1.7275 0.000543197 2.74941 0.000493578
1.04025 0.000523517 1.61462 0.000507704 2.97472 0.000534025
0.92443 0.000465227 1.48974 0.000468436 3.18661 0.000572064
0.803099 0.000404167 1.35562 0.000426262 3.37672 0.000606192
0.678488 0.000341455 1.21503 0.000382055 3.53744 0.000635046
0.55305 0.000278327 1.07064 0.000336654 3.66186 0.000657383
0.429265 0.000216031 0.924973 0.000290849 3.74343 0.000672025
0.309208 0.000155612 0.780439 0.000245402 3.77615 0.000677899
0.194301 9.77837e-05 0.639287 0.000201018 3.7518 0.000673528
0.0855893 4.30735e-05 0.503575 0.000158345 3.66369 0.000657709
-0.0114332 -5.75383e-06 0.377341 0.000118651 3.50824 0.000629804
-0.0974355 -4.90353e-05 0.262695 8.2602e-05 3.28478 0.000589688
-0.156883 -7.89526e-05 0.148292 4.6629e-05 2.99954 0.000538481
-0.209561 -0.000105464 0.0415969 1.30798e-05 2.6512 0.000475947
-0.255474 -0.00012857 -0.05448 -1.71307e-05 2.24463 0.000402959
-0.29502 -0.000148471 -0.140288 -4.41121e-05 1.78565 0.000320562
-0.329119 -0.000165632 -0.217964 -6.85367e-05 1.28209 0.000230163
-0.357885 -0.000180109 -0.287571 -9.04241e-05 0.741423 0.000133101
-0.382531 -0.000192512 -0.350071 -0.000110077 0.173879 3.12151e-05
-0.405204 -0.000203922 -0.403687 -0.000126936 -0.32114 -5.76515e-05
-0.427001 -0.000214892 -0.454345 -0.000142865 -0.797725 -0.000143209
-0.450016 -0.000226474 -0.502527 -0.000158015 -1.27049 -0.00022808
-0.476168 -0.000239635 -0.549305 -0.000172724 -1.73949 -0.000312276
-0.506929 -0.000255116 -0.597112 -0.000187757 -2.19446 -0.000393952
-0.543339 -0.00027344 -0.648681 -0.000203972 -2.61989 -0.000470326
-0.585965 -0.000294892 -0.70579 -0.000221929 -3.00804 -0.000540008
-0.634904 -0.000319521 -0.770044 -0.000242133 -3.35832 -0.00060289
-0.689982 -0.00034724 -0.843348 -0.000265183 -3.66708 -0.00065832
-0.750898 -0.000377896 -0.927129 -0.000291527 -3.92654 -0.000704897
-0.817165 -0.000411245 -1.02189 -0.000321325 -4.13148 -0.000741688
-0.888121 -0.000446955 -1.12754 -0.000354546 -4.28253 -0.000768805
-0.963029 -0.000484653 -1.2435 -0.000391007 -4.38183 -0.000786632
-1.04127 -0.00052403 -1.36838 -0.000430276 -4.42971 -0.000795228
-1.1225 -0.000564908 -1.49994 -0.000471642 -4.42509 -0.000794398
-1.20652 -0.000607189 -1.6351 -0.000514142 -4.36582 -0.000783758
-1.29305 -0.000650738 -1.77085 -0.000556827 -4.25755 -0.000764321
-1.3816 -0.000695303 -1.90386 -0.000598653 -4.10779 -0.000737436
-1.47147 -0.000740531 -2.03083 -0.000638576 -3.92413 -0.000704465
-1.56191 -0.000786043 -2.14862 -0.000675614 -3.71472 -0.000666871
-1.65218 -0.000831475 -2.25438 -0.000708868 -3.48794 -0.000626159
-1.74144 -0.000876394 -2.34566 -0.000737572 -3.25208 -0.000583817
-1.82848 -0.000920199 -2.4207 -0.000761167 -3.01472 -0.000541207
-1.91187 -0.000962165 -2.47847 -0.000779332 -2.78272 -0.000499558
-1.99014 -0.00100155 -2.51861 -0.000791954 -2.56208 -0.000459948
-2.06201 -0.00103772 -2.5413 -0.000799087 -2.35793 -0.000423298
-2.12661 -0.00107023 -2.54717 -0.000800934 -2.17435 -0.000390343
-2.18373 -0.00109898 -2.53721 -0.000797804 -2.01438 -0.000361624
-2.23391 -0.00112424 -2.51268 -0.00079009 -1.87998 -0.000337496
-2.27817 -0.00114651 -2.47516 -0.000778291 -1.7721 -0.00031813
-2.31775 -0.00116643 -2.42667 -0.000763043 -1.69066 -0.000303509
-2.35391 -0.00118462 -2.36971 -0.000745133 -1.63456 -0.000293438
-2.38771 -0.00120164 -2.30725 -0.000725495 -1.60179 -0.000287555
-2.41991 -0.00121784 -2.24269 -0.000705192 -1.58962 -0.00028537
-2.45101 -0.00123349 -2.17963 -0.000685366 -1.5948 -0.000286301
-2.48142 -0.00124879 -2.12175 -0.000667166 -1.61383 -0.000289718
-2.51147 -0.00126392 -2.07255 -0.000651696 -1.64315 -0.00029498
-2.54141 -0.00127899 -2.03523 -0.00063996 -1.67938 -0.000301484
-2.57135 -0.00129405 -2.01256 -0.000632832 -1.71957 -0.0003087
-2.60122 -0.00130909 -2.00677 -0.000631012 -1.76137 -0.000316203
-2.6308 -0.00132397 -2.01944 -0.000634994 -1.80313 -0.0003237
-2.65974 -0.00133854 -2.05136 -0.000645031 -1.84407 -0.000331049
-2.68761 -0.00135257 -2.10252 -0.000661119 -1.88429 -0.00033827
-2.71321 -0.00136545 -2.17233 -0.00068307 -1.92477 -0.000345537
-2.73005 -0.00137392 -2.26143 -0.000711085 -1.96662 -0.00035305
-2.73744 -0.00137764 -2.36719 -0.000744343 -2.01293 -0.000361363
-2.73567 -0.00137675 -2.48545 -0.000781527 -2.06741 -0.000371144
-2.72558 -0.00137167 -2.6111 -0.000821038 -2.13426 -0.000383146
-2.70775 -0.0013627 -2.73872 -0.000861167 -2.21803 -0.000398183
-2.68233 -0.0013499 -2.86266 -0.000900137 -2.32303 -0.000417033
-2.64939 -0.00133333 -2.97767 -0.000936301 -2.45274 -0.00044032
-2.60866 -0.00131283 -3.07901 -0.000968168 -2.60977 -0.00046851
-2.55932 -0.001288 -3.16262 -0.000994458 -2.79566 -0.00050188
-2.5001 -0.0012582 -3.22531 -0.00101417 -3.01046 -0.000540442
-2.42934 -0.00122259 -3.26476 -0.00102658 -3.25272 -0.000583933
-2.34534 -0.00118031 -3.27947 -0.0010312 -3.51953 -0.00063183
-2.24655 -0.0011306 -3.26868 -0.00102781 -3.80656 -0.000683359
-2.13169 -0.00107279 -3.2323 -0.00101637 -4.10813 -0.000737497
-2 -0.00100652 -3.17067 -0.000996988 -4.4115 -0.000791959
-1.8518 -0.000931933 -3.08287 -0.000969379 -4.66891 -0.000838169
-1.6879 -0.000849451 -2.97209 -0.000934547 -4.91367 -0.000882108
-1.51023 -0.000760035 -2.83851 -0.000892544 -5.14666 -0.000923935
-1.32111 -0.00066486 -2.6834 -0.000843771 -5.36272 -0.000962722
-1.12294 -0.00056513 -2.50885 -0.000788885 -5.55109 -0.000996539
-0.91782 -0.000461901 -2.31706 -0.000728579 -5.70028 -0.00102332
-0.707345 -0.000355978 -2.11032 -0.000663572 -5.8049 -0.0010421
-0.492728 -0.00024797 -1.89137 -0.000594726 -5.86081 -0.00105214
-0.27505 -0.000138421 -1.66308 -0.00052294 -5.85788 -0.00105161
-0.117693 -5.92302e-05 -1.40847 -0.00044288 -5.78549 -0.00103862
0.0310058 1.56039e-05 -1.1492 -0.000361355 -5.62518 -0.00100984
0.166926 8.40071e-05 -0.901599 -0.0002835 -5.37342 -0.000964642
0.298097 0.00015002 -0.662242 -0.000208236 -5.03227 -0.000903399
0.426889 0.000214836 -0.426193 -0.000134013 -4.6008 -0.000825942
0.549268 0.000276424 -0.199738 -6.28058e-05 -4.07844 -0.000732167
0.664416 0.000334373 0.0141808 4.45904e-06 -3.4702 -0.000622974
0.773734 0.000389389 0.21781 6.84884e-05 -2.78343 -0.000499684
0.875907 0.000440808 0.412182 0.000129607 -2.02384 -0.000363323
0.970594 0.00048846 0.593277 0.000186551 -1.20449 -0.000216232
1.05932 0.000533113 0.764393 0.000240357 -0.337075 -6.05121e-05
1.14316 0.000575305 0.92315 0.000290276 0.454571 8.16051e-05
1.22271 0.000615338 1.07484 0.000337973 1.20447 0.000216229
1.30047 0.000654475 1.22088 0.000383894 1.95863 0.000351615
1.37807 0.000693523 1.36157 0.000428132 2.72161 0.000488586
1.4576 0.00073355 1.49989 0.000471627 3.47816 0.000624405
1.54095 0.000775496 1.63865 0.000515258 4.20082 0.000754137
1.62972 0.000820171 1.77913 0.000559431 4.87925 0.00087593
1.72515 0.000868195 1.9229 0.000604639 5.51458 0.000989984
1.82812 0.000920018 2.07214 0.000651565 6.1013 0.00109531
1.93925 0.000975945 2.22858 0.000700756 6.62426 0.0011892
2.05902 0.00103622 2.39309 0.000752485 7.07327 0.0012698
2.18877 0.00110152 2.55811 0.000804376 7.19816 0.00129222
2.32668 0.00117092 2.73372 0.000859594 7.20404 0.00129328
2.4731 0.00124461 2.91962 0.000918047 7.19701 0.00129202
2.62615 0.00132163 3.11137 0.000978341 7.21554 0.00129534
2.78526 0.00140171 3.31064 0.001041 7.24498 0.00130063
2.94872 0.00148397 3.51606 0.00110559 7.24782 0.00130114
3.11542 0.00156786 3.72349 0.00117082 7.19773 0.00129215
3.28411 0.00165276 3.9284 0.00123525 7.08872 0.00127258
3.45351 0.00173801 4.1288 0.00129827 6.93068 0.0012442
2.88538 0.00145209 8.93253 0.383359 4.16668 0.000748007
3.20855 0.00161473 8.93253 0.416076 4.95417 0.000889378
3.26439 0.00164283 8.77962 0.431702 4.5592 0.000818474
3.42002 0.00172115 8.93253 0.443515 3.8441 0.000690098
3.54643 0.00178477 8.93253 0.480244 3.53475 0.000634563
3.6064 0.00181495 8.93253 0.512227 3.3806 0.000606889
3.71705 0.00187064 8.93253 0.535884 2.89091 0.000518981
3.83332 0.00192915 8.93253 0.55746 2.4629 0.000442142
3.89068 0.00195802 8.93253 0.585133 2.32032 0.000416548
3.91567 0.00197059 8.93253 0.609745 2.25701 0.000405181
3.93897 0.00198232 8.93253 0.627468 2.10478 0.000377852
3.96896 0.00199741 8.93253 0.644661 2.03788 0.000365843
3.99427 0.00201015 8.93253 0.664529 2.16753 0.000389118
4.0172 0.00202169 8.93253 0.685731 2.33939 0.000419969
4.03846 0.00203239 8.93253 0.704453 2.50393 0.00044951
4.06155 0.00204401 8.93253 0.722293 2.71497 0.000487396
4.08168 0.00205414 8.93253 0.74216 3.01891 0.000541958
3.82431 0.00192462 -0.21026 0.743542 3.77528 0.000677743
3.65525 0.00183953 2.35613 0.73771 4.23993 0.000761157
3.88952 0.00195743 8.93253 0.761012 4.53516 0.000814158
8.93253 0.510477 -1.08532 0.753148 5.4572 0.000979683
8.32228 0.827373 5.53481 0.743187 5.1846 0.000930746
6.94987 0.864355 6.55637 0.754715 5.89646 0.00105854
8.93253 0.865916 8.73365 0.779285 6.26466 0.00112464
8.93253 0.913067 8.93253 0.829714 6.17003 0.00110765
8.93253 0.944391 8.93253 0.864691 6.0871 0.00109276
8.93253 0.960822 8.93253 0.894963 6.12253 0.00109912
8.93253 0.989189 8.93253 0.939279 6.20472 0.00111388
8.93253 1.0118 8.93253 0.982229 6.24663 0.0011214
8.93253 1.03352 8.93253 1.01694 6.27191 0.00112594
8.93253 1.07216 8.93253 1.04995 6.35223 0.00114036
8.93253 1.10583 8.93253 1.08737 6.37638 0.0011447
8.93253 1.13496 8.93253 1.12206 6.3637 0.00114242
8.93253 1.16568 8.93253 1.15446 6.33892 0.00113797
8.93253 1.19507 8.93253 1.18642 6.34767 0.00113954
8.93253 1.22044 8.93253 1.21779 6.37393 0.00114426
8.93253 1.24448 8.93253 1.24749 6.38301 0.00114589
8.93253 1.26736 8.93253 1.27499 6.39547 0.00114812
8.93253 1.28647 8.93253 1.30107 6.44003 0.00115612
8.93253 1.30252 8.93253 1.32654 6.48978 0.00116505
8.93253 1.31635 8.93253 1.35056 6.52675 0.00117169
8.93253 1.32723 8.93253 1.37244 6.57603 0.00118054
8.93253 1.3351 8.93253 1.3929 6.64408 0.00119275
8.93253 1.34021 1.82 1.40236 6.71701 0.00120585
3.26608 1.33736 -1.1539 1.35313 6.45366 0.00115857
3.70836 1.33758 -1.45116 1.3406 6.6964 0.00120215
6.55241 1.33901 3.52419 1.36612 6.96131 0.0012497
6.9854 1.33923 7.18554 1.39217 7.17684 0.0012884
7.94911 1.33972 8.93253 1.41181 7.20356 0.00129319
8.93253 1.34221 8.93253 1.43757 7.17264 0.00128764
8.93253 1.34713 8.93253 1.46201 7.31643 0.00131345
8.8209 1.34708 8.93253 1.48798 7.47208 0.0013414
8.93253 1.35004 8.93253 1.51201 7.50193 0.00134676
8.93253 1.35546 8.93253 1.53521 7.5458 0.00135463
8.93253 1.3597 8.93253 1.55867 6.47113 0.00116171
8.68056 1.36636 8.93253 1.58482 7.27114 0.00130533
8.9036 1.36688 8.93253 1.61259 7.82523 0.0014048
8.93253 1.36757 8.93253 1.63757 7.91189 0.00142035
8.93253 1.37075 8.93253 1.66445 7.87276 0.00141333
8.93253 1.37231 8.93253 1.69118 7.93533 0.00142456
8.93253 1.37332 8.93253 1.7169 8.0901 0.00145235
8.93253 1.37551 8.93253 1.74316 8.23926 0.00147912
8.93253 1.37722 8.93253 1.76956 8.29561 0.00148924
8.93253 1.37868 8.93253 1.79566 8.33166 0.00149571
8.93253 1.38068 8.93253 1.82159 8.43007 0.00151338
8.93253 1.38257 8.93253 1.84741 8.55808 0.00153636
8.93253 1.38431 8.93253 1.87317 8.65328 0.00155345
8.93253 1.38603 8.93253 1.89886 8.71371 0.0015643
8.93253 1.38748 8.93253 1.92425 8.77801 0.00157584
8.93253 1.38888 8.93253 1.94929 8.87178 0.00159267
8.93253 1.39002 8.93253 1.97404 8.97045 0.00161039
8.93253 1.39074 8.93253 1.99837 9.04068 0.00162299
8.93253 1.39098 8.93253 2.02213 9.09606 0.00163294
8.93253 1.39368 8.93253 2.04121 6.69626 0.00120212
8.93253 1.40595 8.93253 2.04841 2.47359 0.000444062
7.45364 1.40656 8.93253 2.07233 1.40687 0.000252563
7.10925 1.40638 8.93253 2.09122 1.85083 0.000332263
6.12083 1.40588 8.93253 2.10953 2.67367 0.000479981
5.23865 1.40544 8.93253 2.12776 2.67811 0.000480777
4.06693 1.40485 8.93253 2.14455 2.12167 0.000380885
2.49419 1.40406 8.93253 2.15921 1.95575 0.000351098
0.695434 1.40315 8.93253 2.17294 2.3308 0.000418429
-0.0220787 1.40187 8.93253 2.18545 2.61461 0.000469378
-0.0916615 1.39892 8.93253 2.19675 2.46044 0.000441702
-0.234058 1.39288 8.93253 2.20736 2.22791 0.000399957
-0.441456 1.38409 8.93253 2.21719 2.2941 0.000411839
-0.681781 1.37391 8.93253 2.22592 2.51142 0.000450853
-0.928036 1.36347 8.93253 2.23332 2.55784 0.000459186
-1.18073 1.35276 8.93253 2.23925 2.43983 0.000438001
-1.44608 1.34152 8.93253 2.24376 2.3905 0.000429146
-1.72281 1.32979 8.93253 2.24701 2.48013 0.000445235
-2.00664 1.31776 8.93253 2.24891 2.56538 0.00046054
-2.29652 1.30547 8.89308 2.24935 2.54693 0.000457228
-2.59664 1.29275 8.07204 2.2491 2.4933 0.0004476
-2.90897 1.27952 6.33442 2.24855 2.50354 0.000449438
-3.23169 1.26584 3.57076 2.24768 2.55582 0.000458824
-3.49866 1.25452 0.637344 2.24676 2.57442 0.000462163
-3.76329 1.24331 -0.0223224 2.24505 2.54753 0.000457336
-3.98971 1.23371 -0.0902631 2.24048 2.47987 0.000445189
-4.18768 1.22532 -0.196687 2.23331 2.37465 0.0004263
-4.37592 1.21734 -0.327889 2.22446 2.22994 0.000400321
-4.54842 1.21003 -0.479103 2.21428 2.03893 0.000366031
-4.70381 1.20345 -0.644531 2.20313 1.79276 0.000321838
-4.84625 1.19741 -0.827969 2.19077 1.49819 0.000268957
-4.97862 1.1918 -1.02732 2.17734 1.21076 0.000217357
-5.10677 1.18637 -1.23312 2.16347 0.948896 0.000170347
-5.23002 1.18115 -1.44951 2.14889 0.666272 0.00011961
-5.35364 1.17591 -1.67827 2.13347 0.454143 8.15283e-05
-5.48542 1.17032 -1.89419 2.11892 0.375903 6.74825e-05
-5.61699 1.16475 -2.10475 2.10474 0.333147 5.9807e-05
-5.75083 1.15907 -2.32035 2.09021 0.300989 5.4034e-05
-5.89413 1.153 -2.54005 2.07541 0.253242 4.54623e-05
-6.05101 1.14635 -2.7665 2.06015 0.165971 2.97953e-05
-6.21507 1.1394 -2.99985 2.04442 0.0625268 1.12249e-05
-6.38769 1.13208 -3.23744 2.02841 -0.0239517 -4.29984e-06
-6.57595 1.1241 -3.47988 2.01208 -0.0921514 -1.65431e-05
-6.78033 1.11544 -3.72878 1.99531 -0.163673 -2.93827e-05
-6.99781 1.10622 -3.98383 1.97812 -0.2525 -4.53291e-05
-7.22988 1.09639 -4.24541 1.96049 -0.35592 -6.38953e-05
-7.47864 1.08585 -4.51487 1.94234 -0.460775 -8.2719e-05
-7.74267 1.07466 -4.79277 1.92361 -0.556741 -9.99469e-05
-8.0202 1.06289 -5.0796 1.90429 -0.646049 -0.00011598
-8.31079 1.05058 -5.37683 1.88426 -0.738601 -0.000132595
-8.6129 1.03777 -5.68588 1.86343 -0.839306 -0.000150673
-8.92351 1.02461 -6.00759 1.84176 -0.943867 -0.000169444
-9.23861 1.01126 -6.3431 1.81915 -1.04508 -0.000187615
-9.55336 0.997916 -6.694 1.7955 -1.14007 -0.000204667
-9.86196 0.984837 -7.06169 1.77073 -1.23143 -0.000221068
-10.1587 0.972259 -7.4471 1.74476 -1.32332 -0.000237564
-10.4391 0.960378 -7.85065 1.71757 -1.41677 -0.000254341
-10.6964 0.94947 -8.27223 1.68916 -1.50913 -0.000270921
-10.9213 0.939939 -8.71061 1.65962 -1.59764 -0.00028681
-11.1178 0.931613 -9.16456 1.62903 -1.68199 -0.000301954
-11.2885 0.924376 -9.63344 1.59744 -1.76407 -0.000316688
-11.4329 0.918259 -10.1154 1.56497 -1.84617 -0.000331428
-11.5477 0.913393 -10.6072 1.53183 -1.92903 -0.000346303
-11.6338 0.909742 -11.1054 1.49826 -2.01161 -0.000361126
-11.697 0.907066 -11.6068 1.46447 -2.09294 -0.000375728
-11.7419 0.905161 -12.1074 1.43074 -2.17393 -0.000390266
-11.7718 0.903893 -12.603 1.39734 -2.25658 -0.000405104
-11.7904 0.903107 -13.0895 1.36456 -2.34223 -0.000420481
-11.8022 0.902606 -13.563 1.33266 -2.43095 -0.000436408
-11.8115 0.902214 -14.0201 1.30186 -2.52235 -0.000452816
-11.8209 0.901814 -14.4575 1.27239 -2.61656 -0.000469727
-11.833 0.901301 -14.8723 1.24443 -2.71423 -0.000487262
-11.8503 0.90057 -15.2623 1.21815 -2.81603 -0.000505537
-11.8742 0.899557 -15.6259 1.19366 -2.92209 -0.000524577
-11.9047 0.898264 -15.9619 1.17101 -3.03198 -0.000544305
-11.9407 0.896734 -16.27 1.15025 -3.1452 -0.00056463
-11.9806 0.895044 -16.5505 1.13136 -3.26121 -0.000585457
-12.0222 0.893284 -16.8039 1.11428 -3.37967 -0.000606722
-12.0635 0.89153 -17.0313 1.09895 -3.50019 -0.000628358
-12.1032 0.88985 -17.2344 1.08527 -3.62199 -0.000650224
-12.1397 0.888304 -17.4148 1.07312 -3.74413 -0.000672152
-12.1718 0.88694 -17.5745 1.06236 -3.86563 -0.000693963
-12.1993 0.885775 -17.7154 1.05286 -3.98561 -0.000715502
-12.2219 0.884818 -17.8396 1.04449 -4.1032 -0.000736611
-12.24 0.884052 -17.9491 1.03711 -4.21747 -0.000757126
-12.2535 0.883479 -18.0462 1.03057 -4.32758 -0.000776893
-12.262 0.883118 -18.1333 1.0247 -4.43252 -0.000795732
-12.2652 0.882982 -18.2127 1.01935 -4.53125 -0.000813455
-12.2174 0.883006 -18.2865 1.01438 -4.62299 -0.000829925
-12.0939 0.883068 -18.3561 1.00969 -4.70709 -0.000845024
-11.9009 0.883166 -18.4234 1.00516 -4.78276 -0.000858607
-11.6471 0.883293 -18.4896 1.00069 -4.84948 -0.000870585
-11.352 0.883442 -18.5558 0.996234 -4.90676 -0.000880868
-11.0464 0.883596 -18.6227 0.991729 -4.95416 -0.000889377
-10.7622 0.883739 -18.6904 0.987161 -4.9914 -0.000896062
-10.5297 0.883856 -18.7591 0.982534 -5.01838 -0.000900905
-10.381 0.88393 -18.8283 0.977873 -5.0351 -0.000903907
-10.3567 0.883943 -18.8973 0.973224 -5.04165 -0.000905084
-10.5126 0.883864 -18.9649 0.968665 -5.02351 -0.000901827
-10.9363 0.883651 -19.028 0.964416 -4.94048 -0.000886922
-11.6829 0.883275 -19.0848 0.960591 -4.78327 -0.000858699
-12.2872 0.882051 -19.1328 0.957355 -4.55514 -0.000817745
-12.3786 0.878176 -19.1625 0.955354 -4.27116 -0.000766764
-12.4985 0.873094 -19.1761 0.954434 -3.93176 -0.000705834
-12.6475 0.866782 -18.8993 0.95446 -3.54216 -0.000635893
-12.8194 0.859495 -17.7304 0.954827 -3.10272 -0.000557005
-13.0168 0.851128 -15.7513 0.95545 -2.61685 -0.00046978
-13.237 0.841798 -12.9366 0.956335 -2.08947 -0.000375105
-13.4746 0.831725 -9.23665 0.957498 -1.52817 -0.000274338
-13.7276 0.821003 -4.71681 0.958919 -0.939805 -0.000168715
-13.9947 0.809682 0.00142316 0.960608 -0.324817 -5.83115e-05
-14.2754 0.797787 0.0214882 0.963503 -0.0708016 -1.27104e-05
-14.566 0.785473 0.054619 0.968284 -0.0336894 -6.04796e-06
-14.8812 0.772114 0.109325 0.976178 -0.0409467 -7.35081e-06
-15.2038 0.75844 0.177295 0.985986 -0.0401256 -7.2034e-06
-15.5348 0.744414 0.250478 0.996547 0.0098591 1.76992e-06
-15.8709 0.730166 0.327392 1.00765 0.0919163 1.65009e-05
-16.2098 0.715802 0.406213 1.01902 0.160092 2.874e-05
-16.548 0.701471 0.486213 1.03056 0.19396 3.482e-05
-16.8814 0.687339 0.566604 1.04216 0.211138 3.79037e-05
-17.2075 0.673521 0.645595 1.05356 0.241691 4.33888e-05
-17.5242 0.660098 0.722127 1.06461 0.296605 5.32469e-05
-17.8314 0.647078 0.795858 1.07524 0.361005 6.4808e-05
-18.1306 0.634398 0.866552 1.08545 0.414169 7.43522e-05
-18.4244 0.621944 0.933965 1.09517 0.451249 8.10089e-05
-18.716 0.609586 0.997773 1.10438 0.48426 8.6935e-05
-19.0083 0.597198 1.05784 1.11305 0.526519 9.45213e-05
-19.3042 0.584658 1.11424 1.12119 0.579099 0.000103961
-19.6063 0.571853 1.16701 1.1288 0.632189 0.000113491
-19.9166 0.558703 1.21601 1.13587 0.677077 0.00012155
-20.2358 0.545177 1.26091 1.14235 0.714296 0.000128231
-20.5629 0.531311 1.30132 1.14818 0.750941 0.00013481
-20.8962 0.517188 1.33676 1.1533 0.792101 0.000142199
-21.2304 0.503023 1.36545 1.15744 0.835127 0.000149923
-21.5572 0.489171 1.38717 1.16057 0.87453 0.000156997
-21.8835 0.475341 1.40471 1.1631 0.91144 0.000163623
-22.211 0.461462 1.41548 1.16466 0.943727 0.000169419
-22.5297 0.447956 1.41993 1.1653 0.973679 0.000174796
-22.8364 0.434957 1.2319 1.16528 1.00397 0.000180235
-23.1362 0.422249 0.418274 1.16503 1.03168 0.000185208
-23.4266 0.409944 -0.0170798 1.1643 1.05791 0.000189917
-23.6976 0.398457 -0.088617 1.16179 1.08332 0.000194478
-23.9532 0.387627 -0.18963 1.15824 1.10186 0.000197808
-24.188 0.377673 -0.306683 1.15414 1.11845 0.000200785
-24.4003 0.368677 -0.448085 1.14917 1.13193 0.000203205
-24.5906 0.36061 -0.611971 1.14342 1.14462 0.000205484
-24.7572 0.353552 -0.801319 1.13678 1.15312 0.000207009
-24.8962 0.347661 -1.01766 1.12919 1.12046 0.000201147
-25.0059 0.343009 -1.26081 1.12065 1.03828 0.000186394
-25.0882 0.339523 -1.52724 1.11131 0.901351 0.000161812
-25.1432 0.337192 -1.81628 1.10116 0.710278 0.00012751
-25.1711 0.336009 -2.12292 1.0904 0.529717 9.50955e-05
-25.1139 0.335855 -2.43783 1.07935 0.352981 6.33677e-05
-24.8172 0.336005 -2.75665 1.06816 0.279199 5.01222e-05
-24.1374 0.336347 -3.08196 1.05675 0.227225 4.07917e-05
-23.1323 0.336853 -3.40954 1.04525 0.172714 3.10059e-05
-21.7845 0.337531 -3.73768 1.03374 0.0951135 1.70749e-05
-20.1179 0.33837 -4.06106 1.02239 -0.0105357 -1.89138e-06
-18.1537 0.339358 -4.37935 1.01122 -0.130147 -2.33642e-05
-15.9034 0.340491 -4.69058 1.0003 -0.248056 -4.45313e-05
-13.3792 0.341761 -4.99186 0.98973 -0.36288 -6.51446e-05
-10.6015 0.343159 -5.28189 0.979553 -0.485221 -8.71075e-05
-7.59992 0.344669 -5.55962 0.969807 -0.623751 -0.000111977
-4.40394 0.346278 -5.82496 0.960496 -0.776636 -0.000139423
-1.01868 0.347981 -6.07785 0.951622 -0.934791 -0.000167815
0.013205 0.350059 -6.31946 0.943144 -1.09139 -0.000195929
0.039461 0.353172 -6.55659 0.934823 -1.24652 -0.000223778
0.0800618 0.357984 -6.78983 0.926638 -1.40618 -0.00025244
0.139639 0.365046 -7.02224 0.918483 -1.57204 -0.000282214
0.216801 0.374192 -7.25448 0.910333 -1.74069 -0.000312491
0.304772 0.38462 -7.48527 0.902235 -1.9069 -0.000342329
0.397526 0.395614 -7.71231 0.894268 -2.06808 -0.000371264
0.494363 0.407093 -7.90999 0.887331 -2.2264 -0.000399687
0.59394 0.418896 -8.10094 0.88063 -2.38419 -0.000428014
0.691779 0.430493 -8.28948 0.874014 -2.53387 -0.000454884
0.787834 0.441879 -8.48349 0.867207 -2.68097 -0.000481291
0.882497 0.4531 -8.68349 0.860188 -2.82392 -0.000506954
0.97527 0.464096 -8.88563 0.853095 -2.95637 -0.000530732
1.0644 0.474662 -9.09079 0.845896 -3.07908 -0.000552761
1.14954 0.484754 -9.30174 0.838494 -3.19398 -0.000573388
1.23111 0.494422 -9.51849 0.830888 -3.30079 -0.000592562
1.30898 0.503652 -9.74043 0.8231 -3.39841 -0.000610087
1.38251 0.512368 -9.96689 0.815153 -3.48511 -0.000625652
1.4513 0.520522 -10.1963 0.807103 -3.56001 -0.000639098
1.51526 0.528103 -10.4272 0.799 -3.62423 -0.000650627
1.57424 0.535094 -10.6584 0.790886 -3.67875 -0.000660415
1.62792 0.541457 -10.888 0.782831 -3.7232 -0.000668394
1.67607 0.547165 -11.113 0.774935 -3.75696 -0.000674455
1.71867 0.552215 -11.3307 0.767296 -3.78011 -0.000678609
1.75577 0.556612 -11.5385 0.760003 -3.79327 -0.000680972
1.78751 0.560374 -11.7339 0.753147 -3.79729 -0.000681694
1.81399 0.563513 -11.9138 0.746836 -3.78355 -0.000679228
1.83485 0.565986 -12.0727 0.741258 -3.72924 -0.000669477
1.85006 0.567788 -12.2079 0.736516 -3.62993 -0.00065165
1.85936 0.568891 -12.3165 0.732705 -3.48838 -0.000626239
1.84115 0.569023 -12.3968 0.729887 -3.31047 -0.0005943
1.68836 0.568947 -12.4478 0.728096 -3.10098 -0.000556693
1.45141 0.568827 -12.4634 0.72755 -2.86298 -0.000513967
1.18897 0.568695 -11.7127 0.727786 -2.59493 -0.000465845
0.892698 0.568546 -10.0437 0.728311 -2.29649 -0.000412268
0.567233 0.568382 -7.41739 0.729137 -1.97325 -0.00035424
0.214352 0.568205 -3.77842 0.730281 -1.63037 -0.000292686
-0.00679697 0.567978 0.00190398 0.731793 -1.27104 -0.000228179
-0.042417 0.567356 0.0236499 0.735488 -0.907525 -0.00016292
-0.148033 0.565512 0.0723559 0.743764 -0.552827 -9.92441e-05
-0.307157 0.562733 0.139549 0.755182 -0.190284 -3.416e-05
-0.490792 0.559526 0.215502 0.768089 -0.0270534 -4.85666e-06
-0.676923 0.556276 0.292646 0.781198 -0.0105995 -1.90283e-06
-0.893755 0.552489 0.376526 0.795452 -0.0327 -5.87035e-06
-1.13483 0.548279 0.467108 0.810844 -0.0428134 -7.68592e-06
-1.41131 0.543451 0.562891 0.827121 -0.0196095 -3.52032e-06
-1.71798 0.538096 0.662998 0.844132 0.0240319 4.31423e-06
-2.04516 0.532382 0.765578 0.861563 0.0553168 9.93054e-06
-2.38586 0.526433 0.868915 0.879123 0.0630853 1.13252e-05
-2.73745 0.520293 0.972052 0.896649 0.06308 1.13242e-05
-3.09614 0.514029 1.07386 0.91395 0.0756543 1.35816e-05
-3.45836 0.507704 1.17312 0.930816 0.105503 1.894e-05
-3.82317 0.501333 1.26852 0.947028 0.14078 2.52729e-05
-4.19218 0.494889 1.35905 0.962412 0.169071 3.03518e-05
-4.56707 0.488343 1.44409 0.976863 0.189819 3.40766e-05
-4.94848 0.481682 1.52307 0.990284 0.212048 3.80671e-05
-5.33639 0.474908 1.59536 1.00257 0.243373 4.36906e-05
-5.73025 0.46803 1.66036 1.01361 0.28294 5.07938e-05
-6.12936 0.46106 1.71771 1.02336 0.324245 5.82088e-05
-6.53294 0.454013 1.76732 1.03179 0.362699 6.51121e-05
-6.94013 0.446902 1.80917 1.0389 0.399476 7.17144e-05
-7.34951 0.439753 1.84331 1.0447 0.438824 7.87782e-05
-7.75864 0.432609 1.86987 1.04921 0.483013 8.67112e-05
-8.16418 0.425527 1.88913 1.05249 0.530281 9.51968e-05
-8.56222 0.418576 1.9015 1.05459 0.577191 0.000103618
-8.94089 0.411963 1.90749 1.05561 0.621954 0.000111654
-9.28119 0.40602 1.8399 1.05574 0.665066 0.000119393
-9.60301 0.400401 1.29711 1.05557 0.707378 0.000126989
-9.91399 0.39497 0.290316 1.05525 0.750471 0.000134725
-10.2089 0.38982 -0.0205696 1.0545 0.793177 0.000142392
-10.4696 0.385267 -0.0864019 1.05241 0.834512 0.000149813
-10.7082 0.381101 -0.170258 1.04974 0.869518 0.000156097
-10.9288 0.377248 -0.258525 1.04693 0.900855 0.000161723
-11.134 0.373665 -0.343291 1.04424 0.930524 0.000167049
-11.3289 0.370261 -0.419596 1.04181 0.958026 0.000171986
-11.5185 0.36695 -0.485537 1.03971 0.980758 0.000176067
-11.704 0.363711 -0.539322 1.038 0.997285 0.000179034
-11.8836 0.360575 -0.57823 1.03676 1.00833 0.000181016
-12.055 0.357582 -0.600482 1.03605 1.01516 0.000182243
-12.2147 0.354794 -0.606548 1.03586 1.01794 0.000182742
-12.3556 0.352333 -0.426758 1.03592 0.984698 0.000176774
-12.468 0.35037 -0.139904 1.03601 0.895355 0.000160735
-12.5408 0.349099 0.000916461 1.03618 0.745255 0.000133789
-12.5814 0.348389 0.00499304 1.03673 0.536457 9.63054e-05
-12.5799 0.348245 0.0107062 1.03751 0.331051 5.94307e-05
-12.4139 0.348329 0.0190891 1.03864 0.210122 3.77213e-05
-12.0304 0.348522 0.028534 1.03993 0.137566 2.4696e-05
-11.3537 0.348862 0.035702 1.0409 0.0808357 1.45117e-05
-10.4072 0.349339 0.0408376 1.0416 0.0132212 2.37348e-06
-9.18481 0.349954 0.0428622 1.04187 -0.0798832 -1.43407e-05
-7.69225 0.350705 -0.00470823 1.04171 -0.190585 -3.42141e-05
-5.9595 0.351577 -0.0318354 1.04086 -0.300351 -5.39194e-05
-4.03204 0.352547 -0.0841676 1.03922 -0.399509 -7.17203e-05
-1.90297 0.353618 -0.161885 1.03677 -0.494249 -8.87281e-05
0.00212125 0.354826 -0.265221 1.03353 -0.595941 -0.000106984
0.0190113 0.356817 -0.398369 1.02934 -0.707342 -0.000126983
0.0508702 0.360571 -0.567065 1.02404 -0.821387 -0.000147456
0.103027 0.366718 -0.774166 1.01754 -0.929546 -0.000166873
0.169173 0.374514 -1.01453 1.00999 -1.03056 -0.000185008
0.239761 0.382833 -1.28216 1.00158 -1.12865 -0.000202617
0.309547 0.391057 -1.57328 0.992431 -1.22821 -0.00022049
0.377615 0.399079 -1.88427 0.982661 -1.32961 -0.000238694
0.442687 0.406748 -2.21189 0.972368 -1.42931 -0.000256592
0.503503 0.413915 -2.55358 0.961633 -1.52377 -0.000273549
0.559201 0.42048 -2.90637 0.950549 -1.6131 -0.000289586
0.609787 0.426441 -3.26691 0.939222 -1.70001 -0.000305189
0.655539 0.431833 -3.63248 0.927736 -1.78638 -0.000320693
0.696646 0.436678 -4.00099 0.916159 -1.87138 -0.000335952
0.733415 0.441011 -4.37012 0.904561 -1.95285 -0.000350579
0.766324 0.444889 -4.73713 0.893031 -2.02969 -0.000364372
0.795826 0.448366 -5.09929 0.881653 -2.10263 -0.000377466
0.822213 0.451476 -5.45412 0.870505 -2.1731 -0.000390117
0.845714 0.454246 -5.79911 0.859666 -2.24162 -0.000402418
0.866581 0.456705 -6.13142 0.849226 -2.30748 -0.000414241
0.884776 0.458849 -6.4482 0.839273 -2.36974 -0.000425419
0.900059 0.460651 -6.74698 0.829886 -2.42827 -0.000435926
0.912239 0.462086 -7.02541 0.821139 -2.48366 -0.000445869
0.921279 0.463151 -7.28137 0.813097 -2.53653 -0.000455362
0.92727 0.463857 -7.51316 0.805815 -2.58684 -0.000464393
0.930424 0.464229 -7.71962 0.799328 -2.63401 -0.000472861
0.927052 0.46431 -7.90009 0.793658 -2.6776 -0.000480687
0.858718 0.464276 -8.05487 0.788796 -2.71747 -0.000487843
0.726977 0.46421 -8.1841 0.784736 -2.75386 -0.000494376
0.538552 0.464115 -8.28766 0.781482 -2.78682 -0.000500293
0.303168 0.463996 -8.36597 0.779022 -2.81599 -0.00050553
0.04307 0.463865 -8.41967 0.777335 -2.84092 -0.000510006
-0.010792 0.463689 -8.44952 0.776397 -2.86139 -0.00051368
-0.031211 0.463396 -8.44191 0.776177 -2.87734 -0.000516543
-0.0484864 0.463148 -8.06689 0.776295 -2.88773 -0.000518409
-0.0300877 0.463118 -7.30911 0.776533 -2.89271 -0.000519302
0.00202141 0.463347 -6.1852 0.776886 -2.88454 -0.000517836
0.0081626 0.463996 -4.68607 0.777358 -2.84827 -0.000511325
0.0174569 0.464978 -2.8141 0.777946 -2.7803 -0.000499123
0.0294705 0.466248 -0.582781 0.778648 -2.68084 -0.000481267
0.0417199 0.467543 0.00563776 0.779759 -2.5537 -0.000458444
0.0508373 0.468507 0.0211887 0.782319 -2.40663 -0.000432041
0.0551751 0.468965 0.0479823 0.78673 -2.24019 -0.000402161
0.0242962 0.46901 0.0820825 0.792344 -2.04986 -0.000367993
-0.017501 0.468744 0.120552 0.798677 -1.83683 -0.00032975
-0.0693616 0.467992 0.162228 0.805538 -1.60427 -0.000288001
-0.150124 0.46682 0.206898 0.812892 -1.35337 -0.00024296
-0.267093 0.465124 0.254963 0.820805 -1.08541 -0.000194854
-0.4122 0.463019 0.306025 0.829211 -0.801271 -0.000143845
-0.58021 0.460582 0.359479 0.838011 -0.503452 -9.03804e-05
-0.763712 0.457921 0.414613 0.847088 -0.191031 -3.42942e-05
-0.954023 0.45516 0.470128 0.856227 -0.033087 -5.93983e-06
-1.12277 0.452713 0.521142 0.864625 -0.00883479 -1.58603e-06
-1.29791 0.450172 0.572941 0.873153 -0.0177421 -3.18508e-06
-1.46489 0.447751 0.624938 0.881713 -0.0205542 -3.68992e-06
-1.62517 0.445426 0.67561 0.890055 0.00289441 5.19608e-07
-1.77624 0.443235 0.725251 0.898227 0.0472332 8.47937e-06
-1.91222 0.441262 0.773444 0.906161 0.0858605 1.54138e-05
-2.02639 0.439606 0.819649 0.913768 0.105573 1.89527e-05
-2.114 0.438336 0.863612 0.921005 0.115505 2.07356e-05
-2.17052 0.437516 0.905007 0.92782 0.132797 2.38399e-05
-2.19254 0.437196 0.943829 0.934211 0.164388 2.95112e-05
-2.08132 0.437252 0.98025 0.940207 0.201887 3.62431e-05
-1.7576 0.437415 1.01471 0.94588 0.233224 4.18687e-05
-1.22659 0.437682 1.0473 0.951244 0.25557 4.58802e-05
-0.489469 0.438053 1.07837 0.95636 0.275323 4.94264e-05
0.00289943 0.438614 1.10826 0.961281 0.299843 5.38283e-05
0.0205151 0.440525 1.13615 0.965872 0.330538 5.93386e-05
0.05575 0.444347 1.16173 0.970083 0.361373 6.48741e-05
0.097866 0.448916 1.18704 0.974251 0.385927 6.9282e-05
0.143159 0.45383 1.21249 0.97844 0.405974 7.28809e-05
0.190441 0.458959 1.23882 0.982774 0.425263 7.63437e-05
0.239532 0.464284 1.26677 0.987375 0.445847 8.0039e-05
0.289686 0.469725 1.29666 0.992297 0.466395 8.37278e-05
0.340029 0.475186 1.32864 0.997561 0.484117 8.69093e-05
0.390534 0.480665 1.36291 1.0032 0.49752 8.93154e-05
0.441691 0.486214 1.39959 1.00924 0.507515 9.11097e-05
0.493806 0.491868 1.43857 1.01566 0.515993 9.26317e-05
0.547058 0.497645 1.47958 1.02241 0.523722 9.40193e-05
0.601564 0.503557 1.52244 1.02947 0.529859 9.51209e-05
0.657263 0.5096 1.56692 1.03679 0.533235 9.57271e-05
0.713872 0.51574 1.61273 1.04433 0.533669 9.5805e-05
0.771041 0.521942 1.65689 1.0516 0.532047 9.55137e-05
0.8265 0.527958 1.69708 1.05822 0.531947 9.54958e-05
0.87489 0.533208 1.73655 1.06471 0.528226 9.48278e-05
0.921778 0.538294 1.7756 1.07114 0.519894 9.3332e-05
0.96977 0.5435 1.8151 1.07765 0.497435 8.93001e-05
1.01745 0.548673 1.85419 1.08408 0.457053 8.20507e-05
1.06371 0.55369 1.89216 1.09033 0.406282 7.29362e-05
1.11011 0.558724 1.92867 1.09634 0.344153 6.17828e-05
1.15662 0.56377 1.96363 1.1021 0.273284 4.90604e-05
1.20175 0.568665 1.99682 1.10756 0.206784 3.71221e-05
1.24497 0.573354 2.02826 1.11274 0.149402 2.68209e-05
1.28748 0.577966 2.05725 1.11751 0.0906662 1.62765e-05
1.32884 0.582453 2.08351 1.12183 0.0357117 6.411e-06
1.36861 0.586766 2.10718 1.12573 0.0122858 2.20557e-06
1.40714 0.590946 2.12778 1.12912 -0.00229361 -4.11752e-07
1.44437 0.594985 2.1451 1.13197 -0.0127391 -2.28694e-06
1.47991 0.59884 2.15898 1.13426 -0.0250879 -4.50381e-06
1.51318 0.602449 2.16947 1.13598 -0.0406076 -7.28992e-06
1.54338 0.605725 2.1767 1.13717 -0.0552681 -9.9218e-06
1.56966 0.608576 2.18082 1.13785 -0.0650622 -1.16801e-05
1.59153 0.610948 2.17525 1.13804 -0.0697472 -1.25211e-05
1.60823 0.61276 1.89253 1.13795 -0.0728649 -1.30808e-05
1.61901 0.61393 1.30252 1.13776 -0.076932 -1.38109e-05
1.62349 0.614416 0.418677 1.13748 -0.0815849 -1.46462e-05
1.49268 0.61435 -0.0112539 1.13697 -0.0843454 -1.51418e-05
1.17897 0.614192 -0.0597046 1.13531 -0.0813745 -1.46085e-05
0.650334 0.613926 -0.132329 1.13282 -0.0731698 -1.31355e-05
-0.00272028 0.613548 -0.215372 1.12997 -0.0583621 -1.04772e-05
-0.0640406 0.612393 -0.304197 1.12693 -0.0411404 -7.38557e-06
-0.213213 0.609586 -0.393952 1.12385 -0.023414 -4.20331e-06
-0.398554 0.606097 -0.491358 1.12051 -0.00328861 -5.90375e-07
-0.594357 0.602412 -0.593931 1.117 0.0133912 2.404e-06
-0.807054 0.598409 -0.701567 1.11331 0.0280044 5.02738e-06
-1.03981 0.594028 -0.816444 1.10937 0.0360159 6.46562e-06
-1.28992 0.589321 -0.937698 1.10522 0.0404469 7.26107e-06
-1.5579 0.584277 -1.06312 1.10092 0.0433688 7.78562e-06
-1.83857 0.578994 -1.19394 1.09644 0.0460916 8.27442e-06
-2.12971 0.573515 -1.32977 1.09178 0.0479666 8.61102e-06
-2.42839 0.567893 -1.47024 1.08697 0.0498239 8.94445e-06
-2.73076 0.562202 -1.61556 1.08199 0.049723 8.92634e-06
-3.03524 0.556472 -1.76532 1.07686 0.0470866 8.45304e-06
-3.34148 0.550708 -1.91925 1.07158 0.0421678 7.57002e-06
-3.6487 0.544926 -2.07696 1.06618 0.0353321 6.34286e-06
-3.95541 0.539153 -2.23791 1.06066 0.026491 4.7557e-06
-4.26042 0.533412 -2.40177 1.05505 0.0174127 3.12595e-06
-4.56312 0.527715 -2.56794 1.04935 0.00614573 1.10329e-06
-4.86281 0.522074 -2.73658 1.04357 -0.00873891 -1.56882e-06
-5.15873 0.516505 -2.90733 1.03772 -0.0259343 -4.65575e-06
-5.45107 0.511003 -3.07957 1.03182 -0.0448762 -8.05623e-06
-5.74078 0.50555 -3.25296 1.02588 -0.0659666 -1.18424e-05
-6.0284 0.500137 -3.42724 1.01991 -0.0901251 -1.61794e-05
-6.31462 0.49475 -3.60194 1.01392 -0.117627 -2.11165e-05
-6.6004 0.489371 -3.77684 1.00793 -0.148195 -2.66041e-05
-6.8865 0.483986 -3.95194 1.00193 -0.181287 -3.25448e-05
-7.17305 0.478593 -4.12725 0.995918 -0.216631 -3.88898e-05
-7.45621 0.473263 -4.30297 0.989897 -0.254425 -4.56746e-05
-7.73044 0.468102 -4.47894 0.983866 -0.295012 -5.2961e-05
-8.00128 0.463004 -4.65591 0.977802 -0.338131 -6.07016e-05
-8.27212 0.457907 -4.83527 0.971655 -0.383232 -6.87982e-05
-8.54239 0.45282 -5.01748 0.965411 -0.43004 -7.72013e-05
-8.81065 0.447771 -5.20222 0.959081 -0.478558 -8.59113e-05
-9.07937 0.442713 -5.38946 0.952664 -0.528671 -9.49078e-05
-9.35319 0.43756 -5.57941 0.946155 -0.580175 -0.000104154
-9.63658 0.432226 -5.77198 0.939556 -0.632917 -0.000113622
-9.93199 0.426666 -5.9669 0.932876 -0.686713 -0.00012328
-10.2414 0.420842 -6.16431 0.926111 -0.741258 -0.000133072
-10.5661 0.414731 -6.36497 0.919235 -0.796241 -0.000142942
-10.9051 0.40835 -6.5699 0.912213 -0.851444 -0.000152852
-11.2561 0.401744 -6.78016 0.905007 -0.906657 -0.000162764
-11.6163 0.394965 -6.99694 0.897579 -0.961551 -0.000172619
-11.9825 0.388072 -7.22161 0.88988 -1.01574 -0.000182347
-12.3506 0.381145 -7.45558 0.881862 -1.0689 -0.000191891
-12.7158 0.374271 -7.70011 0.873482 -1.12085 -0.000201216
-13.074 0.36753 -7.95616 0.864708 -1.17142 -0.000210294
-13.422 0.36098 -8.2244 0.855516 -1.22046 -0.000219098
-13.7565 0.354684 -8.50517 0.845894 -1.26783 -0.000227602
-14.074 0.348708 -8.7986 0.835839 -1.31349 -0.000235799
-14.3704 0.34313 -9.10456 0.825354 -1.35747 -0.000243695
-14.6425 0.338008 -9.42251 0.814459 -1.39991 -0.000251314
-14.8885 0.333378 -9.75138 0.803189 -1.44099 -0.000258689
-15.1076 0.329255 -10.0895 0.791601 -1.48095 -0.000265863
-15.2999 0.325634 -10.4349 0.779767 -1.5201 -0.00027289
-15.467 0.322491 -10.7848 0.767776 -1.5588 -0.000279837
-15.6113 0.319774 -11.1362 0.755732 -1.59753 -0.00028679
-15.7377 0.317394 -11.486 0.743748 -1.63678 -0.000293836
-15.8514 0.315255 -11.8305 0.731941 -1.67694 -0.000301046
-15.9572 0.313263 -12.1664 0.72043 -1.7185 -0.000308508
-16.0595 0.311338 -12.4903 0.70933 -1.76185 -0.000316289
-16.1619 0.309412 -12.7995 0.698736 -1.80734 -0.000324456
-16.2669 0.307434 -13.0915 0.688728 -1.85523 -0.000333054
-16.3763 0.305376 -13.3645 0.679372 -1.90571 -0.000342116
-16.4912 0.303213 -13.6171 0.670718 -1.95886 -0.000351657
-16.6128 0.300924 -13.848 0.662804 -2.01466 -0.000361674
-16.7419 0.298494 -14.0568 0.655649 -2.07301 -0.00037215
-16.8786 0.295923 -14.2434 0.649255 -2.13373 -0.00038305
-17.0221 0.293221 -14.4082 0.643607 -2.19653 -0.000394323
-17.1724 0.290393 -14.5521 0.638677 -2.26105 -0.000405906
-17.3299 0.287427 -14.6759 0.634433 -2.32685 -0.00041772
-17.496 0.284302 -14.781 0.630834 -2.39345 -0.000429676
-17.671 0.281008 -14.8688 0.627824 -2.46027 -0.00044167
-17.8536 0.27757 -14.9416 0.625329 -2.52666 -0.000453589
-18.0412 0.274039 -15.0021 0.623257 -2.59195 -0.000465311
-18.232 0.270449 -15.0529 0.621515 -2.65548 -0.000476715
-18.4264 0.266791 -15.0965 0.62002 -2.71656 -0.000487681
-18.6266 0.263023 -15.1349 0.618704 -2.77455 -0.000498091
-18.8357 0.259088 -15.17 0.617501 -2.82882 -0.000507834
-19.055 0.25496 -15.2036 0.616351 -2.87882 -0.00051681
-19.2868 0.250597 -15.2374 0.615191 -2.92403 -0.000524925
-19.5327 0.245968 -15.2735 0.613954 -2.96391 -0.000532084
-19.7936 0.241058 -15.3138 0.612573 -2.99798 -0.000538201
-20.069 0.235874 -15.3601 0.610988 -3.02584 -0.000543203
-20.3574 0.230447 -15.4141 0.609136 -3.04717 -0.000547032
-20.6565 0.224817 -15.4776 0.60696 -3.06167 -0.000549635
-20.9638 0.219032 -15.5522 0.604406 -3.06915 -0.000550978
-21.2769 0.21314 -15.6388 0.601439 -3.06954 -0.000551047
-21.5943 0.207167 -15.7374 0.59806 -3.04641 -0.000546895
-21.9149 0.201133 -15.847 0.594303 -2.995 -0.000537666
-22.2364 0.19508 -15.9678 0.590164 -2.91407 -0.000523138
-22.5564 0.189059 -16.0994 0.585654 -2.80577 -0.000503696
-22.8716 0.183125 -16.2409 0.580805 -2.67412 -0.000480062
-23.1794 0.177333 -16.3911 0.575659 -2.5228 -0.000452896
-23.4778 0.171717 -16.5483 0.570269 -2.35465 -0.000422709
-23.7664 0.166284 -16.7105 0.564711 -2.17261 -0.00039003
-24.0459 0.161024 -16.8749 0.559077 -1.98054 -0.00035555
-24.3172 0.155918 -17.0387 0.553464 -1.78328 -0.000320137
-24.5808 0.150957 -17.199 0.547973 -1.58594 -0.000284709
-24.8367 0.146139 -17.3528 0.5427 -1.39287 -0.000250049
-25.0855 0.141457 -17.4978 0.537732 -1.20778 -0.000216823
-25.3266 0.136919 -17.6316 0.533147 -1.03426 -0.000185671
-25.5589 0.132547 -17.7521 0.529018 -0.875905 -0.000157244
-25.7808 0.128371 -17.8576 0.525403 -0.736232 -0.000132169
-25.9906 0.124423 -17.9467 0.522348 -0.61809 -0.00011096
-26.1862 0.120741 -18.0187 0.519882 -0.523536 -9.39858e-05
-26.3653 0.11737 -18.073 0.518021 -0.45397 -8.14973e-05
-26.526 0.114346 -18.1094 0.516773 -0.410397 -7.3675e-05
-26.6667 0.111698 -18.1281 0.516132 -0.393453 -7.06332e-05
-26.7863 0.109447 -18.0697 0.516054 -0.40318 -7.23794e-05
-26.8806 0.107671 -17.6352 0.516191 -0.436657 -7.83893e-05
-26.9478 0.106407 -16.8316 0.516443 -0.493196 -8.85392e-05
-26.986 0.105688 -15.6876 0.516803 -0.571367 -0.000102573
-26.9876 0.105516 -14.2232 0.517264 -0.66918 -0.000120132
-26.8196 0.1056 -12.4557 0.517819 -0.78464 -0.00014086
-26.4782 0.105772 -10.4531 0.518449 -0.91527 -0.00016431
-25.9757 0.106025 -8.29113 0.519129 -1.05838 -0.000190002
-25.324 0.106353 -6.03942 0.519837 -1.21073 -0.000217352
-24.552 0.106741 -3.77033 0.52055 -1.3688 -0.000245729
-23.6982 0.107171 -1.5558 0.521247 -1.52922 -0.000274527
-22.8017 0.107622 0.00103671 0.521936 -1.68897 -0.000303207
-21.9154 0.108068 0.00533996 0.522769 -1.84608 -0.00033141
-21.0668 0.108495 0.0102269 0.523714 -1.99675 -0.000358458
-20.2776 0.108893 0.0152576 0.524687 -2.13774 -0.00038377
-19.5548 0.109256 0.019739 0.525554 -2.26637 -0.000406862
-18.8906 0.109591 0.0231074 0.526205 -2.38011 -0.00042728
-18.2625 0.109907 0.024515 0.526477 -2.47633 -0.000444554
-17.6656 0.110207 -0.00841419 0.526336 -2.55392 -0.000458482
-17.0807 0.110501 -0.0446019 0.525756 -2.61149 -0.000468818
-16.4972 0.110795 -0.106671 0.524761 -2.64894 -0.000475541
-15.9022 0.111095 -0.193644 0.523366 -2.66637 -0.00047867
-15.2863 0.111404 -0.3036 0.521604 -2.66445 -0.000478326
-14.6399 0.11173 -0.433779 0.519517 -2.64433 -0.000474713
-13.9525 0.112076 -0.580688 0.517162 -2.60757 -0.000468114
-13.1767 0.112466 -0.768574 0.514149 -2.55408 -0.000458512
-12.2739 0.11292 -1.01925 0.510131 -2.4839 -0.000445914
-11.2942 0.113414 -1.27729 0.505994 -2.40598 -0.000431924
-10.1895 0.113969 -1.53407 0.501878 -2.32064 -0.000416605
-8.95046 0.114593 -1.77978 0.497938 -2.23014 -0.000400357
-7.55851 0.115294 -1.99247 0.494529 -2.13668 -0.000383579
-5.98726 0.116084 -2.18234 0.491485 -2.04258 -0.000366687
-4.26618 0.11695 -2.34492 0.488878 -1.95573 -0.000351095
-2.38599 0.117897 -2.47656 0.486768 -1.87613 -0.000336805
-0.32486 0.118934 -2.57034 0.485265 -1.80664 -0.00032433
0.00827317 0.120291 -2.62106 0.484451 -1.74968 -0.000314105
0.0215563 0.122206 -2.54272 0.484357 -1.705 -0.000306084
0.0400708 0.124876 -1.95555 0.484542 -1.67009 -0.000299817
0.0668855 0.128743 -0.805972 0.484903 -1.64665 -0.000295608
0.10517 0.134264 0.00221995 0.485595 -1.6351 -0.000293536
0.15491 0.141438 0.0131569 0.487755 -1.64215 -0.000294801
0.21522 0.150135 0.0278519 0.490658 -1.65806 -0.000297657
0.282545 0.159845 0.0459429 0.494231 -1.68552 -0.000302586
0.352417 0.169921 0.0685277 0.498691 -1.72522 -0.000309714
0.42398 0.180242 0.10054 0.505014 -1.7804 -0.000319619
0.494423 0.190401 0.141289 0.513062 -1.84435 -0.0003311
0.563242 0.200325 0.188358 0.522358 -1.91196 -0.000343237
0.630668 0.210049 0.240094 0.532576 -1.98187 -0.000355788
0.696294 0.219513 0.295052 0.543431 -2.05109 -0.000368213
0.759691 0.228656 0.352797 0.554836 -2.11479 -0.000379651
0.820319 0.237399 0.412837 0.566694 -2.16792 -0.000389188
0.878029 0.245722 0.474455 0.578864 -2.20689 -0.000396183
0.932906 0.253636 0.536674 0.591152 -2.22905 -0.000400162
0.985096 0.261163 0.598579 0.603379 -2.23127 -0.000400561
1.03464 0.268308 0.65948 0.615407 -2.20977 -0.000396701
1.08154 0.275071 0.718749 0.627113 -2.16119 -0.000387979
1.1207 0.280719 0.775356 0.638293 -2.08224 -0.000373806
1.15462 0.28561 0.82675 0.648443 -1.96954 -0.000353575
1.18779 0.290394 0.875259 0.658024 -1.82972 -0.000328473
1.22103 0.295188 0.920446 0.666948 -1.65895 -0.000297816
1.25435 0.299993 0.961553 0.675067 -1.45707 -0.000261576
1.28793 0.304835 0.998845 0.682433 -1.22837 -0.000220519
1.32221 0.30978 1.03157 0.688897 -0.973477 -0.00017476
1.35765 0.31489 1.06016 0.694542 -0.695514 -0.00012486
1.39387 0.320113 1.08521 0.699491 -0.39752 -7.13634e-05
1.43043 0.325386 1.10705 0.703804 -0.113309 -2.03413e-05
1.46869 0.330904 1.12304 0.706962 -0.0357104 -6.41078e-06
1.50794 0.336565 1.13429 0.709184 -0.0174608 -3.13458e-06
1.54594 0.342045 1.14547 0.711392 -0.0222941 -4.00227e-06
1.58317 0.347414 1.15524 0.713321 -0.0190631 -3.42223e-06
1.61921 0.352611 1.16476 0.715202 0.0122503 2.19919e-06
1.65377 0.357595 1.17441 0.717107 0.0572819 1.02833e-05
1.68585 0.362222 1.18275 0.718755 0.094176 1.69066e-05
1.71638 0.366625 1.19187 0.720555 0.110992 1.99254e-05
1.74616 0.370919 1.20247 0.722649 0.114964 2.06384e-05
1.77524 0.375113 1.21495 0.725113 0.129267 2.32062e-05
1.80294 0.379108 1.2294 0.727968 0.157525 2.82791e-05
1.8293 0.382909 1.24592 0.73123 0.186955 3.35624e-05
1.85548 0.386684 1.26479 0.734958 0.20466 3.67408e-05
1.88212 0.390527 1.28615 0.739177 0.211352 3.79421e-05
1.90889 0.394387 1.30995 0.743877 0.21698 3.89525e-05
1.9357 0.398253 1.33621 0.749064 0.227329 4.08105e-05
1.96301 0.402192 1.36508 0.754766 0.24045 4.31658e-05
1.99081 0.406201 1.39657 0.760984 0.250795 4.5023e-05
2.01863 0.410213 1.43052 0.767691 0.25471 4.57259e-05
2.04632 0.414207 1.46685 0.774866 0.25337 4.54853e-05
2.07402 0.418202 1.50546 0.782491 0.251444 4.51395e-05
2.10158 0.422176 1.54613 0.790524 0.251498 4.51493e-05
2.12862 0.426075 1.58857 0.798906 0.251794 4.52024e-05
2.155 0.42988 1.63254 0.80759 0.248975 4.46962e-05
2.1805 0.433558 1.67781 0.816532 0.242534 4.35401e-05
2.20441 0.437006 1.72406 0.825666 0.23526 4.22342e-05
2.22627 0.440159 1.77095 0.834926 0.227839 4.0902e-05
2.24601 0.443006 1.81811 0.844241 0.218823 3.92834e-05
2.26348 0.445524 1.86511 0.853522 0.206015 3.6984e-05
2.27808 0.447629 1.91151 0.862687 0.190867 3.42647e-05
2.28925 0.449241 1.95687 0.871647 0.176554 3.16953e-05
2.29743 0.45042 2.0008 0.880322 0.166528 2.98954e-05
2.30268 0.451178 2.04289 0.888636 0.163673 2.93828e-05
2.30479 0.451481 2.08271 0.8965 0.170275 3.05679e-05
2.23068 0.451445 2.11973 0.903812 0.178225 3.19951e-05
2.02664 0.451342 2.1531 0.910402 0.178855 3.21083e-05
1.67332 0.451165 2.18282 0.916273 0.176991 3.17736e-05
1.17179 0.450912 2.20838 0.92132 0.174453 3.13181e-05
0.498345 0.450573 2.22939 0.92547 0.176882 3.1754e-05
-0.0150786 0.450112 2.2456 0.928672 0.18444 3.3111e-05
-0.102559 0.448892 2.25731 0.930985 0.193807 3.47925e-05
-0.269768 0.44656 2.26471 0.932447 0.202915 3.64276e-05
-0.471998 0.443739 2.26708 0.932914 0.212735 3.81904e-05
-0.687415 0.440735 1.7322 0.932745 0.223533 4.01289e-05
-0.919809 0.437494 0.510879 0.932361 0.236927 4.25335e-05
-1.16217 0.434114 -0.0303322 0.931347 0.253562 4.55198e-05
-1.38166 0.431052 -0.14752 0.928049 0.274747 4.9323e-05
-1.57068 0.428416 -0.307532 0.923546 0.292741 5.25533e-05
-1.74621 0.425968 -0.493223 0.91832 0.310657 5.57696e-05
-1.90398 0.423768 -0.688896 0.912813 0.329383 5.91313e-05
-2.04359 0.421821 -0.899327 0.90689 0.349906 6.28156e-05
-2.16656 0.420106 -1.12172 0.900631 0.373061 6.69725e-05
-2.27278 0.418624 -1.35541 0.894054 0.393409 7.06252e-05
