12.7578 2.93283e-05 12.6324 2.904e-05 0.914049 2.10126e-06
12.8315 2.94976e-05 12.6196 2.90107e-05 0.915387 2.10434e-06
13.0013 2.9888e-05 12.594 2.89517e-05 0.9182 2.11081e-06
13.3541 3.06992e-05 12.5513 2.88536e-05 0.921625 2.11868e-06
13.7579 3.16273e-05 12.5097 2.87579e-05 0.923288 2.1225e-06
14.2803 3.28283e-05 12.4651 2.86553e-05 0.922452 2.12058e-06
14.9325 3.43277e-05 12.424 2.8561e-05 0.917545 2.1093e-06
15.7266 3.6153e-05 12.3947 2.84936e-05 0.906584 2.0841e-06
16.6755 3.83345e-05 12.3846 2.84705e-05 0.887575 2.0404e-06
17.7934 4.09043e-05 12.4014 2.85091e-05 0.858685 1.97399e-06
19.0935 4.38931e-05 12.4544 2.86307e-05 0.818271 1.88108e-06
20.5851 4.7322e-05 12.5549 2.88617e-05 0.764867 1.75831e-06
22.2671 5.11887e-05 12.7158 2.92317e-05 0.697228 1.60282e-06
24.1254 5.54607e-05 12.9487 2.97672e-05 0.615086 1.41399e-06
26.1432 6.00992e-05 13.2729 3.05125e-05 0.517051 1.18862e-06
28.2749 6.49998e-05 13.7034 3.15021e-05 0.404227 9.29258e-07
30.4723 7.00513e-05 14.256 3.27724e-05 0.278492 6.40212e-07
32.6787 7.51234e-05 14.9445 3.43551e-05 0.143336 3.29507e-07
34.8313 8.00721e-05 15.7786 3.62727e-05 0.00398195 9.15391e-09
36.8682 8.47544e-05 16.7628 3.85352e-05 -0.111952 -4.67939e-07
38.7273 8.90283e-05 17.8956 4.11393e-05 -0.217294 -9.01448e-07
40.3385 9.27322e-05 19.171 4.40712e-05 -0.301712 -1.24885e-06
41.6179 9.56733e-05 20.5783 4.73064e-05 -0.353484 -1.4619e-06
42.4655 9.76217e-05 22.1021 5.08093e-05 -0.359863 -1.48815e-06
42.765 9.83103e-05 23.7214 5.45319e-05 -0.307417 -1.27232e-06
42.3928 9.74548e-05 25.403 5.83977e-05 -0.181934 -7.55933e-07
41.2453 9.48168e-05 27.1124 6.23273e-05 0.0288172 2.58908e-08
39.2735 9.0284e-05 28.7999 6.62066e-05 0.411244 9.05032e-07
36.5141 8.39405e-05 30.3861 6.98531e-05 0.929127 2.09557e-06
33.0782 7.60418e-05 31.7847 7.30683e-05 1.61044 3.6618e-06
29.114 6.69287e-05 32.9089 7.56527e-05 2.4683 5.6339e-06
24.7501 5.68968e-05 33.6739 7.74114e-05 3.51754 8.04595e-06
20.149 4.63195e-05 34.0137 7.81924e-05 4.75733 1.0896e-05
15.407 3.54183e-05 33.8725 7.78679e-05 6.17906 1.41644e-05
10.607 2.4384e-05 33.2177 7.63624e-05 7.76674 1.78142e-05
5.77849 1.32839e-05 32.0399 7.3655e-05 9.49349 2.17838e-05
0.949248 2.18218e-06 30.3487 6.97672e-05 11.3239 2.59915e-05
-2.32233 -1.12811e-05 28.1849 6.47929e-05 13.2093 3.03259e-05
-5.55378 -2.45792e-05 25.588 5.88231e-05 15.0971 3.46655e-05
-8.74245 -3.77014e-05 22.6088 5.19741e-05 16.9252 3.88682e-05
-11.8823 -5.06226e-05 19.3366 4.4452e-05 18.6383 4.28064e-05
-14.9443 -6.32232e-05 15.8377 3.64085e-05 20.172 4.63321e-05
-17.8802 -7.53053e-05 12.185 2.80116e-05 21.465 4.93044e-05
-20.6271 -8.66094e-05 8.45152 1.94288e-05 22.4583 5.15878e-05
-23.1109 -9.68307e-05 4.70982 1.08272e-05 23.098 5.30585e-05
-25.2682 -0.000105708 1.02388 2.35375e-06 23.3353 5.36041e-05
-27.0831 -0.000113177 -1.53987 -8.19667e-06 23.1213 5.31121e-05
-28.5863 -0.000119363 -3.95679 -1.81428e-05 22.4317 5.15267e-05
-29.8594 -0.000124603 -6.15596 -2.71929e-05 21.2389 4.87846e-05
-31.039 -0.000129457 -8.07382 -3.50854e-05 19.5293 4.48547e-05
-32.6649 -0.000136148 -10.0127 -4.30641e-05 16.6677 3.82763e-05
-34.8472 -0.000145128 -11.4001 -4.87736e-05 13.0353 2.9926e-05
-37.9947 -0.000158081 -12.2233 -5.21615e-05 8.70827 1.99786e-05
-42.4326 -0.000176344 -12.5409 -5.34686e-05 3.80467 8.706e-06
-48.3459 -0.000200679 -12.5038 -5.33157e-05 -1.22555 -6.23409e-06
-55.7514 -0.000231154 -12.3415 -5.2648e-05 -5.99326 -2.58543e-05
-64.4813 -0.000267079 -12.3316 -5.26072e-05 -10.7779 -4.55441e-05
-74.1965 -0.000307059 -12.7912 -5.44984e-05 -15.3853 -6.45049e-05
-84.4828 -0.00034939 -14.0478 -5.96698e-05 -19.6359 -8.1997e-05
-94.9872 -0.000392618 -16.379 -6.92631e-05 -23.3952 -9.7467e-05
-105.496 -0.000435863 -19.9725 -8.40511e-05 -26.568 -0.000110524
-115.923 -0.000478775 -24.9255 -0.000104434 -29.0992 -0.000120941
-126.266 -0.000521339 -31.2459 -0.000130444 -30.9896 -0.00012872
-136.557 -0.000563687 -38.8522 -0.000161746 -32.2962 -0.000134097
-146.815 -0.000605902 -47.588 -0.000197695 -33.126 -0.000137512
-156.992 -0.00064778 -57.2465 -0.000237442 -33.6178 -0.000139535
-166.972 -0.000688852 -67.5802 -0.000279967 -33.9392 -0.000140858
-176.648 -0.00072867 -78.3001 -0.000324083 -34.2798 -0.00014226
-185.978 -0.000767066 -89.0863 -0.00036847 -34.8416 -0.000144572
-194.992 -0.000804161 -99.6096 -0.000411776 -35.8203 -0.000148599
-203.736 -0.000840146 -109.559 -0.000452718 -37.3914 -0.000155065
-212.196 -0.00087496 -118.669 -0.00049021 -39.6978 -0.000164556
-220.252 -0.000908109 -126.746 -0.000523446 -42.8403 -0.000177488
-227.735 -0.000938906 -133.66 -0.000551903 -46.871 -0.000194076
-234.507 -0.000966773 -139.348 -0.000575308 -51.7908 -0.000214321
-240.476 -0.000991337 -143.803 -0.000593642 -57.5491 -0.000238018
-245.605 -0.00101245 -147.074 -0.000607102 -64.0479 -0.000264762
-249.913 -0.00103017 -149.257 -0.000616085 -71.1458 -0.000293972
-253.471 -0.00104481 -150.489 -0.000621156 -78.664 -0.000324911
-256.391 -0.00105683 -150.942 -0.000623021 -86.394 -0.000356722
-258.807 -0.00106677 -150.814 -0.000622493 -94.1081 -0.000388467
-260.862 -0.00107523 -150.314 -0.000620437 -101.57 -0.000419172
-262.721 -0.00108288 -149.653 -0.000617717 -108.545 -0.000447876
-264.59 -0.00109057 -149.027 -0.000615139 -114.813 -0.000473672
-266.703 -0.00109927 -148.606 -0.000613409 -120.177 -0.000495747
-269.28 -0.00110987 -148.539 -0.000613133 -124.472 -0.000513421
-272.444 -0.00112289 -148.954 -0.000614839 -127.567 -0.000526158
-276.146 -0.00113813 -149.963 -0.000618992 -129.374 -0.000533594
-280.17 -0.00115469 -151.654 -0.000625951 -129.851 -0.000535555
-284.193 -0.00117124 -154.071 -0.000635897 -129.007 -0.000532082
-287.174 -0.00118351 -156.518 -0.000645965 -127.422 -0.000525562
-290.324 -0.00119647 -160.149 -0.00066091 -124.402 -0.000513133
-292.569 -0.00120571 -164.273 -0.000677879 -120.38 -0.00049658
-293.689 -0.00121032 -168.665 -0.000695953 -115.562 -0.000476753
-293.488 -0.00120949 -173.049 -0.000713996 -110.188 -0.000454639
-291.762 -0.00120239 -177.118 -0.00073074 -104.518 -0.000431307
-288.308 -0.00118818 -180.542 -0.000744832 -98.8183 -0.00040785
-282.932 -0.00116605 -182.994 -0.000754923 -93.3452 -0.000385327
-275.448 -0.00113526 -184.165 -0.000759741 -88.3335 -0.000364703
-265.695 -0.00109512 -183.776 -0.000758138 -83.9817 -0.000346795
-253.554 -0.00104516 -181.59 -0.000749144 -80.4424 -0.000332229
-238.946 -0.000985041 -177.429 -0.000732022 -77.8122 -0.000321405
-221.858 -0.00091472 -171.175 -0.000706284 -76.1263 -0.000314468
-202.4 -0.000834646 -162.764 -0.000671671 -75.3566 -0.0003113
-180.863 -0.000746018 -152.187 -0.000628146 -75.4122 -0.000311529
-157.69 -0.000650655 -139.499 -0.000575929 -76.1394 -0.000314521
-133.357 -0.00055052 -124.835 -0.000515583 -77.3236 -0.000319395
-108.321 -0.000447488 -108.413 -0.000448005 -78.6967 -0.000325045
-83.031 -0.000343416 -90.5243 -0.000374388 -79.9486 -0.000330197
-57.9406 -0.000240163 -71.5202 -0.000296181 -80.742 -0.000333462
-33.4867 -0.00013953 -51.7998 -0.000215028 -80.727 -0.000333401
-10.0574 -4.31129e-05 -31.792 -0.000132691 -79.5597 -0.000328597
18.1071 3.80094e-05 -11.963 -5.10903e-05 -76.9154 -0.000317715
47.9781 0.000106678 10.1162 2.0641e-05 -72.5408 -0.000299713
75.7362 0.00017049 35.0225 7.78969e-05 -66.2057 -0.000273642
101.43 0.000229555 58.0904 0.000130926 -57.7536 -0.00023886
124.888 0.000283483 79.04 0.000179086 -47.1261 -0.000195125
145.971 0.00033195 97.5627 0.000221667 -34.3725 -0.000142641
164.438 0.000374402 113.582 0.000258494 -19.6187 -8.19262e-05
180.159 0.000410543 127.262 0.000289942 -3.09778 -1.39387e-05
193.385 0.000440947 138.723 0.000316289 17.3314 3.81642e-05
204.609 0.000466749 148.132 0.000337919 39.4845 8.90907e-05
214.47 0.000489418 155.798 0.000355543 62.4534 0.000141893
223.662 0.000510549 162.118 0.000370071 85.6768 0.00019528
232.898 0.000531781 167.474 0.000382384 108.57 0.000247907
242.932 0.000554848 172.275 0.000393419 130.527 0.000298384
254.543 0.00058154 176.983 0.000404243 151.002 0.000345453
268.455 0.000613522 182.048 0.000415886 169.49 0.000387954
285.254 0.00065214 187.875 0.000429283 185.523 0.00042481
305.27 0.000698154 194.866 0.000445352 198.686 0.00045507
328.484 0.00075152 203.403 0.000464977 208.682 0.000478051
354.529 0.000811392 213.802 0.000488884 215.325 0.000493321
382.816 0.000876421 226.266 0.000517537 218.546 0.000500727
412.684 0.000945084 240.859 0.000551084 218.398 0.000500387
443.477 0.00101587 257.486 0.000589307 215.074 0.000492744
474.602 0.00108742 275.87 0.000631568 208.899 0.000478549
505.539 0.00115854 295.563 0.000676842 200.319 0.000458825
535.834 0.00122819 315.989 0.000723797 189.865 0.000434793
565.1 0.00129546 336.469 0.000770877 178.137 0.000407832
592.988 0.00135957 356.267 0.000816389 165.776 0.000379415
619.13 0.00141967 374.647 0.000858642 153.427 0.000351027
643.122 0.00147482 390.923 0.000896059 141.706 0.000324084
664.562 0.00152411 404.493 0.000927254 131.171 0.000299865
683.098 0.00156672 414.867 0.000951103 122.298 0.000279466
693.784 0.00159129 421.512 0.000966379 115.492 0.00026382
695.156 0.00159444 422.613 0.000968911 111.311 0.00025421
696.665 0.00159791 420.396 0.000963812 109.443 0.000249914
694.741 0.00159349 415.63 0.000952858 109.749 0.000250619
692.568 0.00158849 407.984 0.00093528 112.113 0.000256053
689.241 0.00158085 397.872 0.000912034 116.398 0.000265903
672.099 0.00154144 387.445 0.000888063 122.056 0.00027891
652.357 0.00149605 374.463 0.000858221 129.228 0.000295397
631.646 0.00144844 360.395 0.00082588 137.165 0.000313644
608.956 0.00139628 345.307 0.000791195 145.614 0.000333066
585.288 0.00134187 329.444 0.000754727 154.134 0.000352652
562.439 0.00128935 313.465 0.000717995 162.25 0.000371311
540.506 0.00123893 298.064 0.00068259 169.458 0.00038788
520.411 0.00119273 283.566 0.000649262 175.323 0.000401364
503.162 0.00115308 270.296 0.000618755 179.515 0.000410999
489.208 0.001121 258.737 0.000592184 181.739 0.000416113
479.065 0.00109768 249.254 0.000570383 181.746 0.000416128
473.222 0.00108425 242.011 0.000553733 179.383 0.000410697
471.807 0.001081 237.143 0.000542541 174.625 0.000399759
474.852 0.001088 234.768 0.000537081 167.544 0.000383481
482.24 0.00110498 234.885 0.00053735 158.291 0.000362209
493.342 0.0011305 237.423 0.000543184 147.102 0.000336487
505.386 0.00115819 242.605 0.000555097 134.262 0.000306971
517.618 0.00118631 250.004 0.000572107 120.234 0.000274721
529.406 0.00121341 259.235 0.000593328 105.523 0.000240903
540.305 0.00123846 269.755 0.000617511 90.6864 0.000206796
548.081 0.00125634 278.635 0.000637926 79.1241 0.000180216
554.809 0.00127181 287.519 0.000658349 68.1725 0.00015504
560.308 0.00128445 296.056 0.000677973 58.131 0.000131956
564.392 0.00129384 303.916 0.000696042 49.2747 0.000111597
566.881 0.00129956 310.784 0.000711831 41.8469 9.45215e-05
567.618 0.00130125 316.37 0.000724673 36.0557 8.12085e-05
566.452 0.00129857 320.438 0.000734025 32.0687 7.2043e-05
563.212 0.00129112 322.823 0.000739508 30.0046 6.72979e-05
557.7 0.00127845 323.429 0.0007409 29.9268 6.71191e-05
549.702 0.00126007 322.217 0.000738113 31.842 7.15218e-05
538.997 0.00123546 319.209 0.000731199 35.7023 8.03961e-05
525.411 0.00120422 314.481 0.000720329 41.4101 9.35173e-05
508.871 0.0011662 308.146 0.000705766 48.822 0.000110556
489.448 0.00112155 300.343 0.00068783 57.7529 0.000131087
467.366 0.00107079 291.225 0.000666867 67.98 0.000154598
442.978 0.00101473 280.954 0.000643257 79.249 0.000180503
416.707 0.000954331 269.715 0.00061742 91.2794 0.00020816
388.976 0.000890582 257.712 0.000589827 103.771 0.000236875
360.182 0.000824389 245.166 0.000560986 116.409 0.000265928
330.695 0.000756603 232.305 0.000531421 128.873 0.000294581
300.878 0.000688057 219.356 0.000501652 140.845 0.000322103
271.09 0.000619579 206.535 0.000472178 152.016 0.000347783
241.677 0.000551964 194.044 0.000443462 162.095 0.000370955
212.95 0.000485923 182.062 0.000415918 170.818 0.000391006
185.171 0.000422065 170.742 0.000389895 177.947 0.000407396
158.562 0.000360894 160.202 0.000365665 183.285 0.000419666
133.303 0.000302828 150.525 0.00034342 186.671 0.00042745
109.541 0.000248202 141.753 0.000323255 187.991 0.000430485
87.382 0.000197262 133.887 0.000305172 187.177 0.000428614
66.8944 0.000150164 126.884 0.000289073 184.207 0.000421786
48.1058 0.000106972 120.663 0.000274773 179.106 0.000410059
31.003 6.7655e-05 115.108 0.000262 171.942 0.000393592
15.5378 3.21028e-05 110.068 0.000250415 162.827 0.000372637
1.63384 1.39748e-07 105.368 0.00023961 151.909 0.000347538
-5.27431 -2.82888e-05 100.58 0.000228603 139.369 0.000318711
-8.63136 -4.21039e-05 94.9026 0.000215552 125.572 0.000286992
-11.2137 -5.27306e-05 89.6279 0.000203427 110.406 0.000252129
-13.2589 -6.11474e-05 83.8136 0.00019006 94.2865 0.000215072
-15.241 -6.9304e-05 77.5892 0.000175751 77.3885 0.000176226
-17.0499 -7.67481e-05 70.9043 0.000160384 59.9542 0.000136147
-18.8099 -8.39908e-05 63.7768 0.000143999 42.203 9.53403e-05
-20.9549 -9.28182e-05 56.0608 0.000126261 24.368 5.43402e-05
-23.7593 -0.000104359 47.5797 0.000106764 6.69778 1.3719e-05
-27.3226 -0.000119022 38.2566 8.53314e-05 -8.77401 -4.20097e-05
-31.8172 -0.000137519 28.1225 6.20347e-05 -23.1091 -0.000101002
-37.4521 -0.000160708 17.1683 3.68526e-05 -36.7923 -0.000157311
-44.3298 -0.000189011 5.31872 9.61226e-06 -49.668 -0.000210298
-52.4631 -0.000222482 -4.73545 -2.61338e-05 -61.587 -0.000259347
-61.8961 -0.0002613 -14.6486 -6.69288e-05 -72.4624 -0.000304102
-72.6215 -0.000305438 -25.2261 -0.000110457 -82.2199 -0.000344256
-84.5961 -0.000354716 -36.3639 -0.000156292 -90.8173 -0.000379636
-97.7738 -0.000408945 -48.0031 -0.00020419 -98.2244 -0.000410119
-112.099 -0.000467896 -60.117 -0.000254041 -104.434 -0.000435671
-127.478 -0.000531184 -72.6471 -0.000305606 -109.469 -0.00045639
-143.781 -0.000598276 -85.4803 -0.000358417 -113.385 -0.000472506
-160.848 -0.00066851 -98.4886 -0.000411949 -116.259 -0.000484336
-178.482 -0.00074108 -111.566 -0.000465767 -118.183 -0.000492251
-196.456 -0.000815044 -124.62 -0.000519484 -119.256 -0.000496669
-214.522 -0.000889391 -137.538 -0.000572648 -119.596 -0.000498066
-232.43 -0.000963086 -150.192 -0.000624718 -119.331 -0.000496978
-249.922 -0.00103507 -162.447 -0.000675151 -118.603 -0.00049398
-266.74 -0.00110428 -174.184 -0.000723452 -117.551 -0.000489652
-282.639 -0.00116971 -185.287 -0.000769146 -116.315 -0.000484566
-297.396 -0.00123044 -195.639 -0.000811745 -115.029 -0.000479272
-310.811 -0.00128564 -205.118 -0.000850753 -113.82 -0.000474298
-322.714 -0.00133463 -213.611 -0.000885705 -112.809 -0.000470137
-332.976 -0.00137686 -221.019 -0.00091619 -112.101 -0.000467225
-341.506 -0.00141196 -227.254 -0.000941848 -111.786 -0.000465927
-348.259 -0.00143975 -232.239 -0.000962361 -111.93 -0.000466521
-353.227 -0.00146019 -235.911 -0.000977475 -112.581 -0.000469199
-356.437 -0.0014734 -238.232 -0.000987027 -113.762 -0.00047406
-357.945 -0.00147961 -239.186 -0.000990952 -115.474 -0.000481104
-357.826 -0.00147912 -238.781 -0.000989285 -117.691 -0.000490229
-356.162 -0.00147227 -237.038 -0.000982111 -120.367 -0.000501238
-353.138 -0.00145983 -234.008 -0.000969644 -123.426 -0.000513831
-348.937 -0.00144254 -229.774 -0.000952219 -126.776 -0.000527616
-343.762 -0.00142124 -224.44 -0.000930268 -130.302 -0.000542126
-337.851 -0.00139692 -218.134 -0.000904317 -133.874 -0.000556823
-331.435 -0.00137051 -211.003 -0.000874971 -137.347 -0.000571117
-324.728 -0.00134291 -203.213 -0.000842915 -140.571 -0.000584385
-317.94 -0.00131498 -194.945 -0.000808889 -143.39 -0.000595987
-311.285 -0.00128759 -186.385 -0.000773662 -145.651 -0.000605289
-304.973 -0.00126162 -177.721 -0.000738006 -147.206 -0.000611687
-299.205 -0.00123788 -169.137 -0.000702682 -147.918 -0.000614619
-294.169 -0.00121716 -160.81 -0.000668417 -147.669 -0.000613592
-290.038 -0.00120016 -152.907 -0.000635893 -146.357 -0.000608195
-286.953 -0.00118746 -145.577 -0.000605727 -143.907 -0.000598113
-285.027 -0.00117954 -138.951 -0.00057846 -140.269 -0.000583143
-284.351 -0.00117675 -133.137 -0.000554537 -135.424 -0.000563204
-284.994 -0.0011794 -128.219 -0.000534298 -129.382 -0.000538339
-287.007 -0.00118768 -124.252 -0.000517972 -122.186 -0.000508724
-290.354 -0.00120146 -121.271 -0.000505705 -113.909 -0.000474664
-294.855 -0.00121998 -119.339 -0.000497751 -104.647 -0.000436548
-300.972 -0.00124515 -118.248 -0.000493264 -94.5612 -0.000395043
-308.142 -0.00127466 -118.096 -0.00049264 -83.8077 -0.00035079
-316.15 -0.00130761 -118.899 -0.000495944 -72.5219 -0.000304347
-324.961 -0.00134387 -120.489 -0.000502485 -60.9278 -0.000256634
-334.514 -0.00138318 -122.762 -0.000511838 -49.2306 -0.000208498
-344.559 -0.00142452 -125.597 -0.000523506 -37.6736 -0.000160938
-353.923 -0.00146306 -128.933 -0.000537236 -26.4803 -0.000114875
-363.008 -0.00150045 -132.712 -0.000552785 -15.8537 -7.11443e-05
-371.188 -0.00153411 -136.829 -0.00056973 -6.00561 -3.06172e-05
-378.209 -0.001563 -141.156 -0.000587537 3.48685 9.78898e-07
-383.887 -0.00158636 -145.577 -0.000605727 12.3987 2.14659e-05
-387.868 -0.00160275 -149.949 -0.00062372 19.7019 3.82548e-05
-389.835 -0.00161084 -154.137 -0.000640956 25.2108 5.0919e-05
-389.557 -0.0016097 -157.973 -0.000656742 28.7827 5.91303e-05
-387.012 -0.00159922 -161.302 -0.00067044 30.2892 6.25935e-05
-382.147 -0.00157921 -163.988 -0.000681494 29.6295 6.10769e-05
-374.959 -0.00154962 -165.903 -0.000689375 26.7487 5.44543e-05
-365.55 -0.0015109 -166.929 -0.000693598 21.6514 4.27364e-05
-354.054 -0.0014636 -166.976 -0.00069379 14.3973 2.60603e-05
-340.612 -0.00140828 -165.986 -0.000689718 5.08834 4.66049e-06
-325.42 -0.00134576 -163.947 -0.000681326 -4.96567 -3.18042e-05
-308.745 -0.00127714 -160.844 -0.000668556 -16.0881 -7.75754e-05
-290.888 -0.00120365 -156.701 -0.000651508 -28.4914 -0.000128618
-272.163 -0.00112659 -151.571 -0.000630395 -41.9137 -0.000183854
-252.878 -0.00104723 -145.556 -0.000605643 -56.0766 -0.000242137
-233.322 -0.000966758 -138.795 -0.000577821 -70.6924 -0.000302285
-213.763 -0.000886267 -131.446 -0.000547578 -85.4591 -0.000363053
-194.45 -0.000806789 -123.683 -0.000515631 -100.054 -0.000423116
-175.611 -0.000729264 -115.7 -0.000482779 -114.144 -0.000481098
-157.449 -0.000654523 -107.704 -0.000449871 -127.399 -0.000535644
-140.141 -0.000583294 -99.8971 -0.000417746 -139.511 -0.000585489
-123.846 -0.00051624 -92.4677 -0.000387172 -150.203 -0.000629488
-108.717 -0.000453978 -85.5798 -0.000358826 -159.224 -0.000666613
-94.8856 -0.000397059 -79.3745 -0.00033329 -166.357 -0.000695967
-82.4537 -0.0003459 -73.9657 -0.000311032 -171.424 -0.000716816
-71.4777 -0.000300731 -69.4336 -0.000292381 -174.292 -0.000728622
-61.9682 -0.000261597 -65.8199 -0.00027751 -174.886 -0.000731065
-53.8943 -0.000228371 -63.1265 -0.000266426 -173.18 -0.000724042
-47.1869 -0.000200769 -61.3167 -0.000258978 -169.198 -0.000707656
-41.7405 -0.000178355 -60.3164 -0.000254862 -163.014 -0.000682209
-37.4148 -0.000160554 -60.0137 -0.000253616 -154.749 -0.000648198
-34.0351 -0.000146646 -60.2628 -0.000254641 -144.571 -0.000606313
-31.3901 -0.000135761 -60.8893 -0.00025722 -132.687 -0.000557407
-29.2327 -0.000126883 -61.6983 -0.000260549 -119.338 -0.000502473
-27.2823 -0.000118857 -62.4792 -0.000263762 -104.79 -0.000442605
-25.2322 -0.00011042 -63.0121 -0.000265955 -89.3284 -0.000378976
-25.9843 -0.000113515 -62.4754 -0.000263747 -73.3026 -0.000313026
-26.9277 -0.000117397 -61.228 -0.000258613 -57.0085 -0.000245972
-27.3515 -0.000119142 -59.3316 -0.000250809 -40.5692 -0.000178321
-26.5482 -0.000115836 -56.2786 -0.000238246 -24.4038 -0.000111797
-24.217 -0.000106242 -52.1133 -0.000221104 -8.66852 -4.70423e-05
-20.421 -9.06209e-05 -46.7727 -0.000199126 7.58772 4.15347e-06
-15.0405 -6.84788e-05 -40.2521 -0.000172293 24.043 4.19818e-05
-8.08192 -3.98428e-05 -32.395 -0.000139959 39.2789 7.70068e-05
0.742506 -5.72498e-06 -23.1574 -0.000101944 53.1527 0.000108901
15.6913 2.864e-05 -12.5056 -5.81096e-05 65.5443 0.000137387
32.8922 6.81824e-05 -0.517601 -8.77636e-06 76.3585 0.000162247
52.2613 0.000112709 17.7351 3.31839e-05 85.5284 0.000183327
73.76 0.000162131 37.4973 7.86143e-05 93.112 0.000200761
97.1235 0.000215841 58.7069 0.000127372 99.1617 0.000214668
121.993 0.000273013 81.2382 0.000179168 103.803 0.000225339
148.057 0.000332929 104.695 0.000233091 107.181 0.000233104
174.945 0.00039474 128.738 0.000288364 109.46 0.000238343
202.159 0.000457302 153.109 0.000344389 110.837 0.000241508
229.008 0.000519024 177.581 0.000400646 111.524 0.000243086
255.193 0.000579218 201.746 0.000456199 111.759 0.000243628
280.436 0.000637247 225.186 0.000510083 111.782 0.000243681
304.535 0.000692648 247.511 0.000561404 111.822 0.000243772
327.346 0.000745088 268.372 0.000609361 112.099 0.000244409
348.77 0.000794338 287.442 0.0006532 112.815 0.000246055
368.727 0.000840217 304.411 0.00069221 114.144 0.00024911
387.144 0.000882555 319.027 0.000725809 116.222 0.000253887
403.384 0.000919889 331.241 0.000753887 119.135 0.000260583
415.751 0.000948317 341.201 0.000776784 122.888 0.000269211
425.996 0.000971868 348.533 0.000793639 127.529 0.000279881
433.83 0.000989877 353.196 0.000804358 133.087 0.000292657
439.148 0.0010021 355.431 0.000809496 139.42 0.000307217
442.084 0.00100885 355.282 0.000809153 146.451 0.00032338
442.852 0.00101062 352.878 0.000803627 154.016 0.00034077
441.624 0.0010078 348.396 0.000793323 161.952 0.000359013
438.591 0.00100082 342.099 0.000778849 170.058 0.000377649
434.138 0.000990586 334.272 0.000760856 178.11 0.00039616
428.646 0.000977962 325.195 0.000739988 185.867 0.000413991
422.465 0.000963752 315.155 0.000716907 193.083 0.00043058
415.983 0.000948851 304.466 0.000692335 199.518 0.000445372
409.61 0.0009342 293.458 0.000667029 204.939 0.000457835
403.715 0.000920649 282.449 0.000641721 209.129 0.000467467
398.631 0.000908962 271.729 0.000617078 211.889 0.000473813
394.674 0.000899865 261.564 0.000593709 213.052 0.000476484
392.124 0.000894002 252.197 0.000572178 212.484 0.000475179
391.2 0.000891878 243.847 0.000552982 210.094 0.000469685
392.053 0.00089384 236.69 0.000536529 205.832 0.000459886
394.764 0.000900071 230.857 0.00052312 199.691 0.00044577
399.34 0.000910591 226.436 0.000512956 191.712 0.000427428
405.733 0.000925288 223.469 0.000506136 181.983 0.000405062
413.855 0.00094396 221.953 0.00050265 170.638 0.000378982
423.159 0.000965348 221.788 0.000502271 157.863 0.000349614
433.476 0.000989066 223.008 0.000505075 143.858 0.000317418
444.458 0.00101431 225.443 0.000510672 128.877 0.000282979
455.862 0.00104053 228.889 0.000518596 113.208 0.000246958
467.627 0.00106757 233.144 0.000528376 97.1513 0.000210047
479.542 0.00109496 237.958 0.000539444 81.0326 0.000172992
491.299 0.00112199 243.065 0.000551184 65.1795 0.000136548
502.68 0.00114815 248.187 0.000562959 49.9196 0.000101468
513.503 0.00117303 253.066 0.000574175 35.567 6.84738e-05
523.514 0.00119605 257.474 0.000584307 22.4141 3.8237e-05
532.412 0.0012165 261.211 0.000592898 10.7246 1.13647e-05
539.896 0.00123371 264.107 0.000599556 0.712738 -1.16511e-05
545.674 0.00124699 266.026 0.000603968 -6.23951 -4.02611e-05
549.476 0.00125573 266.887 0.000605947 -11.4616 -6.17512e-05
551.1 0.00125946 266.649 0.000605399 -14.8553 -7.57169e-05
550.36 0.00125776 265.302 0.000602302 -16.3641 -8.1926e-05
547.182 0.00125046 262.85 0.000596667 -15.9785 -8.03394e-05
541.576 0.00123757 259.341 0.000588599 -13.7396 -7.11259e-05
533.609 0.00121926 254.858 0.000578294 -9.72941 -5.46229e-05
523.475 0.00119596 249.516 0.000566014 -4.06126 -3.12972e-05
511.481 0.00116839 243.437 0.000552039 3.71534 -7.29359e-06
497.98 0.00113735 236.766 0.000536704 13.6205 1.54769e-05
483.335 0.00110368 229.687 0.00052043 24.8615 4.13182e-05
467.911 0.00106822 222.408 0.000503697 37.1705 6.96149e-05
452.041 0.00103174 215.152 0.000487016 50.2647 9.97165e-05
436.034 0.000994946 208.143 0.000470904 63.84 0.000130924
420.204 0.000958555 201.607 0.000455877 77.5948 0.000162544
404.887 0.000923342 195.758 0.000442431 91.2383 0.000193909
390.421 0.000890088 190.794 0.000431021 104.492 0.000224378
377.14 0.000859556 186.887 0.000422039 117.093 0.000253345
365.354 0.000832462 184.176 0.000415807 128.796 0.000280248
355.348 0.000809461 182.77 0.000412575 139.386 0.000304593
347.361 0.000791099 182.747 0.000412522 148.684 0.000325968
341.556 0.000777755 184.155 0.000415757 156.55 0.00034405
338.003 0.000769586 187.006 0.000422313 162.88 0.000358601
336.658 0.000766494 191.287 0.000432154 167.609 0.000369473
337.368 0.000768127 196.951 0.000445174 170.712 0.000376608
339.89 0.000773924 203.917 0.000461189 172.208 0.000380046
343.907 0.00078316 212.069 0.00047993 172.156 0.000379926
349.032 0.00079494 221.255 0.000501046 170.654 0.000376474
354.817 0.000808238 231.286 0.000524105 167.837 0.000369997
360.79 0.000821971 241.936 0.000548587 163.87 0.000360877
366.482 0.000835055 252.942 0.000573889 158.946 0.000349559
371.435 0.000846442 264.012 0.000599337 153.283 0.00033654
375.221 0.000855146 274.826 0.000624198 147.112 0.000322354
377.459 0.00086029 285.046 0.000647691 140.674 0.000307553
377.826 0.000861133 294.32 0.000669011 134.208 0.000292689
376.058 0.000857068 302.3 0.000687356 127.947 0.000278297
371.941 0.000847604 308.651 0.000701956 122.108 0.000264874
365.303 0.000832345 313.064 0.000712102 116.883 0.000252862
356 0.000810958 315.271 0.000717174 112.434 0.000242634
343.916 0.000783181 315.048 0.000716663 108.884 0.000234473
328.982 0.000748849 312.228 0.000710179 106.317 0.000228571
311.181 0.000707928 306.698 0.000697466 104.77 0.000225016
290.564 0.000660532 298.405 0.000678403 104.236 0.000223788
267.249 0.000606934 287.358 0.000653007 104.66 0.000224763
241.419 0.000547555 273.625 0.000621436 105.943 0.000227712
213.312 0.00048294 257.333 0.000583984 107.941 0.000232307
183.67 0.000414798 238.6 0.000540919 110.477 0.000238136
152.938 0.00034415 217.562 0.000492556 113.36 0.000244763
121.196 0.000271181 194.917 0.000440499 116.248 0.000251402
88.6688 0.000196405 170.574 0.000384537 118.991 0.000257707
55.2781 0.000119644 145.141 0.000326072 121.237 0.000262871
21.8285 4.27486e-05 118.96 0.000265885 122.722 0.000266285
-5.33186 -3.88651e-05 92.4397 0.000204919 123.157 0.000267284
-26.6206 -0.000126473 66.0134 0.000144169 122.264 0.000265232
-46.8635 -0.000209777 39.8737 8.40773e-05 119.841 0.000259662
-65.5149 -0.000286532 14.2387 2.51461e-05 115.665 0.000250062
-82.6467 -0.000357033 -7.09624 -3.97598e-05 109.557 0.000236019
-98.1996 -0.000421037 -24.0249 -0.000109425 101.415 0.000217302
-111.766 -0.000476864 -39.8659 -0.000174615 91.1558 0.000193719
-123.193 -0.000523888 -54.4065 -0.000234452 78.7521 0.000165205
-132.575 -0.0005625 -67.5034 -0.000288349 64.237 0.000131837
-139.937 -0.000592798 -79.1077 -0.000336103 47.6935 9.38055e-05
-145.265 -0.000614723 -89.2013 -0.000377641 29.2572 5.14234e-05
-148.689 -0.000628811 -97.7557 -0.000412844 9.11473 5.11879e-06
-150.429 -0.000635972 -104.795 -0.000441812 -10.2611 -6.48542e-05
-150.714 -0.000637147 -110.363 -0.000464727 -29.8602 -0.000145509
-149.8 -0.000633383 -114.575 -0.000482058 -50.2034 -0.000229226
-148.004 -0.000625995 -117.545 -0.000494282 -70.9436 -0.000314577
-145.695 -0.000616492 -119.426 -0.000502024 -91.742 -0.000400167
-143.244 -0.000606403 -120.404 -0.000506048 -112.271 -0.000484648
-141.008 -0.000597203 -120.687 -0.000507212 -132.198 -0.00056665
-139.342 -0.000590346 -120.496 -0.000506424 -151.169 -0.000644724
-138.513 -0.000586935 -120.058 -0.000504622 -168.829 -0.000717397
-138.827 -0.000588229 -119.593 -0.000502711 -184.844 -0.000783302
-140.527 -0.000595223 -119.34 -0.000501668 -198.795 -0.000840712
-143.935 -0.000609247 -118.84 -0.00049961 -201.967 -0.000853769
-149.185 -0.000630854 -117.865 -0.000495599 -202.279 -0.000855051
-156.071 -0.00065919 -118.227 -0.00049709 -203.131 -0.000858557
-164.892 -0.00069549 -119.675 -0.000503045 -203.912 -0.000861772
-175.345 -0.000738506 -123.12 -0.000517225 -203.948 -0.00086192
-187.502 -0.000788537 -128.182 -0.000538056 -202.405 -0.000855569
-201.48 -0.00084606 -134.08 -0.000562327 -198.631 -0.000840037
-217.137 -0.000910492 -140.756 -0.0005898 -193.286 -0.000818045
-234.356 -0.000981351 -148.333 -0.000620981 -186.249 -0.000789083
-253.011 -0.00105812 -156.909 -0.000656275 -176.894 -0.000750584
-272.911 -0.00114002 -166.301 -0.000694925 -165.162 -0.000702306
-293.813 -0.00122603 -176.159 -0.000735491 -151.742 -0.000647079
-315.444 -0.00131505 -186.222 -0.000776905 -137.479 -0.000588384
-337.508 -0.00140584 -196.347 -0.000818571 -122.803 -0.00052799
-359.663 -0.00149702 -206.4 -0.000859938 -107.738 -0.000465995
-381.545 -0.00158707 -216.174 -0.000900163 -92.3422 -0.000402637
-402.787 -0.00167448 -225.43 -0.000938253 -77.006 -0.000339525
-423.029 -0.00175778 -233.955 -0.000973337 -62.3292 -0.000279126
-441.916 -0.00183551 -241.589 -0.00100475 -48.7953 -0.000223431
-459.024 -0.00190591 -248.197 -0.00103194 -36.6264 -0.000173354
-462.196 -0.00191896 -251.385 -0.00104506 -26.3934 -0.000131242
-467.22 -0.00193964 -251.448 -0.00104532 -18.272 -9.78211e-05
-470.753 -0.00195418 -253.357 -0.00105318 -11.0969 -6.82937e-05
-471.707 -0.0019581 -253.571 -0.00105406 -5.88453 -4.68438e-05
-472.299 -0.00196054 -252.664 -0.00105033 -2.92622 -3.46697e-05
-473.303 -0.00196467 -252.257 -0.00104865 -1.41565 -2.84533e-05
-472.306 -0.00196057 -251.809 -0.00104681 -1.57199 -2.90967e-05
-468.864 -0.00194641 -249.864 -0.0010388 -3.63738 -3.75963e-05
-463.691 -0.00192512 -246.759 -0.00102603 -7.63951 -5.40659e-05
-456.937 -0.00189732 -242.878 -0.00101006 -13.3589 -7.76024e-05
-447.959 -0.00186038 -238.315 -0.000991278 -20.7228 -0.000107907
-437.227 -0.00181621 -233.098 -0.000969808 -29.4429 -0.000143792
-425.469 -0.00176782 -227.218 -0.000945609 -39.342 -0.000184529
-412.796 -0.00171567 -220.925 -0.000919713 -50.1945 -0.000229189
-399.32 -0.00166021 -214.491 -0.000893237 -61.7675 -0.000276815
-385.512 -0.00160339 -208.081 -0.000866858 -73.7813 -0.000326254
-371.823 -0.00154706 -201.798 -0.000841003 -85.9386 -0.000376285
-358.516 -0.0014923 -195.793 -0.000816291 -97.9562 -0.00042574
-345.877 -0.00144029 -190.271 -0.000793565 -109.575 -0.000473555
-334.28 -0.00139256 -185.415 -0.000773583 -120.555 -0.00051874
-324.035 -0.0013504 -181.352 -0.00075686 -130.664 -0.000560338
-315.369 -0.00131474 -178.173 -0.000743777 -139.683 -0.000597453
-308.493 -0.00128644 -175.973 -0.000734725 -147.424 -0.000629312
-303.598 -0.0012663 -174.845 -0.000730082 -153.743 -0.000655314
-300.808 -0.00125482 -174.849 -0.000730099 -158.534 -0.000675031
-300.065 -0.00125176 -176.021 -0.000734925 -161.729 -0.000688179
-300.727 -0.00125448 -178.468 -0.000744993 -163.276 -0.000694546
-302.819 -0.00126309 -182.103 -0.000759954 -163.19 -0.000694191
-306.276 -0.00127732 -186.839 -0.000779441 -161.533 -0.000687373
-310.994 -0.00129673 -192.586 -0.000803092 -158.399 -0.000674477
-316.829 -0.00132075 -199.195 -0.000830291 -153.929 -0.00065608
-323.612 -0.00134866 -206.476 -0.000860251 -148.289 -0.000632872
-331.139 -0.00137964 -214.217 -0.000892109 -141.678 -0.000605663
-339.174 -0.0014127 -222.212 -0.000925012 -134.311 -0.000575347
-347.454 -0.00144678 -230.25 -0.000958089 -126.422 -0.000542882
-355.702 -0.00148072 -238.107 -0.000990422 -118.25 -0.000509254
-363.633 -0.00151336 -245.557 -0.00102108 -110.038 -0.000475458
-370.97 -0.00154355 -252.384 -0.00104917 -102.02 -0.000442461
-377.449 -0.00157021 -258.393 -0.0010739 -94.419 -0.000411183
-382.834 -0.00159237 -263.409 -0.00109454 -87.4407 -0.000382466
-386.923 -0.0016092 -267.272 -0.00111044 -81.2658 -0.000357055
-389.559 -0.00162005 -269.849 -0.00112105 -76.0466 -0.000335577
-390.634 -0.00162447 -271.036 -0.00112593 -71.9027 -0.000318523
-390.082 -0.0016222 -270.767 -0.00112482 -68.9171 -0.000306237
-387.88 -0.00161314 -269.012 -0.0011176 -67.1347 -0.000298902
-384.027 -0.00159728 -265.779 -0.0011043 -66.5602 -0.000296538
-378.544 -0.00157472 -261.117 -0.00108511 -67.159 -0.000299002
-371.464 -0.00154558 -255.114 -0.00106041 -68.8585 -0.000305996
-362.835 -0.00151007 -247.895 -0.0010307 -71.5505 -0.000317074
-352.739 -0.00146852 -239.611 -0.000996611 -75.0964 -0.000331666
-341.296 -0.00142143 -230.434 -0.000958846 -79.3315 -0.000349095
-328.663 -0.00136945 -220.552 -0.000918177 -84.0705 -0.000368597
-315.024 -0.00131332 -210.161 -0.000875416 -89.1133 -0.000389349
-300.582 -0.00125388 -199.463 -0.000831393 -94.2513 -0.000410493
-285.545 -0.00119201 -188.659 -0.000786931 -99.2732 -0.000431159
-270.118 -0.00112852 -177.943 -0.000742831 -103.971 -0.000450492
-254.491 -0.00106421 -167.497 -0.000699846 -108.146 -0.000467675
-238.844 -0.000999821 -157.488 -0.000658656 -111.617 -0.000481955
-223.358 -0.000936092 -148.054 -0.000619835 -114.22 -0.000492668
-208.228 -0.000873829 -139.305 -0.000583827 -115.819 -0.000499251
-193.674 -0.000813934 -131.31 -0.000550929 -116.309 -0.000501264
-179.924 -0.000757353 -124.111 -0.0005213 -115.611 -0.000498394
-167.196 -0.000704972 -117.714 -0.000494976 -113.683 -0.000490457
-155.662 -0.000657506 -112.104 -0.000471891 -110.509 -0.000477398
-145.434 -0.000615418 -107.247 -0.000451903 -106.108 -0.000459287
-136.556 -0.00057888 -103.092 -0.000434805 -100.525 -0.000436309
-129 -0.000547789 -99.578 -0.000420343 -93.8309 -0.000408763
-122.686 -0.000521803 -96.6304 -0.000408213 -86.1241 -0.000377048
-117.483 -0.000500394 -94.1656 -0.00039807 -77.5235 -0.000341654
-113.226 -0.000482874 -92.0913 -0.000389534 -68.1675 -0.000303152
-109.715 -0.000468424 -90.3083 -0.000382196 -58.2106 -0.000262178
-106.73 -0.000456143 -88.712 -0.000375627 -47.8193 -0.000219415
-104.048 -0.000445106 -87.1927 -0.000369375 -37.1686 -0.000175585
-101.444 -0.000434388 -85.6392 -0.000362982 -26.4379 -0.000131425
-98.6852 -0.000423035 -83.9433 -0.000356003 -15.806 -8.7673e-05
-95.528 -0.000410042 -82.0033 -0.000348019 -5.44733 -4.50446e-05
-91.7083 -0.000394324 -79.7678 -0.00033882 4.23996 -1.40272e-05
-86.9619 -0.000374791 -77.2936 -0.000328638 13.8377 8.03652e-06
-81.1127 -0.00035072 -74.2926 -0.000316288 22.6586 2.83145e-05
-73.9582 -0.000321278 -70.7208 -0.000301589 30.6835 4.67625e-05
-65.766 -0.000287565 -66.3792 -0.000283722 37.6558 6.27907e-05
-58.7024 -0.000258497 -60.6856 -0.000260292 43.4654 7.61462e-05
-50.676 -0.000225467 -54.7163 -0.000235727 48.3166 8.72985e-05
-41.9932 -0.000189735 -47.746 -0.000207043 52.1553 9.6123e-05
-31.499 -0.000146549 -40.1172 -0.000175649 54.9645 0.000102581
-19.5936 -9.75553e-05 -31.8891 -0.000141788 56.7759 0.000106745
-6.87114 -4.51996e-05 -23.1875 -0.000105979 57.6071 0.000108656
7.85043 -1.27577e-06 -14.4413 -6.99865e-05 57.6351 0.00010872
27.0545 4.28714e-05 -5.48323 -3.31219e-05 56.8834 0.000106992
46.8526 8.83845e-05 5.86122 1.50914e-06 55.3348 0.000103432
66.4192 0.000133365 18.956 3.1612e-05 53.1909 9.85037e-05
86.3027 0.000179074 32.0962 6.18194e-05 50.5479 9.24278e-05
106.604 0.000225745 45.1143 9.17462e-05 47.5695 8.55808e-05
126.575 0.000271655 58.1094 0.00012162 44.444 7.8396e-05
145.862 0.000315993 70.8221 0.000150845 41.333 7.12441e-05
164.579 0.000359019 82.9766 0.000178786 38.3994 6.45002e-05
182.553 0.00040034 94.449 0.000205159 35.7845 5.84889e-05
199.403 0.000439075 105.204 0.000229884 33.6251 5.35248e-05
214.955 0.000474826 115.161 0.000252773 32.0457 4.9894e-05
229.181 0.000507529 124.167 0.000273477 31.1562 4.78491e-05
241.969 0.000536928 132.105 0.000291724 31.0425 4.75878e-05
253.193 0.000562729 138.933 0.000307422 31.7639 4.92463e-05
262.831 0.000584887 144.651 0.000320567 33.354 5.29016e-05
270.921 0.000603485 149.252 0.000331144 35.8226 5.85765e-05
277.489 0.000618582 152.729 0.000339135 39.1561 6.62398e-05
282.587 0.000630302 155.105 0.000344599 43.316 7.58027e-05
286.334 0.000638917 156.452 0.000347695 48.2379 8.71174e-05
288.888 0.000644788 156.863 0.000348641 53.8334 9.99808e-05
290.426 0.000648324 156.437 0.000347661 59.6866 0.000113436
291.181 0.000650059 155.168 0.000344742 65.4519 0.00012669
291.374 0.000650502 153.212 0.000340246 71.5037 0.000140602
291.227 0.000650165 150.851 0.000334819 77.7198 0.000154892
291.022 0.000649694 148.216 0.000328761 83.913 0.000169129
290.983 0.000649603 145.509 0.000322537 89.9249 0.00018295
291.36 0.000650471 142.851 0.000316427 95.6874 0.000196197
292.397 0.000652854 140.411 0.000310819 101.116 0.000208676
294.321 0.000657277 138.377 0.000306142 106.081 0.00022009
297.335 0.000664206 136.923 0.0003028 110.433 0.000230094
301.607 0.000674026 136.199 0.000301137 114.053 0.000238416
307.26 0.000687022 136.333 0.000301443 116.878 0.000244911
314.36 0.000703345 137.443 0.000303997 118.878 0.000249508
322.919 0.00072302 139.641 0.000309048 120.024 0.000252143
332.902 0.000745969 143.008 0.000316789 120.273 0.000252715
344.24 0.000772034 147.578 0.000327295 119.507 0.000250954
356.834 0.000800985 153.35 0.000340564 117.763 0.000246945
370.553 0.000832524 160.304 0.000356551 115.132 0.000240897
385.251 0.000866312 168.386 0.00037513 111.721 0.000233055
400.757 0.000901959 177.513 0.000396111 107.642 0.000223678
416.892 0.00093905 187.561 0.00041921 103.032 0.00021308
433.47 0.00097716 198.375 0.000444071 98.0593 0.000201649
450.3 0.00101585 209.78 0.000470288 92.9175 0.000189829
467.162 0.00105461 221.59 0.000497438 87.8049 0.000178076
483.654 0.00109253 233.661 0.000525187 82.9061 0.000166815
499.653 0.0011293 245.73 0.000552931 78.4172 0.000156495
515.008 0.0011646 257.588 0.000580191 74.5239 0.000147545
529.598 0.00119814 269.037 0.00060651 71.4018 0.000140368
543.265 0.00122956 279.886 0.000631451 69.2142 0.000135339
555.846 0.00125848 289.964 0.000654619 68.0956 0.000132767
567.201 0.00128459 299.129 0.000675687 68.1514 0.000132896
576.677 0.00130637 307.43 0.000694772 69.4353 0.000135847
583.925 0.00132303 314.766 0.000711634 72.0007 0.000141745
589.545 0.00133595 321.005 0.000725979 75.8495 0.000150592
593.344 0.00134469 326.029 0.000737526 81.0294 0.0001625
595.135 0.0013488 330.003 0.000746663 87.4313 0.000177217
595.033 0.00134857 332.869 0.000753251 95.0053 0.000194629
593.072 0.00134406 334.616 0.000757268 103.632 0.000214461
589.359 0.00133553 335.281 0.000758795 113.193 0.000236439
584.008 0.00132323 334.982 0.000758109 123.006 0.000258999
577.285 0.00130777 333.617 0.000754972 132.476 0.000280768
569.404 0.00128965 331.435 0.000749956 142.374 0.000303521
560.589 0.00126939 328.702 0.000743671 152.491 0.00032678
551.102 0.00124758 325.544 0.000736413 162.51 0.000349812
541.158 0.00122472 322.172 0.00072866 172.225 0.000372145
531.05 0.00120148 318.655 0.000720575 181.562 0.000393609
521.038 0.00117847 315.137 0.000712487 190.412 0.000413955
511.37 0.00115624 311.772 0.000704752 198.592 0.000432758
502.268 0.00113532 308.708 0.000697708 205.877 0.000449507
493.778 0.0011158 306.075 0.000691655 212.097 0.000463805
485.486 0.00109674 304.035 0.000686966 217.152 0.000475426
477.451 0.00107826 302.618 0.000683708 221.002 0.000484276
469.647 0.00106033 301.844 0.000681929 223.605 0.00049026
462.012 0.00104277 301.731 0.00068167 224.899 0.000493235
454.499 0.0010255 302.226 0.000682807 224.791 0.000492986
447.108 0.00100851 303.182 0.000685006 223.176 0.000489274
439.85 0.000991828 304.432 0.000687879 220.148 0.000482312
432.71 0.000975413 305.804 0.000691033 215.83 0.000472386
425.63 0.000959138 307.119 0.000694055 210.326 0.000459734
418.504 0.000942756 308.181 0.000696498 203.743 0.000444601
411.19 0.000925942 308.776 0.000697865 196.226 0.00042732
403.536 0.000908346 308.685 0.000697656 187.955 0.000408306
395.395 0.000889631 307.702 0.000695396 179.119 0.000387993
386.611 0.000869437 305.641 0.000690657 169.887 0.00036677
377.002 0.000847349 302.336 0.000683061 160.407 0.000344978
366.375 0.000822918 297.644 0.000672275 150.821 0.00032294
354.558 0.000795753 291.447 0.000658029 141.266 0.000300976
341.431 0.000765577 283.653 0.000640112 131.875 0.000279386
326.939 0.00073226 274.203 0.000618387 122.751 0.000258412
311.075 0.000695793 263.067 0.000592787 113.97 0.000238226
293.875 0.000656252 250.254 0.000563331 105.578 0.000218933
275.389 0.000613756 235.809 0.000530125 97.5999 0.000200593
255.68 0.000568447 219.822 0.000493373 90.0421 0.000183219
234.805 0.000520459 202.42 0.000453369 82.8863 0.000166769
212.825 0.000469931 183.768 0.000410491 76.0882 0.000151141
189.814 0.00041703 164.059 0.000365183 69.5809 0.000136182
165.865 0.000361977 143.506 0.000317935 63.2827 0.000121703
141.109 0.000305065 122.337 0.00026927 57.1037 0.000107499
115.713 0.000246685 100.782 0.000219718 50.9491 9.33502e-05
89.8875 0.000187315 79.07 0.000169805 44.7208 7.90323e-05
63.8632 0.000127489 57.4242 0.000120045 38.3205 6.43188e-05
37.8794 6.77562e-05 36.0588 7.09288e-05 31.6544 4.89945e-05
12.4215 9.23247e-06 15.1262 2.28078e-05 24.6268 3.28391e-05
-5.08382 -5.15838e-05 -2.04759 -2.94687e-05 17.0703 1.54679e-05
-20.5145 -0.000115085 -15.8055 -8.60858e-05 9.01205 -3.05692e-06
-35.2463 -0.000175709 -28.9542 -0.000140195 0.933167 -2.16291e-05
-46.8247 -0.000223357 -41.7188 -0.000192725 -5.85137 -4.9549e-05
-57.4768 -0.000267193 -53.4666 -0.00024107 -13.0055 -7.89899e-05
-67.1444 -0.000306977 -64.2562 -0.000285471 -20.6355 -0.000110389
-75.7513 -0.000342396 -74.2702 -0.000326681 -28.5041 -0.00014277
-83.0862 -0.000372581 -83.3124 -0.000363892 -36.653 -0.000176305
-89.2959 -0.000398136 -91.2542 -0.000396574 -45.0654 -0.000210924
-94.5023 -0.000419561 -98.0471 -0.000424529 -53.753 -0.000246675
-98.6881 -0.000436787 -103.788 -0.000448154 -62.6128 -0.000283135
-101.908 -0.000450039 -108.544 -0.000467725 -71.4995 -0.000319706
-104.337 -0.000460034 -112.307 -0.000483213 -80.2835 -0.000355854
-106.133 -0.000467423 -115.082 -0.000494631 -88.877 -0.000391218
-107.423 -0.000472732 -116.936 -0.000502262 -97.2005 -0.000425471
-108.37 -0.000476629 -117.984 -0.000506572 -105.141 -0.000458149
-109.164 -0.000479898 -118.327 -0.000507986 -112.552 -0.000488647
-109.979 -0.000483252 -118.055 -0.000506864 -119.286 -0.000516358
-110.976 -0.000487353 -117.263 -0.000503608 -125.221 -0.000540784
-112.321 -0.000492888 -116.075 -0.000498719 -130.263 -0.000561531
-114.178 -0.000500531 -114.621 -0.000492736 -134.319 -0.000578224
-116.689 -0.000510864 -113.024 -0.000486163 -137.295 -0.00059047
-119.971 -0.000524369 -111.397 -0.000479466 -139.101 -0.000597903
-124.117 -0.000541431 -109.851 -0.000473105 -139.673 -0.000600254
-129.193 -0.000562321 -108.49 -0.000467503 -138.826 -0.000596769
-135.234 -0.000587183 -107.393 -0.000462989 -136.53 -0.000587323
-142.244 -0.000616029 -106.645 -0.000459909 -132.8 -0.000571973
-150.207 -0.000648798 -106.31 -0.000458531 -127.669 -0.000550856
-159.087 -0.00068534 -106.444 -0.000459083 -121.183 -0.000524163
-168.828 -0.00072543 -107.079 -0.000461697 -113.429 -0.000492254
-179.364 -0.000768785 -108.221 -0.000466397 -104.538 -0.000455668
-190.613 -0.000815077 -109.854 -0.000473116 -94.6721 -0.000415067
-202.483 -0.000863927 -111.945 -0.000481722 -84.003 -0.000371161
-214.867 -0.000914891 -114.45 -0.000492032 -72.713 -0.0003247
-227.643 -0.000967463 -117.313 -0.000503811 -60.9993 -0.000276495
-240.67 -0.00102108 -120.463 -0.000516777 -49.0776 -0.000227435
-253.799 -0.0010751 -123.827 -0.000530619 -37.1753 -0.000178454
-266.868 -0.00112889 -127.327 -0.000545023 -25.5188 -0.000130485
-279.711 -0.00118174 -130.888 -0.000559677 -14.3262 -8.44246e-05
-292.165 -0.00123299 -134.437 -0.00057428 -3.80509 -4.11281e-05
-304.063 -0.00128195 -137.961 -0.000588781 6.07701 -1.28447e-05
-315.257 -0.00132802 -141.45 -0.000603143 15.1768 8.07427e-06
-325.651 -0.00137079 -144.714 -0.000616572 23.0355 2.61404e-05
-335.12 -0.00140976 -147.717 -0.000628931 29.4757 4.09453e-05
-343.598 -0.00144465 -150.37 -0.00063985 34.2989 5.20332e-05
-351.019 -0.00147518 -152.703 -0.000649449 37.4691 5.9321e-05
-357.348 -0.00150123 -154.735 -0.000657811 38.9952 6.28293e-05
-362.58 -0.00152276 -156.469 -0.00066495 38.805 6.2392e-05
-366.733 -0.00153985 -157.929 -0.000670957 36.7387 5.76419e-05
-369.847 -0.00155267 -159.151 -0.000675987 32.7911 4.85671e-05
-371.984 -0.00156146 -160.2 -0.000680303 27.0398 3.53455e-05
-373.221 -0.00156655 -161.148 -0.000684204 19.6071 1.82589e-05
-373.659 -0.00156836 -162.062 -0.000687963 10.634 -2.36886e-06
-373.42 -0.00156737 -163.017 -0.000691893 0.335237 -2.60442e-05
-372.663 -0.00156426 -164.037 -0.000696094 -9.04656 -6.46524e-05
-371.505 -0.00155949 -165.22 -0.000700959 -19.3184 -0.000106923
-370.129 -0.00155383 -166.706 -0.000707077 -30.2916 -0.000152081
-368.724 -0.00154805 -168.568 -0.000714738 -41.7337 -0.000199167
-367.369 -0.00154247 -170.926 -0.000724441 -53.4584 -0.000247417
-364.075 -0.00152891 -174.227 -0.000738027 -65.2927 -0.000296118
-361.189 -0.00151704 -178.068 -0.000753832 -77.1731 -0.000345008
-359.27 -0.00150914 -182.337 -0.000771401 -88.9665 -0.000393541
-358.068 -0.00150419 -187.322 -0.000791915 -100.464 -0.000440856
-357.701 -0.00150268 -192.964 -0.000815133 -111.518 -0.000486344
-358.349 -0.00150535 -199.204 -0.000840812 -122.027 -0.000529594
-360.052 -0.00151236 -205.992 -0.000868744 -131.916 -0.000570289
-362.763 -0.00152352 -213.326 -0.000898927 -141.12 -0.000608163
-366.481 -0.00153882 -221.205 -0.000931351 -149.554 -0.000642873
-370.772 -0.00155647 -229.496 -0.00096547 -157.164 -0.000674191
-376.025 -0.00157809 -238.121 -0.00100096 -163.919 -0.000701988
-382.179 -0.00160342 -246.945 -0.00103728 -169.826 -0.000726297
-388.764 -0.00163051 -256.049 -0.00107474 -174.874 -0.000747071
-395.991 -0.00166026 -265.293 -0.00111278 -179.069 -0.000764331
-403.527 -0.00169127 -274.598 -0.00115108 -182.454 -0.000778265
-411.156 -0.00172266 -283.846 -0.00118913 -185.06 -0.000788989
-418.721 -0.00175379 -292.936 -0.00122654 -186.96 -0.000796805
-426.12 -0.00178424 -301.771 -0.0012629 -188.214 -0.000801967
-433.169 -0.00181325 -310.217 -0.00129766 -188.906 -0.000804815
-439.677 -0.00184003 -318.136 -0.00133024 -189.115 -0.000805674
-445.538 -0.00186415 -325.391 -0.0013601 -188.909 -0.000804825
-450.671 -0.00188528 -331.863 -0.00138673 -188.377 -0.000802636
-454.981 -0.00190301 -337.435 -0.00140967 -187.608 -0.000799474
-458.385 -0.00191702 -341.994 -0.00142843 -186.685 -0.000795673
-460.838 -0.00192712 -345.438 -0.0014426 -185.676 -0.000791521
-462.313 -0.00193319 -347.687 -0.00145186 -184.64 -0.000787259
-462.782 -0.00193512 -348.687 -0.00145597 -183.624 -0.000783078
-462.166 -0.00193258 -348.383 -0.00145472 -182.663 -0.000779122
-460.538 -0.00192588 -346.749 -0.00144799 -181.771 -0.000775452
-457.945 -0.00191521 -343.805 -0.00143588 -180.94 -0.000772032
-454.43 -0.00190075 -339.589 -0.00141853 -180.146 -0.000768765
-450.062 -0.00188277 -334.175 -0.00139625 -179.348 -0.00076548
-444.885 -0.00186147 -327.662 -0.00136945 -178.489 -0.000761945
-438.911 -0.00183688 -320.176 -0.00133864 -177.499 -0.000757873
-432.151 -0.00180906 -311.858 -0.00130441 -176.3 -0.000752939
-424.64 -0.00177815 -302.86 -0.00126738 -174.806 -0.000746791
-416.435 -0.00174439 -293.338 -0.00122819 -172.932 -0.000739077
-407.618 -0.00170811 -283.441 -0.00118747 -170.593 -0.000729455
-398.3 -0.00166976 -273.316 -0.0011458 -167.714 -0.000717606
-388.6 -0.00162984 -263.096 -0.00110374 -164.226 -0.00070325
-378.636 -0.00158884 -252.905 -0.0010618 -160.071 -0.000686152
-368.511 -0.00154717 -242.854 -0.00102044 -155.207 -0.000666135
-358.311 -0.0015052 -233.041 -0.000980059 -149.606 -0.000643087
-348.106 -0.0014632 -223.544 -0.000940979 -143.26 -0.000616969
-337.937 -0.00142135 -214.427 -0.00090346 -136.176 -0.000587818
-327.826 -0.00137974 -205.733 -0.000867682 -128.383 -0.000555748
-317.772 -0.00133837 -197.486 -0.000833744 -119.927 -0.000520952
-307.756 -0.00129715 -189.69 -0.000801661 -110.875 -0.000483698
-297.738 -0.00125592 -182.33 -0.000771373 -101.307 -0.000444327
-287.663 -0.00121446 -175.373 -0.000742743 -91.3236 -0.000403241
-277.462 -0.00117248 -168.769 -0.000715565 -81.0347 -0.0003609
-267.062 -0.00112968 -162.452 -0.000689569 -70.5629 -0.000317806
-256.384 -0.00108574 -156.344 -0.000664435 -60.0379 -0.000274493
-245.356 -0.00104036 -150.357 -0.000639796 -49.5942 -0.000231515
-233.92 -0.000993296 -144.394 -0.000615255 -39.3671 -0.000189428
-218.982 -0.000931825 -136.821 -0.00058409 -27.0887 -0.0001389
-203.281 -0.000867211 -128.936 -0.000551643 -15.5974 -9.16106e-05
-186.774 -0.000799278 -120.567 -0.000517204 -5.10757 -4.84426e-05
-169.381 -0.000727706 -111.635 -0.000480446 4.11073 -1.85237e-05
-150.994 -0.000652039 -102.113 -0.000441262 12.4027 5.38271e-07
-131.498 -0.000571806 -91.8423 -0.000398994 19.2851 1.63599e-05
-110.799 -0.000486627 -80.7561 -0.000353372 24.7232 2.88613e-05
-88.8795 -0.000396422 -68.9012 -0.000304587 28.6752 3.79462e-05
-65.7939 -0.00030142 -56.4068 -0.000253169 31.3773 4.4158e-05
-41.6508 -0.000202065 -43.3661 -0.000199504 32.9757 4.78324e-05
-18.7764 -0.000107932 -29.4774 -0.000142349 33.5313 4.91098e-05
3.46291 -2.63574e-05 -15.0446 -8.29545e-05 33.056 4.80171e-05
29.9609 3.45575e-05 -1.42224 -2.68953e-05 32.2227 4.61016e-05
58.4006 9.9936e-05 17.5111 1.66296e-05 30.9644 4.32088e-05
85.5552 0.00016236 35.3475 5.76329e-05 29.7162 4.03394e-05
111.9 0.000222922 52.1353 9.62255e-05 28.623 3.78264e-05
137.879 0.000282645 67.9644 0.000132614 27.9775 3.63425e-05
162.145 0.000338429 82.6373 0.000166345 27.9608 3.6304e-05
184.655 0.000390176 95.7636 0.00019652 28.7776 3.81818e-05
205.523 0.000438148 107.367 0.000223195 30.5451 4.22449e-05
224.224 0.000481139 117.567 0.000246644 33.3268 4.86397e-05
240.727 0.000519077 126.293 0.000266704 36.8082 5.66429e-05
255.189 0.000552324 133.442 0.000283137 41.0331 6.63553e-05
267.571 0.000580788 139.244 0.000296476 46.1268 7.80649e-05
278.086 0.000604961 143.886 0.000307147 51.9593 9.14729e-05
287.043 0.000625551 147.489 0.00031543 58.3857 0.000106246
294.697 0.000643146 150.198 0.000321657 65.3114 0.000122168
301.365 0.000658475 152.269 0.000326419 72.5764 0.000138869
307.397 0.000672342 153.96 0.000330306 79.9661 0.000155856
313.113 0.000685482 155.496 0.000333836 87.268 0.000172642
318.845 0.000698659 157.104 0.000337532 94.3109 0.000188833
324.922 0.000712629 159.025 0.00034195 100.929 0.000204048
331.644 0.000728081 161.473 0.000347578 106.951 0.00021789
339.287 0.000745651 164.619 0.000354808 112.22 0.000230003
348.091 0.000765892 168.603 0.000363967 116.628 0.000240136
358.25 0.000789246 173.537 0.000375309 120.107 0.000248135
369.899 0.000816025 179.487 0.000388989 122.617 0.000253904
383.092 0.000846354 186.484 0.000405073 124.145 0.000257416
397.779 0.000880116 194.526 0.000423561 124.72 0.00025874
413.818 0.000916988 203.574 0.00044436 124.334 0.000257852
430.997 0.000956479 213.537 0.000467264 123.068 0.000254941
449.043 0.000997964 224.309 0.000492027 121.086 0.000250386
467.644 0.00104072 235.753 0.000518335 118.565 0.00024459
486.463 0.00108399 247.697 0.000545793 115.714 0.000238034
505.165 0.00112698 259.933 0.000573921 112.77 0.000231267
523.442 0.001169 272.228 0.000602187 109.984 0.000224862
541.021 0.00120941 284.344 0.000630038 107.59 0.00021936
557.671 0.00124768 296.036 0.000656918 105.812 0.000215271
573.184 0.00128335 307.078 0.0006823 104.852 0.000213064
587.379 0.00131598 317.27 0.00070573 104.885 0.000213142
600.094 0.00134521 326.455 0.000726845 106.043 0.000215803
611.19 0.00137072 334.527 0.000745401 108.405 0.000221232
620.554 0.00139224 341.428 0.000761266 112.001 0.0002295
628.121 0.00140964 347.151 0.000774423 116.817 0.00024057
633.877 0.00142287 351.734 0.000784959 122.783 0.000254287
637.872 0.00143205 355.221 0.000792974 129.107 0.000268824
640.219 0.00143745 357.58 0.000798397 136.067 0.000284823
641.002 0.00143925 359.145 0.000801994 143.608 0.00030216
640.408 0.00143789 360.063 0.000804106 151.554 0.000320427
638.517 0.00143354 360.495 0.000805098 159.669 0.00033908
635.606 0.00142685 360.568 0.000805267 167.858 0.000357906
630.523 0.00141516 360.721 0.000805617 175.895 0.000376383
624.541 0.00140141 360.867 0.000805953 183.549 0.000393979
619.178 0.00138908 360.882 0.000805989 190.646 0.000410293
614.132 0.00137748 361.09 0.000806466 197.019 0.000424945
608.354 0.0013642 361.696 0.000807859 202.539 0.000437634
601.522 0.00134849 362.718 0.000810208 207.056 0.000448017
593.64 0.00133037 364.103 0.000813392 210.495 0.000455923
584.782 0.00131001 365.833 0.00081737 212.816 0.000461259
575.014 0.00128755 367.701 0.000821665 214.034 0.000464059
564.34 0.00126302 369.422 0.000825621 214.162 0.000464352
552.831 0.00123656 370.721 0.000828605 213.155 0.000462038
540.561 0.00120835 371.317 0.000829977 211.109 0.000457334
527.59 0.00117853 370.892 0.000828999 208.152 0.000450536
513.944 0.00114716 369.144 0.000824982 204.399 0.000441909
499.582 0.00111415 365.841 0.000817388 199.97 0.000431728
484.363 0.00107916 360.801 0.000805803 194.983 0.000420263
468.053 0.00104167 353.896 0.000789929 189.537 0.000407743
450.369 0.00100101 345.063 0.000769623 183.7 0.000394326
431.066 0.000956637 334.3 0.000744879 177.519 0.000380117
409.999 0.000908208 321.638 0.000715772 171.025 0.000365187
387.149 0.000855679 307.137 0.000682435 164.229 0.000349564
362.567 0.00079917 290.894 0.000645096 157.121 0.000333224
336.327 0.000738847 273.052 0.000604079 149.668 0.000316091
308.513 0.000674907 253.782 0.00055978 141.826 0.000298062
279.231 0.000607593 233.278 0.000512646 133.539 0.000279013
248.599 0.000537175 211.757 0.000463172 124.749 0.000258806
216.716 0.00046388 189.446 0.000411882 115.394 0.0002373
183.639 0.00038784 166.576 0.000359308 105.417 0.000214365
149.402 0.000309135 143.367 0.000305953 94.7762 0.000189903
114.097 0.000227973 120.004 0.000252246 83.4468 0.000163858
77.925 0.00014482 96.6289 0.00019851 71.4279 0.000136228
41.1714 6.03287e-05 73.3371 0.000144965 58.7424 0.000107066
10.8461 -9.3846e-06 49.1475 8.9357e-05 45.5233 7.66776e-05
-8.48699 -7.19567e-05 25.5703 3.51564e-05 31.6731 4.48379e-05
-24.7966 -0.000139074 2.2361 -1.84853e-05 17.2276 1.163e-05
-40.0058 -0.000201664 -14.2482 -8.6322e-05 2.40574 -2.24433e-05
-54.7076 -0.000262165 -30.0736 -0.000151447 -9.03651 -6.95307e-05
-68.5656 -0.000319194 -45.0368 -0.000213024 -21.0504 -0.00011897
-81.2397 -0.000371351 -59.2036 -0.000271323 -33.2053 -0.000168991
-92.8598 -0.00041917 -72.72 -0.000326947 -45.2642 -0.000218616
-103.368 -0.000462415 -85.3527 -0.000378933 -57.2283 -0.000267851
-112.678 -0.000500725 -96.9685 -0.000426735 -69.1318 -0.000316836
-120.907 -0.000534592 -107.61 -0.000470526 -80.7746 -0.000364749
-128.126 -0.000564298 -117.307 -0.000510433 -91.9189 -0.00041061
-134.393 -0.000590088 -125.978 -0.000546116 -102.434 -0.000453881
-139.84 -0.000612505 -133.574 -0.000577373 -112.272 -0.000494368
-144.583 -0.000632024 -140.13 -0.000604356 -121.305 -0.000531541
-148.747 -0.000649159 -145.676 -0.000627177 -129.35 -0.000564648
-152.497 -0.000664589 -150.203 -0.000645807 -136.262 -0.000593093
-155.989 -0.000678962 -153.729 -0.000660316 -141.97 -0.000616582
-159.36 -0.000692833 -156.306 -0.000670922 -146.401 -0.000634815
-162.716 -0.000706643 -157.996 -0.000677876 -149.456 -0.000647388
-166.125 -0.000720674 -158.86 -0.000681433 -151.052 -0.000653957
-169.634 -0.000735112 -158.973 -0.000681897 -151.12 -0.000654236
-173.296 -0.000750184 -158.386 -0.000679484 -149.517 -0.000647638
-177.173 -0.000766137 -157.157 -0.000674424 -146.255 -0.000634217
-181.321 -0.000783209 -155.347 -0.000666974 -141.374 -0.000614129
-185.77 -0.000801515 -153.027 -0.000657427 -134.933 -0.000587623
-190.497 -0.000820968 -150.263 -0.000646055 -127.047 -0.00055517
-195.438 -0.000841302 -147.118 -0.000633111 -117.869 -0.0005174
-200.502 -0.000862141 -143.653 -0.000618853 -107.563 -0.000474991
-205.581 -0.000883041 -139.93 -0.00060353 -96.3089 -0.000428677
-210.551 -0.000903495 -135.997 -0.000587347 -84.3116 -0.000379305
-215.272 -0.000922924 -131.895 -0.000570464 -71.803 -0.000327829
-219.59 -0.000940693 -127.655 -0.000553016 -59.0231 -0.000275237
-223.348 -0.000956157 -123.304 -0.000535109 -46.2107 -0.000222511
-226.392 -0.000968686 -118.855 -0.000516804 -33.6058 -0.000170639
-228.536 -0.000977508 -114.329 -0.000498177 -21.4481 -0.000120607
-229.145 -0.000980013 -109.836 -0.000479689 -9.94995 -7.32897e-05
-228.022 -0.000975391 -105.252 -0.000460823 0.69089 -3.15245e-05
-225.255 -0.000964007 -100.668 -0.000441959 10.6655 -8.59429e-06
-220.999 -0.000946493 -95.8976 -0.000422328 19.2979 1.12503e-05
-215.415 -0.000923512 -90.8341 -0.00040149 26.5635 2.79528e-05
-208.733 -0.000896013 -85.3582 -0.000378956 32.1475 4.07895e-05
-201.07 -0.00086448 -79.5471 -0.000355042 36.1395 4.99665e-05
-192.55 -0.000829416 -73.4529 -0.000329963 38.5968 5.56155e-05
-183.273 -0.000791239 -67.1103 -0.000303861 39.5553 5.7819e-05
-173.305 -0.00075022 -60.6155 -0.000277134 38.9096 5.63347e-05
-162.725 -0.000706681 -54.1391 -0.000250482 36.7651 5.14047e-05
-151.661 -0.000661148 -47.8273 -0.000224507 33.3678 4.35948e-05
-140.285 -0.000614335 -41.8019 -0.000199712 28.9293 3.33915e-05
-128.818 -0.000567144 -36.1902 -0.000176618 23.6301 2.12093e-05
-117.481 -0.000520492 -31.1311 -0.000155799 17.7035 7.58504e-06
-106.472 -0.000475186 -26.7469 -0.000137757 11.4254 -6.84732e-06
-95.9578 -0.000431919 -23.1353 -0.000122894 5.04726 -2.15098e-05
-86.0756 -0.000391251 -20.3647 -0.000111493 -0.839792 -3.69164e-05
-76.8981 -0.000353484 -18.4885 -0.000103772 -5.74858 -5.71172e-05
-68.4169 -0.000318582 -17.5738 -0.000100008 -10.304 -7.58637e-05
-60.5529 -0.00028622 -17.6243 -0.000100215 -14.3233 -9.24042e-05
-53.1589 -0.000255792 -18.6064 -0.000104257 -17.7728 -0.0001066
-46.0548 -0.000226557 -20.4363 -0.000111787 -20.6418 -0.000118406
-39.0364 -0.000197674 -22.9937 -0.000122312 -22.923 -0.000127794
-31.8875 -0.000168255 -26.1156 -0.000135159 -24.6067 -0.000134723
-24.3863 -0.000137386 -29.5927 -0.000149468 -25.7474 -0.000139417
-16.298 -0.000104101 -33.1794 -0.000164228 -26.4429 -0.000142279
-8.20334 -7.07894e-05 -36.4835 -0.000177825 -26.7994 -0.000143746
-3.90514 -5.31013e-05 -38.4966 -0.000186109 -27.0268 -0.000144682
2.81208 -3.16669e-05 -40.2622 -0.000193375 -26.9629 -0.000144419
11.707 -1.12187e-05 -41.1627 -0.000197081 -26.7706 -0.000143627
22.373 1.33008e-05 -41.1268 -0.000196933 -26.4725 -0.000142401
34.3067 4.07347e-05 -40.0491 -0.000192499 -26.1424 -0.000141042
47.8643 7.19015e-05 -37.8127 -0.000183295 -25.7672 -0.000139498
63.1589 0.000107062 -34.2033 -0.000168442 -25.3712 -0.000137869
79.9187 0.00014559 -29.1973 -0.000147841 -24.9469 -0.000136123
98.2497 0.00018773 -22.8559 -0.000121744 -24.4379 -0.000134028
118.133 0.000233439 -15.1787 -9.01512e-05 -23.7624 -0.000131248
139.362 0.000282241 -6.18325 -5.31328e-05 -22.8287 -0.000127406
161.789 0.000333798 5.62237 -1.51217e-05 -21.5386 -0.000122097
185.156 0.000387514 21.1777 2.06376e-05 -19.7927 -0.000114912
209.176 0.000442734 37.9001 5.908e-05 -17.448 -0.000105263
233.623 0.000498933 55.8058 0.000100242 -14.3535 -9.25282e-05
258.193 0.000555415 74.5946 0.000143435 -10.4026 -7.62695e-05
282.615 0.000611558 93.9387 0.000187904 -5.47511 -5.59918e-05
306.64 0.000666789 113.643 0.000233201 0.658297 -3.26793e-05
330.015 0.000720524 133.478 0.000278799 8.35577 -1.49839e-05
352.501 0.000772216 153.076 0.000323852 17.1783 5.29783e-06
373.84 0.000821272 172.383 0.000368236 27.2652 2.84859e-05
393.86 0.000867295 191.258 0.000411627 38.5864 5.45118e-05
412.374 0.000909855 209.584 0.000453756 51.0447 8.31516e-05
429.253 0.000948656 227.199 0.00049425 64.6437 0.000114414
444.397 0.000983471 244.039 0.000532963 79.2628 0.000148021
457.766 0.00101421 260.086 0.000569853 94.7053 0.000183521
469.401 0.00104095 275.303 0.000604835 110.748 0.000220401
479.413 0.00106397 289.651 0.000637818 127.208 0.000258239
487.964 0.00108363 303.125 0.000668792 143.875 0.000296555
495.248 0.00110037 315.742 0.000697797 160.492 0.000334756
501.469 0.00111467 327.52 0.000724873 176.783 0.000372205
506.824 0.00112698 338.484 0.000750077 192.494 0.000408322
511.492 0.00113771 348.669 0.000773492 207.389 0.000442564
515.642 0.00114725 358.114 0.000795205 221.23 0.000474383
519.438 0.00115598 366.845 0.000815274 233.787 0.000503248
523.045 0.00116427 374.873 0.00083373 244.858 0.0005287
526.839 0.00117299 381.317 0.000848543 244.674 0.000528276
530.868 0.00118225 385.896 0.00085907 245.311 0.000529742
534.877 0.00119147 390.59 0.000869861 245.801 0.000530867
539.265 0.00120156 395.183 0.000880421 245.605 0.000530416
543.856 0.00121211 399.352 0.000890003 245.16 0.000529392
548.755 0.00122337 402.546 0.000897346 245.202 0.00052949
553.893 0.00123519 405.025 0.000903046 244.425 0.000527704
559.123 0.00124721 406.699 0.000906892 241.384 0.000520713
564.24 0.00125897 407.375 0.000908448 236.335 0.000509105
569.035 0.00126999 406.951 0.000907473 229.869 0.000494243
573.184 0.00127953 405.537 0.000904222 222.223 0.000476664
576.1 0.00128624 403.198 0.000898844 213.181 0.000455878
577.548 0.00128957 399.802 0.000891039 202.861 0.000432154
577.306 0.00128901 395.264 0.000880606 191.689 0.000406472
575.326 0.00128446 389.503 0.000867363 180.047 0.000379708
571.591 0.00127587 382.436 0.000851116 168.025 0.000352073
566.116 0.00126328 373.98 0.000831678 155.733 0.000323813
558.951 0.00124681 364.111 0.000808991 143.422 0.000295513
550.113 0.0012265 352.835 0.000783067 131.379 0.000267829
539.601 0.00120233 340.19 0.000753998 119.733 0.000241057
527.398 0.00117428 326.279 0.000722019 108.53 0.000215303
513.448 0.00114221 311.26 0.000687494 97.8457 0.00019074
497.677 0.00110595 295.319 0.000650847 87.7848 0.000167612
479.992 0.0010653 278.661 0.000612554 78.3868 0.000146007
460.299 0.00102003 261.524 0.000573158 69.6192 0.000125851
438.575 0.000970087 244.139 0.000533193 61.4422 0.000107054
414.94 0.000915754 226.702 0.000493107 53.8433 8.95852e-05
389.637 0.000857586 209.371 0.000453266 46.8016 7.33974e-05
362.983 0.000796312 192.281 0.000413978 40.2649 5.83704e-05
335.323 0.000732727 175.544 0.000375502 34.1702 4.43596e-05
307.007 0.000667632 159.245 0.000338034 28.4705 3.12567e-05
278.37 0.000601799 143.45 0.000301722 23.1268 1.89724e-05
249.724 0.000535948 128.208 0.000266684 18.0916 7.39727e-06
221.345 0.000470708 113.561 0.000233013 13.3105 -3.59373e-06
193.454 0.00040659 99.5411 0.000200783 8.73697 -1.41076e-05
166.193 0.00034392 86.1744 0.000170055 4.33465 -2.42279e-05
139.598 0.000282784 73.5314 0.000140991 0.783516 -3.23914e-05
113.64 0.00022311 61.7398 0.000113884 -2.19009 -4.33315e-05
88.3452 0.000164961 50.6165 8.83131e-05 -4.9925 -5.48641e-05
63.7615 0.000108447 40.1239 6.41922e-05 -7.6985 -6.59998e-05
40.0823 5.40118e-05 30.2041 4.1388e-05 -10.3195 -7.6786e-05
17.8928 3.00151e-06 20.8073 1.97861e-05 -12.96 -8.76521e-05
0.927969 -3.59982e-05 11.7508 -1.03335e-06 -15.6404 -9.86825e-05
-7.64772 -7.12891e-05 2.36697 -2.26054e-05 -18.1653 -0.000109073
-15.2149 -0.00010243 -4.17986 -4.64793e-05 -20.746 -0.000119693
-22.1018 -0.000130771 -10.0778 -7.07508e-05 -23.2671 -0.000130068
-28.2876 -0.000156227 -15.4652 -9.29208e-05 -25.8444 -0.000140675
-33.3518 -0.000177067 -20.2519 -0.000112619 -28.4331 -0.000151327
-37.5103 -0.000194181 -24.4868 -0.000130047 -31.032 -0.000162022
-40.8022 -0.000207727 -28.1939 -0.000145303 -33.6268 -0.000172701
-43.1322 -0.000217316 -31.2634 -0.000157934 -36.2125 -0.000183341
-44.6359 -0.000223504 -33.6299 -0.000167673 -38.7742 -0.000193883
-45.4051 -0.000226669 -35.3269 -0.000174657 -41.2774 -0.000204185
-45.4657 -0.000226918 -36.3684 -0.000178943 -43.6807 -0.000214075
-44.8687 -0.000224462 -36.7172 -0.000180378 -45.944 -0.000223389
-43.7026 -0.000219663 -36.3957 -0.000179055 -48.0235 -0.000231947
-41.9968 -0.000212643 -35.4763 -0.000175271 -49.8631 -0.000239517
-39.8249 -0.000203706 -34.02 -0.000169278 -51.4013 -0.000245847
-37.2717 -0.000193199 -32.0796 -0.000161293 -52.5792 -0.000250694
-34.4027 -0.000181392 -29.7269 -0.000151611 -53.3442 -0.000253842
-31.2991 -0.00016862 -27.041 -0.000140558 -53.6469 -0.000255088
-27.9076 -0.000154663 -24.1088 -0.000128491 -53.3556 -0.000253889
-24.2564 -0.000139637 -20.9674 -0.000115564 -52.3598 -0.000249791
-20.5661 -0.000124451 -17.6319 -0.000101838 -50.6536 -0.00024277
-17.0641 -0.00011004 -14.133 -8.74389e-05 -48.2228 -0.000232767
-13.9289 -9.71374e-05 -10.4924 -7.24568e-05 -45.0657 -0.000219774
-11.2644 -8.61727e-05 -6.725 -5.69531e-05 -41.2078 -0.000203898
-9.09533 -7.72463e-05 -2.8632 -4.1061e-05 -36.6976 -0.000185338
-7.37024 -7.01471e-05 1.53039 -2.61083e-05 -31.5856 -0.000164301
-5.98376 -6.44415e-05 6.94692 -1.36565e-05 -25.9318 -0.000141034
-4.81852 -5.96463e-05 12.2544 -1.45547e-06 -19.8135 -0.000115856
-3.75984 -5.52895e-05 17.4496 1.04876e-05 -13.3216 -8.91403e-05
-2.75124 -5.11389e-05 22.5367 2.21821e-05 -6.56464 -6.13338e-05
-1.75672 -4.70463e-05 27.4925 3.35747e-05 0.461588 -3.37706e-05
-0.725715 -4.28034e-05 32.2281 4.44612e-05 8.01843 -1.63986e-05
0.558012 -3.86858e-05 36.8187 5.50143e-05 15.4413 6.65386e-07
2.18802 -3.49387e-05 41.3375 6.54024e-05 22.678 1.73016e-05
3.7945 -3.12456e-05 45.8616 7.58026e-05 29.5199 3.30302e-05
5.29474 -2.77968e-05 50.3824 8.61952e-05 35.8954 4.76865e-05
6.57005 -2.48651e-05 54.8949 9.65688e-05 41.7484 6.11415e-05
7.4904 -2.27493e-05 59.4158 0.000106962 46.9889 7.31888e-05
7.89782 -2.18127e-05 63.935 0.000117351 51.5153 8.35942e-05
7.63325 -2.24209e-05 68.3865 0.000127584 55.2813 9.22516e-05
6.53654 -2.49421e-05 72.6752 0.000137443 58.2926 9.91742e-05
4.44983 -2.97391e-05 76.6972 0.000146689 60.5574 0.000104381
1.18464 -3.72453e-05 80.3203 0.000155018 62.0788 0.000107878
-1.06398 -4.50244e-05 83.0961 0.000161399 62.8983 0.000109762
-2.14572 -4.9476e-05 84.7243 0.000165142 63.1224 0.000110277
-3.95311 -5.69138e-05 85.6841 0.000167349 62.6388 0.000109165
-6.38392 -6.69171e-05 85.4687 0.000166853 61.5492 0.000106661
-9.40785 -7.93613e-05 84.1238 0.000163762 59.8674 0.000102795
-12.9762 -9.40457e-05 81.6662 0.000158112 57.6315 9.76545e-05
-17.0781 -0.000110926 77.9942 0.000149671 54.8749 9.13174e-05
-21.639 -0.000129695 73.013 0.00013822 51.6357 8.3871e-05
-26.5741 -0.000150004 66.772 0.000123873 47.9384 7.53716e-05
-31.7929 -0.000171481 59.3526 0.000106816 43.7872 6.58284e-05
-37.1725 -0.000193619 50.8031 8.71624e-05 39.1787 5.52341e-05
-42.2486 -0.000214508 41.2694 6.52458e-05 34.1013 4.35621e-05
-46.8447 -0.000233422 30.8929 4.13918e-05 28.5394 3.07761e-05
-50.671 -0.000249169 19.6439 1.55319e-05 22.4873 1.68632e-05
-53.7073 -0.000261663 7.84691 -1.15875e-05 15.9471 1.82831e-06
-56.1523 -0.000271725 -2.97631 -4.28675e-05 8.84657 -1.44948e-05
-57.8257 -0.000278612 -11.7603 -7.90157e-05 1.65009 -3.10385e-05
-58.7233 -0.000282306 -20.1044 -0.000113354 -4.36105 -5.32553e-05
-58.865 -0.000282889 -27.8635 -0.000145284 -10.5557 -7.87478e-05
-58.2531 -0.00028037 -34.9485 -0.00017444 -17.1415 -0.00010585
-56.891 -0.000274765 -41.2352 -0.000200312 -23.9287 -0.000133781
-54.8535 -0.00026638 -46.4845 -0.000221913 -31.0196 -0.000162961
-52.1599 -0.000255295 -50.6076 -0.000238881 -38.3933 -0.000193306
-48.8482 -0.000241667 -53.617 -0.000251265 -45.8865 -0.000224142
-45.0288 -0.00022595 -55.5175 -0.000259087 -53.2884 -0.000254602
-40.8482 -0.000208746 -56.3086 -0.000262342 -60.4841 -0.000284214
-36.4652 -0.000190708 -56.0572 -0.000261307 -67.3736 -0.000312566
-32.0235 -0.00017243 -54.8906 -0.000256507 -73.7831 -0.000338943
-27.639 -0.000154386 -52.9511 -0.000248525 -79.4941 -0.000362445
-23.4225 -0.000137035 -50.3872 -0.000237974 -84.3298 -0.000382345
-19.4937 -0.000120867 -47.3628 -0.000225528 -88.1621 -0.000398115
-15.976 -0.000106391 -44.0427 -0.000211865 -90.8638 -0.000409234
-12.9897 -9.41014e-05 -40.5758 -0.000197598 -92.3009 -0.000415148
-10.636 -8.44154e-05 -37.0919 -0.000183261 -92.3097 -0.000415184
-8.98392 -7.76167e-05 -33.666 -0.000169163 -90.5986 -0.000408142
-8.04634 -7.37583e-05 -30.3655 -0.00015558 -87.1637 -0.000394007
-7.78858 -7.26976e-05 -27.2506 -0.000142762 -82.0362 -0.000372906
-8.14116 -7.41485e-05 -24.3607 -0.000130869 -75.2593 -0.000345018
-9.02248 -7.77754e-05 -21.6854 -0.000119859 -66.9584 -0.000310857
-10.3504 -8.32401e-05 -19.173 -0.000109521 -57.3393 -0.000271273
-12.0338 -9.01678e-05 -16.7511 -9.95537e-05 -46.63 -0.000227202
-13.954 -9.80698e-05 -14.3336 -8.96054e-05 -35.0626 -0.000179599
-15.9507 -0.000106286 -11.8223 -7.92708e-05 -22.8944 -0.000129524
-17.8417 -0.000114068 -9.11117 -6.81138e-05 -10.4166 -7.81751e-05
-19.4544 -0.000120705 -6.09646 -5.57076e-05 2.36771 -3.06117e-05
-20.5958 -0.000125402 -2.92823 -4.26696e-05 14.3862 -2.98307e-06
-21.1937 -0.000127863 0.967036 -2.85725e-05 26.2328 2.42505e-05
-21.0869 -0.000127423 6.75079 -1.52765e-05 37.3962 4.99134e-05
-20.1396 -0.000123525 13.4113 3.50337e-08 47.451 7.30279e-05
-18.1782 -0.000115453 20.7953 1.70096e-05 56.4005 9.36017e-05
-15.1516 -0.000102998 28.881 3.55975e-05 64.2912 0.000111741
-11.0723 -8.62107e-05 37.6644 5.57893e-05 70.9689 0.000127092
-6.05213 -6.55517e-05 47.0698 7.7411e-05 76.2741 0.000139288
-0.113266 -4.1112e-05 56.9278 0.000100073 80.1974 0.000148307
9.70517 -1.85408e-05 67.0315 0.0001233 82.8889 0.000154494
19.6589 4.34125e-06 77.204 0.000146685 84.4445 0.000158071
30.0294 2.81815e-05 87.2598 0.000169802 84.8824 0.000159077
41.0335 5.34783e-05 96.8651 0.000191883 84.1788 0.00015746
51.7389 7.80884e-05 105.859 0.000212558 82.527 0.000153662
61.984 0.00010164 114.02 0.000231319 80.1264 0.000148144
71.3998 0.000123286 121.111 0.000247619 77.1478 0.000141297
79.6705 0.000142299 126.947 0.000261036 73.7345 0.00013345
86.5513 0.000158117 131.356 0.000271172 70.0801 0.000125049
91.8068 0.000170199 134.178 0.000277661 66.3727 0.000116526
95.2201 0.000178045 135.307 0.000280254 62.7459 0.000108189
96.6612 0.000181358 134.684 0.000278823 59.2843 0.000100231
96.0292 0.000179905 132.285 0.000273307 56.0618 9.28229e-05
93.4089 0.000173882 128.094 0.000263673 53.1377 8.61009e-05
89.1036 0.000163984 122.147 0.000250002 50.5277 8.01009e-05
83.3492 0.000150756 114.562 0.000232566 48.191 7.47292e-05
76.4387 0.000134869 105.492 0.000211715 46.0586 6.98271e-05
68.6456 0.000116954 95.149 0.000187938 44.0399 6.51864e-05
59.3742 9.56409e-05 83.9563 0.000162207 42.0006 6.04983e-05
49.5789 7.31228e-05 71.9978 0.000134717 39.8378 5.55263e-05
39.5806 5.01383e-05 59.6504 0.000106332 37.3955 4.99118e-05
29.6635 2.73405e-05 47.2028 7.77166e-05 34.5431 4.33546e-05
20.0637 5.27184e-06 34.932 4.95079e-05 31.1562 3.55686e-05
11.0693 -1.54049e-05 23.1069 2.23238e-05 27.1195 2.6289e-05
3.46865 -3.28777e-05 12.1364 -2.8958e-06 22.3392 1.52998e-05
-2.19222 -5.09395e-05 2.02592 -2.61383e-05 16.8009 2.56798e-06
-6.19532 -6.74132e-05 -5.01655 -5.1638e-05 10.4868 -1.19471e-05
-9.74336 -8.20142e-05 -10.5841 -7.45496e-05 3.41088 -2.82136e-05
-13.0186 -9.54926e-05 -15.0644 -9.2987e-05 -2.48227 -4.79293e-05
-15.9689 -0.000107634 -18.4448 -0.000106898 -8.53601 -7.28418e-05
-18.6987 -0.000118867 -20.9234 -0.000117098 -14.884 -9.89653e-05
-19.1262 -0.000120627 -23.0971 -0.000126044 -21.2216 -0.000125046
-19.4629 -0.000122012 -24.3811 -0.000131328 -27.5558 -0.000151113
-19.8086 -0.000123435 -25.0349 -0.000134018 -33.8426 -0.000176984
-20.2759 -0.000125358 -25.2224 -0.00013479 -39.8761 -0.000201813
-21.114 -0.000128807 -25.0352 -0.000134019 -45.4179 -0.000224619
-22.4994 -0.000134508 -24.5858 -0.00013217 -50.338 -0.000244866
-24.4868 -0.000142687 -24.1213 -0.000130259 -54.5354 -0.00026214
-27.1681 -0.000153721 -23.8274 -0.000129049 -57.8909 -0.000275949
-30.5987 -0.000167839 -23.8329 -0.000129071 -60.2575 -0.000285688
-34.7613 -0.000184969 -24.2801 -0.000130912 -61.549 -0.000291002
-39.6301 -0.000205005 -25.3043 -0.000135127 -61.7178 -0.000291697
-45.1727 -0.000227814 -26.9488 -0.000141894 -60.6257 -0.000287203
-51.3429 -0.000253206 -29.2026 -0.000151169 -58.2903 -0.000277592
-58.0807 -0.000280933 -32.046 -0.000162871 -54.8008 -0.000263232
-65.2917 -0.000310608 -35.4317 -0.000176803 -50.2783 -0.000244621
-72.8421 -0.00034168 -39.2549 -0.000192537 -44.905 -0.000222508
-80.4379 -0.000372938 -43.4118 -0.000209643 -38.8918 -0.000197763
-87.7214 -0.000402911 -47.7773 -0.000227608 -32.4641 -0.000171311
-94.646 -0.000431408 -52.1307 -0.000245523 -25.8749 -0.000144195
-101.173 -0.000458269 -56.2743 -0.000262575 -19.376 -0.000117451
-107.246 -0.00048326 -59.9934 -0.00027788 -13.2228 -9.21288e-05
-112.826 -0.000506225 -63.087 -0.000290611 -7.64912 -6.9192e-05
-117.898 -0.000527094 -65.3988 -0.000300124 -2.85382 -4.94583e-05
-122.436 -0.000545769 -66.827 -0.000306002 1.11744 -3.55027e-05
-126.413 -0.000562136 -67.3466 -0.00030814 4.12197 -2.85957e-05
-129.818 -0.00057615 -66.9213 -0.00030639 5.87 -2.45773e-05
-131.599 -0.000583479 -65.875 -0.000302084 6.55669 -2.29987e-05
-131.657 -0.000583718 -64.1955 -0.000295173 6.03001 -2.42094e-05
-131.095 -0.000581406 -61.7133 -0.000284958 4.22795 -2.83521e-05
-129.681 -0.000575586 -58.8295 -0.00027309 1.61031 -3.43697e-05
-127.662 -0.000567277 -55.546 -0.000259578 -1.4224 -4.45246e-05
-125.295 -0.000557535 -51.9794 -0.000244901 -4.82439 -5.85246e-05
-122.724 -0.000546955 -48.3943 -0.000230147 -8.65092 -7.42716e-05
-120.173 -0.000536455 -45.031 -0.000216307 -12.6865 -9.08789e-05
-117.886 -0.000527045 -42.0476 -0.000204029 -16.7816 -0.000107731
-116.067 -0.000519559 -39.5991 -0.000193953 -20.7999 -0.000124267
-114.925 -0.00051486 -37.8724 -0.000186847 -24.5917 -0.000139871
-114.653 -0.000513743 -37.0181 -0.000183331 -28.0039 -0.000153913
-115.401 -0.000516818 -37.1236 -0.000183766 -30.9286 -0.000165949
-117.28 -0.000524552 -38.2494 -0.000188399 -33.3038 -0.000175724
-120.357 -0.000537215 -40.438 -0.000197405 -35.0922 -0.000183084
-124.364 -0.000553705 -43.6644 -0.000210683 -36.2768 -0.000187958
-129.427 -0.00057454 -47.8183 -0.000227777 -36.8863 -0.000190467
-135.468 -0.000599398 -52.8318 -0.000248409 -36.9655 -0.000190792
-142.231 -0.000627229 -58.7157 -0.000272622 -36.5309 -0.000189004
-149.833 -0.000658514 -65.2527 -0.000299523 -35.7075 -0.000185615
-157.762 -0.000691144 -72.3739 -0.000328829 -34.6206 -0.000181143
-165.609 -0.000723438 -79.945 -0.000359986 -33.4219 -0.00017621
-173.152 -0.000754476 -87.792 -0.000392278 -32.2725 -0.00017148
-180.096 -0.000783056 -95.7063 -0.000424847 -31.3505 -0.000167686
-186.212 -0.000808221 -103.467 -0.000456785 -30.8313 -0.000165549
-191.372 -0.000829456 -110.848 -0.000487159 -30.8744 -0.000165726
-195.436 -0.000846181 -117.633 -0.000515078 -31.6172 -0.000168783
-198.238 -0.000857714 -123.628 -0.000539753 -33.1692 -0.00017517
-199.608 -0.00086335 -128.682 -0.000560548 -35.6044 -0.000185191
-199.257 -0.000861905 -132.649 -0.000576874 -38.7727 -0.00019823
-197.074 -0.000852924 -135.348 -0.000587982 -42.5274 -0.000213681
-192.948 -0.000835943 -136.79 -0.000593914 -47.0955 -0.00023248
-186.803 -0.000810655 -136.97 -0.000594655 -52.3251 -0.000254001
-178.639 -0.000777058 -135.918 -0.000590328 -58.0836 -0.000277698
-168.502 -0.000735343 -133.663 -0.000581048 -64.2518 -0.000303082
-156.522 -0.000686043 -130.276 -0.000567108 -70.6774 -0.000329524
-142.926 -0.000630093 -125.844 -0.000548869 -77.1363 -0.000356105
-127.995 -0.000568648 -120.457 -0.000526701 -83.4008 -0.000381884
-112.033 -0.000502958 -114.213 -0.000501007 -89.2601 -0.000405997
-95.3534 -0.000434319 -107.225 -0.000472247 -94.5105 -0.000427603
-78.2853 -0.00036408 -99.6067 -0.000440898 -98.9318 -0.000445798
-61.1768 -0.000293674 -91.4715 -0.00040742 -102.309 -0.000459697
-44.3747 -0.00022453 -82.9271 -0.000372258 -104.458 -0.000468541
-28.1779 -0.000157876 -74.0822 -0.000335859 -105.228 -0.000471707
-12.8109 -9.46376e-05 -65.0372 -0.000298637 -104.362 -0.000468144
2.90203 -3.746e-05 -55.8693 -0.000260909 -101.681 -0.000457111
21.4175 5.10436e-06 -46.7861 -0.000223529 -97.1079 -0.000438292
37.83 4.28342e-05 -37.8765 -0.000186864 -90.6017 -0.000411518
49.8599 7.04892e-05 -28.4977 -0.000148268 -82.3482 -0.000377553
59.6784 9.30605e-05 -19.489 -0.000111195 -72.2492 -0.000335993
68.1571 0.000112552 -10.5385 -7.43623e-05 -60.5348 -0.000287785
75.109 0.000128533 -1.78003 -3.8319e-05 -47.3276 -0.000233435
80.391 0.000140675 9.32023 -9.6698e-06 -32.8514 -0.000173862
84.4797 0.000150075 20.597 1.62539e-05 -17.3151 -0.000109927
87.5982 0.000157244 31.5886 4.15218e-05 -1.01034 -4.28289e-05
90.056 0.000162894 41.9385 6.53148e-05 15.1031 -5.78657e-06
92.2877 0.000168024 51.6097 8.75474e-05 31.2782 3.13976e-05
94.6485 0.000173452 60.9949 0.000109123 47.6148 6.89529e-05
97.5013 0.00018001 70.4476 0.000130853 63.2658 0.000104932
101.24 0.000188603 79.8627 0.000152497 78.1467 0.000139141
106.16 0.000199916 89.1584 0.000173866 92.3316 0.00017175
112.451 0.000214376 98.5232 0.000195394 105.603 0.000202258
120.235 0.000232272 108.174 0.00021758 117.49 0.000229585
129.586 0.000253767 118.131 0.000240469 127.747 0.000253164
140.519 0.0002789 128.375 0.00026402 136.401 0.000273059
153.001 0.000307596 138.956 0.000288343 143.446 0.000289254
166.939 0.000339637 149.891 0.000313482 148.736 0.000301415
182.188 0.000374691 161.109 0.00033927 152.18 0.000309333
198.594 0.000412406 172.484 0.00036542 153.867 0.00031321
216.008 0.000452439 183.867 0.000391588 153.87 0.000313218
234.283 0.00049445 195.029 0.000417246 152.06 0.000309056
253.232 0.000538011 205.749 0.000441891 148.603 0.000301109
272.629 0.000582601 215.829 0.000465062 143.72 0.000289884
292.204 0.000627602 225.088 0.000486349 137.682 0.000276003
311.687 0.000672392 233.337 0.000505312 130.768 0.00026011
330.822 0.000716379 240.404 0.000521558 123.26 0.000242849
349.345 0.000758961 246.171 0.000534814 115.419 0.000224825
366.968 0.000799474 250.566 0.000544919 107.502 0.000206625
383.392 0.000837229 253.56 0.000551802 99.7438 0.00018879
398.337 0.000871587 255.167 0.000555496 92.3505 0.000171794
411.581 0.000902032 255.448 0.000556142 85.49 0.000156022
422.984 0.000928245 254.495 0.000553951 79.2993 0.000141791
432.529 0.000950188 252.416 0.00054917 73.883 0.00012934
440.331 0.000968124 249.336 0.00054209 69.3127 0.000118833
446.604 0.000982544 245.406 0.000533056 65.6214 0.000110347
451.615 0.000994065 240.804 0.000522477 62.8071 0.000103878
455.657 0.00100336 235.733 0.000510819 60.8359 9.93464e-05
459.013 0.00101107 230.425 0.000498617 59.6459 9.66107e-05
461.935 0.00101779 225.139 0.000486466 59.1494 9.54695e-05
464.647 0.00102402 220.148 0.000474992 59.2412 9.56804e-05
467.359 0.00103026 215.72 0.000464812 59.8068 9.69806e-05
470.265 0.00103694 212.113 0.000456521 60.7313 9.9106e-05
473.536 0.00104446 209.561 0.000450655 61.906 0.000101806
477.301 0.00105311 208.267 0.000447678 63.2344 0.00010486
481.641 0.00106309 208.389 0.00044796 64.6392 0.00010809
486.582 0.00107445 210.042 0.000451759 66.0674 0.000111373
492.101 0.00108714 213.281 0.000459206 67.4935 0.000114651
498.131 0.001101 218.106 0.000470298 68.9214 0.000117934
504.477 0.00111559 224.472 0.000484932 70.3824 0.000121292
510.127 0.00112857 232.438 0.000503244 71.9127 0.00012481
514.838 0.0011394 241.741 0.000524631 73.613 0.000128719
518.514 0.00114786 252.105 0.000548455 75.6054 0.000133299
521.091 0.00115378 263.189 0.000573938 78.0252 0.000138862
522.392 0.00115677 274.579 0.00060012 81.0143 0.000145734
522.268 0.00115649 285.827 0.000625978 84.7132 0.000154237
520.513 0.00115245 296.551 0.000650631 89.2355 0.000164633
516.87 0.00114408 306.388 0.000673244 94.6634 0.000177111
511.088 0.00113078 315 0.000693043 101.04 0.000191769
502.844 0.00111183 322.111 0.000709389 108.363 0.000208605
491.798 0.00108644 327.509 0.0007218 116.585 0.000227504
477.65 0.00105391 331.033 0.0007299 125.603 0.000248237
460.153 0.00101369 332.563 0.000733417 135.271 0.000270461
439.13 0.000965364 332.026 0.000732183 145.394 0.000293734
414.518 0.000908783 329.381 0.000726102 155.459 0.00031687
386.46 0.000844283 324.323 0.000714474 163.723 0.000335869
355.13 0.00077226 317.018 0.000697682 172.017 0.000354935
320.919 0.000693614 307.653 0.000676152 179.794 0.000372814
284.286 0.000609399 296.322 0.000650105 186.66 0.000388597
245.72 0.000520743 282.963 0.000619393 192.532 0.000402095
205.686 0.000428711 267.662 0.00058422 197.311 0.000413083
164.573 0.000334196 250.614 0.000545028 200.667 0.000420797
122.706 0.000237952 231.998 0.000502234 202.237 0.000424407
80.4156 0.000140732 211.937 0.000456115 201.695 0.000423161
46.8631 6.36e-05 188.852 0.000403048 198.852 0.000416626
15.1038 -9.41006e-06 165.384 0.000349097 193.139 0.000403492
-7.26514 -8.17253e-05 141.556 0.00029432 184.367 0.000383326
-26.4988 -0.000160876 116.879 0.000237591 172.541 0.00035614
-43.6242 -0.000231351 92.176 0.000180803 157.59 0.000321769
-59.8696 -0.000298204 67.5053 0.000124089 139.664 0.000280562
-75.1752 -0.000361191 42.8026 6.73012e-05 118.883 0.000232788
-88.8892 -0.000417627 18.1013 1.05166e-05 95.4264 0.000178865
-101.396 -0.000469097 -3.60451 -5.20599e-05 69.5519 0.000119383
-112.828 -0.000516139 -20.9427 -0.00012341 41.6643 5.52738e-05
-123.038 -0.000558157 -38.0883 -0.000193969 12.1816 -1.25027e-05
-132.414 -0.000596739 -54.5604 -0.000261755 -10.4687 -9.45377e-05
-141.256 -0.000633128 -70.0784 -0.000325615 -32.2874 -0.000184327
-149.595 -0.000667446 -85.4096 -0.000388706 -54.5154 -0.0002758
-157.867 -0.000701484 -100.641 -0.000451387 -76.1141 -0.000364684
-166.332 -0.00073632 -115.66 -0.000513194 -97.0009 -0.000450637
-175.278 -0.000773137 -130.324 -0.000573539 -117.426 -0.00053469
-184.977 -0.000813051 -144.779 -0.000633025 -137.104 -0.000615673
-195.636 -0.000856915 -159.182 -0.000692296 -155.337 -0.000690702
-207.419 -0.000905402 -173.511 -0.000751264 -171.787 -0.0007584
-220.463 -0.000959083 -187.737 -0.000809807 -186.504 -0.000818964
-234.872 -0.00101838 -201.894 -0.000868065 -199.459 -0.000872277
-250.843 -0.0010841 -215.309 -0.000923271 -201.349 -0.000880054
-268.345 -0.00115613 -227.579 -0.000973767 -202.212 -0.000883605
-286.983 -0.00123283 -240.445 -0.00102671 -203.099 -0.000887256
-306.878 -0.0013147 -253.695 -0.00108124 -203.29 -0.000888039
-327.641 -0.00140014 -267.224 -0.00113691 -203.059 -0.000887089
-349.237 -0.00148902 -280.351 -0.00119093 -203.122 -0.000887351
-371.42 -0.00158031 -293.178 -0.00124372 -202.496 -0.000884774
-393.975 -0.00167312 -305.549 -0.00129463 -199.718 -0.00087334
-416.666 -0.0017665 -317.236 -0.00134272 -195.047 -0.000854119
-330.529 -0.00141203 0 -0.0586448 -137.69 -0.00061808
-315.875 -0.00135173 0 -0.0628876 -145.092 -0.000648542
-380.592 -0.00161805 0 -0.0654602 -137.398 -0.000616879
-392.28 -0.00166615 0 -0.067628 -125.574 -0.000568224
-389.394 -0.00165427 0 -0.0729318 -112.082 -0.000512698
-416.857 -0.00176729 0 -0.0774536 -104.523 -0.000481593
-430.987 -0.00182544 0 -0.0811169 -97.0534 -0.000450853
-442.318 -0.00187206 0 -0.084499 -88.9769 -0.000417617
-453.009 -0.00191606 0 -0.088537 -81.3885 -0.000386389
-457.505 -0.00193456 0 -0.0921337 -78.2203 -0.000373351
-462.685 -0.00195588 0 -0.0948684 -78.5398 -0.000374666
-466.591 -0.00197196 0 -0.0975341 -79.0996 -0.000376969
-469.983 -0.00198591 0 -0.100476 -81.4207 -0.000386521
-473.306 -0.00199959 0 -0.103638 -85.641 -0.000403889
-485.579 -0.00199865 0 -0.106476 -93.3139 -0.000435465
-485.012 -0.00201627 0 -0.109189 -100.911 -0.00046673
-483.954 -0.00203368 0 -0.112161 -109.077 -0.000500334
-452.526 -0.0019064 0 -0.112146 -131.565 -0.000592876
-427.183 -0.0018021 0 -0.111444 -153.161 -0.000681748
-468.573 -0.00197243 0 -0.115165 -150.718 -0.000671694
0 -0.0680571 0 -0.113667 -177.576 -0.000782223
0 -0.108325 0 -0.112461 -186.14 -0.000817465
0 -0.113683 0 -0.114428 -196.714 -0.00086098
0 -0.114269 0 -0.118003 -198.636 -0.000868891
0 -0.119989 0 -0.125509 -199.857 -0.000873913
0 -0.124206 0 -0.130876 -205.756 -0.000898191
0 -0.126562 0 -0.1355 -206.326 -0.000900535
0 -0.13016 0 -0.142096 -207.161 -0.000903972
0 -0.133144 0 -0.148509 -210.403 -0.000917311
0 -0.13609 0 -0.153789 -214.216 -0.000933003
0 -0.141127 0 -0.158794 -218.038 -0.000948733
0 -0.145536 0 -0.164376 -218.663 -0.000951304
0 -0.149401 0 -0.169563 -219.594 -0.000955136
0 -0.15343 0 -0.174462 -220.776 -0.00096
0 -0.157283 0 -0.179284 -221.47 -0.000962858
0 -0.160629 0 -0.183989 -222.076 -0.000965348
0 -0.163791 0 -0.188461 -223.156 -0.000969796
0 -0.166788 0 -0.192631 -224.299 -0.000974498
0 -0.169305 0 -0.196579 -225.031 -0.00097751
0 -0.171416 0 -0.200417 -225.864 -0.000980938
0 -0.173227 0 -0.204044 -227.102 -0.000986031
0 -0.174656 0 -0.207367 -228.261 -0.000990802
0 -0.175689 0 -0.210469 -229.239 -0.000994827
0 -0.176356 0 -0.211718 -230.286 -0.000999134
0 -0.175848 0 -0.204385 -206.945 -0.000903084
0 -0.176086 0 -0.20251 -233.255 -0.00101135
0 -0.176112 0 -0.206447 -232.53 -0.00100837
0 -0.176208 0 -0.210253 -231.821 -0.00100545
0 -0.176328 0 -0.21334 -234.279 -0.00101557
0 -0.176619 0 -0.21735 -237.471 -0.0010287
0 -0.177263 0 -0.220999 -237.847 -0.00103025
0 -0.177276 0 -0.224876 -238.004 -0.0010309
0 -0.177658 0 -0.228551 -240.365 -0.00104061
0 -0.178355 0 -0.232109 -242.356 -0.00104881
0 -0.178927 0 -0.235634 -206.488 -0.000901201
0 -0.179795 0 -0.239566 -229.466 -0.000995759
0 -0.179834 0 -0.243819 -238.593 -0.00103332
0 -0.179968 0 -0.247601 -240.119 -0.0010396
0 -0.180358 0 -0.251659 -244.016 -0.00105564
0 -0.180559 0 -0.255704 -246.05 -0.00106401
0 -0.180707 0 -0.259611 -246.385 -0.00106539
0 -0.180982 0 -0.263598 -246.777 -0.001067
0 -0.181206 0 -0.267591 -248.908 -0.00107577
0 -0.181403 0 -0.271541 -251.423 -0.00108612
0 -0.181659 0 -0.275475 -252.734 -0.00109151
0 -0.181908 0 -0.27939 -253.442 -0.00109443
0 -0.182137 0 -0.283292 -254.709 -0.00109964
0 -0.18236 0 -0.287181 -256.564 -0.00110728
0 -0.182551 0 -0.291025 -258.287 -0.00111436
0 -0.182736 0 -0.29482 -259.384 -0.00111888
0 -0.182885 0 -0.298569 -260.299 -0.00112264
0 -0.182982 0 -0.302252 -261.66 -0.00112824
0 -0.183015 0 -0.305848 -263.212 -0.00113463
0 -0.183372 0 -0.308729 -170.968 -0.000755029
0 -0.184997 0 -0.309748 -50.9053 -0.000260943
0 -0.185066 0 -0.313302 -69.4375 -0.000337208
0 -0.185023 0 -0.316207 -61.7246 -0.000305467
0 -0.18496 0 -0.319025 -47.4292 -0.000246639
0 -0.184884 0 -0.321775 -47.3522 -0.000246322
0 -0.184789 0 -0.324293 -57.0192 -0.000286104
0 -0.184674 0 -0.326512 -59.9018 -0.000297966
0 -0.184526 0 -0.328616 -53.3859 -0.000271152
0 -0.184328 0 -0.330528 -48.4553 -0.000250861
0 -0.183911 0 -0.332236 -51.1336 -0.000261883
0 -0.183093 0 -0.333836 -55.1735 -0.000278508
0 -0.181922 0 -0.335331 -54.0236 -0.000273776
0 -0.180575 0 -0.336667 -50.248 -0.000258239
0 -0.179193 0 -0.337792 -49.4416 -0.00025492
0 -0.177775 0 -0.338688 -51.4918 -0.000263357
0 -0.176287 0 -0.339375 -52.3488 -0.000266884
0 -0.174735 0 -0.339874 -50.7917 -0.000260476
0 -0.173142 0 -0.340169 -49.3107 -0.000254381
0 -0.171516 0 -0.34024 -49.6311 -0.0002557
0 -0.169833 0 -0.340195 -50.5628 -0.000259534
0 -0.168079 0 -0.340098 -50.385 -0.000258802
0 -0.166268 0 -0.339943 -49.4767 -0.000255065
0 -0.164774 0 -0.339777 -49.1536 -0.000253735
0 -0.163293 0 -0.339484 -48.9363 -0.000252841
0 -0.162027 0 -0.33876 -47.6609 -0.000247592
0 -0.160918 0 -0.337667 -44.4302 -0.000234297
0 -0.159868 0 -0.336329 -39.4036 -0.000213612
0 -0.158904 0 -0.334785 -33.1649 -0.000187938
0 -0.158034 0 -0.333095 -25.6939 -0.000157193
0 -0.157238 0 -0.331217 -17.2515 -0.000122451
0 -0.156498 0 -0.329179 -9.16389 -8.91682e-05
0 -0.155781 0 -0.327078 -1.30214 -5.68153e-05
0 -0.155091 0 -0.324866 8.72411 -3.25696e-05
0 -0.1544 0 -0.322524 15.1321 -1.78387e-05
0 -0.153663 0 -0.320323 16.1106 -1.55892e-05
0 -0.152928 0 -0.318171 18.0834 -1.1054e-05
0 -0.152179 0 -0.315966 20.5098 -5.47613e-06
0 -0.151376 0 -0.313721 22.8354 -1.3e-07
0 -0.150502 0 -0.311404 24.4492 3.57994e-06
0 -0.149588 0 -0.309015 25.8516 6.80396e-06
0 -0.148623 0 -0.306585 27.841 1.13773e-05
0 -0.147572 0 -0.304105 30.4428 1.73585e-05
0 -0.146434 0 -0.301557 33.1248 2.3524e-05
0 -0.145221 0 -0.298945 35.5555 2.91118e-05
0 -0.143926 0 -0.296268 37.7829 3.42323e-05
0 -0.142539 0 -0.293509 40.0807 3.95144e-05
0 -0.141067 0 -0.290663 42.6739 4.54758e-05
0 -0.139519 0 -0.287728 45.5056 5.19854e-05
0 -0.137898 0 -0.284686 48.3263 5.84699e-05
0 -0.136212 0 -0.281524 50.996 6.46071e-05
0 -0.134478 0 -0.278233 53.5946 7.05809e-05
0 -0.132719 0 -0.274802 56.2728 7.67377e-05
0 -0.13096 0 -0.271216 59.082 8.31956e-05
0 -0.129235 0 -0.267459 61.9492 8.97868e-05
0 -0.127575 0 -0.263523 64.7652 9.62605e-05
0 -0.126005 0 -0.259404 67.494 0.000102534
0 -0.124562 0 -0.255102 70.1913 0.000108734
0 -0.1233 0 -0.25063 72.9232 0.000115015
0 -0.122193 0 -0.246002 75.7018 0.000121402
0 -0.12123 0 -0.241222 78.4847 0.0001278
0 -0.120414 0 -0.236311 81.2269 0.000134103
0 -0.119762 0 -0.2313 83.9262 0.000140309
0 -0.119268 0 -0.226223 86.6225 0.000146507
0 -0.118903 0 -0.221116 89.3548 0.000152788
0 -0.11864 0 -0.216016 92.1225 0.000159151
0 -0.118461 0 -0.210966 94.8997 0.000165535
0 -0.118345 0 -0.20601 97.6738 0.000171912
0 -0.118268 0 -0.201184 100.46 0.000178316
0 -0.118207 0 -0.196524 103.28 0.0001848
0 -0.118146 0 -0.192063 106.143 0.000191383
0 -0.118072 0 -0.187831 109.043 0.000198049
0 -0.11797 0 -0.183849 111.966 0.000204768
0 -0.117834 0 -0.180136 114.906 0.000211527
0 -0.117662 0 -0.176701 117.866 0.000218332
0 -0.117461 0 -0.173548 120.846 0.000225181
0 -0.117241 0 -0.170675 123.839 0.000232062
0 -0.117013 0 -0.168077 126.833 0.000238944
0 -0.116787 0 -0.165741 129.81 0.000245788
0 -0.116572 0 -0.163654 132.759 0.000252567
0 -0.116375 0 -0.161796 135.669 0.000259257
0 -0.116204 0 -0.160148 138.529 0.000265832
0 -0.116059 0 -0.158692 141.324 0.000272258
0 -0.115942 0 -0.157406 144.039 0.000278499
0 -0.115851 0 -0.15627 146.658 0.00028452
0 -0.115784 0 -0.15526 149.163 0.000290278
0 -0.115746 0 -0.154353 151.541 0.000295744
0 -0.115737 0 -0.153526 153.78 0.000300892
0 -0.115748 0 -0.152758 155.865 0.000305686
0 -0.115764 0 -0.152034 157.783 0.000310095
0 -0.115785 0 -0.151336 159.523 0.000314095
0 -0.11581 0 -0.15065 161.074 0.000317659
0 -0.115836 0 -0.149966 162.426 0.000320767
0 -0.115862 0 -0.149277 163.574 0.000323408
0 -0.115886 0 -0.148582 164.515 0.00032557
0 -0.115903 0 -0.147879 165.243 0.000327243
0 -0.115914 0 -0.147174 165.755 0.000328421
0 -0.115913 0 -0.146473 166.052 0.000329105
0 -0.115897 0 -0.145787 165.475 0.000327778
0 -0.11586 0 -0.14515 162.433 0.000320785
0 -0.115796 0 -0.144581 157.096 0.000308516
0 -0.115621 0 -0.144103 149.706 0.000291526
0 -0.115104 0 -0.143813 140.486 0.000270332
0 -0.11443 0 -0.143688 129.33 0.000244686
0 -0.113593 0 -0.143706 115.993 0.000214026
0 -0.112627 0 -0.143787 101.028 0.000179623
0 -0.111522 0 -0.143916 84.6438 0.000141958
0 -0.110291 0 -0.144095 66.9888 0.000101372
0 -0.108963 0 -0.144323 48.1629 5.80943e-05
0 -0.107551 0 -0.144598 28.2455 1.23071e-05
0 -0.106061 0 -0.14492 7.34806 -3.5733e-05
0 -0.104496 0 -0.145429 2.9041 -4.5949e-05
0 -0.102878 0 -0.146199 2.07666 -4.78511e-05
0 -0.101119 0 -0.147422 0.311788 -5.19083e-05
0 -0.099319 0 -0.148917 -1.06183 -5.7561e-05
0 -0.0974733 0 -0.150518 -1.54849 -5.95638e-05
0 -0.0955983 0 -0.152205 -1.4443 -5.9135e-05
0 -0.0937083 0 -0.153933 -1.60248 -5.97859e-05
0 -0.0918228 0 -0.155682 -2.40777 -6.30999e-05
0 -0.0899631 0 -0.157439 -3.53814 -6.77516e-05
0 -0.0881445 0 -0.159167 -4.43446 -7.14402e-05
0 -0.0863776 0 -0.160844 -4.88578 -7.32975e-05
0 -0.0846631 0 -0.162461 -5.1605 -7.4428e-05
0 -0.0829931 0 -0.164011 -5.63923 -7.63981e-05
0 -0.0813526 0 -0.165488 -6.41012 -7.95705e-05
0 -0.0797244 0 -0.166887 -7.24759 -8.30169e-05
0 -0.0780922 0 -0.168205 -7.89918 -8.56983e-05
0 -0.0764398 0 -0.169445 -8.3375 -8.75021e-05
0 -0.0747524 0 -0.170604 -8.73741 -8.91478e-05
0 -0.0730195 0 -0.171681 -9.25539 -9.12794e-05
0 -0.0712373 0 -0.172667 -9.87795 -9.38414e-05
0 -0.0694102 0 -0.173556 -10.47 -9.62779e-05
0 -0.0675495 0 -0.174336 -10.9329 -9.81827e-05
0 -0.0656848 0 -0.174968 -11.3096 -9.97329e-05
0 -0.0638586 0 -0.175448 -11.6932 -0.000101311
0 -0.0620347 0 -0.17584 -12.0586 -0.000102815
0 -0.0602075 0 -0.17608 -12.4478 -0.000104417
0 -0.0584282 0 -0.176182 -12.8118 -0.000105915
0 -0.0567136 0 -0.176184 -13.0884 -0.000107053
0 -0.0550376 0 -0.176145 -13.3214 -0.000108012
0 -0.0534144 0 -0.176028 -13.4917 -0.000108713
0 -0.0518989 0 -0.175648 -13.6006 -0.000109161
0 -0.0504709 0 -0.175117 -13.7385 -0.000109728
0 -0.0491577 0 -0.174502 -13.8112 -0.000110028
0 -0.0479692 0 -0.173753 -13.8411 -0.000110151
0 -0.0469036 0 -0.172884 -13.783 -0.000109911
0 -0.0459713 0 -0.171881 -13.6522 -0.000109373
0 -0.0451922 0 -0.170734 -12.1765 -0.0001033
0 -0.0445762 0 -0.169444 -9.25508 -9.12781e-05
0 -0.0441138 0 -0.168027 -4.95995 -7.36027e-05
0 -0.0438041 0 -0.166488 0.975111 -5.20129e-05
0 -0.0436458 0 -0.164855 6.99353 -3.81775e-05
0 -0.043623 0 -0.16318 12.8836 -2.46371e-05
0 -0.0436434 0 -0.16148 14.1175 -2.18004e-05
0 -0.0436941 0 -0.159748 16.4882 -1.63507e-05
0 -0.043771 0 -0.158004 19.344 -9.78552e-06
0 -0.0438754 0 -0.156254 22.121 -3.40177e-06
0 -0.0440052 0 -0.154527 24.6864 2.49587e-06
0 -0.0441591 0 -0.152824 27.3638 8.65079e-06
0 -0.0443362 0 -0.151159 30.5337 1.59379e-05
0 -0.0445353 0 -0.149546 34.2197 2.44115e-05
0 -0.0447549 0 -0.147991 38.1274 3.33947e-05
0 -0.0449928 0 -0.146499 42.0023 4.23023e-05
0 -0.0452467 0 -0.145072 45.8484 5.11441e-05
0 -0.0455159 0 -0.14371 49.8512 6.03459e-05
0 -0.0458365 0 -0.142408 54.1366 7.01974e-05
0 -0.0462969 0 -0.141129 58.6308 8.0529e-05
0 -0.0469808 0 -0.139871 63.1443 9.09049e-05
0 -0.0479532 0 -0.138617 67.5722 0.000101084
0 -0.049189 0 -0.137365 71.9464 0.000111139
0 -0.0505835 0 -0.136121 76.3511 0.000121265
0 -0.0520482 0 -0.134898 80.8033 0.0001315
0 -0.0535695 0 -0.133833 85.1906 0.000141586
0 -0.0551318 0 -0.132799 89.3494 0.000151146
0 -0.0566641 0 -0.13178 93.5054 0.0001607
0 -0.0581672 0 -0.130735 97.4745 0.000169825
0 -0.059648 0 -0.12966 101.205 0.0001784
0 -0.0610961 0 -0.128574 104.846 0.000186771
0 -0.0624875 0 -0.127472 108.329 0.000194777
0 -0.0638172 0 -0.12634 111.555 0.000202195
0 -0.0650897 0 -0.12518 114.524 0.00020902
0 -0.0663029 0 -0.123995 117.241 0.000215265
0 -0.0674483 0 -0.122786 119.713 0.000220949
0 -0.0685191 0 -0.121563 121.951 0.000226092
0 -0.0695135 0 -0.120333 123.922 0.000230624
0 -0.0704294 0 -0.119103 125.6 0.000234482
0 -0.0712618 0 -0.117884 126.995 0.000237687
0 -0.0720075 0 -0.11669 128.125 0.000240286
0 -0.0726661 0 -0.115536 128.999 0.000242296
0 -0.0732385 0 -0.114435 129.616 0.000243714
0 -0.0737272 0 -0.113402 129.974 0.000244537
0 -0.0741338 0 -0.112452 129.67 0.000243837
0 -0.0744526 0 -0.111614 127.806 0.000239552
0 -0.0746832 0 -0.110903 124.538 0.000232039
0 -0.0748215 0 -0.110335 120.038 0.000221696
0 -0.0748323 0 -0.109918 114.384 0.000208697
0 -0.0748165 0 -0.109657 107.48 0.000192827
0 -0.0747925 0 -0.109584 99.3329 0.000174097
0 -0.0747664 0 -0.109637 90.1835 0.000153064
0 -0.0747406 0 -0.109743 80.1311 0.000129955
0 -0.0747145 0 -0.109904 69.2862 0.000105024
0 -0.0746868 0 -0.110123 57.6934 7.83739e-05
0 -0.0746537 0 -0.110407 45.4233 5.01668e-05
0 -0.0745686 0 -0.111026 32.8333 2.12243e-05
0 -0.0743206 0 -0.112314 20.383 -7.39705e-06
0 -0.0739508 0 -0.114048 7.81712 -3.62842e-05
0 -0.073527 0 -0.115998 4.32196 -4.4319e-05
0 -0.073101 0 -0.117977 3.73733 -4.5663e-05
0 -0.072604 0 -0.12013 2.38092 -4.87812e-05
0 -0.0720501 0 -0.122456 1.2691 -5.13371e-05
0 -0.0714181 0 -0.124912 0.860737 -5.22759e-05
0 -0.0707169 0 -0.127479 0.868555 -5.21232e-05
0 -0.0699682 0 -0.13011 0.608237 -5.27216e-05
0 -0.0691881 0 -0.132762 -0.151031 -5.4829e-05
0 -0.0683829 0 -0.135408 -0.998266 -5.83155e-05
0 -0.067561 0 -0.138019 -1.65054 -6.09998e-05
0 -0.0667301 0 -0.140566 -2.02055 -6.25225e-05
0 -0.0658922 0 -0.143016 -2.32491 -6.3775e-05
0 -0.0650441 0 -0.145342 -2.79444 -6.57072e-05
0 -0.0641814 0 -0.147528 -3.44354 -6.83784e-05
0 -0.0633026 0 -0.149559 -4.10797 -7.11127e-05
0 -0.0624076 0 -0.151419 -4.64542 -7.33244e-05
0 -0.0614978 0 -0.153094 -5.06735 -7.50607e-05
0 -0.0605748 0 -0.154574 -5.48972 -7.67989e-05
0 -0.0596403 0 -0.155857 -5.99396 -7.8874e-05
0 -0.0586964 0 -0.15694 -6.55467 -8.11814e-05
0 -0.0577463 0 -0.157827 -7.08763 -8.33746e-05
0 -0.0567959 0 -0.158521 -7.54317 -8.52493e-05
0 -0.0558529 0 -0.159028 -7.94524 -8.69039e-05
0 -0.0549264 0 -0.159359 -8.34879 -8.85646e-05
0 -0.0540452 0 -0.159527 -8.77804 -9.03311e-05
0 -0.0532508 0 -0.159559 -9.21309 -9.21214e-05
0 -0.0524974 0 -0.159543 -9.62269 -9.3807e-05
0 -0.0517696 0 -0.159499 -9.96912 -9.52326e-05
0 -0.0510793 0 -0.159387 -10.2665 -9.64564e-05
0 -0.050468 0 -0.159078 -10.535 -9.75615e-05
0 -0.0499089 0 -0.158687 -10.842 -9.88247e-05
0 -0.0493919 0 -0.158275 -11.1293 -0.000100007
0 -0.048911 0 -0.157877 -11.3539 -0.000100931
0 -0.0484546 0 -0.157517 -11.5164 -0.0001016
0 -0.0480117 0 -0.157205 -11.6551 -0.000102171
0 -0.0475798 0 -0.156952 -11.7896 -0.000102724
0 -0.0471626 0 -0.156769 -11.9033 -0.000103192
0 -0.0467657 0 -0.156663 -11.9715 -0.000103473
0 -0.046397 0 -0.156633 -11.9902 -0.00010355
0 -0.046073 0 -0.15664 -10.782 -9.85777e-05
0 -0.0458168 0 -0.156652 -7.9999 -8.71288e-05
0 -0.0456533 0 -0.156674 -3.74964 -6.96381e-05
0 -0.0455642 0 -0.156751 2.35467 -4.93439e-05
0 -0.0455511 0 -0.156856 8.64949 -3.48731e-05
0 -0.0455701 0 -0.157016 11.2195 -2.89651e-05
0 -0.0456065 0 -0.157198 12.9077 -2.50842e-05
0 -0.0456654 0 -0.157336 15.3832 -1.93934e-05
0 -0.045746 0 -0.15743 17.9859 -1.341e-05
0 -0.0458483 0 -0.157459 20.2657 -8.16909e-06
0 -0.0459713 0 -0.157419 22.3763 -3.31728e-06
0 -0.0461121 0 -0.157276 24.7384 2.11281e-06
0 -0.0462685 0 -0.157014 27.5612 8.60221e-06
0 -0.0464403 0 -0.156632 30.6579 1.57209e-05
0 -0.0466314 0 -0.156128 33.6972 2.27079e-05
0 -0.0469284 0 -0.155481 36.5526 2.92721e-05
0 -0.0474564 0 -0.154667 39.3492 3.5701e-05
0 -0.048289 0 -0.153671 42.2685 4.2412e-05
0 -0.049326 0 -0.152519 45.3364 4.94646e-05
0 -0.0504246 0 -0.151239 48.4321 5.65811e-05
0 -0.0515094 0 -0.149846 51.4207 6.34515e-05
0 -0.0525642 0 -0.148358 54.2793 7.00229e-05
0 -0.0535714 0 -0.146792 57.0866 7.64766e-05
0 -0.0545124 0 -0.145161 59.9209 8.29921e-05
0 -0.0553743 0 -0.143476 62.7672 8.95355e-05
0 -0.0561567 0 -0.141755 65.5474 9.59268e-05
0 -0.0568637 0 -0.14001 68.2048 0.000102036
0 -0.0574987 0 -0.138251 70.7509 0.000107889
0 -0.0580665 0 -0.13649 73.2329 0.000113595
0 -0.0585742 0 -0.134739 75.6739 0.000119206
0 -0.0590288 0 -0.133012 78.0507 0.00012467
0 -0.0594353 0 -0.131319 80.3236 0.000129895
0 -0.0597971 0 -0.129674 82.476 0.000134843
0 -0.0601182 0 -0.128089 84.5237 0.00013955
0 -0.060398 0 -0.126578 86.4888 0.000144068
0 -0.060633 0 -0.125153 88.3729 0.000148399
0 -0.0608202 0 -0.123824 90.16 0.000152507
0 -0.0609592 0 -0.122603 91.8317 0.00015635
0 -0.0610512 0 -0.121496 93.3854 0.000159922
0 -0.0610997 0 -0.12051 94.8296 0.000163242
0 -0.0611103 0 -0.119648 96.1693 0.000166322
0 -0.0611054 0 -0.118907 97.3993 0.000169149
0 -0.0610956 0 -0.118289 98.5049 0.000171691
0 -0.0610816 0 -0.117793 99.4777 0.000173927
0 -0.0610643 0 -0.117417 100.317 0.000175857
0 -0.0610453 0 -0.117159 101.024 0.000177482
0 -0.0610202 0 -0.117014 101.597 0.000178799
0 -0.0609805 0 -0.116978 102.029 0.000179792
0 -0.0609484 0 -0.116997 102.318 0.000180458
0 -0.0609465 0 -0.117039 102.445 0.000180749
0 -0.0609795 0 -0.117103 102.055 0.000179853
0 -0.0610684 0 -0.117189 100.628 0.000176571
0 -0.0612002 0 -0.117297 98.2257 0.000171049
0 -0.0613689 0 -0.117427 94.8955 0.000163394
0 -0.061541 0 -0.117624 90.6235 0.000153573
0 -0.061669 0 -0.11804 85.5146 0.000141828
0 -0.0617292 0 -0.118723 79.6337 0.000128309
0 -0.0617341 0 -0.119578 72.9616 0.000112971
0 -0.0616974 0 -0.120538 65.5508 9.59345e-05
0 -0.061596 0 -0.12158 57.4553 7.73242e-05
0 -0.061439 0 -0.122699 48.6982 5.71929e-05
0 -0.0612132 0 -0.123901 39.3314 3.56599e-05
0 -0.0609333 0 -0.125176 29.4069 1.28451e-05
0 -0.0606093 0 -0.126511 19.0062 -1.10646e-05
0 -0.0602554 0 -0.12789 8.1404 -3.60434e-05
0 -0.0598895 0 -0.129278 4.35332 -4.47493e-05
0 -0.0595663 0 -0.130549 3.99235 -4.55792e-05
0 -0.059231 0 -0.131838 2.93529 -4.80092e-05
0 -0.0589101 0 -0.133134 1.97945 -5.02065e-05
0 -0.0586024 0 -0.134398 1.56975 -5.11484e-05
0 -0.058312 0 -0.135639 1.59745 -5.10847e-05
0 -0.0580502 0 -0.136843 1.48567 -5.13416e-05
0 -0.0578299 0 -0.137997 0.943512 -5.2588e-05
0 -0.0576603 0 -0.139095 0.169168 -5.43681e-05
0 -0.0575501 0 -0.140131 -0.364912 -5.65659e-05
0 -0.0575056 0 -0.141104 -0.643856 -5.77139e-05
0 -0.0575114 0 -0.142017 -0.816442 -5.84241e-05
0 -0.0575336 0 -0.142882 -1.10004 -5.95912e-05
0 -0.0575719 0 -0.1437 -1.54536 -6.14237e-05
0 -0.0576261 0 -0.144481 -2.03031 -6.34194e-05
0 -0.0577073 0 -0.145232 -2.41382 -6.49977e-05
0 -0.0579658 0 -0.145934 -2.66806 -6.60439e-05
0 -0.0584655 0 -0.146579 -2.90121 -6.70034e-05
0 -0.0590605 0 -0.147217 -3.21839 -6.83086e-05
0 -0.0597024 0 -0.147859 -3.58604 -6.98216e-05
0 -0.0603737 0 -0.148521 -3.93039 -7.12387e-05
0 -0.0610703 0 -0.149223 -4.20686 -7.23764e-05
0 -0.0617823 0 -0.149973 -4.43482 -7.33145e-05
0 -0.0624982 0 -0.150773 -4.66304 -7.42537e-05
0 -0.0632172 0 -0.15163 -4.91752 -7.53009e-05
0 -0.0639459 0 -0.152546 -5.1804 -7.63828e-05
0 -0.0646887 0 -0.153518 -5.41623 -7.73533e-05
0 -0.0654486 0 -0.15454 -5.61066 -7.81534e-05
0 -0.0662269 0 -0.155607 -5.77967 -7.88489e-05
0 -0.0670225 0 -0.156713 -5.94637 -7.95349e-05
0 -0.0678317 0 -0.157852 -6.11644 -8.02348e-05
0 -0.0686493 0 -0.158946 -6.27624 -8.08924e-05
0 -0.0694421 0 -0.159944 -6.35239 -8.12058e-05
0 -0.0701358 0 -0.160926 -6.43079 -8.15284e-05
0 -0.0708106 0 -0.161893 -6.59426 -8.22011e-05
0 -0.0714972 0 -0.162872 -6.05548 -7.99839e-05
0 -0.0721803 0 -0.163839 -4.88355 -7.51612e-05
0 -0.0728457 0 -0.164777 -3.79327 -7.06744e-05
0 -0.073512 0 -0.16568 -2.43289 -6.50761e-05
0 -0.0741785 0 -0.166546 -0.610795 -5.75778e-05
0 -0.0748263 0 -0.167366 1.34991 -5.21784e-05
0 -0.0754472 0 -0.168142 3.06641 -4.82324e-05
0 -0.0760569 0 -0.168858 4.78719 -4.42766e-05
0 -0.0766499 0 -0.169507 6.27672 -4.08524e-05
0 -0.0772201 0 -0.170092 6.45646 -4.04392e-05
0 -0.0777719 0 -0.170601 6.87945 -3.94668e-05
0 -0.0783048 0 -0.17103 7.36416 -3.83525e-05
0 -0.078813 0 -0.171373 7.73004 -3.75114e-05
0 -0.0792885 0 -0.171632 7.93702 -3.70356e-05
0 -0.0797197 0 -0.171811 8.0847 -3.66961e-05
0 -0.0800947 0 -0.171913 8.27264 -3.62641e-05
0 -0.0804064 0 -0.17194 8.50765 -3.57238e-05
0 -0.080644 0 -0.171924 8.71665 -3.52434e-05
0 -0.0807965 0 -0.171891 8.84955 -3.49379e-05
0 -0.0808587 0 -0.171841 8.90777 -3.4804e-05
0 -0.0808467 0 -0.171752 8.95311 -3.46998e-05
0 -0.0808203 0 -0.171493 8.99295 -3.46082e-05
0 -0.0807776 0 -0.171118 8.86941 -3.48922e-05
0 -0.0807176 0 -0.170691 8.41559 -3.59354e-05
0 -0.0805524 0 -0.170232 7.96779 -3.69649e-05
0 -0.0801749 0 -0.169768 7.53891 -3.79508e-05
0 -0.0797122 0 -0.169263 6.99241 -3.92071e-05
0 -0.0792201 0 -0.168733 6.6052 -4.00973e-05
0 -0.0786856 0 -0.168177 6.29729 -4.08051e-05
0 -0.0781022 0 -0.167582 6.21493 -4.09944e-05
0 -0.0774755 0 -0.166955 6.26543 -4.08783e-05
0 -0.0768057 0 -0.166305 6.30488 -4.07877e-05
0 -0.0761044 0 -0.165628 6.35146 -4.06806e-05
0 -0.0753771 0 -0.164925 6.51844 -4.02967e-05
0 -0.0746311 0 -0.164197 6.69755 -3.9885e-05
0 -0.0738758 0 -0.163444 6.914 -3.93874e-05
0 -0.0731152 0 -0.162668 7.17594 -3.87852e-05
0 -0.0723503 0 -0.16187 7.50146 -3.80369e-05
0 -0.0715831 0 -0.161052 7.9039 -3.71118e-05
0 -0.0708172 0 -0.160217 8.39326 -3.59868e-05
0 -0.0700555 0 -0.159367 8.90294 -3.48151e-05
0 -0.0692997 0 -0.158505 9.43954 -3.35815e-05
0 -0.068552 0 -0.15763 10.0042 -3.22836e-05
0 -0.0678138 0 -0.156743 10.6437 -3.08134e-05
0 -0.0670845 0 -0.155849 11.3789 -2.91232e-05
0 -0.0663621 0 -0.154948 12.2037 -2.72271e-05
0 -0.065645 0 -0.154042 13.0943 -2.51799e-05
0 -0.0649316 0 -0.153134 14.0462 -2.29915e-05
0 -0.0642195 0 -0.152224 15.0666 -2.06458e-05
0 -0.0635068 0 -0.151313 16.1664 -1.81176e-05
0 -0.0627931 0 -0.1504 17.35 -1.53966e-05
0 -0.0620886 0 -0.149485 18.6078 -1.25052e-05
0 -0.0614058 0 -0.148569 19.9261 -9.47463e-06
0 -0.0607313 0 -0.147647 21.3022 -6.31114e-06
0 -0.0600574 0 -0.146712 22.7372 -3.01231e-06
0 -0.0593852 0 -0.145762 24.2299 4.193e-07
0 -0.0587178 0 -0.144799 25.7741 3.96915e-06
0 -0.0580491 0 -0.143823 27.363 7.62183e-06
0 -0.0573679 0 -0.142833 28.9915 1.13654e-05
0 -0.0566631 0 -0.141829 30.6545 1.51885e-05
0 -0.0559284 0 -0.140813 32.3482 1.9082e-05
0 -0.0551587 0 -0.139783 34.0692 2.30384e-05
0 -0.0543512 0 -0.138737 35.8118 2.70444e-05
0 -0.0535081 0 -0.137668 37.5673 3.108e-05
0 -0.052635 0 -0.136572 39.3272 3.51258e-05
0 -0.0517389 0 -0.135442 41.0855 3.91679e-05
0 -0.0508276 0 -0.134271 42.8374 4.31952e-05
0 -0.0499113 0 -0.133053 44.577 4.71942e-05
0 -0.0490019 0 -0.13178 46.2975 5.11494e-05
0 -0.0481093 0 -0.130447 47.9934 5.5048e-05
0 -0.0472417 0 -0.129052 49.6615 5.88827e-05
0 -0.0464071 0 -0.127593 51.3006 6.26509e-05
0 -0.0456144 0 -0.126068 52.9101 6.63509e-05
0 -0.0448736 0 -0.124479 54.4898 6.99822e-05
0 -0.0441927 0 -0.122828 56.0406 7.35473e-05
0 -0.0435762 0 -0.121122 57.5656 7.70531e-05
0 -0.0430263 0 -0.119367 59.0699 8.05111e-05
0 -0.0425426 0 -0.117576 60.5596 8.39358e-05
0 -0.0421217 0 -0.115761 62.0422 8.73441e-05
0 -0.0417571 0 -0.113939 63.5255 9.07539e-05
0 -0.0414369 0 -0.112125 65.0159 9.41802e-05
0 -0.0411489 0 -0.110338 66.5247 9.76486e-05
0 -0.0408806 0 -0.108596 68.0589 0.000101176
0 -0.0406216 0 -0.106915 69.6267 0.00010478
0 -0.040363 0 -0.10531 71.2333 0.000108473
0 -0.0400983 0 -0.103793 72.883 0.000112265
0 -0.0398236 0 -0.102375 74.5782 0.000116162
0 -0.0395358 0 -0.101062 76.3198 0.000120166
0 -0.039232 0 -0.0998596 78.1071 0.000124275
0 -0.0389105 0 -0.0987718 79.9369 0.000128481
0 -0.038571 0 -0.0977983 81.8037 0.000132773
0 -0.038215 0 -0.096937 83.7004 0.000137133
0 -0.037843 0 -0.096184 85.6179 0.000141541
0 -0.0374535 0 -0.0955341 87.5463 0.000145974
0 -0.0370434 0 -0.0949814 89.4745 0.000150407
0 -0.0366114 0 -0.0945175 91.3897 0.00015481
0 -0.0361609 0 -0.0941312 93.2775 0.000159149
0 -0.0356982 0 -0.0938088 95.1219 0.000163389
0 -0.0352278 0 -0.0935366 96.9071 0.000167493
0 -0.0347484 0 -0.0933021 98.6178 0.000171426
0 -0.0342543 0 -0.0930947 100.24 0.000175155
0 -0.0337381 0 -0.092905 101.76 0.00017865
0 -0.0331962 0 -0.0927236 103.164 0.000181878
0 -0.0326227 0 -0.0925414 104.441 0.000184812
0 -0.0320138 0 -0.0923482 105.578 0.000187426
0 -0.0313672 0 -0.092134 106.565 0.000189696
0 -0.030684 0 -0.0918895 107.395 0.000191603
0 -0.0299678 0 -0.0916058 108.058 0.000193128
0 -0.0292242 0 -0.0912739 108.55 0.000194259
0 -0.0284594 0 -0.0908859 108.867 0.000194987
0 -0.0276794 0 -0.0904364 109.007 0.000195309
0 -0.0268881 0 -0.0899257 108.251 0.000193571
0 -0.0260876 0 -0.0893596 106.574 0.000189717
0 -0.025284 0 -0.0887369 104.043 0.000183898
0 -0.0244835 0 -0.0880595 100.698 0.000176208
0 -0.023694 0 -0.087332 96.5595 0.000166694
0 -0.0229224 0 -0.0865605 91.682 0.000155482
0 -0.0221734 0 -0.085753 86.1989 0.000142877
0 -0.0214484 0 -0.0849209 80.2912 0.000129296
0 -0.0207458 0 -0.0840777 74.11 0.000115086
0 -0.0200635 0 -0.083238 67.7693 0.00010051
0 -0.0194005 0 -0.0824168 61.3888 8.5842e-05
0 -0.0187567 0 -0.0816282 55.1024 7.13906e-05
0 -0.018131 0 -0.0808852 49.0673 5.75168e-05
0 -0.0175251 0 -0.0801996 43.4321 4.45623e-05
0 -0.0169418 0 -0.0795821 38.3083 3.27834e-05
0 -0.016385 0 -0.0790415 33.7851 2.23853e-05
0 -0.0158592 0 -0.0785844 29.9403 1.35467e-05
0 -0.0153696 0 -0.0782152 26.8518 6.44673e-06
0 -0.0149218 0 -0.0779363 24.5838 1.23276e-06
0 -0.014521 0 -0.0777488 23.1762 -2.00292e-06
0 -0.0141707 0 -0.0776519 22.6418 -3.23143e-06
0 -0.0138739 0 -0.0776394 22.9726 -2.47112e-06
0 -0.0136409 0 -0.0776614 24.0873 9.15698e-08
0 -0.0134771 0 -0.0777037 25.9457 4.36376e-06
0 -0.0133862 0 -0.0777648 28.5311 1.03072e-05
0 -0.0133684 0 -0.0778434 31.7812 1.77786e-05
0 -0.013387 0 -0.077938 35.6183 2.65995e-05
0 -0.0134201 0 -0.0780451 39.9477 3.65522e-05
0 -0.0134664 0 -0.0781609 44.6831 4.74381e-05
0 -0.0135243 0 -0.0782816 49.7272 5.90337e-05
0 -0.0135916 0 -0.0784031 54.975 7.10976e-05
0 -0.0136653 0 -0.0785213 60.3109 8.33642e-05
0 -0.0137421 0 -0.0786375 65.6226 9.55749e-05
0 -0.0138175 0 -0.0787746 70.8308 0.000107548
0 -0.013889 0 -0.0789269 75.8289 0.000119038
0 -0.0139551 0 -0.0790805 80.5186 0.000129819
0 -0.0140153 0 -0.0792155 84.8074 0.000139678
0 -0.0140699 0 -0.0793144 88.6036 0.000148405
0 -0.0141207 0 -0.0793539 91.8312 0.000155825
0 -0.0141681 0 -0.0793284 94.4498 0.000161844
0 -0.0142136 0 -0.0792341 96.4234 0.000166381
0 -0.0142579 0 -0.0790746 97.742 0.000169413
0 -0.0143021 0 -0.0788524 98.407 0.000170941
0 -0.0143469 0 -0.0785725 98.4381 0.000171013
0 -0.0143932 0 -0.0782418 97.8725 0.000169713
0 -0.0144419 0 -0.0778692 96.7616 0.000167159
0 -0.0144969 0 -0.0774076 95.1257 0.000163398
0 -0.0145623 0 -0.0768034 92.9574 0.000158414
0 -0.0146339 0 -0.0761834 90.4969 0.000152757
0 -0.0147142 0 -0.0755663 87.7969 0.00014655
0 -0.0148047 0 -0.0749749 84.9431 0.00013999
0 -0.0149078 0 -0.0744645 81.9462 0.0001331
0 -0.0150249 0 -0.0740082 78.8318 0.000125941
0 -0.0151534 0 -0.0736193 76.1095 0.000119683
0 -0.0152957 0 -0.0733049 73.5284 0.000113749
0 -0.0154525 0 -0.0730815 71.2058 0.00010841
0 -0.0156548 0 -0.0729621 69.319 0.000104072
0 -0.015935 0 -0.0729513 67.8051 0.000100592
0 -0.0163167 0 -0.0729866 66.6259 9.78813e-05
0 -0.0168599 0 -0.073054 65.8229 9.60355e-05
0 -0.0176195 0 -0.0731762 65.3772 9.50108e-05
0 -0.0185893 0 -0.073523 65.457 9.51943e-05
0 -0.0197535 0 -0.0739845 65.8743 9.61534e-05
0 -0.0210451 0 -0.0745515 66.6465 9.79288e-05
0 -0.0223831 0 -0.0752544 67.757 0.000100482
0 -0.0237488 0 -0.0762286 69.2775 0.000103977
0 -0.0250924 0 -0.0774499 71.0789 0.000108118
0 -0.0264053 0 -0.0788487 72.9995 0.000112533
0 -0.0276896 0 -0.0803848 74.9358 0.000116985
0 -0.0289398 0 -0.0820186 76.7699 0.000121201
0 -0.0301478 0 -0.0837362 78.3982 0.000124944
0 -0.0313037 0 -0.0855211 79.6938 0.000127922
0 -0.0324044 0 -0.0873524 80.5186 0.000129819
0 -0.0334511 0 -0.0892024 80.7454 0.00013034
0 -0.0344465 0 -0.0910447 80.2782 0.000129266
0 -0.0353911 0 -0.0928584 79.0297 0.000126396
0 -0.0362849 0 -0.0946241 76.9098 0.000121522
0 -0.0370293 0 -0.0963108 73.7834 0.000114335
0 -0.0376775 0 -0.0978424 69.4388 0.000104348
0 -0.0383084 0 -0.0992947 64.3572 9.26659e-05
0 -0.038939 0 -0.100647 58.2651 7.86612e-05
0 -0.0395697 0 -0.101877 51.0701 6.21208e-05
0 -0.0402048 0 -0.102996 43.0494 4.36825e-05
0 -0.0408523 0 -0.103981 34.1418 2.32053e-05
0 -0.0415196 0 -0.104845 24.5353 1.12141e-06
0 -0.0422009 0 -0.105605 14.3276 -2.23446e-05
0 -0.0428882 0 -0.106268 4.94031 -4.39246e-05
0 -0.0436076 0 -0.106756 4.29681 -4.54039e-05
0 -0.0443463 0 -0.1071 3.89979 -4.63166e-05
0 -0.0450605 0 -0.107443 2.99573 -4.83949e-05
0 -0.0457603 0 -0.107743 2.24756 -5.01148e-05
0 -0.0464372 0 -0.108037 2.10783 -5.04361e-05
0 -0.0470853 0 -0.108335 2.27839 -5.0044e-05
0 -0.0476876 0 -0.108594 2.29183 -5.00131e-05
0 -0.0482622 0 -0.108875 1.89417 -5.09272e-05
0 -0.0488218 0 -0.109199 1.2387 -5.2434e-05
0 -0.0493678 0 -0.109578 0.834485 -5.33633e-05
0 -0.0498888 0 -0.110016 0.770434 -5.35105e-05
0 -0.0503861 0 -0.110516 0.773171 -5.35042e-05
0 -0.0508804 0 -0.111083 0.56613 -5.39802e-05
0 -0.0513833 0 -0.111724 0.165369 -5.49015e-05
0 -0.0518894 0 -0.112438 -0.170496 -5.60936e-05
0 -0.052398 0 -0.113223 -0.363316 -5.68871e-05
0 -0.0529164 0 -0.114086 -0.462669 -5.7296e-05
0 -0.0534441 0 -0.115026 -0.56906 -5.77338e-05
0 -0.0539734 0 -0.116039 -0.75101 -5.84826e-05
0 -0.0545013 0 -0.117121 -0.9897 -5.94649e-05
0 -0.0550297 0 -0.11827 -1.20117 -6.03351e-05
0 -0.0555558 0 -0.119481 -1.33969 -6.09051e-05
0 -0.0560729 0 -0.120743 -1.43986 -6.13174e-05
0 -0.0565784 0 -0.122051 -1.56671 -6.18394e-05
0 -0.0570668 0 -0.123396 -1.73346 -6.25256e-05
0 -0.0575258 0 -0.124771 -1.89231 -6.31793e-05
0 -0.0579467 0 -0.126164 -2.03232 -6.37555e-05
0 -0.0583275 0 -0.127564 -2.06954 -6.39087e-05
0 -0.058665 0 -0.12896 -1.96126 -6.3463e-05
0 -0.0589482 0 -0.130338 -1.84586 -6.29881e-05
0 -0.059167 0 -0.131685 -1.82031 -6.2883e-05
0 -0.0593287 0 -0.132989 -1.90426 -6.32285e-05
0 -0.0594344 0 -0.134239 -2.11683 -6.41032e-05
0 -0.05948 0 -0.135422 -2.54442 -6.58629e-05
0 -0.0594799 0 -0.136522 -2.91156 -6.73738e-05
0 -0.0594689 0 -0.137513 -2.98509 -6.76763e-05
0 -0.0594452 0 -0.138397 -3.13705 -6.83017e-05
0 -0.0594092 0 -0.139157 -3.31215 -6.90223e-05
0 -0.0593591 0 -0.139783 -3.42994 -6.9507e-05
0 -0.0592901 0 -0.140267 -3.4886 -6.97484e-05
0 -0.0591192 0 -0.140618 -3.54791 -6.99925e-05
0 -0.0588054 0 -0.14084 -3.64418 -7.03886e-05
0 -0.0584294 0 -0.140914 -3.76322 -7.08785e-05
0 -0.0580272 0 -0.140887 -3.89358 -7.1415e-05
0 -0.0575909 0 -0.140823 -3.99531 -7.18336e-05
0 -0.0571353 0 -0.140658 -4.05833 -7.20929e-05
0 -0.0567228 0 -0.140158 -4.07487 -7.2161e-05
0 -0.0563665 0 -0.139485 -4.16095 -7.25153e-05
0 -0.056034 0 -0.138704 -4.25425 -7.28992e-05
0 -0.0557337 0 -0.137879 -4.33806 -7.32441e-05
0 -0.0554671 0 -0.136988 -4.39063 -7.34604e-05
0 -0.0552311 0 -0.136048 -4.38159 -7.34232e-05
0 -0.0550267 0 -0.135062 -4.40111 -7.35036e-05
0 -0.0548654 0 -0.134044 -4.46058 -7.37483e-05
0 -0.0547522 0 -0.133029 -4.49242 -7.38794e-05
0 -0.0546942 0 -0.132032 -4.48778 -7.38602e-05
0 -0.0546906 0 -0.131063 -4.47081 -7.37904e-05
0 -0.054708 0 -0.130146 -4.45008 -7.37051e-05
0 -0.0547449 0 -0.129298 -4.42397 -7.35977e-05
0 -0.0548034 0 -0.128539 -4.39089 -7.34615e-05
0 -0.0548834 0 -0.127886 -3.9507 -7.165e-05
0 -0.0551134 0 -0.127306 -2.44384 -6.5449e-05
0 -0.0556401 0 -0.126787 -0.0923949 -5.57722e-05
0 -0.056321 0 -0.126378 3.69026 -4.70765e-05
0 -0.0570843 0 -0.126095 7.29927 -3.87799e-05
0 -0.0578918 0 -0.125957 8.47371 -3.608e-05
0 -0.0587556 0 -0.125953 9.97882 -3.262e-05
0 -0.0597101 0 -0.125992 11.9504 -2.80876e-05
0 -0.0606266 0 -0.126056 13.9717 -2.34409e-05
0 -0.0615427 0 -0.126131 15.7963 -1.92464e-05
0 -0.0624876 0 -0.126362 17.6682 -1.49434e-05
0 -0.0634218 0 -0.12688 19.8037 -1.00341e-05
0 -0.0643754 0 -0.127527 22.224 -4.4702e-06
0 -0.0653501 0 -0.128249 24.7904 1.42961e-06
0 -0.0663524 0 -0.12899 27.2469 7.07671e-06
0 -0.0673875 0 -0.129746 29.5875 1.24573e-05
0 -0.0684432 0 -0.130524 31.9372 1.7859e-05
0 -0.0695097 0 -0.131295 34.3211 2.33393e-05
0 -0.0705858 0 -0.132048 36.6948 2.87959e-05
0 -0.0716692 0 -0.132762 38.952 3.3985e-05
0 -0.072755 0 -0.133399 41.0282 3.87579e-05
0 -0.0738401 0 -0.133943 42.9736 4.323e-05
0 -0.0749232 0 -0.134416 44.7713 4.73626e-05
0 -0.0760083 0 -0.134802 46.3181 5.09185e-05
0 -0.0771001 0 -0.135113 47.7342 5.4174e-05
0 -0.0781842 0 -0.135351 48.9987 5.70809e-05
0 -0.0792469 0 -0.135511 49.9725 5.93194e-05
0 -0.0802855 0 -0.135596 50.6649 6.09111e-05
0 -0.0812937 0 -0.135618 51.1624 6.20548e-05
0 -0.0822533 0 -0.135608 51.48 6.2785e-05
0 -0.0831544 0 -0.135581 51.5655 6.29816e-05
0 -0.0840053 0 -0.13549 50.6796 6.09449e-05
0 -0.0847887 0 -0.135382 48.8888 5.68282e-05
0 -0.0855215 0 -0.135232 46.0294 5.02548e-05
0 -0.0862286 0 -0.13507 42.2832 4.16429e-05
0 -0.0869115 0 -0.1349 37.8461 3.14426e-05
0 -0.0875714 0 -0.134726 32.5569 1.92837e-05
0 -0.0882313 0 -0.134561 26.4202 5.17631e-06
0 -0.0889045 0 -0.134412 19.738 -1.01852e-05
0 -0.0895934 0 -0.134286 12.639 -2.65046e-05
0 -0.0903073 0 -0.134197 5.20593 -4.35922e-05
0 -0.0910543 0 -0.134141 3.7024 -4.70486e-05
0 -0.0918686 0 -0.134083 3.41929 -4.76994e-05
0 -0.0926912 0 -0.134098 2.66052 -4.94437e-05
0 -0.0935587 0 -0.134145 2.10663 -5.0717e-05
0 -0.0944377 0 -0.134337 2.00611 -5.09481e-05
0 -0.0953313 0 -0.134659 2.15945 -5.05956e-05
0 -0.0962514 0 -0.135106 2.11385 -5.07004e-05
0 -0.0971953 0 -0.135684 1.72491 -5.15945e-05
0 -0.098154 0 -0.136392 1.21285 -5.27717e-05
0 -0.0991224 0 -0.137241 0.841534 -5.36253e-05
0 -0.100099 0 -0.138243 0.677355 -5.40027e-05
0 -0.10108 0 -0.139402 0.566208 -5.42582e-05
0 -0.102054 0 -0.140716 0.318942 -5.48266e-05
0 -0.103015 0 -0.142181 -0.0651426 -5.58764e-05
0 -0.103959 0 -0.143797 -0.424462 -5.7355e-05
0 -0.104882 0 -0.145561 -0.706641 -5.85163e-05
0 -0.105777 0 -0.147464 -0.91628 -5.9379e-05
0 -0.106638 0 -0.149495 -1.13771 -6.02902e-05
0 -0.107459 0 -0.151642 -1.43196 -6.15011e-05
0 -0.108231 0 -0.153891 -1.78255 -6.29439e-05
0 -0.108947 0 -0.156228 -2.14649 -6.44416e-05
0 -0.1096 0 -0.158634 -2.46834 -6.57661e-05
0 -0.110186 0 -0.161098 -2.75212 -6.69339e-05
0 -0.110695 0 -0.163606 -3.09584 -6.83484e-05
0 -0.111109 0 -0.166137 -3.48597 -6.99539e-05
0 -0.11142 0 -0.168674 -3.86121 -7.14981e-05
0 -0.111627 0 -0.171206 -4.26003 -7.31393e-05
0 -0.111733 0 -0.173714 -4.6724 -7.48363e-05
0 -0.111745 0 -0.176179 -5.07157 -7.64789e-05
0 -0.111729 0 -0.178565 -5.47096 -7.81225e-05
0 -0.111694 0 -0.180859 -5.90347 -7.99024e-05
0 -0.111641 0 -0.183043 -6.36595 -8.18056e-05
0 -0.11157 0 -0.185097 -6.83104 -8.37196e-05
0 -0.111482 0 -0.187005 -7.28999 -8.56082e-05
0 -0.111314 0 -0.188762 -7.75898 -8.75382e-05
0 -0.110918 0 -0.190392 -8.25915 -8.95966e-05
0 -0.110319 0 -0.191878 -8.76138 -9.16633e-05
0 -0.109627 0 -0.193193 -9.26269 -9.37263e-05
0 -0.108894 0 -0.194339 -9.78106 -9.58596e-05
0 -0.10813 0 -0.195318 -10.2956 -9.79768e-05
0 -0.107317 0 -0.196135 -10.7848 -9.99901e-05
0 -0.106471 0 -0.196794 -11.3148 -0.000102171
0 -0.105609 0 -0.197305 -11.8643 -0.000104433
0 -0.104732 0 -0.197683 -12.3712 -0.000106519
0 -0.103839 0 -0.197936 -12.8553 -0.000108511
0 -0.102934 0 -0.198086 -13.3519 -0.000110554
0 -0.102088 0 -0.198157 -13.8538 -0.00011262
0 -0.101272 0 -0.198181 -14.3261 -0.000114564
0 -0.100454 0 -0.198187 -14.7795 -0.000116429
0 -0.0996265 0 -0.198185 -15.2674 -0.000118437
0 -0.0988027 0 -0.198182 -15.6984 -0.000120211
0 -0.0979815 0 -0.198182 -16.0778 -0.000121772
0 -0.0971648 0 -0.198186 -16.4642 -0.000123362
0 -0.096367 0 -0.198199 -16.851 -0.000124954
0 -0.0955986 0 -0.198222 -17.2034 -0.000126404
0 -0.0948648 0 -0.198256 -17.513 -0.000127678
0 -0.0941718 0 -0.198307 -17.7947 -0.000128838
0 -0.0935069 0 -0.198497 -18.0712 -0.000129975
0 -0.0928775 0 -0.198798 -18.3002 -0.000130918
0 -0.092303 0 -0.199171 -18.4935 -0.000131713
0 -0.0917784 0 -0.199608 -18.666 -0.000132423
0 -0.0913032 0 -0.2001 -18.8128 -0.000133027
0 -0.0908884 0 -0.200642 -18.9261 -0.000133493
0 -0.0905462 0 -0.201232 -19.0086 -0.000133833
0 -0.0902832 0 -0.20185 -17.7697 -0.000128735
0 -0.0901093 0 -0.202468 -15.2215 -0.000118248
0 -0.090033 0 -0.203075 -11.5358 -0.000103081
0 -0.0900418 0 -0.203662 -6.72261 -8.32733e-05
0 -0.0900746 0 -0.204222 -0.762834 -5.87475e-05
0 -0.0901251 0 -0.20475 4.99729 -4.4737e-05
0 -0.090192 0 -0.20523 11.2927 -3.02648e-05
0 -0.0902739 0 -0.205678 11.8623 -2.89554e-05
0 -0.0903769 0 -0.206056 13.3991 -2.54224e-05
0 -0.0904957 0 -0.206335 15.3613 -2.09118e-05
0 -0.0906434 0 -0.206496 17.1947 -1.66971e-05
0 -0.0909168 0 -0.206482 18.6298 -1.33978e-05
0 -0.0914541 0 -0.206406 19.9241 -1.04226e-05
0 -0.0922335 0 -0.206291 21.5332 -6.72341e-06
0 -0.0931588 0 -0.205943 23.4878 -2.23008e-06
0 -0.0941959 0 -0.205235 25.5205 2.44284e-06
0 -0.0952886 0 -0.204346 27.3447 6.63636e-06
0 -0.0964541 0 -0.203319 28.9876 1.04131e-05
0 -0.0976788 0 -0.202185 30.6875 1.43208e-05
0 -0.0989417 0 -0.201014 32.5607 1.86272e-05
0 -0.100246 0 -0.19984 34.4432 2.29546e-05
0 -0.101607 0 -0.198595 36.2872 2.71939e-05
0 -0.103003 0 -0.197306 38.1524 3.14817e-05
0 -0.10442 0 -0.195968 39.883 3.546e-05
0 -0.105866 0 -0.194602 41.5909 3.93863e-05
0 -0.10734 0 -0.19324 43.4153 4.35802e-05
0 -0.108825 0 -0.191891 45.2896 4.7889e-05
0 -0.110317 0 -0.190564 47.1117 5.20777e-05
0 -0.111816 0 -0.189285 48.8887 5.61627e-05
0 -0.113315 0 -0.188072 50.6493 6.02101e-05
0 -0.114799 0 -0.186937 52.4191 6.42787e-05
0 -0.116244 0 -0.185901 54.2374 6.84586e-05
0 -0.117627 0 -0.184981 56.12 7.27864e-05
0 -0.118973 0 -0.184169 57.8694 7.6808e-05
0 -0.120302 0 -0.183464 59.5057 8.05697e-05
0 -0.12159 0 -0.182881 61.252 8.45842e-05
0 -0.122811 0 -0.182411 62.9923 8.85848e-05
0 -0.123987 0 -0.182053 64.6201 9.2327e-05
0 -0.125136 0 -0.181816 66.1632 9.58743e-05
0 -0.126242 0 -0.18169 67.6481 9.92878e-05
0 -0.127294 0 -0.18166 69.0602 0.000102534
0 -0.128313 0 -0.181676 70.3999 0.000105614
0 -0.129311 0 -0.181719 71.6517 0.000108492
0 -0.130269 0 -0.181777 72.7452 0.000111005
0 -0.131176 0 -0.181856 73.6898 0.000113177
0 -0.132036 0 -0.182038 74.5443 0.000115141
0 -0.132808 0 -0.182461 75.2564 0.000116778
0 -0.133514 0 -0.183045 75.8618 0.00011817
0 -0.134166 0 -0.183704 76.3028 0.000119184
0 -0.134768 0 -0.184405 76.5543 0.000119762
0 -0.135326 0 -0.185143 76.6347 0.000119947
0 -0.135842 0 -0.18592 76.2749 0.00011912
0 -0.136313 0 -0.186745 74.6138 0.000115301
0 -0.136742 0 -0.18761 71.6181 0.000108414
0 -0.137137 0 -0.188502 67.3821 9.86763e-05
0 -0.137502 0 -0.189415 61.8855 8.60405e-05
0 -0.137835 0 -0.190352 55.0808 7.03975e-05
0 -0.138138 0 -0.191243 47.044 5.1922e-05
0 -0.138408 0 -0.192072 38.4892 3.22559e-05
0 -0.13864 0 -0.192903 28.7078 9.76999e-06
0 -0.138846 0 -0.19376 17.6665 -1.56125e-05
0 -0.139029 0 -0.194659 6.03597 -4.23493e-05
0 -0.139185 0 -0.195566 3.56918 -4.802e-05
