-0.844979 -2.91372e-05 -1.62536 -5.6047e-05 -0.279768 -9.64718e-06
-0.852994 -2.94136e-05 -1.62342 -5.59801e-05 -0.280107 -9.65886e-06
-0.871219 -3.0042e-05 -1.61925 -5.58361e-05 -0.280678 -9.67857e-06
-0.908709 -3.13348e-05 -1.61136 -5.55641e-05 -0.281456 -9.70538e-06
-0.951117 -3.27971e-05 -1.60357 -5.52957e-05 -0.281901 -9.72072e-06
-1.00545 -3.46707e-05 -1.59524 -5.50083e-05 -0.281891 -9.72037e-06
-1.07251 -3.69832e-05 -1.58715 -5.47294e-05 -0.28105 -9.69137e-06
-1.15314 -3.97634e-05 -1.58026 -5.44918e-05 -0.278973 -9.61975e-06
-1.24827 -4.30438e-05 -1.57569 -5.4334e-05 -0.275285 -9.4926e-06
-1.35891 -4.6859e-05 -1.57469 -5.42996e-05 -0.269634 -9.29773e-06
-1.48593 -5.1239e-05 -1.57864 -5.4436e-05 -0.26166 -9.02277e-06
-1.62972 -5.61972e-05 -1.5891 -5.47966e-05 -0.251013 -8.65562e-06
-1.78972 -6.17146e-05 -1.60785 -5.5443e-05 -0.237408 -8.18648e-06
-1.96386 -6.77192e-05 -1.6367 -5.6438e-05 -0.220732 -7.61144e-06
-2.14925 -7.4112e-05 -1.67831 -5.78729e-05 -0.200801 -6.92416e-06
-2.34143 -8.07391e-05 -1.73522 -5.98351e-05 -0.177692 -6.12732e-06
-2.53458 -8.73994e-05 -1.80976 -6.24054e-05 -0.151722 -5.23179e-06
-2.72229 -9.38721e-05 -1.90392 -6.56524e-05 -0.123517 -4.25921e-06
-2.89825 -9.99395e-05 -2.01913 -6.96252e-05 -0.0940816 -3.24419e-06
-3.05636 -0.000105392 -2.15598 -7.4344e-05 -0.063824 -2.20083e-06
-3.19062 -0.000110021 -2.31415 -7.97983e-05 -0.0358058 -1.23468e-06
-3.29454 -0.000113605 -2.49256 -8.59502e-05 -0.0123904 -4.27254e-07
-3.36066 -0.000115885 -2.68942 -9.27387e-05 0.00376585 1.29857e-07
-3.38004 -0.000116553 -2.9023 -0.000100079 0.00964227 3.32492e-07
-3.34232 -0.000115252 -3.12817 -0.000107868 0.00191743 6.61183e-08
-3.23682 -0.000111615 -3.36269 -0.000115955 -0.0229451 -7.91209e-07
-3.05537 -0.000105358 -3.60001 -0.000124138 -0.0673528 -2.32251e-06
-2.79609 -9.64171e-05 -3.83222 -0.000132146 -0.135073 -4.6577e-06
-2.46627 -8.50437e-05 -4.04804 -0.000139588 -0.23114 -7.97034e-06
-2.08137 -7.17713e-05 -4.23398 -0.000145999 -0.359496 -1.23964e-05
-1.66044 -5.72567e-05 -4.37586 -0.000150892 -0.52285 -1.80293e-05
-1.22125 -4.21122e-05 -4.46045 -0.000153808 -0.723726 -2.49561e-05
-0.780619 -2.69179e-05 -4.47733 -0.000154391 -0.962794 -3.31998e-05
-0.352093 -1.21411e-05 -4.41921 -0.000152386 -1.23885 -4.27188e-05
0.0550389 1.89789e-06 -4.28213 -0.00014766 -1.54855 -5.33984e-05
0.440407 1.51864e-05 -4.06514 -0.000140177 -1.88652 -6.50524e-05
0.798499 2.75345e-05 -3.7705 -0.000130017 -2.24586 -7.74435e-05
1.13943 3.92907e-05 -3.40643 -0.000117463 -2.61695 -9.02396e-05
1.45774 5.02671e-05 -2.98095 -0.000102791 -2.98993 -0.000103101
1.75622 6.05594e-05 -2.50406 -8.63469e-05 -3.35271 -0.000115611
2.03691 7.02384e-05 -1.98919 -6.85928e-05 -3.69371 -0.000127369
2.30136 7.93572e-05 -1.44911 -4.99695e-05 -4.00047 -0.000137947
2.54802 8.78628e-05 -0.896606 -3.09174e-05 -4.26108 -0.000146934
2.77161 9.55728e-05 -0.343847 -1.18568e-05 -4.46395 -0.000153929
2.96521 0.000102249 0.1976 6.81379e-06 -4.59835 -0.000158564
3.12418 0.00010773 0.717682 2.47476e-05 -4.65455 -0.000160502
3.2504 0.000112083 1.21324 4.18358e-05 -4.62234 -0.000159391
3.35259 0.000115607 1.65918 5.7213e-05 -4.49798 -0.000155103
3.44811 0.0001189 2.04317 7.0454e-05 -4.27525 -0.000147422
3.56084 0.000122788 2.35313 8.11425e-05 -3.95114 -0.000136246
3.77181 0.000130063 2.62019 9.03515e-05 -3.40395 -0.000117378
4.12144 0.000142119 2.74091 9.4514e-05 -2.70574 -9.33015e-05
4.66919 0.000161006 2.71471 9.36106e-05 -1.87091 -6.45141e-05
5.456 0.000188138 2.55778 8.81994e-05 -0.922359 -3.18055e-05
6.49653 0.000224018 2.30469 7.94722e-05 0.130253 4.49147e-06
7.7748 0.000268097 2.00704 6.92082e-05 1.25465 4.32638e-05
9.24253 0.000318708 1.73131 5.97005e-05 2.37769 8.19893e-05
10.8235 0.000373225 1.55364 5.35738e-05 3.45931 0.000119286
12.4312 0.000428663 1.54924 5.34221e-05 4.45626 0.000153664
13.9918 0.000482477 1.78172 6.14386e-05 5.33322 0.000183904
15.4587 0.000533059 2.29549 7.91549e-05 6.06504 0.000209139
16.8118 0.000579717 3.1128 0.000107338 6.64071 0.00022899
18.0504 0.000622427 4.23397 0.000145999 7.06155 0.000243502
19.186 0.000661588 5.63963 0.00019447 7.34073 0.000253128
20.2341 0.000697727 7.29401 0.000251518 7.5025 0.000258707
21.204 0.000731173 9.14933 0.000315494 7.58084 0.000261408
22.099 0.000762035 11.1485 0.000384432 7.61702 0.000262656
22.9262 0.000790558 13.2259 0.000456067 7.65695 0.000264033
23.7051 0.000817417 15.3087 0.000527887 7.74863 0.000267194
24.4663 0.000843666 17.3213 0.000597287 7.9392 0.000273766
25.2415 0.000870396 19.1923 0.000661803 8.2716 0.000285228
26.0489 0.000898238 20.8619 0.000719378 8.78074 0.000302784
26.8855 0.000927085 22.2873 0.000768527 9.49084 0.00032727
27.7355 0.000956396 23.4417 0.000808334 10.4144 0.000359117
28.5817 0.000985577 24.3131 0.000838382 11.5519 0.000398342
29.4093 0.00101412 24.9029 0.000858721 12.8918 0.000444544
30.2065 0.0010416 25.2256 0.000869847 14.4107 0.00049692
30.9654 0.00106777 25.3071 0.000872657 16.0748 0.000554303
31.6823 0.00109249 25.183 0.000868378 17.8414 0.000615221
32.357 0.00111576 24.8966 0.000858504 19.6609 0.000677963
32.9898 0.00113758 24.4973 0.000844735 21.4789 0.000740653
33.5817 0.00115799 24.0377 0.000828886 23.2388 0.00080134
34.1373 0.00117715 23.5699 0.000812756 24.8847 0.000858093
34.6681 0.00119545 23.1424 0.000798012 26.3638 0.000909098
35.1927 0.00121354 22.7972 0.000786109 27.6292 0.000952731
35.7297 0.00123206 22.5701 0.000778279 28.6411 0.000987624
36.2857 0.00125123 22.4919 0.000775584 29.3684 0.0010127
36.8436 0.00127047 22.5896 0.000778951 29.7899 0.00102724
37.3638 0.00128841 22.8841 0.000789108 29.8953 0.00103087
37.7956 0.0013033 23.386 0.000806414 29.6866 0.00102368
38.0436 0.00131185 23.9345 0.000825326 29.3036 0.00101047
38.1969 0.00131714 24.7869 0.000854721 28.5777 0.000985437
38.1503 0.00131553 25.79 0.00088931 27.6138 0.000952201
37.8912 0.00130659 26.8904 0.000927256 26.4617 0.000912471
37.4146 0.00129016 28.0225 0.000966294 25.1788 0.000868233
36.7172 0.00126611 29.1131 0.0010039 23.8275 0.000821639
35.7973 0.00123439 30.0853 0.00103742 22.4718 0.000774891
34.6541 0.00119497 30.8625 0.00106422 21.1735 0.000730122
33.2864 0.00114781 31.3725 0.00108181 19.9889 0.000689274
31.6935 0.00109288 31.5511 0.00108797 18.966 0.000653999
29.877 0.00103024 31.3449 0.00108086 18.1413 0.000625564
27.8393 0.000959975 30.7138 0.0010591 17.5385 0.000604776
25.5869 0.000882307 29.6327 0.00102182 17.1661 0.000591934
23.1394 0.00079791 28.0901 0.000968626 17.0178 0.00058682
20.5381 0.000708211 26.0873 0.000899562 17.072 0.000588691
17.8412 0.000615212 23.6395 0.000815154 17.2924 0.00059629
15.1046 0.000520849 20.781 0.000716585 17.6278 0.000607855
12.3745 0.000426705 17.5659 0.000605719 18.0142 0.000621178
9.69011 0.000334142 14.0651 0.000485004 18.3774 0.000633704
7.08665 0.000244367 10.3627 0.000357336 18.6365 0.000642638
4.59391 0.000158411 6.55219 0.000225938 18.7076 0.000645091
2.23274 7.69911e-05 2.73326 9.42503e-05 18.5081 0.000638212
0.0535211 1.84556e-06 -0.985746 -3.39912e-05 17.9596 0.000619298
-1.96832 -6.78729e-05 -4.45819 -0.000153731 17.0048 0.000586373
-3.89939 -0.000134462 -7.59734 -0.000261977 15.5796 0.000537228
-5.76725 -0.000198871 -10.3781 -0.000357864 13.6525 0.000470777
-7.58629 -0.000261596 -12.7475 -0.000439568 11.2097 0.00038654
-9.33703 -0.000321967 -14.688 -0.000506482 8.25734 0.000284736
-10.9914 -0.000379014 -16.2027 -0.000558713 4.82627 0.000166423
-12.5316 -0.000432124 -17.311 -0.000596932 0.974467 3.36023e-05
-13.9625 -0.000481466 -18.0437 -0.000622197 -3.05692 -0.000105411
-15.3123 -0.000528012 -18.4515 -0.000636258 -7.33083 -0.000252787
-16.6209 -0.000573134 -18.5898 -0.000641029 -11.7599 -0.000405514
-17.9258 -0.00061813 -18.5267 -0.000638852 -16.2334 -0.000559772
-19.2648 -0.000664304 -18.3407 -0.000632439 -20.6418 -0.000711786
-20.6794 -0.000713082 -18.1136 -0.000624607 -24.8782 -0.00085787
-22.2122 -0.000765939 -17.9263 -0.00061815 -28.8288 -0.000994095
-23.9024 -0.000824222 -17.858 -0.000615793 -32.3891 -0.00111687
-25.7772 -0.00088887 -17.9848 -0.000620166 -35.4685 -0.00122305
-27.8412 -0.000960041 -18.378 -0.000633724 -37.9923 -0.00131008
-30.0679 -0.00103682 -19.1019 -0.000658685 -39.9009 -0.00137589
-32.402 -0.00111731 -20.21 -0.000696897 -41.1546 -0.00141912
-34.7744 -0.00119912 -21.7378 -0.000749579 -41.7388 -0.00143927
-37.1186 -0.00127995 -23.6947 -0.000817059 -41.6661 -0.00143676
-39.3799 -0.00135793 -26.0607 -0.000898645 -40.9748 -0.00141293
-41.5211 -0.00143176 -28.7856 -0.000992606 -39.728 -0.00136993
-43.5222 -0.00150077 -31.7912 -0.00109625 -38.0117 -0.00131075
-45.3777 -0.00156475 -34.976 -0.00120607 -35.931 -0.001239
-47.0953 -0.00162398 -38.2212 -0.00131797 -33.6047 -0.00115878
-48.689 -0.00167894 -41.3985 -0.00142753 -31.1584 -0.00107443
-50.1708 -0.00173003 -44.3802 -0.00153035 -28.7185 -0.000990293
-51.5459 -0.00177746 -47.0468 -0.0016223 -26.4059 -0.000910549
-52.8151 -0.00182122 -49.2928 -0.00169975 -24.3306 -0.000838985
-53.9762 -0.00186126 -51.0323 -0.00175973 -22.586 -0.000778826
-54.793 -0.00188943 -52.1642 -0.00179876 -21.2527 -0.000732853
-54.8053 -0.00188985 -52.3477 -0.00180509 -20.4623 -0.000705597
-54.7799 -0.00188898 -51.9757 -0.00179226 -20.1184 -0.000693739
-55.0742 -0.00189913 -51.2659 -0.00176779 -20.1769 -0.000695754
-55.362 -0.00190905 -50.063 -0.00172631 -20.6676 -0.000712676
-55.4519 -0.00191215 -48.4226 -0.00166975 -21.5468 -0.000742992
-54.3672 -0.00187475 -46.7667 -0.00161264 -22.6776 -0.000781985
-53.2033 -0.00183461 -44.7963 -0.0015447 -24.0775 -0.00083026
-51.866 -0.0017885 -42.5379 -0.00146682 -25.6655 -0.000885016
-50.4532 -0.00173978 -40.1255 -0.00138364 -27.3529 -0.000943203
-49.0113 -0.00169006 -37.6484 -0.00129822 -29.0487 -0.00100168
-47.5774 -0.00164062 -35.1663 -0.00121263 -30.6602 -0.00105725
-46.2188 -0.00159377 -32.7744 -0.00113015 -32.0957 -0.00110675
-44.9849 -0.00155122 -30.5569 -0.00105368 -33.277 -0.00114748
-43.9143 -0.0015143 -28.5827 -0.000985609 -34.1311 -0.00117693
-43.0525 -0.00148459 -26.9167 -0.000928164 -34.592 -0.00119283
-42.4321 -0.00146319 -25.6087 -0.000883057 -34.6161 -0.00119366
-42.0736 -0.00145083 -24.6954 -0.000851566 -34.1811 -0.00117866
-41.9911 -0.00144798 -24.2024 -0.000834566 -33.2776 -0.0011475
-42.1861 -0.00145471 -24.1367 -0.000832299 -31.9135 -0.00110047
-42.6483 -0.00147065 -24.4898 -0.000844475 -30.1199 -0.00103862
-43.324 -0.00149395 -25.2486 -0.00087064 -27.9468 -0.000963683
-43.9391 -0.00151516 -26.4353 -0.000911563 -25.4499 -0.000877581
-44.4436 -0.00153255 -27.9945 -0.000965327 -22.7148 -0.000783269
-44.8107 -0.00154521 -29.8429 -0.00102907 -19.8406 -0.000684159
-45.0322 -0.00155285 -31.8752 -0.00109914 -16.9389 -0.000584101
-45.1071 -0.00155543 -33.5566 -0.00115712 -14.6774 -0.000506117
-45.0959 -0.00155505 -35.2207 -0.00121451 -12.5345 -0.000432226
-45.0028 -0.00155184 -36.8053 -0.00126915 -10.568 -0.000364415
-44.8318 -0.00154594 -38.2511 -0.001319 -8.8318 -0.000304545
-44.5857 -0.00153745 -39.5042 -0.00136221 -7.37492 -0.000254308
-44.2661 -0.00152643 -40.5177 -0.00139716 -6.2394 -0.000215152
-43.8718 -0.00151284 -41.2531 -0.00142252 -5.45807 -0.00018821
-43.3962 -0.00149643 -41.6826 -0.00143733 -5.05348 -0.000174258
-42.8257 -0.00147676 -41.7897 -0.00144102 -5.03777 -0.000173716
-42.1404 -0.00145313 -41.57 -0.00143345 -5.41275 -0.000186647
-41.3161 -0.00142471 -41.0303 -0.00141484 -6.16964 -0.000212746
-40.3293 -0.00139068 -40.1863 -0.00138574 -7.28936 -0.000251357
-39.1644 -0.00135051 -39.0601 -0.0013469 -8.74338 -0.000301496
-37.8175 -0.00130407 -37.678 -0.00129924 -10.4951 -0.0003619
-36.298 -0.00125167 -36.0695 -0.00124378 -12.501 -0.000431068
-34.6271 -0.00119405 -34.2666 -0.00118161 -14.7116 -0.000507296
-32.831 -0.00113212 -32.3043 -0.00111394 -17.0722 -0.000588696
-30.9346 -0.00106673 -30.2214 -0.00104212 -19.5239 -0.000673239
-28.9592 -0.00099861 -28.0599 -0.000967582 -22.0052 -0.0007588
-26.9228 -0.000928388 -25.8636 -0.00089185 -24.4533 -0.000843216
-24.8428 -0.000856663 -23.6761 -0.000816417 -26.806 -0.000924344
-22.7372 -0.000784055 -21.5387 -0.000742713 -29.0032 -0.00100011
-20.6236 -0.000711174 -19.4897 -0.000672059 -30.9881 -0.00106856
-18.5178 -0.00063856 -17.5637 -0.000605646 -32.7089 -0.00112789
-16.433 -0.00056667 -15.7907 -0.000544505 -34.1194 -0.00117653
-14.3803 -0.000495888 -14.1945 -0.000489464 -35.181 -0.00121314
-12.3699 -0.000426562 -12.7924 -0.000441118 -35.8627 -0.00123665
-10.4112 -0.000359023 -11.5943 -0.000399805 -36.1423 -0.00124629
-8.51316 -0.000293572 -10.6024 -0.000365601 -36.0065 -0.0012416
-6.68365 -0.000230486 -9.81132 -0.000338322 -35.4514 -0.00122246
-4.92968 -0.000170004 -9.20842 -0.000317532 -34.4818 -0.00118903
-3.25695 -0.000112324 -8.77442 -0.000302566 -33.1115 -0.00114178
-1.67014 -5.7606e-05 -8.48403 -0.000292553 -31.3623 -0.00108146
-0.173351 -5.99264e-06 -8.30671 -0.000286438 -29.2633 -0.00100908
1.02771 3.54234e-05 -8.18403 -0.000282208 -26.8491 -0.000925831
1.637 5.64332e-05 -7.98169 -0.000275231 -24.1858 -0.000833992
2.22899 7.68468e-05 -7.80291 -0.000269066 -21.2754 -0.000733633
2.7748 9.56679e-05 -7.62801 -0.000263035 -18.1707 -0.000626577
3.26478 0.000112564 -7.44865 -0.00025685 -14.9167 -0.000514369
3.73001 0.000128606 -7.22329 -0.000249079 -11.5572 -0.000398523
4.20139 0.00014486 -6.9236 -0.000238745 -8.13875 -0.000280647
4.6992 0.000162027 -6.53892 -0.00022548 -4.70837 -0.000162358
5.24689 0.000180912 -6.05664 -0.00020885 -1.31266 -4.52643e-05
5.87103 0.000202434 -5.45475 -0.000188095 2.13019 7.34546e-05
6.59203 0.000227296 -4.71975 -0.00016275 5.47685 0.000188857
7.4215 0.000255899 -3.83868 -0.000132368 8.66177 0.000298681
8.36873 0.000288562 -2.79975 -9.65432e-05 11.6562 0.000401939
9.4382 0.00032544 -1.56629 -5.40099e-05 14.4309 0.000497617
10.6301 0.00036654 -0.152666 -5.26436e-06 16.9597 0.000584816
11.9406 0.000411729 1.42882 4.92697e-05 19.2202 0.000662767
13.3661 0.000460887 3.17699 0.000109551 21.2025 0.000731121
14.9026 0.000513867 5.08309 0.000175279 22.9024 0.000789738
16.5442 0.000570473 7.13154 0.000245915 24.32 0.000838619
18.283 0.000630435 9.30407 0.00032083 25.4609 0.000877964
20.1078 0.000693356 11.5813 0.000399354 26.3376 0.000908193
22.0022 0.000758681 13.9415 0.000480743 26.9674 0.000929911
23.9457 0.0008257 16.3603 0.000564148 27.3718 0.000943857
25.9144 0.000893586 18.8108 0.00064865 27.5759 0.000950895
27.8825 0.000961451 21.2655 0.000733293 27.6083 0.000952011
29.8233 0.00102837 23.696 0.000817102 27.5003 0.000948285
31.7095 0.00109342 26.0732 0.000899077 27.2844 0.000940841
33.5142 0.00115565 28.3676 0.000978195 26.9937 0.000930816
35.2126 0.00121421 30.5494 0.00105343 26.6613 0.000919354
36.7822 0.00126834 32.5893 0.00112377 26.32 0.000907585
38.2041 0.00131737 34.4594 0.00118826 26.0008 0.000896581
39.4633 0.00136079 36.1332 0.00124597 25.7322 0.000887318
40.5494 0.00139824 37.5863 0.00129608 25.5389 0.000880653
41.4574 0.00142955 38.7965 0.00133781 25.442 0.000877309
42.187 0.00145471 39.7455 0.00137054 25.458 0.000877861
42.7427 0.00147387 40.4189 0.00139376 25.5985 0.000882706
43.1315 0.00148728 40.8075 0.00140716 25.8693 0.000892046
43.3628 0.00149526 40.9077 0.00141061 26.2703 0.000905872
43.4477 0.00149819 40.7214 0.00140419 26.7952 0.000923973
43.3976 0.00149646 40.2538 0.00138806 27.4331 0.000945969
43.2295 0.00149066 39.5175 0.00136268 28.1667 0.000971266
42.9657 0.00148156 38.5325 0.00132871 28.9733 0.000999079
42.6291 0.00146996 37.3241 0.00128704 29.8254 0.00102846
42.2415 0.00145659 35.9224 0.00123871 30.6919 0.00105834
41.8228 0.00144215 34.3625 0.00118492 31.5385 0.00108753
41.3909 0.00142726 32.684 0.00112704 32.3287 0.00111478
40.9618 0.00141246 30.9292 0.00106653 33.0252 0.0011388
40.5504 0.00139828 29.1415 0.00100488 33.5911 0.00115831
40.172 0.00138523 27.3645 0.000943605 33.9908 0.00117209
39.8416 0.00137384 25.6404 0.000884153 34.1915 0.00117902
39.5731 0.00136458 24.0092 0.000827906 34.1644 0.00117808
39.3787 0.00135788 22.5078 0.000776134 33.8852 0.00116846
39.2685 0.00135408 21.169 0.000729969 33.3355 0.0011495
39.2504 0.00135345 20.0208 0.000690374 32.503 0.00112079
39.3309 0.00135623 19.0852 0.000658113 31.3826 0.00108216
39.5158 0.0013626 18.3779 0.000633722 29.9768 0.00103368
39.8112 0.00137279 17.9074 0.0006175 28.2954 0.000975702
40.2188 0.00138685 17.6759 0.000609515 26.3558 0.000908822
40.7266 0.00140436 17.6741 0.000609452 24.1862 0.000834006
41.3489 0.00142581 17.8943 0.000617049 21.8146 0.000752228
42.0859 0.00145123 18.3268 0.000631961 19.2781 0.000664764
42.8718 0.00147833 18.9611 0.000653832 16.616 0.000572965
43.7114 0.00150728 19.7674 0.000681638 13.8783 0.000478561
44.6267 0.00153884 20.7112 0.00071418 11.118 0.00038338
45.5789 0.00157168 21.7637 0.000750476 8.38621 0.000289179
46.4273 0.00160093 22.8921 0.000789387 5.73682 0.000197821
47.199 0.00162754 24.0839 0.000830483 3.21799 0.000110965
47.8626 0.00165043 25.3147 0.000872922 0.882977 3.04474e-05
48.3814 0.00166831 26.5502 0.000915525 -1.19278 -4.11305e-05
48.7162 0.00167986 27.755 0.00095707 -2.93097 -0.000101068
48.8389 0.00168409 28.895 0.000996381 -4.36387 -0.000150478
48.7277 0.00168026 29.9409 0.00103245 -5.45121 -0.000187973
48.3597 0.00166756 30.8539 0.00106393 -6.15778 -0.000212337
47.7308 0.00164588 31.5955 0.0010895 -6.45774 -0.000222681
46.8513 0.00161555 32.134 0.00110807 -6.33581 -0.000218476
45.7372 0.00157713 32.4426 0.00111871 -5.78437 -0.000199461
44.406 0.00153123 32.4979 0.00112062 -4.80252 -0.000165604
42.8784 0.00147856 32.2833 0.00111322 -3.39824 -0.000117181
41.1798 0.00141998 31.79 0.00109621 -1.58958 -5.48133e-05
39.3389 0.00135651 31.0186 0.00106961 0.67956 2.3433e-05
37.3888 0.00128926 29.9715 0.0010335 3.31124 0.000114181
35.3654 0.00121949 28.6636 0.000988402 6.24324 0.000215284
33.3053 0.00114845 27.1165 0.000935055 9.42119 0.000324869
31.2403 0.00107724 25.3606 0.000874507 12.7822 0.000440765
29.195 0.00100671 23.4341 0.000808075 16.255 0.000560517
27.1893 0.000937554 21.3821 0.000737317 19.7635 0.000681501
25.2393 0.000870312 19.255 0.00066397 23.2302 0.000801041
23.3565 0.000805387 17.1062 0.00058987 26.578 0.000916482
21.548 0.000743024 14.9898 0.000516894 29.731 0.00102521
19.8181 0.000683374 12.9595 0.000446882 32.6162 0.0011247
18.1704 0.000626556 11.0654 0.000381566 35.1651 0.00121259
16.609 0.000572713 9.35207 0.000322488 37.3169 0.00128679
15.1381 0.000521995 7.8573 0.000270944 39.02 0.00134552
13.7607 0.000474498 6.61075 0.000227959 40.2331 0.00138735
12.4764 0.00043021 5.63369 0.000194268 40.9259 0.00141124
11.2816 0.00038901 4.93821 0.000170285 41.0793 0.00141653
10.1706 0.000350701 4.52648 0.000156088 40.6867 0.00140299
9.13617 0.00031503 4.39042 0.000151396 39.7537 0.00137082
8.16949 0.000281697 4.51187 0.000155584 38.2984 0.00132064
7.26041 0.000250349 4.86319 0.000167699 36.3506 0.00125347
6.39699 0.000220576 5.4083 0.000186495 33.9503 0.0011707
5.56481 0.00019188 6.10392 0.000210482 31.1469 0.00107403
4.74647 0.000163661 6.90106 0.00023797 27.9976 0.000965435
3.9214 0.000135211 7.74659 0.000267126 24.5662 0.000847111
3.0663 0.000105724 8.58477 0.000296029 20.921 0.000721414
2.65794 9.16429e-05 9.25474 0.000319132 17.1449 0.000591204
2.36623 8.1584e-05 9.75921 0.000336527 13.3026 0.00045871
1.97844 6.82122e-05 10.1005 0.000348297 9.44849 0.00032581
1.48833 5.13117e-05 10.253 0.000353554 5.64982 0.000194821
0.881191 3.03758e-05 10.1858 0.000351238 1.9606 6.76068e-05
0.135174 4.6511e-06 9.8502 0.000339665 -1.48251 -5.11212e-05
-0.753768 -2.60021e-05 9.2195 0.000317916 -4.64776 -0.000160268
-1.76359 -6.08236e-05 8.28133 0.000285566 -7.5748 -0.0002612
-2.87246 -9.90605e-05 7.04069 0.000242785 -10.2287 -0.000352712
-4.08145 -0.00014075 5.47673 0.000188855 -12.5824 -0.000433876
-5.40661 -0.000186445 3.5851 0.000123627 -14.6254 -0.000504326
-6.8351 -0.000235703 1.44728 4.99085e-05 -16.346 -0.000563655
-8.35731 -0.000288193 -0.976924 -3.36847e-05 -17.7622 -0.000612489
-9.95884 -0.000343418 -3.65047 -0.000125876 -18.8754 -0.000650877
-11.626 -0.000400908 -6.54258 -0.000225604 -19.7083 -0.000679596
-13.3379 -0.000459936 -9.61355 -0.000331499 -20.2926 -0.000699745
-15.0715 -0.000519718 -12.818 -0.000441996 -20.6655 -0.000712604
-16.7977 -0.000579241 -16.1055 -0.000555358 -20.8649 -0.000719479
-18.468 -0.000636836 -19.427 -0.000669894 -20.9301 -0.000721728
-20.0737 -0.000692207 -22.722 -0.000783513 -20.9076 -0.00072095
-21.6101 -0.000745187 -25.9288 -0.000894095 -20.8455 -0.000718809
-23.0794 -0.000795851 -28.9848 -0.000999472 -20.7907 -0.00071692
-24.4894 -0.000844474 -31.828 -0.00109752 -20.7868 -0.000716787
-25.8504 -0.000891405 -34.4022 -0.00118628 -20.8731 -0.000719763
-27.1712 -0.000936949 -36.6592 -0.00126411 -21.0837 -0.000727024
-28.4577 -0.000981312 -38.5608 -0.00132968 -21.4457 -0.000739508
-29.6249 -0.00102156 -40.1023 -0.00138284 -21.975 -0.00075776
-30.5712 -0.00105419 -41.2959 -0.00142399 -22.6734 -0.00078184
-31.4113 -0.00108316 -42.1001 -0.00145173 -23.5566 -0.000812296
-32.1355 -0.00110813 -42.5108 -0.00146589 -24.6181 -0.000848901
-32.7461 -0.00112919 -42.5458 -0.00146709 -25.8383 -0.000890976
-33.2415 -0.00114627 -42.2228 -0.00145596 -27.1988 -0.000937889
-33.6226 -0.00115941 -41.5704 -0.00143346 -28.6719 -0.000988686
-33.8983 -0.00116892 -40.6242 -0.00140083 -30.2228 -0.00104217
-34.0802 -0.00117519 -39.4234 -0.00135943 -31.8101 -0.0010969
-34.1831 -0.00117874 -38.0105 -0.0013107 -33.3899 -0.00115138
-34.2243 -0.00118016 -36.4343 -0.00125635 -34.9162 -0.00120401
-34.2236 -0.00118013 -34.748 -0.0011982 -36.3415 -0.00125316
-34.2001 -0.00117933 -33.0044 -0.00113808 -37.6179 -0.00129717
-34.1723 -0.00117837 -31.2554 -0.00107777 -38.6986 -0.00133444
-34.158 -0.00117787 -29.5519 -0.00101903 -39.5401 -0.00136345
-34.1737 -0.00117841 -27.9424 -0.000963528 -40.104 -0.0013829
-34.2342 -0.0011805 -26.4713 -0.000912802 -40.3577 -0.00139165
-34.3528 -0.00118459 -25.1773 -0.000868179 -40.2748 -0.00138879
-34.54 -0.00119104 -24.0928 -0.000830783 -39.8365 -0.00137367
-34.8021 -0.00120008 -23.2439 -0.000801513 -39.032 -0.00134593
-35.1411 -0.00121177 -22.6498 -0.000781026 -37.8603 -0.00130553
-35.5549 -0.00122604 -22.3217 -0.000769712 -36.3291 -0.00125273
-36.0394 -0.00124275 -22.2624 -0.000767667 -34.4552 -0.00118811
-36.5901 -0.00126174 -22.4659 -0.000774683 -32.2646 -0.00111257
-37.1809 -0.00128211 -22.9093 -0.000789973 -29.7937 -0.00102737
-37.7515 -0.00130179 -23.5895 -0.000813427 -27.0808 -0.000933821
-38.317 -0.00132129 -24.4795 -0.000844117 -24.1759 -0.000833651
-38.8756 -0.00134055 -25.5424 -0.00088077 -21.1339 -0.000728755
-39.4209 -0.00135935 -26.7315 -0.000921774 -18.0152 -0.000621215
-39.95 -0.0013776 -27.9989 -0.000965477 -14.8831 -0.00051321
-40.4631 -0.00139529 -29.2974 -0.00101025 -11.8014 -0.000406943
-40.9579 -0.00141235 -30.5775 -0.00105439 -8.83405 -0.000304622
-41.4302 -0.00142864 -31.7899 -0.0010962 -6.04284 -0.000208374
-41.8741 -0.00144394 -32.8905 -0.00113415 -3.48502 -0.000120173
-42.2783 -0.00145788 -33.8416 -0.00116695 -1.21233 -4.18045e-05
-42.6249 -0.00146984 -34.6125 -0.00119353 0.732264 2.52504e-05
-42.8939 -0.00147911 -35.1786 -0.00121305 2.37619 8.19374e-05
-43.0669 -0.00148507 -35.5247 -0.00122499 3.60658 0.000124365
-43.1295 -0.00148723 -35.6398 -0.00122896 4.40002 0.000151725
-43.0679 -0.00148511 -35.5192 -0.0012248 4.74844 0.000163739
-42.8711 -0.00147833 -35.1639 -0.00121255 4.65107 0.000160382
-42.536 -0.00146677 -34.5835 -0.00119253 4.11553 0.000141915
-42.0663 -0.00145057 -33.7937 -0.0011653 3.15869 0.00010892
-41.4732 -0.00143012 -32.8141 -0.00113152 1.80716 6.23156e-05
-40.7751 -0.00140605 -31.667 -0.00109196 0.145332 5.01136e-06
-39.9949 -0.00137914 -30.3821 -0.00104766 -1.79573 -6.19219e-05
-39.1555 -0.0013502 -28.9923 -0.000999734 -3.99457 -0.000137744
-38.277 -0.00131991 -27.5351 -0.000949482 -6.39816 -0.000220626
-37.3745 -0.00128879 -26.0514 -0.000898321 -8.9515 -0.000308672
-36.4611 -0.00125729 -24.5846 -0.000847742 -11.5977 -0.000399921
-35.5502 -0.00122588 -23.1777 -0.000799228 -14.2788 -0.000492372
-34.6576 -0.0011951 -21.8712 -0.000754178 -16.9367 -0.000584026
-33.8009 -0.00116556 -20.7025 -0.000713877 -19.5157 -0.000672954
-32.9984 -0.00113789 -19.7048 -0.000679474 -21.9637 -0.000757368
-32.2685 -0.00111272 -18.9066 -0.000651949 -24.2341 -0.000835659
-31.6288 -0.00109066 -18.3306 -0.000632089 -26.286 -0.000906415
-31.0947 -0.00107224 -17.9939 -0.000620476 -28.0845 -0.000968432
-30.6765 -0.00105782 -17.9075 -0.000617498 -29.6016 -0.00102074
-30.3777 -0.00104752 -18.0774 -0.000623358 -30.8168 -0.00106265
-30.1928 -0.00104114 -18.5042 -0.000638074 -31.718 -0.00109372
-30.1079 -0.00103821 -19.1828 -0.000661475 -32.301 -0.00111383
-30.1028 -0.00103804 -20.1021 -0.000693175 -32.5698 -0.0011231
-30.1529 -0.00103977 -21.2444 -0.000732562 -32.5359 -0.00112193
-30.2289 -0.00104239 -22.5855 -0.000778808 -32.2187 -0.00111099
-30.2983 -0.00104478 -24.0953 -0.000830871 -31.6446 -0.00109119
-30.3287 -0.00104583 -25.7371 -0.000887485 -30.8465 -0.00106367
-30.2898 -0.00104449 -27.4681 -0.000947172 -29.8627 -0.00102975
-30.1551 -0.00103984 -29.2397 -0.00100826 -28.736 -0.000990896
-29.9019 -0.00103111 -30.9994 -0.00106894 -27.5119 -0.000948686
-29.5134 -0.00101772 -32.6912 -0.00112728 -26.2378 -0.000904752
-28.9792 -0.000999291 -34.2574 -0.00118129 -24.9613 -0.000860734
-28.2938 -0.00097566 -35.6403 -0.00122897 -23.7283 -0.000818217
-27.4563 -0.00094678 -36.785 -0.00126844 -22.5817 -0.000778678
-26.4676 -0.000912684 -37.6407 -0.00129795 -21.5595 -0.00074343
-25.3287 -0.000873415 -38.1637 -0.00131599 -20.6936 -0.000713573
-24.041 -0.00082901 -38.3183 -0.00132132 -20.0087 -0.000689957
-22.6064 -0.000779542 -38.0776 -0.00131302 -19.5213 -0.00067315
-21.029 -0.000725149 -37.4246 -0.0012905 -19.2391 -0.000663418
-19.3156 -0.000666067 -36.352 -0.00125351 -19.1607 -0.000660712
-17.476 -0.000602632 -34.8623 -0.00120215 -19.2754 -0.000664668
-15.5227 -0.000535276 -32.9686 -0.00113685 -19.5637 -0.000674611
-13.4698 -0.000464488 -30.6935 -0.00105839 -19.9977 -0.000689575
-11.351 -0.000391424 -28.0691 -0.000967899 -20.5406 -0.000708297
-9.2941 -0.000320496 -25.1102 -0.000865867 -21.1524 -0.000729393
-7.18164 -0.000247653 -21.8891 -0.000754793 -21.7846 -0.000751194
-5.01292 -0.000172869 -18.465 -0.000636723 -22.3838 -0.000771855
-2.8325 -9.76824e-05 -14.9132 -0.000514244 -22.8892 -0.000789283
-0.664543 -2.29253e-05 -11.2829 -0.000389064 -23.2478 -0.000801648
1.46921 5.06523e-05 -7.63415 -0.000263244 -23.4073 -0.00080715
3.52213 0.000121443 -4.05137 -0.0001397 -23.3088 -0.000803752
5.47047 0.000188627 -0.568717 -1.96086e-05 -22.9137 -0.000790128
7.31194 0.000252126 2.77675 9.57524e-05 -22.1804 -0.000764842
9.01732 0.000310932 5.97206 0.000205935 -21.0606 -0.000726226
10.56 0.000364126 8.93739 0.000308188 -19.546 -0.000673999
11.9407 0.00041174 11.6039 0.000400135 -17.6197 -0.000607575
13.1569 0.000453677 13.9471 0.000480938 -15.275 -0.000526724
14.2025 0.000489732 15.939 0.000549623 -12.5138 -0.000431511
15.0818 0.000520051 17.5624 0.000605601 -9.35238 -0.000322496
15.8076 0.00054508 18.8136 0.000648747 -5.81885 -0.00020065
16.3943 0.000565311 19.6975 0.000679226 -1.94958 -6.72268e-05
16.858 0.000581299 20.2307 0.000697614 2.37293 8.18251e-05
17.2227 0.000593875 20.4299 0.000704483 6.96636 0.000240219
17.5159 0.000603987 20.3287 0.000700991 11.7325 0.000404569
17.7669 0.000612642 19.9639 0.000688414 16.6029 0.000572515
18.0069 0.000620919 19.3796 0.000668265 21.5013 0.000741422
18.2698 0.000629985 18.6267 0.000642302 26.343 0.000908379
18.5875 0.000640938 17.761 0.000612452 31.041 0.00107038
18.9868 0.000654708 16.8417 0.000580752 35.5108 0.00122451
19.4858 0.000671913 15.9291 0.000549282 39.6724 0.00136801
20.1006 0.000693115 15.0802 0.000520008 43.4509 0.00149831
20.844 0.00071875 14.3545 0.000494984 46.7518 0.00161213
21.7422 0.00074972 13.7146 0.000472919 47.8849 0.0016512
22.7845 0.000785661 13.253 0.000457002 48.0776 0.00165785
23.9662 0.000826412 13.1365 0.000452984 48.0306 0.00165623
25.2721 0.000871441 13.319 0.000459278 47.9365 0.00165298
26.7054 0.000920868 13.8459 0.000477448 47.9974 0.00165509
28.2558 0.000974329 14.7246 0.000507748 47.9412 0.00165315
29.9182 0.00103165 15.9264 0.000549187 47.2985 0.00163098
31.6907 0.00109277 17.4514 0.000601774 45.9698 0.00158517
33.5705 0.00115759 19.2655 0.000664331 44.0407 0.00151864
35.5499 0.00122585 21.327 0.000735416 41.6629 0.00143665
37.6174 0.00129714 23.5963 0.000813669 38.944 0.0013429
39.7581 0.00137096 26.0309 0.00089762 35.9095 0.00123826
41.9534 0.00144666 28.579 0.000985486 32.5681 0.00112304
44.1807 0.00152346 31.1814 0.00107522 28.9876 0.000999574
46.4142 0.00160048 33.7789 0.00116479 25.2952 0.00087225
48.6249 0.00167671 36.3157 0.00125227 21.6191 0.000745488
50.781 0.00175106 38.7388 0.00133582 18.0425 0.000622155
52.8498 0.0018224 40.9969 0.00141369 14.6139 0.000503928
54.7986 0.0018896 43.0427 0.00148423 11.388 0.000392691
56.5899 0.00195138 44.8337 0.00154599 8.44518 0.000291214
57.2742 0.00197497 45.8516 0.00158109 5.99387 0.000206686
57.2748 0.00197499 46.1741 0.00159221 4.0416 0.000139366
57.3871 0.00197887 46.4351 0.00160121 2.44746 8.43963e-05
57.7083 0.00198994 46.6629 0.00160907 1.23337 4.25309e-05
57.9421 0.00199801 46.7339 0.00161152 0.480393 1.65663e-05
57.9268 0.00199748 46.6953 0.00161019 0.100795 3.47668e-06
57.8592 0.00199515 46.5017 0.00160351 0.148262 5.11348e-06
57.6326 0.00198733 46.0515 0.00158798 0.661262 2.28031e-05
57.1762 0.00197159 45.3088 0.00156237 1.62658 5.60899e-05
56.5158 0.00194882 44.2971 0.00152749 2.99205 0.000103175
55.695 0.00192052 43.0656 0.00148502 4.72719 0.000163007
54.7316 0.0018873 41.649 0.00143617 6.79778 0.000234407
53.6373 0.00184956 40.0723 0.00138181 9.16323 0.000315974
52.4464 0.0018085 38.3809 0.00132348 11.7572 0.000405422
51.1963 0.00176539 36.623 0.00126286 14.5096 0.000500333
49.9149 0.0017212 34.8406 0.0012014 17.3582 0.00059856
48.6312 0.00167694 33.0791 0.00114066 20.244 0.000698069
47.3804 0.00163381 31.3882 0.00108235 23.1031 0.00079666
46.1962 0.00159297 29.8118 0.001028 25.8687 0.000892024
45.1077 0.00155544 28.3877 0.000978888 28.4772 0.000981974
44.1423 0.00152215 27.1524 0.000936291 30.8731 0.00106459
43.3259 0.001494 26.1403 0.000901393 33.0086 0.00113823
42.6797 0.00147172 25.379 0.000875139 34.842 0.00120145
42.2199 0.00145586 24.8878 0.000858201 36.3377 0.00125302
41.9585 0.00144685 24.6806 0.000851058 37.4681 0.001292
41.8806 0.00144416 24.7706 0.000854162 38.2155 0.00131778
41.8869 0.00144438 25.1829 0.000868378 38.5686 0.00132995
41.9817 0.00144765 25.9061 0.000893318 38.5339 0.00132876
42.1621 0.00145387 26.9199 0.000928276 38.1251 0.00131466
42.4235 0.00146288 28.1957 0.000972267 37.3644 0.00128843
42.7583 0.00147443 29.6971 0.00102404 36.2844 0.00125119
43.1567 0.00148816 31.382 0.00108214 34.9264 0.00120436
43.6062 0.00150366 33.2028 0.00114493 33.338 0.00114959
44.0914 0.00152039 35.1078 0.00121061 31.5711 0.00108866
44.5939 0.00153772 37.0427 0.00127734 29.681 0.00102348
45.093 0.00155493 38.9532 0.00134322 27.725 0.000956037
45.5673 0.00157129 40.7857 0.0014064 25.7612 0.000888317
45.9954 0.00158605 42.4883 0.00146512 23.8459 0.000822273
46.3569 0.00159851 44.0122 0.00151766 22.0324 0.000759738
46.6339 0.00160807 45.313 0.00156252 20.3694 0.000702395
46.8117 0.0016142 46.3516 0.00159833 18.9003 0.000651735
46.8795 0.00161653 47.0955 0.00162399 17.6614 0.000609015
46.8311 0.00161487 47.5194 0.0016386 16.6813 0.000575219
46.6638 0.0016091 47.6059 0.00164158 15.9798 0.000551029
46.3771 0.00159921 47.3469 0.00163265 15.5674 0.000536807
45.9707 0.0015852 46.7438 0.00161186 15.4452 0.000532593
45.4434 0.00156701 45.8084 0.0015796 15.6049 0.000538099
44.7921 0.00154456 44.5618 0.00153661 16.0289 0.000552722
44.013 0.00151769 43.0337 0.00148392 16.6914 0.000575565
43.1044 0.00148636 41.2607 0.00142279 17.5589 0.000605482
42.0686 0.00145064 39.2847 0.00135465 18.5922 0.000641111
40.9116 0.00141075 37.1509 0.00128107 19.7468 0.000680924
39.6427 0.00136699 34.9075 0.00120371 20.9748 0.000723269
38.2733 0.00131977 32.6032 0.00112425 22.2263 0.000766424
36.816 0.00126952 30.287 0.00104438 23.4507 0.000808645
35.283 0.00121666 28.0065 0.000965744 24.5983 0.000848218
33.6855 0.00116157 25.8065 0.000889881 25.6217 0.000883508
32.0349 0.00110465 23.7275 0.000818193 26.4772 0.000913006
30.3448 0.00104637 21.8042 0.000751872 27.126 0.00093538
28.6339 0.000987378 20.0634 0.000691844 27.5357 0.000949508
26.9277 0.000928543 18.5232 0.000638734 27.6808 0.00095451
25.2561 0.000870902 17.1933 0.000592876 27.5431 0.000949763
23.6498 0.000815511 16.076 0.000554347 27.1122 0.000934906
22.1355 0.000763293 15.1674 0.000523016 26.3851 0.000909832
20.7327 0.00071492 14.4591 0.000498591 25.3658 0.000874683
19.4522 0.000670765 13.9387 0.000480646 24.0652 0.000829836
18.2962 0.000630903 13.5904 0.000468638 22.5007 0.000775887
17.2598 0.000595167 13.3956 0.000461919 20.6955 0.000713638
16.3327 0.000563199 13.3325 0.000459742 18.678 0.000644069
15.4998 0.000534476 13.377 0.000461278 16.4813 0.00056832
14.7421 0.000508349 13.5033 0.000465632 14.1421 0.00048766
14.0385 0.000484085 13.6838 0.000471857 11.7002 0.000403457
13.3674 0.000460947 13.8898 0.00047896 9.19723 0.000317147
12.7078 0.000438202 14.0919 0.00048593 6.6758 0.000230201
12.0372 0.000415077 14.2614 0.000491774 4.17851 0.000144088
11.3307 0.000390714 14.371 0.000495553 1.74678 6.02346e-05
10.5602 0.000364147 14.4023 0.000496632 -0.366537 -1.26382e-05
9.69841 0.000334429 14.3404 0.000494499 -2.23594 -7.71005e-05
8.72302 0.000300795 14.1423 0.000487668 -3.91753 -0.000135086
7.6159 0.000262618 13.7979 0.000475792 -5.43322 -0.000187351
6.38645 0.000220223 13.2898 0.000458271 -6.77646 -0.00023367
5.49407 0.000189452 12.5112 0.000431421 -7.928 -0.000273378
4.54928 0.000156873 11.5155 0.000397089 -8.8562 -0.000305385
3.45901 0.000119277 10.3239 0.000356 -9.57012 -0.000330003
2.25738 7.78414e-05 8.98874 0.000309959 -10.0758 -0.000347439
0.946833 3.26503e-05 7.50663 0.000258852 -10.3935 -0.000358394
-0.474287 -1.63538e-05 5.87224 0.000202493 -10.5313 -0.000363146
-1.8415 -6.34993e-05 4.19695 0.000144725 -10.5153 -0.000362595
-3.15431 -0.000108769 2.46346 8.49492e-05 -10.3326 -0.000356294
-4.52115 -0.000155901 0.664268 2.29082e-05 -10.0007 -0.000344852
-5.92851 -0.000204431 -1.17379 -4.04731e-05 -9.53658 -0.000328847
-7.34129 -0.000253147 -3.05206 -0.000105241 -8.98975 -0.000309991
-8.73202 -0.000301103 -4.92286 -0.000169751 -8.38265 -0.000289056
-10.1063 -0.000348492 -6.77429 -0.000233594 -7.74307 -0.000267001
-11.4564 -0.000395047 -8.58479 -0.000296025 -7.10277 -0.000244922
-12.7617 -0.000440059 -10.3237 -0.000355987 -6.49898 -0.000224102
-14.0101 -0.000483105 -11.9651 -0.000412586 -5.96189 -0.000205581
-15.1966 -0.00052402 -13.4888 -0.000465127 -5.51548 -0.000190188
-16.3127 -0.000562504 -14.8741 -0.000512896 -5.18279 -0.000178716
-17.348 -0.000598206 -16.1023 -0.00055525 -4.98604 -0.000171932
-18.2982 -0.000630971 -17.161 -0.000591756 -4.94275 -0.000170439
-19.1625 -0.000660775 -18.0409 -0.000622098 -5.06432 -0.000174631
-19.9399 -0.000687583 -18.7345 -0.000646016 -5.35722 -0.000184731
-20.6305 -0.000711395 -19.2388 -0.000663406 -5.82363 -0.000200814
-21.2371 -0.000732314 -19.5572 -0.000674384 -6.46097 -0.000222791
-21.7649 -0.000750514 -19.6972 -0.000679211 -7.26138 -0.000250391
-22.2205 -0.000766222 -19.669 -0.000678238 -8.21193 -0.000283169
-22.6126 -0.000779745 -19.4861 -0.000671933 -9.29533 -0.000320528
-22.953 -0.000791481 -19.166 -0.000660894 -10.4484 -0.000360289
-23.2563 -0.000801941 -18.7202 -0.000645523 -11.5945 -0.000399811
-23.5341 -0.000811522 -18.1835 -0.000627014 -12.7643 -0.000440146
-23.8031 -0.000820797 -17.5795 -0.000606189 -13.9638 -0.000481509
-24.076 -0.000830205 -16.9338 -0.000583923 -15.1739 -0.000523238
-24.3672 -0.000840248 -16.2768 -0.000561267 -16.3684 -0.000564428
-24.6898 -0.000851372 -15.6382 -0.000539247 -17.5149 -0.00060396
-25.0567 -0.000864023 -15.0473 -0.000518869 -18.582 -0.000640759
-25.48 -0.00087862 -14.5313 -0.000501075 -19.5468 -0.000674026
-25.9703 -0.000895528 -14.1164 -0.000486769 -20.3925 -0.000703187
-26.5354 -0.000915012 -13.8275 -0.000476809 -21.1032 -0.000727697
-27.1788 -0.000937201 -13.6875 -0.000471981 -21.6619 -0.000746963
-27.9004 -0.000962082 -13.7163 -0.000472975 -22.0531 -0.000760452
-28.6957 -0.000989508 -13.9303 -0.000480352 -22.2678 -0.000767853
-29.5578 -0.00101923 -14.3413 -0.000494524 -22.3025 -0.000769052
-30.4779 -0.00105096 -14.9549 -0.000515685 -22.144 -0.000763586
-31.4466 -0.00108437 -15.7723 -0.000543869 -21.7959 -0.000751583
-32.454 -0.00111911 -16.7884 -0.000578909 -21.2696 -0.000733435
-33.4904 -0.00115484 -17.992 -0.000620413 -20.5839 -0.00070979
-34.5462 -0.00119125 -19.366 -0.00066779 -19.7649 -0.000681547
-35.6128 -0.00122803 -20.8878 -0.000720267 -18.8434 -0.000649772
-36.6826 -0.00126492 -22.5303 -0.000776903 -17.8527 -0.000615609
-37.7489 -0.00130169 -24.262 -0.000836619 -16.8275 -0.000580256
-38.8027 -0.00133803 -26.0498 -0.000898267 -15.8044 -0.000544979
-39.8147 -0.00137292 -27.8653 -0.000960871 -14.8209 -0.000511065
-40.7886 -0.00140651 -29.6693 -0.00102308 -13.9171 -0.0004799
-41.7255 -0.00143881 -31.4234 -0.00108356 -13.1307 -0.000452782
-42.6238 -0.00146979 -33.0908 -0.00114106 -12.4958 -0.000430888
-43.4802 -0.00149932 -34.6394 -0.00119446 -12.0429 -0.000415271
-44.2905 -0.00152726 -36.042 -0.00124283 -11.7982 -0.000406834
-45.0489 -0.00155342 -37.2759 -0.00128537 -11.7832 -0.000406316
-45.6622 -0.00157457 -38.3536 -0.00132254 -12.0066 -0.00041402
-46.1775 -0.00159234 -39.2463 -0.00135332 -12.4832 -0.000430452
-46.5824 -0.0016063 -39.9411 -0.00137728 -13.2162 -0.000455732
-46.8775 -0.00161647 -40.4329 -0.00139424 -14.2031 -0.00048976
-47.0694 -0.00162309 -40.7288 -0.00140444 -15.431 -0.000532104
-47.1543 -0.00162602 -40.8298 -0.00140792 -16.8877 -0.000582333
-47.1252 -0.00162502 -40.7382 -0.00140476 -18.5546 -0.000639811
-46.9858 -0.00162021 -40.4673 -0.00139542 -20.4051 -0.000703624
-46.7485 -0.00161203 -40.0363 -0.00138056 -22.3353 -0.000770182
-46.4286 -0.001601 -39.4498 -0.00136033 -24.2113 -0.00083487
-46.0325 -0.00158734 -38.7552 -0.00133638 -26.1201 -0.000900692
-45.5751 -0.00157156 -37.9744 -0.00130946 -28.0637 -0.000967714
-45.0672 -0.00155405 -37.1341 -0.00128048 -30.0171 -0.00103507
-44.5226 -0.00153527 -36.2661 -0.00125055 -31.9435 -0.0011015
-43.9546 -0.00151569 -35.3992 -0.00122066 -33.7958 -0.00116537
-43.3781 -0.00149581 -34.5612 -0.00119176 -35.5302 -0.00122518
-42.8074 -0.00147613 -33.7768 -0.00116471 -37.1159 -0.00127986
-42.255 -0.00145708 -33.0684 -0.00114029 -38.5313 -0.00132866
-41.7122 -0.00143836 -32.4606 -0.00111933 -39.7542 -0.00137083
-41.132 -0.00141835 -31.9837 -0.00110288 -40.7567 -0.0014054
-40.5127 -0.001397 -31.6499 -0.00109137 -41.5166 -0.0014316
-39.8476 -0.00137407 -31.4652 -0.001085 -42.0199 -0.00144896
-39.1313 -0.00134937 -31.4293 -0.00108377 -42.2629 -0.00145734
-38.3624 -0.00132285 -31.5336 -0.00108736 -42.2399 -0.00145655
-37.5454 -0.00129468 -31.7599 -0.00109517 -41.9353 -0.00144604
-36.6891 -0.00126515 -32.0855 -0.00110639 -41.3542 -0.00142601
-35.8024 -0.00123457 -32.4819 -0.00112006 -40.5131 -0.001397
-34.891 -0.00120315 -32.9168 -0.00113506 -39.4371 -0.0013599
-33.9566 -0.00117093 -33.3561 -0.00115021 -38.1571 -0.00131576
-32.9983 -0.00113788 -33.765 -0.00116431 -36.7051 -0.00126569
-32.0142 -0.00110395 -34.1081 -0.00117614 -35.1115 -0.00121074
-31.0032 -0.00106908 -34.3504 -0.0011845 -33.4074 -0.00115198
-29.9621 -0.00103319 -34.4585 -0.00118822 -31.6252 -0.00109052
-28.8847 -0.000996033 -34.4029 -0.00118631 -29.7984 -0.00102753
-27.7617 -0.000957308 -34.1585 -0.00117788 -27.958 -0.000964067
-26.5846 -0.000916721 -33.7042 -0.00116221 -26.1305 -0.000901052
-25.3488 -0.000874106 -33.0233 -0.00113873 -24.3384 -0.000839255
-24.0539 -0.000829453 -32.103 -0.001107 -22.6005 -0.000779325
-22.7029 -0.000782866 -30.9362 -0.00106676 -20.9321 -0.000721797
-21.3001 -0.000734496 -29.5214 -0.00101798 -19.3446 -0.000667053
-19.8497 -0.000684482 -27.8641 -0.00096083 -17.8432 -0.000615283
-18.354 -0.000632904 -25.9764 -0.000895735 -16.428 -0.00056648
-16.8127 -0.000579756 -23.877 -0.000823341 -15.0935 -0.000520463
-15.2237 -0.000524963 -21.5906 -0.000744502 -13.8306 -0.000476916
-13.5843 -0.000468433 -19.147 -0.000660238 -12.6268 -0.000435406
-11.8928 -0.000410105 -16.579 -0.000571688 -11.4664 -0.000395392
-10.1498 -0.000350002 -13.922 -0.000480066 -10.3312 -0.000356249
-8.35971 -0.000288275 -11.2117 -0.000386606 -9.20161 -0.000317296
-6.53077 -0.000225208 -8.4836 -0.000292535 -8.0575 -0.000277844
-4.6738 -0.000161175 -5.77234 -0.000199044 -6.87948 -0.000237222
-2.80092 -9.65927e-05 -3.11085 -0.000107268 -5.64926 -0.000194801
-0.936103 -3.22886e-05 -0.527408 -1.81841e-05 -4.34863 -0.000149952
0.823561 2.83894e-05 1.93227 6.66324e-05 -2.94319 -0.000101488
2.49046 8.58687e-05 4.24502 0.000146382 -1.4334 -4.94267e-05
4.1318 0.000142467 6.40878 0.000220995 0.109471 3.77586e-06
5.40799 0.000186473 8.51758 0.000293712 1.68169 5.79903e-05
6.60043 0.000227592 10.4564 0.000360568 3.32194 0.000114551
7.67808 0.000264752 12.1954 0.000420534 5.05517 0.000174317
8.65571 0.000298464 13.7274 0.000473361 6.88207 0.000237314
9.53936 0.000328934 15.0489 0.000518929 8.79922 0.000303422
10.327 0.000356094 16.1577 0.000557164 10.787 0.000371966
11.0191 0.00037996 17.0498 0.000587928 12.8241 0.000442211
11.6262 0.000400895 17.7292 0.000611353 14.8901 0.000513453
12.1601 0.000419303 18.2031 0.000627694 16.9697 0.000585164
12.631 0.000435543 18.4821 0.000637317 19.0447 0.000656713
13.0527 0.000450084 18.5821 0.000640765 21.0871 0.000727143
13.442 0.00046351 18.5218 0.000638684 23.0628 0.000795271
13.8155 0.000476388 18.321 0.000631761 24.9395 0.000859982
14.1884 0.000489246 18.0024 0.000620775 26.6898 0.00092034
14.5759 0.00050261 17.5924 0.000606638 28.2882 0.000975456
14.9933 0.000517001 17.1195 0.000590329 29.7061 0.00102435
15.4544 0.000532903 16.6114 0.00057281 30.9134 0.00106598
15.9721 0.000550755 16.0958 0.000555031 31.8825 0.0010994
16.5575 0.000570938 15.6006 0.000537953 32.5917 0.00112385
17.2189 0.000593745 15.1531 0.000522524 33.0245 0.00113878
17.9614 0.000619348 14.7792 0.000509629 33.1675 0.00114371
18.7867 0.000647809 14.5006 0.000500022 32.9823 0.00113732
19.6935 0.000679076 14.3365 0.000494364 32.4524 0.00111905
20.678 0.000713027 14.3041 0.000493248 31.576 0.00108883
21.7351 0.000749479 14.4155 0.000497089 30.3629 0.001047
22.8586 0.000788219 14.6775 0.000506122 28.8309 0.000994172
24.0419 0.000829022 15.0916 0.000520403 27.0035 0.000931157
25.2783 0.000871657 15.6543 0.000539806 24.9084 0.000858913
26.5614 0.000915903 16.3567 0.000564027 22.5792 0.000778596
27.8848 0.000961538 17.1852 0.000592594 20.0559 0.000691586
29.2414 0.00100832 18.122 0.000624899 17.3844 0.000599464
30.6229 0.00105595 19.1466 0.00066023 14.6141 0.000503935
32.0195 0.00110411 20.2362 0.000697802 11.7959 0.000406757
33.42 0.00115241 21.3668 0.000736788 8.98161 0.000309712
34.8119 0.0012004 22.5139 0.000776344 6.22344 0.000214603
36.1819 0.00124764 23.6532 0.000815628 3.57355 0.000123228
37.5166 0.00129367 24.761 0.000853831 1.08264 3.7334e-05
38.8018 0.00133799 25.8239 0.000890481 -0.998346 -3.44241e-05
40.027 0.00138023 26.8178 0.000924754 -2.77795 -9.57898e-05
41.1807 0.00142002 27.7165 0.000955744 -4.29745 -0.000148186
42.2557 0.00145709 28.5096 0.000983091 -5.54327 -0.000191146
43.2436 0.00149115 29.1856 0.0010064 -6.4988 -0.000224095
44.1398 0.00152206 29.7368 0.00102541 -7.14257 -0.000246294
44.9416 0.00154971 30.1587 0.00103996 -7.45481 -0.000257061
45.6483 0.00157408 30.4525 0.00105009 -7.41753 -0.000255775
46.2609 0.0015952 30.626 0.00105607 -7.01426 -0.00024187
46.7824 0.00161319 30.6878 0.0010582 -6.25232 -0.000215595
47.2166 0.00162816 30.6503 0.00105691 -5.14603 -0.000177448
47.569 0.00164031 30.5301 0.00105277 -3.71284 -0.000128027
47.8465 0.00164988 30.3466 0.00104644 -1.97624 -6.81447e-05
48.0589 0.00165721 30.1214 0.00103867 0.0317978 1.09813e-06
48.2194 0.00166274 29.8686 0.00102996 2.26168 7.79907e-05
48.3373 0.0016668 29.6191 0.00102135 4.66795 0.000160965
48.4286 0.00166995 29.3958 0.00101365 7.23458 0.00024947
48.5083 0.0016727 29.2233 0.0010077 9.9267 0.000342302
48.5763 0.00167505 29.1309 0.00100452 12.7026 0.000438024
48.291 0.00166521 29.2348 0.0010081 15.4952 0.000534319
48.0744 0.00165774 29.4364 0.00101505 18.2972 0.000630941
47.9165 0.0016523 29.755 0.00102604 21.0578 0.000726134
47.8391 0.00164963 30.2058 0.00104158 23.7484 0.000818912
47.8494 0.00164998 30.7945 0.00106188 26.3407 0.000908302
47.951 0.00165349 31.5247 0.00108706 28.8102 0.000993455
48.1482 0.00166029 32.3989 0.0011172 31.1295 0.00107343
48.4441 0.00167049 33.4158 0.00115227 33.2759 0.00114745
48.8373 0.00168405 34.5685 0.00119202 35.2343 0.00121498
49.2987 0.00169996 35.8294 0.0012355 37.0006 0.00127588
49.8148 0.00171775 37.1895 0.0012824 38.57 0.00133
50.4099 0.00173828 38.6383 0.00133236 39.9368 0.00137713
51.076 0.00176125 40.1731 0.00138528 41.0953 0.00141708
51.7866 0.00178575 41.7703 0.00144036 42.0516 0.00145006
52.495 0.00181018 43.418 0.00149718 42.8158 0.00147641
53.2014 0.00183453 45.0967 0.00155506 43.3982 0.00149649
53.8904 0.00185829 46.7805 0.00161312 43.8135 0.00151081
54.5407 0.00188072 48.4408 0.00167038 44.0774 0.00151991
55.1361 0.00190125 50.0515 0.00172592 44.2091 0.00152445
55.667 0.00191955 51.5859 0.00177883 44.2285 0.00152512
56.1251 0.00193535 53.0134 0.00182805 44.1534 0.00152253
56.5047 0.00194844 54.3036 0.00187254 44.0045 0.0015174
56.8034 0.00195874 55.4284 0.00191133 43.8026 0.00151043
57.0204 0.00196622 56.3631 0.00194356 43.5672 0.00150232
57.1556 0.00197088 57.0852 0.00196846 43.3162 0.00149366
57.2106 0.00197278 57.5759 0.00198538 43.0641 0.00148497
57.1885 0.00197202 57.821 0.00199383 42.8216 0.00147661
57.0859 0.00196848 57.8075 0.00199336 42.5966 0.00146885
56.9075 0.00196233 57.5294 0.00198377 42.3926 0.00146182
56.662 0.00195387 56.9898 0.00196517 42.2081 0.00145545
56.3572 0.00194336 56.1986 0.00193789 42.0372 0.00144956
55.9954 0.00193088 55.1715 0.00190247 41.8699 0.00144379
55.5734 0.00191633 53.9309 0.00185969 41.6925 0.00143767
55.084 0.00189945 52.5054 0.00181053 41.4878 0.00143061
54.5185 0.00187995 50.9276 0.00175613 41.2365 0.00142195
53.8692 0.00185756 49.2318 0.00169765 40.9183 0.00141098
53.1321 0.00183215 47.4529 0.00163631 40.5125 0.00139698
52.3083 0.00180374 45.6247 0.00157327 39.9986 0.00137926
51.4033 0.00177253 43.7792 0.00150963 39.3579 0.00135717
50.425 0.0017388 41.9457 0.0014464 38.5738 0.00133013
49.3814 0.00170281 40.1511 0.00138452 37.6325 0.00129767
48.2805 0.00166485 38.4192 0.0013248 36.5234 0.00125943
47.129 0.00162514 36.77 0.00126793 35.2399 0.00121517
45.9321 0.00158387 35.2194 0.00121447 33.7793 0.0011648
44.6929 0.00154114 33.7795 0.00116481 32.1436 0.0011084
43.4132 0.00149701 32.4573 0.00111922 30.3391 0.00104618
42.0933 0.0014515 31.2554 0.00107777 28.377 0.00097852
40.7322 0.00140456 30.1716 0.0010404 26.2727 0.000905955
39.3278 0.00135614 29.1993 0.00100687 24.0455 0.000829158
37.8773 0.00130612 28.3274 0.000976808 21.719 0.000748932
36.3773 0.00125439 27.5409 0.00094969 19.3195 0.00066619
34.8245 0.00120085 26.8216 0.000924886 16.876 0.000581933
33.2164 0.0011454 26.1481 0.000901662 14.4196 0.000497228
31.5521 0.00108801 25.4967 0.000879199 11.9821 0.000413178
29.833 0.00102873 24.8421 0.000856627 9.59589 0.000330894
27.613 0.000952176 23.9798 0.000826891 6.73301 0.000232175
25.3247 0.000873271 23.0223 0.000793874 4.05712 0.000139902
22.9792 0.00079239 21.9253 0.000756046 1.61926 5.58382e-05
20.5793 0.000709635 20.661 0.000712451 -0.362653 -1.25036e-05
18.118 0.000624763 19.2068 0.000662305 -1.93624 -6.67653e-05
15.5814 0.000537294 17.5407 0.000604856 -3.21407 -0.000110828
12.955 0.000446728 15.6676 0.000540264 -4.21962 -0.000145502
10.2324 0.000352845 13.5959 0.000468825 -4.96803 -0.00017131
7.41682 0.000255756 11.3406 0.000391057 -5.45722 -0.000188178
4.51394 0.000155657 8.92716 0.000307835 -5.70782 -0.00019682
1.82412 6.29042e-05 6.34332 0.000218737 -5.7588 -0.000198578
-0.292069 -1.00679e-05 3.53371 0.000121854 -5.62055 -0.00019381
-2.27649 -7.84962e-05 0.871287 3.00467e-05 -5.40769 -0.00018647
-4.23405 -0.000145998 -1.63834 -5.64921e-05 -5.12041 -0.000176564
-6.22171 -0.000214538 -4.07743 -0.000140599 -4.82152 -0.000166258
-8.19146 -0.000282461 -6.39154 -0.000220396 -4.5641 -0.000157381
-10.0964 -0.000348147 -8.51187 -0.00029351 -4.39734 -0.000151631
-11.9428 -0.000411819 -10.4371 -0.000359898 -4.35586 -0.0001502
-13.7049 -0.000472578 -12.146 -0.000418824 -4.47949 -0.000154464
-15.3549 -0.000529478 -13.613 -0.000469413 -4.79129 -0.000165215
-16.8896 -0.000582397 -14.8378 -0.000511646 -5.30154 -0.00018281
-18.2984 -0.000630977 -15.8209 -0.000545546 -5.96931 -0.000205837
-19.5746 -0.000674982 -16.5701 -0.000571382 -6.77376 -0.000233576
-20.7267 -0.000714711 -17.105 -0.000589826 -7.74421 -0.00026704
-21.7659 -0.000750545 -17.4439 -0.000601512 -8.86741 -0.000305771
-22.7064 -0.000782978 -17.6141 -0.000607382 -10.1219 -0.00034903
-23.5666 -0.000812638 -17.6504 -0.000608632 -11.4717 -0.000395574
-24.3639 -0.000840133 -17.5886 -0.000606503 -12.8806 -0.000444155
-25.1158 -0.000866058 -17.4676 -0.000602329 -14.3148 -0.00049361
-25.8403 -0.000891041 -17.3295 -0.000597568 -15.7389 -0.000542719
-26.555 -0.000915686 -17.2156 -0.000593638 -17.1132 -0.000590108
-27.277 -0.000940585 -17.1637 -0.00059185 -18.399 -0.000634447
-28.0237 -0.000966333 -17.2087 -0.000593403 -19.5646 -0.000674641
-28.8111 -0.000993483 -17.3808 -0.000599337 -20.5842 -0.000709799
-29.6535 -0.00102253 -17.7039 -0.000610477 -21.4353 -0.000739148
-30.5636 -0.00105391 -18.1951 -0.000627416 -22.101 -0.000762103
-31.5509 -0.00108796 -18.8649 -0.000650512 -22.5728 -0.00077837
-32.6191 -0.0011248 -19.7176 -0.000679916 -22.8507 -0.000787954
-33.7641 -0.00116428 -20.7521 -0.000715586 -22.9414 -0.000791083
-34.9756 -0.00120605 -21.9602 -0.000757245 -22.8449 -0.000787754
-36.2381 -0.00124959 -23.328 -0.00080441 -22.5739 -0.000778409
-37.5334 -0.00129426 -24.8357 -0.000856402 -22.1585 -0.000764083
-38.8416 -0.00133937 -26.4572 -0.000912315 -21.6371 -0.000746105
-40.1424 -0.00138423 -28.1608 -0.000971058 -21.0528 -0.000725956
-41.4174 -0.00142819 -29.9099 -0.00103137 -20.4505 -0.000705187
-42.6517 -0.00147076 -31.6641 -0.00109186 -19.8767 -0.000685402
-43.8348 -0.00151155 -33.3807 -0.00115106 -19.3789 -0.000668236
-44.9595 -0.00155034 -35.0171 -0.00120749 -19.0023 -0.000655249
-46.02 -0.00158691 -36.5341 -0.00125979 -18.7869 -0.000647822
-47.0105 -0.00162107 -37.8978 -0.00130682 -18.7658 -0.000647095
-47.9248 -0.0016526 -39.0817 -0.00134764 -18.9645 -0.000653947
-48.7554 -0.00168125 -40.0681 -0.00138165 -19.3996 -0.00066895
-49.4945 -0.00170673 -40.8483 -0.00140856 -20.0777 -0.000692331
-50.1353 -0.00172883 -41.4228 -0.00142837 -20.9948 -0.000723958
-50.6734 -0.00174739 -41.7999 -0.00144137 -22.1377 -0.000763366
-51.1075 -0.00176236 -41.9908 -0.00144796 -23.3876 -0.000806466
-51.4376 -0.00177375 -42.0157 -0.00144882 -24.7223 -0.00085249
-51.6672 -0.00178166 -41.9085 -0.00144512 -26.1715 -0.000902463
-51.799 -0.00178621 -41.6955 -0.00143777 -27.7132 -0.000955626
-51.8351 -0.00178745 -41.406 -0.00142779 -29.3118 -0.00101075
-51.7826 -0.00178564 -41.0722 -0.00141628 -30.914 -0.001066
-51.4857 -0.00177541 -40.7744 -0.00140601 -32.4675 -0.00111957
-51.1396 -0.00176347 -40.4834 -0.00139598 -33.9564 -0.00117091
-50.7988 -0.00175172 -40.2112 -0.00138659 -35.3437 -0.00121875
-50.4885 -0.00174102 -39.9824 -0.0013787 -36.5899 -0.00126172
-50.0609 -0.00172628 -39.8475 -0.00137405 -37.6594 -0.0012986
-49.4743 -0.00170605 -39.8265 -0.00137332 -38.5342 -0.00132877
-48.7383 -0.00168067 -39.9155 -0.00137639 -39.2007 -0.00135175
-47.861 -0.00165042 -40.0966 -0.00138264 -39.6494 -0.00136722
-46.8526 -0.00161565 -40.3446 -0.00139119 -39.8812 -0.00137521
-45.7291 -0.0015769 -40.6268 -0.00140092 -39.9014 -0.00137591
-44.5091 -0.00153484 -40.8987 -0.0014103 -39.7063 -0.00136918
-43.2149 -0.00149021 -41.1123 -0.00141766 -39.3104 -0.00135553
-41.8694 -0.00144381 -41.2197 -0.00142137 -38.7381 -0.0013358
-40.4904 -0.00139626 -41.1756 -0.00141985 -38.0168 -0.00131092
-39.0868 -0.00134786 -40.9402 -0.00141173 -37.1713 -0.00128177
-37.656 -0.00129852 -40.483 -0.00139596 -36.2229 -0.00124906
-36.1821 -0.0012477 -39.7843 -0.00137187 -35.1894 -0.00121343
-34.6413 -0.00119457 -38.8346 -0.00133912 -34.0856 -0.00117536
-33.0111 -0.00113835 -37.6318 -0.00129765 -32.9215 -0.00113522
-31.2768 -0.00107855 -36.1795 -0.00124757 -31.7026 -0.00109319
-29.4339 -0.001015 -34.4861 -0.00118917 -30.4301 -0.00104931
-27.483 -0.000947728 -32.5658 -0.00112296 -29.1015 -0.0010035
-25.4246 -0.000876747 -30.4389 -0.00104961 -27.7109 -0.000955548
-23.2584 -0.000802051 -28.131 -0.000970034 -26.2493 -0.000905145
-20.985 -0.00072366 -25.672 -0.000885239 -24.705 -0.000851896
-18.6053 -0.000641599 -23.094 -0.000796342 -23.0658 -0.000795371
-16.1174 -0.00055581 -20.431 -0.000704514 -21.3192 -0.000735144
-13.5156 -0.000466092 -17.7176 -0.000610949 -19.454 -0.000670827
-10.7925 -0.000372193 -14.9868 -0.000516783 -17.4611 -0.000602106
-7.94831 -0.000274118 -12.2658 -0.000422956 -15.3351 -0.000528796
-4.99703 -0.000172349 -9.57371 -0.000330126 -13.0754 -0.000450875
-1.96344 -6.7743e-05 -6.92174 -0.000238679 -10.6863 -0.000368491
0.42349 1.4565e-05 -4.17077 -0.000143817 -8.19672 -0.000282644
2.258 7.78241e-05 -1.4811 -5.10704e-05 -5.57701 -0.000192309
4.07337 0.000140423 1.1466 3.95402e-05 -2.84385 -9.8062e-05
5.85408 0.000201827 3.72992 0.00012862 -0.0230248 -7.92272e-07
7.5595 0.000260634 6.16496 0.000212587 2.6722 9.21465e-05
9.17369 0.000316296 8.46803 0.000292003 5.41776 0.000186821
10.6895 0.000368567 10.6259 0.000366414 8.21626 0.000283321
12.0877 0.000416781 12.6186 0.000435125 11.0434 0.00038081
13.3617 0.000460711 14.4452 0.000498112 13.8693 0.000478252
14.5145 0.000500463 16.1095 0.000555501 16.6424 0.000573878
15.5475 0.000536081 17.6024 0.000606982 19.3418 0.000666959
16.4693 0.000567869 18.9213 0.00065246 21.9476 0.000756815
17.2917 0.000596228 20.0712 0.000692114 24.4286 0.000842366
18.0249 0.000621509 21.0563 0.000726081 26.7409 0.000922103
18.6814 0.000644147 21.8808 0.000754513 28.8498 0.000994821
19.2777 0.000664711 22.5515 0.000777639 30.7317 0.00105972
19.8318 0.000683817 23.0768 0.000795754 32.3623 0.00111594
20.3616 0.000702086 23.4666 0.000809196 33.7109 0.00116245
20.8824 0.000720045 23.7324 0.000818362 34.7505 0.00119829
21.4038 0.000738024 23.8886 0.000823747 35.4644 0.00122291
21.9295 0.00075615 23.9521 0.000825938 35.8415 0.00123591
22.4607 0.000774469 23.9399 0.000825516 35.8636 0.00123668
23.0006 0.000793085 23.8642 0.000822907 35.4942 0.00122394
23.5547 0.000812195 23.7376 0.000818541 34.7289 0.00119755
24.1299 0.000832028 23.5697 0.000812751 33.5815 0.00115799
24.7293 0.000852696 23.3687 0.00080582 32.073 0.00110597
25.3492 0.000874073 23.143 0.000798036 30.2284 0.00104236
25.9806 0.000895846 22.9002 0.000789665 28.0783 0.000968219
26.6113 0.000917593 22.6463 0.000780909 25.6612 0.000884873
27.2277 0.00093885 22.3844 0.00077188 23.0228 0.000793891
27.8154 0.000959114 22.1156 0.000762609 20.2124 0.000696981
28.3578 0.000977819 21.8388 0.000753063 17.2821 0.000595937
28.8376 0.000994362 21.5508 0.000743134 14.2871 0.00049266
29.2374 0.00100815 21.2465 0.000732641 11.2848 0.000389134
29.5415 0.00101863 20.9185 0.00072133 8.3331 0.000287351
29.7251 0.00102497 20.5609 0.000709 5.48757 0.000189229
29.6997 0.00102409 20.187 0.000696106 2.79728 9.64606e-05
29.4524 0.00101556 19.77 0.000681727 0.348333 1.2014e-05
28.9967 0.00099985 19.2975 0.000665432 -1.58941 -5.48049e-05
28.3734 0.000978357 18.7238 0.000645651 -3.24058 -0.000111742
27.6188 0.000952334 18.0373 0.000621977 -4.60862 -0.000158915
26.7625 0.000922809 17.2232 0.000593907 -5.68856 -0.000196155
25.8307 0.000890677 16.2767 0.000561267 -6.45957 -0.000222741
24.8394 0.000856494 15.2026 0.000524231 -6.91327 -0.000238386
23.7957 0.000820504 14.0186 0.000483403 -7.06039 -0.000243459
22.7014 0.000782769 12.7511 0.000439695 -6.91242 -0.000238357
21.557 0.000743307 11.4312 0.000394183 -6.48405 -0.000223585
20.3673 0.000702284 10.0929 0.000348034 -5.80381 -0.000200129
19.1447 0.000660125 8.77219 0.000302491 -4.91273 -0.000169402
17.9074 0.000617458 7.50393 0.000258758 -3.86186 -0.000133165
16.6741 0.000574931 6.32152 0.000217986 -2.70005 -9.31026e-05
15.4605 0.000533082 5.25728 0.000181288 -1.47128 -5.07313e-05
14.2789 0.000492339 4.34064 0.000149679 -0.219511 -7.56684e-06
13.1384 0.00045301 3.59418 0.00012394 0.988998 3.41059e-05
12.0404 0.000415147 3.03885 0.00010479 2.1472 7.40438e-05
10.9776 0.000378502 2.68906 9.27283e-05 3.21218 0.000110767
9.93366 0.000342503 2.55099 8.79672e-05 4.16488 0.000143619
8.88625 0.000306385 2.62298 9.04499e-05 4.98398 0.000171864
7.81116 0.000269313 2.89293 9.97584e-05 5.65486 0.000194998
6.68487 0.000230476 3.33779 0.000115098 6.17673 0.000212993
5.48609 0.000189138 3.92371 0.000135303 6.56096 0.000226243
4.19584 0.000144647 4.60738 0.000158877 6.8213 0.00023522
2.79607 9.63793e-05 5.33787 0.000184067 6.97445 0.000240501
1.40142 4.82878e-05 6.03557 0.000208125 7.04362 0.000242886
0.656278 2.25933e-05 6.48206 0.000223521 7.0795 0.000244123
-0.286888 -9.92969e-06 6.82784 0.000235445 7.06658 0.000243678
-1.26007 -4.34878e-05 7.07032 0.000243806 7.0168 0.000241961
-2.31678 -7.9926e-05 7.15154 0.000246607 6.94667 0.000239543
-3.47789 -0.000119964 7.01184 0.00024179 6.86753 0.000236814
-4.72715 -0.000163042 6.63497 0.000228794 6.78746 0.000234053
-6.05568 -0.000208853 6.0086 0.000207195 6.71047 0.000231398
-7.46677 -0.000257512 5.1156 0.000176402 6.62979 0.000228616
-8.9559 -0.000308861 3.95635 0.000136428 6.5308 0.000225203
-10.5198 -0.000362789 2.54193 8.76548e-05 6.39925 0.000220666
-12.1556 -0.000419196 0.887739 3.06139e-05 6.21522 0.000214321
-13.8525 -0.000477708 -0.960179 -3.31074e-05 5.95101 0.00020521
-15.595 -0.000537797 -2.97416 -0.000102555 5.58248 0.000192502
-17.3698 -0.000598997 -5.13564 -0.000177089 5.0747 0.000174992
-19.163 -0.00066083 -7.41144 -0.000255565 4.39817 0.000151663
-20.96 -0.000722795 -9.76693 -0.000336789 3.52169 0.00012144
-22.748 -0.00078445 -12.1667 -0.000419539 2.41413 8.32484e-05
-24.514 -0.000845346 -14.5708 -0.00050244 1.07159 3.69538e-05
-26.2452 -0.000905043 -16.9375 -0.000584048 -0.393231 -1.35572e-05
-27.9264 -0.000963015 -19.2371 -0.000663345 -2.04816 -7.06236e-05
-29.5438 -0.00101879 -21.4488 -0.000739613 -3.94529 -0.000136042
-31.0834 -0.00107188 -23.5477 -0.000811988 -6.09131 -0.000210043
-32.5328 -0.00112186 -25.5191 -0.000879966 -8.48018 -0.000292417
-33.8796 -0.0011683 -27.3545 -0.000943257 -11.0844 -0.00038222
-35.1131 -0.00121083 -29.0497 -0.00100171 -13.8776 -0.000478535
-36.2272 -0.00124925 -30.6041 -0.00105531 -16.8325 -0.000580429
-37.2218 -0.00128355 -32.0209 -0.00110417 -19.9165 -0.000686774
-38.1026 -0.00131392 -33.3064 -0.00114849 -23.085 -0.000796031
-38.8791 -0.0013407 -34.4686 -0.00118857 -26.2895 -0.00090653
-39.5633 -0.00136429 -35.5177 -0.00122475 -29.483 -0.00101665
-40.1673 -0.00138512 -36.4663 -0.00125746 -32.6188 -0.00112478
-40.7019 -0.00140355 -37.3287 -0.00128719 -35.6465 -0.00122919
-41.176 -0.0014199 -38.1197 -0.00131447 -38.5152 -0.00132811
-41.5981 -0.00143445 -38.8535 -0.00133977 -41.178 -0.00141993
-41.9771 -0.00144752 -39.5424 -0.00136353 -43.5933 -0.00150321
-42.3234 -0.00145946 -40.1957 -0.00138606 -45.7236 -0.00157667
-42.6639 -0.00147121 -40.7389 -0.00140479 -46.0513 -0.00158797
-42.9878 -0.00148238 -41.2666 -0.00142299 -45.9449 -0.00158431
-43.317 -0.00149373 -41.7842 -0.00144083 -45.8651 -0.00158155
-43.6498 -0.00150521 -42.2625 -0.00145733 -45.9607 -0.00158485
-43.9974 -0.00151719 -42.7232 -0.00147321 -46.1091 -0.00158997
-44.3578 -0.00152962 -43.1566 -0.00148815 -46.105 -0.00158982
-44.7266 -0.00154234 -43.5409 -0.00150141 -45.8199 -0.00157999
-45.0948 -0.00155503 -43.8578 -0.00151234 -45.226 -0.00155952
-45.4465 -0.00156716 -44.1087 -0.00152099 -44.335 -0.00152879
-45.7612 -0.00157801 -44.2863 -0.00152711 -43.1128 -0.00148665
-46.014 -0.00158673 -44.3805 -0.00153036 -41.5782 -0.00143373
-46.1502 -0.00159142 -44.3911 -0.00153073 -39.8073 -0.00137266
-46.1545 -0.00159157 -44.3064 -0.0015278 -37.8548 -0.00130534
-46.0174 -0.00158685 -44.1048 -0.00152085 -35.7387 -0.00123237
-45.7395 -0.00157726 -43.76 -0.00150896 -33.4864 -0.0011547
-45.3322 -0.00156322 -43.2517 -0.00149144 -31.1577 -0.0010744
-44.8076 -0.00154513 -42.5625 -0.00146767 -28.8105 -0.000993465
-44.1751 -0.00152332 -41.6784 -0.00143718 -26.4776 -0.000913018
-43.4419 -0.00149804 -40.5925 -0.00139974 -24.1808 -0.000833817
-42.6104 -0.00146936 -39.3066 -0.0013554 -21.9513 -0.000756939
-41.6769 -0.00143717 -37.8304 -0.00130449 -19.8206 -0.000683466
-40.6325 -0.00140116 -36.1812 -0.00124763 -17.8052 -0.000613971
-39.4633 -0.00136084 -34.3837 -0.00118564 -15.9087 -0.000548572
-38.1514 -0.0013156 -32.4684 -0.0011196 -14.133 -0.000487342
-36.6774 -0.00126478 -30.4687 -0.00105064 -12.4811 -0.000430379
-35.0293 -0.00120795 -28.4173 -0.000979905 -10.9508 -0.000377611
-33.2096 -0.0011452 -26.3428 -0.000908371 -9.53358 -0.000328742
-31.2342 -0.00107708 -24.2689 -0.000836858 -8.21939 -0.000283425
-29.1276 -0.00100444 -22.2149 -0.00076603 -7.00022 -0.000241385
-26.9179 -0.000928243 -20.1965 -0.000696428 -5.86823 -0.00020235
-24.6348 -0.000849513 -18.2263 -0.00062849 -4.81334 -0.000165975
-22.3071 -0.00076925 -16.3145 -0.000562568 -3.82452 -0.000131878
-19.9625 -0.0006884 -14.4692 -0.000498935 -2.89202 -9.97222e-05
-17.6251 -0.000607801 -12.6966 -0.00043781 -2.00751 -6.92221e-05
-15.3145 -0.000528124 -11.0019 -0.000379373 -1.16272 -4.00914e-05
-13.0425 -0.000449779 -9.39021 -0.000323798 -0.348969 -1.2031e-05
-10.8108 -0.000372823 -7.87188 -0.000271442 0.339598 1.17127e-05
-8.61649 -0.000297159 -6.44897 -0.000222376 0.964331 3.32552e-05
-6.45778 -0.000222721 -5.11793 -0.000176478 1.57926 5.44596e-05
-4.34346 -0.000149813 -3.87731 -0.000133698 2.19545 7.57075e-05
-2.29377 -7.91343e-05 -2.71566 -9.36414e-05 2.81405 9.70387e-05
-0.35384 -1.224e-05 -1.61976 -5.58518e-05 3.42105 0.00011797
1.06075 3.65389e-05 -0.554386 -1.91146e-05 4.01807 0.000138557
2.01702 6.95137e-05 0.547447 1.88797e-05 4.60582 0.000158824
2.92747 0.000100909 1.60153 5.52275e-05 5.19526 0.000179149
3.7318 0.000128644 2.57209 8.86949e-05 5.78309 0.000199419
4.42536 0.00015256 3.44572 0.00011882 6.37663 0.000219886
5.0175 0.000172979 4.23505 0.000146038 6.97579 0.000240547
5.49914 0.000189587 4.91836 0.000169601 7.58107 0.000261419
5.87258 0.000202464 5.48444 0.000189121 8.18898 0.000282381
6.15048 0.000212047 5.93444 0.000204638 8.79626 0.000303322
6.33971 0.000218572 6.26163 0.00021592 9.39952 0.000324124
6.45081 0.000222403 6.46039 0.000222774 9.99063 0.000344507
6.49633 0.000223973 6.53233 0.000225255 10.5609 0.000364171
6.47954 0.000223394 6.47943 0.000223431 11.1015 0.000382813
6.40437 0.000220802 6.30884 0.000217548 11.6002 0.00040001
6.27674 0.000216401 6.03344 0.000208052 12.0425 0.000415261
6.1008 0.000210334 5.66793 0.000195448 12.4149 0.000428102
5.88051 0.000202737 5.22865 0.0001803 12.7041 0.000438074
5.62123 0.000193797 4.7328 0.000163202 12.896 0.000444691
5.32888 0.000183716 4.19654 0.00014471 12.9777 0.000447511
4.98584 0.000171887 3.64018 0.000125526 12.9225 0.000445606
4.59441 0.000158389 3.07713 0.00010611 12.7035 0.000438054
4.18337 0.000144216 2.51229 8.66329e-05 12.3133 0.000424599
3.78622 0.000130521 1.94667 6.71288e-05 11.7512 0.000405216
3.42931 0.000118213 1.38185 4.76522e-05 11.0211 0.000380041
3.12698 0.000107788 0.821512 2.83302e-05 10.1288 0.000349273
2.88202 9.93413e-05 0.270978 9.34625e-06 9.08179 0.000313168
2.68594 9.25798e-05 -0.259698 -8.95293e-06 7.89133 0.000272117
2.52211 8.69306e-05 -0.755153 -2.60376e-05 6.57421 0.000226699
2.37188 8.17503e-05 -1.2183 -4.20081e-05 5.14923 0.000177562
2.22094 7.65454e-05 -1.64947 -5.6876e-05 3.63586 0.000125377
2.06367 7.11226e-05 -2.05 -7.06874e-05 2.05907 7.10049e-05
1.8975 6.53924e-05 -2.42516 -8.36241e-05 0.449873 1.55153e-05
1.72029 5.92817e-05 -2.77384 -9.56476e-05 -1.01754 -3.50851e-05
1.53634 5.29386e-05 -3.11391 -0.000107374 -2.43962 -8.41223e-05
1.35334 4.66285e-05 -3.4532 -0.000119074 -3.82091 -0.000131753
1.18124 4.0694e-05 -3.80152 -0.000131085 -5.14126 -0.000177282
1.03352 3.56001e-05 -4.16865 -0.000143744 -6.37651 -0.000219877
0.925296 3.18682e-05 -4.56201 -0.000157309 -7.50141 -0.000258667
0.872391 3.00438e-05 -4.98459 -0.00017188 -8.50029 -0.000293111
0.890794 3.06784e-05 -5.43584 -0.000187441 -9.36518 -0.000322935
0.995421 3.42863e-05 -5.91088 -0.000203821 -10.0885 -0.000347878
1.1992 4.1313e-05 -6.39901 -0.000220653 -10.6638 -0.000367714
1.51345 5.21493e-05 -6.8846 -0.000237398 -11.0899 -0.000382409
1.95 6.72029e-05 -7.3482 -0.000253384 -11.373 -0.000392172
2.32419 8.0106e-05 -7.72369 -0.000266332 -11.5267 -0.000397471
2.55947 8.82191e-05 -7.96201 -0.00027455 -11.5629 -0.00039872
2.87676 9.91599e-05 -8.10822 -0.000279592 -11.4703 -0.000395525
3.25611 0.000112241 -8.14206 -0.000280758 -11.2586 -0.000388224
3.69468 0.000127364 -8.04722 -0.000277488 -10.9358 -0.000377094
4.18204 0.00014417 -7.80668 -0.000269194 -10.5085 -0.000362361
4.70888 0.000162336 -7.41387 -0.000255648 -9.98565 -0.00034433
5.26519 0.00018152 -6.86532 -0.000236733 -9.37379 -0.000323232
5.8388 0.000201299 -6.15951 -0.000212395 -8.67525 -0.000299144
6.41573 0.000221193 -5.30036 -0.000182769 -7.89143 -0.000272116
6.98212 0.000240724 -4.29892 -0.000148236 -7.0237 -0.000242194
7.49942 0.000258562 -3.18191 -0.000109719 -6.06854 -0.000209258
7.88552 0.000271876 -1.96631 -6.78018e-05 -5.02045 -0.000173117
8.14846 0.000280943 -0.640481 -2.20834e-05 -3.88126 -0.000133834
8.30324 0.00028628 0.756432 2.6086e-05 -2.64743 -9.12884e-05
8.3456 0.000287741 2.20268 7.59565e-05 -1.30481 -4.49908e-05
8.29319 0.000285933 3.63856 0.00012547 0.0846219 2.92046e-06
8.16206 0.000281412 4.99271 0.000172164 1.42986 4.93078e-05
7.95531 0.000274282 6.23421 0.000214975 2.84736 9.81873e-05
7.6905 0.000265151 7.31587 0.000252273 4.36193 0.000150414
7.38432 0.000254593 8.20669 0.000282991 5.98115 0.000206249
7.04535 0.000242904 8.88546 0.000306397 7.67155 0.000264539
6.6798 0.000230299 9.34049 0.000322088 9.40377 0.000324271
6.29404 0.000216997 9.56739 0.000329912 11.1587 0.000384785
5.89796 0.000203339 9.5713 0.000330047 12.9184 0.000445464
5.50604 0.000189825 9.36693 0.000323 14.644 0.000504969
5.13207 0.000176929 8.97622 0.000309527 16.2882 0.000561663
4.78382 0.000164921 8.4286 0.000290643 17.8097 0.000614131
4.46373 0.000153883 7.76083 0.000267617 19.174 0.000661176
4.17261 0.000143845 7.0135 0.000241847 20.3416 0.000701435
3.91222 0.000134865 6.22721 0.000214733 21.2694 0.00073343
3.68607 0.000127067 5.44069 0.000187612 21.9214 0.000755913
3.49898 0.000120616 4.68934 0.000161704 22.2722 0.000768009
3.35485 0.000115646 4.00345 0.000138052 22.2912 0.000768664
3.25488 0.000112199 3.40384 0.000117376 21.9125 0.000755607
3.19532 0.000110145 2.90898 0.000100312 21.1164 0.000728155
3.16858 0.000109223 2.52908 8.72119e-05 19.9116 0.00068661
3.16576 0.000109125 2.26549 7.81226e-05 18.3226 0.000631818
3.17977 0.000109609 2.11058 7.27809e-05 16.382 0.0005649
3.20688 0.000110544 2.04785 7.06176e-05 14.1286 0.000487196
3.24502 0.000111859 2.05306 7.07972e-05 11.6123 0.000400427
3.29015 0.000113415 2.0969 7.2309e-05 8.894 0.000306692
3.33317 0.000114898 2.14782 7.4065e-05 6.03922 0.000208251
3.36236 0.000115905 2.17327 7.49424e-05 3.11377 0.000107374
3.36757 0.000116085 2.14057 7.38149e-05 0.224489 7.74348e-06
3.33797 0.000115064 2.04427 7.04943e-05 -2.15395 -7.42718e-05
3.2718 0.000112782 1.82364 6.28863e-05 -4.41382 -0.000152198
3.15783 0.000108852 1.47647 5.09149e-05 -6.53636 -0.000225389
2.97885 0.00010268 0.990595 3.41606e-05 -8.49871 -0.000293057
2.71533 9.35933e-05 0.351087 1.21086e-05 -10.2591 -0.000353759
2.35878 8.12985e-05 -0.441357 -1.5217e-05 -11.7708 -0.000405889
1.92714 6.64146e-05 -1.38025 -4.75925e-05 -13.0238 -0.000449093
1.40916 4.85532e-05 -2.45369 -8.46077e-05 -14.0274 -0.000483702
0.817074 2.81364e-05 -3.64249 -0.000125601 -14.7833 -0.000509765
0.187041 6.41108e-06 -4.92333 -0.000169768 -15.2865 -0.00052712
-0.429171 -1.48376e-05 -6.26005 -0.000215862 -15.5499 -0.000536203
-1.05018 -3.62516e-05 -7.62415 -0.0002629 -15.5985 -0.000537877
-1.72299 -5.9452e-05 -8.96478 -0.000309128 -15.446 -0.000532618
-2.37347 -8.18824e-05 -10.2591 -0.000353759 -15.1079 -0.00052096
-2.98546 -0.000102986 -11.4681 -0.000395448 -14.6158 -0.00050399
-3.54195 -0.000122175 -12.5539 -0.000432892 -14.0118 -0.000483162
-4.02855 -0.000138954 -13.4821 -0.000464899 -13.336 -0.000459859
-4.42994 -0.000152795 -14.2208 -0.00049037 -12.6216 -0.000435224
-4.73271 -0.000163236 -14.7445 -0.000508429 -11.8966 -0.000410225
-4.92546 -0.000169882 -15.0343 -0.000518422 -11.1879 -0.000385788
-4.99951 -0.000172436 -15.0769 -0.000519889 -10.5189 -0.000362718
-4.94965 -0.000170716 -14.8652 -0.00051259 -9.90471 -0.000341539
-4.78469 -0.000165028 -14.3966 -0.000496431 -9.35248 -0.000322497
-4.53356 -0.000156368 -13.6745 -0.000471532 -8.86316 -0.000305624
-4.21612 -0.000145422 -12.714 -0.00043841 -8.43143 -0.000290736
-3.85192 -0.000132863 -11.539 -0.000397894 -8.04531 -0.000277422
-3.45668 -0.000119235 -10.183 -0.000351135 -7.68521 -0.000265005
-2.95072 -0.000101787 -8.70829 -0.000300284 -7.3225 -0.000252497
-2.41611 -8.33528e-05 -7.14133 -0.000246251 -6.93701 -0.000239205
-1.87432 -6.46705e-05 -5.52724 -0.000190592 -6.49924 -0.000224109
-1.33159 -4.59555e-05 -3.91143 -0.000134875 -5.98271 -0.000206298
-0.798739 -2.75813e-05 -2.34204 -8.07578e-05 -5.36239 -0.000184908
-0.287245 -9.94362e-06 -0.864344 -2.98028e-05 -4.61475 -0.000159127
0.16236 5.56001e-06 0.469246 1.61831e-05 -3.72061 -0.000128294
0.574845 1.97836e-05 1.648 5.68299e-05 -2.67247 -9.21517e-05
0.98257 3.38431e-05 2.664 9.18643e-05 -1.47648 -5.09108e-05
1.40034 4.82489e-05 3.47068 0.000119681 -0.12494 -4.3058e-06
1.83493 6.32347e-05 4.04312 0.00013942 1.18674 4.09246e-05
2.30512 7.94483e-05 4.399 0.000151692 2.58419 8.91126e-05
2.79802 9.64449e-05 4.55395 0.000157035 4.05657 0.000139884
2.98495 0.000102891 4.63507 0.000159832 5.56449 0.000191881
3.19311 0.000110069 4.57055 0.000157607 7.09035 0.000244497
3.43104 0.000118273 4.37767 0.000150956 8.57867 0.000295819
3.71747 0.00012815 4.09138 0.000141084 9.99328 0.000344598
4.06488 0.00014013 3.75068 0.000129336 11.3112 0.000390042
4.47854 0.000154394 3.39527 0.00011708 12.4955 0.000430882
4.96117 0.000171036 3.06811 0.000105799 13.4987 0.000465476
5.50732 0.000189869 2.80964 9.68862e-05 14.289 0.000492727
6.10946 0.000210632 2.6595 9.17092e-05 14.8477 0.000511991
6.75724 0.00023297 2.65146 9.14319e-05 15.1579 0.00052269
7.4377 0.000256434 2.80915 9.68694e-05 15.1997 0.000524131
8.1409 0.000280682 3.14413 0.00010842 14.9392 0.000515149
8.86132 0.000305524 3.65927 0.000126184 14.3793 0.000495839
9.59411 0.000330793 4.34517 0.000149836 13.5436 0.000467024
10.3332 0.000356277 5.18215 0.000178697 12.466 0.000429864
11.0704 0.000381698 6.14309 0.000211833 11.1876 0.000385781
11.7715 0.000405874 7.20111 0.000248316 9.75564 0.000336404
12.4009 0.000427578 8.32309 0.000287005 8.22433 0.0002836
12.9721 0.000447276 9.45531 0.000326047 6.65542 0.0002295
13.4982 0.000465415 10.5415 0.000363504 5.1102 0.000176216
13.9929 0.000482474 11.5284 0.000397534 3.6481 0.000125799
14.4703 0.000498938 12.3675 0.000426466 2.32413 8.01448e-05
14.9428 0.000515232 13.0173 0.000448875 1.18631 4.09096e-05
15.4194 0.000531664 13.4488 0.000463754 0.298781 1.03053e-05
15.9033 0.000548351 13.6486 0.000470644 -0.293543 -1.01197e-05
16.3939 0.000565268 13.6101 0.000469316 -0.626197 -2.15905e-05
16.6759 0.000574993 13.4121 0.000462488 -0.745055 -2.56891e-05
16.8417 0.000580709 13.042 0.000449725 -0.637466 -2.19791e-05
16.9328 0.00058385 12.4974 0.000430947 -0.292458 -1.00823e-05
16.9727 0.000585228 11.8079 0.000407172 0.237527 8.19304e-06
16.9745 0.000585291 11.0062 0.000379525 0.921799 3.17886e-05
16.9481 0.000584378 10.1363 0.00034953 1.73813 5.99379e-05
16.9097 0.000583056 9.2449 0.000318792 2.65048 9.13985e-05
16.8736 0.000581809 8.37715 0.000288869 3.62159 0.000124885
16.8543 0.000581144 7.58007 0.000261384 4.60964 0.000158956
16.8692 0.000581657 6.8987 0.000237888 5.57264 0.000192162
16.9345 0.00058391 6.37078 0.000219684 6.47346 0.000223225
17.0654 0.000588423 6.02796 0.000207863 7.28363 0.000251162
17.2753 0.00059566 5.89616 0.000203318 7.97893 0.000275138
17.5744 0.000605974 5.99257 0.000206643 8.53943 0.000294466
17.9686 0.000619567 6.32497 0.000218105 8.95317 0.000308733
18.4398 0.000635815 6.88603 0.000237451 9.21981 0.000317927
18.9747 0.00065426 7.64966 0.000263784 9.3504 0.00032243
19.58 0.000675135 8.61189 0.000296964 9.35069 0.00032244
20.263 0.000698685 9.75741 0.000336465 9.22739 0.000318188
20.9961 0.000723966 11.0508 0.000381063 9.0086 0.000310644
21.7361 0.000749482 12.4724 0.000430086 8.72496 0.000300863
22.4421 0.000773826 13.9909 0.000482448 8.41286 0.000290101
23.0821 0.000795897 15.5625 0.00053664 8.11308 0.000279764
23.6337 0.000814917 17.1421 0.000591108 7.86689 0.000271274
24.0848 0.000830473 18.6797 0.00064413 7.71521 0.000266044
24.4304 0.00084239 20.1215 0.000693848 7.69714 0.000265421
24.668 0.000850582 21.418 0.000738555 7.84677 0.000270581
24.7888 0.000854747 22.5277 0.000776818 8.19046 0.000282432
24.7767 0.00085433 23.4176 0.000807505 8.7455 0.000301571
24.6051 0.000848413 24.0579 0.000829585 9.48573 0.000327097
24.2536 0.000836292 24.4213 0.000842116 10.3723 0.000357668
23.712 0.000817618 24.5062 0.000845042 11.4376 0.000394402
22.9698 0.000792025 24.314 0.000838416 12.6731 0.000437005
22.0172 0.000759177 23.8558 0.000822616 14.0494 0.000484465
20.8537 0.000719055 23.1494 0.000798256 15.5268 0.00053541
19.4896 0.000672017 22.2164 0.000766085 17.0593 0.000588254
17.9459 0.000618785 21.081 0.000726934 18.6031 0.000641489
16.2522 0.000560382 19.7704 0.00068174 20.1104 0.000693465
14.4404 0.000497907 18.3147 0.000631542 21.5273 0.000742324
12.5427 0.000432469 16.7455 0.000577433 22.7984 0.000786154
10.5939 0.00036527 15.0949 0.000520515 23.8727 0.000823197
8.63253 0.000297635 13.3934 0.000461843 24.7034 0.000851842
6.69728 0.000230902 11.67 0.000402415 25.2466 0.000870574
4.82072 0.000166193 9.95267 0.000343198 25.4625 0.000878021
3.0252 0.000104279 8.26736 0.000285083 25.2957 0.000872268
1.32908 4.57919e-05 6.63755 0.000228883 24.7014 0.000851776
-0.17637 -6.12034e-06 5.11039 0.000176222 23.6563 0.000815737
-1.51083 -5.21362e-05 3.71017 0.000127939 22.1552 0.000763977
-2.43479 -8.39969e-05 2.30312 7.942e-05 20.2403 0.000697943
-3.25165 -0.000112165 0.985612 3.39888e-05 17.9013 0.000617288
-3.96343 -0.000136709 -0.217612 -7.50168e-06 15.1728 0.000523203
-4.5757 -0.000157821 -1.30758 -4.50868e-05 12.093 0.000417001
-5.10205 -0.000175971 -2.27485 -7.84409e-05 8.71428 0.000300495
-5.54524 -0.000191254 -3.14286 -0.000108372 5.08674 0.000175407
-5.9241 -0.000204318 -3.93196 -0.000135583 1.27896 4.41046e-05
-6.2717 -0.000216304 -4.61922 -0.000159281 -1.9338 -6.66801e-05
-6.60557 -0.000227817 -5.26736 -0.000181631 -5.03458 -0.000173604
-6.95811 -0.000239973 -5.88591 -0.00020296 -8.11389 -0.000279787
-7.35909 -0.0002538 -6.49027 -0.0002238 -11.1622 -0.000384903
-7.83159 -0.000270094 -7.10516 -0.000245003 -14.1159 -0.000486752
-8.392 -0.000289418 -7.75879 -0.000267542 -16.8809 -0.000582098
-9.04926 -0.000312082 -8.47221 -0.000292143 -19.4075 -0.000669221
-9.80511 -0.000338146 -9.26495 -0.000319479 -21.6865 -0.000747806
-10.6571 -0.000367526 -10.1575 -0.000350258 -23.6928 -0.000816989
-11.6008 -0.000400065 -11.165 -0.000384997 -25.3791 -0.000875138
-12.6286 -0.000435509 -12.2932 -0.0004239 -26.7135 -0.000921153
-13.7305 -0.000473505 -13.5413 -0.00046694 -27.6982 -0.000955108
-14.895 -0.000513659 -14.9024 -0.000513874 -28.3451 -0.000977416
-16.1124 -0.000555639 -16.3604 -0.00056415 -28.6574 -0.000988183
-17.3771 -0.000599247 -17.8895 -0.000616878 -28.6292 -0.00098721
-18.6857 -0.000644374 -19.4546 -0.000670846 -28.2459 -0.000973994
-20.0339 -0.000690863 -21.021 -0.000724859 -27.544 -0.000949789
-21.4136 -0.000738438 -22.5511 -0.00077762 -26.5719 -0.000916271
-22.8135 -0.000786711 -24.0075 -0.000827842 -25.3793 -0.000875144
-24.2217 -0.000835271 -25.3548 -0.000874301 -24.019 -0.000828239
-25.6268 -0.000883722 -26.5607 -0.000915884 -22.5457 -0.000777435
-27.0151 -0.000931594 -27.5978 -0.000951648 -21.013 -0.000724585
-28.368 -0.000978245 -28.4465 -0.000980913 -19.4703 -0.000671389
-29.663 -0.0010229 -29.0955 -0.00100329 -17.9622 -0.000619385
-30.8775 -0.00106478 -29.5412 -0.00101866 -16.5278 -0.000569921
-31.9916 -0.0011032 -29.786 -0.0010271 -15.2003 -0.000524146
-32.9919 -0.00113769 -29.8379 -0.00102889 -14.0064 -0.000482976
-33.8752 -0.00116815 -29.7085 -0.00102443 -12.9657 -0.000447091
-34.6499 -0.00119486 -29.4126 -0.00101423 -12.0911 -0.000416934
-35.3317 -0.00121837 -28.9688 -0.000998922 -11.3889 -0.000392718
-35.9401 -0.00123935 -28.4006 -0.000979329 -10.8584 -0.000374426
-36.4948 -0.00125848 -27.7369 -0.000956444 -10.4927 -0.000361813
-37.0123 -0.00127632 -27.0121 -0.000931449 -10.2786 -0.00035443
-37.5046 -0.0012933 -26.265 -0.000905686 -10.1984 -0.000351666
-37.98 -0.00130969 -25.5373 -0.000880593 -10.2311 -0.000352796
-38.4448 -0.00132572 -24.871 -0.000857619 -10.354 -0.000357034
-38.9047 -0.00134158 -24.3064 -0.00083815 -10.544 -0.000363582
-39.3638 -0.00135741 -23.8802 -0.000823453 -10.779 -0.000371689
-39.824 -0.00137328 -23.6242 -0.000814625 -11.0401 -0.000380692
-40.2845 -0.00138916 -23.5639 -0.000812546 -11.3119 -0.000390064
-40.7418 -0.00140493 -23.7173 -0.000817837 -11.5838 -0.000399437
-41.1908 -0.00142041 -24.0937 -0.000830817 -11.8505 -0.000408636
-41.625 -0.00143538 -24.6929 -0.000851477 -12.113 -0.000417686
-42.0255 -0.00144919 -25.508 -0.000879584 -12.3773 -0.000426802
-42.2921 -0.00145839 -26.5465 -0.000915393 -12.6509 -0.000436236
-42.4143 -0.0014626 -27.7776 -0.000957845 -12.9537 -0.000446676
-42.3959 -0.00146197 -29.1536 -0.00100529 -13.3098 -0.000458957
-42.2495 -0.00145692 -30.6165 -0.00105574 -13.7465 -0.000474016
-41.9834 -0.00144774 -32.1038 -0.00110702 -14.2932 -0.000492867
-41.5995 -0.00143451 -33.5502 -0.0011569 -14.978 -0.00051648
-41.0987 -0.00141723 -34.8957 -0.0012033 -15.8233 -0.000545629
-40.4759 -0.00139576 -36.0857 -0.00124433 -16.8461 -0.000580899
-39.7185 -0.00136964 -37.073 -0.00127838 -18.0563 -0.000622629
-38.8065 -0.00133819 -37.8205 -0.00130415 -19.4543 -0.000670835
-37.7141 -0.00130052 -38.3014 -0.00132074 -21.0305 -0.000725187
-36.4149 -0.00125572 -38.4976 -0.0013275 -22.766 -0.000785031
-34.8851 -0.00120297 -38.3997 -0.00132413 -24.6326 -0.000849399
-33.1049 -0.00114159 -38.0062 -0.00131056 -26.5934 -0.000917012
-31.0626 -0.00107116 -37.32 -0.00128689 -28.5646 -0.000984982
-28.7636 -0.000991888 -36.3279 -0.00125268 -30.2339 -0.00104254
-26.2204 -0.000904191 -35.0659 -0.00120917 -31.8262 -0.00109745
-23.4628 -0.000809102 -33.5378 -0.00115647 -33.3405 -0.00114967
-20.5271 -0.000707871 -31.7583 -0.00109511 -34.7408 -0.00119796
-17.4506 -0.000601782 -29.7489 -0.00102582 -35.9604 -0.00124001
-14.2658 -0.000491963 -27.5342 -0.000949454 -36.9278 -0.00127337
-10.9978 -0.000379274 -25.1406 -0.000866916 -37.6062 -0.00129676
-7.66564 -0.000264371 -22.5994 -0.000779286 -37.9662 -0.00130918
-4.28634 -0.000147844 -19.9423 -0.000687663 -37.942 -0.00130834
-1.83678 -6.33763e-05 -16.971 -0.000585205 -37.4665 -0.00129195
0.478132 1.64483e-05 -13.9458 -0.000480886 -36.4203 -0.00125587
2.59957 8.96013e-05 -11.0408 -0.000380716 -34.7796 -0.0011993
4.65603 0.000160514 -8.21417 -0.000283245 -32.5572 -0.00112266
6.66813 0.000229896 -5.42247 -0.00018698 -29.7464 -0.00102573
8.57992 0.00029582 -2.73332 -9.42504e-05 -26.3454 -0.000908461
10.3788 0.000357851 -0.177368 -6.114e-06 -22.3865 -0.000771944
12.0834 0.000416629 2.26896 7.8242e-05 -17.9164 -0.000617805
13.6752 0.000471521 4.64492 0.000160172 -12.9733 -0.000447352
15.1498 0.000522369 6.92226 0.000238701 -7.64144 -0.000263495
16.5296 0.000569948 9.08943 0.000313431 -1.99729 -6.88695e-05
17.8322 0.000614866 11.1114 0.000383154 3.2557 0.000112268
19.068 0.000657479 13.0389 0.00044962 8.29267 0.000285957
20.2749 0.000699095 14.9025 0.000513882 13.3641 0.000460835
21.4788 0.000740611 16.7071 0.000576109 18.4765 0.000637123
22.7129 0.000783164 18.4822 0.00063732 23.5348 0.000811546
24.0064 0.000827769 20.2548 0.000698445 28.3763 0.000978494
25.3848 0.000875299 22.0416 0.000760058 32.9319 0.00113559
26.8674 0.000926425 23.8624 0.000822845 37.194 0.00128256
28.4685 0.000981634 25.74 0.000887587 41.122 0.001418
30.1977 0.00104126 27.6922 0.000954905 44.6243 0.00153877
32.0627 0.00110557 29.7289 0.00102514 47.6379 0.00164269
34.0846 0.00117529 31.7563 0.00109505 48.4405 0.00167037
36.2358 0.00124947 33.8734 0.00116805 48.4944 0.00167223
38.5198 0.00132823 36.1121 0.00124525 48.4698 0.00167138
40.9091 0.00141062 38.4209 0.00132486 48.587 0.00167542
43.3932 0.00149628 40.8153 0.00140743 48.7622 0.00168146
45.9462 0.00158432 43.2672 0.00149198 48.7809 0.00168211
48.5505 0.00167412 45.7346 0.00157706 48.4617 0.0016711
51.1863 0.00176502 48.1657 0.0016609 47.7377 0.00164613
53.8332 0.0018563 50.5353 0.00174261 46.6746 0.00160948
44.9148 0.00154877 0 0.457725 28.5884 0.000985814
49.7315 0.00171486 0 0.496661 33.5556 0.0011571
50.8347 0.0017529 0 0.515348 30.9816 0.00106834
53.2298 0.00183549 0 0.529514 26.365 0.000909145
55.1253 0.00190085 0 0.573315 24.1938 0.000834277
56.1408 0.00193587 0 0.611439 23.0945 0.000796371
57.8671 0.0019954 0 0.639693 19.9462 0.000687808
59.6669 0.00205746 0 0.665468 17.1622 0.000591808
60.5753 0.00208878 0 0.698476 16.1331 0.000556322
60.9704 0.00210241 0 0.727834 15.6803 0.000540707
61.3428 0.00211525 0 0.748999 14.7564 0.00050885
61.8111 0.0021314 0 0.769533 14.3591 0.000495151
62.2066 0.00214504 0 0.793239 15.1998 0.000524141
62.5659 0.00215743 0 0.81854 16.338 0.000563386
62.8857 0.00216845 0 0.84089 17.5031 0.000603565
63.2513 0.00218106 0 0.862188 18.9509 0.000653489
63.572 0.00219212 0 0.885897 20.9784 0.0007234
59.5645 0.00205393 0 0.88751 26.0688 0.000898931
56.9117 0.00196245 0 0.880578 29.3575 0.00101234
60.613 0.00209008 0 0.908427 31.1113 0.00107281
0 0.530005 0 0.898988 37.3052 0.00128639
0 0.858957 0 0.887147 35.8169 0.00123507
0 0.897368 0 0.900946 40.3877 0.00139269
0 0.899002 0 0.930251 42.6782 0.00147167
0 0.947937 0 0.990427 42.1252 0.0014526
0 0.980461 0 1.03219 41.7408 0.00143935
0 0.997526 0 1.06834 41.9692 0.00144722
0 1.02697 0 1.12122 42.489 0.00146515
0 1.05045 0 1.17247 42.8125 0.0014763
0 1.073 0 1.21391 43.0462 0.00148436
0 1.11312 0 1.25332 43.6166 0.00150403
0 1.14807 0 1.29797 43.7771 0.00150956
0 1.17832 0 1.33938 43.719 0.00150756
0 1.2102 0 1.37804 43.5921 0.00150318
0 1.24072 0 1.4162 43.66 0.00150552
0 1.26705 0 1.45363 43.8331 0.00151149
0 1.29202 0 1.48908 43.9111 0.00151418
0 1.31576 0 1.52191 44.0109 0.00151763
0 1.33561 0 1.55304 44.2985 0.00152754
0 1.35227 0 1.58345 44.6199 0.00153862
0 1.36663 0 1.61212 44.8716 0.0015473
0 1.37793 0 1.63824 45.1969 0.00155852
0 1.3861 0 1.66266 45.6332 0.00157357
0 1.3914 0 1.67392 46.1007 0.00158969
0 1.38844 0 1.61518 44.0061 0.00151746
0 1.38867 0 1.60023 46.0364 0.00158747
0 1.39015 0 1.63071 47.6406 0.00164279
0 1.39038 0 1.66177 48.9432 0.00168771
0 1.39089 0 1.68524 49.1576 0.0016951
0 1.39348 0 1.716 49.035 0.00169087
0 1.39859 0 1.74518 49.9216 0.00172144
0 1.39853 0 1.77617 50.8763 0.00175436
0 1.40161 0 1.80486 51.1078 0.00176235
0 1.40723 0 1.83256 51.4173 0.00177302
0 1.41164 0 1.86056 44.1034 0.00152081
0 1.41855 0 1.89177 49.4707 0.0017059
0 1.41908 0 1.92493 53.0472 0.00182922
0 1.41981 0 1.95475 53.6085 0.00184858
0 1.42311 0 1.98683 53.4503 0.00184312
0 1.42472 0 2.01874 53.875 0.00185777
0 1.42577 0 2.04945 54.828 0.00189063
0 1.42805 0 2.08079 55.7479 0.00192235
0 1.42982 0 2.1123 56.1366 0.00193575
0 1.43134 0 2.14346 56.4092 0.00194515
0 1.43342 0 2.17442 57.0379 0.00196683
0 1.43538 0 2.20524 57.8351 0.00199432
0 1.43719 0 2.23599 58.4433 0.00201529
0 1.43897 0 2.26665 58.8512 0.00202936
0 1.44047 0 2.29696 59.2801 0.00204415
0 1.44193 0 2.32686 59.876 0.0020647
0 1.44311 0 2.3564 60.4981 0.00208615
0 1.44386 0 2.38544 60.9556 0.00210193
0 1.44411 0 2.41381 61.3264 0.00211471
0 1.44691 0 2.43658 44.7415 0.00154282
0 1.45965 0 2.44517 16.4366 0.000566788
0 1.46028 0 2.47371 10.3014 0.00035523
0 1.4601 0 2.49627 12.8548 0.000443278
0 1.45958 0 2.51813 17.5874 0.00060647
0 1.45912 0 2.53988 17.6129 0.000607349
0 1.45851 0 2.55992 14.4126 0.000496994
0 1.45769 0 2.57742 13.4583 0.000464086
0 1.45675 0 2.59382 15.6154 0.00053847
0 1.45541 0 2.60876 17.2477 0.000594757
0 1.45235 0 2.62225 16.361 0.000564181
0 1.44608 0 2.63491 15.0236 0.000518063
0 1.43695 0 2.64664 15.4043 0.00053119
0 1.42638 0 2.65707 16.6542 0.000574291
0 1.41554 0 2.6659 16.9212 0.000583497
0 1.40442 0 2.67298 16.2424 0.000560092
0 1.39275 0 2.67837 15.9587 0.00055031
0 1.38057 0 2.68224 16.4742 0.000568085
0 1.36808 0 2.68451 16.9645 0.000584992
0 1.35533 0 2.68505 16.8584 0.000581334
0 1.34212 0 2.68474 16.55 0.000570698
0 1.32838 0 2.68408 16.6089 0.000572728
0 1.31418 0 2.68304 16.9096 0.000583096
0 1.30243 0 2.68194 17.0165 0.000586785
0 1.29079 0 2.6799 16.8477 0.000580962
0 1.28083 0 2.67443 16.4076 0.000565788
0 1.27211 0 2.66586 15.6973 0.000541295
0 1.26383 0 2.65531 14.7084 0.000507194
0 1.25624 0 2.64315 13.4113 0.000462465
0 1.2494 0 2.62984 11.7514 0.000405228
0 1.24314 0 2.61509 9.77546 0.000337093
0 1.23731 0 2.59905 7.85054 0.000270716
0 1.23167 0 2.5825 6.08661 0.000209891
0 1.22625 0 2.56509 4.2367 0.000146101
0 1.22081 0 2.54669 2.86572 9.8826e-05
0 1.21501 0 2.52932 2.37613 8.19435e-05
0 1.20922 0 2.51238 2.0919 7.21424e-05
0 1.20333 0 2.49504 1.86718 6.43934e-05
0 1.19703 0 2.47737 1.54834 5.3399e-05
0 1.19013 0 2.45915 0.996174 3.43589e-05
0 1.18291 0 2.44038 0.347607 1.19945e-05
0 1.17531 0 2.42127 -0.204071 -7.0289e-06
0 1.16703 0 2.40177 -0.651129 -2.24447e-05
0 1.15804 0 2.38175 -1.11942 -3.85927e-05
0 1.14847 0 2.36123 -1.69058 -5.82877e-05
0 1.13825 0 2.34019 -2.34857 -8.09772e-05
0 1.12731 0 2.31851 -3.01615 -0.000103997
0 1.11569 0 2.29616 -3.63283 -0.000125262
0 1.10348 0 2.27309 -4.21158 -0.000145219
0 1.09069 0 2.24918 -4.81002 -0.000165855
0 1.0774 0 2.22432 -5.45655 -0.000188149
0 1.06373 0 2.19844 -6.12583 -0.000211228
0 1.04987 0 2.17145 -6.77558 -0.000233633
0 1.03602 0 2.14322 -7.3888 -0.000254778
0 1.02244 0 2.11365 -7.98049 -0.000275181
0 1.00938 0 2.08265 -8.57482 -0.000295675
0 0.997048 0 2.05019 -9.17773 -0.000316466
0 0.985723 0 2.01628 -9.77355 -0.000337011
0 0.975828 0 1.98102 -10.3463 -0.00035676
0 0.967184 0 1.9445 -10.8941 -0.000375651
0 0.95967 0 1.90679 -11.4281 -0.000394064
0 0.953319 0 1.86803 -11.9618 -0.000412467
0 0.948267 0 1.82847 -12.4996 -0.000431011
0 0.944476 0 1.78839 -13.0356 -0.000449495
0 0.941696 0 1.74807 -13.5644 -0.000467731
0 0.939718 0 1.7078 -14.0916 -0.000485908
0 0.938402 0 1.66794 -14.629 -0.00050444
0 0.937586 0 1.62881 -15.1847 -0.000523604
0 0.937065 0 1.59072 -15.7594 -0.000543418
0 0.936657 0 1.55396 -16.3508 -0.000563811
0 0.936242 0 1.51878 -16.9598 -0.000584813
0 0.935709 0 1.48541 -17.5905 -0.00060656
0 0.93495 0 1.45404 -18.2466 -0.000629186
0 0.933898 0 1.42479 -18.929 -0.000652717
0 0.932555 0 1.39776 -19.6351 -0.000677064
0 0.930968 0 1.37298 -20.3617 -0.00070212
0 0.929212 0 1.35042 -21.1056 -0.00072777
0 0.927385 0 1.33003 -21.8643 -0.000753935
0 0.925565 0 1.31174 -22.6356 -0.000780529
0 0.923821 0 1.2954 -23.4143 -0.000807381
0 0.922216 0 1.28089 -24.1946 -0.00083429
0 0.9208 0 1.26804 -24.9705 -0.000861043
0 0.919591 0 1.2567 -25.7363 -0.00088745
0 0.918598 0 1.24671 -26.4865 -0.00091332
0 0.917802 0 1.2379 -27.2154 -0.000938454
0 0.917208 0 1.23008 -27.9175 -0.000962665
0 0.916834 0 1.22307 -28.5865 -0.000985735
0 0.916693 0 1.21668 -29.216 -0.00100744
0 0.916718 0 1.21075 -29.8009 -0.00102761
0 0.916783 0 1.20515 -30.3373 -0.00104611
0 0.916884 0 1.19973 -30.82 -0.00106275
0 0.917017 0 1.19441 -31.2458 -0.00107743
0 0.917172 0 1.18908 -31.6116 -0.00109005
0 0.917331 0 1.1837 -31.9146 -0.0011005
0 0.91748 0 1.17825 -32.1532 -0.00110872
0 0.917602 0 1.17272 -32.3265 -0.0011147
0 0.917679 0 1.16716 -32.4347 -0.00111843
0 0.917692 0 1.16161 -32.4782 -0.00111993
0 0.91761 0 1.15617 -32.3606 -0.00111587
0 0.917389 0 1.1511 -31.8178 -0.00109716
0 0.916998 0 1.14653 -30.7949 -0.00106189
0 0.915727 0 1.14267 -29.3148 -0.00101085
0 0.911704 0 1.14029 -27.4719 -0.0009473
0 0.906427 0 1.13919 -25.2679 -0.0008713
0 0.899874 0 1.13922 -22.7318 -0.000783846
0 0.892308 0 1.13967 -19.8721 -0.000685236
0 0.883622 0 1.14042 -16.7121 -0.000576271
0 0.873935 0 1.14148 -13.2837 -0.000458049
0 0.863477 0 1.14288 -9.63426 -0.000332208
0 0.852345 0 1.14458 -5.80682 -0.000200227
0 0.840593 0 1.14661 -1.80525 -6.2242e-05
0 0.828243 0 1.15008 -0.201036 -6.92425e-06
0 0.815458 0 1.15579 0.0354108 1.22909e-06
0 0.801589 0 1.16522 0.0115327 4.05705e-07
0 0.787393 0 1.17693 0.0450882 1.56279e-06
0 0.772831 0 1.18954 0.360725 1.24468e-05
0 0.758039 0 1.20279 0.860126 2.96675e-05
0 0.743127 0 1.21637 1.28013 4.41505e-05
0 0.728248 0 1.23015 1.50388 5.18658e-05
0 0.713576 0 1.24399 1.63235 5.6296e-05
0 0.699231 0 1.2576 1.83773 6.3378e-05
0 0.685295 0 1.27078 2.18276 7.52756e-05
0 0.671777 0 1.28349 2.5821 8.90461e-05
0 0.658612 0 1.29566 2.91701 0.000100595
0 0.645683 0 1.30728 3.15967 0.000108962
0 0.632853 0 1.31827 3.37885 0.00011652
0 0.619991 0 1.32862 3.65068 0.000125894
0 0.606973 0 1.33833 3.98118 0.00013729
0 0.593679 0 1.34742 4.314 0.000148767
0 0.580026 0 1.35587 4.59913 0.000158599
0 0.565984 0 1.3636 4.83956 0.000166889
0 0.551588 0 1.37056 5.07585 0.000175037
0 0.536925 0 1.37667 5.33705 0.000184044
0 0.522219 0 1.38161 5.60787 0.000193383
0 0.507838 0 1.38535 5.85669 0.000201963
0 0.493479 0 1.38838 6.08988 0.000210004
0 0.479071 0 1.39023 6.29532 0.000217088
0 0.465048 0 1.391 6.48596 0.000223662
0 0.451553 0 1.39098 6.67689 0.000230245
0 0.43836 0 1.39068 6.85107 0.000236252
0 0.425584 0 1.3898 7.01491 0.000241902
0 0.413658 0 1.38681 7.1725 0.000247336
0 0.402415 0 1.38258 7.28874 0.000251344
0 0.39208 0 1.37768 7.3916 0.000254891
0 0.38274 0 1.37175 7.47461 0.000257753
0 0.374365 0 1.36489 7.551 0.000260387
0 0.367038 0 1.35696 7.60021 0.000262084
0 0.360921 0 1.3479 7.36995 0.000254144
0 0.356092 0 1.33771 6.80697 0.000234731
0 0.352473 0 1.32655 5.88075 0.000202792
0 0.350052 0 1.31444 4.60384 0.000158761
0 0.348824 0 1.3016 3.43034 0.000118295
0 0.348664 0 1.28841 2.2817 7.86874e-05
0 0.348819 0 1.27505 1.8164 6.26424e-05
0 0.349175 0 1.26142 1.4712 5.0739e-05
0 0.3497 0 1.2477 1.10486 3.81068e-05
0 0.350405 0 1.23395 0.598311 2.06394e-05
0 0.351276 0 1.22041 -0.0772308 -2.6551e-06
0 0.352303 0 1.20707 -0.839414 -2.89373e-05
0 0.35348 0 1.19403 -1.59691 -5.50577e-05
0 0.3548 0 1.18141 -2.34153 -8.07344e-05
0 0.356253 0 1.16926 -3.13468 -0.000108084
0 0.357822 0 1.15762 -4.0264 -0.000138833
0 0.359493 0 1.14651 -5.00552 -0.000172596
0 0.361264 0 1.13591 -6.01868 -0.000207533
0 0.363423 0 1.12579 -7.02564 -0.000242255
0 0.366655 0 1.11585 -8.02601 -0.000276751
0 0.371653 0 1.10608 -9.05429 -0.000312209
0 0.378987 0 1.09634 -10.1194 -0.000348938
0 0.388483 0 1.08661 -11.2011 -0.000386236
0 0.39931 0 1.07694 -12.2681 -0.000423031
0 0.410725 0 1.06742 -13.305 -0.000458785
0 0.422642 0 1.05914 -14.3236 -0.000493911
0 0.434896 0 1.05114 -15.3364 -0.000528833
0 0.446937 0 1.04324 -16.2995 -0.000562044
0 0.458758 0 1.03511 -17.2447 -0.000594636
0 0.470407 0 1.02673 -18.1618 -0.00062626
0 0.481824 0 1.01826 -19.0136 -0.000655634
0 0.492793 0 1.00966 -19.8041 -0.000682892
0 0.50327 0 1.00082 -20.5438 -0.0007084
0 0.513308 0 0.991744 -21.2311 -0.000732101
0 0.52289 0 0.982446 -21.8594 -0.000753763
0 0.531939 0 0.972959 -22.418 -0.000773027
0 0.540405 0 0.963349 -22.9018 -0.00078971
0 0.548275 0 0.953676 -23.3172 -0.000804034
0 0.555533 0 0.943989 -23.67 -0.000816197
0 0.562139 0 0.934374 -23.9578 -0.000826123
0 0.568065 0 0.924948 -24.1773 -0.000833692
0 0.573307 0 0.91583 -24.3289 -0.000838919
0 0.577872 0 0.907125 -24.4165 -0.00084194
0 0.581777 0 0.898942 -24.4452 -0.000842931
0 0.585036 0 0.891409 -24.3578 -0.000839915
0 0.587603 0 0.884752 -24.0041 -0.00082772
0 0.589474 0 0.879092 -23.3592 -0.000805482
0 0.590619 0 0.874544 -22.4418 -0.000773846
0 0.590756 0 0.871182 -21.2887 -0.000734085
0 0.590676 0 0.869046 -19.9281 -0.000687168
0 0.590552 0 0.868396 -18.3788 -0.000633744
0 0.590415 0 0.86868 -16.6342 -0.000573584
0 0.59026 0 0.869311 -14.6933 -0.000506658
0 0.59009 0 0.870303 -12.5917 -0.000434188
0 0.589905 0 0.871677 -10.3614 -0.00035728
0 0.58967 0 0.87349 -8.02259 -0.000276633
0 0.589024 0 0.877912 -5.65453 -0.000194976
0 0.587109 0 0.887797 -3.34198 -0.000115233
0 0.584224 0 0.901428 -0.980149 -3.37902e-05
0 0.580894 0 0.916834 0.0581413 2.0129e-06
0 0.57752 0 0.932482 0.165499 5.71489e-06
0 0.573589 0 0.949496 0.0461533 1.59952e-06
0 0.569218 0 0.96787 -0.00276084 -8.71752e-08
0 0.564206 0 0.987298 0.14381 4.96698e-06
0 0.558646 0 1.0076 0.409792 1.41388e-05
0 0.552714 0 1.02841 0.604039 2.0837e-05
0 0.546537 0 1.04937 0.662162 2.28412e-05
0 0.540163 0 1.07029 0.67973 2.3447e-05
0 0.53366 0 1.09094 0.77014 2.65646e-05
0 0.527094 0 1.11107 0.960274 3.31209e-05
0 0.520479 0 1.13042 1.18222 4.07743e-05
0 0.513789 0 1.14879 1.3649 4.70737e-05
0 0.506993 0 1.16604 1.50521 5.19118e-05
0 0.500077 0 1.18206 1.65488 5.70729e-05
0 0.493045 0 1.19672 1.85752 6.40604e-05
0 0.485904 0 1.20991 2.10814 7.27024e-05
0 0.478668 0 1.22154 2.36938 8.17108e-05
0 0.471351 0 1.23161 2.6149 9.01771e-05
0 0.463968 0 1.2401 2.85135 9.83303e-05
0 0.456546 0 1.24702 3.10293 0.000107006
0 0.449128 0 1.25241 3.3825 0.000116646
0 0.441775 0 1.25632 3.67977 0.000126897
0 0.434558 0 1.25883 3.97488 0.000137073
0 0.427693 0 1.26005 4.25741 0.000146815
0 0.421523 0 1.26021 4.52996 0.000156214
0 0.415688 0 1.26 4.79711 0.000165425
0 0.410049 0 1.25963 5.0677 0.000174756
0 0.404703 0 1.25874 5.33491 0.000183971
0 0.399975 0 1.25624 5.59315 0.000192875
0 0.39565 0 1.25306 5.8135 0.000200474
0 0.391649 0 1.24971 6.01101 0.000207284
0 0.387929 0 1.24649 6.19703 0.000213699
0 0.384395 0 1.24359 6.3685 0.000219612
0 0.380957 0 1.24109 6.51033 0.000224502
0 0.377594 0 1.23905 6.61414 0.000228082
0 0.374338 0 1.23757 6.68401 0.000230491
0 0.371231 0 1.23673 6.72718 0.00023198
0 0.368335 0 1.23649 6.74457 0.000232579
0 0.365781 0 1.23656 6.51627 0.000224707
0 0.363743 0 1.23667 5.91238 0.000203883
0 0.362423 0 1.23687 4.90661 0.000169202
0 0.361687 0 1.23753 3.5279 0.00012166
0 0.361537 0 1.23845 2.19933 7.5847e-05
0 0.361624 0 1.23981 1.43034 4.933e-05
0 0.361825 0 1.24134 0.967257 3.33617e-05
0 0.362179 0 1.2425 0.59177 2.04139e-05
0 0.362674 0 1.24333 0.148278 5.12105e-06
0 0.363314 0 1.24366 -0.44727 -1.54151e-05
0 0.364094 0 1.24346 -1.14842 -3.95926e-05
0 0.365001 0 1.24244 -1.84676 -6.36734e-05
0 0.366009 0 1.24048 -2.48561 -8.57027e-05
0 0.367122 0 1.23756 -3.10064 -0.00010691
0 0.368377 0 1.23368 -3.75749 -0.000129561
0 0.370445 0 1.22869 -4.47156 -0.000154184
0 0.374344 0 1.22236 -5.2011 -0.00017934
0 0.380726 0 1.21459 -5.89609 -0.000203305
0 0.38882 0 1.20557 -6.54914 -0.000225825
0 0.397457 0 1.19554 -7.18465 -0.000247738
0 0.405996 0 1.18462 -7.82786 -0.000269918
0 0.414324 0 1.17295 -8.48083 -0.000292434
0 0.422286 0 1.16066 -9.12283 -0.000314572
0 0.429727 0 1.14785 -9.73309 -0.000335616
0 0.436542 0 1.13462 -10.3122 -0.000355584
0 0.442731 0 1.12109 -10.8756 -0.000375014
0 0.448329 0 1.10738 -11.4344 -0.000394281
0 0.453358 0 1.09356 -11.9835 -0.000413216
0 0.457857 0 1.07972 -12.5103 -0.000431382
0 0.461883 0 1.06595 -13.0083 -0.000448553
0 0.465493 0 1.05237 -13.4817 -0.000464877
0 0.468722 0 1.03906 -13.9388 -0.00048064
0 0.471597 0 1.02612 -14.3826 -0.000495944
0 0.47415 0 1.01366 -14.8089 -0.000510645
0 0.476376 0 1.00178 -15.2123 -0.000524555
0 0.478246 0 0.990569 -15.5919 -0.000537645
0 0.479736 0 0.980126 -15.9512 -0.000550034
0 0.480842 0 0.970526 -16.2938 -0.000561848
0 0.481575 0 0.961833 -16.6193 -0.000573073
0 0.481961 0 0.954089 -16.9244 -0.000583594
0 0.482046 0 0.94732 -17.2064 -0.000593317
0 0.48201 0 0.941514 -17.4644 -0.000602212
0 0.481941 0 0.936667 -17.6996 -0.000610324
0 0.481842 0 0.932783 -17.9124 -0.000617661
0 0.481719 0 0.929845 -18.1004 -0.000624145
0 0.481583 0 0.927831 -18.2611 -0.000629684
0 0.4814 0 0.926711 -18.3928 -0.000634226
0 0.481096 0 0.926448 -18.4953 -0.00063776
0 0.480838 0 0.926589 -18.5622 -0.000640067
0 0.480808 0 0.926874 -18.5941 -0.000641166
0 0.481045 0 0.927298 -18.5396 -0.000639289
0 0.481719 0 0.927863 -18.3014 -0.000631073
0 0.482739 0 0.928569 -17.858 -0.000615786
0 0.484058 0 0.92941 -17.2114 -0.000593489
0 0.485402 0 0.930742 -16.3847 -0.000564983
0 0.486402 0 0.933803 -15.4265 -0.000531939
0 0.486878 0 0.939071 -14.3409 -0.000494505
0 0.486925 0 0.945773 -13.1001 -0.000451718
0 0.486649 0 0.953333 -11.712 -0.000403853
0 0.485868 0 0.961524 -10.1965 -0.000351597
0 0.484651 0 0.970303 -8.56131 -0.00029521
0 0.48289 0 0.979749 -6.81469 -0.000234981
0 0.480705 0 0.989784 -4.96276 -0.000171122
0 0.478175 0 1.00029 -3.02167 -0.000104188
0 0.475411 0 1.01113 -0.985934 -3.39897e-05
0 0.472545 0 1.02204 0.0234336 8.16081e-07
0 0.470004 0 1.03206 0.175862 6.07224e-06
0 0.467367 0 1.04224 0.133685 4.61785e-06
0 0.464852 0 1.05246 0.127588 4.40763e-06
0 0.462439 0 1.06242 0.27567 9.5139e-06
0 0.460164 0 1.07217 0.546365 1.88482e-05
0 0.458116 0 1.08164 0.783767 2.70345e-05
0 0.456397 0 1.09072 0.910552 3.14064e-05
0 0.455077 0 1.09936 0.980244 3.38095e-05
0 0.454226 0 1.1075 1.09704 3.78369e-05
0 0.453895 0 1.11513 1.29593 4.46952e-05
0 0.453953 0 1.12229 1.52872 5.27226e-05
0 0.454122 0 1.12906 1.72616 5.95307e-05
0 0.454399 0 1.13547 1.87199 6.45595e-05
0 0.454785 0 1.14157 2.00281 6.90705e-05
0 0.455367 0 1.14745 2.16065 7.45134e-05
0 0.457351 0 1.15293 2.35355 8.1165e-05
0 0.46132 0 1.15796 2.54687 8.78312e-05
0 0.466063 0 1.16293 2.70354 9.32336e-05
0 0.471163 0 1.16794 2.83372 9.77224e-05
0 0.476488 0 1.17311 2.95877 0.000102035
0 0.482017 0 1.17861 3.09034 0.000106571
0 0.487665 0 1.18448 3.22067 0.000111066
0 0.493335 0 1.19077 3.33373 0.000114964
0 0.499023 0 1.1975 3.42094 0.000117972
0 0.504785 0 1.20471 3.4875 0.000120267
0 0.510654 0 1.21237 3.54422 0.000122222
0 0.516651 0 1.22043 3.5955 0.000123991
0 0.52279 0 1.22885 3.63652 0.000125405
0 0.529063 0 1.23759 3.66062 0.000126236
0 0.535438 0 1.24659 3.66681 0.00012645
0 0.541877 0 1.25527 3.66021 0.000126222
0 0.548123 0 1.26317 3.66119 0.000126256
0 0.553573 0 1.27092 3.64007 0.000125528
0 0.558854 0 1.2786 3.59254 0.000123889
0 0.564259 0 1.28636 3.44406 0.000118769
0 0.569629 0 1.29404 3.17289 0.000109418
0 0.574839 0 1.3015 2.8399 9.79357e-05
0 0.580065 0 1.30868 2.43189 8.38663e-05
0 0.585304 0 1.31554 1.96086 6.76238e-05
0 0.590386 0 1.32206 1.52712 5.26674e-05
0 0.595254 0 1.32824 1.15646 3.98861e-05
0 0.600042 0 1.33394 0.777475 2.68175e-05
0 0.6047 0 1.3391 0.424285 1.46386e-05
0 0.609178 0 1.34375 0.279012 9.62912e-06
0 0.613518 0 1.3478 0.184988 6.38691e-06
0 0.617712 0 1.3512 0.115515 3.99132e-06
0 0.621714 0 1.35393 0.0357886 1.24211e-06
0 0.625461 0 1.35599 -0.0614757 -2.11183e-06
0 0.628862 0 1.35741 -0.152801 -5.26096e-06
0 0.631822 0 1.35822 -0.214847 -7.40049e-06
0 0.634284 0 1.35844 -0.246211 -8.482e-06
0 0.636165 0 1.35833 -0.267693 -9.22278e-06
0 0.63738 0 1.35811 -0.294095 -1.01332e-05
0 0.637884 0 1.35777 -0.323211 -1.11372e-05
0 0.637816 0 1.35715 -0.34061 -1.17372e-05
0 0.637652 0 1.35517 -0.322913 -1.11269e-05
0 0.637375 0 1.3522 -0.27133 -9.34818e-06
0 0.636982 0 1.3488 -0.175553 -6.04551e-06
0 0.635783 0 1.34517 -0.0650896 -2.23644e-06
0 0.632868 0 1.3415 0.0482381 1.67141e-06
0 0.629246 0 1.33752 0.177595 6.13198e-06
0 0.62542 0 1.33332 0.284042 9.80257e-06
0 0.621264 0 1.32892 0.376937 1.30058e-05
0 0.616715 0 1.32422 0.426862 1.47274e-05
0 0.611828 0 1.31926 0.45336 1.56411e-05
0 0.606591 0 1.31413 0.470762 1.62412e-05
0 0.601107 0 1.30878 0.486864 1.67964e-05
0 0.595418 0 1.30322 0.496387 1.71248e-05
0 0.589581 0 1.29747 0.505661 1.74446e-05
0 0.583673 0 1.29153 0.502533 1.73367e-05
0 0.577723 0 1.2854 0.483378 1.66762e-05
0 0.571739 0 1.27911 0.449534 1.55092e-05
0 0.565735 0 1.27266 0.403081 1.39074e-05
0 0.559742 0 1.26607 0.343362 1.18481e-05
0 0.553782 0 1.25937 0.281957 9.73068e-06
0 0.547867 0 1.25257 0.206862 7.14118e-06
0 0.542011 0 1.24567 0.109328 3.77796e-06
0 0.536228 0 1.23869 -0.00319828 -1.02259e-07
0 0.530516 0 1.23164 -0.127511 -4.38892e-06
0 0.524854 0 1.22455 -0.265996 -9.16425e-06
0 0.519234 0 1.21742 -0.423997 -1.46126e-05
0 0.513641 0 1.21027 -0.603147 -2.07901e-05
0 0.508057 0 1.20312 -0.801833 -2.76414e-05
0 0.502466 0 1.19596 -1.01687 -3.50563e-05
0 0.496867 0 1.18878 -1.24664 -4.29795e-05
0 0.491334 0 1.18159 -1.49225 -5.14487e-05
0 0.485975 0 1.1744 -1.75563 -6.0531e-05
0 0.480683 0 1.16716 -2.03516 -7.01699e-05
0 0.47539 0 1.15982 -2.32749 -8.02502e-05
0 0.470109 0 1.15236 -2.63092 -9.07135e-05
0 0.464867 0 1.14481 -2.9454 -0.000101558
0 0.459616 0 1.13715 -3.27016 -0.000112756
0 0.454266 0 1.12937 -3.60387 -0.000124263
0 0.448728 0 1.1215 -3.94554 -0.000136045
0 0.442956 0 1.11352 -4.29402 -0.000148062
0 0.436909 0 1.10545 -4.6474 -0.000160247
0 0.430564 0 1.09724 -5.0037 -0.000172533
0 0.42394 0 1.08885 -5.3615 -0.000184871
0 0.417081 0 1.08025 -5.7194 -0.000197213
0 0.410043 0 1.07138 -6.07534 -0.000209487
0 0.402887 0 1.06219 -6.42689 -0.000221609
0 0.395694 0 1.05262 -6.77205 -0.000233511
0 0.388559 0 1.04262 -7.10951 -0.000245147
0 0.381559 0 1.03214 -7.43829 -0.000256485
0 0.37476 0 1.02117 -7.75739 -0.000267488
0 0.368222 0 1.00968 -8.06598 -0.000278129
0 0.362019 0 0.997677 -8.36373 -0.000288397
0 0.356227 0 0.985161 -8.65093 -0.0002983
0 0.350909 0 0.972155 -8.92833 -0.000307865
0 0.346102 0 0.958702 -9.19714 -0.000317135
0 0.341821 0 0.944869 -9.45885 -0.000326159
0 0.338062 0 0.930743 -9.71539 -0.000335005
0 0.334798 0 0.916428 -9.96915 -0.000343756
0 0.331977 0 0.902052 -10.2231 -0.000352512
0 0.329506 0 0.887746 -10.4803 -0.000361382
0 0.327285 0 0.873652 -10.7433 -0.000370451
0 0.325217 0 0.859912 -11.0152 -0.000379825
0 0.323218 0 0.846661 -11.2983 -0.000389588
0 0.321218 0 0.834014 -11.595 -0.00039982
0 0.319165 0 0.822068 -11.9069 -0.000410575
0 0.317028 0 0.810899 -12.2351 -0.000421892
0 0.314782 0 0.800568 -12.5802 -0.000433791
0 0.312406 0 0.791121 -12.942 -0.000446268
0 0.309883 0 0.782579 -13.3199 -0.000459299
0 0.307213 0 0.774945 -13.7127 -0.000472843
0 0.304408 0 0.768201 -14.1186 -0.000486839
0 0.301472 0 0.762316 -14.5352 -0.000501205
0 0.298393 0 0.757248 -14.9598 -0.000515847
0 0.295149 0 0.75295 -15.3892 -0.000530656
0 0.291729 0 0.749357 -15.8199 -0.000545505
0 0.28816 0 0.746376 -16.2476 -0.000560254
0 0.284494 0 0.743901 -16.6681 -0.000574754
0 0.280767 0 0.74182 -17.0771 -0.000588858
0 0.276969 0 0.740035 -17.4703 -0.000602417
0 0.273057 0 0.738462 -17.8436 -0.000615288
0 0.268972 0 0.737025 -18.193 -0.000627336
0 0.264687 0 0.73565 -18.5149 -0.000638436
0 0.260156 0 0.734265 -18.806 -0.000648475
0 0.255351 0 0.732787 -19.063 -0.000657336
0 0.250253 0 0.731138 -19.2827 -0.000664912
0 0.244872 0 0.729245 -19.4626 -0.000671118
0 0.239237 0 0.727034 -19.6007 -0.000675878
0 0.233392 0 0.724436 -19.695 -0.000679131
0 0.227386 0 0.721387 -19.7444 -0.000680835
0 0.221268 0 0.717845 -19.7484 -0.000680972
0 0.215067 0 0.713811 -19.5983 -0.000675794
0 0.208802 0 0.709328 -19.2646 -0.000664288
0 0.202519 0 0.704387 -18.7406 -0.000646218
0 0.196267 0 0.699005 -18.0398 -0.000622053
0 0.190106 0 0.693218 -17.187 -0.000592649
0 0.184092 0 0.687075 -16.2055 -0.000558802
0 0.178261 0 0.680643 -15.114 -0.000521166
0 0.172621 0 0.67401 -13.9328 -0.000480433
0 0.167159 0 0.667286 -12.6871 -0.000437477
0 0.161858 0 0.660587 -11.4078 -0.000393363
0 0.156707 0 0.654035 -10.1274 -0.000349214
0 0.151705 0 0.647742 -8.87438 -0.000306005
0 0.146844 0 0.641813 -7.67305 -0.00026458
0 0.142132 0 0.636341 -6.54697 -0.00022575
0 0.137593 0 0.631413 -5.51961 -0.000190323
0 0.133257 0 0.6271 -4.61338 -0.000159074
0 0.129158 0 0.623454 -3.84663 -0.000132634
0 0.125336 0 0.62051 -3.23283 -0.000111469
0 0.121835 0 0.61829 -2.7813 -9.58988e-05
0 0.118696 0 0.6168 -2.49863 -8.61516e-05
0 0.115946 0 0.616035 -2.38886 -8.23664e-05
0 0.11361 0 0.615941 -2.45215 -8.4549e-05
0 0.111766 0 0.616105 -2.66972 -9.20511e-05
0 0.110454 0 0.616407 -3.03687 -0.000104712
0 0.109707 0 0.616838 -3.54468 -0.000122222
0 0.109529 0 0.617389 -4.18028 -0.000144139
0 0.109617 0 0.618054 -4.93054 -0.000170011
0 0.109795 0 0.618808 -5.77925 -0.000199276
0 0.110058 0 0.619621 -6.70897 -0.000231336
0 0.110399 0 0.620469 -7.69873 -0.000265465
0 0.110803 0 0.621323 -8.72581 -0.000300882
0 0.11125 0 0.622156 -9.76825 -0.000336828
0 0.111719 0 0.622981 -10.8064 -0.000372626
0 0.112182 0 0.623977 -11.8271 -0.000407823
0 0.112626 0 0.625107 -12.8061 -0.00044158
0 0.113039 0 0.626269 -13.7223 -0.000473174
0 0.113417 0 0.627305 -14.5583 -0.000502003
0 0.113765 0 0.628082 -15.2976 -0.000527494
0 0.114093 0 0.628407 -15.9232 -0.000549067
0 0.114405 0 0.628237 -16.4278 -0.000566468
0 0.114711 0 0.627544 -16.8026 -0.000579392
0 0.115016 0 0.626354 -17.0468 -0.000587814
0 0.115327 0 0.624688 -17.1611 -0.000591753
0 0.115649 0 0.622582 -17.1497 -0.000591362
0 0.115987 0 0.620088 -17.0201 -0.000586894
0 0.116346 0 0.617274 -16.7826 -0.000578701
0 0.116752 0 0.613677 -16.4367 -0.000566773
0 0.117224 0 0.608881 -15.9825 -0.000551114
0 0.117736 0 0.603944 -15.4777 -0.000533705
0 0.118313 0 0.599031 -14.9247 -0.000514638
0 0.118961 0 0.59433 -14.3384 -0.00049442
0 0.119688 0 0.59026 -13.7324 -0.000473522
0 0.12051 0 0.586628 -13.1211 -0.000452444
0 0.121409 0 0.583517 -12.5586 -0.000433048
0 0.122392 0 0.580999 -12.0421 -0.000415237
0 0.12347 0 0.579205 -11.5904 -0.000399661
0 0.124879 0 0.578235 -11.2204 -0.000386901
0 0.126869 0 0.578123 -10.9297 -0.000376878
0 0.129642 0 0.578345 -10.7026 -0.000369048
0 0.133658 0 0.578778 -10.55 -0.000363785
0 0.139391 0 0.579607 -10.4743 -0.000361173
0 0.146839 0 0.582189 -10.5183 -0.000362691
0 0.15587 0 0.585657 -10.6203 -0.00036621
0 0.16595 0 0.589927 -10.7972 -0.000372308
0 0.176412 0 0.595256 -11.0527 -0.00038112
0 0.187127 0 0.602806 -11.4076 -0.000393359
0 0.197674 0 0.612414 -11.8194 -0.000407559
0 0.207978 0 0.62351 -12.255 -0.000422577
0 0.218074 0 0.635706 -12.7048 -0.000438088
0 0.2279 0 0.648661 -13.1491 -0.00045341
0 0.237392 0 0.662274 -13.5574 -0.00046749
0 0.246469 0 0.676427 -13.8972 -0.000479206
0 0.25511 0 0.690953 -14.145 -0.000487749
0 0.263327 0 0.70562 -14.2831 -0.000492511
0 0.271141 0 0.720214 -14.2912 -0.000492792
0 0.278559 0 0.734571 -14.1453 -0.000487761
0 0.285581 0 0.748543 -13.8237 -0.000476673
0 0.291444 0 0.761888 -13.3049 -0.000458781
0 0.296523 0 0.774004 -12.5656 -0.000433289
0 0.301489 0 0.785441 -11.652 -0.000401785
0 0.306466 0 0.796095 -10.5375 -0.000363353
0 0.311454 0 0.805786 -9.22005 -0.000317925
0 0.316482 0 0.814579 -7.72904 -0.000266511
0 0.321615 0 0.822296 -6.06765 -0.000209221
0 0.32692 0 0.829037 -4.25715 -0.00014679
0 0.332343 0 0.834946 -2.31723 -7.98965e-05
0 0.337817 0 0.840097 -0.471075 -1.6236e-05
0 0.343545 0 0.843868 0.0107029 3.77091e-07
0 0.349422 0 0.846522 0.12686 4.3825e-06
0 0.355111 0 0.849159 0.107808 3.72554e-06
0 0.360685 0 0.851463 0.13624 4.70596e-06
0 0.36608 0 0.853709 0.329262 1.13619e-05
0 0.371255 0 0.855985 0.602533 2.0785e-05
0 0.376059 0 0.857954 0.827888 2.85559e-05
0 0.380629 0 0.860104 0.935288 3.22593e-05
0 0.385087 0 0.862606 0.967172 3.33588e-05
0 0.389441 0 0.865548 1.05929 3.65353e-05
0 0.393588 0 0.868957 1.23276 4.25169e-05
0 0.397534 0 0.872852 1.41262 4.87189e-05
0 0.401454 0 0.877302 1.52324 5.25334e-05
0 0.405444 0 0.882339 1.56879 5.41042e-05
0 0.40945 0 0.887949 1.60921 5.54981e-05
0 0.413465 0 0.894142 1.67648 5.78176e-05
0 0.417554 0 0.900948 1.75874 6.06541e-05
0 0.421716 0 0.908371 1.82418 6.29108e-05
0 0.425881 0 0.916376 1.85189 6.38664e-05
0 0.430028 0 0.924941 1.84866 6.37549e-05
0 0.434175 0 0.934042 1.84128 6.35004e-05
0 0.438301 0 0.94363 1.84449 6.36112e-05
0 0.44235 0 0.953635 1.84838 6.37452e-05
0 0.4463 0 0.964 1.83378 6.32418e-05
0 0.450118 0 0.974672 1.79788 6.20039e-05
0 0.453698 0 0.985575 1.75672 6.05845e-05
0 0.456972 0 0.996627 1.71427 5.91207e-05
0 0.459928 0 1.00774 1.65993 5.7247e-05
0 0.462543 0 1.01882 1.57939 5.44697e-05
0 0.464728 0 1.02976 1.4844 5.11943e-05
0 0.466402 0 1.04045 1.39639 4.81593e-05
0 0.467626 0 1.05081 1.33685 4.61063e-05
0 0.468413 0 1.06073 1.32381 4.56567e-05
0 0.468728 0 1.07012 1.37305 4.73545e-05
0 0.468691 0 1.07885 1.42927 4.92932e-05
0 0.468584 0 1.08671 1.43465 4.94787e-05
0 0.4684 0 1.09372 1.42641 4.91946e-05
0 0.468138 0 1.09974 1.41454 4.87852e-05
0 0.467786 0 1.1047 1.43183 4.93814e-05
0 0.467307 0 1.10852 1.47925 5.10166e-05
0 0.46604 0 1.11128 1.53774 5.30334e-05
0 0.463618 0 1.11302 1.59541 5.50221e-05
0 0.46069 0 1.11358 1.6579 5.7177e-05
0 0.45757 0 1.11338 1.72661 5.95464e-05
0 0.454205 0 1.11292 1.8106 6.24424e-05
0 0.450695 0 1.11171 1.91358 6.59936e-05
0 0.447517 0 1.10777 2.04342 7.04708e-05
0 0.44478 0 1.1024 2.15519 7.43251e-05
0 0.442238 0 1.09616 2.26664 7.81681e-05
0 0.439953 0 1.08959 2.38284 8.2175e-05
0 0.437931 0 1.08252 2.50938 8.65383e-05
0 0.43615 0 1.07505 2.65073 9.14124e-05
0 0.434612 0 1.0672 2.7755 9.5715e-05
0 0.433409 0 1.05911 2.87887 9.92795e-05
0 0.432587 0 1.05104 2.97968 0.000102756
0 0.432192 0 1.04313 3.07858 0.000106166
0 0.432212 0 1.03544 3.16564 0.000109168
0 0.432373 0 1.02816 3.235 0.00011156
0 0.432659 0 1.02143 3.28564 0.000113306
0 0.433082 0 1.01542 3.31673 0.000114378
0 0.433658 0 1.01026 3.25974 0.000112413
0 0.435412 0 1.00567 2.98887 0.000103072
0 0.439564 0 1.00158 2.48048 8.55417e-05
0 0.444967 0 0.998365 1.73764 5.99266e-05
0 0.451005 0 0.996155 0.993918 3.4281e-05
0 0.457364 0 0.995092 0.596978 2.05935e-05
0 0.464163 0 0.995095 0.27128 9.36252e-06
0 0.471684 0 0.995387 -0.0406407 -1.39338e-06
0 0.478898 0 0.995848 -0.422841 -1.45727e-05
0 0.486067 0 0.996405 -0.919085 -3.16846e-05
0 0.493478 0 0.998147 -1.47632 -5.08996e-05
0 0.500808 0 1.00226 -2.05755 -7.0942e-05
0 0.508292 0 1.00749 -2.61279 -9.00881e-05
0 0.515934 0 1.0133 -3.17241 -0.000109385
0 0.523786 0 1.01925 -3.77976 -0.000130328
0 0.531905 0 1.0253 -4.42063 -0.000152427
0 0.540187 0 1.03152 -5.05139 -0.000174178
0 0.548551 0 1.03772 -5.64818 -0.000194757
0 0.556996 0 1.04377 -6.21364 -0.000214255
0 0.565503 0 1.04948 -6.76239 -0.000233178
0 0.574033 0 1.05459 -7.29357 -0.000251494
0 0.582564 0 1.05895 -7.78795 -0.000268542
0 0.591082 0 1.06275 -8.23923 -0.000284103
0 0.599622 0 1.06586 -8.64649 -0.000298147
0 0.608226 0 1.06835 -8.98687 -0.000309884
0 0.616781 0 1.07025 -9.26887 -0.000319608
0 0.625165 0 1.07154 -9.50722 -0.000327827
0 0.633368 0 1.07223 -9.69893 -0.000334438
0 0.641342 0 1.0724 -9.83055 -0.000338977
0 0.648936 0 1.07232 -9.90138 -0.000341419
0 0.656073 0 1.07212 -9.91264 -0.000341807
0 0.662829 0 1.07139 -9.74571 -0.000336051
0 0.669046 0 1.07049 -9.40117 -0.00032417
0 0.674862 0 1.06927 -8.85342 -0.000305282
0 0.680495 0 1.06794 -8.11493 -0.000279817
0 0.685941 0 1.06652 -7.21405 -0.000248752
0 0.691199 0 1.06508 -6.16076 -0.000212432
0 0.696461 0 1.0637 -4.97289 -0.000171471
0 0.701839 0 1.06244 -3.67802 -0.00012682
0 0.707339 0 1.06136 -2.28911 -7.89268e-05
0 0.713032 0 1.06056 -0.820466 -2.82839e-05
0 0.718991 0 1.06002 -0.195192 -6.72273e-06
0 0.72547 0 1.0595 -0.0872717 -3.00134e-06
0 0.732012 0 1.05957 -0.117207 -4.03358e-06
0 0.738906 0 1.05985 -0.0894293 -3.07574e-06
0 0.745891 0 1.06128 0.056931 1.97116e-06
0 0.75298 0 1.06376 0.267799 9.24248e-06
0 0.760276 0 1.06726 0.420899 1.45218e-05
0 0.767757 0 1.07179 0.476193 1.64285e-05
0 0.775344 0 1.07735 0.492299 1.69839e-05
0 0.782998 0 1.08403 0.539856 1.86237e-05
0 0.790715 0 1.09192 0.635981 2.19384e-05
0 0.798453 0 1.10107 0.738193 2.5463e-05
0 0.806135 0 1.11145 0.795532 2.74402e-05
0 0.813699 0 1.12303 0.804825 2.77606e-05
0 0.821121 0 1.13581 0.803173 2.77037e-05
0 0.828374 0 1.14977 0.819869 2.82794e-05
0 0.835402 0 1.16484 0.854267 2.94655e-05
0 0.842149 0 1.18091 0.881356 3.03996e-05
0 0.84857 0 1.19791 0.884003 3.04909e-05
0 0.854611 0 1.21573 0.869477 2.999e-05
0 0.860197 0 1.23425 0.85334 2.94335e-05
0 0.865278 0 1.25331 0.854854 2.94858e-05
0 0.86983 0 1.27283 0.874069 3.01483e-05
0 0.873778 0 1.2927 0.882974 3.04554e-05
0 0.876978 0 1.31275 0.888421 3.06432e-05
0 0.87935 0 1.33284 0.910796 3.14148e-05
0 0.880914 0 1.3529 0.940262 3.24309e-05
0 0.881673 0 1.37276 0.982294 3.38802e-05
0 0.881703 0 1.39227 1.04645 3.60926e-05
0 0.881542 0 1.41116 1.13111 3.90118e-05
0 0.881259 0 1.4293 1.22749 4.23354e-05
0 0.880861 0 1.44657 1.33812 4.615e-05
0 0.88035 0 1.4628 1.4725 5.07838e-05
0 0.87973 0 1.47786 1.63393 5.63505e-05
0 0.878519 0 1.49172 1.81742 6.26777e-05
0 0.875496 0 1.50456 2.01446 6.94722e-05
0 0.87081 0 1.51625 2.23451 7.70601e-05
0 0.865385 0 1.52659 2.47865 8.54789e-05
0 0.859656 0 1.53558 2.73926 9.44654e-05
0 0.853699 0 1.54323 3.02098 0.00010418
0 0.847372 0 1.54959 3.32829 0.000114777
0 0.840778 0 1.5547 3.63883 0.000125485
0 0.834074 0 1.55864 3.95619 0.000136428
0 0.827265 0 1.5615 4.29534 0.000148123
0 0.820329 0 1.56337 4.64713 0.000160254
0 0.813291 0 1.56443 4.99742 0.000172333
0 0.806694 0 1.56486 5.34366 0.000184272
0 0.800369 0 1.56492 5.69194 0.000196282
0 0.794012 0 1.56485 6.03543 0.000208126
0 0.787577 0 1.56474 6.35479 0.000219139
0 0.781171 0 1.56463 6.67431 0.000230156
0 0.774785 0 1.56454 6.98798 0.000240973
0 0.768421 0 1.56448 7.27571 0.000250895
0 0.762199 0 1.56448 7.53671 0.000259895
0 0.756206 0 1.56457 7.77877 0.000268242
0 0.750472 0 1.56473 8.00212 0.000275943
0 0.745047 0 1.56502 8.20062 0.000282788
0 0.739838 0 1.56645 8.36267 0.000288376
0 0.734905 0 1.5688 8.50066 0.000293134
0 0.730393 0 1.57173 8.61207 0.000296976
0 0.726263 0 1.57517 8.69067 0.000299686
0 0.722514 0 1.57906 8.73771 0.000301308
0 0.719226 0 1.58336 8.75628 0.000301949
0 0.716509 0 1.58805 8.74652 0.000301612
0 0.714406 0 1.59297 8.48168 0.00029248
0 0.712994 0 1.5979 7.89593 0.000272281
0 0.712342 0 1.60278 6.98398 0.000240835
0 0.712354 0 1.60749 5.78134 0.000199365
0 0.71253 0 1.61201 4.32048 0.00014899
0 0.712817 0 1.61627 3.09247 0.000106645
0 0.713219 0 1.62016 1.82823 6.30503e-05
0 0.713722 0 1.6238 1.37589 4.74525e-05
0 0.714373 0 1.62686 1.03801 3.58016e-05
0 0.715135 0 1.62913 0.752562 2.59584e-05
0 0.716108 0 1.63048 0.402264 1.38792e-05
0 0.718063 0 1.63048 -0.0599319 -2.05859e-06
0 0.722155 0 1.63003 -0.582457 -2.00767e-05
0 0.728257 0 1.62931 -1.04962 -3.61856e-05
0 0.735562 0 1.62676 -1.44024 -4.96555e-05
0 0.743737 0 1.62126 -1.79813 -6.19965e-05
0 0.752345 0 1.61427 -2.21826 -7.64838e-05
0 0.761546 0 1.60618 -2.68329 -9.25193e-05
0 0.771226 0 1.59728 -3.13118 -0.000107964
0 0.781205 0 1.58805 -3.5332 -0.000121827
0 0.791509 0 1.57883 -3.92309 -0.000135271
0 0.802275 0 1.56904 -4.31251 -0.000148699
0 0.813327 0 1.55888 -4.7049 -0.00016223
0 0.82452 0 1.54833 -5.12474 -0.000176707
0 0.835955 0 1.53757 -5.54301 -0.00019113
0 0.847625 0 1.52684 -5.9355 -0.000204664
0 0.859375 0 1.51621 -6.31784 -0.000217849
0 0.871167 0 1.50576 -6.7116 -0.000231426
0 0.883026 0 1.49568 -7.11857 -0.00024546
0 0.894884 0 1.48612 -7.53273 -0.000259741
0 0.906618 0 1.4772 -7.94614 -0.000273997
0 0.918061 0 1.46904 -8.35041 -0.000287937
0 0.928985 0 1.46181 -8.74325 -0.000301483
0 0.939608 0 1.45544 -9.16391 -0.000315989
0 0.95011 0 1.44993 -9.6009 -0.000331057
0 0.960286 0 1.44536 -10.0094 -0.000345143
0 0.969908 0 1.44169 -10.4066 -0.00035884
0 0.979168 0 1.43892 -10.8073 -0.000372658
0 0.988239 0 1.4371 -11.2071 -0.000386444
0 0.996957 0 1.43615 -11.5961 -0.000399857
0 1.00523 0 1.43596 -11.9684 -0.000412694
0 1.01324 0 1.43611 -12.3144 -0.000424627
0 1.02109 0 1.43644 -12.6335 -0.000435631
0 1.02862 0 1.43687 -12.9373 -0.000446107
0 1.03573 0 1.43743 -13.2189 -0.000455815
0 1.04247 0 1.43876 -13.4634 -0.000464246
0 1.04854 0 1.44208 -13.6898 -0.000472055
0 1.05409 0 1.44673 -13.8743 -0.000478418
0 1.05921 0 1.45199 -14.0238 -0.000483573
0 1.06393 0 1.45756 -14.1432 -0.000487688
0 1.06831 0 1.4634 -14.2252 -0.000490516
0 1.07236 0 1.46955 -14.214 -0.000490131
0 1.07606 0 1.47608 -13.9702 -0.000481724
0 1.07944 0 1.48292 -13.4599 -0.000464127
0 1.08256 0 1.48994 -12.6852 -0.000437413
0 1.08543 0 1.49712 -11.6537 -0.000401844
0 1.08807 0 1.50448 -10.3779 -0.00035785
0 1.09047 0 1.51149 -8.8768 -0.000306089
0 1.09262 0 1.51798 -7.23395 -0.000249438
0 1.09447 0 1.52445 -5.39491 -0.000186023
0 1.0961 0 1.53114 -3.33933 -0.000115141
0 1.09758 0 1.53817 -1.10607 -3.81324e-05
0 1.09884 0 1.54525 -0.154711 -5.32683e-06
0 1.10018 0 1.55176 0.0171994 6.01109e-07
0 1.10113 0 1.55891 0.00709002 2.5251e-07
0 1.10194 0 1.56642 0.0626281 2.16761e-06
0 1.10232 0 1.57437 0.311413 1.07464e-05
0 1.10239 0 1.58279 0.666167 2.29793e-05
0 1.10235 0 1.59171 0.975391 3.36422e-05
0 1.10227 0 1.60112 1.16549 4.01973e-05
0 1.10214 0 1.61099 1.29839 4.47802e-05
0 1.10197 0 1.62137 1.4834 5.11596e-05
0 1.10176 0 1.63228 1.75118 6.03937e-05
0 1.10152 0 1.64371 2.04768 7.06178e-05
0 1.10121 0 1.6556 2.30397 7.94553e-05
0 1.10086 0 1.66794 2.50301 8.63187e-05
0 1.10044 0 1.68075 2.68583 9.26228e-05
0 1.09997 0 1.69399 2.90054 0.000100027
0 1.09919 0 1.70762 3.14945 0.00010861
0 1.0976 0 1.7217 3.39665 0.000117134
0 1.09479 0 1.73626 3.61398 0.000124628
0 1.091 0 1.75117 3.80743 0.000131299
0 1.08658 0 1.76631 4.00027 0.000137948
0 1.08169 0 1.78159 4.20831 0.000145122
0 1.07634 0 1.7969 4.42757 0.000152683
0 1.07048 0 1.81217 4.64212 0.000160081
0 1.06411 0 1.82733 4.84257 0.000166993
0 1.05726 0 1.84226 5.03485 0.000173624
0 1.04995 0 1.85684 5.23158 0.000180407
0 1.04228 0 1.87097 5.4387 0.000187549
0 1.03432 0 1.88451 5.65164 0.000194892
0 1.02614 0 1.89736 5.86255 0.000202165
0 1.01772 0 1.90945 6.06877 0.000209276
0 1.00922 0 1.92064 6.27624 0.00021643
0 1.00068 0 1.93088 6.48928 0.000223776
0 0.99216 0 1.94011 6.70884 0.000231347
0 0.983708 0 1.94826 6.93118 0.000239014
0 0.975391 0 1.9553 7.15229 0.000246639
0 0.967274 0 1.9612 7.3712 0.000254187
0 0.959411 0 1.96594 7.58966 0.00026172
0 0.951847 0 1.96954 7.80878 0.000269276
0 0.945148 0 1.97206 8.0265 0.000276784
0 0.938833 0 1.97356 8.24726 0.000284396
0 0.932893 0 1.97403 8.45605 0.000291596
0 0.927272 0 1.97388 8.6379 0.000297867
0 0.921959 0 1.97356 8.82159 0.000304201
0 0.916953 0 1.97306 9.00111 0.000310391
0 0.91224 0 1.97233 9.16209 0.000315942
0 0.908107 0 1.97014 9.31395 0.000321179
0 0.904753 0 1.96579 9.44697 0.000325766
0 0.901978 0 1.96038 9.55136 0.000329365
0 0.899849 0 1.95446 9.64344 0.000332541
0 0.898403 0 1.94822 9.72529 0.000335363
0 0.897662 0 1.94169 9.78553 0.00033744
0 0.897608 0 1.93487 9.74218 0.000335945
0 0.897781 0 1.92782 9.40793 0.000324419
0 0.898101 0 1.92068 8.74537 0.000301573
0 0.898579 0 1.91362 7.75052 0.000267267
0 0.899227 0 1.90674 6.44099 0.000222111
0 0.900042 0 1.90025 4.90653 0.000169199
0 0.901078 0 1.89488 3.56431 0.000122915
0 0.903638 0 1.88975 2.19668 7.57555e-05
0 0.909193 0 1.88489 1.7485 6.03013e-05
0 0.916487 0 1.88008 1.41778 4.88971e-05
0 0.924372 0 1.87535 1.11579 3.84837e-05
0 0.932529 0 1.87094 0.721746 2.48958e-05
0 0.940951 0 1.86705 0.18659 6.44218e-06
0 0.949611 0 1.86361 -0.437409 -1.50751e-05
0 0.958398 0 1.86048 -1.03613 -3.57206e-05
0 0.967179 0 1.85763 -1.57619 -5.43435e-05
0 0.975916 0 1.85504 -2.11735 -7.30042e-05
0 0.984614 0 1.8527 -2.72089 -9.38159e-05
0 0.993224 0 1.8505 -3.388 -0.00011682
0 1.00168 0 1.84831 -4.06902 -0.000140303
0 1.00994 0 1.84604 -4.71625 -0.000162621
0 1.01797 0 1.84364 -5.32464 -0.0001836
0 1.02573 0 1.84103 -5.92508 -0.000204305
0 1.0332 0 1.83811 -6.5406 -0.00022553
0 1.04041 0 1.83474 -7.15921 -0.000246861
0 1.04743 0 1.83083 -7.74908 -0.000267201
0 1.05427 0 1.82629 -8.29013 -0.000285859
0 1.06106 0 1.82104 -8.78742 -0.000303006
0 1.06787 0 1.81503 -9.25725 -0.000319207
0 1.07474 0 1.80823 -9.70502 -0.000334648
0 1.08166 0 1.80064 -10.1197 -0.000348949
0 1.08865 0 1.79228 -10.4872 -0.00036162
0 1.09576 0 1.78321 -10.8039 -0.000372539
0 1.103 0 1.77348 -11.0772 -0.000381965
0 1.11041 0 1.76317 -11.3161 -0.000390203
0 1.11798 0 1.7524 -11.5227 -0.000397327
0 1.12569 0 1.74133 -11.6934 -0.000403212
0 1.13349 0 1.73012 -11.8256 -0.000407771
0 1.14082 0 1.71897 -11.9161 -0.000410892
