0.660349 2.27706e-05 0.564771 1.94749e-05 0.00562733 1.94046e-07
0.663808 2.28899e-05 0.564234 1.94564e-05 0.00564712 1.94728e-07
0.671814 2.3166e-05 0.563187 1.94203e-05 0.00571144 1.96946e-07
0.688495 2.37412e-05 0.561549 1.93637e-05 0.00577645 1.99188e-07
0.707636 2.44012e-05 0.55996 1.9309e-05 0.00579712 1.99901e-07
0.732464 2.52574e-05 0.558256 1.92502e-05 0.00575209 1.98348e-07
0.763546 2.63292e-05 0.556738 1.91979e-05 0.00561456 1.93606e-07
0.801502 2.7638e-05 0.555777 1.91647e-05 0.00533964 1.84125e-07
0.846997 2.92068e-05 0.555696 1.91619e-05 0.00487671 1.68162e-07
0.900752 3.10604e-05 0.556802 1.92001e-05 0.00418075 1.44164e-07
0.96346 3.32228e-05 0.559489 1.92927e-05 0.00321835 1.10978e-07
1.03562 3.5711e-05 0.56426 1.94572e-05 0.00196446 6.774e-08
1.11723 3.85251e-05 0.571676 1.9713e-05 0.000395848 1.36499e-08
1.20769 4.16444e-05 0.582214 2.00763e-05 -0.00148411 -5.11761e-08
1.30632 4.50456e-05 0.596721 2.05766e-05 -0.00372326 -1.28388e-07
1.41094 4.86532e-05 0.615798 2.12344e-05 -0.00627243 -2.16291e-07
1.51934 5.23911e-05 0.640115 2.20729e-05 -0.00907803 -3.13035e-07
1.62888 5.61683e-05 0.670267 2.31127e-05 -0.012047 -4.15415e-07
1.73656 5.98813e-05 0.706677 2.43682e-05 -0.0150506 -5.18987e-07
1.83938 6.34269e-05 0.749528 2.58458e-05 -0.0217283 -7.49252e-07
1.93436 6.67022e-05 0.798777 2.7544e-05 -0.0277108 -9.55545e-07
2.01807 6.95887e-05 0.854188 2.94548e-05 -0.0323486 -1.11547e-06
2.08638 7.19442e-05 0.915331 3.15631e-05 -0.0349014 -1.2035e-06
2.13438 7.35992e-05 0.981566 3.38471e-05 -0.0345851 -1.19259e-06
2.15633 7.43563e-05 1.05199 3.62757e-05 -0.0305963 -1.05504e-06
2.14614 7.40048e-05 1.12513 3.87977e-05 -0.0220881 -7.61659e-07
2.09857 7.23645e-05 1.1996 4.13656e-05 -0.010305 -3.55343e-07
2.01095 6.93429e-05 1.27335 4.39087e-05 5.77349e-05 1.99086e-09
1.88461 6.49867e-05 1.34295 4.63087e-05 0.0133833 4.61492e-07
1.72442 5.94626e-05 1.40481 4.84416e-05 0.0305935 1.05495e-06
1.53699 5.29996e-05 1.45538 5.01856e-05 0.0519818 1.79247e-06
1.32796 4.57916e-05 1.49114 5.14186e-05 0.0779659 2.68848e-06
1.10504 3.81049e-05 1.50935 5.20464e-05 0.108391 3.73761e-06
0.872433 3.00839e-05 1.50753 5.19837e-05 0.142973 4.9301e-06
0.633994 2.18619e-05 1.48419 5.11789e-05 0.181358 6.25374e-06
0.391421 1.34973e-05 1.43889 4.96169e-05 0.222923 7.68699e-06
0.145748 5.02578e-06 1.37194 4.73083e-05 0.266804 9.20014e-06
-0.162655 -5.6088e-06 1.28483 4.43044e-05 0.311854 1.07536e-05
-0.469342 -1.61842e-05 1.179 4.06551e-05 0.356725 1.23009e-05
-0.773723 -2.66801e-05 1.05632 3.64247e-05 0.399924 1.37905e-05
-1.07493 -3.70664e-05 0.920575 3.1744e-05 0.440233 1.51805e-05
-1.3697 -4.72309e-05 0.774249 2.66983e-05 0.476081 1.64166e-05
-1.65311 -5.70038e-05 0.620224 2.1387e-05 0.505979 1.74476e-05
-1.91908 -6.61752e-05 0.461442 1.59118e-05 0.528515 1.82247e-05
-2.16054 -7.45012e-05 0.300904 1.0376e-05 0.542422 1.87042e-05
-2.37128 -8.17683e-05 0.141264 4.87117e-06 0.546554 1.88467e-05
-2.54943 -8.79113e-05 -0.0745949 -2.57224e-06 0.53983 1.86148e-05
-2.69724 -9.30081e-05 -0.280478 -9.67167e-06 0.521505 1.79829e-05
-2.82142 -9.72904e-05 -0.470261 -1.62159e-05 0.491052 1.69328e-05
-2.93376 -0.000101164 -0.638566 -2.20195e-05 0.4482 1.54552e-05
-3.08237 -0.000106288 -0.813918 -2.80661e-05 0.377226 1.30078e-05
-3.27438 -0.00011291 -0.947308 -3.26658e-05 0.287723 9.9215e-06
-3.54644 -0.000122291 -1.03746 -3.57744e-05 0.181607 6.2623e-06
-3.92841 -0.000135462 -1.08874 -3.75429e-05 0.0617543 2.12946e-06
-4.43825 -0.000153043 -1.11326 -3.83883e-05 -0.130295 -4.49293e-06
-5.07953 -0.000175156 -1.12953 -3.89494e-05 -0.424381 -1.46338e-05
-5.83988 -0.000201375 -1.15948 -3.9982e-05 -0.720378 -2.48406e-05
-6.69193 -0.000230756 -1.22813 -4.23494e-05 -1.00539 -3.46686e-05
-7.60151 -0.000262121 -1.36174 -4.69565e-05 -1.26847 -4.37403e-05
-8.53947 -0.000294464 -1.58253 -5.45701e-05 -1.50191 -5.17899e-05
-9.48837 -0.000327185 -1.90542 -6.57042e-05 -1.70029 -5.86306e-05
-10.4415 -0.000360051 -2.3382 -8.06275e-05 -1.85988 -6.41337e-05
-11.3985 -0.00039305 -2.88165 -9.93672e-05 -1.98054 -6.82944e-05
-12.3614 -0.000426256 -3.52934 -0.000121701 -2.06583 -7.12355e-05
-13.3308 -0.000459682 -4.26871 -0.000147197 -2.12252 -7.31904e-05
-14.3002 -0.000493112 -5.08322 -0.000175284 -2.15897 -7.44471e-05
-15.2573 -0.000526115 -5.95308 -0.000205279 -2.18522 -7.53526e-05
-16.1898 -0.000558268 -6.85506 -0.000236381 -2.21279 -7.63031e-05
-17.091 -0.000589345 -7.76346 -0.000267705 -2.25407 -7.77266e-05
-17.9607 -0.000619335 -8.65189 -0.000298341 -2.32097 -8.00335e-05
-18.8003 -0.000648285 -9.49542 -0.000327428 -2.42407 -8.35888e-05
-19.6061 -0.000676072 -10.2728 -0.000354233 -2.57198 -8.86891e-05
-20.3658 -0.000702267 -10.968 -0.000378208 -2.77086 -9.55468e-05
-21.0634 -0.000726322 -11.5707 -0.000398991 -3.02387 -0.000104271
-21.6859 -0.000747791 -12.0752 -0.000416387 -3.33103 -0.000114863
-22.2256 -0.000766399 -12.4808 -0.000430373 -3.68917 -0.000127213
-22.6796 -0.000782057 -12.791 -0.00044107 -4.09227 -0.000141113
-23.051 -0.000794861 -13.0131 -0.000448727 -4.53168 -0.000156265
-23.3475 -0.000805086 -13.1576 -0.000453709 -4.99647 -0.000172292
-23.5813 -0.000813147 -13.2378 -0.000456475 -5.47385 -0.000188753
-23.7663 -0.000819526 -13.2691 -0.000457553 -5.94987 -0.000205168
-23.9176 -0.000824743 -13.2678 -0.00045751 -6.41009 -0.000221037
-24.0523 -0.000829389 -13.2504 -0.00045691 -6.84018 -0.000235868
-24.1908 -0.000834165 -13.2321 -0.000456278 -7.22669 -0.000249196
-24.3558 -0.000839857 -13.2264 -0.000456081 -7.55754 -0.000260605
-24.5686 -0.000847195 -13.2448 -0.000456716 -7.82259 -0.000269745
-24.8415 -0.000856603 -13.2975 -0.000458534 -8.01394 -0.000276343
-25.1712 -0.000867973 -13.3934 -0.000461841 -8.12616 -0.000280212
-25.5391 -0.00088066 -13.5394 -0.000466877 -8.1567 -0.000281265
-25.917 -0.000893689 -13.739 -0.000473758 -8.10618 -0.000279523
-26.2051 -0.000903623 -13.9365 -0.000480569 -8.00998 -0.000276206
-26.5216 -0.000914538 -14.2254 -0.000490529 -7.82591 -0.000269859
-26.7647 -0.000922919 -14.5494 -0.000501703 -7.58026 -0.000261388
-26.9124 -0.000928014 -14.8909 -0.000513478 -7.28565 -0.000251229
-26.9446 -0.000929124 -15.2281 -0.000525105 -6.95672 -0.000239887
-26.8399 -0.000925515 -15.5364 -0.000535739 -6.60929 -0.000227907
-26.5771 -0.000916453 -15.7899 -0.000544478 -6.25955 -0.000215847
-26.1358 -0.000901234 -15.9622 -0.000550422 -5.92319 -0.000204248
-25.4962 -0.000879179 -16.0289 -0.000552721 -5.61448 -0.000193603
-24.6415 -0.000849706 -15.9676 -0.000550607 -5.34551 -0.000184328
-23.5588 -0.000812372 -15.7593 -0.000543423 -5.12556 -0.000176744
-22.2396 -0.000766881 -15.3895 -0.000530672 -4.96049 -0.000171051
-20.6816 -0.000713159 -14.8485 -0.000512018 -4.85241 -0.000167324
-18.8945 -0.000651533 -14.131 -0.000487276 -4.79955 -0.000165502
-16.9043 -0.000582907 -13.2358 -0.000456407 -4.79629 -0.000165389
-14.7515 -0.000508671 -12.1669 -0.00041955 -4.83321 -0.000166662
-12.4802 -0.000430351 -10.935 -0.000377068 -4.89716 -0.000168867
-10.1336 -0.000349436 -9.55694 -0.00032955 -4.97169 -0.000171438
-7.75514 -0.000267419 -8.05558 -0.000277779 -5.03788 -0.00017372
-5.38867 -0.000185816 -6.45876 -0.000222716 -5.07512 -0.000175004
-3.07724 -0.000106112 -4.79824 -0.000165456 -5.06209 -0.000174555
-0.859606 -2.96416e-05 -3.1082 -0.000107179 -4.97777 -0.000171647
0.984641 3.39531e-05 -1.42587 -4.91681e-05 -4.80247 -0.000165602
2.5259 8.71001e-05 0.0301282 1.0389e-06 -4.52016 -0.000155868
3.95228 0.000136286 1.151 3.96897e-05 -4.11822 -0.000142007
5.26354 0.000181501 2.20338 7.59786e-05 -3.58612 -0.000123659
6.448 0.000222345 3.17666 0.00010954 -2.92027 -0.000100699
7.49953 0.000258604 4.05455 0.000139812 -2.1246 -7.3262e-05
8.40698 0.000289896 4.83218 0.000166627 -1.20668 -4.16097e-05
9.16477 0.000316027 5.51706 0.000190243 -0.18041 -6.22103e-06
9.78709 0.000337486 6.11286 0.000210788 0.430839 1.48565e-05
10.3 0.000355173 6.62379 0.000228406 0.974138 3.3591e-05
10.7369 0.000370238 7.06185 0.000243512 1.53781 5.30281e-05
11.1346 0.000383953 7.44291 0.000256652 2.10849 7.27065e-05
11.5311 0.000397624 7.78076 0.000268302 2.67128 9.2113e-05
11.9663 0.000412632 8.09033 0.000278977 3.20972 0.00011068
12.4816 0.000430402 8.39 0.00028931 3.71183 0.000127994
13.1155 0.00045226 8.69736 0.000299909 4.16629 0.000143665
13.8995 0.000479295 9.02794 0.000311308 4.5617 0.0001573
14.8528 0.000512165 9.39737 0.000324047 4.88707 0.00016852
15.9771 0.000550933 9.82114 0.00033866 5.13549 0.000177086
17.2568 0.000595062 10.3119 0.000355584 5.30291 0.000182859
18.665 0.000643622 10.8777 0.000375093 5.38798 0.000185792
20.17 0.000695516 11.5212 0.000397283 5.39152 0.000185915
21.7389 0.000749617 12.2391 0.000422038 5.31807 0.000183382
23.341 0.000804861 13.0206 0.000448986 5.17566 0.000178471
24.9477 0.000860265 13.848 0.000477518 4.97514 0.000171556
26.5327 0.00091492 14.6987 0.00050685 4.72911 0.000163073
28.0722 0.000968008 15.5457 0.000536058 4.45184 0.000153512
29.5441 0.00101876 16.36 0.000564137 4.15865 0.000143402
30.9253 0.00106639 17.1124 0.000590082 3.86513 0.00013328
32.1911 0.00111004 17.7757 0.000612956 3.58603 0.000123656
33.3178 0.00114889 18.3262 0.000631937 3.33462 0.000114987
34.2847 0.00118223 18.7445 0.000646363 3.12228 0.000107665
34.8255 0.00120088 19.0105 0.000655534 2.95865 0.000102022
34.9053 0.00120363 19.055 0.000657069 2.85353 9.83974e-05
34.9975 0.00120681 18.9656 0.000653986 2.80498 9.67236e-05
34.8506 0.00120175 18.7634 0.000647014 2.81261 9.69867e-05
34.6897 0.0011962 18.4462 0.000636075 2.86496 9.87918e-05
34.4827 0.00118906 18.0322 0.000621801 2.96151 0.000102121
33.5898 0.00115827 17.6014 0.000606944 3.09391 0.000106687
32.5518 0.00112247 17.0548 0.000588095 3.26717 0.000112661
31.4759 0.00108538 16.4762 0.000568144 3.45264 0.000119057
30.2914 0.00104453 15.8546 0.00054671 3.65051 0.00012588
29.0522 0.0010018 15.1944 0.000523944 3.85099 0.000132793
27.8607 0.000960713 14.5279 0.000500962 4.04265 0.000139402
26.7148 0.000921201 13.8855 0.00047881 4.21211 0.000145245
25.6639 0.000884961 13.2769 0.000457824 4.34792 0.000149928
24.763 0.000853895 12.7136 0.000438399 4.44332 0.000153218
24.0337 0.000828748 12.2169 0.000421273 4.49272 0.000154921
23.5029 0.000810446 11.8028 0.000406994 4.48915 0.000154798
23.1973 0.000799906 11.4769 0.000395755 4.42784 0.000152684
23.1228 0.000797338 11.2443 0.000387733 4.30881 0.00014858
23.2811 0.000802798 11.1111 0.000383141 4.13482 0.00014258
23.6666 0.00081609 11.0783 0.000382012 3.90926 0.000134802
24.2479 0.000836136 11.1432 0.000384248 3.6372 0.000125421
24.8918 0.000858339 11.3164 0.000390222 3.32553 0.000114673
25.5592 0.000881352 11.579 0.000399275 2.98612 0.00010297
26.2158 0.000903993 11.9174 0.000410946 2.63118 9.07305e-05
26.836 0.00092538 12.3114 0.000424532 2.27371 7.84039e-05
27.2879 0.000940963 12.6479 0.000436134 1.99516 6.87985e-05
27.6874 0.000954737 12.9865 0.000447811 1.73144 5.97048e-05
28.0233 0.000966321 13.3135 0.000459086 1.48992 5.13766e-05
28.2842 0.000975317 13.6161 0.000469519 1.2772 4.40414e-05
28.4591 0.00098135 13.8816 0.000478676 1.09891 3.78934e-05
28.5386 0.00098409 14.0982 0.000486145 0.959844 3.30981e-05
28.5138 0.000983235 14.2563 0.000491595 0.864033 2.97942e-05
28.3754 0.000978461 14.3491 0.000494798 0.814444 2.80843e-05
28.1131 0.000969419 14.3729 0.000495617 0.81265 2.80224e-05
27.7166 0.000955745 14.3259 0.000493996 0.858729 2.96113e-05
27.1754 0.000937084 14.2086 0.000489951 0.951432 3.2808e-05
26.4819 0.000913171 14.0237 0.000483574 1.0884 3.75312e-05
25.6336 0.000883919 13.7754 0.000475015 1.26628 4.36647e-05
24.6351 0.000849487 13.4691 0.000464452 1.48065 5.10568e-05
23.4985 0.000810293 13.1103 0.000452081 1.72614 5.95222e-05
22.2424 0.000766981 12.7053 0.000438114 1.99658 6.88477e-05
20.8889 0.000720308 12.2608 0.000422788 2.28519 7.87998e-05
19.4603 0.000671043 11.7848 0.000406371 2.58475 8.91293e-05
17.9775 0.000619915 11.2854 0.000389151 2.88771 9.9576e-05
16.4606 0.000567608 10.7713 0.000371423 3.18634 0.000109874
14.9291 0.000514796 10.2509 0.00035348 3.47296 0.000119757
13.4021 0.000462143 9.73255 0.000335605 3.74011 0.000128969
11.8983 0.000410286 9.22375 0.00031806 3.98077 0.000137268
10.4341 0.000359797 8.73128 0.000301079 4.18853 0.000144432
9.02378 0.000311165 8.26075 0.000284854 4.35768 0.000150265
7.67903 0.000264794 7.81653 0.000269535 4.4834 0.0001546
6.40949 0.000221017 7.40154 0.000255225 4.56183 0.000157305
5.22271 0.000180094 7.01718 0.000241972 4.59018 0.000158282
4.12404 0.000142208 6.66322 0.000229766 4.56676 0.000157474
3.1166 0.000107469 6.33778 0.000218544 4.49103 0.000154863
2.20125 7.59052e-05 6.03746 0.000208188 4.36355 0.000150467
1.37657 4.74679e-05 5.75749 0.000198534 4.18596 0.000144343
0.639177 2.20407e-05 5.49192 0.000189377 3.9609 0.000136583
-0.0158977 -5.48082e-07 5.23374 0.000180474 3.69193 0.000127308
-0.61314 -2.11427e-05 4.96422 0.00017118 3.38358 0.000116675
-0.900499 -3.10516e-05 4.65103 0.00016038 3.04542 0.000105014
-1.10771 -3.81967e-05 4.35902 0.000150311 2.67099 9.2103e-05
-1.2632 -4.35584e-05 4.03463 0.000139125 2.27479 7.8441e-05
-1.41825 -4.89051e-05 3.68648 0.00012712 1.85938 6.41167e-05
-1.55773 -5.37149e-05 3.31626 0.000114354 1.43116 4.93503e-05
-1.69134 -5.8322e-05 2.92819 0.000100972 0.994799 3.43034e-05
-1.86279 -6.42339e-05 2.51486 8.67195e-05 0.555696 1.91619e-05
-2.09849 -7.23617e-05 2.06724 7.12841e-05 0.12017 4.14378e-06
-2.40604 -8.29667e-05 1.58323 5.4594e-05 -0.674701 -2.32655e-05
-2.8014 -9.66e-05 1.0662 3.67654e-05 -1.56446 -5.39469e-05
-3.30541 -0.00011398 0.517057 1.78296e-05 -2.41531 -8.32867e-05
-3.9279 -0.000135445 -0.067317 -2.32128e-06 -3.21635 -0.000110909
-4.66972 -0.000161025 -0.848757 -2.92675e-05 -3.95744 -0.000136463
-5.53551 -0.00019088 -1.7399 -5.99967e-05 -4.63412 -0.000159797
-6.52494 -0.000224998 -2.68255 -9.25016e-05 -5.24258 -0.000180779
-7.63382 -0.000263235 -3.6658 -0.000126407 -5.78024 -0.000199319
-8.85775 -0.000305439 -4.68442 -0.000161532 -6.24476 -0.000215337
-10.1914 -0.000351429 -5.73731 -0.000197838 -6.63536 -0.000228805
-11.6259 -0.000400893 -6.82035 -0.000235184 -6.95346 -0.000239775
-13.1487 -0.000453402 -7.92372 -0.000273232 -7.20264 -0.000248367
-14.7445 -0.000508431 -9.03631 -0.000311597 -7.38776 -0.00025475
-16.395 -0.000565344 -10.1497 -0.000349988 -7.51438 -0.000259117
-18.0785 -0.000623398 -11.2569 -0.000388168 -7.58857 -0.000261675
-19.772 -0.000681795 -12.3494 -0.00042584 -7.61726 -0.000262664
-21.4518 -0.000739717 -13.4164 -0.000462635 -7.60837 -0.000262358
-23.0936 -0.00079633 -14.4473 -0.000498183 -7.57057 -0.000261054
-24.6731 -0.000850797 -15.4326 -0.00053216 -7.51264 -0.000259057
-26.1673 -0.00090232 -16.3636 -0.00056426 -7.44304 -0.000256657
-27.5548 -0.000950165 -17.2307 -0.000594163 -7.36985 -0.000254133
-28.8166 -0.000993677 -18.0246 -0.000621536 -7.30083 -0.000251753
-29.9367 -0.0010323 -18.736 -0.00064607 -7.24335 -0.000249771
-30.9021 -0.00106559 -19.3574 -0.000667496 -7.204 -0.000248414
-31.7041 -0.00109325 -19.8818 -0.000685578 -7.1882 -0.000247869
-32.3377 -0.00111509 -20.3031 -0.000700107 -7.20003 -0.000248277
-32.8018 -0.0011311 -20.6164 -0.000710912 -7.24227 -0.000249734
-33.0983 -0.00114132 -20.8186 -0.000717883 -7.3164 -0.00025229
-33.2322 -0.00114594 -20.9084 -0.000720979 -7.42244 -0.000255946
-33.21 -0.00114517 -20.8864 -0.000720221 -7.55888 -0.000260651
-33.0394 -0.00113929 -20.7543 -0.000715666 -7.72276 -0.000266302
-32.7378 -0.00112889 -20.5162 -0.000707455 -7.90956 -0.000272743
-32.3222 -0.00111456 -20.1784 -0.000695807 -8.1135 -0.000279776
-31.8117 -0.00109696 -19.7492 -0.000681008 -8.32764 -0.00028716
-31.2288 -0.00107686 -19.2388 -0.000663407 -8.544 -0.000294621
-30.596 -0.00105504 -18.6588 -0.000643407 -8.75381 -0.000301855
-29.9338 -0.0010322 -18.0224 -0.000621461 -8.94783 -0.000308546
-29.2628 -0.00100906 -17.3438 -0.000598063 -9.11659 -0.000314365
-28.6038 -0.000986337 -16.638 -0.000573726 -9.25072 -0.00031899
-27.9774 -0.000964737 -15.92 -0.000548967 -9.34124 -0.000322112
-27.4032 -0.000944939 -15.2046 -0.000524297 -9.37988 -0.000323444
-26.8999 -0.000927581 -14.506 -0.000500207 -9.35933 -0.000322736
-26.4839 -0.000913238 -13.8376 -0.000477159 -9.27354 -0.000319777
-26.1693 -0.000902391 -13.2116 -0.000455574 -9.11788 -0.00031441
-25.9674 -0.000895426 -12.6389 -0.000435823 -8.88939 -0.000306531
-25.8867 -0.000892646 -12.1283 -0.000418216 -8.58688 -0.000296099
-25.9341 -0.00089428 -11.6868 -0.000402995 -8.21107 -0.00028314
-26.1143 -0.000900491 -11.3195 -0.000390327 -7.76463 -0.000267746
-26.4232 -0.000911144 -11.0298 -0.000380337 -7.25209 -0.000250072
-26.8431 -0.000925625 -10.8252 -0.000373284 -6.67839 -0.000230289
-27.4214 -0.000945567 -10.685 -0.000368447 -6.05514 -0.000208798
-28.0985 -0.000968914 -10.6203 -0.000366217 -5.3919 -0.000185928
-28.8589 -0.000995134 -10.634 -0.000366691 -4.69586 -0.000161926
-29.6983 -0.00102408 -10.7118 -0.000369371 -3.98125 -0.000137284
-30.6077 -0.00105544 -10.8464 -0.000374014 -3.26 -0.000112414
-31.5652 -0.00108846 -11.0284 -0.00038029 -2.54815 -8.78672e-05
-32.4623 -0.00111939 -11.255 -0.000388102 -1.85927 -6.41128e-05
-33.3384 -0.0011496 -11.5212 -0.000397284 -1.20585 -4.15811e-05
-34.1307 -0.00117692 -11.819 -0.000407553 -0.600418 -2.07041e-05
-34.8164 -0.00120056 -12.1385 -0.000418569 -0.169854 -5.85704e-06
-35.3804 -0.00122001 -12.4713 -0.000430044 0.0456476 1.57405e-06
-35.7885 -0.00123409 -12.8063 -0.000441595 0.220872 7.61627e-06
-36.0094 -0.0012417 -13.1323 -0.000452839 0.351999 1.21379e-05
-36.0212 -0.00124211 -13.436 -0.000463311 0.436767 1.50609e-05
-35.822 -0.00123524 -13.7053 -0.000472595 0.472199 1.62827e-05
-35.4053 -0.00122087 -13.9293 -0.000480319 0.455151 1.56949e-05
-34.7686 -0.00119892 -14.0974 -0.000486117 0.383795 1.32343e-05
-33.9209 -0.00116969 -14.1999 -0.000489651 0.258532 8.91488e-06
-32.8742 -0.00113359 -14.229 -0.000490654 0.0813997 2.80689e-06
-31.6405 -0.00109105 -14.1796 -0.000488952 -0.144836 -4.99434e-06
-30.2373 -0.00104267 -14.0503 -0.000484493 -0.662277 -2.28371e-05
-28.6893 -0.000989285 -13.8393 -0.000477218 -1.34694 -4.64461e-05
-27.0241 -0.000931866 -13.5475 -0.000467156 -2.1109 -7.27897e-05
-25.2711 -0.000871418 -13.178 -0.000454414 -2.9368 -0.000101269
-23.4594 -0.000808945 -12.7383 -0.000439251 -3.80702 -0.000131277
-21.6168 -0.000745406 -12.2387 -0.000422025 -4.70437 -0.000162219
-19.7693 -0.000681701 -11.6909 -0.000403136 -5.61099 -0.000193482
-17.9417 -0.000618679 -11.1077 -0.000383025 -6.50729 -0.000224389
-16.1568 -0.000557132 -10.5037 -0.000362196 -7.37232 -0.000254218
-14.4353 -0.000497769 -9.89455 -0.000341191 -8.1855 -0.000282259
-12.7954 -0.00044122 -9.29589 -0.000320548 -8.92799 -0.000307862
-11.2537 -0.00038806 -8.72185 -0.000300754 -9.58303 -0.000330449
-9.8258 -0.000338821 -8.18485 -0.000282236 -10.1356 -0.000349502
-8.52528 -0.000293975 -7.69558 -0.000265365 -10.5722 -0.000364557
-7.36255 -0.000253881 -7.26278 -0.000250441 -10.8817 -0.000375231
-6.34363 -0.000218746 -6.89256 -0.000237674 -11.056 -0.000381242
-5.47006 -0.000188623 -6.58796 -0.000227171 -11.0905 -0.00038243
-4.73919 -0.000163421 -6.34894 -0.000218929 -10.9836 -0.000378745
-4.14453 -0.000142915 -6.17253 -0.000212846 -10.737 -0.000370242
-3.67588 -0.000126754 -6.05292 -0.000208721 -10.3551 -0.000357072
-3.31952 -0.000114466 -5.98137 -0.000206254 -9.84509 -0.000339486
-3.05826 -0.000105457 -5.94646 -0.00020505 -9.21726 -0.000317837
-2.87135 -9.90119e-05 -5.93464 -0.000204643 -8.48434 -0.000292563
-2.73454 -9.42946e-05 -5.93071 -0.000204507 -7.6611 -0.000264176
-2.62043 -9.03597e-05 -5.91838 -0.000204082 -6.76383 -0.000233235
-2.49913 -8.61767e-05 -5.88061 -0.00020278 -5.80989 -0.000200341
-2.62462 -9.0504e-05 -5.74844 -0.000198222 -4.82083 -0.000166235
-2.75729 -9.50789e-05 -5.5596 -0.00019171 -3.8157 -0.000131576
-2.84569 -9.81273e-05 -5.32035 -0.00018346 -2.79796 -9.64813e-05
-2.81555 -9.70879e-05 -4.97982 -0.000171718 -1.79861 -6.20211e-05
-2.63665 -9.09188e-05 -4.54615 -0.000156764 -0.824483 -2.84304e-05
-2.31811 -7.99348e-05 -4.01818 -0.000138558 -0.139771 -4.81968e-06
-1.84772 -6.37145e-05 -3.39838 -0.000117186 0.265323 9.14905e-06
-1.22369 -4.21961e-05 -2.67158 -9.21235e-05 0.64099 2.21031e-05
-0.469621 -1.61938e-05 -1.83254 -6.31911e-05 0.984939 3.39634e-05
0.279579 9.64066e-06 -0.880059 -3.03469e-05 1.29484 4.46496e-05
1.14905 3.96225e-05 0.177127 6.10782e-06 1.56708 5.40373e-05
2.13527 7.36299e-05 1.01685 3.5064e-05 1.79986 6.20641e-05
3.23702 0.000111621 1.91371 6.59901e-05 1.99346 6.874e-05
4.44025 0.000153112 2.86818 9.89029e-05 2.15057 7.41577e-05
5.72528 0.000197423 3.87629 0.000133665 2.27458 7.84339e-05
7.07595 0.000243998 4.91904 0.000169622 2.36836 8.16674e-05
8.47296 0.000292171 5.98154 0.00020626 2.43508 8.39684e-05
9.89016 0.00034104 7.05406 0.000243243 2.47962 8.55041e-05
11.292 0.000389379 8.12872 0.000280301 2.50736 8.64608e-05
12.6617 0.00043661 9.18823 0.000316836 2.52419 8.7041e-05
13.9835 0.000482189 10.2147 0.000352231 2.53554 8.74324e-05
15.2451 0.000525693 11.1922 0.000385937 2.54664 8.78153e-05
16.4371 0.000566798 12.107 0.000417482 2.56275 8.83708e-05
17.5525 0.00060526 12.946 0.000446413 2.58872 8.92663e-05
18.5856 0.000640884 13.6964 0.000472289 2.62874 9.06463e-05
19.5314 0.000673497 14.3474 0.00049474 2.68603 9.26216e-05
20.3617 0.000702129 14.8969 0.000513686 2.76276 9.52677e-05
20.9876 0.000723709 15.3521 0.000529382 2.85899 9.85858e-05
21.4997 0.00074137 15.6955 0.000541224 2.97481 0.00010258
21.8822 0.000754558 15.9253 0.000549147 3.11285 0.00010734
22.1285 0.000763051 16.0536 0.000553572 3.26844 0.000112705
22.2467 0.000767127 16.0811 0.000554519 3.44022 0.000118628
22.2494 0.00076722 16.0122 0.000552143 3.62352 0.000124949
22.1458 0.000763649 15.8533 0.000546665 3.81493 0.000131549
21.9459 0.000756755 15.6157 0.000538473 4.00993 0.000138274
21.6707 0.000747267 15.3114 0.00052798 4.20316 0.000144936
21.3411 0.0007359 14.9515 0.000515568 4.38856 0.00015133
20.9753 0.000723286 14.5469 0.000501619 4.56014 0.000157246
20.5943 0.000710148 14.1105 0.000486567 4.71226 0.000162492
20.2202 0.000697247 13.6557 0.000470886 4.83958 0.000166882
19.8729 0.000685271 13.1958 0.000455027 4.93695 0.00017024
19.5702 0.000674835 12.7424 0.000439393 4.99956 0.000172398
19.3292 0.000666523 12.3063 0.000424354 5.02328 0.000173217
19.1649 0.000660859 11.8975 0.000410259 5.00502 0.000172587
19.0893 0.00065825 11.5253 0.000397425 4.94272 0.000170439
19.1104 0.000658978 11.1973 0.000386112 4.83529 0.000166734
19.2328 0.000663199 10.9189 0.000376514 4.68259 0.000161469
19.4572 0.000670939 10.6942 0.000368764 4.4856 0.000154676
19.7813 0.000682113 10.5253 0.000362941 4.24647 0.00014643
20.2003 0.000696561 10.4127 0.000359058 3.96854 0.000136846
20.6847 0.000713265 10.3531 0.000357003 3.65625 0.000126078
21.2314 0.000732116 10.3488 0.000356855 3.31455 0.000114295
21.8179 0.000752342 10.3928 0.000358373 2.94952 0.000101707
22.4302 0.000773457 10.4773 0.000361285 2.56833 8.8563e-05
23.0655 0.00079536 10.5953 0.000365357 2.17795 7.51016e-05
23.7113 0.000817633 10.7378 0.000370267 1.78628 6.15958e-05
24.3497 0.000839644 10.894 0.000375654 1.40126 4.83192e-05
24.9678 0.000860959 11.0531 0.000381143 1.03079 3.55444e-05
25.5554 0.000881222 11.2055 0.000386398 0.682398 2.3531e-05
26.0982 0.000899938 11.3426 0.000391126 0.363112 1.25211e-05
26.5795 0.000916535 11.4568 0.000395063 0.0792658 2.7333e-06
26.9836 0.00093047 11.5416 0.000397985 -0.164157 -5.66059e-06
27.2954 0.000941222 11.5915 0.000399706 -0.592288 -2.04237e-05
27.5011 0.000948314 11.6035 0.000400121 -0.914588 -3.15375e-05
27.5902 0.000951385 11.5765 0.000399189 -1.12504 -3.87946e-05
27.5533 0.000950113 11.5103 0.000396908 -1.21931 -4.20453e-05
27.3872 0.000944387 11.4052 0.000393283 -1.19658 -4.12613e-05
27.093 0.000934243 11.2628 0.000388372 -1.0597 -3.65414e-05
26.6742 0.000919799 11.0863 0.000382287 -0.814138 -2.80737e-05
26.1408 0.000901408 10.8804 0.000375185 -0.466908 -1.61003e-05
25.5092 0.000879629 10.6496 0.000367227 -0.153585 -5.29603e-06
24.7976 0.000855091 10.3993 0.000358597 0.0844537 2.9122e-06
24.025 0.000828447 10.1367 0.00034954 0.35524 1.22497e-05
23.2105 0.000800363 9.86978 0.000340337 0.652437 2.24978e-05
22.3724 0.000771464 9.60719 0.000331282 0.969168 3.34196e-05
21.5275 0.000742327 9.35735 0.000322667 1.29769 4.4748e-05
20.6927 0.000713542 9.12872 0.000314783 1.63058 5.62268e-05
19.8862 0.00068573 8.92949 0.000307913 1.961 6.76205e-05
19.1261 0.00065952 8.76717 0.000302316 2.2825 7.8707e-05
18.43 0.000635516 8.64813 0.000298211 2.58877 8.9268e-05
17.8142 0.000614284 8.57745 0.000295774 2.87373 9.90942e-05
17.2938 0.000596337 8.559 0.000295138 3.13202 0.000108001
16.8809 0.0005821 8.59552 0.000296397 3.35931 0.000115838
16.5842 0.00057187 8.68849 0.000299603 3.55228 0.000122492
16.4074 0.000565773 8.83814 0.000304763 3.70849 0.000127879
16.3486 0.000563743 9.04347 0.000311844 3.82629 0.000131941
16.4001 0.000565522 9.30231 0.000320769 3.90496 0.000134654
16.55 0.000570688 9.61119 0.00033142 3.94486 0.00013603
16.7821 0.000578694 9.96517 0.000343626 3.94744 0.000136118
17.0769 0.000588859 10.3579 0.00035717 3.91507 0.000135002
17.4115 0.000600397 10.7818 0.000371785 3.85094 0.000132791
17.7617 0.000612472 11.2274 0.00038715 3.75896 0.000129619
18.1029 0.000624239 11.684 0.000402898 3.64372 0.000125646
18.4112 0.00063487 12.1399 0.000418617 3.51037 0.000121047
18.6637 0.000643577 12.582 0.000433862 3.36447 0.000116016
18.8397 0.000649646 12.9965 0.000448156 3.21175 0.00011075
18.9214 0.000652462 13.3692 0.000461009 3.05791 0.000105445
18.8936 0.000651503 13.686 0.00047193 2.90845 0.000100291
18.7439 0.00064634 13.9331 0.000480452 2.76851 9.5466e-05
18.4619 0.000636616 14.0981 0.00048614 2.64267 9.11266e-05
18.039 0.000622033 14.1698 0.000488615 2.53476 8.74054e-05
17.4682 0.000602352 14.1393 0.000487562 2.4477 8.44036e-05
16.7452 0.000577419 13.9995 0.00048274 2.38346 8.21881e-05
15.8685 0.000547189 13.7456 0.000473987 2.34289 8.07894e-05
14.8403 0.000511736 13.3755 0.000461225 2.3258 8.02002e-05
13.6667 0.000471265 12.8893 0.000444458 2.33087 8.0375e-05
12.3569 0.000426101 12.2895 0.000423777 2.3557 8.12311e-05
10.9235 0.000376673 11.5813 0.000399355 2.39686 8.26504e-05
9.40671 0.000324369 10.7678 0.000371304 2.45034 8.44944e-05
7.81842 0.000269601 9.85558 0.000339848 2.512 8.66206e-05
6.1766 0.000212986 8.87775 0.000306129 2.57063 8.86426e-05
4.49458 0.000154985 7.82221 0.000269731 2.62655 9.05707e-05
2.76277 9.5268e-05 6.71661 0.000231607 2.66994 9.20669e-05
1.02609 3.53823e-05 5.5755 0.000192258 2.69466 9.29195e-05
-0.835911 -2.88245e-05 4.4164 0.00015229 2.69302 9.28628e-05
-2.86131 -9.86658e-05 3.25546 0.000112257 2.65918 9.16959e-05
-4.78764 -0.000165091 2.10022 7.24214e-05 2.588 8.92413e-05
-6.55731 -0.000226114 0.959418 3.30834e-05 2.47383 8.53045e-05
-8.18124 -0.000282112 -0.352054 -1.21398e-05 2.31451 7.98108e-05
-9.65614 -0.00033297 -1.81189 -6.24789e-05 2.10571 7.26105e-05
-10.9387 -0.000377195 -3.1901 -0.000110004 1.84552 6.36387e-05
-12.013 -0.000414241 -4.4669 -0.000154031 1.53348 5.28786e-05
-12.8899 -0.000444478 -5.63028 -0.000194148 1.17114 4.03841e-05
-13.5713 -0.000467977 -6.67699 -0.000230241 0.760499 2.62241e-05
-14.0544 -0.000484635 -7.6055 -0.000262259 0.304568 1.05023e-05
-14.3513 -0.000494874 -8.41226 -0.000290078 -0.192143 -6.62563e-06
-14.4837 -0.000499439 -9.09796 -0.000313723 -1.19024 -4.10426e-05
-14.4731 -0.000499071 -9.66539 -0.000333289 -2.40383 -8.28908e-05
-14.3433 -0.000494595 -10.1229 -0.000349065 -3.66377 -0.000126337
-14.1249 -0.000487065 -10.4785 -0.000361328 -4.94648 -0.000170568
-13.8533 -0.000477699 -10.7435 -0.000370465 -6.23047 -0.000214844
-13.564 -0.000467726 -10.9317 -0.000376956 -7.49672 -0.000258508
-13.2915 -0.000458328 -11.059 -0.000381344 -8.72606 -0.000300899
-13.0702 -0.000450696 -11.142 -0.000384208 -9.89703 -0.000341277
-12.9264 -0.000445738 -11.1982 -0.000386146 -10.9868 -0.000378857
-12.8908 -0.000444509 -11.2445 -0.000387741 -11.9744 -0.000412911
-12.9874 -0.000447843 -11.2992 -0.000389629 -12.8332 -0.000442523
-13.2478 -0.000456821 -11.3182 -0.000390282 -12.9664 -0.000447117
-13.6872 -0.000471973 -11.2668 -0.000388512 -12.9663 -0.000447113
-14.2842 -0.00049256 -11.3183 -0.000390286 -13.0591 -0.000450312
-15.0724 -0.000519737 -11.4511 -0.000394865 -13.1524 -0.000453532
-16.0192 -0.000552385 -11.7568 -0.000405408 -13.1461 -0.000453315
-17.1334 -0.000590808 -12.1943 -0.000420492 -13.001 -0.00044831
-18.428 -0.000635449 -12.6839 -0.000437375 -12.728 -0.000438897
-19.8882 -0.000685799 -13.2196 -0.000455848 -12.4095 -0.000427913
-21.5018 -0.00074144 -13.8183 -0.000476491 -12.0191 -0.000414452
-23.2564 -0.000801945 -14.495 -0.000499827 -11.4699 -0.000395513
-25.133 -0.000866655 -15.2347 -0.000525335 -10.7385 -0.000370292
-27.1075 -0.000934742 -16.0052 -0.000551904 -9.88952 -0.000341018
-29.1532 -0.00100528 -16.7847 -0.000578784 -9.00611 -0.000310555
-31.2412 -0.00107728 -17.5647 -0.000605678 -8.12027 -0.000280009
-33.3382 -0.00114959 -18.3375 -0.000632327 -7.21367 -0.000248747
-35.4088 -0.00122099 -19.0877 -0.000658196 -6.27133 -0.000216253
-37.4176 -0.00129026 -19.7957 -0.000682611 -5.31883 -0.000183408
-39.3303 -0.00135622 -20.4449 -0.000704997 -4.4082 -0.000152007
-41.1129 -0.00141768 -21.0235 -0.000724948 -3.57894 -0.000123412
-42.7247 -0.00147326 -21.5221 -0.000742142 -2.84017 -9.79368e-05
-42.984 -0.00148221 -21.7455 -0.000749844 -2.21513 -7.63839e-05
-43.5163 -0.00150056 -21.7159 -0.000748823 -1.72018 -5.93167e-05
-43.878 -0.00151303 -21.8887 -0.000754783 -1.26168 -4.35064e-05
-43.943 -0.00151528 -21.8858 -0.000754683 -0.937713 -3.23349e-05
-43.9795 -0.00151653 -21.7818 -0.000751095 -0.764213 -2.63522e-05
-44.0876 -0.00152026 -21.743 -0.000749758 -0.674827 -2.32699e-05
-43.9896 -0.00151688 -21.7173 -0.000748873 -0.68275 -2.35431e-05
-43.6504 -0.00150518 -21.5618 -0.00074351 -0.805944 -2.77912e-05
-43.1534 -0.00148805 -21.3164 -0.000735049 -1.04932 -3.61835e-05
-42.5119 -0.00146593 -21.0191 -0.000724796 -1.39941 -4.82554e-05
-41.6527 -0.0014363 -20.6742 -0.000712903 -1.85388 -6.3927e-05
-40.6235 -0.00140081 -20.2808 -0.000699338 -2.38948 -8.2396e-05
-39.5005 -0.00136209 -19.8352 -0.000683971 -2.99507 -0.000103278
-38.2913 -0.00132039 -19.3587 -0.000667543 -3.65887 -0.000126168
-37.0036 -0.00127599 -18.8749 -0.000650857 -4.36898 -0.000150654
-35.6843 -0.00123049 -18.3963 -0.000634354 -5.10754 -0.000176122
-34.3779 -0.00118545 -17.9288 -0.000618233 -5.85442 -0.000201877
-33.1082 -0.00114166 -17.4828 -0.000602853 -6.59164 -0.000227298
-31.9019 -0.00110006 -17.075 -0.000588793 -7.30423 -0.00025187
-30.7952 -0.0010619 -16.7207 -0.000576577 -7.97841 -0.000275117
-29.818 -0.00102821 -16.4292 -0.000566523 -8.59996 -0.000296551
-28.9913 -0.000999701 -16.2062 -0.000558834 -9.1549 -0.000315686
-28.3353 -0.000977078 -16.0588 -0.000553751 -9.63121 -0.000332111
-27.8682 -0.000960972 -15.9945 -0.000551534 -10.0201 -0.000345519
-27.6019 -0.000951789 -16.0182 -0.000552352 -10.3155 -0.000355707
-27.5319 -0.000949376 -16.1323 -0.000556287 -10.5136 -0.000362537
-27.6014 -0.000951771 -16.3451 -0.000563625 -10.6109 -0.000365894
-27.8123 -0.000959045 -16.6489 -0.0005741 -10.6079 -0.00036579
-28.1584 -0.00097098 -17.0365 -0.000587467 -10.5087 -0.000362368
-28.6289 -0.000987204 -17.5019 -0.000603514 -10.3189 -0.000355824
-29.2097 -0.00100723 -18.0332 -0.000621835 -10.0473 -0.000346459
-29.8837 -0.00103047 -18.615 -0.000641896 -9.70398 -0.00033462
-30.6308 -0.00105624 -19.2303 -0.000663114 -9.30087 -0.00032072
-31.4277 -0.00108371 -19.8631 -0.000684934 -8.85127 -0.000305216
-32.2487 -0.00111202 -20.497 -0.000706792 -8.36944 -0.000288601
-33.0666 -0.00114023 -21.1145 -0.000728085 -7.87008 -0.000271382
-33.8538 -0.00116737 -21.6975 -0.000748191 -7.3679 -0.000254066
-34.5831 -0.00119252 -22.2293 -0.000766527 -6.87727 -0.000237147
-35.2291 -0.0012148 -22.6945 -0.00078257 -6.41186 -0.000221099
-35.7686 -0.0012334 -23.0796 -0.000795848 -5.98421 -0.000206352
-36.1819 -0.00124765 -23.3721 -0.000805934 -5.60542 -0.00019329
-36.4536 -0.00125702 -23.5614 -0.000812461 -5.28478 -0.000182234
-36.5729 -0.00126113 -23.6395 -0.000815154 -5.02962 -0.000173435
-36.5332 -0.00125977 -23.6012 -0.000813835 -4.84505 -0.000167071
-36.332 -0.00125283 -23.4444 -0.000808429 -4.73381 -0.000163235
-35.9694 -0.00124032 -23.1698 -0.000798959 -4.69622 -0.000161939
-35.4476 -0.00122233 -22.7811 -0.000785556 -4.73017 -0.000163109
-34.7704 -0.00119898 -22.2854 -0.000768463 -4.83122 -0.000166594
-33.9435 -0.00117047 -21.6925 -0.000748018 -4.99279 -0.000172165
-32.9757 -0.00113709 -21.0143 -0.000724633 -5.20643 -0.000179532
-31.8794 -0.00109929 -20.2644 -0.000698773 -5.46206 -0.000188347
-30.6707 -0.00105761 -19.4575 -0.000670947 -5.74838 -0.00019822
-29.3679 -0.00101269 -18.609 -0.00064169 -6.05315 -0.000208729
-27.9912 -0.000965215 -17.7349 -0.000611548 -6.36362 -0.000219435
-26.5615 -0.000915913 -16.8508 -0.000581063 -6.66687 -0.000229892
-25.0988 -0.000865477 -15.9721 -0.00055076 -6.9502 -0.000239662
-23.6222 -0.00081456 -15.1129 -0.000521136 -7.20148 -0.000248327
-22.1495 -0.000763776 -14.2864 -0.000492635 -7.40952 -0.000255501
-20.6982 -0.000713732 -13.5034 -0.000465633 -7.56441 -0.000260842
-19.287 -0.000665069 -12.7722 -0.000440421 -7.65782 -0.000264063
-17.9363 -0.000618491 -12.0986 -0.000417192 -7.68317 -0.000264937
-16.6669 -0.000574722 -11.4854 -0.000396049 -7.63579 -0.000263303
-15.4984 -0.000534429 -10.9334 -0.000377015 -7.51294 -0.000259067
-14.4462 -0.000498144 -10.4414 -0.000360048 -7.31376 -0.000252199
-13.5199 -0.000466202 -10.0065 -0.000345052 -7.03927 -0.000242733
-12.7228 -0.000438716 -9.62494 -0.000331894 -6.69222 -0.000230766
-12.0519 -0.000415582 -9.29182 -0.000320408 -6.27704 -0.00021645
-11.4991 -0.00039652 -9.0015 -0.000310397 -5.79967 -0.000199988
-11.0518 -0.000381098 -8.74752 -0.000301639 -5.26739 -0.000181634
-10.6942 -0.000368764 -8.52279 -0.000293889 -4.68871 -0.00016168
-10.4071 -0.000358866 -8.31973 -0.000286887 -4.07307 -0.000140451
-10.1698 -0.000350684 -8.13034 -0.000280357 -3.43068 -0.000118299
-9.96093 -0.00034348 -7.94625 -0.000274009 -2.77228 -9.5596e-05
-9.75895 -0.000336515 -7.75898 -0.000267551 -2.10888 -7.27199e-05
-9.54186 -0.00032903 -7.56029 -0.0002607 -1.45144 -5.00495e-05
-9.28658 -0.000320227 -7.34246 -0.000253188 -0.810661 -2.79538e-05
-8.96828 -0.000309251 -7.10216 -0.000244902 -0.400251 -1.38017e-05
-8.56203 -0.000295242 -6.84702 -0.000236104 -0.167748 -5.78442e-06
-8.05168 -0.000277644 -6.55141 -0.000225911 0.0518632 1.78839e-06
-7.4178 -0.000255786 -6.21178 -0.000214199 0.253952 8.75695e-06
-6.68769 -0.00023061 -5.80901 -0.000200311 0.425256 1.4664e-05
-6.03935 -0.000208254 -5.29344 -0.000182533 0.56275 1.94052e-05
-5.29488 -0.000182582 -4.77307 -0.000164589 0.682983 2.35512e-05
-4.49717 -0.000155075 -4.16869 -0.000143748 0.781454 2.69467e-05
-3.52004 -0.000121381 -3.5107 -0.000121059 0.856247 2.95257e-05
-2.40558 -8.2951e-05 -2.80574 -9.67498e-05 0.905828 3.12354e-05
-1.21696 -4.19641e-05 -2.06775 -7.13018e-05 0.929872 3.20645e-05
-0.239395 -8.25498e-06 -1.32964 -4.58495e-05 0.934032 3.2208e-05
0.750025 2.58629e-05 -0.575617 -1.98489e-05 0.921716 3.17833e-05
1.76855 6.09846e-05 0.113527 3.91473e-06 0.889105 3.06588e-05
2.76882 9.54767e-05 0.681748 2.35085e-05 0.84473 2.91286e-05
3.78725 0.000130595 1.24814 4.30392e-05 0.785905 2.71002e-05
4.8329 0.000166652 1.80814 6.23498e-05 0.718133 2.47632e-05
5.86082 0.000202097 2.36896 8.16883e-05 0.647424 2.2325e-05
6.85096 0.00023624 2.91767 0.000100609 0.577636 1.99185e-05
7.81237 0.000269392 3.4414 0.000118669 0.511828 1.76492e-05
8.73625 0.00030125 3.93573 0.000135715 0.45299 1.56203e-05
9.60048 0.000331051 4.40087 0.000151754 0.40487 1.3961e-05
10.3958 0.000358475 4.83429 0.0001667 0.370677 1.2782e-05
11.1217 0.000383506 5.22914 0.000180315 0.352942 1.21704e-05
11.772 0.000405933 5.57981 0.000192407 0.353623 1.21939e-05
12.3394 0.000425497 5.88494 0.000202929 0.374175 1.29026e-05
12.8227 0.000442162 6.14533 0.000211908 0.415422 1.43249e-05
13.2241 0.000456003 6.36089 0.000219341 0.477562 1.64676e-05
13.5448 0.000467061 6.53079 0.0002252 0.560256 1.93192e-05
13.7873 0.000475425 6.6557 0.000229507 0.662625 2.28492e-05
13.958 0.000481312 6.73856 0.000232364 0.783172 2.70059e-05
14.0652 0.000485008 6.78345 0.000233912 0.919777 3.17164e-05
14.1181 0.000486831 6.79424 0.000234284 1.05945 3.65328e-05
14.1287 0.000487198 6.7692 0.000233421 1.19535 4.12191e-05
14.109 0.000486516 6.71382 0.000231511 1.34342 4.63249e-05
14.0701 0.000485177 6.64201 0.000229035 1.49582 5.158e-05
14.0274 0.000483704 6.55866 0.000226161 1.64523 5.67319e-05
13.9924 0.000482496 6.47233 0.000223184 1.78704 6.16222e-05
13.9785 0.000482019 6.38684 0.000220236 1.92273 6.63012e-05
13.9987 0.000482715 6.30892 0.000217549 2.05264 7.07807e-05
14.0651 0.000485005 6.24655 0.000215398 2.17328 7.49408e-05
14.1886 0.00048926 6.20717 0.00021404 2.27902 7.8587e-05
14.378 0.000495794 6.19682 0.000213684 2.3658 8.15793e-05
14.6405 0.000504844 6.22045 0.000214498 2.43288 8.38923e-05
14.9798 0.000516545 6.28294 0.000216653 2.48104 8.55533e-05
15.3972 0.000530937 6.38891 0.000220307 2.51021 8.65589e-05
15.8914 0.000547978 6.54194 0.000225584 2.51847 8.68437e-05
16.4592 0.00056756 6.74341 0.000232531 2.50143 8.62562e-05
17.096 0.000589517 6.99306 0.00024114 2.46055 8.48467e-05
17.7951 0.000613623 7.29032 0.00025139 2.39906 8.27261e-05
18.5487 0.000639612 7.63324 0.000263215 2.31987 7.99954e-05
19.3481 0.000667177 8.01883 0.000276511 2.22504 7.67257e-05
20.1835 0.000695983 8.44232 0.000291114 2.11719 7.30067e-05
21.0447 0.00072568 8.8976 0.000306814 2.00035 6.89775e-05
21.9213 0.000755906 9.37775 0.000323371 1.87964 6.48153e-05
22.8011 0.000786245 9.87562 0.000340539 1.76021 6.0697e-05
23.6638 0.000815992 10.3858 0.000358131 1.64631 5.67692e-05
24.5015 0.000844879 10.8971 0.000375763 1.54234 5.31842e-05
25.3053 0.000872596 11.4016 0.000393159 1.45259 5.00894e-05
26.0681 0.000898899 11.8916 0.000410056 1.38131 4.76315e-05
26.781 0.000923482 12.3595 0.00042619 1.33267 4.59542e-05
27.4347 0.000946025 12.7982 0.000441316 1.30992 4.51696e-05
28.0217 0.000966267 13.2018 0.000455233 1.31548 4.53612e-05
28.5138 0.000983234 13.5718 0.000467995 1.35091 4.65831e-05
28.885 0.000996036 13.9055 0.000479501 1.41681 4.88555e-05
29.1723 0.00100594 14.1967 0.00048954 1.51273 5.21631e-05
29.364 0.00101255 14.4386 0.000497883 1.6418 5.6614e-05
29.4485 0.00101547 14.6405 0.000504846 1.79997 6.20678e-05
29.433 0.00101493 14.7987 0.000510301 1.98646 6.84986e-05
29.3201 0.00101104 14.9124 0.000514221 2.19763 7.57803e-05
29.116 0.001004 14.9822 0.000516627 2.43112 8.38316e-05
28.8259 0.000993997 15.013 0.000517689 2.66579 9.19238e-05
28.4638 0.000981511 14.9982 0.000517178 2.89008 9.96579e-05
28.0418 0.00096696 14.9471 0.000515418 3.13293 0.000108032
27.5713 0.000950735 14.8731 0.000512867 3.38242 0.000116635
27.0668 0.000933338 14.7808 0.000509682 3.62481 0.000124993
26.5393 0.000915148 14.6788 0.000506165 3.8546 0.000132917
26.0047 0.000896715 14.5681 0.00050235 4.07531 0.000140528
25.4768 0.000878511 14.4542 0.00049842 4.288 0.000147862
24.9686 0.000860985 14.3433 0.000494595 4.48735 0.000154736
24.4918 0.000844545 14.2416 0.000491089 4.66444 0.000160843
24.0501 0.000829315 14.1541 0.000488072 4.81324 0.000165974
23.6244 0.000814635 14.087 0.000485759 4.9328 0.000170097
23.2183 0.00080063 14.0407 0.000484161 5.02444 0.000173256
22.831 0.000787276 14.0156 0.000483298 5.0881 0.000175452
22.4595 0.000774464 14.013 0.000483208 5.12091 0.000176583
22.101 0.000762104 14.0306 0.000483812 5.1186 0.000176503
21.7552 0.000750178 14.0617 0.000484886 5.07787 0.000175099
21.4216 0.000738677 14.0991 0.000486174 5.0031 0.000172521
21.0985 0.000727533 14.1357 0.000487438 4.89852 0.000168914
20.7816 0.000716608 14.1646 0.000488434 4.76583 0.000164339
20.4647 0.000705678 14.1781 0.000488899 4.606 0.000158827
20.1392 0.000694456 14.1673 0.000488528 4.42194 0.000152481
19.7966 0.00068264 14.1233 0.000487011 4.21875 0.000145474
19.4281 0.000669935 14.0379 0.000484066 4.00194 0.000137998
19.0249 0.000656032 13.9038 0.000479442 3.77569 0.000130196
18.5771 0.000640588 13.7145 0.000472914 3.54288 0.000122168
18.074 0.000623242 13.4644 0.000464289 3.3063 0.00011401
17.5066 0.000603676 13.1487 0.000453405 3.06941 0.000105842
16.8683 0.000581664 12.7641 0.000440142 2.83586 9.77883e-05
16.1557 0.000557093 12.3084 0.000424426 2.6085 8.99484e-05
15.3683 0.000529942 11.7806 0.000406228 2.38896 8.2378e-05
14.5076 0.00050026 11.1814 0.000385567 2.17803 7.51044e-05
13.5761 0.000468141 10.513 0.000362519 1.97623 6.81458e-05
12.5773 0.000433699 9.77925 0.000337215 1.78392 6.15147e-05
11.5146 0.000397055 8.98556 0.000309847 1.60095 5.52053e-05
10.3919 0.00035834 8.13891 0.000280652 1.42633 4.91838e-05
9.21369 0.000317714 7.24737 0.000249909 1.25836 4.33916e-05
7.98594 0.000275377 6.31989 0.000217927 1.09501 3.77591e-05
6.71611 0.00023159 5.36595 0.000185033 0.934236 3.2215e-05
5.41377 0.000186682 4.39517 0.000151558 0.773919 2.66869e-05
4.09031 0.000141045 3.41709 0.000117831 0.611837 2.10978e-05
2.75824 9.51117e-05 2.44105 8.41741e-05 0.445652 1.53673e-05
1.43035 4.93223e-05 1.476 5.08966e-05 0.273101 9.41726e-06
0.132684 4.57532e-06 0.527792 1.81997e-05 0.0917929 3.16527e-06
-1.2358 -4.26137e-05 -0.541299 -1.86655e-05 -0.102037 -3.51852e-06
-2.68381 -9.25451e-05 -1.73863 -5.99527e-05 -0.30695 -1.05845e-05
-4.06062 -0.000140021 -2.88817 -9.9592e-05 -0.507642 -1.75049e-05
-5.14428 -0.000177389 -4.0032 -0.000138042 -0.930647 -3.20913e-05
-6.13918 -0.000211696 -5.02964 -0.000173436 -1.37956 -4.7571e-05
-7.04265 -0.00024285 -5.97705 -0.000206105 -1.86095 -6.41706e-05
-7.84494 -0.000270515 -6.86557 -0.000236744 -2.35097 -8.10681e-05
-8.52301 -0.000293897 -7.67482 -0.000264649 -2.85438 -9.84269e-05
-9.09262 -0.000313539 -8.39141 -0.000289359 -3.37266 -0.000116299
-9.56664 -0.000329884 -9.01066 -0.000310713 -3.91045 -0.000134843
-9.94205 -0.000342829 -9.54242 -0.000329049 -4.46075 -0.000153819
-10.2234 -0.000352531 -9.99289 -0.000344582 -5.01153 -0.000172811
-10.4279 -0.000359583 -10.3602 -0.000357248 -5.55281 -0.000191476
-10.5708 -0.000364512 -10.6428 -0.000366994 -6.08032 -0.000209666
-10.6639 -0.00036772 -10.8461 -0.000374002 -6.59166 -0.000227299
-10.7223 -0.000369735 -10.9796 -0.000378605 -7.08082 -0.000244166
-10.7647 -0.000371195 -11.0518 -0.000381096 -7.53753 -0.000259915
-10.8076 -0.000372674 -11.069 -0.000381689 -7.95122 -0.00027418
-10.8663 -0.000374701 -11.0383 -0.000380633 -8.31441 -0.000286704
-10.9571 -0.000377832 -10.9696 -0.000378262 -8.62241 -0.000297324
-11.0958 -0.000382615 -10.8736 -0.00037495 -8.8706 -0.000305883
-11.2962 -0.000389526 -10.7601 -0.000371037 -9.05296 -0.000312171
-11.5698 -0.000398957 -10.638 -0.000366827 -9.16327 -0.000315975
-11.9258 -0.000411234 -10.5163 -0.00036263 -9.19716 -0.000317143
-12.3711 -0.000426589 -10.4034 -0.000358738 -9.14256 -0.000315261
-12.9095 -0.000445155 -10.3057 -0.000355367 -8.9991 -0.000310314
-13.5418 -0.000466957 -10.23 -0.000352759 -8.7685 -0.000302362
-14.2669 -0.000491962 -10.182 -0.000351105 -8.45246 -0.000291464
-15.0818 -0.000520061 -10.1668 -0.000350579 -8.05273 -0.00027768
-15.9812 -0.000551077 -10.1875 -0.000351294 -7.57423 -0.000261181
-16.9588 -0.000584787 -10.2452 -0.000353284 -7.0256 -0.000242262
-18.0068 -0.000620924 -10.3392 -0.000356525 -6.41742 -0.00022129
-19.1161 -0.000659176 -10.4676 -0.000360952 -5.76047 -0.000198637
-20.2761 -0.000699177 -10.6277 -0.000366471 -5.06552 -0.000174673
-21.4748 -0.00074051 -10.8157 -0.000372955 -4.34425 -0.000149802
-22.6985 -0.000782707 -11.0269 -0.000380239 -3.60997 -0.000124482
-23.9325 -0.000825259 -11.2561 -0.000388143 -2.87698 -9.92061e-05
-25.1611 -0.000867624 -11.4979 -0.00039648 -2.15946 -7.44641e-05
-26.3682 -0.000909249 -11.747 -0.000405071 -1.47073 -5.07148e-05
-27.5381 -0.00094959 -11.9984 -0.000413738 -0.823331 -2.83907e-05
-28.6546 -0.00098809 -12.2522 -0.000422489 -0.474088 -1.63479e-05
-29.7032 -0.00102425 -12.5101 -0.000431383 -0.254817 -8.78678e-06
-30.6752 -0.00105776 -12.7548 -0.000439819 -0.0626224 -2.15939e-06
-31.5578 -0.0010882 -12.9837 -0.000447714 0.0947773 3.26818e-06
-32.3454 -0.00111536 -13.1888 -0.000454785 0.209011 7.20726e-06
-33.0311 -0.001139 -13.3739 -0.000461168 0.281536 9.70815e-06
-33.6117 -0.00115902 -13.5417 -0.000466956 0.316073 1.08991e-05
-34.0869 -0.00117541 -13.6924 -0.000472152 0.311501 1.07414e-05
-34.4581 -0.00118821 -13.8275 -0.000476812 0.261578 9.01995e-06
-34.7297 -0.00119757 -13.9501 -0.000481037 0.164823 5.68356e-06
-34.9074 -0.0012037 -14.0654 -0.000485013 0.0232339 8.01168e-07
-34.9989 -0.00120686 -14.1793 -0.000488941 -0.159177 -5.48887e-06
-35.0142 -0.00120739 -14.2967 -0.000492989 -0.378356 -1.30468e-05
-34.9651 -0.00120569 -14.4232 -0.00049735 -0.627501 -2.1638e-05
-34.8668 -0.00120231 -14.5597 -0.000502059 -1.20339 -4.1496e-05
-34.7309 -0.00119762 -14.713 -0.000507345 -1.83961 -6.34349e-05
-34.5749 -0.00119224 -14.8956 -0.00051364 -2.51992 -8.68939e-05
-34.4171 -0.0011868 -15.1121 -0.000521108 -3.22673 -0.000111267
-34.2659 -0.00118158 -15.3723 -0.000530079 -3.94819 -0.000136144
-33.9489 -0.00117065 -15.7103 -0.000541735 -4.6779 -0.000161307
-33.6673 -0.00116094 -16.0945 -0.000554982 -5.41068 -0.000186575
-33.4818 -0.00115454 -16.5109 -0.000569341 -6.14149 -0.000211776
-33.363 -0.00115045 -16.9882 -0.000585801 -6.85409 -0.000236348
-33.323 -0.00114907 -17.5197 -0.000604127 -7.53828 -0.000259941
-33.3803 -0.00115104 -18.0986 -0.000624088 -8.18802 -0.000282345
-33.5386 -0.0011565 -18.7193 -0.000645492 -8.80008 -0.000303451
-33.7927 -0.00116527 -19.3819 -0.00066834 -9.37168 -0.000323161
-34.1425 -0.00117733 -20.0869 -0.000692651 -9.89695 -0.000341274
-34.5454 -0.00119122 -20.8234 -0.000718047 -10.371 -0.000357621
-35.0441 -0.00120842 -21.5841 -0.000744279 -10.7915 -0.00037212
-35.6294 -0.0012286 -22.3559 -0.000770892 -11.1601 -0.000384831
-36.2524 -0.00125008 -23.1477 -0.000798195 -11.4767 -0.000395747
-36.9385 -0.00127374 -23.9473 -0.00082577 -11.7407 -0.000404853
-37.6575 -0.00129853 -24.7478 -0.000853371 -11.9552 -0.000412247
-38.3866 -0.00132368 -25.5386 -0.000880642 -12.1211 -0.000417969
-39.1108 -0.00134865 -26.3122 -0.000907318 -12.2436 -0.000422191
-39.8219 -0.00137317 -27.0614 -0.000933152 -12.3261 -0.000425038
-40.502 -0.00139662 -27.775 -0.00095776 -12.3739 -0.000426687
-41.132 -0.00141834 -28.4413 -0.000980735 -12.3917 -0.000427298
-41.7016 -0.00143798 -29.0494 -0.0010017 -12.3832 -0.000427007
-42.2029 -0.00145527 -29.5898 -0.00102034 -12.3542 -0.000426007
-42.6261 -0.00146986 -30.0537 -0.00103633 -12.3102 -0.000424489
-42.9624 -0.00148146 -30.4315 -0.00104936 -12.2561 -0.000422623
-43.2072 -0.0014899 -30.7151 -0.00105914 -12.1959 -0.000420549
-43.3573 -0.00149508 -30.8982 -0.00106546 -12.1333 -0.000418391
-43.4094 -0.00149688 -30.9766 -0.00106816 -12.0711 -0.000416246
-43.3557 -0.00149502 -30.9458 -0.0010671 -12.0116 -0.000414191
-43.2032 -0.00148977 -30.8041 -0.00106221 -11.9555 -0.000412259
-42.9559 -0.00148124 -30.5528 -0.00105355 -11.9024 -0.000410427
-42.6178 -0.00146958 -30.1953 -0.00104122 -11.8508 -0.000408647
-42.1955 -0.00145502 -29.7372 -0.00102542 -11.7981 -0.000406831
-41.6944 -0.00143774 -29.1868 -0.00100644 -11.741 -0.000404864
-41.1163 -0.0014178 -28.5541 -0.000984622 -11.6754 -0.000402599
-40.4634 -0.00139529 -27.8504 -0.000960357 -11.5963 -0.000399872
-39.7404 -0.00137036 -27.0879 -0.000934065 -11.4986 -0.000396504
-38.9537 -0.00134323 -26.2792 -0.000906178 -11.3771 -0.000392314
-38.1119 -0.0013142 -25.4364 -0.000877118 -11.2268 -0.00038713
-37.226 -0.00128366 -24.5713 -0.000847288 -11.043 -0.000380792
-36.3081 -0.001252 -23.6949 -0.000817064 -10.8215 -0.000373156
-35.3694 -0.00121963 -22.8171 -0.000786797 -10.559 -0.000364103
-34.42 -0.0011869 -21.9472 -0.000756801 -10.2528 -0.000353543
-33.4685 -0.00115409 -21.0931 -0.000727349 -9.90124 -0.000341422
-32.5214 -0.00112143 -20.2615 -0.000698673 -9.50389 -0.00032772
-31.5829 -0.00108907 -19.4577 -0.000670954 -9.06128 -0.000312458
-30.6551 -0.00105707 -18.6854 -0.000644324 -8.57516 -0.000295695
-29.7379 -0.00102545 -17.9469 -0.000618859 -8.04841 -0.000277531
-28.8293 -0.000994115 -17.2429 -0.000594584 -7.48505 -0.000258105
-27.9254 -0.000962944 -16.5726 -0.00057147 -6.89017 -0.000237592
-27.0205 -0.000931742 -15.9337 -0.000549439 -6.2698 -0.0002162
-26.108 -0.000900277 -15.3226 -0.000528364 -5.63077 -0.000194165
-25.1802 -0.000868283 -14.7343 -0.000508079 -4.98059 -0.000171744
-24.2292 -0.000835488 -14.163 -0.000488381 -4.3272 -0.000149214
-23.2474 -0.000801635 -13.6021 -0.000469037 -3.67886 -0.000126857
-22.2285 -0.000766499 -13.044 -0.000449793 -3.04385 -0.00010496
-20.8947 -0.000720509 -12.3387 -0.000425474 -2.28115 -7.86604e-05
-19.4878 -0.000671993 -11.6112 -0.000400386 -1.56679 -5.40273e-05
-18.0018 -0.000620751 -10.848 -0.000374071 -0.913902 -3.15139e-05
-16.4282 -0.000566489 -10.044 -0.000346346 -0.508847 -1.75464e-05
-14.756 -0.000508829 -9.19892 -0.000317204 -0.301241 -1.03876e-05
-12.9748 -0.000447405 -8.29822 -0.000286146 -0.124339 -4.28756e-06
-11.0762 -0.000381939 -7.33448 -0.000252913 0.0161098 5.55509e-07
-9.05906 -0.000312382 -6.31165 -0.000217643 0.115308 3.97612e-06
-6.92881 -0.000238925 -5.24169 -0.000180748 0.186789 6.44101e-06
-4.69631 -0.000161942 -4.13166 -0.000142471 0.235369 8.11617e-06
-2.57433 -8.87703e-05 -2.95095 -0.000101757 0.258122 8.90074e-06
-0.711376 -2.45304e-05 -1.73799 -5.99307e-05 0.254022 8.75937e-06
0.634437 2.1877e-05 -0.594329 -2.04941e-05 0.242045 8.3464e-06
2.09819 7.23511e-05 0.243878 8.40958e-06 0.21841 7.53139e-06
3.4825 0.000120086 1.02511 3.53485e-05 0.197227 6.80092e-06
4.82088 0.000166237 1.75834 6.06323e-05 0.177968 6.13683e-06
6.1449 0.000211893 2.45662 8.4711e-05 0.168992 5.8273e-06
7.37408 0.000254278 3.10843 0.000107187 0.174792 6.02732e-06
8.50879 0.000293406 3.69304 0.000127346 0.200338 6.90821e-06
9.55887 0.000329616 4.21472 0.000145335 0.248424 8.56633e-06
10.4936 0.000361849 4.68061 0.0001614 0.320934 1.10667e-05
11.3124 0.000390083 5.08643 0.000175394 0.406945 1.40326e-05
12.0253 0.000414665 5.42519 0.000187076 0.512289 1.76651e-05
12.6289 0.00043548 5.7084 0.000196841 0.639201 2.20414e-05
13.1348 0.000452923 5.94498 0.000204999 0.782572 2.69852e-05
13.5594 0.000467565 6.13905 0.000211691 0.9378 3.23379e-05
13.916 0.00047986 6.29527 0.000217078 1.10544 3.81186e-05
14.2212 0.000490386 6.42477 0.000221544 1.28244 4.42219e-05
14.4939 0.00049979 6.53843 0.000225463 1.46228 5.04235e-05
14.751 0.000508654 6.64483 0.000229132 1.63886 5.65123e-05
15.0101 0.000517588 6.75277 0.000232854 1.80906 6.23815e-05
15.2888 0.000527198 6.8723 0.000236976 1.96992 6.79282e-05
15.6029 0.00053803 7.0121 0.000241797 2.11696 7.29985e-05
15.9669 0.000550584 7.17887 0.000247547 2.24569 7.74377e-05
16.3936 0.000565296 7.37831 0.000254424 2.35368 8.11615e-05
16.8928 0.00058251 7.61502 0.000262587 2.43992 8.41353e-05
17.4716 0.000602468 7.89184 0.000272132 2.50349 8.63271e-05
18.1326 0.000625263 8.20998 0.000283103 2.54368 8.77132e-05
18.8735 0.000650809 8.56959 0.000295503 2.56111 8.83141e-05
19.6869 0.00067886 8.96914 0.000309281 2.55522 8.81109e-05
20.5621 0.000709039 9.40493 0.000324308 2.52849 8.71895e-05
21.4849 0.00074086 9.87284 0.000340443 2.48528 8.56993e-05
22.4392 0.000773765 10.3677 0.000357507 2.42912 8.37627e-05
23.4072 0.000807143 10.883 0.000375275 2.36473 8.15426e-05
24.3711 0.000840384 11.4104 0.00039346 2.29812 7.92456e-05
25.3145 0.000872913 11.9407 0.000411749 2.23567 7.70921e-05
26.2223 0.000904216 12.4646 0.000429815 2.18283 7.52699e-05
27.0816 0.000933847 12.9726 0.00044733 2.14464 7.39531e-05
27.8808 0.000961409 13.4554 0.000463978 2.12599 7.33101e-05
28.6099 0.000986548 13.9051 0.000479488 2.1313 7.34932e-05
29.2599 0.00100896 14.3156 0.00049364 2.16369 7.46101e-05
29.8235 0.0010284 14.6823 0.000506286 2.22494 7.6722e-05
30.2949 0.00104465 15.003 0.000517343 2.31572 7.98524e-05
30.6708 0.00105761 15.277 0.000526794 2.43573 8.39908e-05
30.9512 0.00106728 15.5058 0.000534684 2.58343 8.90838e-05
31.1389 0.00107376 15.6907 0.000541058 2.73365 9.4264e-05
31.2408 0.00107727 15.8275 0.000545775 2.90563 0.000100194
31.2614 0.00107798 15.9321 0.000549383 3.09153 0.000106604
31.2115 0.00107626 16.0104 0.000552083 3.28499 0.000113276
31.0955 0.00107226 16.0685 0.000554087 3.47862 0.000119952
30.9291 0.00106652 16.1104 0.00055553 3.67582 0.000126753
30.6616 0.0010573 16.1529 0.000556995 3.87248 0.000133534
30.3463 0.00104642 16.1942 0.000558421 4.05821 0.000139938
30.0671 0.0010368 16.2257 0.000559508 4.22932 0.000145839
29.8032 0.0010277 16.2637 0.000560819 4.38294 0.000151136
29.5092 0.00101756 16.3148 0.000562578 4.51757 0.000155778
29.1706 0.00100588 16.3776 0.000564745 4.62778 0.000159578
28.7866 0.000992643 16.4496 0.000567226 4.71163 0.00016247
28.3607 0.000977957 16.5316 0.000570054 4.76842 0.000164428
27.8957 0.000961919 16.6142 0.000572905 4.79881 0.000165476
27.3899 0.00094448 16.6844 0.000575322 4.80265 0.000165609
26.8455 0.000925708 16.7306 0.000576918 4.77811 0.000164762
26.2645 0.000905672 16.7419 0.000577307 4.7281 0.000163038
25.6476 0.000884401 16.7046 0.000576022 4.65588 0.000160547
24.9946 0.000861883 16.6062 0.000572628 4.5634 0.000157359
24.302 0.000837999 16.4372 0.000566801 4.45333 0.000153563
23.5616 0.000812471 16.1904 0.00055829 4.3288 0.000149269
22.7616 0.000784883 15.8604 0.000546909 4.19243 0.000144567
21.8877 0.00075475 15.4444 0.000532567 4.04568 0.000139506
20.928 0.000721656 14.9427 0.000515267 3.88948 0.00013412
19.8756 0.000685367 14.3568 0.000495062 3.72467 0.000128437
18.7298 0.000645857 13.6891 0.000472037 3.55175 0.000122474
17.4937 0.000603232 12.9438 0.000446339 3.37048 0.000116224
16.1715 0.000557637 12.1272 0.000418178 3.18003 0.000109656
14.7681 0.000509246 11.2463 0.000387805 2.97935 0.000102736
13.29 0.000458275 10.3096 0.000355502 2.76729 9.54238e-05
11.7438 0.000404959 9.3259 0.000321583 2.54253 8.76736e-05
10.1357 0.000349508 8.30507 0.000286382 2.30363 7.94357e-05
8.46972 0.00029206 7.25684 0.000250236 2.04929 7.0665e-05
6.74873 0.000232715 6.19046 0.000213464 1.77856 6.13298e-05
4.97804 0.000171657 5.11393 0.000176343 1.49101 5.14142e-05
3.16809 0.000109245 4.0334 0.000139083 1.18666 4.09194e-05
1.33294 4.59637e-05 2.95329 0.000101838 0.8661 2.98655e-05
-0.194262 -6.69833e-06 1.83119 6.31445e-05 0.53204 1.83462e-05
-1.59956 -5.51567e-05 0.738432 2.54632e-05 0.183862 6.34006e-06
-3.12403 -0.000107725 -0.346908 -1.19623e-05 -0.179137 -6.17715e-06
-4.53581 -0.000156407 -1.80262 -6.21591e-05 -0.548926 -1.89285e-05
-5.90226 -0.000203526 -3.2052 -0.000110524 -1.25525 -4.32844e-05
-7.18954 -0.000247915 -4.53128 -0.000156251 -2.01054 -6.93289e-05
-8.36242 -0.000288359 -5.78932 -0.000199632 -2.77135 -9.55636e-05
-9.4368 -0.000325407 -6.99706 -0.000241278 -3.51788 -0.000121306
-10.4073 -0.000358874 -8.12984 -0.000280339 -4.25518 -0.00014673
-11.2644 -0.000388428 -9.17317 -0.000316316 -4.99496 -0.00017224
-12.0206 -0.000414502 -10.1325 -0.000349397 -5.72066 -0.000197264
-12.682 -0.00043731 -11.0115 -0.000379706 -6.4117 -0.000221093
-13.2538 -0.000457027 -11.8007 -0.000406919 -7.06009 -0.000243452
-13.7487 -0.000474094 -12.4945 -0.000430844 -7.66822 -0.000264421
-14.1777 -0.000488884 -13.0963 -0.000451597 -8.22889 -0.000283755
-14.552 -0.000501791 -13.6083 -0.000469253 -8.72762 -0.000300952
-14.8871 -0.000513347 -14.0288 -0.000483753 -9.15391 -0.000315652
-15.1977 -0.000524059 -14.3585 -0.00049512 -9.50558 -0.000327779
-15.4964 -0.000534359 -14.6016 -0.000503504 -9.77973 -0.000337232
-15.7935 -0.000544604 -14.763 -0.00050907 -9.96925 -0.000343767
-16.0958 -0.000555029 -14.8474 -0.000511981 -10.0676 -0.000347159
-16.408 -0.000565792 -14.8608 -0.00051244 -10.0708 -0.000347269
-16.7355 -0.000577085 -14.8071 -0.000510591 -9.97049 -0.00034381
-17.0841 -0.000589106 -14.6912 -0.000506592 -9.7687 -0.000336852
-17.4591 -0.000602038 -14.5183 -0.00050063 -9.46699 -0.000326448
-17.8632 -0.000615973 -14.2951 -0.000492935 -9.068 -0.00031269
-18.2946 -0.000630846 -14.0278 -0.000483717 -8.57908 -0.00029583
-18.7473 -0.000646457 -13.7219 -0.000473168 -8.01061 -0.000276228
-19.2131 -0.00066252 -13.3834 -0.000461498 -7.37278 -0.000254234
-19.6821 -0.000678691 -13.0185 -0.000448913 -6.67602 -0.000230208
-20.1428 -0.000694578 -12.6321 -0.000435591 -5.93291 -0.000204583
-20.5822 -0.00070973 -12.2287 -0.000421679 -5.15815 -0.000177867
-20.9859 -0.000723651 -11.812 -0.000407309 -4.36677 -0.000150578
-21.3392 -0.000735833 -11.3852 -0.000392594 -3.57332 -0.000123218
-21.6277 -0.000745781 -10.9509 -0.000377619 -2.79241 -9.629e-05
-21.8342 -0.000752904 -10.5117 -0.000362472 -2.03897 -7.03092e-05
-21.9016 -0.000755226 -10.0778 -0.000347511 -1.32625 -4.57329e-05
-21.8103 -0.000752079 -9.63908 -0.000332382 -0.70924 -2.44565e-05
-21.5683 -0.000743734 -9.20665 -0.000317471 -0.466784 -1.6096e-05
-21.1873 -0.000730595 -8.76583 -0.00030227 -0.252761 -8.71588e-06
-20.6802 -0.00071311 -8.30666 -0.000286436 -0.0691057 -2.38295e-06
-20.0682 -0.000692008 -7.81813 -0.000269591 0.0674126 2.32457e-06
-19.3609 -0.000667615 -7.309 -0.000252034 0.165176 5.69573e-06
-18.5692 -0.000640319 -6.7842 -0.000233938 0.228751 7.88796e-06
-17.7034 -0.00061046 -6.24546 -0.000215361 0.258397 8.91023e-06
-16.77 -0.000578275 -5.69998 -0.000196551 0.246359 8.49514e-06
-15.7773 -0.000544046 -5.16233 -0.000178011 0.19614 6.76343e-06
-14.7384 -0.000508221 -4.6442 -0.000160145 0.11685 4.0293e-06
-13.6702 -0.000471387 -4.15443 -0.000143256 0.0136431 4.7045e-07
-12.594 -0.000434275 -3.70258 -0.000127675 -0.111693 -3.85149e-06
-11.5311 -0.000397625 -3.29961 -0.00011378 -0.25405 -8.76035e-06
-10.5008 -0.000362095 -2.95484 -0.000101891 -0.405169 -1.39713e-05
-9.51928 -0.000328251 -2.67533 -9.22528e-05 -0.558144 -1.92464e-05
-8.60013 -0.000296556 -2.46577 -8.50265e-05 -0.736217 -2.53868e-05
-7.75088 -0.000267271 -2.32945 -8.0326e-05 -1.03892 -3.58248e-05
-6.97145 -0.000240395 -2.27189 -7.8341e-05 -1.32143 -4.55664e-05
-6.25531 -0.0002157 -2.29276 -7.90607e-05 -1.56857 -5.40888e-05
-5.58935 -0.000192736 -2.3887 -8.23688e-05 -1.78044 -6.13946e-05
-4.95722 -0.000170938 -2.55218 -8.80064e-05 -1.95834 -6.75288e-05
-4.3399 -0.000149652 -2.77307 -9.5623e-05 -2.10167 -7.24713e-05
-3.7169 -0.000128169 -3.03789 -0.000104755 -2.20761 -7.61243e-05
-3.06682 -0.000105752 -3.32935 -0.000114805 -2.27938 -7.85993e-05
-2.36683 -8.16143e-05 -3.62716 -0.000125074 -2.32404 -8.01394e-05
-1.66558 -5.74333e-05 -3.89871 -0.000134438 -2.34845 -8.09811e-05
-1.29373 -4.46111e-05 -4.06175 -0.00014006 -2.36536 -8.15643e-05
-0.847644 -2.92287e-05 -4.20991 -0.000145169 -2.36106 -8.1416e-05
-0.430315 -1.48381e-05 -4.27803 -0.000147518 -2.34992 -8.10318e-05
0.0824705 2.84418e-06 -4.2651 -0.000147072 -2.33151 -8.03969e-05
0.658583 2.27101e-05 -4.16665 -0.000143678 -2.31136 -7.9702e-05
1.32092 4.55494e-05 -3.97212 -0.00013697 -2.28685 -7.88568e-05
2.07718 7.16274e-05 -3.66021 -0.000126214 -2.25976 -7.79228e-05
2.9109 0.000100376 -3.23034 -0.000111391 -2.23045 -7.69119e-05
3.82888 0.000132031 -2.68893 -9.27218e-05 -2.19563 -7.57114e-05
4.83035 0.000166564 -2.03473 -7.0163e-05 -2.14946 -7.41191e-05
5.90339 0.000203566 -1.26783 -4.37184e-05 -2.08599 -7.19308e-05
7.0405 0.000242776 -0.497164 -1.71436e-05 -1.99991 -6.89626e-05
8.22809 0.000283728 0.196877 6.78886e-06 -1.8852 -6.5007e-05
9.45078 0.000325889 0.943397 3.25309e-05 -1.73324 -5.97669e-05
10.6966 0.00036885 1.74708 6.02442e-05 -1.53372 -5.28867e-05
11.9493 0.000412046 2.59406 8.94504e-05 -1.28104 -4.41738e-05
13.1943 0.000454977 3.46893 0.000119618 -0.968248 -3.33879e-05
14.4183 0.000497183 4.3646 0.000150504 -0.619881 -2.13752e-05
15.6076 0.000538195 5.27225 0.000181802 -0.427818 -1.47523e-05
16.75 0.000577587 6.1734 0.000212876 -0.203785 -7.02708e-06
17.8316 0.000614884 7.06719 0.000243696 0.051528 1.77683e-06
18.8439 0.00064979 7.94813 0.000274073 0.335374 1.15646e-05
19.7771 0.000681971 8.81091 0.000303825 0.643295 2.21826e-05
20.6251 0.000711211 9.64689 0.000332651 0.979948 3.37913e-05
21.3831 0.00073735 10.4528 0.000360441 1.34291 4.63073e-05
22.0495 0.000760328 11.2276 0.000387159 1.72559 5.9503e-05
22.6266 0.000780227 11.9688 0.000412716 2.12084 7.31323e-05
23.1204 0.000797256 12.6732 0.000437008 2.52565 8.70915e-05
23.5394 0.000811705 13.3399 0.000459996 2.93621 0.000101249
23.8938 0.000823924 13.9685 0.000481673 3.34577 0.000115371
24.1943 0.000834286 14.5588 0.000502028 3.74644 0.000129188
24.4513 0.000843149 15.1106 0.000521056 4.13229 0.000142493
24.6744 0.000850842 15.6244 0.000538773 4.49839 0.000155117
24.8727 0.000857679 16.1008 0.0005552 4.83909 0.000166865
25.0548 0.00086396 16.5399 0.000570343 5.14819 0.000177524
25.2295 0.000869984 16.9416 0.000584191 5.42064 0.000186918
25.4159 0.000876411 17.2618 0.000595233 5.35716 0.00018473
25.618 0.00088338 17.4734 0.000602531 5.41002 0.000186552
25.8184 0.000890289 17.693 0.000610103 5.45031 0.000187942
26.0408 0.000897958 17.911 0.000617621 5.42383 0.000187029
26.2736 0.000905985 18.1059 0.000624341 5.37487 0.00018534
26.5231 0.000914589 18.2462 0.000629179 5.37791 0.000185445
26.7858 0.000923649 18.3497 0.000632748 5.3808 0.000185545
27.0541 0.0009329 18.4131 0.000634933 5.3074 0.000183014
27.3175 0.000941984 18.4249 0.000635341 5.17006 0.000178278
27.566 0.000950552 18.3799 0.000633788 5.00743 0.00017267
27.7832 0.000958042 18.2856 0.000630537 4.82952 0.000166535
27.9405 0.000963467 18.1459 0.000625722 4.61206 0.000159036
28.0258 0.000966407 17.9546 0.000619123 4.35273 0.000150094
28.0268 0.000966443 17.7087 0.000610645 4.07238 0.000140427
27.9408 0.000963476 17.4066 0.000600227 3.78785 0.000130616
27.7654 0.000957429 17.0455 0.000587776 3.49457 0.000120502
27.5002 0.000948283 16.6227 0.000573195 3.18911 0.000109969
27.147 0.000936105 16.1381 0.000556485 2.88037 9.93231e-05
26.7062 0.000920903 15.5929 0.000537685 2.58071 8.89899e-05
26.1773 0.000902665 14.9892 0.000516869 2.29229 7.90444e-05
25.5597 0.000881369 14.332 0.000494207 2.01256 6.93986e-05
24.8511 0.000856936 13.6287 0.000469956 1.74305 6.01051e-05
24.0488 0.000829269 12.8875 0.000444397 1.48909 5.13481e-05
23.1492 0.000798248 12.1172 0.000417833 1.25253 4.31906e-05
22.1489 0.000763755 11.3279 0.000390617 1.03107 3.55543e-05
21.0479 0.000725791 10.5298 0.000363097 0.822855 2.83743e-05
19.8531 0.00068459 9.73122 0.000335559 0.628574 2.1675e-05
18.577 0.000640587 8.93883 0.000308235 0.448679 1.54717e-05
17.2357 0.000594334 8.15846 0.000281326 0.281558 9.70889e-06
15.8464 0.000546427 7.39501 0.000255 0.12497 4.30932e-06
14.4264 0.000497463 6.65208 0.000229382 -0.0220808 -7.61407e-07
12.9925 0.000448017 5.93232 0.000204563 -0.159972 -5.51626e-06
11.56 0.000398621 5.23787 0.000180616 -0.289775 -9.99225e-06
10.1424 0.000349739 4.57047 0.000157602 -0.413183 -1.42477e-05
8.75071 0.000301749 3.93138 0.000135565 -0.531448 -1.83258e-05
7.39198 0.000254896 3.32162 0.000114539 -0.645189 -2.22479e-05
6.0682 0.000209249 2.74419 9.46271e-05 -0.731718 -2.52317e-05
4.77787 0.000164754 2.20641 7.6083e-05 -0.89606 -3.08986e-05
3.52283 0.000121477 1.69785 5.85464e-05 -1.07639 -3.71167e-05
2.30489 7.94793e-05 1.21644 4.19462e-05 -1.24687 -4.29954e-05
1.13324 3.90777e-05 0.760048 2.62086e-05 -1.40846 -4.85677e-05
0.0374561 1.29196e-06 0.327214 1.12833e-05 -1.57389 -5.4272e-05
-0.808013 -2.78622e-05 -0.0889132 -3.06597e-06 -1.74492 -6.01697e-05
-1.6094 -5.54961e-05 -0.520312 -1.79418e-05 -1.90192 -6.55835e-05
-2.30907 -7.96227e-05 -1.01633 -3.50459e-05 -2.06422 -7.11798e-05
-2.94856 -0.000101674 -1.53197 -5.28266e-05 -2.22082 -7.658e-05
-3.52618 -0.000121592 -2.00442 -6.91179e-05 -2.38212 -8.21419e-05
-3.99635 -0.000137805 -2.42272 -8.35422e-05 -2.54363 -8.77113e-05
-4.38295 -0.000151136 -2.7945 -9.63619e-05 -2.70518 -9.32819e-05
-4.68985 -0.000161719 -3.12354 -0.000107708 -2.86589 -9.88239e-05
-4.90557 -0.000169157 -3.39809 -0.000117175 -3.02579 -0.000104338
-5.04366 -0.000173919 -3.61198 -0.000124551 -3.18395 -0.000109791
-5.11271 -0.0001763 -3.76939 -0.000129979 -3.33823 -0.000115111
-5.11401 -0.000176345 -3.87163 -0.000133504 -3.48591 -0.000120204
-5.05265 -0.000174229 -3.91452 -0.000134984 -3.62441 -0.000124979
-4.93752 -0.000170259 -3.89964 -0.00013447 -3.75133 -0.000129356
-4.7711 -0.00016452 -3.83321 -0.00013218 -3.86343 -0.000133222
-4.56071 -0.000157265 -3.72004 -0.000128277 -3.95674 -0.000136439
-4.31489 -0.000148789 -3.56388 -0.000122892 -4.02755 -0.000138881
-4.03998 -0.000139309 -3.37041 -0.000116221 -4.07287 -0.000140444
-3.74393 -0.0001291 -3.14619 -0.000108489 -4.08986 -0.00014103
-3.42306 -0.000118036 -2.89814 -9.99357e-05 -4.0697 -0.000140335
-3.08009 -0.00010621 -2.62868 -9.06442e-05 -4.00571 -0.000138128
-2.73519 -9.43165e-05 -2.33887 -8.06506e-05 -3.89849 -0.000134431
-2.40868 -8.30574e-05 -2.03183 -7.0063e-05 -3.74674 -0.000129198
-2.11651 -7.29829e-05 -1.70969 -5.89547e-05 -3.54965 -0.000122402
-1.86811 -6.44174e-05 -1.37361 -4.7366e-05 -3.30883 -0.000114098
-1.66576 -5.74396e-05 -1.02644 -3.53944e-05 -3.02793 -0.000104411
-1.50497 -5.18951e-05 -0.701213 -2.41797e-05 -2.71015 -9.34535e-05
-1.37644 -4.74631e-05 -0.436401 -1.50483e-05 -2.35877 -8.13369e-05
-1.26983 -4.37867e-05 -0.174413 -6.01422e-06 -1.97847 -6.82229e-05
-1.17458 -4.05025e-05 0.0845311 2.91487e-06 -1.57517 -5.43161e-05
-1.08535 -3.74257e-05 0.34052 1.17421e-05 -1.15566 -3.98502e-05
-0.998618 -3.44347e-05 0.591592 2.03997e-05 -0.74732 -2.57697e-05
-0.909254 -3.13532e-05 0.832613 2.87108e-05 -0.563531 -1.94321e-05
-0.823869 -2.84089e-05 1.06602 3.67593e-05 -0.379867 -1.30988e-05
-0.747916 -2.57898e-05 1.29527 4.46644e-05 -0.199973 -6.89561e-06
-0.672133 -2.31766e-05 1.52381 5.25452e-05 -0.0322334 -1.1115e-06
-0.599904 -2.0686e-05 1.75005 6.03464e-05 0.123273 4.25078e-06
-0.536559 -1.85017e-05 1.97284 6.8029e-05 0.267512 9.22455e-06
-0.488018 -1.68278e-05 2.19285 7.56154e-05 0.398012 1.37245e-05
-0.461839 -1.59251e-05 2.40953 8.30872e-05 0.510379 1.75993e-05
-0.465763 -1.60604e-05 2.61953 9.03288e-05 0.603256 2.08019e-05
-0.50782 -1.75107e-05 2.81843 9.71874e-05 0.678038 2.33806e-05
-0.596083 -2.05542e-05 3.00183 0.000103512 0.735332 2.53563e-05
-0.740381 -2.553e-05 3.16411 0.000109107 0.774334 2.67012e-05
-0.898701 -3.09893e-05 3.28615 0.000113315 0.795151 2.7419e-05
-0.986927 -3.40316e-05 3.3557 0.000115714 0.801786 2.76478e-05
-1.14284 -3.9408e-05 3.39606 0.000117105 0.78982 2.72352e-05
-1.35785 -4.68221e-05 3.37951 0.000116535 0.763343 2.63222e-05
-1.62906 -5.61742e-05 3.31059 0.000114158 0.721826 2.48905e-05
-1.95248 -6.73266e-05 3.19221 0.000110076 0.666324 2.29767e-05
-2.32801 -8.02759e-05 3.01908 0.000104106 0.597265 2.05954e-05
-2.74887 -9.47883e-05 2.786 9.6069e-05 0.515703 1.77829e-05
-3.20744 -0.000110601 2.49605 8.60708e-05 0.422634 1.45736e-05
-3.69568 -0.000127437 2.15361 7.42624e-05 0.318053 1.09674e-05
-4.20216 -0.000144902 1.7603 6.06999e-05 0.20156 6.95034e-06
-4.68198 -0.000161447 1.32173 4.5577e-05 0.0730777 2.51992e-06
-5.12566 -0.000176746 0.844384 2.91167e-05 -0.0673772 -2.32335e-06
-5.50159 -0.00018971 0.327797 1.13034e-05 -0.220419 -7.60064e-06
-5.80593 -0.000200204 -0.213221 -7.35244e-06 -0.385353 -1.3288e-05
-6.06025 -0.000208974 -0.855785 -2.95098e-05 -0.563918 -1.94455e-05
-6.24343 -0.00021529 -1.62482 -5.60284e-05 -0.740244 -2.55256e-05
-6.35324 -0.000219077 -2.35645 -8.12569e-05 -1.06156 -3.66054e-05
-6.39145 -0.000220394 -3.03876 -0.000104785 -1.45071 -5.00245e-05
-6.35631 -0.000219183 -3.66765 -0.000126471 -1.86321 -6.42486e-05
-6.24633 -0.00021539 -4.23344 -0.000145981 -2.27885 -7.85811e-05
-6.06847 -0.000209257 -4.71317 -0.000162523 -2.71329 -9.35618e-05
-5.82407 -0.000200829 -5.09876 -0.000175819 -3.16922 -0.000109284
-5.51644 -0.000190222 -5.39203 -0.000185932 -3.63342 -0.00012529
-5.15618 -0.000177799 -5.5929 -0.000192859 -4.0877 -0.000140955
-4.75718 -0.00016404 -5.69967 -0.00019654 -4.52691 -0.0001561
-4.33472 -0.000149473 -5.71696 -0.000197137 -4.94873 -0.000170646
-3.90316 -0.000134591 -5.65495 -0.000194998 -5.34247 -0.000184223
-3.4745 -0.00011981 -5.52457 -0.000190502 -5.69191 -0.000196273
-3.06039 -0.00010553 -5.33701 -0.000184035 -5.98579 -0.000206407
-2.67332 -9.21831e-05 -5.10503 -0.000176036 -6.21827 -0.000214423
-2.32596 -8.02052e-05 -4.84176 -0.000166957 -6.38251 -0.000220087
-2.03053 -7.00179e-05 -4.55899 -0.000157207 -6.46922 -0.000223077
-1.79731 -6.19758e-05 -4.26707 -0.00014714 -6.46702 -0.000223001
-1.63347 -5.63263e-05 -3.97158 -0.000136951 -6.35743 -0.000219222
-1.54081 -5.31311e-05 -3.6776 -0.000126814 -6.1433 -0.000211838
-1.5165 -5.22928e-05 -3.39036 -0.000116909 -5.82629 -0.000200907
-1.55418 -5.35919e-05 -3.11388 -0.000107375 -5.40677 -0.00018644
-1.64598 -5.67577e-05 -2.84791 -9.82037e-05 -4.89198 -0.000168689
-1.78364 -6.15046e-05 -2.58884 -8.92703e-05 -4.2962 -0.000148145
-1.95774 -6.75078e-05 -2.3317 -8.04036e-05 -3.6341 -0.000125314
-2.15613 -7.43489e-05 -2.07071 -7.14037e-05 -2.91902 -0.000100656
-2.36286 -8.14775e-05 -1.79897 -6.20335e-05 -2.16602 -7.46905e-05
-2.55995 -8.82738e-05 -1.50893 -5.20321e-05 -1.39355 -4.80535e-05
-2.73025 -9.4146e-05 -1.19327 -4.11472e-05 -0.707172 -2.43852e-05
-2.8545 -9.84308e-05 -0.868499 -2.99482e-05 -0.422121 -1.45559e-05
-2.92527 -0.000100871 -0.530442 -1.82911e-05 -0.12742 -4.3938e-06
-2.92674 -0.000100922 -0.227231 -7.83556e-06 0.151421 5.22142e-06
-2.84644 -9.81528e-05 0.112267 3.87128e-06 0.39436 1.35986e-05
-2.66818 -9.20057e-05 0.477302 1.64587e-05 0.60837 2.09783e-05
-2.38749 -8.23268e-05 0.866668 2.98851e-05 0.803599 2.77103e-05
-2.00367 -6.90917e-05 1.28086 4.41675e-05 0.973109 3.35555e-05
-1.52986 -5.27533e-05 1.71673 5.91975e-05 1.10644 3.81531e-05
-0.96701 -3.33448e-05 2.1664 7.47036e-05 1.20284 4.14772e-05
-0.456533 -1.57421e-05 2.62028 9.03544e-05 1.27144 4.38428e-05
0.0635015 2.19008e-06 3.07194 0.000105929 1.31555 4.53639e-05
0.607669 2.09545e-05 3.51362 0.000121159 1.33212 4.59353e-05
1.18353 4.08117e-05 3.93128 0.000135561 1.31759 4.54342e-05
1.74421 6.01455e-05 4.31797 0.000148895 1.28023 4.41458e-05
2.28196 7.86888e-05 4.66496 0.000160861 1.22606 4.22779e-05
2.77686 9.57542e-05 4.96246 0.000171119 1.15778 3.99235e-05
3.21182 0.000110753 5.20345 0.000179429 1.07687 3.71336e-05
3.57406 0.000123244 5.38132 0.000185563 0.98877 3.40955e-05
3.85117 0.0001328 5.48946 0.000189292 0.899422 3.10146e-05
4.03158 0.00013902 5.52365 0.000190471 0.811929 2.79976e-05
4.10857 0.000141675 5.48203 0.000189036 0.727231 2.50769e-05
4.07676 0.000140578 5.36383 0.00018496 0.646979 2.23096e-05
3.94017 0.000135868 5.16854 0.000178226 0.573332 1.97701e-05
3.71351 0.000128052 4.89782 0.00016889 0.507014 1.74832e-05
3.40852 0.000117535 4.55698 0.000157137 0.44661 1.54004e-05
3.04034 0.00010484 4.15237 0.000143185 0.39021 1.34555e-05
2.62341 9.04626e-05 3.69279 0.000127337 0.335935 1.1584e-05
2.13139 7.34967e-05 3.19627 0.000110216 0.280932 9.68729e-06
1.61158 5.5572e-05 2.66481 9.189e-05 0.222731 7.68039e-06
1.08056 3.72609e-05 2.11563 7.29529e-05 0.157409 5.4279e-06
0.554449 1.91193e-05 1.56072 5.3818e-05 0.0819704 2.82657e-06
0.0460097 1.58691e-06 1.01106 3.4864e-05 -0.00646637 -2.22978e-07
-0.428988 -1.47923e-05 0.477454 1.64639e-05 -0.110518 -3.81096e-06
-0.828435 -2.85664e-05 -0.0217802 -7.5104e-07 -0.232317 -8.01093e-06
-1.24721 -4.30069e-05 -0.48753 -1.68114e-05 -0.371449 -1.28086e-05
-1.62563 -5.60559e-05 -1.02968 -3.55061e-05 -0.529899 -1.82724e-05
-1.95471 -6.74034e-05 -1.52874 -5.27151e-05 -0.705642 -2.43325e-05
-2.253 -7.76892e-05 -1.93896 -6.68608e-05 -0.971643 -3.35049e-05
-2.51286 -8.665e-05 -2.25703 -7.78287e-05 -1.34996 -4.65505e-05
-2.74681 -9.4717e-05 -2.50216 -8.62815e-05 -1.74554 -6.0191e-05
-2.77114 -9.55563e-05 -2.72329 -9.39067e-05 -2.1343 -7.35965e-05
-2.78347 -9.59814e-05 -2.86656 -9.88468e-05 -2.51982 -8.68902e-05
-2.79341 -9.6324e-05 -2.95749 -0.000101983 -2.90669 -0.000100231
-2.8108 -9.69237e-05 -3.00954 -0.000103777 -3.2802 -0.00011311
-2.86063 -9.86419e-05 -3.02801 -0.000104414 -3.62025 -0.000124836
-2.96103 -0.000102104 -3.02036 -0.00010415 -3.91984 -0.000135167
-3.11746 -0.000107498 -3.00794 -0.000103722 -4.17659 -0.00014402
-3.34031 -0.000115183 -3.00586 -0.00010365 -4.38374 -0.000151163
-3.63626 -0.000125388 -3.02331 -0.000104252 -4.52963 -0.000156194
-4.00466 -0.000138091 -3.07159 -0.000105917 -4.60837 -0.000158909
-4.44421 -0.000153248 -3.16236 -0.000109047 -4.61846 -0.000159257
-4.95261 -0.000170779 -3.29889 -0.000113755 -4.55158 -0.000156951
-5.52558 -0.000190537 -3.47972 -0.00011999 -4.40901 -0.000152035
-6.15729 -0.00021232 -3.70381 -0.000127717 -4.19583 -0.000144684
-6.83844 -0.000235808 -3.96834 -0.000136839 -3.91867 -0.000135127
-7.55577 -0.000260543 -4.2653 -0.000147079 -3.58904 -0.00012376
-8.28194 -0.000285584 -4.58668 -0.000158161 -3.22037 -0.000111047
-8.98307 -0.000309761 -4.92297 -0.000169758 -2.8264 -9.74621e-05
-9.65271 -0.000332852 -5.25683 -0.00018127 -2.42238 -8.35305e-05
-10.2853 -0.000354665 -5.57363 -0.000192194 -2.02355 -6.97777e-05
-10.8733 -0.00037494 -5.85664 -0.000201953 -1.64578 -5.67509e-05
-11.411 -0.000393482 -6.09001 -0.00021 -1.30352 -4.4949e-05
-11.8953 -0.000410183 -6.26183 -0.000215925 -1.00886 -3.47882e-05
-12.3227 -0.00042492 -6.36461 -0.000219469 -0.813924 -2.80663e-05
-12.6898 -0.00043758 -6.39719 -0.000220593 -0.742295 -2.55964e-05
-12.9956 -0.000448125 -6.35647 -0.000219188 -0.69868 -2.40924e-05
-13.1527 -0.00045354 -6.2679 -0.000216134 -0.679628 -2.34354e-05
-13.1402 -0.000453111 -6.13161 -0.000211435 -0.691574 -2.38474e-05
-13.0705 -0.000450707 -5.92989 -0.000204479 -0.7362 -2.53862e-05
-12.9162 -0.000445385 -5.70193 -0.000196618 -0.796344 -2.74601e-05
-12.702 -0.000438001 -5.44425 -0.000187733 -0.931947 -3.21361e-05
-12.4542 -0.000429454 -5.16424 -0.000178077 -1.13952 -3.92937e-05
-12.1861 -0.000420209 -4.8847 -0.000168438 -1.37394 -4.73771e-05
-11.9198 -0.000411027 -4.62599 -0.000159517 -1.61972 -5.58524e-05
-11.6797 -0.000402747 -4.39958 -0.00015171 -1.8687 -6.4438e-05
-11.4853 -0.000396043 -4.21681 -0.000145407 -2.11407 -7.2899e-05
-11.3569 -0.000391618 -4.09326 -0.000141147 -2.34689 -8.09272e-05
-11.3135 -0.00039012 -4.0413 -0.000139355 -2.55648 -8.81543e-05
-11.3691 -0.000392038 -4.06729 -0.000140251 -2.73598 -9.43441e-05
-11.5347 -0.000397748 -4.17571 -0.00014399 -2.88244 -9.93944e-05
-11.8165 -0.000407466 -4.37016 -0.000150695 -2.99406 -0.000103243
-12.1882 -0.000420284 -4.64886 -0.000160305 -3.06919 -0.000105834
-12.6647 -0.000436714 -5.00302 -0.000172518 -3.10893 -0.000107204
-13.2368 -0.000456442 -5.42591 -0.0001871 -3.11679 -0.000107475
-13.8768 -0.00047851 -5.92039 -0.000204151 -3.09337 -0.000106668
-14.6001 -0.00050345 -6.46743 -0.000223015 -3.04656 -0.000105054
-15.3572 -0.000529558 -7.06193 -0.000243515 -2.98395 -0.000102895
-16.1095 -0.000555499 -7.6932 -0.000265283 -2.91479 -0.00010051
-16.8369 -0.000580581 -8.34773 -0.000287853 -2.84855 -9.82259e-05
-17.5108 -0.000603821 -9.00849 -0.000310638 -2.79635 -9.64258e-05
-18.1082 -0.000624419 -9.65771 -0.000333025 -2.76906 -9.54849e-05
-18.6162 -0.000641936 -10.2775 -0.000354395 -2.77631 -9.57348e-05
-19.0201 -0.000655866 -10.8504 -0.00037415 -2.82628 -9.74578e-05
-19.3035 -0.000665638 -11.3607 -0.00039175 -2.92563 -0.000100884
-19.45 -0.000670689 -11.796 -0.000406758 -3.07897 -0.000106171
-19.432 -0.000670069 -12.1442 -0.000418766 -3.27553 -0.000112949
-19.2402 -0.000663456 -12.3893 -0.000427217 -3.50696 -0.00012093
-18.8638 -0.000650474 -12.5324 -0.000432153 -3.79068 -0.000130713
-18.2959 -0.000630893 -12.5731 -0.000433555 -4.11291 -0.000141824
-17.5377 -0.000604748 -12.5132 -0.000431491 -4.46515 -0.000153971
-16.5942 -0.000572213 -12.3538 -0.000425992 -4.84193 -0.000166963
-15.4778 -0.000533718 -12.0999 -0.000417236 -5.2355 -0.000180535
-14.2104 -0.000490014 -11.758 -0.000405449 -5.63057 -0.000194157
-12.8184 -0.000442012 -11.3347 -0.000390853 -6.01213 -0.000207315
-11.3302 -0.000390698 -10.837 -0.000373691 -6.36785 -0.000219581
-9.77582 -0.000337097 -10.2732 -0.000354247 -6.68638 -0.000230565
-8.18594 -0.000282273 -9.65178 -0.00033282 -6.95397 -0.000239792
-6.59319 -0.000227351 -8.98133 -0.000309701 -7.15676 -0.000246785
-5.02998 -0.000173447 -8.26999 -0.000285172 -7.28342 -0.000251152
-3.52431 -0.000121528 -7.52615 -0.000259522 -7.32525 -0.000252595
-2.09748 -7.23265e-05 -6.7575 -0.000233017 -7.26579 -0.000250545
-0.815554 -2.81222e-05 -5.9696 -0.000205848 -7.09426 -0.00024463
0.111505 3.84536e-06 -5.17913 -0.000178591 -6.80676 -0.000234716
0.933268 3.2182e-05 -4.39279 -0.000151475 -6.40003 -0.000220691
1.54167 5.31615e-05 -3.5575 -0.000122673 -5.88581 -0.000202959
2.0312 7.00417e-05 -2.75136 -9.48745e-05 -5.25595 -0.00018124
2.45321 8.45937e-05 -1.93854 -6.68461e-05 -4.52781 -0.000156131
2.79601 9.64145e-05 -1.13332 -3.90798e-05 -3.7075 -0.000127845
3.04961 0.000105159 -0.504622 -1.74007e-05 -2.80883 -9.68562e-05
3.24191 0.00011179 0.0650746 2.24395e-06 -1.84458 -6.36062e-05
3.384 0.00011669 0.626762 2.16125e-05 -0.832773 -2.87163e-05
3.49048 0.000120362 1.16193 4.00667e-05 -0.454485 -1.56719e-05
3.58513 0.000123625 1.66134 5.72875e-05 -0.0545736 -1.88185e-06
3.68532 0.00012708 2.14715 7.40396e-05 0.35784 1.23393e-05
3.8092 0.000131352 2.63855 9.09844e-05 0.736997 2.54137e-05
3.97747 0.000137154 3.12653 0.000107811 1.08852 3.75353e-05
4.20587 0.00014503 3.6031 0.000124245 1.43179 4.93722e-05
4.50447 0.000155327 4.07704 0.000140588 1.76275 6.07846e-05
4.88044 0.000168291 4.55897 0.000157206 2.05661 7.09174e-05
5.33833 0.000184081 5.04779 0.000174062 2.3037 7.94378e-05
5.87958 0.000202745 5.54075 0.00019106 2.51324 8.66634e-05
6.50314 0.000224247 6.03999 0.000208275 2.69002 9.27592e-05
7.20451 0.000248432 6.54677 0.000225751 2.82558 9.7434e-05
7.97647 0.000275051 7.05753 0.000243363 2.91291 0.000100445
8.81096 0.000303827 7.56672 0.000260921 2.95641 0.000101945
9.69985 0.000334478 8.0684 0.000278221 2.96118 0.00010211
10.6347 0.000366715 8.5529 0.000294928 2.9223 0.000100769
11.6051 0.000400176 9.01117 0.00031073 2.84319 9.8041e-05
12.5984 0.000434429 9.43559 0.000325365 2.7283 9.40794e-05
13.6 0.000468968 9.81979 0.000338614 2.58473 8.91287e-05
14.5953 0.000503287 10.1564 0.000350222 2.41946 8.34297e-05
15.5703 0.000536906 10.439 0.000359967 2.23934 7.72188e-05
16.5109 0.000569342 10.6637 0.000367712 2.05029 7.06998e-05
17.4023 0.000600079 10.8284 0.000373392 1.85862 6.40905e-05
18.2291 0.00062859 10.9326 0.000376985 1.67019 5.75927e-05
18.9775 0.000654397 10.9775 0.000378536 1.49018 5.13855e-05
19.6364 0.000677118 10.9667 0.00037816 1.32256 4.56055e-05
20.1991 0.000696523 10.9044 0.000376015 1.17066 4.03677e-05
20.665 0.000712588 10.7959 0.000372273 1.03714 3.57633e-05
21.04 0.000725516 10.6469 0.000367135 0.923885 3.18581e-05
21.3348 0.000735682 10.4643 0.000360838 0.831748 2.8681e-05
21.5631 0.000743557 10.2559 0.000353651 0.760701 2.62311e-05
21.7402 0.000749661 10.0304 0.000345875 0.710002 2.44828e-05
21.8807 0.000754508 9.79779 0.000337855 0.678302 2.33897e-05
21.9985 0.000758568 9.56903 0.000329966 0.663594 2.28825e-05
22.1057 0.000762265 9.35548 0.000322603 0.6634 2.28759e-05
22.214 0.000766002 9.16836 0.00031615 0.675033 2.3277e-05
22.3345 0.000770155 9.0184 0.000310979 0.695834 2.39943e-05
22.4766 0.000775055 8.91533 0.000307425 0.723267 2.49403e-05
22.6478 0.00078096 8.86749 0.000305775 0.755065 2.60367e-05
22.853 0.000788036 8.88151 0.000306259 0.789396 2.72206e-05
23.0942 0.000796351 8.96205 0.000309036 0.825022 2.8449e-05
23.3705 0.00080588 9.11144 0.000314188 0.861358 2.9702e-05
23.6787 0.000816508 9.32959 0.00032171 0.898492 3.09825e-05
24.0094 0.000827911 9.61463 0.000331539 0.937166 3.23161e-05
24.3139 0.000838411 9.96925 0.000343767 0.978207 3.37313e-05
24.5791 0.000847555 10.3813 0.000357977 1.02401 3.53106e-05
24.7987 0.000855129 10.8399 0.00037379 1.07746 3.71537e-05
24.9677 0.000860955 11.3314 0.000390736 1.14169 3.93687e-05
25.0745 0.000864638 11.8381 0.00040821 1.21987 4.20646e-05
25.1103 0.000865871 12.3411 0.000425555 1.31527 4.53542e-05
25.0625 0.000864226 12.8244 0.00044222 1.43059 4.93306e-05
24.9168 0.000859199 13.2727 0.000457678 1.56766 5.40573e-05
24.6595 0.000850326 13.6713 0.000471425 1.72728 5.95612e-05
24.2738 0.000837029 14.008 0.000483036 1.90932 6.58386e-05
23.7425 0.000818708 14.2734 0.000492187 2.11256 7.28468e-05
23.0508 0.000794857 14.4599 0.000498616 2.33446 8.04986e-05
22.1868 0.000765064 14.5614 0.000502117 2.5713 8.86654e-05
21.1422 0.000729041 14.5739 0.000502547 2.81833 9.71839e-05
19.9144 0.000686705 14.4945 0.00049981 3.06038 0.00010553
18.5116 0.000638332 14.3067 0.000493335 3.25092 0.000112101
16.9425 0.000584223 14.0163 0.000483322 3.45559 0.000119158
15.2269 0.000525064 13.6339 0.000470136 3.64407 0.000125658
13.3878 0.00046165 13.1636 0.000453916 3.80013 0.000131039
11.4503 0.000394837 12.5989 0.000434445 3.93006 0.000135519
9.43789 0.000325445 11.9425 0.000411811 4.03995 0.000139309
7.37095 0.000254171 11.2028 0.000386303 4.11719 0.000141972
5.26667 0.00018161 10.387 0.000358171 4.14646 0.000142981
3.14256 0.000108364 9.49856 0.000327537 4.12011 0.000142073
1.43137 4.93579e-05 8.46663 0.000291953 4.03855 0.00013926
-0.188792 -6.5097e-06 7.41801 0.000255793 3.88935 0.000134116
-1.81276 -6.25087e-05 6.33463 0.000218436 3.6658 0.000126407
-3.62003 -0.000124828 5.19219 0.000179041 3.36618 0.000116075
-5.20887 -0.000179616 4.0443 0.000139459 2.98754 0.000103019
-6.71573 -0.000231577 2.88678 9.95441e-05 2.53861 8.75384e-05
-8.13569 -0.00028054 1.7124 5.90482e-05 2.02078 6.9682e-05
-9.39757 -0.000324054 0.52577 1.813e-05 1.43652 4.95352e-05
-10.5442 -0.000363594 -0.81785 -2.82017e-05 0.794039 2.73806e-05
-11.59 -0.000399656 -2.3984 -8.27034e-05 0.102241 3.52556e-06
-12.5171 -0.000431624 -3.97094 -0.000136929 -0.627942 -2.16532e-05
-13.3644 -0.000460841 -5.48845 -0.000189257 -1.76799 -6.09653e-05
-14.1627 -0.000488369 -6.91553 -0.000238466 -3.13148 -0.000107982
-14.9109 -0.00051417 -8.33 -0.000287241 -4.53027 -0.000156216
-15.6523 -0.000539734 -9.74054 -0.000335881 -5.85953 -0.000202053
-16.4108 -0.000565889 -11.1319 -0.000383858 -7.12638 -0.000245737
-17.2136 -0.000593573 -12.4859 -0.000430548 -8.38226 -0.000289043
-18.0867 -0.000623679 -13.8162 -0.000476421 -9.60994 -0.000331377
-19.0498 -0.00065689 -15.1371 -0.00052197 -10.7407 -0.000370368
-20.1186 -0.000693745 -16.4439 -0.000567031 -11.7475 -0.000405087
-21.3068 -0.000734717 -17.7313 -0.000611426 -12.6502 -0.000436214
-22.6244 -0.00078015 -19.0019 -0.000655239 -13.4561 -0.000464003
-24.0897 -0.00083068 -20.195 -0.000696381 -13.5147 -0.000466024
-25.7029 -0.000886306 -21.2568 -0.000732993 -13.5922 -0.000468697
-27.4215 -0.000945569 -22.3679 -0.000771307 -13.6849 -0.000471892
-29.2615 -0.00100902 -23.512 -0.000810757 -13.6849 -0.000471893
-31.1828 -0.00107527 -24.6757 -0.000850888 -13.6334 -0.000470117
-33.1847 -0.0011443 -25.7907 -0.000889333 -13.6367 -0.000470232
-35.243 -0.00121528 -26.872 -0.00092662 -13.6259 -0.000469859
-37.3372 -0.00128749 -27.9091 -0.000962383 -13.4657 -0.000464334
-39.4445 -0.00136016 -28.8807 -0.000995885 -13.1713 -0.000454184
-31.3181 -0.00107994 -17.3052 -0.000596732 -10.3735 -0.000357708
-29.2253 -0.00100777 0.417238 1.43875e-05 -10.3071 -0.000355419
-35.9586 -0.00123995 -4.87825 -0.000168215 -9.95585 -0.000343305
-36.9284 -0.00127339 -14.4972 -0.000499905 -9.52334 -0.000328391
-36.41 -0.00125552 -8.22309 -0.000283555 -8.52697 -0.000294034
-39.2059 -0.00135193 -0.325677 -1.12302e-05 -7.94981 -0.000274131
-40.5095 -0.00139688 -2.51229 -8.66306e-05 -7.71417 -0.000266006
-41.5082 -0.00143132 -5.53695 -0.000190929 -7.35872 -0.000253749
-42.539 -0.00146686 -1.86642 -6.43592e-05 -6.76719 -0.000233351
-42.9711 -0.00148176 1.26367 4.35747e-05 -6.52398 -0.000224965
-43.4782 -0.00149925 -0.130422 -4.49732e-06 -6.7059 -0.000231238
-43.8396 -0.00151171 -1.8003 -6.20795e-05 -6.82635 -0.000235392
-44.1546 -0.00152257 -0.252851 -8.71901e-06 -6.92191 -0.000238687
-44.4664 -0.00153332 0.843877 2.90992e-05 -7.15905 -0.000246864
-44.4063 -0.00153125 0.64859 2.23652e-05 -7.73694 -0.000266791
-44.8189 -0.00154548 0.262959 9.06754e-06 -8.26141 -0.000284876
-45.2313 -0.0015597 1.04195 3.59293e-05 -8.74861 -0.000301676
-42.4036 -0.00146219 6.69094 0.000230722 -10.1703 -0.0003507
-40.0159 -0.00137986 2.16372 7.46111e-05 -11.7953 -0.000406734
-43.9862 -0.00151676 -2.82787 -9.75128e-05 -11.2664 -0.000388495
-28.3128 -0.000976302 4.9686 0.000171331 -12.9459 -0.000446409
4.90487 0.000169134 -2.58324 -8.90772e-05 -14.0436 -0.000484261
-8.12255 -0.000280088 -8.24536 -0.000284323 -14.3586 -0.000495125
-17.8928 -0.000616993 -4.71273 -0.000162508 -14.179 -0.000488929
-5.99374 -0.000206681 -1.73472 -5.98179e-05 -14.3907 -0.000496232
-8.77421 -0.000302559 -3.7368 -0.000128855 -15.0429 -0.00051872
-13.938 -0.00048062 -4.9375 -0.000170259 -15.0628 -0.000519405
-10.7765 -0.000371604 -2.3122 -7.97312e-05 -15.0619 -0.000519375
-11.26 -0.000388274 -0.284403 -9.80699e-06 -15.3334 -0.000528738
-13.7518 -0.000474198 -1.09754 -3.78461e-05 -15.6767 -0.000540574
-12.9509 -0.000446584 -1.46568 -5.05407e-05 -15.9662 -0.000550558
-12.7796 -0.000440675 0.432514 1.49143e-05 -16.0026 -0.000551812
-13.902 -0.000479379 1.90315 6.56259e-05 -16.1051 -0.000555348
-13.9103 -0.000479665 1.86426 6.42848e-05 -16.2438 -0.000560132
-13.8676 -0.000478194 2.13336 7.35641e-05 -16.3022 -0.000562146
-14.3682 -0.000495456 3.03529 0.000104665 -16.3346 -0.000563264
-14.5693 -0.00050239 3.49814 0.000120626 -16.43 -0.000566553
-14.4851 -0.000499487 3.2146 0.000110848 -16.528 -0.000569932
-14.7513 -0.000508665 3.07471 0.000106025 -16.5545 -0.000570846
-14.8842 -0.000513248 3.39871 0.000117197 -16.5856 -0.000571918
-14.8151 -0.000510866 3.49506 0.000120519 -16.6685 -0.000574775
-14.8648 -0.000512579 3.15834 0.000108908 -16.7316 -0.000576951
-14.8967 -0.00051368 2.90004 0.000100001 -16.7585 -0.00057788
-14.8228 -0.00051113 7.47681 0.000257821 -16.7873 -0.000578871
-11.3883 -0.000392699 4.72129 0.000162803 -14.794 -0.000510138
-16.7275 -0.000576811 4.22067 0.00014554 -17.0946 -0.000589467
-12.588 -0.00043407 2.25314 7.76943e-05 -16.7616 -0.000577987
-14.3062 -0.000493318 5.55472 0.000191542 -16.4793 -0.000568253
-15.7516 -0.000543157 2.59114 8.93497e-05 -16.6902 -0.000575523
-14.8488 -0.000512026 -0.304034 -1.04839e-05 -17.0292 -0.000587215
-14.8013 -0.000510391 0.881815 3.04074e-05 -16.9228 -0.000583546
-15.328 -0.000528553 2.09527 7.22507e-05 -16.7836 -0.000578744
-15.1502 -0.00052242 1.03865 3.58155e-05 -16.982 -0.000585587
-14.8039 -0.000510479 -0.226182 -7.79937e-06 -17.1308 -0.000590718
-15.1919 -0.000523859 0.326812 1.12694e-05 -14.7325 -0.000508016
-15.0431 -0.000518728 0.85043 2.93252e-05 -16.1582 -0.000557179
-14.3204 -0.000493807 -0.53303 -1.83803e-05 -16.4901 -0.000568623
-15.4078 -0.000531302 -0.646047 -2.22775e-05 -16.5515 -0.00057074
-14.7227 -0.000507678 -0.499753 -1.72329e-05 -16.9668 -0.000585061
-14.6448 -0.000504991 -0.618327 -2.13216e-05 -17.1011 -0.000589695
-15.0605 -0.000519328 -1.04848 -3.61544e-05 -16.98 -0.000585516
-14.7114 -0.000507291 -1.485 -5.12067e-05 -16.8697 -0.000581715
-14.7056 -0.000507088 -1.54999 -5.34478e-05 -17.0197 -0.000586885
-14.8346 -0.000511538 -1.64162 -5.66077e-05 -17.2269 -0.00059403
-14.7027 -0.00050699 -1.98238 -6.8358e-05 -17.2558 -0.000595029
-14.6925 -0.000506637 -2.28012 -7.86248e-05 -17.1972 -0.000593006
-14.73 -0.000507931 -2.45769 -8.47479e-05 -17.2252 -0.000593971
-14.6647 -0.00050568 -2.61802 -9.02764e-05 -17.3444 -0.000598082
-14.7077 -0.000507161 -2.76705 -9.54155e-05 -17.447 -0.000601619
-14.7228 -0.000507681 -2.97368 -0.000102541 -17.4599 -0.000602066
-14.713 -0.000507346 -3.17752 -0.00010957 -17.4504 -0.000601737
-14.7782 -0.000509594 -3.27697 -0.000112999 -17.5121 -0.000603866
-14.8193 -0.00051101 -3.36713 -0.000116108 -17.6071 -0.000607142
-14.9074 -0.000514047 -3.30021 -0.0001138 -11.0781 -0.000382002
-15.3034 -0.000527705 -1.52514 -5.25911e-05 -3.67057 -0.000126571
-15.0421 -0.000518694 0.0531266 1.83195e-06 -6.51917 -0.000224799
-14.5206 -0.000500711 -1.18192 -4.07558e-05 -5.33362 -0.000183918
-14.5607 -0.000502094 -2.44543 -8.43251e-05 -3.13626 -0.000108147
-14.1151 -0.000486726 -2.31983 -7.99942e-05 -3.12442 -0.000107739
-13.6499 -0.000470687 -1.78376 -6.15091e-05 -4.61034 -0.000158977
-13.3669 -0.000460926 -1.86126 -6.41815e-05 -5.05344 -0.000174256
-12.6339 -0.000435651 -2.54916 -8.7902e-05 -4.05187 -0.00013972
-11.8647 -0.000409129 -3.08679 -0.000106441 -3.29398 -0.000113586
-11.105 -0.000382932 -3.06771 -0.000105783 -3.70567 -0.000127782
-10.4075 -0.000358879 -2.95884 -0.000102029 -4.32665 -0.000149195
-9.95293 -0.000343204 -3.2124 -0.000110772 -4.1499 -0.0001431
-9.66165 -0.00033316 -3.59198 -0.000123861 -3.56954 -0.000123088
-9.32964 -0.000321712 -3.74877 -0.000129268 -3.44559 -0.000118813
-8.99499 -0.000310172 -3.76225 -0.000129733 -3.76073 -0.00012968
-8.66596 -0.000298826 -3.8572 -0.000133007 -3.89246 -0.000134223
-8.30368 -0.000286334 -4.06693 -0.000140239 -3.65312 -0.00012597
-7.91457 -0.000272916 -4.27111 -0.00014728 -3.42546 -0.000118119
-7.54073 -0.000260025 -4.36349 -0.000150465 -3.47472 -0.000119818
-7.15703 -0.000246794 -4.20051 -0.000144845 -3.61793 -0.000124756
-6.71027 -0.000231388 -3.85242 -0.000132842 -3.59059 -0.000123814
-6.26633 -0.00021608 -3.25708 -0.000112313 -3.45099 -0.000118999
-6.0086 -0.000207193 -2.57671 -8.8852e-05 -3.40132 -0.000117287
-5.74624 -0.000198146 -1.68481 -5.8097e-05 -3.40701 -0.000117483
-5.56431 -0.000191873 -0.889018 -3.06558e-05 -3.35095 -0.00011555
-5.33992 -0.000184135 -0.653255 -2.2526e-05 -3.14329 -0.000108389
-5.24798 -0.000180965 -0.635415 -2.19109e-05 -2.80133 -9.65978e-05
-5.10754 -0.000176122 -0.54422 -1.87662e-05 -2.38823 -8.23527e-05
-4.94455 -0.000170501 -0.417292 -1.43894e-05 -1.91083 -6.58908e-05
-4.83778 -0.00016682 -0.195653 -6.74667e-06 -1.38763 -4.78495e-05
-4.72925 -0.000163077 0.000312543 1.07755e-08 -0.891616 -3.07454e-05
-4.60981 -0.000158959 0.105977 3.65439e-06 -0.392046 -1.35188e-05
-4.49533 -0.000155011 0.295024 1.01733e-05 -0.103374 -3.56462e-06
-4.40568 -0.00015192 0.584024 2.01388e-05 0.0319111 1.10038e-06
-4.288 -0.000147862 0.632432 2.1808e-05 0.00707772 2.44059e-07
-4.17947 -0.00014412 0.796499 2.74655e-05 0.0711058 2.45193e-06
-4.05563 -0.000139849 1.03225 3.55948e-05 0.170124 5.86633e-06
-3.89862 -0.000134435 1.20512 4.15558e-05 0.248233 8.55977e-06
-3.85426 -0.000132905 1.44362 4.97801e-05 0.248719 8.57652e-06
-3.78849 -0.000130638 1.73927 5.99749e-05 0.221751 7.64658e-06
-3.64155 -0.000125571 1.99067 6.86438e-05 0.243289 8.38929e-06
-3.54033 -0.00012208 2.25412 7.77282e-05 0.31601 1.08969e-05
-3.48446 -0.000120154 2.57493 8.87908e-05 0.389763 1.34401e-05
-3.37985 -0.000116546 2.90372 0.000100128 0.432784 1.49236e-05
-3.2517 -0.000112128 3.22963 0.000111367 0.450354 1.55294e-05
-3.15208 -0.000108692 3.58083 0.000123477 0.470295 1.62171e-05
-3.04346 -0.000104947 3.94234 0.000135943 0.515 1.77586e-05
-2.89854 -9.99495e-05 4.29111 0.000147969 0.579182 1.99718e-05
-2.74389 -9.46168e-05 4.63502 0.000159828 0.639552 2.20535e-05
-2.58365 -8.90913e-05 4.98121 0.000171766 0.683683 2.35753e-05
-2.39989 -8.27548e-05 5.32286 0.000183547 0.72015 2.48328e-05
-2.19097 -7.55506e-05 5.65054 0.000194846 0.764233 2.63529e-05
-1.962 -6.76552e-05 5.95447 0.000205326 0.821562 2.83297e-05
-1.71119 -5.90065e-05 6.2268 0.000214717 0.885624 3.05388e-05
-1.43457 -4.94679e-05 6.46708 0.000223003 0.946402 3.26345e-05
-1.13529 -3.91477e-05 6.67946 0.000230326 1.00092 3.45143e-05
-0.840552 -2.89844e-05 6.86108 0.000236589 1.05482 3.6373e-05
-0.508169 -1.7523e-05 7.00609 0.000241589 1.11441 3.84279e-05
-0.135486 -4.67182e-06 7.11638 0.000245392 1.18064 4.07116e-05
0.225963 7.79194e-06 7.19529 0.000248113 1.24936 4.30814e-05
0.575469 1.98439e-05 7.24606 0.000249864 1.31586 4.53746e-05
0.934596 3.22276e-05 7.27468 0.000250851 1.3793 4.7562e-05
1.30727 4.50784e-05 7.28759 0.000251296 1.44286 4.97537e-05
1.66947 5.75682e-05 7.29169 0.000251438 1.50958 5.20546e-05
2.01128 6.93545e-05 7.29371 0.000251507 1.57857 5.44334e-05
2.34024 8.06979e-05 7.30371 0.000251852 1.64642 5.6773e-05
2.65576 9.15782e-05 7.33226 0.000252836 1.71111 5.90039e-05
2.94438 0.00010153 7.38622 0.000254697 1.7734 6.11517e-05
3.19606 0.000110209 7.47183 0.000257649 1.83488 6.32718e-05
3.4125 0.000117673 7.59347 0.000261844 1.89593 6.5377e-05
3.59405 0.000123933 7.75597 0.000267447 1.95548 6.74303e-05
3.73497 0.000128792 7.96473 0.000274646 2.01219 6.93859e-05
3.83093 0.000132101 8.22132 0.000283494 2.0656 7.12277e-05
3.88164 0.00013385 8.52494 0.000293963 2.11629 7.29755e-05
3.89492 0.000134308 8.87467 0.000306023 2.16471 7.46452e-05
3.86276 0.000133199 9.26507 0.000319485 2.2111 7.62448e-05
3.79111 0.000130728 9.6934 0.000334255 2.25511 7.77625e-05
3.6865 0.000127121 10.1544 0.000350153 2.29617 7.91782e-05
3.54898 0.000122379 10.6428 0.000366995 2.33443 8.04976e-05
3.38166 0.000116609 11.1513 0.000384529 2.37026 8.1733e-05
3.19241 0.000110083 11.6718 0.000402477 2.40404 8.28978e-05
2.98456 0.000102916 12.1985 0.000420639 2.43583 8.39941e-05
2.7653 9.53554e-05 12.7242 0.000438766 2.46564 8.5022e-05
2.53797 8.75165e-05 13.243 0.000456657 2.49357 8.5985e-05
2.3082 7.95931e-05 13.75 0.000474136 2.51947 8.68783e-05
2.08362 7.18492e-05 14.235 0.000490863 2.54364 8.77118e-05
1.86836 6.44263e-05 14.6902 0.000506559 2.56651 8.85003e-05
1.65901 5.72075e-05 15.1097 0.000521024 2.58802 8.9242e-05
1.4476 4.99173e-05 15.49 0.000534138 2.60806 8.9933e-05
1.23677 4.26473e-05 15.8276 0.000545781 2.62687 9.05816e-05
1.03762 3.578e-05 16.1168 0.000555751 2.64431 9.1183e-05
0.857361 2.95643e-05 16.3535 0.000563914 2.66043 9.17389e-05
0.70503 2.43115e-05 16.5352 0.00057018 2.67539 9.22547e-05
0.591298 2.03897e-05 16.6618 0.000574545 2.68918 9.27304e-05
0.524973 1.81026e-05 16.7345 0.00057705 2.70168 9.31612e-05
0.516329 1.78046e-05 16.7525 0.000577671 2.71274 9.35426e-05
0.574143 1.97982e-05 16.7173 0.000576457 2.72228 9.38717e-05
0.712754 2.45778e-05 16.6314 0.000573496 2.70914 9.34186e-05
0.958905 3.30658e-05 16.4853 0.000568459 2.62739 9.05995e-05
1.33286 4.59607e-05 16.2646 0.000560849 2.49539 8.60479e-05
1.70329 5.87343e-05 15.9822 0.000551111 2.32296 8.01022e-05
1.91403 6.60013e-05 15.6642 0.000540144 2.10727 7.26645e-05
2.11235 7.28397e-05 15.3077 0.000527851 1.84207 6.35195e-05
2.33886 8.06506e-05 14.9475 0.000515432 1.50899 5.2034e-05
2.60179 8.9717e-05 14.3082 0.000493386 1.1375 3.9224e-05
2.80851 9.68454e-05 13.4153 0.000462598 0.735519 2.53627e-05
2.98385 0.000102891 12.2959 0.000423998 0.306151 1.05569e-05
3.16416 0.000109109 10.9741 0.000378416 -0.152728 -5.26647e-06
3.32803 0.00011476 9.47018 0.000326558 -0.643661 -2.21952e-05
3.45727 0.000119216 7.77255 0.000268019 -1.16106 -4.00364e-05
3.56395 0.000122895 5.97359 0.000205986 -1.1488 -3.96138e-05
3.65788 0.000126134 4.78972 0.000165163 -1.15662 -3.98836e-05
3.82074 0.00013175 4.05195 0.000139723 -1.25906 -4.34158e-05
3.99296 0.000137689 3.73265 0.000128712 -1.39093 -4.7963e-05
4.15005 0.000143105 3.63301 0.000125276 -1.38834 -4.78737e-05
4.31374 0.00014875 3.40036 0.000117254 -1.29685 -4.4719e-05
4.46822 0.000154077 3.19371 0.000110128 -1.24448 -4.29131e-05
4.61753 0.000159225 3.08736 0.000106461 -1.28866 -4.44366e-05
4.77634 0.000164701 3.01497 0.000103965 -1.38081 -4.7614e-05
4.93658 0.000170227 2.89879 9.99583e-05 -1.43707 -4.95541e-05
5.1014 0.00017591 2.70889 9.341e-05 -1.42618 -4.91785e-05
5.27322 0.000181835 2.49402 8.60006e-05 -1.38881 -4.789e-05
5.45112 0.00018797 2.30701 7.9552e-05 -1.3823 -4.76655e-05
5.6342 0.000194283 2.14157 7.38473e-05 -1.41997 -4.89645e-05
5.82051 0.000200707 1.9652 6.77654e-05 -1.46811 -5.06245e-05
6.0121 0.000207314 1.76149 6.0741e-05 -1.48912 -5.13489e-05
6.21095 0.000214171 1.54385 5.32362e-05 -1.47929 -5.10098e-05
6.41516 0.000221213 1.33712 4.61074e-05 -1.46523 -5.05253e-05
6.62293 0.000228377 1.14788 3.95821e-05 -1.47073 -5.07148e-05
6.83352 0.000235639 0.967541 3.33635e-05 -1.49393 -5.1515e-05
7.04859 0.000243055 0.787214 2.71453e-05 -1.51476 -5.22332e-05
7.26539 0.000250531 0.60653 2.09148e-05 -1.51863 -5.23666e-05
7.44104 0.000256588 0.473949 1.63431e-05 -1.51233 -5.21491e-05
7.68171 0.000264887 0.302545 1.04326e-05 -1.51028 -5.20786e-05
7.93867 0.000273747 0.0659333 2.27356e-06 -1.50896 -5.2033e-05
8.11363 0.000279781 -0.0598489 -2.06376e-06 -1.51451 -5.22245e-05
8.31668 0.000286782 -0.173553 -5.98458e-06 -1.51996 -5.24123e-05
8.56674 0.000295405 -0.293847 -1.01326e-05 -1.5166 -5.22967e-05
8.80421 0.000303594 -0.265041 -9.13935e-06 -1.51162 -5.21249e-05
9.04121 0.000311766 -0.108149 -3.72927e-06 -1.50205 -5.17948e-05
9.26939 0.000319634 -0.107332 -3.70111e-06 -1.48736 -5.12882e-05
9.4648 0.000326373 -0.222851 -7.68451e-06 -1.48227 -5.11129e-05
9.65972 0.000333094 -0.374212 -1.29039e-05 -1.47284 -5.07876e-05
9.87965 0.000340678 -0.408123 -1.40732e-05 -1.46236 -5.0426e-05
10.074 0.00034738 -0.421339 -1.45289e-05 -1.44414 -4.97979e-05
10.2435 0.000353223 -0.447182 -1.54201e-05 -1.42308 -4.90719e-05
10.4063 0.000358838 -0.477644 -1.64705e-05 -1.31293 -4.52736e-05
10.5612 0.000364179 -0.46233 -1.59424e-05 -1.11228 -3.83546e-05
10.6918 0.000368683 -0.378223 -1.30422e-05 -0.833267 -2.87334e-05
10.7926 0.000372157 -0.236743 -8.16355e-06 -0.516094 -1.77964e-05
10.876 0.000375036 -0.0859893 -2.96515e-06 -0.370505 -1.2776e-05
10.9434 0.000377359 0.0378548 1.30534e-06 -0.228046 -7.86366e-06
10.9203 0.000376562 0.237094 8.17566e-06 -0.234673 -8.09218e-06
10.7712 0.000371421 0.388003 1.33794e-05 -0.158326 -5.45953e-06
10.5001 0.000362074 0.553775 1.90957e-05 -0.0583131 -2.0108e-06
10.106 0.000348484 0.785001 2.7069e-05 0.0145298 5.01027e-07
9.59854 0.000330984 1.08529 3.74239e-05 0.0481306 1.65968e-06
8.97758 0.000309572 1.43592 4.95143e-05 0.0739161 2.54883e-06
8.24513 0.000284315 1.79364 6.18496e-05 0.127967 4.41264e-06
7.41185 0.000255581 2.15949 7.44651e-05 0.212928 7.34233e-06
6.48141 0.000223497 2.56783 8.85458e-05 0.302393 1.04273e-05
5.46135 0.000188322 3.02578 0.000104337 0.374019 1.28972e-05
4.36174 0.000150405 3.51755 0.000121295 0.429857 1.48226e-05
3.18701 0.000109897 4.02556 0.000138812 0.488915 1.68591e-05
1.95627 6.74577e-05 4.54287 0.000156651 0.564763 1.94746e-05
0.617184 2.12823e-05 5.06972 0.000174818 0.653341 2.2529e-05
-0.73317 -2.52816e-05 5.59608 0.000192968 0.738465 2.54643e-05
-1.91739 -6.61167e-05 6.11601 0.000210897 0.812819 2.80282e-05
-2.84642 -9.81523e-05 6.62525 0.000228457 0.881502 3.03966e-05
-3.53547 -0.000121912 7.12197 0.000245585 0.954256 3.29054e-05
-4.1177 -0.00014199 7.58847 0.000261671 1.03457 3.56747e-05
-4.52276 -0.000155957 7.99017 0.000275523 1.11421 3.8421e-05
-4.88769 -0.000168541 8.52297 0.000293896 1.18204 4.076e-05
-5.17626 -0.000178492 8.98768 0.00030992 1.25778 4.33717e-05
-5.42647 -0.000187119 9.38966 0.000323782 1.32599 4.5724e-05
-5.65914 -0.000195143 9.75368 0.000336334 1.38543 4.77733e-05
-5.80838 -0.000200289 10.0855 0.000347775 1.4505 5.00172e-05
-5.95336 -0.000205288 10.4232 0.000359422 1.51665 5.22984e-05
-6.11089 -0.00021072 10.7479 0.000370616 1.57676 5.43709e-05
-6.22211 -0.000214555 11.0079 0.000379583 1.63098 5.62407e-05
-6.29196 -0.000216964 11.213 0.000386655 1.6807 5.79553e-05
-6.34853 -0.000218915 11.3942 0.000392903 1.72808 5.9589e-05
-6.38186 -0.000220064 11.5514 0.000398324 1.77448 6.11888e-05
-6.38333 -0.000220115 11.6726 0.000402505 1.81715 6.26605e-05
-6.35875 -0.000219267 11.7498 0.000405167 1.8536 6.39172e-05
-6.30401 -0.00021738 11.7851 0.000406382 1.88473 6.49908e-05
-6.22836 -0.000214771 11.7908 0.00040658 1.91223 6.59391e-05
-6.13358 -0.000211503 11.7723 0.000405942 1.93644 6.67738e-05
-6.02275 -0.000207681 11.7256 0.00040433 1.95668 6.74717e-05
-5.90212 -0.000203521 11.6476 0.000401641 1.97201 6.80002e-05
-5.76924 -0.000198939 11.5427 0.000398025 1.9692 6.79036e-05
-5.62869 -0.000194092 11.4118 0.000393511 1.92251 6.62935e-05
-5.48058 -0.000188986 11.2459 0.000387789 1.8447 6.36104e-05
-5.31684 -0.000183339 11.0479 0.000380962 1.74237 6.00816e-05
-5.15033 -0.000177597 10.817 0.000373 1.61379 5.56479e-05
-5.00133 -0.00017246 10.578 0.000364758 1.44914 4.99703e-05
-4.78804 -0.000165105 10.3212 0.000355902 1.24567 4.2954e-05
-4.56324 -0.000157353 9.89215 0.000341109 1.01794 3.51015e-05
-4.40187 -0.000151789 9.23491 0.000318445 0.77165 2.66086e-05
-4.28416 -0.00014773 8.32157 0.000286951 0.5072 1.74896e-05
-4.17216 -0.000143868 7.15323 0.000246663 0.221874 7.65084e-06
-4.08405 -0.000140829 5.75998 0.00019862 -0.0836687 -2.88513e-06
-3.99552 -0.000137776 4.22931 0.000145838 -0.402321 -1.38731e-05
-3.83744 -0.000132325 3.31727 0.000114389 -0.722182 -2.49028e-05
-3.70176 -0.000127647 3.117 0.000107483 -1.0405 -3.58793e-05
-3.61989 -0.000124824 3.14031 0.000108286 -1.06713 -3.67976e-05
-3.62686 -0.000125064 3.21551 0.00011088 -1.08235 -3.73224e-05
-3.61652 -0.000124708 3.26104 0.00011245 -1.17747 -4.06025e-05
-3.57326 -0.000123216 3.28591 0.000113307 -1.2475 -4.30173e-05
-3.60422 -0.000124283 3.40668 0.000117472 -1.24651 -4.29832e-05
-3.63604 -0.000125381 3.53304 0.000121829 -1.19962 -4.13664e-05
-3.65299 -0.000125965 3.63854 0.000125467 -1.18263 -4.07803e-05
-3.65955 -0.000126191 3.72618 0.000128489 -1.22439 -4.22202e-05
-3.66116 -0.000126247 3.8183 0.000131665 -1.30623 -4.50424e-05
-3.65167 -0.00012592 3.92009 0.000135176 -1.35676 -4.67848e-05
-3.61717 -0.00012473 3.99461 0.000137745 -1.36288 -4.69959e-05
-3.55928 -0.000122734 4.01979 0.000138613 -1.35728 -4.68027e-05
-3.48201 -0.000120069 4.00863 0.000138229 -1.37456 -4.73986e-05
-3.37901 -0.000116517 3.98191 0.000137307 -1.41667 -4.88508e-05
-3.24538 -0.00011191 3.94068 0.000135886 -1.4588 -5.03033e-05
-3.0787 -0.000106162 3.86271 0.000133197 -1.47963 -5.10216e-05
-2.88056 -9.93296e-05 3.73375 0.00012875 -1.48112 -5.10732e-05
-2.65217 -9.1454e-05 3.5628 0.000122855 -1.48094 -5.10668e-05
-2.39142 -8.24625e-05 3.36519 0.000116041 -1.49149 -5.14306e-05
-2.1015 -7.24655e-05 3.14722 0.000108525 -1.50916 -5.20399e-05
-1.78433 -6.15286e-05 2.90011 0.000100004 -1.52159 -5.24688e-05
-1.44169 -4.97134e-05 2.61708 9.02441e-05 -1.52175 -5.24741e-05
-1.07884 -3.72011e-05 2.30463 7.947e-05 -1.51368 -5.2196e-05
-0.698842 -2.40979e-05 1.9732 6.80413e-05 -1.50612 -5.19351e-05
-0.341194 -1.17652e-05 1.63102 5.62419e-05 -1.50317 -5.18333e-05
0.0435017 1.50018e-06 1.29678 4.47166e-05 -1.50241 -5.18072e-05
0.460235 1.58703e-05 1.06697 3.67919e-05 -1.49999 -5.17238e-05
0.85924 2.96291e-05 0.96233 3.31838e-05 -1.49069 -5.14033e-05
1.24165 4.28155e-05 0.940566 3.24333e-05 -1.47705 -5.09326e-05
1.60306 5.5278e-05 0.75651 2.60866e-05 -1.46197 -5.04126e-05
1.92888 6.65132e-05 0.435442 1.50152e-05 -1.45688 -5.02373e-05
2.22738 7.68063e-05 0.118992 4.10318e-06 -1.45355 -5.01222e-05
2.50772 8.64733e-05 -0.123271 -4.25073e-06 -1.4458 -4.9855e-05
2.76441 9.53246e-05 -0.295984 -1.02064e-05 -1.4342 -4.94552e-05
2.98406 0.000102899 -0.44153 -1.52252e-05 -1.42504 -4.91395e-05
3.1657 0.000109162 -0.574638 -1.98151e-05 -1.42164 -4.9022e-05
3.31504 0.000114312 -0.671182 -2.31442e-05 -1.42166 -4.90227e-05
3.42971 0.000118266 -0.704519 -2.42938e-05 -1.42147 -4.90161e-05
3.50531 0.000120873 -0.680892 -2.3479e-05 -1.42051 -4.89833e-05
3.53722 0.000121973 -0.65717 -2.2661e-05 -1.33679 -4.60964e-05
3.50592 0.000120894 -0.610724 -2.10594e-05 -1.15671 -3.98866e-05
3.42201 0.000118 -0.525009 -1.81038e-05 -0.895097 -3.08654e-05
3.32019 0.000114489 -0.336054 -1.15881e-05 -0.625924 -2.15836e-05
3.17255 0.000109398 -0.0383702 -1.32311e-06 -0.490072 -1.6899e-05
2.96572 0.000102266 0.258069 8.89892e-06 -0.471391 -1.62549e-05
2.68248 9.24993e-05 0.560417 1.93247e-05 -0.452291 -1.55962e-05
2.31674 7.98879e-05 0.809749 2.79224e-05 -0.375004 -1.29312e-05
1.85272 6.3887e-05 1.08185 3.73052e-05 -0.30165 -1.04017e-05
1.29741 4.47384e-05 1.41945 4.89467e-05 -0.271016 -9.34539e-06
0.671376 2.3151e-05 1.80312 6.21767e-05 -0.266978 -9.20613e-06
-0.00795715 -2.74267e-07 2.16746 7.47401e-05 -0.248436 -8.56677e-06
-0.754294 -2.601e-05 2.50096 8.624e-05 -0.194504 -6.70704e-06
-1.55792 -5.37214e-05 2.82201 9.73109e-05 -0.121418 -4.18681e-06
-2.3954 -8.25997e-05 3.16051 0.000108983 -0.0583198 -2.01103e-06
-3.31764 -0.000114401 3.51252 0.000121121 -0.0147812 -5.09697e-07
-4.22928 -0.000145837 3.84906 0.000132726 0.0229599 7.91719e-07
-4.90377 -0.000169095 4.14278 0.000142854 0.0731611 2.5228e-06
-5.27848 -0.000182016 4.3975 0.000151638 0.138469 4.77481e-06
-5.47059 -0.000188641 4.64212 0.000160073 0.20818 7.17861e-06
-5.62785 -0.000194064 4.89588 0.000168824 0.27066 9.3331e-06
-5.69536 -0.000196392 5.15355 0.000177709 0.324291 1.11824e-05
-5.72953 -0.00019757 5.39736 0.000186116 0.376845 1.29947e-05
-5.75368 -0.000198403 5.62244 0.000193877 0.436053 1.50363e-05
-5.77893 -0.000199273 5.84009 0.000201382 0.501002 1.72759e-05
-5.79075 -0.000199681 6.05828 0.000208906 0.564784 1.94753e-05
-5.78689 -0.000199548 6.27614 0.000216419 0.62248 2.14648e-05
-5.77638 -0.000199186 6.48596 0.000223654 0.675524 2.32939e-05
-5.76174 -0.000198681 6.68405 0.000230485 0.728608 2.51244e-05
-5.73751 -0.000197845 6.87437 0.000237047 0.784082 2.70373e-05
-5.7021 -0.000196624 7.05893 0.000243411 0.839964 2.89643e-05
-5.66475 -0.000195336 7.23833 0.000249598 0.892684 3.07822e-05
-5.6281 -0.000194072 7.41092 0.000255549 0.940834 3.24425e-05
-5.59248 -0.000192844 7.57423 0.00026118 0.985981 3.39993e-05
-5.55523 -0.00019156 7.7332 0.000266662 1.03023 3.55252e-05
-5.52213 -0.000190418 7.8876 0.000271986 1.07382 3.70284e-05
-5.49608 -0.00018952 8.03697 0.000277137 1.1153 3.84585e-05
-5.4762 -0.000188834 8.18218 0.000282144 1.15303 3.97598e-05
-5.46092 -0.000188307 8.32304 0.000287002 1.18696 4.09295e-05
-5.45404 -0.00018807 8.46085 0.000291754 1.21807 4.20025e-05
-5.45354 -0.000188053 8.59345 0.000296326 1.24711 4.30038e-05
-5.44211 -0.000187659 8.71865 0.000300643 1.27392 4.39284e-05
-5.41548 -0.00018674 8.83511 0.000304659 1.29748 4.47406e-05
-5.37553 -0.000185363 8.94097 0.000308309 1.31726 4.54228e-05
-5.32957 -0.000183778 9.03803 0.000311656 1.3336 4.59861e-05
-5.28134 -0.000182115 9.12527 0.000314664 1.34702 4.64489e-05
-5.23323 -0.000180456 9.20023 0.000317249 1.35762 4.68144e-05
-5.20125 -0.000179353 9.25923 0.000319284 1.36509 4.70722e-05
-5.2099 -0.000179652 9.22856 0.000318226 1.37042 4.72558e-05
-5.26136 -0.000181426 9.08691 0.000313342 1.3723 4.73208e-05
-5.33941 -0.000184117 8.82691 0.000304376 1.35938 4.68753e-05
-5.43481 -0.000187407 8.44816 0.000291316 1.31833 4.54597e-05
-5.51055 -0.000190019 7.95861 0.000274435 1.25617 4.33162e-05
-5.56753 -0.000191984 7.35864 0.000253746 1.17517 4.0523e-05
-5.6254 -0.000193979 6.63612 0.000228832 1.07081 3.69243e-05
-5.66714 -0.000195418 5.91386 0.000203926 0.941061 3.24504e-05
-5.66913 -0.000195487 5.49697 0.000189551 0.788883 2.72029e-05
-5.64338 -0.000194599 5.34943 0.000184463 0.617717 2.13006e-05
-5.59642 -0.00019298 5.28154 0.000182122 0.429207 1.48002e-05
-5.52518 -0.000190524 5.15121 0.000177628 0.22313 7.69415e-06
-5.43952 -0.000187569 4.98816 0.000172006 -0.00044416 -1.53159e-08
-5.35534 -0.000184667 4.84451 0.000167052 -0.239985 -8.27533e-06
-5.25755 -0.000181295 4.72913 0.000163073 -0.49357 -1.70197e-05
-5.14468 -0.000177403 4.6068 0.000158855 -0.759276 -2.61819e-05
-5.02108 -0.000173141 4.45432 0.000153597 -1.03559 -3.571e-05
-4.92112 -0.000169694 4.29015 0.000147936 -1.08322 -3.73523e-05
-4.86756 -0.000167847 4.25004 0.000146553 -1.07863 -3.71942e-05
-4.81171 -0.000165921 4.25916 0.000146867 -1.14451 -3.94658e-05
-4.72923 -0.000163077 4.20585 0.000145029 -1.19888 -4.13406e-05
-4.65673 -0.000160577 4.1298 0.000142407 -1.19772 -4.13006e-05
-4.58034 -0.000157943 4.00677 0.000138164 -1.15223 -3.97319e-05
-4.50091 -0.000155204 3.89292 0.000134239 -1.11993 -3.86182e-05
-4.42136 -0.000152461 3.79445 0.000130843 -1.12962 -3.89525e-05
-4.34587 -0.000149857 3.68613 0.000127108 -1.16155 -4.00535e-05
-4.27529 -0.000147424 3.55032 0.000122425 -1.19598 -4.12408e-05
-4.2086 -0.000145124 3.3847 0.000116714 -1.19158 -4.1089e-05
-4.16993 -0.000143791 3.20326 0.000110457 -1.17104 -4.03808e-05
-4.19085 -0.000144512 3.02233 0.000104218 -1.16734 -4.02532e-05
-4.2761 -0.000147452 2.84646 9.81539e-05 -1.18819 -4.09719e-05
-4.41618 -0.000152282 2.66898 9.20338e-05 -1.21543 -4.19113e-05
-4.61391 -0.0001591 2.48499 8.56895e-05 -1.22814 -4.23498e-05
-4.81364 -0.000165987 2.2898 7.89588e-05 -1.22224 -4.21464e-05
-4.77268 -0.000164575 2.07936 7.17022e-05 -1.21417 -4.18679e-05
-4.66561 -0.000160883 1.86251 6.42244e-05 -1.22044 -4.20842e-05
-4.60002 -0.000158621 1.66003 5.72423e-05 -1.23606 -4.26229e-05
-4.56339 -0.000157358 1.48467 5.11954e-05 -1.25019 -4.31099e-05
-4.51695 -0.000155757 1.32914 4.58326e-05 -1.25647 -4.33265e-05
-4.47551 -0.000154328 1.18564 4.08842e-05 -1.2581 -4.33827e-05
-4.46531 -0.000153976 1.05941 3.65315e-05 -1.26256 -4.35365e-05
-4.47691 -0.000154376 0.960198 3.31103e-05 -1.27384 -4.39255e-05
-4.49782 -0.000155097 0.892697 3.07826e-05 -1.28932 -4.44592e-05
-4.53227 -0.000156285 0.849845 2.9305e-05 -1.30368 -4.49546e-05
-4.58823 -0.000158215 0.823565 2.83988e-05 -1.31479 -4.53378e-05
-4.65931 -0.000160666 0.815647 2.81257e-05 -1.32503 -4.56907e-05
-4.74163 -0.000163504 0.829119 2.85903e-05 -1.33778 -4.61304e-05
-4.83788 -0.000166823 0.865073 2.98301e-05 -1.35378 -4.66821e-05
-4.94573 -0.000170542 1.00216 3.45572e-05 -1.37083 -4.72699e-05
-5.04198 -0.000173861 1.05409 3.6348e-05 -1.37828 -4.75269e-05
-5.17458 -0.000178434 1.06911 3.68658e-05 -1.38955 -4.79154e-05
-5.37081 -0.0001852 1.17099 4.03791e-05 -1.41361 -4.8745e-05
-5.46911 -0.00018859 1.28872 4.44386e-05 -1.38385 -4.77188e-05
-5.58877 -0.000192716 1.42883 4.92701e-05 -1.31071 -4.5197e-05
-5.775 -0.000199138 1.60491 5.53418e-05 -1.25578 -4.33026e-05
-5.9306 -0.000204503 1.74889 6.03064e-05 -1.18602 -4.08972e-05
-6.05125 -0.000208664 1.86655 6.43637e-05 -1.08033 -3.72529e-05
-6.20029 -0.000213803 2.01578 6.95095e-05 -1.01958 -3.5158e-05
-6.35295 -0.000219067 2.18078 7.51993e-05 -0.983896 -3.39275e-05
-6.47634 -0.000223322 2.31733 7.99078e-05 -0.949325 -3.27354e-05
-6.59262 -0.000227332 2.43501 8.39659e-05 -0.923479 -3.18441e-05
-6.70567 -0.00023123 2.53954 8.75704e-05 -0.937026 -3.23112e-05
-6.79781 -0.000234407 2.62101 9.03797e-05 -0.928668 -3.2023e-05
-6.87645 -0.000237119 2.68919 9.27305e-05 -0.912878 -3.14785e-05
-6.94502 -0.000239483 2.74882 9.47867e-05 -0.905388 -3.12203e-05
-6.99926 -0.000241354 2.79502 9.63801e-05 -0.909619 -3.13662e-05
-7.03831 -0.0002427 2.82542 9.74284e-05 -0.916198 -3.1593e-05
-7.06576 -0.000243647 2.84278 9.80268e-05 -0.915775 -3.15784e-05
-7.08188 -0.000244203 2.85282 9.83731e-05 -0.907742 -3.13015e-05
-7.08083 -0.000244166 2.90991 0.000100342 -0.899558 -3.10192e-05
-7.05861 -0.0002434 3.03583 0.000104684 -0.896423 -3.09111e-05
-7.01673 -0.000241956 3.24049 0.000111741 -0.897898 -3.0962e-05
-6.92978 -0.000238958 3.51521 0.000121214 -0.89819 -3.09721e-05
-6.78424 -0.000233939 3.70863 0.000127884 -0.893093 -3.07963e-05
-6.58441 -0.000227049 3.67093 0.000126584 -0.891617 -3.07454e-05
-6.32036 -0.000217943 3.60397 0.000124275 -0.901412 -3.10832e-05
-5.96501 -0.00020569 3.55926 0.000122733 -0.908487 -3.13271e-05
-5.72692 -0.00019748 3.55008 0.000122416 -0.91404 -3.15186e-05
-5.59323 -0.00019287 3.55144 0.000122464 -0.92356 -3.18469e-05
-5.36953 -0.000185156 3.50912 0.000121004 -0.927903 -3.19966e-05
-5.12819 -0.000176834 3.46712 0.000119556 -0.930017 -3.20696e-05
-4.90052 -0.000168983 3.46173 0.00011937 -0.926512 -3.19487e-05
-4.66288 -0.000160789 3.44868 0.00011892 -0.91939 -3.17031e-05
-4.4516 -0.000153503 3.43665 0.000118505 -0.914362 -3.15297e-05
-4.23484 -0.000146029 3.42993 0.000118273 -0.909147 -3.13499e-05
-4.01265 -0.000138367 3.42023 0.000117939 -0.898276 -3.0975e-05
-3.79019 -0.000130696 3.41687 0.000117823 -0.886769 -3.05782e-05
-3.56382 -0.00012289 3.42245 0.000118016 -0.875189 -3.01789e-05
-3.33256 -0.000114916 3.42932 0.000118252 -0.86367 -2.97817e-05
-3.1036 -0.00010702 3.43816 0.000118557 -0.850986 -2.93443e-05
-2.87779 -9.92339e-05 3.45356 0.000119088 -0.836054 -2.88294e-05
-2.6523 -9.14585e-05 3.47644 0.000119877 -0.81842 -2.82214e-05
-2.42839 -8.37373e-05 3.50515 0.000120867 -0.799926 -2.75836e-05
-2.20799 -7.61374e-05 3.53687 0.000121961 -0.782151 -2.69707e-05
-2.00483 -6.9132e-05 3.57867 0.000123403 -0.766453 -2.64294e-05
-1.80785 -6.23395e-05 3.62928 0.000125147 -0.749007 -2.58278e-05
-1.61303 -5.56216e-05 3.68349 0.000127017 -0.728128 -2.51079e-05
-1.42579 -4.91652e-05 3.74564 0.00012916 -0.70455 -2.42948e-05
-1.24527 -4.29402e-05 3.81846 0.000131671 -0.680469 -2.34644e-05
-1.06891 -3.6859e-05 3.90034 0.000134495 -0.65639 -2.26342e-05
-0.897353 -3.09431e-05 3.99077 0.000137613 -0.631662 -2.17814e-05
-0.73236 -2.52537e-05 4.09092 0.000141066 -0.605154 -2.08674e-05
-0.571834 -1.97183e-05 4.19929 0.000144803 -0.576355 -1.98743e-05
-0.428354 -1.47707e-05 4.31577 0.00014882 -0.545988 -1.88272e-05
-0.280304 -9.66555e-06 4.44116 0.000153144 -0.515127 -1.7763e-05
-0.127152 -4.38445e-06 4.57399 0.000157724 -0.483657 -1.66778e-05
0.00943062 3.25311e-07 4.71272 0.000162508 -0.450977 -1.55509e-05
0.136734 4.71509e-06 4.85472 0.000167404 -0.416874 -1.4375e-05
0.270316 9.32137e-06 5.00012 0.000172418 -0.381693 -1.31618e-05
0.408615 1.40903e-05 5.1511 0.000177624 -0.345681 -1.192e-05
0.543626 1.87459e-05 5.30698 0.000182999 -0.308914 -1.06522e-05
0.676617 2.33318e-05 5.46749 0.000188534 -0.271511 -9.36245e-06
0.816515 2.81558e-05 5.63234 0.000194218 -0.2335 -8.05173e-06
0.965365 3.32885e-05 5.80118 0.000200041 -0.194757 -6.71575e-06
1.11928 3.85961e-05 5.97439 0.000206013 -0.155282 -5.35456e-06
1.2793 4.4114e-05 6.14936 0.000212047 -0.115333 -3.97699e-06
1.44856 4.99506e-05 6.32388 0.000218065 -0.0751537 -2.59151e-06
1.62815 5.61432e-05 6.49633 0.000224011 -0.0347447 -1.19809e-06
1.81649 6.26377e-05 6.66467 0.000229816 0.00601766 2.07506e-07
2.01234 6.93911e-05 6.82795 0.000235446 0.0471304 1.62519e-06
2.21714 7.64532e-05 6.98319 0.0002408 0.0884289 3.04927e-06
2.43045 8.38089e-05 7.12838 0.000245806 0.12976 4.47448e-06
2.65081 9.14073e-05 7.26295 0.000250446 0.171112 5.90043e-06
2.87695 9.92053e-05 7.38586 0.000254685 0.212553 7.32942e-06
3.10734 0.00010715 7.49756 0.000258536 0.254098 8.762e-06
3.34159 0.000115227 7.59688 0.000261961 0.29569 1.01962e-05
3.57733 0.000123356 7.68308 0.000264934 0.337261 1.16297e-05
3.81209 0.000131452 7.75733 0.000267494 0.378784 1.30615e-05
4.04457 0.000139468 7.82053 0.000269673 0.420304 1.44932e-05
4.27217 0.000147316 7.87559 0.000271572 0.461851 1.59259e-05
4.49277 0.000154923 7.92399 0.000273241 0.50345 1.73604e-05
4.70666 0.000162299 7.96874 0.000274784 0.545058 1.87951e-05
4.9111 0.000169348 8.01384 0.000276339 0.586535 2.02254e-05
5.10311 0.000175969 8.06167 0.000277989 0.628095 2.16585e-05
5.28293 0.00018217 8.11627 0.000279871 0.669643 2.30911e-05
5.45026 0.00018794 8.18101 0.000282104 0.711232 2.45252e-05
5.60362 0.000193228 8.25791 0.000284756 0.75278 2.59579e-05
5.74098 0.000197965 8.34923 0.000287905 0.794274 2.73888e-05
5.86275 0.000202164 8.4553 0.000291562 0.835661 2.88159e-05
5.96827 0.000205803 8.57713 0.000295763 0.876906 3.02381e-05
6.05743 0.000208877 8.71555 0.000300536 0.917976 3.16543e-05
6.13029 0.000211389 8.86985 0.000305857 0.95881 3.30624e-05
6.18664 0.000213332 9.04017 0.00031173 0.9993 3.44586e-05
6.22834 0.00021477 9.22452 0.000318087 1.03933 3.58389e-05
6.2563 0.000215735 9.42101 0.000324862 1.07878 3.71992e-05
6.27186 0.000216271 9.6283 0.00033201 1.11754 3.85358e-05
6.2777 0.000216473 9.84414 0.000339453 1.1555 3.98447e-05
6.27528 0.000216389 10.0675 0.000347156 1.19254 4.11222e-05
6.26682 0.000216097 10.2954 0.000355014 1.22853 4.23632e-05
6.25543 0.000215705 10.5235 0.000362878 1.26327 4.35609e-05
6.24345 0.000215292 10.7481 0.000370622 1.29656 4.47089e-05
6.23412 0.00021497 10.9651 0.000378107 1.32826 4.5802e-05
6.22937 0.000214806 11.1736 0.000385297 1.35826 4.68365e-05
6.233 0.000214931 11.3724 0.000392152 1.38643 4.78078e-05
6.24644 0.000215395 11.5593 0.000398597 1.41259 4.871e-05
6.27637 0.000216427 11.7326 0.000404574 1.4366 4.95379e-05
6.32394 0.000218067 11.8893 0.000409977 1.45838 5.02891e-05
6.38941 0.000220325 12.0278 0.000414751 1.47788 5.09613e-05
6.47616 0.000223316 12.1465 0.000418845 1.49498 5.15511e-05
6.58675 0.000227129 12.2432 0.00042218 1.50962 5.20559e-05
6.72058 0.000231744 12.3169 0.000424722 1.52177 5.24749e-05
6.87798 0.000237172 12.3651 0.000426382 1.53143 5.28079e-05
7.05887 0.000243409 12.3867 0.000427127 1.5386 5.30552e-05
7.26377 0.000250475 12.3805 0.000426913 1.52076 5.24401e-05
7.49453 0.000258432 12.3374 0.000425427 1.48132 5.108e-05
7.74803 0.000267174 12.2583 0.000422698 1.42502 4.91388e-05
8.02113 0.000276591 12.1467 0.000418851 1.352 4.66205e-05
8.31218 0.000286627 12.0059 0.000413998 1.2593 4.34242e-05
8.61724 0.000297146 11.8413 0.00040832 1.14627 3.95264e-05
8.93255 0.000308019 11.6551 0.000401899 1.01725 3.50777e-05
9.25406 0.000319106 11.4502 0.000394834 0.879104 3.03139e-05
9.57843 0.000330291 11.2322 0.000387317 0.736147 2.53844e-05
9.90108 0.000341417 11.0085 0.000379604 0.589736 2.03357e-05
10.217 0.000352312 10.7857 0.000371922 0.441264 1.5216e-05
10.5256 0.000362951 10.5695 0.000364464 0.293627 1.01251e-05
10.8198 0.000373097 10.3639 0.000357375 0.151622 5.22836e-06
11.0957 0.00038261 10.1732 0.000350802 0.0197333 6.8046e-07
11.351 0.000391413 10.0019 0.000344891 -0.0996203 -3.43518e-06
11.5823 0.000399389 9.85495 0.000339826 -0.205099 -7.07236e-06
11.7866 0.000406434 9.73483 0.000335684 -0.295335 -1.0184e-05
11.9604 0.000412427 9.64349 0.000332534 -0.368167 -1.26954e-05
12.1025 0.000417328 9.58218 0.00033042 -0.421525 -1.45354e-05
12.2119 0.000421102 9.5511 0.000329348 -0.454239 -1.56634e-05
12.2872 0.000423696 9.55156 0.000329364 -0.466263 -1.6078e-05
12.3285 0.000425119 9.56971 0.00032999 -0.458068 -1.57954e-05
12.3293 0.000425149 9.53435 0.000328771 -0.431133 -1.48667e-05
12.2801 0.000423451 9.43285 0.000325271 -0.386955 -1.33433e-05
12.1912 0.000420386 9.26228 0.000319389 -0.325013 -1.12073e-05
12.0673 0.000416113 9.03739 0.000311634 -0.246697 -8.5068e-06
11.8751 0.000409487 8.77083 0.000302442 -0.154215 -5.31775e-06
11.6051 0.000400175 8.4706 0.00029209 -0.0502192 -1.7317e-06
11.269 0.000388587 8.14314 0.000280798 0.0632959 2.18262e-06
10.8866 0.000375399 7.79873 0.000268922 0.184302 6.35525e-06
10.4668 0.000360926 7.45576 0.000257095 0.310629 1.07113e-05
10.0218 0.000345581 7.12948 0.000245844 0.439383 1.51511e-05
9.57088 0.00033003 6.82978 0.00023551 0.567478 1.95682e-05
9.13847 0.00031512 6.54412 0.000225659 0.692627 2.38837e-05
8.74037 0.000301392 6.30714 0.000217488 0.812819 2.80282e-05
8.38065 0.000288988 6.14341 0.000211842 0.925972 3.19301e-05
8.06269 0.000278024 6.04584 0.000208477 1.02976 3.5509e-05
7.78621 0.00026849 6.03356 0.000208054 1.12175 3.8681e-05
7.54607 0.00026021 6.07654 0.000209536 1.20043 4.13942e-05
7.34002 0.000253104 6.17972 0.000213094 1.26474 4.36118e-05
7.16385 0.000247029 6.34674 0.000218853 1.31411 4.53141e-05
7.01502 0.000241897 6.57543 0.000226739 1.3481 4.64862e-05
6.8906 0.000237607 6.86122 0.000236594 1.36669 4.71273e-05
6.78363 0.000233918 7.19939 0.000248255 1.37027 4.72508e-05
6.69001 0.00023069 7.58163 0.000261436 1.35972 4.6887e-05
6.6042 0.000227731 7.99924 0.000275836 1.33625 4.60777e-05
6.50724 0.000224388 8.15529 0.000281217 1.30105 4.48639e-05
6.35763 0.000219229 8.07133 0.000278322 1.25369 4.32305e-05
6.18194 0.00021317 7.9329 0.000273548 1.19824 4.13186e-05
5.9924 0.000206635 7.80124 0.000269008 1.13722 3.92145e-05
5.76819 0.000198903 7.69726 0.000265423 1.07304 3.70012e-05
5.48039 0.000188979 7.56918 0.000261006 1.00406 3.46227e-05
5.13716 0.000177143 7.47177 0.000257647 0.929373 3.20474e-05
4.75631 0.000164011 7.34259 0.000253193 0.86866 2.99538e-05
4.28975 0.000147923 7.22507 0.00024914 0.808366 2.78747e-05
3.75544 0.000129498 7.12608 0.000245727 0.751994 2.59308e-05
3.13187 0.000107996 7.03809 0.000242693 0.706698 2.43689e-05
2.38925 8.23879e-05 6.94952 0.000239639 0.669341 2.30807e-05
1.58074 5.45084e-05 6.76361 0.000233228 0.640352 2.20811e-05
0.659613 2.27454e-05 6.44395 0.000222205 0.620289 2.13893e-05
-0.249956 -8.61904e-06 5.99898 0.000206861 0.607694 2.0955e-05
-0.993914 -3.42728e-05 5.49123 0.000189353 0.605005 2.08622e-05
-1.59481 -5.49934e-05 4.91859 0.000169606 0.611736 2.10944e-05
-2.05995 -7.10326e-05 4.24142 0.000146256 0.626159 2.15917e-05
-2.47912 -8.54867e-05 3.52466 0.00012154 0.646684 2.22994e-05
-2.78928 -9.61818e-05 3.06103 0.000105553 0.67398 2.32407e-05
-3.07711 -0.000106107 2.94727 0.00010163 0.707726 2.44044e-05
-3.36543 -0.000116049 3.11415 0.000107385 0.744281 2.56649e-05
-3.59341 -0.000123911 3.33348 0.000114948 0.77939 2.68755e-05
-3.8222 -0.0001318 3.51524 0.000121215 0.809678 2.79199e-05
