-0.859708 -2.96451e-05 -1.62846 -5.6154e-05 -0.270953 -9.3432e-06
-0.854095 -2.94515e-05 -1.62948 -5.6189e-05 -0.270787 -9.33747e-06
-0.840813 -2.89936e-05 -1.63197 -5.62748e-05 -0.270187 -9.31678e-06
-0.813255 -2.80433e-05 -1.63594 -5.64117e-05 -0.269443 -9.29113e-06
-0.781641 -2.69531e-05 -1.63982 -5.65457e-05 -0.268958 -9.27441e-06
-0.740595 -2.55377e-05 -1.64391 -5.66864e-05 -0.268916 -9.27298e-06
-0.689162 -2.37642e-05 -1.64759 -5.68134e-05 -0.269549 -9.29479e-06
-0.626292 -2.15963e-05 -1.6501 -5.69e-05 -0.271192 -9.35143e-06
-0.550844 -1.89946e-05 -1.6507 -5.69206e-05 -0.274198 -9.45509e-06
-0.461585 -1.59167e-05 -1.64864 -5.68496e-05 -0.278908 -9.61752e-06
-0.357339 -1.2322e-05 -1.643 -5.66553e-05 -0.285626 -9.84916e-06
-0.237227 -8.18023e-06 -1.63271 -5.63002e-05 -0.294604 -1.01588e-05
-0.101642 -3.50489e-06 -1.61653 -5.57425e-05 -0.306066 -1.0554e-05
0.0471095 1.62447e-06 -1.59369 -5.49548e-05 -0.319968 -1.10334e-05
0.213057 7.34679e-06 -1.56182 -5.38559e-05 -0.336784 -1.16132e-05
0.389444 1.34291e-05 -1.51972 -5.24041e-05 -0.356244 -1.22843e-05
0.572506 1.97416e-05 -1.46576 -5.05436e-05 -0.378134 -1.30391e-05
0.757809 2.61313e-05 -1.39856 -4.82263e-05 -0.401904 -1.38588e-05
0.940442 3.2429e-05 -1.3172 -4.54207e-05 -0.426701 -1.47138e-05
1.11544 3.84633e-05 -1.22127 -4.21127e-05 -0.451268 -1.5561e-05
1.27775 4.40603e-05 -1.11087 -3.8306e-05 -0.474078 -1.63475e-05
1.42159 4.90205e-05 -0.986596 -3.40206e-05 -0.493065 -1.70022e-05
1.54004 5.31049e-05 -0.849472 -2.92921e-05 -0.505864 -1.74436e-05
1.6248 5.60276e-05 -0.700013 -2.41384e-05 -0.509926 -1.75837e-05
1.66617 5.74543e-05 -0.537665 -1.85402e-05 -0.502608 -1.73313e-05
1.65371 5.70246e-05 -0.370139 -1.27634e-05 -0.481172 -1.65921e-05
1.57858 5.44338e-05 -0.200532 -6.91489e-06 -0.442587 -1.52616e-05
1.43601 4.95175e-05 -0.0325905 -1.12381e-06 -0.383138 -1.32117e-05
1.22817 4.23508e-05 0.125614 4.33153e-06 -0.299134 -1.0315e-05
0.962911 3.32038e-05 0.265656 9.16055e-06 -0.18743 -6.46309e-06
0.654614 2.25729e-05 0.37877 1.3061e-05 -0.0434323 -1.49767e-06
0.308484 1.06374e-05 0.455868 1.57196e-05 0.137902 4.75524e-06
-0.0627052 -2.16225e-06 0.491333 1.69425e-05 0.353805 1.22002e-05
-0.452316 -1.55971e-05 0.479569 1.65369e-05 0.602639 2.07807e-05
-0.853148 -2.94189e-05 0.417225 1.43871e-05 0.88188 3.04097e-05
-1.26104 -4.34843e-05 0.303705 1.04726e-05 1.18668 4.09199e-05
-1.67452 -5.77421e-05 0.140223 4.83528e-06 1.51063 5.20905e-05
-2.09221 -7.21451e-05 -0.0704818 -2.43041e-06 1.84567 6.36438e-05
-2.51038 -8.65649e-05 -0.324416 -1.11868e-05 2.18196 7.524e-05
-2.92783 -0.00010096 -0.61187 -2.1099e-05 2.50791 8.64798e-05
-3.34211 -0.000115245 -0.926021 -3.19318e-05 2.81472 9.70592e-05
-3.7486 -0.000129262 -1.26296 -4.35504e-05 3.09046 0.000106568
-4.14054 -0.000142777 -1.61534 -5.57013e-05 3.3242 0.000114628
-4.50916 -0.000155488 -1.97645 -6.81533e-05 3.50551 0.00012088
-4.84459 -0.000167055 -2.33952 -8.06732e-05 3.62492 0.000124997
-5.13827 -0.000177182 -2.69769 -9.30239e-05 3.67381 0.000126683
-5.38697 -0.000185758 -3.04385 -0.00010496 3.64426 0.000125664
-5.59327 -0.000192872 -3.37184 -0.00011627 3.5302 0.000121731
-5.76551 -0.000198811 -3.67219 -0.000126627 3.3273 0.000114735
-5.91844 -0.000204084 -3.93675 -0.00013575 3.0331 0.00010459
-6.114 -0.000210828 -4.2086 -0.000145124 2.53677 8.74747e-05
-6.35883 -0.00021927 -4.40894 -0.000152032 1.90287 6.56162e-05
-6.70066 -0.000231057 -4.53608 -0.000156417 1.14467 3.94713e-05
-7.17888 -0.000247548 -4.59778 -0.000158544 0.283189 9.76516e-06
-7.81822 -0.000269594 -4.61416 -0.000159109 -0.647021 -2.23111e-05
-8.62569 -0.000297438 -4.61446 -0.000159119 -1.60252 -5.52592e-05
-9.58781 -0.000330614 -4.63598 -0.000159861 -2.56168 -8.8334e-05
-10.6722 -0.000368007 -4.72043 -0.000162774 -3.48493 -0.00012017
-11.8377 -0.000408195 -4.91103 -0.000169346 -4.33377 -0.00014944
-13.0492 -0.000449972 -5.24435 -0.00018084 -5.08175 -0.000175233
-14.2864 -0.000492634 -5.74519 -0.00019811 -5.70851 -0.000196845
-15.5418 -0.000535924 -6.42628 -0.000221596 -6.20306 -0.000213899
-16.8152 -0.000579836 -7.28842 -0.000251325 -6.56533 -0.000226391
-18.1089 -0.000624443 -8.32084 -0.000286926 -6.80719 -0.000234731
-19.4217 -0.000669713 -9.50289 -0.000327686 -6.9505 -0.000239672
-20.7434 -0.000715291 -10.8073 -0.000372665 -7.0236 -0.000242193
-22.0553 -0.000760528 -12.2014 -0.000420738 -7.06061 -0.000243469
-23.3383 -0.000804768 -13.6473 -0.000470596 -7.10013 -0.000244832
-24.5806 -0.000847608 -15.1027 -0.000520784 -7.18344 -0.000247705
-25.7786 -0.000888918 -16.5243 -0.000569805 -7.35069 -0.000253472
-26.9309 -0.000928651 -17.8709 -0.000616238 -7.63795 -0.000263378
-28.0299 -0.00096655 -19.1075 -0.000658878 -8.07453 -0.000278432
-29.0576 -0.00100199 -20.2083 -0.000696838 -8.68109 -0.000299348
-29.9918 -0.0010342 -21.1566 -0.000729538 -9.46825 -0.000326491
-30.8153 -0.0010626 -21.9436 -0.000756675 -10.4363 -0.000359872
-31.5179 -0.00108682 -22.5682 -0.000778214 -11.5751 -0.000399141
-32.0972 -0.0011068 -23.0366 -0.000794367 -12.865 -0.00044362
-32.5582 -0.0011227 -23.3612 -0.000805558 -14.2774 -0.000492324
-32.9131 -0.00113494 -23.5596 -0.000812399 -15.7762 -0.000544007
-33.1799 -0.00114413 -23.654 -0.000815656 -17.3194 -0.000597221
-33.3791 -0.001151 -23.67 -0.000816208 -18.8609 -0.000650377
-33.5331 -0.00115631 -23.635 -0.000815001 -20.353 -0.000701827
-33.6667 -0.00116092 -23.5763 -0.000812976 -21.7483 -0.000749941
-33.8087 -0.00116582 -23.5193 -0.000811011 -23.0023 -0.000793182
-33.9909 -0.0011721 -23.4864 -0.000809875 -24.0753 -0.000830182
-34.2427 -0.00118078 -23.4966 -0.000810227 -24.9338 -0.000859787
-34.5817 -0.00119247 -23.5666 -0.00081264 -25.5518 -0.000881095
-35.0048 -0.00120706 -23.7111 -0.000817623 -25.911 -0.000893484
-35.4889 -0.00122376 -23.9417 -0.000825577 -26.0028 -0.000896649
-35.9978 -0.0012413 -24.2644 -0.000836702 -25.8287 -0.000890645
-36.3949 -0.001255 -24.5875 -0.000847846 -25.5063 -0.000879526
-36.8447 -0.00127051 -25.0639 -0.000864274 -24.8936 -0.000858401
-37.2086 -0.00128305 -25.6018 -0.000882822 -24.0791 -0.000830312
-37.4559 -0.00129158 -26.1719 -0.000902478 -23.1044 -0.000796703
-37.5574 -0.00129508 -26.7379 -0.000921996 -22.0183 -0.000759253
-37.4819 -0.00129248 -27.2594 -0.000939981 -20.8736 -0.000719779
-37.198 -0.00128269 -27.6935 -0.000954949 -19.7241 -0.000680141
-36.6756 -0.00126467 -27.9971 -0.000965416 -18.6221 -0.00064214
-35.8855 -0.00123743 -28.1296 -0.000969985 -17.6152 -0.000607421
-34.8027 -0.00120009 -28.0544 -0.000967393 -16.7439 -0.000577377
-33.4079 -0.001152 -27.7405 -0.000956568 -16.0393 -0.000553081
-31.6881 -0.00109269 -27.1642 -0.000936695 -15.5212 -0.000535215
-29.639 -0.00102204 -26.3097 -0.000907231 -15.197 -0.000524034
-27.2725 -0.000940432 -25.1687 -0.000867886 -15.0612 -0.00051935
-24.6228 -0.00084906 -23.7395 -0.000818605 -15.0957 -0.000520541
-21.7431 -0.000749762 -22.0288 -0.000759613 -15.27 -0.000526553
-18.6928 -0.000644578 -20.0538 -0.00069151 -15.5413 -0.000535905
-15.5304 -0.00053553 -17.843 -0.000615274 -15.8552 -0.000546732
-12.3156 -0.000424676 -15.4341 -0.000532209 -16.1493 -0.000556874
-9.10967 -0.000314127 -12.8732 -0.000443903 -16.3553 -0.000563976
-5.97286 -0.000205961 -10.2125 -0.000352156 -16.4023 -0.000565598
-2.96028 -0.000102079 -7.5084 -0.00025891 -16.2206 -0.000559329
-0.11509 -3.96861e-06 -4.81958 -0.000166192 -15.7444 -0.000542909
2.51403 8.66905e-05 -2.18111 -7.52108e-05 -14.9163 -0.000514355
4.95319 0.0001708 0.320978 1.10682e-05 -13.6999 -0.000472409
7.18792 0.000247859 2.64403 9.11736e-05 -12.0561 -0.000415728
9.20158 0.000317296 4.75615 0.000164005 -9.97105 -0.000343829
10.9793 0.000378597 6.63713 0.000228867 -7.45844 -0.000257188
12.5033 0.000431148 8.27726 0.000285423 -4.54174 -0.000156612
13.7663 0.0004747 9.68967 0.000334127 -1.26759 -4.37099e-05
14.7925 0.000510086 10.8848 0.000375336 2.34167 8.07473e-05
15.6268 0.000538855 11.8813 0.0004097 6.20903 0.000214104
16.328 0.000563033 12.7061 0.000438142 10.2278 0.000352684
16.9593 0.000584802 13.3972 0.000461972 14.2942 0.000492905
17.5865 0.00060643 13.9921 0.000482487 18.3045 0.000631189
18.2796 0.000630332 14.5296 0.00050102 22.153 0.000763898
19.11 0.000658967 15.0543 0.000519112 25.7409 0.000887617
20.145 0.000694653 15.6088 0.000538234 28.9809 0.00099934
21.4396 0.000739295 16.2327 0.000559749 31.7885 0.00109616
23.028 0.000794068 16.9647 0.000584989 34.0905 0.00117553
24.9149 0.000859136 17.8416 0.000615228 35.8338 0.00123565
27.0756 0.00093364 18.8945 0.000651535 36.9845 0.00127533
29.4651 0.00101604 20.1435 0.000694604 37.5301 0.00129414
32.0303 0.00110449 21.5953 0.000744664 37.4791 0.00129238
34.7156 0.00119709 23.2407 0.000801404 36.8652 0.00127122
37.4675 0.00129198 25.0532 0.000863904 35.7467 0.00123265
40.2362 0.00138745 26.9898 0.000930684 34.2023 0.00117939
42.9744 0.00148188 28.9946 0.000999812 32.3266 0.00111471
45.6395 0.00157378 31.0016 0.00106902 30.2266 0.0010423
48.1907 0.00166175 32.9394 0.00113584 28.0164 0.000966083
50.5859 0.00174435 34.7367 0.00119782 25.8113 0.000890044
52.7807 0.00182003 36.3266 0.00125264 23.7208 0.000817958
54.7323 0.00188734 37.6508 0.0012983 21.8441 0.000753246
56.4038 0.00194498 38.6617 0.00133316 20.266 0.000698826
57.5814 0.00198559 39.3264 0.00135608 19.056 0.000657103
58.4941 0.00201706 39.604 0.00136566 18.2696 0.000629987
59.1507 0.00203971 39.5817 0.00136489 17.8871 0.000616796
59.2736 0.00204394 39.1467 0.00134989 17.9465 0.000618846
59.1855 0.00204091 38.4232 0.00132494 18.3715 0.000633498
58.6339 0.00202189 37.5058 0.0012933 19.1278 0.000659581
56.9926 0.00196529 36.5585 0.00126064 20.107 0.000693345
55.1576 0.00190201 35.2695 0.00121619 21.4069 0.000738169
53.1684 0.00183342 33.936 0.00117021 22.8076 0.00078647
51.0142 0.00175914 32.4831 0.00112011 24.3165 0.000838501
48.7732 0.00168186 30.9553 0.00106743 25.8341 0.000890832
46.586 0.00160644 29.4268 0.00101472 27.2768 0.00094058
44.4914 0.00153421 27.9453 0.00096363 28.5641 0.000984971
42.5734 0.00146808 26.5454 0.000915358 29.6154 0.00102122
40.9168 0.00141095 25.2662 0.00087125 30.3682 0.00104718
39.5719 0.00136458 24.1475 0.000832672 30.7743 0.00106118
38.587 0.00133061 23.2228 0.000800785 30.7899 0.00106172
38.0031 0.00131048 22.5119 0.000776271 30.386 0.00104779
37.8354 0.0013047 22.0269 0.000759547 29.5578 0.00101923
38.0877 0.0013134 21.7782 0.000750974 28.3188 0.00097651
38.7495 0.00133622 21.7667 0.000750576 26.6956 0.000920536
39.7672 0.00137131 21.9849 0.0007581 24.7294 0.000852739
40.8857 0.00140988 22.4671 0.000774729 22.4662 0.000774698
42.0571 0.00145027 23.165 0.000798794 19.9885 0.000689259
43.2164 0.00149025 24.0446 0.000829124 17.3857 0.000599506
44.3181 0.00152824 25.0507 0.000863817 14.7585 0.000508914
45.1258 0.00155609 25.9025 0.000893192 12.7092 0.000438248
45.8446 0.00158087 26.7565 0.00092264 10.7666 0.000371263
46.4536 0.00160188 27.5787 0.000950988 8.98412 0.000309797
46.9324 0.00161838 28.3365 0.000977121 7.41111 0.000255556
47.2611 0.00162972 28.9992 0.000999974 6.09108 0.000210037
47.4227 0.00163529 29.5388 0.00101858 5.06096 0.000174516
47.4012 0.00163455 29.9322 0.00103215 4.35058 0.00015002
47.1802 0.00162693 30.1633 0.00104011 3.98125 0.000137285
46.7422 0.00161183 30.2223 0.00104215 3.96446 0.000136706
46.0693 0.00158862 30.1056 0.00103813 4.30135 0.000148322
45.1443 0.00155673 29.8154 0.00102812 4.98326 0.000171837
43.9544 0.0015157 29.3589 0.00101238 5.99274 0.000206646
42.4961 0.00146541 28.7471 0.000991281 7.30435 0.000251874
40.7778 0.00140616 27.9934 0.000965291 8.88531 0.00030639
38.8209 0.00133868 27.1123 0.000934907 10.6962 0.000368836
36.658 0.00126409 26.1193 0.000900667 12.6922 0.000437661
34.3271 0.00118372 25.032 0.000863174 14.8236 0.000511159
31.8669 0.00109889 23.8699 0.000823101 17.0375 0.0005875
29.3143 0.00101087 22.6541 0.000781178 19.2783 0.000664768
26.7039 0.000920849 21.4067 0.000738161 21.4891 0.000741004
24.0696 0.000830014 20.1492 0.0006948 23.6136 0.000814264
21.4454 0.000739524 18.9025 0.00065181 25.5973 0.000882664
18.8635 0.000650491 17.6857 0.000609852 27.3886 0.000944435
16.3528 0.000563915 16.5159 0.000569516 28.9406 0.000997952
13.938 0.000480649 15.4077 0.0005313 30.2116 0.00104178
11.6399 0.000401401 14.3722 0.000495595 31.1664 0.0010747
9.47496 0.00032675 13.4174 0.000462668 31.7768 0.00109575
7.45647 0.000257147 12.5469 0.000432651 32.0226 0.00110423
5.59353 0.000192907 11.7606 0.000405539 31.8919 0.00109972
3.89133 0.000134211 11.0544 0.000381187 31.3811 0.00108211
2.35104 8.10973e-05 10.4202 0.000359317 30.4945 0.00105153
0.96976 3.34669e-05 9.84655 0.000339536 29.2446 0.00100844
-0.25806 -8.87169e-06 9.31904 0.000321347 27.6513 0.000953492
-1.31903 -4.54569e-05 8.82043 0.000304153 25.7409 0.000887617
-2.01148 -6.93343e-05 8.29245 0.000285947 23.5495 0.000812052
-2.28182 -7.86564e-05 7.62184 0.000262823 21.1616 0.000729711
-2.51291 -8.6625e-05 7.06718 0.000243696 18.505 0.000638104
-2.66432 -9.18462e-05 6.4234 0.000221497 15.6972 0.000541281
-2.79998 -9.65242e-05 5.74802 0.000198208 12.7457 0.000439507
-2.91499 -0.00010049 5.02154 0.000173157 9.7026 0.000334572
-3.03389 -0.00010459 4.25263 0.000146643 6.60592 0.00022779
-3.20676 -0.000110551 3.42391 0.000118066 3.49639 0.000120565
-3.46569 -0.00011948 2.51774 8.68192e-05 0.417704 1.44036e-05
-3.82795 -0.000131971 1.52991 5.27559e-05 -2.52946 -8.72228e-05
-4.31681 -0.000148829 0.463688 1.59896e-05 -5.3684 -0.000185117
-4.95745 -0.00017092 -0.687724 -2.37142e-05 -8.07671 -0.000278507
-5.76506 -0.000198768 -1.94005 -6.68981e-05 -10.6231 -0.000366314
-6.74186 -0.000232451 -3.25674 -0.000112301 -12.9731 -0.000447347
-7.89409 -0.000272183 -4.65721 -0.000160593 -15.1131 -0.00052114
-9.22127 -0.000317948 -6.14409 -0.000211865 -17.0288 -0.000587199
-10.7186 -0.00036958 -7.70375 -0.000265646 -18.7112 -0.000645213
-12.3797 -0.000426861 -9.32837 -0.000321667 -20.1535 -0.000694948
-14.1967 -0.000489516 -11.0131 -0.000379762 -21.3552 -0.000736388
-16.1569 -0.000557106 -12.7494 -0.000439635 -22.322 -0.000769726
-18.2425 -0.000629025 -14.5226 -0.000500779 -23.065 -0.000795344
-20.432 -0.000704525 -16.3162 -0.000562627 -23.5992 -0.000813765
-22.6995 -0.000782714 -18.116 -0.00062469 -23.943 -0.000825622
-25.0151 -0.000862564 -19.9089 -0.000686515 -24.1176 -0.00083164
-27.347 -0.000942974 -21.68 -0.000747584 -24.1463 -0.000832633
-29.6621 -0.00102281 -23.4118 -0.000807304 -24.0555 -0.000829499
-31.9268 -0.0011009 -25.0872 -0.000865075 -23.873 -0.000823206
-34.1074 -0.00117609 -26.69 -0.000920343 -23.6276 -0.000814744
-36.1717 -0.00124727 -28.2046 -0.000972574 -23.3475 -0.000805086
-38.09 -0.00131342 -29.6155 -0.00102122 -23.0598 -0.000795165
-39.8353 -0.0013736 -30.9068 -0.00106575 -22.7903 -0.000785871
-41.3847 -0.00142703 -32.0637 -0.00110565 -22.563 -0.000778034
-42.7196 -0.00147306 -33.0734 -0.00114046 -22.3995 -0.000772397
-43.8268 -0.00151124 -33.9243 -0.0011698 -22.3178 -0.000769578
-44.6982 -0.00154129 -34.6066 -0.00119333 -22.3315 -0.00077005
-45.3311 -0.00156311 -35.1124 -0.00121077 -22.4499 -0.000774136
-45.7273 -0.00157678 -35.4368 -0.00122196 -22.6781 -0.000782002
-45.8926 -0.00158248 -35.578 -0.00122683 -23.0159 -0.00079365
-45.8364 -0.00158054 -35.5372 -0.00122542 -23.4583 -0.000808907
-45.5735 -0.00157147 -35.3186 -0.00121788 -23.9954 -0.000827429
-45.126 -0.00155604 -34.9298 -0.00120447 -24.6123 -0.000848701
-44.5175 -0.00153506 -34.3811 -0.00118556 -25.2899 -0.000872065
-43.7744 -0.00150943 -33.6858 -0.00116158 -26.0053 -0.000896735
-42.9271 -0.00148022 -32.8607 -0.00113313 -26.7322 -0.000921801
-42.0064 -0.00144847 -31.9252 -0.00110087 -27.4416 -0.000946263
-41.0419 -0.00141521 -30.9006 -0.00106554 -28.1029 -0.000969066
-40.063 -0.00138145 -29.8104 -0.00102794 -28.6847 -0.000989127
-39.0994 -0.00134823 -28.6788 -0.000988923 -29.1558 -0.00100537
-38.1808 -0.00131655 -27.5303 -0.000949321 -29.4864 -0.00101677
-37.3353 -0.0012874 -26.389 -0.000909965 -29.649 -0.00102238
-36.5895 -0.00126168 -25.2779 -0.000871653 -29.6192 -0.00102135
-35.9672 -0.00124022 -24.2189 -0.000835134 -29.3766 -0.00101299
-35.4886 -0.00122372 -23.2317 -0.000801092 -28.9057 -0.000996748
-35.1698 -0.00121272 -22.3336 -0.000770123 -28.1963 -0.000972286
-35.0233 -0.00120767 -21.539 -0.000742725 -27.2441 -0.000939452
-35.0584 -0.00120888 -20.8592 -0.000719284 -26.0511 -0.000898314
-35.2813 -0.00121657 -20.3019 -0.000700065 -24.6256 -0.000849158
-35.6696 -0.00122996 -19.8749 -0.000685341 -22.9818 -0.000792478
-36.0985 -0.00124475 -19.6292 -0.000676867 -21.1259 -0.000728479
-36.7972 -0.00126884 -19.4753 -0.000671562 -19.1052 -0.000658799
-37.6501 -0.00129825 -19.437 -0.00067024 -16.956 -0.000584688
-38.6649 -0.00133325 -19.5122 -0.000672835 -14.6982 -0.000506835
-39.8304 -0.00137343 -19.6728 -0.000678373 -12.3858 -0.000427097
-41.0866 -0.00141675 -19.9319 -0.000687307 -10.047 -0.000346447
-42.4038 -0.00146217 -20.2667 -0.000698852 -7.73486 -0.000266719
-43.6834 -0.0015063 -20.6835 -0.000713225 -5.49001 -0.000189311
-44.9223 -0.00154902 -21.1619 -0.000729722 -3.35715 -0.000115764
-46.0546 -0.00158806 -21.6853 -0.00074777 -1.37897 -4.75505e-05
-47.043 -0.00162215 -22.237 -0.000766792 0.452334 1.55977e-05
-47.8589 -0.00165028 -22.8066 -0.000786435 2.03062 7.00214e-05
-48.4582 -0.00167095 -23.3727 -0.000805955 3.32638 0.000114703
-48.8006 -0.00168275 -23.9163 -0.000824701 4.30532 0.000148459
-48.8624 -0.00168488 -24.4173 -0.000841977 4.94424 0.000170491
-48.6377 -0.00167714 -24.8578 -0.000857164 5.22069 0.000180024
-48.1182 -0.00165922 -25.2189 -0.000869616 5.11591 0.000176411
-47.3016 -0.00163106 -25.4823 -0.000878698 4.61912 0.00015928
-46.1971 -0.00159298 -25.6331 -0.000883899 3.73108 0.000128658
-44.8188 -0.00154545 -25.6596 -0.000884813 2.46226 8.49054e-05
-43.1828 -0.00148904 -25.5534 -0.00088115 0.830507 2.86382e-05
-41.3123 -0.00142454 -25.3124 -0.00087284 -1.14292 -3.94111e-05
-39.2394 -0.00135306 -24.9336 -0.000859778 -3.36769 -0.000116127
-37.0009 -0.00127587 -24.4203 -0.000842079 -5.85179 -0.000201786
-34.6366 -0.00119434 -23.7781 -0.000819936 -8.54083 -0.000294511
-32.186 -0.00110984 -23.02 -0.000793794 -11.3796 -0.0003924
-29.6874 -0.00102368 -22.1631 -0.000764246 -14.3111 -0.000493488
-27.1771 -0.000937114 -21.2276 -0.000731987 -17.275 -0.000595691
-24.6899 -0.000851351 -20.2358 -0.000697784 -20.2063 -0.000696769
-22.2586 -0.000767512 -19.2123 -0.000662493 -23.0372 -0.000794386
-19.9127 -0.00068662 -18.1837 -0.000627025 -25.7014 -0.000886256
-17.6789 -0.000609589 -17.1762 -0.000592282 -28.1372 -0.000970249
-15.5813 -0.000537258 -16.2137 -0.000559093 -30.2886 -0.00104443
-13.6424 -0.000470401 -15.3176 -0.000528194 -32.1053 -0.00110708
-11.8821 -0.0004097 -14.5061 -0.00050021 -33.5434 -0.00115667
-10.3154 -0.000355677 -13.7937 -0.000475644 -34.567 -0.00119196
-8.95136 -0.000308641 -13.1907 -0.00045485 -35.1497 -0.00121206
-7.7926 -0.000268683 -12.7024 -0.000438014 -35.2759 -0.00121641
-6.83585 -0.000235692 -12.3292 -0.000425143 -34.9407 -0.00120485
-6.07235 -0.000209364 -12.0661 -0.000416071 -34.149 -0.00117755
-5.48804 -0.000189216 -11.9034 -0.000410463 -32.9156 -0.00113502
-5.0638 -0.000174587 -11.8266 -0.000407814 -31.2651 -0.00107811
-4.77558 -0.000164648 -11.8166 -0.000407468 -29.2311 -0.00100797
-4.59428 -0.000158396 -11.8507 -0.000408645 -26.8555 -0.000926053
-4.486 -0.000154663 -11.9036 -0.00041047 -24.187 -0.000834033
-4.41244 -0.000152126 -11.948 -0.000412 -21.2791 -0.000733761
-4.33193 -0.00014935 -11.9553 -0.000412253 -18.1892 -0.000627215
-4.73546 -0.000163265 -11.7834 -0.000406324 -14.9957 -0.000517095
-5.02149 -0.000173128 -11.5028 -0.000396648 -11.7709 -0.000405894
-5.25269 -0.0001811 -11.1806 -0.000385536 -8.48571 -0.000292611
-5.32535 -0.000183606 -10.6797 -0.000368266 -5.27861 -0.000182021
-5.20119 -0.000179324 -10.0411 -0.000346244 -2.14631 -7.40108e-05
-4.87583 -0.000168105 -9.24268 -0.000318713 0.879024 3.03112e-05
-4.33076 -0.00014931 -8.29308 -0.000285968 3.74064 0.000128988
-3.55731 -0.000122639 -7.16395 -0.000247032 6.38696 0.00022024
-2.54743 -8.78156e-05 -5.84852 -0.000201673 8.78996 0.000303102
-1.28444 -4.42641e-05 -4.34962 -0.000149987 10.9325 0.000376984
0.207492 7.18184e-06 -2.67737 -9.23228e-05 12.7934 0.000441151
1.91762 6.61517e-05 -0.844119 -2.91074e-05 14.3673 0.000495424
3.83588 0.000132299 1.11793 3.85495e-05 15.6536 0.000539781
5.94081 0.000204882 3.23061 0.000111401 16.6676 0.000574746
8.19901 0.000282752 5.49637 0.00018953 17.4336 0.000601158
10.582 0.000364922 7.84842 0.000270635 17.9767 0.000619887
13.0515 0.00045008 10.2576 0.000353711 18.3242 0.000631869
15.5599 0.000536575 12.6968 0.000437819 18.5126 0.000638367
18.0393 0.000622072 15.1449 0.000522238 18.5799 0.000640687
20.4645 0.000705699 17.5601 0.000605522 18.5691 0.000640315
22.8053 0.000786417 19.9032 0.000686318 18.5222 0.000638695
25.0394 0.000863456 22.1361 0.000763313 18.4797 0.000637233
27.1498 0.000936227 24.2237 0.000835301 18.4823 0.000637322
29.1232 0.00100428 26.1338 0.000901165 18.5662 0.000640214
30.9489 0.00106723 27.8362 0.000959868 18.7626 0.000646985
32.6174 0.00112477 29.3064 0.00101057 19.0956 0.000658469
34.1137 0.00117636 30.5291 0.00105273 19.5825 0.000675258
35.1871 0.00121338 31.5368 0.00108748 20.2239 0.000697377
36.0639 0.00124361 32.2994 0.00111377 21.0148 0.000724648
36.688 0.00126513 32.7925 0.00113077 21.9805 0.000757947
37.0689 0.00127826 33.051 0.00113969 23.0817 0.000795919
37.2185 0.00128342 33.0696 0.00114033 24.315 0.00083845
37.1547 0.00128122 32.8688 0.00113341 25.6441 0.000884278
36.8972 0.00127234 32.463 0.00111941 27.0424 0.000932498
36.4698 0.00125761 31.8774 0.00109922 28.4744 0.000981876
35.909 0.00123827 31.1399 0.00107379 29.9003 0.00103105
35.251 0.00121558 30.2781 0.00104407 31.277 0.00107852
34.5306 0.00119074 29.3195 0.00101102 32.5604 0.00112277
33.7853 0.00116504 28.2943 0.000975665 33.708 0.00116234
33.0539 0.00113982 27.2344 0.000939117 34.6785 0.00119581
32.3723 0.00111631 26.1703 0.000902425 35.4332 0.00122183
31.7732 0.00109566 25.13 0.000866553 35.9368 0.0012392
31.2871 0.00107889 24.1394 0.000832393 36.1591 0.00124686
30.9407 0.00106695 23.2222 0.000800764 36.0763 0.00124401
30.7558 0.00106057 22.3993 0.000772388 35.6722 0.00123008
30.7472 0.00106028 21.6878 0.000747855 34.9376 0.00120475
30.9235 0.00106636 21.1007 0.00072761 33.8713 0.00116797
31.2865 0.00107887 20.6467 0.000711957 32.4799 0.00112
31.8321 0.00109769 20.3304 0.000701049 30.7788 0.00106134
32.5521 0.00112251 20.1516 0.000694883 28.7918 0.00099282
33.4196 0.00115243 20.1052 0.000693281 26.5505 0.000915533
34.389 0.00118585 20.196 0.000696415 24.0897 0.000830679
35.4346 0.00122191 20.4067 0.00070368 21.4532 0.000739766
36.5325 0.00125977 20.7133 0.000714253 18.6953 0.000644665
37.6707 0.00129902 21.1005 0.000727604 15.8668 0.00054713
38.8266 0.00133887 21.5437 0.000742885 13.0262 0.00044918
39.971 0.00137834 22.016 0.000759172 10.2318 0.000352821
41.0805 0.0014166 22.4909 0.000775548 7.54157 0.000260054
42.1342 0.00145293 22.9443 0.000791182 5.01097 0.000172792
43.1068 0.00148647 23.3537 0.000805302 2.69206 9.28297e-05
43.9695 0.00151622 23.6994 0.000817221 0.631829 2.17872e-05
44.6937 0.00154119 23.965 0.00082638 -1.07002 -3.68974e-05
45.2522 0.00156045 24.1374 0.000832324 -2.46667 -8.50575e-05
45.6205 0.00157315 24.2094 0.000834808 -3.51106 -0.000121071
45.7806 0.00157867 24.1764 0.000833671 -4.18842 -0.000144428
45.7194 0.00157656 24.0378 0.000828891 -4.48678 -0.000154717
45.4334 0.0015667 23.7951 0.000820522 -4.40523 -0.000151904
44.9236 0.00154912 23.4534 0.000808739 -3.95216 -0.000136281
44.1975 0.00152408 23.0203 0.000793804 -3.14378 -0.000108406
43.273 0.0014922 22.5066 0.000776089 -2.00274 -6.90601e-05
42.1772 0.00145441 21.9245 0.000756017 -0.56484 -1.94772e-05
40.9421 0.00141182 21.2869 0.000734031 1.15217 3.97301e-05
39.6005 0.00136556 20.6124 0.000710774 3.13839 0.00010822
38.1862 0.00131679 19.9206 0.000686918 5.31233 0.000183184
36.7303 0.00126659 19.233 0.000663208 7.62463 0.000262918
35.2625 0.00121597 18.5712 0.000640388 10.0208 0.000345544
33.8126 0.00116598 17.957 0.000619206 12.4472 0.000429215
32.4122 0.00111769 17.4108 0.000600371 14.8526 0.000512158
31.093 0.0010722 16.9515 0.000584536 17.1878 0.000592683
29.8856 0.00103056 16.5955 0.000572258 19.4063 0.000669182
28.8185 0.000993768 16.3559 0.000563996 21.4648 0.000740166
27.9175 0.0009627 16.243 0.000560104 23.3254 0.000804325
27.204 0.000938097 16.2641 0.00056083 24.9566 0.000860571
26.6929 0.000920472 16.4233 0.000566321 26.3335 0.000908051
26.3906 0.000910047 16.7219 0.000576618 27.438 0.000946139
26.2939 0.000906714 17.1582 0.000591661 28.2588 0.000974441
26.3902 0.000910034 17.7274 0.000611291 28.7914 0.000992807
26.6586 0.00091929 18.4219 0.000635239 29.0391 0.00100135
27.072 0.000933544 19.2301 0.000663107 29.0125 0.00100043
27.5965 0.000951631 20.1371 0.000694384 28.7292 0.000990661
28.1931 0.000972202 21.1247 0.000728437 28.213 0.000972861
28.8199 0.000993815 22.1708 0.000764509 27.4933 0.000948045
29.4346 0.00101501 23.2499 0.000801719 26.6047 0.000917402
29.9957 0.00103436 24.3334 0.000839082 25.5856 0.000882263
30.4634 0.00105049 25.3902 0.000875525 24.4775 0.000844053
30.8015 0.00106215 26.3873 0.000909908 23.3234 0.000804254
30.9785 0.00106825 27.2905 0.000941052 22.166 0.000764344
30.9679 0.00106788 28.0656 0.000967778 21.047 0.000725759
30.7472 0.00106027 28.6798 0.000988959 20.0052 0.000689833
30.2979 0.00104478 29.103 0.00100355 19.075 0.000657759
29.6045 0.00102087 29.3088 0.00101065 18.2855 0.000630534
28.6545 0.000988113 29.2754 0.0010095 17.6589 0.000608927
27.4397 0.000946224 28.9862 0.000999525 17.2101 0.000593452
25.9576 0.000895116 28.4304 0.000980358 16.9461 0.000584349
24.2116 0.000834911 27.6026 0.000951814 16.8657 0.000581574
22.212 0.000765957 26.5036 0.000913917 16.9592 0.0005848
19.9748 0.000688812 25.1399 0.000866894 17.2092 0.000593419
17.5216 0.000604222 23.5241 0.000811175 17.5901 0.000606557
15.0115 0.000517664 21.6473 0.000746458 18.0743 0.000623253
12.3448 0.000425711 19.5217 0.000673164 18.6386 0.000642709
9.51094 0.00032799 17.2956 0.000596401 19.1814 0.000661429
6.60598 0.000227819 14.8811 0.000513143 19.713 0.00067976
3.62444 0.000125008 12.3656 0.000426399 20.1541 0.000694968
0.64698 2.23366e-05 9.76774 0.000336819 20.4665 0.000705743
-2.23982 -7.72081e-05 7.13232 0.000245942 20.5953 0.000710182
-5.07164 -0.000174857 4.48576 0.000154682 20.4982 0.000706834
-7.75955 -0.000267544 1.89323 6.52841e-05 20.1327 0.000694231
-10.2511 -0.000353458 -0.632058 -2.17949e-05 19.448 0.00067062
-12.5268 -0.000431931 -3.06185 -0.000105581 18.4315 0.00063557
-14.5766 -0.000502613 -5.38587 -0.000185719 17.0524 0.000588013
-16.3516 -0.000563822 -7.56929 -0.00026101 15.2997 0.000527577
-17.834 -0.000614939 -9.5813 -0.00033039 13.1661 0.000454003
-19.0274 -0.000656091 -11.408 -0.000393378 10.6601 0.000367589
-19.9333 -0.000687328 -13.0419 -0.000449722 7.79458 0.000268779
-20.5524 -0.000708676 -14.4774 -0.000499219 4.59176 0.000158337
-20.9011 -0.0007207 -15.7107 -0.000541747 1.08483 3.74081e-05
-21.0062 -0.000724325 -16.7479 -0.000577513 -2.63288 -9.0789e-05
-20.8991 -0.000720631 -17.5918 -0.000606612 -6.52677 -0.000225061
-20.6146 -0.00071082 -18.2571 -0.000629553 -10.5739 -0.000364619
-20.1967 -0.000696411 -18.7581 -0.00064683 -14.7009 -0.000506929
-19.6945 -0.000679094 -19.1153 -0.000659149 -18.8406 -0.000649676
-19.1579 -0.000660591 -19.3519 -0.000667307 -22.9286 -0.000790642
-18.6362 -0.000642601 -19.4938 -0.000672199 -26.8989 -0.00092755
-18.1781 -0.000626805 -19.5691 -0.000674796 -30.6804 -0.00105795
-17.8256 -0.00061465 -19.6073 -0.000676115 -34.2003 -0.00117932
-17.6249 -0.00060773 -19.638 -0.000677171 -37.3911 -0.00128935
-17.6099 -0.00060721 -19.6913 -0.000679009 -40.1218 -0.00138351
-17.8352 -0.00061498 -19.6695 -0.000678258 -39.8693 -0.00137481
-18.345 -0.000632558 -19.5018 -0.000672476 -39.8317 -0.00137351
-19.0324 -0.000656263 -19.6819 -0.000678686 -39.997 -0.00137921
-20.0206 -0.000690337 -19.9064 -0.000686428 -40.1766 -0.0013854
-21.2441 -0.000732527 -20.4033 -0.000703562 -40.152 -0.00138455
-22.7147 -0.000783239 -21.1099 -0.000727926 -39.7975 -0.00137233
-24.453 -0.000843182 -21.9093 -0.000755493 -39.0194 -0.0013455
-26.433 -0.000911456 -22.8212 -0.000786939 -37.9239 -0.00130772
-28.6403 -0.00098757 -23.8465 -0.000822294 -36.5062 -0.00125884
-31.0571 -0.00107091 -24.9909 -0.000861754 -34.6227 -0.00119389
-33.6534 -0.00116043 -26.2325 -0.000904567 -32.2524 -0.00111215
-36.3941 -0.00125494 -27.5296 -0.000949297 -29.5376 -0.00101854
-39.2381 -0.00135301 -28.854 -0.000994964 -26.657 -0.000919208
-42.1427 -0.00145317 -30.1858 -0.00104089 -23.702 -0.00081731
-45.0605 -0.00155378 -31.505 -0.00108638 -20.6725 -0.000712844
-47.9411 -0.00165311 -32.7838 -0.00113048 -17.5735 -0.000605984
-50.7336 -0.00174941 -33.9923 -0.00117215 -14.4825 -0.000499398
-53.3882 -0.00184094 -35.1052 -0.00121052 -11.5245 -0.000397396
-55.8567 -0.00192607 -36.1024 -0.00124491 -8.80052 -0.000303466
-58.044 -0.00200149 -36.9664 -0.0012747 -6.35452 -0.000219122
-57.9717 -0.001999 -37.3742 -0.00128877 -4.29448 -0.000148086
-58.481 -0.00201656 -37.0502 -0.00127759 -2.80094 -9.65842e-05
-58.7535 -0.00202596 -37.4965 -0.00129298 -1.30962 -4.51595e-05
-58.7131 -0.00202456 -37.4229 -0.00129045 -0.284982 -9.82709e-06
-58.687 -0.00202366 -37.1557 -0.00128123 0.205732 7.09409e-06
-58.799 -0.00202752 -37.074 -0.00127841 0.497055 1.71397e-05
-58.4893 -0.00201685 -37.0775 -0.00127854 0.474462 1.63607e-05
-58.0546 -0.00200185 -36.8076 -0.00126923 0.0454781 1.56809e-06
-57.3009 -0.00197587 -36.4229 -0.00125596 -0.765832 -2.64081e-05
-56.3251 -0.00194222 -35.9625 -0.00124009 -1.894 -6.53106e-05
-55.0738 -0.00189907 -35.3907 -0.00122037 -3.3741 -0.000116349
-53.593 -0.00184801 -34.739 -0.0011979 -5.11882 -0.000176511
-51.9643 -0.00179185 -34.0112 -0.0011728 -7.09708 -0.000244727
-50.2115 -0.0017314 -33.2365 -0.00114609 -9.26268 -0.000319403
-48.3622 -0.00166764 -32.4386 -0.00111857 -11.5762 -0.00039918
-46.474 -0.00160252 -31.6425 -0.00109112 -13.9799 -0.000482065
-44.6028 -0.001538 -30.8661 -0.00106435 -16.4105 -0.000565879
-42.7884 -0.00147543 -30.1257 -0.00103882 -18.8115 -0.000648672
-41.0718 -0.00141624 -29.4451 -0.00101535 -21.1326 -0.000728712
-39.4998 -0.00136203 -28.8487 -0.000994784 -23.3264 -0.00080436
-38.1122 -0.00131419 -28.3535 -0.000977707 -25.3459 -0.000873996
-36.9404 -0.00127378 -27.9708 -0.000964509 -27.1467 -0.000936094
-36.0122 -0.00124177 -27.7123 -0.000955597 -28.6911 -0.000989348
-35.3515 -0.00121899 -27.5901 -0.000951384 -29.95 -0.00103276
-34.9744 -0.00120599 -27.6118 -0.000952131 -30.9031 -0.00106562
-34.8796 -0.00120272 -27.7806 -0.00095795 -31.5368 -0.00108748
-34.9787 -0.00120613 -28.1139 -0.000969444 -31.8399 -0.00109793
-35.278 -0.00121646 -28.6029 -0.000986305 -31.8121 -0.00109697
-35.7675 -0.00123333 -29.2329 -0.00100803 -31.4686 -0.00108512
-36.432 -0.00125625 -29.9937 -0.00103427 -30.8273 -0.00106301
-37.2519 -0.00128452 -30.8644 -0.00106429 -29.9177 -0.00103165
-38.2028 -0.00131731 -31.8208 -0.00109727 -28.773 -0.000992172
-39.2563 -0.00135364 -32.8355 -0.00113226 -27.4328 -0.000945958
-40.3798 -0.00139238 -33.8815 -0.00116833 -25.9411 -0.000894522
-41.5373 -0.00143229 -34.9308 -0.00120451 -24.3452 -0.000839491
-42.6911 -0.00147208 -35.9544 -0.00123981 -22.6936 -0.000782539
-43.8026 -0.00151041 -36.923 -0.00127321 -21.0349 -0.000725341
-44.8341 -0.00154598 -37.8087 -0.00130375 -19.4164 -0.000669531
-45.7501 -0.00157756 -38.586 -0.00133055 -17.8833 -0.000616666
-46.5183 -0.00160405 -39.232 -0.00135283 -16.4771 -0.000568175
-47.1114 -0.0016245 -39.7262 -0.00136987 -15.2342 -0.000525316
-47.5076 -0.00163817 -40.0512 -0.00138108 -14.1853 -0.000489148
-47.6916 -0.00164451 -40.1938 -0.00138599 -13.3546 -0.000460503
-47.6541 -0.00164322 -40.1451 -0.00138431 -12.7589 -0.000439961
-47.3913 -0.00163416 -39.9014 -0.00137591 -12.4072 -0.000427835
-46.9033 -0.00161733 -39.4638 -0.00136082 -12.3006 -0.000424158
-46.1937 -0.00159286 -38.8387 -0.00133926 -12.4319 -0.000428686
-45.2683 -0.00156095 -38.0375 -0.00131164 -12.7864 -0.000440909
-44.1357 -0.0015219 -37.0765 -0.0012785 -13.3421 -0.000460073
-42.8093 -0.00147616 -35.9755 -0.00124053 -14.071 -0.000485207
-41.3073 -0.00142436 -34.7568 -0.00119851 -14.9397 -0.000515161
-39.6526 -0.00136731 -33.4448 -0.00115327 -15.9106 -0.000548643
-37.8715 -0.00130589 -32.0652 -0.00110569 -16.9435 -0.000584258
-35.9925 -0.0012411 -30.6441 -0.00105669 -17.996 -0.000620551
-34.0451 -0.00117394 -29.2077 -0.00100716 -19.0255 -0.00065605
-32.0575 -0.0011054 -27.7813 -0.000957976 -19.9899 -0.000689307
-30.0567 -0.00103641 -26.3887 -0.000909956 -20.8492 -0.000718939
-28.0675 -0.000967816 -25.0515 -0.000863846 -21.5665 -0.000743672
-26.1144 -0.000900469 -23.788 -0.000820275 -22.1089 -0.000762378
-24.2228 -0.000835244 -22.6122 -0.000779729 -22.4491 -0.000774108
-22.4202 -0.000773082 -21.5335 -0.000742533 -22.5655 -0.000778122
-20.7341 -0.000714943 -20.5568 -0.000708856 -22.4429 -0.000773894
-19.19 -0.000661697 -19.6833 -0.000678735 -22.0725 -0.000761121
-17.8076 -0.000614027 -18.9109 -0.0006521 -21.4517 -0.000739714
-16.5991 -0.000572355 -18.235 -0.000628794 -20.584 -0.000709793
-15.5681 -0.000536803 -17.6492 -0.000608594 -19.4786 -0.000671675
-14.7099 -0.000507211 -17.1455 -0.000591223 -18.15 -0.000625864
-14.013 -0.000483178 -16.7143 -0.000576355 -16.6179 -0.000573033
-13.46 -0.00046411 -16.3449 -0.000563616 -14.9063 -0.000514009
-13.0289 -0.000449247 -16.0253 -0.000552596 -13.0429 -0.000449755
-12.6939 -0.000437694 -15.7428 -0.000542854 -11.0588 -0.000381339
-12.4264 -0.00042847 -15.4839 -0.000533927 -8.98754 -0.000309915
-12.1972 -0.000420566 -15.2345 -0.000525327 -6.86424 -0.000236698
-11.9769 -0.000412971 -14.9803 -0.000516562 -4.72498 -0.000162931
-11.7355 -0.000404647 -14.7073 -0.000507149 -2.60577 -8.98543e-05
-11.4416 -0.00039451 -14.4025 -0.000496639 -0.541637 -1.86772e-05
-11.0611 -0.00038139 -14.0615 -0.000484879 1.18181 4.07521e-05
-10.5577 -0.000364032 -13.7026 -0.000472505 2.82366 9.73676e-05
-9.91649 -0.000341921 -13.2573 -0.000457149 4.31897 0.00014893
-9.1057 -0.000313963 -12.747 -0.00043955 5.69091 0.000196238
-8.25983 -0.000284795 -12.118 -0.000417864 6.87443 0.000237049
-7.66679 -0.000264345 -11.2088 -0.00038651 7.82023 0.000269663
-6.67593 -0.000230177 -10.4158 -0.000359164 8.64209 0.000298003
-5.63608 -0.000194321 -9.44356 -0.00032564 9.28282 0.000320097
-4.36099 -0.000150352 -8.40021 -0.000289662 9.74394 0.000335998
-2.91243 -0.000100402 -7.26928 -0.000250665 10.0362 0.000346077
-1.33963 -4.61673e-05 -6.08178 -0.000209716 10.1544 0.000350153
0.153247 5.31131e-06 -4.87608 -0.00016814 10.1284 0.000349254
1.82738 6.304e-05 -3.67914 -0.000126867 9.9824 0.000344221
3.53692 0.00012199 -2.36162 -8.14349e-05 9.66974 0.000333439
5.26284 0.000181504 -1.09108 -3.76233e-05 9.27936 0.000319978
7.01269 0.000241844 0.20617 7.10946e-06 8.78685 0.000302995
8.79037 0.000303143 1.50806 5.20022e-05 8.23314 0.000283901
10.5456 0.000363667 2.80643 9.67734e-05 7.65799 0.000264068
12.2469 0.000422332 4.06997 0.000140344 7.08782 0.000244407
13.8941 0.000479134 5.28186 0.000182133 6.54818 0.000225799
15.4691 0.000533443 6.43168 0.000221782 6.06302 0.000209069
16.9424 0.000584249 7.50927 0.000258941 5.66028 0.000195182
18.2976 0.000630979 8.50653 0.000293329 5.36234 0.000184908
19.5279 0.000673402 9.41237 0.000324565 5.18706 0.000178864
20.6225 0.000711148 10.2161 0.00035228 5.14889 0.000177548
21.571 0.000743853 10.9122 0.000376281 5.25898 0.000181344
22.3706 0.000771426 11.5 0.000396552 5.52385 0.000190478
23.0232 0.000793932 11.9797 0.000413094 5.9451 0.000205003
23.5314 0.000811456 12.3508 0.000425889 6.52 0.000224828
23.9005 0.000824182 12.6156 0.000435021 7.24162 0.000249711
24.141 0.000832476 12.7808 0.000440718 8.09866 0.000279264
24.2671 0.000836823 12.8555 0.000443293 9.07566 0.000312954
24.2952 0.000837791 12.8493 0.000443081 10.1273 0.000349218
24.246 0.000836097 12.7621 0.000440072 11.1105 0.000383119
24.1436 0.000832566 12.6002 0.000434489 12.1543 0.000419113
24.0021 0.000827686 12.4089 0.000427892 13.2165 0.000455742
23.8535 0.000822562 12.1842 0.000420145 14.2792 0.000492385
23.7156 0.000817807 11.9546 0.000412229 15.3086 0.000527882
23.6139 0.000814301 11.7291 0.000404452 16.2955 0.000561913
23.5707 0.000812811 11.5255 0.000397432 17.225 0.000593967
23.6079 0.000814091 11.3615 0.000391777 18.075 0.000623274
23.7452 0.000818826 11.2532 0.000388042 18.8194 0.000648943
23.9993 0.000827588 11.2152 0.000386731 19.4371 0.000670244
24.383 0.000840821 11.2598 0.000388269 19.9172 0.0006868
24.9045 0.000858802 11.3987 0.00039306 20.2546 0.000698436
25.567 0.000881647 11.6423 0.000401457 20.4447 0.00070499
26.3697 0.000909326 11.998 0.000413726 20.4781 0.00070614
27.3083 0.000941693 12.4689 0.000429962 20.332 0.000701105
28.3755 0.000978493 13.0538 0.00045013 20.0129 0.000690099
29.5599 0.00101933 13.7521 0.00047421 19.5357 0.000673644
30.8483 0.00106376 14.5579 0.000501997 18.9201 0.000652416
32.2248 0.00111123 15.4636 0.000533226 18.1858 0.000627096
33.6718 0.00116112 16.4572 0.00056749 17.3569 0.000598514
35.1704 0.0012128 17.5243 0.000604287 16.4632 0.000567696
36.7008 0.00126557 18.6483 0.000643044 15.5387 0.000535818
38.2385 0.00131859 19.8122 0.000683178 14.6187 0.000504094
39.7397 0.00137036 21.0058 0.000724338 13.7347 0.00047361
41.2006 0.00142074 22.1991 0.000765485 12.9223 0.000445596
42.6023 0.00146907 23.373 0.000805966 12.215 0.000421208
43.9321 0.00151493 24.5081 0.000845107 11.6437 0.000401507
45.1739 0.00155775 25.5858 0.000882268 11.238 0.000387515
46.3119 0.00159699 26.5894 0.000916876 11.0213 0.000380045
47.3325 0.00163218 27.5051 0.000948452 11.0127 0.000379747
48.232 0.0016632 28.3204 0.000976567 11.2258 0.000387095
48.873 0.0016853 29.0529 0.00100182 11.6655 0.000402257
49.3618 0.00170216 29.6973 0.00102405 12.3213 0.000424874
49.6756 0.00171298 30.213 0.00104183 13.222 0.000455931
49.8042 0.00171741 30.6338 0.00105634 14.3332 0.000494249
49.7542 0.00171569 30.9416 0.00106695 15.6569 0.000539893
49.5327 0.00170805 31.1445 0.00107395 17.1648 0.000591889
49.148 0.00169479 31.2425 0.00107733 18.8392 0.000649628
48.6138 0.00167636 31.2481 0.00107752 20.6059 0.000710549
47.9543 0.00165363 31.1464 0.00107401 22.2086 0.000765813
47.1942 0.00162741 30.9576 0.0010675 23.9051 0.000824315
46.3451 0.00159813 30.7262 0.00105952 25.6402 0.000884144
45.4425 0.00156701 30.4427 0.00104975 27.3615 0.000943501
44.5014 0.00153456 30.14 0.00103931 29.0281 0.00100097
43.5521 0.00150183 29.8194 0.00102825 30.6313 0.00105625
42.6177 0.0014696 29.4982 0.00101718 32.1516 0.00110868
41.7221 0.00143872 29.1895 0.00100653 33.558 0.00115717
40.8864 0.0014099 28.9064 0.000996774 34.8115 0.0012004
40.1223 0.00138355 28.6601 0.000988279 35.8818 0.0012373
39.3888 0.00135826 28.4683 0.000981664 36.7521 0.00126731
38.6932 0.00133428 28.3367 0.000977127 37.4135 0.00129012
38.0335 0.00131153 28.2655 0.000974673 37.8607 0.00130554
37.4049 0.00128985 28.2569 0.000974374 38.0821 0.00131318
36.8032 0.0012691 28.3044 0.000976014 38.0592 0.00131238
36.2271 0.00124924 28.3935 0.000979085 37.7714 0.00130246
35.6757 0.00123022 28.508 0.000983033 37.2342 0.00128394
35.1449 0.00121192 28.6319 0.000987305 36.4702 0.00125759
34.6275 0.00119408 28.7465 0.00099126 35.4983 0.00122408
34.1115 0.00117629 28.8332 0.000994248 34.3375 0.00118405
33.5822 0.00115803 28.8708 0.000995544 33.0137 0.0011384
33.0238 0.00113878 28.8384 0.000994428 31.5587 0.00108823
32.421 0.00111799 28.7161 0.000990209 30.0063 0.0010347
31.758 0.00109513 28.4856 0.000982262 28.3868 0.000978856
31.0173 0.00106959 28.1308 0.000970028 26.7268 0.000921612
30.1804 0.00104073 27.6379 0.000953032 25.0508 0.000863821
29.2313 0.001008 26.9956 0.000930883 23.3836 0.000806331
28.1585 0.00097101 26.1952 0.000903282 21.7483 0.00074994
26.9561 0.000929546 25.2309 0.000870032 20.1636 0.000695295
25.6228 0.000883572 24.1002 0.000831042 18.6427 0.00064285
24.1611 0.000833169 22.8038 0.000786339 17.1936 0.000592883
22.5755 0.000778494 21.3465 0.000736088 15.8208 0.000545545
20.8719 0.000719747 19.7371 0.000680591 14.5251 0.000500865
19.0564 0.000657144 17.9884 0.00062029 13.303 0.000458725
17.136 0.000590922 16.1166 0.000555744 12.1464 0.000418842
15.119 0.000521374 14.1406 0.000487607 11.0431 0.000380797
13.0162 0.000448862 12.0816 0.000416608 9.97822 0.000344077
10.8409 0.000373852 9.96192 0.000343515 8.93546 0.000308119
8.61009 0.000296927 7.80418 0.00026911 7.8977 0.000272334
6.34381 0.000218779 5.63083 0.000194167 6.84726 0.000236112
4.06395 0.000140164 3.46375 0.00011944 5.76642 0.000198842
1.79283 6.18489e-05 1.32392 4.56524e-05 4.63831 0.000159942
-0.355491 -1.22311e-05 -0.750882 -2.58923e-05 3.44389 0.000118755
-2.33061 -8.03387e-05 -2.69341 -9.2876e-05 2.15019 7.41444e-05
-4.27303 -0.000147319 -4.5902 -0.000158282 0.770587 2.65718e-05
-6.12818 -0.000211289 -6.41242 -0.000221118 -0.525125 -1.81079e-05
-7.53549 -0.000259817 -8.17111 -0.000281762 -1.84023 -6.34565e-05
-8.8958 -0.000306725 -9.80458 -0.000338089 -3.18819 -0.000109938
-10.0855 -0.000347749 -11.3011 -0.000389691 -4.65978 -0.000160682
-11.139 -0.000384078 -12.7036 -0.000438055 -6.16289 -0.000212514
-12.0252 -0.000414636 -13.9632 -0.000481491 -7.73403 -0.000266691
-12.7593 -0.00043995 -15.0808 -0.000520028 -9.35194 -0.000322481
-13.3521 -0.000460391 -16.0486 -0.000553401 -11.0264 -0.000380222
-13.8047 -0.000475997 -16.8758 -0.000581926 -12.7377 -0.000439232
-14.1261 -0.000487079 -17.5683 -0.000605803 -14.4581 -0.000498556
-14.337 -0.000494352 -18.127 -0.000625069 -16.1599 -0.00055724
-14.4568 -0.000498485 -18.5543 -0.000639804 -17.8249 -0.000614653
-14.5034 -0.000500091 -18.858 -0.000650276 -19.4392 -0.000670317
-14.4984 -0.000499919 -19.0519 -0.000656963 -20.9817 -0.000723507
-14.4667 -0.000498823 -19.1496 -0.000660332 -22.4233 -0.000773216
-14.4314 -0.000497608 -19.1628 -0.000660786 -23.7337 -0.000818403
-14.4149 -0.000497039 -19.1041 -0.000658763 -24.8888 -0.000858235
-14.4401 -0.000497906 -18.9894 -0.000654806 -25.8704 -0.000892082
-14.5291 -0.000500977 -18.8357 -0.000649506 -26.661 -0.000919346
-14.702 -0.000506938 -18.659 -0.000643412 -27.2419 -0.000939377
-14.9756 -0.000516374 -18.4739 -0.000637032 -27.5949 -0.000951548
-15.364 -0.000529767 -18.2953 -0.000630874 -27.7066 -0.000955401
-15.8777 -0.000547481 -18.1366 -0.0006254 -27.535 -0.000949483
-16.5239 -0.000569761 -18.0063 -0.000620905 -27.0763 -0.000933666
-17.3044 -0.000596675 -17.9173 -0.000617839 -26.3301 -0.000907936
-18.219 -0.000628215 -17.8777 -0.000616471 -25.3041 -0.000872556
-19.2643 -0.000664259 -17.8947 -0.00061706 -24.0068 -0.000827819
-20.4335 -0.000704578 -17.973 -0.000619758 -22.4553 -0.000774321
-21.7179 -0.000748866 -18.1137 -0.000624609 -20.6761 -0.000712971
-23.1062 -0.000796737 -18.3154 -0.000631566 -18.7013 -0.000644874
-24.5851 -0.000847733 -18.5747 -0.000640506 -16.5656 -0.000571226
-26.139 -0.000901317 -18.8863 -0.000651252 -14.305 -0.000493277
-27.7501 -0.000956874 -19.2435 -0.000663569 -11.9591 -0.000412383
-29.3987 -0.00101372 -19.6381 -0.000677175 -9.57092 -0.000330032
-31.0631 -0.00107112 -20.061 -0.000691758 -7.18602 -0.000247794
-32.7208 -0.00112828 -20.5029 -0.000706997 -4.84985 -0.000167236
-34.3488 -0.00118441 -20.9547 -0.000722577 -2.60604 -8.98636e-05
-35.9244 -0.00123875 -21.4074 -0.000738186 -0.496128 -1.71081e-05
-37.4245 -0.00129047 -21.8623 -0.000753874 1.24509 4.29338e-05
-38.8258 -0.00133879 -22.325 -0.000769828 2.83656 9.78121e-05
-40.1232 -0.00138353 -22.7477 -0.000784403 4.19666 0.000144712
-41.2918 -0.00142383 -23.1487 -0.00079823 5.31867 0.000183402
-42.3266 -0.00145951 -23.5061 -0.000810554 6.15848 0.000212361
-43.217 -0.00149021 -23.8274 -0.000821633 6.71343 0.000231497
-43.959 -0.0015158 -24.1133 -0.000831492 6.98459 0.000240848
-44.5522 -0.00153626 -24.3642 -0.000840146 6.95743 0.000239911
-44.9984 -0.00155164 -24.5855 -0.000847774 6.60271 0.000227679
-45.3035 -0.00156216 -24.7817 -0.000854541 5.91742 0.000204049
-45.4767 -0.00156813 -24.9603 -0.000860699 4.91521 0.00016949
-45.529 -0.00156994 -25.1308 -0.000866578 3.61778 0.000124751
-45.4753 -0.00156809 -25.3013 -0.00087246 2.05016 7.06948e-05
-45.3304 -0.00156309 -25.482 -0.000878688 0.24314 8.38389e-06
-45.1149 -0.00155566 -25.6745 -0.000885329 -1.59874 -5.51291e-05
-44.8507 -0.00154655 -25.8851 -0.000892589 -3.6272 -0.000125076
-44.5573 -0.00153643 -26.1464 -0.000901601 -5.78571 -0.000199508
-44.265 -0.00152635 -26.4551 -0.000912245 -8.03627 -0.000277113
-43.9917 -0.00151693 -26.8311 -0.00092521 -10.3395 -0.000356536
-43.5613 -0.00150209 -27.3013 -0.000941423 -12.674 -0.000437034
-43.0959 -0.00148604 -27.9005 -0.000962088 -14.9948 -0.000517064
-42.7882 -0.00147543 -28.5275 -0.000983707 -17.3086 -0.000596849
-42.5679 -0.00146783 -29.2607 -0.00100899 -19.5598 -0.000674477
-42.4667 -0.00146434 -30.0704 -0.00103691 -21.7247 -0.000749126
-42.5001 -0.00146549 -30.9596 -0.00106757 -23.7806 -0.000820022
-42.6735 -0.00147147 -31.9219 -0.00110076 -25.7106 -0.000886573
-42.9846 -0.0014822 -32.9526 -0.0011363 -27.5057 -0.000948472
-43.4324 -0.00149764 -34.0514 -0.00117418 -29.149 -0.00100514
-43.9957 -0.00151707 -35.2089 -0.0012141 -30.6278 -0.00105613
-44.654 -0.00153977 -36.4166 -0.00125574 -31.9337 -0.00110116
-45.4698 -0.0015679 -37.6293 -0.00129756 -33.0751 -0.00114052
-46.3164 -0.00159709 -38.8769 -0.00134058 -34.0512 -0.00117418
-47.2593 -0.0016296 -40.1392 -0.00138411 -34.8548 -0.00120189
-48.2382 -0.00166336 -41.4102 -0.00142794 -35.501 -0.00122417
-49.2382 -0.00169784 -42.6699 -0.00147138 -35.9904 -0.00124105
-50.236 -0.00173225 -43.9029 -0.00151389 -36.3431 -0.00125321
-51.2161 -0.00176605 -45.0998 -0.00155516 -36.5682 -0.00126097
-52.1548 -0.00179842 -46.2419 -0.00159455 -36.6838 -0.00126496
-53.0281 -0.00182853 -47.3104 -0.00163139 -36.7043 -0.00126567
-53.8205 -0.00185585 -48.2873 -0.00166508 -36.6435 -0.00126357
-54.5198 -0.00187997 -49.1572 -0.00169508 -36.5197 -0.0012593
-55.112 -0.00190039 -49.9049 -0.00172086 -36.3513 -0.00125349
-55.5854 -0.00191671 -50.5148 -0.00174189 -36.1547 -0.00124672
-55.9324 -0.00192868 -50.974 -0.00175772 -35.944 -0.00123945
-56.148 -0.00193611 -51.2724 -0.00176801 -35.731 -0.0012321
-56.2276 -0.00193886 -51.4025 -0.0017725 -35.5252 -0.00122501
-56.1617 -0.00193658 -51.3576 -0.00177095 -35.3338 -0.00121841
-55.9579 -0.00192956 -51.1339 -0.00176324 -35.1601 -0.00121242
-55.6215 -0.00191795 -50.7351 -0.00174949 -35.0017 -0.00120696
-55.159 -0.00190201 -50.165 -0.00172983 -34.8544 -0.00120188
-54.5794 -0.00188202 -49.4337 -0.00170461 -34.7096 -0.00119688
-53.89 -0.00185825 -48.5546 -0.0016743 -34.5555 -0.00119157
-53.0948 -0.00183083 -47.544 -0.00163945 -34.3781 -0.00118545
-52.1984 -0.00179992 -46.4204 -0.0016007 -34.1611 -0.00117797
-51.2081 -0.00176577 -45.2041 -0.00155876 -33.8869 -0.00116852
-50.1337 -0.00172872 -43.9154 -0.00151432 -33.5381 -0.00115649
-48.9881 -0.00168922 -42.5743 -0.00146808 -33.0975 -0.00114129
-47.787 -0.0016478 -41.1997 -0.00142068 -32.5495 -0.0011224
-46.5472 -0.00160505 -39.8095 -0.00137274 -31.8801 -0.00109931
-45.2843 -0.0015615 -38.4202 -0.00132484 -31.0775 -0.00107164
-44.0125 -0.00151764 -37.0466 -0.00127747 -30.1328 -0.00103906
-42.7435 -0.00147389 -35.7014 -0.00123108 -29.0404 -0.00100139
-41.4864 -0.00143054 -34.3956 -0.00118605 -27.7981 -0.000958555
-40.247 -0.0013878 -33.1374 -0.00114267 -26.4075 -0.000910605
-39.028 -0.00134577 -31.933 -0.00110114 -24.8741 -0.000857729
-37.8293 -0.00130443 -30.7858 -0.00106158 -23.2071 -0.000800247
-36.6479 -0.00126369 -29.6966 -0.00102402 -21.4195 -0.000738605
-35.4783 -0.00122336 -28.6637 -0.000988404 -19.5279 -0.000673374
-34.3124 -0.00118316 -27.6831 -0.000954591 -17.5517 -0.000605232
-33.1407 -0.00114275 -26.7486 -0.000922364 -15.5135 -0.000534949
-31.952 -0.00110177 -25.8517 -0.000891438 -13.4378 -0.000463372
-30.7351 -0.0010598 -24.9826 -0.000861469 -11.3506 -0.000391401
-29.4788 -0.00101648 -24.1299 -0.000832065 -9.27914 -0.00031997
-28.1735 -0.000971472 -23.2811 -0.000802797 -7.25057 -0.00025002
-26.4606 -0.000912406 -22.206 -0.000765725 -4.81582 -0.000166063
-24.6466 -0.000849855 -21.092 -0.000727311 -2.53882 -8.75457e-05
-22.7217 -0.000783479 -19.9168 -0.000686785 -0.462891 -1.5962e-05
-20.6721 -0.000712803 -18.6747 -0.000643957 1.17321 4.04552e-05
-18.4816 -0.00063727 -17.3608 -0.000598648 2.56479 8.84406e-05
-16.1402 -0.000556532 -15.9436 -0.000549779 3.72335 0.000128391
-13.6333 -0.000470088 -14.4251 -0.000497416 4.63263 0.000159746
-10.9608 -0.000377933 -12.8087 -0.000441678 5.28474 0.000182232
-8.13116 -0.000280358 -11.1093 -0.000383078 5.72066 0.000197264
-5.15945 -0.000177885 -9.33933 -0.000322046 5.96671 0.000205748
-2.59938 -8.96067e-05 -7.38709 -0.000254727 6.01376 0.000207371
-0.090905 -3.10753e-06 -5.42079 -0.000186924 5.87464 0.000202574
2.34094 8.07493e-05 -3.59572 -0.00012399 5.70058 0.000196572
4.76225 0.000164243 -1.69473 -5.84387e-05 5.43394 0.000187377
7.11624 0.000245415 0.0768486 2.65011e-06 5.18492 0.00017879
9.39003 0.000323821 1.76654 6.09153e-05 4.94953 0.000170673
11.6008 0.000400055 3.3754 0.000116393 4.79903 0.000165483
13.6602 0.00047107 4.86228 0.000167665 4.76375 0.000164267
15.5538 0.000536364 6.2 0.000213793 4.87601 0.000168138
17.2839 0.000596025 7.39637 0.000255047 5.15451 0.000177741
18.8152 0.000648827 8.45189 0.000291445 5.61653 0.000193673
20.1442 0.000694657 9.36317 0.000322868 6.24032 0.000215183
21.2829 0.000733919 10.1209 0.000348996 6.93766 0.000239229
22.2318 0.00076664 10.7478 0.000370615 7.79173 0.00026868
23.0103 0.000793485 11.2581 0.00038821 8.77734 0.000302666
23.6448 0.000815365 11.6677 0.000402336 9.86569 0.000340196
24.1609 0.000833161 11.9899 0.000413443 11.0406 0.000380709
24.588 0.000847891 12.2491 0.000422384 12.2755 0.000423293
24.9592 0.000860691 12.47 0.000429999 13.5331 0.000466657
25.3056 0.000872634 12.6743 0.000437046 14.7758 0.000509509
25.6589 0.000884817 12.8844 0.000444289 15.9742 0.000550833
26.0503 0.000898314 13.1234 0.000452531 17.0998 0.000589646
26.5084 0.00091411 13.4117 0.000462473 18.1228 0.000624925
27.059 0.000933097 13.766 0.00047469 19.0161 0.000655726
27.7243 0.000956039 14.2002 0.000489662 19.7605 0.000681395
28.5217 0.000983534 14.7251 0.000507761 20.3446 0.000701536
29.4631 0.001016 15.3473 0.000529216 20.7611 0.000715901
30.5533 0.00105359 16.0698 0.000554131 21.0079 0.000724409
31.7881 0.00109617 16.8927 0.000582507 21.0899 0.000727236
33.1554 0.00114332 17.8117 0.000614196 21.0003 0.000724148
34.6368 0.0011944 18.8176 0.000648882 20.756 0.000715725
36.2076 0.00124857 19.9008 0.000686234 20.3846 0.000702917
37.8398 0.00130485 21.0476 0.000725779 19.9177 0.000686817
39.502 0.00136217 22.2415 0.00076695 19.392 0.000668691
41.1625 0.00141943 23.4628 0.000809062 18.8499 0.000649998
42.7908 0.00147558 24.6893 0.000851357 18.3354 0.000632256
44.3591 0.00152966 25.8983 0.000893046 17.8903 0.000616907
45.8424 0.00158082 27.0667 0.000933336 17.5538 0.000605304
47.2189 0.00162829 28.1729 0.00097148 17.3621 0.000598692
48.4688 0.00167139 29.198 0.00100683 17.3461 0.000598142
49.5758 0.00170957 30.1271 0.00103887 17.529 0.000604449
50.5263 0.00174235 30.9497 0.00106723 17.9251 0.000618105
51.3106 0.0017694 31.6601 0.00109173 18.5398 0.000639304
51.9238 0.00179054 32.2573 0.00111232 19.3705 0.000667946
52.3663 0.0018058 32.7446 0.00112913 20.4052 0.000703628
52.6445 0.0018154 33.1274 0.00114233 21.5032 0.000741489
52.7734 0.00181984 33.3914 0.00115143 22.7108 0.000783132
52.7595 0.00181936 33.5859 0.00115814 23.9927 0.000827336
52.6224 0.00181464 33.7096 0.0011624 25.3517 0.000874198
52.3749 0.0018061 33.7842 0.00116498 26.7386 0.000922022
52.0444 0.00179471 33.8228 0.00116631 28.1398 0.000970337
51.6087 0.00177968 33.8437 0.00116703 29.5222 0.001018
51.0168 0.00175927 33.8977 0.00116889 30.8283 0.00106305
50.5132 0.00174191 33.9193 0.00116963 32.0444 0.00110498
50.0478 0.00172586 33.9606 0.00117106 33.1342 0.00114256
49.5473 0.0017086 34.0288 0.00117341 34.083 0.00117527
48.9678 0.00168861 34.1432 0.00117735 34.8535 0.00120184
48.3175 0.00166619 34.2893 0.00118239 35.4389 0.00122203
47.5998 0.00164144 34.4657 0.00118847 35.8319 0.00123558
46.8183 0.0016145 34.6525 0.00119492 36.0355 0.0012426
45.9709 0.00158528 34.8225 0.00120078 36.0499 0.0012431
45.0599 0.00155386 34.9473 0.00120508 35.8665 0.00123678
44.0875 0.00152033 34.9994 0.00120688 35.5019 0.0012242
43.0544 0.0014847 34.9473 0.00120508 34.9798 0.0012062
41.9588 0.00144693 34.7621 0.00119869 34.3205 0.00118347
40.7939 0.00140676 34.4203 0.00118691 33.5459 0.00115676
39.5456 0.00136371 33.9043 0.00116912 32.6773 0.0011268
38.1929 0.00131707 33.2017 0.00114489 31.7322 0.00109421
36.7117 0.00126599 32.3067 0.00111403 30.7225 0.00105939
35.0815 0.00120978 31.219 0.00107652 29.6563 0.00102263
33.2911 0.00114804 29.9419 0.00103248 28.5389 0.000984099
31.3395 0.00108074 28.4813 0.000982117 27.3724 0.000943875
29.2322 0.00100808 26.8469 0.000925759 26.1546 0.000901882
26.9768 0.000930304 25.0527 0.000863888 24.8796 0.000857917
24.5824 0.000847739 23.1155 0.00079709 23.539 0.00081169
22.0602 0.000760769 21.0548 0.00072603 22.123 0.000762862
19.4227 0.000669818 18.8917 0.000651439 20.6206 0.000711055
16.6808 0.000575269 16.6486 0.000574091 19.0205 0.000655878
13.8421 0.000477385 14.3483 0.000494771 17.3122 0.000596973
10.9124 0.000376361 12.0125 0.000414228 15.4878 0.000534062
7.9013 0.000272529 9.65987 0.000333101 13.5425 0.000466984
4.82687 0.000166515 7.30414 0.000251869 11.476 0.000395724
1.7132 5.91467e-05 4.95484 0.000170859 9.29216 0.000320419
-0.641058 -2.20345e-05 2.50928 8.65296e-05 7.01674 0.000241956
-2.6959 -9.2891e-05 0.120028 4.14149e-06 4.64561 0.000160193
-4.67056 -0.000160983 -2.25161 -7.76393e-05 2.1638 7.46136e-05
-6.54565 -0.000225641 -4.54176 -0.00015661 -0.278507 -9.60393e-06
-8.33148 -0.000287221 -6.74483 -0.000232578 -2.52679 -8.71308e-05
-10.0056 -0.000344949 -8.84974 -0.000305161 -4.81951 -0.00016619
-11.5312 -0.000397557 -10.8342 -0.000373592 -7.16247 -0.000246982
-12.9195 -0.00044543 -12.7317 -0.000439022 -9.47859 -0.000326848
-14.1664 -0.000488427 -14.5072 -0.000500244 -11.7817 -0.000406265
-15.2634 -0.000526252 -16.1456 -0.000556741 -14.0737 -0.0004853
-16.2237 -0.000559367 -17.6503 -0.000608629 -16.3202 -0.000562766
-17.0566 -0.000588088 -19.0233 -0.000655973 -18.4704 -0.000636912
-17.7705 -0.000612706 -20.2535 -0.000698395 -20.4993 -0.000706874
-18.3809 -0.000633753 -21.3363 -0.00073573 -22.3986 -0.000772365
-18.9024 -0.000651735 -22.2752 -0.000768108 -24.1444 -0.000832567
-19.3509 -0.000667203 -23.0725 -0.000795601 -25.7003 -0.000886216
-19.7463 -0.000680835 -23.7279 -0.000818202 -27.0362 -0.000932284
-20.1076 -0.000693294 -24.2441 -0.000836 -28.1391 -0.000970315
-20.4519 -0.000705166 -24.6276 -0.000849226 -28.9957 -0.000999851
-20.7935 -0.000716946 -24.8862 -0.000858142 -29.5863 -0.00102022
-21.1427 -0.000728989 -25.028 -0.000863031 -29.8935 -0.00103081
-21.5073 -0.000741559 -25.0625 -0.000864221 -29.902 -0.0010311
-21.8955 -0.000754948 -24.9956 -0.000861915 -29.5803 -0.00102001
-22.3156 -0.000769433 -24.8355 -0.000856395 -28.9299 -0.000997583
-22.7743 -0.000785252 -24.5907 -0.000847954 -27.9581 -0.000964073
-23.2753 -0.000802526 -24.271 -0.000836928 -26.6764 -0.000919878
-23.8164 -0.000821183 -23.8854 -0.000823633 -25.1077 -0.000865784
-24.3904 -0.000840978 -23.4428 -0.000808371 -23.2825 -0.000802844
-24.9871 -0.000861553 -22.952 -0.000791445 -21.2335 -0.000732189
-25.5937 -0.000882471 -22.4213 -0.000773144 -18.996 -0.000655035
-26.1955 -0.000903222 -21.8578 -0.000753714 -16.611 -0.000572794
-26.7752 -0.000923211 -21.2675 -0.000733359 -14.1248 -0.000487062
-27.3138 -0.000941786 -20.6554 -0.000712254 -11.5852 -0.000399488
-27.7918 -0.000958266 -20.0257 -0.000690537 -9.03968 -0.000311713
-28.1895 -0.000971981 -19.3809 -0.000668306 -6.53618 -0.000225386
-28.4841 -0.000982139 -18.724 -0.000645653 -4.12255 -0.000142157
-28.588 -0.000985724 -18.075 -0.000623274 -1.83971 -6.34388e-05
-28.488 -0.000982274 -17.415 -0.000600516 0.187591 6.46824e-06
-28.1823 -0.000971732 -16.7693 -0.00057825 1.90098 6.55505e-05
-27.692 -0.000954825 -16.0924 -0.000554908 3.37258 0.000116295
-27.0307 -0.000932024 -15.3852 -0.000530522 4.6129 0.000159065
-26.2242 -0.000904212 -14.627 -0.000504378 5.56149 0.000191775
-25.2848 -0.000871821 -13.8301 -0.000476896 6.23547 0.000215016
-24.2281 -0.00083538 -12.9982 -0.00044821 6.64399 0.000229103
-23.0664 -0.000795323 -12.1384 -0.000418563 6.79519 0.000234317
-21.81 -0.000752 -11.2637 -0.0003884 6.66442 0.000229807
-20.4709 -0.000705824 -10.3968 -0.000358507 6.27151 0.000216258
-19.0679 -0.000657443 -9.55535 -0.000329492 5.65884 0.000195132
-17.6247 -0.000607678 -8.75599 -0.000301928 4.86474 0.000167749
-16.1707 -0.000557541 -8.01525 -0.000276385 3.92109 0.00013521
-14.7357 -0.000508058 -7.35082 -0.000253474 2.86865 9.89184e-05
-13.3461 -0.000460142 -6.77817 -0.000233728 1.75636 6.05636e-05
-12.0251 -0.000414587 -6.30984 -0.000217578 0.63188 2.17885e-05
-10.7912 -0.00037204 -5.95473 -0.000205333 -0.391221 -1.34908e-05
-9.65636 -0.000332908 -5.71661 -0.000197122 -1.3672 -4.71452e-05
-8.61994 -0.000297169 -5.60864 -0.000193399 -2.26939 -7.82552e-05
-7.67512 -0.000264589 -5.62753 -0.00019405 -3.06151 -0.00010557
-6.80465 -0.000234573 -5.76948 -0.000198945 -3.73859 -0.000128917
-5.98695 -0.000206377 -6.02333 -0.000207699 -4.29866 -0.00014823
-5.1966 -0.000179123 -6.37269 -0.000219745 -4.74098 -0.000163482
-4.4058 -0.000151854 -6.79537 -0.000234321 -5.0631 -0.00017459
-3.58507 -0.000123553 -7.26337 -0.000250459 -5.27627 -0.000181941
-2.70265 -9.31248e-05 -7.74405 -0.000267034 -5.40094 -0.00018624
-1.85503 -6.38966e-05 -8.18184 -0.00028213 -5.45954 -0.00018826
-1.48542 -5.11514e-05 -8.40207 -0.000289724 -5.51497 -0.000190172
-0.905435 -3.11519e-05 -8.63898 -0.000297893 -5.4906 -0.000189332
-0.259958 -8.89413e-06 -8.72672 -0.000300919 -5.45925 -0.00018825
0.54162 1.87465e-05 -8.70297 -0.0003001 -5.39662 -0.000186091
1.46567 5.06102e-05 -8.53323 -0.000294247 -5.33747 -0.000184051
2.53975 8.76477e-05 -8.2085 -0.000283049 -5.27096 -0.000181758
3.77412 0.000130212 -7.69789 -0.000265442 -5.20318 -0.00017942
5.15308 0.000177762 -7.00297 -0.000241479 -5.13201 -0.000176966
6.68191 0.000230481 -6.12749 -0.00021129 -5.04819 -0.000174076
8.35733 0.000288254 -5.07079 -0.000174852 -4.93526 -0.000170182
10.1625 0.000350502 -3.83777 -0.000132334 -4.77266 -0.000164575
12.0822 0.000416697 -2.4413 -8.41803e-05 -4.54142 -0.000156601
14.093 0.000486034 -0.893726 -3.08156e-05 -4.21975 -0.000145509
16.1655 0.000557502 0.79154 2.7297e-05 -3.78596 -0.000130551
18.2808 0.000630443 2.59205 8.93836e-05 -3.20096 -0.000110378
20.4083 0.000703804 4.48269 0.000154578 -2.44776 -8.44058e-05
22.5227 0.000776714 6.43305 0.000221832 -1.50165 -5.17814e-05
24.5998 0.000848339 8.42281 0.000290444 -0.345229 -1.19049e-05
26.6156 0.000917849 10.4297 0.000359648 0.9082 3.13168e-05
28.5504 0.000984568 12.4091 0.000427902 2.39199 8.2482e-05
30.376 0.00104752 14.3719 0.000495586 4.09316 0.000141143
32.0815 0.00110633 16.2908 0.000561754 6.00832 0.000207183
33.6485 0.00116036 18.1587 0.000626164 8.12059 0.00028002
35.0674 0.00120929 19.9591 0.000688246 10.4306 0.000359675
36.3304 0.00125284 21.6855 0.000747778 12.9181 0.000445453
37.4356 0.00129095 23.3343 0.000804634 15.5496 0.000536194
38.3877 0.00132378 24.9013 0.000858668 18.2861 0.000630555
39.1973 0.0013517 26.3825 0.000909743 21.0961 0.00072745
39.8791 0.00137521 27.7768 0.000957824 23.9438 0.000825649
40.4509 0.00139493 29.085 0.00100293 26.7851 0.000923624
40.9318 0.00141151 30.3081 0.00104511 29.5718 0.00101972
41.34 0.00142559 31.448 0.00108442 32.2602 0.00111242
41.6925 0.00143774 32.5075 0.00112095 34.8097 0.00120033
42.0057 0.00144854 33.4898 0.00115482 37.1793 0.00128204
42.295 0.00145852 34.3966 0.00118609 39.3288 0.00135617
42.5754 0.00146819 35.2289 0.00121479 41.2238 0.00142151
42.8713 0.00147839 35.9304 0.00123898 41.7954 0.00144122
43.2119 0.00149014 36.3835 0.00125461 42.0196 0.00144895
43.5397 0.00150144 36.9008 0.00127244 42.1821 0.00145456
43.9199 0.00151455 37.3472 0.00128784 42.1525 0.00145353
44.3144 0.00152815 37.7666 0.0013023 42.0434 0.00144977
44.7406 0.00154285 38.0885 0.0013134 42.0595 0.00145033
45.1869 0.00155824 38.343 0.00132217 41.9051 0.001445
45.6486 0.00157416 38.4991 0.00132756 41.3757 0.00142675
46.1031 0.00158983 38.5545 0.00132947 40.4859 0.00139606
46.534 0.00160469 38.4978 0.00132751 39.3514 0.00135694
46.9138 0.00161779 38.3388 0.00132203 38.0126 0.00131078
47.1893 0.00162729 38.0835 0.00131323 36.4324 0.00125629
47.3433 0.0016326 37.7193 0.00130067 34.6271 0.00119404
47.3546 0.00163299 37.2401 0.00128414 32.6738 0.00112668
47.2166 0.00162823 36.6377 0.00126337 30.6412 0.00105659
46.9256 0.0016182 35.9046 0.00123809 28.5453 0.000984321
46.4808 0.00160286 35.0324 0.00120802 26.4037 0.000910472
45.884 0.00158228 34.0196 0.00117309 24.2616 0.000836605
45.1355 0.00155647 32.8674 0.00113336 22.1697 0.00076447
44.2347 0.00152541 31.5802 0.00108898 20.1507 0.000694852
43.1804 0.00148905 30.1684 0.00104029 18.2118 0.000627992
41.9691 0.00144728 28.6476 0.000987851 16.3659 0.000564342
40.5964 0.00139995 27.0364 0.000932293 14.6314 0.000504531
39.0569 0.00134686 25.3559 0.000874344 13.0147 0.000448781
37.3456 0.00128785 23.6293 0.000814806 11.5091 0.000396867
35.4634 0.00122295 21.8795 0.000754468 10.1073 0.000348527
33.4223 0.00115256 20.1258 0.000693997 8.80648 0.000303671
31.2442 0.00107746 18.3841 0.000633937 7.60285 0.000262167
28.9567 0.000998579 16.6675 0.000574745 6.48701 0.00022369
26.5894 0.000916948 14.987 0.000516795 5.44774 0.000187853
24.1718 0.000833581 13.3508 0.000460376 4.47665 0.000154367
21.732 0.000749452 11.7654 0.000405707 3.56687 0.000122995
19.2964 0.000665465 10.2358 0.000352962 2.71007 9.34501e-05
16.8877 0.000582406 8.7659 0.000302275 1.89664 6.54011e-05
14.5245 0.000500915 7.35865 0.000253749 1.11839 3.85648e-05
12.2187 0.000421407 6.01668 0.000207474 0.373481 1.28783e-05
9.97429 0.000344013 4.74473 0.000163614 -0.219663 -7.57497e-06
7.78663 0.000268576 3.56509 0.000122937 -0.776212 -2.67663e-05
5.66237 0.000195326 2.4437 8.4268e-05 -1.31781 -4.54421e-05
3.60119 0.000124251 1.39041 4.79477e-05 -1.84077 -6.34752e-05
1.61997 5.59327e-05 0.393572 1.3574e-05 -2.34683 -8.09255e-05
-0.11963 -4.05347e-06 -0.538144 -1.85542e-05 -2.85911 -9.85906e-05
-1.53538 -5.28724e-05 -1.40908 -4.85864e-05 -3.39029 -0.000116907
-2.53835 -8.74575e-05 -2.40578 -8.29553e-05 -3.85041 -0.000132773
-3.46424 -0.000119385 -3.22811 -0.000111312 -4.3618 -0.000150407
-4.30855 -0.000148499 -4.05021 -0.00013966 -4.83957 -0.000166882
-5.06084 -0.00017444 -4.80059 -0.000165535 -5.34078 -0.000184165
-5.68261 -0.00019588 -5.46724 -0.000188523 -5.84015 -0.000201385
-6.1918 -0.000213439 -6.05741 -0.000208874 -6.34416 -0.000218764
-6.59233 -0.00022725 -6.5757 -0.000226746 -6.84898 -0.000236172
-6.87436 -0.000236975 -7.00474 -0.00024154 -7.35417 -0.000253592
-7.0512 -0.000243073 -7.33941 -0.000253081 -7.85513 -0.000270867
-7.13205 -0.000245861 -7.58361 -0.000261501 -8.34594 -0.000287791
-7.12035 -0.000245457 -7.73716 -0.000266796 -8.81928 -0.000304113
-7.02307 -0.000242103 -7.79662 -0.000268847 -9.26606 -0.00031952
-6.84999 -0.000236135 -7.76608 -0.000267793 -9.67753 -0.000333708
-6.60802 -0.000227791 -7.65333 -0.000263905 -10.043 -0.000346312
-6.30741 -0.000217425 -7.46628 -0.000257455 -10.3504 -0.000356909
-5.95999 -0.000205445 -7.21239 -0.0002487 -10.5872 -0.000365075
-5.57593 -0.000192202 -6.90056 -0.000237948 -10.7432 -0.000370454
-5.16684 -0.000178095 -6.54087 -0.000225545 -10.8087 -0.000372713
-4.73083 -0.000163061 -6.14377 -0.000211851 -10.7574 -0.000370946
-4.26698 -0.000147066 -5.7162 -0.000197108 -10.5667 -0.00036437
-3.80249 -0.000131049 -5.25994 -0.000181375 -10.2341 -0.000352902
-3.3641 -0.000115932 -4.7787 -0.00016478 -9.75777 -0.000336475
-2.97269 -0.000102435 -4.27525 -0.00014742 -9.13699 -0.000315069
-2.64032 -9.09737e-05 -3.75211 -0.000129381 -8.37665 -0.00028885
-2.36999 -8.16522e-05 -3.21392 -0.000110822 -7.48642 -0.000258153
-2.15601 -7.42736e-05 -2.66748 -9.19797e-05 -6.4765 -0.000223328
-1.98622 -6.84186e-05 -2.11973 -7.30916e-05 -5.358 -0.000184759
-1.84679 -6.36108e-05 -1.57783 -5.44054e-05 -4.14622 -0.000142974
-1.72441 -5.93906e-05 -1.04572 -3.60567e-05 -2.85969 -9.86104e-05
-1.61175 -5.5506e-05 -0.523357 -1.80442e-05 -1.5197 -5.24039e-05
-1.50366 -5.17788e-05 -0.0140362 -4.81463e-07 -0.14857 -5.1235e-06
-1.39306 -4.79649e-05 0.469057 1.61769e-05 1.13458 3.9123e-05
-1.27724 -4.39712e-05 0.945544 3.26075e-05 2.42403 8.35867e-05
-1.15703 -3.98258e-05 1.41408 4.87639e-05 3.6853 0.000127079
-1.03616 -3.56581e-05 1.88186 6.48943e-05 4.87529 0.000168113
-0.919724 -3.16429e-05 2.3474 8.09472e-05 5.98437 0.000206357
-0.817003 -2.81008e-05 2.81132 9.69446e-05 7.0011 0.000241417
-0.736688 -2.53313e-05 3.27414 0.000112904 7.91076 0.000272784
-0.690463 -2.37374e-05 3.73451 0.000128779 8.69511 0.000299831
-0.690746 -2.37471e-05 4.18597 0.000144346 9.34577 0.000322267
-0.752673 -2.58825e-05 4.61905 0.00015928 9.86419 0.000340144
-0.889334 -3.0595e-05 5.02348 0.000173226 10.2521 0.000353521
-1.11698 -3.84447e-05 5.38586 0.000185722 10.5103 0.000362425
-1.32465 -4.56059e-05 5.66861 0.000195472 10.645 0.000367069
-1.38059 -4.7535e-05 5.8059 0.000200206 10.6892 0.000368592
-1.55006 -5.33786e-05 5.89593 0.00020331 10.6001 0.00036552
-1.79264 -6.17434e-05 5.85959 0.000202058 10.4133 0.000359079
-2.11412 -7.28291e-05 5.71371 0.000197027 10.1208 0.000348992
-2.50882 -8.64394e-05 5.45416 0.000188077 9.73539 0.000335703
-2.97781 -0.000102611 5.07305 0.000174935 9.26143 0.000319359
-3.51455 -0.00012112 4.56311 0.000157351 8.7041 0.000300141
-4.10997 -0.000141651 3.92878 0.000135478 8.0685 0.000278224
-4.75383 -0.000163854 3.17712 0.000109558 7.35607 0.000253657
-5.43168 -0.000187227 2.31405 7.97975e-05 6.56536 0.000226391
-6.11212 -0.000210691 1.34986 4.65495e-05 5.69454 0.000196363
-6.73141 -0.000232046 0.315634 1.08865e-05 4.74251 0.000163534
-7.25622 -0.000250143 -0.803052 -2.76889e-05 3.70085 0.000127615
-7.69424 -0.000265247 -1.97322 -6.80395e-05 2.57721 8.88688e-05
-8.05842 -0.000277805 -3.17574 -0.000109506 1.35872 4.68522e-05
-8.32871 -0.000287125 -4.38353 -0.000151153 0.0962149 3.31735e-06
-8.50301 -0.000293136 -5.52909 -0.000190656 -1.03323 -3.56291e-05
-8.57789 -0.000295718 -6.60355 -0.000227706 -2.23506 -7.70714e-05
-8.55087 -0.000294786 -7.58447 -0.000261531 -3.52734 -0.000121633
-8.41965 -0.000290261 -8.45897 -0.000291686 -4.85475 -0.000167405
-8.19138 -0.00028239 -9.1947 -0.000317056 -6.24618 -0.000215386
-7.86697 -0.000271203 -9.78205 -0.00033731 -7.69693 -0.000265412
-7.45215 -0.000256899 -10.2192 -0.000352382 -9.17566 -0.000316402
-6.96071 -0.000239953 -10.5062 -0.00036228 -10.6376 -0.000366815
-6.41172 -0.000221022 -10.6433 -0.000367009 -12.0603 -0.000415874
-5.82645 -0.000200841 -10.6392 -0.000366865 -13.4257 -0.000462954
-5.2251 -0.000180104 -10.5097 -0.0003624 -14.6992 -0.000506869
-4.62523 -0.000159419 -10.2729 -0.000354237 -15.836 -0.000546069
-4.04404 -0.000139378 -9.94843 -0.000343047 -16.8 -0.000579311
-3.49968 -0.000120607 -9.55766 -0.000329572 -17.5665 -0.00060574
-3.01055 -0.00010374 -9.12215 -0.000314554 -18.1102 -0.000624491
-2.59428 -8.93861e-05 -8.66132 -0.000298664 -18.4039 -0.000634616
-2.26565 -7.80541e-05 -8.19236 -0.000282492 -18.4132 -0.000634939
-2.03525 -7.01093e-05 -7.72405 -0.000266344 -18.0812 -0.000623489
-1.90615 -6.56576e-05 -7.26609 -0.000250552 -17.4044 -0.000600151
-1.87485 -6.45782e-05 -6.82661 -0.000235398 -16.3901 -0.000565175
-1.93298 -6.65829e-05 -6.41094 -0.000221064 -15.0456 -0.000518814
-2.06979 -7.13005e-05 -6.018 -0.000207515 -13.396 -0.00046193
-2.27333 -7.83189e-05 -5.64199 -0.000194549 -11.4826 -0.000395952
-2.52989 -8.71661e-05 -5.27397 -0.000181859 -9.35161 -0.00032247
-2.82203 -9.72397e-05 -4.90313 -0.000169071 -7.04929 -0.000243079
-3.12706 -0.000107758 -4.51721 -0.000155763 -4.62704 -0.000159553
-3.41953 -0.000117843 -4.1032 -0.000141487 -2.14327 -7.39063e-05
-3.67509 -0.000126656 -3.6483 -0.000125801 0.262304 9.04456e-06
-3.86513 -0.000133209 -3.18349 -0.000109773 2.38239 8.2151e-05
-3.98165 -0.000137227 -2.6504 -9.13904e-05 4.43693 0.000152997
-4.00018 -0.000137866 -2.05335 -7.08025e-05 6.38254 0.000220087
-3.90458 -0.000134569 -1.36773 -4.71607e-05 8.13045 0.00028036
-3.67214 -0.000126554 -0.616064 -2.12411e-05 9.68277 0.000333888
-3.31413 -0.000114209 0.206028 7.10696e-06 11.0482 0.000380973
-2.80766 -9.67442e-05 1.08527 3.74256e-05 12.1985 0.000420636
-2.16494 -7.45815e-05 2.01033 6.93244e-05 13.1121 0.000452141
-1.39741 -4.81147e-05 2.99441 0.000103258 13.7801 0.000475177
-0.537665 -1.84685e-05 4.00425 0.00013808 14.2324 0.00049077
0.352711 1.22342e-05 5.02268 0.000173198 14.4855 0.000499501
1.28412 4.43515e-05 6.02192 0.000207655 14.5433 0.000501493
2.27907 7.86603e-05 6.97708 0.000240592 14.3992 0.000496523
3.25881 0.000112445 7.86019 0.000271044 14.0942 0.000486007
4.20081 0.000144927 8.66075 0.000298649 13.6573 0.000470942
5.06798 0.00017483 9.35467 0.000322577 13.1216 0.000452468
5.83233 0.000201187 9.9221 0.000342144 12.5121 0.000431451
6.46961 0.000223162 10.3477 0.000356821 11.8629 0.000409066
6.95776 0.000239994 10.6164 0.000366085 11.2075 0.000386465
7.27719 0.000251009 10.7177 0.000369577 10.5694 0.000364462
7.41565 0.000255784 10.6461 0.00036711 9.96363 0.000343573
7.36374 0.000253994 10.3995 0.000358604 9.40305 0.000324243
7.12916 0.000245905 9.97631 0.000344013 8.89826 0.000306836
6.73853 0.000232435 9.37934 0.000323428 8.45236 0.00029146
6.21143 0.000214259 8.62051 0.000297262 8.05794 0.00027786
5.57371 0.000192269 7.71465 0.000266025 7.70264 0.000265608
4.85035 0.000167325 6.68291 0.000230448 7.36991 0.000254134
3.9821 0.000137386 5.57158 0.000192126 7.03442 0.000242566
3.07369 0.000106061 4.38122 0.000151079 6.67836 0.000230288
2.14388 7.39985e-05 3.15363 0.000108749 6.27375 0.000216336
1.22211 4.22133e-05 1.91341 6.59823e-05 5.79876 0.000199957
0.340854 1.18253e-05 0.701824 2.42034e-05 5.22889 0.000180306
-0.448035 -1.53778e-05 -0.457933 -1.57883e-05 4.54194 0.000156618
-1.13726 -3.91441e-05 -1.53288 -5.28552e-05 3.71962 0.000128262
-1.75992 -6.06152e-05 -2.53778 -8.7507e-05 2.77195 9.55839e-05
-2.27897 -7.85136e-05 -3.43535 -0.000118458 1.68133 5.79764e-05
-2.72643 -9.39433e-05 -4.20916 -0.000145141 0.469216 1.61794e-05
-3.11909 -0.000107483 -4.84451 -0.000167049 -0.637652 -2.19884e-05
-3.45771 -0.00011916 -5.32582 -0.000183646 -1.83965 -6.34367e-05
-3.76454 -0.00012974 -5.68858 -0.000196156 -3.09561 -0.000106746
-3.75757 -0.0001295 -6.01198 -0.000207307 -4.35173 -0.00015006
-3.73552 -0.000128739 -6.21953 -0.000214464 -5.59744 -0.000193015
-3.68291 -0.000126925 -6.35557 -0.000219155 -6.83945 -0.000235844
-3.63815 -0.000125382 -6.41889 -0.000221338 -8.0368 -0.000277131
-3.632 -0.00012517 -6.43522 -0.000221901 -9.1332 -0.000314938
-3.68769 -0.00012709 -6.41586 -0.000221234 -10.1063 -0.000348494
-3.82045 -0.000131668 -6.39173 -0.000220402 -10.936 -0.000377103
-4.04578 -0.000139438 -6.38607 -0.000220207 -11.6008 -0.000400028
-4.37567 -0.000150813 -6.41679 -0.000221266 -12.0678 -0.000416131
-4.81338 -0.000165907 -6.50113 -0.000224174 -12.3202 -0.000424834
-5.3596 -0.000184742 -6.65627 -0.000229524 -12.3479 -0.00042579
-6.0127 -0.000207263 -6.88733 -0.000237491 -12.1245 -0.000418087
-6.76778 -0.0002333 -7.19318 -0.000248038 -11.6513 -0.00040177
-7.61622 -0.000262556 -7.57161 -0.000261087 -10.9471 -0.000377485
-8.5443 -0.000294559 -8.0164 -0.000276425 -10.0357 -0.00034606
-9.53256 -0.000328637 -8.51443 -0.000293599 -8.95396 -0.000308757
-10.5379 -0.000363303 -9.05369 -0.000312194 -7.74393 -0.000267032
-11.5114 -0.000396874 -9.62155 -0.000331775 -6.4491 -0.000222383
-12.4453 -0.000429077 -10.1854 -0.000351217 -5.12259 -0.000176641
-13.3287 -0.00045954 -10.7213 -0.000369697 -3.81423 -0.000131526
-14.1497 -0.000487847 -11.201 -0.000386239 -2.57625 -8.88366e-05
-14.8985 -0.00051367 -11.5987 -0.000399954 -1.45561 -5.0194e-05
-15.569 -0.00053679 -11.8944 -0.000410151 -0.492477 -1.69824e-05
-16.1551 -0.000556999 -12.0749 -0.000416374 0.235164 8.10872e-06
-16.6504 -0.00057408 -12.1418 -0.000418682 0.725416 2.50139e-05
-17.0558 -0.000588059 -12.0806 -0.000416571 1.02994 3.55146e-05
-17.3037 -0.000596609 -11.9161 -0.000410897 1.13997 3.93089e-05
-17.2239 -0.000593855 -11.7198 -0.000404129 1.05069 3.62301e-05
-17.0793 -0.000588871 -11.3953 -0.000392939 0.728634 2.51249e-05
-16.8123 -0.000579662 -11.0309 -0.000380374 0.264274 9.1125e-06
-16.4595 -0.000567496 -10.6107 -0.000365885 -0.313759 -1.08197e-05
-16.0542 -0.000553521 -10.1574 -0.000350252 -0.997967 -3.44131e-05
-15.6196 -0.000538536 -9.70455 -0.000334637 -1.76308 -6.07961e-05
-15.1891 -0.000523692 -9.28036 -0.00032001 -2.57001 -8.86213e-05
-14.7954 -0.000510116 -8.90756 -0.000307155 -3.38743 -0.000116808
-14.4684 -0.000498838 -8.60627 -0.000296765 -4.18837 -0.000144427
-14.2368 -0.000490852 -8.40008 -0.000289655 -4.94325 -0.000170457
-14.1271 -0.00048707 -8.30835 -0.000286492 -5.62123 -0.000193836
-14.1595 -0.000488187 -8.34259 -0.000287673 -6.20017 -0.000213799
-14.3491 -0.000494725 -8.51087 -0.000293476 -6.66777 -0.000229924
-14.7044 -0.000506975 -8.81858 -0.000304086 -7.01698 -0.000241965
-15.2115 -0.000524464 -9.26527 -0.00031949 -7.24386 -0.000249789
-15.879 -0.000547481 -9.84479 -0.000339473 -7.35115 -0.000253488
-16.6602 -0.000574417 -10.5234 -0.000362875 -7.35321 -0.000253559
-17.5367 -0.000604641 -11.3194 -0.00039032 -7.25202 -0.00025007
-18.5322 -0.000638969 -12.1983 -0.000420629 -7.07195 -0.000243861
-19.5736 -0.000674879 -13.1588 -0.000453749 -6.83563 -0.000235712
-20.6147 -0.000710779 -14.1767 -0.000488849 -6.57695 -0.000226792
-21.6231 -0.000745553 -15.2324 -0.000525251 -6.32672 -0.000218163
-22.561 -0.000777893 -16.2974 -0.000561976 -6.12146 -0.000211085
-23.3967 -0.000806711 -17.3423 -0.000598007 -5.99683 -0.000206788
-24.1103 -0.000831319 -18.3377 -0.000632331 -5.98531 -0.00020639
-24.681 -0.000850996 -19.2547 -0.000663954 -6.11499 -0.000210862
-25.0855 -0.000864947 -20.0678 -0.000691991 -6.40824 -0.000220974
-25.3007 -0.000872367 -20.7568 -0.000715748 -6.88013 -0.000237246
-25.292 -0.000872065 -21.3037 -0.000734607 -7.52169 -0.000259369
-25.0453 -0.000863559 -21.6802 -0.000747592 -8.25412 -0.000284625
-24.5464 -0.000846357 -21.8935 -0.000754946 -9.15459 -0.000315676
-23.7884 -0.000820218 -21.9367 -0.000756436 -10.1917 -0.000351437
-22.7716 -0.000785155 -21.817 -0.000752308 -11.3346 -0.00039085
-21.5043 -0.000741455 -21.5364 -0.000742634 -12.5618 -0.000433167
-20.0041 -0.000689727 -21.1043 -0.000727732 -13.8431 -0.000477348
-18.3006 -0.000630985 -20.5312 -0.000707969 -15.1335 -0.000521844
-16.4298 -0.000566475 -19.8282 -0.000683729 -16.3871 -0.000565074
-14.4306 -0.000497534 -19.0078 -0.00065544 -17.5621 -0.000605591
-12.343 -0.000425549 -18.0843 -0.000623595 -18.6183 -0.000642012
-10.209 -0.000351962 -17.0724 -0.000588702 -19.5117 -0.000672818
-8.07249 -0.00027829 -15.9864 -0.000551252 -20.1992 -0.000696524
-5.97722 -0.000206039 -14.84 -0.000511721 -20.6438 -0.000711856
-3.96097 -0.000136513 -13.6473 -0.000470595 -20.8157 -0.000717782
-2.05267 -7.07099e-05 -12.4216 -0.000428327 -20.6636 -0.00071254
-0.272128 -9.31202e-06 -11.1716 -0.000385223 -20.1508 -0.000694856
1.26578 4.37193e-05 -9.92373 -0.000342195 -19.2609 -0.000664168
2.65806 9.17288e-05 -8.69428 -0.0002998 -17.9809 -0.000620031
3.6135 0.000124675 -7.36008 -0.000253793 -16.3686 -0.000564437
4.44767 0.00015344 -6.11292 -0.000210788 -14.3734 -0.000495636
5.13543 0.000177156 -4.84381 -0.000167025 -12.0655 -0.000416053
5.68165 0.000195991 -3.60248 -0.000124221 -9.45197 -0.00032593
6.08369 0.000209854 -2.39225 -8.24887e-05 -6.58505 -0.000227071
6.37373 0.000219855 -1.22047 -4.20826e-05 -3.50752 -0.00012095
6.5745 0.000226779 -0.0656343 -2.26071e-06 -0.276293 -9.52773e-06
6.7157 0.000231648 1.01713 3.50759e-05 2.44534 8.43217e-05
6.83814 0.00023587 2.02977 6.99946e-05 5.24806 0.000180967
6.96112 0.00024011 3.02569 0.000104337 8.0911 0.000279003
7.12667 0.000245819 4.02142 0.000138672 10.806 0.00037262
7.36696 0.000254105 5.00835 0.000172704 13.3895 0.000461706
7.70702 0.000265831 5.98774 0.000206476 15.8485 0.000546499
8.16779 0.00028172 6.97192 0.000240414 18.1513 0.000625907
8.76275 0.000302235 7.97898 0.00027514 20.212 0.000696964
9.5012 0.000327699 9.01098 0.000310726 21.9855 0.000758121
10.3867 0.000358235 10.0676 0.00034716 23.4784 0.000809599
11.4184 0.000393811 11.1528 0.00038458 24.6905 0.000851397
12.5896 0.000434196 12.2668 0.000422996 25.5964 0.000882634
13.8884 0.000478983 13.4022 0.000462149 26.1784 0.000902705
15.3007 0.000527682 14.5475 0.000501642 26.4524 0.000912151
16.8114 0.000579774 15.6886 0.000540989 26.429 0.000911344
18.4049 0.000634722 16.8017 0.00057937 26.0896 0.000899641
20.0612 0.000691837 17.8674 0.00061612 25.461 0.000877967
21.7573 0.000750322 18.866 0.000650554 24.5839 0.00084772
23.4663 0.000809254 19.7808 0.000682098 23.5055 0.000810535
25.1617 0.000867718 20.5937 0.000710129 22.2757 0.000768129
26.8182 0.000924838 21.289 0.000734105 20.9436 0.000722192
28.4108 0.000979754 21.8554 0.000753637 19.5556 0.00067433
29.9134 0.00103157 22.2865 0.000768503 18.1568 0.000626097
31.3002 0.00107939 22.5797 0.000778612 16.7885 0.000578915
32.5478 0.00112241 22.7366 0.000784025 15.4869 0.000534029
33.6383 0.00116001 22.7636 0.000784954 14.2812 0.000492454
34.5609 0.00119183 22.6696 0.000781712 13.1954 0.000455013
35.3148 0.00121782 22.4656 0.000774678 12.2476 0.000422331
35.9101 0.00123835 22.1643 0.00076429 11.4501 0.000394831
36.3652 0.00125404 21.781 0.000751071 10.8084 0.000372704
36.7033 0.0012657 21.3333 0.000735632 10.3219 0.000355927
36.9505 0.00127423 20.8413 0.000718668 9.98415 0.00034428
37.1328 0.00128051 20.3281 0.00070097 9.78385 0.000337374
37.2749 0.00128541 19.8188 0.000683411 9.70519 0.000334661
37.3992 0.0012897 19.34 0.000666901 9.72918 0.000335489
37.5276 0.00129413 18.9179 0.000652343 9.83524 0.000339146
37.6805 0.0012994 18.5772 0.000640595 10.0028 0.000344923
37.8758 0.00130614 18.3407 0.000632439 10.2123 0.000352147
38.128 0.00131483 18.2277 0.000628544 10.4465 0.000360223
38.4467 0.00132582 18.2538 0.000629443 10.6916 0.000368674
38.8364 0.00133926 18.4297 0.000635508 10.938 0.000377172
39.2965 0.00135512 18.7608 0.000646927 11.1813 0.00038556
39.8217 0.00137323 19.2469 0.000663687 11.422 0.000393862
40.3965 0.00139306 19.8829 0.000685621 11.6659 0.000402273
40.9263 0.00141132 20.6787 0.000713063 11.9182 0.000410973
41.3947 0.00142748 21.6069 0.000745067 12.1965 0.000420567
41.7874 0.00144102 22.6416 0.000780747 12.5228 0.00043182
42.0952 0.00145163 23.7479 0.000818897 12.9227 0.000445609
42.3003 0.0014587 24.8859 0.000858138 13.4215 0.000462809
42.3845 0.00146161 26.0118 0.000896962 14.0446 0.000484297
42.325 0.00145956 27.088 0.00093407 14.813 0.000510794
42.097 0.00145169 28.0776 0.000968196 15.7424 0.000542842
41.6761 0.00143718 28.9481 0.000998212 16.8406 0.000580708
41.0333 0.00141501 29.6717 0.00102316 18.1079 0.000624409
40.1392 0.00138418 30.2272 0.00104232 19.5361 0.00067366
38.9686 0.00134382 30.5982 0.00105511 21.108 0.000727862
37.5015 0.00129323 30.7725 0.00106112 22.7975 0.000786122
35.7242 0.00123194 30.7424 0.00106008 24.5711 0.000847278
33.6329 0.00115983 30.5034 0.00105184 26.3639 0.0009091
31.2414 0.00107736 30.0226 0.00103526 27.8384 0.000959943
28.5673 0.000985151 29.3182 0.00101098 29.2897 0.00100999
25.6418 0.000884272 28.4061 0.000979522 30.6643 0.00105739
22.5061 0.000776145 27.2958 0.000941236 31.879 0.00109927
19.2031 0.00066225 25.9796 0.000895851 32.9237 0.0011353
15.7725 0.000543952 24.4698 0.000843789 33.7809 0.00116486
12.25 0.000422485 22.7815 0.00078557 34.3939 0.00118599
8.66563 0.000298887 20.9316 0.000721783 34.6964 0.00119643
5.05259 0.000174299 18.9324 0.000652842 34.6342 0.00119428
2.29337 7.9154e-05 16.5737 0.000571509 34.1891 0.00117893
-0.312983 -1.07204e-05 14.2316 0.000490746 33.2352 0.00114604
-2.74273 -9.45047e-05 11.8418 0.000408341 31.7429 0.00109458
-5.08762 -0.000175363 9.30082 0.00032072 29.7291 0.00102514
-7.20191 -0.00024827 6.79351 0.000234262 27.1529 0.000936307
-9.17581 -0.000316335 4.26413 0.000147042 24.0666 0.000829884
-11.0052 -0.000379417 1.76966 6.10255e-05 20.4771 0.000706105
-12.6321 -0.000435517 -0.744716 -2.56773e-05 16.4097 0.000565853
-14.0881 -0.000485723 -3.22999 -0.000111376 11.9289 0.000411342
-15.3938 -0.000530749 -5.6965 -0.000196428 7.09185 0.000244546
-16.5413 -0.000570319 -8.13606 -0.000280551 1.97229 6.80098e-05
-17.5729 -0.000605888 -10.5006 -0.000362088 -2.33024 -8.03535e-05
-18.5459 -0.000639443 -12.6965 -0.000437807 -6.65818 -0.000229593
-19.4328 -0.000670025 -14.9116 -0.00051419 -11.0263 -0.000380217
-20.3189 -0.000700578 -17.088 -0.000589241 -15.2647 -0.000526369
-21.2208 -0.000731679 -19.2376 -0.000663362 -19.3525 -0.000667327
-22.1795 -0.00076474 -21.3419 -0.000735925 -23.3543 -0.000805321
-23.2303 -0.000800974 -23.4166 -0.000807467 -27.2183 -0.000938562
-24.4011 -0.000841345 -25.4778 -0.000878544 -30.7917 -0.00106178
-25.7155 -0.00088667 -27.5212 -0.000949005 -34.0072 -0.00117266
-27.1918 -0.000937575 -29.5457 -0.00101882 -36.8782 -0.00127166
-28.8444 -0.000994561 -31.5546 -0.00108809 -39.4067 -0.00135885
-30.6947 -0.00105837 -33.4709 -0.00115417 -39.8096 -0.00137274
-32.7755 -0.00113012 -35.1384 -0.00121167 -39.9317 -0.00137696
-34.9638 -0.00120558 -36.9908 -0.00127554 -40.0911 -0.00138245
-37.3468 -0.00128775 -38.8092 -0.00133825 -40.0642 -0.00138153
-39.8308 -0.00137341 -40.6866 -0.00140298 -39.9363 -0.00137712
-42.43 -0.00146304 -42.5025 -0.0014656 -39.9368 -0.00137713
-45.1032 -0.00155522 -44.2837 -0.00152702 -39.7573 -0.00137094
-47.8332 -0.00164936 -45.98 -0.00158552 -39.1737 -0.00135082
-50.5805 -0.00174409 -47.5816 -0.00164075 -38.1996 -0.00131723
-48.4862 -0.00167188 -48.0856 -0.00165812 -33.6039 -0.00115876
-46.8879 -0.00161677 -36.9182 -0.00127304 -31.6884 -0.0010927
-53.1041 -0.00183112 -43.2556 -0.00149157 -29.874 -0.00103014
-55.5452 -0.00191529 -50.4815 -0.00174074 -29.4586 -0.00101581
-54.8607 -0.00189169 -49.2627 -0.00169871 -26.6566 -0.000919194
-56.5281 -0.00194919 -45.8144 -0.00157981 -24.6835 -0.000851158
-56.7859 -0.00195808 -48.9802 -0.00168897 -23.9668 -0.000826444
-56.834 -0.00195973 -52.0705 -0.00179554 -23.4331 -0.000808039
-57.3224 -0.00197658 -51.8583 -0.00178822 -21.9836 -0.000758056
-57.6086 -0.00198645 -51.8669 -0.00178851 -21.1239 -0.000728413
-57.9904 -0.00199961 -54.0603 -0.00186415 -21.6525 -0.00074664
-58.212 -0.00200725 -56.4409 -0.00194624 -22.2607 -0.000767612
-58.3714 -0.00201275 -55.8698 -0.00192655 -23.1778 -0.000799235
-58.5412 -0.0020186 -56.3293 -0.00194239 -24.2668 -0.000836787
-58.7177 -0.00202469 -56.814 -0.0019591 -26.3759 -0.000909514
-58.8544 -0.0020294 -57.251 -0.00197417 -27.9705 -0.0009645
-58.9924 -0.00203416 -57.1632 -0.00197114 -29.2796 -0.00100964
-10.635 -0.000366667 -47.5906 -0.00164106 -34.3076 -0.00118302
1.40176 4.83951e-05 -43.0378 -0.00148406 -44.2542 -0.00152601
-5.05836 -0.000174368 -50.4709 -0.00174038 -40.3962 -0.00139297
-6.22886 -0.00021473 -51.4494 -0.00177412 -43.7997 -0.00151034
7.09466 0.000244702 -53.9439 -0.00186013 -45.8208 -0.00158003
-3.36349 -0.000115924 -61.6458 -0.00212572 -44.504 -0.00153462
-10.3625 -0.000357269 -60.6164 -0.00209022 -43.3399 -0.00149448
-5.89856 -0.00020334 -59.2555 -0.00204329 -43.3288 -0.0014941
-9.36346 -0.000322819 -60.4434 -0.00208426 -44.8643 -0.00154705
-13.6733 -0.000471435 -61.2864 -0.00211332 -44.3782 -0.00153028
-12.0765 -0.000416373 -60.0931 -0.00207217 -44.5883 -0.00153753
-12.312 -0.000424493 -59.0814 -0.00203729 -44.8646 -0.00154706
-13.5563 -0.000467401 -59.5676 -0.00205406 -45.2581 -0.00156062
-13.1417 -0.000453104 -60.0102 -0.00206932 -45.4211 -0.00156625
-13.0448 -0.000449761 -59.4233 -0.00204908 -45.4302 -0.00156656
-13.599 -0.000468873 -58.98 -0.00203379 -45.635 -0.00157362
-13.5933 -0.000468676 -59.3111 -0.00204521 -45.9125 -0.00158319
-13.5624 -0.00046761 -59.5265 -0.00205264 -45.9976 -0.00158613
-13.8056 -0.000475996 -59.2443 -0.00204291 -46.0131 -0.00158666
-13.8988 -0.00047921 -59.1293 -0.00203894 -46.1628 -0.00159182
-13.8491 -0.000477498 -59.3906 -0.00204795 -46.3132 -0.00159701
-13.9766 -0.000481894 -59.6066 -0.0020554 -46.2912 -0.00159625
-14.0382 -0.000484017 -59.5903 -0.00205484 -46.2648 -0.00159534
-13.999 -0.000482667 -59.6703 -0.0020576 -46.3473 -0.00159818
-14.0205 -0.000483406 -59.9699 -0.00206793 -46.3772 -0.00159921
-14.034 -0.000483871 -60.2249 -0.00207672 -46.3212 -0.00159728
-13.9952 -0.000482534 -43.3338 -0.00149427 -46.2595 -0.00159515
-1.65583 -5.7039e-05 -10.0022 -0.000344905 -28.6616 -0.000988331
-8.24132 -0.000284125 2.15131 7.41831e-05 -42.9366 -0.00148057
-4.25292 -0.000146594 -4.3726 -0.000150779 -44.0988 -0.00152065
-6.753 -0.000232803 -2.43487 -8.3961e-05 -44.7667 -0.00154368
-7.81157 -0.000269306 -6.65827 -0.000229595 -45.1006 -0.0015552
-7.9942 -0.000275604 -10.1462 -0.000349871 -45.7083 -0.00157615
-8.28594 -0.000285663 -9.55165 -0.000329367 -45.3316 -0.00156316
-8.54218 -0.000294499 -8.94322 -0.000308387 -44.854 -0.00154669
-8.9019 -0.000306904 -9.47301 -0.000326656 -45.1419 -0.00155662
-8.98064 -0.000309619 -10.1072 -0.000348524 -43.9543 -0.00151567
-9.7371 -0.000335704 -9.82994 -0.000338963 -8.53588 -0.000294342
-11.3785 -0.000392305 -9.56739 -0.00032991 -8.18679 -0.000282305
-9.82864 -0.00033886 -10.2611 -0.00035383 -7.14451 -0.000246364
-11.361 -0.000391701 -10.3177 -0.000355784 -6.99311 -0.000241143
-11.1645 -0.000384924 -10.2444 -0.000353255 -7.60245 -0.000262155
-11.1654 -0.000384956 -10.3038 -0.000355305 -7.60307 -0.000262176
-11.7883 -0.000406435 -10.5195 -0.000362742 -7.05075 -0.000243131
-11.7469 -0.000405008 -10.7384 -0.000370289 -6.52651 -0.000225053
-11.9513 -0.000412054 -10.771 -0.000371413 -6.56235 -0.000226289
-12.2891 -0.000423703 -10.8169 -0.000372997 -6.7212 -0.000231767
-12.4067 -0.000427758 -10.9878 -0.000378889 -6.49947 -0.000224121
-12.6502 -0.000436155 -11.1371 -0.000384037 -6.09346 -0.000210121
-12.9654 -0.000447025 -11.2261 -0.000387107 -5.8789 -0.000202722
-13.127 -0.000452595 -11.3065 -0.000389879 -5.86662 -0.000202299
-13.4117 -0.000462415 -11.3812 -0.000392456 -5.82388 -0.000200825
-13.6965 -0.000472234 -11.4848 -0.000396029 -5.59475 -0.000192924
-13.9067 -0.000479482 -11.587 -0.000399553 -5.3253 -0.000183632
-14.1585 -0.000488165 -11.6369 -0.000401272 -5.21727 -0.000179907
-14.1891 -0.000489222 -11.6821 -0.000402831 -5.18858 -0.000178918
-14.2459 -0.000491179 -11.6486 -0.000401674 -0.865564 -2.98483e-05
-14.5017 -0.000500001 -10.7585 -0.000370983 0.847833 2.92343e-05
-14.6199 -0.000504077 -9.96717 -0.000343695 -7.3536 -0.000253574
-13.8756 -0.000478412 -10.5864 -0.000365049 -8.0553 -0.00027777
-14.1277 -0.000487102 -11.22 -0.000386895 -4.29667 -0.000148162
-14.1281 -0.000487118 -11.157 -0.000384724 -4.27063 -0.000147265
-13.7984 -0.000475748 -10.8882 -0.000375455 -7.53869 -0.000259956
-13.6594 -0.000470957 -10.9271 -0.000376795 -8.51321 -0.00029356
-13.1406 -0.000453067 -11.272 -0.000388689 -6.31042 -0.000217602
-12.6054 -0.000434609 -11.5415 -0.000397984 -4.64355 -0.000160124
-12.0927 -0.000416933 -11.532 -0.000397654 -5.54901 -0.000191346
-11.592 -0.000399666 -11.4774 -0.000395772 -6.91475 -0.000238441
-11.0825 -0.000382098 -11.6045 -0.000400156 -6.52601 -0.000225036
-10.5763 -0.000364642 -11.7949 -0.000406719 -5.24961 -0.000181022
-10.0355 -0.000345992 -11.8735 -0.00040943 -4.97699 -0.000171622
-9.46101 -0.000326183 -11.8802 -0.000409663 -5.6701 -0.000195522
-8.84577 -0.000304968 -11.9278 -0.000411305 -5.9598 -0.000205512
-8.2024 -0.000282783 -12.033 -0.000414931 -5.43341 -0.00018736
-7.52518 -0.00025943 -12.1354 -0.000418461 -4.93272 -0.000170095
-6.82252 -0.000235201 -12.1873 -0.000420253 -5.04106 -0.000173831
-6.10085 -0.000210315 -12.1002 -0.000417249 -5.35604 -0.000184692
-5.30249 -0.000182786 -11.9369 -0.000411618 -5.2959 -0.000182619
-4.4712 -0.000154121 -11.5837 -0.000399438 -4.98886 -0.000172031
-3.78309 -0.000130393 -11.1769 -0.00038541 -4.87962 -0.000168264
-3.08132 -0.000106194 -10.6469 -0.000367135 -4.80237 -0.0001656
-2.82003 -9.71839e-05 -9.97565 -0.000343988 -4.49819 -0.000155111
-2.48621 -8.56728e-05 -9.45542 -0.000326049 -3.73603 -0.00012883
-2.29654 -7.91324e-05 -8.73067 -0.000301058 -2.6092 -8.99738e-05
-2.08383 -7.17975e-05 -7.78119 -0.000268317 -1.28496 -4.43103e-05
-1.82906 -6.30125e-05 -6.8243 -0.00023532 0.344507 1.18782e-05
-1.63132 -5.61939e-05 -5.61003 -0.000193449 2.13927 7.37666e-05
-1.42204 -4.89774e-05 -4.34343 -0.000149773 3.31019 0.000114143
-1.20627 -4.15369e-05 -3.24773 -0.00011199 3.57072 0.000123127
-0.984225 -3.38802e-05 -2.02033 -6.96664e-05 3.86482 0.000133268
-0.781522 -2.68905e-05 -0.564931 -1.94803e-05 4.05307 0.00013976
-0.559995 -1.92516e-05 0.0232177 8.00726e-07 4.19239 0.000144564
-0.37666 -1.29297e-05 0.420586 1.45031e-05 4.53724 0.000156455
-0.243772 -8.34738e-06 0.906419 3.12559e-05 4.94933 0.000170665
-0.00126066 1.50827e-08 1.27897 4.41024e-05 5.37419 0.000185316
0.17255 6.00856e-06 1.70315 5.87296e-05 5.60615 0.000193314
0.324304 1.12414e-05 2.22054 7.65704e-05 5.75564 0.000198469
0.547922 1.89524e-05 2.6958 9.29589e-05 6.05876 0.000208921
0.767324 2.6518e-05 3.16808 0.000109244 6.51989 0.000224823
0.95321 3.29279e-05 3.70275 0.000127681 6.98125 0.000240731
1.17402 4.05421e-05 4.25152 0.000146604 7.36918 0.000254108
1.42779 4.92925e-05 4.79542 0.000165359 7.70487 0.000265684
1.67261 5.77348e-05 5.3685 0.000185121 8.05174 0.000277645
1.9289 6.65724e-05 5.96406 0.000205657 8.46759 0.000291984
2.21938 7.65891e-05 6.5607 0.000226231 8.94228 0.000308353
2.52569 8.71513e-05 7.16784 0.000247167 9.41049 0.000324498
2.84232 9.80697e-05 7.79421 0.000268766 9.83603 0.000339172
3.18283 0.000109811 8.43316 0.000290799 10.2428 0.000353199
3.54606 0.000122337 9.08078 0.00031313 10.6707 0.000367955
3.92543 0.000135418 9.73664 0.000335746 11.1317 0.000383851
4.31992 0.000149021 10.3969 0.000358513 11.6078 0.000400267
4.73006 0.000163164 11.061 0.000381415 12.0721 0.00041628
5.15103 0.00017768 11.7327 0.000404578 12.5158 0.000431578
5.56774 0.00019205 12.4105 0.000427948 12.9534 0.000446668
6.00323 0.000207066 13.0897 0.000451369 13.4019 0.000462132
6.4545 0.000222627 13.7703 0.000474839 13.8637 0.000478056
6.89118 0.000237685 14.4525 0.000498361 14.3281 0.00049407
7.31141 0.000252176 15.1342 0.00052187 14.7837 0.000509781
7.73017 0.000266616 15.8159 0.000545376 15.2291 0.000525141
8.1448 0.000280914 16.4979 0.000568895 15.6735 0.000540464
8.54028 0.000294551 17.179 0.000592379 16.1265 0.000556086
8.91197 0.000307368 17.8571 0.000615762 16.5875 0.000571981
9.26412 0.000319511 18.5331 0.000639073 17.0486 0.00058788
9.5969 0.000330986 19.208 0.000662346 17.5057 0.000603642
9.90367 0.000341565 19.8805 0.000685534 17.9622 0.000619386
10.1793 0.00035107 20.5494 0.0007086 18.4237 0.000635298
10.425 0.000359541 21.2134 0.000731496 18.8917 0.000651437
10.6412 0.000366997 21.8717 0.000754195 19.364 0.000667723
10.8254 0.000373348 22.524 0.000776691 19.8374 0.000684048
10.975 0.000378508 23.1692 0.000798939 20.3107 0.000700368
11.0861 0.000382337 23.8046 0.000820847 20.7852 0.00071673
11.1677 0.000385152 24.4307 0.000842439 21.261 0.000733137
11.2145 0.000386766 25.0444 0.000863599 21.7373 0.00074956
11.2292 0.000387272 25.6449 0.000884308 22.2121 0.000765935
11.2156 0.000386802 26.2308 0.00090451 22.6819 0.000782133
11.1731 0.000385336 26.8007 0.000924162 23.1454 0.000798114
11.1036 0.00038294 27.3526 0.000943192 23.6012 0.000813833
11.0116 0.000379768 27.8843 0.000961527 24.0483 0.000829249
10.8927 0.00037567 28.3949 0.000979135 24.4843 0.000844285
10.7469 0.000370642 28.8821 0.000995935 24.9071 0.000858865
10.5747 0.000364705 29.3438 0.00101186 25.3151 0.000872933
10.3834 0.000358108 29.7813 0.00102694 25.705 0.000886377
10.182 0.000351162 30.192 0.0010411 26.0748 0.000899129
9.97529 0.000344034 30.5739 0.00105427 26.4236 0.000911157
9.77143 0.000337004 30.9266 0.00106644 26.7488 0.000922372
9.57384 0.000330191 31.2506 0.00107761 27.048 0.000932688
9.3864 0.000323727 31.5456 0.00108778 27.3201 0.000942072
9.22089 0.00031802 31.8103 0.00109691 27.5631 0.000950449
9.08193 0.000313229 32.0438 0.00110496 27.7755 0.000957775
8.97794 0.000309643 32.2455 0.00111192 27.957 0.000964032
8.91766 0.000307564 32.4156 0.00111778 28.1066 0.000969192
8.90534 0.000307139 32.5546 0.00112257 28.2237 0.000973228
8.94941 0.000308659 32.6617 0.00112627 28.3076 0.000976123
9.05373 0.000312256 32.7369 0.00112886 28.3584 0.000977874
9.22694 0.000318229 32.7802 0.00113035 28.2376 0.00097371
9.48313 0.000327063 32.7818 0.00113041 27.6901 0.000954829
9.84278 0.000339465 32.7262 0.00112849 26.7536 0.000922537
10.242 0.00035323 32.6254 0.00112501 25.4592 0.000877902
10.4381 0.000359992 32.4836 0.00112012 23.839 0.000822033
10.6745 0.000368143 32.1113 0.00110729 21.947 0.000756792
10.9117 0.000376324 31.7937 0.00109634 19.6087 0.000676159
11.1953 0.000386102 31.2305 0.00107691 17.0145 0.000586707
11.4572 0.000395135 30.5125 0.00105216 14.1623 0.000488352
11.708 0.000403784 29.6485 0.00102236 11.0834 0.000382184
11.9708 0.000412845 28.6453 0.000987769 7.80911 0.000269278
12.2273 0.00042169 27.5339 0.000949444 4.34105 0.00014969
12.4689 0.000430021 26.2948 0.000906718 0.71086 2.45111e-05
12.6993 0.000437965 24.9837 0.000861507 -0.324417 -1.11881e-05
12.9102 0.000445237 24.1429 0.000832513 -0.400768 -1.38209e-05
13.1501 0.000453509 23.1343 0.000797736 -0.725159 -2.50068e-05
13.4232 0.000462929 22.0623 0.00076077 -1.00568 -3.46798e-05
13.6657 0.000471288 21.0209 0.000724858 -1.00106 -3.45207e-05
13.9196 0.000480045 19.7882 0.000682353 -0.803585 -2.77111e-05
14.1693 0.000488655 18.5629 0.000640099 -0.692179 -2.38696e-05
14.4094 0.000496934 17.3927 0.000599747 -0.788897 -2.72047e-05
14.6579 0.000505504 16.2228 0.000559407 -0.987727 -3.40609e-05
14.9017 0.000513909 15.0571 0.00051921 -1.10884 -3.82372e-05
15.1447 0.000522288 13.8775 0.000478536 -1.08546 -3.74311e-05
15.3895 0.000530733 12.7151 0.000438451 -1.00518 -3.46627e-05
15.6365 0.000539247 11.61 0.000400343 -0.99148 -3.41903e-05
15.8878 0.000547915 10.5556 0.000363987 -1.0726 -3.69874e-05
16.1439 0.000556745 9.53958 0.000328951 -1.17577 -4.05451e-05
16.4073 0.000565828 8.55598 0.000295034 -1.2202 -4.20771e-05
16.681 0.000575265 7.61132 0.000262459 -1.19805 -4.13135e-05
16.9656 0.000585079 6.72222 0.000231801 -1.16683 -4.0237e-05
17.2614 0.000595278 5.89315 0.000203212 -1.17763 -4.06094e-05
17.5684 0.000605864 5.12319 0.000176662 -1.2263 -4.22876e-05
17.8872 0.00061686 4.41432 0.000152218 -1.26954 -4.37787e-05
18.2112 0.00062803 3.77838 0.000130289 -1.27597 -4.40004e-05
18.4166 0.000635112 3.41662 0.000117815 -1.26162 -4.35055e-05
18.6523 0.00064324 3.15719 0.000108869 -1.25941 -4.34292e-05
18.963 0.000653956 2.75695 9.50673e-05 -1.25539 -4.32906e-05
19.2014 0.000662176 2.60692 8.98938e-05 -1.26577 -4.36487e-05
19.4648 0.000671257 2.52971 8.72316e-05 -1.27717 -4.40416e-05
19.7764 0.000682004 2.44778 8.44064e-05 -1.26747 -4.37071e-05
20.0741 0.000692268 2.49036 8.58747e-05 -1.25566 -4.32999e-05
20.3796 0.000702803 2.61375 9.01295e-05 -1.23387 -4.25484e-05
20.6901 0.00071351 2.8242 9.73864e-05 -1.19873 -4.13368e-05
20.9717 0.00072322 2.99006 0.000103106 -1.18467 -4.0852e-05
21.232 0.000732198 3.04186 0.000104892 -1.1575 -3.99151e-05
21.5253 0.000742309 3.31691 0.000114376 -1.12885 -3.89272e-05
21.7985 0.000751732 3.63825 0.000125457 -1.08321 -3.73535e-05
22.0501 0.000760406 4.04327 0.000139423 -0.97259 -3.35389e-05
22.2833 0.000768448 4.55304 0.000157002 -0.573694 -1.97839e-05
22.4967 0.000775807 5.19924 0.000179284 0.121756 4.19717e-06
22.6836 0.000782252 5.97321 0.000205973 1.09562 3.77786e-05
22.8382 0.000787583 6.87734 0.00023715 2.34809 8.09673e-05
22.9678 0.000792053 7.83681 0.000270235 2.63466 9.0849e-05
23.0875 0.000796179 8.70913 0.000300315 2.95636 0.000101942
23.1745 0.000799179 9.79854 0.000337881 3.15571 0.000108816
23.2285 0.000801041 10.8604 0.000374495 3.61277 0.000124577
23.2243 0.000800898 11.9836 0.000413226 4.15605 0.000143311
23.1291 0.000797614 13.1798 0.000454477 4.66163 0.000160745
22.9506 0.000791458 14.4185 0.00049719 5.1059 0.000176064
22.6861 0.000782337 15.7116 0.00054178 5.5567 0.000191609
22.3296 0.000770046 17.0021 0.000586279 6.10856 0.000210639
21.8889 0.000754848 18.2687 0.000629954 6.76879 0.000233405
21.3628 0.000736707 19.5379 0.000673722 7.46482 0.000257406
20.7596 0.000715906 20.8049 0.00071741 8.13727 0.000280594
20.0865 0.000692697 22.0594 0.000760668 8.78928 0.000303077
19.3491 0.00066727 23.2929 0.000803202 9.46742 0.000326462
18.5758 0.000640602 24.4993 0.000844804 10.2044 0.000351876
17.7519 0.000612192 25.6876 0.00088578 10.9869 0.000378859
16.9177 0.000583426 26.8495 0.000925846 11.7689 0.000405822
16.096 0.000555093 27.9899 0.000965169 12.5283 0.000432008
15.2912 0.000527342 29.1089 0.00100376 13.2746 0.000457745
14.4889 0.000499676 30.2027 0.00104147 14.0306 0.000483814
13.685 0.000471956 31.1715 0.00107488 14.802 0.000510414
12.8016 0.000441494 31.4754 0.00108536 15.5511 0.000536243
11.8523 0.000408759 31.9211 0.00110073 16.2082 0.000558901
11.0543 0.000381242 32.2816 0.00111316 16.9092 0.000583073
10.2244 0.000352626 32.607 0.00112438 17.5807 0.000606228
9.38988 0.000323848 32.9385 0.00113581 18.182 0.000626963
8.66161 0.000298735 33.2415 0.00114626 18.7881 0.000647864
7.97773 0.000275153 33.5435 0.00115667 19.376 0.000668135
7.30725 0.000252033 33.8498 0.00116723 19.9119 0.000686617
6.71305 0.000231543 34.1206 0.00117657 20.4052 0.000703627
6.18921 0.00021348 34.3615 0.00118488 20.8577 0.000719231
5.71006 0.000196957 34.5941 0.0011929 21.2683 0.000733388
5.2942 0.000182617 34.8136 0.00120047 21.6437 0.000746334
4.94506 0.000170578 35.0123 0.00120732 21.9768 0.000757818
4.65518 0.000160582 35.1878 0.00121337 22.258 0.000767514
4.42626 0.000152688 35.3386 0.00121857 22.4912 0.000775556
4.25513 0.000146787 35.4691 0.00122307 22.682 0.000782137
4.14034 0.000142829 35.5818 0.00122696 22.8312 0.000787281
4.07716 0.00014065 35.6729 0.0012301 22.938 0.000790966
4.05331 0.000139828 35.7384 0.00123236 23.0018 0.000793163
4.07507 0.000140578 35.7789 0.00123375 22.9359 0.00079089
4.13633 0.000142691 35.7928 0.00123423 22.5959 0.000779168
4.24265 0.000146357 35.7702 0.00123346 22.0176 0.000759227
4.43986 0.000153157 35.7142 0.00123153 21.229 0.000732033
4.80974 0.000165912 35.6116 0.00122799 20.265 0.000698793
5.09484 0.000175743 35.4755 0.00122329 19.094 0.000658412
5.37152 0.000185283 35.2449 0.00121534 17.6753 0.000609491
5.60916 0.000193478 34.8769 0.00120265 16.0813 0.000554527
5.75918 0.000198651 34.3677 0.00118509 14.3274 0.000494046
5.84111 0.000201476 33.6966 0.00116195 12.432 0.000428688
5.9042 0.000203652 32.8607 0.00113313 10.4038 0.000358749
5.9261 0.000204407 31.8845 0.00109947 8.25746 0.000284739
5.83812 0.000201373 30.7954 0.00106191 6.02443 0.000207738
5.76302 0.000198783 29.6419 0.00102213 3.75616 0.000129522
5.68348 0.00019604 28.487 0.000982311 1.47937 5.10114e-05
5.53906 0.000191061 27.292 0.000941104 0.00587703 2.01342e-07
5.2886 0.000182424 26.1743 0.000902563 -0.0529894 -1.82853e-06
5.00385 0.000172605 24.9858 0.000861578 -0.348939 -1.20337e-05
4.75991 0.000164193 23.6121 0.00081421 -0.569668 -1.9645e-05
4.46587 0.000154054 22.3089 0.000769273 -0.598576 -2.06419e-05
4.18199 0.000144265 20.9234 0.000721496 -0.506985 -1.74836e-05
3.90736 0.000134795 19.5043 0.000672562 -0.492406 -1.69808e-05
3.64501 0.000125749 18.068 0.000623033 -0.623481 -2.15007e-05
3.40398 0.000117437 16.6301 0.00057345 -0.806538 -2.7813e-05
3.18763 0.000109977 15.2244 0.000524978 -0.921465 -3.1776e-05
3.01239 0.000103934 13.8408 0.00047727 -0.940217 -3.24226e-05
2.88355 9.94914e-05 12.482 0.000430414 -0.933602 -3.21945e-05
2.80523 9.67906e-05 11.1677 0.000385094 -0.976204 -3.36635e-05
2.78908 9.62338e-05 9.91824 0.000342008 -1.07172 -3.69572e-05
2.84002 9.79902e-05 8.74694 0.000301619 -1.16639 -4.02218e-05
2.96393 0.000102263 7.64919 0.000263765 -1.21436 -4.18759e-05
3.16125 0.000109067 6.62343 0.000228394 -1.22006 -4.20725e-05
3.43101 0.000118369 5.67978 0.000195854 -1.22164 -4.2127e-05
3.77708 0.000130303 4.82751 0.000166466 -1.24574 -4.29578e-05
4.19384 0.000144674 4.07961 0.000140676 -1.28441 -4.42913e-05
4.67816 0.000161374 3.42504 0.000118105 -1.31105 -4.52098e-05
5.22561 0.000180252 2.8528 9.83725e-05 -1.31056 -4.5193e-05
5.82532 0.000200932 2.36382 8.15111e-05 -1.29186 -4.45481e-05
6.47111 0.0002232 1.95693 6.74805e-05 -1.27381 -4.39256e-05
7.13256 0.000246009 1.63068 5.62303e-05 -1.26519 -4.36284e-05
7.84192 0.000270469 1.37634 4.74601e-05 -1.26096 -4.34827e-05
8.57669 0.000295807 1.19285 4.11329e-05 -1.25335 -4.32203e-05
9.29374 0.000320532 1.08308 3.73477e-05 -1.23088 -4.24455e-05
9.98935 0.000344519 1.0385 3.58106e-05 -1.19886 -4.13412e-05
10.6502 0.000367308 1.04043 3.58769e-05 -1.1629 -4.01014e-05
11.2652 0.000388513 1.03439 3.56686e-05 -1.14913 -3.96264e-05
11.8386 0.000408286 1.04116 3.59023e-05 -1.13924 -3.92854e-05
12.3721 0.000426681 1.09509 3.77617e-05 -1.11997 -3.86209e-05
12.8649 0.000443675 1.17606 4.0554e-05 -1.09251 -3.7674e-05
13.3068 0.000458914 1.25195 4.31709e-05 -1.07075 -3.69239e-05
13.6935 0.000472249 1.30886 4.51331e-05 -1.0621 -3.66254e-05
14.0283 0.000483792 1.35435 4.67019e-05 -1.0614 -3.66014e-05
14.3042 0.000493306 1.40373 4.84047e-05 -1.06066 -3.65758e-05
14.5154 0.000500591 1.4533 5.0114e-05 -1.05867 -3.65072e-05
14.6551 0.000505407 1.49913 5.16943e-05 -0.806571 -2.78141e-05
14.6826 0.000506355 1.58466 5.46437e-05 -0.263544 -9.08905e-06
14.5692 0.000502446 1.72316 5.94193e-05 0.570808 1.96817e-05
14.4124 0.000497038 1.89131 6.52177e-05 1.68514 5.8107e-05
14.1826 0.000489114 2.09759 7.23307e-05 2.01065 6.93313e-05
13.9214 0.000480106 2.19483 7.5684e-05 2.17887 7.51322e-05
13.5814 0.000468384 2.38942 8.23939e-05 2.42226 8.3525e-05
13.2004 0.000455246 2.55023 8.79392e-05 2.85414 9.84173e-05
12.7667 0.000440288 2.75422 9.49734e-05 3.30244 0.000113876
12.2879 0.00042378 3.04374 0.000104957 3.66976 0.000126542
11.7868 0.000406498 3.38823 0.000116836 3.99056 0.000137604
11.2509 0.000388022 3.79637 0.000130909 4.36514 0.000150521
10.6709 0.000368021 4.25277 0.000146647 4.84515 0.000167073
10.0692 0.000347271 4.76869 0.000164438 5.38641 0.000185737
9.4625 0.000326352 5.36912 0.000185142 5.9101 0.000203795
8.86174 0.000305636 6.05131 0.000208666 6.38993 0.000220341
8.28676 0.000285809 6.80508 0.000234658 6.8596 0.000236537
7.76886 0.00026795 7.61664 0.000262643 7.36392 0.000253927
7.31495 0.000252298 8.48297 0.000292516 7.90726 0.000272663
6.89627 0.000237861 9.40961 0.000324469 8.46081 0.000291751
6.50577 0.000224395 10.3981 0.000358555 8.99354 0.000310121
6.15996 0.000212471 11.4425 0.000394569 9.49963 0.000327572
5.87346 0.000202592 12.5266 0.000431953 9.99767 0.000344746
5.63601 0.000194404 13.6382 0.000470284 10.5068 0.000362302
5.44092 0.000187676 14.7762 0.000509525 11.0239 0.000380133
5.29745 0.000182729 15.9367 0.000549543 11.5302 0.00039759
5.20176 0.00017943 17.1137 0.000590127 12.012 0.000414204
5.14511 0.000177476 18.2944 0.000630843 12.4724 0.000430082
5.12289 0.00017671 19.4689 0.00067134 12.9231 0.000445624
5.12923 0.000176928 20.6335 0.000711499 13.3697 0.000461023
5.16229 0.000178069 21.7805 0.000751051 13.8065 0.000476085
5.21418 0.000179858 22.9034 0.000789773 14.2239 0.000490477
5.27951 0.000182111 23.9938 0.000827373 14.6178 0.000504061
5.34876 0.000184499 25.0379 0.000863376 14.9923 0.000516973
5.42918 0.000187272 26.0371 0.000897832 15.3525 0.000529396
5.51582 0.000190259 26.9831 0.000930453 15.6984 0.000541323
5.60651 0.000193386 27.8694 0.000961013 16.0262 0.000552627
5.69966 0.000196598 28.6917 0.000989369 16.3313 0.000563146
5.79644 0.000199936 29.4444 0.00101532 16.613 0.000572861
5.88952 0.000203145 30.1262 0.00103883 16.8738 0.000581854
5.97848 0.000206213 30.7327 0.00105975 17.115 0.000590173
6.06211 0.000209097 31.2617 0.00107799 17.336 0.00059779
6.13947 0.000211764 31.7132 0.00109356 17.5332 0.000604593
6.21169 0.000214255 32.0841 0.00110635 17.7051 0.000610518
6.27262 0.000216356 32.3771 0.00111645 17.8519 0.00061558
6.32066 0.000218012 32.5929 0.00112389 17.9745 0.000619809
6.35278 0.00021912 32.732 0.00112869 18.0726 0.000623192
6.36011 0.000219373 32.7978 0.00113096 18.1449 0.000625684
6.33709 0.000218579 32.7902 0.0011307 18.1938 0.000627372
6.27716 0.000216512 32.7063 0.0011278 18.215 0.000628102
6.18558 0.000213354 32.5397 0.00112206 18.1433 0.00062563
6.07116 0.000209409 32.2834 0.00111322 17.895 0.000617068
5.93666 0.000204771 31.9473 0.00110163 17.4757 0.000602608
5.78936 0.000199692 31.5312 0.00108728 16.8966 0.00058264
5.63657 0.000194423 31.0357 0.0010702 16.1486 0.000556848
5.49784 0.000189639 30.4722 0.00105077 15.2351 0.000525346
5.39618 0.000186134 29.8746 0.00103016 14.172 0.00048869
5.32059 0.000183527 29.2607 0.00100899 12.9693 0.000447217
5.26129 0.000181482 28.5836 0.000985641 11.6327 0.000401127
5.22136 0.000180106 27.8185 0.00095926 10.1652 0.000350524
5.20475 0.000179533 26.9858 0.000930546 8.57474 0.000295679
5.21589 0.000179917 26.1159 0.00090055 6.87474 0.000237059
5.24614 0.00018096 25.2214 0.000869702 5.07789 0.000175098
5.29551 0.000182662 24.2883 0.000837529 3.19432 0.000110148
5.35867 0.00018484 23.3116 0.000803849 1.2344 4.25644e-05
5.42292 0.000187056 22.3126 0.000769401 -0.00994308 -3.44179e-07
5.44613 0.000187856 21.5114 0.000741772 -0.0154763 -5.34979e-07
5.45672 0.000188221 20.7547 0.000715679 -0.226719 -7.81921e-06
5.50868 0.000190013 19.8806 0.000685537 -0.400525 -1.38125e-05
5.53312 0.000190856 19.0779 0.00065786 -0.425579 -1.46764e-05
5.56579 0.000191982 18.2267 0.000628509 -0.327505 -1.12946e-05
5.59496 0.000192988 17.408 0.000600278 -0.266534 -9.19213e-06
5.61561 0.0001937 16.6246 0.000573264 -0.322169 -1.11106e-05
5.62437 0.000194002 15.8571 0.000546795 -0.438791 -1.5132e-05
5.61604 0.000193715 15.1077 0.000520957 -0.513983 -1.77249e-05
5.58793 0.000192746 14.3733 0.000495631 -0.505208 -1.74223e-05
5.53842 0.000191039 13.66 0.000471034 -0.461621 -1.59193e-05
5.45684 0.000188225 12.9737 0.000447369 -0.45444 -1.56716e-05
5.3385 0.000184145 12.3135 0.000424605 -0.499956 -1.72412e-05
5.18862 0.000178977 11.6723 0.000402494 -0.559028 -1.92782e-05
5.0047 0.000172634 11.0448 0.000380857 -0.586642 -2.02304e-05
4.79144 0.000165281 10.4261 0.000359522 -0.573813 -1.9788e-05
4.5744 0.000157797 9.81522 0.000338456 -0.556003 -1.91738e-05
4.34268 0.000149806 9.20354 0.000317364 -0.569523 -1.964e-05
4.06112 0.000140097 8.58993 0.000296205 -0.603021 -2.07952e-05
3.74 0.000129024 7.97785 0.000275098 -0.63317 -2.18348e-05
3.4048 0.000117465 7.35881 0.000253752 -0.646576 -2.22971e-05
3.05039 0.000105244 6.72345 0.000231843 -0.650314 -2.24259e-05
2.66113 9.18218e-05 6.07068 0.000209334 -0.660464 -2.27759e-05
2.24361 7.74246e-05 5.40309 0.000186314 -0.685556 -2.36412e-05
1.80143 6.21767e-05 4.72593 0.000162963 -0.719907 -2.48257e-05
1.3372 4.61689e-05 4.03594 0.00013917 -0.75209 -2.59354e-05
0.836768 2.89126e-05 3.32876 0.000114785 -0.777492 -2.68114e-05
0.306526 1.06284e-05 2.61098 9.00338e-05 -0.801256 -2.76308e-05
-0.248397 -8.50688e-06 1.89497 6.53438e-05 -0.830688 -2.86457e-05
-0.82688 -2.84545e-05 1.18503 4.08631e-05 -0.867282 -2.99076e-05
-1.41449 -4.8717e-05 0.936035 3.22772e-05 -0.906089 -3.12457e-05
-1.86194 -6.41461e-05 0.89434 3.08394e-05 -0.856672 -2.95417e-05
-1.96398 -6.76648e-05 0.832491 2.87067e-05 -0.793764 -2.73725e-05
-2.14637 -7.3954e-05 0.847361 2.92195e-05 -0.92582 -3.19261e-05
-2.2605 -7.78896e-05 0.863106 2.97624e-05 -0.814482 -2.80869e-05
-2.37415 -8.18088e-05 0.875192 3.01792e-05 -0.502455 -1.73273e-05
-2.53286 -8.72814e-05 0.919991 3.1724e-05 -0.293178 -1.01109e-05
-2.68046 -9.23712e-05 0.953921 3.2894e-05 -0.0388909 -1.34238e-06
-2.8 -9.6493e-05 0.96899 3.34136e-05 0.346193 1.19364e-05
-2.93432 -0.000101125 1.00384 3.46154e-05 0.621587 2.14327e-05
-3.07288 -0.000105903 1.05244 3.6291e-05 0.686267 2.36631e-05
-3.18957 -0.000109927 1.08496 3.74124e-05 0.752982 2.59636e-05
-3.29975 -0.000113726 1.11191 3.83418e-05 0.808852 2.78901e-05
-3.40878 -0.000117486 1.13824 3.92497e-05 0.826811 2.85094e-05
-3.50243 -0.000120715 1.15563 3.98496e-05 0.898405 3.09782e-05
-3.5851 -0.000123566 1.16946 4.03262e-05 0.987234 3.40412e-05
-3.6601 -0.000126152 1.18425 4.08364e-05 1.04703 3.61033e-05
-3.72379 -0.000128348 1.19654 4.12601e-05 1.07029 3.69053e-05
-3.77417 -0.000130085 1.20402 4.1518e-05 1.0838 3.73711e-05
-3.81335 -0.000131436 1.20873 4.16804e-05 1.11038 3.82876e-05
-3.84144 -0.000132405 1.22561 4.22625e-05 1.15106 3.96903e-05
-3.85428 -0.000132848 1.26661 4.36764e-05 1.188 4.09644e-05
-3.84846 -0.000132647 1.3417 4.62656e-05 1.21044 4.17378e-05
-3.81074 -0.000131346 1.46529 5.05273e-05 1.21704 4.19656e-05
-3.71898 -0.000128182 1.63531 5.63902e-05 1.22434 4.22173e-05
-3.56662 -0.000122928 1.84915 6.37637e-05 1.23897 4.27217e-05
-3.3669 -0.000116041 1.91546 6.60505e-05 1.23171 4.24713e-05
-3.14748 -0.000108475 1.97612 6.81421e-05 1.12664 3.88483e-05
-2.8407 -9.78966e-05 2.04602 7.05524e-05 1.04081 3.58888e-05
-2.50152 -8.62009e-05 2.13629 7.36653e-05 0.964812 3.32681e-05
-2.31332 -7.97111e-05 2.25113 7.76255e-05 0.853997 2.94468e-05
-2.1012 -7.23967e-05 2.32511 8.01762e-05 0.79294 2.73415e-05
-1.89356 -6.52364e-05 2.39434 8.25634e-05 0.758871 2.61667e-05
-1.69355 -5.83396e-05 2.51934 8.6874e-05 0.688014 2.37233e-05
-1.47927 -5.09507e-05 2.62896 9.06538e-05 0.671651 2.31591e-05
-1.24422 -4.28455e-05 2.74284 9.45807e-05 0.666516 2.2982e-05
-1.00831 -3.47106e-05 2.87504 9.91396e-05 0.659629 2.27445e-05
-0.762837 -2.62462e-05 3.007 0.00010369 0.697997 2.40675e-05
-0.513345 -1.7643e-05 3.14568 0.000108472 0.76466 2.63663e-05
-0.262551 -8.99491e-06 3.30007 0.000113796 0.848866 2.92699e-05
-0.00722582 -1.90613e-07 3.46312 0.000119418 0.964407 3.32541e-05
0.248286 8.62016e-06 3.63128 0.000125217 1.1161 3.84848e-05
0.501324 1.73456e-05 3.80953 0.000131363 1.30468 4.49878e-05
0.753986 2.60581e-05 3.99647 0.00013781 1.53736 5.3011e-05
1.0041 3.46828e-05 4.19016 0.000144488 1.64945 5.68763e-05
1.2555 4.33517e-05 4.38412 0.000151177 1.74596 6.02043e-05
1.50402 5.19214e-05 4.58702 0.000158173 1.83887 6.3408e-05
1.74492 6.02281e-05 4.80194 0.000165584 1.94741 6.71507e-05
1.98498 6.85062e-05 5.01855 0.000173053 2.07468 7.15393e-05
2.21919 7.65822e-05 5.24158 0.000180744 2.21842 7.64959e-05
2.44689 8.44341e-05 5.47401 0.000188759 2.37128 8.1767e-05
2.6714 9.21758e-05 5.7122 0.000196972 2.53361 8.73646e-05
2.89216 9.97881e-05 5.95602 0.00020538 2.707 9.33436e-05
3.10776 0.000107223 6.2072 0.000214041 2.89349 9.97744e-05
3.32001 0.000114542 6.46403 0.000222898 3.09476 0.000106714
3.52337 0.000121554 6.72666 0.000231954 3.30863 0.000114089
3.73042 0.000128694 6.99643 0.000241256 3.53151 0.000121775
3.9391 0.00013589 7.27302 0.000250794 3.76331 0.000129768
4.13726 0.000142723 7.5559 0.000260548 4.0051 0.000138106
4.32932 0.000149346 7.84341 0.000270463 4.25707 0.000146794
4.52455 0.000156078 8.13651 0.000280569 4.51747 0.000155774
4.72304 0.000162922 8.43652 0.000290915 4.78497 0.000164998
4.92172 0.000169773 8.74239 0.000301462 5.05918 0.000174453
5.1224 0.000176693 9.05372 0.000312197 5.33927 0.000184112
5.33139 0.0001839 9.37047 0.00032312 5.62444 0.000193945
5.55076 0.000191464 9.69269 0.000334231 5.91432 0.000203941
5.77873 0.000199325 10.021 0.000345552 6.20821 0.000214075
6.01593 0.000207504 10.3549 0.000357065 6.50452 0.000224292
6.26391 0.000216055 10.6943 0.000368769 6.80161 0.000234537
6.5231 0.000224993 11.0394 0.000380668 7.09858 0.000244777
6.79202 0.000234266 11.3902 0.000392766 7.39486 0.000254994
7.06908 0.00024382 11.7475 0.000405085 7.68957 0.000265156
7.35417 0.000253651 12.1107 0.00041761 7.98146 0.000275221
7.64611 0.000263718 12.4798 0.000430337 8.26945 0.000285152
7.94339 0.000273969 12.8547 0.000443266 8.55312 0.000294934
8.24439 0.000284348 13.2352 0.000456386 8.8324 0.000304564
8.54704 0.000294784 13.6215 0.000469707 9.10719 0.00031404
8.84986 0.000305226 14.0129 0.000483202 9.37736 0.000323356
9.15011 0.00031558 14.4084 0.00049684 9.64295 0.000332514
9.44543 0.000325763 14.8074 0.000510601 9.90438 0.000341529
9.73426 0.000335723 15.2089 0.000524445 10.1625 0.000350431
10.0143 0.000345378 15.6124 0.000538359 10.4184 0.000359254
10.2816 0.000354596 16.0154 0.000552255 10.6733 0.000368043
10.5369 0.000363401 16.417 0.000566104 10.9286 0.000376846
10.7816 0.000371838 16.817 0.000579896 11.1844 0.000385667
11.0123 0.000379791 17.2128 0.000593545 11.4433 0.000394597
11.2306 0.00038732 17.6037 0.000607025 11.7061 0.000403656
11.4361 0.000394407 17.9883 0.000620286 11.9741 0.000412898
11.6283 0.000401034 18.3652 0.000633283 12.248 0.000422343
11.8058 0.000407156 18.7333 0.000645976 12.5286 0.000432018
11.9688 0.000412777 19.091 0.000658312 12.8161 0.000441932
12.1167 0.000417877 19.4377 0.000670264 13.1106 0.000452089
12.2497 0.00042246 19.7725 0.00068181 13.4121 0.000462484
12.3677 0.000426531 20.0946 0.000692916 13.72 0.000473101
12.4708 0.000430086 20.4038 0.000703581 14.0334 0.000483908
12.5601 0.000433167 20.6997 0.000713781 14.3511 0.000494863
12.6364 0.000435797 20.9817 0.000723508 14.6716 0.000505916
12.7009 0.000438022 21.25 0.000732757 14.9934 0.000517011
12.7564 0.000439935 21.5042 0.000741523 15.3146 0.00052809
12.8046 0.000441598 21.7452 0.000749834 15.6335 0.000539084
12.8475 0.000443077 21.9733 0.000757701 15.9476 0.000549915
12.887 0.000444438 22.1889 0.000765135 16.2542 0.000560489
12.925 0.000445748 22.3924 0.000772153 16.5507 0.000570713
12.9645 0.00044711 22.5838 0.000778751 16.8347 0.000580505
13.0083 0.00044862 22.7641 0.000784968 17.104 0.000589791
13.0604 0.000450417 22.9343 0.000790838 17.3565 0.000598498
13.1237 0.000452599 23.095 0.000796381 17.59 0.000606549
13.2033 0.000455344 23.2471 0.000801623 17.8024 0.000613874
13.3011 0.000458718 23.3905 0.000806568 17.992 0.000620413
13.4183 0.000462758 23.5261 0.000811246 18.1573 0.000626113
13.5575 0.000467557 23.6548 0.000815683 18.2968 0.000630922
13.7203 0.000473174 23.7771 0.000819899 18.4092 0.000634798
13.9065 0.000479591 23.894 0.000823932 18.4936 0.000637708
14.1157 0.000486807 24.0056 0.000827778 18.5494 0.000639634
14.3476 0.000494802 24.1123 0.000831458 18.5765 0.000640567
14.602 0.000503576 24.2136 0.000834952 18.4369 0.000635752
14.8807 0.000513187 24.3005 0.000837949 18.1451 0.000625691
15.1813 0.000523552 24.3747 0.000840508 17.704 0.00061048
15.4987 0.000534497 24.44 0.000842758 17.1209 0.000590373
15.832 0.00054599 24.4954 0.000844669 16.4009 0.000565547
16.177 0.000557886 24.5431 0.000846313 15.5528 0.000536303
16.5293 0.000570033 24.5841 0.000847729 14.5984 0.000503391
16.8855 0.000582318 24.6176 0.000848884 13.5705 0.000467947
17.2428 0.000594637 24.6444 0.000849807 12.4956 0.000430882
17.5968 0.000606844 24.6665 0.000850569 11.393 0.000392862
17.9409 0.000618711 24.6839 0.000851169 10.2849 0.00035465
18.2764 0.00063028 24.6987 0.000851679 9.19304 0.000317
18.5975 0.000641351 24.711 0.000852104 8.14462 0.000280848
18.9001 0.000651786 24.7213 0.00085246 7.16628 0.000247112
19.1818 0.000661501 24.7305 0.000852776 6.27675 0.000216438
19.439 0.000670368 24.74 0.000853104 5.49185 0.000189373
19.6686 0.000678288 24.7502 0.000853456 4.82468 0.000166367
19.8674 0.00068514 24.7616 0.000853849 4.28899 0.000147895
20.0334 0.000690866 24.7746 0.000854298 3.8957 0.000134333
20.1653 0.000695414 24.7894 0.000854808 3.65181 0.000125923
20.2616 0.000698736 24.8068 0.000855408 3.55954 0.000122741
20.3221 0.000700822 24.8231 0.000855968 3.6179 0.000124754
20.3436 0.000701562 24.8143 0.000855664 3.81628 0.000131595
20.319 0.000700713 24.7789 0.000854445 4.13871 0.000142713
20.2407 0.000698012 24.7043 0.000851872 4.58831 0.000158216
20.1006 0.000693184 24.5965 0.000848154 5.15482 0.000177751
19.896 0.000686128 24.4682 0.000843733 5.82558 0.000200881
19.6298 0.000676947 24.3222 0.000838696 6.58299 0.000226998
19.3104 0.000665933 24.1621 0.000833176 7.41163 0.000255572
18.9555 0.000653696 23.9939 0.000827376 8.29319 0.000285971
18.5731 0.00064051 23.8289 0.000821685 9.2105 0.000317602
18.1746 0.00062677 23.6743 0.000816355 10.1439 0.000349789
17.7758 0.000613018 23.5358 0.00081158 11.0731 0.000381828
17.3923 0.000599792 23.4195 0.000807571 11.9807 0.000413128
17.0397 0.000587633 23.3345 0.000804637 12.8506 0.000443124
16.7217 0.000576669 23.2865 0.000802982 13.6665 0.000471257
16.4439 0.000567089 23.2735 0.000802536 14.4125 0.000496983
16.2094 0.000559002 23.2949 0.000803273 15.0727 0.000519747
16.0158 0.000552326 23.3524 0.000805254 15.6366 0.000539193
15.8637 0.000547082 23.4454 0.000808462 16.0956 0.000555018
15.7507 0.000543185 23.5763 0.000812975 16.4453 0.000567079
15.6734 0.000540521 23.7438 0.00081875 16.6828 0.000575269
15.6314 0.000539073 23.9433 0.000825633 16.8086 0.000579605
15.6167 0.000538564 24.1731 0.000833554 16.8257 0.000580195
15.6258 0.000538879 24.4261 0.000842281 16.7404 0.000577254
15.6526 0.000539805 24.6974 0.000851634 16.5614 0.00057108
15.6859 0.000540953 24.9784 0.000861323 16.2984 0.000562012
15.6998 0.000541431 25.2533 0.000870802 15.9519 0.000550064
15.6981 0.000541373 25.4901 0.000878968 15.5484 0.00053615
15.6872 0.000540997 25.7283 0.000887181 15.1028 0.000520786
15.6505 0.00053973 25.9614 0.000895219 14.6334 0.0005046
15.5466 0.000536149 25.9444 0.000894636 14.1223 0.000486976
15.3689 0.000530021 25.9805 0.000895878 13.544 0.000467032
15.1887 0.000523807 25.9565 0.000895053 13.0866 0.00045126
14.926 0.000514749 25.9323 0.000894219 12.6358 0.000435716
14.5983 0.000503448 25.91 0.000893447 12.2231 0.000421486
14.2206 0.000490424 25.8583 0.000891667 11.9055 0.000410534
13.7654 0.000474728 25.7662 0.000888489 11.6451 0.000401553
13.2372 0.000456514 25.6026 0.00088285 11.4453 0.000394662
12.6179 0.000435157 25.3407 0.000873817 11.3159 0.000390201
11.9321 0.000411512 24.9881 0.000861658 11.2475 0.000387843
11.2132 0.000386722 24.5501 0.000846555 11.2528 0.000388028
10.4533 0.000360518 24.0683 0.000829941 11.3287 0.000390643
9.62678 0.000332016 23.5093 0.000810664 11.4629 0.00039527
8.7418 0.0003015 22.8515 0.000787984 11.6473 0.000401631
7.83242 0.000270142 22.1049 0.000762238 11.879 0.000409619
6.91604 0.000238543 21.3372 0.000735766 12.1521 0.000419036
5.9745 0.000206076 20.5419 0.000708341 12.4449 0.000429135
5.01224 0.000172894 19.6795 0.000678604 12.7335 0.000439086
4.04815 0.00013965 18.7424 0.000646289 12.9918 0.000447992
3.09404 0.00010675 17.75 0.000612069 13.207 0.000455414
2.14924 7.41704e-05 16.738 0.000577171 13.3639 0.000460822
1.2324 4.2555e-05 15.7137 0.000541851 13.4393 0.000463424
0.361085 1.25097e-05 14.6721 0.000505935 13.4071 0.000462313
-0.483857 -1.66262e-05 13.6078 0.000469236 13.2508 0.000456922
-1.28468 -4.42406e-05 12.5365 0.000432292 12.9583 0.000446836
-2.03671 -7.01727e-05 11.4813 0.000395908 12.5165 0.000431602
-2.19539 -7.56445e-05 10.5066 0.000362296 11.8969 0.000410237
-2.35325 -8.1088e-05 9.78195 0.000337309 11.0133 0.000379768
-2.44257 -8.4168e-05 8.81671 0.000304024 10.0421 0.000346278
-2.5096 -8.64794e-05 7.96229 0.000274562 8.90387 0.000307029
-2.56124 -8.82601e-05 7.20464 0.000248436 7.56061 0.000260709
-2.59442 -8.94041e-05 6.40946 0.000221016 6.10739 0.000210598
-2.61723 -9.01907e-05 5.66867 0.000195472 4.48881 0.000154785
-2.61595 -9.01465e-05 4.94354 0.000170467 2.75556 9.5018e-05
-2.59776 -8.95195e-05 4.25714 0.000146798 0.927753 3.19902e-05
-2.57291 -8.86625e-05 3.62025 0.000124836 -0.269291 -9.28721e-06
-2.54566 -8.7723e-05 3.18306 0.000109761 -0.103378 -3.56608e-06
-2.52694 -8.70774e-05 2.835 9.77586e-05 -0.138221 -4.76754e-06
-2.49222 -8.58802e-05 2.38748 8.23271e-05 -0.306394 -1.05666e-05
-2.45687 -8.4661e-05 2.04762 7.06078e-05 -0.432566 -1.49174e-05
-2.41998 -8.3389e-05 1.67326 5.76987e-05 -0.389744 -1.34407e-05
-2.35389 -8.111e-05 1.34746 4.64644e-05 -0.262875 -9.06595e-06
-2.25874 -7.7829e-05 1.1935 4.11552e-05 -0.177702 -6.12898e-06
-2.22322 -7.66041e-05 1.04279 3.59583e-05 -0.203545 -7.02012e-06
-2.17117 -7.48094e-05 0.930409 3.20832e-05 -0.30827 -1.06313e-05
-2.1237 -7.31725e-05 0.821248 2.8319e-05 -0.346549 -1.19513e-05
-2.08445 -7.1819e-05 0.703622 2.42629e-05 -0.293017 -1.01054e-05
-2.07166 -7.13779e-05 0.594312 2.04936e-05 -0.225313 -7.77073e-06
-2.07257 -7.14093e-05 0.508856 1.75469e-05 -0.221181 -7.62824e-06
-2.07475 -7.14844e-05 0.436806 1.50624e-05 -0.275824 -9.5125e-06
-2.09419 -7.21548e-05 0.368945 1.27224e-05 -0.327616 -1.12984e-05
-2.13844 -7.36807e-05 0.31163 1.0746e-05 -0.342785 -1.18215e-05
