0.0025 -9.14641e-06
0.0125 -9.12882e-06
0.0225 -9.09513e-06
0.035 -9.14608e-06
0.045 -9.38761e-06
0.055 -9.96036e-06
0.065 -1.10377e-05
0.075 -1.28221e-05
0.085 -1.55423e-05
0.095 -1.94485e-05
0.105 -2.48095e-05
0.115 -3.19075e-05
0.125 -4.10357e-05
0.135 -5.2504e-05
0.145 -6.65691e-05
0.155 -8.34745e-05
0.165 -0.000103405
0.175 -0.00012646
0.185 -0.000152623
0.195 -0.00018174
0.205 -0.000213509
0.215 -0.000247463
0.225 -0.000282975
0.235 -0.000319247
0.245 -0.000355309
0.255 -0.000389999
0.265 -0.000421964
0.275 -0.000449691
0.285 -0.000471477
0.295 -0.000485545
0.305 -0.000490156
0.315 -0.000483803
0.325 -0.000465231
0.335 -0.000433605
0.345 -0.000388571
0.355 -0.000330303
0.365 -0.00025948
0.375 -0.000177298
0.385 -8.53847e-05
0.395 1.431e-05
0.405 0.00011949
0.415 0.000227702
0.425 0.000336386
0.435 0.000442985
0.445 0.000544991
0.455 0.000639991
0.465 0.000725705
0.475 0.00080008
0.485 0.000861371
0.495 0.000908267
0.5075 0.000945547
0.52 0.000959244
0.5325 0.000951471
0.545 0.000926649
0.5575 0.000891499
0.57 0.000854764
0.5825 0.000826687
0.595 0.000818179
0.6075 0.000839772
0.62 0.000900537
0.6325 0.00100716
0.645 0.00116335
0.6575 0.00136963
0.67 0.00162328
0.6825 0.00191871
0.695 0.00224778
0.7075 0.00260036
0.72 0.00296484
0.7325 0.00332874
0.745 0.00367942
0.7575 0.00400498
0.77 0.00429505
0.7825 0.00454146
0.795 0.00473856
0.8075 0.00488339
0.82 0.00497566
0.8325 0.00501764
0.845 0.00501396
0.8575 0.00497129
0.87 0.00489795
0.8825 0.00480345
0.895 0.00469798
0.9075 0.00459187
0.92 0.00449504
0.9325 0.00441655
0.945 0.00436424
0.9575 0.00434448
0.97 0.0043619
0.9825 0.00441913
0.995 0.00451634
1.005 0.00462132
1.0175 0.00478225
1.03 0.00496892
1.0425 0.00517111
1.055 0.00537653
1.0675 0.00557148
1.08 0.00574156
1.0925 0.00587238
1.105 0.00595038
1.1175 0.00596341
1.13 0.00590141
1.1425 0.00575688
1.155 0.00552527
1.1675 0.00520513
1.18 0.00479831
1.1925 0.00430994
1.205 0.00374862
1.2175 0.0031262
1.23 0.0024574
1.2425 0.00175923
1.255 0.00105027
1.2675 0.000349859
1.28 -0.000322733
1.2925 -0.000949434
1.305 -0.00151407
1.3175 -0.00200358
1.33 -0.00240888
1.3425 -0.00272539
1.355 -0.00295287
1.3675 -0.00309513
1.38 -0.00315968
1.3925 -0.00315736
1.405 -0.00310172
1.4175 -0.00300868
1.43 -0.00289585
1.4425 -0.00278168
1.455 -0.00268479
1.4675 -0.00262316
1.48 -0.00261348
1.4925 -0.00267045
1.505 -0.00280606
1.5175 -0.00302885
1.53 -0.00334314
1.5425 -0.00374836
1.555 -0.00423873
1.5675 -0.00480323
1.58 -0.00542608
1.5925 -0.00608744
1.605 -0.00676449
1.6175 -0.00743269
1.63 -0.00806724
1.6425 -0.00864444
1.655 -0.00914294
1.6675 -0.00954491
1.68 -0.0098366
1.6925 -0.0100084
1.705 -0.0100631
1.7175 -0.00999973
1.73 -0.00982832
1.7425 -0.0095639
1.755 -0.00922498
1.7675 -0.00881418
1.78 -0.00835202
1.7925 -0.00785363
1.805 -0.00733784
1.8175 -0.00682405
1.83 -0.00633065
1.8425 -0.00587546
1.855 -0.00547506
1.8675 -0.00514343
1.88 -0.00489197
1.8925 -0.00472913
1.905 -0.00465994
1.9175 -0.00468588
1.93 -0.00480492
1.9425 -0.00501168
1.955 -0.00529876
1.9675 -0.00565292
1.98 -0.0060569
1.9925 -0.00649018
2.0025 -0.00684275
2.0125 -0.00718759
2.0225 -0.00751274
2.0325 -0.00780673
2.0425 -0.00805897
2.0525 -0.00826015
2.0625 -0.0084025
2.0725 -0.00848008
2.0825 -0.00848892
2.0925 -0.00842709
2.1025 -0.00829473
2.1125 -0.00809381
2.1225 -0.00782803
2.1325 -0.00750254
2.1425 -0.00712377
2.1525 -0.00669921
2.1625 -0.00623724
2.1725 -0.00574697
2.1825 -0.00523804
2.1925 -0.00472031
2.2025 -0.00420362
2.2125 -0.00369748
2.2225 -0.00321081
2.2325 -0.00275173
2.2425 -0.0023273
2.2525 -0.00194337
2.2625 -0.00160438
2.2725 -0.00131328
2.2825 -0.00107144
2.2925 -0.000878662
2.3025 -0.000733213
2.3125 -0.000631904
2.3225 -0.000570238
2.3325 -0.000542563
2.3425 -0.000541311
2.3525 -0.000556743
2.3625 -0.000590087
2.3725 -0.000632918
2.3825 -0.000679601
2.3925 -0.000723968
2.4025 -0.000760158
2.4125 -0.000782401
2.4225 -0.000785238
2.4325 -0.000763786
2.4425 -0.000713599
2.4525 -0.000630737
2.4625 -0.000511898
2.4725 -0.000354898
2.4825 -0.000158255
2.4925 7.86769e-05
2.5025 0.000355541
2.5125 0.000671004
2.5225 0.00102275
2.5325 0.00140757
2.5425 0.00182146
2.5525 0.00225972
2.5625 0.00271699
2.5725 0.00318738
2.5825 0.00366459
2.5925 0.004142
2.6025 0.0046128
2.6125 0.00507013
2.6225 0.00550715
2.6325 0.00591723
2.6425 0.00629408
2.6525 0.00663185
2.6625 0.00692531
2.6725 0.00716995
2.6825 0.00736214
2.6925 0.00749921
2.7025 0.00757961
2.7125 0.00760294
2.7225 0.00756998
2.7325 0.00748276
2.7425 0.00734451
2.7525 0.00715963
2.7625 0.00693359
2.7725 0.00667286
2.7825 0.00638477
2.7925 0.00607728
2.8025 0.00575883
2.8125 0.00543809
2.8225 0.0051237
2.8325 0.00482405
2.8425 0.00454708
2.8525 0.00430004
2.8625 0.00408931
2.8725 0.00392022
2.8825 0.00379697
2.8925 0.00372245
2.9025 0.00369822
2.9125 0.00372461
2.9225 0.00380215
2.9325 0.00392605
2.9425 0.00409256
2.9525 0.00429712
2.9625 0.00453384
2.9725 0.00479707
2.9825 0.00507994
2.9925 0.00537547
3.0025 0.00567612
3.0125 0.0059738
3.0225 0.00626042
3.0325 0.00652808
3.0425 0.00676883
3.0525 0.00697504
3.0625 0.00713956
3.0725 0.00725591
3.0825 0.00731843
3.0925 0.00732252
3.1025 0.00726492
3.1125 0.00714379
3.1225 0.00695885
3.1325 0.00671144
3.1425 0.00640451
3.1525 0.00604271
3.1625 0.00563223
3.1725 0.00518077
3.1825 0.00469734
3.1925 0.00419204
3.2025 0.00367575
3.2125 0.00315978
3.2225 0.00265552
3.2325 0.00217408
3.2425 0.00172589
3.2525 0.00132035
3.2625 0.000965517
3.2725 0.000667868
3.2825 0.000432088
3.2925 0.000260923
3.3025 0.000155074
3.3125 0.000113162
3.3225 0.000131755
3.3325 0.000205469
3.3425 0.000327125
3.3525 0.00048797
3.3625 0.00067793
3.3725 0.000885909
3.3825 0.0011001
3.3925 0.00130507
3.4025 0.00149155
3.4125 0.00165318
3.4225 0.00177908
3.4325 0.00186127
3.4425 0.00189213
3.4525 0.00186551
3.4625 0.00177644
3.4725 0.00162176
3.4825 0.00139964
3.4925 0.00111042
3.5025 0.000755996
3.5125 0.000340147
3.5225 -0.000131541
3.5325 -0.000652297
3.5425 -0.00121372
3.5525 -0.00180633
3.5625 -0.00241964
3.5725 -0.00304257
3.5825 -0.0036632
3.5925 -0.00426946
3.6025 -0.00484944
3.6125 -0.00539175
3.6225 -0.005886
3.6325 -0.00632313
3.6425 -0.00669581
3.6525 -0.00699856
3.6625 -0.00722924
3.6725 -0.00738539
3.6825 -0.00746629
3.6925 -0.00747402
3.7025 -0.0074121
3.7125 -0.00728608
3.7225 -0.00710288
3.7325 -0.00687068
3.7425 -0.00659879
3.7525 -0.00629736
3.7625 -0.00597707
3.7725 -0.00564884
3.7825 -0.00532359
3.7925 -0.00501187
3.8025 -0.00472365
3.8125 -0.00446798
3.8225 -0.00425284
3.8325 -0.00408487
3.8425 -0.00396923
3.8525 -0.00390946
3.8625 -0.00390742
3.8725 -0.00396321
3.8825 -0.00407517
3.8925 -0.00423991
3.9025 -0.00445296
3.9125 -0.00470783
3.9225 -0.00499645
3.9325 -0.00530987
3.9425 -0.00563826
3.9525 -0.00597132
3.9625 -0.00629865
3.9725 -0.00661014
3.9825 -0.00689625
3.9925 -0.00714832
4.0025 -0.00735886
4.0125 -0.00752173
4.0225 -0.0076322
4.0325 -0.00768703
4.0425 -0.00768457
4.0525 -0.00762472
4.0625 -0.00750894
4.0725 -0.00734014
4.0825 -0.00712258
4.0925 -0.0068618
4.1025 -0.00656443
4.1125 -0.00623812
4.1225 -0.00589131
4.1325 -0.00553307
4.1425 -0.0051728
4.1525 -0.00481995
4.1625 -0.00448371
4.1725 -0.00417278
4.1825 -0.00389515
4.1925 -0.00365785
4.2025 -0.0034668
4.2125 -0.00332671
4.2225 -0.00324092
4.2325 -0.0032114
4.2425 -0.00323864
4.2525 -0.00332168
4.2625 -0.00345801
4.2725 -0.00364364
4.2825 -0.0038731
4.2925 -0.00413954
4.3025 -0.00443482
4.3125 -0.00474965
4.3225 -0.0050738
4.3325 -0.00539634
4.3425 -0.00570588
4.3525 -0.00599095
4.3625 -0.00624029
4.3725 -0.00644322
4.3825 -0.00658998
4.3925 -0.00667208
4.4025 -0.00668258
4.4125 -0.00661627
4.4225 -0.00646986
4.4325 -0.00624208
4.4425 -0.00593374
4.4525 -0.00554771
4.4625 -0.00508884
4.4725 -0.00456304
4.4825 -0.00397847
4.4925 -0.00334869
4.5025 -0.00268334
4.5125 -0.00199497
4.5225 -0.0012961
4.5325 -0.000599936
4.5425 8.09214e-05
4.5525 0.000734716
4.5625 0.00134955
4.5725 0.00191512
4.5825 0.00242225
4.5925 0.0028632
4.6025 0.00323196
4.6125 0.00352459
4.6225 0.00373905
4.6325 0.00387526
4.6425 0.00393524
4.6525 0.00392313
4.6625 0.00384487
4.6725 0.00370818
4.6825 0.00352235
4.6925 0.00329806
4.7025 0.00304704
4.7125 0.0027818
4.7225 0.00251532
4.7325 0.0022607
4.7425 0.00203071
4.7525 0.00183753
4.7625 0.0016916
4.7725 0.0016008
4.7825 0.0015773
4.7925 0.00162363
4.8025 0.00174385
4.8125 0.00194033
4.8225 0.00221203
4.8325 0.0025566
4.8425 0.00296893
4.8525 0.00344175
4.8625 0.00396633
4.8725 0.00453243
4.8825 0.00512869
4.8925 0.00574281
4.9025 0.00636191
4.9125 0.00697303
4.9225 0.00756349
4.9325 0.00812113
4.9425 0.00863464
4.9525 0.0090937
4.9625 0.00946913
4.9725 0.00975188
4.9825 0.00999223
4.9925 0.010161
5.0025 0.0102586
5.0125 0.0102981
5.0225 0.01028
5.0325 0.0101918
5.0425 0.0100386
5.0525 0.00982536
5.0625 0.00955664
5.0725 0.00924006
5.0825 0.0088843
5.0925 0.0084986
5.1025 0.00809258
5.1125 0.00767669
5.1225 0.00726166
5.1325 0.00685794
5.1425 0.00647562
5.1525 0.0061243
5.1625 0.0058128
5.1725 0.00554887
5.1825 0.0053391
5.1925 0.00518875
5.2025 0.0051016
5.2125 0.00507994
5.2225 0.00512497
5.2325 0.00523545
5.2425 0.00540797
5.2525 0.00563739
5.2625 0.00591688
5.2725 0.00623821
5.2825 0.00659193
5.2925 0.00696771
5.3025 0.00735459
5.3125 0.00774132
5.3225 0.00811668
5.3325 0.00846974
5.3425 0.00879016
5.3525 0.00906848
5.3625 0.00929636
5.3725 0.00946681
5.3825 0.00957435
5.3925 0.0096152
5.4025 0.00958738
5.4125 0.00949077
5.4225 0.00932713
5.4325 0.00909998
5.4425 0.00881453
5.4525 0.00847741
5.4625 0.00809647
5.4725 0.00768046
5.4825 0.00723882
5.4925 0.00678134
5.5025 0.00631793
5.5125 0.00585824
5.5225 0.00541149
5.5325 0.00498611
5.5425 0.00458953
5.5525 0.00422798
5.5625 0.0039063
5.5725 0.00362793
5.5825 0.00339486
5.5925 0.00320776
5.6025 0.00306602
5.6125 0.00296786
5.6225 0.00291048
5.6325 0.00289011
5.6425 0.00290215
5.6525 0.00294128
5.6625 0.00300164
5.6725 0.00307688
5.6825 0.00316039
5.6925 0.0032454
5.7025 0.00332514
5.7125 0.00339306
5.7225 0.00344295
5.7325 0.00346927
5.7425 0.00346637
5.7525 0.0034299
5.7625 0.00335525
5.7725 0.00323444
5.7825 0.00307676
5.7925 0.00287838
5.8025 0.00264142
5.8125 0.00236792
5.8225 0.00206125
5.8325 0.00172754
5.8425 0.00137053
5.8525 0.000991628
5.8625 0.000598481
5.8725 0.000195433
5.8825 -0.000211473
5.8925 -0.000616055
5.9025 -0.00101211
5.9125 -0.00139388
5.9225 -0.00175584
5.9325 -0.0020926
5.9425 -0.00239944
5.9525 -0.00267245
5.9625 -0.00290843
5.9725 -0.00310496
5.9825 -0.00326056
5.9925 -0.00337475
6.0025 -0.00344801
6.0125 -0.00348179
6.0225 -0.00347845
6.0325 -0.00344127
6.0425 -0.0033743
6.0525 -0.00328228
6.0625 -0.00317044
6.0725 -0.00304492
6.0825 -0.00291169
6.0925 -0.00277727
6.1025 -0.00264817
6.1125 -0.00253081
6.1225 -0.00243139
6.1325 -0.00235567
6.1425 -0.00230893
6.1525 -0.00229582
6.1625 -0.00232016
6.1725 -0.00238489
6.1825 -0.00249192
6.1925 -0.00264202
6.2025 -0.00283479
6.2125 -0.00306865
6.2225 -0.00334081
6.2325 -0.00364733
6.2425 -0.00398327
6.2525 -0.00434277
6.2625 -0.00471925
6.2725 -0.00510564
6.2825 -0.0054948
6.2925 -0.00587886
6.3025 -0.0062502
6.3125 -0.00660155
6.3225 -0.00692621
6.3325 -0.00721828
6.3425 -0.00747278
6.3525 -0.00768568
6.3625 -0.007855
6.3725 -0.00797887
6.3825 -0.00805553
6.3925 -0.00808554
6.4025 -0.00806995
6.4125 -0.00801101
6.4225 -0.00791197
6.4325 -0.00777713
6.4425 -0.0076114
6.4525 -0.00742034
6.4625 -0.0072105
6.4725 -0.00698794
6.4825 -0.00675942
6.4925 -0.00653143
6.5025 -0.00631034
6.5125 -0.00610206
6.5225 -0.00591195
6.5325 -0.00574475
6.5425 -0.00560467
6.5525 -0.00549459
6.5625 -0.005416
6.5725 -0.00536908
6.5825 -0.00535263
6.5925 -0.00536413
6.6025 -0.00539978
6.6125 -0.00545478
6.6225 -0.0055234
6.6325 -0.00559931
6.6425 -0.00567575
6.6525 -0.00574576
6.6625 -0.00580238
6.6725 -0.00583892
6.6825 -0.00584912
6.6925 -0.0058274
6.7025 -0.00576898
6.7125 -0.00566997
6.7225 -0.00552751
6.7325 -0.00533984
6.7425 -0.0051064
6.7525 -0.00482785
6.7625 -0.0045061
6.7725 -0.00414422
6.7825 -0.00374637
6.7925 -0.00331764
6.8025 -0.00286385
6.8125 -0.00239139
6.8225 -0.00190696
6.8325 -0.00141742
6.8425 -0.000929553
6.8525 -0.000449946
6.8625 1.51774e-05
6.8725 0.000456785
6.8825 0.000873635
6.8925 0.00126213
6.9025 0.00162089
6.9125 0.00194423
6.9225 0.00222906
6.9325 0.00247352
6.9425 0.00267591
6.9525 0.00283616
6.9625 0.00295492
6.9725 0.00303352
6.9825 0.00307417
6.9925 0.00307998
7.0025 0.00305483
7.0125 0.00300322
7.0225 0.00293016
7.0325 0.0028412
7.0425 0.00274223
7.0525 0.00263934
7.0625 0.00253869
7.0725 0.00244633
7.0825 0.00236813
7.0925 0.00230954
7.1025 0.00227554
7.1125 0.00227043
7.1225 0.00229772
7.1325 0.00236005
7.1425 0.00245904
7.1525 0.00259525
7.1625 0.00276816
7.1725 0.00297616
7.1825 0.00321663
7.1925 0.00348597
7.2025 0.00377979
7.2125 0.00409297
7.2225 0.00441989
7.2325 0.00475458
7.2425 0.00509088
7.2525 0.00542262
7.2625 0.00574379
7.2725 0.00604875
7.2825 0.00633248
7.2925 0.00658999
7.3025 0.00681772
7.3125 0.00701255
7.3225 0.00717231
7.3325 0.00729574
7.3425 0.00738255
7.3525 0.00743351
7.3625 0.00745029
7.3725 0.00743545
7.3825 0.00739241
7.3925 0.00732532
7.4025 0.00723895
7.4125 0.00713846
7.4225 0.00702932
7.4325 0.00691765
7.4425 0.00680918
7.4525 0.00670981
7.4625 0.00662552
7.4725 0.00656205
7.4825 0.00652024
7.4925 0.00650401
7.5025 0.00651557
7.5125 0.00655696
7.5225 0.00662948
7.5325 0.00673347
7.5425 0.00686863
7.5525 0.00703383
7.5625 0.00722739
7.5725 0.00744558
7.5825 0.00768673
7.5925 0.0079473
7.6025 0.00822362
7.6125 0.00851092
7.6225 0.008804
7.6325 0.0090975
7.6425 0.00938572
7.6525 0.00966276
7.6625 0.00992276
7.6725 0.01016
7.6825 0.010369
7.6925 0.0105449
7.7025 0.0106834
7.7125 0.0107809
7.7225 0.0108349
7.7325 0.0108435
7.7425 0.0108062
7.7525 0.0107233
7.7625 0.0105968
7.7725 0.0104292
7.7825 0.0102245
7.7925 0.00998741
7.8025 0.00972328
7.8125 0.00943801
7.8225 0.00913772
7.8325 0.00882854
7.8425 0.00851644
7.8525 0.00820706
7.8625 0.00790554
7.8725 0.00761644
7.8825 0.00734357
7.8925 0.00708993
7.9025 0.00685767
7.9125 0.00664798
7.9225 0.00646113
7.9325 0.00629643
7.9425 0.00615228
7.9525 0.00602626
7.9625 0.00591515
7.9725 0.0058151
7.9825 0.00572172
7.9925 0.00563024
8.0025 0.00553565
8.015 0.00540541
8.0275 0.00525301
8.04 0.00506994
8.0525 0.00484925
8.065 0.00458595
8.0775 0.00427675
8.09 0.00392109
8.1025 0.00352009
8.115 0.00307683
8.1275 0.00259615
8.14 0.00208064
8.1525 0.00154282
8.165 0.00100343
8.1775 0.000464122
8.19 -6.06013e-05
8.2025 -0.000561528
8.215 -0.00103015
8.2275 -0.00145838
8.24 -0.00184033
8.2525 -0.00217204
8.265 -0.00245093
8.2775 -0.0026765
8.29 -0.0028502
8.3025 -0.00297497
8.315 -0.00305537
8.3275 -0.00309742
8.34 -0.00310832
8.3525 -0.00309622
8.365 -0.0030699
8.3775 -0.00303848
8.39 -0.00301102
8.4025 -0.00299619
8.415 -0.00300195
8.4275 -0.00303524
8.44 -0.00310177
8.4525 -0.00320584
8.465 -0.00335018
8.4775 -0.00353596
8.49 -0.00376274
8.5025 -0.00402847
8.515 -0.00432955
8.5275 -0.00466091
8.54 -0.00501615
8.5525 -0.00538773
8.565 -0.00576725
8.5775 -0.00614577
8.59 -0.00651414
8.6025 -0.00686347
8.615 -0.00718554
8.6275 -0.00747318
8.64 -0.00772062
8.6525 -0.00792377
8.665 -0.00808031
8.6775 -0.00818977
8.69 -0.00825346
8.7025 -0.00827436
8.715 -0.00825673
8.7275 -0.00820635
8.74 -0.00812947
8.7525 -0.00803303
8.765 -0.00792443
8.7775 -0.00781082
8.79 -0.00769995
8.8025 -0.00759532
8.815 -0.00750216
8.8275 -0.00742495
8.84 -0.00736709
8.8525 -0.00732873
8.865 -0.00730821
8.8775 -0.00730192
8.89 -0.00730456
8.9025 -0.00730948
8.915 -0.00730911
8.9275 -0.00729549
8.94 -0.00726085
8.9525 -0.00719805
8.965 -0.00710105
8.9775 -0.00696519
8.99 -0.00678729
9.0025 -0.00656566
9.015 -0.00630002
9.0275 -0.00599141
9.04 -0.00564211
9.0525 -0.0052556
9.065 -0.00483634
9.0775 -0.00438955
9.09 -0.00392099
9.1025 -0.00343664
9.115 -0.00294245
9.1275 -0.00244399
9.14 -0.00194612
9.1525 -0.00145273
9.165 -0.000966682
9.1775 -0.000488059
9.19 -2.23558e-05
9.2025 0.000425526
9.215 0.000849812
9.2275 0.0012478
9.24 0.00161706
9.2525 0.0019553
9.265 0.00226146
9.2775 0.0025351
9.29 0.00277643
9.3025 0.00298619
9.315 0.0031656
9.3275 0.00331642
9.34 0.00344093
9.3525 0.00354168
9.365 0.00362152
9.3775 0.00368357
9.39 0.00373112
9.4025 0.00376758
9.415 0.00379641
9.4275 0.00382098
9.44 0.00384447
9.4525 0.0038696
9.465 0.0038986
9.4775 0.00393312
9.49 0.00397421
9.5025 0.00402235
9.515 0.00407742
9.5275 0.0041387
9.54 0.00420483
9.5525 0.00427385
9.565 0.00434326
9.5775 0.00441009
9.59 0.00447097
9.6025 0.00452226
9.615 0.00456019
9.6275 0.00458155
9.64 0.00458175
9.6525 0.00455655
9.665 0.00450182
9.6775 0.00441457
9.69 0.00429303
9.7025 0.00413684
9.715 0.00394726
9.7275 0.00372732
9.74 0.00348157
9.7525 0.00321582
9.765 0.00293683
9.7775 0.00265202
9.79 0.00236906
9.8025 0.00209561
9.815 0.00183901
9.8275 0.00160597
9.84 0.00140229
9.8525 0.0012325
9.865 0.00109985
9.8775 0.0010058
9.89 0.000950071
9.9025 0.000930403
9.915 0.00094254
9.9275 0.000980297
9.94 0.00103577
9.9525 0.00109961
9.965 0.0011609
9.9775 0.00120493
9.99 0.00123147
10.0025 0.00123223
10.015 0.00120177
10.0275 0.00113356
10.04 0.00102333
10.0525 0.000867882
10.065 0.000665908
10.0775 0.000417487
10.09 0.000124387
10.1025 -0.000209997
10.115 -0.00058102
10.1275 -0.000982957
10.14 -0.00140887
10.1525 -0.0018514
10.165 -0.00230282
10.1775 -0.00275533
10.19 -0.00320127
10.2025 -0.0036335
10.215 -0.00404555
10.2275 -0.00443226
10.24 -0.00478917
10.2525 -0.00511332
10.265 -0.00540292
10.2775 -0.00565747
10.29 -0.00587752
10.3025 -0.00606468
10.315 -0.00622142
10.3275 -0.00635095
10.34 -0.00645707
10.3525 -0.00654399
10.365 -0.00661619
10.3775 -0.00667817
10.39 -0.00673427
10.4025 -0.00678842
10.415 -0.006844
10.4275 -0.00690356
10.44 -0.00696776
10.4525 -0.00703859
10.465 -0.0071145
10.4775 -0.00719575
10.49 -0.00728117
10.5025 -0.00736934
10.515 -0.00745792
10.5275 -0.00754478
10.54 -0.00762711
10.5525 -0.00770171
10.565 -0.00776516
10.5775 -0.00781331
10.59 -0.00784153
10.6025 -0.00784496
10.615 -0.00781905
10.6275 -0.00775976
10.64 -0.00766394
10.6525 -0.00752954
10.665 -0.0073558
10.6775 -0.00714333
10.69 -0.00689405
10.7025 -0.00661113
10.715 -0.0062987
10.7275 -0.0059616
10.74 -0.00560494
10.7525 -0.00523387
10.765 -0.00485324
10.7775 -0.00446754
10.79 -0.00408083
10.8025 -0.00369672
10.815 -0.00331835
10.8275 -0.00294846
10.84 -0.00258933
10.8525 -0.00224288
10.865 -0.00191068
10.8775 -0.00159393
10.89 -0.00129357
10.9025 -0.00100971
10.915 -0.000742309
10.9275 -0.000490506
10.94 -0.000253379
10.9525 -3.13026e-05
10.965 0.000182856
10.9775 0.000378893
10.99 0.000557623
11.0025 0.000716857
11.015 0.000855012
11.0275 0.000970749
11.04 0.0010631
11.0525 0.00113129
11.065 0.00117513
11.0775 0.00119491
11.09 0.0011914
11.1025 0.00116597
11.115 0.00112068
11.1275 0.0010581
11.14 0.000981209
11.1525 0.000893301
11.165 0.00079774
11.1775 0.000697846
11.19 0.000596816
11.2025 0.000497518
11.215 0.000402014
11.2275 0.000311842
11.24 0.000228161
11.2525 0.000151893
11.265 8.37456e-05
11.2775 2.42007e-05
11.29 -2.65382e-05
11.3025 -6.86602e-05
11.315 -0.000102804
11.3275 -0.000130131
11.34 -0.000152239
11.3525 -0.000170961
11.365 -0.000188493
11.3775 -0.000207049
11.39 -0.000228645
11.4025 -0.000255077
11.415 -0.000287657
11.4275 -0.000327018
11.44 -0.000372994
11.4525 -0.000424551
11.465 -0.00047974
11.4775 -0.000535683
11.49 -0.00058867
11.5025 -0.000633795
11.515 -0.000664852
11.5275 -0.000682018
11.54 -0.00068157
11.5525 -0.000661219
11.565 -0.000618707
11.5775 -0.000552594
11.59 -0.00046221
11.6025 -0.000347744
11.615 -0.000210293
11.6275 -5.19773e-05
11.64 0.000124067
11.6525 0.000313804
11.665 0.000512983
11.6775 0.000715887
11.69 0.000915836
11.7025 0.00110562
11.715 0.00127798
11.7275 0.00142618
11.74 0.00154429
11.7525 0.00162758
11.765 0.00167304
11.7775 0.00167934
11.79 0.00164683
11.8025 0.00157759
11.815 0.00147535
11.8275 0.0013453
11.84 0.00119384
11.8525 0.00102837
11.865 0.000856791
11.8775 0.000687124
11.89 0.000527068
11.9025 0.000383616
11.915 0.000262744
11.9275 0.000169098
11.94 0.000105807
11.9525 7.43148e-05
11.965 7.42398e-05
11.9775 0.000103406
11.99 0.000157947
12.0025 0.000232518
12.015 0.00032062
12.0275 0.000414982
12.04 0.000507926
12.0525 0.000591725
12.065 0.000659238
12.0775 0.000703654
12.09 0.000719624
12.1025 0.000703037
12.115 0.000651212
12.1275 0.000562713
12.14 0.000437915
12.1525 0.000279102
12.165 8.921e-05
12.1775 -0.00012724
12.19 -0.000364318
12.2025 -0.000614785
12.215 -0.000871005
12.2275 -0.00112479
12.24 -0.00136836
12.2525 -0.00159359
12.265 -0.00179278
12.2775 -0.00195902
12.29 -0.00208636
12.3025 -0.00217008
12.315 -0.00220686
12.3275 -0.00219486
12.34 -0.00213376
12.3525 -0.00202488
12.365 -0.00187141
12.3775 -0.00167826
12.39 -0.00145195
12.4025 -0.00120088
12.415 -0.00093294
12.4275 -0.000657044
12.44 -0.000382243
12.4525 -0.000117435
12.465 0.000128763
12.4775 0.000348669
12.49 0.00053755
12.5025 0.000690478
12.515 0.000804641
12.5275 0.000879477
12.54 0.000916014
12.5525 0.000917817
12.565 0.000892241
12.5775 0.000842684
12.59 0.000774891
12.6025 0.000695515
12.615 0.000612427
12.6275 0.000533815
12.64 0.000467781
12.6525 0.000422082
12.665 0.000403661
12.6775 0.00041816
12.69 0.000469597
12.7025 0.000560072
12.715 0.000689593
12.7275 0.000856077
12.74 0.00105543
12.7525 0.00128179
12.765 0.00152798
12.7775 0.00178567
12.79 0.00204487
12.8025 0.00229534
12.815 0.002527
12.8275 0.00273062
12.84 0.0028984
12.8525 0.00302439
12.865 0.00310504
12.8775 0.00313903
12.89 0.00312805
12.9025 0.00307744
12.915 0.0029879
12.9275 0.00286576
12.94 0.00271773
12.9525 0.00255226
12.965 0.00237836
12.9775 0.00220536
12.99 0.00204274
13.0025 0.00189946
13.015 0.00178364
13.0275 0.00170228
13.04 0.00166092
13.0525 0.00166351
13.065 0.00171218
13.0775 0.0018072
13.09 0.00194705
13.1025 0.00212748
13.115 0.00234487
13.1275 0.0025932
13.14 0.00286566
13.1525 0.00315405
13.165 0.00344931
13.1775 0.00374162
13.19 0.00402086
13.2025 0.004277
13.215 0.00450065
13.2275 0.00468351
13.24 0.00481877
13.2525 0.00490115
13.265 0.00492696
13.2775 0.00489479
13.29 0.00480499
13.3025 0.00465978
13.315 0.00446291
13.3275 0.00421946
13.34 0.00393557
13.3525 0.00361822
13.365 0.003275
13.3775 0.00291392
13.39 0.00254305
13.4025 0.00217032
13.415 0.00180329
13.4275 0.00144899
13.44 0.00111372
13.4525 0.00080282
13.465 0.000521467
13.4775 0.000272067
13.49 5.17913e-05
13.5025 -0.000133555
13.515 -0.00028545
13.5275 -0.000404585
13.54 -0.000493563
13.5525 -0.000556249
13.565 -0.000597257
13.5775 -0.000621653
13.59 -0.000635347
13.6025 -0.000645187
13.615 -0.000656978
13.6275 -0.000677478
13.64 -0.000713201
13.6525 -0.000770161
13.665 -0.000853666
13.6775 -0.00096813
13.69 -0.00111675
13.7025 -0.00130122
13.715 -0.00152162
13.7275 -0.00177636
13.74 -0.00206218
13.7525 -0.00237423
13.765 -0.00270627
13.7775 -0.00305103
13.79 -0.00340059
13.8025 -0.00374669
13.815 -0.00408118
13.8275 -0.00439634
13.84 -0.00468524
13.8525 -0.00494207
13.865 -0.00516231
13.8775 -0.00534286
13.89 -0.00548204
13.9025 -0.00557954
13.915 -0.00563641
13.9275 -0.00565493
13.94 -0.00563864
13.9525 -0.00559224
13.965 -0.00552156
13.9775 -0.00543336
13.99 -0.00533516
14.0025 -0.00523489
14.015 -0.00514057
14.0275 -0.00505994
14.04 -0.00500009
14.0525 -0.00496715
14.065 -0.00496601
14.0775 -0.00500004
14.09 -0.00507093
14.1025 -0.00517856
14.115 -0.00532103
14.1275 -0.00549522
14.14 -0.00569517
14.1525 -0.00591279
14.165 -0.00613837
14.1775 -0.0063612
14.19 -0.00657015
14.2025 -0.00675441
14.215 -0.00690395
14.2275 -0.00700997
14.24 -0.00706523
14.2525 -0.00706425
14.265 -0.00700337
14.2775 -0.00688075
14.29 -0.00669621
14.3025 -0.00645111
14.315 -0.00614797
14.3275 -0.00579039
14.34 -0.00538314
14.3525 -0.00493148
14.365 -0.00444173
14.3775 -0.00392081
14.39 -0.00337603
14.4025 -0.00281493
14.415 -0.00224491
14.4275 -0.00166721
14.44 -0.00110054
14.4525 -0.000558192
14.465 -4.13472e-05
14.4775 0.00044042
14.49 0.000883871
14.5025 0.0012864
14.515 0.001647
14.5275 0.00196695
14.54 0.0022491
14.5525 0.00249745
14.565 0.00271755
14.5775 0.00291478
14.59 0.00309748
14.6025 0.00327138
14.615 0.0034447
14.6275 0.00362486
14.64 0.00381924
14.6525 0.00403458
14.665 0.004277
14.6775 0.00455167
14.69 0.00486244
14.7025 0.00521141
14.715 0.00559741
14.7275 0.00602253
14.74 0.00648062
14.7525 0.00696938
14.765 0.0074829
14.7775 0.00801505
14.79 0.00855768
14.8025 0.00910295
14.815 0.00975571
14.8275 0.0103802
14.84 0.0110939
14.8525 0.0117735
14.865 0.0124935
14.8775 0.0132092
14.89 0.0139172
14.9025 0.0145947
14.915 0.0152945
14.9275 0.0160044
14.94 0.016668
14.9525 0.0173108
14.965 0.0179518
14.9775 0.018579
14.99 0.0191747
15.0025 0.0197833
15.015 0.0203992
15.0275 0.0202564
15.04 0.0203585
15.0525 0.0211795
15.065 0.0219132
15.0775 0.0225442
15.09 0.02351
15.1025 0.0246198
15.115 0.0257379
15.1275 0.0269049
15.14 0.0281586
15.1525 0.0293463
15.165 0.03048
15.1775 0.0316514
15.19 0.032833
15.2025 0.0339814
15.215 0.0350728
15.2275 0.0361293
15.24 0.0371535
15.2525 0.0381179
15.265 0.0389843
15.2775 0.0397885
15.29 0.0405498
15.3025 0.041242
15.315 0.04186
15.3275 0.0424123
15.34 0.0428991
15.3525 0.0433506
15.365 0.0446282
15.3775 0.0450133
15.39 0.0453913
15.4025 0.0458297
15.415 0.0462669
15.4275 0.0467099
15.44 0.0471972
15.4525 0.0477343
15.465 0.0482466
15.4775 0.0487803
15.49 0.0493183
15.5025 0.0497783
15.515 0.0503875
15.5275 0.0509197
15.54 0.051466
15.5525 0.0520321
15.565 0.0525734
15.5775 0.0531244
15.59 0.0536752
15.6025 0.0542208
15.615 0.0547693
15.6275 0.0553139
15.64 0.0558589
15.6525 0.0564121
15.665 0.0569569
15.6775 0.0574921
15.69 0.0580253
15.7025 0.0585489
15.715 0.0590549
15.7275 0.0595421
15.74 0.0599954
15.7525 0.0604172
15.765 0.0608654
15.7775 0.0612422
15.79 0.0615746
15.8025 0.0618978
15.815 0.0621817
15.8275 0.0624138
15.84 0.0626179
15.8525 0.062793
15.865 0.062929
15.8775 0.063031
15.89 0.0631011
15.9025 0.0631352
15.915 0.0631357
15.9275 0.0631045
15.94 0.0630388
15.9525 0.0629401
15.965 0.0628112
15.9775 0.0626521
15.99 0.0624665
16.0025 0.0622554
16.0125 0.0620698
16.0225 0.0618705
16.0325 0.0616611
16.0425 0.0614502
16.0525 0.0612214
16.0625 0.0609781
16.0725 0.0607261
16.0825 0.0604598
16.0925 0.0601828
16.1025 0.059897
16.1125 0.0596032
16.1225 0.0592994
16.1325 0.0589871
16.1425 0.0586477
16.1525 0.0582924
16.1625 0.0579451
16.1725 0.0575896
16.1825 0.0572184
16.1925 0.0568426
16.2025 0.0564603
16.2125 0.0560644
16.2225 0.0556564
16.2325 0.055237
16.2425 0.0548017
16.2525 0.0543486
16.2625 0.0538771
16.2725 0.0533847
16.2825 0.0528689
16.2925 0.0523287
16.3025 0.0517622
16.3125 0.0511678
16.3225 0.0505446
16.3325 0.0498923
16.3425 0.0492112
16.3525 0.0485022
16.3625 0.0477676
16.3725 0.0470098
16.3825 0.0462325
16.3925 0.0454402
16.4025 0.0446377
16.4125 0.0438306
16.4225 0.0430253
16.4325 0.0422284
16.4425 0.0414464
16.4525 0.0406858
16.4625 0.0399529
16.4725 0.0392536
16.4825 0.0385928
16.4925 0.0379751
16.5025 0.037404
16.5125 0.0368821
16.5225 0.0364108
16.5325 0.0359908
16.5425 0.0356216
16.5525 0.0353019
16.5625 0.0350294
16.5725 0.0348012
16.5825 0.0346137
16.5925 0.0344629
16.6025 0.0343445
16.6125 0.034254
16.6225 0.0341869
16.6325 0.0341379
16.6425 0.034102
16.6525 0.0340743
16.6625 0.0340501
16.6725 0.0340253
16.6825 0.0339962
16.6925 0.0339595
16.7025 0.0339128
16.7125 0.0338541
16.7225 0.0337823
16.7325 0.033697
16.7425 0.0335983
16.7525 0.0334871
16.7625 0.0333651
16.7725 0.0332344
16.7825 0.0330985
16.7925 0.0329598
16.8025 0.0328275
16.8125 0.0327044
16.8225 0.0325853
16.8325 0.0324773
16.8425 0.0323814
16.8525 0.032299
16.8625 0.0322324
16.8725 0.0321818
16.8825 0.0321477
16.8925 0.0321302
16.9025 0.0321255
16.9125 0.0321356
16.9225 0.0321614
16.9325 0.032194
16.9425 0.0322348
16.9525 0.0322808
16.9625 0.0323292
16.9725 0.0323785
16.9825 0.0324251
16.9925 0.0324668
17.0025 0.0325022
17.0125 0.0325298
17.0225 0.0325486
17.0325 0.0325575
17.0425 0.0325558
17.0525 0.0325428
17.0625 0.0325181
17.0725 0.0324811
17.0825 0.0324313
17.0925 0.0323679
17.1025 0.03229
17.1125 0.0321888
17.1225 0.0320707
17.1325 0.0319452
17.1425 0.0318042
17.1525 0.031651
17.1625 0.0314884
17.1725 0.0313143
17.1825 0.0311317
17.1925 0.0309415
17.2025 0.0307435
17.2125 0.0305399
17.2225 0.0303319
17.2325 0.0301199
17.2425 0.0299044
17.2525 0.0296858
17.2625 0.0294655
17.2725 0.0292456
17.2825 0.0290272
17.2925 0.0288123
17.3025 0.0286041
17.3125 0.0284022
17.3225 0.0282091
17.3325 0.0280276
17.3425 0.0278598
17.3525 0.0277078
17.3625 0.0275724
17.3725 0.0274547
17.3825 0.0273552
17.3925 0.0272743
17.4025 0.0272118
17.4125 0.0271672
17.4225 0.0271393
17.4325 0.0271269
17.4425 0.027128
17.4525 0.0271406
17.4625 0.0271622
17.4725 0.0271908
17.4825 0.0272243
17.4925 0.0272606
17.5025 0.0272912
17.5125 0.0273121
17.5225 0.0273336
17.5325 0.0273483
17.5425 0.0273502
17.5525 0.0273416
17.5625 0.0273204
17.5725 0.0272836
17.5825 0.0272318
17.5925 0.0271644
17.6025 0.0270809
17.6125 0.0269826
17.6225 0.0268703
17.6325 0.0267453
17.6425 0.0266095
17.6525 0.0264655
17.6625 0.0263155
17.6725 0.0261624
17.6825 0.0260092
17.6925 0.0258592
17.7025 0.0257158
17.7125 0.0255827
17.7225 0.0254634
17.7325 0.0253637
17.7425 0.0252831
17.7525 0.0252226
17.7625 0.0251847
17.7725 0.0251718
17.7825 0.0251856
17.7925 0.0252274
17.8025 0.0252978
17.8125 0.0253966
17.8225 0.0255238
17.8325 0.0256795
17.8425 0.0258618
17.8525 0.0260674
17.8625 0.026293
17.8725 0.0265378
17.8825 0.0267961
17.8925 0.0270646
17.9025 0.0273384
17.9125 0.0276126
17.9225 0.0278829
17.9325 0.0281447
17.9425 0.0283934
17.9525 0.0286251
17.9625 0.0288362
17.9725 0.0290237
17.9825 0.0291849
17.9925 0.0293177
18.0025 0.0294205
18.0125 0.0294924
18.0225 0.0295333
18.0325 0.0295434
18.0425 0.0295237
18.0525 0.0294755
18.0625 0.0294009
18.0725 0.0293024
18.0825 0.0291829
18.0925 0.0290459
18.1025 0.0288948
18.1125 0.0287339
18.1225 0.0285675
18.1325 0.0283992
18.1425 0.0282335
18.1525 0.0280747
18.1625 0.0279266
18.1725 0.0277929
18.1825 0.0276765
18.1925 0.0275797
18.2025 0.0275042
18.2125 0.0274511
18.2225 0.0274208
18.2325 0.0274127
18.2425 0.0274254
18.2525 0.0274564
18.2625 0.0275048
18.2725 0.0275678
18.2825 0.0276439
18.2925 0.0277282
18.3025 0.0278179
18.3125 0.0279103
18.3225 0.028002
18.3325 0.02809
18.3425 0.0281706
18.3525 0.0282408
18.3625 0.0282985
18.3725 0.0283413
18.3825 0.0283675
18.3925 0.0283754
18.4025 0.0283638
18.4125 0.0283324
18.4225 0.0282821
18.4325 0.0282138
18.4425 0.0281281
18.4525 0.0280262
18.4625 0.0279095
18.4725 0.0277797
18.4825 0.0276384
18.4925 0.0274874
18.5025 0.0273286
18.5125 0.027164
18.5225 0.0269956
18.5325 0.0268253
18.5425 0.0266553
18.5525 0.0264876
18.5625 0.0263242
18.5725 0.0261669
18.5825 0.0260175
18.5925 0.0258777
18.6025 0.0257489
18.6125 0.0256321
18.6225 0.0255285
18.6325 0.0254385
18.6425 0.0253626
18.6525 0.025301
18.6625 0.0252536
18.6725 0.0252202
18.6825 0.0252003
18.6925 0.0251935
18.7025 0.0251989
18.7125 0.0252158
18.7225 0.0252431
18.7325 0.0252798
18.7425 0.0253253
18.7525 0.0253786
18.7625 0.0254392
18.7725 0.0255064
18.7825 0.0255802
18.7925 0.0256604
18.8025 0.0257466
18.8125 0.0258384
18.8225 0.0259354
18.8325 0.0260372
18.8425 0.0261436
18.8525 0.026254
18.8625 0.0263677
18.8725 0.0264838
18.8825 0.0266015
18.8925 0.026719
18.9025 0.0268348
18.9125 0.0269497
18.9225 0.0270602
18.9325 0.0271664
18.9425 0.0272674
18.9525 0.0273622
18.9625 0.0274508
18.9725 0.0275327
18.9825 0.0276081
18.9925 0.0276776
19.0025 0.0277421
19.0125 0.027803
19.0225 0.0278613
19.0325 0.0279185
19.0425 0.0279761
19.0525 0.0280352
19.0625 0.0280982
19.0725 0.0281673
19.0825 0.0282445
19.0925 0.0283311
19.1025 0.0284284
19.1125 0.0285375
19.1225 0.0286592
19.1325 0.0287936
19.1425 0.0289406
19.1525 0.0290998
19.1625 0.0292703
19.1725 0.0294512
19.1825 0.0296411
19.1925 0.0298398
19.2025 0.0300545
19.2125 0.030271
19.2225 0.0304764
19.2325 0.0306875
19.2425 0.0309041
19.2525 0.0311144
19.2625 0.0313191
19.2725 0.0315209
19.2825 0.0317147
19.2925 0.0318978
19.3025 0.0320714
19.3125 0.0322321
19.3225 0.0323775
19.3325 0.0325078
19.3425 0.032622
19.3525 0.0327186
19.3625 0.0327975
19.3725 0.0328589
19.3825 0.0329025
19.3925 0.0329284
19.4025 0.0329376
19.4125 0.0329309
19.4225 0.0329086
19.4325 0.032871
19.4425 0.032818
19.4525 0.0327501
19.4625 0.0326662
19.4725 0.0325706
19.4825 0.0324646
19.4925 0.0323483
19.5025 0.0322276
19.5125 0.0320981
19.5225 0.031959
19.5325 0.0318141
19.5425 0.0316632
19.5525 0.0315058
19.5625 0.0313437
19.5725 0.0311774
19.5825 0.0310068
19.5925 0.030833
19.6025 0.0306566
19.6125 0.0304781
19.6225 0.030298
19.6325 0.030117
19.6425 0.0299357
19.6525 0.0297546
19.6625 0.0295735
19.6725 0.0293935
19.6825 0.0292147
19.6925 0.0290372
19.7025 0.0288614
19.7125 0.0286875
19.7225 0.0285152
19.7325 0.0283445
19.7425 0.0281751
19.7525 0.0280066
19.7625 0.0278386
19.7725 0.0276705
19.7825 0.0275019
19.7925 0.0273322
19.8025 0.0271609
19.8125 0.0269875
19.8225 0.0268115
19.8325 0.0266324
19.8425 0.0264493
19.8525 0.0262616
19.8625 0.0260683
19.8725 0.0258684
19.8825 0.0256611
19.8925 0.0254453
19.9025 0.0252203
19.9125 0.0249853
19.9225 0.02474
19.9325 0.0244841
19.9425 0.0242178
19.9525 0.0239414
19.9625 0.0236556
19.9725 0.0233613
19.9825 0.0230601
19.9925 0.0227536
20.0025 0.022444
20.0125 0.0221335
20.0225 0.0218246
20.0325 0.0215203
20.0425 0.0212231
20.0525 0.0209359
20.0625 0.0206612
20.0725 0.0204013
20.0825 0.0201581
20.0925 0.0199331
20.1025 0.0197277
20.1125 0.0195426
20.1225 0.0193781
20.1325 0.0192342
20.1425 0.0191103
20.1525 0.0190055
20.1625 0.0189185
20.1725 0.0188478
20.1825 0.0187914
20.1925 0.0187471
20.2025 0.0187123
20.2125 0.0186844
20.2225 0.0186608
20.2325 0.0186389
20.2425 0.0186163
20.2525 0.0185904
20.2625 0.018559
20.2725 0.0185197
20.2825 0.0184705
20.2925 0.0184095
20.3025 0.0183349
20.3125 0.0182454
20.3225 0.0181399
20.3325 0.0180177
20.3425 0.0178785
20.3525 0.0177229
20.3625 0.0175516
20.3725 0.0173655
20.3825 0.0171663
20.3925 0.0169561
20.4025 0.0167372
20.4125 0.0165125
20.4225 0.0162852
20.4325 0.0160585
20.4425 0.0158357
20.4525 0.0156204
20.4625 0.0154156
20.4725 0.0152243
20.4825 0.0150494
20.4925 0.0148932
20.5025 0.0147577
20.5125 0.0146444
20.5225 0.0145545
20.5325 0.0144887
20.5425 0.014447
20.5525 0.0144294
20.5625 0.0144347
20.5725 0.0144614
20.5825 0.0145082
20.5925 0.0145735
20.6025 0.014655
20.6125 0.0147498
20.6225 0.0148549
20.6325 0.0149669
20.6425 0.0150824
20.6525 0.015198
20.6625 0.0153104
20.6725 0.0154165
20.6825 0.0155133
20.6925 0.0155982
20.7025 0.015669
20.7125 0.0157237
20.7225 0.0157609
20.7325 0.0157796
20.7425 0.0157794
20.7525 0.0157605
20.7625 0.0157237
20.7725 0.0156702
20.7825 0.0156018
20.7925 0.015521
20.8025 0.0154303
20.8125 0.0153326
20.8225 0.0152312
20.8325 0.0151296
20.8425 0.0150315
20.8525 0.0149387
20.8625 0.0148542
20.8725 0.0147858
20.8825 0.0147346
20.8925 0.0147033
20.9025 0.0146958
20.9125 0.0147132
20.9225 0.0147569
20.9325 0.0148285
20.9425 0.0149283
20.9525 0.0150569
20.9625 0.0152142
20.9725 0.0153995
20.9825 0.0156116
20.9925 0.0158488
21.0025 0.0161088
21.0125 0.0163891
21.0225 0.0166863
21.0325 0.0169964
21.0425 0.0173157
21.0525 0.0176402
21.0625 0.0179657
21.0725 0.0182879
21.0825 0.0186026
21.0925 0.0189057
21.1025 0.0191938
21.1125 0.0194592
21.1225 0.0196941
21.1325 0.0199129
21.1425 0.0201079
21.1525 0.0202778
21.1625 0.0204259
21.1725 0.0205502
21.1825 0.0206529
21.1925 0.0207363
21.2025 0.0208028
21.2125 0.0208539
21.2225 0.0208918
21.2325 0.0209235
21.2425 0.0209489
21.2525 0.0209713
21.2625 0.0209982
21.2725 0.0210384
21.2825 0.0210856
21.2925 0.021135
21.3025 0.0211912
21.3125 0.0212613
21.3225 0.0213448
21.3325 0.0214394
21.3425 0.0215481
21.3525 0.0216734
21.3625 0.0218148
21.3725 0.0219716
21.3825 0.0221456
21.3925 0.0223367
21.4025 0.0225432
21.4125 0.022764
21.4225 0.0229982
21.4325 0.0232435
21.4425 0.0234957
21.4525 0.0237549
21.4625 0.0240206
21.4725 0.0242889
21.4825 0.0245565
21.4925 0.0248215
21.5025 0.0250815
21.5125 0.025333
21.5225 0.0255731
21.5325 0.0257994
21.5425 0.0260091
21.5525 0.0261996
21.5625 0.0263685
21.5725 0.0265137
21.5825 0.0266333
21.5925 0.0267247
21.6025 0.0267862
21.6125 0.0268172
21.6225 0.0268177
21.6325 0.0267878
21.6425 0.026728
21.6525 0.0266409
21.6625 0.0265281
21.6725 0.0263914
21.6825 0.0262374
21.6925 0.0260664
21.7025 0.0258772
21.7125 0.0256736
21.7225 0.0254647
21.7325 0.0252526
21.7425 0.0250395
21.7525 0.0248317
21.7625 0.0246328
21.7725 0.0244456
21.7825 0.0242746
21.7925 0.0241234
21.8025 0.0239953
21.8125 0.0238948
21.8225 0.0238263
21.8325 0.0237858
21.8425 0.0237744
21.8525 0.0237946
21.8625 0.0238468
21.8725 0.0239278
21.8825 0.0240364
21.8925 0.0241657
21.9025 0.0243098
21.9125 0.0244807
21.9225 0.0246696
21.9325 0.0248735
21.9425 0.0250907
21.9525 0.0253142
21.9625 0.0255429
21.9725 0.0257746
21.9825 0.0260045
21.9925 0.0262302
22.0025 0.0264483
22.0125 0.0266561
22.0225 0.0268547
22.0325 0.0270394
22.0425 0.0272019
22.0525 0.027345
22.0625 0.027472
22.0725 0.027579
22.0825 0.0276654
22.0925 0.0277343
22.1025 0.0277863
22.1125 0.0278217
22.1225 0.0278474
22.1325 0.0278659
22.1425 0.0278702
22.1525 0.0278643
22.1625 0.0278534
22.1725 0.0278377
22.1825 0.0278182
22.1925 0.0277991
22.2025 0.0277834
22.2125 0.0277744
22.2225 0.0277764
22.2325 0.0277891
22.2425 0.0278119
22.2525 0.0278502
22.2625 0.0279103
22.2725 0.0279907
22.2825 0.0280915
22.2925 0.0282169
22.3025 0.0283688
22.3125 0.0285469
22.3225 0.0287511
22.3325 0.028983
22.3425 0.0292438
22.3525 0.0295336
22.3625 0.029851
22.3725 0.0301945
22.3825 0.0305624
22.3925 0.0309522
22.4025 0.0313612
22.4125 0.0317861
22.4225 0.0322222
22.4325 0.0326658
22.4425 0.0331122
22.4525 0.033555
22.4625 0.0339964
22.4725 0.0344339
22.4825 0.0348619
22.4925 0.0352748
22.5025 0.0356707
22.5125 0.0360475
22.5225 0.0363999
22.5325 0.0367246
22.5425 0.0370194
22.5525 0.0372821
22.5625 0.0375091
22.5725 0.0376988
22.5825 0.0378513
22.5925 0.0379661
22.6025 0.038043
22.6125 0.0380843
22.6225 0.0380944
22.6325 0.0380711
22.6425 0.0380166
22.6525 0.0379366
22.6625 0.0378343
22.6725 0.0377122
22.6825 0.0375776
22.6925 0.0374414
22.7025 0.0372975
22.7125 0.0371489
22.7225 0.0370022
22.7325 0.0368636
22.7425 0.0367337
22.7525 0.0366153
22.7625 0.036513
22.7725 0.036429
22.7825 0.0363639
22.7925 0.0363195
22.8025 0.0362974
22.8125 0.0362976
22.8225 0.0363196
22.8325 0.0363628
22.8425 0.036424
22.8525 0.0365027
22.8625 0.0365999
22.8725 0.0367127
22.8825 0.0368371
22.8925 0.0369711
22.9025 0.0371112
22.9125 0.0372538
22.9225 0.0373982
22.9325 0.0375377
22.9425 0.0376675
22.9525 0.0377878
22.9625 0.0378938
22.9725 0.037976
22.9825 0.0380394
22.9925 0.0380876
23.0025 0.0381149
23.0125 0.0381239
23.0225 0.038115
23.0325 0.0380887
23.0425 0.0380473
23.0525 0.0379915
23.0625 0.0379134
23.0725 0.0378221
23.0825 0.0377296
23.0925 0.0376301
23.1025 0.0375247
23.1125 0.0374217
23.1225 0.0373221
23.1325 0.0372268
23.1425 0.0371403
23.1525 0.0370656
23.1625 0.037004
23.1725 0.036966
23.1825 0.0369542
23.1925 0.0369513
23.2025 0.0369604
23.2125 0.036991
23.2225 0.0370394
23.2325 0.0370998
23.2425 0.0371753
23.2525 0.0372673
23.2625 0.0373716
23.2725 0.0374867
23.2825 0.0376127
23.2925 0.0377465
23.3025 0.0378868
23.3125 0.038033
23.3225 0.0381838
23.3325 0.0383373
23.3425 0.0384916
23.3525 0.0386449
23.3625 0.0387955
23.3725 0.0389424
23.3825 0.0390846
23.3925 0.0392211
23.4025 0.039351
23.4125 0.0394738
23.4225 0.0395898
23.4325 0.0397008
23.4425 0.0398165
23.4525 0.0399294
23.4625 0.0400332
23.4725 0.0401384
23.4825 0.0402475
23.4925 0.0403544
23.5025 0.04046
23.5125 0.0405764
23.5225 0.0406998
23.5325 0.0408267
23.5425 0.0409622
23.5525 0.0411078
23.5625 0.0412627
23.5725 0.041427
23.5825 0.0415995
23.5925 0.0417809
23.6025 0.0419719
23.6125 0.0421722
23.6225 0.0423806
23.6325 0.0425968
23.6425 0.0428201
23.6525 0.0430493
23.6625 0.0432836
23.6725 0.0435215
23.6825 0.0437611
23.6925 0.0440003
23.7025 0.0442373
23.7125 0.0444702
23.7225 0.0446969
23.7325 0.0449152
23.7425 0.0451229
23.7525 0.0453179
23.7625 0.0454981
23.7725 0.0456615
23.7825 0.0458066
23.7925 0.0459317
23.8025 0.0460356
23.8125 0.0461175
23.8225 0.0461766
23.8325 0.0462127
23.8425 0.0462259
23.8525 0.0462165
23.8625 0.0461852
23.8725 0.0461372
23.8825 0.0460762
23.8925 0.0459943
23.9025 0.0458937
23.9125 0.045779
23.9225 0.0456531
23.9325 0.0455175
23.9425 0.0453752
23.9525 0.0452279
23.9625 0.0450783
23.9725 0.0449295
23.9825 0.0447839
23.9925 0.0446441
24.0025 0.0445122
24.0125 0.0443901
24.0225 0.0442802
24.0325 0.0441852
24.0425 0.0441064
24.0525 0.0440443
24.0625 0.0439946
24.0725 0.0439637
24.0825 0.0439514
24.0925 0.0439512
24.1025 0.0439598
24.1125 0.0439874
24.1225 0.0440329
24.1325 0.044091
24.1425 0.0441613
24.1525 0.0442439
24.1625 0.044335
24.1725 0.0444319
24.1825 0.044533
24.1925 0.044635
24.2025 0.0447345
24.2125 0.0448291
24.2225 0.0449158
24.2325 0.0449917
24.2425 0.045054
24.2525 0.0451002
24.2625 0.0451279
24.2725 0.0451354
24.2825 0.0451213
24.2925 0.0450848
24.3025 0.045026
24.3125 0.0449451
24.3225 0.0448433
24.3325 0.044722
24.3425 0.0445836
24.3525 0.0444307
24.3625 0.0442666
24.3725 0.0440954
24.3825 0.0439308
24.3925 0.0437717
24.4025 0.0436116
24.4125 0.0434569
24.4225 0.0433135
24.4325 0.0431824
24.4425 0.0430665
24.4525 0.0429699
24.4625 0.0428947
24.4725 0.0428433
24.4825 0.0428179
24.4925 0.0428195
24.5025 0.0428483
24.5125 0.0429049
24.5225 0.0429891
24.5325 0.0431
24.5425 0.0432343
24.5525 0.0433952
24.5625 0.0435804
24.5725 0.0437858
24.5825 0.0440095
24.5925 0.0442482
24.6025 0.0445083
24.6125 0.0447931
24.6225 0.0450738
24.6325 0.0453512
24.6425 0.0456376
24.6525 0.0459229
24.6625 0.0461947
24.6725 0.0464577
24.6825 0.0467141
24.6925 0.0469542
24.7025 0.047174
24.7125 0.0473741
24.7225 0.0475516
24.7325 0.0477043
24.7425 0.0478319
24.7525 0.0479339
24.7625 0.04801
24.7725 0.0480619
24.7825 0.0480903
24.7925 0.0480949
24.8025 0.0480782
24.8125 0.048043
24.8225 0.0479911
24.8325 0.0479252
24.8425 0.0478487
24.8525 0.0477645
24.8625 0.0476756
24.8725 0.0475881
24.8825 0.0475097
24.8925 0.0474338
24.9025 0.0473626
24.9125 0.0473013
24.9225 0.0472529
24.9325 0.0472165
24.9425 0.047194
24.9525 0.0471879
24.9625 0.0471968
24.9725 0.0472206
24.9825 0.047261
24.9925 0.0473174
25.0025 0.047388
25.0125 0.0474714
25.0225 0.047567
25.0325 0.0476723
25.0425 0.0477847
25.0525 0.0479017
25.0625 0.0480202
25.0725 0.0481368
25.0825 0.048248
25.0925 0.0483507
25.1025 0.0484436
25.1125 0.0485209
25.1225 0.048579
25.1325 0.0486181
25.1425 0.0486354
25.1525 0.0486301
25.1625 0.0486008
25.1725 0.0485466
25.1825 0.0484666
25.1925 0.0483613
25.2025 0.0482314
25.2125 0.0480781
25.2225 0.0478994
25.2325 0.0476919
25.2425 0.0474659
25.2525 0.0472244
25.2625 0.0469616
25.2725 0.0466819
25.2825 0.0463897
25.2925 0.0460843
25.3025 0.0457678
25.3125 0.0454438
25.3225 0.0451143
25.3325 0.0447812
25.3425 0.0444478
25.3525 0.0441164
25.3625 0.0437893
25.3725 0.0434691
25.3825 0.0431582
25.3925 0.0428584
25.4025 0.0425719
25.4125 0.0423002
25.4225 0.0420449
25.4325 0.0418071
25.4425 0.0415875
25.4525 0.0413868
25.4625 0.041205
25.4725 0.0410421
25.4825 0.0408976
25.4925 0.0407706
25.5025 0.0406602
25.5125 0.0405649
25.5225 0.0404834
25.5325 0.040414
25.5425 0.0403547
25.5525 0.0403033
25.5625 0.0402576
25.5725 0.0402155
25.5825 0.0401745
25.5925 0.0401326
25.6025 0.0400879
25.6125 0.0400391
25.6225 0.0399833
25.6325 0.0399187
25.6425 0.0398443
25.6525 0.0397587
25.6625 0.0396606
25.6725 0.0395495
25.6825 0.0394249
25.6925 0.0392868
25.7025 0.0391353
25.7125 0.038971
25.7225 0.0387948
25.7325 0.0386083
25.7425 0.0384128
25.7525 0.03821
25.7625 0.038002
25.7725 0.0377912
25.7825 0.03758
25.7925 0.0373707
25.8025 0.037166
25.8125 0.0369687
25.8225 0.0367811
25.8325 0.0366056
25.8425 0.0364442
25.8525 0.0362991
25.8625 0.0361719
25.8725 0.036064
25.8825 0.0359743
25.8925 0.0359038
25.9025 0.0358529
25.9125 0.0358195
25.9225 0.0358038
25.9325 0.0358041
25.9425 0.0358186
25.9525 0.0358453
25.9625 0.0358818
25.9725 0.0359258
25.9825 0.0359751
25.9925 0.036027
26.0025 0.0360789
26.0125 0.0361278
26.0225 0.0361715
26.0325 0.0362076
26.0425 0.036234
26.0525 0.0362486
26.0625 0.0362497
26.0725 0.0362357
26.0825 0.0362051
26.0925 0.0361558
26.1025 0.0360897
26.1125 0.0360063
26.1225 0.035905
26.1325 0.035787
26.1425 0.0356524
26.1525 0.0355023
26.1625 0.0353379
26.1725 0.0351609
26.1825 0.0349732
26.1925 0.0347765
26.2025 0.0345726
26.2125 0.0343594
26.2225 0.0341347
26.2325 0.0339124
26.2425 0.0336939
26.2525 0.0334742
26.2625 0.0332582
26.2725 0.0330503
26.2825 0.0328494
26.2925 0.0326563
26.3025 0.0324742
26.3125 0.0323033
26.3225 0.0321438
26.3325 0.0319969
26.3425 0.0318631
26.3525 0.0317419
26.3625 0.0316332
26.3725 0.0315369
26.3825 0.0314519
26.3925 0.0313773
26.4025 0.0313121
26.4125 0.0312551
26.4225 0.0312051
26.4325 0.0311604
26.4425 0.0311194
26.4525 0.0310804
26.4625 0.0310416
26.4725 0.0310014
26.4825 0.0309582
26.4925 0.0309103
26.5025 0.0308564
26.5125 0.0307954
26.5225 0.0307261
26.5325 0.0306478
26.5425 0.0305598
26.5525 0.030462
26.5625 0.0303543
26.5725 0.0302369
26.5825 0.0301102
26.5925 0.029975
26.6025 0.0298324
26.6125 0.0296836
26.6225 0.0295317
26.6325 0.0293772
26.6425 0.0292203
26.6525 0.0290636
26.6625 0.0289092
26.6725 0.0287586
26.6825 0.0286135
26.6925 0.0284762
26.7025 0.0283484
26.7125 0.0282318
26.7225 0.0281279
26.7325 0.0280384
26.7425 0.0279644
26.7525 0.027907
26.7625 0.0278672
26.7725 0.0278456
26.7825 0.0278425
26.7925 0.027857
26.8025 0.0278894
26.8125 0.0279389
26.8225 0.0280046
26.8325 0.0280849
26.8425 0.0281784
26.8525 0.0282835
26.8625 0.0283985
26.8725 0.0285213
26.8825 0.0286501
26.8925 0.0287828
26.9025 0.0289174
26.9125 0.0290524
26.9225 0.0291861
26.9325 0.0293168
26.9425 0.0294428
26.9525 0.0295628
26.9625 0.0296758
26.9725 0.0297808
26.9825 0.0298771
26.9925 0.0299639
27.0025 0.0300399
27.0125 0.0301066
27.0225 0.0301627
27.0325 0.0302083
27.0425 0.0302439
27.0525 0.0302699
27.0625 0.0302872
27.0725 0.0302966
27.0825 0.0302992
27.0925 0.0302961
27.1025 0.0302887
27.1125 0.0302785
27.1225 0.030267
27.1325 0.0302555
27.1425 0.0302456
27.1525 0.0302386
27.1625 0.030236
27.1725 0.0302389
27.1825 0.0302485
27.1925 0.0302656
27.2025 0.0302911
27.2125 0.0303255
27.2225 0.0303691
27.2325 0.0304222
27.2425 0.0304845
27.2525 0.0305559
27.2625 0.0306357
27.2725 0.0307233
27.2825 0.0308178
27.2925 0.030918
27.3025 0.0310228
27.3125 0.0311306
27.3225 0.03124
27.3325 0.0313498
27.3425 0.0314581
27.3525 0.0315635
27.3625 0.0316649
27.3725 0.0317609
27.3825 0.0318505
27.3925 0.0319326
27.4025 0.0320062
27.4125 0.0320709
27.4225 0.0321258
27.4325 0.0321709
27.4425 0.0322059
27.4525 0.032231
27.4625 0.0322465
27.4725 0.0322529
27.4825 0.0322509
27.4925 0.0322413
27.5025 0.032225
27.5125 0.0322032
27.5225 0.0321772
27.5325 0.0321484
27.5425 0.032118
27.5525 0.0320872
27.5625 0.0320576
27.5725 0.0320304
27.5825 0.032007
27.5925 0.0319885
27.6025 0.031976
27.6125 0.0319704
27.6225 0.0319725
27.6325 0.0319831
27.6425 0.0320024
27.6525 0.0320298
27.6625 0.0320632
27.6725 0.0321067
27.6825 0.0321591
27.6925 0.0322196
27.7025 0.0322885
27.7125 0.0323645
27.7225 0.0324469
27.7325 0.0325348
27.7425 0.0326274
27.7525 0.0327234
27.7625 0.0328217
27.7725 0.032921
27.7825 0.0330201
27.7925 0.0331184
27.8025 0.0332188
27.8125 0.0333183
27.8225 0.0334105
27.8325 0.0334982
27.8425 0.0335824
27.8525 0.0336602
27.8625 0.0337313
27.8725 0.0337969
27.8825 0.0338563
27.8925 0.0339087
27.9025 0.033954
27.9125 0.0339936
27.9225 0.0340278
27.9325 0.0340559
27.9425 0.0340788
27.9525 0.0340972
27.9625 0.0341115
27.9725 0.0341222
27.9825 0.0341304
27.9925 0.0341367
28.0025 0.0341421
28.0125 0.0341473
28.0225 0.0341533
28.0325 0.0341607
28.0425 0.0341705
28.0525 0.0341832
28.0625 0.0341995
28.0725 0.03422
28.0825 0.0342452
28.0925 0.0342753
28.1025 0.0343105
28.1125 0.0343509
28.1225 0.0343965
28.1325 0.034447
28.1425 0.0345023
28.1525 0.0345618
28.1625 0.0346251
28.1725 0.0346917
28.1825 0.0347607
28.1925 0.0348315
28.2025 0.0349032
28.2125 0.034975
28.2225 0.0350459
28.2325 0.035115
28.2425 0.0351813
28.2525 0.0352441
28.2625 0.0353023
28.2725 0.0353553
28.2825 0.0354022
28.2925 0.0354424
28.3025 0.0354752
28.3125 0.0355002
28.3225 0.035517
28.3325 0.0355254
28.3425 0.0355251
28.3525 0.0355163
28.3625 0.0354999
28.3725 0.0354766
28.3825 0.0354456
28.3925 0.035408
28.4025 0.035364
28.4125 0.0353144
28.4225 0.0352601
28.4325 0.0352018
28.4425 0.0351405
28.4525 0.0350759
28.4625 0.0350068
28.4725 0.0349377
28.4825 0.0348694
28.4925 0.0348005
28.5025 0.0347327
28.5125 0.034667
28.5225 0.0346035
28.5325 0.0345428
28.5425 0.0344847
28.5525 0.0344301
28.5625 0.0343789
28.5725 0.0343313
28.5825 0.0342875
28.5925 0.0342472
28.6025 0.0342104
28.6125 0.0341767
28.6225 0.034146
28.6325 0.0341178
28.6425 0.0340916
28.6525 0.034067
28.6625 0.0340433
28.6725 0.0340201
28.6825 0.0339967
28.6925 0.0339725
28.7025 0.0339469
28.7125 0.0339194
28.7225 0.0338894
28.7325 0.0338565
28.7425 0.0338201
28.7525 0.0337801
28.7625 0.033736
28.7725 0.0336876
28.7825 0.0336349
28.7925 0.0335778
28.8025 0.0335164
28.8125 0.0334508
28.8225 0.0333812
28.8325 0.033308
28.8425 0.0332316
28.8525 0.0331524
28.8625 0.033071
28.8725 0.032988
28.8825 0.0329039
28.8925 0.0328196
28.9025 0.0327355
28.9125 0.0326525
28.9225 0.0325712
28.9325 0.0324922
28.9425 0.0324162
28.9525 0.0323438
28.9625 0.0322755
28.9725 0.0322117
28.9825 0.0321529
28.9925 0.0320993
29.0025 0.0320512
29.0125 0.0320087
29.0225 0.0319718
29.0325 0.0319405
29.0425 0.0319147
29.0525 0.0318941
29.0625 0.0318784
29.0725 0.0318672
29.0825 0.0318598
29.0925 0.0318556
29.1025 0.0318541
29.1125 0.0318546
29.1225 0.0318564
29.1325 0.0318587
29.1425 0.0318607
29.1525 0.0318619
29.1625 0.0318615
29.1725 0.0318589
29.1825 0.0318536
29.1925 0.031845
29.2025 0.0318327
29.2125 0.0318165
29.2225 0.0317961
29.2325 0.0317715
29.2425 0.0317426
29.2525 0.0317095
29.2625 0.0316726
29.2725 0.031632
29.2825 0.0315881
29.2925 0.0315414
29.3025 0.0314922
29.3125 0.031441
29.3225 0.0313884
29.3325 0.0313349
29.3425 0.031281
29.3525 0.0312269
29.3625 0.0311717
29.3725 0.0311178
29.3825 0.0310656
29.3925 0.0310144
29.4025 0.0309649
29.4125 0.0309174
29.4225 0.0308716
29.4325 0.0308279
29.4425 0.0307862
29.4525 0.0307464
29.4625 0.0307083
29.4725 0.0306717
29.4825 0.0306365
29.4925 0.0306023
29.5025 0.0305688
29.5125 0.0305356
29.5225 0.0305025
29.5325 0.0304689
29.5425 0.0304345
29.5525 0.030399
29.5625 0.0303619
29.5725 0.030323
29.5825 0.0302829
29.5925 0.03024
29.6025 0.0301943
29.6125 0.0301465
29.6225 0.0300959
29.6325 0.0300424
29.6425 0.0299865
29.6525 0.0299281
29.6625 0.0298671
29.6725 0.0298041
29.6825 0.0297391
29.6925 0.0296724
29.7025 0.0296045
29.7125 0.0295356
29.7225 0.0294662
29.7325 0.0293966
29.7425 0.0293274
29.7525 0.0292589
29.7625 0.0291915
29.7725 0.0291259
29.7825 0.0290622
29.7925 0.029001
29.8025 0.0289425
29.8125 0.0288873
29.8225 0.0288354
29.8325 0.0287872
29.8425 0.0287429
29.8525 0.0287026
29.8625 0.0286665
29.8725 0.0286345
29.8825 0.0286067
29.8925 0.028583
29.9025 0.0285633
29.9125 0.0285475
29.9225 0.0285353
29.9325 0.0285265
29.9425 0.0285209
29.9525 0.0285181
29.9625 0.0285178
29.9725 0.0285198
29.9825 0.0285236
29.9925 0.0285288
30.0025 0.0285351
30.0125 0.028542
30.0225 0.0285493
30.0325 0.0285567
30.0425 0.0285637
30.0525 0.0285703
30.0625 0.0285761
30.0725 0.0285811
30.0825 0.0285851
30.0925 0.028588
30.1025 0.0285898
30.1125 0.0285906
30.1225 0.0285906
30.1325 0.0285898
30.1425 0.0285884
30.1525 0.0285868
30.1625 0.0285852
30.1725 0.0285838
30.1825 0.028583
30.1925 0.028583
30.2025 0.0285842
30.2125 0.0285869
30.2225 0.0285913
30.2325 0.0285975
30.2425 0.0286058
30.2525 0.0286162
30.2625 0.0286287
30.2725 0.0286434
30.2825 0.0286603
30.2925 0.0286793
30.3025 0.0287003
30.3125 0.0287231
30.3225 0.0287475
30.3325 0.0287731
30.3425 0.0287998
30.3525 0.0288272
30.3625 0.028855
30.3725 0.0288828
30.3825 0.0289102
30.3925 0.0289369
30.4025 0.0289626
30.4125 0.0289869
30.4225 0.0290094
30.4325 0.02903
30.4425 0.0290484
30.4525 0.0290643
30.4625 0.0290775
30.4725 0.0290881
30.4825 0.029096
30.4925 0.029101
30.5025 0.0291035
30.5125 0.0291034
30.5225 0.0291009
30.5325 0.0290962
30.5425 0.0290896
30.5525 0.0290814
30.5625 0.0290719
30.5725 0.0290615
30.5825 0.0290505
30.5925 0.0290392
30.6025 0.0290282
30.6125 0.0290177
30.6225 0.029008
30.6325 0.0289996
30.6425 0.0289928
30.6525 0.0289878
30.6625 0.0289848
30.6725 0.0289841
30.6825 0.0289858
30.6925 0.0289901
30.7025 0.0289969
30.7125 0.0290063
30.7225 0.0290183
30.7325 0.0290327
30.7425 0.0290494
30.7525 0.0290683
30.7625 0.0290891
30.7725 0.0291116
30.7825 0.0291356
30.7925 0.0291608
30.8025 0.0291869
30.8125 0.0292136
30.8225 0.0292407
30.8325 0.0292679
30.8425 0.0292948
30.8525 0.0293213
30.8625 0.0293472
30.8725 0.0293722
30.8825 0.0293963
30.8925 0.0294193
30.9025 0.0294411
30.9125 0.0294617
30.9225 0.0294811
30.9325 0.0294995
30.9425 0.0295167
30.9525 0.029533
30.9625 0.0295485
30.9725 0.0295632
30.9825 0.0295773
30.9925 0.0295909
31.0025 0.0296042
31.0125 0.0296173
31.0225 0.0296304
31.0325 0.0296437
31.0425 0.0296574
31.0525 0.0296714
31.0625 0.0296861
31.0725 0.0297016
31.0825 0.0297177
31.0925 0.0297344
31.1025 0.0297521
31.1125 0.0297705
31.1225 0.0297898
31.1325 0.0298097
31.1425 0.0298302
31.1525 0.0298512
31.1625 0.0298725
31.1725 0.0298939
31.1825 0.0299154
31.1925 0.0299368
31.2025 0.0299577
31.2125 0.0299782
31.2225 0.0299979
31.2325 0.0300166
31.2425 0.0300343
31.2525 0.0300507
31.2625 0.0300656
31.2725 0.030079
31.2825 0.0300907
31.2925 0.0301006
31.3025 0.0301087
31.3125 0.0301148
31.3225 0.0301189
31.3325 0.0301212
31.3425 0.0301214
31.3525 0.0301199
31.3625 0.0301165
31.3725 0.0301115
31.3825 0.030105
31.3925 0.0300971
31.4025 0.0300879
31.4125 0.0300775
31.4225 0.0300663
31.4325 0.0300542
31.4425 0.0300416
31.4525 0.0300286
31.4625 0.0300151
31.4725 0.0300015
31.4825 0.0299878
31.4925 0.0299742
31.5025 0.0299607
31.5125 0.0299475
31.5225 0.0299347
31.5325 0.0299222
31.5425 0.0299102
31.5525 0.0298987
31.5625 0.0298876
31.5725 0.029877
31.5825 0.0298667
31.5925 0.0298568
31.6025 0.0298472
31.6125 0.0298377
31.6225 0.0298283
31.6325 0.0298189
31.6425 0.0298093
31.6525 0.0297996
31.6625 0.0297895
31.6725 0.0297789
31.6825 0.0297678
31.6925 0.029756
31.7025 0.0297435
31.7125 0.0297302
31.7225 0.0297161
31.7325 0.0297011
31.7425 0.0296853
31.7525 0.0296686
31.7625 0.029651
31.7725 0.0296327
31.7825 0.0296137
31.7925 0.029594
31.8025 0.0295739
31.8125 0.0295533
31.8225 0.0295324
31.8325 0.0295113
31.8425 0.0294903
31.8525 0.0294694
31.8625 0.0294487
31.8725 0.0294285
31.8825 0.0294089
31.8925 0.0293899
31.9025 0.0293718
31.9125 0.0293546
31.9225 0.0293384
31.9325 0.0293233
31.9425 0.0293094
31.9525 0.0292967
31.9625 0.0292852
31.9725 0.0292749
31.9825 0.0292658
31.9925 0.0292579
32.0025 0.0292511
32.015 0.029244
32.0275 0.0292382
32.04 0.0292336
32.0525 0.0292297
32.065 0.0292263
32.0775 0.0292231
32.09 0.0292196
32.1025 0.0292156
32.115 0.0292107
32.1275 0.0292047
32.14 0.0291975
32.1525 0.0291887
32.165 0.0291783
32.1775 0.0291662
32.19 0.0291525
32.2025 0.0291371
32.215 0.0291202
32.2275 0.0291019
32.24 0.0290822
32.2525 0.0290615
32.265 0.0290399
32.2775 0.0290176
32.29 0.0289948
32.3025 0.0289717
32.315 0.0289485
32.3275 0.0289256
32.34 0.0289029
32.3525 0.0288808
32.365 0.0288593
32.3775 0.0288386
32.39 0.0288187
32.4025 0.0287997
32.415 0.0287816
32.4275 0.0287644
32.44 0.028748
32.4525 0.0287323
32.465 0.0287173
32.4775 0.028703
32.49 0.0286892
32.5025 0.0286759
32.515 0.0286629
32.5275 0.0286501
32.54 0.0286376
32.5525 0.0286253
32.565 0.028613
32.5775 0.0286009
32.59 0.0285888
32.6025 0.0285768
32.615 0.0285649
32.6275 0.0285532
32.64 0.0285418
32.6525 0.0285307
32.665 0.0285201
32.6775 0.0285101
32.69 0.0285008
32.7025 0.0284924
32.715 0.028485
32.7275 0.0284788
32.74 0.0284739
32.7525 0.0284704
32.765 0.0284684
32.7775 0.0284681
32.79 0.0284694
32.8025 0.0284725
32.815 0.0284773
32.8275 0.0284839
32.84 0.0284921
32.8525 0.0285018
32.865 0.0285131
32.8775 0.0285257
32.89 0.0285395
32.9025 0.0285545
32.915 0.0285705
32.9275 0.0285874
32.94 0.0286052
32.9525 0.0286238
32.965 0.028643
32.9775 0.0286627
32.99 0.0286828
33.0025 0.0287031
33.015 0.0287233
33.0275 0.0287435
33.04 0.0287635
33.0525 0.028783
33.065 0.0288022
33.0775 0.0288208
33.09 0.0288388
33.1025 0.028856
33.115 0.0288727
33.1275 0.0288886
33.14 0.0289038
33.1525 0.0289184
33.165 0.0289324
33.1775 0.0289458
33.19 0.0289589
33.2025 0.0289717
33.215 0.0289843
33.2275 0.0289968
33.24 0.0290094
33.2525 0.0290222
33.265 0.0290353
33.2775 0.0290488
33.29 0.0290627
33.3025 0.0290771
33.315 0.0290921
33.3275 0.0291075
33.34 0.0291235
33.3525 0.02914
33.365 0.0291568
33.3775 0.0291741
33.39 0.0291915
33.4025 0.029209
33.415 0.0292265
33.4275 0.0292439
33.44 0.029261
33.4525 0.0292776
33.465 0.0292938
33.4775 0.0293092
33.49 0.029324
33.5025 0.029338
33.515 0.0293511
33.5275 0.0293634
33.54 0.0293748
33.5525 0.0293855
33.565 0.0293954
33.5775 0.0294046
33.59 0.0294133
33.6025 0.0294215
33.615 0.0294294
33.6275 0.029437
33.64 0.0294446
33.6525 0.0294523
33.665 0.0294601
33.6775 0.0294683
33.69 0.0294768
33.7025 0.0294858
33.715 0.0294953
33.7275 0.0295053
33.74 0.029516
33.7525 0.0295271
33.765 0.0295388
33.7775 0.029551
33.79 0.0295635
33.8025 0.0295764
33.815 0.0295894
33.8275 0.0296024
33.84 0.0296154
33.8525 0.0296281
33.865 0.0296405
33.8775 0.0296524
33.89 0.0296636
33.9025 0.0296742
33.915 0.0296839
33.9275 0.0296927
33.94 0.0297005
33.9525 0.0297074
33.965 0.0297132
33.9775 0.029718
33.99 0.0297217
34.0025 0.0297245
34.015 0.0297264
34.0275 0.0297275
34.04 0.0297278
34.0525 0.0297276
34.065 0.0297268
34.0775 0.0297256
34.09 0.029724
34.1025 0.0297223
34.115 0.0297205
34.1275 0.0297186
34.14 0.0297167
34.1525 0.0297148
34.165 0.029713
34.1775 0.0297111
34.19 0.0297093
34.2025 0.0297073
34.215 0.0297053
34.2275 0.029703
34.24 0.0297004
34.2525 0.0296973
34.265 0.0296938
34.2775 0.0296896
34.29 0.0296847
34.3025 0.029679
34.315 0.0296723
34.3275 0.0296646
34.34 0.0296558
34.3525 0.029646
34.365 0.029635
34.3775 0.0296229
34.39 0.0296097
34.4025 0.0295953
34.415 0.0295799
34.4275 0.0295636
34.44 0.0295464
34.4525 0.0295284
34.465 0.0295098
34.4775 0.0294907
34.49 0.0294712
34.5025 0.0294516
34.515 0.0294318
34.5275 0.0294121
34.54 0.0293926
34.5525 0.0293733
34.565 0.0293544
34.5775 0.029336
34.59 0.0293181
34.6025 0.0293007
34.615 0.0292839
34.6275 0.0292677
34.64 0.0292521
34.6525 0.0292369
34.665 0.0292223
34.6775 0.029208
34.69 0.0291941
34.7025 0.0291804
34.715 0.0291669
34.7275 0.0291535
34.74 0.0291402
34.7525 0.0291268
34.765 0.0291133
34.7775 0.0290997
34.79 0.0290859
34.8025 0.0290719
34.815 0.0290578
34.8275 0.0290436
34.84 0.0290292
34.8525 0.0290147
34.865 0.0290003
34.8775 0.028986
34.89 0.0289719
34.9025 0.028958
34.915 0.0289445
34.9275 0.0289316
34.94 0.0289191
34.9525 0.0289074
34.965 0.0288965
34.9775 0.0288864
34.99 0.0288771
35.0025 0.0288689
35.015 0.0288615
35.0275 0.0288552
35.04 0.0288497
35.0525 0.0288452
35.065 0.0288414
35.0775 0.0288383
35.09 0.0288358
35.1025 0.0288338
35.115 0.0288322
35.1275 0.0288307
35.14 0.0288293
35.1525 0.0288277
35.165 0.028826
35.1775 0.028824
35.19 0.0288216
35.2025 0.0288187
35.215 0.0288154
35.2275 0.0288115
35.24 0.0288072
35.2525 0.0288025
35.265 0.0287973
35.2775 0.0287918
35.29 0.0287861
35.3025 0.0287803
35.315 0.0287744
35.3275 0.0287686
35.34 0.0287629
35.3525 0.0287576
35.365 0.0287527
35.3775 0.0287484
35.39 0.0287446
35.4025 0.0287416
35.415 0.0287393
35.4275 0.0287378
35.44 0.0287371
35.4525 0.0287374
35.465 0.0287385
35.4775 0.0287406
35.49 0.0287435
35.5025 0.0287472
35.515 0.0287517
35.5275 0.028757
35.54 0.0287628
35.5525 0.0287692
35.565 0.028776
35.5775 0.0287831
35.59 0.0287905
35.6025 0.0287979
35.615 0.0288053
35.6275 0.0288126
35.64 0.0288199
35.6525 0.0288269
35.665 0.0288339
35.6775 0.0288407
35.69 0.0288474
35.7025 0.0288542
35.715 0.0288612
35.7275 0.0288684
35.74 0.028876
35.7525 0.0288842
35.765 0.0288931
35.7775 0.0289028
35.79 0.0289134
35.8025 0.028925
35.815 0.0289376
35.8275 0.0289512
35.84 0.0289659
35.8525 0.0289815
35.865 0.0289981
35.8775 0.0290155
35.89 0.0290336
35.9025 0.0290522
35.915 0.0290712
35.9275 0.0290903
35.94 0.0291092
35.9525 0.0291279
35.965 0.0291461
35.9775 0.0291636
35.99 0.0291803
36.0025 0.029196
36.015 0.0292106
36.0275 0.029224
36.04 0.0292363
36.0525 0.0292473
36.065 0.0292572
36.0775 0.029266
36.09 0.0292738
36.1025 0.0292808
36.115 0.0292871
36.1275 0.0292928
36.14 0.0292982
36.1525 0.0293034
36.165 0.0293086
36.1775 0.0293141
36.19 0.0293199
36.2025 0.0293262
36.215 0.0293331
36.2275 0.0293408
36.24 0.0293493
36.2525 0.0293587
36.265 0.0293688
36.2775 0.0293798
36.29 0.0293914
36.3025 0.0294037
36.315 0.0294165
36.3275 0.0294296
36.34 0.0294429
36.3525 0.0294561
36.365 0.0294692
36.3775 0.0294819
36.39 0.029494
36.4025 0.0295053
36.415 0.0295158
36.4275 0.0295252
36.44 0.0295334
36.4525 0.0295404
36.465 0.0295462
36.4775 0.0295507
36.49 0.0295538
36.5025 0.0295558
36.515 0.0295566
36.5275 0.0295564
36.54 0.0295553
36.5525 0.0295535
36.565 0.0295511
36.5775 0.0295483
36.59 0.0295454
36.6025 0.0295424
36.615 0.0295396
36.6275 0.0295371
36.64 0.029535
36.6525 0.0295334
