0.0025 1.37812e-05
0.0125 1.37783e-05
0.0225 1.37694e-05
0.035 1.37694e-05
0.045 1.37952e-05
0.055 1.38646e-05
0.065 1.39972e-05
0.075 1.42127e-05
0.085 1.4529e-05
0.095 1.49604e-05
0.105 1.55149e-05
0.115 1.61914e-05
0.125 1.6978e-05
0.135 1.78448e-05
0.145 1.87554e-05
0.155 1.96449e-05
0.165 2.04248e-05
0.175 2.09764e-05
0.185 2.11468e-05
0.195 2.07481e-05
0.205 1.95582e-05
0.215 1.73249e-05
0.225 1.37702e-05
0.235 8.59687e-06
0.245 1.49735e-06
0.255 -7.84803e-06
0.265 -1.97545e-05
0.275 -3.45041e-05
0.285 -5.23617e-05
0.295 -7.35326e-05
0.305 -9.81277e-05
0.315 -0.000126157
0.325 -0.000157467
0.335 -0.000191723
0.345 -0.000228423
0.355 -0.000266877
0.365 -0.000306221
0.375 -0.000345442
0.385 -0.000383394
0.395 -0.000418855
0.405 -0.000450507
0.415 -0.000477035
0.425 -0.000497143
0.435 -0.000509605
0.445 -0.000513299
0.455 -0.000507232
0.465 -0.000490569
0.475 -0.00046268
0.485 -0.000423163
0.495 -0.000371875
0.5075 -0.000291449
0.52 -0.000193805
0.5325 -8.06693e-05
0.545 4.54591e-05
0.5575 0.000181444
0.57 0.000323536
0.5825 0.000467694
0.595 0.00060989
0.6075 0.000746389
0.62 0.000874059
0.6325 0.000990659
0.645 0.00109501
0.6575 0.00118709
0.67 0.00126798
0.6825 0.00133981
0.695 0.0014056
0.7075 0.00146904
0.72 0.00153426
0.7325 0.0016056
0.745 0.00168727
0.7575 0.00178307
0.77 0.00189608
0.7825 0.00202843
0.795 0.00218115
0.8075 0.00235409
0.82 0.0025459
0.8325 0.00275406
0.845 0.00297499
0.8575 0.00320421
0.87 0.00343651
0.8825 0.00366619
0.895 0.00388734
0.9075 0.00409405
0.92 0.00428076
0.9325 0.00444242
0.945 0.00457476
0.9575 0.00467447
0.97 0.00473927
0.9825 0.00476811
0.995 0.00476121
1.005 0.00473096
1.0175 0.00466451
1.03 0.00456985
1.0425 0.00445181
1.055 0.00431599
1.0675 0.00416847
1.08 0.00401547
1.0925 0.003863
1.105 0.00371654
1.1175 0.0035807
1.13 0.00345901
1.1425 0.00335363
1.155 0.00326524
1.1675 0.00319296
1.18 0.00313436
1.1925 0.00308549
1.205 0.00304098
1.2175 0.00299426
1.23 0.0029378
1.2425 0.00286352
1.255 0.00276313
1.2675 0.00262858
1.28 0.00245251
1.2925 0.00222866
1.305 0.00195221
1.3175 0.00162032
1.33 0.00123234
1.3425 0.000789935
1.355 0.00029712
1.3675 -0.000239939
1.38 -0.000812936
1.3925 -0.00141208
1.405 -0.00202612
1.4175 -0.00264273
1.43 -0.00324903
1.4425 -0.00383206
1.455 -0.00437921
1.4675 -0.00487871
1.48 -0.00532012
1.4925 -0.00569475
1.505 -0.00599595
1.5175 -0.00621951
1.53 -0.00636383
1.5425 -0.00643016
1.555 -0.00642256
1.5675 -0.00634777
1.58 -0.00621492
1.5925 -0.00603515
1.605 -0.00582106
1.6175 -0.00558608
1.63 -0.00534388
1.6425 -0.00510764
1.655 -0.00488952
1.6675 -0.00470007
1.68 -0.00454778
1.6925 -0.00443844
1.705 -0.00437432
1.7175 -0.00435672
1.73 -0.00438318
1.7425 -0.00444904
1.755 -0.00454703
1.7675 -0.0046733
1.78 -0.00481792
1.7925 -0.00497273
1.805 -0.00512753
1.8175 -0.00527242
1.83 -0.00539788
1.8425 -0.00549492
1.855 -0.00555552
1.8675 -0.00557318
1.88 -0.00554318
1.8925 -0.00546268
1.905 -0.00533097
1.9175 -0.00514948
1.93 -0.00492186
1.9425 -0.00465377
1.955 -0.00435256
1.9675 -0.00402766
1.98 -0.00369011
1.9925 -0.00335205
2.0025 -0.00308973
2.0125 -0.00284164
2.0225 -0.00261403
2.0325 -0.00241273
2.0425 -0.00224296
2.0525 -0.00210919
2.0625 -0.00201495
2.0725 -0.00196274
2.0825 -0.00195397
2.0925 -0.00198887
2.1025 -0.00206653
2.1125 -0.0021849
2.1225 -0.00234088
2.1325 -0.00253041
2.1425 -0.00274856
2.1525 -0.00298965
2.1625 -0.0032474
2.1725 -0.00351504
2.1825 -0.00378549
2.1925 -0.00405149
2.2025 -0.00430584
2.2125 -0.00454149
2.2225 -0.00475178
2.2325 -0.00493053
2.2425 -0.00507225
2.2525 -0.00517217
2.2625 -0.00522645
2.2725 -0.00523215
2.2825 -0.00518738
2.2925 -0.00509126
2.3025 -0.00494394
2.3125 -0.00474657
2.3225 -0.00450124
2.3325 -0.00421091
2.3425 -0.00387943
2.3525 -0.00351196
2.3625 -0.00311137
2.3725 -0.00268346
2.3825 -0.00223332
2.3925 -0.00176658
2.4025 -0.001289
2.4125 -0.000806221
2.4225 -0.000323864
2.4325 0.000152847
2.4425 0.000618636
2.4525 0.00106869
2.4625 0.00149867
2.4725 0.00190496
2.4825 0.00228442
2.4925 0.0026345
2.5025 0.00295336
2.5125 0.00323987
2.5225 0.00349361
2.5325 0.00371483
2.5425 0.00390441
2.5525 0.00406378
2.5625 0.00419494
2.5725 0.00430033
2.5825 0.00438279
2.5925 0.00444547
2.6025 0.00449168
2.6125 0.00452488
2.6225 0.00454855
2.6325 0.0045661
2.6425 0.00458077
2.6525 0.00459553
2.6625 0.00461303
2.6725 0.00463549
2.6825 0.00466466
2.6925 0.00470173
2.7025 0.00474735
2.7125 0.00480153
2.7225 0.00486369
2.7325 0.00493266
2.7425 0.00500668
2.7525 0.00508348
2.7625 0.00516033
2.7725 0.00523412
2.7825 0.00530143
2.7925 0.00535868
2.8025 0.00540221
2.8125 0.00542842
2.8225 0.00543386
2.8325 0.00541543
2.8425 0.00537039
2.8525 0.00529655
2.8625 0.0051923
2.8725 0.00505673
2.8825 0.00488967
2.8925 0.00469173
2.9025 0.00446432
2.9125 0.00420962
2.9225 0.0039303
2.9325 0.00363039
2.9425 0.00331447
2.9525 0.00298726
2.9625 0.00265434
2.9725 0.00232121
2.9825 0.00199382
2.9925 0.00167813
3.0025 0.00138018
3.0125 0.0011059
3.0225 0.000860938
3.0325 0.000650602
3.0425 0.000479545
3.0525 0.000351917
3.0625 0.000271158
3.0725 0.000239862
3.0825 0.000259701
3.0925 0.00033135
3.1025 0.000454425
3.1125 0.000627452
3.1225 0.000847856
3.1325 0.00111205
3.1425 0.00141521
3.1525 0.00175161
3.1625 0.00211467
3.1725 0.00249706
3.1825 0.00289081
3.1925 0.00328749
3.2025 0.00367846
3.2125 0.00405501
3.2225 0.00440863
3.2325 0.00473115
3.2425 0.00501497
3.2525 0.00525328
3.2625 0.00544017
3.2725 0.00557082
3.2825 0.0056416
3.2925 0.00565014
3.3025 0.00559538
3.3125 0.00547757
3.3225 0.00529832
3.3325 0.00506045
3.3425 0.00476798
3.3525 0.00442594
3.3625 0.00404029
3.3725 0.00361771
3.3825 0.00316542
3.3925 0.00269142
3.4025 0.00220355
3.4125 0.00170765
3.4225 0.00121189
3.4325 0.000722525
3.4425 0.000246135
3.4525 -0.000211559
3.4625 -0.000645837
3.4725 -0.00105266
3.4825 -0.00142896
3.4925 -0.0017725
3.5025 -0.00208213
3.5125 -0.00235773
3.5225 -0.00260017
3.5325 -0.00281098
3.5425 -0.00299264
3.5525 -0.00314827
3.5625 -0.0032816
3.5725 -0.00339674
3.5825 -0.00349815
3.5925 -0.00359041
3.6025 -0.00367804
3.6125 -0.00376539
3.6225 -0.00385638
3.6325 -0.0039544
3.6425 -0.00406214
3.6525 -0.00418152
3.6625 -0.00431349
3.6725 -0.00445817
3.6825 -0.00461545
3.6925 -0.00478364
3.7025 -0.00496071
3.7125 -0.00514358
3.7225 -0.00532864
3.7325 -0.00551173
3.7425 -0.00568827
3.7525 -0.0058534
3.7625 -0.00600213
3.7725 -0.0061295
3.7825 -0.00623074
3.7925 -0.0063014
3.8025 -0.00633757
3.8125 -0.00633593
3.8225 -0.00629391
3.8325 -0.00620979
3.8425 -0.00608278
3.8525 -0.00591307
3.8625 -0.00570185
3.8725 -0.00545131
3.8825 -0.00516465
3.8925 -0.00484599
3.9025 -0.00450023
3.9125 -0.00413307
3.9225 -0.00375097
3.9325 -0.00336077
3.9425 -0.0029697
3.9525 -0.0025851
3.9625 -0.00221428
3.9725 -0.00186428
3.9825 -0.00154178
3.9925 -0.00125285
4.0025 -0.00100283
4.0125 -0.000796142
4.0225 -0.000636484
4.0325 -0.000526407
4.0425 -0.000467398
4.0525 -0.000459856
4.0625 -0.000503101
4.0725 -0.00059542
4.0825 -0.000734091
4.0925 -0.000915466
4.1025 -0.00113497
4.1125 -0.00138748
4.1225 -0.0016672
4.1325 -0.00196786
4.1425 -0.0022829
4.1525 -0.00260563
4.1625 -0.00292938
4.1725 -0.00324768
4.1825 -0.00355437
4.1925 -0.0038438
4.2025 -0.0041109
4.2125 -0.00435131
4.2225 -0.00456143
4.2325 -0.00473853
4.2425 -0.00488074
4.2525 -0.00498711
4.2625 -0.00505761
4.2725 -0.00509308
4.2825 -0.00509524
4.2925 -0.00506658
4.3025 -0.00501029
4.3125 -0.00493017
4.3225 -0.00483048
4.3325 -0.00471583
4.3425 -0.00459098
4.3525 -0.00446073
4.3625 -0.00432971
4.3725 -0.00420225
4.3825 -0.00408218
4.3925 -0.00397272
4.4025 -0.00387635
4.4125 -0.0037947
4.4225 -0.00372851
4.4325 -0.00367757
4.4425 -0.00364072
4.4525 -0.00361587
4.4625 -0.00360005
4.4725 -0.00358959
4.4825 -0.00358033
4.4925 -0.0035662
4.5025 -0.00354237
4.5125 -0.00350295
4.5225 -0.00344231
4.5325 -0.00335493
4.5425 -0.00323561
4.5525 -0.00307962
4.5625 -0.00288291
4.5725 -0.0026422
4.5825 -0.00235514
4.5925 -0.00202053
4.6025 -0.00163823
4.6125 -0.00120935
4.6225 -0.000736152
4.6325 -0.000222103
4.6425 0.000328145
4.6525 0.000908998
4.6625 0.00151348
4.6725 0.00213393
4.6825 0.00276201
4.6925 0.00338883
4.7025 0.00400511
4.7125 0.00460142
4.7225 0.00516845
4.7325 0.00569717
4.7425 0.00617912
4.7525 0.00660655
4.7625 0.00697815
4.7725 0.00728729
4.7825 0.00752128
4.7925 0.0076859
4.8025 0.00777978
4.8125 0.00780285
4.8225 0.00775727
4.8325 0.00764422
4.8425 0.00746819
4.8525 0.00723579
4.8625 0.00695421
4.8725 0.00663076
4.8825 0.00627318
4.8925 0.00589033
4.9025 0.00549204
4.9125 0.00508838
4.9225 0.00468896
4.9325 0.0043028
4.9425 0.00393844
4.9525 0.00360408
4.9625 0.00330832
4.9725 0.00306051
4.9825 0.00285375
4.9925 0.0026949
5.0025 0.00258735
5.0125 0.00252882
5.0225 0.00252092
5.0325 0.00256442
5.0425 0.00265809
5.0525 0.00279839
5.0625 0.00298256
5.0725 0.00320564
5.0825 0.00346226
5.0925 0.00374624
5.1025 0.00405102
5.1125 0.0043696
5.1225 0.00469472
5.1325 0.00501919
5.1425 0.00533593
5.1525 0.00563814
5.1625 0.00591952
5.1725 0.00617435
5.1825 0.0063977
5.1925 0.00658546
5.2025 0.00673446
5.2125 0.0068425
5.2225 0.00690838
5.2325 0.00693201
5.2425 0.00691455
5.2525 0.00685809
5.2625 0.00676577
5.2725 0.00664152
5.2825 0.00649001
5.2925 0.00631651
5.3025 0.00612669
5.3125 0.00592647
5.3225 0.00572185
5.3325 0.00551872
5.3425 0.00532272
5.3525 0.00513907
5.3625 0.00497241
5.3725 0.00482671
5.3825 0.00470513
5.3925 0.00460996
5.4025 0.00454252
5.4125 0.00450321
5.4225 0.0044914
5.4325 0.00450556
5.4425 0.00454326
5.4525 0.0046013
5.4625 0.00467579
5.4725 0.00476228
5.4825 0.00485593
5.4925 0.00495163
5.5025 0.00504415
5.5125 0.00512833
5.5225 0.00519918
5.5325 0.00525206
5.5425 0.00528281
5.5525 0.00528784
5.5625 0.00526427
5.5725 0.00520993
5.5825 0.00512347
5.5925 0.00500432
5.6025 0.00485268
5.6125 0.00466954
5.6225 0.00445661
5.6325 0.00421627
5.6425 0.00395151
5.6525 0.00366585
5.6625 0.00336325
5.6725 0.00304805
5.6825 0.00272478
5.6925 0.00239815
5.7025 0.00207287
5.7125 0.00175357
5.7225 0.00144436
5.7325 0.00114883
5.7425 0.000871779
5.7525 0.000615641
5.7625 0.000383051
5.7725 0.000177115
5.7825 -3.02225e-06
5.7925 -0.000155994
5.8025 -0.000281949
5.8125 -0.000381904
5.8225 -0.000456992
5.8325 -0.000509292
5.8425 -0.000541458
5.8525 -0.000554848
5.8625 -0.00055324
5.8725 -0.000539396
5.8825 -0.000516894
5.8925 -0.000489228
5.9025 -0.000459934
5.9125 -0.000432461
5.9225 -0.000410101
5.9325 -0.000395995
5.9425 -0.000392919
5.9525 -0.000403219
5.9625 -0.000428801
5.9725 -0.0004711
5.9825 -0.000531017
5.9925 -0.000608888
6.0025 -0.00070448
6.0125 -0.000817009
6.0225 -0.000945166
6.0325 -0.00108715
6.0425 -0.00124073
6.0525 -0.00140363
6.0625 -0.00157289
6.0725 -0.00174507
6.0825 -0.00191734
6.0925 -0.00208636
6.1025 -0.00224888
6.1125 -0.00240171
6.1225 -0.00254194
6.1325 -0.00266699
6.1425 -0.00277462
6.1525 -0.00286298
6.1625 -0.00293069
6.1725 -0.00297692
6.1825 -0.00300146
6.1925 -0.00300476
6.2025 -0.00298787
6.2125 -0.00295235
6.2225 -0.00290044
6.2325 -0.00283489
6.2425 -0.00275897
6.2525 -0.0026763
6.2625 -0.00259081
6.2725 -0.00250659
6.2825 -0.00242779
6.2925 -0.00235862
6.3025 -0.00230312
6.3125 -0.00226504
6.3225 -0.00224774
6.3325 -0.00225409
6.3425 -0.00228639
6.3525 -0.00234633
6.3625 -0.00243483
6.3725 -0.00255193
6.3825 -0.00269771
6.3925 -0.00287076
6.4025 -0.00306948
6.4125 -0.00329133
6.4225 -0.00353326
6.4325 -0.00379159
6.4425 -0.00406298
6.4525 -0.00434244
6.4625 -0.00462505
6.4725 -0.00490653
6.4825 -0.00518191
6.4925 -0.00544634
6.5025 -0.00569504
6.5125 -0.00592362
6.5225 -0.00612812
6.5325 -0.00630495
6.5425 -0.00645095
6.5525 -0.00656352
6.5625 -0.00664086
6.5725 -0.00668187
6.5825 -0.0066862
6.5925 -0.0066543
6.6025 -0.00658717
6.6125 -0.00648642
6.6225 -0.00635432
6.6325 -0.00619359
6.6425 -0.00600733
6.6525 -0.00579886
6.6625 -0.00557165
6.6725 -0.00532927
6.6825 -0.00507521
6.6925 -0.00481281
6.7025 -0.00454517
6.7125 -0.00427506
6.7225 -0.00400485
6.7325 -0.0037365
6.7425 -0.0034715
6.7525 -0.00321084
6.7625 -0.002955
6.7725 -0.00270397
6.7825 -0.00245731
6.7925 -0.00221417
6.8025 -0.00197341
6.8125 -0.0017336
6.8225 -0.00149317
6.8325 -0.00125048
6.8425 -0.00100389
6.8525 -0.000751863
6.8625 -0.000493077
6.8725 -0.000226156
6.8825 4.95269e-05
6.8925 0.000333872
6.9025 0.000627634
6.9125 0.000929358
6.9225 0.00123966
6.9325 0.00155712
6.9425 0.00188085
6.9525 0.00220874
6.9625 0.00253855
6.9725 0.00286775
6.9825 0.0031935
6.9925 0.00351265
7.0025 0.00382168
7.0125 0.00411693
7.0225 0.00439466
7.0325 0.00465115
7.0425 0.00488272
7.0525 0.00508587
7.0625 0.00525727
7.0725 0.00539395
7.0825 0.00549336
7.0925 0.00555344
7.1025 0.00557271
7.1125 0.00555032
7.1225 0.00548616
7.1325 0.00538073
7.1425 0.00523533
7.1525 0.00505208
7.1625 0.0048338
7.1725 0.00458402
7.1825 0.00430694
7.1925 0.00400732
7.2025 0.00369045
7.2125 0.00336204
7.2225 0.00302805
7.2325 0.00269461
7.2425 0.0023679
7.2525 0.00205404
7.2625 0.00175895
7.2725 0.00148788
7.2825 0.0012459
7.2925 0.00103823
7.3025 0.000868296
7.3125 0.000739405
7.3225 0.00065411
7.3325 0.000614303
7.3425 0.000621047
7.3525 0.000674425
7.3625 0.000773822
7.3725 0.000917899
7.3825 0.00110457
7.3925 0.00133109
7.4025 0.00159405
7.4125 0.00188992
7.4225 0.00221415
7.4325 0.00256187
7.4425 0.00292849
7.4525 0.00330896
7.4625 0.00369824
7.4725 0.00409102
7.4825 0.00448337
7.4925 0.00487074
7.5025 0.00524914
7.5125 0.00561485
7.5225 0.00596443
7.5325 0.00629506
7.5425 0.00660436
7.5525 0.00689048
7.5625 0.00715202
7.5725 0.00738821
7.5825 0.00759854
7.5925 0.00778285
7.6025 0.00794165
7.6125 0.00807572
7.6225 0.00818636
7.6325 0.00827503
7.6425 0.00834351
7.6525 0.00839373
7.6625 0.00842774
7.6725 0.0084476
7.6825 0.00845532
7.6925 0.00845279
7.7025 0.00844168
7.7125 0.00842342
7.7225 0.00839913
7.7325 0.00836958
7.7425 0.00833518
7.7525 0.00829588
7.7625 0.00825128
7.7725 0.0082006
7.7825 0.00814271
7.7925 0.0080762
7.8025 0.00799945
7.8125 0.00791074
7.8225 0.00780828
7.8325 0.00769037
7.8425 0.00755542
7.8525 0.00740204
7.8625 0.00722915
7.8725 0.00703596
7.8825 0.00682212
7.8925 0.00658767
7.9025 0.0063331
7.9125 0.00605937
7.9225 0.00576793
7.9325 0.00546063
7.9425 0.00513978
7.9525 0.00480804
7.9625 0.0044684
7.9725 0.0041241
7.9825 0.00377857
7.9925 0.00343531
8.0025 0.00309786
8.015 0.00268944
8.0275 0.00230177
8.04 0.00194045
8.0525 0.00160975
8.065 0.00131306
8.0775 0.00105304
8.09 0.000829931
8.1025 0.000643179
8.115 0.000491128
8.1275 0.000370934
8.14 0.000279082
8.1525 0.0002105
8.165 0.000157102
8.1775 0.0001149
8.19 7.72725e-05
8.2025 3.87353e-05
8.215 -6.08817e-06
8.2275 -6.19085e-05
8.24 -0.000132598
8.2525 -0.000221077
8.265 -0.000329417
8.2775 -0.000458564
8.29 -0.000608596
8.3025 -0.000778225
8.315 -0.00096558
8.3275 -0.00116783
8.34 -0.00138136
8.3525 -0.00160206
8.365 -0.00182546
8.3775 -0.0020469
8.39 -0.00226169
8.4025 -0.00246534
8.415 -0.00265378
8.4275 -0.00282353
8.44 -0.00297178
8.4525 -0.00309654
8.465 -0.00319673
8.4775 -0.00327224
8.49 -0.00332388
8.5025 -0.00335345
8.515 -0.00336363
8.5275 -0.00335787
8.54 -0.00334035
8.5525 -0.0033158
8.565 -0.00328927
8.5775 -0.00326598
8.59 -0.00325112
8.6025 -0.00324958
8.615 -0.00326575
8.6275 -0.00330332
8.64 -0.00336513
8.6525 -0.003453
8.665 -0.0035677
8.6775 -0.00370888
8.69 -0.00387511
8.7025 -0.00406398
8.715 -0.00427268
8.7275 -0.00449645
8.74 -0.0047311
8.7525 -0.00497151
8.765 -0.00521223
8.7775 -0.00544781
8.79 -0.00567276
8.8025 -0.00588255
8.815 -0.00607242
8.8275 -0.00623829
8.84 -0.00637654
8.8525 -0.00648481
8.865 -0.00656153
8.8775 -0.00660604
8.89 -0.00661847
8.9025 -0.00659981
8.915 -0.00655155
8.9275 -0.00647561
8.94 -0.00637419
8.9525 -0.00624956
8.965 -0.00610387
8.9775 -0.00593905
8.99 -0.00575674
9.0025 -0.00555821
9.015 -0.00534433
9.0275 -0.00511563
9.04 -0.00487223
9.0525 -0.00461395
9.065 -0.00434033
9.0775 -0.00405072
9.09 -0.00374439
9.1025 -0.00342063
9.115 -0.00307885
9.1275 -0.00271873
9.14 -0.00234027
9.1525 -0.00194393
9.165 -0.00153064
9.1775 -0.00110212
9.19 -0.000659927
9.2025 -0.000205345
9.215 0.000259769
9.2275 0.000733902
9.24 0.00121234
9.2525 0.00169259
9.265 0.00217111
9.2775 0.00264383
9.29 0.00310618
9.3025 0.00355372
9.315 0.00398195
9.3275 0.00438617
9.34 0.00476155
9.3525 0.0051035
9.365 0.00540779
9.3775 0.00567044
9.39 0.00588783
9.4025 0.00605686
9.415 0.00617508
9.4275 0.00624072
9.44 0.00625273
9.4525 0.00621102
9.465 0.00611627
9.4775 0.00597014
9.49 0.00577524
9.5025 0.00553504
9.515 0.00525382
9.5275 0.00493664
9.54 0.00458929
9.5525 0.0042181
9.565 0.00382988
9.5775 0.0034317
9.59 0.00303084
9.6025 0.00263459
9.615 0.00225002
9.6275 0.00188384
9.64 0.00154244
9.6525 0.00123093
9.665 0.000955039
9.6775 0.000718233
9.69 0.00052315
9.7025 0.000371367
9.715 0.000263399
9.7275 0.000198371
9.74 0.0001742
9.7525 0.00018784
9.765 0.00023552
9.7775 0.000312653
9.79 0.000414079
9.8025 0.000534342
9.815 0.000667907
9.8275 0.000809298
9.84 0.000953367
9.8525 0.00109536
9.865 0.00123091
9.8775 0.00135669
9.89 0.00146998
9.9025 0.0015689
9.915 0.00165242
9.9275 0.00172042
9.94 0.00177342
9.9525 0.0018125
9.965 0.00183924
9.9775 0.00185621
9.99 0.00186305
10.0025 0.0018614
10.015 0.00185163
10.0275 0.00183482
10.04 0.00181099
10.0525 0.00177992
10.065 0.0017407
10.0775 0.00169198
10.09 0.00163188
10.1025 0.00155801
10.115 0.00146765
10.1275 0.00135791
10.14 0.00122559
10.1525 0.00106767
10.165 0.000881333
10.1775 0.000664119
10.19 0.000414055
10.2025 0.000129717
10.215 -0.000189943
10.2275 -0.00054421
10.24 -0.000932444
10.2525 -0.00135267
10.265 -0.00180195
10.2775 -0.00227643
10.29 -0.00277154
10.3025 -0.00328193
10.315 -0.00380155
10.3275 -0.00432383
10.34 -0.0048419
10.3525 -0.00534869
10.365 -0.00583709
10.3775 -0.0063001
10.39 -0.00673105
10.4025 -0.00712377
10.415 -0.00747272
10.4275 -0.00777462
10.44 -0.00802758
10.4525 -0.00822592
10.465 -0.00837301
10.4775 -0.00846668
10.49 -0.00850625
10.5025 -0.00849278
10.515 -0.00842932
10.5275 -0.0083179
10.54 -0.00816106
10.5525 -0.00796236
10.565 -0.00772646
10.5775 -0.00745841
10.59 -0.00716326
10.6025 -0.00684637
10.615 -0.00651336
10.6275 -0.0061698
10.64 -0.00582074
10.6525 -0.00547075
10.665 -0.00512389
10.6775 -0.00478372
10.69 -0.00445304
10.7025 -0.0041339
10.715 -0.00382774
10.7275 -0.00353546
10.74 -0.00325749
10.7525 -0.00299381
10.765 -0.0027441
10.7775 -0.0025078
10.79 -0.00228421
10.8025 -0.00207245
10.815 -0.00187156
10.8275 -0.00168055
10.84 -0.00149844
10.8525 -0.00132424
10.865 -0.00115704
10.8775 -0.000995855
10.89 -0.000839645
10.9025 -0.000688249
10.915 -0.000540672
10.9275 -0.000396597
10.94 -0.000255902
10.9525 -0.0001182
10.965 1.51436e-05
10.9775 0.000146908
10.99 0.000276057
11.0025 0.000403273
11.015 0.000528219
11.0275 0.000650781
11.04 0.000770469
11.0525 0.000886594
11.065 0.000998187
11.0775 0.0011041
11.09 0.00120298
11.1025 0.00129324
11.115 0.0013731
11.1275 0.0014407
11.14 0.00149413
11.1525 0.00153147
11.165 0.00155094
11.1775 0.00155091
11.19 0.00153005
11.2025 0.00148741
11.215 0.0014224
11.2275 0.00133497
11.24 0.0012255
11.2525 0.00109481
11.265 0.000944116
11.2775 0.00077507
11.29 0.000589737
11.3025 0.000390567
11.315 0.000180341
11.3275 -3.78365e-05
11.34 -0.000260609
11.3525 -0.000484693
11.365 -0.000706412
11.3775 -0.000922349
11.39 -0.00112932
11.4025 -0.00132424
11.415 -0.00150429
11.4275 -0.00166709
11.44 -0.00181073
11.4525 -0.00193376
11.465 -0.00203517
11.4775 -0.00211444
11.49 -0.00217155
11.5025 -0.00220688
11.515 -0.00222142
11.5275 -0.00221496
11.54 -0.00218846
11.5525 -0.00214249
11.565 -0.00207795
11.5775 -0.00199554
11.59 -0.00189592
11.6025 -0.00177968
11.615 -0.0016473
11.6275 -0.00149914
11.64 -0.00133546
11.6525 -0.00115655
11.665 -0.000962724
11.6775 -0.000754292
11.69 -0.000531495
11.7025 -0.00029487
11.715 -4.44317e-05
11.7275 0.000217932
11.74 0.000491058
11.7525 0.000772992
11.765 0.00106085
11.7775 0.00135104
11.79 0.00163955
11.8025 0.00192185
11.815 0.00219277
11.8275 0.00244674
11.84 0.00267807
11.8525 0.00288115
11.865 0.00305051
11.8775 0.00318106
11.89 0.00326836
11.9025 0.00330878
11.915 0.00329971
11.9275 0.00323977
11.94 0.00312865
11.9525 0.00296739
11.965 0.00275846
11.9775 0.00250557
11.99 0.00221358
12.0025 0.00188838
12.015 0.00153678
12.0275 0.00116619
12.04 0.000784376
12.0525 0.000399234
12.065 1.74406e-05
12.0775 -0.000352543
12.09 -0.000704841
12.1025 -0.00103395
12.115 -0.00133503
12.1275 -0.001604
12.14 -0.00183812
12.1525 -0.00203596
12.165 -0.00219672
12.1775 -0.00232065
12.19 -0.00240895
12.2025 -0.00246383
12.215 -0.00248813
12.2275 -0.00248526
12.24 -0.00245866
12.2525 -0.00241236
12.265 -0.00235035
12.2775 -0.00227647
12.29 -0.00219422
12.3025 -0.00210668
12.315 -0.00201645
12.3275 -0.00192545
12.34 -0.00183492
12.3525 -0.00174536
12.365 -0.00165659
12.3775 -0.0015677
12.39 -0.0014772
12.4025 -0.00138301
12.415 -0.00128298
12.4275 -0.00117479
12.44 -0.00105617
12.4525 -0.000925012
12.465 -0.000779651
12.4775 -0.000618829
12.49 -0.000442445
12.5025 -0.000250695
12.515 -4.48056e-05
12.5275 0.00017354
12.54 0.000401439
12.5525 0.000635117
12.565 0.000870524
12.5775 0.00110319
12.59 0.00132874
12.6025 0.00154233
12.615 0.00173922
12.6275 0.00191476
12.64 0.00206457
12.6525 0.00218492
12.665 0.00227283
12.6775 0.00232623
12.69 0.00234403
12.7025 0.00232639
12.715 0.00227457
12.7275 0.00219104
12.74 0.00207938
12.7525 0.00194414
12.765 0.00179063
12.7775 0.00162476
12.79 0.00145302
12.8025 0.00128196
12.815 0.00111801
12.8275 0.000967137
12.84 0.000834633
12.8525 0.0007248
12.865 0.000640726
12.8775 0.000584764
12.89 0.000557575
12.9025 0.000558295
12.915 0.000586385
12.9275 0.000639491
12.94 0.000714899
12.9525 0.000808683
12.965 0.000916533
12.9775 0.00103401
12.99 0.00115642
13.0025 0.00127918
13.015 0.00139807
13.0275 0.00150939
13.04 0.00161007
13.0525 0.00169782
13.065 0.0017712
13.0775 0.00182971
13.09 0.00187372
13.1025 0.00190458
13.115 0.00192426
13.1275 0.00193534
13.14 0.001941
13.1525 0.00194494
13.165 0.00195113
13.1775 0.00196366
13.19 0.00198649
13.2025 0.0020233
13.215 0.00207723
13.2275 0.00215067
13.24 0.00224506
13.2525 0.0023609
13.265 0.00249785
13.2775 0.00265393
13.29 0.00282654
13.3025 0.00301185
13.315 0.00320511
13.3275 0.00340078
13.34 0.00359277
13.3525 0.00377455
13.365 0.00393933
13.3775 0.00408028
13.39 0.00419076
13.4025 0.00426455
13.415 0.00429601
13.4275 0.00428025
13.44 0.00421335
13.4525 0.00409255
13.465 0.00391617
13.4775 0.00368384
13.49 0.00339781
13.5025 0.00305943
13.515 0.00267273
13.5275 0.00224229
13.54 0.0017743
13.5525 0.00127578
13.565 0.000754529
13.5775 0.000217553
13.59 -0.000325774
13.6025 -0.000866587
13.615 -0.0013975
13.6275 -0.00191039
13.64 -0.00239706
13.6525 -0.00285033
13.665 -0.00326415
13.6775 -0.00363322
13.69 -0.00395306
13.7025 -0.00422043
13.715 -0.00443362
13.7275 -0.00459224
13.74 -0.00469706
13.7525 -0.00475007
13.765 -0.00475465
13.7775 -0.00471506
13.79 -0.00463644
13.8025 -0.00452456
13.815 -0.00438565
13.8275 -0.00422614
13.84 -0.00405245
13.8525 -0.00387081
13.865 -0.00368703
13.8775 -0.00350639
13.89 -0.00333354
13.9025 -0.00317242
13.915 -0.00302619
13.9275 -0.0028972
13.94 -0.00278702
13.9525 -0.00269645
13.965 -0.00262553
13.9775 -0.00257364
13.99 -0.00253963
14.0025 -0.00252191
14.015 -0.00251864
14.0275 -0.00252788
14.04 -0.00254771
14.0525 -0.00257642
14.065 -0.00261259
14.0775 -0.00265522
14.09 -0.0027038
14.1025 -0.00275831
14.115 -0.00281926
14.1275 -0.00288756
14.14 -0.00296468
14.1525 -0.00305256
14.165 -0.00315335
14.1775 -0.00326923
14.19 -0.00340211
14.2025 -0.00355349
14.215 -0.00372418
14.2275 -0.00391419
14.24 -0.00412254
14.2525 -0.00434725
14.265 -0.00458526
14.2775 -0.00483248
14.29 -0.00508384
14.3025 -0.00533342
14.315 -0.00557546
14.3275 -0.00580218
14.34 -0.00600646
14.3525 -0.0061811
14.365 -0.00631838
14.3775 -0.00641055
14.39 -0.00645051
14.4025 -0.00643166
14.415 -0.00634799
14.4275 -0.00619542
14.44 -0.00596805
14.4525 -0.00566203
14.465 -0.00527714
14.4775 -0.00481293
14.49 -0.00427191
14.5025 -0.00365777
14.515 -0.00297637
14.5275 -0.00223502
14.54 -0.00144258
14.5525 -0.000609186
14.565 0.000255581
14.5775 0.0011404
14.59 0.00203113
14.6025 0.0029185
14.615 0.00379044
14.6275 0.00463484
14.64 0.0054407
14.6525 0.00619847
14.665 0.00689924
14.6775 0.00753476
14.69 0.00809826
14.7025 0.00858791
14.715 0.00900247
14.7275 0.0093352
14.74 0.00959416
14.7525 0.0097796
14.765 0.00989459
14.7775 0.00994357
14.79 0.00993405
14.8025 0.00987242
14.815 0.00967536
14.8275 0.00951147
14.84 0.00933932
14.8525 0.00919601
14.865 0.00902788
14.8775 0.00887043
14.89 0.00875432
14.9025 0.00868634
14.915 0.0086493
14.9275 0.00865417
14.94 0.00872702
14.9525 0.00886449
14.965 0.00907075
14.9775 0.00933452
14.99 0.00966259
15.0025 0.0100334
15.015 0.010448
15.0275 0.0109793
15.04 0.0116748
15.0525 0.0121057
15.065 0.0126377
15.0775 0.0131528
15.09 0.0136263
15.1025 0.0140365
15.115 0.0143983
15.1275 0.0147693
15.14 0.015124
15.1525 0.0155213
15.165 0.0159815
15.1775 0.0164397
15.19 0.0168862
15.2025 0.0173735
15.215 0.0179158
15.2275 0.0184863
15.24 0.0190811
15.2525 0.0197225
15.265 0.0204202
15.2775 0.0211669
15.29 0.0219509
15.3025 0.0227803
15.315 0.0236645
15.3275 0.0245941
15.34 0.0255698
15.3525 0.0265657
15.365 0.0269813
15.3775 0.028105
15.39 0.0292673
15.4025 0.0304448
15.415 0.0316817
15.4275 0.0329259
15.44 0.0341776
15.4525 0.0354149
15.465 0.0366891
15.4775 0.0379625
15.49 0.0393279
15.5025 0.0407234
15.515 0.042004
15.5275 0.0433655
15.54 0.0447231
15.5525 0.0460714
15.565 0.0474527
15.5775 0.0488231
15.59 0.0501868
15.6025 0.0515457
15.615 0.0528903
15.6275 0.0542226
15.64 0.0555318
15.6525 0.0568065
15.665 0.0580588
15.6775 0.0592864
15.69 0.0604777
15.7025 0.0616341
15.715 0.0627555
15.7275 0.0638406
15.74 0.0649078
15.7525 0.0659069
15.765 0.0669068
15.7775 0.0679396
15.79 0.0689444
15.8025 0.0698746
15.815 0.07079
15.8275 0.0717073
15.84 0.0725825
15.8525 0.0733987
15.865 0.0741711
15.8775 0.0749054
15.89 0.0755942
15.9025 0.0762272
15.915 0.0767975
15.9275 0.0773081
15.94 0.0777625
15.9525 0.0781528
15.965 0.0784705
15.9775 0.078715
15.99 0.0788851
16.0025 0.0789787
16.0125 0.0789954
16.0225 0.0789588
16.0325 0.0788704
16.0425 0.0787298
16.0525 0.0785385
16.0625 0.078298
16.0725 0.0780063
16.0825 0.0776666
16.0925 0.0772801
16.1025 0.0768416
16.1125 0.0763592
16.1225 0.0758358
16.1325 0.0752713
16.1425 0.0746837
16.1525 0.0740636
16.1625 0.0733955
16.1725 0.0726906
16.1825 0.0719556
16.1925 0.0711855
16.2025 0.070383
16.2125 0.0695537
16.2225 0.068697
16.2325 0.0678137
16.2425 0.0669083
16.2525 0.0659838
16.2625 0.0650416
16.2725 0.0640842
16.2825 0.0631142
16.2925 0.0621335
16.3025 0.0611446
16.3125 0.06015
16.3225 0.0591515
16.3325 0.0581502
16.3425 0.0571476
16.3525 0.0561446
16.3625 0.0551418
16.3725 0.0541397
16.3825 0.053138
16.3925 0.0521364
16.4025 0.051134
16.4125 0.0501303
16.4225 0.0491241
16.4325 0.0481144
16.4425 0.0471
16.4525 0.04608
16.4625 0.0450536
16.4725 0.0440203
16.4825 0.04298
16.4925 0.0419329
16.5025 0.0408799
16.5125 0.0398219
16.5225 0.0387607
16.5325 0.0376987
16.5425 0.0366385
16.5525 0.0355833
16.5625 0.0345368
16.5725 0.0335028
16.5825 0.0324857
16.5925 0.0314899
16.6025 0.03052
16.6125 0.0295807
16.6225 0.0286768
16.6325 0.0278129
16.6425 0.026994
16.6525 0.0262245
16.6625 0.0255085
16.6725 0.0248502
16.6825 0.024253
16.6925 0.0237201
16.7025 0.0232541
16.7125 0.0228573
16.7225 0.0225312
16.7325 0.022277
16.7425 0.0220952
16.7525 0.0219858
16.7625 0.0219481
16.7725 0.0219799
16.7825 0.022079
16.7925 0.0222436
16.8025 0.0224697
16.8125 0.0227523
16.8225 0.0230909
16.8325 0.0234802
16.8425 0.0239161
16.8525 0.0243941
16.8625 0.0249084
16.8725 0.0254542
16.8825 0.0260262
16.8925 0.0266216
16.9025 0.0272443
16.9125 0.027876
16.9225 0.0285197
16.9325 0.0291787
16.9425 0.0298482
16.9525 0.0305257
16.9625 0.0312082
16.9725 0.0318939
16.9825 0.0325824
16.9925 0.0332726
17.0025 0.0339616
17.0125 0.0346467
17.0225 0.0353251
17.0325 0.0359949
17.0425 0.0366544
17.0525 0.0373013
17.0625 0.0379329
17.0725 0.0385464
17.0825 0.0391393
17.0925 0.0397098
17.1025 0.0402557
17.1125 0.0407759
17.1225 0.0412681
17.1325 0.0417263
17.1425 0.0421505
17.1525 0.0425385
17.1625 0.0428869
17.1725 0.0431946
17.1825 0.0434591
17.1925 0.0436784
17.2025 0.0438509
17.2125 0.0439731
17.2225 0.0440464
17.2325 0.0440689
17.2425 0.0440397
17.2525 0.0439593
17.2625 0.0438271
17.2725 0.0436426
17.2825 0.0434063
17.2925 0.0431169
17.3025 0.0427732
17.3125 0.0423814
17.3225 0.0419405
17.3325 0.0414516
17.3425 0.0409153
17.3525 0.040332
17.3625 0.0397046
17.3725 0.0390359
17.3825 0.0383284
17.3925 0.0375849
17.4025 0.0368082
17.4125 0.036002
17.4225 0.0351706
17.4325 0.0343187
17.4425 0.0334508
17.4525 0.0325712
17.4625 0.0316847
17.4725 0.0307963
17.4825 0.0299107
17.4925 0.029033
17.5025 0.0281724
17.5125 0.027335
17.5225 0.0265145
17.5325 0.0257194
17.5425 0.0249571
17.5525 0.0242277
17.5625 0.0235352
17.5725 0.0228845
17.5825 0.0222772
17.5925 0.0217159
17.6025 0.0212032
17.6125 0.0207404
17.6225 0.0203286
17.6325 0.0199692
17.6425 0.0196622
17.6525 0.0194078
17.6625 0.0192059
17.6725 0.0190557
17.6825 0.0189564
17.6925 0.0189067
17.7025 0.0189045
17.7125 0.018948
17.7225 0.0190355
17.7325 0.0191636
17.7425 0.0193305
17.7525 0.0195348
17.7625 0.0197738
17.7725 0.0200448
17.7825 0.0203449
17.7925 0.0206709
17.8025 0.0210197
17.8125 0.0213881
17.8225 0.0217729
17.8325 0.0221711
17.8425 0.022582
17.8525 0.0230083
17.8625 0.0234455
17.8725 0.0238912
17.8825 0.0243498
17.8925 0.0248198
17.9025 0.0253009
17.9125 0.0257931
17.9225 0.0262965
17.9325 0.0268124
17.9425 0.027341
17.9525 0.027882
17.9625 0.0284345
17.9725 0.0289976
17.9825 0.0295709
17.9925 0.0301535
18.0025 0.0307439
18.0125 0.0313403
18.0225 0.0319403
18.0325 0.0325415
18.0425 0.0331416
18.0525 0.0337378
18.0625 0.0343269
18.0725 0.0349055
18.0825 0.0354701
18.0925 0.036017
18.1025 0.0365427
18.1125 0.0370434
18.1225 0.0375154
18.1325 0.0379555
18.1425 0.0383602
18.1525 0.0387261
18.1625 0.03905
18.1725 0.0393292
18.1825 0.0395615
18.1925 0.0397449
18.2025 0.0398779
18.2125 0.0399594
18.2225 0.0399889
18.2325 0.0399666
18.2425 0.039894
18.2525 0.039772
18.2625 0.0396021
18.2725 0.0393852
18.2825 0.0391217
18.2925 0.0388195
18.3025 0.03848
18.3125 0.0381051
18.3225 0.0376974
18.3325 0.0372597
18.3425 0.0367964
18.3525 0.0363112
18.3625 0.0358073
18.3725 0.0352874
18.3825 0.0347543
18.3925 0.0342114
18.4025 0.033662
18.4125 0.0331088
18.4225 0.032554
18.4325 0.0319995
18.4425 0.0314474
18.4525 0.0308998
18.4625 0.0303587
18.4725 0.0298257
18.4825 0.0293021
18.4925 0.0287894
18.5025 0.0282888
18.5125 0.0278017
18.5225 0.0273291
18.5325 0.0268721
18.5425 0.0264315
18.5525 0.0260082
18.5625 0.0256029
18.5725 0.0252165
18.5825 0.0248497
18.5925 0.0245032
18.6025 0.0241776
18.6125 0.0238737
18.6225 0.0235921
18.6325 0.0233337
18.6425 0.0230992
18.6525 0.0228892
18.6625 0.0227046
18.6725 0.0225459
18.6825 0.022414
18.6925 0.0223094
18.7025 0.0222328
18.7125 0.0221848
18.7225 0.0221659
18.7325 0.0221765
18.7425 0.0222164
18.7525 0.0222856
18.7625 0.022384
18.7725 0.0225108
18.7825 0.0226649
18.7925 0.0228451
18.8025 0.0230503
18.8125 0.0232796
18.8225 0.0235314
18.8325 0.0238042
18.8425 0.0240959
18.8525 0.0244046
18.8625 0.0247284
18.8725 0.0250652
18.8825 0.0254136
18.8925 0.025776
18.9025 0.0261469
18.9125 0.0265239
18.9225 0.0269103
18.9325 0.0273036
18.9425 0.0277023
18.9525 0.0281048
18.9625 0.0285099
18.9725 0.0289173
18.9825 0.0293259
18.9925 0.0297339
19.0025 0.0301395
19.0125 0.0305406
19.0225 0.030936
19.0325 0.0313241
19.0425 0.0317036
19.0525 0.0320725
19.0625 0.032429
19.0725 0.0327714
19.0825 0.0330981
19.0925 0.0334081
19.1025 0.0337001
19.1125 0.033973
19.1225 0.0342259
19.1325 0.0344583
19.1425 0.0346699
19.1525 0.0348607
19.1625 0.0350307
19.1725 0.0351801
19.1825 0.0353095
19.1925 0.0354186
19.2025 0.0355016
19.2125 0.0355664
19.2225 0.0356221
19.2325 0.035661
19.2425 0.0356825
19.2525 0.0356941
19.2625 0.0356956
19.2725 0.0356862
19.2825 0.0356693
19.2925 0.0356459
19.3025 0.0356168
19.3125 0.0355845
19.3225 0.0355508
19.3325 0.035516
19.3425 0.0354812
19.3525 0.0354474
19.3625 0.0354148
19.3725 0.035384
19.3825 0.0353555
19.3925 0.0353297
19.4025 0.0353062
19.4125 0.0352846
19.4225 0.0352649
19.4325 0.0352472
19.4425 0.0352316
19.4525 0.0352182
19.4625 0.0352076
19.4725 0.0351969
19.4825 0.0351854
19.4925 0.0351732
19.5025 0.0351581
19.5125 0.0351397
19.5225 0.0351195
19.5325 0.0350946
19.5425 0.0350647
19.5525 0.0350301
19.5625 0.0349893
19.5725 0.0349417
19.5825 0.0348871
19.5925 0.0348247
19.6025 0.0347537
19.6125 0.034674
19.6225 0.0345849
19.6325 0.0344857
19.6425 0.0343757
19.6525 0.034255
19.6625 0.0341235
19.6725 0.0339807
19.6825 0.0338265
19.6925 0.0336609
19.7025 0.0334836
19.7125 0.0332948
19.7225 0.0330947
19.7325 0.0328835
19.7425 0.0326616
19.7525 0.0324294
19.7625 0.0321874
19.7725 0.031936
19.7825 0.0316761
19.7925 0.0314081
19.8025 0.0311327
19.8125 0.0308507
19.8225 0.0305627
19.8325 0.0302695
19.8425 0.0299718
19.8525 0.0296706
19.8625 0.0293666
19.8725 0.0290607
19.8825 0.0287537
19.8925 0.0284465
19.9025 0.0281397
19.9125 0.027834
19.9225 0.0275299
19.9325 0.0272278
19.9425 0.0269281
19.9525 0.0266308
19.9625 0.026336
19.9725 0.0260435
19.9825 0.025753
19.9925 0.0254642
20.0025 0.0251764
20.0125 0.0248891
20.0225 0.0246014
20.0325 0.0243128
20.0425 0.0240225
20.0525 0.0237299
20.0625 0.0234343
20.0725 0.0231354
20.0825 0.0228329
20.0925 0.0225268
20.1025 0.0222172
20.1125 0.0219045
20.1225 0.0215893
20.1325 0.0212722
20.1425 0.0209545
20.1525 0.0206372
20.1625 0.0203217
20.1725 0.0200095
20.1825 0.0197024
20.1925 0.0194022
20.2025 0.0191106
20.2125 0.0188297
20.2225 0.0185612
20.2325 0.0183072
20.2425 0.0180692
20.2525 0.017849
20.2625 0.0176481
20.2725 0.0174678
20.2825 0.0173095
20.2925 0.0171741
20.3025 0.0170625
20.3125 0.0169751
20.3225 0.0169124
20.3325 0.0168743
20.3425 0.0168603
20.3525 0.0168694
20.3625 0.0169006
20.3725 0.0169527
20.3825 0.0170235
20.3925 0.0171109
20.4025 0.0172124
20.4125 0.0173253
20.4225 0.0174467
20.4325 0.0175735
20.4425 0.0177025
20.4525 0.0178305
20.4625 0.0179547
20.4725 0.0180721
20.4825 0.0181801
20.4925 0.0182762
20.5025 0.0183584
20.5125 0.018425
20.5225 0.0184744
20.5325 0.0185059
20.5425 0.0185188
20.5525 0.0185128
20.5625 0.0184885
20.5725 0.0184466
20.5825 0.018388
20.5925 0.0183139
20.6025 0.0182258
20.6125 0.0181255
20.6225 0.0180151
20.6325 0.0178968
20.6425 0.0177732
20.6525 0.0176464
20.6625 0.0175191
20.6725 0.0173935
20.6825 0.0172721
20.6925 0.0171568
20.7025 0.0170498
20.7125 0.0169528
20.7225 0.0168673
20.7325 0.0167946
20.7425 0.0167353
20.7525 0.01669
20.7625 0.0166588
20.7725 0.0166416
20.7825 0.0166377
20.7925 0.0166464
20.8025 0.0166666
20.8125 0.0166973
20.8225 0.0167366
20.8325 0.016783
20.8425 0.0168345
20.8525 0.0168906
20.8625 0.01695
20.8725 0.0170078
20.8825 0.0170638
20.8925 0.017117
20.9025 0.017165
20.9125 0.0172081
20.9225 0.0172458
20.9325 0.0172777
20.9425 0.0173038
20.9525 0.0173242
20.9625 0.0173393
20.9725 0.01735
20.9825 0.0173576
20.9925 0.0173632
21.0025 0.0173684
21.0125 0.0173751
21.0225 0.0173857
21.0325 0.0174025
21.0425 0.017428
21.0525 0.0174643
21.0625 0.0175139
21.0725 0.017579
21.0825 0.0176616
21.0925 0.0177635
21.1025 0.0178862
21.1125 0.0180311
21.1225 0.0182003
21.1325 0.018391
21.1425 0.0186031
21.1525 0.0188368
21.1625 0.0190894
21.1725 0.01936
21.1825 0.0196463
21.1925 0.0199453
21.2025 0.0202545
21.2125 0.0205769
21.2225 0.0209045
21.2325 0.0212322
21.2425 0.0215625
21.2525 0.0218929
21.2625 0.0222206
21.2725 0.0225389
21.2825 0.0228478
21.2925 0.0231523
21.3025 0.0234481
21.3125 0.0237325
21.3225 0.0240049
21.3325 0.0242652
21.3425 0.0245119
21.3525 0.0247434
21.3625 0.0249601
21.3725 0.0251625
21.3825 0.0253493
21.3925 0.0255201
21.4025 0.0256761
21.4125 0.025818
21.4225 0.0259462
21.4325 0.026062
21.4425 0.026167
21.4525 0.0262622
21.4625 0.0263477
21.4725 0.0264259
21.4825 0.0264988
21.4925 0.0265675
21.5025 0.0266335
21.5125 0.0266986
21.5225 0.0267644
21.5325 0.0268323
21.5425 0.0269039
21.5525 0.0269803
21.5625 0.0270627
21.5725 0.0271517
21.5825 0.0272488
21.5925 0.0273547
21.6025 0.0274696
21.6125 0.0275934
21.6225 0.0277256
21.6325 0.0278656
21.6425 0.0280125
21.6525 0.028164
21.6625 0.028319
21.6725 0.0284764
21.6825 0.0286338
21.6925 0.0287885
21.7025 0.0289417
21.7125 0.0290915
21.7225 0.0292311
21.7325 0.0293597
21.7425 0.0294761
21.7525 0.0295763
21.7625 0.0296582
21.7725 0.0297205
21.7825 0.0297607
21.7925 0.029777
21.8025 0.029768
21.8125 0.0297322
21.8225 0.0296685
21.8325 0.0295784
21.8425 0.0294623
21.8525 0.0293185
21.8625 0.0291481
21.8725 0.0289557
21.8825 0.0287421
21.8925 0.0285094
21.9025 0.0282609
21.9125 0.027996
21.9225 0.0277176
21.9325 0.0274302
21.9425 0.0271354
21.9525 0.0268374
21.9625 0.0265388
21.9725 0.0262423
21.9825 0.0259517
21.9925 0.0256698
22.0025 0.0253996
22.0125 0.0251437
22.0225 0.0249026
22.0325 0.0246807
22.0425 0.0244849
22.0525 0.0243127
22.0625 0.0241637
22.0725 0.0240413
22.0825 0.0239466
22.0925 0.0238787
22.1025 0.0238382
22.1125 0.0238257
22.1225 0.0238395
22.1325 0.023878
22.1425 0.0239426
22.1525 0.0240325
22.1625 0.0241445
22.1725 0.0242776
22.1825 0.0244306
22.1925 0.0246005
22.2025 0.0247849
22.2125 0.0249812
22.2225 0.0251861
22.2325 0.0254019
22.2425 0.0256263
22.2525 0.0258546
22.2625 0.0260864
22.2725 0.0263212
22.2825 0.0265581
22.2925 0.0267949
22.3025 0.0270302
22.3125 0.0272651
22.3225 0.0274997
22.3325 0.0277328
22.3425 0.0279638
22.3525 0.0281929
22.3625 0.028421
22.3725 0.0286492
22.3825 0.0288785
22.3925 0.0291101
22.4025 0.0293455
22.4125 0.0295863
22.4225 0.0298361
22.4325 0.030096
22.4425 0.0303662
22.4525 0.0306511
22.4625 0.0309514
22.4725 0.0312654
22.4825 0.0315974
22.4925 0.0319499
22.5025 0.0323227
22.5125 0.0327166
22.5225 0.0331332
22.5325 0.0335738
22.5425 0.0340385
22.5525 0.0345273
22.5625 0.0350405
22.5725 0.0355777
22.5825 0.0361373
22.5925 0.0367179
22.6025 0.0373181
22.6125 0.0379342
22.6225 0.0385618
22.6325 0.0392015
22.6425 0.0398509
22.6525 0.0405039
22.6625 0.0411573
22.6725 0.0418086
22.6825 0.0424527
22.6925 0.0430831
22.7025 0.0436971
22.7125 0.0442952
22.7225 0.0448702
22.7325 0.0454173
22.7425 0.045935
22.7525 0.0464204
22.7625 0.0468693
22.7725 0.0472791
22.7825 0.0476486
22.7925 0.0479753
22.8025 0.0482573
22.8125 0.0484938
22.8225 0.0486842
22.8325 0.048828
22.8425 0.0489255
22.8525 0.0489777
22.8625 0.0489838
22.8725 0.0489461
22.8825 0.048867
22.8925 0.0487478
22.9025 0.0485917
22.9125 0.0483998
22.9225 0.0481728
22.9325 0.0479188
22.9425 0.0476409
22.9525 0.0473401
22.9625 0.047019
22.9725 0.0466807
22.9825 0.0463267
22.9925 0.0459579
23.0025 0.0455785
23.0125 0.0451898
23.0225 0.0447923
23.0325 0.0443879
23.0425 0.0439777
23.0525 0.0435638
23.0625 0.0431538
23.0725 0.0427432
23.0825 0.0423268
23.0925 0.0419103
23.1025 0.0414953
23.1125 0.0410791
23.1225 0.0406632
23.1325 0.0402494
23.1425 0.0398369
23.1525 0.0394263
23.1625 0.0390189
23.1725 0.0386143
23.1825 0.0382103
23.1925 0.0378153
23.2025 0.037432
23.2125 0.0370556
23.2225 0.0366903
23.2325 0.0363406
23.2425 0.0360061
23.2525 0.0356879
23.2625 0.0353895
23.2725 0.0351131
23.2825 0.0348599
23.2925 0.0346333
23.3025 0.0344353
23.3125 0.0342658
23.3225 0.0341267
23.3325 0.0340193
23.3425 0.0339452
23.3525 0.0339059
23.3625 0.0339024
23.3725 0.0339353
23.3825 0.0340045
23.3925 0.0341103
23.4025 0.0342527
23.4125 0.034431
23.4225 0.034644
23.4325 0.0348889
23.4425 0.0351585
23.4525 0.0354573
23.4625 0.0357861
23.4725 0.0361382
23.4825 0.0365111
23.4925 0.0369109
23.5025 0.0373297
23.5125 0.0377611
23.5225 0.0382087
23.5325 0.0386729
23.5425 0.0391489
23.5525 0.0396339
23.5625 0.0401275
23.5725 0.0406294
23.5825 0.0411395
23.5925 0.041656
23.6025 0.0421769
23.6125 0.042701
23.6225 0.0432278
23.6325 0.0437567
23.6425 0.0442867
23.6525 0.044817
23.6625 0.0453467
23.6725 0.0458749
23.6825 0.0464016
23.6925 0.0469265
23.7025 0.047449
23.7125 0.0479688
23.7225 0.0484853
23.7325 0.0489982
23.7425 0.0495073
23.7525 0.050012
23.7625 0.050512
23.7725 0.0510066
23.7825 0.051495
23.7925 0.0519765
23.8025 0.0524502
23.8125 0.052915
23.8225 0.0533696
23.8325 0.0538128
23.8425 0.0542428
23.8525 0.0546582
23.8625 0.0550571
23.8725 0.0554374
23.8825 0.0557947
23.8925 0.0561297
23.9025 0.0564432
23.9125 0.0567293
23.9225 0.0569861
23.9325 0.0572123
23.9425 0.0574052
23.9525 0.057564
23.9625 0.0576867
23.9725 0.0577711
23.9825 0.057816
23.9925 0.0578201
24.0025 0.0577824
24.0125 0.0577031
24.0225 0.0575817
24.0325 0.0574179
24.0425 0.0572128
24.0525 0.0569678
24.0625 0.0566849
24.0725 0.0563632
24.0825 0.056005
24.0925 0.0556151
24.1025 0.0551962
24.1125 0.0547465
24.1225 0.0542656
24.1325 0.0537602
24.1425 0.0532324
24.1525 0.0526846
24.1625 0.0521205
24.1725 0.0515434
24.1825 0.050956
24.1925 0.0503623
24.2025 0.0497668
24.2125 0.0491729
24.2225 0.048584
24.2325 0.0480035
24.2425 0.047435
24.2525 0.0468818
24.2625 0.0463472
24.2725 0.0458341
24.2825 0.0453446
24.2925 0.044881
24.3025 0.0444449
24.3125 0.0440379
24.3225 0.0436609
24.3325 0.0433147
24.3425 0.0429994
24.3525 0.0427148
24.3625 0.0424607
24.3725 0.0422362
24.3825 0.0420386
24.3925 0.0418649
24.4025 0.041721
24.4125 0.0416036
24.4225 0.0415093
24.4325 0.0414395
24.4425 0.0413925
24.4525 0.0413661
24.4625 0.0413597
24.4725 0.0413724
24.4825 0.0414029
24.4925 0.0414509
24.5025 0.0415161
24.5125 0.041598
24.5225 0.0416963
24.5325 0.0418104
24.5425 0.0419397
24.5525 0.0420836
24.5625 0.0422417
24.5725 0.0424154
24.5825 0.0426057
24.5925 0.0428114
24.6025 0.0430261
24.6125 0.0432456
24.6225 0.0434862
24.6325 0.0437475
24.6425 0.0440215
24.6525 0.0443128
24.6625 0.044627
24.6725 0.0449596
24.6825 0.0453087
24.6925 0.045679
24.7025 0.0460714
24.7125 0.0464829
24.7225 0.0469146
24.7325 0.047367
24.7425 0.0478387
24.7525 0.0483281
24.7625 0.0488341
24.7725 0.0493534
24.7825 0.0498846
24.7925 0.0504269
24.8025 0.0509771
24.8125 0.0515317
24.8225 0.0520884
24.8325 0.052644
24.8425 0.053195
24.8525 0.0537384
24.8625 0.054271
24.8725 0.0547891
24.8825 0.0552876
24.8925 0.0557651
24.9025 0.0562222
24.9125 0.0566529
24.9225 0.0570545
24.9325 0.0574269
24.9425 0.0577675
24.9525 0.058074
24.9625 0.0583457
24.9725 0.0585824
24.9825 0.0587824
24.9925 0.058945
25.0025 0.059071
25.0125 0.0591603
25.0225 0.0592131
25.0325 0.0592306
25.0425 0.0592149
25.0525 0.0591668
25.0625 0.0590885
25.0725 0.0589825
25.0825 0.0588513
25.0925 0.0586955
25.1025 0.0585161
25.1125 0.0583197
25.1225 0.0581081
25.1325 0.057882
25.1425 0.0576428
25.1525 0.0573912
25.1625 0.0571284
25.1725 0.0568567
25.1825 0.056578
25.1925 0.0562927
25.2025 0.056001
25.2125 0.0557031
25.2225 0.0554022
25.2325 0.0551036
25.2425 0.0547979
25.2525 0.0544857
25.2625 0.0541707
25.2725 0.053851
25.2825 0.0535245
25.2925 0.0531929
25.3025 0.0528558
25.3125 0.0525115
25.3225 0.0521597
25.3325 0.0518003
25.3425 0.0514323
25.3525 0.0510553
25.3625 0.0506689
25.3725 0.0502727
25.3825 0.0498661
25.3925 0.0494493
25.4025 0.0490221
25.4125 0.0485847
25.4225 0.0481374
25.4325 0.0476808
25.4425 0.0472155
25.4525 0.0467425
25.4625 0.0462628
25.4725 0.0457779
25.4825 0.0452891
25.4925 0.0447983
25.5025 0.0443072
25.5125 0.0438177
25.5225 0.0433321
25.5325 0.0428525
25.5425 0.042381
25.5525 0.0419202
25.5625 0.0414722
25.5725 0.0410394
25.5825 0.0406241
25.5925 0.0402284
25.6025 0.0398544
25.6125 0.0395037
25.6225 0.0391783
25.6325 0.0388801
25.6425 0.03861
25.6525 0.0383695
25.6625 0.0381594
25.6725 0.0379804
25.6825 0.0378327
25.6925 0.0377167
25.7025 0.037632
25.7125 0.0375783
25.7225 0.0375545
25.7325 0.0375592
25.7425 0.037591
25.7525 0.0376485
25.7625 0.0377292
25.7725 0.0378308
25.7825 0.0379507
25.7925 0.0380861
25.8025 0.0382342
25.8125 0.0383921
25.8225 0.0385567
25.8325 0.038725
25.8425 0.0388943
25.8525 0.0390618
25.8625 0.039225
25.8725 0.0393822
25.8825 0.0395341
25.8925 0.0396765
25.9025 0.0398099
25.9125 0.039935
25.9225 0.0400501
25.9325 0.0401546
25.9425 0.0402486
25.9525 0.0403324
25.9625 0.0404067
25.9725 0.0404718
25.9825 0.0405276
25.9925 0.0405748
26.0025 0.040614
26.0125 0.0406464
26.0225 0.0406727
26.0325 0.0406937
26.0425 0.0407097
26.0525 0.0407212
26.0625 0.0407288
26.0725 0.0407329
26.0825 0.040734
26.0925 0.0407321
26.1025 0.0407271
26.1125 0.0407184
26.1225 0.0407062
26.1325 0.0406898
26.1425 0.0406688
26.1525 0.0406426
26.1625 0.0406103
26.1725 0.040571
26.1825 0.0405235
26.1925 0.0404676
26.2025 0.040402
26.2125 0.0403287
26.2225 0.0402498
26.2325 0.0401559
26.2425 0.0400464
26.2525 0.0399253
26.2625 0.0397895
26.2725 0.0396364
26.2825 0.0394673
26.2925 0.0392821
26.3025 0.0390791
26.3125 0.0388588
26.3225 0.0386219
26.3325 0.038368
26.3425 0.0380972
26.3525 0.0378108
26.3625 0.0375094
26.3725 0.037194
26.3825 0.0368659
26.3925 0.0365264
26.4025 0.036177
26.4125 0.0358193
26.4225 0.0354552
26.4325 0.0350864
26.4425 0.0347148
26.4525 0.0343424
26.4625 0.0339713
26.4725 0.0336032
26.4825 0.0332403
26.4925 0.0328843
26.5025 0.0325369
26.5125 0.0321999
26.5225 0.0318748
26.5325 0.0315629
26.5425 0.0312653
26.5525 0.0309832
26.5625 0.0307173
26.5725 0.0304683
26.5825 0.0302365
26.5925 0.0300224
26.6025 0.0298258
26.6125 0.0296467
26.6225 0.0294845
26.6325 0.0293387
26.6425 0.0292098
26.6525 0.0290966
26.6625 0.0289983
26.6725 0.0289144
26.6825 0.0288442
26.6925 0.0287865
26.7025 0.0287407
26.7125 0.0287059
26.7225 0.0286813
26.7325 0.0286661
26.7425 0.0286597
26.7525 0.0286613
26.7625 0.0286705
26.7725 0.0286868
26.7825 0.02871
26.7925 0.0287404
26.8025 0.0287778
26.8125 0.0288221
26.8225 0.0288734
26.8325 0.0289318
26.8425 0.0289974
26.8525 0.0290701
26.8625 0.0291501
26.8725 0.0292379
26.8825 0.029334
26.8925 0.0294388
26.9025 0.0295525
26.9125 0.0296751
26.9225 0.0298067
26.9325 0.0299472
26.9425 0.0300964
26.9525 0.0302541
26.9625 0.0304196
26.9725 0.0305923
26.9825 0.0307714
26.9925 0.0309583
27.0025 0.031152
27.0125 0.0313482
27.0225 0.0315493
27.0325 0.0317545
27.0425 0.0319631
27.0525 0.032174
27.0625 0.0323857
27.0725 0.0325975
27.0825 0.0328085
27.0925 0.0330178
27.1025 0.0332241
27.1125 0.0334261
27.1225 0.0336223
27.1325 0.0338117
27.1425 0.0339934
27.1525 0.0341662
27.1625 0.0343291
27.1725 0.034481
27.1825 0.0346211
27.1925 0.0347487
27.2025 0.0348634
27.2125 0.0349646
27.2225 0.0350521
27.2325 0.0351256
27.2425 0.0351852
27.2525 0.0352311
27.2625 0.0352635
27.2725 0.035283
27.2825 0.0352903
27.2925 0.0352862
27.3025 0.0352715
27.3125 0.0352473
27.3225 0.0352146
27.3325 0.035174
27.3425 0.0351278
27.3525 0.0350767
27.3625 0.0350216
27.3725 0.0349634
27.3825 0.0349031
27.3925 0.0348418
27.4025 0.0347804
27.4125 0.0347197
27.4225 0.0346601
27.4325 0.0346024
27.4425 0.0345469
27.4525 0.0344942
27.4625 0.0344444
27.4725 0.0343978
27.4825 0.0343544
27.4925 0.0343144
27.5025 0.0342777
27.5125 0.034244
27.5225 0.0342131
27.5325 0.0341846
27.5425 0.0341583
27.5525 0.0341338
27.5625 0.0341109
27.5725 0.0340891
27.5825 0.0340681
27.5925 0.0340477
27.6025 0.0340276
27.6125 0.0340077
27.6225 0.0339877
27.6325 0.0339678
27.6425 0.0339478
27.6525 0.0339281
27.6625 0.0339093
27.6725 0.033891
27.6825 0.0338732
27.6925 0.0338567
27.7025 0.0338415
27.7125 0.0338285
27.7225 0.0338182
27.7325 0.0338111
27.7425 0.0338078
27.7525 0.0338089
27.7625 0.0338152
27.7725 0.0338272
27.7825 0.0338456
27.7925 0.0338707
27.8025 0.0339002
27.8125 0.0339364
27.8225 0.0339827
27.8325 0.0340375
27.8425 0.0341001
27.8525 0.0341718
27.8625 0.0342525
27.8725 0.0343412
27.8825 0.0344381
27.8925 0.0345437
27.9025 0.0346578
27.9125 0.0347786
27.9225 0.0349065
27.9325 0.0350413
27.9425 0.0351822
27.9525 0.0353281
27.9625 0.0354788
27.9725 0.0356337
27.9825 0.0357919
27.9925 0.0359527
28.0025 0.0361151
28.0125 0.0362783
28.0225 0.0364413
28.0325 0.0366036
28.0425 0.0367643
28.0525 0.0369225
28.0625 0.0370775
28.0725 0.0372287
28.0825 0.0373753
28.0925 0.037517
28.1025 0.0376532
28.1125 0.0377836
28.1225 0.0379079
28.1325 0.0380257
28.1425 0.0381371
28.1525 0.0382419
28.1625 0.0383402
28.1725 0.0384319
28.1825 0.0385173
28.1925 0.0385966
28.2025 0.03867
28.2125 0.0387377
28.2225 0.0388002
28.2325 0.0388576
28.2425 0.0389104
28.2525 0.0389589
28.2625 0.0390034
28.2725 0.0390443
28.2825 0.0390818
28.2925 0.0391161
28.3025 0.0391476
28.3125 0.0391762
28.3225 0.0392021
28.3325 0.0392255
28.3425 0.0392461
28.3525 0.039264
28.3625 0.0392785
28.3725 0.0392894
28.3825 0.0392967
28.3925 0.0393002
28.4025 0.0392996
28.4125 0.0392946
28.4225 0.0392848
28.4325 0.0392697
28.4425 0.0392491
28.4525 0.0392233
28.4625 0.0391933
28.4725 0.0391563
28.4825 0.0391122
28.4925 0.039062
28.5025 0.0390049
28.5125 0.0389405
28.5225 0.0388685
28.5325 0.0387897
28.5425 0.0387042
28.5525 0.038612
28.5625 0.0385132
28.5725 0.0384078
28.5825 0.038296
28.5925 0.0381783
28.6025 0.0380552
28.6125 0.0379272
28.6225 0.0377948
28.6325 0.0376583
28.6425 0.0375186
28.6525 0.0373762
28.6625 0.037232
28.6725 0.0370866
28.6825 0.0369407
28.6925 0.036795
28.7025 0.0366503
28.7125 0.0365071
28.7225 0.0363663
28.7325 0.0362285
28.7425 0.0360942
28.7525 0.035964
28.7625 0.0358383
28.7725 0.0357176
28.7825 0.0356024
28.7925 0.0354928
28.8025 0.035389
28.8125 0.0352914
28.8225 0.0351998
28.8325 0.0351145
28.8425 0.0350353
28.8525 0.0349621
28.8625 0.0348947
28.8725 0.0348331
28.8825 0.0347768
28.8925 0.0347257
28.9025 0.0346793
28.9125 0.0346375
28.9225 0.0345998
28.9325 0.0345659
28.9425 0.0345354
28.9525 0.034508
28.9625 0.0344834
28.9725 0.0344612
28.9825 0.0344413
28.9925 0.0344233
29.0025 0.0344071
29.0125 0.0343925
29.0225 0.0343793
29.0325 0.0343677
29.0425 0.0343574
29.0525 0.0343485
29.0625 0.034341
29.0725 0.0343351
29.0825 0.034331
29.0925 0.0343288
29.1025 0.0343287
29.1125 0.0343309
29.1225 0.0343354
29.1325 0.0343423
29.1425 0.0343519
29.1525 0.0343642
29.1625 0.0343793
29.1725 0.0343971
29.1825 0.0344176
29.1925 0.0344407
29.2025 0.0344663
29.2125 0.0344941
29.2225 0.0345239
29.2325 0.0345554
29.2425 0.0345882
29.2525 0.0346218
29.2625 0.0346558
29.2725 0.0346896
29.2825 0.0347227
29.2925 0.0347545
29.3025 0.0347845
29.3125 0.034812
29.3225 0.0348364
29.3325 0.0348572
29.3425 0.0348737
29.3525 0.0348859
29.3625 0.0348938
29.3725 0.0348958
29.3825 0.0348917
29.3925 0.0348816
29.4025 0.0348651
29.4125 0.0348419
29.4225 0.0348123
29.4325 0.0347759
29.4425 0.0347328
29.4525 0.0346833
29.4625 0.0346273
29.4725 0.0345653
29.4825 0.0344974
29.4925 0.0344239
29.5025 0.0343453
29.5125 0.034262
29.5225 0.0341745
29.5325 0.0340832
29.5425 0.0339886
29.5525 0.0338912
29.5625 0.0337916
29.5725 0.0336894
29.5825 0.0335851
29.5925 0.0334801
29.6025 0.0333747
29.6125 0.0332686
29.6225 0.0331626
29.6325 0.0330569
29.6425 0.0329515
29.6525 0.0328468
29.6625 0.032743
29.6725 0.0326402
29.6825 0.0325385
29.6925 0.032438
29.7025 0.0323389
29.7125 0.0322411
29.7225 0.0321448
29.7325 0.0320499
29.7425 0.0319565
29.7525 0.0318645
29.7625 0.031774
29.7725 0.0316851
29.7825 0.0315976
29.7925 0.0315116
29.8025 0.0314272
29.8125 0.0313444
29.8225 0.0312632
29.8325 0.0311838
29.8425 0.0311062
29.8525 0.0310306
29.8625 0.0309571
29.8725 0.0308859
29.8825 0.0308172
29.8925 0.0307512
29.9025 0.0306881
29.9125 0.0306281
29.9225 0.0305716
29.9325 0.0305188
29.9425 0.03047
29.9525 0.0304254
29.9625 0.0303854
29.9725 0.0303502
29.9825 0.03032
29.9925 0.0302952
30.0025 0.030276
30.0125 0.0302626
30.0225 0.0302552
30.0325 0.0302539
30.0425 0.0302588
30.0525 0.0302698
30.0625 0.0302869
30.0725 0.0303101
30.0825 0.0303391
30.0925 0.0303737
30.1025 0.0304136
30.1125 0.0304583
30.1225 0.0305075
30.1325 0.0305607
30.1425 0.0306172
30.1525 0.0306766
30.1625 0.0307382
30.1725 0.0308014
30.1825 0.0308655
30.1925 0.03093
30.2025 0.030994
30.2125 0.0310571
30.2225 0.0311187
30.2325 0.0311783
30.2425 0.0312351
30.2525 0.0312893
30.2625 0.0313408
30.2725 0.0313893
30.2825 0.0314343
30.2925 0.0314756
30.3025 0.0315131
30.3125 0.031547
30.3225 0.0315772
30.3325 0.0316036
30.3425 0.0316263
30.3525 0.0316453
30.3625 0.0316606
30.3725 0.0316726
30.3825 0.0316814
30.3925 0.0316871
30.4025 0.0316899
30.4125 0.03169
30.4225 0.0316875
30.4325 0.0316828
30.4425 0.0316761
30.4525 0.0316675
30.4625 0.0316573
30.4725 0.0316456
30.4825 0.0316326
30.4925 0.0316182
30.5025 0.0316028
30.5125 0.0315864
30.5225 0.0315691
30.5325 0.0315509
30.5425 0.0315319
30.5525 0.0315122
30.5625 0.0314916
30.5725 0.0314704
30.5825 0.0314485
30.5925 0.0314259
30.6025 0.0314027
30.6125 0.0313788
30.6225 0.0313543
30.6325 0.0313294
30.6425 0.0313039
30.6525 0.031278
30.6625 0.0312519
30.6725 0.0312257
30.6825 0.0311994
30.6925 0.0311733
30.7025 0.0311475
30.7125 0.0311224
30.7225 0.031098
30.7325 0.0310746
30.7425 0.0310526
30.7525 0.0310322
30.7625 0.0310135
30.7725 0.0309968
30.7825 0.0309825
30.7925 0.0309709
30.8025 0.0309621
30.8125 0.0309564
30.8225 0.0309541
30.8325 0.0309552
30.8425 0.0309601
30.8525 0.0309689
30.8625 0.0309816
30.8725 0.0309983
30.8825 0.031019
30.8925 0.0310437
30.9025 0.0310723
30.9125 0.0311046
30.9225 0.0311405
30.9325 0.0311797
30.9425 0.031222
30.9525 0.0312672
30.9625 0.0313147
30.9725 0.0313644
30.9825 0.0314163
30.9925 0.0314701
31.0025 0.0315255
31.0125 0.031582
31.0225 0.0316392
31.0325 0.0316971
31.0425 0.0317553
31.0525 0.0318135
31.0625 0.0318713
31.0725 0.0319284
31.0825 0.0319853
31.0925 0.0320414
31.1025 0.032096
31.1125 0.0321494
31.1225 0.0322012
31.1325 0.0322512
31.1425 0.0322996
31.1525 0.0323462
31.1625 0.032391
31.1725 0.0324338
31.1825 0.0324746
31.1925 0.0325134
31.2025 0.0325502
31.2125 0.0325849
31.2225 0.0326176
31.2325 0.0326483
31.2425 0.0326768
31.2525 0.0327033
31.2625 0.0327277
31.2725 0.0327501
31.2825 0.0327704
31.2925 0.0327886
31.3025 0.0328047
31.3125 0.0328187
31.3225 0.0328306
31.3325 0.0328403
31.3425 0.0328477
31.3525 0.0328529
31.3625 0.0328558
31.3725 0.0328563
31.3825 0.0328545
31.3925 0.0328502
31.4025 0.0328435
31.4125 0.0328344
31.4225 0.0328228
31.4325 0.0328086
31.4425 0.0327918
31.4525 0.0327726
31.4625 0.032751
31.4725 0.0327269
31.4825 0.0327005
31.4925 0.0326718
31.5025 0.032641
31.5125 0.0326081
31.5225 0.032573
31.5325 0.0325358
31.5425 0.0324969
31.5525 0.0324563
31.5625 0.0324141
31.5725 0.0323706
31.5825 0.0323258
31.5925 0.0322799
31.6025 0.0322333
31.6125 0.0321861
31.6225 0.0321384
31.6325 0.0320906
31.6425 0.0320428
31.6525 0.0319952
31.6625 0.0319482
31.6725 0.0319018
31.6825 0.0318563
31.6925 0.0318119
31.7025 0.0317687
31.7125 0.031727
31.7225 0.0316869
31.7325 0.0316486
31.7425 0.0316121
31.7525 0.0315776
31.7625 0.0315451
31.7725 0.0315148
31.7825 0.0314866
31.7925 0.0314606
31.8025 0.0314369
31.8125 0.0314154
31.8225 0.0313961
31.8325 0.031379
31.8425 0.031364
31.8525 0.0313511
31.8625 0.0313402
31.8725 0.0313313
31.8825 0.0313242
31.8925 0.0313189
31.9025 0.0313153
31.9125 0.0313132
31.9225 0.0313127
31.9325 0.0313136
31.9425 0.0313157
31.9525 0.0313191
31.9625 0.0313235
31.9725 0.0313289
31.9825 0.0313353
31.9925 0.0313424
32.0025 0.0313503
32.015 0.031361
32.0275 0.0313726
32.04 0.0313849
32.0525 0.0313977
32.065 0.031411
32.0775 0.0314245
32.09 0.0314381
32.1025 0.0314517
32.115 0.0314651
32.1275 0.0314781
32.14 0.0314906
32.1525 0.0315023
32.165 0.0315131
32.1775 0.0315228
32.19 0.031531
32.2025 0.0315377
32.215 0.0315425
32.2275 0.0315453
32.24 0.0315459
32.2525 0.0315441
32.265 0.0315399
32.2775 0.0315329
32.29 0.031523
32.3025 0.0315102
32.315 0.0314944
32.3275 0.0314755
32.34 0.0314534
32.3525 0.0314283
32.365 0.0314002
32.3775 0.0313691
32.39 0.0313353
32.4025 0.031299
32.415 0.0312603
32.4275 0.0312195
32.44 0.031177
32.4525 0.0311331
32.465 0.0310878
32.4775 0.0310414
32.49 0.0309946
32.5025 0.0309475
32.515 0.0309005
32.5275 0.0308539
32.54 0.0308078
32.5525 0.0307627
32.565 0.0307188
32.5775 0.0306764
32.59 0.0306357
32.6025 0.0305969
32.615 0.0305602
32.6275 0.0305259
32.64 0.030494
32.6525 0.0304648
32.665 0.0304384
32.6775 0.0304148
32.69 0.0303942
32.7025 0.0303765
32.715 0.0303619
32.7275 0.0303504
32.74 0.0303419
32.7525 0.0303366
32.765 0.0303343
32.7775 0.0303351
32.79 0.0303389
32.8025 0.0303456
32.815 0.0303553
32.8275 0.0303677
32.84 0.0303828
32.8525 0.0304004
32.865 0.0304203
32.8775 0.0304425
32.89 0.0304666
32.9025 0.0304924
32.915 0.0305198
32.9275 0.0305486
32.94 0.0305784
32.9525 0.0306092
32.965 0.0306407
32.9775 0.0306726
32.99 0.030705
33.0025 0.0307377
33.015 0.0307708
33.0275 0.030804
33.04 0.0308371
33.0525 0.03087
33.065 0.0309029
33.0775 0.0309353
33.09 0.0309674
33.1025 0.0309992
33.115 0.0310303
33.1275 0.0310608
33.14 0.0310903
33.1525 0.031119
33.165 0.0311467
33.1775 0.0311734
33.19 0.0311988
33.2025 0.031223
33.215 0.0312457
33.2275 0.031267
33.24 0.0312868
33.2525 0.0313049
33.265 0.0313213
33.2775 0.031336
33.29 0.031349
33.3025 0.0313602
33.315 0.0313697
33.3275 0.0313774
33.34 0.0313836
33.3525 0.0313881
33.365 0.0313912
33.3775 0.031393
33.39 0.0313936
33.4025 0.0313931
33.415 0.0313917
33.4275 0.0313896
33.44 0.0313869
33.4525 0.0313839
33.465 0.0313807
33.4775 0.0313776
33.49 0.0313746
33.5025 0.0313719
33.515 0.0313696
33.5275 0.0313679
33.54 0.0313668
33.5525 0.0313663
33.565 0.0313667
33.5775 0.0313678
33.59 0.0313697
33.6025 0.0313725
33.615 0.031376
33.6275 0.0313803
33.64 0.0313854
33.6525 0.0313912
33.665 0.0313978
33.6775 0.0314051
33.69 0.0314131
33.7025 0.0314217
33.715 0.031431
33.7275 0.0314409
33.74 0.0314515
33.7525 0.0314627
33.765 0.0314746
33.7775 0.0314871
33.79 0.0315003
33.8025 0.0315142
33.815 0.0315289
33.8275 0.0315443
33.84 0.0315604
33.8525 0.0315773
33.865 0.031595
33.8775 0.0316135
33.89 0.0316328
33.9025 0.0316527
33.915 0.0316734
33.9275 0.0316948
33.94 0.0317167
33.9525 0.0317392
33.965 0.0317621
33.9775 0.0317852
33.99 0.0318086
34.0025 0.031832
34.015 0.0318553
34.0275 0.0318783
34.04 0.0319009
34.0525 0.0319229
34.065 0.0319441
34.0775 0.0319644
34.09 0.0319835
34.1025 0.0320014
34.115 0.0320178
34.1275 0.0320327
34.14 0.0320459
34.1525 0.0320573
34.165 0.0320669
34.1775 0.0320745
34.19 0.0320801
34.2025 0.0320837
34.215 0.0320852
34.2275 0.0320847
34.24 0.0320822
34.2525 0.0320777
34.265 0.0320713
34.2775 0.0320632
34.29 0.0320532
34.3025 0.0320416
34.315 0.0320286
34.3275 0.0320141
34.34 0.0319983
34.3525 0.0319812
34.365 0.0319628
34.3775 0.0319433
34.39 0.0319227
34.4025 0.0319011
34.415 0.0318785
34.4275 0.031855
34.44 0.0318307
34.4525 0.0318054
34.465 0.0317795
34.4775 0.0317527
34.49 0.0317253
34.5025 0.0316972
34.515 0.0316685
34.5275 0.0316393
34.54 0.0316095
34.5525 0.0315794
34.565 0.0315489
34.5775 0.0315182
34.59 0.0314874
34.6025 0.0314565
34.615 0.0314257
34.6275 0.0313951
34.64 0.0313648
34.6525 0.031335
34.665 0.0313058
34.6775 0.0312774
34.69 0.0312498
34.7025 0.0312233
34.715 0.0311979
34.7275 0.0311738
34.74 0.031151
34.7525 0.0311298
34.765 0.0311101
34.7775 0.0310921
34.79 0.0310757
34.8025 0.0310611
34.815 0.0310482
34.8275 0.031037
34.84 0.0310275
34.8525 0.0310197
34.865 0.0310135
34.8775 0.0310089
34.89 0.0310056
34.9025 0.0310038
34.915 0.0310031
34.9275 0.0310036
34.94 0.0310051
34.9525 0.0310073
34.965 0.0310102
34.9775 0.0310137
34.99 0.0310176
35.0025 0.0310217
35.015 0.031026
35.0275 0.0310302
35.04 0.0310344
35.0525 0.0310384
35.065 0.0310422
35.0775 0.0310457
35.09 0.0310488
35.1025 0.0310516
35.115 0.0310539
35.1275 0.0310558
35.14 0.0310573
35.1525 0.0310584
35.165 0.031059
35.1775 0.0310592
35.19 0.031059
35.2025 0.0310584
35.215 0.0310573
35.2275 0.0310559
35.24 0.0310539
35.2525 0.0310516
35.265 0.0310487
35.2775 0.0310455
35.29 0.0310417
35.3025 0.0310374
35.315 0.0310325
35.3275 0.0310272
35.34 0.0310213
35.3525 0.0310149
35.365 0.031008
35.3775 0.0310006
35.39 0.0309928
35.4025 0.0309847
35.415 0.0309763
35.4275 0.0309677
35.44 0.0309589
35.4525 0.0309501
35.465 0.0309415
35.4775 0.030933
35.49 0.0309247
35.5025 0.0309168
35.515 0.0309094
35.5275 0.0309026
35.54 0.0308964
35.5525 0.0308911
35.565 0.0308868
35.5775 0.0308835
35.59 0.0308813
35.6025 0.0308804
35.615 0.0308808
35.6275 0.0308826
35.64 0.0308858
35.6525 0.0308905
35.665 0.0308966
35.6775 0.0309041
35.69 0.0309129
35.7025 0.030923
35.715 0.0309343
35.7275 0.0309465
35.74 0.0309597
35.7525 0.0309735
35.765 0.030988
35.7775 0.0310028
35.79 0.031018
35.8025 0.0310332
35.815 0.0310484
35.8275 0.0310635
35.84 0.0310783
35.8525 0.0310929
35.865 0.0311071
35.8775 0.0311209
35.89 0.0311342
35.9025 0.0311472
35.915 0.0311598
35.9275 0.0311723
35.94 0.0311846
35.9525 0.0311968
35.965 0.031209
35.9775 0.0312213
35.99 0.0312337
36.0025 0.0312464
36.015 0.0312593
36.0275 0.0312725
36.04 0.031286
36.0525 0.0312998
36.065 0.0313138
36.0775 0.0313281
36.09 0.0313425
36.1025 0.031357
36.115 0.0313715
36.1275 0.0313858
36.14 0.0314
36.1525 0.0314139
36.165 0.0314274
36.1775 0.0314404
36.19 0.0314528
36.2025 0.0314645
36.215 0.0314756
36.2275 0.0314858
36.24 0.0314953
36.2525 0.0315039
36.265 0.0315117
36.2775 0.0315188
36.29 0.0315251
36.3025 0.0315307
36.315 0.0315358
36.3275 0.0315403
36.34 0.0315444
36.3525 0.0315482
36.365 0.0315518
36.3775 0.0315553
36.39 0.0315588
36.4025 0.0315623
36.415 0.0315661
36.4275 0.0315702
36.44 0.0315745
36.4525 0.0315792
36.465 0.0315843
36.4775 0.0315898
36.49 0.0315957
36.5025 0.031602
36.515 0.0316085
36.5275 0.0316153
36.54 0.0316222
36.5525 0.0316292
36.565 0.0316361
36.5775 0.031643
36.59 0.0316496
36.6025 0.0316559
36.615 0.0316617
36.6275 0.0316671
36.64 0.0316718
36.6525 0.0316759
