0.0025 -8.4746e-06
0.0125 -1.19215e-05
0.0225 -2.08829e-05
0.035 -3.99258e-05
0.045 -6.16106e-05
0.055 -8.92958e-05
0.065 -0.000123206
0.075 -0.000163549
0.085 -0.000210537
0.095 -0.000264406
0.105 -0.000325316
0.115 -0.000393189
0.125 -0.000467495
0.135 -0.00054703
0.145 -0.000629878
0.155 -0.000713371
0.165 -0.00079427
0.175 -0.000869055
0.185 -0.000934271
0.195 -0.000986761
0.205 -0.00102364
0.215 -0.00104204
0.225 -0.00103876
0.235 -0.00101009
0.245 -0.000951746
0.255 -0.000859339
0.265 -0.000729791
0.275 -0.000563272
0.285 -0.00036494
0.295 -0.000144701
0.305 8.51495e-05
0.315 0.000312555
0.325 0.000526833
0.335 0.000719353
0.345 0.000884361
0.355 0.00101926
0.365 0.00112417
0.375 0.00120121
0.385 0.00125367
0.395 0.00128567
0.405 0.0013016
0.415 0.00130552
0.425 0.00130019
0.435 0.00128652
0.445 0.00126425
0.455 0.00123373
0.465 0.00119799
0.475 0.0011639
0.485 0.00114198
0.495 0.00114596
0.5075 0.00121231
0.52 0.00137846
0.5325 0.00167384
0.545 0.00211608
0.5575 0.00270639
0.57 0.00342735
0.5825 0.00424258
0.595 0.00509953
0.6075 0.00593902
0.62 0.00670883
0.6325 0.00737339
0.645 0.00791534
0.6575 0.00833227
0.67 0.00863296
0.6825 0.00883269
0.695 0.00894755
0.7075 0.00899266
0.72 0.00898623
0.7325 0.00895366
0.745 0.00892663
0.7575 0.0089373
0.77 0.00900991
0.7825 0.00915494
0.795 0.00937191
0.8075 0.00965549
0.82 0.00999786
0.8325 0.0103895
0.845 0.0108198
0.8575 0.0112777
0.87 0.0117522
0.8825 0.0122308
0.895 0.0127007
0.9075 0.0131505
0.92 0.0135726
0.9325 0.0139647
0.945 0.0143263
0.9575 0.0146539
0.97 0.0149343
0.9825 0.0151447
0.995 0.0152587
1.005 0.0152648
1.0175 0.0151522
1.03 0.0149009
1.0425 0.0145163
1.055 0.0140113
1.0675 0.0134018
1.08 0.0127052
1.0925 0.0119396
1.105 0.011122
1.1175 0.0102673
1.13 0.00938914
1.1425 0.00849828
1.155 0.00760338
1.1675 0.00671522
1.18 0.00585133
1.1925 0.00503458
1.205 0.00428388
1.2175 0.00360895
1.23 0.00301203
1.2425 0.00249007
1.255 0.00203538
1.2675 0.00163489
1.28 0.00126812
1.2925 0.000906035
1.305 0.00051343
1.3175 5.77513e-05
1.33 -0.000479294
1.3425 -0.0010965
1.355 -0.00177892
1.3675 -0.00250982
1.38 -0.00327986
1.3925 -0.0040889
1.405 -0.00493995
1.4175 -0.00583309
1.43 -0.00676599
1.4425 -0.00773681
1.455 -0.00874478
1.4675 -0.00978832
1.48 -0.0108619
1.4925 -0.011951
1.505 -0.0130283
1.5175 -0.0140546
1.53 -0.0149871
1.5425 -0.0157894
1.555 -0.0164378
1.5675 -0.0169242
1.58 -0.0172566
1.5925 -0.0174561
1.605 -0.0175553
1.6175 -0.0175931
1.63 -0.0176084
1.6425 -0.0176354
1.655 -0.0177026
1.6675 -0.0178323
1.68 -0.0180393
1.6925 -0.0183283
1.705 -0.01869
1.7175 -0.0191194
1.73 -0.019612
1.7425 -0.0201708
1.755 -0.0208061
1.7675 -0.0215387
1.78 -0.0223695
1.7925 -0.0232874
1.805 -0.0242647
1.8175 -0.0252629
1.83 -0.0262408
1.8425 -0.027162
1.855 -0.0280029
1.8675 -0.0287534
1.88 -0.0294113
1.8925 -0.0299755
1.905 -0.030441
1.9175 -0.0307987
1.93 -0.0310364
1.9425 -0.0311425
1.955 -0.0311065
1.9675 -0.0309256
1.98 -0.0306076
1.9925 -0.0301733
2.0025 -0.0297623
2.0125 -0.0293137
2.0225 -0.0288457
2.0325 -0.0283751
2.0425 -0.0279171
2.0525 -0.0274849
2.0625 -0.027088
2.0725 -0.0267311
2.0825 -0.0264125
2.0925 -0.0261244
2.1025 -0.0258535
2.1125 -0.0255842
2.1225 -0.0253023
2.1325 -0.0249974
2.1425 -0.0246652
2.1525 -0.0243065
2.1625 -0.0239244
2.1725 -0.0235209
2.1825 -0.0230956
2.1925 -0.0226458
2.2025 -0.0221683
2.2125 -0.0216604
2.2225 -0.0211204
2.2325 -0.0205463
2.2425 -0.0199365
2.2525 -0.0192895
2.2625 -0.0186052
2.2725 -0.0178847
2.2825 -0.0171312
2.2925 -0.016349
2.3025 -0.0155443
2.3125 -0.0147243
2.3225 -0.0138973
2.3325 -0.0130728
2.3425 -0.0122619
2.3525 -0.0114763
2.3625 -0.0107187
2.3725 -0.00999488
2.3825 -0.00930491
2.3925 -0.00864418
2.4025 -0.00800433
2.4125 -0.0073752
2.4225 -0.00674629
2.4325 -0.0061081
2.4425 -0.00545356
2.4525 -0.00477892
2.4625 -0.00408401
2.4725 -0.00337153
2.4825 -0.0026455
2.4925 -0.00190993
2.5025 -0.00116761
2.5125 -0.000419521
2.5225 0.000334783
2.5325 0.00109589
2.5425 0.00186306
2.5525 0.00263323
2.5625 0.00340068
2.5725 0.00415762
2.5825 0.00489547
2.5925 0.00560564
2.6025 0.00627948
2.6125 0.00690884
2.6225 0.00748697
2.6325 0.00800924
2.6425 0.00847323
2.6525 0.00887909
2.6625 0.0092298
2.6725 0.0095313
2.6825 0.0097921
2.6925 0.0100224
2.7025 0.0102326
2.7125 0.0104321
2.7225 0.0106298
2.7325 0.0108347
2.7425 0.0110556
2.7525 0.0113009
2.7625 0.011577
2.7725 0.0118875
2.7825 0.0122323
2.7925 0.0126077
2.8025 0.0130067
2.8125 0.0134214
2.8225 0.0138437
2.8325 0.0142662
2.8425 0.0146819
2.8525 0.0150839
2.8625 0.0154659
2.8725 0.0158221
2.8825 0.0161483
2.8925 0.0164434
2.9025 0.0167095
2.9125 0.0169514
2.9225 0.0171741
2.9325 0.0173845
2.9425 0.017585
2.9525 0.0177736
2.9625 0.0179454
2.9725 0.0180932
2.9825 0.0182104
2.9925 0.0182898
3.0025 0.0183239
3.0125 0.0183051
3.0225 0.0182253
3.0325 0.0180765
3.0425 0.0178514
3.0525 0.017546
3.0625 0.0171615
3.0725 0.0167054
3.0825 0.0161889
3.0925 0.015625
3.1025 0.0150271
3.1125 0.0144082
3.1225 0.0137813
3.1325 0.0131589
3.1425 0.0125538
3.1525 0.0119785
3.1625 0.0114439
3.1725 0.0109569
3.1825 0.0105192
3.1925 0.0101283
3.2025 0.00977858
3.2125 0.0094615
3.2225 0.0091662
3.2325 0.0088805
3.2425 0.00859243
3.2525 0.00829161
3.2625 0.00796962
3.2725 0.00761947
3.2825 0.007235
3.2925 0.00681089
3.3025 0.00634327
3.3125 0.00583013
3.3225 0.00527138
3.3325 0.00466876
3.3425 0.00402548
3.3525 0.00334562
3.3625 0.00263343
3.3725 0.00189287
3.3825 0.00112735
3.3925 0.000342364
3.4025 -0.000461731
3.4125 -0.00128404
3.4225 -0.00211902
3.4325 -0.00295888
3.4425 -0.00379339
3.4525 -0.00461079
3.4625 -0.00539883
3.4725 -0.00614647
3.4825 -0.00684475
3.4925 -0.00748809
3.5025 -0.0080735
3.5125 -0.00860036
3.5225 -0.00906939
3.5325 -0.00948171
3.5425 -0.0098386
3.5525 -0.0101422
3.5625 -0.0103962
3.5725 -0.0106064
3.5825 -0.0107816
3.5925 -0.0109338
3.6025 -0.0110787
3.6125 -0.0112344
3.6225 -0.0114196
3.6325 -0.0116509
3.6425 -0.0119414
3.6525 -0.0123002
3.6625 -0.0127315
3.6725 -0.0132372
3.6825 -0.0138139
3.6925 -0.0144542
3.7025 -0.0151482
3.7125 -0.0158846
3.7225 -0.0166532
3.7325 -0.0174454
3.7425 -0.0182531
3.7525 -0.0190677
3.7625 -0.0198799
3.7725 -0.0206804
3.7825 -0.02146
3.7925 -0.0222093
3.8025 -0.0229192
3.8125 -0.0235819
3.8225 -0.0241908
3.8325 -0.02474
3.8425 -0.0252238
3.8525 -0.0256364
3.8625 -0.0259725
3.8725 -0.026229
3.8825 -0.0264066
3.8925 -0.0265098
3.9025 -0.0265456
3.9125 -0.0265231
3.9225 -0.0264521
3.9325 -0.0263433
3.9425 -0.0262079
3.9525 -0.0260578
3.9625 -0.0259051
3.9725 -0.0257614
3.9825 -0.0256356
3.9925 -0.0255328
4.0025 -0.0254532
4.0125 -0.0253935
4.0225 -0.0253493
4.0325 -0.0253162
4.0425 -0.0252897
4.0525 -0.0252658
4.0625 -0.0252405
4.0725 -0.0252112
4.0825 -0.0251775
4.0925 -0.0251421
4.1025 -0.0251084
4.1125 -0.0250792
4.1225 -0.0250549
4.1325 -0.0250326
4.1425 -0.0250073
4.1525 -0.0249741
4.1625 -0.0249294
4.1725 -0.0248712
4.1825 -0.0247992
4.1925 -0.0247142
4.2025 -0.024618
4.2125 -0.0245132
4.2225 -0.0244014
4.2325 -0.0242825
4.2425 -0.0241536
4.2525 -0.0240088
4.2625 -0.0238406
4.2725 -0.0236409
4.2825 -0.0234008
4.2925 -0.0231113
4.3025 -0.0227649
4.3125 -0.0223564
4.3225 -0.0218838
4.3325 -0.0213481
4.3425 -0.020754
4.3525 -0.0201096
4.3625 -0.0194261
4.3725 -0.018716
4.3825 -0.0179922
4.3925 -0.0172663
4.4025 -0.0165478
4.4125 -0.0158445
4.4225 -0.0151626
4.4325 -0.0145073
4.4425 -0.0138826
4.4525 -0.0132915
4.4625 -0.0127353
4.4725 -0.0122145
4.4825 -0.011727
4.4925 -0.0112681
4.5025 -0.0108363
4.5125 -0.0104297
4.5225 -0.0100473
4.5325 -0.00968708
4.5425 -0.00934654
4.5525 -0.00902182
4.5625 -0.00870623
4.5725 -0.00839224
4.5825 -0.00807179
4.5925 -0.00773679
4.6025 -0.00737933
4.6125 -0.00699156
4.6225 -0.00656554
4.6325 -0.00609384
4.6425 -0.00556997
4.6525 -0.00498826
4.6625 -0.0043437
4.6725 -0.00363177
4.6825 -0.0028486
4.6925 -0.00199149
4.7025 -0.00105999
4.7125 -5.72094e-05
4.7225 0.00100913
4.7325 0.00212684
4.7425 0.00328056
4.7525 0.00445338
4.7625 0.00562772
4.7725 0.00678573
4.7825 0.0079082
4.7925 0.00897772
4.8025 0.00997886
4.8125 0.0109007
4.8225 0.0117397
4.8325 0.0124994
4.8425 0.0131893
4.8525 0.0138206
4.8625 0.0144055
4.8725 0.0149559
4.8825 0.0154833
4.8925 0.0159981
4.9025 0.0165083
4.9125 0.0170194
4.9225 0.0175342
4.9325 0.0180529
4.9425 0.0185736
4.9525 0.0190931
4.9625 0.0196242
4.9725 0.0201615
4.9825 0.0206647
4.9925 0.0211557
5.0025 0.021639
5.0125 0.0221151
5.0225 0.0225939
5.0325 0.0230951
5.0425 0.0236222
5.0525 0.024177
5.0625 0.0247575
5.0725 0.0253568
5.0825 0.025964
5.0925 0.0265658
5.1025 0.0271477
5.1125 0.0276954
5.1225 0.028196
5.1325 0.0286399
5.1425 0.0290223
5.1525 0.0293423
5.1625 0.029601
5.1725 0.0298003
5.1825 0.0299429
5.1925 0.0300318
5.2025 0.0300703
5.2125 0.030062
5.2225 0.0300097
5.2325 0.0299169
5.2425 0.0297873
5.2525 0.0296254
5.2625 0.0294362
5.2725 0.0292255
5.2825 0.0289994
5.2925 0.0287636
5.3025 0.0285228
5.3125 0.0282812
5.3225 0.0280421
5.3325 0.0278086
5.3425 0.0275834
5.3525 0.0273692
5.3625 0.0271688
5.3725 0.0269855
5.3825 0.0268226
5.3925 0.0266834
5.4025 0.0265702
5.4125 0.026483
5.4225 0.0264191
5.4325 0.0263725
5.4425 0.0263346
5.4525 0.0262957
5.4625 0.0262464
5.4725 0.0261781
5.4825 0.0260831
5.4925 0.0259544
5.5025 0.0257856
5.5125 0.0255705
5.5225 0.0253031
5.5325 0.024978
5.5425 0.0245925
5.5525 0.0241476
5.5625 0.0236496
5.5725 0.0231094
5.5825 0.0225403
5.5925 0.0219561
5.6025 0.0213684
5.6125 0.0207863
5.6225 0.0202154
5.6325 0.0196586
5.6425 0.0191172
5.6525 0.0185906
5.6625 0.018077
5.6725 0.0175738
5.6825 0.0170784
5.6925 0.0165886
5.7025 0.0161016
5.7125 0.0156132
5.7225 0.0151178
5.7325 0.0146085
5.7425 0.0140792
5.7525 0.0135256
5.7625 0.0129462
5.7725 0.0123448
5.7825 0.0117148
5.7925 0.0110608
5.8025 0.0103854
5.8125 0.00969371
5.8225 0.00899255
5.8325 0.00828924
5.8425 0.00759419
5.8525 0.00691664
5.8625 0.00625977
5.8725 0.00562581
5.8825 0.00501351
5.8925 0.00441882
5.9025 0.00383676
5.9125 0.00326281
5.9225 0.00269323
5.9325 0.00212481
5.9425 0.0015544
5.9525 0.000978497
5.9625 0.000393089
5.9725 -0.000205923
5.9825 -0.000822052
5.9925 -0.00145784
6.0025 -0.00211483
6.0125 -0.00279397
6.0225 -0.00349605
6.0325 -0.00422217
6.0425 -0.00497377
6.0525 -0.00575251
6.0625 -0.00655979
6.0725 -0.00739593
6.0825 -0.0082598
6.0925 -0.00914868
6.1025 -0.0100591
6.1125 -0.0109876
6.1225 -0.0119306
6.1325 -0.0128834
6.1425 -0.0138398
6.1525 -0.0147901
6.1625 -0.0157217
6.1725 -0.0166196
6.1825 -0.0174682
6.1925 -0.0182535
6.2025 -0.018964
6.2125 -0.019592
6.2225 -0.0201337
6.2325 -0.0205898
6.2425 -0.0209652
6.2525 -0.0212694
6.2625 -0.0215157
6.2725 -0.0217184
6.2825 -0.021891
6.2925 -0.0220457
6.3025 -0.0221929
6.3125 -0.0223412
6.3225 -0.0224968
6.3325 -0.0226642
6.3425 -0.022846
6.3525 -0.0230435
6.3625 -0.0232557
6.3725 -0.0234816
6.3825 -0.0237195
6.3925 -0.0239665
6.4025 -0.0242195
6.4125 -0.0244752
6.4225 -0.0247304
6.4325 -0.0249821
6.4425 -0.0252268
6.4525 -0.02546
6.4625 -0.0256749
6.4725 -0.0258635
6.4825 -0.0260187
6.4925 -0.0261349
6.5025 -0.0262085
6.5125 -0.0262367
6.5225 -0.0262165
6.5325 -0.0261448
6.5425 -0.0260169
6.5525 -0.0258275
6.5625 -0.0255715
6.5725 -0.0252451
6.5825 -0.0248484
6.5925 -0.0243863
6.6025 -0.0238681
6.6125 -0.0233047
6.6225 -0.0227069
6.6325 -0.0220841
6.6425 -0.0214447
6.6525 -0.0207967
6.6625 -0.0201482
6.6725 -0.0195066
6.6825 -0.0188768
6.6925 -0.0182611
6.7025 -0.0176612
6.7125 -0.0170791
6.7225 -0.016518
6.7325 -0.0159817
6.7425 -0.0154734
6.7525 -0.0149947
6.7625 -0.0145449
6.7725 -0.0141203
6.7825 -0.0137147
6.7925 -0.0133204
6.8025 -0.0129291
6.8125 -0.0125329
6.8225 -0.0121255
6.8325 -0.0117023
6.8425 -0.0112606
6.8525 -0.0107987
6.8625 -0.0103158
6.8725 -0.00980921
6.8825 -0.00928388
6.8925 -0.00874253
6.9025 -0.00819059
6.9125 -0.00762881
6.9225 -0.0070601
6.9325 -0.00648549
6.9425 -0.00590449
6.9525 -0.0053154
6.9625 -0.00471552
6.9725 -0.00410118
6.9825 -0.00346802
6.9925 -0.00281114
7.0025 -0.00212552
7.0125 -0.00140642
7.0225 -0.000650136
7.0325 0.000145338
7.0425 0.000980306
7.0525 0.00185379
7.0625 0.00276383
7.0725 0.00370742
7.0825 0.00468017
7.0925 0.00567559
7.1025 0.00668498
7.1125 0.00769749
7.1225 0.00870092
7.1325 0.00968329
7.1425 0.0106339
7.1525 0.0115444
7.1625 0.0124092
7.1725 0.0132261
7.1825 0.0139965
7.1925 0.0147247
7.2025 0.015417
7.2125 0.0160803
7.2225 0.0167214
7.2325 0.0173463
7.2425 0.0179598
7.2525 0.018566
7.2625 0.0191679
7.2725 0.0197682
7.2825 0.0203687
7.2925 0.0209712
7.3025 0.0215767
7.3125 0.0221863
7.3225 0.0228004
7.3325 0.0234194
7.3425 0.0240433
7.3525 0.024671
7.3625 0.0253006
7.3725 0.0259284
7.3825 0.0265496
7.3925 0.0271595
7.4025 0.0277545
7.4125 0.0283328
7.4225 0.0288928
7.4325 0.029433
7.4425 0.0299514
7.4525 0.0304463
7.4625 0.0309156
7.4725 0.031358
7.4825 0.0317753
7.4925 0.0321673
7.5025 0.0325342
7.5125 0.0328759
7.5225 0.0331916
7.5325 0.03348
7.5425 0.0337388
7.5525 0.033966
7.5625 0.0341611
7.5725 0.0343268
7.5825 0.0344656
7.5925 0.0345824
7.6025 0.0346802
7.6125 0.0347606
7.6225 0.0348219
7.6325 0.0348606
7.6425 0.0348739
7.6525 0.0348616
7.6625 0.0348263
7.6725 0.0347719
7.6825 0.0347032
7.6925 0.0346255
7.7025 0.0345439
7.7125 0.0344639
7.7225 0.0343906
7.7325 0.0343293
7.7425 0.0342848
7.7525 0.034261
7.7625 0.0342595
7.7725 0.0342786
7.7825 0.0343125
7.7925 0.0343517
7.8025 0.0343847
7.8125 0.0344
7.8225 0.0343873
7.8325 0.0343386
7.8425 0.0342489
7.8525 0.0341149
7.8625 0.0339342
7.8725 0.0337051
7.8825 0.0334266
7.8925 0.0330974
7.9025 0.032717
7.9125 0.0322848
7.9225 0.0318008
7.9325 0.0312658
7.9425 0.0306807
7.9525 0.0300476
7.9625 0.0293688
7.9725 0.0286479
7.9825 0.0278891
7.9925 0.0270983
8.0025 0.0262824
8.015 0.0252402
8.0275 0.0241903
8.04 0.0231498
8.0525 0.0221308
8.065 0.0211371
8.0775 0.0201651
8.09 0.0192081
8.1025 0.0182606
8.115 0.0173193
8.1275 0.016381
8.14 0.0154403
8.1525 0.0144792
8.165 0.0134729
8.1775 0.0124144
8.19 0.0112941
8.2025 0.0101132
8.215 0.00887635
8.2275 0.00758893
8.24 0.00625825
8.2525 0.00489523
8.265 0.00351293
8.2775 0.00212451
8.29 0.000739901
8.3025 -0.000636186
8.315 -0.00200306
8.3275 -0.00336119
8.34 -0.00470919
8.3525 -0.00604288
8.365 -0.00735609
8.3775 -0.00864169
8.39 -0.00989248
8.4025 -0.0111026
8.415 -0.0122687
8.4275 -0.0133897
8.44 -0.0144671
8.4525 -0.0155046
8.465 -0.0165076
8.4775 -0.0174784
8.49 -0.0184139
8.5025 -0.0193066
8.515 -0.0201477
8.5275 -0.0209292
8.54 -0.0216451
8.5525 -0.0222932
8.565 -0.0228771
8.5775 -0.0234078
8.59 -0.023903
8.6025 -0.0243852
8.615 -0.0248761
8.6275 -0.0253934
8.64 -0.0259487
8.6525 -0.0265458
8.665 -0.0271802
8.6775 -0.0278425
8.69 -0.0285196
8.7025 -0.029196
8.715 -0.0298545
8.7275 -0.0304776
8.74 -0.0310482
8.7525 -0.0315506
8.765 -0.0319707
8.7775 -0.0322965
8.79 -0.0325183
8.8025 -0.0326322
8.815 -0.0326348
8.8275 -0.0325241
8.84 -0.0322995
8.8525 -0.0319642
8.865 -0.0315247
8.8775 -0.0309913
8.89 -0.0303784
8.9025 -0.0297043
8.915 -0.0289907
8.9275 -0.0282601
8.94 -0.0275326
8.9525 -0.0268232
8.965 -0.0261391
8.9775 -0.0254784
8.99 -0.0248328
9.0025 -0.0241919
9.015 -0.0235472
9.0275 -0.0228945
9.04 -0.0222311
9.0525 -0.0215531
9.065 -0.0208549
9.0775 -0.0201304
9.09 -0.0193729
9.1025 -0.0185745
9.115 -0.0177249
9.1275 -0.0168134
9.14 -0.0158335
9.1525 -0.014787
9.165 -0.0136836
9.1775 -0.0125371
9.19 -0.0113565
9.2025 -0.0101509
9.215 -0.0089311
9.2275 -0.00771379
9.24 -0.00651843
9.2525 -0.0053637
9.265 -0.00426424
9.2775 -0.00322953
9.29 -0.00226302
9.3025 -0.00136243
9.315 -0.00052169
9.3275 0.00026677
9.34 0.00101001
9.3525 0.00171582
9.365 0.00239564
9.3775 0.00306374
9.39 0.00373359
9.4025 0.00441427
9.415 0.00510701
9.4275 0.00580502
9.44 0.00649857
9.4525 0.00718173
9.465 0.00785498
9.4775 0.00852275
9.49 0.00918709
9.5025 0.00984273
9.515 0.0104786
9.5275 0.0110814
9.54 0.0116384
9.5525 0.0121376
9.565 0.0125663
9.5775 0.0129123
9.59 0.0131649
9.6025 0.0133162
9.615 0.0133623
9.6275 0.0133048
9.64 0.0131543
9.6525 0.012929
9.665 0.0126522
9.6775 0.0123473
9.69 0.012034
9.7025 0.0117265
9.715 0.0114324
9.7275 0.0111525
9.74 0.0108824
9.7525 0.0106147
9.765 0.0103428
9.7775 0.0100628
9.79 0.0097739
9.8025 0.00947585
9.815 0.00916744
9.8275 0.00884646
9.84 0.00850998
9.8525 0.00815334
9.865 0.00776894
9.8775 0.00734651
9.89 0.00687464
9.9025 0.00634322
9.915 0.0057449
9.9275 0.00507583
9.94 0.00433573
9.9525 0.00352673
9.965 0.00265339
9.9775 0.0017254
9.99 0.000746046
10.0025 -0.000272399
10.015 -0.00131583
10.0275 -0.00236666
10.04 -0.00340732
10.0525 -0.00442359
10.065 -0.00540837
10.0775 -0.00636132
10.09 -0.00728576
10.1025 -0.00818548
10.115 -0.00906301
10.1275 -0.0099202
10.14 -0.0107594
10.1525 -0.0115842
10.165 -0.0124001
10.1775 -0.0132137
10.19 -0.0140309
10.2025 -0.0148553
10.215 -0.0156875
10.2275 -0.0165258
10.24 -0.0173665
10.2525 -0.0182028
10.265 -0.0190249
10.2775 -0.0198215
10.29 -0.0205828
10.3025 -0.0213027
10.315 -0.021979
10.3275 -0.022612
10.34 -0.0232028
10.3525 -0.0237522
10.365 -0.0242588
10.3775 -0.0247194
10.39 -0.0251306
10.4025 -0.0254906
10.415 -0.0258007
10.4275 -0.0260659
10.44 -0.0262951
10.4525 -0.0264986
10.465 -0.0266869
10.4775 -0.0268678
10.49 -0.0270445
10.5025 -0.0272148
10.515 -0.0273725
10.5275 -0.0275074
10.54 -0.0276062
10.5525 -0.0276554
10.565 -0.0276451
10.5775 -0.0275723
10.59 -0.0274404
10.6025 -0.0272585
10.615 -0.0270384
10.6275 -0.0267924
10.64 -0.0265305
10.6525 -0.0262598
10.665 -0.0259836
10.6775 -0.0257001
10.69 -0.0254027
10.7025 -0.0250805
10.715 -0.0247191
10.7275 -0.0243022
10.74 -0.023816
10.7525 -0.0232545
10.765 -0.0226196
10.7775 -0.0219186
10.79 -0.0211619
10.8025 -0.0203612
10.815 -0.0195284
10.8275 -0.0186755
10.84 -0.0178131
10.8525 -0.0169498
10.865 -0.0160908
10.8775 -0.0152367
10.89 -0.0143847
10.9025 -0.013533
10.915 -0.0126854
10.9275 -0.011853
10.94 -0.0110516
10.9525 -0.0102962
10.965 -0.00960415
10.9775 -0.00897803
10.99 -0.00842498
11.0025 -0.00794952
11.015 -0.00755329
11.0275 -0.00723318
11.04 -0.00698073
11.0525 -0.00678377
11.065 -0.00662823
11.0775 -0.00649983
11.09 -0.00638675
11.1025 -0.00628218
11.115 -0.0061851
11.1275 -0.00609905
11.14 -0.00602991
11.1525 -0.00598411
11.165 -0.00596781
11.1775 -0.00598574
11.19 -0.00603946
11.2025 -0.00612467
11.215 -0.00622974
11.2275 -0.00633906
11.24 -0.00643935
11.2525 -0.00652308
11.265 -0.00658861
11.2775 -0.00664003
11.29 -0.00668576
11.3025 -0.00673527
11.315 -0.00679534
11.3275 -0.00686789
11.34 -0.00695201
11.3525 -0.00704575
11.365 -0.00714525
11.3775 -0.00724385
11.39 -0.00733282
11.4025 -0.00740258
11.415 -0.00744328
11.4275 -0.00744531
11.44 -0.00739995
11.4525 -0.00730007
11.465 -0.00714098
11.4775 -0.00692002
11.49 -0.00663528
11.5025 -0.00628658
11.515 -0.005879
11.5275 -0.00542135
11.54 -0.00493315
11.5525 -0.00443589
11.565 -0.00394914
11.5775 -0.00348987
11.59 -0.00307386
11.6025 -0.00271603
11.615 -0.00242964
11.6275 -0.00222497
11.64 -0.0021075
11.6525 -0.00207667
11.665 -0.00212685
11.6775 -0.00224846
11.69 -0.00242942
11.7025 -0.00265489
11.715 -0.00290799
11.7275 -0.0031711
11.74 -0.00342751
11.7525 -0.00366339
11.765 -0.00386935
11.7775 -0.0040406
11.79 -0.00417502
11.8025 -0.0042706
11.815 -0.00432504
11.8275 -0.00433787
11.84 -0.00431299
11.8525 -0.0042585
11.865 -0.00418431
11.8775 -0.00410009
11.89 -0.00401415
11.9025 -0.00393313
11.915 -0.0038626
11.9275 -0.00380794
11.94 -0.00377478
11.9525 -0.00376858
11.965 -0.00379337
11.9775 -0.00385005
11.99 -0.00393554
12.0025 -0.00404372
12.015 -0.0041677
12.0275 -0.00430204
12.04 -0.00444245
12.0525 -0.00458394
12.065 -0.00472048
12.0775 -0.00484654
12.09 -0.00495993
12.1025 -0.00506354
12.115 -0.00516371
12.1275 -0.00526566
12.14 -0.0053704
12.1525 -0.00547451
12.165 -0.00557187
12.1775 -0.00565671
12.19 -0.00572433
12.2025 -0.00577154
12.215 -0.00579712
12.2275 -0.00580262
12.24 -0.00579159
12.2525 -0.00576893
12.265 -0.00574004
12.2775 -0.00570954
12.29 -0.00568
12.3025 -0.00565209
12.315 -0.00562587
12.3275 -0.00560234
12.34 -0.00558439
12.3525 -0.00557697
12.365 -0.00558642
12.3775 -0.00561769
12.39 -0.00567155
12.4025 -0.00574466
12.415 -0.00583123
12.4275 -0.00592226
12.44 -0.0060077
12.4525 -0.00607773
12.465 -0.00612274
12.4775 -0.00613438
12.49 -0.00610663
12.5025 -0.00603317
12.515 -0.00590765
12.5275 -0.00572351
12.54 -0.00547451
12.5525 -0.00515604
12.565 -0.00476598
12.5775 -0.00429743
12.59 -0.00374558
12.6025 -0.00310889
12.615 -0.00239368
12.6275 -0.00161634
12.64 -0.000801971
12.6525 2.03746e-05
12.665 0.000820828
12.6775 0.00156917
12.69 0.00223783
12.7025 0.00280851
12.715 0.00327467
12.7275 0.00363793
12.74 0.00390461
12.7525 0.00408409
12.765 0.00418934
12.7775 0.00423725
12.79 0.00424755
12.8025 0.00424078
12.815 0.00423755
12.8275 0.00425761
12.84 0.00431837
12.8525 0.00443293
12.865 0.00460849
12.8775 0.00484648
12.89 0.0051442
12.9025 0.00549597
12.915 0.00589952
12.9275 0.0063484
12.94 0.00683437
12.9525 0.00734609
12.965 0.00787001
12.9775 0.00839188
12.99 0.00889906
13.0025 0.00938146
13.015 0.00983148
13.0275 0.0102442
13.04 0.0106172
13.0525 0.0109498
13.065 0.0112426
13.0775 0.0114972
13.09 0.0117166
13.1025 0.0119065
13.115 0.0120703
13.1275 0.0122083
13.14 0.0123152
13.1525 0.0123842
13.165 0.0124095
13.1775 0.012389
13.19 0.0123268
13.2025 0.0122324
13.215 0.0121158
13.2275 0.0119826
13.24 0.0118323
13.2525 0.0116624
13.265 0.0114711
13.2775 0.0112547
13.29 0.0110066
13.3025 0.0107187
13.315 0.0103846
13.3275 0.0100019
13.34 0.00957268
13.3525 0.00910263
13.365 0.00859824
13.3775 0.00806579
13.39 0.00751266
13.4025 0.00694833
13.415 0.00638339
13.4275 0.00582635
13.44 0.0052815
13.4525 0.00474905
13.465 0.0042263
13.4775 0.00371218
13.49 0.0032093
13.5025 0.00271451
13.515 0.00222956
13.5275 0.00175594
13.54 0.00129553
13.5525 0.00084865
13.565 0.000410899
13.5775 -2.74105e-05
13.59 -0.000479568
13.6025 -0.000960068
13.615 -0.00148214
13.6275 -0.00205401
13.64 -0.00267628
13.6525 -0.00334129
13.665 -0.00403597
13.6775 -0.00474548
13.69 -0.00545563
13.7025 -0.00615355
13.715 -0.0068277
13.7275 -0.00746979
13.74 -0.00807821
13.7525 -0.00865991
13.765 -0.00922826
13.7775 -0.00979897
13.79 -0.0103861
13.8025 -0.0110008
13.815 -0.011653
13.8275 -0.012352
13.84 -0.0131027
13.8525 -0.0139013
13.865 -0.0147361
13.8775 -0.0155907
13.89 -0.0164476
13.9025 -0.0172927
13.915 -0.018119
13.9275 -0.0189291
13.94 -0.0197307
13.9525 -0.0205328
13.965 -0.0213416
13.9775 -0.0221575
13.99 -0.0229736
14.0025 -0.0237778
14.015 -0.0245554
14.0275 -0.0252916
14.04 -0.0259718
14.0525 -0.0265817
14.065 -0.0271075
14.0775 -0.0275364
14.09 -0.0278585
14.1025 -0.0280671
14.115 -0.0281577
14.1275 -0.0281285
14.14 -0.0279835
14.1525 -0.0277352
14.165 -0.0274021
14.1775 -0.0270044
14.19 -0.0265601
14.2025 -0.0260836
14.215 -0.0255847
14.2275 -0.0250682
14.24 -0.0245325
14.2525 -0.0239703
14.265 -0.0233714
14.2775 -0.0227243
14.29 -0.0220175
14.3025 -0.0212417
14.315 -0.0203931
14.3275 -0.0194745
14.34 -0.018495
14.3525 -0.0174667
14.365 -0.0164018
14.3775 -0.0153099
14.39 -0.0141956
14.4025 -0.0130597
14.415 -0.0119019
14.4275 -0.0107261
14.44 -0.00952362
14.4525 -0.0082899
14.465 -0.00702827
14.4775 -0.0057354
14.49 -0.0044136
14.5025 -0.00306963
14.515 -0.00171457
14.5275 -0.000361488
14.54 0.000979682
14.5525 0.00230375
14.565 0.00361028
14.5775 0.00490581
14.59 0.00620309
14.6025 0.00751893
14.615 0.00886837
14.6275 0.0102634
14.64 0.0117111
14.6525 0.0132127
14.665 0.0147642
14.6775 0.0163601
14.69 0.0179963
14.7025 0.0196701
14.715 0.0213781
14.7275 0.023113
14.74 0.0248658
14.7525 0.0266252
14.765 0.0283824
14.7775 0.0301314
14.79 0.0318707
14.8025 0.0336027
14.815 0.0353503
14.8275 0.0370577
14.84 0.0386851
14.8525 0.0403152
14.865 0.041952
14.8775 0.0435932
14.89 0.0452016
14.9025 0.0467989
14.915 0.0483593
14.9275 0.0498752
14.94 0.0513661
14.9525 0.052815
14.965 0.0542003
14.9775 0.0555372
14.99 0.0568285
15.0025 0.0580545
15.015 0.0592151
15.0275 0.060921
15.04 0.062219
15.0525 0.0630727
15.065 0.0638948
15.0775 0.0647613
15.09 0.0653417
15.1025 0.0658079
15.115 0.0662628
15.1275 0.0666083
15.14 0.0668452
15.1525 0.067052
15.165 0.0672014
15.1775 0.0672769
15.19 0.0673291
15.2025 0.0673622
15.215 0.0673935
15.2275 0.0674332
15.24 0.0674851
15.2525 0.0675492
15.265 0.0676419
15.2775 0.0677263
15.29 0.0677839
15.3025 0.0678194
15.315 0.0678232
15.3275 0.0677937
15.34 0.0677315
15.3525 0.0676398
15.365 0.0673975
15.3775 0.067153
15.39 0.06691
15.4025 0.0665875
15.415 0.0662143
15.4275 0.0658103
15.44 0.0653703
15.4525 0.0648916
15.465 0.0643932
15.4775 0.0638634
15.49 0.0633003
15.5025 0.0627274
15.515 0.0620996
15.5275 0.0614616
15.54 0.0608156
15.5525 0.0601609
15.565 0.0595099
15.5775 0.058862
15.59 0.058218
15.6025 0.0575776
15.615 0.056936
15.6275 0.0562866
15.64 0.0556216
15.6525 0.0549345
15.665 0.0542241
15.6775 0.0534903
15.69 0.0527338
15.7025 0.0519586
15.715 0.0511734
15.7275 0.050383
15.74 0.0495871
15.7525 0.0487944
15.765 0.0479751
15.7775 0.0471486
15.79 0.0463139
15.8025 0.0454695
15.815 0.0446189
15.8275 0.0437656
15.84 0.0429095
15.8525 0.0420538
15.865 0.0412047
15.8775 0.0403687
15.89 0.0395514
15.9025 0.038756
15.915 0.0379819
15.9275 0.0372271
15.94 0.0364906
15.9525 0.0357728
15.965 0.0350776
15.9775 0.0344129
15.99 0.0337888
16.0025 0.0332164
16.0125 0.0328025
16.0225 0.0324319
16.0325 0.0321032
16.0425 0.0318097
16.0525 0.0315635
16.0625 0.0313571
16.0725 0.0311832
16.0825 0.0310393
16.0925 0.0309165
16.1025 0.0308088
16.1125 0.030709
16.1225 0.0306118
16.1325 0.0305109
16.1425 0.030404
16.1525 0.0302893
16.1625 0.0301534
16.1725 0.0299995
16.1825 0.0298277
16.1925 0.0296323
16.2025 0.0294117
16.2125 0.0291665
16.2225 0.0288954
16.2325 0.0285984
16.2425 0.0282782
16.2525 0.0279377
16.2625 0.0275796
16.2725 0.0272083
16.2825 0.0268296
16.2925 0.0264503
16.3025 0.0260802
16.3125 0.0257308
16.3225 0.0254147
16.3325 0.0251437
16.3425 0.0249271
16.3525 0.0247717
16.3625 0.024682
16.3725 0.0246604
16.3825 0.0247078
16.3925 0.0248233
16.4025 0.0250033
16.4125 0.0252403
16.4225 0.0255233
16.4325 0.0258396
16.4425 0.0261758
16.4525 0.0265187
16.4625 0.026856
16.4725 0.0271764
16.4825 0.0274698
16.4925 0.0277274
16.5025 0.0279424
16.5125 0.0281106
16.5225 0.0282311
16.5325 0.0283046
16.5425 0.0283342
16.5525 0.0283245
16.5625 0.0282809
16.5725 0.0282096
16.5825 0.0281169
16.5925 0.0280087
16.6025 0.0278892
16.6125 0.0277618
16.6225 0.0276304
16.6325 0.0274998
16.6425 0.0273753
16.6525 0.0272624
16.6625 0.0271656
16.6725 0.0270888
16.6825 0.0270352
16.6925 0.0270066
16.7025 0.027003
16.7125 0.0270226
16.7225 0.0270624
16.7325 0.0271191
16.7425 0.0271883
16.7525 0.0272643
16.7625 0.0273389
16.7725 0.0274025
16.7825 0.0274447
16.7925 0.0274556
16.8025 0.0274214
16.8125 0.0273354
16.8225 0.0271952
16.8325 0.026995
16.8425 0.0267361
16.8525 0.026421
16.8625 0.0260535
16.8725 0.0256382
16.8825 0.0251786
16.8925 0.0246783
16.9025 0.0241421
16.9125 0.0235736
16.9225 0.0229755
16.9325 0.0223566
16.9425 0.0217219
16.9525 0.0210796
16.9625 0.0204385
16.9725 0.0198063
16.9825 0.0191911
16.9925 0.0185977
17.0025 0.0180276
17.0125 0.0174788
17.0225 0.0169466
17.0325 0.0164253
17.0425 0.0159089
17.0525 0.0153917
17.0625 0.0148685
17.0725 0.0143358
17.0825 0.0137922
17.0925 0.0132393
17.1025 0.0126815
17.1125 0.0121308
17.1225 0.0115873
17.1325 0.0110508
17.1425 0.0105319
17.1525 0.0100322
17.1625 0.00955411
17.1725 0.00910191
17.1825 0.00867714
17.1925 0.00828251
17.2025 0.00792266
17.2125 0.00760249
17.2225 0.00732346
17.2325 0.00709032
17.2425 0.00690517
17.2525 0.00676927
17.2625 0.00668286
17.2725 0.00664527
17.2825 0.00665572
17.2925 0.00671267
17.3025 0.00681353
17.3125 0.00695539
17.3225 0.00713453
17.3325 0.00734547
17.3425 0.00758295
17.3525 0.00784254
17.3625 0.00812083
17.3725 0.00841541
17.3825 0.00872425
17.3925 0.00904501
17.4025 0.0093749
17.4125 0.00971093
17.4225 0.0100503
17.4325 0.010391
17.4425 0.0107316
17.4525 0.0110709
17.4625 0.0114084
17.4725 0.0117436
17.4825 0.0120765
17.4925 0.0124077
17.5025 0.0127392
17.5125 0.0130732
17.5225 0.0134084
17.5325 0.0137454
17.5425 0.0140845
17.5525 0.0144251
17.5625 0.0147668
17.5725 0.0151096
17.5825 0.0154532
17.5925 0.0157973
17.6025 0.0161409
17.6125 0.0164825
17.6225 0.0168201
17.6325 0.0171516
17.6425 0.0174743
17.6525 0.0177857
17.6625 0.0180835
17.6725 0.0183652
17.6825 0.0186289
17.6925 0.0188723
17.7025 0.0190929
17.7125 0.0192879
17.7225 0.0194545
17.7325 0.0195895
17.7425 0.019695
17.7525 0.0197713
17.7625 0.019818
17.7725 0.0198338
17.7825 0.0198165
17.7925 0.0197636
17.8025 0.0196728
17.8125 0.0195428
17.8225 0.0193725
17.8325 0.0191604
17.8425 0.0189058
17.8525 0.0186084
17.8625 0.0182687
17.8725 0.0178875
17.8825 0.0174682
17.8925 0.017017
17.9025 0.0165428
17.9125 0.0160554
17.9225 0.0155642
17.9325 0.0150772
17.9425 0.014601
17.9525 0.0141394
17.9625 0.0136949
17.9725 0.013269
17.9825 0.0128633
17.9925 0.0124798
18.0025 0.0121198
18.0125 0.0117846
18.0225 0.0114747
18.0325 0.0111905
18.0425 0.010932
18.0525 0.0106994
18.0625 0.0104935
18.0725 0.0103149
18.0825 0.0101638
18.0925 0.0100395
18.1025 0.00994068
18.1125 0.00986472
18.1225 0.00980869
18.1325 0.00976908
18.1425 0.00974137
18.1525 0.00971981
18.1625 0.00969754
18.1725 0.00966729
18.1825 0.00962298
18.1925 0.00956088
18.2025 0.00947992
18.2125 0.0093815
18.2225 0.0092689
18.2325 0.00914646
18.2425 0.00901922
18.2525 0.00889284
18.2625 0.00877139
18.2725 0.00865981
18.2825 0.00856261
18.2925 0.00848508
18.3025 0.00843228
18.3125 0.0084088
18.3225 0.0084187
18.3325 0.00846483
18.3425 0.00854914
18.3525 0.00867224
18.3625 0.00883337
18.3725 0.009031
18.3825 0.00926251
18.3925 0.00952425
18.4025 0.00981143
18.4125 0.0101183
18.4225 0.0104387
18.4325 0.0107672
18.4425 0.0110988
18.4525 0.011428
18.4625 0.01175
18.4725 0.0120606
18.4825 0.0123578
18.4925 0.0126409
18.5025 0.0129096
18.5125 0.0131644
18.5225 0.0134055
18.5325 0.0136335
18.5425 0.0138483
18.5525 0.0140496
18.5625 0.0142362
18.5725 0.0144067
18.5825 0.0145587
18.5925 0.0146903
18.6025 0.0147999
18.6125 0.0148869
18.6225 0.0149519
18.6325 0.014996
18.6425 0.0150209
18.6525 0.0150279
18.6625 0.0150185
18.6725 0.0149943
18.6825 0.0149586
18.6925 0.0149158
18.7025 0.014871
18.7125 0.0148291
18.7225 0.0147939
18.7325 0.0147679
18.7425 0.014752
18.7525 0.0147441
18.7625 0.0147404
18.7725 0.0147356
18.7825 0.0147251
18.7925 0.0147041
18.8025 0.0146684
18.8125 0.014614
18.8225 0.0145379
18.8325 0.0144387
18.8425 0.0143166
18.8525 0.0141739
18.8625 0.0140145
18.8725 0.0138433
18.8825 0.013666
18.8925 0.0134881
18.9025 0.0133138
18.9125 0.0131456
18.9225 0.0129865
18.9325 0.0128397
18.9425 0.0127096
18.9525 0.0126008
18.9625 0.0125177
18.9725 0.0124636
18.9825 0.0124406
18.9925 0.0124498
19.0025 0.0124907
19.0125 0.012562
19.0225 0.0126616
19.0325 0.0127869
19.0425 0.012936
19.0525 0.0131059
19.0625 0.0132917
19.0725 0.0134871
19.0825 0.0136849
19.0925 0.0138792
19.1025 0.0140652
19.1125 0.0142399
19.1225 0.0144026
19.1325 0.0145538
19.1425 0.014695
19.1525 0.0148278
19.1625 0.0149532
19.1725 0.0150718
19.1825 0.0151838
19.1925 0.0152892
19.2025 0.0153872
19.2125 0.0154817
19.2225 0.0155767
19.2325 0.0156648
19.2425 0.0157479
19.2525 0.0158296
19.2625 0.0159105
19.2725 0.0159897
19.2825 0.0160691
19.2925 0.0161499
19.3025 0.0162319
19.3125 0.0163165
19.3225 0.0164054
19.3325 0.0164989
19.3425 0.0165974
19.3525 0.0167
19.3625 0.016804
19.3725 0.0169053
19.3825 0.0170005
19.3925 0.0170869
19.4025 0.0171622
19.4125 0.017224
19.4225 0.0172704
19.4325 0.0173002
19.4425 0.0173122
19.4525 0.0173057
19.4625 0.0172806
19.4725 0.0172365
19.4825 0.0171734
19.4925 0.0170921
19.5025 0.0169911
19.5125 0.0168765
19.5225 0.0167493
19.5325 0.01661
19.5425 0.0164597
19.5525 0.0163002
19.5625 0.0161334
19.5725 0.0159621
19.5825 0.0157886
19.5925 0.0156137
19.6025 0.0154378
19.6125 0.0152613
19.6225 0.0150847
19.6325 0.0149089
19.6425 0.0147342
19.6525 0.0145611
19.6625 0.0143896
19.6725 0.0142189
19.6825 0.0140482
19.6925 0.0138766
19.7025 0.0137032
19.7125 0.013527
19.7225 0.0133475
19.7325 0.0131645
19.7425 0.0129786
19.7525 0.012791
19.7625 0.0126032
19.7725 0.0124161
19.7825 0.0122301
19.7925 0.0120445
19.8025 0.0118575
19.8125 0.0116661
19.8225 0.0114671
19.8325 0.0112572
19.8425 0.011035
19.8525 0.0108006
19.8625 0.0105558
19.8725 0.0103032
19.8825 0.0100461
19.8925 0.00978887
19.9025 0.00953643
19.9125 0.00929385
19.9225 0.00906553
19.9325 0.00885508
19.9425 0.00866585
19.9525 0.00850127
19.9625 0.00836468
19.9725 0.00825856
19.9825 0.00818386
19.9925 0.00814014
20.0025 0.0081257
20.0125 0.00813739
20.0225 0.00817029
20.0325 0.00821808
20.0425 0.00827382
20.0525 0.00833043
20.0625 0.00838155
20.0725 0.00842192
20.0825 0.00844758
20.0925 0.00845561
20.1025 0.00844381
20.1125 0.00841052
20.1225 0.00835486
20.1325 0.00827692
20.1425 0.00817766
20.1525 0.00805808
20.1625 0.00791867
20.1725 0.00775963
20.1825 0.00758214
20.1925 0.00738929
20.2025 0.0071855
20.2125 0.00697466
20.2225 0.00675877
20.2325 0.00653802
20.2425 0.00631177
20.2525 0.0060794
20.2625 0.00584073
20.2725 0.00559624
20.2825 0.00534699
20.2925 0.00509473
20.3025 0.00484212
20.3125 0.00459251
20.3225 0.00434935
20.3325 0.00411551
20.3425 0.00389307
20.3525 0.00368356
20.3625 0.00348844
20.3725 0.00330935
20.3825 0.00314776
20.3925 0.00300467
20.4025 0.00287975
20.4125 0.00277092
20.4225 0.00267482
20.4325 0.00258768
20.4425 0.00250598
20.4525 0.0024263
20.4625 0.00234579
20.4725 0.00226229
20.4825 0.00217434
20.4925 0.00208123
20.5025 0.00198292
20.5125 0.00188014
20.5225 0.00177401
20.5325 0.0016658
20.5425 0.00155678
20.5525 0.00144817
20.5625 0.00134113
20.5725 0.0012369
20.5825 0.00113632
20.5925 0.00104006
20.6025 0.000949401
20.6125 0.000865936
20.6225 0.000791511
20.6325 0.000727809
20.6425 0.000675736
20.6525 0.000635145
20.6625 0.000605081
20.6725 0.000584289
20.6825 0.000571858
20.6925 0.00056773
20.7025 0.000573001
20.7125 0.00058985
20.7225 0.000621011
20.7325 0.000669232
20.7425 0.000736926
20.7525 0.000825842
20.7625 0.000936838
20.7725 0.00106995
20.7825 0.00122456
20.7925 0.00139945
20.8025 0.00159321
20.8125 0.00180461
20.8225 0.0020329
20.8325 0.00227755
20.8425 0.00253765
20.8525 0.0028117
20.8625 0.0030977
20.8725 0.00339231
20.8825 0.00369334
20.8925 0.00399933
20.9025 0.00430898
20.9125 0.00462101
20.9225 0.00493339
20.9325 0.0052431
20.9425 0.00554706
20.9525 0.00584184
20.9625 0.00612386
20.9725 0.0063897
20.9825 0.00663634
20.9925 0.00686153
21.0025 0.00706348
21.0125 0.007241
21.0225 0.00739397
21.0325 0.00752357
21.0425 0.00763209
21.0525 0.00772246
21.0625 0.00779809
21.0725 0.00786268
21.0825 0.00792024
21.0925 0.00797485
21.1025 0.00803079
21.1125 0.00809652
21.1225 0.00817939
21.1325 0.00827242
21.1425 0.00838496
21.1525 0.0085207
21.1625 0.00868066
21.1725 0.00886744
21.1825 0.00907966
21.1925 0.00931414
21.2025 0.00956689
21.2125 0.00983297
21.2225 0.0101077
21.2325 0.0103844
21.2425 0.0106593
21.2525 0.0109288
21.2625 0.0111859
21.2725 0.0114269
21.2825 0.0116539
21.2925 0.0118666
21.3025 0.0120645
21.3125 0.0122439
21.3225 0.0124068
21.3325 0.0125557
21.3425 0.0126914
21.3525 0.0128143
21.3625 0.0129255
21.3725 0.013025
21.3825 0.0131117
21.3925 0.0131849
21.4025 0.0132448
21.4125 0.0132916
21.4225 0.0133253
21.4325 0.013346
21.4425 0.0133545
21.4525 0.0133483
21.4625 0.0133266
21.4725 0.0132893
21.4825 0.0132368
21.4925 0.013169
21.5025 0.0130867
21.5125 0.0129915
21.5225 0.0128848
21.5325 0.0127682
21.5425 0.0126434
21.5525 0.0125117
21.5625 0.0123745
21.5725 0.0122332
21.5825 0.0120896
21.5925 0.0119468
21.6025 0.0118087
21.6125 0.0116793
21.6225 0.0115627
21.6325 0.0114626
21.6425 0.0113815
21.6525 0.0113209
21.6625 0.0112817
21.6725 0.0112645
21.6825 0.011267
21.6925 0.0112927
21.7025 0.0113421
21.7125 0.0114135
21.7225 0.0115031
21.7325 0.0116083
21.7425 0.0117279
21.7525 0.0118609
21.7625 0.012008
21.7725 0.0121707
21.7825 0.0123491
21.7925 0.012542
21.8025 0.0127465
21.8125 0.0129585
21.8225 0.0131732
21.8325 0.0133908
21.8425 0.0136076
21.8525 0.0138192
21.8625 0.0140214
21.8725 0.0142114
21.8825 0.0143876
21.8925 0.0145541
21.9025 0.0147141
21.9125 0.0148597
21.9225 0.0149987
21.9325 0.0151334
21.9425 0.0152661
21.9525 0.0154021
21.9625 0.0155424
21.9725 0.0156885
21.9825 0.0158426
21.9925 0.016005
22.0025 0.0161767
22.0125 0.0163595
22.0225 0.016555
22.0325 0.0167654
22.0425 0.0169939
22.0525 0.0172411
22.0625 0.017503
22.0725 0.0177786
22.0825 0.0180648
22.0925 0.018357
22.1025 0.0186516
22.1125 0.0189458
22.1225 0.0192337
22.1325 0.0195147
22.1425 0.0197956
22.1525 0.0200759
22.1625 0.0203574
22.1725 0.0206435
22.1825 0.0209363
22.1925 0.0212365
22.2025 0.0215435
22.2125 0.021856
22.2225 0.0221715
22.2325 0.0224882
22.2425 0.0228055
22.2525 0.0231216
22.2625 0.023431
22.2725 0.0237336
22.2825 0.0240282
22.2925 0.0243108
22.3025 0.0245793
22.3125 0.0248313
22.3225 0.0250649
22.3325 0.0252775
22.3425 0.0254661
22.3525 0.0256292
22.3625 0.025766
22.3725 0.0258758
22.3825 0.0259583
22.3925 0.0260131
22.4025 0.0260401
22.4125 0.0260391
22.4225 0.0260099
22.4325 0.0259536
22.4425 0.0258722
22.4525 0.025766
22.4625 0.0256311
22.4725 0.0254694
22.4825 0.025281
22.4925 0.0250679
22.5025 0.0248321
22.5125 0.0245761
22.5225 0.0243053
22.5325 0.0240244
22.5425 0.0237379
22.5525 0.0234508
22.5625 0.0231686
22.5725 0.0228954
22.5825 0.0226345
22.5925 0.022389
22.6025 0.0221608
22.6125 0.0219512
22.6225 0.0217597
22.6325 0.0215866
22.6425 0.0214316
22.6525 0.0212937
22.6625 0.0211715
22.6725 0.0210629
22.6825 0.0209627
22.6925 0.0208631
22.7025 0.0207679
22.7125 0.02067
22.7225 0.0205672
22.7325 0.0204555
22.7425 0.0203343
22.7525 0.0202031
22.7625 0.0200622
22.7725 0.0199123
22.7825 0.0197543
22.7925 0.0195881
22.8025 0.0194137
22.8125 0.0192318
22.8225 0.0190438
22.8325 0.0188521
22.8425 0.0186614
22.8525 0.0184739
22.8625 0.0182928
22.8725 0.0181224
22.8825 0.0179673
22.8925 0.0178311
22.9025 0.0177171
22.9125 0.0176291
22.9225 0.0175704
22.9325 0.017545
22.9425 0.0175565
22.9525 0.0176065
22.9625 0.0176977
22.9725 0.0178372
22.9825 0.0180207
22.9925 0.0182453
23.0025 0.018513
23.0125 0.0188195
23.0225 0.0191624
23.0325 0.0195391
23.0425 0.0199459
23.0525 0.0203797
23.0625 0.0208397
23.0725 0.0213233
23.0825 0.0218229
23.0925 0.0223386
23.1025 0.0228667
23.1125 0.0234016
23.1225 0.0239396
23.1325 0.0244776
23.1425 0.0250109
23.1525 0.0255349
23.1625 0.0260446
23.1725 0.026529
23.1825 0.0269853
23.1925 0.0274199
23.2025 0.0278285
23.2125 0.028208
23.2225 0.0285599
23.2325 0.0288875
23.2425 0.0291898
23.2525 0.0294668
23.2625 0.0297212
23.2725 0.0299545
23.2825 0.0301669
23.2925 0.0303587
23.3025 0.0305303
23.3125 0.0306823
23.3225 0.0308154
23.3325 0.0309321
23.3425 0.0310347
23.3525 0.0311258
23.3625 0.0312075
23.3725 0.0312821
23.3825 0.0313519
23.3925 0.0314193
23.4025 0.0314863
23.4125 0.0315542
23.4225 0.0316233
23.4325 0.0316934
23.4425 0.0317617
23.4525 0.0318275
23.4625 0.031893
23.4725 0.0319523
23.4825 0.0320028
23.4925 0.032044
23.5025 0.0320744
23.5125 0.032089
23.5225 0.0320874
23.5325 0.0320705
23.5425 0.0320369
23.5525 0.0319859
23.5625 0.031918
23.5725 0.0318321
23.5825 0.0317284
23.5925 0.0316054
23.6025 0.0314623
23.6125 0.0312983
23.6225 0.031113
23.6325 0.0309064
23.6425 0.0306784
23.6525 0.0304294
23.6625 0.0301596
23.6725 0.0298694
23.6825 0.0295587
23.6925 0.0292277
23.7025 0.0288762
23.7125 0.0285047
23.7225 0.0281147
23.7325 0.0277087
23.7425 0.0272905
23.7525 0.0268652
23.7625 0.0264383
23.7725 0.0260151
23.7825 0.0256002
23.7925 0.0251971
23.8025 0.0248086
23.8125 0.0244377
23.8225 0.0240872
23.8325 0.0237601
23.8425 0.0234589
23.8525 0.0231854
23.8625 0.0229408
23.8725 0.022722
23.8825 0.0225283
23.8925 0.0223648
23.9025 0.0222275
23.9125 0.0221164
23.9225 0.0220294
23.9325 0.0219663
23.9425 0.0219261
23.9525 0.0219089
23.9625 0.021915
23.9725 0.0219448
23.9825 0.0219982
23.9925 0.0220757
24.0025 0.0221773
24.0125 0.0223016
24.0225 0.0224472
24.0325 0.0226124
24.0425 0.0227966
24.0525 0.0229993
24.0625 0.0232203
24.0725 0.023458
24.0825 0.0237102
24.0925 0.0239758
24.1025 0.0242528
24.1125 0.0245291
24.1225 0.0248024
24.1325 0.0250697
24.1425 0.0253283
24.1525 0.0255762
24.1625 0.0258139
24.1725 0.0260422
24.1825 0.0262616
24.1925 0.0264728
24.2025 0.0266768
24.2125 0.026874
24.2225 0.0270657
24.2325 0.0272541
24.2425 0.0274432
24.2525 0.0276382
24.2625 0.0278448
24.2725 0.0280677
24.2825 0.0283108
24.2925 0.028576
24.3025 0.0288646
24.3125 0.0291772
24.3225 0.0295149
24.3325 0.0298781
24.3425 0.0302664
24.3525 0.0306777
24.3625 0.0311085
24.3725 0.0315532
24.3825 0.0319983
24.3925 0.0324435
24.4025 0.0328844
24.4125 0.0333155
24.4225 0.0337306
24.4325 0.0341254
24.4425 0.0344963
24.4525 0.0348394
24.4625 0.0351513
24.4725 0.0354289
24.4825 0.0356694
24.4925 0.0358703
24.5025 0.0360298
24.5125 0.0361468
24.5225 0.0362218
24.5325 0.0362567
24.5425 0.0362562
24.5525 0.0362181
24.5625 0.0361434
24.5725 0.0360329
24.5825 0.0358852
24.5925 0.0357032
24.6025 0.0354882
24.6125 0.0352411
24.6225 0.034972
24.6325 0.0346828
24.6425 0.0343736
24.6525 0.0340509
24.6625 0.0337215
24.6725 0.0333884
24.6825 0.0330535
24.6925 0.0327221
24.7025 0.0323972
24.7125 0.0320805
24.7225 0.0317739
24.7325 0.0314795
24.7425 0.0311996
24.7525 0.0309359
24.7625 0.0306898
24.7725 0.0304621
24.7825 0.0302527
24.7925 0.0300617
24.8025 0.029888
24.8125 0.0297305
24.8225 0.0295873
24.8325 0.0294565
24.8425 0.029336
24.8525 0.0292234
24.8625 0.0291164
24.8725 0.0290105
24.8825 0.0289012
24.8925 0.0287931
24.9025 0.0286817
24.9125 0.0285659
24.9225 0.0284437
24.9325 0.0283147
24.9425 0.0281781
24.9525 0.0280328
24.9625 0.0278793
24.9725 0.0277169
24.9825 0.0275452
24.9925 0.0273644
25.0025 0.0271755
25.0125 0.0269802
25.0225 0.0267799
25.0325 0.0265767
25.0425 0.0263728
25.0525 0.0261703
25.0625 0.0259715
25.0725 0.0257788
25.0825 0.0255943
25.0925 0.0254206
25.1025 0.02526
25.1125 0.0251156
25.1225 0.0249905
25.1325 0.0248864
25.1425 0.0248048
25.1525 0.0247453
25.1625 0.024707
25.1725 0.0246873
25.1825 0.0246831
25.1925 0.024691
25.2025 0.0247078
25.2125 0.0247302
25.2225 0.024755
25.2325 0.0247807
25.2425 0.0248074
25.2525 0.0248323
25.2625 0.0248598
25.2725 0.0248905
25.2825 0.0249257
25.2925 0.0249675
25.3025 0.0250163
25.3125 0.0250715
25.3225 0.0251331
25.3325 0.0252008
25.3425 0.0252736
25.3525 0.0253506
25.3625 0.0254305
25.3725 0.0255121
25.3825 0.025594
25.3925 0.025675
25.4025 0.0257538
25.4125 0.0258287
25.4225 0.0258982
25.4325 0.025961
25.4425 0.026016
25.4525 0.0260624
25.4625 0.0260997
25.4725 0.0261274
25.4825 0.0261454
25.4925 0.0261536
25.5025 0.0261523
25.5125 0.0261416
25.5225 0.0261216
25.5325 0.0260925
25.5425 0.0260542
25.5525 0.0260065
25.5625 0.0259497
25.5725 0.0258839
25.5825 0.0258093
25.5925 0.0257264
25.6025 0.0256354
25.6125 0.0255365
25.6225 0.0254312
25.6325 0.0253201
25.6425 0.0252043
25.6525 0.0250844
25.6625 0.0249613
25.6725 0.0248356
25.6825 0.0247077
25.6925 0.0245779
25.7025 0.0244465
25.7125 0.0243135
25.7225 0.0241791
25.7325 0.0240429
25.7425 0.0239047
25.7525 0.0237641
25.7625 0.0236207
25.7725 0.0234738
25.7825 0.0233227
25.7925 0.0231668
25.8025 0.0230054
25.8125 0.0228375
25.8225 0.0226627
25.8325 0.0224802
25.8425 0.0222898
25.8525 0.0220907
25.8625 0.0218827
25.8725 0.0216658
25.8825 0.0214398
25.8925 0.021205
25.9025 0.020961
25.9125 0.0207092
25.9225 0.0204499
25.9325 0.0201842
25.9425 0.0199133
25.9525 0.0196383
25.9625 0.0193606
25.9725 0.0190814
25.9825 0.018802
25.9925 0.0185237
26.0025 0.018248
26.0125 0.0179761
26.0225 0.0177096
26.0325 0.01745
26.0425 0.0171984
26.0525 0.0169563
26.0625 0.0167247
26.0725 0.0165048
26.0825 0.0162977
26.0925 0.016105
26.1025 0.0159255
26.1125 0.0157597
26.1225 0.0156082
26.1325 0.0154706
26.1425 0.0153471
26.1525 0.0152372
26.1625 0.0151404
26.1725 0.0150562
26.1825 0.0149839
26.1925 0.0149221
26.2025 0.0148701
26.2125 0.014827
26.2225 0.0147938
26.2325 0.0147665
26.2425 0.0147437
26.2525 0.0147267
26.2625 0.0147137
26.2725 0.0147028
26.2825 0.0146939
26.2925 0.0146863
26.3025 0.0146787
26.3125 0.0146706
26.3225 0.0146616
26.3325 0.0146513
26.3425 0.0146391
26.3525 0.0146251
26.3625 0.0146092
26.3725 0.0145915
26.3825 0.0145722
26.3925 0.0145517
26.4025 0.0145302
26.4125 0.0145085
26.4225 0.0144868
26.4325 0.0144658
26.4425 0.0144464
26.4525 0.0144291
26.4625 0.0144149
26.4725 0.0144044
26.4825 0.0143983
26.4925 0.0143973
26.5025 0.0144019
26.5125 0.0144126
26.5225 0.0144297
26.5325 0.0144536
26.5425 0.0144844
26.5525 0.0145221
26.5625 0.0145665
26.5725 0.0146174
26.5825 0.0146743
26.5925 0.0147369
26.6025 0.0148044
26.6125 0.014876
26.6225 0.0149495
26.6325 0.0150253
26.6425 0.0151028
26.6525 0.0151806
26.6625 0.0152579
26.6725 0.0153338
26.6825 0.0154073
26.6925 0.015477
26.7025 0.0155421
26.7125 0.0156015
26.7225 0.0156544
26.7325 0.0156999
26.7425 0.0157373
26.7525 0.015766
26.7625 0.0157855
26.7725 0.0157955
26.7825 0.0157958
26.7925 0.0157864
26.8025 0.0157672
26.8125 0.0157388
26.8225 0.0157017
26.8325 0.0156568
26.8425 0.0156051
26.8525 0.0155479
26.8625 0.0154863
26.8725 0.0154214
26.8825 0.0153541
26.8925 0.0152857
26.9025 0.0152172
26.9125 0.0151498
26.9225 0.0150846
26.9325 0.0150226
26.9425 0.0149649
26.9525 0.0149123
26.9625 0.0148656
26.9725 0.0148256
26.9825 0.0147928
26.9925 0.0147678
27.0025 0.0147509
27.0125 0.0147424
27.0225 0.0147425
27.0325 0.0147512
27.0425 0.0147686
27.0525 0.0147943
27.0625 0.014828
27.0725 0.0148694
27.0825 0.0149178
27.0925 0.0149727
27.1025 0.0150334
27.1125 0.0150992
27.1225 0.0151692
27.1325 0.0152427
27.1425 0.0153189
27.1525 0.015397
27.1625 0.0154764
27.1725 0.0155562
27.1825 0.0156359
27.1925 0.015715
27.2025 0.015793
27.2125 0.0158694
27.2225 0.0159442
27.2325 0.0160171
27.2425 0.016088
27.2525 0.0161572
27.2625 0.0162247
27.2725 0.0162907
27.2825 0.0163558
27.2925 0.0164203
27.3025 0.0164849
27.3125 0.01655
27.3225 0.0166165
27.3325 0.0166848
27.3425 0.0167557
27.3525 0.0168299
27.3625 0.0169078
27.3725 0.0169901
27.3825 0.0170771
27.3925 0.0171694
27.4025 0.0172671
27.4125 0.0173705
27.4225 0.0174798
27.4325 0.017595
27.4425 0.017716
27.4525 0.0178425
27.4625 0.0179743
27.4725 0.018111
27.4825 0.0182519
27.4925 0.0183963
27.5025 0.0185436
27.5125 0.018693
27.5225 0.0188437
27.5325 0.0189948
27.5425 0.0191455
27.5525 0.0192948
27.5625 0.0194418
27.5725 0.0195857
27.5825 0.0197256
27.5925 0.0198608
27.6025 0.0199904
27.6125 0.0201139
27.6225 0.0202307
27.6325 0.0203403
27.6425 0.0204423
27.6525 0.0205373
27.6625 0.0206267
27.6725 0.0207071
27.6825 0.0207798
27.6925 0.020845
27.7025 0.0209026
27.7125 0.020953
27.7225 0.0209966
27.7325 0.0210338
27.7425 0.0210653
27.7525 0.0210915
27.7625 0.021113
27.7725 0.0211306
27.7825 0.0211448
27.7925 0.0211563
27.8025 0.021165
27.8125 0.0211708
27.8225 0.0211767
27.8325 0.0211818
27.8425 0.0211858
27.8525 0.0211899
27.8625 0.0211941
27.8725 0.0211984
27.8825 0.0212029
27.8925 0.0212079
27.9025 0.0212136
27.9125 0.0212195
27.9225 0.0212255
27.9325 0.0212317
27.9425 0.021238
27.9525 0.0212441
27.9625 0.0212498
27.9725 0.0212547
27.9825 0.0212586
27.9925 0.021261
28.0025 0.0212617
28.0125 0.0212602
28.0225 0.0212561
28.0325 0.0212492
28.0425 0.0212392
28.0525 0.0212257
28.0625 0.0212084
28.0725 0.0211873
28.0825 0.0211621
28.0925 0.0211328
28.1025 0.0210994
28.1125 0.0210619
28.1225 0.0210205
28.1325 0.0209752
28.1425 0.0209264
28.1525 0.0208744
28.1625 0.0208194
28.1725 0.020762
28.1825 0.0207025
28.1925 0.0206414
28.2025 0.0205793
28.2125 0.0205166
28.2225 0.020454
28.2325 0.020392
28.2425 0.0203311
28.2525 0.020272
28.2625 0.0202151
28.2725 0.0201608
28.2825 0.0201098
28.2925 0.0200624
28.3025 0.0200189
28.3125 0.0199796
28.3225 0.0199449
28.3325 0.0199148
28.3425 0.0198896
28.3525 0.0198692
28.3625 0.0198533
28.3725 0.0198414
28.3825 0.0198342
28.3925 0.0198309
28.4025 0.0198313
28.4125 0.0198351
28.4225 0.0198418
28.4325 0.0198511
28.4425 0.0198625
28.4525 0.0198754
28.4625 0.0198902
28.4725 0.0199056
28.4825 0.0199209
28.4925 0.0199364
28.5025 0.0199515
28.5125 0.0199656
28.5225 0.0199786
28.5325 0.0199901
28.5425 0.02
28.5525 0.020008
28.5625 0.0200139
28.5725 0.0200176
28.5825 0.0200191
28.5925 0.0200183
28.6025 0.0200152
28.6125 0.02001
28.6225 0.0200026
28.6325 0.0199933
28.6425 0.0199823
28.6525 0.0199697
28.6625 0.0199557
28.6725 0.0199407
28.6825 0.0199249
28.6925 0.0199084
28.7025 0.0198917
28.7125 0.0198749
28.7225 0.0198582
28.7325 0.0198418
28.7425 0.019826
28.7525 0.0198108
28.7625 0.0197964
28.7725 0.0197828
28.7825 0.01977
28.7925 0.019758
28.8025 0.0197467
28.8125 0.019736
28.8225 0.0197258
28.8325 0.0197158
28.8425 0.0197058
28.8525 0.0196956
28.8625 0.0196847
28.8725 0.019673
28.8825 0.01966
28.8925 0.0196453
28.9025 0.0196287
28.9125 0.0196097
28.9225 0.019588
28.9325 0.0195633
28.9425 0.0195352
28.9525 0.0195034
28.9625 0.0194677
28.9725 0.0194278
28.9825 0.0193837
28.9925 0.019335
29.0025 0.0192819
29.0125 0.0192242
29.0225 0.0191619
29.0325 0.0190952
29.0425 0.0190242
29.0525 0.018949
29.0625 0.01887
29.0725 0.0187873
29.0825 0.0187013
29.0925 0.0186124
29.1025 0.018521
29.1125 0.0184276
29.1225 0.0183327
29.1325 0.0182367
29.1425 0.0181401
29.1525 0.0180434
29.1625 0.0179471
29.1725 0.0178517
29.1825 0.0177575
29.1925 0.0176649
29.2025 0.0175743
29.2125 0.017486
29.2225 0.0174001
29.2325 0.0173168
29.2425 0.0172362
29.2525 0.0171584
29.2625 0.0170833
29.2725 0.017011
29.2825 0.0169413
29.2925 0.016874
29.3025 0.0168091
29.3125 0.0167464
29.3225 0.0166855
29.3325 0.0166265
29.3425 0.0165691
29.3525 0.0165131
29.3625 0.0164587
29.3725 0.0164053
29.3825 0.0163527
29.3925 0.0163012
29.4025 0.0162505
29.4125 0.0162004
29.4225 0.0161512
29.4325 0.0161027
29.4425 0.016055
29.4525 0.0160082
29.4625 0.0159622
29.4725 0.0159173
29.4825 0.0158735
29.4925 0.0158311
29.5025 0.01579
29.5125 0.0157506
29.5225 0.0157131
29.5325 0.0156775
29.5425 0.015644
29.5525 0.0156129
29.5625 0.0155843
29.5725 0.0155582
29.5825 0.0155347
29.5925 0.015514
29.6025 0.0154964
29.6125 0.0154814
29.6225 0.0154694
29.6325 0.0154602
29.6425 0.0154538
29.6525 0.01545
29.6625 0.0154487
29.6725 0.0154499
29.6825 0.0154532
29.6925 0.0154585
29.7025 0.0154656
29.7125 0.0154741
29.7225 0.015484
29.7325 0.0154948
29.7425 0.0155062
29.7525 0.0155181
29.7625 0.0155301
29.7725 0.015542
29.7825 0.0155534
29.7925 0.0155641
29.8025 0.0155738
29.8125 0.0155824
29.8225 0.0155896
29.8325 0.0155952
29.8425 0.0155992
29.8525 0.0156013
29.8625 0.0156015
29.8725 0.0155997
29.8825 0.015596
29.8925 0.0155902
29.9025 0.0155824
29.9125 0.0155727
29.9225 0.0155612
29.9325 0.015548
29.9425 0.0155331
29.9525 0.0155168
29.9625 0.0154993
29.9725 0.0154805
29.9825 0.0154609
29.9925 0.0154405
30.0025 0.0154195
30.0125 0.0153982
30.0225 0.0153767
30.0325 0.0153553
30.0425 0.0153341
30.0525 0.0153132
30.0625 0.0152929
30.0725 0.0152733
30.0825 0.0152544
30.0925 0.0152364
30.1025 0.0152193
30.1125 0.0152031
30.1225 0.0151879
30.1325 0.0151737
30.1425 0.0151604
30.1525 0.0151479
30.1625 0.0151363
30.1725 0.0151253
30.1825 0.015115
30.1925 0.0151053
30.2025 0.015096
30.2125 0.0150871
30.2225 0.0150786
30.2325 0.0150704
30.2425 0.0150624
30.2525 0.0150548
30.2625 0.0150474
30.2725 0.0150404
30.2825 0.0150336
30.2925 0.0150273
30.3025 0.0150215
30.3125 0.0150164
30.3225 0.015012
30.3325 0.0150086
30.3425 0.0150063
30.3525 0.0150052
30.3625 0.0150057
30.3725 0.0150078
30.3825 0.0150118
30.3925 0.0150178
30.4025 0.0150259
30.4125 0.0150365
30.4225 0.0150496
30.4325 0.0150653
30.4425 0.0150837
30.4525 0.0151049
30.4625 0.015129
30.4725 0.0151559
30.4825 0.0151856
30.4925 0.0152181
30.5025 0.0152533
30.5125 0.0152911
30.5225 0.0153312
30.5325 0.0153735
30.5425 0.0154178
30.5525 0.0154638
30.5625 0.0155114
30.5725 0.0155602
30.5825 0.01561
30.5925 0.0156606
30.6025 0.0157115
30.6125 0.0157625
30.6225 0.0158134
30.6325 0.0158639
30.6425 0.0159138
30.6525 0.0159627
30.6625 0.0160105
30.6725 0.016057
30.6825 0.0161021
30.6925 0.0161456
30.7025 0.0161873
30.7125 0.0162273
30.7225 0.0162655
30.7325 0.0163017
30.7425 0.0163362
30.7525 0.0163688
30.7625 0.0163998
30.7725 0.016429
30.7825 0.0164567
30.7925 0.0164829
30.8025 0.0165077
30.8125 0.0165312
30.8225 0.0165536
30.8325 0.016575
30.8425 0.0165954
30.8525 0.0166151
30.8625 0.0166341
30.8725 0.0166524
30.8825 0.0166702
30.8925 0.0166875
30.9025 0.0167044
30.9125 0.0167209
30.9225 0.016737
30.9325 0.0167526
30.9425 0.0167678
30.9525 0.0167826
30.9625 0.0167968
30.9725 0.0168105
30.9825 0.0168236
30.9925 0.016836
31.0025 0.0168477
31.0125 0.0168587
31.0225 0.0168688
31.0325 0.016878
31.0425 0.0168863
31.0525 0.0168935
31.0625 0.0168997
31.0725 0.0169048
31.0825 0.0169089
31.0925 0.0169119
31.1025 0.0169139
31.1125 0.0169148
31.1225 0.0169147
31.1325 0.0169138
31.1425 0.016912
31.1525 0.0169094
31.1625 0.0169062
31.1725 0.0169024
31.1825 0.0168982
31.1925 0.0168937
31.2025 0.016889
31.2125 0.0168842
31.2225 0.0168794
31.2325 0.0168748
31.2425 0.0168705
31.2525 0.0168666
31.2625 0.0168631
31.2725 0.0168603
31.2825 0.0168581
31.2925 0.0168566
31.3025 0.0168558
31.3125 0.0168559
31.3225 0.0168568
31.3325 0.0168585
31.3425 0.0168611
31.3525 0.0168644
31.3625 0.0168684
31.3725 0.0168732
31.3825 0.0168786
31.3925 0.0168844
31.4025 0.0168907
31.4125 0.0168973
31.4225 0.0169041
31.4325 0.0169111
31.4425 0.0169181
31.4525 0.016925
31.4625 0.0169317
31.4725 0.0169382
31.4825 0.0169443
31.4925 0.01695
31.5025 0.0169552
31.5125 0.0169598
31.5225 0.0169637
31.5325 0.0169669
31.5425 0.0169693
31.5525 0.016971
31.5625 0.0169718
31.5725 0.0169718
31.5825 0.016971
31.5925 0.0169694
31.6025 0.016967
31.6125 0.0169638
31.6225 0.0169599
31.6325 0.0169552
31.6425 0.0169499
31.6525 0.0169439
31.6625 0.0169373
31.6725 0.0169302
31.6825 0.0169225
31.6925 0.0169144
31.7025 0.0169058
31.7125 0.0168967
31.7225 0.0168873
31.7325 0.0168773
31.7425 0.016867
31.7525 0.0168562
31.7625 0.016845
31.7725 0.0168332
31.7825 0.0168209
31.7925 0.0168081
31.8025 0.0167946
31.8125 0.0167804
31.8225 0.0167654
31.8325 0.0167497
31.8425 0.016733
31.8525 0.0167154
31.8625 0.0166968
31.8725 0.0166771
31.8825 0.0166563
31.8925 0.0166344
31.9025 0.0166112
31.9125 0.0165867
31.9225 0.016561
31.9325 0.016534
31.9425 0.0165058
31.9525 0.0164762
31.9625 0.0164455
31.9725 0.0164135
31.9825 0.0163804
31.9925 0.0163462
32.0025 0.016311
32.015 0.0162658
32.0275 0.0162193
32.04 0.0161719
32.0525 0.0161238
32.065 0.0160754
32.0775 0.0160268
32.09 0.0159784
32.1025 0.0159305
32.115 0.0158833
32.1275 0.0158371
32.14 0.0157922
32.1525 0.0157486
32.165 0.0157066
32.1775 0.0156663
32.19 0.0156278
32.2025 0.0155912
32.215 0.0155564
32.2275 0.0155234
32.24 0.0154923
32.2525 0.015463
32.265 0.0154354
32.2775 0.0154096
32.29 0.0153853
32.3025 0.0153626
32.315 0.0153413
32.3275 0.0153214
32.34 0.0153027
32.3525 0.0152853
32.365 0.0152689
32.3775 0.0152537
32.39 0.0152394
32.4025 0.0152261
32.415 0.0152138
32.4275 0.0152024
32.44 0.0151919
32.4525 0.0151825
32.465 0.0151739
32.4775 0.0151663
32.49 0.0151598
32.5025 0.0151542
32.515 0.0151497
32.5275 0.0151461
32.54 0.0151436
32.5525 0.0151422
32.565 0.0151417
32.5775 0.0151422
32.59 0.0151437
32.6025 0.0151461
32.615 0.0151493
32.6275 0.0151533
32.64 0.0151581
32.6525 0.0151634
32.665 0.0151693
32.6775 0.0151756
32.69 0.0151823
32.7025 0.0151891
32.715 0.0151961
32.7275 0.0152031
32.74 0.01521
32.7525 0.0152168
32.765 0.0152233
32.7775 0.0152294
32.79 0.0152353
32.8025 0.0152407
32.815 0.0152457
32.8275 0.0152503
32.84 0.0152547
32.8525 0.0152587
32.865 0.0152626
32.8775 0.0152663
32.89 0.0152701
32.9025 0.0152739
32.915 0.0152779
32.9275 0.0152822
32.94 0.0152867
32.9525 0.0152916
32.965 0.015297
32.9775 0.0153029
32.99 0.0153095
33.0025 0.0153169
33.015 0.0153251
33.0275 0.0153342
33.04 0.0153443
33.0525 0.0153555
33.065 0.0153678
33.0775 0.0153812
33.09 0.0153959
33.1025 0.0154118
33.115 0.0154288
33.1275 0.0154471
33.14 0.0154666
33.1525 0.0154873
33.165 0.015509
33.1775 0.0155318
33.19 0.0155555
33.2025 0.0155801
33.215 0.0156054
33.2275 0.0156315
33.24 0.0156581
33.2525 0.0156852
33.265 0.0157127
33.2775 0.0157406
33.29 0.0157686
33.3025 0.0157969
33.315 0.0158253
33.3275 0.0158538
33.34 0.0158823
33.3525 0.0159109
33.365 0.0159395
33.3775 0.0159681
33.39 0.0159967
33.4025 0.0160254
33.415 0.0160541
33.4275 0.0160828
33.44 0.0161117
33.4525 0.0161407
33.465 0.0161698
33.4775 0.016199
33.49 0.0162283
33.5025 0.0162577
33.515 0.0162872
33.5275 0.0163166
33.54 0.0163461
33.5525 0.0163754
33.565 0.0164045
33.5775 0.0164334
33.59 0.0164619
33.6025 0.0164899
33.615 0.0165174
33.6275 0.0165441
33.64 0.01657
33.6525 0.016595
33.665 0.016619
33.6775 0.0166419
33.69 0.0166635
33.7025 0.0166839
33.715 0.016703
33.7275 0.0167207
33.74 0.016737
33.7525 0.0167519
33.765 0.0167654
33.7775 0.0167774
33.79 0.0167882
33.8025 0.0167976
33.815 0.0168057
33.8275 0.0168127
33.84 0.0168185
33.8525 0.0168232
33.865 0.016827
33.8775 0.0168299
33.89 0.0168319
33.9025 0.0168332
33.915 0.0168338
33.9275 0.0168338
33.94 0.0168331
33.9525 0.0168319
33.965 0.0168302
33.9775 0.016828
33.99 0.0168253
34.0025 0.0168221
34.015 0.0168184
34.0275 0.0168142
34.04 0.0168094
34.0525 0.0168041
34.065 0.0167982
34.0775 0.0167916
34.09 0.0167844
34.1025 0.0167765
34.115 0.0167679
34.1275 0.0167587
34.14 0.0167487
34.1525 0.016738
34.165 0.0167267
34.1775 0.0167148
34.19 0.0167023
34.2025 0.0166892
34.215 0.0166757
34.2275 0.0166618
34.24 0.0166476
34.2525 0.0166332
34.265 0.0166186
34.2775 0.0166039
34.29 0.0165891
34.3025 0.0165744
34.315 0.0165598
34.3275 0.0165453
34.34 0.016531
34.3525 0.0165169
34.365 0.0165031
34.3775 0.0164896
34.39 0.0164763
34.4025 0.0164633
34.415 0.0164505
34.4275 0.0164379
34.44 0.0164255
34.4525 0.0164132
34.465 0.0164008
34.4775 0.0163885
34.49 0.016376
34.5025 0.0163633
34.515 0.0163504
34.5275 0.0163371
34.54 0.0163234
34.5525 0.0163093
34.565 0.0162946
34.5775 0.0162794
34.59 0.0162636
34.6025 0.0162472
34.615 0.0162302
34.6275 0.0162126
34.64 0.0161944
34.6525 0.0161756
34.665 0.0161563
34.6775 0.0161365
34.69 0.0161162
34.7025 0.0160956
34.715 0.0160747
34.7275 0.0160534
34.74 0.016032
34.7525 0.0160104
34.765 0.0159887
34.7775 0.0159669
34.79 0.0159451
34.8025 0.0159233
34.815 0.0159015
34.8275 0.0158798
34.84 0.0158581
34.8525 0.0158365
34.865 0.0158149
34.8775 0.0157934
34.89 0.0157719
34.9025 0.0157504
34.915 0.0157289
34.9275 0.0157074
34.94 0.0156859
34.9525 0.0156643
34.965 0.0156427
34.9775 0.0156211
34.99 0.0155995
35.0025 0.0155779
35.015 0.0155563
35.0275 0.0155348
35.04 0.0155135
35.0525 0.0154924
35.065 0.0154716
35.0775 0.0154512
35.09 0.0154314
35.1025 0.0154121
35.115 0.0153936
35.1275 0.0153759
35.14 0.0153591
35.1525 0.0153434
35.165 0.0153289
35.1775 0.0153156
35.19 0.0153036
35.2025 0.0152929
35.215 0.0152837
35.2275 0.0152758
35.24 0.0152693
35.2525 0.0152643
35.265 0.0152606
35.2775 0.0152582
35.29 0.0152571
35.3025 0.0152572
35.315 0.0152586
35.3275 0.015261
35.34 0.0152645
35.3525 0.0152689
35.365 0.0152742
35.3775 0.0152803
35.39 0.0152871
35.4025 0.0152946
35.415 0.0153027
35.4275 0.0153113
35.44 0.0153205
35.4525 0.01533
35.465 0.01534
35.4775 0.0153503
35.49 0.015361
35.5025 0.0153721
35.515 0.0153834
35.5275 0.0153951
35.54 0.0154072
35.5525 0.0154196
35.565 0.0154324
35.5775 0.0154456
35.59 0.0154592
35.6025 0.0154733
35.615 0.0154879
35.6275 0.015503
35.64 0.0155186
35.6525 0.0155346
35.665 0.0155511
35.6775 0.0155681
35.69 0.0155853
35.7025 0.0156028
35.715 0.0156206
35.7275 0.0156384
35.74 0.0156562
35.7525 0.015674
35.765 0.0156916
35.7775 0.015709
35.79 0.0157261
35.8025 0.0157429
35.815 0.0157593
35.8275 0.0157754
35.84 0.0157911
35.8525 0.0158064
35.865 0.0158214
35.8775 0.0158361
35.89 0.0158506
35.9025 0.0158649
35.915 0.0158792
35.9275 0.0158936
35.94 0.0159081
35.9525 0.0159228
35.965 0.0159379
35.9775 0.0159534
35.99 0.0159694
36.0025 0.015986
36.015 0.0160031
36.0275 0.0160208
36.04 0.0160391
36.0525 0.016058
36.065 0.0160774
36.0775 0.0160973
36.09 0.0161176
36.1025 0.0161382
36.115 0.016159
36.1275 0.0161799
36.14 0.0162007
36.1525 0.0162214
36.165 0.0162418
36.1775 0.0162618
36.19 0.0162813
36.2025 0.0163001
36.215 0.0163183
36.2275 0.0163356
36.24 0.0163521
36.2525 0.0163678
36.265 0.0163825
36.2775 0.0163964
36.29 0.0164093
36.3025 0.0164215
36.315 0.0164328
36.3275 0.0164435
36.34 0.0164534
36.3525 0.0164629
36.365 0.0164718
36.3775 0.0164804
36.39 0.0164886
36.4025 0.0164967
36.415 0.0165046
36.4275 0.0165124
36.44 0.0165202
36.4525 0.0165279
36.465 0.0165357
36.4775 0.0165435
36.49 0.0165513
36.5025 0.016559
36.515 0.0165666
36.5275 0.0165741
36.54 0.0165813
36.5525 0.0165882
36.565 0.0165946
36.5775 0.0166006
36.59 0.0166058
36.6025 0.0166103
36.615 0.016614
36.6275 0.0166168
36.64 0.0166185
36.6525 0.0166192
