-0.0197663 -9.94758e-06 -0.058242 -1.83137e-05 -0.0153785 -2.76077e-06
-0.0196419 -9.88496e-06 -0.0582489 -1.83159e-05 -0.0153771 -2.76052e-06
-0.019341 -9.73351e-06 -0.0582661 -1.83213e-05 -0.0153588 -2.75723e-06
-0.0187099 -9.4159e-06 -0.0582593 -1.83191e-05 -0.0153396 -2.75378e-06
-0.0179768 -9.04697e-06 -0.0582502 -1.83162e-05 -0.0153285 -2.7518e-06
-0.0170146 -8.56276e-06 -0.0582383 -1.83125e-05 -0.0153328 -2.75256e-06
-0.0157944 -7.94865e-06 -0.0582115 -1.83041e-05 -0.0153562 -2.75676e-06
-0.0142835 -7.18828e-06 -0.0581526 -1.82856e-05 -0.0154084 -2.76613e-06
-0.0124472 -6.26418e-06 -0.0580527 -1.82542e-05 -0.0155009 -2.78275e-06
-0.0102479 -5.15736e-06 -0.0579073 -1.82084e-05 -0.0156449 -2.80859e-06
-0.00764817 -3.84901e-06 -0.0577053 -1.81449e-05 -0.015848 -2.84504e-06
-0.0046165 -2.3233e-06 -0.0574291 -1.80581e-05 -0.0161153 -2.89304e-06
-0.00115569 -5.8161e-07 -0.0570612 -1.79424e-05 -0.016452 -2.95349e-06
0.00268621 1.35186e-06 -0.0566011 -1.77977e-05 -0.0168536 -3.02558e-06
0.00641376 3.22778e-06 -0.0560059 -1.76106e-05 -0.01734 -3.1129e-06
0.0104567 5.26242e-06 -0.0552755 -1.73809e-05 -0.0178963 -3.21277e-06
0.0147605 7.42835e-06 -0.0543894 -1.71023e-05 -0.0185143 -3.32372e-06
0.0192518 9.68864e-06 -0.0533284 -1.67686e-05 -0.019175 -3.44233e-06
0.0238325 1.19939e-05 -0.0520809 -1.63764e-05 -0.0198515 -3.56377e-06
0.0283994 1.42923e-05 -0.0506409 -1.59236e-05 -0.0205006 -3.6803e-06
0.0328465 1.65303e-05 -0.0490059 -1.54095e-05 -0.0210857 -3.78534e-06
0.0370442 1.86428e-05 -0.0471759 -1.4834e-05 -0.0215389 -3.8667e-06
0.0408317 2.05489e-05 -0.045157 -1.41992e-05 -0.0217817 -3.91027e-06
0.0440175 2.21522e-05 -0.0433952 -1.36452e-05 -0.0217348 -3.90186e-06
0.0463762 2.33392e-05 -0.0428368 -1.34696e-05 -0.0213226 -3.82786e-06
0.0476584 2.39845e-05 -0.0422768 -1.32936e-05 -0.0204682 -3.67449e-06
0.0476359 2.39732e-05 -0.041677 -1.3105e-05 -0.0190674 -3.423e-06
0.046144 2.32224e-05 -0.0409894 -1.28887e-05 -0.0170251 -3.05637e-06
0.0431463 2.17138e-05 -0.0402356 -1.26517e-05 -0.014234 -2.55531e-06
0.0387035 1.94779e-05 -0.039381 -1.2383e-05 -0.0106037 -1.90359e-06
0.0323294 1.627e-05 -0.0383716 -1.20656e-05 -0.00772786 -1.38731e-06
0.0239387 1.20474e-05 -0.037191 -1.16944e-05 -0.00602412 -1.08146e-06
0.0145159 7.30527e-06 -0.0357925 -1.12546e-05 -0.00409248 -7.34688e-07
0.00414935 2.0882e-06 -0.0342142 -1.07583e-05 -0.00197717 -3.54944e-07
-0.0070011 -3.52336e-06 -0.0324948 -1.02177e-05 0.000316561 5.68294e-08
-0.0187817 -9.45208e-06 -0.0306442 -9.6358e-06 0.00275768 4.95063e-07
-0.0312077 -1.57055e-05 -0.0286924 -9.02208e-06 0.00529016 9.49696e-07
-0.0441628 -2.22253e-05 -0.0267568 -8.41344e-06 0.00786194 1.41138e-06
-0.0574457 -2.89101e-05 -0.0249251 -7.83747e-06 0.0103594 1.85974e-06
-0.0709667 -3.57146e-05 -0.0265523 -8.34913e-06 0.0126825 2.27679e-06
-0.0846075 -4.25794e-05 -0.0292474 -9.19657e-06 0.0148153 2.65966e-06
-0.0981453 -4.93925e-05 -0.0325003 -1.02194e-05 0.0166486 2.98879e-06
-0.11131 -5.60179e-05 -0.0362832 -1.14089e-05 0.0180892 3.2474e-06
-0.12381 -6.23085e-05 -0.0405676 -1.27561e-05 0.0190553 3.42084e-06
-0.135325 -6.81035e-05 -0.0453037 -1.42454e-05 0.0194836 3.49773e-06
-0.145556 -7.32524e-05 -0.0504181 -1.58535e-05 0.0193167 3.46776e-06
-0.154344 -7.76748e-05 -0.0558725 -1.75686e-05 0.018536 3.32761e-06
-0.161673 -8.13633e-05 -0.0617551 -1.94183e-05 0.0170138 3.05435e-06
-0.16765 -8.43716e-05 -0.0678732 -2.13421e-05 0.0147735 2.65216e-06
-0.172569 -8.68469e-05 -0.0740969 -2.32991e-05 0.0118161 2.12125e-06
-0.177928 -8.95439e-05 -0.0820256 -2.57922e-05 0.0070975 1.27415e-06
-0.183439 -9.23171e-05 -0.0901634 -2.83511e-05 0.00127375 2.28665e-07
-0.190292 -9.57663e-05 -0.0984223 -3.0948e-05 -0.00551816 -9.90627e-07
-0.199592 -0.000100446 -0.106763 -3.35708e-05 -0.013095 -2.35082e-06
-0.212183 -0.000106783 -0.115324 -3.62626e-05 -0.0317211 -5.69462e-06
-0.228586 -0.000115038 -0.124307 -3.90873e-05 -0.0615962 -1.10578e-05
-0.248909 -0.000125266 -0.133879 -4.2097e-05 -0.0918199 -1.64836e-05
-0.272847 -0.000137312 -0.144198 -4.53416e-05 -0.120902 -2.17046e-05
-0.299861 -0.000150908 -0.155543 -4.8909e-05 -0.147664 -2.65088e-05
-0.329497 -0.000165822 -0.168154 -5.28746e-05 -0.171436 -3.07765e-05
-0.361538 -0.000181947 -0.18215 -5.72755e-05 -0.191695 -3.44133e-05
-0.395941 -0.000199261 -0.197613 -6.21378e-05 -0.208009 -3.73421e-05
-0.432706 -0.000217763 -0.214592 -6.74765e-05 -0.220326 -3.95532e-05
-0.47176 -0.000237417 -0.233038 -7.32768e-05 -0.229031 -4.11159e-05
-0.512844 -0.000258093 -0.252813 -7.94947e-05 -0.234853 -4.21611e-05
-0.555392 -0.000279506 -0.273749 -8.60779e-05 -0.238627 -4.28386e-05
-0.598563 -0.000301232 -0.295644 -9.29626e-05 -0.241348 -4.3327e-05
-0.641451 -0.000322816 -0.318234 -0.000100066 -0.244172 -4.38341e-05
-0.683289 -0.000343871 -0.341226 -0.000107295 -0.248381 -4.45898e-05
-0.723489 -0.000364102 -0.364337 -0.000114563 -0.255193 -4.58125e-05
-0.761554 -0.000383258 -0.387298 -0.000121782 -0.265672 -4.76937e-05
-0.796912 -0.000401053 -0.409848 -0.000128873 -0.280685 -5.03889e-05
-0.82884 -0.000417121 -0.43176 -0.000135763 -0.300864 -5.40114e-05
-0.856625 -0.000431104 -0.452838 -0.000142391 -0.326531 -5.86192e-05
-0.879777 -0.000442755 -0.472927 -0.000148708 -0.357682 -6.42115e-05
-0.898074 -0.000451964 -0.491923 -0.000154681 -0.393991 -7.07297e-05
-0.911574 -0.000458758 -0.509754 -0.000160288 -0.434846 -7.80642e-05
-0.920599 -0.000463299 -0.526365 -0.000165511 -0.479376 -8.60582e-05
-0.925717 -0.000465875 -0.541729 -0.000170342 -0.526472 -9.4513e-05
-0.927689 -0.000466868 -0.555852 -0.000174783 -0.574841 -0.000103196
-0.927384 -0.000466714 -0.568757 -0.00017884 -0.623068 -0.000111854
-0.925732 -0.000465883 -0.580474 -0.000182525 -0.669691 -0.000120224
-0.92372 -0.00046487 -0.591041 -0.000185847 -0.713263 -0.000128046
-0.922408 -0.00046421 -0.600501 -0.000188822 -0.752422 -0.000135076
-0.922882 -0.000464448 -0.608905 -0.000191465 -0.785948 -0.000141094
-0.926124 -0.00046608 -0.616302 -0.000193791 -0.81282 -0.000145919
-0.932786 -0.000469432 -0.622752 -0.000195819 -0.83224 -0.000149405
-0.942984 -0.000474565 -0.628315 -0.000197568 -0.843661 -0.000151455
-0.956284 -0.000481258 -0.633036 -0.000199052 -0.846814 -0.000152021
-0.971856 -0.000489095 -0.636938 -0.000200279 -0.841756 -0.000151113
-0.985245 -0.000495833 -0.639473 -0.000201077 -0.832055 -0.000149372
-1.00218 -0.000504355 -0.641888 -0.000201836 -0.813452 -0.000146032
-1.01825 -0.000512443 -0.643395 -0.00020231 -0.788595 -0.00014157
-1.03233 -0.000519528 -0.643872 -0.00020246 -0.758759 -0.000136213
-1.04324 -0.00052502 -0.643167 -0.000202238 -0.725426 -0.000130229
-1.04971 -0.000528278 -0.641099 -0.000201588 -0.690199 -0.000123905
-1.05045 -0.000528647 -0.637447 -0.000200439 -0.654713 -0.000117535
-1.04417 -0.000525489 -0.63198 -0.00019872 -0.620556 -0.000111403
-1.02968 -0.000518196 -0.624477 -0.000196361 -0.589175 -0.000105769
-1.00591 -0.000506235 -0.614713 -0.000193291 -0.561795 -0.000100854
-0.972043 -0.000489189 -0.602466 -0.00018944 -0.539354 -9.68255e-05
-0.927477 -0.000466761 -0.587546 -0.000184748 -0.522448 -9.37906e-05
-0.871956 -0.000438819 -0.569781 -0.000179163 -0.511294 -9.17881e-05
-0.805708 -0.000405479 -0.549016 -0.000172633 -0.505711 -9.07859e-05
-0.729602 -0.000367179 -0.525126 -0.000165121 -0.505138 -9.06829e-05
-0.645092 -0.000324648 -0.498043 -0.000156605 -0.508631 -9.131e-05
-0.553903 -0.000278756 -0.467771 -0.000147086 -0.514869 -9.243e-05
-0.457879 -0.000230431 -0.434352 -0.000136578 -0.522192 -9.37445e-05
-0.359001 -0.00018067 -0.397879 -0.000125109 -0.528683 -9.49099e-05
-0.259372 -0.000130531 -0.358538 -0.000112739 -0.532265 -9.55529e-05
-0.161129 -8.10897e-05 -0.316597 -9.95512e-05 -0.530781 -9.52865e-05
-0.0663166 -3.33744e-05 -0.272372 -8.56449e-05 -0.522105 -9.3729e-05
0.0234073 1.17799e-05 -0.226141 -7.11081e-05 -0.504263 -9.05259e-05
0.10279 5.173e-05 -0.188834 -5.93771e-05 -0.475313 -8.53287e-05
0.171145 8.61301e-05 -0.166383 -5.23177e-05 -0.434596 -7.80192e-05
0.232131 0.000116822 -0.14027 -4.41068e-05 -0.380613 -6.83282e-05
0.284729 0.000143292 -0.110099 -3.46196e-05 -0.312921 -5.6176e-05
0.328737 0.00016544 -0.0768075 -2.41514e-05 -0.232202 -4.16852e-05
0.363886 0.000183129 -0.0410284 -1.2901e-05 -0.139135 -2.49776e-05
0.390149 0.000196346 -0.00263244 -8.27746e-07 -0.0350451 -6.29135e-06
0.408461 0.000205561 0.0378189 1.18918e-05 0.0299335 5.37369e-06
0.420207 0.000211473 0.079298 2.49345e-05 0.0644727 1.15742e-05
0.427125 0.000214955 0.121314 3.81462e-05 0.10058 1.80562e-05
0.431207 0.000217009 0.163455 5.1397e-05 0.137433 2.46721e-05
0.434536 0.000218684 0.204799 6.43972e-05 0.173883 3.12157e-05
0.439301 0.000221082 0.244419 7.68554e-05 0.208356 3.74044e-05
0.447733 0.000225325 0.281773 8.8601e-05 0.240486 4.31724e-05
0.461947 0.000232479 0.316287 9.94535e-05 0.26993 4.84582e-05
0.483764 0.000243458 0.347278 0.000109198 0.295944 5.31283e-05
0.514516 0.000258935 0.374217 0.000117669 0.317535 5.70043e-05
0.55485 0.000279233 0.396765 0.000124759 0.334363 6.00253e-05
0.604678 0.00030431 0.414627 0.000130376 0.346343 6.21759e-05
0.663329 0.000333826 0.427573 0.000134447 0.353459 6.34534e-05
0.729728 0.000367242 0.435609 0.000136973 0.355616 6.38407e-05
0.802501 0.000403866 0.438992 0.000138037 0.353044 6.3379e-05
0.880077 0.000442906 0.438121 0.000137763 0.346271 6.21631e-05
0.960721 0.000483491 0.433532 0.00013632 0.335993 6.03179e-05
1.04258 0.000524687 0.42592 0.000133927 0.322904 5.79681e-05
1.12374 0.000565534 0.416096 0.000130838 0.307791 5.52551e-05
1.20229 0.000605065 0.404898 0.000127317 0.291551 5.23397e-05
1.27628 0.000642298 0.393155 0.000123624 0.275129 4.93916e-05
1.34377 0.000676263 0.381653 0.000120007 0.25938 4.65643e-05
1.40298 0.000706063 0.371094 0.000116687 0.245053 4.39923e-05
1.45242 0.000730944 0.362075 0.000113851 0.232806 4.17936e-05
1.48298 0.000746323 0.355913 0.000111914 0.223114 4.00536e-05
1.50744 0.000758634 0.358388 0.000112692 0.214623 3.85294e-05
1.52672 0.000768337 0.364183 0.000114514 0.209703 3.76461e-05
1.51993 0.000764916 0.365244 0.000114848 0.210325 3.77578e-05
1.50768 0.000758751 0.369065 0.000116049 0.21201 3.80602e-05
1.48629 0.000747986 0.376946 0.000118527 0.215486 3.86844e-05
1.43847 0.000723923 0.383582 0.000120614 0.221669 3.97943e-05
1.38293 0.000695969 0.385917 0.000121348 0.232618 4.176e-05
1.32558 0.000667111 0.394765 0.00012413 0.241646 4.33805e-05
1.26225 0.000635239 0.4034 0.000126846 0.25173 4.51909e-05
1.19565 0.000601724 0.410041 0.000128934 0.262203 4.70711e-05
1.13168 0.00056953 0.416403 0.000130934 0.272388 4.88995e-05
1.07001 0.000538494 0.422353 0.000132805 0.281253 5.04909e-05
1.01331 0.000509957 0.426446 0.000134092 0.287699 5.1648e-05
0.964627 0.000485457 0.427952 0.000134566 0.291692 5.2365e-05
0.925038 0.000465533 0.426971 0.000134257 0.293437 5.26781e-05
0.895955 0.000450897 0.423615 0.000133202 0.292231 5.24617e-05
0.878819 0.000442273 0.417435 0.000131259 0.28737 5.1589e-05
0.873939 0.000439817 0.408171 0.000128346 0.279074 5.00997e-05
0.881424 0.000443584 0.396232 0.000124592 0.267855 4.80857e-05
0.901035 0.000453454 0.38197 0.000120107 0.253833 4.55685e-05
0.931472 0.000468771 0.36549 0.000114925 0.237093 4.25633e-05
0.967367 0.000486836 0.34747 0.000109259 0.217973 3.91308e-05
1.00726 0.000506914 0.327488 0.000102976 0.197437 3.54442e-05
1.04901 0.000527921 0.306713 9.6443e-05 0.176211 3.16337e-05
1.09085 0.000548979 0.286158 8.99799e-05 0.154961 2.78188e-05
1.12301 0.000565166 0.270263 8.49818e-05 0.13838 2.48421e-05
1.15296 0.000580236 0.255135 8.0225e-05 0.122698 2.20269e-05
1.17975 0.000593721 0.24122 7.58494e-05 0.108408 1.94616e-05
1.20248 0.000605159 0.22897 7.19975e-05 0.0959046 1.72169e-05
1.22027 0.000614114 0.218698 6.87676e-05 0.0854499 1.53401e-05
1.23239 0.000620213 0.210589 6.6218e-05 0.0772611 1.387e-05
1.2382 0.000623136 0.204802 6.43981e-05 0.0715758 1.28494e-05
1.23714 0.0006226 0.201489 6.33564e-05 0.068612 1.23173e-05
1.2287 0.000618354 0.200733 6.31187e-05 0.0684813 1.22939e-05
1.2125 0.000610199 0.202491 6.36714e-05 0.0711609 1.27749e-05
1.18822 0.000597983 0.206616 6.49684e-05 0.0765415 1.37408e-05
1.15575 0.000581642 0.212914 6.69489e-05 0.0844799 1.51659e-05
1.11521 0.000561237 0.221165 6.95434e-05 0.0948017 1.70189e-05
1.06701 0.00053698 0.231113 7.26713e-05 0.107267 1.92567e-05
1.01187 0.000509232 0.242456 7.62382e-05 0.121554 2.18215e-05
0.950777 0.000478487 0.254864 8.01398e-05 0.137281 2.46448e-05
0.884862 0.000445315 0.267991 8.42673e-05 0.15404 2.76535e-05
0.815302 0.000410308 0.281468 8.8505e-05 0.171411 3.07719e-05
0.743256 0.00037405 0.294889 9.27252e-05 0.188954 3.39213e-05
0.669852 0.000337109 0.307823 9.6792e-05 0.206213 3.70195e-05
0.596204 0.000300045 0.319838 0.00010057 0.222719 3.99829e-05
0.523402 0.000263407 0.330531 0.000103932 0.238025 4.27305e-05
0.45248 0.000227715 0.339531 0.000106762 0.251707 4.51868e-05
0.384368 0.000193437 0.346492 0.000108951 0.263383 4.72829e-05
0.319866 0.000160975 0.351095 0.000110399 0.272708 4.8957e-05
0.259633 0.000130663 0.353063 0.000111018 0.279387 5.01559e-05
0.20419 0.00010276 0.352178 0.000110739 0.283181 5.0837e-05
0.153915 7.74592e-05 0.348287 0.000109516 0.283916 5.09689e-05
0.109038 5.48743e-05 0.341295 0.000107317 0.281484 5.05324e-05
0.0696368 3.50453e-05 0.331168 0.000104133 0.275846 4.95203e-05
0.0356405 1.79364e-05 0.317932 9.99708e-05 0.267029 4.79374e-05
0.00683265 3.43859e-06 0.301674 9.48587e-05 0.255125 4.58003e-05
-0.01729 -8.70135e-06 0.28254 8.88422e-05 0.240285 4.31362e-05
-0.0411113 -2.06896e-05 0.260721 8.19813e-05 0.222717 3.99825e-05
-0.0545635 -2.74595e-05 0.235714 7.4118e-05 0.202807 3.64082e-05
-0.0587978 -2.95905e-05 0.207512 6.52502e-05 0.181733 3.2625e-05
-0.0604901 -3.04422e-05 0.182292 5.73202e-05 0.156956 2.81769e-05
-0.059571 -2.99796e-05 0.152937 4.80896e-05 0.131589 2.3623e-05
-0.0590698 -2.97274e-05 0.121463 3.81928e-05 0.104833 1.88197e-05
-0.0580435 -2.92109e-05 0.0889823 2.79797e-05 0.0774029 1.38955e-05
-0.0569046 -2.86377e-05 0.0569048 1.78932e-05 0.0493657 8.86219e-06
-0.0576697 -2.90228e-05 0.024728 7.7755e-06 0.0209589 3.76256e-06
-0.0614358 -3.09181e-05 -0.00810169 -2.5475e-06 -0.00733852 -1.31742e-06
-0.0684336 -3.44398e-05 -0.0410787 -1.29168e-05 -0.0925536 -1.66153e-05
-0.0793376 -3.99273e-05 -0.0734555 -2.30974e-05 -0.182602 -3.27809e-05
-0.095115 -4.78674e-05 -0.104872 -3.29762e-05 -0.268914 -4.82757e-05
-0.116256 -5.85068e-05 -0.135465 -4.25959e-05 -0.350163 -6.28617e-05
-0.142771 -7.18505e-05 -0.172083 -5.41099e-05 -0.424991 -7.62949e-05
-0.17493 -8.8035e-05 -0.211347 -6.64561e-05 -0.49324 -8.8547e-05
-0.212772 -0.00010708 -0.250642 -7.8812e-05 -0.554671 -9.95752e-05
-0.256129 -0.000128899 -0.28914 -9.09174e-05 -0.609008 -0.00010933
-0.304795 -0.000153391 -0.326634 -0.000102707 -0.655903 -0.000117748
-0.358524 -0.00018043 -0.363373 -0.000114259 -0.695265 -0.000124815
-0.416889 -0.000209803 -0.399442 -0.000125601 -0.727266 -0.00013056
-0.479312 -0.000241218 -0.434534 -0.000136635 -0.752291 -0.000135052
-0.545113 -0.000274333 -0.4683 -0.000147253 -0.770844 -0.000138383
-0.613494 -0.000308746 -0.500652 -0.000157425 -0.783491 -0.000140653
-0.683537 -0.000343996 -0.531656 -0.000167175 -0.790847 -0.000141974
-0.754254 -0.000379585 -0.561285 -0.000176491 -0.793592 -0.000142467
-0.824634 -0.000415004 -0.589368 -0.000185322 -0.792518 -0.000142274
-0.893641 -0.000449733 -0.615752 -0.000193618 -0.788516 -0.000141555
-0.960236 -0.000483247 -0.640393 -0.000201366 -0.782499 -0.000140475
-1.02341 -0.000515041 -0.663296 -0.000208568 -0.775332 -0.000139189
-1.08223 -0.000544642 -0.684419 -0.000215209 -0.767812 -0.000137839
-1.13583 -0.000571617 -0.703671 -0.000221263 -0.760707 -0.000136563
-1.18346 -0.000595586 -0.720979 -0.000226705 -0.754769 -0.000135497
-1.22449 -0.000616233 -0.736316 -0.000231528 -0.750681 -0.000134763
-1.25843 -0.000633315 -0.749671 -0.000235727 -0.748998 -0.000134461
-1.28496 -0.000646668 -0.761012 -0.000239293 -0.750123 -0.000134663
-1.30392 -0.000656208 -0.7703 -0.000242214 -0.754322 -0.000135417
-1.31528 -0.000661924 -0.77751 -0.000244481 -0.761741 -0.000136749
-1.31916 -0.000663879 -0.782642 -0.000246095 -0.772392 -0.000138661
-1.3158 -0.00066219 -0.785705 -0.000247058 -0.786127 -0.000141127
-1.3056 -0.000657054 -0.78674 -0.000247383 -0.802624 -0.000144088
-1.28928 -0.00064884 -0.785788 -0.000247084 -0.821414 -0.000147461
-1.26751 -0.000637887 -0.782874 -0.000246168 -0.841914 -0.000151141
-1.24109 -0.000624591 -0.778025 -0.000244643 -0.863439 -0.000155006
-1.21101 -0.000609452 -0.771325 -0.000242536 -0.885179 -0.000158908
-1.1783 -0.000592989 -0.762857 -0.000239873 -0.906246 -0.00016269
-1.14394 -0.000575697 -0.752702 -0.00023668 -0.925712 -0.000166185
-1.10894 -0.000558085 -0.740968 -0.000232991 -0.942624 -0.000169221
-1.07436 -0.000540681 -0.727787 -0.000228846 -0.956037 -0.000171629
-1.04122 -0.000524001 -0.713301 -0.000224291 -0.965048 -0.000173247
-1.01049 -0.000508536 -0.69766 -0.000219373 -0.968823 -0.000173924
-0.983087 -0.000494747 -0.681029 -0.000214143 -0.966628 -0.00017353
-0.959853 -0.000483054 -0.663585 -0.000208658 -0.957851 -0.000171955
-0.941486 -0.000473811 -0.645509 -0.000202974 -0.942027 -0.000169114
-0.928556 -0.000467304 -0.626984 -0.00019715 -0.918858 -0.000164955
-0.921499 -0.000463752 -0.608199 -0.000191243 -0.888223 -0.000159455
-0.920624 -0.000463312 -0.589342 -0.000185313 -0.850193 -0.000152628
-0.926111 -0.000466073 -0.570603 -0.000179421 -0.805036 -0.000144521
-0.937223 -0.000471666 -0.552309 -0.000173669 -0.753189 -0.000135213
-0.950289 -0.000478241 -0.536483 -0.000168692 -0.694524 -0.000124682
-0.97249 -0.000489414 -0.519892 -0.000163475 -0.631043 -0.000113286
-0.999326 -0.000502919 -0.503978 -0.000158471 -0.563895 -0.000101231
-1.0317 -0.00051921 -0.489096 -0.000153792 -0.493351 -8.8567e-05
-1.06912 -0.000538046 -0.474643 -0.000149247 -0.421262 -7.56255e-05
-1.10941 -0.000558319 -0.461646 -0.00014516 -0.348236 -6.25158e-05
-1.15185 -0.000579677 -0.449834 -0.000141446 -0.276241 -4.9591e-05
-1.19356 -0.000600668 -0.440183 -0.000138412 -0.206459 -3.70638e-05
-1.23487 -0.000621459 -0.432247 -0.000135916 -0.140306 -2.51878e-05
-1.2731 -0.000640697 -0.42588 -0.000133914 -0.0789703 -1.41768e-05
-1.30728 -0.000657899 -0.421125 -0.000132419 -0.0530927 -9.53127e-06
-1.3369 -0.000672807 -0.418312 -0.000131534 -0.0400199 -7.18443e-06
-1.36044 -0.000684652 -0.417292 -0.000131214 -0.0298067 -5.35094e-06
-1.37644 -0.000692703 -0.417863 -0.000131393 -0.0224885 -4.03716e-06
-1.38412 -0.000696571 -0.419942 -0.000132047 -0.0177718 -3.19041e-06
-1.38335 -0.000696184 -0.42356 -0.000133185 -0.0157906 -2.83474e-06
-1.3736 -0.000691274 -0.428598 -0.000134769 -0.016985 -3.04917e-06
-1.35449 -0.000681658 -0.434821 -0.000136725 -0.02165 -3.88663e-06
-1.32621 -0.000667427 -0.442024 -0.00013899 -0.0296661 -5.32569e-06
-1.28908 -0.000648742 -0.450004 -0.0001415 -0.0407136 -7.30896e-06
-1.24343 -0.000625765 -0.45854 -0.000144184 -0.0545298 -9.78926e-06
-1.18981 -0.000598782 -0.467497 -0.000147 -0.0867104 -1.55664e-05
-1.12915 -0.000568253 -0.476646 -0.000149877 -0.155872 -2.79824e-05
-1.0625 -0.000534711 -0.485708 -0.000152726 -0.233235 -4.18706e-05
-0.99103 -0.000498744 -0.494368 -0.00015545 -0.316763 -5.68657e-05
-0.915978 -0.000460974 -0.502484 -0.000158001 -0.404618 -7.26375e-05
-0.838619 -0.000422042 -0.50993 -0.000160343 -0.495167 -8.8893e-05
-0.760215 -0.000382585 -0.516532 -0.000162419 -0.586734 -0.000105331
-0.682018 -0.000343231 -0.522078 -0.000164163 -0.677352 -0.000121599
-0.60525 -0.000304597 -0.526426 -0.00016553 -0.764823 -0.000137302
-0.531067 -0.000267264 -0.529504 -0.000166498 -0.84699 -0.000152053
-0.460532 -0.000231767 -0.531245 -0.000167045 -0.921955 -0.000165511
-0.394625 -0.000198598 -0.531556 -0.000167143 -0.988079 -0.000177381
-0.334239 -0.000168209 -0.530339 -0.00016676 -1.04388 -0.000187398
-0.280151 -0.000140988 -0.527531 -0.000165877 -1.08799 -0.000195317
-0.232961 -0.00011724 -0.523099 -0.000164484 -1.11924 -0.000200928
-0.193054 -9.71562e-05 -0.51701 -0.000162569 -1.1368 -0.00020408
-0.160592 -8.08191e-05 -0.509214 -0.000160118 -1.14021 -0.000204692
-0.135514 -6.81986e-05 -0.499654 -0.000157112 -1.12934 -0.00020274
-0.117551 -5.91588e-05 -0.48829 -0.000153538 -1.10436 -0.000198256
-0.10623 -5.34611e-05 -0.475096 -0.00014939 -1.0657 -0.000191315
-0.10088 -5.0769e-05 -0.460045 -0.000144657 -1.01407 -0.000182047
-0.10065 -5.06528e-05 -0.443103 -0.00013933 -0.950502 -0.000170635
-0.104506 -5.25937e-05 -0.424237 -0.000133398 -0.876293 -0.000157313
-0.111256 -5.59906e-05 -0.40343 -0.000126855 -0.792941 -0.00014235
-0.119564 -6.01717e-05 -0.380671 -0.000119698 -0.702087 -0.00012604
-0.12799 -6.44122e-05 -0.355957 -0.000111927 -0.605475 -0.000108696
-0.14826 -7.46129e-05 -0.32672 -0.000102734 -0.505585 -9.07632e-05
-0.163598 -8.23322e-05 -0.296531 -9.32415e-05 -0.404973 -7.27012e-05
-0.177952 -8.95557e-05 -0.267495 -8.41115e-05 -0.301315 -5.40924e-05
-0.186936 -9.40769e-05 -0.23423 -7.36516e-05 -0.200633 -3.60178e-05
-0.189064 -9.51482e-05 -0.1991 -6.26051e-05 -0.101874 -1.82886e-05
-0.184751 -9.29774e-05 -0.162788 -5.11873e-05 -0.0401159 -7.20166e-06
-0.173279 -8.72043e-05 -0.126384 -3.97404e-05 -0.0140462 -2.52159e-06
-0.154029 -7.75163e-05 -0.0887684 -2.79124e-05 0.0102698 1.84365e-06
-0.127601 -6.42165e-05 -0.0493818 -1.55277e-05 0.0330307 5.92971e-06
-0.0956436 -4.81335e-05 -0.00883079 -2.77676e-06 0.054355 9.75788e-06
-0.0565159 -2.84421e-05 0.032096 1.00923e-05 0.0735164 1.31978e-05
-0.010357 -5.21223e-06 0.0734064 2.3082e-05 0.0904535 1.62383e-05
0.0427239 2.15012e-05 0.113907 3.58172e-05 0.104631 1.87836e-05
0.102032 5.13486e-05 0.143602 4.51543e-05 0.116785 2.09655e-05
0.166398 8.37412e-05 0.161807 5.08788e-05 0.127266 2.28469e-05
0.23501 0.000118271 0.178156 5.60196e-05 0.136037 2.44215e-05
0.306758 0.000154378 0.192556 6.05476e-05 0.142994 2.56704e-05
0.380203 0.000191341 0.205474 6.46093e-05 0.148487 2.66566e-05
0.453479 0.000228217 0.217582 6.84168e-05 0.152952 2.74581e-05
0.525611 0.000264518 0.228877 7.19685e-05 0.156777 2.81449e-05
0.595467 0.000299674 0.239396 7.52758e-05 0.160189 2.87573e-05
0.66209 0.000333202 0.249371 7.84125e-05 0.163394 2.93328e-05
0.724632 0.000364678 0.259223 8.15104e-05 0.166708 2.99276e-05
0.782375 0.000393737 0.269287 8.46748e-05 0.170431 3.05961e-05
0.834724 0.000420082 0.279681 8.7943e-05 0.174818 3.13836e-05
0.881184 0.000443463 0.290448 9.13288e-05 0.180036 3.23202e-05
0.922061 0.000464035 0.301286 9.47368e-05 0.186291 3.34433e-05
0.95035 0.000478272 0.312946 9.84031e-05 0.193551 3.47466e-05
0.972276 0.000489306 0.324998 0.000102193 0.201241 3.61271e-05
0.986164 0.000496296 0.336964 0.000105955 0.21051 3.77911e-05
0.991997 0.000499231 0.349795 0.00010999 0.220417 3.95695e-05
0.99035 0.000498402 0.362827 0.000114088 0.231224 4.15097e-05
0.982023 0.000494211 0.37583 0.000118176 0.242288 4.34958e-05
0.96762 0.000486963 0.388341 0.00012211 0.253617 4.55296e-05
0.947812 0.000476995 0.400335 0.000125882 0.265046 4.75814e-05
0.923875 0.000464948 0.411774 0.000129479 0.27627 4.95964e-05
0.897009 0.000451427 0.422343 0.000132802 0.286848 5.14953e-05
0.868272 0.000436965 0.431585 0.000135708 0.296384 5.32072e-05
0.838872 0.00042217 0.439202 0.000138103 0.304594 5.46811e-05
0.8101 0.00040769 0.445051 0.000139942 0.311239 5.5874e-05
0.783121 0.000394112 0.448948 0.000141168 0.316051 5.67379e-05
0.758977 0.000381962 0.450631 0.000141697 0.318723 5.72176e-05
0.738663 0.000371738 0.449877 0.00014146 0.318986 5.72648e-05
0.723063 0.000363888 0.446572 0.000140421 0.316677 5.68503e-05
0.712873 0.00035876 0.44068 0.000138568 0.311726 5.59615e-05
0.708596 0.000356607 0.432191 0.000135899 0.304103 5.4593e-05
0.71054 0.000357585 0.421114 0.000132416 0.293801 5.27435e-05
0.71881 0.000361747 0.407518 0.00012814 0.280871 5.04223e-05
0.733307 0.000369043 0.391553 0.00012312 0.265454 4.76547e-05
0.753768 0.00037934 0.373444 0.000117426 0.247775 4.44808e-05
0.779107 0.000392092 0.353626 0.000111194 0.228069 4.09432e-05
0.809196 0.000407235 0.332463 0.00010454 0.206664 3.71007e-05
0.842453 0.000423972 0.310021 9.74833e-05 0.183883 3.30109e-05
0.8779 0.000441811 0.286511 9.00907e-05 0.160286 2.87748e-05
0.915267 0.000460616 0.262717 8.2609e-05 0.136157 2.44431e-05
0.953684 0.00047995 0.239105 7.51845e-05 0.112006 2.01074e-05
0.991878 0.000499171 0.215989 6.79159e-05 0.0883168 1.58548e-05
1.02893 0.000517819 0.193744 6.0921e-05 0.0655648 1.17703e-05
1.0641 0.000535516 0.172858 5.43538e-05 0.0441804 7.93132e-06
1.09642 0.000551784 0.153772 4.83523e-05 0.0245809 4.4128e-06
1.12491 0.000566118 0.136817 4.3021e-05 0.00713949 1.28169e-06
1.14869 0.000578086 0.122247 3.84394e-05 -0.0459055 -8.24101e-06
1.167 0.000587303 0.110248 3.46665e-05 -0.0894047 -1.60501e-05
1.17916 0.000593421 0.100974 3.17503e-05 -0.122097 -2.1919e-05
1.18466 0.000596189 0.0946147 2.97507e-05 -0.14356 -2.57721e-05
1.18315 0.000595428 0.0913146 2.87131e-05 -0.153188 -2.75004e-05
1.17463 0.000591144 0.0910785 2.86388e-05 -0.150893 -2.70885e-05
1.15923 0.000583395 0.0938038 2.94958e-05 -0.137029 -2.45997e-05
1.13717 0.000572291 0.0993429 3.12375e-05 -0.112208 -2.01438e-05
1.10899 0.000558108 0.107576 3.38262e-05 -0.0771448 -1.38491e-05
1.07551 0.000541261 0.118314 3.72028e-05 -0.0326625 -5.86361e-06
1.03767 0.000522218 0.131201 4.12549e-05 -0.000596351 -1.07058e-07
0.996433 0.000501464 0.145994 4.59066e-05 0.0154107 2.76655e-06
0.952848 0.000479529 0.162402 5.10659e-05 0.0331877 5.9579e-06
0.907954 0.000456936 0.18007 5.66215e-05 0.0523207 9.39268e-06
0.862757 0.00043419 0.198568 6.2438e-05 0.0721992 1.29613e-05
0.818264 0.000411798 0.217478 6.8384e-05 0.0923232 1.6574e-05
0.77551 0.000390282 0.236421 7.43406e-05 0.11235 2.01692e-05
0.735512 0.000370153 0.25505 8.01983e-05 0.131984 2.36939e-05
0.69922 0.000351889 0.273015 8.58473e-05 0.150862 2.7083e-05
0.667503 0.000335927 0.289983 9.11826e-05 0.168564 3.02609e-05
0.641127 0.000322653 0.305666 9.61139e-05 0.184714 3.31601e-05
0.620714 0.00031238 0.319831 0.000100568 0.19905 3.57336e-05
0.6067 0.000305327 0.332292 0.000104486 0.211404 3.79516e-05
0.599298 0.000301602 0.342891 0.000107819 0.221646 3.97901e-05
0.598468 0.000301184 0.351507 0.000110528 0.229651 4.12272e-05
0.603919 0.000303928 0.358066 0.000112591 0.235338 4.22481e-05
0.615137 0.000309573 0.362543 0.000113998 0.238705 4.28527e-05
0.631414 0.000317765 0.364962 0.000114759 0.239842 4.30567e-05
0.651851 0.000328049 0.365392 0.000114894 0.238893 4.28864e-05
0.67538 0.000339891 0.363943 0.000114439 0.236038 4.23739e-05
0.700826 0.000352697 0.36076 0.000113438 0.231482 4.1556e-05
0.726948 0.000365843 0.356028 0.00011195 0.225475 4.04775e-05
0.752481 0.000378692 0.349969 0.000110045 0.218309 3.9191e-05
0.77616 0.000390609 0.342828 0.000107799 0.210305 3.77542e-05
0.796774 0.000400983 0.334862 0.000105294 0.20179 3.62256e-05
0.813199 0.000409249 0.326331 0.000102612 0.193082 3.46624e-05
0.824417 0.000414895 0.317496 9.98337e-05 0.184485 3.31189e-05
0.829523 0.000417464 0.308605 9.7038e-05 0.176283 3.16466e-05
0.827732 0.000416563 0.299876 9.42932e-05 0.168736 3.02917e-05
0.818378 0.000411856 0.291485 9.16548e-05 0.162057 2.90927e-05
0.800925 0.000403072 0.283561 8.91632e-05 0.156409 2.80787e-05
0.775001 0.000390026 0.276184 8.68434e-05 0.151892 2.72679e-05
0.740428 0.000372627 0.269384 8.47053e-05 0.148552 2.66682e-05
0.697239 0.000350892 0.263144 8.27432e-05 0.146369 2.62764e-05
0.645683 0.000324946 0.257397 8.09362e-05 0.145267 2.60785e-05
0.58622 0.00029502 0.252027 7.92475e-05 0.145103 2.6049e-05
0.519501 0.000261443 0.246869 7.76257e-05 0.145678 2.61522e-05
0.450025 0.000226479 0.240901 7.57491e-05 0.146911 2.63737e-05
0.373436 0.000187935 0.234325 7.36815e-05 0.148888 2.67285e-05
0.292132 0.000147018 0.229967 7.2311e-05 0.149262 2.67957e-05
0.208877 0.000105119 0.223264 7.02034e-05 0.149972 2.69232e-05
0.122444 6.16208e-05 0.215358 6.77174e-05 0.149709 2.6876e-05
0.0334717 1.68449e-05 0.205978 6.47678e-05 0.148332 2.66287e-05
-0.0578662 -2.91217e-05 0.195228 6.13877e-05 0.145077 2.60443e-05
-0.148308 -7.4637e-05 0.181928 5.72057e-05 0.139984 2.51302e-05
-0.234239 -0.000117883 0.152373 4.79122e-05 0.132564 2.37981e-05
-0.313001 -0.00015752 0.106959 3.36324e-05 0.122191 2.19359e-05
-0.384739 -0.000193623 0.0613084 1.92779e-05 0.109776 1.97071e-05
-0.449514 -0.000226222 0.0141819 4.45938e-06 0.0942122 1.69131e-05
-0.505024 -0.000254158 -0.0337027 -1.05975e-05 0.0754934 1.35527e-05
-0.550474 -0.000277031 -0.0812858 -2.55596e-05 0.0536119 9.62448e-06
-0.586288 -0.000295055 -0.128433 -4.03844e-05 0.028957 5.1984e-06
-0.612485 -0.000308238 -0.175268 -5.51114e-05 0.00161718 2.90317e-07
-0.628821 -0.00031646 -0.221659 -6.96988e-05 -0.0283479 -5.08906e-06
-0.635795 -0.000319969 -0.267219 -8.40247e-05 -0.0606604 -1.08898e-05
-0.634366 -0.00031925 -0.311684 -9.80061e-05 -0.156556 -2.81051e-05
-0.625493 -0.000314785 -0.354792 -0.000111561 -0.279357 -5.01506e-05
-0.610234 -0.000307106 -0.396393 -0.000124642 -0.407096 -7.30823e-05
-0.590018 -0.000296932 -0.436217 -0.000137164 -0.536869 -9.63794e-05
-0.566481 -0.000285087 -0.474113 -0.000149081 -0.666429 -0.000119638
-0.541254 -0.000272391 -0.509927 -0.000160342 -0.794085 -0.000142555
-0.51595 -0.000259656 -0.543532 -0.000170909 -0.918148 -0.000164827
-0.492248 -0.000247728 -0.574813 -0.000180745 -1.03646 -0.000186066
-0.471604 -0.000237339 -0.60369 -0.000189825 -1.14654 -0.000205829
-0.455707 -0.000229338 -0.630148 -0.000198144 -1.24613 -0.000223706
-0.445823 -0.000224364 -0.654195 -0.000205706 -1.33066 -0.000238881
-0.443743 -0.000223318 -0.672173 -0.000211359 -1.30095 -0.000233547
-0.451188 -0.000227064 -0.678003 -0.000213192 -1.29401 -0.000232303
-0.464795 -0.000233912 -0.688583 -0.000216519 -1.30992 -0.000235158
-0.488951 -0.000246069 -0.695662 -0.000218745 -1.32776 -0.000238361
-0.521083 -0.00026224 -0.708435 -0.000222761 -1.32453 -0.00023778
-0.561876 -0.000282769 -0.723117 -0.000227378 -1.29981 -0.000233344
-0.612252 -0.000308121 -0.733736 -0.000230717 -1.26462 -0.000227026
-0.671199 -0.000337787 -0.740573 -0.000232867 -1.23319 -0.000221385
-0.738103 -0.000371457 -0.745337 -0.000234365 -1.20053 -0.00021552
-0.812319 -0.000408807 -0.750009 -0.000235834 -1.14903 -0.000206276
-0.892785 -0.000449302 -0.75441 -0.000237217 -1.07273 -0.000192578
-0.978235 -0.000492305 -0.757137 -0.000238075 -0.982042 -0.000176298
-1.06724 -0.000537099 -0.757875 -0.000238307 -0.890878 -0.000159932
-1.15835 -0.000582948 -0.757334 -0.000238137 -0.803593 -0.000144262
-1.24991 -0.00062903 -0.756264 -0.0002378 -0.714872 -0.000128335
-1.34023 -0.000674483 -0.754748 -0.000237324 -0.619863 -0.000111279
-1.42762 -0.000718464 -0.752561 -0.000236636 -0.521374 -9.35977e-05
-1.51047 -0.000760155 -0.74968 -0.00023573 -0.427367 -7.67215e-05
-1.5872 -0.000798771 -0.746341 -0.00023468 -0.343613 -6.16858e-05
-1.65488 -0.000832832 -0.74282 -0.000233573 -0.270262 -4.85178e-05
-1.6478 -0.000829268 -0.735841 -0.000231379 -0.207449 -3.72415e-05
-1.67338 -0.000842145 -0.716417 -0.000225271 -0.163127 -2.92848e-05
-1.68698 -0.000848987 -0.729347 -0.000229336 -0.111935 -2.00947e-05
-1.68226 -0.000846613 -0.720808 -0.000226652 -0.0793542 -1.42458e-05
-1.67869 -0.000844815 -0.706732 -0.000222226 -0.0762997 -1.36974e-05
-1.68436 -0.00084767 -0.703797 -0.000221303 -0.0754426 -1.35435e-05
-1.67468 -0.000842798 -0.708157 -0.000222674 -0.0748836 -1.34432e-05
-1.65882 -0.000834814 -0.706232 -0.000222068 -0.0769539 -1.38149e-05
-1.63425 -0.000822452 -0.705263 -0.000221764 -0.0987982 -1.77364e-05
-1.60357 -0.000807009 -0.707353 -0.000222421 -0.133246 -2.39204e-05
-1.56303 -0.000786608 -0.710319 -0.000223353 -0.179615 -3.22447e-05
-1.51467 -0.00076227 -0.714047 -0.000224526 -0.233538 -4.19251e-05
-1.46221 -0.000735869 -0.717784 -0.000225701 -0.294018 -5.27825e-05
-1.40594 -0.000707553 -0.722042 -0.00022704 -0.360173 -6.46587e-05
-1.34623 -0.0006775 -0.727162 -0.00022865 -0.431473 -7.74585e-05
-1.28523 -0.000646804 -0.733241 -0.000230561 -0.505939 -9.08268e-05
-1.22502 -0.000616504 -0.73978 -0.000232617 -0.581094 -0.000104319
-1.16667 -0.000587139 -0.74632 -0.000234674 -0.655037 -0.000117593
-1.11138 -0.000559309 -0.75304 -0.000236787 -0.726468 -0.000130417
-1.06075 -0.000533833 -0.76025 -0.000239054 -0.794194 -0.000142575
-1.01614 -0.000511379 -0.767815 -0.000241433 -0.856776 -0.00015381
-0.978443 -0.00049241 -0.775356 -0.000243804 -0.912675 -0.000163845
-0.94855 -0.000477366 -0.782751 -0.000246129 -0.960592 -0.000172447
-0.927269 -0.000466656 -0.790128 -0.000248449 -0.999672 -0.000179462
-0.915114 -0.000460539 -0.797527 -0.000250775 -1.02941 -0.000184801
-0.912181 -0.000459063 -0.804782 -0.000253056 -1.04945 -0.000188398
-0.916333 -0.000461152 -0.812052 -0.000255343 -1.0594 -0.000190184
-0.927721 -0.000466884 -0.819062 -0.000257547 -1.05909 -0.000190129
-0.945974 -0.000476069 -0.825657 -0.00025962 -1.04907 -0.000188331
-0.970515 -0.00048842 -0.832067 -0.000261636 -1.02988 -0.000184886
-1.00061 -0.000503564 -0.8382 -0.000263564 -1.00248 -0.000179966
-1.03536 -0.000521054 -0.843865 -0.000265346 -0.967822 -0.000173745
-1.07375 -0.000540372 -0.848873 -0.00026692 -0.927095 -0.000166433
-1.11459 -0.000560928 -0.853187 -0.000268277 -0.88165 -0.000158275
-1.15664 -0.000582087 -0.856812 -0.000269417 -0.832951 -0.000149532
-1.19856 -0.000603186 -0.859674 -0.000270317 -0.782485 -0.000140473
-1.23904 -0.000623556 -0.861644 -0.000270936 -0.731722 -0.00013136
-1.27676 -0.000642541 -0.862633 -0.000271247 -0.682108 -0.000122453
-1.31051 -0.000659527 -0.862615 -0.000271242 -0.63503 -0.000114001
-1.33918 -0.000673952 -0.861582 -0.000270917 -0.591765 -0.000106234
-1.3618 -0.000685337 -0.85949 -0.000270259 -0.553432 -9.93529e-05
-1.37761 -0.000693293 -0.85629 -0.000269253 -0.520969 -9.3525e-05
-1.38604 -0.000697536 -0.851961 -0.000267891 -0.495115 -8.88836e-05
-1.38674 -0.00069789 -0.846513 -0.000266179 -0.476392 -8.55225e-05
-1.37956 -0.000694274 -0.83997 -0.000264121 -0.465084 -8.34925e-05
-1.3645 -0.000686695 -0.832347 -0.000261724 -0.461222 -8.27992e-05
-1.34173 -0.000675236 -0.823669 -0.000258995 -0.464591 -8.3404e-05
-1.31154 -0.000660045 -0.813983 -0.00025595 -0.474744 -8.52267e-05
-1.27436 -0.000641333 -0.803348 -0.000252606 -0.491016 -8.81479e-05
-1.23077 -0.000619393 -0.79183 -0.000248984 -0.51255 -9.20137e-05
-1.1815 -0.000594601 -0.77949 -0.000245104 -0.538328 -9.66413e-05
-1.12745 -0.0005674 -0.766398 -0.000240987 -0.567204 -0.000101825
-1.0696 -0.000538287 -0.752629 -0.000236657 -0.597942 -0.000107343
-1.009 -0.00050779 -0.738257 -0.000232138 -0.629255 -0.000112965
-0.946722 -0.000476446 -0.723347 -0.00022745 -0.659834 -0.000118454
-0.883795 -0.000444778 -0.707961 -0.000222612 -0.688397 -0.000123582
-0.821198 -0.000413275 -0.692155 -0.000217642 -0.713714 -0.000128127
-0.759834 -0.000382393 -0.675975 -0.000212554 -0.734657 -0.000131886
-0.700547 -0.000352556 -0.659456 -0.00020736 -0.75022 -0.00013468
-0.644157 -0.000324177 -0.642616 -0.000202065 -0.75956 -0.000136357
-0.591465 -0.00029766 -0.625463 -0.000196671 -0.762015 -0.000136798
-0.54323 -0.000273385 -0.607999 -0.00019118 -0.757115 -0.000135918
-0.500097 -0.000251678 -0.590221 -0.00018559 -0.744584 -0.000133669
-0.462532 -0.000232773 -0.572121 -0.000179898 -0.72434 -0.000130034
-0.430781 -0.000216794 -0.553687 -0.000174102 -0.696483 -0.000125034
-0.404846 -0.000203742 -0.53491 -0.000168198 -0.661293 -0.000118716
-0.384499 -0.000193503 -0.515789 -0.000162185 -0.619216 -0.000111162
-0.369317 -0.000185862 -0.49633 -0.000156067 -0.570849 -0.00010248
-0.358713 -0.000180526 -0.476547 -0.000149846 -0.516929 -9.27998e-05
-0.351965 -0.000177129 -0.456461 -0.00014353 -0.458311 -8.22765e-05
-0.348237 -0.000175253 -0.4361 -0.000137128 -0.395948 -7.1081e-05
-0.346618 -0.000174439 -0.415498 -0.00013065 -0.330871 -5.93984e-05
-0.346168 -0.000174212 -0.394689 -0.000124106 -0.264164 -4.74231e-05
-0.345938 -0.000174096 -0.373712 -0.00011751 -0.196939 -3.53548e-05
-0.344967 -0.000173608 -0.352612 -0.000110876 -0.130307 -2.33929e-05
-0.34227 -0.00017225 -0.331439 -0.000104218 -0.0653497 -1.17317e-05
-0.336804 -0.000169499 -0.310434 -9.76131e-05 -0.033126 -5.94681e-06
-0.327447 -0.000164791 -0.290865 -9.14599e-05 -0.019857 -3.56475e-06
-0.313782 -0.000157914 -0.270864 -8.51708e-05 -0.00556752 -9.99487e-07
-0.294789 -0.000148355 -0.251166 -7.8977e-05 0.00852721 1.53082e-06
-0.274656 -0.000138223 -0.229902 -7.22908e-05 0.0189539 3.40263e-06
-0.258091 -0.000129887 -0.203293 -6.39237e-05 0.0249077 4.47147e-06
-0.229193 -0.000115343 -0.185793 -5.84209e-05 0.0325435 5.84224e-06
-0.200047 -0.000100675 -0.164996 -5.18815e-05 0.0397313 7.13261e-06
-0.162231 -8.1644e-05 -0.143834 -4.52273e-05 0.0459311 8.24562e-06
-0.118329 -5.95499e-05 -0.122224 -3.84322e-05 0.0503755 9.04348e-06
-0.0723547 -3.64131e-05 -0.1018 -3.201e-05 0.0526545 9.45261e-06
-0.0335975 -1.69082e-05 -0.0819901 -2.5781e-05 0.0535394 9.61147e-06
0.0138635 6.97694e-06 -0.063352 -1.99205e-05 0.0545195 9.78742e-06
0.0621065 3.12556e-05 -0.0415369 -1.30609e-05 0.0534983 9.60408e-06
0.109461 5.5087e-05 -0.0231081 -7.26615e-06 0.053102 9.53294e-06
0.157856 7.94423e-05 -0.00906661 -2.85092e-06 0.0508087 9.12124e-06
0.20816 0.000104758 -0.0069016 -2.17015e-06 0.0476659 8.55703e-06
0.257669 0.000129674 -0.00410487 -1.29074e-06 0.0446262 8.01136e-06
0.305143 0.000153566 -0.00147183 -4.62805e-07 0.0418735 7.51718e-06
0.351225 0.000176757 0.000796819 2.50553e-07 0.0392442 7.04517e-06
0.395423 0.000199 0.00305474 9.60536e-07 0.0367609 6.59937e-06
0.436432 0.000219638 0.00578544 1.81918e-06 0.0348584 6.25782e-06
0.473719 0.000238403 0.00934231 2.93761e-06 0.0338036 6.06847e-06
0.50729 0.000255298 0.0136555 4.29385e-06 0.0336809 6.04643e-06
0.536776 0.000270137 0.018543 5.83068e-06 0.0345555 6.20345e-06
0.561704 0.000282683 0.0241057 7.5798e-06 0.036535 6.55881e-06
0.581996 0.000292894 0.0306414 9.6349e-06 0.0396832 7.12397e-06
0.597763 0.000300829 0.0382429 1.20251e-05 0.0439955 7.89813e-06
0.609048 0.000306509 0.0467326 1.46947e-05 0.0494433 8.87612e-06
0.615971 0.000309993 0.055951 1.75933e-05 0.0559884 1.00511e-05
0.618862 0.000311447 0.0658955 2.07203e-05 0.0635621 1.14108e-05
0.618159 0.000311094 0.0765735 2.40779e-05 0.0720434 1.29333e-05
0.614339 0.000309171 0.0878682 2.76294e-05 0.0801527 1.43891e-05
0.608011 0.000305987 0.0992654 3.12131e-05 0.0865951 1.55457e-05
0.599913 0.000301912 0.110119 3.46258e-05 0.0956805 1.71767e-05
0.590437 0.000297142 0.121493 3.82022e-05 0.104968 1.88439e-05
0.5806 0.000292192 0.132799 4.17574e-05 0.113339 2.03468e-05
0.570929 0.000287325 0.144181 4.53363e-05 0.120169 2.15729e-05
0.562225 0.000282945 0.155084 4.87649e-05 0.126625 2.27319e-05
0.555191 0.000279405 0.165362 5.19964e-05 0.13352 2.39696e-05
0.550513 0.00027705 0.174998 5.50266e-05 0.140539 2.52297e-05
0.548815 0.000276196 0.183958 5.78439e-05 0.146679 2.6332e-05
0.550642 0.000277115 0.192118 6.04097e-05 0.151297 2.7161e-05
0.556449 0.000280038 0.199302 6.26688e-05 0.154614 2.77566e-05
0.566562 0.000285127 0.205417 6.45916e-05 0.157193 2.82195e-05
0.581172 0.00029248 0.21044 6.61711e-05 0.159225 2.85842e-05
0.60035 0.000302132 0.214374 6.7408e-05 0.160288 2.87751e-05
0.624051 0.000314059 0.217182 6.82909e-05 0.159571 2.86464e-05
0.652119 0.000328184 0.218792 6.87971e-05 0.157346 2.8247e-05
0.684252 0.000344356 0.219315 6.89616e-05 0.154132 2.767e-05
0.720073 0.000362383 0.218879 6.88245e-05 0.15023 2.69695e-05
0.759089 0.000382018 0.217692 6.84512e-05 0.145542 2.61278e-05
0.800729 0.000402974 0.21594 6.79004e-05 0.139991 2.51314e-05
0.84436 0.000424931 0.213823 6.72347e-05 0.133807 2.40212e-05
0.889299 0.000447548 0.211575 6.65278e-05 0.127456 2.28811e-05
0.93474 0.000470416 0.209475 6.58674e-05 0.121359 2.17865e-05
0.979518 0.000492951 0.207892 6.53698e-05 0.115681 2.07672e-05
1.02324 0.000514953 0.206766 6.50158e-05 0.110601 1.98553e-05
1.06514 0.000536042 0.206447 6.49155e-05 0.106315 1.90858e-05
1.10473 0.000555965 0.207244 6.51659e-05 0.10308 1.85051e-05
1.1414 0.000574422 0.209334 6.58232e-05 0.101232 1.81733e-05
1.17457 0.000591111 0.212803 6.6914e-05 0.100965 1.81253e-05
1.20376 0.000605803 0.217728 6.84626e-05 0.102385 1.83804e-05
1.22971 0.00061886 0.223551 7.02936e-05 0.105748 1.8984e-05
1.24742 0.000627774 0.231383 7.27562e-05 0.110781 1.98876e-05
1.26084 0.000634526 0.241124 7.58192e-05 0.117113 2.10243e-05
1.26904 0.000638657 0.251679 7.91381e-05 0.125927 2.26065e-05
1.27131 0.000639798 0.264115 8.30486e-05 0.136254 2.44604e-05
1.26809 0.000638177 0.277787 8.73477e-05 0.148378 2.6637e-05
1.25976 0.000633987 0.292719 9.20429e-05 0.161701 2.90287e-05
1.24665 0.000627386 0.308512 9.70088e-05 0.176311 3.16516e-05
1.22902 0.000618515 0.325118 0.00010223 0.190159 3.41377e-05
1.20763 0.000607748 0.341625 0.000107421 0.200957 3.6076e-05
1.18331 0.000595512 0.357503 0.000112414 0.215908 3.876e-05
1.15645 0.000581992 0.373828 0.000117547 0.231688 4.15929e-05
1.12815 0.000567752 0.389828 0.000122578 0.24554 4.40797e-05
1.09887 0.000553015 0.405707 0.000127571 0.256876 4.61147e-05
1.06959 0.000538282 0.420596 0.000132253 0.267738 4.80646e-05
1.04104 0.000523911 0.434283 0.000136556 0.27941 5.016e-05
1.01393 0.000510267 0.446637 0.000140441 0.291313 5.22968e-05
0.988907 0.000497676 0.457607 0.00014389 0.301736 5.4168e-05
0.966532 0.000486415 0.466934 0.000146823 0.309711 5.55997e-05
0.946067 0.000476117 0.474388 0.000149167 0.315657 5.66671e-05
0.927827 0.000466937 0.479704 0.000150839 0.320389 5.75166e-05
0.911863 0.000458903 0.482718 0.000151786 0.324256 5.82109e-05
0.89806 0.000451956 0.483562 0.000152052 0.326619 5.86351e-05
0.88626 0.000446018 0.482241 0.000151636 0.326517 5.86167e-05
0.876334 0.000441023 0.478618 0.000150497 0.323461 5.8068e-05
0.868093 0.000436875 0.472616 0.00014861 0.318397 5.7159e-05
0.861218 0.000433415 0.464392 0.000146024 0.312008 5.6012e-05
0.855309 0.000430441 0.45417 0.00014281 0.30414 5.45995e-05
0.849842 0.00042769 0.442181 0.00013904 0.294315 5.28357e-05
0.844225 0.000424863 0.428554 0.000134755 0.282516 5.07176e-05
0.837832 0.000421646 0.413435 0.000130001 0.269298 4.83447e-05
0.830055 0.000417732 0.397032 0.000124843 0.255317 4.58348e-05
0.820287 0.000412817 0.379591 0.000119359 0.240857 4.3239e-05
0.807911 0.000406588 0.361329 0.000113617 0.225862 4.0547e-05
0.792325 0.000398744 0.342417 0.00010767 0.2103 3.77532e-05
0.773005 0.000389021 0.323006 0.000101566 0.194407 3.49002e-05
0.749558 0.000377222 0.303251 9.53544e-05 0.178573 3.20577e-05
0.721743 0.000363223 0.283305 8.90827e-05 0.16307 2.92746e-05
0.689459 0.000346976 0.263302 8.2793e-05 0.147941 2.65585e-05
0.652731 0.000328492 0.243341 7.65164e-05 0.13312 2.38978e-05
0.611677 0.000307832 0.223489 7.02741e-05 0.118607 2.12926e-05
0.566499 0.000285096 0.203783 6.40776e-05 0.104497 1.87594e-05
0.517462 0.000260417 0.184229 5.79291e-05 0.0908646 1.63121e-05
0.464887 0.000233959 0.164803 5.18209e-05 0.0776744 1.39442e-05
0.409172 0.000205919 0.145455 4.57369e-05 0.0647915 1.16315e-05
0.350782 0.000176534 0.126118 3.96568e-05 0.0520718 9.34799e-06
0.290266 0.000146079 0.106719 3.35569e-05 0.0394185 7.07645e-06
0.228248 0.000114868 0.0871776 2.74122e-05 0.0267626 4.80446e-06
0.165418 8.32482e-05 0.0674136 2.11976e-05 0.0140113 2.51533e-06
0.102499 5.15834e-05 0.0473541 1.48901e-05 0.00103153 1.85182e-07
0.0402064 2.02342e-05 0.0269362 8.46983e-06 -0.0123182 -2.21137e-06
-0.0197219 -9.92521e-06 -0.00980672 -3.08363e-06 -0.0262425 -4.71109e-06
-0.0783023 -3.94063e-05 -0.0498707 -1.56814e-05 -0.040932 -7.34817e-06
-0.137582 -6.92391e-05 -0.0915731 -2.87943e-05 -0.0558956 -1.00344e-05
-0.1933 -9.728e-05 -0.133217 -4.1889e-05 -0.0852469 -1.53036e-05
-0.235926 -0.000118732 -0.173084 -5.44248e-05 -0.127318 -2.28563e-05
-0.276641 -0.000139222 -0.210261 -6.61147e-05 -0.17101 -3.06999e-05
-0.312424 -0.00015723 -0.245661 -7.7246e-05 -0.219566 -3.94168e-05
-0.343797 -0.000173019 -0.281583 -8.85412e-05 -0.267389 -4.8002e-05
-0.369304 -0.000185856 -0.315846 -9.93149e-05 -0.316359 -5.67932e-05
-0.389741 -0.000196141 -0.347952 -0.00010941 -0.366389 -6.57746e-05
-0.405674 -0.000204159 -0.377587 -0.000118729 -0.418872 -7.51963e-05
-0.416906 -0.000209811 -0.405336 -0.000127454 -0.473026 -8.49182e-05
-0.423604 -0.000213182 -0.431428 -0.000135659 -0.527171 -9.46385e-05
-0.426555 -0.000214667 -0.455517 -0.000143233 -0.579899 -0.000104104
-0.426413 -0.000214596 -0.477167 -0.000150041 -0.630943 -0.000113268
-0.423663 -0.000213212 -0.496303 -0.000156058 -0.680551 -0.000122173
-0.41898 -0.000210855 -0.51319 -0.000161368 -0.728328 -0.00013075
-0.413215 -0.000207954 -0.527954 -0.00016601 -0.773037 -0.000138777
-0.407139 -0.000204896 -0.540461 -0.000169943 -0.813337 -0.000146011
-0.401463 -0.00020204 -0.550597 -0.00017313 -0.84847 -0.000152318
-0.396952 -0.00019977 -0.558457 -0.000175602 -0.878199 -0.000157655
-0.394372 -0.000198471 -0.564235 -0.000177419 -0.902251 -0.000161973
-0.3944 -0.000198485 -0.568034 -0.000178613 -0.920004 -0.00016516
-0.397621 -0.000200106 -0.569895 -0.000179198 -0.930692 -0.000167079
-0.404549 -0.000203593 -0.569915 -0.000179205 -0.933808 -0.000167638
-0.415596 -0.000209152 -0.568236 -0.000178677 -0.927801 -0.00016656
-0.431064 -0.000216936 -0.564838 -0.000177608 -0.912968 -0.000163897
-0.451079 -0.000227009 -0.55992 -0.000176062 -0.889505 -0.000159685
-0.475697 -0.000239399 -0.553612 -0.000174078 -0.857567 -0.000153952
-0.504846 -0.000254068 -0.546157 -0.000171734 -0.817116 -0.00014669
-0.538335 -0.000270922 -0.537777 -0.000169099 -0.768568 -0.000137974
-0.575879 -0.000289816 -0.528653 -0.00016623 -0.712885 -0.000127978
-0.617102 -0.000310562 -0.51896 -0.000163182 -0.651259 -0.000116915
-0.66154 -0.000332926 -0.508895 -0.000160018 -0.584803 -0.000104985
-0.708639 -0.000356629 -0.498686 -0.000156807 -0.514524 -9.2368e-05
-0.757775 -0.000381357 -0.488548 -0.00015362 -0.441524 -7.9263e-05
-0.808255 -0.000406761 -0.478678 -0.000150516 -0.367148 -6.59108e-05
-0.859338 -0.000432469 -0.469254 -0.000147553 -0.2929 -5.25817e-05
-0.91025 -0.000458091 -0.46046 -0.000144787 -0.220253 -3.95401e-05
-0.960214 -0.000483236 -0.452482 -0.000142279 -0.150538 -2.70248e-05
-1.00847 -0.00050752 -0.445497 -0.000140083 -0.0849806 -1.52558e-05
-1.05424 -0.000530557 -0.439933 -0.000138333 -0.0619958 -1.11296e-05
-1.09674 -0.000551946 -0.436683 -0.000137311 -0.0492884 -8.84832e-06
-1.13581 -0.000571608 -0.434364 -0.000136582 -0.0374465 -6.72245e-06
-1.1706 -0.000589116 -0.433682 -0.000136368 -0.0276568 -4.96498e-06
-1.20098 -0.000604403 -0.433972 -0.000136459 -0.0217643 -3.90716e-06
-1.22657 -0.000617284 -0.435838 -0.000137045 -0.0188434 -3.3828e-06
-1.24725 -0.000627688 -0.439537 -0.000138209 -0.017518 -3.14485e-06
-1.26299 -0.00063561 -0.445057 -0.000139944 -0.0176763 -3.17327e-06
-1.27387 -0.000641086 -0.452396 -0.000142252 -0.0205024 -3.68061e-06
-1.2801 -0.000644219 -0.461581 -0.00014514 -0.0265696 -4.7698e-06
-1.28199 -0.000645172 -0.472705 -0.000148638 -0.0357167 -6.41191e-06
-1.27994 -0.000644142 -0.485838 -0.000152768 -0.0473523 -8.50075e-06
-1.27447 -0.000641386 -0.500884 -0.000157499 -0.061015 -1.09535e-05
-1.26608 -0.000637166 -0.517767 -0.000162807 -0.07588 -1.36221e-05
-1.25548 -0.000631832 -0.536193 -0.000168601 -0.132497 -2.37859e-05
-1.24338 -0.00062574 -0.555769 -0.000174757 -0.19645 -3.5267e-05
-1.23044 -0.000619231 -0.577331 -0.000181537 -0.264629 -4.75065e-05
-1.21768 -0.000612809 -0.600306 -0.000188761 -0.335026 -6.01444e-05
-1.20577 -0.000606813 -0.624864 -0.000196483 -0.406304 -7.29402e-05
-1.19141 -0.000599589 -0.650032 -0.000204397 -0.47901 -8.59925e-05
-1.17578 -0.000591719 -0.678157 -0.00021324 -0.55122 -9.89557e-05
-1.16568 -0.000586636 -0.705222 -0.000221751 -0.624177 -0.000112053
-1.1582 -0.000582872 -0.734279 -0.000230887 -0.69517 -0.000124798
-1.15436 -0.000580941 -0.764036 -0.000240244 -0.763199 -0.000137011
-1.15494 -0.000581232 -0.794181 -0.000249723 -0.827588 -0.00014857
-1.1601 -0.000583831 -0.824226 -0.00025917 -0.88819 -0.000159449
-1.16962 -0.000588622 -0.854068 -0.000268554 -0.945078 -0.000169662
-1.18349 -0.000595602 -0.883914 -0.000277939 -0.997529 -0.000179078
-1.20066 -0.000604242 -0.913798 -0.000287335 -1.04473 -0.000187552
-1.22168 -0.00061482 -0.943399 -0.000296643 -1.08632 -0.000195017
-1.24771 -0.000627922 -0.971165 -0.000305374 -1.1229 -0.000201585
-1.27431 -0.000641309 -0.998404 -0.000313939 -1.1546 -0.000207276
-1.30426 -0.000656379 -1.02467 -0.000322198 -1.18095 -0.000212005
-1.33594 -0.000672326 -1.04981 -0.000330102 -1.20246 -0.000215867
-1.36847 -0.000688694 -1.07335 -0.000337506 -1.21896 -0.00021883
-1.40109 -0.000705113 -1.09525 -0.00034439 -1.23125 -0.000221035
-1.43355 -0.000721445 -1.1157 -0.000350823 -1.23952 -0.00022252
-1.46503 -0.000737291 -1.13444 -0.000356714 -1.24437 -0.000223391
-1.49463 -0.000752183 -1.15114 -0.000361966 -1.24619 -0.000223717
-1.5218 -0.000765858 -1.16568 -0.000366538 -1.24532 -0.000223562
-1.54613 -0.000778105 -1.17806 -0.00037043 -1.24237 -0.000223032
-1.56706 -0.000788638 -1.18822 -0.000373625 -1.23792 -0.000222233
-1.58409 -0.000797209 -1.19601 -0.000376075 -1.23248 -0.000221256
-1.59691 -0.000803658 -1.20133 -0.000377747 -1.2264 -0.000220165
-1.60528 -0.000807869 -1.20414 -0.000378631 -1.22005 -0.000219025
-1.60896 -0.000809721 -1.20443 -0.000378723 -1.21373 -0.000217891
-1.60756 -0.000809018 -1.2022 -0.000378021 -1.20768 -0.000216804
-1.60139 -0.000805911 -1.1974 -0.000376513 -1.202 -0.000215785
-1.59052 -0.000800443 -1.19014 -0.000374229 -1.1966 -0.000214815
-1.57512 -0.000792692 -1.18037 -0.000371158 -1.19135 -0.000213873
-1.55554 -0.000782838 -1.16821 -0.000367334 -1.186 -0.000212911
-1.53214 -0.000771063 -1.15377 -0.000362791 -1.18019 -0.00021187
-1.50519 -0.000757501 -1.13714 -0.000357564 -1.17352 -0.000210673
-1.475 -0.000742309 -1.11845 -0.000351687 -1.1655 -0.000209232
-1.442 -0.000725697 -1.09785 -0.000345208 -1.15559 -0.000207454
-1.40664 -0.000707906 -1.07549 -0.000338177 -1.14327 -0.000205241
-1.36947 -0.000689199 -1.05153 -0.000330643 -1.12802 -0.000202504
-1.33107 -0.000669872 -1.02613 -0.000322656 -1.10939 -0.000199159
-1.29204 -0.00065023 -0.999452 -0.000314269 -1.08695 -0.000195131
-1.25293 -0.000630549 -0.971667 -0.000305532 -1.06036 -0.000190357
-1.21424 -0.000611076 -0.942929 -0.000296496 -1.02934 -0.000184788
-1.17636 -0.000592015 -0.913391 -0.000287207 -0.993735 -0.000178397
-1.13962 -0.000573524 -0.883203 -0.000277715 -0.953492 -0.000171172
-1.10421 -0.000555703 -0.852509 -0.000268064 -0.908668 -0.000163125
-1.07022 -0.000538599 -0.821442 -0.000258295 -0.859435 -0.000154287
-1.03765 -0.000522209 -0.790128 -0.000248449 -0.806083 -0.000144709
-1.00639 -0.000506475 -0.758681 -0.00023856 -0.749016 -0.000134464
-0.976224 -0.000491293 -0.727203 -0.000228663 -0.688748 -0.000123645
-0.946862 -0.000476516 -0.695786 -0.000218784 -0.625888 -0.00011236
-0.91794 -0.000461961 -0.664508 -0.000208949 -0.561126 -0.000100734
-0.889038 -0.000447416 -0.633434 -0.000199178 -0.495219 -8.89024e-05
-0.859708 -0.000432655 -0.602616 -0.000189487 -0.428972 -7.70096e-05
-0.829496 -0.000417451 -0.572096 -0.00017989 -0.363217 -6.52053e-05
-0.797968 -0.000401584 -0.541902 -0.000170396 -0.298796 -5.36403e-05
-0.756115 -0.000380521 -0.50465 -0.000158683 -0.221394 -3.97449e-05
-0.710935 -0.000357784 -0.467967 -0.000147148 -0.148866 -2.67245e-05
-0.66186 -0.000333087 -0.431871 -0.000135798 -0.0825456 -1.48187e-05
-0.608277 -0.00030612 -0.396746 -0.000124753 -0.0534301 -9.59184e-06
-0.549611 -0.000276596 -0.363067 -0.000114163 -0.0397777 -7.14095e-06
-0.48557 -0.000244367 -0.329922 -0.000103741 -0.0265876 -4.77305e-06
-0.415799 -0.000209254 -0.296911 -9.3361e-05 -0.0160063 -2.87347e-06
-0.340366 -0.000171292 -0.264065 -8.30328e-05 -0.00958688 -1.72105e-06
-0.259572 -0.000130632 -0.23191 -7.2922e-05 -0.00393158 -7.05802e-07
-0.173985 -8.75594e-05 -0.200402 -6.30147e-05 0.00168394 3.02303e-07
-0.0989313 -4.9788e-05 -0.165381 -5.20026e-05 0.00528899 9.49486e-07
-0.0232416 -1.16965e-05 -0.134826 -4.23947e-05 0.00656794 1.17909e-06
0.0415088 2.08897e-05 -0.107204 -3.37093e-05 0.00810497 1.45502e-06
0.110096 5.54068e-05 -0.0739127 -2.32412e-05 0.00818711 1.46976e-06
0.17407 8.76022e-05 -0.0537826 -1.69114e-05 0.0094148 1.69016e-06
0.235005 0.000118269 -0.0467312 -1.46942e-05 0.00992278 1.78135e-06
0.295133 0.000148528 -0.0372384 -1.17093e-05 0.0109686 1.9691e-06
0.349721 0.000176 -0.0268747 -8.45051e-06 0.0128341 2.304e-06
0.398894 0.000200747 -0.0169009 -5.31432e-06 0.0157594 2.82915e-06
0.44351 0.0002232 -0.00601929 -1.89271e-06 0.0198684 3.5668e-06
0.481826 0.000242483 0.00629016 1.97788e-06 0.0254905 4.57609e-06
0.513929 0.000258639 0.0196412 6.17599e-06 0.031435 5.64325e-06
0.540536 0.000272029 0.0331081 1.04105e-05 0.0380242 6.82615e-06
0.561408 0.000282534 0.0472863 1.48687e-05 0.0461556 8.28591e-06
0.577166 0.000290464 0.0624606 1.96402e-05 0.0548313 9.84339e-06
0.588705 0.000296271 0.078324 2.46283e-05 0.063354 1.13734e-05
0.596721 0.000300305 0.0943011 2.96521e-05 0.0727102 1.3053e-05
0.602129 0.000303027 0.110451 3.47304e-05 0.0830165 1.49032e-05
0.605996 0.000304973 0.126722 3.98465e-05 0.0934488 1.67761e-05
0.609271 0.000306621 0.14273 4.48803e-05 0.103314 1.85471e-05
0.612954 0.000308474 0.158155 4.97305e-05 0.112784 2.02472e-05
0.618031 0.000311029 0.172885 5.43621e-05 0.122031 2.19071e-05
0.625375 0.000314726 0.186765 5.87264e-05 0.130697 2.34629e-05
0.635772 0.000319958 0.199582 6.27567e-05 0.138274 2.48231e-05
0.649889 0.000327062 0.211207 6.64122e-05 0.144679 2.59729e-05
0.668226 0.000336291 0.221603 6.96811e-05 0.150067 2.69403e-05
0.69112 0.000347812 0.230749 7.2557e-05 0.154408 2.77196e-05
0.718703 0.000361694 0.238643 7.50392e-05 0.157525 2.82791e-05
0.750869 0.000377881 0.245337 7.71442e-05 0.159407 2.86169e-05
0.787292 0.000396211 0.250907 7.88956e-05 0.159835 2.86939e-05
0.827465 0.000416429 0.255384 8.03032e-05 0.159171 2.85745e-05
0.870686 0.00043818 0.258948 8.1424e-05 0.157764 2.83219e-05
0.916132 0.000461051 0.261846 8.23351e-05 0.155607 2.79347e-05
0.962865 0.00048457 0.264353 8.31236e-05 0.152869 2.74433e-05
1.0099 0.000508241 0.26672 8.38676e-05 0.149994 2.69271e-05
1.05625 0.000531566 0.269227 8.46561e-05 0.147483 2.64764e-05
1.10097 0.000554071 0.272195 8.55893e-05 0.145589 2.61363e-05
1.14318 0.000575318 0.275925 8.67621e-05 0.14451 2.59426e-05
1.18212 0.00059491 0.280668 8.82535e-05 0.144527 2.59457e-05
1.21707 0.000612503 0.286628 9.01275e-05 0.14597 2.62047e-05
1.2475 0.000627816 0.293957 9.2432e-05 0.14902 2.67523e-05
1.27297 0.000640636 0.30274 9.51937e-05 0.153735 2.75987e-05
1.29322 0.000650825 0.312982 9.84143e-05 0.160131 2.87468e-05
1.30815 0.000658335 0.324618 0.000102073 0.168223 3.01996e-05
1.31783 0.000663211 0.337528 0.000106133 0.177943 3.19445e-05
1.32255 0.000665586 0.351531 0.000110536 0.185797 3.33545e-05
1.32287 0.000665747 0.365388 0.000114893 0.197033 3.53716e-05
1.31904 0.000663816 0.380051 0.000119503 0.208576 3.74439e-05
1.3118 0.000660173 0.395014 0.000124209 0.219938 3.94835e-05
1.30157 0.000655025 0.410158 0.000128971 0.229983 4.12868e-05
1.28936 0.000648884 0.42494 0.000133619 0.240849 4.32376e-05
1.2759 0.000642107 0.438216 0.000137793 0.252853 4.53924e-05
1.25805 0.000633126 0.451846 0.000142079 0.263502 4.73043e-05
1.24337 0.000625734 0.463523 0.000145751 0.273031 4.90148e-05
1.22953 0.000618773 0.474593 0.000149231 0.28153 5.05406e-05
1.21603 0.000611977 0.483968 0.000152179 0.289595 5.19885e-05
1.2021 0.000604965 0.49128 0.000154478 0.296114 5.31587e-05
1.18774 0.000597741 0.496185 0.000156021 0.301032 5.40416e-05
1.173 0.000590322 0.499312 0.000157004 0.304391 5.46447e-05
1.15786 0.000582703 0.500465 0.000157367 0.306343 5.49952e-05
1.14194 0.000574693 0.499275 0.000156993 0.30669 5.50574e-05
1.12503 0.00056618 0.495887 0.000155927 0.305048 5.47626e-05
1.10683 0.000557022 0.490583 0.000154259 0.301805 5.41804e-05
1.08698 0.000547032 0.483394 0.000151999 0.29721 5.33555e-05
1.06511 0.000536024 0.474387 0.000149167 0.291119 5.22621e-05
1.04077 0.000523777 0.463777 0.00014583 0.283619 5.09156e-05
1.01343 0.000510019 0.451729 0.000142042 0.275005 4.93692e-05
0.982498 0.000494451 0.438274 0.000137811 0.26551 4.76646e-05
0.947376 0.000476775 0.423437 0.000133146 0.25515 4.58048e-05
0.907606 0.000456761 0.407286 0.000128068 0.243921 4.3789e-05
0.862967 0.000434296 0.389874 0.000122592 0.231902 4.16314e-05
0.813495 0.000409398 0.371206 0.000116722 0.219187 3.93487e-05
0.759405 0.000382177 0.351298 0.000110463 0.20577 3.69401e-05
0.701006 0.000352787 0.33017 0.000103819 0.19158 3.43927e-05
0.638678 0.00032142 0.307804 9.67863e-05 0.176561 3.16965e-05
0.572873 0.000288303 0.284161 8.93518e-05 0.160691 2.88474e-05
0.50409 0.000253688 0.259213 8.15072e-05 0.143923 2.58373e-05
0.432813 0.000217817 0.232944 7.32471e-05 0.126182 2.26523e-05
0.359456 0.000180899 0.205325 6.45625e-05 0.107397 1.928e-05
0.284379 0.000143116 0.176331 5.54455e-05 0.0875415 1.57156e-05
0.207975 0.000104665 0.145971 4.58991e-05 0.0666215 1.196e-05
0.130754 6.58029e-05 0.11431 3.59439e-05 0.0446558 8.01666e-06
0.053285 2.68162e-05 0.0814703 2.56176e-05 0.021687 3.89328e-06
-0.0149699 -7.53373e-06 0.0471189 1.48161e-05 -0.00224812 -4.03585e-07
-0.0761862 -3.83414e-05 0.00477674 1.502e-06 -0.0263907 -4.73769e-06
-0.135698 -6.82911e-05 -0.0522675 -1.64351e-05 -0.0516624 -9.2745e-06
-0.190559 -9.59004e-05 -0.108863 -3.42309e-05 -0.0935605 -1.67961e-05
-0.24313 -0.000122357 -0.164793 -5.18176e-05 -0.16374 -2.93949e-05
-0.292306 -0.000147106 -0.218272 -6.86338e-05 -0.238576 -4.28294e-05
-0.336422 -0.000169307 -0.269406 -8.47122e-05 -0.314254 -5.64153e-05
-0.376427 -0.00018944 -0.32047 -0.000100769 -0.38682 -6.94423e-05
-0.412194 -0.00020744 -0.369421 -0.000116161 -0.4581 -8.22387e-05
-0.443232 -0.00022306 -0.415098 -0.000130524 -0.530708 -9.52735e-05
-0.470161 -0.000236613 -0.458086 -0.000144041 -0.602467 -0.000108156
-0.493236 -0.000248225 -0.49867 -0.000156802 -0.67019 -0.000120313
-0.512616 -0.000257979 -0.535989 -0.000168537 -0.733125 -0.000131612
-0.52885 -0.000266149 -0.569552 -0.00017909 -0.792431 -0.000142258
-0.542382 -0.000272959 -0.599489 -0.000188504 -0.847581 -0.000152159
-0.553646 -0.000278627 -0.62577 -0.000196768 -0.896569 -0.000160953
-0.563243 -0.000283457 -0.648079 -0.000203783 -0.938035 -0.000168397
-0.571745 -0.000287736 -0.666245 -0.000209495 -0.972175 -0.000174526
-0.579656 -0.000291717 -0.680327 -0.000213923 -0.999008 -0.000179343
-0.587449 -0.000295639 -0.690352 -0.000217075 -1.01764 -0.000182687
-0.5955 -0.000299691 -0.696283 -0.00021894 -1.02714 -0.000184394
-0.604101 -0.000304019 -0.698181 -0.000219537 -1.02711 -0.000184388
-0.613559 -0.000308779 -0.696051 -0.000218867 -1.01667 -0.000182515
-0.624132 -0.0003141 -0.689976 -0.000216957 -0.996186 -0.000178837
-0.636024 -0.000320085 -0.680168 -0.000213873 -0.965676 -0.000173359
-0.64934 -0.000326786 -0.666964 -0.000209721 -0.925202 -0.000166093
-0.664036 -0.000334182 -0.650657 -0.000204593 -0.875558 -0.000157181
-0.679933 -0.000342182 -0.631526 -0.000198578 -0.817943 -0.000146838
-0.696752 -0.000350647 -0.609919 -0.000191783 -0.753393 -0.00013525
-0.714136 -0.000359395 -0.586247 -0.00018434 -0.682856 -0.000122587
-0.731655 -0.000368212 -0.560909 -0.000176373 -0.607572 -0.000109072
-0.748804 -0.000376842 -0.534288 -0.000168002 -0.529099 -9.49846e-05
-0.765018 -0.000385002 -0.50678 -0.000159352 -0.448996 -8.06043e-05
-0.7797 -0.00039239 -0.47879 -0.000150551 -0.368694 -6.61884e-05
-0.792244 -0.000398704 -0.450703 -0.000141719 -0.289637 -5.19961e-05
-0.802027 -0.000403627 -0.422876 -0.000132969 -0.213361 -3.83028e-05
-0.806762 -0.00040601 -0.395962 -0.000124507 -0.141179 -2.53446e-05
-0.805856 -0.000405554 -0.36972 -0.000116255 -0.077605 -1.39317e-05
-0.799223 -0.000402216 -0.345701 -0.000108703 -0.0633737 -1.13769e-05
-0.787071 -0.0003961 -0.323238 -0.000101639 -0.0496016 -8.90454e-06
-0.769493 -0.000387254 -0.302255 -9.50412e-05 -0.0366012 -6.57069e-06
-0.747196 -0.000376033 -0.282086 -8.86995e-05 -0.0285037 -5.11702e-06
-0.720326 -0.00036251 -0.263601 -8.28869e-05 -0.0227192 -4.07857e-06
-0.689303 -0.000346898 -0.246982 -7.76614e-05 -0.017934 -3.21953e-06
-0.654579 -0.000329423 -0.232023 -7.29574e-05 -0.0143041 -2.56789e-06
-0.616557 -0.000310288 -0.218664 -6.87569e-05 -0.0141251 -2.53575e-06
-0.575737 -0.000289745 -0.207319 -6.51897e-05 -0.0168486 -3.02468e-06
-0.532846 -0.000268159 -0.198062 -6.22787e-05 -0.0208952 -3.75113e-06
-0.48872 -0.000245953 -0.190743 -5.99773e-05 -0.0259253 -4.65414e-06
-0.44435 -0.000223623 -0.18528 -5.82598e-05 -0.0326845 -5.86756e-06
-0.400732 -0.000201672 -0.181727 -5.71423e-05 -0.0410516 -7.36963e-06
-0.358771 -0.000180555 -0.180029 -5.66084e-05 -0.0499962 -8.97538e-06
-0.319268 -0.000160674 -0.180032 -5.66094e-05 -0.0606292 -1.08842e-05
-0.282894 -0.000142369 -0.181565 -5.70916e-05 -0.091523 -1.64303e-05
-0.250117 -0.000125874 -0.184298 -5.7951e-05 -0.121971 -2.18963e-05
-0.221031 -0.000111236 -0.188444 -5.92546e-05 -0.150523 -2.70221e-05
-0.195562 -9.8418e-05 -0.193723 -6.09145e-05 -0.175005 -3.14171e-05
-0.173292 -8.72108e-05 -0.199927 -6.28652e-05 -0.19585 -3.51593e-05
-0.153647 -7.73244e-05 -0.206748 -6.50102e-05 -0.213525 -3.83322e-05
-0.135877 -6.83811e-05 -0.21392 -6.72654e-05 -0.227969 -4.09253e-05
-0.119096 -5.99363e-05 -0.221167 -6.95441e-05 -0.238511 -4.28177e-05
-0.102321 -5.1494e-05 -0.228145 -7.17383e-05 -0.245464 -4.40661e-05
-0.084457 -4.25037e-05 -0.234459 -7.37235e-05 -0.24975 -4.48354e-05
-0.0674566 -3.39481e-05 -0.239323 -7.52531e-05 -0.252155 -4.52673e-05
-0.0607545 -3.05752e-05 -0.240271 -7.55511e-05 -0.254717 -4.5727e-05
-0.0488241 -2.45712e-05 -0.243839 -7.66729e-05 -0.253794 -4.55614e-05
-0.0360371 -1.8136e-05 -0.24256 -7.62709e-05 -0.253047 -4.54273e-05
-0.0198192 -9.97416e-06 -0.239068 -7.51729e-05 -0.251066 -4.50716e-05
-0.000556845 -2.80237e-07 -0.233848 -7.35314e-05 -0.249313 -4.47569e-05
0.0234149 1.17837e-05 -0.226635 -7.12632e-05 -0.246917 -4.43269e-05
0.0527409 2.65423e-05 -0.215967 -6.79088e-05 -0.244152 -4.38305e-05
0.0864757 4.35196e-05 -0.20234 -6.36241e-05 -0.241165 -4.32942e-05
0.125038 6.29262e-05 -0.18613 -5.8527e-05 -0.237735 -4.26784e-05
0.168382 8.47395e-05 -0.166956 -5.24977e-05 -0.233127 -4.18512e-05
0.215786 0.000108596 -0.144532 -4.54468e-05 -0.226613 -4.06819e-05
0.266841 0.00013429 -0.118823 -3.73627e-05 -0.217801 -3.90999e-05
0.320839 0.000161465 -0.0938673 -2.95157e-05 -0.206028 -3.69865e-05
0.376838 0.000189647 -0.0808991 -2.5438e-05 -0.19071 -3.42365e-05
0.434257 0.000218543 -0.0655054 -2.05976e-05 -0.170308 -3.05739e-05
0.492112 0.00024766 -0.0479889 -1.50897e-05 -0.144579 -2.5955e-05
0.549576 0.000276579 -0.0288359 -9.06719e-06 -0.112868 -2.02621e-05
0.605883 0.000304916 -0.00760951 -2.39274e-06 -0.0743644 -1.335e-05
0.660261 0.000332282 0.016034 5.04174e-06 -0.034304 -6.1583e-06
0.712129 0.000358385 0.0409151 1.28654e-05 -0.0184927 -3.31984e-06
0.760623 0.00038279 0.0678894 2.13472e-05 -0.000658308 -1.1818e-07
0.80547 0.00040536 0.0968646 3.04582e-05 0.0183927 3.30189e-06
0.846141 0.000425828 0.127825 4.01935e-05 0.0376987 6.76772e-06
0.882442 0.000444096 0.160125 5.03499e-05 0.0590565 1.06019e-05
0.91423 0.000460094 0.193553 6.0861e-05 0.0825022 1.48109e-05
0.941516 0.000473826 0.227988 7.16886e-05 0.107046 1.92171e-05
0.964486 0.000485386 0.263058 8.27162e-05 0.131687 2.36407e-05
0.983482 0.000494946 0.29827 9.37884e-05 0.156733 2.81369e-05
0.998951 0.000502731 0.333253 0.000104788 0.182384 3.27418e-05
1.01142 0.000509008 0.367671 0.000115611 0.20808 3.73548e-05
1.02147 0.000514065 0.401102 0.000126123 0.23297 4.1823e-05
1.02967 0.00051819 0.433096 0.000136183 0.256762 4.60943e-05
1.03656 0.000521658 0.463251 0.000145665 0.279447 5.01667e-05
1.04267 0.000524731 0.491193 0.000154451 0.30073 5.39874e-05
1.04847 0.000527653 0.516563 0.000162429 0.320048 5.74555e-05
1.05442 0.000530648 0.539046 0.000169498 0.337034 6.05048e-05
1.06121 0.000534064 0.556982 0.000175138 0.32377 5.81236e-05
1.06987 0.000538422 0.563003 0.000177031 0.341259 6.12632e-05
1.07807 0.000542549 0.571192 0.000179606 0.354407 6.36237e-05
1.08815 0.000547623 0.579164 0.000182113 0.345683 6.20574e-05
1.09864 0.0005529 0.585594 0.000184135 0.329548 5.91609e-05
1.11018 0.000558708 0.58723 0.000184649 0.330546 5.934e-05
1.12246 0.000564888 0.586621 0.000184458 0.337624 6.06107e-05
1.1353 0.000571349 0.583531 0.000183486 0.333365 5.9846e-05
1.14811 0.000577796 0.577086 0.000181459 0.320061 5.74578e-05
1.16056 0.00058406 0.566932 0.000178267 0.308286 5.53439e-05
1.17191 0.000589774 0.554124 0.000174239 0.300074 5.38696e-05
1.18099 0.000594343 0.539058 0.000169502 0.287629 5.16355e-05
1.18727 0.000597505 0.521435 0.000163961 0.26903 4.82965e-05
1.19005 0.000598901 0.501661 0.000157743 0.249065 4.47125e-05
1.18905 0.0005984 0.480326 0.000151034 0.231305 4.15242e-05
1.18392 0.000595818 0.457779 0.000143945 0.21321 3.82757e-05
1.1744 0.000591026 0.434234 0.000136541 0.19256 3.45686e-05
1.16042 0.000583994 0.41013 0.000128962 0.170806 3.06632e-05
1.14188 0.000574662 0.385797 0.00012131 0.150514 2.70204e-05
1.1187 0.000562997 0.361412 0.000113643 0.131493 2.36057e-05
1.0909 0.000549005 0.337202 0.00010603 0.112357 2.01705e-05
1.05849 0.000532693 0.31341 9.85489e-05 0.0930951 1.67126e-05
1.02151 0.000514085 0.290146 9.12339e-05 0.0749488 1.34549e-05
0.980068 0.000493228 0.267424 8.4089e-05 0.0583131 1.04684e-05
0.934267 0.000470178 0.24529 7.71292e-05 0.0425447 7.63767e-06
0.884353 0.000445058 0.22381 7.03749e-05 0.0272152 4.88571e-06
0.830782 0.000418098 0.202989 6.38281e-05 0.0126946 2.27895e-06
0.774187 0.000389616 0.182813 5.74838e-05 -0.000675711 -1.21304e-07
0.715289 0.000359975 0.163303 5.13492e-05 -0.0131116 -2.35382e-06
0.654831 0.000329549 0.144492 4.54344e-05 -0.024989 -4.48605e-06
0.593532 0.0002987 0.126372 3.97366e-05 -0.0363221 -6.52058e-06
0.532066 0.000267767 0.108911 3.42462e-05 -0.0469463 -8.42786e-06
0.47105 0.00023706 0.0920924 2.89576e-05 -0.0569006 -1.02149e-05
0.411016 0.000206847 0.0759033 2.38671e-05 -0.0664103 -1.19221e-05
0.352401 0.000177349 0.0603149 1.89655e-05 -0.0755936 -1.35707e-05
0.295501 0.000148714 0.0452817 1.42384e-05 -0.0871385 -1.56432e-05
0.24044 0.000121004 0.0307595 9.67205e-06 -0.105615 -1.89602e-05
0.187113 9.4166e-05 0.0176286 5.54316e-06 -0.124938 -2.2429e-05
0.135771 6.83278e-05 0.00460926 1.44934e-06 -0.143754 -2.58069e-05
0.0863026 4.34325e-05 -0.00819629 -2.57725e-06 -0.160948 -2.88936e-05
0.0390373 1.96459e-05 -0.020786 -6.53598e-06 -0.17664 -3.17107e-05
-0.0063712 -3.20636e-06 -0.0418646 -1.31639e-05 -0.193243 -3.46913e-05
-0.0461916 -2.32463e-05 -0.0611144 -1.92169e-05 -0.211342 -3.79403e-05
-0.0764675 -3.8483e-05 -0.0837977 -2.63494e-05 -0.2258 -4.05359e-05
-0.103128 -5.19002e-05 -0.100567 -3.16224e-05 -0.242588 -4.35498e-05
-0.127873 -6.43533e-05 -0.119382 -3.75385e-05 -0.257662 -4.62557e-05
-0.150447 -7.5714e-05 -0.136973 -4.30699e-05 -0.273865 -4.91646e-05
-0.168656 -8.48778e-05 -0.152173 -4.78496e-05 -0.289859 -5.20358e-05
-0.183653 -9.24252e-05 -0.166123 -5.22357e-05 -0.305852 -5.4907e-05
-0.195594 -9.84342e-05 -0.179429 -5.64198e-05 -0.321725 -5.77565e-05
-0.203761 -0.000102545 -0.191055 -6.00754e-05 -0.337554 -6.05982e-05
-0.208711 -0.000105036 -0.200773 -6.31313e-05 -0.353185 -6.34043e-05
-0.210719 -0.000106046 -0.209033 -6.57286e-05 -0.368435 -6.6142e-05
-0.209714 -0.000105541 -0.215842 -6.78695e-05 -0.383036 -6.87632e-05
-0.20595 -0.000103646 -0.220865 -6.9449e-05 -0.396669 -7.12106e-05
-0.199827 -0.000100565 -0.224088 -7.04624e-05 -0.409144 -7.345e-05
-0.1915 -9.6374e-05 -0.225646 -7.09523e-05 -0.420187 -7.54325e-05
-0.181347 -9.12643e-05 -0.225564 -7.09265e-05 -0.429372 -7.70815e-05
-0.169818 -8.54625e-05 -0.223763 -7.03601e-05 -0.436287 -7.83227e-05
-0.157251 -7.91377e-05 -0.220265 -6.92602e-05 -0.44068 -7.91114e-05
-0.144046 -7.24923e-05 -0.215193 -6.76655e-05 -0.442305 -7.94032e-05
-0.130346 -6.55976e-05 -0.20858 -6.55862e-05 -0.440159 -7.9018e-05
-0.116147 -5.84522e-05 -0.200358 -6.30007e-05 -0.433558 -7.7833e-05
-0.102194 -5.14299e-05 -0.190484 -5.98961e-05 -0.422685 -7.5881e-05
-0.0891463 -4.48636e-05 -0.179174 -5.63397e-05 -0.407368 -7.31312e-05
-0.0775193 -3.90122e-05 -0.166554 -5.23715e-05 -0.387398 -6.95463e-05
-0.0676277 -3.40342e-05 -0.152645 -4.79979e-05 -0.362936 -6.51547e-05
-0.0595614 -2.99748e-05 -0.137553 -4.32524e-05 -0.334458 -6.00424e-05
-0.0531971 -2.67719e-05 -0.121488 -3.82009e-05 -0.302308 -5.42707e-05
-0.0482545 -2.42845e-05 -0.104584 -3.28855e-05 -0.266714 -4.78809e-05
-0.0444167 -2.23531e-05 -0.0871443 -2.74017e-05 -0.22813 -4.09542e-05
-0.0413082 -2.07887e-05 -0.0693011 -2.17911e-05 -0.187222 -3.36103e-05
-0.038698 -1.94751e-05 -0.0510841 -1.60629e-05 -0.144679 -2.5973e-05
-0.0364065 -1.83219e-05 -0.0328338 -1.03243e-05 -0.10117 -1.81622e-05
-0.0341599 -1.71913e-05 -0.0157727 -4.95958e-06 -0.0792486 -1.42268e-05
-0.0317987 -1.6003e-05 -0.00152853 -4.80633e-07 -0.0671473 -1.20544e-05
-0.0292569 -1.47238e-05 0.0122967 3.86659e-06 -0.0549526 -9.86516e-06
-0.0265375 -1.33552e-05 0.0257569 8.09902e-06 -0.0443826 -7.96763e-06
-0.0236656 -1.19099e-05 0.0383865 1.20703e-05 -0.0348423 -6.25494e-06
-0.0208092 -1.04724e-05 0.0498718 1.56818e-05 -0.0255284 -4.58288e-06
-0.018124 -9.12107e-06 0.0601691 1.89196e-05 -0.0166708 -2.99277e-06
-0.0158886 -7.99607e-06 0.0692322 2.17694e-05 -0.00917897 -1.64782e-06
-0.0144227 -7.25837e-06 0.0768646 2.41694e-05 -0.00321833 -5.7776e-07
-0.0141595 -7.1259e-06 0.0829285 2.60761e-05 0.00171904 3.08604e-07
-0.0155 -7.8005e-06 0.0874382 2.74942e-05 0.00581092 1.04318e-06
-0.0189706 -9.54711e-06 0.0903869 2.84213e-05 0.00872213 1.56581e-06
-0.0225442 -1.13456e-05 0.0919132 2.89013e-05 0.0101409 1.8205e-06
-0.0223421 -1.12438e-05 0.091497 2.87704e-05 0.0110214 1.97858e-06
-0.0254809 -1.28235e-05 0.0911981 2.86764e-05 0.0101477 1.82173e-06
-0.0309598 -1.55808e-05 0.0882057 2.77355e-05 0.00860241 1.54431e-06
-0.0389223 -1.9588e-05 0.0837105 2.6322e-05 0.00589136 1.05762e-06
-0.0492865 -2.48039e-05 0.0783992 2.46519e-05 0.00222714 3.99818e-07
-0.0622244 -3.1315e-05 0.0719694 2.26301e-05 -0.002518 -4.52035e-07
-0.0775638 -3.90346e-05 0.0640319 2.01343e-05 -0.00826302 -1.48339e-06
-0.0950777 -4.78487e-05 0.05494 1.72754e-05 -0.0148011 -2.65712e-06
-0.114526 -5.76361e-05 0.0450043 1.41512e-05 -0.0221542 -3.97715e-06
-0.135475 -6.81788e-05 0.0340865 1.07182e-05 -0.0304678 -5.46962e-06
-0.156687 -7.88541e-05 0.0218881 6.88252e-06 -0.0396758 -7.12265e-06
-0.177457 -8.93067e-05 0.00105789 3.32645e-07 -0.0496174 -8.90737e-06
-0.196054 -9.86656e-05 -0.0238149 -7.48837e-06 -0.0606125 -1.08812e-05
-0.212377 -0.00010688 -0.0496015 -1.55967e-05 -0.0722843 -1.29766e-05
-0.227315 -0.000114398 -0.0763709 -2.40141e-05 -0.0847357 -1.52119e-05
-0.239584 -0.000120573 -0.104235 -3.27758e-05 -0.104962 -1.88429e-05
-0.248827 -0.000125225 -0.130976 -4.11842e-05 -0.1407 -2.52587e-05
-0.25494 -0.000128301 -0.156681 -4.92668e-05 -0.179935 -3.23022e-05
-0.257544 -0.000129611 -0.181846 -5.71797e-05 -0.221858 -3.98283e-05
-0.256282 -0.000128976 -0.206545 -6.49462e-05 -0.262367 -4.71005e-05
-0.251371 -0.000126504 -0.22945 -7.21484e-05 -0.304915 -5.47387e-05
-0.242768 -0.000122175 -0.250261 -7.86922e-05 -0.350413 -6.29066e-05
-0.230604 -0.000116054 -0.269126 -8.46241e-05 -0.397049 -7.12787e-05
-0.215339 -0.000108371 -0.285905 -8.99001e-05 -0.442024 -7.93526e-05
-0.197576 -9.94318e-05 -0.300119 -9.43697e-05 -0.485152 -8.70952e-05
-0.178021 -8.95904e-05 -0.311604 -9.7981e-05 -0.526912 -9.4592e-05
-0.157423 -7.92245e-05 -0.320439 -0.000100759 -0.566235 -0.000101651
-0.136492 -6.86907e-05 -0.326593 -0.000102694 -0.600978 -0.000107888
-0.115943 -5.83494e-05 -0.329977 -0.000103758 -0.629913 -0.000113083
-0.0965239 -4.85765e-05 -0.330629 -0.000103963 -0.652822 -0.000117195
-0.0789623 -3.97385e-05 -0.328656 -0.000103343 -0.669194 -0.000120134
-0.0639374 -3.2177e-05 -0.32414 -0.000101923 -0.677891 -0.000121696
-0.0520207 -2.61799e-05 -0.317176 -9.97333e-05 -0.677492 -0.000121624
-0.0436424 -2.19634e-05 -0.30768 -9.67473e-05 -0.666091 -0.000119578
-0.0389844 -1.96192e-05 -0.295634 -9.29594e-05 -0.644392 -0.000115682
-0.0380062 -1.9127e-05 -0.281213 -8.84248e-05 -0.612561 -0.000109968
-0.040477 -2.03704e-05 -0.264705 -8.32341e-05 -0.5702 -0.000102363
-0.0460384 -2.31692e-05 -0.246282 -7.7441e-05 -0.517961 -9.2985e-05
-0.054238 -2.72958e-05 -0.226079 -7.10886e-05 -0.457565 -8.21427e-05
-0.0645248 -3.24726e-05 -0.2043 -6.42404e-05 -0.390617 -7.01241e-05
-0.0762147 -3.83557e-05 -0.181201 -5.6977e-05 -0.318302 -5.7142e-05
-0.0884749 -4.45257e-05 -0.157009 -4.93702e-05 -0.242013 -4.34465e-05
-0.100394 -5.0524e-05 -0.131932 -4.14847e-05 -0.163701 -2.93879e-05
-0.111082 -5.5903e-05 -0.106193 -3.33915e-05 -0.0885084 -1.58891e-05
-0.119498 -6.01386e-05 -0.0815432 -2.56405e-05 -0.0732045 -1.31418e-05
-0.125288 -6.30522e-05 -0.0571247 -1.79623e-05 -0.0533292 -9.57373e-06
-0.127604 -6.42179e-05 -0.0327885 -1.031e-05 -0.033994 -6.10264e-06
-0.125997 -6.34092e-05 -0.00763013 -2.39923e-06 -0.019874 -3.5678e-06
-0.119791 -6.02856e-05 0.0167275 5.2598e-06 -0.00823701 -1.47872e-06
-0.109334 -5.50234e-05 0.0403605 1.2691e-05 0.00453427 8.13997e-07
-0.0936974 -4.7154e-05 0.0630919 1.98387e-05 0.0169358 3.04034e-06
-0.0736757 -3.70779e-05 0.0847439 2.66469e-05 0.0262609 4.71439e-06
-0.0494185 -2.48703e-05 0.0976228 3.06966e-05 0.0321641 5.77414e-06
-0.0218668 -1.10047e-05 0.106324 3.34326e-05 0.0370811 6.65685e-06
0.00699128 3.51842e-06 0.11318 3.55886e-05 0.0415347 7.45635e-06
0.0375386 1.88916e-05 0.118054 3.71209e-05 0.0441896 7.93298e-06
0.067305 3.38718e-05 0.121175 3.81025e-05 0.0438026 7.86349e-06
0.0966378 4.86338e-05 0.122272 3.84472e-05 0.0421828 7.57271e-06
0.125042 6.29283e-05 0.121831 3.83086e-05 0.0399861 7.17835e-06
0.151309 7.61475e-05 0.119959 3.77202e-05 0.036948 6.63296e-06
0.174493 8.78153e-05 0.116929 3.67672e-05 0.0324967 5.83385e-06
0.193889 9.75761e-05 0.113042 3.55452e-05 0.0272063 4.88411e-06
0.208818 0.00010509 0.108388 3.40815e-05 0.021906 3.9326e-06
0.218656 0.000110041 0.1031 3.24187e-05 0.0167386 3.00493e-06
0.223055 0.000112254 0.0973867 3.06224e-05 0.0113934 2.04537e-06
0.221713 0.000111579 0.0913825 2.87344e-05 0.00592419 1.06352e-06
0.214784 0.000108092 0.0851138 2.67633e-05 0.000702541 1.26121e-07
0.202845 0.000102084 0.0786347 2.4726e-05 -0.00410823 -7.37514e-07
0.186377 9.37958e-05 0.0720462 2.26543e-05 -0.00873859 -1.56876e-06
0.16612 8.36014e-05 0.0652831 2.05277e-05 -0.0133872 -2.40329e-06
0.142843 7.18867e-05 0.0582586 1.83189e-05 -0.018073 -3.24449e-06
0.115729 5.82415e-05 0.0510589 1.6055e-05 -0.0228637 -4.10452e-06
0.0873002 4.39346e-05 0.0429526 1.35061e-05 -0.0278968 -5.00806e-06
0.0581364 2.92576e-05 0.0344551 1.08341e-05 -0.0334661 -6.00789e-06
0.0293361 1.47636e-05 0.0253677 7.97665e-06 -0.0396778 -7.12301e-06
0.00037145 1.86935e-07 0.0105302 3.31112e-06 -0.0467059 -8.3847e-06
-0.0260807 -1.31253e-05 -0.0124138 -3.9034e-06 -0.0546829 -9.81674e-06
-0.0487519 -2.45348e-05 -0.0348903 -1.09709e-05 -0.0637203 -1.14392e-05
-0.0693876 -3.49199e-05 -0.0576506 -1.81277e-05 -0.0733287 -1.31641e-05
-0.0856308 -4.30944e-05 -0.0797713 -2.50834e-05 -0.0843881 -1.51495e-05
-0.0986662 -4.96546e-05 -0.101046 -3.1773e-05 -0.101532 -1.82271e-05
-0.109254 -5.49831e-05 -0.12103 -3.80568e-05 -0.134989 -2.42334e-05
-0.116961 -5.88614e-05 -0.138647 -4.35964e-05 -0.17382 -3.12045e-05
-0.122874 -6.18373e-05 -0.155306 -4.88347e-05 -0.21407 -3.84301e-05
-0.1203 -6.05422e-05 -0.171854 -5.4038e-05 -0.252686 -4.53626e-05
-0.11672 -5.87404e-05 -0.18577 -5.84136e-05 -0.290108 -5.20806e-05
-0.111775 -5.62517e-05 -0.198944 -6.25561e-05 -0.328593 -5.89894e-05
-0.106456 -5.35748e-05 -0.210956 -6.63332e-05 -0.366322 -6.57626e-05
-0.101961 -5.13128e-05 -0.221684 -6.97066e-05 -0.400046 -7.18168e-05
-0.0992449 -4.99459e-05 -0.230672 -7.25327e-05 -0.429354 -7.70783e-05
-0.0988064 -4.97252e-05 -0.238532 -7.50041e-05 -0.454651 -8.16195e-05
-0.101384 -5.10225e-05 -0.245458 -7.71821e-05 -0.47544 -8.53517e-05
-0.107573 -5.41372e-05 -0.251258 -7.90059e-05 -0.489977 -8.79612e-05
-0.11761 -5.91884e-05 -0.255975 -8.04891e-05 -0.497583 -8.93268e-05
-0.131688 -6.6273e-05 -0.259948 -8.17382e-05 -0.498328 -8.94605e-05
-0.149866 -7.54211e-05 -0.263143 -8.27429e-05 -0.491446 -8.82249e-05
-0.172001 -8.65611e-05 -0.265385 -8.34478e-05 -0.477021 -8.56355e-05
-0.197805 -9.95469e-05 -0.266826 -8.39011e-05 -0.455523 -8.17762e-05
-0.226789 -0.000114134 -0.267715 -8.41807e-05 -0.427482 -7.67421e-05
-0.258254 -0.000129969 -0.268084 -8.42967e-05 -0.394116 -7.07523e-05
-0.290944 -0.00014642 -0.26799 -8.4267e-05 -0.356855 -6.4063e-05
-0.323325 -0.000162716 -0.26758 -8.4138e-05 -0.317002 -5.69085e-05
-0.354828 -0.00017857 -0.266664 -8.38501e-05 -0.276141 -4.95731e-05
-0.384833 -0.000193671 -0.265492 -8.34816e-05 -0.235744 -4.23211e-05
-0.412627 -0.000207658 -0.264013 -8.30164e-05 -0.197484 -3.54526e-05
-0.437605 -0.000220228 -0.262154 -8.24321e-05 -0.162838 -2.92328e-05
-0.459331 -0.000231162 -0.259976 -8.1747e-05 -0.133012 -2.38785e-05
-0.477422 -0.000240267 -0.257586 -8.09956e-05 -0.11069 -1.98713e-05
-0.49158 -0.000247392 -0.255353 -8.02935e-05 -0.0998959 -1.79334e-05
-0.501815 -0.000252543 -0.252913 -7.95264e-05 -0.0968893 -1.73937e-05
-0.507713 -0.000255511 -0.24989 -7.85756e-05 -0.0951171 -1.70755e-05
-0.502648 -0.000252962 -0.248668 -7.81914e-05 -0.095513 -1.71466e-05
-0.495714 -0.000249472 -0.245803 -7.72906e-05 -0.098617 -1.77038e-05
-0.484346 -0.000243751 -0.244689 -7.69404e-05 -0.110299 -1.9801e-05
-0.469899 -0.000236481 -0.243818 -7.66665e-05 -0.127434 -2.28772e-05
-0.453708 -0.000228332 -0.242925 -7.63855e-05 -0.148232 -2.66109e-05
-0.43645 -0.000219647 -0.242665 -7.63038e-05 -0.171714 -3.08262e-05
-0.419312 -0.000211022 -0.243467 -7.65561e-05 -0.196092 -3.52026e-05
-0.403497 -0.000203063 -0.245171 -7.70918e-05 -0.220663 -3.96138e-05
-0.389987 -0.000196264 -0.24759 -7.78525e-05 -0.245014 -4.39853e-05
-0.379772 -0.000191123 -0.251023 -7.89319e-05 -0.268302 -4.81659e-05
-0.373754 -0.000188095 -0.255679 -8.0396e-05 -0.28923 -5.19229e-05
-0.372592 -0.00018751 -0.261442 -8.2208e-05 -0.307049 -5.51217e-05
-0.37678 -0.000189618 -0.268258 -8.43512e-05 -0.321606 -5.77352e-05
-0.3866 -0.00019456 -0.276221 -8.68551e-05 -0.33282 -5.97483e-05
-0.401383 -0.000202 -0.285443 -8.97551e-05 -0.340406 -6.11101e-05
-0.42189 -0.00021232 -0.296093 -9.31037e-05 -0.344247 -6.17997e-05
-0.446519 -0.000224715 -0.307032 -9.65434e-05 -0.34503 -6.19403e-05
-0.474054 -0.000238572 -0.319324 -0.000100408 -0.34269 -6.15201e-05
-0.505911 -0.000254604 -0.332154 -0.000104443 -0.338041 -6.06855e-05
-0.539667 -0.000271592 -0.345799 -0.000108733 -0.331732 -5.95529e-05
-0.573838 -0.000288789 -0.359985 -0.000113194 -0.324815 -5.83112e-05
-0.607588 -0.000305774 -0.374781 -0.000117846 -0.318124 -5.711e-05
-0.6396 -0.000321884 -0.389891 -0.000122598 -0.312837 -5.61609e-05
-0.668684 -0.000336521 -0.405092 -0.000127378 -0.310092 -5.5668e-05
-0.694088 -0.000349306 -0.420268 -0.000132149 -0.310842 -5.58027e-05
-0.714956 -0.000359808 -0.435217 -0.00013685 -0.315896 -5.671e-05
-0.730426 -0.000367593 -0.449684 -0.000141399 -0.325932 -5.85118e-05
-0.739747 -0.000372284 -0.463461 -0.000145731 -0.341431 -6.12941e-05
-0.741781 -0.000373307 -0.476353 -0.000149785 -0.361831 -6.49564e-05
-0.736252 -0.000370525 -0.487613 -0.000153325 -0.384569 -6.90384e-05
-0.72269 -0.0003637 -0.497537 -0.000156446 -0.41316 -7.4171e-05
-0.70092 -0.000352744 -0.50587 -0.000159066 -0.445428 -7.99639e-05
-0.671125 -0.00033775 -0.512593 -0.00016118 -0.480308 -8.62256e-05
-0.633654 -0.000318892 -0.517312 -0.000162664 -0.517641 -9.29275e-05
-0.589106 -0.000296473 -0.519908 -0.00016348 -0.556921 -9.99792e-05
-0.538441 -0.000270975 -0.5203 -0.000163604 -0.59635 -0.000107057
-0.482772 -0.000242959 -0.51833 -0.000162984 -0.634238 -0.000113859
-0.423297 -0.000213028 -0.513819 -0.000161566 -0.669457 -0.000120182
-0.361275 -0.000181815 -0.506651 -0.000159312 -0.701077 -0.000125858
-0.297992 -0.000149967 -0.496736 -0.000156194 -0.727681 -0.000130634
-0.234775 -0.000118152 -0.483993 -0.000152187 -0.747753 -0.000134238
-0.172932 -8.70297e-05 -0.468367 -0.000147274 -0.760155 -0.000136464
-0.113614 -5.71771e-05 -0.449844 -0.000141449 -0.764129 -0.000137177
-0.0577347 -2.90555e-05 -0.428414 -0.000134711 -0.757878 -0.000136055
-0.00595512 -2.99697e-06 -0.403916 -0.000127008 -0.740333 -0.000132906
0.0379917 1.91196e-05 -0.376518 -0.000118393 -0.711212 -0.000127678
0.0730636 3.67699e-05 -0.346295 -0.000108889 -0.669881 -0.000120258
0.0983455 4.94932e-05 -0.311162 -9.7842e-05 -0.618344 -0.000111006
0.11896 5.98678e-05 -0.277277 -8.71873e-05 -0.55427 -9.95033e-05
0.135831 6.83583e-05 -0.239306 -7.52477e-05 -0.480853 -8.63233e-05
0.148619 7.47939e-05 -0.199309 -6.26709e-05 -0.397813 -7.14159e-05
0.156709 7.88653e-05 -0.158245 -4.97586e-05 -0.306837 -5.50838e-05
0.16169 8.13717e-05 -0.116821 -3.67334e-05 -0.209236 -3.75624e-05
0.164116 8.25926e-05 -0.0799289 -2.51329e-05 -0.106789 -1.91709e-05
0.164563 8.28176e-05 -0.0443803 -1.3955e-05 -0.0657856 -1.18099e-05
0.164437 8.27542e-05 -0.01139 -3.58147e-06 -0.0396582 -7.11949e-06
0.164158 8.2614e-05 0.021317 6.70293e-06 -0.00972526 -1.74589e-06
0.164771 8.29222e-05 0.0548783 1.7256e-05 0.0125485 2.25273e-06
0.167276 8.41831e-05 0.0876778 2.75695e-05 0.0302451 5.42963e-06
0.172472 8.6798e-05 0.118249 3.71822e-05 0.0502619 9.02308e-06
0.181015 9.10975e-05 0.14674 4.6141e-05 0.0728706 1.30818e-05
0.193423 9.73419e-05 0.173593 5.45847e-05 0.0920723 1.65289e-05
0.210105 0.000105737 0.19809 6.22875e-05 0.106029 1.90344e-05
0.231274 0.000116391 0.219532 6.90297e-05 0.11816 2.12122e-05
0.257009 0.000129342 0.23795 7.48213e-05 0.130418 2.34129e-05
0.287191 0.000144532 0.253464 7.96995e-05 0.140655 2.52506e-05
0.32152 0.000161808 0.265913 8.36139e-05 0.146821 2.63575e-05
0.359575 0.000180959 0.275219 8.65401e-05 0.149942 2.69178e-05
0.400842 0.000201727 0.281552 8.85314e-05 0.151383 2.71765e-05
0.444742 0.00022382 0.284944 8.95979e-05 0.150332 2.69879e-05
0.490551 0.000246874 0.285541 8.97858e-05 0.146747 2.63441e-05
0.537462 0.000270483 0.283677 8.91997e-05 0.140627 2.52455e-05
0.58458 0.000294195 0.279827 8.79891e-05 0.132573 2.37997e-05
0.631023 0.000317568 0.274306 8.6253e-05 0.123091 2.20974e-05
0.675951 0.000340178 0.267433 8.40917e-05 0.112602 2.02144e-05
0.718574 0.000361629 0.259621 8.16355e-05 0.101326 1.81902e-05
0.758134 0.000381537 0.251267 7.90087e-05 0.0896776 1.6099e-05
0.793935 0.000399555 0.242652 7.62998e-05 0.0780689 1.4015e-05
0.825397 0.000415388 0.234022 7.35862e-05 0.0668709 1.20048e-05
0.852095 0.000428824 0.225644 7.09518e-05 0.0562884 1.0105e-05
0.873804 0.00043975 0.217752 6.84701e-05 0.0465242 8.35209e-06
0.890544 0.000448174 0.210521 6.61966e-05 0.0377698 6.78047e-06
0.902591 0.000454237 0.204114 6.41817e-05 0.0301928 5.42025e-06
0.910437 0.000458185 0.198685 6.24746e-05 0.023853 4.28212e-06
0.91472 0.000460341 0.194341 6.11088e-05 0.018751 3.36621e-06
0.916184 0.000461078 0.191124 6.00972e-05 0.0148608 2.66783e-06
0.915621 0.000460794 0.189032 5.94395e-05 0.0121446 2.18022e-06
0.913829 0.000459892 0.188028 5.91236e-05 0.0105118 1.88709e-06
0.91159 0.000458765 0.18803 5.91244e-05 0.00983036 1.76476e-06
0.909673 0.000457801 0.188934 5.94087e-05 0.00995791 1.78766e-06
0.908811 0.000457367 0.190633 5.99429e-05 0.0107675 1.93299e-06
0.909662 0.000457795 0.193026 6.06953e-05 0.0121347 2.17844e-06
0.91277 0.000459359 0.196014 6.16348e-05 0.0139384 2.50224e-06
0.918532 0.000462259 0.19951 6.27341e-05 0.0160779 2.88633e-06
0.92718 0.000466611 0.203449 6.39728e-05 0.0184914 3.3196e-06
0.938773 0.000472445 0.207795 6.53393e-05 0.0211523 3.7973e-06
0.953194 0.000479703 0.212539 6.68311e-05 0.0240649 4.32016e-06
0.970118 0.00048822 0.217685 6.84492e-05 0.0272707 4.89567e-06
0.98755 0.000496993 0.223361 7.02339e-05 0.0307842 5.52642e-06
1.00488 0.000505716 0.229212 7.20736e-05 0.0347307 6.2349e-06
1.0215 0.000514081 0.235559 7.40694e-05 0.0392739 7.05049e-06
1.03681 0.000521783 0.242702 7.63154e-05 0.0445858 8.0041e-06
1.04987 0.000528354 0.250718 7.88359e-05 0.0507688 9.11409e-06
1.05992 0.000533412 0.259595 8.16272e-05 0.0579932 1.0411e-05
1.06602 0.000536482 0.269488 8.47382e-05 0.0664177 1.19234e-05
1.0672 0.000537079 0.280432 8.81793e-05 0.0761257 1.36662e-05
1.06269 0.00053481 0.292338 9.19229e-05 0.0870856 1.56337e-05
1.05164 0.000529245 0.30504 9.5917e-05 0.0992686 1.78208e-05
1.03324 0.000519986 0.318367 0.000100108 0.112601 2.02143e-05
1.00691 0.000506739 0.332071 0.000104417 0.126902 2.27817e-05
0.97224 0.000489288 0.345804 0.000108735 0.141907 2.54753e-05
0.928985 0.00046752 0.359186 0.000112943 0.157307 2.82399e-05
0.877186 0.000441452 0.371831 0.000116919 0.171727 3.08286e-05
0.817334 0.00041133 0.382387 0.000120238 0.180382 3.23823e-05
0.749895 0.000377391 0.390415 0.000122762 0.193866 3.4803e-05
0.675706 0.000340055 0.396831 0.00012478 0.205391 3.68721e-05
0.595821 0.000299852 0.401615 0.000126284 0.211541 3.79761e-05
0.511379 0.000257356 0.403465 0.000126866 0.215505 3.86877e-05
0.423482 0.000213121 0.40198 0.000126399 0.220462 3.95777e-05
0.333173 0.000167672 0.397158 0.000124883 0.224172 4.02436e-05
0.24137 0.000121471 0.388796 0.000122253 0.223471 4.01179e-05
0.149108 7.50397e-05 0.376314 0.000118329 0.218053 3.91452e-05
0.0735636 3.70215e-05 0.357256 0.000112336 0.209837 3.76702e-05
-0.00528848 -2.66147e-06 0.339174 0.00010665 0.198096 3.55625e-05
-0.0775598 -3.90326e-05 0.313738 9.8652e-05 0.18178 3.26334e-05
-0.149704 -7.534e-05 0.278607 8.76054e-05 0.160435 2.88015e-05
-0.211433 -0.000106406 0.242606 7.62852e-05 0.133002 2.38768e-05
-0.26905 -0.000135402 0.202082 6.35428e-05 0.102127 1.83339e-05
-0.32253 -0.000162316 0.134774 4.23785e-05 0.0671659 1.20577e-05
-0.368446 -0.000185423 0.0633253 1.99121e-05 0.0275342 4.94297e-06
-0.408879 -0.000205772 -0.00946237 -2.97536e-06 -0.0153021 -2.74705e-06
-0.444785 -0.000223842 -0.0849921 -2.6725e-05 -0.0613366 -1.10112e-05
-0.47521 -0.000239154 -0.162469 -5.10868e-05 -0.109636 -1.9682e-05
-0.501891 -0.000252581 -0.239453 -7.5294e-05 -0.212503 -3.81488e-05
-0.526932 -0.000265183 -0.310341 -9.75838e-05 -0.352285 -6.32427e-05
-0.548946 -0.000276262 -0.382997 -0.00012043 -0.495776 -8.90023e-05
-0.570835 -0.000287277 -0.456028 -0.000143394 -0.626971 -0.000112555
-0.593066 -0.000298466 -0.528276 -0.000166112 -0.748465 -0.000134365
-0.616909 -0.000310465 -0.597686 -0.000187937 -0.871995 -0.000156542
-0.643504 -0.000323849 -0.664831 -0.00020905 -0.996054 -0.000178813
-0.673752 -0.000339071 -0.73024 -0.000229618 -1.10896 -0.000199082
-0.70843 -0.000356524 -0.792952 -0.000249337 -1.20692 -0.000216669
-0.748187 -0.000376532 -0.852212 -0.00026797 -1.29487 -0.000232457
-0.793522 -0.000399347 -0.907946 -0.000285495 -1.37535 -0.000246905
-0.845098 -0.000425303 -0.957941 -0.000301216 -1.37258 -0.000246408
-0.904257 -0.000455075 -0.992673 -0.000312137 -1.38261 -0.000248208
-0.966608 -0.000486454 -1.03142 -0.00032432 -1.39764 -0.000250906
-1.03535 -0.00052105 -1.06869 -0.000336039 -1.39329 -0.000250125
-1.10718 -0.000557199 -1.10611 -0.000347806 -1.37885 -0.000247532
-1.18288 -0.000595294 -1.13806 -0.000357854 -1.37863 -0.000247493
-1.26105 -0.000634636 -1.16714 -0.000366998 -1.38015 -0.000247767
-1.34109 -0.000674913 -1.1929 -0.000375095 -1.36474 -0.000245
-1.42172 -0.000715491 -1.21482 -0.000381989 -1.3324 -0.000239194
-1.32771 -0.000668183 -1.56638 -0.000492535 -1.4264 -0.000256069
-1.16362 -0.000585601 -0.753325 -0.000236876 -1.20704 -0.00021669
-1.46393 -0.000736736 -1.10023 -0.000345957 -1.18174 -0.000212147
-1.51557 -0.000762723 -1.58628 -0.000498791 -1.25939 -0.000226087
-1.45598 -0.000732735 -1.38889 -0.000436725 -1.12731 -0.000202376
-1.54657 -0.000778322 -1.06602 -0.000335199 -1.03331 -0.0001855
-1.55488 -0.000782507 -1.23392 -0.000387994 -1.07561 -0.000193096
-1.54968 -0.000779889 -1.42226 -0.000447217 -1.10335 -0.000198075
-1.57127 -0.000790756 -1.32877 -0.000417819 -1.02541 -0.000184083
-1.58237 -0.000796342 -1.23834 -0.000389384 -0.984454 -0.00017673
-1.59809 -0.000804254 -1.33961 -0.000421229 -1.04705 -0.000187968
-1.60474 -0.0008076 -1.45411 -0.000457233 -1.09191 -0.000196021
-1.60979 -0.000810141 -1.39278 -0.000437946 -1.11044 -0.000199348
-1.61563 -0.000813078 -1.37594 -0.000432651 -1.13969 -0.000204598
-1.62132 -0.000815944 -1.40479 -0.000441724 -1.2369 -0.00022205
-1.62557 -0.000818082 -1.43728 -0.000451941 -1.30211 -0.000233757
-1.6303 -0.00082046 -1.42265 -0.000447341 -1.33675 -0.000239975
-0.283923 -0.000142887 -1.10638 -0.000347893 -1.50621 -0.000270396
0.0615134 3.09571e-05 -1.09634 -0.000344735 -1.92787 -0.000346094
-0.146121 -7.35368e-05 -1.3533 -0.000425534 -1.68668 -0.000302795
-0.490646 -0.000246922 -1.31481 -0.000413431 -1.78781 -0.000320951
0.377241 0.00018985 -1.52194 -0.00047856 -2.00512 -0.000359962
-0.138842 -6.98736e-05 -1.883 -0.000592091 -1.85398 -0.000332829
-0.478229 -0.000240673 -1.70993 -0.000537671 -1.72888 -0.000310371
-0.175386 -8.82647e-05 -1.58167 -0.000497341 -1.76358 -0.0003166
-0.315478 -0.000158767 -1.67203 -0.000525755 -1.89075 -0.00033943
-0.516849 -0.000260109 -1.72976 -0.000543909 -1.86801 -0.000335348
-0.422209 -0.00021248 -1.62005 -0.000509409 -1.86081 -0.000334054
-0.436165 -0.000219504 -1.53261 -0.000481914 -1.88645 -0.000338658
-0.509915 -0.000256619 -1.56906 -0.000493377 -1.92553 -0.000345674
-0.485341 -0.000244252 -1.5966 -0.000502035 -1.94154 -0.000348548
-0.479596 -0.000241361 -1.5387 -0.00048383 -1.94058 -0.000348376
-0.512446 -0.000257893 -1.49614 -0.000470447 -1.95916 -0.00035171
-0.512106 -0.000257722 -1.51785 -0.000477274 -1.98568 -0.000356472
-0.510274 -0.0002568 -1.52734 -0.000480258 -1.9922 -0.000357642
-0.524688 -0.000264054 -1.49511 -0.000470124 -1.99076 -0.000357383
-0.530213 -0.000266834 -1.47861 -0.000464934 -2.00274 -0.000359534
-0.52727 -0.000265353 -1.49412 -0.000469814 -2.01435 -0.000361619
-0.534826 -0.000269156 -1.50425 -0.000472996 -2.0077 -0.000360425
-0.538475 -0.000270992 -1.49451 -0.000469936 -2.00034 -0.000359103
-0.536154 -0.000269824 -1.49402 -0.000469781 -2.00371 -0.000359709
-0.537425 -0.000270464 -1.51215 -0.00047548 -2.00123 -0.000359263
-0.538224 -0.000270866 -1.52676 -0.000480077 -1.9891 -0.000357085
-0.535926 -0.000269709 -0.972786 -0.000305884 -1.97602 -0.000354738
-0.166498 -8.37913e-05 -0.187612 -5.89929e-05 -1.2034 -0.000216037
-0.433661 -0.000218243 0.138317 4.34926e-05 -1.88281 -0.000338004
-0.240976 -0.000121273 -0.0371713 -1.16882e-05 -1.84956 -0.000332035
-0.336067 -0.000169129 0.162488 5.10927e-05 -1.81127 -0.000325161
-0.383776 -0.000193139 -0.0182368 -5.7344e-06 -1.83665 -0.000329718
-0.369067 -0.000185736 -0.199912 -6.28604e-05 -1.89349 -0.000339922
-0.376404 -0.000189428 -0.149125 -4.6891e-05 -1.84445 -0.000331119
-0.39261 -0.000197584 -0.0971557 -3.05497e-05 -1.78674 -0.000320758
-0.399257 -0.000200929 -0.142408 -4.47789e-05 -1.80881 -0.000324719
-0.3968 -0.000199693 -0.196577 -6.1812e-05 -1.76951 -0.000317664
-0.424609 -0.000213688 -0.172894 -5.4365e-05 -0.450045 -8.07926e-05
-0.470248 -0.000236656 -0.150469 -4.73136e-05 -0.412887 -7.41221e-05
-0.414686 -0.000208694 -0.209719 -6.59442e-05 -0.301946 -5.42057e-05
-0.47444 -0.000238766 -0.214559 -6.74662e-05 -0.285831 -5.13128e-05
-0.458632 -0.000230811 -0.208294 -6.54961e-05 -0.35069 -6.29563e-05
-0.457661 -0.000230322 -0.213372 -6.70929e-05 -0.350755 -6.2968e-05
-0.481709 -0.000242424 -0.231794 -7.28856e-05 -0.291966 -5.24142e-05
-0.475388 -0.000239243 -0.250489 -7.87641e-05 -0.236165 -4.23967e-05
-0.481241 -0.000242189 -0.253273 -7.96393e-05 -0.23998 -4.30816e-05
-0.492901 -0.000248057 -0.257197 -8.08733e-05 -0.256889 -4.6117e-05
-0.494397 -0.00024881 -0.271791 -8.54622e-05 -0.233288 -4.18802e-05
-0.5013 -0.000252284 -0.284542 -8.94717e-05 -0.190072 -3.4122e-05
-0.510932 -0.000257131 -0.292147 -9.1863e-05 -0.167234 -3.0022e-05
-0.51466 -0.000259007 -0.299013 -9.40221e-05 -0.165927 -2.97874e-05
-0.523485 -0.000263448 -0.305396 -9.60291e-05 -0.161378 -2.89708e-05
-0.531864 -0.000267665 -0.314246 -9.88118e-05 -0.136989 -2.45924e-05
-0.537736 -0.00027062 -0.322976 -0.000101557 -0.108309 -1.94437e-05
-0.545886 -0.000274722 -0.327235 -0.000102896 -0.0968091 -1.73793e-05
-0.547421 -0.000275494 -0.331096 -0.00010411 -0.0937559 -1.68312e-05
-0.550784 -0.000277187 -0.32823 -0.000103209 0.184506 3.31228e-05
-0.565948 -0.000284818 -0.252209 -7.93047e-05 0.110027 1.97522e-05
-0.572954 -0.000288344 -0.184615 -5.80506e-05 -0.628508 -0.000112831
-0.545624 -0.00027459 -0.237509 -7.46826e-05 -0.473462 -8.49964e-05
-0.558482 -0.000281061 -0.291622 -9.16979e-05 0.00117958 2.1176e-07
-0.555953 -0.000279788 -0.286243 -9.00066e-05 0.00395124 7.09331e-07
-0.545428 -0.000274491 -0.263285 -8.27875e-05 -0.343903 -6.17379e-05
-0.545255 -0.000274404 -0.266604 -8.38311e-05 -0.447631 -8.03593e-05
-0.528441 -0.000265942 -0.296064 -9.30948e-05 -0.213165 -3.82677e-05
-0.512261 -0.0002578 -0.31909 -0.000100335 -0.0357425 -6.41654e-06
-0.498781 -0.000251016 -0.318273 -0.000100078 -0.13212 -2.37183e-05
-0.484627 -0.000243893 -0.31361 -9.86118e-05 -0.27749 -4.98154e-05
-0.470286 -0.000236675 -0.324469 -0.000102026 -0.236112 -4.23871e-05
-0.456354 -0.000229664 -0.340726 -0.000107138 -0.100252 -1.79973e-05
-0.440929 -0.000221901 -0.347441 -0.00010925 -0.0712341 -1.2788e-05
-0.424655 -0.000213711 -0.348018 -0.000109431 -0.145009 -2.60322e-05
-0.407586 -0.000205121 -0.352084 -0.00011071 -0.175845 -3.1568e-05
-0.389432 -0.000195985 -0.361067 -0.000113534 -0.119816 -2.15095e-05
-0.370051 -0.000186231 -0.369811 -0.000116284 -0.0665218 -1.19421e-05
-0.350325 -0.000176304 -0.374249 -0.000117679 -0.0780532 -1.40122e-05
-0.330116 -0.000166134 -0.373664 -0.000117495 -0.11158 -2.0031e-05
-0.307013 -0.000154507 -0.372929 -0.000117264 -0.105179 -1.88819e-05
-0.282884 -0.000142364 -0.367894 -0.000115681 -0.0724971 -1.30148e-05
-0.262808 -0.00013226 -0.36023 -0.000113271 -0.0608701 -1.09275e-05
-0.24225 -0.000121914 -0.347045 -0.000109125 -0.0633698 -1.13762e-05
-0.234786 -0.000118158 -0.326657 -0.000102714 -0.059629 -1.07047e-05
-0.22429 -0.000112876 -0.31344 -9.85585e-05 -0.0328963 -5.90558e-06
-0.219791 -0.000110612 -0.294172 -9.24998e-05 0.011557 2.07472e-06
-0.213696 -0.000107544 -0.266708 -8.3864e-05 0.060953 1.09424e-05
-0.205867 -0.000103604 -0.238203 -7.49007e-05 0.117093 2.10206e-05
-0.200363 -0.000100835 -0.199938 -6.28688e-05 0.174456 3.13185e-05
-0.19439 -9.78286e-05 -0.161142 -5.06696e-05 0.207717 3.72895e-05
-0.188013 -9.46193e-05 -0.129859 -4.08329e-05 0.212217 3.80975e-05
-0.181481 -9.13321e-05 -0.0926006 -2.91174e-05 0.218459 3.9218e-05
-0.175886 -8.85162e-05 -0.0461893 -1.45238e-05 0.213569 3.83401e-05
-0.16942 -8.5262e-05 -0.0310597 -9.76643e-06 0.204744 3.67558e-05
-0.16416 -8.2615e-05 -0.0179501 -5.64423e-06 0.219845 3.94669e-05
-0.160091 -8.05673e-05 -0.00109344 -3.43821e-07 0.243396 4.36948e-05
-0.153253 -7.71258e-05 0.00881474 2.77172e-06 0.262582 4.7139e-05
-0.150414 -7.56972e-05 0.0219997 6.91762e-06 0.251225 4.51001e-05
-0.14781 -7.43865e-05 0.0389803 1.2257e-05 0.22775 4.0886e-05
-0.14204 -7.14829e-05 0.0534571 1.68091e-05 0.219425 3.93914e-05
-0.137461 -6.91786e-05 0.0682259 2.1453e-05 0.227092 4.07678e-05
-0.134787 -6.78329e-05 0.0861927 2.71025e-05 0.234286 4.20593e-05
-0.130527 -6.56886e-05 0.104623 3.28977e-05 0.230959 4.1462e-05
-0.125225 -6.30207e-05 0.122742 3.8595e-05 0.219009 3.93168e-05
-0.12092 -6.08539e-05 0.142218 4.47191e-05 0.207404 3.72334e-05
-0.116382 -5.85703e-05 0.16237 5.10556e-05 0.20342 3.65183e-05
-0.110516 -5.56183e-05 0.181933 5.72071e-05 0.205441 3.6881e-05
-0.104267 -5.24734e-05 0.201353 6.33135e-05 0.205979 3.69776e-05
-0.097825 -4.92313e-05 0.221036 6.95028e-05 0.201092 3.61003e-05
-0.090477 -4.55333e-05 0.240592 7.56521e-05 0.193667 3.47673e-05
-0.0821627 -4.13491e-05 0.259583 8.16235e-05 0.188708 3.38771e-05
-0.073071 -3.67736e-05 0.277621 8.72953e-05 0.188058 3.37605e-05
-0.06311 -3.17606e-05 0.294322 9.2547e-05 0.189665 3.4049e-05
-0.0521104 -2.6225e-05 0.309647 9.73657e-05 0.190349 3.41718e-05
-0.0401834 -2.02226e-05 0.323808 0.000101819 0.189188 3.39633e-05
-0.0281194 -1.41513e-05 0.336676 0.000105865 0.188032 3.37558e-05
-0.0144221 -7.25805e-06 0.347969 0.000109416 0.188908 3.39131e-05
0.000827763 4.16579e-07 0.357775 0.000112499 0.192099 3.44858e-05
0.0158755 7.98949e-06 0.366228 0.000115157 0.196264 3.52336e-05
0.0306732 1.54365e-05 0.373438 0.000117424 0.199857 3.58785e-05
0.0461927 2.32469e-05 0.37968 0.000119387 0.202548 3.63616e-05
0.0622934 3.13497e-05 0.385255 0.00012114 0.205302 3.68561e-05
0.0780069 3.92576e-05 0.390439 0.00012277 0.20905 3.75289e-05
0.0929756 4.67908e-05 0.395503 0.000124362 0.213426 3.83145e-05
0.107407 5.40534e-05 0.400897 0.000126058 0.217254 3.90017e-05
0.121249 6.10198e-05 0.407094 0.000128007 0.219814 3.94612e-05
0.134031 6.74524e-05 0.414376 0.000130297 0.221292 3.97266e-05
0.145389 7.31681e-05 0.423007 0.000133011 0.222158 3.98821e-05
0.155348 7.81801e-05 0.433171 0.000136207 0.222487 3.99412e-05
0.163898 8.24832e-05 0.445077 0.000139951 0.221903 3.98363e-05
0.170838 8.59758e-05 0.458954 0.000144314 0.219971 3.94894e-05
0.176008 8.85775e-05 0.47486 0.000149316 0.216553 3.88759e-05
0.179303 9.02359e-05 0.492731 0.000154935 0.211868 3.80347e-05
0.181108 9.11439e-05 0.512554 0.000161168 0.206104 3.7e-05
0.181159 9.117e-05 0.534063 0.000167931 0.199401 3.57968e-05
0.179663 9.04169e-05 0.557137 0.000175187 0.191735 3.44205e-05
0.176856 8.90045e-05 0.581537 0.000182859 0.183006 3.28535e-05
0.172745 8.69356e-05 0.60702 0.000190872 0.173388 3.11269e-05
0.167452 8.42719e-05 0.633253 0.000199121 0.163113 2.92823e-05
0.161249 8.11499e-05 0.659868 0.000207489 0.152436 2.73654e-05
0.154097 7.75509e-05 0.686605 0.000215897 0.141506 2.54034e-05
0.146132 7.3542e-05 0.713124 0.000224235 0.130463 2.3421e-05
0.137425 6.91605e-05 0.739139 0.000232416 0.119487 2.14504e-05
0.128262 6.45491e-05 0.764452 0.000240375 0.108665 1.95077e-05
0.119011 5.98932e-05 0.788616 0.000247973 0.0982262 1.76337e-05
0.109871 5.52933e-05 0.811261 0.000255094 0.0884437 1.58775e-05
0.101196 5.09279e-05 0.832137 0.000261658 0.0794204 1.42576e-05
0.0930947 4.68507e-05 0.851099 0.00026762 0.0712258 1.27865e-05
0.0856859 4.31222e-05 0.867987 0.000272931 0.0640517 1.14986e-05
0.0794161 3.99668e-05 0.882543 0.000277508 0.0579356 1.04007e-05
0.0744138 3.74494e-05 0.894592 0.000281297 0.0529667 9.50866e-06
0.0708663 3.56641e-05 0.904016 0.00028426 0.0492551 8.84234e-06
0.0689925 3.47211e-05 0.910807 0.000286395 0.0468431 8.40933e-06
0.0688756 3.46622e-05 0.915023 0.000287721 0.0457117 8.20623e-06
0.0707164 3.55886e-05 0.916629 0.000288226 0.0458267 8.22687e-06
0.0745231 3.75044e-05 0.915685 0.000287929 0.0471535 8.46506e-06
0.0804326 4.04784e-05 0.912304 0.000286866 0.0463154 8.31461e-06
0.0887521 4.46653e-05 0.906006 0.000284885 0.0384905 6.90987e-06
0.100026 5.03388e-05 0.895985 0.000281734 0.029657 5.32406e-06
0.112986 5.68611e-05 0.882993 0.000277649 0.021523 3.86384e-06
0.12064 6.07133e-05 0.868211 0.000273001 0.0110513 1.98394e-06
0.128698 6.47684e-05 0.847731 0.000266561 -0.00211696 -3.8004e-07
0.136959 6.89258e-05 0.831053 0.000261317 -0.02543 -4.56522e-06
0.146759 7.38578e-05 0.808241 0.000254144 -0.0502039 -9.01267e-06
0.154664 7.78358e-05 0.78128 0.000245667 -0.0756768 -1.35856e-05
0.16143 8.12413e-05 0.751591 0.000236331 -0.10173 -1.82627e-05
0.16837 8.47338e-05 0.7207 0.000226618 -0.129769 -2.32963e-05
0.174663 8.79004e-05 0.689313 0.000216748 -0.161636 -2.90172e-05
0.179767 9.04695e-05 0.655683 0.000206173 -0.195833 -3.51561e-05
0.184008 9.26038e-05 0.618046 0.000194339 -0.176356 -3.16597e-05
0.187416 9.43185e-05 0.597859 0.000187991 -0.17507 -3.14289e-05
0.192533 9.68939e-05 0.577864 0.000181704 -0.20125 -3.61286e-05
0.198549 9.99213e-05 0.55746 0.000175288 -0.222663 -3.99728e-05
0.203429 0.000102377 0.53485 0.000168179 -0.213207 -3.82753e-05
0.208653 0.000105006 0.503258 0.000158245 -0.18326 -3.2899e-05
0.213565 0.000107478 0.47278 0.000148662 -0.162331 -2.91419e-05
0.218154 0.000109788 0.447032 0.000140565 -0.163514 -2.93543e-05
0.223186 0.00011232 0.422521 0.000132858 -0.17557 -3.15186e-05
0.228217 0.000114852 0.39649 0.000124673 -0.179281 -3.21848e-05
0.23343 0.000117476 0.367488 0.000115553 -0.167533 -3.00758e-05
0.238935 0.000120246 0.337879 0.000106243 -0.149714 -2.68768e-05
0.244701 0.000123148 0.310362 9.75904e-05 -0.139013 -2.49557e-05
0.250738 0.000126186 0.284576 8.94824e-05 -0.138484 -2.48608e-05
0.256978 0.000129326 0.259097 8.14708e-05 -0.140397 -2.52042e-05
0.263487 0.000132602 0.233215 7.33325e-05 -0.136158 -2.44432e-05
0.270341 0.000136052 0.207544 6.52603e-05 -0.124968 -2.24344e-05
0.277487 0.000139648 0.183309 5.76399e-05 -0.112993 -2.02846e-05
0.284873 0.000143365 0.160834 5.05728e-05 -0.105717 -1.89784e-05
0.29248 0.000147193 0.139786 4.39543e-05 -0.102735 -1.84432e-05
0.300364 0.000151161 0.119877 3.76941e-05 -0.0994557 -1.78544e-05
0.30833 0.00015517 0.101321 3.18594e-05 -0.0925564 -1.66159e-05
0.312619 0.000157328 0.0898389 2.8249e-05 -0.0836871 -1.50236e-05
0.318964 0.000160521 0.0788758 2.48018e-05 -0.0762854 -1.36949e-05
0.327452 0.000164793 0.0626904 1.97124e-05 -0.0693303 -1.24463e-05
0.332613 0.00016739 0.0553597 1.74074e-05 -0.0643297 -1.15485e-05
0.339019 0.000170614 0.0498049 1.56607e-05 -0.0597808 -1.07319e-05
0.347635 0.00017495 0.0418688 1.31653e-05 -0.053643 -9.63006e-06
0.355755 0.000179037 0.035492 1.11601e-05 -0.0477589 -8.57374e-06
0.364171 0.000183272 0.0322061 1.01269e-05 -0.0413841 -7.42933e-06
0.372775 0.000187602 0.0333201 1.04772e-05 -0.0342292 -6.14488e-06
0.380244 0.000191361 0.030754 9.67033e-06 -0.0299139 -5.37018e-06
0.387435 0.00019498 0.0243556 7.6584e-06 -0.025101 -4.50617e-06
0.396171 0.000199377 0.0262205 8.2448e-06 -0.020707 -3.71735e-06
0.404204 0.000203419 0.0293725 9.23592e-06 -0.0151711 -2.72354e-06
0.411523 0.000207103 0.0333051 1.04725e-05 -0.00775083 -1.39144e-06
0.418604 0.000210666 0.0387005 1.2169e-05 0.01043 1.8724e-06
0.425405 0.000214089 0.0480075 1.50955e-05 0.0382786 6.87183e-06
0.431432 0.000217122 0.0619426 1.94773e-05 0.0731449 1.31311e-05
0.436438 0.000219641 0.0801535 2.52035e-05 0.115428 2.07218e-05
0.440836 0.000221855 0.0995023 3.12876e-05 0.119856 2.15168e-05
0.445368 0.000224135 0.116008 3.64776e-05 0.12571 2.25675e-05
0.448905 0.000225915 0.139484 4.38595e-05 0.122062 2.19128e-05
0.451618 0.000227281 0.16056 5.04868e-05 0.14163 2.54256e-05
0.452609 0.000227779 0.183356 5.76545e-05 0.167083 2.99949e-05
0.451164 0.000227052 0.209954 6.60181e-05 0.178593 3.20613e-05
0.447508 0.000225212 0.239964 7.54546e-05 0.171038 3.0705e-05
0.441442 0.000222159 0.272957 8.58289e-05 0.159298 2.85975e-05
0.432785 0.000217803 0.306273 9.63047e-05 0.154926 2.78126e-05
0.421854 0.000212302 0.339573 0.000106776 0.158823 2.8512e-05
0.408564 0.000205613 0.374648 0.000117805 0.16265 2.91991e-05
0.393075 0.000197819 0.411671 0.000129446 0.159448 2.86244e-05
0.375575 0.000189011 0.449875 0.000141459 0.150027 2.69331e-05
0.356249 0.000179285 0.488455 0.00015359 0.140587 2.52384e-05
0.335898 0.000169044 0.527023 0.000165718 0.135613 2.43455e-05
0.313603 0.000157823 0.565649 0.000177863 0.1341 2.40738e-05
0.290675 0.000146285 0.603798 0.000189859 0.131011 2.35193e-05
0.268269 0.000135009 0.6413 0.000201651 0.124262 2.23077e-05
0.246621 0.000124114 0.677995 0.000213189 0.11566 2.07634e-05
0.224775 0.00011312 0.71376 0.000224435 0.108481 1.94747e-05
0.202726 0.000102024 0.746014 0.000234577 0.104001 1.86703e-05
0.17827 8.97157e-05 0.763195 0.00023998 0.0995964 1.78797e-05
0.153103 7.70506e-05 0.788035 0.00024779 0.0915291 1.64314e-05
0.132576 6.67202e-05 0.808766 0.000254309 0.08733 1.56776e-05
0.109876 5.5296e-05 0.826447 0.000259869 0.0817381 1.46737e-05
0.0873605 4.39649e-05 0.842781 0.000265005 0.0741489 1.33113e-05
0.0689698 3.47097e-05 0.857349 0.000269586 0.0698268 1.25354e-05
0.0516557 2.59962e-05 0.872063 0.000274212 0.0673699 1.20943e-05
0.0343367 1.72803e-05 0.886291 0.000278686 0.0644803 1.15756e-05
0.0196692 9.89869e-06 0.897388 0.000282176 0.0613997 1.10226e-05
0.0074119 3.7301e-06 0.905823 0.000284828 0.0586438 1.05278e-05
-0.0036071 -1.8153e-06 0.913157 0.000287134 0.0569465 1.02231e-05
-0.0127555 -6.41933e-06 0.919313 0.00028907 0.0568591 1.02074e-05
-0.0197886 -9.95878e-06 0.923735 0.00029046 0.0575183 1.03258e-05
-0.0250019 -1.25824e-05 0.926105 0.000291205 0.058091 1.04286e-05
-0.0284487 -1.4317e-05 0.926501 0.00029133 0.0588934 1.05726e-05
-0.0302536 -1.52254e-05 0.925504 0.000291016 0.0604584 1.08536e-05
-0.0304321 -1.53152e-05 0.923403 0.000290356 0.0628497 1.12829e-05
-0.0291568 -1.46734e-05 0.920022 0.000289293 0.0657981 1.18122e-05
-0.0268421 -1.35085e-05 0.915218 0.000287782 0.0689439 1.23769e-05
-0.0232867 -1.17192e-05 0.909208 0.000285892 0.0700842 1.25816e-05
-0.0187333 -9.42768e-06 0.902084 0.000283652 0.0665523 1.19476e-05
-0.013049 -6.56703e-06 0.893376 0.000280914 0.0622427 1.11739e-05
-0.00496897 -2.50068e-06 0.883295 0.000277744 0.0583172 1.04692e-05
0.00710161 3.57395e-06 0.871578 0.00027406 0.0538492 9.66708e-06
0.0159546 8.02931e-06 0.859398 0.00027023 0.0454858 8.16567e-06
0.0253111 1.2738e-05 0.845293 0.000265795 0.031409 5.63858e-06
0.0337783 1.69992e-05 0.82984 0.000260936 0.0158922 2.85299e-06
0.0386792 1.94656e-05 0.812538 0.000255495 0.000329098 5.90802e-08
0.0408981 2.05823e-05 0.792346 0.000249146 -0.0160195 -2.87585e-06
0.0423755 2.13258e-05 0.769809 0.00024206 -0.0345658 -6.20529e-06
0.0420629 2.11685e-05 0.74616 0.000234623 -0.05558 -9.9778e-06
0.0379889 1.91182e-05 0.717984 0.000225764 -0.0796751 -1.43034e-05
0.0355215 1.78765e-05 0.687583 0.000216204 -0.106372 -1.90961e-05
0.0335808 1.68998e-05 0.663373 0.000208592 -0.131336 -2.35776e-05
0.0287657 1.44766e-05 0.641728 0.000201785 -0.145737 -2.61628e-05
0.0196405 9.88423e-06 0.62351 0.000196057 -0.147604 -2.6498e-05
0.00953189 4.797e-06 0.602928 0.000189585 -0.173837 -3.12074e-05
0.000831498 4.18459e-07 0.578032 0.000181757 -0.192406 -3.4541e-05
-0.0100319 -5.04862e-06 0.558082 0.000175484 -0.190149 -3.41358e-05
-0.0210036 -1.05703e-05 0.536769 0.000168782 -0.175026 -3.14209e-05
-0.0317002 -1.59534e-05 0.514078 0.000161647 -0.167987 -3.01572e-05
-0.0420532 -2.11636e-05 0.490414 0.000154206 -0.176293 -3.16484e-05
-0.0519159 -2.61271e-05 0.466876 0.000146805 -0.190008 -3.41105e-05
-0.0610475 -3.07227e-05 0.444305 0.000139708 -0.196265 -3.52338e-05
-0.0687438 -3.45959e-05 0.42115 0.000132427 -0.192065 -3.44798e-05
-0.0748969 -3.76925e-05 0.396643 0.000124721 -0.184947 -3.32019e-05
-0.0794998 -4.0009e-05 0.371632 0.000116856 -0.182858 -3.28269e-05
-0.0821676 -4.13515e-05 0.347256 0.000109192 -0.186201 -3.3427e-05
-0.0826953 -4.16171e-05 0.32381 0.000101819 -0.189244 -3.39734e-05
-0.0808933 -4.07102e-05 0.30039 9.4455e-05 -0.187105 -3.35893e-05
-0.0767747 -3.86375e-05 0.276443 8.69249e-05 -0.180266 -3.23616e-05
-0.0703781 -3.54184e-05 0.252486 7.93921e-05 -0.172818 -3.10245e-05
-0.0615608 -3.0981e-05 0.229257 7.20877e-05 -0.16763 -3.00931e-05
-0.0505103 -2.54197e-05 0.204199 6.42084e-05 -0.163889 -2.94215e-05
-0.0373231 -1.87832e-05 0.179047 5.62998e-05 -0.158793 -2.85067e-05
-0.0221134 -1.11287e-05 0.155096 4.87687e-05 -0.150774 -2.70671e-05
-0.00520777 -2.62085e-06 0.132563 4.16832e-05 -0.140825 -2.5281e-05
0.0132292 6.65771e-06 0.111717 3.51285e-05 -0.131007 -2.35186e-05
0.0318433 1.60254e-05 0.0927612 2.91679e-05 -0.122319 -2.19589e-05
0.0525685 2.64555e-05 0.0753511 2.36935e-05 -0.11428 -2.05157e-05
0.0747267 3.76069e-05 0.0590441 1.85659e-05 -0.106119 -1.90506e-05
0.0962398 4.84335e-05 0.0447281 1.40644e-05 -0.0966838 -1.73568e-05
0.117098 5.89305e-05 0.033444 1.05162e-05 -0.0865959 -1.55458e-05
0.137098 6.89957e-05 0.0245534 7.7206e-06 -0.0764898 -1.37315e-05
0.155555 7.82844e-05 0.0140616 4.42154e-06 -0.0691999 -1.24228e-05
0.172685 8.69053e-05 0.00265206 8.33917e-07 -0.0628676 -1.12861e-05
0.188673 9.49515e-05 -0.00643263 -2.02268e-06 -0.0561163 -1.00741e-05
0.203339 0.000102332 -0.0123305 -3.87722e-06 -0.049129 -8.8197e-06
0.216124 0.000108766 -0.0171761 -5.40085e-06 -0.0434248 -7.79567e-06
0.226893 0.000114186 -0.0217462 -6.83791e-06 -0.0398184 -7.14825e-06
0.235849 0.000118693 -0.0249752 -7.85324e-06 -0.0377913 -6.78434e-06
0.24281 0.000122196 -0.0255689 -8.0399e-06 -0.0365085 -6.55405e-06
0.247589 0.000124601 -0.0238334 -7.49419e-06 -0.0358497 -6.43579e-06
0.250008 0.000125818 -0.0202189 -6.35765e-06 -0.02545 -4.56883e-06
0.24882 0.000125221 -0.0138889 -4.36723e-06 -0.00628711 -1.12867e-06
0.243651 0.00012262 -0.00445225 -1.39997e-06 0.019552 3.51001e-06
0.237447 0.000119497 0.00728592 2.29099e-06 0.0520308 9.34063e-06
0.229012 0.000115252 0.0222085 6.98326e-06 0.0532219 9.55447e-06
0.219712 0.000110572 0.0349617 1.09934e-05 0.0451749 8.10986e-06
0.208388 0.000104873 0.0498832 1.56853e-05 0.0466347 8.37192e-06
0.196314 9.87965e-05 0.0621845 1.95534e-05 0.0647354 1.16214e-05
0.182756 9.19733e-05 0.0761305 2.39386e-05 0.0789211 1.4168e-05
0.168076 8.45859e-05 0.0940843 2.9584e-05 0.0720491 1.29343e-05
0.153186 7.70922e-05 0.113973 3.58378e-05 0.0558282 1.00224e-05
0.137933 6.9416e-05 0.134765 4.23756e-05 0.0434328 7.79711e-06
0.121535 6.11637e-05 0.154981 4.87323e-05 0.0416207 7.4718e-06
0.104772 5.27273e-05 0.175505 5.51861e-05 0.0453395 8.1394e-06
0.0884369 4.45066e-05 0.197908 6.22305e-05 0.045476 8.16391e-06
0.0724477 3.64599e-05 0.221923 6.97816e-05 0.0392283 7.04232e-06
0.0570869 2.87295e-05 0.246205 7.74171e-05 0.0311832 5.59806e-06
0.0439072 2.20967e-05 0.269448 8.47255e-05 0.0272574 4.89328e-06
0.0332564 1.67366e-05 0.291815 9.17585e-05 0.0282773 5.07638e-06
0.0234235 1.17881e-05 0.314559 9.89102e-05 0.030889 5.54524e-06
0.0139925 7.04184e-06 0.338466 0.000106428 0.0314927 5.65361e-06
0.00586621 2.95222e-06 0.363293 0.000114234 0.0296088 5.31541e-06
-0.000253338 -1.27494e-07 0.388131 0.000122044 0.02773 4.97813e-06
-0.00508708 -2.56011e-06 0.412603 0.000129739 0.028351 5.0896e-06
-0.00902812 -4.54348e-06 0.437146 0.000137457 0.0312233 5.60526e-06
-0.0115754 -5.82544e-06 0.462026 0.00014528 0.0341832 6.13661e-06
-0.012774 -6.42864e-06 0.487136 0.000153176 0.0356958 6.40816e-06
-0.0130033 -6.544e-06 0.511983 0.000160989 0.0362487 6.50741e-06
-0.0124158 -6.24837e-06 0.536271 0.000168626 0.0373583 6.7066e-06
-0.0111073 -5.58982e-06 0.560119 0.000176124 0.0397861 7.14246e-06
-0.0090823 -4.57075e-06 0.583491 0.000183474 0.0429141 7.70399e-06
-0.00662046 -3.3318e-06 0.606323 0.000190653 0.0456186 8.1895e-06
-0.00389826 -1.96183e-06 0.628426 0.000197603 0.047462 8.52043e-06
-0.00114877 -5.7813e-07 0.649488 0.000204226 0.0489503 8.78762e-06
0.00185365 9.32864e-07 0.669762 0.000210601 0.050757 9.11196e-06
0.00487488 2.45332e-06 0.689115 0.000216686 0.0529545 9.50646e-06
0.00780373 3.92729e-06 0.707441 0.000222449 0.0550835 9.88865e-06
0.0106174 5.34328e-06 0.724724 0.000227883 0.0566335 1.01669e-05
0.0133757 6.73145e-06 0.740872 0.00023296 0.0575921 1.0339e-05
0.0158324 7.96779e-06 0.755926 0.000237694 0.0583034 1.04667e-05
0.0179966 9.05696e-06 0.769732 0.000242035 0.0590188 1.05951e-05
0.0198254 9.97729e-06 0.782162 0.000245944 0.0597268 1.07222e-05
0.0213957 1.07676e-05 0.793165 0.000249404 0.0601252 1.07938e-05
0.0227416 1.14449e-05 0.802614 0.000252375 0.0600785 1.07854e-05
0.0236329 1.18935e-05 0.810624 0.000254893 0.0597281 1.07225e-05
0.0240992 1.21281e-05 0.817155 0.000256947 0.0592779 1.06416e-05
0.0241965 1.21771e-05 0.822121 0.000258508 0.0587879 1.05537e-05
0.023665 1.19096e-05 0.825593 0.0002596 0.0581876 1.04459e-05
0.0222966 1.12209e-05 0.828134 0.000260399 0.0579129 1.03966e-05
0.0199034 1.00166e-05 0.828972 0.000260663 0.0576175 1.03436e-05
0.0166682 8.38843e-06 0.827541 0.000260213 0.0556301 9.98678e-06
0.0129903 6.5375e-06 0.823779 0.00025903 0.0510526 9.16503e-06
0.00884272 4.45018e-06 0.818152 0.000257261 0.0460303 8.26341e-06
0.00438787 2.20823e-06 0.810532 0.000254864 0.0411394 7.38539e-06
-0.000213334 -1.07362e-07 0.799968 0.000251543 0.0346021 6.21181e-06
-0.0042221 -2.12481e-06 0.785855 0.000247105 0.0245285 4.40339e-06
-0.00666055 -3.35198e-06 0.771117 0.000242471 0.011631 2.088e-06
-0.00819745 -4.12544e-06 0.757751 0.000238268 -0.00236323 -4.24249e-07
-0.00951213 -4.78706e-06 0.742488 0.000233469 -0.0172884 -3.10364e-06
-0.0105553 -5.31202e-06 0.72328 0.000227429 -0.0337754 -6.0634e-06
-0.0110559 -5.564e-06 0.701599 0.000220611 -0.0519195 -9.32065e-06
-0.0108809 -5.47591e-06 0.679934 0.000213799 -0.0714624 -1.2829e-05
-0.0103897 -5.22871e-06 0.658847 0.000207168 -0.0920111 -1.65179e-05
-0.00947807 -4.76992e-06 0.636785 0.000200231 -0.113535 -2.0382e-05
-0.0082131 -4.13331e-06 0.612797 0.000192688 -0.13539 -2.43055e-05
-0.00696437 -3.50488e-06 0.587951 0.000184876 -0.154107 -2.76654e-05
-0.0072615 -3.65441e-06 0.571431 0.000179681 -0.150377 -2.69959e-05
-0.00789373 -3.97259e-06 0.557585 0.000175327 -0.167895 -3.01408e-05
-0.00692372 -3.48442e-06 0.539156 0.000169533 -0.181707 -3.26203e-05
-0.00673829 -3.3911e-06 0.521308 0.000163921 -0.179252 -3.21796e-05
-0.00617646 -3.10836e-06 0.500785 0.000157467 -0.163658 -2.93801e-05
-0.00547483 -2.75526e-06 0.481215 0.000151314 -0.151922 -2.72732e-05
-0.00473566 -2.38326e-06 0.462866 0.000145544 -0.15251 -2.73787e-05
-0.00406809 -2.0473e-06 0.44444 0.00013975 -0.159562 -2.86448e-05
-0.00356402 -1.79363e-06 0.425343 0.000133745 -0.162128 -2.91054e-05
-0.00323197 -1.62652e-06 0.405425 0.000127482 -0.155701 -2.79516e-05
-0.00299579 -1.50766e-06 0.385317 0.000121159 -0.145545 -2.61284e-05
-0.00335408 -1.68797e-06 0.365732 0.000115001 -0.139282 -2.50041e-05
-0.00454493 -2.28728e-06 0.346816 0.000109053 -0.138681 -2.48962e-05
-0.00626549 -3.15316e-06 0.328194 0.000103198 -0.139594 -2.50602e-05
-0.00871334 -4.38506e-06 0.309591 9.73482e-05 -0.137247 -2.46388e-05
-0.0122556 -6.16771e-06 0.290725 9.14157e-05 -0.130706 -2.34644e-05
-0.0152122 -7.65566e-06 0.271425 8.53471e-05 -0.123769 -2.22192e-05
-0.0179925 -9.05487e-06 0.251875 7.91997e-05 -0.120348 -2.16051e-05
-0.0227915 -1.147e-05 0.232806 7.32036e-05 -0.119277 -2.14127e-05
-0.0290658 -1.46276e-05 0.214759 6.75289e-05 -0.118092 -2.11999e-05
-0.0354647 -1.78479e-05 0.197315 6.2044e-05 -0.115387 -2.07144e-05
-0.0424067 -2.13415e-05 0.180013 5.66035e-05 -0.111937 -2.0095e-05
-0.0507847 -2.55578e-05 0.163022 5.12608e-05 -0.109476 -1.96533e-05
-0.0602603 -3.03265e-05 0.146748 4.61435e-05 -0.108931 -1.95554e-05
-0.0705008 -3.54801e-05 0.131466 4.13384e-05 -0.109702 -1.96938e-05
-0.082774 -4.16567e-05 0.116856 3.67445e-05 -0.110573 -1.98502e-05
-0.0967974 -4.87141e-05 0.102536 3.22415e-05 -0.111053 -1.99365e-05
-0.111872 -5.63003e-05 0.0886971 2.789e-05 -0.111688 -2.00504e-05
-0.127793 -6.4313e-05 0.0721394 2.26836e-05 -0.113246 -2.03301e-05
-0.144577 -7.27599e-05 0.0536812 1.68796e-05 -0.115878 -2.08026e-05
-0.161791 -8.14228e-05 0.0511528 1.60845e-05 -0.119054 -2.13727e-05
-0.174941 -8.80406e-05 0.0520048 1.63524e-05 -0.117875 -2.1161e-05
-0.179146 -9.01568e-05 0.0512192 1.61054e-05 -0.117176 -2.10356e-05
-0.186619 -9.39175e-05 0.0550879 1.73219e-05 -0.125615 -2.25505e-05
-0.190625 -9.59335e-05 0.0594411 1.86907e-05 -0.123044 -2.2089e-05
-0.19496 -9.81152e-05 0.064326 2.02267e-05 -0.112618 -2.02174e-05
-0.201624 -0.000101469 0.0711518 2.2373e-05 -0.109423 -1.96437e-05
-0.207493 -0.000104422 0.0767309 2.41274e-05 -0.105364 -1.89151e-05
-0.212025 -0.000106703 0.0810013 2.54701e-05 -0.0950041 -1.70553e-05
-0.217439 -0.000109428 0.0867117 2.72657e-05 -0.0882472 -1.58423e-05
-0.223057 -0.000112255 0.0932394 2.93183e-05 -0.0891776 -1.60093e-05
-0.227614 -0.000114549 0.0984636 3.0961e-05 -0.0903627 -1.6222e-05
-0.231894 -0.000116703 0.102953 3.23727e-05 -0.0925496 -1.66146e-05
-0.236117 -0.000118828 0.107013 3.36493e-05 -0.0968569 -1.73879e-05
-0.239598 -0.00012058 0.110118 3.46257e-05 -0.0951427 -1.70801e-05
-0.24258 -0.00012208 0.112697 3.54365e-05 -0.0912648 -1.6384e-05
-0.245214 -0.000123406 0.115012 3.61644e-05 -0.0897911 -1.61194e-05
-0.247342 -0.000124477 0.116825 3.67346e-05 -0.0916144 -1.64467e-05
-0.248905 -0.000125263 0.118006 3.71058e-05 -0.0939819 -1.68717e-05
-0.250032 -0.000125831 0.118692 3.73216e-05 -0.0942942 -1.69278e-05
-0.250738 -0.000126186 0.119421 3.75508e-05 -0.0924017 -1.65881e-05
-0.250825 -0.00012623 0.119963 3.77211e-05 -0.0904117 -1.62308e-05
-0.250148 -0.000125889 0.120994 3.80455e-05 -0.0897391 -1.61101e-05
-0.248368 -0.000124993 0.123322 3.87775e-05 -0.090326 -1.62154e-05
-0.245099 -0.000123348 0.127043 3.99476e-05 -0.090474 -1.6242e-05
-0.240157 -0.000120861 0.132513 4.16675e-05 -0.0852434 -1.5303e-05
-0.234149 -0.000117838 0.131583 4.13751e-05 -0.0841911 -1.51141e-05
-0.227648 -0.000114566 0.130269 4.09618e-05 -0.0872977 -1.56718e-05
-0.21794 -0.00010968 0.129776 4.08067e-05 -0.0890094 -1.59791e-05
-0.207718 -0.000104536 0.130865 4.11492e-05 -0.0900923 -1.61735e-05
-0.202829 -0.000102075 0.132849 4.17733e-05 -0.0926429 -1.66314e-05
-0.195983 -9.863e-05 0.132355 4.1618e-05 -0.0931612 -1.67244e-05
-0.189207 -9.52201e-05 0.131668 4.14019e-05 -0.0926791 -1.66379e-05
-0.18313 -9.21617e-05 0.133513 4.19819e-05 -0.0937464 -1.68295e-05
-0.176726 -8.8939e-05 0.134616 4.23288e-05 -0.0928254 -1.66641e-05
-0.169549 -8.53268e-05 0.135814 4.27054e-05 -0.0919661 -1.65099e-05
-0.162389 -8.17236e-05 0.13761 4.32702e-05 -0.091175 -1.63679e-05
-0.154983 -7.79967e-05 0.139246 4.37847e-05 -0.0880985 -1.58155e-05
-0.147538 -7.42496e-05 0.141193 4.43967e-05 -0.0838951 -1.5061e-05
-0.140031 -7.0472e-05 0.143322 4.50662e-05 -0.0793032 -1.42366e-05
-0.132343 -6.66026e-05 0.144285 4.53692e-05 -0.0739088 -1.32682e-05
-0.124703 -6.27578e-05 0.145351 4.57044e-05 -0.0673411 -1.20892e-05
-0.117192 -5.8978e-05 0.146791 4.6157e-05 -0.0593831 -1.06605e-05
-0.109692 -5.52034e-05 0.148618 4.67315e-05 -0.0497223 -8.92622e-06
-0.10227 -5.14683e-05 0.15074 4.73988e-05 -0.044447 -7.97918e-06
-0.0954476 -4.80348e-05 0.152937 4.80896e-05 -0.0401427 -7.20647e-06
-0.0889822 -4.47811e-05 0.155634 4.89376e-05 -0.0367378 -6.59522e-06
-0.0827495 -4.16444e-05 0.158851 4.99492e-05 -0.0345794 -6.20773e-06
-0.0765371 -3.85179e-05 0.162206 5.10043e-05 -0.0323351 -5.80483e-06
-0.0705811 -3.55205e-05 0.165956 5.21835e-05 -0.0297395 -5.33887e-06
-0.0648866 -3.26547e-05 0.170263 5.35376e-05 -0.0275161 -4.93972e-06
-0.0593328 -2.98597e-05 0.175003 5.50282e-05 -0.0258097 -4.6334e-06
-0.0539562 -2.71539e-05 0.18016 5.66497e-05 -0.0244147 -4.38295e-06
-0.048833 -2.45756e-05 0.18581 5.84264e-05 -0.0229743 -4.12438e-06
-0.043881 -2.20835e-05 0.191866 6.03304e-05 -0.0213092 -3.82546e-06
-0.0394294 -1.98432e-05 0.198322 6.23605e-05 -0.0196319 -3.52435e-06
-0.0347002 -1.74632e-05 0.205237 6.45348e-05 -0.0182748 -3.28072e-06
-0.0297962 -1.49952e-05 0.212538 6.68308e-05 -0.0171643 -3.08136e-06
-0.0254617 -1.28138e-05 0.220137 6.92202e-05 -0.0160588 -2.88289e-06
-0.0214449 -1.07923e-05 0.227898 7.16605e-05 -0.0148594 -2.66757e-06
-0.0172094 -8.66076e-06 0.23585 7.41609e-05 -0.0136602 -2.4523e-06
-0.0128105 -6.44699e-06 0.244099 7.67546e-05 -0.012508 -2.24546e-06
-0.00852707 -4.29132e-06 0.252594 7.94259e-05 -0.0113818 -2.04327e-06
-0.00434167 -2.18499e-06 0.261321 8.21699e-05 -0.0102869 -1.84672e-06
4.01959e-05 2.02289e-08 0.270272 8.49847e-05 -0.00920541 -1.65257e-06
0.00468475 2.35764e-06 0.279434 8.78656e-05 -0.00805803 -1.44659e-06
0.00946163 4.76165e-06 0.28882 9.08168e-05 -0.00679393 -1.21965e-06
0.014416 7.25496e-06 0.298308 9.38003e-05 -0.00544445 -9.77394e-07
0.0196716 9.89989e-06 0.3078 9.67849e-05 -0.00404016 -7.25294e-07
0.0252912 1.2728e-05 0.31722 9.97469e-05 -0.00253049 -4.54277e-07
0.0312453 1.57245e-05 0.326473 0.000102656 -0.000822941 -1.47735e-07
0.0375181 1.88813e-05 0.335514 0.000105499 0.0011308 2.03002e-07
0.044189 2.22385e-05 0.344207 0.000108233 0.00331917 5.95861e-07
0.0512668 2.58005e-05 0.352459 0.000110828 0.00572602 1.02794e-06
0.0587242 2.95534e-05 0.36024 0.000113274 0.00837346 1.50322e-06
0.066534 3.34838e-05 0.367499 0.000115557 0.0113002 2.02862e-06
0.0746581 3.75723e-05 0.374257 0.000117682 0.0145181 2.6063e-06
0.083099 4.18203e-05 0.380457 0.000119631 0.0180048 3.23225e-06
0.0917814 4.61898e-05 0.386065 0.000121395 0.0217231 3.89976e-06
0.100621 5.06386e-05 0.391129 0.000122987 0.0256371 4.60241e-06
0.109566 5.514e-05 0.395686 0.00012442 0.0297222 5.33576e-06
0.118507 5.96394e-05 0.399869 0.000125735 0.0339391 6.09279e-06
0.127294 6.40618e-05 0.403725 0.000126948 0.0382384 6.86461e-06
0.135921 6.84032e-05 0.407396 0.000128102 0.0425406 7.63695e-06
0.144311 7.26258e-05 0.411075 0.000129259 0.0467216 8.38752e-06
0.15227 7.66313e-05 0.414858 0.000130448 0.0507867 9.1173e-06
0.159788 8.04147e-05 0.418934 0.00013173 0.0546295 9.80716e-06
