-0.0280428 -1.41128e-05 -0.0784337 -2.46628e-05 -0.0227874 -4.09083e-06
-0.0283644 -1.42746e-05 -0.078334 -2.46314e-05 -0.0228136 -4.09553e-06
-0.029093 -1.46413e-05 -0.0781141 -2.45623e-05 -0.0228544 -4.10286e-06
-0.0305874 -1.53934e-05 -0.0776831 -2.44267e-05 -0.0229124 -4.11327e-06
-0.0322725 -1.62414e-05 -0.0772566 -2.42927e-05 -0.0229474 -4.11954e-06
-0.0344254 -1.73249e-05 -0.0768001 -2.41491e-05 -0.0229514 -4.12026e-06
-0.0370739 -1.86578e-05 -0.076351 -2.40079e-05 -0.022896 -4.11032e-06
-0.0402466 -2.02545e-05 -0.075953 -2.38827e-05 -0.0227521 -4.08449e-06
-0.043976 -2.21313e-05 -0.0756635 -2.37917e-05 -0.0224939 -4.03814e-06
-0.0482966 -2.43057e-05 -0.0755492 -2.37558e-05 -0.0220968 -3.96684e-06
-0.0532371 -2.67921e-05 -0.0756803 -2.3797e-05 -0.0215343 -3.86586e-06
-0.0588065 -2.95949e-05 -0.076133 -2.39393e-05 -0.0207798 -3.73042e-06
-0.0649782 -3.27008e-05 -0.0769965 -2.42109e-05 -0.0198121 -3.55669e-06
-0.071662 -3.60645e-05 -0.0783656 -2.46414e-05 -0.0186213 -3.34292e-06
-0.0787319 -3.96225e-05 -0.0803716 -2.52721e-05 -0.0171972 -3.08727e-06
-0.0860139 -4.32872e-05 -0.0831491 -2.61455e-05 -0.0155411 -2.78996e-06
-0.0932679 -4.69379e-05 -0.0868183 -2.72992e-05 -0.0136734 -2.45466e-06
-0.100234 -5.04438e-05 -0.0914792 -2.87648e-05 -0.0116365 -2.08901e-06
-0.106665 -5.36803e-05 -0.0972039 -3.05649e-05 -0.0095005 -1.70554e-06
-0.112324 -5.65281e-05 -0.104022 -3.27087e-05 -0.00769418 -1.38127e-06
-0.116977 -5.88697e-05 -0.111915 -3.51907e-05 -0.00599974 -1.07708e-06
-0.120377 -6.05805e-05 -0.120824 -3.7992e-05 -0.00454442 -8.15821e-07
-0.122241 -6.15188e-05 -0.130655 -4.10833e-05 -0.00347008 -6.22954e-07
-0.122232 -6.15145e-05 -0.14128 -4.44242e-05 -0.00294432 -5.28569e-07
-0.119961 -6.03713e-05 -0.152547 -4.7967e-05 -0.00315779 -5.6689e-07
-0.115027 -5.78881e-05 -0.164245 -5.16453e-05 -0.00431439 -7.74525e-07
-0.107136 -5.39171e-05 -0.176061 -5.53609e-05 -0.00675045 -1.21185e-06
-0.0962503 -4.84388e-05 -0.187583 -5.89837e-05 -0.0112903 -2.02684e-06
-0.0826977 -4.16183e-05 -0.198243 -6.23358e-05 -0.0178794 -3.20973e-06
-0.0671353 -3.37864e-05 -0.207341 -6.51966e-05 -0.0267477 -4.80178e-06
-0.050359 -2.53436e-05 -0.21413 -6.73311e-05 -0.0380898 -6.83794e-06
-0.033122 -1.66689e-05 -0.217921 -6.85234e-05 -0.0520716 -9.34797e-06
-0.01609 -8.09742e-06 -0.218174 -6.86029e-05 -0.068766 -1.2345e-05
0.00016026 8.06522e-08 -0.214532 -6.74575e-05 -0.0881024 -1.58163e-05
0.0152533 7.67635e-06 -0.20681 -6.50294e-05 -0.109841 -1.97188e-05
0.0292047 1.46975e-05 -0.194967 -6.13056e-05 -0.133598 -2.39838e-05
0.0417667 2.10195e-05 -0.179134 -5.6327e-05 -0.158892 -2.85245e-05
0.0522491 2.62948e-05 -0.15977 -5.02384e-05 -0.185042 -3.32189e-05
0.0616644 3.10331e-05 -0.137324 -4.31802e-05 -0.211369 -3.79451e-05
0.0701596 3.53084e-05 -0.11235 -3.53274e-05 -0.237024 -4.25508e-05
0.0778519 3.91796e-05 -0.0855372 -2.68964e-05 -0.261171 -4.68858e-05
0.0848808 4.2717e-05 -0.0575914 -1.81091e-05 -0.282939 -5.07936e-05
0.0912691 4.5932e-05 -0.0291997 -9.18157e-06 -0.301491 -5.41241e-05
0.0968802 4.87558e-05 -0.00100867 -3.17166e-07 -0.316014 -5.67312e-05
0.101517 5.10894e-05 0.0263773 8.29412e-06 -0.325746 -5.84784e-05
0.105077 5.28811e-05 0.0524349 1.64877e-05 -0.329998 -5.92417e-05
0.107689 5.41956e-05 0.0743586 2.33814e-05 -0.328034 -5.8889e-05
0.109734 5.52244e-05 0.0935569 2.94181e-05 -0.319621 -5.73787e-05
0.111921 5.63251e-05 0.109519 3.44371e-05 -0.304295 -5.46275e-05
0.115181 5.7966e-05 0.121715 3.82721e-05 -0.281837 -5.05957e-05
0.122506 6.16521e-05 0.13084 4.11414e-05 -0.243771 -4.37621e-05
0.13572 6.83022e-05 0.132497 4.16626e-05 -0.195085 -3.50218e-05
0.156992 7.90077e-05 0.12671 3.98428e-05 -0.136774 -2.45538e-05
0.187724 9.44738e-05 0.114315 3.59454e-05 -0.070442 -1.26458e-05
0.228272 0.00011488 0.0969771 3.04936e-05 -0.00323702 -5.81115e-07
0.277789 0.0001398 0.0771584 2.42618e-05 0.0589057 1.05748e-05
0.334168 0.000168173 0.0581221 1.8276e-05 0.120728 2.16732e-05
0.394244 0.000198407 0.043606 1.37115e-05 0.180277 3.23635e-05
0.454477 0.00022872 0.0372354 1.17083e-05 0.235123 4.22096e-05
0.511856 0.000257596 0.0420732 1.32295e-05 0.28315 5.08314e-05
0.564454 0.000284066 0.0602868 1.89566e-05 0.32284 5.79566e-05
0.611429 0.000307707 0.0929466 2.92262e-05 0.353677 6.34925e-05
0.652753 0.000328503 0.140038 4.40336e-05 0.375787 6.74618e-05
0.688945 0.000346718 0.200612 6.30805e-05 0.389886 6.99927e-05
0.720747 0.000362722 0.272948 8.58261e-05 0.397267 7.13179e-05
0.748742 0.000376811 0.354739 0.000111544 0.399866 7.17845e-05
0.773335 0.000389187 0.443229 0.000139369 0.400044 7.18164e-05
0.795115 0.000400148 0.535267 0.00016831 0.400395 7.18794e-05
0.815163 0.000410238 0.627359 0.000197267 0.403585 7.2452e-05
0.834977 0.000420209 0.715861 0.000225096 0.412268 7.40108e-05
0.856066 0.000430823 0.797332 0.000250714 0.428885 7.6994e-05
0.879395 0.000442563 0.868917 0.000273223 0.455426 8.17586e-05
0.905059 0.000455479 0.928583 0.000291985 0.493245 8.8548e-05
0.932608 0.000469343 0.975106 0.000306613 0.543046 9.74882e-05
0.961462 0.000483864 1.00796 0.000316944 0.604869 0.000108587
0.991053 0.000498756 1.02728 0.000323019 0.678085 0.000121731
1.02086 0.000513757 1.03382 0.000325077 0.761397 0.000136687
1.05044 0.000528644 1.02893 0.000323537 0.852917 0.000153117
1.07947 0.00054325 1.01439 0.000318966 0.950259 0.000170592
1.10768 0.000557448 0.992382 0.000312046 1.05066 0.000188615
1.13482 0.000571107 0.965366 0.000303551 1.15108 0.000206643
1.16064 0.0005841 0.935964 0.000294306 1.24835 0.000224106
1.18501 0.000596367 0.906779 0.000285128 1.33936 0.000240443
1.20811 0.000607991 0.880209 0.000276774 1.42114 0.000255126
1.23037 0.000619196 0.858346 0.000269899 1.49109 0.000267682
1.2523 0.000630231 0.842952 0.000265059 1.54697 0.000277714
1.27396 0.000641131 0.835541 0.000262728 1.58705 0.000284909
1.29458 0.00065151 0.83743 0.000263322 1.61013 0.000289052
1.31261 0.000660583 0.849652 0.000267165 1.61563 0.000290039
1.32614 0.000667392 0.872724 0.00027442 1.60366 0.000287891
1.3325 0.000670594 0.898873 0.000282643 1.58206 0.000284013
1.33369 0.000671191 0.940344 0.000295683 1.54131 0.000276698
1.3266 0.000667623 0.989867 0.000311255 1.48734 0.000267009
1.31105 0.000659798 1.04483 0.000328538 1.42293 0.000255446
1.28721 0.0006478 1.10202 0.000346522 1.35131 0.000242589
1.25533 0.000631758 1.15787 0.000364081 1.27598 0.000229066
1.21576 0.00061184 1.20863 0.000380042 1.20053 0.000215521
1.16886 0.000588236 1.25058 0.000393234 1.12843 0.000202577
1.11495 0.000561106 1.28023 0.000402557 1.06284 0.000190802
1.05435 0.000530608 1.29447 0.000407036 1.00645 0.00018068
0.987378 0.000496907 1.29075 0.000405865 0.961343 0.000172581
0.914334 0.000460147 1.26716 0.000398446 0.928826 0.000166744
0.835571 0.000420508 1.22252 0.00038441 0.909404 0.000163257
0.751854 0.000378377 1.15635 0.000363605 0.902732 0.00016206
0.664677 0.000334504 1.06878 0.000336069 0.907623 0.000162938
0.576067 0.000289911 0.960611 0.000302055 0.922049 0.000165527
0.487879 0.000245529 0.833548 0.000262102 0.943163 0.000169318
0.401495 0.000202056 0.690287 0.000217055 0.967394 0.000173668
0.317975 0.000160024 0.534342 0.000168019 0.990594 0.000177833
0.238154 0.000119853 0.369821 0.000116287 1.00823 0.000180998
0.162633 8.18463e-05 0.201272 6.32883e-05 1.01559 0.000182319
0.0916564 4.61269e-05 0.0335305 1.05434e-05 1.00805 0.000180966
0.0221336 1.11389e-05 -0.128158 -4.02982e-05 0.981185 0.000176144
-0.0457357 -2.30169e-05 -0.284358 -8.9414e-05 0.931948 0.000167305
-0.111464 -5.60954e-05 -0.43447 -0.000136615 0.856344 0.000153732
-0.176399 -8.87743e-05 -0.564731 -0.000177575 0.752883 0.000135159
-0.241471 -0.000121522 -0.672235 -0.000211378 0.62079 0.000111445
-0.305854 -0.000153924 -0.756597 -0.000237905 0.460171 8.26104e-05
-0.368403 -0.000185402 -0.818238 -0.000257287 0.272769 4.89679e-05
-0.428361 -0.000215576 -0.858062 -0.00026981 0.0619318 1.11181e-05
-0.485685 -0.000244425 -0.87787 -0.000276038 -0.208934 -3.75081e-05
-0.541231 -0.000272379 -0.880719 -0.000276934 -0.507451 -9.10983e-05
-0.596274 -0.00030008 -0.869624 -0.000273445 -0.816735 -0.000146621
-0.651917 -0.000328083 -0.848213 -0.000266713 -1.12898 -0.000202675
-0.709248 -0.000356935 -0.820895 -0.000258123 -1.43663 -0.000257905
-0.769486 -0.00038725 -0.79223 -0.00024911 -1.73254 -0.000311027
-0.833896 -0.000419665 -0.766572 -0.000241042 -2.00847 -0.000360564
-0.903614 -0.000454752 -0.748185 -0.00023526 -2.25695 -0.000405171
-0.979342 -0.000492862 -0.741247 -0.000233078 -2.47161 -0.000443707
-1.06092 -0.000533919 -0.749611 -0.000235709 -2.64739 -0.000475264
-1.14704 -0.000577257 -0.776693 -0.000244224 -2.78008 -0.000499083
-1.2353 -0.000621675 -0.825348 -0.000259523 -2.86677 -0.000514646
-1.32288 -0.000665748 -0.897482 -0.000282205 -2.9064 -0.000521761
-1.40716 -0.000708165 -0.993577 -0.000312421 -2.89994 -0.0005206
-1.48614 -0.000747913 -1.1125 -0.000349816 -2.85009 -0.000511651
-1.55862 -0.000784387 -1.25153 -0.000393532 -2.76126 -0.000495704
-1.62418 -0.00081738 -1.40645 -0.000442247 -2.63946 -0.00047384
-1.68308 -0.000847026 -1.57181 -0.000494242 -2.49213 -0.000447391
-1.73617 -0.000873744 -1.74119 -0.000547503 -2.32765 -0.000417862
-1.78457 -0.000898102 -1.90773 -0.000599867 -2.15485 -0.000386842
-1.82933 -0.000920626 -2.06454 -0.000649176 -1.98263 -0.000355924
-1.87118 -0.000941688 -2.20521 -0.000693409 -1.81949 -0.000326637
-1.91063 -0.000961539 -2.32408 -0.000730785 -1.67319 -0.000300373
-1.94798 -0.00098034 -2.4165 -0.000759846 -1.55031 -0.000278314
-1.97703 -0.000994957 -2.47692 -0.000778846 -1.45656 -0.000261483
-1.97604 -0.000994461 -2.48666 -0.000781907 -1.40185 -0.000251662
-1.97298 -0.000992918 -2.46688 -0.00077569 -1.37836 -0.000247444
-1.99022 -0.0010016 -2.43061 -0.000764283 -1.38241 -0.000248173
-2.00743 -0.00101025 -2.36797 -0.000744588 -1.41778 -0.000254522
-2.0159 -0.00101452 -2.2817 -0.00071746 -1.48084 -0.000265841
-1.98081 -0.000996858 -2.1952 -0.000690262 -1.56105 -0.000280241
-1.94473 -0.0009787 -2.09383 -0.000658387 -1.65934 -0.000297887
-1.90096 -0.000956673 -1.97545 -0.000621163 -1.77203 -0.000318117
-1.85566 -0.000933877 -1.84917 -0.000581455 -1.89169 -0.000339599
-1.81004 -0.000910918 -1.7205 -0.000540995 -2.01178 -0.000361157
-1.76386 -0.000887676 -1.59179 -0.000500523 -2.12577 -0.000381621
-1.72044 -0.000865824 -1.46776 -0.000461524 -2.22744 -0.000399873
-1.6812 -0.00084608 -1.35337 -0.000425556 -2.31151 -0.000414965
-1.64695 -0.000828841 -1.25252 -0.000393842 -2.37259 -0.000425931
-1.61946 -0.000815005 -1.16838 -0.000367386 -2.40578 -0.000431889
-1.59977 -0.0008051 -1.10341 -0.000346958 -2.40819 -0.000432321
-1.58838 -0.000799368 -1.05973 -0.000333224 -2.37846 -0.000426984
-1.58584 -0.000798089 -1.03874 -0.000326622 -2.3158 -0.000415735
-1.5922 -0.000801287 -1.04059 -0.000327205 -2.22059 -0.000398643
-1.60705 -0.000808764 -1.06472 -0.000334791 -2.09505 -0.000376106
-1.62842 -0.000819518 -1.11039 -0.000349153 -1.94281 -0.000348776
-1.6456 -0.000828163 -1.17856 -0.000370588 -1.76778 -0.000317355
-1.65692 -0.000833861 -1.26652 -0.000398247 -1.57585 -0.000282899
-1.66178 -0.000836304 -1.36957 -0.000430648 -1.37397 -0.000246657
-1.66026 -0.000835541 -1.48186 -0.000465958 -1.17006 -0.000210051
-1.65495 -0.000832866 -1.57429 -0.000495022 -1.01113 -0.00018152
-1.64648 -0.000828604 -1.66552 -0.000523707 -0.860522 -0.000154482
-1.63529 -0.000822971 -1.75218 -0.000550956 -0.722249 -0.000129659
-1.62178 -0.000816177 -1.83105 -0.000575758 -0.600114 -0.000107733
-1.60633 -0.0008084 -1.89926 -0.000597206 -0.497608 -8.93311e-05
-1.5892 -0.000799777 -1.95434 -0.000614526 -0.417723 -7.49901e-05
-1.57049 -0.000790363 -1.99428 -0.000627083 -0.362769 -6.51247e-05
-1.55008 -0.000780091 -2.01757 -0.000634407 -0.334309 -6.00156e-05
-1.5275 -0.00076873 -2.02335 -0.000636224 -0.33319 -5.98148e-05
-1.50201 -0.000755898 -2.01141 -0.000632471 -0.359553 -6.45475e-05
-1.4726 -0.0007411 -1.98217 -0.000623276 -0.412801 -7.41065e-05
-1.43831 -0.000723844 -1.93651 -0.000608917 -0.491591 -8.8251e-05
-1.39843 -0.00070377 -1.87564 -0.000589777 -0.593904 -0.000106618
-1.35265 -0.000680732 -1.80102 -0.000566314 -0.717155 -0.000128745
-1.30121 -0.000654847 -1.71428 -0.000539039 -0.858289 -0.000154081
-1.24477 -0.000626443 -1.61719 -0.000508509 -1.01384 -0.000182005
-1.18417 -0.000595944 -1.51167 -0.000475332 -1.17996 -0.000211828
-1.12018 -0.000563739 -1.39987 -0.000440177 -1.35252 -0.000242806
-1.05341 -0.000530137 -1.2841 -0.000403772 -1.52718 -0.000274161
-0.984346 -0.000495381 -1.16676 -0.000366879 -1.69953 -0.000305102
-0.913452 -0.000459702 -1.05027 -0.000330249 -1.86521 -0.000334845
-0.841219 -0.00042335 -0.936908 -0.000294602 -2.02 -0.000362632
-0.768141 -0.000386574 -0.828774 -0.0002606 -2.1599 -0.000387748
-0.694656 -0.000349591 -0.72778 -0.000228844 -2.28128 -0.000409538
-0.621124 -0.000312586 -0.635583 -0.000199853 -2.38091 -0.000427423
-0.547855 -0.000275713 -0.553526 -0.000174051 -2.45605 -0.000440914
-0.475152 -0.000239124 -0.482579 -0.000151743 -2.50456 -0.000449622
-0.403329 -0.000202979 -0.423309 -0.000133106 -2.52487 -0.000453268
-0.332708 -0.000167438 -0.375866 -0.000118188 -2.51605 -0.000451685
-0.263615 -0.000132667 -0.339994 -0.000106908 -2.47784 -0.000444825
-0.196374 -9.88271e-05 -0.315039 -9.90612e-05 -2.41058 -0.00043275
-0.13129 -6.60729e-05 -0.299983 -9.43268e-05 -2.31524 -0.000415634
-0.068658 -3.45527e-05 -0.293474 -9.22801e-05 -2.19335 -0.000393753
-0.0087763 -4.41675e-06 -0.293875 -9.24063e-05 -2.04698 -0.000367476
0.0378546 1.90507e-05 -0.298295 -9.3796e-05 -1.87851 -0.000337233
0.0618196 3.11113e-05 -0.299599 -9.42061e-05 -1.69244 -0.00030383
0.0865323 4.35481e-05 -0.301449 -9.47878e-05 -1.48964 -0.000267423
0.110022 5.53697e-05 -0.305022 -9.59115e-05 -1.27296 -0.000228524
0.130803 6.58275e-05 -0.309393 -9.72857e-05 -1.04587 -0.000187756
0.150687 7.58343e-05 -0.311821 -9.80493e-05 -0.811347 -0.000145654
0.170987 8.60505e-05 -0.310299 -9.75706e-05 -0.572779 -0.000102826
0.191823 9.65368e-05 -0.30448 -9.57411e-05 -0.333509 -5.98719e-05
0.213814 0.000107604 -0.29397 -9.24361e-05 -0.0967491 -1.73685e-05
0.238101 0.000119827 -0.277451 -8.72421e-05 0.104982 1.88464e-05
0.265363 0.000133546 -0.253906 -7.98386e-05 0.288378 5.17699e-05
0.295752 0.00014884 -0.222463 -6.99514e-05 0.462466 8.30224e-05
0.329524 0.000165836 -0.182508 -5.73879e-05 0.626028 0.000112385
0.366881 0.000184636 -0.139065 -4.37278e-05 0.77771 0.000139616
0.407739 0.000205198 -0.0890761 -2.80092e-05 0.915811 0.000164408
0.451919 0.000227432 -0.0306748 -9.6454e-06 1.03888 0.000186502
0.499333 0.000251294 0.0365586 1.14955e-05 1.14636 0.000205795
0.549864 0.000276724 0.112303 3.53126e-05 1.23814 0.000222273
0.603336 0.000303634 0.195608 6.15072e-05 1.31434 0.000235952
0.659547 0.000331923 0.285491 8.97702e-05 1.37526 0.000246889
0.718187 0.000361434 0.381157 0.000119852 1.42156 0.0002552
0.778771 0.000391923 0.481727 0.000151475 1.45415 0.000261052
0.840662 0.00042307 0.586009 0.000184265 1.47425 0.000264659
0.903122 0.000454504 0.692611 0.000217785 1.48327 0.000266278
0.965355 0.000485823 0.800146 0.000251599 1.48287 0.000266206
1.02653 0.00051661 0.907289 0.000285289 1.47479 0.000264757
1.0858 0.000546439 1.01267 0.000318425 1.46084 0.000262251
1.14234 0.000574895 1.11482 0.000350545 1.44281 0.000259014
1.1954 0.000601595 1.21223 0.000381174 1.42256 0.000255379
1.2443 0.000626206 1.30345 0.000409858 1.40195 0.00025168
1.2885 0.000648451 1.38713 0.00043617 1.38275 0.000248232
1.3276 0.000668124 1.46199 0.000459708 1.36651 0.000245318
1.36133 0.000685101 1.5268 0.000480088 1.35462 0.000243183
1.38963 0.000699344 1.58047 0.000496964 1.34822 0.000242034
1.41259 0.000710898 1.62209 0.000510051 1.34827 0.000242044
1.43044 0.000719881 1.65097 0.000519133 1.35545 0.000243331
1.44349 0.000726448 1.66666 0.000524068 1.37006 0.000245955
1.4521 0.00073078 1.66899 0.000524799 1.39209 0.00024991
1.45667 0.000733082 1.65805 0.000521359 1.4212 0.000255135
1.45761 0.000733556 1.6341 0.000513828 1.45677 0.000261521
1.45541 0.000732449 1.59777 0.000502404 1.49787 0.000268899
1.45081 0.000730132 1.55003 0.000487393 1.54321 0.000277038
1.44455 0.000726981 1.49214 0.00046919 1.59125 0.000285663
1.43724 0.000723301 1.42556 0.000448256 1.64025 0.00029446
1.4294 0.000719358 1.35202 0.000425131 1.6883 0.000303085
1.42151 0.000715385 1.27344 0.000400423 1.73334 0.000311172
1.41392 0.000711568 1.1919 0.000374782 1.77329 0.000318344
1.40697 0.000708067 1.10949 0.000348869 1.80607 0.000324228
1.40096 0.000705047 1.02832 0.000323346 1.82968 0.000328467
1.39626 0.000702681 0.950422 0.000298852 1.84228 0.000330729
1.39317 0.000701126 0.877715 0.00027599 1.84224 0.000330722
1.39196 0.000700516 0.811949 0.00025531 1.8282 0.0003282
1.39283 0.000700956 0.754671 0.000237299 1.7991 0.000322977
1.39596 0.000702528 0.707181 0.000222367 1.75426 0.000314926
1.40147 0.000705303 0.670488 0.000210829 1.69337 0.000303995
1.40954 0.000709361 0.64527 0.000202899 1.61655 0.000290205
1.42035 0.000714801 0.631861 0.000198683 1.52434 0.000273652
1.43407 0.000721706 0.630223 0.000198168 1.41772 0.000254511
1.45046 0.000729957 0.639427 0.000201062 1.29848 0.000233105
1.46929 0.000739432 0.659939 0.000207512 1.16773 0.000209633
1.49174 0.000750732 0.690603 0.000217154 1.02753 0.000184464
1.51492 0.000762399 0.730628 0.000229739 0.880374 0.000158046
1.53915 0.000774592 0.778766 0.000244876 0.728911 0.000130855
1.56568 0.000787943 0.833114 0.000261965 0.576284 0.000103455
1.59305 0.000801717 0.892281 0.00028057 0.425014 7.62991e-05
1.61657 0.00081355 0.954278 0.000300064 0.278148 4.99335e-05
1.63676 0.000823715 1.01853 0.000320267 0.138354 2.48375e-05
1.65336 0.000832067 1.08384 0.000340802 0.00873047 1.56731e-06
1.66502 0.000837934 1.14846 0.000361123 -0.118176 -2.12151e-05
1.67013 0.000840509 1.21051 0.000380635 -0.240174 -4.31164e-05
1.66801 0.000839441 1.26831 0.00039881 -0.341008 -6.12183e-05
1.65822 0.000834512 1.32049 0.000415215 -0.417724 -7.49904e-05
1.64006 0.000825377 1.36516 0.000429262 -0.467623 -8.39483e-05
1.6134 0.000811956 1.40042 0.00044035 -0.488867 -8.77621e-05
1.57884 0.000794566 1.42473 0.000447994 -0.480519 -8.62633e-05
1.53723 0.000773623 1.43684 0.000451803 -0.442139 -7.93733e-05
1.48923 0.000749466 1.43572 0.000451449 -0.373609 -6.70708e-05
1.43561 0.000722484 1.42064 0.000446707 -0.275375 -4.94357e-05
1.37738 0.000693179 1.39127 0.000437473 -0.148648 -2.66855e-05
1.31558 0.000662079 1.34773 0.00042378 -0.0149902 -2.69107e-06
1.25134 0.000629748 1.29023 0.000405702 0.130853 2.34908e-05
1.18585 0.000596789 1.2197 0.000383524 0.293212 5.26378e-05
1.12032 0.00056381 1.13739 0.000357641 0.469424 8.42717e-05
1.05571 0.000531295 1.04489 0.000328556 0.656138 0.000117791
0.992675 0.000499572 0.944181 0.000296889 0.849261 0.00015246
0.931668 0.00046887 0.837631 0.000263386 1.04436 0.000187486
0.872976 0.000439332 0.727882 0.000228876 1.23709 0.000222084
0.816705 0.000411014 0.617685 0.000194225 1.42326 0.000255505
0.762796 0.000383884 0.509807 0.000160304 1.59877 0.000287013
0.711098 0.000357866 0.406962 0.000127966 1.75954 0.000315875
0.661453 0.000332882 0.311723 9.80185e-05 1.90168 0.000341391
0.61375 0.000308875 0.226389 7.11861e-05 2.02171 0.00036294
0.567932 0.000285817 0.152884 4.80731e-05 2.1168 0.00038001
0.523931 0.000263673 0.092715 2.91534e-05 2.18468 0.000392197
0.481609 0.000242374 0.0469656 1.47679e-05 2.22371 0.000399204
0.440763 0.000221818 0.0162725 5.11674e-06 2.23281 0.000400838
0.401168 0.000201891 0.000777238 2.44395e-07 2.21156 0.000397023
0.362598 0.000182481 9.62277e-05 3.02579e-08 2.16028 0.000387816
0.324829 0.000163473 0.0133307 4.19173e-06 2.07999 0.000373403
0.287636 0.000144755 0.0391083 1.22973e-05 1.9724 0.000354087
0.25078 0.000126207 0.0756356 2.37829e-05 1.83974 0.000330273
0.213972 0.000107683 0.120758 3.79712e-05 1.68477 0.000302452
0.176843 8.89976e-05 0.172027 5.40923e-05 1.51067 0.000271197
0.138936 6.99205e-05 0.22678 7.13088e-05 1.321 0.000237148
0.0997096 5.01797e-05 0.282221 8.87418e-05 1.1196 0.000200992
0.0773391 3.89215e-05 0.331184 0.000104138 0.911056 0.000163554
0.0605056 3.045e-05 0.372121 0.00011701 0.698718 0.000125435
0.0398725 2.00662e-05 0.404901 0.000127318 0.486764 8.73845e-05
0.0166083 8.35828e-06 0.430191 0.00013527 0.27745 4.98083e-05
-0.00940309 -4.73218e-06 0.44565 0.000140131 0.074555 1.33842e-05
-0.0394068 -1.98318e-05 0.4482 0.000140932 -0.139144 -2.49794e-05
-0.0733573 -3.69177e-05 0.436023 0.000137103 -0.35993 -6.46151e-05
-0.110146 -5.5432e-05 0.409016 0.000128612 -0.563985 -0.000101247
-0.149178 -7.50752e-05 0.367739 0.000115632 -0.748632 -0.000134395
-0.193181 -9.72201e-05 0.310909 9.77626e-05 -0.911873 -0.000163701
-0.240455 -0.000121011 0.237851 7.479e-05 -1.05321 -0.000189074
-0.290444 -0.000146168 0.139103 4.37396e-05 -1.17186 -0.000210374
-0.342705 -0.000172469 0.0246044 7.73662e-06 -1.26931 -0.000227867
-0.396815 -0.000199701 -0.103249 -3.24658e-05 -1.34537 -0.000241523
-0.4525 -0.000227724 -0.242667 -7.63044e-05 -1.40158 -0.000251613
-0.509056 -0.000256187 -0.391969 -0.000123251 -1.44028 -0.00025856
-0.565756 -0.000284721 -0.548924 -0.000172604 -1.46422 -0.000262859
-0.62169 -0.000312871 -0.710746 -0.000223488 -1.47607 -0.000264986
-0.675208 -0.000339804 -0.874654 -0.000275027 -1.47851 -0.000265425
-0.726222 -0.000365477 -1.03755 -0.000326248 -1.4748 -0.000264759
-0.774812 -0.000389931 -1.1963 -0.000376166 -1.46838 -0.000263605
-0.821323 -0.000413338 -1.34762 -0.000423745 -1.46259 -0.000262567
-0.866333 -0.000435989 -1.48816 -0.000467937 -1.46052 -0.000262195
-0.910475 -0.000458204 -1.6149 -0.000507791 -1.46493 -0.000262985
-0.954289 -0.000480254 -1.72536 -0.000542523 -1.4782 -0.000265368
-0.998169 -0.000502337 -1.81757 -0.000571517 -1.50226 -0.000269688
-1.03853 -0.000522647 -1.89132 -0.00059471 -1.53821 -0.000276141
-1.07219 -0.000539586 -1.94707 -0.00061224 -1.58617 -0.000284752
-1.10293 -0.000555059 -1.98297 -0.000623527 -1.64748 -0.000295758
-1.1306 -0.000568986 -1.99882 -0.000628512 -1.72129 -0.000309008
-1.15545 -0.00058149 -1.99521 -0.000627377 -1.80646 -0.000324298
-1.17722 -0.000592446 -1.97326 -0.000620475 -1.90161 -0.00034138
-1.19572 -0.000601758 -1.93459 -0.000608314 -2.00493 -0.000359928
-1.2112 -0.000609546 -1.88119 -0.000591522 -2.11388 -0.000379487
-1.22402 -0.000616 -1.81505 -0.000570726 -2.22549 -0.000399522
-1.23449 -0.000621266 -1.73836 -0.000546612 -2.33665 -0.000419479
-1.24303 -0.000625568 -1.65375 -0.000520006 -2.44419 -0.000438784
-1.25025 -0.0006292 -1.5641 -0.000491818 -2.54479 -0.000456843
-1.25667 -0.000632428 -1.47225 -0.000462935 -2.63504 -0.000473046
-1.26273 -0.000635481 -1.38088 -0.000434205 -2.71161 -0.000486792
-1.26892 -0.000638596 -1.29265 -0.000406463 -2.77143 -0.000497531
-1.27569 -0.000642001 -1.21016 -0.000380524 -2.8118 -0.000504778
-1.28342 -0.000645891 -1.13575 -0.000357128 -2.83045 -0.000508125
-1.29245 -0.000650436 -1.07144 -0.000336906 -2.8255 -0.000507237
-1.30306 -0.000655776 -1.0189 -0.000320383 -2.79559 -0.000501867
-1.3154 -0.000661989 -0.979447 -0.000307978 -2.73996 -0.000491882
-1.32948 -0.000669073 -0.954055 -0.000299994 -2.65853 -0.000477262
-1.34518 -0.000676971 -0.943268 -0.000296602 -2.55183 -0.000458108
-1.36234 -0.000685609 -0.947162 -0.000297827 -2.42105 -0.00043463
-1.38084 -0.000694921 -0.965334 -0.000303541 -2.26799 -0.000407152
-1.39999 -0.000704559 -0.996469 -0.000313331 -2.09521 -0.000376134
-1.41693 -0.000713085 -1.04026 -0.0003271 -1.90537 -0.000342055
-1.43284 -0.000721087 -1.09529 -0.000344405 -1.70202 -0.000305548
-1.44789 -0.000728662 -1.15957 -0.000364616 -1.48895 -0.000267298
-1.46184 -0.000735683 -1.2304 -0.000386888 -1.27046 -0.000228075
-1.47479 -0.0007422 -1.30514 -0.00041039 -1.05099 -0.000188675
-1.48711 -0.0007484 -1.38125 -0.00043432 -0.835011 -0.000149902
-1.49894 -0.000754355 -1.45603 -0.000457836 -0.627025 -0.000112564
-1.51028 -0.000760063 -1.52679 -0.000480086 -0.431373 -7.74406e-05
-1.52113 -0.000765521 -1.59108 -0.000500301 -0.252082 -4.5254e-05
-1.53126 -0.000770621 -1.64684 -0.000517834 -0.0927938 -1.66585e-05
-1.54013 -0.000775082 -1.69239 -0.000532155 0.0434381 7.79806e-06
-1.54704 -0.000778559 -1.72639 -0.000542848 0.134493 2.41444e-05
-1.55138 -0.000780745 -1.74802 -0.00054965 0.202441 3.63424e-05
-1.55266 -0.00078139 -1.75663 -0.000552358 0.245974 4.41576e-05
-1.55039 -0.00078025 -1.75192 -0.000550875 0.26489 4.75534e-05
-1.54411 -0.000777085 -1.73394 -0.000545221 0.259212 4.65341e-05
-1.53363 -0.00077181 -1.70323 -0.000535566 0.229268 4.11585e-05
-1.51907 -0.000764483 -1.66065 -0.000522178 0.175876 3.15735e-05
-1.50076 -0.000755273 -1.60725 -0.000505385 0.100501 1.8042e-05
-1.47931 -0.000744473 -1.54425 -0.000485576 -0.00450193 -8.08191e-07
-1.45543 -0.000732457 -1.4733 -0.000463267 -0.141023 -2.53166e-05
-1.42989 -0.000719604 -1.3962 -0.000439024 -0.29555 -5.30575e-05
-1.40327 -0.000706206 -1.31497 -0.000413479 -0.464338 -8.33586e-05
-1.37595 -0.00069246 -1.23184 -0.000387342 -0.643531 -0.000115527
-1.34824 -0.000678512 -1.14922 -0.000361362 -0.82921 -0.000148861
-1.32044 -0.000664525 -1.06947 -0.000336285 -1.01734 -0.000182633
-1.29298 -0.000650704 -0.994815 -0.000312811 -1.20379 -0.000216107
-1.26635 -0.0006373 -0.927307 -0.000291583 -1.38461 -0.000248567
-1.24108 -0.000624586 -0.868788 -0.000273183 -1.55613 -0.000279358
-1.21776 -0.000612848 -0.820851 -0.000258109 -1.7151 -0.000307898
-1.19694 -0.000602369 -0.784778 -0.000246766 -1.8587 -0.000333676
-1.17912 -0.000593401 -0.76153 -0.000239456 -1.98446 -0.000356254
-1.16464 -0.000586117 -0.751759 -0.000236384 -2.09041 -0.000375273
-1.1536 -0.00058056 -0.755829 -0.000237664 -2.1751 -0.000390477
-1.14577 -0.000576616 -0.773824 -0.000243322 -2.2377 -0.000401714
-1.14061 -0.000574021 -0.805522 -0.000253289 -2.27792 -0.000408936
-1.13739 -0.000572402 -0.850365 -0.00026739 -2.29607 -0.000412194
-1.13523 -0.000571312 -0.90744 -0.000285336 -2.29296 -0.000411636
-1.13308 -0.000570232 -0.975496 -0.000306736 -2.26995 -0.000407504
-1.12982 -0.000568593 -1.05295 -0.00033109 -2.22889 -0.000400133
-1.12435 -0.000565841 -1.13787 -0.000357792 -2.17211 -0.00038994
-1.1157 -0.000561484 -1.22799 -0.000386131 -2.10234 -0.000377414
-1.10302 -0.000555106 -1.32077 -0.000415303 -2.02256 -0.000363093
-1.08569 -0.000546382 -1.4134 -0.000444431 -1.93601 -0.000347556
-1.06328 -0.000535107 -1.50294 -0.000472586 -1.84602 -0.0003314
-1.03565 -0.000521201 -1.58633 -0.000498807 -1.75595 -0.00031523
-1.00284 -0.000504687 -1.66053 -0.000522139 -1.66904 -0.000299628
-0.965032 -0.000485661 -1.72263 -0.000541666 -1.58832 -0.000285137
-0.922485 -0.000464248 -1.76996 -0.000556548 -1.51648 -0.00027224
-0.875427 -0.000440566 -1.80021 -0.000566059 -1.45577 -0.000261341
-0.824051 -0.000414711 -1.8115 -0.000569611 -1.40793 -0.000252753
-0.768546 -0.000386778 -1.80246 -0.000566766 -1.37413 -0.000246686
-0.709135 -0.000356879 -1.77217 -0.000557243 -1.35493 -0.000243239
-0.646106 -0.000325159 -1.72029 -0.00054093 -1.35022 -0.000242393
-0.579819 -0.000291799 -1.64698 -0.000517877 -1.35927 -0.000244017
-0.510694 -0.000257011 -1.55294 -0.000488307 -1.38069 -0.000247863
-0.439175 -0.000221019 -1.4394 -0.000452605 -1.41252 -0.000253577
-0.366098 -0.000184242 -1.30827 -0.000411374 -1.45213 -0.000260687
-0.297454 -0.000149696 -1.1602 -0.000364815 -1.4966 -0.000268672
-0.227166 -0.000114323 -0.998317 -0.000313912 -1.54312 -0.000277023
-0.154938 -7.79737e-05 -0.826968 -0.000260033 -1.58716 -0.00028493
-0.0831263 -4.1834e-05 -0.649708 -0.000204295 -1.62473 -0.000291673
-0.0120187 -6.04851e-06 -0.469046 -0.000147487 -1.65204 -0.000296576
0.0549383 2.76482e-05 -0.288013 -9.05631e-05 -1.66556 -0.000299003
0.114719 5.77336e-05 -0.111295 -3.49957e-05 -1.66099 -0.000298183
0.171374 8.62453e-05 0.0592664 1.86358e-05 -1.63566 -0.000293636
0.225932 0.000113702 0.221693 6.97094e-05 -1.58672 -0.00028485
0.276754 0.000139279 0.366718 0.000115311 -1.51034 -0.000271138
0.322609 0.000162356 0.490242 0.000154152 -1.40632 -0.000252464
0.3644 0.000183387 0.598331 0.00018814 -1.27343 -0.000228608
0.402304 0.000202463 0.690329 0.000217068 -1.11118 -0.000199481
0.435821 0.00021933 0.764972 0.000240539 -0.919552 -0.000165079
0.465113 0.000234072 0.821315 0.000258255 -0.699688 -0.000125609
0.490871 0.000247035 0.859194 0.000270166 -0.453615 -8.14335e-05
0.513546 0.000258446 0.879078 0.000276418 -0.183886 -3.30114e-05
0.533495 0.000268486 0.882006 0.000277339 0.0693738 1.24541e-05
0.551463 0.000277528 0.868913 0.000273222 0.32192 5.77915e-05
0.568314 0.000286009 0.841574 0.000264625 0.583885 0.00010482
0.584865 0.000294338 0.80199 0.000252178 0.852104 0.000152971
0.601938 0.000302931 0.752465 0.000236606 1.12251 0.000201515
0.620474 0.000312259 0.69563 0.000218735 1.39012 0.000249555
0.641344 0.000322762 0.63435 0.000199466 1.6497 0.000296157
0.665175 0.000334755 0.571647 0.000179749 1.89653 0.000340468
0.692319 0.000348416 0.510593 0.000160552 2.12638 0.000381731
0.722961 0.000363836 0.454075 0.00014278 2.33529 0.000419234
0.757237 0.000381086 0.40507 0.000127371 2.51823 0.000452075
0.795801 0.000400494 0.363195 0.000114203 2.59854 0.000466493
0.837832 0.000421646 0.335951 0.000105637 2.61467 0.00046939
0.883528 0.000444643 0.326137 0.000102551 2.60067 0.000466876
0.931475 0.000468773 0.331785 0.000104327 2.58268 0.000463646
0.982484 0.000494443 0.351621 0.000110564 2.58846 0.000464683
1.03587 0.000521309 0.388006 0.000122005 2.5995 0.000466666
1.09113 0.00054912 0.442713 0.000139207 2.57535 0.00046233
1.14847 0.000577976 0.516039 0.000162264 2.49878 0.000448583
1.20798 0.000607929 0.605029 0.000190246 2.37977 0.000427219
1.26956 0.000638916 0.706311 0.000222093 2.24047 0.000402213
1.333 0.000670843 0.818044 0.000257227 2.09241 0.000375632
1.39806 0.000703587 0.938966 0.000295249 1.93069 0.0003466
1.46437 0.000736958 1.06675 0.000335431 1.74705 0.000313633
1.5314 0.000770692 1.198 0.000376701 1.54367 0.000277122
1.59856 0.000804489 1.32926 0.000417974 1.33319 0.000239335
1.66513 0.00083799 1.45766 0.000458348 1.12794 0.000202489
1.73026 0.000870769 1.58069 0.000497034 0.932115 0.000167334
1.79305 0.000902369 1.69583 0.000533239 0.74413 0.000133587
1.85258 0.000932329 1.80058 0.000566175 0.564278 0.0001013
1.90783 0.000960133 1.89264 0.000595124 0.39828 7.14998e-05
1.93601 0.000974314 1.9477 0.000612438 0.261055 4.6865e-05
1.92548 0.000969014 1.96972 0.000619362 0.151459 2.71901e-05
1.92378 0.000968157 1.97858 0.000622145 0.067861 1.21825e-05
1.93813 0.000975378 1.99331 0.000626778 0.00145773 2.61694e-07
1.94879 0.000980743 2.0026 0.000629699 -0.0426994 -7.66546e-06
1.94589 0.000979287 2.0019 0.000629478 -0.0647523 -1.16244e-05
1.94455 0.00097861 1.99065 0.000625943 -0.0616418 -1.1066e-05
1.94024 0.000976443 1.96889 0.000619098 -0.0320986 -5.76238e-06
1.92788 0.000970221 1.93247 0.000607647 0.022239 3.99238e-06
1.90845 0.000960442 1.88118 0.000591519 0.0984702 1.76775e-05
1.88552 0.000948906 1.81797 0.000571643 0.194297 3.48804e-05
1.85903 0.000935575 1.7451 0.000548731 0.30938 5.55403e-05
1.82803 0.000919971 1.66436 0.000523343 0.441533 7.92645e-05
1.79403 0.00090286 1.57767 0.000496083 0.586486 0.000105287
1.7587 0.000885082 1.48705 0.000467589 0.739668 0.000132786
1.72248 0.000866852 1.39462 0.000438527 0.897805 0.000161175
1.68589 0.000848438 1.30304 0.000409728 1.05815 0.00018996
1.65017 0.000830465 1.21499 0.000382042 1.21732 0.000218534
1.61645 0.00081349 1.13254 0.000356116 1.37133 0.000246182
1.5854 0.000797865 1.05741 0.000332492 1.51637 0.000272221
1.55778 0.000783965 0.991521 0.000311775 1.64934 0.000296092
1.53442 0.000772211 0.93682 0.000294575 1.76775 0.000317349
1.51597 0.000762927 0.894741 0.000281343 1.86943 0.000335602
1.50285 0.000756323 0.866188 0.000272365 1.95234 0.000350487
1.49541 0.000752576 0.851832 0.000267851 2.01484 0.000361707
1.493 0.000751365 0.852401 0.00026803 2.05587 0.000369073
1.49193 0.000750825 0.869126 0.000273289 2.07485 0.000372479
1.49236 0.000751043 0.901636 0.000283511 2.07227 0.000372016
1.49428 0.00075201 0.948946 0.000298387 2.04884 0.00036781
1.49768 0.000753718 1.0095 0.000317429 2.0058 0.000360084
1.50246 0.000756125 1.08152 0.000340073 1.94494 0.000349157
1.50849 0.000759158 1.16299 0.000365692 1.86859 0.000335453
1.51555 0.000762715 1.25165 0.000393569 1.77947 0.000319453
1.52337 0.00076665 1.3449 0.000422892 1.68046 0.000301679
1.53155 0.000770768 1.44003 0.000452804 1.57464 0.000282681
1.53964 0.000774835 1.53433 0.000482458 1.46521 0.000263037
1.54712 0.000778599 1.62521 0.000511032 1.35543 0.000243329
1.55349 0.000781807 1.7101 0.000537724 1.24846 0.000224125
1.55828 0.000784218 1.78657 0.000561769 1.14726 0.000205958
1.56107 0.000785621 1.85238 0.000582465 1.05456 0.000189317
1.56152 0.000785851 1.90562 0.000599205 0.972776 0.000174634
1.55944 0.000784801 1.94467 0.000611485 0.903939 0.000162276
1.55472 0.000782425 1.96828 0.000618908 0.849644 0.000152529
1.54736 0.000778722 1.97557 0.0006212 0.810991 0.00014559
1.53739 0.000773705 1.96611 0.000618226 0.788563 0.000141564
1.5248 0.000767366 1.93998 0.000610009 0.782419 0.000140461
1.50947 0.000759654 1.89774 0.000596727 0.792092 0.000142197
1.49119 0.000750455 1.84043 0.000578707 0.816598 0.000146597
1.46966 0.000739618 1.76951 0.000556407 0.854478 0.000153397
1.44462 0.000727016 1.68679 0.000530395 0.903867 0.000162263
1.41593 0.000712578 1.59431 0.000501318 0.962557 0.000172799
1.38357 0.000696295 1.49434 0.000469881 1.02807 0.00018456
1.34763 0.000678207 1.38922 0.000436827 1.09772 0.000197063
1.30826 0.000658395 1.28137 0.000402915 1.16871 0.000209809
1.26567 0.000636959 1.17321 0.000368906 1.23822 0.000222288
1.22004 0.000613995 1.0671 0.000335539 1.30348 0.000234002
1.17155 0.000589591 0.965245 0.000303513 1.36181 0.000244474
1.12039 0.000563847 0.86967 0.00027346 1.4108 0.000253268
1.06689 0.000536921 0.782087 0.00024592 1.44826 0.000259994
1.01158 0.000509087 0.703836 0.000221315 1.4724 0.000264326
0.955299 0.000480763 0.635823 0.000199929 1.48178 0.000266011
0.89909 0.000452475 0.578531 0.000181914 1.47541 0.000264867
0.844057 0.000424779 0.532074 0.000167306 1.45269 0.000260789
0.791198 0.000398177 0.496266 0.000156046 1.41348 0.00025375
0.741271 0.000373051 0.470686 0.000148003 1.358 0.00024379
0.694737 0.000349632 0.454721 0.000142983 1.28687 0.00023102
0.651761 0.000328004 0.447584 0.000140739 1.20105 0.000215614
0.612269 0.000308129 0.448326 0.000140972 1.10185 0.000197805
0.576001 0.000289878 0.455855 0.00014334 0.990843 0.000177877
0.542541 0.000273038 0.468952 0.000147458 0.869885 0.000156163
0.511344 0.000257339 0.486298 0.000152912 0.741022 0.000133029
0.481793 0.000242466 0.506498 0.000159264 0.606466 0.000108874
0.453267 0.000228111 0.52809 0.000166053 0.468537 8.41124e-05
0.425159 0.000213965 0.549579 0.00017281 0.329611 5.91721e-05
0.396813 0.000199699 0.569495 0.000179073 0.192055 3.44779e-05
0.367478 0.000184936 0.586447 0.000184403 0.058174 1.04435e-05
0.33628 0.000169236 0.599403 0.000188477 -0.0740589 -1.32951e-05
0.302378 0.000152174 0.607065 0.000190886 -0.205187 -3.68355e-05
0.26501 0.000133369 0.607842 0.00019113 -0.322006 -5.7807e-05
0.22368 0.000112569 0.601245 0.000189056 -0.426851 -7.66288e-05
0.178303 8.97323e-05 0.587036 0.000184588 -0.520611 -9.34608e-05
0.147714 7.43383e-05 0.560627 0.000176284 -0.602006 -0.000108073
0.11648 5.86196e-05 0.520529 0.000163676 -0.666594 -0.000119668
0.079219 3.98676e-05 0.471702 0.000148322 -0.715622 -0.000128469
0.0400943 2.01778e-05 0.416115 0.000130843 -0.7498 -0.000134605
-0.00160915 -8.09819e-07 0.353251 0.000111076 -0.770992 -0.000138409
-0.0472254 -2.37666e-05 0.282132 8.87139e-05 -0.77991 -0.00014001
-0.094403 -4.75091e-05 0.208398 6.55289e-05 -0.778123 -0.00013969
-0.138697 -6.98003e-05 0.131659 4.13988e-05 -0.764176 -0.000137186
-0.185043 -9.31247e-05 0.0477519 1.50152e-05 -0.739962 -0.000132839
-0.233725 -0.000117624 -0.0441566 -1.38846e-05 -0.705955 -0.000126734
-0.282311 -0.000142075 -0.138726 -4.3621e-05 -0.666602 -0.000119669
-0.329282 -0.000165714 -0.233107 -7.32985e-05 -0.623178 -0.000111874
-0.375804 -0.000189127 -0.32621 -0.000102574 -0.577357 -0.000103648
-0.421899 -0.000212324 -0.417242 -0.000131198 -0.531375 -9.53932e-05
-0.466385 -0.000234712 -0.504823 -0.000158737 -0.488016 -8.76093e-05
-0.50884 -0.000256078 -0.587493 -0.000184732 -0.449479 -8.0691e-05
-0.549469 -0.000276525 -0.66395 -0.000208773 -0.417363 -7.49256e-05
-0.588032 -0.000295932 -0.732985 -0.00023048 -0.393248 -7.05963e-05
-0.624043 -0.000314055 -0.793712 -0.000249576 -0.378716 -6.79877e-05
-0.657406 -0.000330845 -0.845583 -0.000265886 -0.375022 -6.73244e-05
-0.688234 -0.00034636 -0.888073 -0.000279247 -0.38296 -6.87495e-05
-0.7165 -0.000360585 -0.92066 -0.000289493 -0.402983 -7.2344e-05
-0.742161 -0.000373499 -0.943159 -0.000296568 -0.435251 -7.81368e-05
-0.765335 -0.000385162 -0.95582 -0.000300549 -0.479585 -8.60957e-05
-0.786222 -0.000395673 -0.9591 -0.00030158 -0.535423 -9.61199e-05
-0.805015 -0.000405131 -0.953514 -0.000299824 -0.601847 -0.000108044
-0.821983 -0.00041367 -0.939751 -0.000295496 -0.67764 -0.000121651
-0.837504 -0.000421481 -0.918741 -0.00028889 -0.758927 -0.000136243
-0.852062 -0.000428808 -0.891313 -0.000280265 -0.840043 -0.000150806
-0.86598 -0.000435812 -0.859435 -0.000270241 -0.921811 -0.000165485
-0.879847 -0.000442791 -0.824001 -0.0002591 -1.0056 -0.000180527
-0.893978 -0.000449902 -0.786415 -0.000247281 -1.09061 -0.000195787
-0.908852 -0.000457387 -0.748239 -0.000235277 -1.17513 -0.00021096
-0.924832 -0.00046543 -0.711209 -0.000223633 -1.25629 -0.000225531
-0.942293 -0.000474217 -0.676883 -0.00021284 -1.33145 -0.000239024
-0.961586 -0.000483927 -0.646654 -0.000203335 -1.39905 -0.00025116
-0.983012 -0.000494709 -0.621859 -0.000195538 -1.45831 -0.000261798
-1.00676 -0.000506662 -0.603817 -0.000189865 -1.50834 -0.00027078
-1.03289 -0.00051981 -0.593768 -0.000186705 -1.5478 -0.000277862
-1.06129 -0.000534102 -0.592767 -0.00018639 -1.57529 -0.000282798
-1.09173 -0.000549424 -0.601649 -0.000189183 -1.59008 -0.000285453
-1.1239 -0.000565613 -0.621016 -0.000195273 -1.59209 -0.000285814
-1.15744 -0.000582491 -0.651165 -0.000204753 -1.58068 -0.000283766
-1.19197 -0.00059987 -0.692173 -0.000217648 -1.556 -0.000279335
-1.22716 -0.000617577 -0.743753 -0.000233866 -1.51866 -0.000272631
-1.26266 -0.000635447 -0.805265 -0.000253208 -1.4699 -0.000263878
-1.29822 -0.000653338 -0.875751 -0.000275372 -1.41168 -0.000253427
-1.33358 -0.000671134 -0.953989 -0.000299973 -1.34631 -0.000241692
-1.36858 -0.000688751 -1.03851 -0.000326549 -1.27613 -0.000229092
-1.40311 -0.00070613 -1.12762 -0.000354569 -1.20347 -0.000216049
-1.43697 -0.000723167 -1.21951 -0.000383464 -1.13087 -0.000203014
-1.46914 -0.000739355 -1.31262 -0.000412741 -1.06097 -0.000190466
-1.49994 -0.000754856 -1.40493 -0.000441769 -0.996656 -0.000178921
-1.52961 -0.00076979 -1.49436 -0.000469889 -0.940619 -0.000168861
-1.55822 -0.000784187 -1.5789 -0.000496472 -0.895248 -0.000160716
-1.58578 -0.000798057 -1.65683 -0.000520976 -0.862646 -0.000154863
-1.61226 -0.000811384 -1.72674 -0.000542957 -0.844653 -0.000151633
-1.63755 -0.000824109 -1.78742 -0.00056204 -0.842793 -0.000151299
-1.65765 -0.000834226 -1.83963 -0.000578455 -0.857635 -0.000153964
-1.67538 -0.000843147 -1.88164 -0.000591664 -0.890342 -0.000159835
-1.68939 -0.000850202 -1.9129 -0.000601494 -0.94125 -0.000168974
-1.69996 -0.000855519 -1.93339 -0.000607938 -1.00978 -0.000181277
-1.70762 -0.000859377 -1.94316 -0.000611009 -1.09533 -0.000196635
-1.71207 -0.000861613 -1.94242 -0.000610776 -1.19693 -0.000214874
-1.71289 -0.000862025 -1.93137 -0.000607302 -1.31343 -0.000235789
-1.71015 -0.000860648 -1.91083 -0.000600843 -1.44288 -0.000259027
-1.70435 -0.000857728 -1.8818 -0.000591715 -1.57885 -0.000283438
-1.69595 -0.000853504 -1.84488 -0.000580107 -1.71142 -0.000307236
-1.68504 -0.00084801 -1.80269 -0.000566841 -1.84472 -0.000331167
-1.6721 -0.0008415 -1.75602 -0.000552165 -1.98022 -0.000355491
-1.65738 -0.00083409 -1.70638 -0.000536555 -2.1173 -0.0003801
-1.64133 -0.000826012 -1.65539 -0.000520524 -2.25348 -0.000404548
-1.62428 -0.000817431 -1.60487 -0.000504638 -2.38446 -0.000428061
-1.60668 -0.000808575 -1.55636 -0.000489383 -2.50645 -0.00044996
-1.58897 -0.000799662 -1.51114 -0.000475165 -2.61744 -0.000469886
-1.57153 -0.000790887 -1.47037 -0.000462346 -2.71661 -0.00048769
-1.55386 -0.000781996 -1.43541 -0.000451351 -2.80275 -0.000503153
-1.53406 -0.000772028 -1.4079 -0.000442701 -2.87362 -0.000515876
-1.51196 -0.000760909 -1.38861 -0.000436637 -2.92723 -0.000525501
-1.48726 -0.000748478 -1.37792 -0.000433274 -2.96242 -0.000531818
-1.45976 -0.000734636 -1.37574 -0.000432588 -2.97919 -0.000534828
-1.42943 -0.000719372 -1.38162 -0.000434438 -2.97752 -0.000534528
-1.39651 -0.000702805 -1.3947 -0.000438552 -2.95646 -0.000530747
-1.36143 -0.000685154 -1.41387 -0.00044458 -2.91597 -0.000523478
-1.32467 -0.000666653 -1.43761 -0.000452044 -2.85697 -0.000512886
-1.28658 -0.000647485 -1.46416 -0.000460393 -2.78137 -0.000499315
-1.24738 -0.000627755 -1.4917 -0.000469053 -2.69166 -0.00048321
-1.20717 -0.000607521 -1.5184 -0.000477448 -2.59018 -0.000464992
-1.16606 -0.00058683 -1.5424 -0.000484994 -2.47894 -0.000445023
-1.12414 -0.000565735 -1.56182 -0.000491101 -2.35993 -0.000423658
-1.08146 -0.000544252 -1.57486 -0.000495201 -2.23542 -0.000401306
-1.03788 -0.000522323 -1.57992 -0.000496793 -2.10789 -0.000378411
-0.993181 -0.000499827 -1.57565 -0.00049545 -1.97963 -0.000355385
-0.947129 -0.000476651 -1.56093 -0.000490819 -1.85248 -0.00033256
-0.89962 -0.000452741 -1.53481 -0.000482607 -1.72793 -0.000310201
-0.850707 -0.000428126 -1.4966 -0.000470593 -1.60724 -0.000288534
-0.800546 -0.000402882 -1.44587 -0.00045464 -1.49152 -0.00026776
-0.749323 -0.000377103 -1.3825 -0.000434715 -1.38163 -0.000248031
-0.69718 -0.000350862 -1.30674 -0.000410894 -1.27795 -0.00022942
-0.644166 -0.000324182 -1.2192 -0.000383365 -1.18044 -0.000211915
-0.590202 -0.000297024 -1.12081 -0.000352429 -1.08868 -0.000195441
-0.535105 -0.000269296 -1.01286 -0.000318485 -1.002 -0.00017988
-0.478656 -0.000240888 -0.896872 -0.000282013 -0.91954 -0.000165077
-0.420651 -0.000211696 -0.774557 -0.000243552 -0.840208 -0.000150835
-0.360975 -0.000181664 -0.647736 -0.000203675 -0.762707 -0.000136922
-0.29965 -0.000150802 -0.518268 -0.000162965 -0.68562 -0.000123083
-0.236853 -0.000119198 -0.387996 -0.000122002 -0.607513 -0.000109062
-0.172862 -8.69941e-05 -0.258709 -8.13486e-05 -0.527015 -9.46104e-05
-0.108013 -5.43585e-05 -0.13211 -4.15407e-05 -0.442842 -7.94995e-05
-0.0429572 -2.16186e-05 -0.00974521 -3.06429e-06 -0.35373 -6.3502e-05
0.0155745 7.838e-06 0.099178 3.11856e-05 -0.25721 -4.61746e-05
0.0680124 3.42278e-05 0.19284 6.06369e-05 -0.153165 -2.74964e-05
0.120618 6.07021e-05 0.279131 8.77703e-05 -0.0458956 -8.23924e-06
0.16126 8.11554e-05 0.363472 0.000114291 0.0397183 7.13027e-06
0.199584 0.000100443 0.440958 0.000138655 0.128212 2.30168e-05
0.234133 0.00011783 0.509237 0.000160125 0.220961 3.96671e-05
0.26582 0.000133776 0.566932 0.000178267 0.320606 5.75556e-05
0.295394 0.000148659 0.614747 0.000193302 0.426347 7.65384e-05
0.322444 0.000162273 0.653156 0.000205379 0.536382 9.62919e-05
0.34674 0.0001745 0.682116 0.000214485 0.648428 0.000116407
0.368853 0.000185629 0.701421 0.000220555 0.761535 0.000136712
0.389264 0.0001959 0.711264 0.000223651 0.875726 0.000157211
0.408137 0.000205399 0.712412 0.000224012 0.990556 0.000177826
0.425833 0.000214304 0.705939 0.000221976 1.10416 0.000198221
0.442944 0.000222915 0.692811 0.000217848 1.21394 0.000217929
0.459968 0.000231483 0.67386 0.000211889 1.31784 0.000236581
0.477283 0.000240197 0.650148 0.000204433 1.4147 0.000253969
0.4953 0.000249264 0.623089 0.000195925 1.50351 0.000269912
0.514453 0.000258903 0.594173 0.000186832 1.58271 0.00028413
0.535104 0.000269296 0.564743 0.000177578 1.65028 0.00029626
0.557558 0.000280596 0.536075 0.000168564 1.70441 0.000305978
0.582082 0.000292938 0.509505 0.000160209 1.74394 0.000313075
0.608858 0.000306413 0.486392 0.000152942 1.76818 0.000317425
0.637947 0.000321052 0.467971 0.000147149 1.77646 0.000318913
0.6693 0.000336831 0.455258 0.000143152 1.76689 0.000317195
0.702767 0.000353674 0.449197 0.000141246 1.73814 0.000312033
0.738164 0.000371487 0.450571 0.000141678 1.68985 0.000303364
0.775249 0.000390151 0.459895 0.00014461 1.62267 0.000291303
0.813787 0.000409545 0.477379 0.000150108 1.53789 0.000276085
0.853557 0.00042956 0.502978 0.000158157 1.43695 0.000257964
0.894367 0.000450098 0.536411 0.00016867 1.32124 0.00023719
0.936054 0.000471077 0.577146 0.000181478 1.1924 0.000214061
0.978486 0.000492432 0.624391 0.000196334 1.05261 0.000188966
1.02153 0.000514092 0.677141 0.000212921 0.904555 0.000162387
1.06501 0.000535977 0.734241 0.000230875 0.751085 0.000134836
1.10874 0.000557984 0.794447 0.000249807 0.595027 0.00010682
1.15246 0.000579983 0.856463 0.000269307 0.439152 7.88372e-05
1.19586 0.000601824 0.918964 0.00028896 0.286294 5.13958e-05
1.23861 0.000623344 0.980627 0.000308349 0.13937 2.50198e-05
1.2804 0.000644371 1.04018 0.000327075 0.00125807 2.2585e-07
1.32083 0.000664719 1.09673 0.000344857 -0.134905 -2.42182e-05
1.35968 0.000684271 1.14868 0.000361192 -0.259958 -4.6668e-05
1.39658 0.00070284 1.19513 0.000375798 -0.366194 -6.57396e-05
1.43141 0.00072037 1.23552 0.000388499 -0.453315 -8.13797e-05
1.46389 0.000736715 1.26951 0.000399185 -0.520839 -9.35018e-05
1.49392 0.00075183 1.2964 0.00040764 -0.566815 -0.000101755
1.52145 0.000765681 1.31579 0.000413738 -0.589182 -0.000105771
1.54643 0.000778255 1.32775 0.000417499 -0.586561 -0.0001053
1.5689 0.000789561 1.33271 0.000419059 -0.558248 -0.000100217
1.5889 0.000799628 1.33109 0.000418549 -0.505018 -9.06614e-05
1.60652 0.000808495 1.32343 0.000416142 -0.427852 -7.68085e-05
1.62186 0.000816215 1.31054 0.000412087 -0.327773 -5.88422e-05
1.63507 0.000822863 1.29343 0.000406706 -0.206307 -3.70364e-05
1.64638 0.000828556 1.27323 0.000400356 -0.0653887 -1.17387e-05
1.65615 0.000833471 1.25081 0.000393305 0.0586479 1.05285e-05
1.66458 0.000837715 1.22783 0.000386079 0.190891 3.42691e-05
1.67212 0.000841509 1.2052 0.000378964 0.331767 5.95592e-05
1.67913 0.000845037 1.18427 0.000372384 0.480262 8.62173e-05
1.68544 0.000848214 1.16649 0.000366793 0.634179 0.000113849
1.67784 0.000844386 1.15775 0.000364043 0.788592 0.000141569
1.67288 0.000841891 1.15316 0.000362601 0.943463 0.000169372
1.66887 0.000839874 1.1546 0.000363054 1.09508 0.000196591
1.66746 0.000839162 1.16174 0.0003653 1.24282 0.000223113
1.66875 0.000839812 1.17526 0.000369549 1.38542 0.000248713
1.67256 0.000841731 1.19567 0.000375969 1.52148 0.000273139
1.67902 0.000844983 1.22341 0.000384691 1.64908 0.000296045
1.68839 0.000849696 1.25839 0.000395689 1.7666 0.000317142
1.7006 0.00085584 1.30014 0.000408819 1.87341 0.000336318
1.71507 0.000863124 1.34739 0.000423674 1.96973 0.000353608
1.73031 0.000870791 1.3999 0.000440185 2.05538 0.000368984
1.74767 0.000879532 1.45758 0.000458322 2.12971 0.000382329
1.76775 0.000889635 1.51986 0.000477906 2.19227 0.000393559
1.78874 0.000900197 1.58578 0.000498636 2.24361 0.000402775
1.80897 0.000910378 1.65491 0.000520373 2.28427 0.000410074
1.8289 0.000920409 1.72646 0.00054287 2.31498 0.000415589
1.84808 0.000930063 1.79912 0.000565717 2.33643 0.00041944
1.86564 0.000938898 1.87139 0.000588443 2.34955 0.000421795
1.88114 0.0009467 1.9421 0.000610676 2.35538 0.00042284
1.89449 0.000953419 2.01008 0.000632051 2.35508 0.000422787
1.9055 0.00095896 2.07386 0.000652107 2.34971 0.000421823
1.91404 0.000963256 2.13192 0.000670362 2.34041 0.000420154
1.92019 0.000966351 2.18287 0.000686385 2.32829 0.000417978
1.92408 0.000968311 2.22556 0.000699808 2.31447 0.000415497
1.92581 0.00096918 2.25892 0.000710296 2.3 0.0004129
1.92551 0.00096903 2.28202 0.000717561 2.28571 0.000410334
1.9234 0.000967969 2.29416 0.000721378 2.27217 0.000407904
1.91947 0.000965991 2.29469 0.000721545 2.25982 0.000405686
1.91381 0.000963141 2.28333 0.000717972 2.24883 0.000403714
1.90676 0.000959595 2.2602 0.000710699 2.23917 0.000401978
1.89863 0.000955502 2.22578 0.000699878 2.23047 0.000400417
1.88939 0.000950852 2.18083 0.000685743 2.2222 0.000398931
1.87878 0.000945513 2.1264 0.000668627 2.21354 0.000397378
1.86642 0.000939291 2.06387 0.000648966 2.20354 0.000395583
1.85183 0.000931951 1.99482 0.000627252 2.19111 0.00039335
1.83456 0.000923259 1.92088 0.000604004 2.17509 0.000390475
1.81428 0.000913051 1.84372 0.000579742 2.15432 0.000386747
1.79086 0.000901268 1.76496 0.000554975 2.12765 0.000381958
1.76437 0.000887937 1.6861 0.000530178 2.094 0.000375918
1.73495 0.000873127 1.60853 0.000505788 2.05244 0.000368457
1.70276 0.000856926 1.53352 0.000482201 2.00219 0.000359435
1.66798 0.000839428 1.46216 0.000459763 1.94264 0.000348746
1.63079 0.000820711 1.39538 0.000438764 1.87342 0.000336319
1.5913 0.000800836 1.3339 0.000419434 1.79436 0.000322126
1.54958 0.00077984 1.27825 0.000401933 1.70556 0.000306185
1.50568 0.000757745 1.2287 0.000386353 1.60737 0.000288558
1.45961 0.00073456 1.18532 0.000372714 1.5004 0.000269354
1.41136 0.000710279 1.14794 0.000360961 1.3855 0.000248727
1.36091 0.000684892 1.11617 0.00035097 1.26376 0.000226872
1.30824 0.000658382 1.08941 0.000342554 1.13646 0.000204019
1.2533 0.000630736 1.06686 0.000335463 1.00508 0.000180434
1.1961 0.00060195 1.04756 0.000329397 0.871246 0.000156407
1.13667 0.00057204 1.03043 0.000324009 0.736666 0.000132247
1.07511 0.00054106 1.01425 0.00031892 0.603129 0.000108275
1.01163 0.000509109 0.997724 0.000313725 0.472429 8.48111e-05
0.929994 0.000468027 0.974595 0.000306453 0.315714 5.66773e-05
0.84649 0.000426003 0.946385 0.000297582 0.169394 3.04098e-05
0.761765 0.000383365 0.910853 0.00028641 0.0363147 6.51925e-06
0.67613 0.000340268 0.866467 0.000272453 -0.0855096 -1.53508e-05
0.589462 0.000296652 0.811778 0.000255256 -0.194598 -3.49345e-05
0.501291 0.000252279 0.746046 0.000234587 -0.282281 -5.06755e-05
0.411072 0.000206875 0.669913 0.000210648 -0.351146 -6.30382e-05
0.318522 0.000160299 0.583746 0.000183554 -0.402979 -7.23434e-05
0.223689 0.000112574 0.487963 0.000153436 -0.43614 -7.82964e-05
0.126634 6.37297e-05 0.383869 0.000120704 -0.451829 -8.1113e-05
0.0377597 1.90029e-05 0.272075 8.55514e-05 -0.453626 -8.14355e-05
-0.0283233 -1.4254e-05 0.14728 4.6311e-05 -0.442508 -7.94396e-05
-0.0982472 -4.94438e-05 0.0287614 9.04377e-06 -0.426005 -7.64769e-05
-0.164525 -8.27984e-05 -0.093885 -2.95213e-05 -0.404542 -7.26239e-05
-0.233842 -0.000117683 -0.214607 -6.74813e-05 -0.381843 -6.85489e-05
-0.3032 -0.000152588 -0.329507 -0.00010361 -0.362403 -6.5059e-05
-0.369684 -0.000186047 -0.433579 -0.000136335 -0.34943 -6.27301e-05
-0.435205 -0.000219021 -0.527266 -0.000165794 -0.345331 -6.19943e-05
-0.498488 -0.000250868 -0.610147 -0.000191855 -0.3529 -6.33531e-05
-0.557999 -0.000280818 -0.6804 -0.000213946 -0.373762 -6.70982e-05
-0.614178 -0.00030909 -0.737664 -0.000231952 -0.408572 -7.33473e-05
-0.66653 -0.000335437 -0.782179 -0.000245949 -0.455091 -8.16985e-05
-0.714523 -0.00035959 -0.81476 -0.000256194 -0.510945 -9.17254e-05
-0.758645 -0.000381795 -0.836135 -0.000262915 -0.578342 -0.000103825
-0.799209 -0.000402209 -0.847074 -0.000266355 -0.65673 -0.000117897
-0.836579 -0.000421016 -0.84914 -0.000267004 -0.744813 -0.00013371
-0.871384 -0.000438532 -0.844344 -0.000265496 -0.839518 -0.000150711
-0.904151 -0.000455022 -0.834485 -0.000262396 -0.938149 -0.000168418
-0.935347 -0.000470721 -0.821548 -0.000258328 -1.03859 -0.000186449
-0.965522 -0.000485907 -0.80785 -0.000254021 -1.13855 -0.000204393
-0.99518 -0.000500833 -0.795626 -0.000250177 -1.23502 -0.000221713
-1.02481 -0.000515744 -0.786856 -0.00024742 -1.32512 -0.000237887
-1.05493 -0.000530904 -0.783371 -0.000246324 -1.40665 -0.000252524
-1.08605 -0.000546562 -0.786799 -0.000247402 -1.47796 -0.000265325
-1.1186 -0.000562944 -0.798417 -0.000251055 -1.53743 -0.000276002
-1.15301 -0.000580261 -0.819112 -0.000257562 -1.58375 -0.000284317
-1.1896 -0.000598676 -0.849424 -0.000267094 -1.61631 -0.000290163
-1.2285 -0.000618252 -0.889579 -0.00027972 -1.6352 -0.000293553
-1.26955 -0.000638913 -0.939487 -0.000295413 -1.6409 -0.000294576
-1.3124 -0.000660477 -0.99871 -0.000314035 -1.63346 -0.000293241
-1.35651 -0.000682676 -1.06651 -0.000335355 -1.6137 -0.000289693
-1.40128 -0.000705205 -1.14182 -0.000359036 -1.58364 -0.000284296
-1.44605 -0.000727736 -1.22319 -0.000384623 -1.54612 -0.000277562
-1.49018 -0.000749948 -1.3089 -0.00041157 -1.50424 -0.000270043
-1.53314 -0.000771566 -1.39697 -0.000439263 -1.46109 -0.000262297
-1.57453 -0.000792395 -1.48523 -0.000467016 -1.41988 -0.000254898
-1.61413 -0.000812324 -1.57137 -0.000494103 -1.38397 -0.000248453
-1.65185 -0.000831308 -1.6531 -0.000519804 -1.35662 -0.000243542
-1.68764 -0.000849317 -1.72833 -0.000543456 -1.34063 -0.000240671
-1.7214 -0.000866311 -1.79523 -0.000564494 -1.33829 -0.000240251
-1.75303 -0.000882226 -1.8524 -0.000582472 -1.35139 -0.000242604
-1.7823 -0.000896956 -1.89891 -0.000597094 -1.38114 -0.000247944
-1.80894 -0.000910362 -1.9343 -0.000608224 -1.428 -0.000256357
-1.83268 -0.000922313 -1.95863 -0.000615874 -1.49169 -0.000267791
-1.85332 -0.000932701 -1.97237 -0.000620194 -1.57125 -0.000282073
-1.87074 -0.000941464 -1.97618 -0.000621393 -1.65949 -0.000297914
-1.88479 -0.000948537 -1.97155 -0.000619935 -1.75247 -0.000314605
-1.89556 -0.000953956 -1.95991 -0.000616275 -1.85351 -0.000332744
-1.90297 -0.000957686 -1.94268 -0.00061086 -1.96147 -0.000352125
-1.90703 -0.000959727 -1.92148 -0.000604194 -2.07416 -0.000372356
-1.90777 -0.000960102 -1.89818 -0.000596867 -2.18677 -0.000392572
-1.89862 -0.000955497 -1.87716 -0.000590256 -2.29536 -0.000412067
-1.88803 -0.000950165 -1.85662 -0.000583799 -2.39975 -0.000430805
-1.87697 -0.000944602 -1.83775 -0.000577862 -2.49721 -0.000448303
-1.86709 -0.000939631 -1.82135 -0.000572707 -2.58477 -0.000464021
-1.85211 -0.00093209 -1.81038 -0.000569257 -2.65962 -0.000477458
-1.83026 -0.000921096 -1.80616 -0.000567932 -2.72083 -0.000488447
-1.80204 -0.000906893 -1.80859 -0.000568694 -2.76748 -0.000496821
-1.76778 -0.000889649 -1.81646 -0.00057117 -2.79885 -0.000502452
-1.72791 -0.000869585 -1.82859 -0.000574984 -2.81493 -0.00050534
-1.68324 -0.000847103 -1.84348 -0.000579665 -2.8162 -0.000505568
-1.63464 -0.000822646 -1.8588 -0.000584482 -2.80255 -0.000503118
-1.58315 -0.000796735 -1.87197 -0.000588624 -2.77486 -0.000498147
-1.52988 -0.000769924 -1.88055 -0.000591323 -2.73483 -0.000490961
-1.47569 -0.000742652 -1.88221 -0.000591845 -2.68453 -0.000481931
-1.42109 -0.000715175 -1.87483 -0.000589524 -2.62577 -0.000471381
-1.36611 -0.000687507 -1.85677 -0.000583845 -2.55995 -0.000459566
-1.31022 -0.000659379 -1.82703 -0.000574494 -2.48831 -0.000446704
-1.25253 -0.000630349 -1.78512 -0.000561315 -2.41191 -0.000432989
-1.1922 -0.000599983 -1.7309 -0.000544264 -2.33149 -0.000418553
-1.12863 -0.000567993 -1.66452 -0.000523392 -2.24743 -0.000403461
-1.06163 -0.000534274 -1.58641 -0.000498834 -2.15975 -0.000387722
-0.991164 -0.000498812 -1.4973 -0.000470813 -2.0683 -0.000371304
-0.917169 -0.000461573 -1.3982 -0.000439652 -1.97266 -0.000354134
-0.839536 -0.000422504 -1.29043 -0.000405764 -1.87218 -0.000336096
-0.758171 -0.000381556 -1.17552 -0.000369632 -1.76603 -0.00031704
-0.672971 -0.000338679 -1.05512 -0.000331772 -1.65331 -0.000296804
-0.583738 -0.000293771 -0.930963 -0.000292733 -1.53315 -0.000275233
-0.490104 -0.000246649 -0.80483 -0.000253072 -1.40474 -0.000252181
-0.39166 -0.000197106 -0.678404 -0.000213318 -1.26743 -0.000227531
-0.288303 -0.000145091 -0.553073 -0.000173909 -1.12081 -0.00020121
-0.180511 -9.08436e-05 -0.429777 -0.000135139 -0.964832 -0.000173208
-0.0692114 -3.48312e-05 -0.309032 -9.71722e-05 -0.799788 -0.000143579
0.016712 8.41047e-06 -0.183855 -5.78115e-05 -0.627809 -0.000112705
0.0781577 3.93336e-05 -0.0612699 -1.92658e-05 -0.446476 -8.01519e-05
0.136308 6.85979e-05 0.057682 1.81376e-05 -0.257261 -4.61839e-05
0.195005 9.8138e-05 0.156911 4.93391e-05 -0.0614521 -1.1032e-05
0.250936 0.000126286 0.249056 7.83135e-05 0.0873561 1.56823e-05
0.303996 0.000152988 0.33623 0.000105725 0.235064 4.21989e-05
0.354536 0.000178423 0.417202 0.000131185 0.3866 6.94029e-05
0.401303 0.000201959 0.489873 0.000154036 0.542082 9.73152e-05
0.444079 0.000223487 0.55532 0.000174615 0.698454 0.000125387
0.483208 0.000243178 0.61444 0.000193205 0.85015 0.00015262
0.518502 0.000260941 0.666406 0.000209545 0.997202 0.000179019
0.550266 0.000276926 0.710877 0.000223529 1.14019 0.000204689
0.578965 0.000291369 0.748614 0.000235395 1.27736 0.000229314
0.604844 0.000304393 0.780127 0.000245304 1.4048 0.000252192
0.6283 0.000316197 0.805545 0.000253296 1.52036 0.000272938
0.649911 0.000327074 0.825195 0.000259475 1.62367 0.000291483
0.670242 0.000337305 0.839702 0.000264037 1.71381 0.000307666
0.689874 0.000347185 0.849663 0.000267169 1.78846 0.000321067
0.709307 0.000356965 0.85562 0.000269042 1.84567 0.000331337
0.728799 0.000366774 0.858273 0.000269876 1.88482 0.000338366
0.748397 0.000376637 0.858498 0.000269947 1.90569 0.000342112
0.768071 0.000386538 0.857106 0.000269509 1.9072 0.000342383
0.78786 0.000396498 0.8547 0.000268753 1.88718 0.00033879
0.807928 0.000406597 0.851872 0.000267863 1.84507 0.000331229
0.828493 0.000416946 0.848988 0.000266957 1.78182 0.000319875
0.849659 0.000427598 0.846276 0.000266104 1.69893 0.000304994
0.871288 0.000438483 0.84399 0.000265385 1.59769 0.000286819
0.89305 0.000449435 0.842373 0.000264877 1.47952 0.000265605
0.914516 0.000460238 0.841523 0.000264609 1.34655 0.000241734
0.93523 0.000470662 0.841372 0.000264562 1.20145 0.000215685
0.954704 0.000480463 0.841747 0.00026468 1.047 0.000187958
0.972398 0.000489368 0.842391 0.000264882 0.885954 0.000159048
0.987749 0.000497093 0.842929 0.000265051 0.721295 0.000129488
1.00021 0.000503364 0.842871 0.000265033 0.556258 9.98602e-05
1.00929 0.000507934 0.84164 0.000264646 0.394089 7.07473e-05
1.01414 0.000510373 0.83874 0.000263734 0.237821 4.26939e-05
1.01156 0.000509077 0.834548 0.000262416 0.0901188 1.61782e-05
1.00133 0.00050393 0.827817 0.0002603 -0.0477785 -8.57726e-06
0.983948 0.00049518 0.817237 0.000256973 -0.183543 -3.29499e-05
0.961157 0.000483711 0.80056 0.000251729 -0.298423 -5.35733e-05
0.934472 0.000470281 0.777484 0.000244473 -0.392919 -7.05372e-05
0.904922 0.00045541 0.747574 0.000235068 -0.468431 -8.40934e-05
0.873583 0.000439638 0.71011 0.000223288 -0.522311 -9.37659e-05
0.84102 0.000423251 0.665191 0.000209163 -0.55336 -9.93398e-05
0.807378 0.00040632 0.613857 0.000193022 -0.562449 -0.000100971
0.77261 0.000388823 0.557477 0.000175294 -0.551379 -9.89844e-05
0.73658 0.00037069 0.497389 0.000156399 -0.521 -9.35305e-05
0.699264 0.00035191 0.435226 0.000136853 -0.472708 -8.48612e-05
0.660924 0.000332616 0.372899 0.000117255 -0.409378 -7.34921e-05
0.622027 0.00031304 0.312206 9.81704e-05 -0.335084 -6.01547e-05
0.583061 0.00029343 0.254788 8.01159e-05 -0.253357 -4.5483e-05
0.544409 0.000273978 0.202291 6.36087e-05 -0.166981 -2.99766e-05
0.506348 0.000254824 0.15628 4.9141e-05 -0.0788825 -1.41611e-05
0.469048 0.000236053 0.117989 3.71007e-05 0.0028763 5.16358e-07
0.432432 0.000217625 0.0886097 2.78625e-05 0.0669114 1.2012e-05
0.39615 0.000199366 0.0688142 2.1638e-05 0.125341 2.25014e-05
0.359526 0.000180934 0.0590139 1.85564e-05 0.178214 3.19933e-05
0.321738 0.000161918 0.0592563 1.86326e-05 0.223741 4.01662e-05
0.281933 0.000141885 0.069107 2.17301e-05 0.260556 4.67754e-05
0.23934 0.00012045 0.0875522 2.753e-05 0.288657 5.18201e-05
0.193331 9.72957e-05 0.113037 3.55433e-05 0.309302 5.55264e-05
0.143407 7.21706e-05 0.143571 4.51447e-05 0.323291 5.80377e-05
0.0891392 4.48601e-05 0.176818 5.55988e-05 0.331256 5.94676e-05
0.0351458 1.76874e-05 0.209159 6.57681e-05 0.334394 6.00308e-05
0.00624202 3.14135e-06 0.230345 7.24298e-05 0.33556 6.02402e-05
-0.0308304 -1.55157e-05 0.245754 7.72752e-05 0.334946 6.013e-05
-0.0699348 -3.51953e-05 0.25819 8.11856e-05 0.331991 5.95995e-05
-0.111213 -5.59687e-05 0.263986 8.30079e-05 0.328122 5.89049e-05
-0.156317 -7.8668e-05 0.259519 8.16033e-05 0.323689 5.81091e-05
-0.204004 -0.000102667 0.24423 7.67958e-05 0.319652 5.73843e-05
-0.253686 -0.00012767 0.2183 6.86424e-05 0.31615 5.67557e-05
-0.305853 -0.000153923 0.180656 5.68056e-05 0.312582 5.61151e-05
-0.360148 -0.000181248 0.131031 4.12016e-05 0.308079 5.53067e-05
-0.416428 -0.000209571 0.0701923 2.20714e-05 0.302085 5.42307e-05
-0.474789 -0.000238941 -0.00087756 -2.75941e-07 0.293576 5.27032e-05
-0.53485 -0.000269168 -0.084192 -2.64734e-05 0.280814 5.04122e-05
-0.596137 -0.000300011 -0.181641 -5.71155e-05 0.262434 4.71124e-05
-0.658298 -0.000331294 -0.286154 -8.99784e-05 0.236447 4.24473e-05
-0.720892 -0.000362795 -0.395387 -0.000124326 0.201505 3.61745e-05
-0.783537 -0.000394322 -0.507755 -0.000159659 0.155606 2.79345e-05
-0.845897 -0.000425705 -0.621689 -0.000195484 0.0969 1.73956e-05
-0.907603 -0.000456759 -0.734955 -0.0002311 0.0223999 4.02126e-06
-0.968301 -0.000487306 -0.845272 -0.000265788 -0.0792773 -1.4232e-05
-1.0275 -0.000517097 -0.95159 -0.000299219 -0.193387 -3.4717e-05
-1.08479 -0.000545932 -1.05261 -0.000330985 -0.324361 -5.82296e-05
-1.13967 -0.000573551 -1.14699 -0.00036066 -0.473054 -8.49233e-05
-1.19174 -0.000599751 -1.23402 -0.000388025 -0.639447 -0.000114794
-1.24049 -0.000624286 -1.31355 -0.000413035 -0.820739 -0.00014734
-1.28551 -0.000646943 -1.38547 -0.00043565 -1.01497 -0.000182209
-1.32653 -0.000667589 -1.44979 -0.000455872 -1.2206 -0.000219124
-1.36351 -0.000686199 -1.50682 -0.000473805 -1.43566 -0.000257731
-1.3966 -0.000702852 -1.5571 -0.000489616 -1.65674 -0.00029742
-1.4261 -0.000717697 -1.60121 -0.000503485 -1.88022 -0.000337539
-1.45238 -0.000730924 -1.6398 -0.00051562 -2.10288 -0.000377512
-1.47583 -0.000742724 -1.67369 -0.000526278 -2.32168 -0.000416791
-1.49676 -0.000753257 -1.70382 -0.00053575 -2.53306 -0.000454737
-1.51542 -0.000762646 -1.7311 -0.000544328 -2.73327 -0.00049068
-1.53203 -0.00077101 -1.75642 -0.00055229 -2.91901 -0.000524025
-1.54688 -0.000778479 -1.78056 -0.00055988 -3.08749 -0.00055427
-1.56027 -0.000785219 -1.80413 -0.000567291 -3.23611 -0.00058095
-1.57315 -0.000791704 -1.82435 -0.000573651 -3.2704 -0.000587106
-1.58491 -0.000797621 -1.84853 -0.000581253 -3.25577 -0.00058448
-1.59697 -0.000803688 -1.87169 -0.000588536 -3.24473 -0.000582497
-1.60876 -0.000809624 -1.89241 -0.000595052 -3.25559 -0.000584448
-1.62107 -0.000815816 -1.91306 -0.000601544 -3.27331 -0.00058763
-1.63366 -0.000822155 -1.93444 -0.000608267 -3.27264 -0.000587508
-1.64641 -0.000828571 -1.95435 -0.000614528 -3.24848 -0.000583172
-1.65902 -0.000834914 -1.97178 -0.000620008 -3.20678 -0.000575685
-1.67092 -0.000840903 -1.98732 -0.000624895 -3.14715 -0.000564981
-1.68131 -0.000846133 -2.00075 -0.000629118 -3.06257 -0.000549797
-1.68931 -0.000850158 -2.01109 -0.000632368 -2.95353 -0.000530221
-1.69282 -0.000851926 -2.01813 -0.000634584 -2.82901 -0.000507867
-1.69134 -0.00085118 -2.02142 -0.000635618 -2.69384 -0.000483601
-1.68464 -0.000847811 -2.0197 -0.000635078 -2.54727 -0.000457289
-1.67282 -0.00084186 -2.01138 -0.00063246 -2.38975 -0.000429011
-1.65647 -0.000833631 -1.99526 -0.00062739 -2.22681 -0.000399759
-1.63619 -0.000823425 -1.97035 -0.00061956 -2.06363 -0.000370466
-1.6124 -0.000811453 -1.93577 -0.000608686 -1.90201 -0.000341451
-1.58544 -0.000797888 -1.89102 -0.000594614 -1.74242 -0.000312801
-1.55545 -0.000782793 -1.83612 -0.000577351 -1.58724 -0.000284943
-1.52225 -0.000766085 -1.77146 -0.000557019 -1.43938 -0.000258399
-1.48545 -0.000747566 -1.69781 -0.00053386 -1.30006 -0.000233388
-1.44444 -0.000726928 -1.61638 -0.000508257 -1.16898 -0.000209857
-1.39841 -0.000703762 -1.52873 -0.000480696 -1.04613 -0.000187803
-1.34649 -0.00067763 -1.43654 -0.000451707 -0.931997 -0.000167313
-1.28808 -0.000648238 -1.34143 -0.000421801 -0.826599 -0.000148392
-1.22318 -0.000615576 -1.24487 -0.000391438 -0.729143 -0.000130897
-1.15231 -0.000579912 -1.14806 -0.000360998 -0.638744 -0.000114668
-1.07635 -0.000541682 -1.05198 -0.000330786 -0.554905 -9.96173e-05
-0.996324 -0.000501409 -0.957408 -0.000301048 -0.477216 -8.56704e-05
-0.913325 -0.000459639 -0.864992 -0.000271989 -0.404941 -7.26955e-05
-0.828439 -0.000416919 -0.775267 -0.000243776 -0.337197 -6.0534e-05
-0.742696 -0.000373768 -0.688644 -0.000216538 -0.273286 -4.90607e-05
-0.657011 -0.000330646 -0.605449 -0.000190378 -0.212697 -3.81836e-05
-0.572116 -0.000287922 -0.52596 -0.000165383 -0.154871 -2.78026e-05
-0.488447 -0.000245815 -0.450453 -0.000141641 -0.0991495 -1.77994e-05
-0.406046 -0.000204346 -0.379457 -0.000119317 -0.0509469 -9.14606e-06
-0.324805 -0.000163461 -0.312768 -9.83471e-05 -0.0165217 -2.96599e-06
-0.244595 -0.000123095 -0.250636 -7.88103e-05 0.0153499 2.75564e-06
-0.165811 -8.34458e-05 -0.193062 -6.07066e-05 0.0483948 8.6879e-06
-0.0892553 -4.49185e-05 -0.139409 -4.3836e-05 0.0826053 1.48294e-05
-0.0165387 -8.32326e-06 -0.088897 -2.79529e-05 0.11543 2.07221e-05
0.035565 1.78984e-05 -0.0395793 -1.24454e-05 0.146812 2.63558e-05
0.0662291 3.33304e-05 0.0113788 3.57797e-06 0.17894 3.21235e-05
0.0966799 4.8655e-05 0.056332 1.77131e-05 0.210636 3.78136e-05
0.123157 6.19799e-05 0.0950373 2.98836e-05 0.242814 4.35902e-05
0.145469 7.32084e-05 0.129499 4.07197e-05 0.274961 4.93613e-05
0.164973 8.30243e-05 0.161025 5.06329e-05 0.307554 5.52125e-05
0.180755 9.09666e-05 0.187877 5.90763e-05 0.340655 6.11549e-05
0.19285 9.70535e-05 0.209163 6.57693e-05 0.374067 6.71529e-05
0.202102 0.00010171 0.225492 7.09038e-05 0.407514 7.31575e-05
0.208576 0.000104968 0.236714 7.44326e-05 0.440814 7.91354e-05
0.212616 0.000107001 0.24228 7.61826e-05 0.473519 8.50067e-05
0.214806 0.000108103 0.242231 7.61674e-05 0.505195 9.06933e-05
0.215206 0.000108304 0.236886 7.44865e-05 0.535388 9.61135e-05
0.213829 0.000107611 0.226631 7.1262e-05 0.563333 0.00010113
0.210916 0.000106145 0.212007 6.66638e-05 0.588164 0.000105588
0.206523 0.000103934 0.193739 6.09194e-05 0.609188 0.000109362
0.200673 0.00010099 0.172701 5.43043e-05 0.625693 0.000112325
0.193502 9.73814e-05 0.149739 4.70839e-05 0.636828 0.000114324
0.185139 9.3173e-05 0.125586 3.94895e-05 0.641824 0.000115221
0.174801 8.79703e-05 0.101233 3.1832e-05 0.639391 0.000114784
0.162546 8.18026e-05 0.0774262 2.4346e-05 0.628016 0.000112742
0.149374 7.51739e-05 0.0544327 1.71159e-05 0.60701 0.000108971
0.136514 6.87018e-05 0.0321738 1.01168e-05 0.576457 0.000103486
0.124931 6.28728e-05 0.0106544 3.35017e-06 0.536772 9.6362e-05
0.115138 5.79444e-05 -0.00994284 -3.12644e-06 0.488266 8.76541e-05
0.107225 5.3962e-05 -0.0294057 -9.24636e-06 0.431162 7.74027e-05
0.100867 5.07624e-05 -0.0485962 -1.52807e-05 0.366064 6.57162e-05
0.0954403 4.80312e-05 -0.0682825 -2.14708e-05 0.294017 5.27823e-05
0.0902406 4.54143e-05 -0.0860267 -2.70503e-05 0.216086 3.8792e-05
0.0847807 4.26666e-05 -0.10186 -3.2029e-05 0.133256 2.39224e-05
0.0788937 3.97039e-05 -0.115865 -3.64326e-05 0.0468812 8.41617e-06
0.0725233 3.6498e-05 -0.128468 -4.03955e-05 -0.0434164 -7.79417e-06
0.065668 3.3048e-05 -0.139831 -4.39687e-05 -0.146208 -2.62474e-05
0.0584055 2.93931e-05 -0.15099 -4.74774e-05 -0.245222 -4.40225e-05
0.0510024 2.56674e-05 -0.162288 -5.10299e-05 -0.341233 -6.12586e-05
0.0441264 2.2207e-05 -0.174197 -5.47747e-05 -0.433466 -7.78164e-05
0.0383668 1.93084e-05 -0.187417 -5.89315e-05 -0.519909 -9.33347e-05
0.0343539 1.72889e-05 -0.202475 -6.36663e-05 -0.598344 -0.000107415
0.0327408 1.64771e-05 -0.219532 -6.90299e-05 -0.667731 -0.000119872
0.034156 1.71893e-05 -0.238579 -7.50189e-05 -0.727877 -0.000130669
0.0391721 1.97137e-05 -0.259454 -8.15829e-05 -0.778301 -0.000139722
0.0482591 2.42868e-05 -0.281675 -8.85701e-05 -0.8183 -0.000146902
0.0618085 3.11057e-05 -0.304439 -9.5728e-05 -0.847727 -0.000152185
0.0802012 4.03619e-05 -0.326756 -0.000102746 -0.867174 -0.000155676
0.0952792 4.79501e-05 -0.345261 -0.000108564 -0.877769 -0.000157578
0.104984 5.28343e-05 -0.357365 -0.00011237 -0.880079 -0.000157993
0.11734 5.90522e-05 -0.364897 -0.000114739 -0.873628 -0.000156835
0.131545 6.62011e-05 -0.367819 -0.000115658 -0.858792 -0.000154171
0.147519 7.42402e-05 -0.364882 -0.000114734 -0.8363 -0.000150134
0.164832 8.29533e-05 -0.35486 -0.000111583 -0.806587 -0.000144799
0.183035 9.21137e-05 -0.337574 -0.000106147 -0.770346 -0.000138293
0.201773 0.000101544 -0.313039 -9.84324e-05 -0.72802 -0.000130695
0.220605 0.000111022 -0.281017 -8.83631e-05 -0.679692 -0.000122019
0.239011 0.000120284 -0.241558 -7.59559e-05 -0.625481 -0.000112287
0.256542 0.000129107 -0.195299 -6.141e-05 -0.565544 -0.000101527
0.272212 0.000136993 -0.143695 -4.51835e-05 -0.499596 -8.96881e-05
0.28221 0.000142025 -0.0875392 -2.75259e-05 -0.427174 -7.66868e-05
0.287556 0.000144715 -0.0261068 -8.20905e-06 -0.348498 -6.25628e-05
0.289056 0.00014547 0.0387678 1.21902e-05 -0.263197 -4.72494e-05
0.286075 0.00014397 0.102177 3.21285e-05 -0.170275 -3.05679e-05
0.27989 0.000140857 0.159157 5.00456e-05 -0.0731958 -1.31402e-05
0.271328 0.000136548 0.212605 6.68516e-05 0.0044632 8.01239e-07
0.260505 0.000131101 0.26108 8.20942e-05 0.0808093 1.4507e-05
0.248309 0.000124963 0.301745 9.48809e-05 0.162741 2.92156e-05
0.235583 0.000118559 0.333054 0.000104726 0.253085 4.54341e-05
0.222607 0.000112029 0.354695 0.000111531 0.347342 6.23553e-05
0.209657 0.000105512 0.366286 0.000115175 0.442767 7.94861e-05
0.196977 9.91302e-05 0.367464 0.000115546 0.539192 9.67965e-05
0.184838 9.30212e-05 0.35856 0.000112746 0.637096 0.000114372
0.173669 8.74006e-05 0.340596 0.000107097 0.733782 0.00013173
0.16384 8.2454e-05 0.314767 9.89758e-05 0.825539 0.000148202
0.155444 7.82287e-05 0.282495 8.8828e-05 0.910091 0.000163381
0.148361 7.46642e-05 0.245639 7.72389e-05 0.986294 0.000177061
0.142401 7.16645e-05 0.206289 6.48657e-05 1.05207 0.000188868
0.1374 6.91475e-05 0.166466 5.23438e-05 1.10445 0.000198273
0.133278 6.70734e-05 0.128055 4.02658e-05 1.14117 0.000204864
0.130029 6.54381e-05 0.0927866 2.91759e-05 1.1611 0.000208442
0.127637 6.42344e-05 0.0621303 1.95363e-05 1.16293 0.000208771
0.126019 6.34201e-05 0.0371665 1.16867e-05 1.14315 0.000205219
0.124957 6.28855e-05 0.0188478 5.92651e-06 1.09979 0.000197435
0.124137 6.24731e-05 0.00758978 2.38654e-06 1.03341 0.000185518
0.123252 6.20279e-05 0.00329588 1.03636e-06 0.946014 0.00016983
0.122114 6.14549e-05 0.00548843 1.72579e-06 0.839546 0.000150716
0.120704 6.07452e-05 0.0132741 4.17391e-06 0.715696 0.000128483
0.119108 5.99421e-05 0.0253261 7.96358e-06 0.577058 0.000103594
0.11737 5.90677e-05 0.0400303 1.25872e-05 0.427269 7.67038e-05
0.115365 5.80586e-05 0.0556776 1.75073e-05 0.270177 4.85025e-05
0.112878 5.68066e-05 0.0705262 2.21763e-05 0.109289 1.96197e-05
0.109754 5.52345e-05 0.0828161 2.60408e-05 -0.0579117 -1.03964e-05
0.105848 5.3269e-05 0.0914447 2.8754e-05 -0.225913 -4.05562e-05
0.101223 5.09416e-05 0.0927101 2.91519e-05 -0.382952 -6.87479e-05
0.0956451 4.81342e-05 0.0842775 2.65003e-05 -0.530225 -9.51866e-05
0.0885239 4.45504e-05 0.0686089 2.15734e-05 -0.667994 -0.000119919
0.0792292 3.98728e-05 0.0442574 1.39164e-05 -0.792008 -0.000142182
0.0674368 3.39381e-05 0.0112129 3.5258e-06 -0.897269 -0.000161079
0.054034 2.71931e-05 -0.0300862 -9.46032e-06 -0.983672 -0.00017659
0.0382122 1.92306e-05 -0.0790208 -2.48474e-05 -1.05315 -0.000189063
0.0205481 1.0341e-05 -0.13472 -4.23615e-05 -1.10591 -0.000198534
-2.06833e-06 -1.0409e-09 -0.196127 -6.16704e-05 -1.14056 -0.000204755
-0.0196898 -9.90905e-06 -0.261216 -8.21369e-05 -1.1578 -0.00020785
-0.0391323 -1.96937e-05 -0.328515 -0.000103298 -1.16007 -0.000208257
-0.0604684 -3.04312e-05 -0.395404 -0.000124331 -1.14889 -0.00020625
-0.0810185 -4.07733e-05 -0.460734 -0.000144874 -1.12467 -0.000201902
-0.100149 -5.0401e-05 -0.522407 -0.000164266 -1.08938 -0.000195568
-0.117428 -5.90966e-05 -0.578444 -0.000181886 -1.04627 -0.000187828
-0.132492 -6.66779e-05 -0.626951 -0.000197139 -0.998528 -0.000179257
-0.14485 -7.28972e-05 -0.666186 -0.000209476 -0.948336 -0.000170247
-0.154096 -7.75499e-05 -0.694825 -0.000218481 -0.897395 -0.000161101
-0.159902 -8.04721e-05 -0.71184 -0.000223832 -0.847616 -0.000152165
-0.16198 -8.1518e-05 -0.716463 -0.000225285 -0.800849 -0.000143769
-0.160183 -8.06137e-05 -0.708283 -0.000222713 -0.758185 -0.00013611
-0.154862 -7.79354e-05 -0.68715 -0.000216068 -0.719988 -0.000129253
-0.14713 -7.40444e-05 -0.653207 -0.000205395 -0.686257 -0.000123198
-0.137723 -6.93105e-05 -0.607179 -0.000190922 -0.656701 -0.000117892
-0.127294 -6.40616e-05 -0.550312 -0.000173041 -0.630525 -0.000113193
-0.11632 -5.8539e-05 -0.484348 -0.000152299 -0.606295 -0.000108843
-0.101444 -5.10525e-05 -0.412461 -0.000129695 -0.581926 -0.000104468
-0.085725 -4.31419e-05 -0.336252 -0.000105732 -0.555998 -9.98135e-05
-0.0698786 -3.5167e-05 -0.25783 -8.10723e-05 -0.52647 -9.45126e-05
-0.0538888 -2.712e-05 -0.179559 -5.64607e-05 -0.491453 -8.82263e-05
-0.0380297 -1.91388e-05 -0.104024 -3.27095e-05 -0.449165 -8.06347e-05
-0.0225471 -1.1347e-05 -0.0336343 -1.0576e-05 -0.397922 -7.14356e-05
-0.00857942 -4.31767e-06 0.0290861 9.14586e-06 -0.336353 -6.03825e-05
0.0031977 1.60927e-06 0.083409 2.62272e-05 -0.263783 -4.73546e-05
0.0155435 7.82238e-06 0.123819 3.89337e-05 -0.180943 -3.24832e-05
0.0293568 1.47741e-05 0.152777 4.80392e-05 -0.0869694 -1.56129e-05
0.0445995 2.24451e-05 0.17077 5.36971e-05 -0.00611766 -1.09825e-06
0.062338 3.13721e-05 0.179083 5.63112e-05 0.0697259 1.25173e-05
0.081696 4.11142e-05 0.177843 5.59213e-05 0.149964 2.69218e-05
0.090314 4.54513e-05 0.172965 5.43873e-05 0.233915 4.19927e-05
0.100204 5.04287e-05 0.162302 5.10342e-05 0.319718 5.73961e-05
0.111591 5.61592e-05 0.145795 4.58439e-05 0.402233 7.22094e-05
0.125192 6.30038e-05 0.125075 3.93287e-05 0.480034 8.61763e-05
0.141118 7.10187e-05 0.102397 3.21978e-05 0.553373 9.93421e-05
0.159266 8.0152e-05 0.0799667 2.51448e-05 0.619934 0.000111291
0.179661 9.04161e-05 0.0595646 1.87296e-05 0.675991 0.000121355
0.201832 0.000101574 0.0430937 1.35504e-05 0.719619 0.000129187
0.225278 0.000113373 0.0326759 1.02747e-05 0.750518 0.000134734
0.24951 0.000125568 0.0299604 9.42079e-06 0.767928 0.000137859
0.273922 0.000137854 0.0359305 1.1298e-05 0.770329 0.00013829
0.298076 0.000150009 0.0511773 1.60923e-05 0.755797 0.000135682
0.321787 0.000161942 0.0759531 2.38828e-05 0.724425 0.00013005
0.344936 0.000173592 0.109701 3.44945e-05 0.677658 0.000121654
0.367409 0.000184902 0.151289 4.75714e-05 0.61759 0.000110871
0.389075 0.000195805 0.199344 6.26818e-05 0.546421 9.80943e-05
0.408806 0.000205735 0.252507 7.93987e-05 0.466647 8.37731e-05
0.425545 0.000214159 0.309091 9.71908e-05 0.381306 6.84525e-05
0.440078 0.000221473 0.366442 0.000115224 0.293909 5.2763e-05
0.453143 0.000228048 0.421622 0.000132575 0.207932 3.73283e-05
0.465568 0.000234301 0.471977 0.000148409 0.126623 2.27314e-05
0.478148 0.000240632 0.515115 0.000161973 0.0530125 9.51687e-06
0.491548 0.000247376 0.548934 0.000172608 -0.0101901 -1.82935e-06
0.506273 0.000254786 0.571906 0.000179831 -0.0632757 -1.13593e-05
0.522553 0.000262979 0.583228 0.000183391 -0.105045 -1.88578e-05
0.540374 0.000271948 0.582616 0.000183198 -0.128136 -2.30031e-05
0.550989 0.00027729 0.573962 0.000180477 -0.13601 -2.44167e-05
0.559307 0.000281476 0.556449 0.00017497 -0.128308 -2.30339e-05
0.565124 0.000284403 0.530741 0.000166887 -0.104293 -1.87229e-05
0.57013 0.000286923 0.496941 0.000156259 -0.066492 -1.19367e-05
0.574466 0.000289105 0.457298 0.000143793 -0.0239706 -4.30323e-06
0.578093 0.00029093 0.414308 0.000130275 0.0217902 3.9118e-06
0.581543 0.000292666 0.369915 0.000116317 0.0726703 1.30459e-05
0.585063 0.000294438 0.32609 0.000102536 0.127231 2.28407e-05
0.588887 0.000296362 0.285322 8.9717e-05 0.182863 3.28278e-05
0.593467 0.000298667 0.249981 7.86043e-05 0.23679 4.25089e-05
0.599193 0.000301549 0.221777 6.97357e-05 0.28688 5.1501e-05
0.606426 0.000305189 0.202173 6.35715e-05 0.331906 5.95842e-05
0.615542 0.000309777 0.192541 6.05429e-05 0.370589 6.65286e-05
0.626819 0.000315452 0.19378 6.09323e-05 0.401581 7.20924e-05
0.640423 0.000322298 0.206222 6.48445e-05 0.424079 7.61312e-05
0.655992 0.000330134 0.22948 7.21578e-05 0.438231 7.86718e-05
0.672584 0.000338484 0.262282 8.24723e-05 0.444842 7.98587e-05
0.690711 0.000347606 0.304681 9.58042e-05 0.444014 7.971e-05
0.71127 0.000357953 0.355564 0.000111804 0.436242 7.83147e-05
0.732621 0.000368698 0.413527 0.00013003 0.42302 7.59411e-05
0.753632 0.000379272 0.47755 0.000150161 0.406089 7.29016e-05
0.773083 0.000389061 0.546104 0.000171718 0.387488 6.95624e-05
0.789819 0.000397483 0.617 0.00019401 0.369599 6.6351e-05
0.803307 0.000404271 0.688125 0.000216375 0.354671 6.3671e-05
0.813424 0.000409363 0.757088 0.00023806 0.344945 6.1925e-05
0.820176 0.000412761 0.821253 0.000258236 0.342649 6.15127e-05
0.82373 0.000414549 0.87824 0.000276155 0.349744 6.27864e-05
0.823991 0.00041468 0.926098 0.000291203 0.367712 6.60121e-05
0.820497 0.000412922 0.963299 0.000302901 0.397502 7.136e-05
0.812499 0.000408897 0.988469 0.000310815 0.438092 7.86468e-05
0.79919 0.000402199 1.00059 0.000314626 0.487141 8.74521e-05
0.78029 0.000392687 0.999506 0.000314286 0.545464 9.79224e-05
0.755416 0.000380169 0.985337 0.00030983 0.613846 0.000110198
0.724074 0.000364397 0.958699 0.000301454 0.690751 0.000124005
0.686139 0.000345305 0.920688 0.000289502 0.773448 0.00013885
0.641865 0.000323024 0.872466 0.000274339 0.85893 0.000154196
0.591842 0.00029785 0.815276 0.000256356 0.9452 0.000169684
0.536991 0.000270245 0.750565 0.000236009 1.02988 0.000184885
0.478295 0.000240706 0.679946 0.000213803 1.1098 0.000199233
0.41673 0.000209723 0.605075 0.00019026 1.18156 0.000212115
0.353381 0.000177842 0.527601 0.000165899 1.24238 0.000223034
0.289475 0.000145681 0.449104 0.000141217 1.28986 0.000231558
0.226257 0.000113866 0.371066 0.000116679 1.32156 0.000237248
0.164755 8.29141e-05 0.2949 9.27287e-05 1.33508 0.000239676
0.105634 5.31614e-05 0.221915 6.97793e-05 1.32758 0.000238329
0.0484798 2.43979e-05 0.153365 4.82242e-05 1.29648 0.000232746
-0.00642975 -3.23583e-06 0.0915109 2.87748e-05 1.24025 0.000222652
-0.0551025 -2.77308e-05 0.0376045 1.18244e-05 1.15883 0.000208034
-0.0880208 -4.42972e-05 -0.0145097 -4.56246e-06 1.05444 0.000189294
-0.118082 -5.9426e-05 -0.0622126 -1.95622e-05 0.927131 0.00016644
-0.144367 -7.26539e-05 -0.102287 -3.21631e-05 0.77791 0.000139651
-0.167378 -8.42343e-05 -0.135448 -4.25905e-05 0.609294 0.000109381
-0.187974 -9.45998e-05 -0.168791 -5.30748e-05 0.424188 7.61507e-05
-0.205738 -0.000103539 -0.198461 -6.24042e-05 0.225379 4.04604e-05
-0.221365 -0.000111404 -0.223437 -7.02579e-05 0.016655 2.98993e-06
-0.236177 -0.000118858 -0.243096 -7.64394e-05 -0.211011 -3.78809e-05
-0.250555 -0.000126094 -0.261878 -8.2345e-05 -0.426967 -7.66497e-05
-0.265732 -0.000133732 -0.279381 -8.7849e-05 -0.639771 -0.000114853
-0.282797 -0.00014232 -0.295722 -9.2987e-05 -0.853594 -0.000153238
-0.302465 -0.000152218 -0.312892 -9.83861e-05 -1.06249 -0.00019074
-0.325219 -0.000163669 -0.333066 -0.00010473 -1.25651 -0.00022557
-0.351297 -0.000176793 -0.357192 -0.000112316 -1.43192 -0.00025706
-0.380641 -0.000191561 -0.386037 -0.000121386 -1.59065 -0.000285555
-0.413042 -0.000207867 -0.420967 -0.000132369 -1.73165 -0.000310867
-0.44825 -0.000225586 -0.46307 -0.000145608 -1.84995 -0.000332106
-0.485926 -0.000244547 -0.512625 -0.00016119 -1.94238 -0.000348699
-0.525664 -0.000264545 -0.569526 -0.000179082 -2.01003 -0.000360843
-0.567048 -0.000285372 -0.633484 -0.000199193 -2.05467 -0.000368856
-0.609769 -0.000306871 -0.703724 -0.00022128 -2.07606 -0.000372697
-0.653712 -0.000328986 -0.778865 -0.000244907 -2.07318 -0.000372181
-0.698886 -0.00035172 -0.857092 -0.000269505 -2.04535 -0.000367183
-0.745279 -0.000375068 -0.936598 -0.000294505 -1.99522 -0.000358185
-0.79275 -0.000398958 -1.01532 -0.000319259 -1.92639 -0.000345828
-0.841043 -0.000423262 -1.09116 -0.000343105 -1.84221 -0.000330716
-0.889867 -0.000447833 -1.16217 -0.000365433 -1.74637 -0.000313511
-0.93894 -0.00047253 -1.22658 -0.000385686 -1.64269 -0.000294898
-0.987876 -0.000497157 -1.28281 -0.000403369 -1.53501 -0.000275567
-1.03606 -0.000521408 -1.3297 -0.000418112 -1.42678 -0.000256138
-1.08272 -0.000544887 -1.36655 -0.000429698 -1.32109 -0.000237164
-1.127 -0.000567175 -1.39306 -0.000438034 -1.22064 -0.000219132
-1.16818 -0.000587896 -1.40925 -0.000443125 -1.1278 -0.000202465
-1.20572 -0.000606788 -1.41541 -0.000445062 -1.04442 -0.000187496
-1.23949 -0.000623782 -1.41206 -0.000444009 -0.971871 -0.000174472
-1.26976 -0.000639019 -1.39989 -0.000440182 -0.911012 -0.000163546
-1.29711 -0.000652783 -1.37976 -0.000433854 -0.862274 -0.000154797
-1.32221 -0.000665411 -1.35285 -0.00042539 -0.825614 -0.000148215
-1.3457 -0.000677234 -1.32059 -0.000415246 -0.800521 -0.000143711
-1.36811 -0.000688511 -1.28473 -0.000403972 -0.786054 -0.000141113
-1.38974 -0.000699399 -1.24727 -0.000392193 -0.780944 -0.000140196
-1.41076 -0.000709976 -1.21036 -0.000380588 -0.783705 -0.000140692
-1.43124 -0.000720285 -1.17619 -0.000369842 -0.792722 -0.00014231
-1.45124 -0.000730351 -1.14684 -0.000360613 -0.806349 -0.000144757
-1.47078 -0.000740181 -1.12422 -0.000353501 -0.823034 -0.000147752
-1.48979 -0.000749748 -1.10999 -0.000349026 -0.841422 -0.000151053
-1.50814 -0.000758983 -1.10549 -0.000347611 -0.860429 -0.000154465
-1.52562 -0.000767781 -1.11165 -0.000349549 -0.8793 -0.000157853
-1.542 -0.000776025 -1.12897 -0.000354994 -0.897669 -0.000161151
-1.55703 -0.000783586 -1.15743 -0.000363943 -0.91559 -0.000164368
-1.56997 -0.000790099 -1.19668 -0.000376284 -0.933505 -0.000167584
-1.57691 -0.000793593 -1.24707 -0.000392131 -0.951935 -0.000170893
-1.5776 -0.000793939 -1.3072 -0.000411036 -0.97229 -0.000174547
-1.57235 -0.000791298 -1.37449 -0.000432195 -0.996278 -0.000178853
-1.56187 -0.000786024 -1.44585 -0.000454636 -1.02584 -0.000184159
-1.54679 -0.000778437 -1.51808 -0.000477347 -1.06308 -0.000190845
-1.5274 -0.000768675 -1.58786 -0.000499289 -1.11 -0.000199269
-1.50396 -0.000756879 -1.65207 -0.00051948 -1.16819 -0.000209715
-1.47653 -0.000743075 -1.70791 -0.000537037 -1.23887 -0.000222403
-1.44476 -0.000727087 -1.75302 -0.000551221 -1.32277 -0.000237465
-1.408 -0.000708589 -1.78559 -0.000561462 -1.41994 -0.00025491
-1.36535 -0.000687125 -1.80431 -0.00056735 -1.52972 -0.000274617
-1.31582 -0.000662196 -1.80839 -0.000568631 -1.6508 -0.000296354
-1.25847 -0.000633337 -1.79749 -0.000565205 -1.78123 -0.000319768
-1.19252 -0.000600144 -1.7717 -0.000557095 -1.91842 -0.000344398
-1.11744 -0.000562359 -1.73134 -0.000544403 -2.05702 -0.000369279
-1.03333 -0.00052003 -1.67631 -0.0005271 -2.17597 -0.000390632
-0.940626 -0.000473378 -1.60866 -0.000505828 -2.28694 -0.000410554
-0.840394 -0.000422935 -1.52815 -0.000480512 -2.39315 -0.000429621
-0.733938 -0.00036936 -1.43554 -0.000451391 -2.49333 -0.000447607
-0.622576 -0.000313317 -1.33249 -0.000418988 -2.58124 -0.000463388
-0.507431 -0.000255369 -1.22045 -0.000383761 -2.65023 -0.000475772
-0.389317 -0.000195927 -1.10076 -0.000346123 -2.69859 -0.000484454
-0.268818 -0.000135285 -0.975062 -0.0003066 -2.72552 -0.000489289
-0.146417 -7.36858e-05 -0.845254 -0.000265783 -2.72635 -0.000489438
-0.0610939 -3.0746e-05 -0.701847 -0.00022069 -2.69543 -0.000483887
0.0194795 9.80323e-06 -0.555744 -0.000174749 -2.62412 -0.000471085
0.0905577 4.55739e-05 -0.418934 -0.00013173 -2.51115 -0.000450804
0.154837 7.79232e-05 -0.289834 -9.11356e-05 -2.35777 -0.00042327
0.221289 0.000111366 -0.163221 -5.13235e-05 -2.16376 -0.000388441
0.284483 0.000143168 -0.0436212 -1.37163e-05 -1.92802 -0.00034612
0.343904 0.000173073 0.0666741 2.09651e-05 -1.65308 -0.000296763
0.401866 0.000202243 0.169385 5.32616e-05 -1.3426 -0.000241025
0.456628 0.000229802 0.260432 8.18906e-05 -0.998869 -0.000179318
0.50768 0.000255495 0.33436 0.000105137 -0.627979 -0.000112736
0.55647 0.000280049 0.401593 0.000126277 -0.235132 -4.22112e-05
0.603087 0.000303509 0.462028 0.000145281 0.0805502 1.44605e-05
0.64742 0.00032582 0.520529 0.000163676 0.353936 6.35391e-05
0.69134 0.000347923 0.57551 0.000180964 0.626378 0.000112448
0.735253 0.000370023 0.626886 0.000197119 0.909779 0.000163325
0.780292 0.000392689 0.67725 0.000212955 1.19543 0.000214605
0.827348 0.00041637 0.729154 0.000229276 1.46413 0.000262843
0.877141 0.000441429 0.783046 0.000246222 1.71199 0.000307339
0.930225 0.000468144 0.839547 0.000263988 1.94582 0.000349316
0.986978 0.000496705 0.900327 0.0002831 2.16513 0.000388688
1.0476 0.000527214 0.966775 0.000303994 2.36015 0.000423697
1.11227 0.000559761 1.03941 0.000326833 2.52479 0.000453254
1.18165 0.000594676 1.11498 0.000350594 2.58556 0.000464163
1.25439 0.000631283 1.20228 0.000378046 2.58166 0.000463463
1.33151 0.000670094 1.29512 0.000407239 2.56956 0.00046129
1.41135 0.000710272 1.39096 0.000437374 2.57936 0.000463049
1.49418 0.00075196 1.49139 0.000468953 2.59959 0.000466682
1.57878 0.000794536 1.59772 0.00050239 2.60079 0.000466898
1.66476 0.000837803 1.70658 0.00053662 2.57527 0.000462316
1.75156 0.000881488 1.81514 0.000570754 2.53209 0.000454565
1.83865 0.000925314 1.92273 0.000604586 2.47511 0.000444335
1.5656 0.000787904 8.93253 0.267263 1.26594 0.000227262
1.84162 0.000926813 8.93253 0.290272 1.68856 0.000303132
1.76179 0.000886636 8.75812 0.301118 1.51138 0.000271325
1.85917 0.000935642 8.93253 0.309259 1.17219 0.000210433
1.96174 0.000987262 8.93253 0.334948 1.09866 0.000197233
1.95573 0.000984235 8.93253 0.357342 1.06932 0.000191966
2.01392 0.00101352 8.93253 0.373823 0.831575 0.000149285
2.08174 0.00104765 8.93253 0.388844 0.63729 0.000114407
2.10552 0.00105962 8.93253 0.408188 0.615374 0.000110473
2.11619 0.00106499 8.93253 0.425391 0.60388 0.000108409
2.12426 0.00106905 8.93253 0.43774 0.506885 9.09966e-05
2.1399 0.00107692 8.93253 0.449717 0.460596 8.26869e-05
2.15291 0.00108347 8.93253 0.463593 0.520544 9.34487e-05
2.16422 0.00108916 8.93253 0.478396 0.59001 0.000105919
2.18098 0.0010976 8.93253 0.491455 0.624786 0.000112162
2.19059 0.00110244 8.93253 0.503897 0.68899 0.000123688
2.19803 0.00110618 8.93253 0.517765 0.805711 0.000144642
2.059 0.00103621 -0.152334 0.518788 1.07726 0.00019339
1.9772 0.000995042 2.29363 0.514672 1.17607 0.00021113
2.07866 0.0010461 8.93253 0.530877 1.38011 0.000247759
8.93253 0.376316 -1.02714 0.525472 1.71598 0.000308054
8.6431 0.610386 5.509 0.518443 1.47246 0.000264338
7.38519 0.637549 6.52909 0.526427 1.82056 0.00032683
8.93253 0.638612 8.72401 0.543604 2.03161 0.000364717
8.93253 0.673502 8.93253 0.578816 1.96239 0.000352291
8.93253 0.696585 8.93253 0.603197 1.85952 0.000333823
8.93253 0.708659 8.93253 0.624303 1.87646 0.000336865
8.93253 0.729613 8.93253 0.655246 1.92003 0.000344686
8.93253 0.746291 8.93253 0.685231 1.91764 0.000344257
8.93253 0.762292 8.93253 0.709439 1.89996 0.000341083
8.93253 0.790801 8.93253 0.732462 1.91626 0.000344009
8.93253 0.81564 8.93253 0.758587 1.92574 0.000345712
8.93253 0.83712 8.93253 0.782807 1.90976 0.000342843
8.93253 0.859779 8.93253 0.805405 1.8841 0.000338237
8.93253 0.881464 8.93253 0.827709 1.88344 0.000338118
8.93253 0.900168 8.93253 0.849597 1.89441 0.000340087
8.93253 0.917904 8.93253 0.870322 1.89059 0.0003394
8.93253 0.93478 8.93253 0.889505 1.88831 0.000338992
8.93253 0.948879 8.93253 0.907698 1.90949 0.000342793
8.93253 0.960718 8.93253 0.925471 1.93299 0.000347013
8.93253 0.97092 8.93253 0.942228 1.94506 0.000349179
8.93253 0.978946 8.93253 0.957493 1.96542 0.000352835
8.93253 0.984751 8.93253 0.971759 1.99899 0.000358861
8.93253 0.98852 4.08489 0.978407 2.03497 0.00036532
4.8142 0.986447 -1.12207 0.944038 2.07596 0.000372679
5.0445 0.986563 -1.41879 0.93529 1.99627 0.000358372
7.21692 0.987656 3.50457 0.953075 2.16653 0.000388939
7.50544 0.987802 7.18362 0.971278 2.30609 0.000413993
8.19038 0.988146 8.93253 0.984949 2.30116 0.000413107
8.93253 0.989994 8.93253 1.00289 2.25413 0.000404664
8.93253 0.993626 8.93253 1.01996 2.33982 0.000420048
8.84072 0.99358 8.93253 1.03809 2.43476 0.000437092
8.93253 0.99577 8.93253 1.05484 2.4326 0.000436704
8.93253 0.999768 8.93253 1.07101 2.44235 0.000438454
8.93253 1.0029 8.93253 1.08738 2.09077 0.000375337
8.7512 1.00781 8.93253 1.10563 2.38504 0.000428165
8.90989 1.00819 8.93253 1.12499 2.64815 0.000475399
8.93253 1.0087 8.93253 1.14242 2.68844 0.000482632
8.93253 1.01105 8.93253 1.16117 2.63017 0.000472172
8.93253 1.0122 8.93253 1.17981 2.65112 0.000475932
8.93253 1.01294 8.93253 1.19776 2.74396 0.000492599
8.93253 1.01456 8.93253 1.21607 2.83284 0.000508555
8.93253 1.01582 8.93253 1.23448 2.84909 0.000511473
8.93253 1.0169 8.93253 1.25269 2.84942 0.000511531
8.93253 1.01837 8.93253 1.27078 2.89886 0.000520407
8.93253 1.01977 8.93253 1.28879 2.97189 0.000533517
8.93253 1.02106 8.93253 1.30676 3.01972 0.000542105
8.93253 1.02232 8.93253 1.32468 3.04091 0.000545907
8.93253 1.02339 8.93253 1.34239 3.06565 0.000550349
8.93253 1.02442 8.93253 1.35986 3.11408 0.000559044
8.93253 1.02526 8.93253 1.37712 3.16715 0.000568571
8.93253 1.0258 8.93253 1.39409 3.19871 0.000574237
8.93253 1.02597 8.93253 1.41067 3.21942 0.000577954
8.93253 1.02796 8.93253 1.42398 2.54046 0.000456066
8.93253 1.03701 8.93253 1.42902 0.976585 0.000175318
7.84844 1.03746 8.93253 1.44573 0.154554 2.77458e-05
7.60376 1.03734 8.93253 1.45889 0.496674 8.91635e-05
6.87389 1.03697 8.93253 1.47165 1.13077 0.000202998
6.23113 1.03665 8.93253 1.48437 1.13419 0.000203611
5.37513 1.03622 8.93253 1.49609 0.705392 0.000126633
4.22002 1.03563 8.93253 1.50631 0.577527 0.000103678
2.90628 1.03497 8.93253 1.51589 0.866551 0.000155564
1.03548 1.03403 8.93253 1.52461 1.08526 0.000194827
-0.0525394 1.03186 8.93253 1.53249 0.966455 0.000173499
-0.194314 1.02742 8.93253 1.53989 0.787258 0.00014133
-0.400968 1.02094 8.93253 1.54675 0.838265 0.000150486
-0.640499 1.01343 8.93253 1.55284 1.00574 0.000180551
-0.885931 1.00573 8.93253 1.55799 1.04151 0.000186973
-1.13778 0.997832 8.93253 1.56213 0.950567 0.000170647
-1.40226 0.989539 8.93253 1.56528 0.912555 0.000163823
-1.67806 0.980891 8.93253 1.56754 0.981622 0.000176222
-1.96094 0.972021 8.93253 1.56886 1.04732 0.000188016
-2.24985 0.962961 8.90487 1.56918 1.0331 0.000185464
-2.54898 0.953582 8.3375 1.569 0.991775 0.000178045
-2.86026 0.943821 7.13682 1.56862 0.999665 0.000179461
-3.18189 0.933735 5.22855 1.56802 1.03995 0.000186693
-3.448 0.925391 3.20466 1.56738 1.05428 0.000189266
-3.71178 0.91712 -0.00365703 1.5662 1.03954 0.00018662
-3.93747 0.910043 -0.0713228 1.56302 1.00882 0.000181105
-4.13479 0.903855 -0.17754 1.55802 0.971939 0.000174484
-4.32246 0.89797 -0.308547 1.55185 0.926315 0.000166293
-4.4944 0.892579 -0.459522 1.54474 0.862635 0.000154861
-4.64928 0.887722 -0.624682 1.53697 0.775587 0.000139234
-4.79127 0.88327 -0.807803 1.52835 0.667078 0.000119755
-4.92322 0.879132 -1.00682 1.51898 0.559884 0.000100511
-5.05096 0.875127 -1.2123 1.5093 0.466541 8.3754e-05
-5.17381 0.871274 -1.42834 1.49913 0.343135 6.16e-05
-5.29704 0.86741 -1.6567 1.48838 0.243147 4.36501e-05
-5.4284 0.863291 -1.8723 1.47823 0.199509 3.58161e-05
-5.55954 0.859179 -2.08251 1.46834 0.182681 3.27952e-05
-5.69296 0.854996 -2.29775 1.45821 0.174626 3.13491e-05
-5.83579 0.850517 -2.51708 1.44788 0.156431 2.80828e-05
-5.99219 0.845612 -2.74315 1.43724 0.110305 1.98022e-05
-6.15574 0.840484 -2.97611 1.42627 0.0531394 9.53966e-06
-6.32782 0.835088 -3.21329 1.41511 0.00933707 1.6762e-06
-6.51549 0.829203 -3.45532 1.40371 -0.020165 -3.62004e-06
-6.71925 0.822814 -3.70379 1.39202 -0.0513309 -9.21499e-06
-6.93605 0.816016 -3.9584 1.38003 -0.0944324 -1.69526e-05
-7.1674 0.808761 -4.21952 1.36774 -0.147557 -2.64896e-05
-7.4154 0.800985 -4.48852 1.35507 -0.201226 -3.61243e-05
-7.67862 0.792731 -4.76593 1.34201 -0.247952 -4.45126e-05
-7.95529 0.784055 -5.05226 1.32853 -0.289393 -5.19522e-05
-8.24497 0.774972 -5.34899 1.31457 -0.332896 -5.97618e-05
-8.54614 0.765528 -5.65751 1.30004 -0.382181 -6.86096e-05
-8.85578 0.755819 -5.97868 1.28492 -0.434199 -7.7948e-05
-9.16989 0.745969 -6.31363 1.26915 -0.483759 -8.6845e-05
-9.48365 0.736131 -6.66395 1.25266 -0.528827 -9.49357e-05
-9.79126 0.726485 -7.03105 1.23538 -0.571363 -0.000102572
-10.0871 0.717208 -7.41585 1.21727 -0.614477 -0.000110312
-10.3665 0.708447 -7.81877 1.1983 -0.658989 -0.000118302
-10.623 0.700403 -8.23969 1.17848 -0.702973 -0.000126199
-10.8471 0.693375 -8.67741 1.15788 -0.744407 -0.000133637
-11.0429 0.687237 -9.13067 1.13654 -0.783043 -0.000140573
-11.2131 0.681901 -9.59885 1.1145 -0.820248 -0.000147252
-11.3569 0.677392 -10.0801 1.09185 -0.857668 -0.00015397
-11.4712 0.673806 -10.5711 1.06873 -0.895766 -0.000160809
-11.557 0.671116 -11.0686 1.04531 -0.933701 -0.000167619
-11.6199 0.669145 -11.5693 1.02174 -0.970695 -0.00017426
-11.6646 0.667743 -12.0692 0.998204 -1.0073 -0.000180832
-11.6943 0.66681 -12.5641 0.974906 -1.04489 -0.000187579
-11.7127 0.666233 -13.0498 0.95204 -1.08435 -0.000194664
-11.7244 0.665866 -13.5226 0.929782 -1.12565 -0.000202078
-11.7336 0.665579 -13.979 0.908296 -1.16844 -0.000209761
-11.7429 0.665286 -14.4158 0.887735 -1.21276 -0.000217716
-11.7549 0.664909 -14.83 0.868236 -1.25905 -0.000226025
-11.7721 0.664371 -15.2194 0.849905 -1.30777 -0.000234773
-11.7959 0.663625 -15.5824 0.832819 -1.35905 -0.000243978
-11.8263 0.662671 -15.9178 0.817025 -1.4126 -0.000253592
-11.8623 0.661543 -16.2254 0.802545 -1.46812 -0.000263559
-11.9021 0.660296 -16.5054 0.789366 -1.5253 -0.000273824
-11.9435 0.658997 -16.7583 0.777458 -1.58398 -0.000284359
-11.9848 0.657703 -16.9854 0.766771 -1.64403 -0.000295139
-12.0244 0.656462 -17.188 0.757232 -1.70501 -0.000306085
-12.0608 0.65532 -17.368 0.748757 -1.76639 -0.000317104
-12.0929 0.654312 -17.5273 0.741256 -1.82761 -0.000328095
-12.1204 0.653451 -17.668 0.734635 -1.8882 -0.000338973
-12.143 0.652742 -17.7919 0.728803 -1.94772 -0.000349657
-12.161 0.652175 -17.9011 0.723661 -2.00565 -0.000360056
-12.1746 0.651751 -17.998 0.719101 -2.06156 -0.000370094
-12.1831 0.651482 -18.0848 0.715011 -2.11489 -0.000379667
-12.1864 0.65138 -18.164 0.711283 -2.16505 -0.000388672
-12.1548 0.651396 -18.2376 0.707821 -2.21164 -0.000397036
-12.0675 0.65144 -18.307 0.704552 -2.25432 -0.000404699
-11.929 0.65151 -18.3741 0.701394 -2.29265 -0.000411579
-11.7453 0.651602 -18.4402 0.698284 -2.32637 -0.000417633
-11.5309 0.65171 -18.5062 0.695175 -2.35522 -0.000422811
-11.3082 0.651822 -18.5729 0.692034 -2.37894 -0.00042707
-11.1006 0.651927 -18.6406 0.688848 -2.39739 -0.000430383
-10.9302 0.652013 -18.7092 0.685621 -2.41053 -0.000432742
-10.8207 0.652068 -18.7782 0.68237 -2.41838 -0.000434151
-10.8018 0.652077 -18.8471 0.679126 -2.42098 -0.000434618
-10.9143 0.652021 -18.9147 0.675944 -2.41257 -0.000433108
-11.2224 0.651865 -18.9777 0.672979 -2.37605 -0.000426551
-11.7665 0.651592 -19.0344 0.670308 -2.30481 -0.000413763
-12.2083 0.650692 -19.0824 0.668048 -2.19972 -0.000394897
-12.2994 0.647835 -19.1122 0.666648 -2.069 -0.000371429
-12.4189 0.644088 -19.1259 0.666002 -1.91343 -0.000343501
-12.5674 0.639434 -18.9425 0.666017 -1.73745 -0.000311909
-12.7387 0.634061 -18.1483 0.666267 -1.53857 -0.000276206
-12.9355 0.627891 -16.7972 0.666692 -1.31789 -0.000236589
-13.1549 0.62101 -14.8707 0.667297 -1.07772 -0.000193475
-13.3919 0.61358 -12.3333 0.668095 -0.822281 -0.000147617
-13.6441 0.605672 -9.23 0.669071 -0.555424 -9.97104e-05
-13.9103 0.597323 -5.54007 0.670231 -0.276874 -4.97047e-05
-14.1902 0.588548 0.00257989 0.672232 -0.14138 -2.53808e-05
-14.4798 0.579465 0.0356621 0.675555 -0.122454 -2.19831e-05
-14.794 0.569612 0.0904143 0.681055 -0.13556 -2.43359e-05
-15.1157 0.559526 0.158503 0.687894 -0.147055 -2.63995e-05
-15.4456 0.549181 0.23184 0.69526 -0.120376 -2.16101e-05
-15.7807 0.538672 0.308902 0.703 -0.0686886 -1.23311e-05
-16.1186 0.528078 0.387878 0.710933 -0.027883 -5.0056e-06
-16.4557 0.517507 0.468047 0.718985 -0.0139621 -2.50649e-06
-16.7881 0.507083 0.548611 0.727077 -0.0132103 -2.37153e-06
-17.1131 0.496892 0.627767 0.735028 -0.00213563 -3.83391e-07
-17.4289 0.486991 0.70445 0.74273 0.0279013 5.00888e-06
-17.7351 0.477388 0.778325 0.750151 0.0653518 1.1732e-05
-18.0334 0.468035 0.849158 0.757265 0.0940668 1.6887e-05
-18.3263 0.45885 0.916705 0.76405 0.110276 1.97969e-05
-18.617 0.449735 0.980637 0.770472 0.123385 2.21503e-05
-18.9084 0.440599 1.04081 0.776516 0.143841 2.58226e-05
-19.2033 0.43135 1.09732 0.782191 0.172548 3.09761e-05
-19.5045 0.421906 1.15019 0.787502 0.201906 3.62465e-05
-19.8138 0.412207 1.19928 0.792432 0.225157 4.04204e-05
-20.1319 0.402231 1.24426 0.79695 0.242748 4.35784e-05
-20.4581 0.392004 1.28474 0.801017 0.26025 4.67205e-05
-20.7903 0.381588 1.32024 0.804582 0.281676 5.05669e-05
-21.1235 0.37114 1.34899 0.80747 0.305009 5.47556e-05
-21.4493 0.360924 1.37074 0.809654 0.32604 5.85311e-05
-21.7746 0.350724 1.38829 0.811418 0.345686 6.20581e-05
-22.101 0.340487 1.39907 0.8125 0.362266 6.50344e-05
-22.4187 0.330526 1.40351 0.812947 0.377619 6.77906e-05
-22.7244 0.320939 1.2697 0.812936 0.39395 7.07223e-05
-23.0233 0.311567 0.703043 0.812758 0.409057 7.34345e-05
-23.3127 0.302492 -0.0116872 0.81225 0.423798 7.60808e-05
-23.5829 0.29402 -0.0829587 0.810499 0.438571 7.87328e-05
-23.8376 0.286033 -0.183646 0.808025 0.448843 8.05769e-05
-24.0717 0.278691 -0.30033 0.805157 0.458469 8.2305e-05
-24.2833 0.272057 -0.441221 0.801696 0.466549 8.37554e-05
-24.473 0.266108 -0.604505 0.797683 0.474913 8.52569e-05
-24.639 0.260903 -0.793162 0.793048 0.481311 8.64056e-05
-24.7776 0.256558 -1.00872 0.787751 0.474 8.50931e-05
-24.8869 0.253129 -1.25096 0.781799 0.448677 8.0547e-05
-24.9689 0.250558 -1.51637 0.775278 0.401474 7.20731e-05
-25.0237 0.248839 -1.80426 0.768204 0.32908 5.90769e-05
-25.0515 0.247968 -2.10971 0.760698 0.246726 4.42926e-05
-25.0099 0.247855 -2.4234 0.752991 0.166112 2.98207e-05
-24.7915 0.247965 -2.74095 0.745188 0.126479 2.27057e-05
-24.2927 0.248216 -3.06499 0.737226 0.105889 1.90093e-05
-23.5562 0.248586 -3.39129 0.729208 0.0860979 1.54564e-05
-22.569 0.249083 -3.7181 0.721178 0.0516334 9.2693e-06
-21.3487 0.249697 -4.04016 0.713264 -0.00121981 -2.18982e-07
-19.9108 0.250421 -4.35713 0.705476 -0.0621667 -1.11602e-05
-18.264 0.25125 -4.66705 0.697861 -0.119656 -2.14808e-05
-16.4169 0.252179 -4.96706 0.690489 -0.172717 -3.10063e-05
-14.3846 0.253202 -5.25583 0.683394 -0.229347 -4.11727e-05
-12.1887 0.254307 -5.53234 0.676599 -0.296156 -5.31663e-05
-9.85081 0.255484 -5.79649 0.670109 -0.371987 -6.67796e-05
-7.37467 0.25673 -6.04822 0.663923 -0.450315 -8.08412e-05
-4.35098 0.258252 -6.28872 0.658014 -0.526304 -9.44828e-05
0.00108063 0.260535 -6.52474 0.652215 -0.600361 -0.000107778
0.0417239 0.264073 -6.75689 0.64651 -0.677127 -0.000121559
0.101447 0.269272 -6.98822 0.640826 -0.758145 -0.000136103
0.178859 0.276011 -7.21939 0.635146 -0.841157 -0.000151006
0.267155 0.283697 -7.44911 0.629502 -0.922506 -0.00016561
0.360266 0.291802 -7.67511 0.623948 -1.00051 -0.000179613
0.457497 0.300266 -7.87188 0.619113 -1.07707 -0.000193356
0.557485 0.308969 -8.0619 0.614444 -1.15441 -0.000207241
0.655734 0.317522 -8.24955 0.609834 -1.22674 -0.000220226
0.752195 0.325919 -8.44266 0.605089 -1.29839 -0.000233089
0.84726 0.334194 -8.64177 0.600196 -1.36865 -0.000245701
0.940436 0.342305 -8.84302 0.595251 -1.43283 -0.000257224
1.02996 0.350097 -9.04728 0.590232 -1.49177 -0.000267804
1.11546 0.357541 -9.25731 0.585072 -1.54711 -0.00027774
1.19739 0.364672 -9.47314 0.579768 -1.59872 -0.000287004
1.2756 0.37148 -9.69417 0.574337 -1.64586 -0.000295467
1.34945 0.377909 -9.91971 0.568795 -1.68745 -0.000302933
1.41855 0.383924 -10.1482 0.563181 -1.72288 -0.000309293
1.4828 0.389517 -10.3782 0.55753 -1.75299 -0.000314699
1.54204 0.394674 -10.6086 0.55187 -1.77854 -0.000319285
1.59597 0.399368 -10.8372 0.546251 -1.79923 -0.000323001
1.64435 0.40358 -11.0614 0.540742 -1.81461 -0.000325761
1.68715 0.407305 -11.2783 0.535412 -1.82466 -0.000327565
1.72443 0.41055 -11.4854 0.530324 -1.82979 -0.000328487
1.75632 0.413326 -11.6801 0.52554 -1.83053 -0.00032862
1.78294 0.415643 -11.8593 0.521137 -1.82352 -0.000327361
1.80391 0.417469 -12.0177 0.517244 -1.79901 -0.00032296
1.81919 0.4188 -12.1524 0.513934 -1.75351 -0.000314793
1.82856 0.419615 -12.2607 0.511273 -1.68788 -0.000303011
1.81605 0.419714 -12.3408 0.509305 -1.60539 -0.000288202
1.70602 0.419659 -12.3918 0.508053 -1.50946 -0.00027098
1.53505 0.419572 -12.4074 0.507669 -1.40195 -0.000251681
1.34549 0.419477 -11.898 0.50783 -1.28074 -0.00022992
1.12984 0.419369 -10.7554 0.508189 -1.14513 -0.000205576
0.891866 0.419249 -8.95346 0.508755 -0.998048 -0.000179171
0.633564 0.419119 -6.45354 0.509541 -0.842464 -0.00015124
0.303038 0.418952 -3.14597 0.510582 -0.680004 -0.000122075
-0.0234936 0.418494 0.0132833 0.513143 -0.516514 -9.27253e-05
-0.127994 0.417135 0.0619699 0.518908 -0.357799 -6.42325e-05
-0.285511 0.415087 0.129229 0.526871 -0.194794 -3.49697e-05
-0.467341 0.412722 0.205279 0.535876 -0.110848 -1.98995e-05
-0.651706 0.410324 0.282526 0.545022 -0.10352 -1.8584e-05
-0.866468 0.407531 0.366514 0.554966 -0.123817 -2.22277e-05
-1.10522 0.404426 0.457212 0.565705 -0.135502 -2.43255e-05
-1.37909 0.400864 0.553125 0.577061 -0.123137 -2.21057e-05
-1.68286 0.396913 0.653368 0.58893 -0.095807 -1.71994e-05
-2.00694 0.392698 0.756085 0.601091 -0.0777184 -1.39521e-05
-2.34441 0.388309 0.859559 0.613343 -0.0773859 -1.38924e-05
-2.69265 0.38378 0.962833 0.62557 -0.0847926 -1.52221e-05
-3.04792 0.379159 1.06478 0.637641 -0.0827113 -1.48484e-05
-3.40667 0.374493 1.16417 0.649408 -0.067474 -1.2113e-05
-3.76797 0.369794 1.25969 0.660718 -0.0483042 -8.67163e-06
-4.13341 0.365041 1.35034 0.671451 -0.0349002 -6.26533e-06
-4.50467 0.360213 1.43548 0.681532 -0.0277331 -4.97868e-06
-4.88236 0.355301 1.51455 0.690894 -0.019784 -3.55165e-06
-5.26646 0.350305 1.58692 0.699463 -0.00509608 -9.14854e-07
-5.65644 0.345233 1.65199 0.707167 0.0157017 2.81878e-06
-6.05159 0.340094 1.7094 0.713965 0.03757 6.74462e-06
-6.45115 0.334897 1.75905 0.719843 0.0569596 1.02255e-05
-6.85426 0.329654 1.80093 0.724802 0.0748179 1.34314e-05
-7.25952 0.324384 1.83509 0.728846 0.0945094 1.69664e-05
-7.66452 0.319116 1.86167 0.731992 0.117873 2.11608e-05
-8.06596 0.313895 1.88093 0.734273 0.14361 2.5781e-05
-8.45995 0.308771 1.89328 0.735736 0.169111 3.03591e-05
-8.83477 0.303896 1.89925 0.736442 0.19306 3.46584e-05
-9.17155 0.299516 1.84706 0.736528 0.215936 3.87652e-05
-9.49002 0.295374 1.46076 0.736407 0.23854 4.28231e-05
-9.79777 0.291371 0.754925 0.736185 0.262179 4.70667e-05
-10.0896 0.287576 -0.0127023 0.735664 0.286007 5.13443e-05
-10.3476 0.284221 -0.0783543 0.734201 0.309239 5.5515e-05
-10.5836 0.28115 -0.162022 0.732337 0.328219 5.89223e-05
-10.802 0.278311 -0.250079 0.730374 0.345099 6.19527e-05
-11.005 0.27567 -0.334615 0.728491 0.361497 6.48964e-05
-11.1979 0.273162 -0.410692 0.726795 0.377095 6.76966e-05
-11.3856 0.270721 -0.476435 0.72533 0.38995 7.00043e-05
-11.5691 0.268333 -0.530064 0.724135 0.399001 7.16292e-05
-11.7469 0.266021 -0.56886 0.72327 0.404842 7.26777e-05
-11.9166 0.263814 -0.591037 0.722776 0.408474 7.33297e-05
-12.0747 0.261758 -0.597068 0.722642 0.410031 7.36093e-05
-12.2143 0.259943 -0.470854 0.722681 0.400017 7.18116e-05
-12.3256 0.258495 -0.269196 0.722745 0.369042 6.62509e-05
-12.3978 0.257556 0.000356533 0.722863 0.313299 5.62438e-05
-12.4381 0.257032 0.00445435 0.723252 0.227186 4.07847e-05
-12.44 0.256924 0.0102009 0.723796 0.130807 2.34826e-05
-12.3213 0.256984 0.0186174 0.724594 0.0685201 1.23008e-05
-12.0434 0.257124 0.0280965 0.725492 0.031863 5.72008e-06
-11.5508 0.257372 0.0352928 0.726173 0.00884177 1.58729e-06
-10.8609 0.257719 0.0404589 0.726663 -0.0202934 -3.6431e-06
-9.96917 0.258168 0.0425209 0.726858 -0.0667784 -1.19881e-05
-8.87937 0.258716 -0.00432586 0.72675 -0.124979 -2.24364e-05
-7.61336 0.259353 -0.0311629 0.726159 -0.181372 -3.25602e-05
-6.20491 0.260062 -0.0831103 0.725015 -0.228952 -4.11018e-05
-4.64878 0.260845 -0.160339 0.723315 -0.272462 -4.89128e-05
-2.89359 0.261729 -0.263067 0.721054 -0.320554 -5.75462e-05
4.41313e-05 0.263189 -0.395471 0.718139 -0.375551 -6.74194e-05
0.0318803 0.26595 -0.563276 0.714445 -0.432472 -7.76379e-05
0.0840854 0.270478 -0.769341 0.709909 -0.485151 -8.70949e-05
0.150342 0.276226 -1.00855 0.704644 -0.532685 -9.56283e-05
0.22107 0.282361 -1.27489 0.69878 -0.578273 -0.000103812
0.290998 0.288426 -1.56464 0.692402 -0.625291 -0.000112253
0.359213 0.294343 -1.87416 0.685589 -0.674085 -0.000121013
0.42443 0.3 -2.20024 0.678411 -0.722077 -0.000129628
0.485381 0.305287 -2.54035 0.670924 -0.766693 -0.000137638
0.541204 0.31013 -2.8915 0.663194 -0.808078 -0.000145067
0.591903 0.314527 -3.25037 0.655294 -0.848288 -0.000152286
0.637759 0.318505 -3.61426 0.647283 -0.888759 -0.000159551
0.678961 0.322079 -3.98107 0.639209 -0.928929 -0.000166763
0.715815 0.325276 -4.34851 0.63112 -0.967231 -0.000173639
0.7488 0.328137 -4.71383 0.623078 -1.00286 -0.000180035
0.778373 0.330702 -5.07434 0.615142 -1.03639 -0.000186055
0.804824 0.332996 -5.42754 0.607367 -1.06891 -0.000191891
0.828382 0.33504 -5.77096 0.599807 -1.1008 -0.000197617
0.8493 0.336854 -6.10175 0.592526 -1.13156 -0.000203139
0.86754 0.338436 -6.41708 0.585584 -1.1605 -0.000208334
0.882862 0.339765 -6.7145 0.579037 -1.18752 -0.000213185
0.895072 0.340825 -6.99165 0.572936 -1.21307 -0.000217771
0.904134 0.341611 -7.24643 0.567327 -1.23763 -0.000222181
0.910141 0.342132 -7.47715 0.562249 -1.26117 -0.000226407
0.913303 0.342406 -7.68265 0.557725 -1.28332 -0.000230382
0.910998 0.342466 -7.86228 0.553771 -1.30375 -0.000234051
0.860794 0.342441 -8.01633 0.55038 -1.32241 -0.000237401
0.764089 0.342392 -8.14494 0.547548 -1.33953 -0.000240475
0.625809 0.342322 -8.248 0.54528 -1.35518 -0.000243284
0.452996 0.342235 -8.32592 0.543564 -1.36914 -0.000245789
0.261992 0.342139 -8.37935 0.542388 -1.38111 -0.00024794
0.00407055 0.342009 -8.40904 0.541735 -1.39098 -0.000249711
-0.0199584 0.341794 -8.40546 0.541582 -1.39874 -0.000251104
-0.0370362 0.341611 -8.14485 0.541664 -1.40376 -0.000252005
-0.0247469 0.341588 -7.6209 0.541829 -1.40622 -0.000252447
0.00199615 0.341756 -6.84544 0.542072 -1.40307 -0.000251881
0.0081271 0.342234 -5.81217 0.542397 -1.3876 -0.000249103
0.0174139 0.342958 -4.52245 0.542803 -1.35726 -0.000243657
0.0294225 0.343894 -2.98571 0.543286 -1.31197 -0.000235526
0.0416668 0.344849 -0.543919 0.544054 -1.25415 -0.000225146
0.0507806 0.34556 0.014009 0.545832 -1.18808 -0.000213285
0.0551187 0.345898 0.040789 0.548905 -1.11379 -0.000199949
0.0327897 0.345931 0.0749069 0.55282 -1.02858 -0.000184652
-0.0165605 0.345735 0.113405 0.557237 -0.932934 -0.000167481
-0.0677378 0.345181 0.155107 0.562023 -0.828544 -0.000148741
-0.147457 0.344318 0.199803 0.567151 -0.716033 -0.000128543
-0.262949 0.343067 0.247899 0.57267 -0.595936 -0.000106983
-0.406229 0.341515 0.298996 0.578533 -0.468556 -8.41158e-05
-0.572124 0.339718 0.352489 0.584671 -0.335033 -6.01456e-05
-0.753315 0.337756 0.407659 0.591001 -0.194746 -3.4961e-05
-0.941253 0.335721 0.463209 0.597376 -0.115495 -2.07338e-05
-1.10793 0.333916 0.514266 0.603234 -0.10225 -1.8356e-05
-1.28091 0.332042 0.566113 0.609183 -0.112921 -2.02718e-05
-1.44581 0.330256 0.618153 0.615154 -0.119327 -2.14218e-05
-1.60411 0.328542 0.668864 0.620973 -0.106817 -1.91759e-05
-1.7533 0.326926 0.718539 0.626673 -0.0792447 -1.42261e-05
-1.88758 0.325472 0.766765 0.632207 -0.0558876 -1.0033e-05
-2.0003 0.324251 0.813004 0.637513 -0.0463357 -8.31824e-06
-2.0868 0.323315 0.856996 0.64256 -0.0439698 -7.89351e-06
-2.14258 0.32271 0.898417 0.647313 -0.0379362 -6.81035e-06
-2.16428 0.322475 0.937259 0.65177 -0.0208249 -3.7385e-06
-2.08154 0.322517 0.973697 0.655951 0.000871583 1.56468e-07
-1.84311 0.322637 1.00817 0.659907 0.0177849 3.19277e-06
-1.45293 0.322833 1.04077 0.663648 0.0277211 4.97653e-06
-0.911678 0.323106 1.07186 0.667215 0.0357072 6.41021e-06
-0.0931141 0.323518 1.10176 0.670646 0.0475292 8.5325e-06
0.0170165 0.324926 1.12966 0.673847 0.0643013 1.15435e-05
0.0522746 0.327746 1.15524 0.676782 0.081345 1.46032e-05
0.0944249 0.331117 1.18056 0.679687 0.0937673 1.68332e-05
0.139749 0.334742 1.20601 0.682608 0.10296 1.84835e-05
0.187061 0.338526 1.23235 0.68563 0.111887 2.00861e-05
0.236182 0.342455 1.2603 0.688838 0.122209 2.19391e-05
0.286368 0.346469 1.29021 0.69227 0.132932 2.38641e-05
0.336738 0.350498 1.32221 0.695941 0.141904 2.54749e-05
0.387269 0.354539 1.3565 0.699876 0.147974 2.65646e-05
0.438451 0.358633 1.39321 0.704088 0.151862 2.72625e-05
0.490589 0.362803 1.43222 0.708564 0.155048 2.78344e-05
0.543863 0.367064 1.47327 0.713274 0.158132 2.8388e-05
0.598389 0.371425 1.51616 0.718196 0.160452 2.88046e-05
0.654108 0.375881 1.56068 0.723305 0.161085 2.89182e-05
0.710736 0.380411 1.60654 0.728567 0.159867 2.86996e-05
0.767924 0.384985 1.65076 0.73364 0.157467 2.82687e-05
0.823401 0.389422 1.69099 0.738256 0.15674 2.81382e-05
0.871801 0.393293 1.73049 0.742789 0.153752 2.76018e-05
0.918692 0.397043 1.76959 0.747275 0.147168 2.64197e-05
0.966698 0.400883 1.80914 0.751813 0.137978 2.477e-05
1.01439 0.404698 1.84828 0.756304 0.12323 2.21224e-05
1.06065 0.408397 1.88629 0.760666 0.10134 1.81926e-05
1.10706 0.412109 1.92285 0.764862 0.0747817 1.34249e-05
1.15358 0.41583 1.95785 0.768877 0.0468496 8.4105e-06
1.19871 0.41944 1.99108 0.772691 0.0171636 3.08122e-06
1.24194 0.422898 2.02257 0.776304 -0.00996544 -1.78901e-06
1.28446 0.426298 2.0516 0.779635 -0.0379119 -6.806e-06
1.32583 0.429607 2.07789 0.782652 -0.0646471 -1.16055e-05
1.3656 0.432788 2.10159 0.785371 -0.0782658 -1.40504e-05
1.40414 0.435871 2.12222 0.787738 -0.0852229 -1.52993e-05
1.44139 0.43885 2.13956 0.789727 -0.0893206 -1.60349e-05
1.47694 0.441693 2.15346 0.791323 -0.0951761 -1.70861e-05
1.51022 0.444355 2.16397 0.792528 -0.103769 -1.86288e-05
1.54043 0.446771 2.1712 0.793358 -0.112121 -2.0128e-05
1.56672 0.448874 2.17532 0.793831 -0.117264 -2.10513e-05
1.5886 0.450624 2.17192 0.793959 -0.119016 -2.13659e-05
1.60531 0.45196 1.97658 0.793898 -0.119925 -2.1529e-05
1.6161 0.452823 1.56915 0.79377 -0.121793 -2.18644e-05
1.62059 0.453182 0.959332 0.793578 -0.124388 -2.23303e-05
1.52565 0.453135 -0.00234898 0.79322 -0.125875 -2.25972e-05
1.29685 0.453019 -0.0505343 0.792064 -0.123842 -2.22322e-05
0.910474 0.452825 -0.122903 0.790327 -0.119368 -2.14291e-05
0.36043 0.452548 -0.205664 0.788341 -0.11242 -2.01818e-05
-0.0476 0.4517 -0.294176 0.786217 -0.103949 -1.8661e-05
-0.195301 0.449631 -0.383599 0.784071 -0.0950733 -1.70677e-05
-0.378918 0.447059 -0.48064 0.781743 -0.0852872 -1.53109e-05
-0.572847 0.444342 -0.582848 0.77929 -0.0768558 -1.37972e-05
-0.783509 0.441391 -0.690099 0.776716 -0.0693161 -1.24437e-05
-1.01406 0.438162 -0.804548 0.77397 -0.0647605 -1.16259e-05
-1.26181 0.434691 -0.925355 0.771071 -0.0617721 -1.10894e-05
-1.52728 0.430973 -1.05031 0.768073 -0.0597714 -1.07302e-05
-1.80534 0.427078 -1.18064 0.764945 -0.0578592 -1.0387e-05
-2.09376 0.423038 -1.31597 0.761698 -0.0558838 -1.00323e-05
-2.38965 0.418893 -1.45592 0.758339 -0.0538602 -9.66906e-06
-2.68921 0.414696 -1.6007 0.754865 -0.0528661 -9.49058e-06
-2.99085 0.410471 -1.74989 0.751285 -0.0532189 -9.55392e-06
-3.29424 0.406221 -1.90324 0.747605 -0.0546736 -9.81508e-06
-3.5986 0.401958 -2.06035 0.743835 -0.0569392 -1.02218e-05
-3.90245 0.397701 -2.22069 0.739988 -0.0600213 -1.07751e-05
-4.20462 0.393469 -2.38392 0.736071 -0.0631511 -1.1337e-05
-4.5045 0.389268 -2.54946 0.732098 -0.0675038 -1.21184e-05
-4.80141 0.385109 -2.71744 0.728067 -0.0739584 -1.32771e-05
-5.0946 0.381002 -2.88753 0.723986 -0.0814773 -1.46269e-05
-5.38422 0.376945 -3.0591 0.719869 -0.0896096 -1.60868e-05
-5.67126 0.372924 -3.23182 0.715724 -0.0986343 -1.7707e-05
-5.95622 0.368932 -3.40541 0.711559 -0.109237 -1.96103e-05
-6.23979 0.36496 -3.57942 0.707383 -0.121608 -2.18313e-05
-6.52293 0.360994 -3.75364 0.703202 -0.135543 -2.43329e-05
-6.80641 0.357023 -3.92803 0.699018 -0.150652 -2.70452e-05
-7.09032 0.353046 -4.10264 0.694828 -0.166745 -2.99343e-05
-7.37088 0.349116 -4.27765 0.690628 -0.183993 -3.30306e-05
-7.6426 0.34531 -4.45291 0.686422 -0.202674 -3.63842e-05
-7.91095 0.341551 -4.62916 0.682193 -0.222638 -3.99683e-05
-8.1793 0.337791 -4.80779 0.677906 -0.243542 -4.3721e-05
-8.4471 0.33404 -4.98926 0.673552 -0.265221 -4.76128e-05
-8.71291 0.330317 -5.17324 0.669137 -0.287706 -5.16494e-05
-8.97916 0.326587 -5.35972 0.664662 -0.310961 -5.58241e-05
-9.25048 0.322786 -5.54889 0.660123 -0.334882 -6.01185e-05
-9.53127 0.318853 -5.74066 0.655521 -0.359401 -6.45202e-05
-9.82398 0.314753 -5.93478 0.650863 -0.384423 -6.90121e-05
-10.1306 0.310458 -6.13138 0.646145 -0.409775 -7.35634e-05
-10.4523 0.305951 -6.33121 0.64135 -0.435292 -7.81442e-05
-10.7882 0.301246 -6.5353 0.636452 -0.460883 -8.27384e-05
-11.136 0.296374 -6.7447 0.631428 -0.486458 -8.73296e-05
-11.4929 0.291374 -6.96059 0.626247 -0.511845 -9.1887e-05
-11.8558 0.286292 -7.18435 0.620878 -0.536825 -9.63715e-05
-12.2205 0.281183 -7.41737 0.615286 -0.561232 -0.000100753
-12.5823 0.276115 -7.66091 0.609442 -0.584976 -0.000105016
-12.9372 0.271143 -7.91595 0.603322 -0.607991 -0.000109147
-13.2819 0.266314 -8.18312 0.59691 -0.630193 -0.000113133
-13.6134 0.261671 -8.46279 0.590199 -0.651507 -0.000116959
-13.9279 0.257265 -8.75507 0.583186 -0.671904 -0.000120621
-14.2215 0.253152 -9.05984 0.575872 -0.691412 -0.000124123
-14.4911 0.249376 -9.37657 0.568272 -0.710103 -0.000127479
-14.7348 0.245963 -9.70417 0.560411 -0.728081 -0.000130706
-14.9518 0.242923 -10.041 0.552327 -0.745466 -0.000133827
-15.1423 0.240254 -10.385 0.544072 -0.762415 -0.00013687
-15.3077 0.237937 -10.7336 0.535707 -0.779127 -0.00013987
-15.4506 0.235935 -11.0837 0.527306 -0.795852 -0.000142872
-15.5758 0.234182 -11.4321 0.518946 -0.812865 -0.000145927
-15.6883 0.232605 -11.7754 0.510709 -0.830353 -0.000149066
-15.7931 0.231137 -12.11 0.50268 -0.848583 -0.000152339
-15.8944 0.229719 -12.4327 0.494936 -0.867753 -0.00015578
-15.9957 0.228299 -12.7406 0.487546 -0.888062 -0.000159426
-16.0998 0.226842 -13.0316 0.480565 -0.909645 -0.000163301
-16.2081 0.225325 -13.3035 0.474039 -0.932607 -0.000167423
-16.3219 0.22373 -13.555 0.468004 -0.956992 -0.0001718
-16.4424 0.222042 -13.785 0.462484 -0.982798 -0.000176433
-16.5703 0.220251 -13.993 0.457494 -1.00997 -0.000181312
-16.7057 0.218354 -14.1788 0.453035 -1.03843 -0.000186421
-16.848 0.216361 -14.3429 0.449096 -1.06804 -0.000191735
-16.9969 0.214275 -14.4862 0.445659 -1.0986 -0.000197222
-17.153 0.212088 -14.6095 0.442701 -1.12991 -0.000202843
-17.3176 0.209783 -14.714 0.440192 -1.16171 -0.000208551
-17.4911 0.207352 -14.8014 0.438095 -1.19371 -0.000214296
-17.6721 0.204816 -14.8739 0.436356 -1.22557 -0.000220016
-17.8581 0.202212 -14.934 0.434913 -1.25698 -0.000225654
-18.0472 0.199563 -14.9846 0.4337 -1.28757 -0.000231147
-18.2398 0.196864 -15.0279 0.43266 -1.31702 -0.000236433
-18.4383 0.194084 -15.0661 0.431744 -1.34498 -0.000241453
-18.6455 0.191182 -15.101 0.430907 -1.37115 -0.00024615
-18.8628 0.188137 -15.1343 0.430106 -1.39523 -0.000250474
-19.0926 0.184918 -15.168 0.429299 -1.41698 -0.000254377
-19.3363 0.181504 -15.2039 0.428437 -1.4361 -0.000257811
-19.5949 0.177883 -15.2439 0.427476 -1.45236 -0.00026073
-19.8678 0.17406 -15.29 0.426371 -1.46556 -0.000263099
-20.1535 0.170057 -15.3438 0.42508 -1.47552 -0.000264887
-20.4499 0.165905 -15.407 0.423563 -1.48209 -0.000266067
-20.7545 0.161639 -15.4812 0.421782 -1.48517 -0.00026662
-21.0647 0.157294 -15.5675 0.419712 -1.48473 -0.000266541
-21.3791 0.15289 -15.6657 0.417354 -1.47411 -0.000264634
-21.6967 0.14844 -15.775 0.414733 -1.45048 -0.000260391
-22.0152 0.143978 -15.8953 0.411845 -1.41276 -0.00025362
-22.3322 0.139538 -16.0265 0.408697 -1.36207 -0.00024452
-22.6445 0.135164 -16.1675 0.405313 -1.30081 -0.000233522
-22.9493 0.130894 -16.3172 0.401721 -1.23097 -0.000220986
-23.2449 0.126754 -16.474 0.397959 -1.15369 -0.000207111
-23.5307 0.122749 -16.6357 0.394079 -1.06988 -0.000192066
-23.8076 0.118872 -16.7996 0.390146 -0.981198 -0.000176146
-24.0762 0.115108 -16.9628 0.386229 -0.890084 -0.000159789
-24.3373 0.111451 -17.1226 0.382396 -0.799109 -0.000143457
-24.5908 0.1079 -17.2759 0.378715 -0.710323 -0.000127518
-24.8372 0.104449 -17.4205 0.375247 -0.625253 -0.000112246
-25.076 0.101104 -17.5538 0.372046 -0.54538 -9.79073e-05
-25.306 0.097881 -17.674 0.369164 -0.472403 -8.48064e-05
-25.5258 0.0948024 -17.7791 0.366641 -0.408052 -7.32539e-05
-25.7336 0.0918918 -17.868 0.364508 -0.353712 -6.34989e-05
-25.9274 0.0891774 -17.9397 0.362787 -0.310278 -5.57015e-05
-26.1048 0.0866916 -17.9938 0.361488 -0.278301 -4.9961e-05
-26.264 0.0844621 -18.0302 0.360617 -0.258209 -4.6354e-05
-26.4034 0.0825089 -18.0488 0.360169 -0.250333 -4.494e-05
-26.5219 0.080849 -18.0087 0.360115 -0.254737 -4.57308e-05
-26.6154 0.079539 -17.7067 0.36021 -0.270012 -4.84728e-05
-26.682 0.0786062 -17.1494 0.360386 -0.295927 -5.31251e-05
-26.72 0.0780747 -16.357 0.360635 -0.331679 -5.95434e-05
-26.7242 0.0779466 -15.3429 0.360954 -0.376342 -6.75613e-05
-26.6037 0.0780072 -14.1186 0.361339 -0.429058 -7.70251e-05
-26.3568 0.0781315 -12.7315 0.361775 -0.48876 -8.77427e-05
-25.9921 0.078315 -11.2341 0.362246 -0.554204 -9.94914e-05
-25.5182 0.0785535 -9.67468 0.362736 -0.623857 -0.000111996
-24.9562 0.0788363 -8.10307 0.36323 -0.696054 -0.000124957
-24.3344 0.0791493 -6.56896 0.363712 -0.769273 -0.000138101
-23.6812 0.079478 -5.04866 0.36419 -0.842204 -0.000151193
-23.0352 0.0798031 -3.21159 0.364768 -0.913996 -0.000164082
-22.4164 0.0801145 -1.12243 0.365425 -0.982834 -0.00017644
-21.8406 0.0804043 0.00240599 0.366102 -1.04719 -0.000187993
-21.3131 0.0806698 0.00688671 0.366706 -1.10585 -0.000198524
-20.8281 0.0809139 0.0102593 0.36716 -1.1577 -0.000207832
-20.3691 0.0811448 0.0116723 0.367351 -1.20149 -0.000215693
-19.9325 0.0813646 -0.00841572 0.367253 -1.23672 -0.000222017
-19.5042 0.0815801 -0.0441378 0.36685 -1.26271 -0.000226683
-19.0764 0.0817954 -0.105461 0.366158 -1.27945 -0.000229688
-18.6397 0.0820152 -0.191423 0.365188 -1.28699 -0.000231042
-18.1873 0.0822429 -0.30012 0.363962 -1.28565 -0.000230801
-17.7121 0.082482 -0.428826 0.36251 -1.27596 -0.000229061
-17.2066 0.0827364 -0.574086 0.360872 -1.25863 -0.000225951
-16.6361 0.0830235 -0.760212 0.358772 -1.23352 -0.000221443
-15.9727 0.0833573 -1.0088 0.355967 -1.20068 -0.000215547
-15.2532 0.0837195 -1.26476 0.35308 -1.16447 -0.000209047
-14.4417 0.0841279 -1.51945 0.350207 -1.12484 -0.000201933
-13.5317 0.0845858 -1.76314 0.347458 -1.08277 -0.00019438
-12.51 0.0851 -1.97412 0.345078 -1.03956 -0.000186624
-11.3571 0.0856802 -2.16245 0.342953 -0.99654 -0.0001789
-10.0944 0.0863157 -2.32375 0.341134 -0.956083 -0.000171637
-8.71575 0.0870095 -2.45436 0.33966 -0.919426 -0.000165057
-7.20488 0.0877698 -2.54743 0.33861 -0.887762 -0.000159372
-5.22756 0.088765 -2.5978 0.338042 -0.861726 -0.000154698
-2.43295 0.0901714 -2.54706 0.337975 -0.841469 -0.000151062
0.00696355 0.0921337 -2.1436 0.338102 -0.825621 -0.000148217
0.0338038 0.0949781 -1.35222 0.338351 -0.815033 -0.000146316
0.0721595 0.0990427 0.00038365 0.338829 -0.810065 -0.000145424
0.122029 0.104328 0.0112853 0.340331 -0.814037 -0.000146137
0.182522 0.110738 0.0259414 0.34235 -0.821843 -0.000147538
0.250069 0.117896 0.0439864 0.344835 -0.835067 -0.000149912
0.320178 0.125326 0.0665235 0.34794 -0.854214 -0.00015335
0.391992 0.132936 0.0985101 0.352345 -0.880937 -0.000158147
0.462684 0.140428 0.139262 0.357959 -0.911717 -0.000163673
0.531746 0.147747 0.186358 0.364446 -0.944176 -0.0001695
0.599414 0.154918 0.238126 0.371577 -0.977988 -0.00017557
0.665276 0.161897 0.293113 0.379151 -1.01187 -0.000181651
0.7289 0.16864 0.350889 0.387109 -1.04334 -0.000187302
0.789743 0.175087 0.41096 0.395384 -1.06989 -0.000192068
0.847657 0.181225 0.472614 0.403876 -1.08998 -0.000195674
0.902729 0.187061 0.534866 0.412451 -1.10259 -0.000197938
0.955104 0.192611 0.596801 0.420982 -1.10624 -0.000198594
1.00483 0.19788 0.657728 0.429375 -1.09903 -0.000197299
1.05189 0.202868 0.717023 0.437542 -1.07931 -0.00019376
1.09119 0.207033 0.773653 0.445343 -1.04572 -0.000187729
1.12523 0.21064 0.825068 0.452425 -0.997192 -0.000179017
1.15852 0.214168 0.873584 0.459108 -0.935473 -0.000167937
1.19189 0.217704 0.918777 0.465333 -0.859537 -0.000154305
1.22533 0.221248 0.959892 0.470996 -0.769739 -0.000138185
1.25904 0.224821 0.997184 0.476133 -0.667368 -0.000119807
1.29347 0.228469 1.02991 0.48064 -0.553119 -9.92967e-05
1.32904 0.232239 1.05848 0.484576 -0.428007 -7.68363e-05
1.36541 0.236093 1.08352 0.488026 -0.293434 -5.26777e-05
1.40213 0.239984 1.10535 0.491032 -0.163385 -2.93311e-05
1.44054 0.244055 1.12132 0.493232 -0.118508 -2.12747e-05
1.47996 0.248232 1.13256 0.49478 -0.109153 -1.95953e-05
1.51811 0.252275 1.14372 0.496318 -0.116557 -2.09245e-05
1.5555 0.256237 1.15348 0.497661 -0.11821 -2.12212e-05
1.59169 0.260072 1.16298 0.498971 -0.0995151 -1.78651e-05
