0.0025 0.00272805 -0.00205463 0.00433672 -0.00427453 -0.00107043 0.000179031
0.0125 0.00189567 -0.00289279 0.00350274 -0.005107 -0.00190377 -0.000654539
0.0225 -0.000265781 -0.00507116 0.00132886 -0.0072737 -0.00407304 -0.00282491
0.035 -0.00485542 -0.00969504 -0.00332068 -0.0119062 -0.00870381 -0.00745781
0.045 -0.010075 -0.0149524 -0.00865602 -0.0172236 -0.0140093 -0.0127655
0.055 -0.0167289 -0.021653 -0.0155247 -0.0240731 -0.0208301 -0.0195884
0.065 -0.0248649 -0.0298438 -0.0240199 -0.0325489 -0.0292532 -0.0280131
0.075 -0.0345254 -0.0395666 -0.0342379 -0.0427476 -0.0393681 -0.0381284
0.085 -0.0457529 -0.0508628 -0.04628 -0.0547722 -0.0512713 -0.0500308
0.095 -0.0585951 -0.0637794 -0.0602577 -0.0687369 -0.0650721 -0.063829
0.105 -0.0730805 -0.0783433 -0.076267 -0.0847403 -0.080867 -0.0796189
0.115 -0.0891802 -0.0945233 -0.0943499 -0.102826 -0.0987015 -0.0974456
0.125 -0.106758 -0.112173 -0.11444 -0.12293 -0.118518 -0.117251
0.135 -0.125517 -0.131 -0.136312 -0.14483 -0.140103 -0.138821
0.145 -0.144979 -0.150521 -0.159548 -0.168112 -0.163064 -0.161763
0.155 -0.164491 -0.170077 -0.183548 -0.192183 -0.18683 -0.185505
0.165 -0.183267 -0.188875 -0.207559 -0.21629 -0.210688 -0.209334
0.175 -0.200456 -0.206057 -0.230738 -0.239597 -0.233848 -0.232459
0.185 -0.215223 -0.220785 -0.252233 -0.261252 -0.255519 -0.254091
0.195 -0.226813 -0.232297 -0.271232 -0.280446 -0.274964 -0.273493
0.205 -0.234543 -0.239909 -0.286958 -0.2964 -0.29149 -0.289974
0.215 -0.237734 -0.242939 -0.298598 -0.308298 -0.30438 -0.302818
0.225 -0.235642 -0.240643 -0.305231 -0.315214 -0.312812 -0.311205
0.235 -0.227395 -0.232147 -0.305763 -0.316052 -0.315803 -0.314153
0.245 -0.211993 -0.216449 -0.29893 -0.309535 -0.312195 -0.310507
0.255 -0.188419 -0.192533 -0.283403 -0.294331 -0.300767 -0.29905
0.265 -0.155975 -0.159703 -0.25813 -0.26938 -0.280569 -0.278836
0.275 -0.114754 -0.11806 -0.222807 -0.234367 -0.251388 -0.249656
0.285 -0.0660548 -0.0689243 -0.178314 -0.190155 -0.214174 -0.212465
0.295 -0.0123252 -0.0147702 -0.126673 -0.13874 -0.170989 -0.169328
0.305 0.0434141 0.04135 -0.0705072 -0.0827148 -0.124456 -0.12287
0.315 0.0981951 0.0964584 -0.0124319 -0.0246706 -0.077145 -0.0756686
0.325 0.149408 0.147909 0.0452125 0.0330681 -0.0312969 -0.0299688
0.335 0.194963 0.193584 0.100491 0.0885777 0.0113114 0.0124511
0.345 0.233477 0.232083 0.152054 0.140514 0.04955 0.0504634
0.355 0.264351 0.262794 0.1992 0.188173 0.0829981 0.0836528
0.365 0.287642 0.285796 0.241771 0.231389 0.111839 0.112207
0.375 0.303899 0.301667 0.279985 0.270359 0.136677 0.13674
0.385 0.313993 0.311282 0.314247 0.305468 0.158349 0.158093
0.395 0.318993 0.315727 0.345072 0.337221 0.177829 0.177255
0.405 0.320048 0.316178 0.372998 0.366116 0.196127 0.195243
0.415 0.318218 0.313722 0.398435 0.392531 0.214121 0.212948
0.425 0.314255 0.309128 0.42146 0.41651 0.232337 0.230906
0.435 0.308464 0.302717 0.441705 0.437658 0.25083 0.249182
0.445 0.300851 0.294513 0.458526 0.455311 0.269339 0.267522
0.455 0.291567 0.284678 0.471468 0.468978 0.287717 0.28579
0.465 0.281397 0.274015 0.480762 0.478872 0.306446 0.304473
0.475 0.272027 0.264242 0.487614 0.486187 0.326905 0.324958
0.485 0.266025 0.257949 0.49421 0.49309 0.351353 0.349509
0.495 0.266705 0.258478 0.503626 0.50263 0.382827 0.381167
0.5075 0.282933 0.274764 0.525245 0.524113 0.437702 0.436386
0.52 0.323777 0.31599 0.565602 0.563995 0.517124 0.516277
0.5325 0.396162 0.38911 0.632414 0.630003 0.628011 0.627749
0.545 0.504085 0.498121 0.731049 0.727538 0.774677 0.775105
0.5575 0.647506 0.642938 0.863393 0.858552 0.957745 0.958935
0.57 0.821841 0.818886 1.02724 1.02094 1.17361 1.17558
0.5825 1.01789 1.01664 1.21606 1.20834 1.41429 1.41702
0.595 1.22257 1.22294 1.41954 1.41056 1.66804 1.67149
0.6075 1.42122 1.42298 1.62563 1.61571 1.92158 1.92565
0.62 1.60095 1.60373 1.8236 1.81321 2.1632 2.16775
0.6325 1.75304 1.75634 2.00622 1.99591 2.38503 2.3899
0.645 1.87326 1.87654 2.16999 2.16035 2.58332 2.58833
0.6575 1.96114 1.96389 2.3143 2.30592 2.75762 2.76261
0.67 2.01907 2.02079 2.44053 2.43395 2.9099 2.91472
0.6825 2.0511 2.05137 2.55096 2.54663 3.04342 3.04794
0.695 2.06157 2.06006 2.64749 2.64576 3.16134 3.16547
0.7075 2.05465 2.05112 2.73134 2.73244 3.26639 3.27008
0.72 2.03528 2.02962 2.80415 2.80817 3.36183 3.36508
0.7325 2.01015 2.00235 2.86914 2.87602 3.45254 3.45539
0.745 1.98739 1.9776 2.93109 2.94061 3.5448 3.54735
0.7575 1.97518 1.96368 2.99507 3.00686 3.64502 3.64741
0.77 1.97969 1.96686 3.06464 3.07821 3.75773 3.76013
0.7825 2.00361 1.9899 3.14051 3.1553 3.88428 3.88689
0.795 2.04687 2.03275 3.2214 3.23681 4.02351 4.02653
0.8075 2.10806 2.09401 3.30545 3.32086 4.17326 4.1769
0.82 2.18503 2.17149 3.39088 3.4057 4.33092 4.33538
0.8325 2.27511 2.26249 3.47607 3.48978 4.49366 4.4991
0.845 2.37527 2.36392 3.55974 3.57187 4.65851 4.66507
0.8575 2.48234 2.4725 3.64095 3.65117 4.8226 4.83037
0.87 2.59301 2.58487 3.7191 3.72717 4.98311 4.99214
0.8825 2.70376 2.6974 3.79358 3.79939 5.13712 5.14741
0.895 2.81092 2.80632 3.86375 3.86734 5.28165 5.29315
0.9075 2.91124 2.90827 3.92931 3.93083 5.41417 5.42676
0.92 3.00252 3.00101 3.99082 3.99054 5.53319 5.54673
0.9325 3.08386 3.08354 4.04975 4.04805 5.63843 5.65273
0.945 3.15505 3.15562 4.10783 4.10514 5.73025 5.74508
0.9575 3.21516 3.21627 4.16552 4.16235 5.80819 5.82331
0.97 3.26113 3.2624 4.22056 4.21743 5.86954 5.8847
0.9825 3.28773 3.28874 4.26782 4.26531 5.90926 5.9242
0.995 3.28896 3.28925 4.3007 4.29937 5.92135 5.93582
1.005 3.2682 3.26757 4.31225 4.31226 5.90748 5.92141
1.0175 3.2123 3.21012 4.30377 4.30588 5.85749 5.87056
1.03 3.12249 3.11839 4.26665 4.27123 5.76986 5.7819
1.0425 3.00085 2.99451 4.19963 4.20693 5.64555 5.65644
1.055 2.85127 2.84253 4.10288 4.11301 5.48714 5.49683
1.0675 2.67834 2.66714 3.977 3.98986 5.29769 5.30619
1.08 2.48699 2.47341 3.82288 3.83822 5.08054 5.08792
1.0925 2.28219 2.26644 3.64166 3.65907 4.83905 4.84542
1.105 2.06848 2.05087 3.4344 3.45333 4.57615 4.5817
1.1175 1.84983 1.83079 3.20221 3.22196 4.29441 4.29935
1.13 1.62966 1.60968 2.94632 2.96612 3.99597 4.00055
1.1425 1.41051 1.39014 2.66797 2.687 3.68238 3.68686
1.155 1.19428 1.17408 2.36864 2.38604 3.35481 3.35944
1.1675 0.983173 0.963717 2.05108 2.06601 3.01503 3.02007
1.18 0.780898 0.762752 1.72047 1.73215 2.66668 2.67234
1.1925 0.592318 0.576025 1.38407 1.39179 2.31486 2.32133
1.205 0.42125 0.407305 1.04897 1.05213 1.96407 1.97148
1.2175 0.269223 0.258035 0.720724 0.718865 1.6169 1.62531
1.23 0.135945 0.127811 0.403683 0.396534 1.27451 1.28392
1.2425 0.0198773 0.0149445 0.101361 0.0888504 0.937153 0.947485
1.255 -0.0814954 -0.0832589 -0.183593 -0.201315 0.604332 0.615423
1.2675 -0.172096 -0.170761 -0.449739 -0.472369 0.274582 0.286197
1.28 -0.25731 -0.253141 -0.697529 -0.724532 -0.0550478 -0.0431956
1.2925 -0.344432 -0.337896 -0.930075 -0.960682 -0.389414 -0.377682
1.305 -0.442113 -0.43376 -1.15246 -1.18572 -0.734696 -0.723479
1.3175 -0.558038 -0.548558 -1.36978 -1.40474 -1.09635 -1.08609
1.33 -0.69623 -0.686373 -1.58473 -1.62035 -1.47646 -1.4676
1.3425 -0.855827 -0.84632 -1.7964 -1.83163 -1.87253 -1.86548
1.355 -1.03243 -1.02394 -2.00155 -2.03538 -2.27889 -2.27403
1.3675 -1.22104 -1.21416 -2.1974 -2.22903 -2.68957 -2.68721
1.38 -1.41838 -1.41357 -2.3839 -2.41266 -3.10063 -3.10105
1.3925 -1.62332 -1.62096 -2.564 -2.58933 -3.51056 -3.51388
1.405 -1.8355 -1.83585 -2.74193 -2.76348 -3.91877 -3.92506
1.4175 -2.05393 -2.05713 -2.92168 -2.93933 -4.3242 -4.33346
1.43 -2.27714 -2.28317 -3.10696 -3.1208 -4.72553 -4.73767
1.4425 -2.5039 -2.51264 -3.3017 -3.312 -5.12185 -5.13665
1.455 -2.73348 -2.74468 -3.50997 -3.51722 -5.51279 -5.52994
1.4675 -2.96513 -2.97842 -3.73537 -3.74022 -5.89804 -5.91718
1.48 -3.19742 -3.21233 -3.98 -3.9833 -6.27717 -6.29856
1.4925 -3.42709 -3.44305 -4.24265 -4.24572 -6.64979 -6.67096
1.505 -3.64779 -3.66415 -4.51945 -4.52365 -7.0089 -7.02752
1.5175 -3.85072 -3.86682 -4.80272 -4.80826 -7.34345 -7.36188
1.53 -4.02626 -4.04139 -5.08211 -5.0898 -7.64457 -7.66437
1.5425 -4.16672 -4.18009 -5.34744 -5.3585 -7.90706 -7.92702
1.555 -4.26744 -4.2783 -5.59095 -5.60661 -8.12668 -8.14431
1.5675 -4.32771 -4.33544 -5.80796 -5.82882 -8.30017 -8.3152
1.58 -4.35197 -4.35538 -5.99631 -6.02274 -8.42827 -8.44194
1.5925 -4.35032 -4.34384 -6.15635 -6.18866 -8.51672 -8.52907
1.605 -4.32436 -4.31122 -6.29054 -6.32872 -8.57367 -8.58359
1.6175 -4.28419 -4.26684 -6.40311 -6.44683 -8.60709 -8.6143
1.63 -4.31736 -4.25912 -6.50103 -6.54723 -8.62412 -8.62945
1.6425 -4.49418 -4.18541 -6.59592 -6.64823 -8.63223 -8.63168
1.655 -4.3555 -4.16945 -6.68103 -6.73794 -8.63604 -8.63018
1.6675 -4.28902 -4.16058 -6.76989 -6.82913 -8.63469 -8.63096
1.68 -4.39413 -4.15684 -6.86184 -6.92383 -8.6362 -8.63396
1.6925 -4.40951 -4.18855 -6.94745 -7.01367 -8.64812 -8.6418
1.705 -4.42282 -4.24562 -7.03037 -7.09776 -8.66534 -8.65547
1.7175 -4.53126 -4.31602 -7.11162 -7.17819 -8.68347 -8.67434
1.73 -4.63279 -4.41074 -7.18619 -7.25238 -8.70727 -8.69973
1.7425 -4.72946 -4.53148 -7.25843 -7.32377 -8.74268 -8.73449
1.755 -4.88091 -4.67503 -7.33741 -7.4001 -8.79308 -8.78366
1.7675 -5.05912 -4.84695 -7.42771 -7.48696 -8.86182 -8.85285
1.78 -5.24883 -5.04823 -7.53263 -7.58846 -8.95183 -8.94451
1.7925 -5.47037 -5.27122 -7.65451 -7.70652 -9.06291 -9.05658
1.805 -5.7099 -5.50761 -7.79087 -7.83872 -9.19018 -9.18389
1.8175 -5.94508 -5.7469 -7.93607 -7.98008 -9.32523 -9.31922
1.83 -6.17338 -5.97194 -8.08416 -8.1264 -9.45932 -9.45391
1.8425 -6.38704 -6.17906 -8.2297 -8.27098 -9.58636 -9.58109
1.855 -6.5735 -6.362 -8.37093 -8.41157 -9.70276 -9.69683
1.8675 -6.7332 -6.51851 -8.50795 -8.54812 -9.80731 -9.80073
1.88 -6.86819 -6.64799 -8.64168 -8.68241 -9.90096 -9.89394
1.8925 -6.97609 -6.75105 -8.773 -8.81517 -9.98548 -9.9778
1.905 -7.05673 -6.82727 -8.90156 -8.94563 -10.0614 -10.0525
1.9175 -7.11005 -6.87514 -9.02467 -9.07119 -10.1276 -10.1173
1.93 -7.13331 -6.89241 -9.13802 -9.18789 -10.182 -10.1703
1.9425 -7.1247 -6.87781 -9.23686 -9.29085 -10.2226 -10.2095
1.955 -7.08397 -6.8312 -9.31651 -9.37491 -10.248 -10.2332
1.9675 -7.01165 -6.75285 -9.37281 -9.43591 -10.2572 -10.2407
1.98 -6.9108 -6.64641 -9.40324 -9.47124 -10.2513 -10.2333
1.9925 -6.78779 -6.51827 -9.40815 -9.481 -10.2341 -10.2147
2.0025 -6.67896 -6.40582 -9.39524 -9.47167 -10.2158 -10.1956
2.0125 -6.56582 -6.28877 -9.36935 -9.44686 -10.197 -10.1765
2.0225 -6.45232 -6.17229 -9.33375 -9.40826 -10.1802 -10.1609
2.0325 -6.34239 -6.06053 -9.29002 -9.36206 -10.1675 -10.1495
2.0425 -6.24018 -5.9569 -9.23768 -9.3083 -10.1619 -10.1453
2.0525 -6.14818 -5.86433 -9.17835 -9.24912 -10.1651 -10.1494
2.0625 -6.06807 -5.78487 -9.11438 -9.18549 -10.1779 -10.1625
2.0725 -6.00082 -5.71923 -9.0465 -9.11699 -10.1994 -10.1847
2.0825 -5.9457 -5.6664 -8.97341 -9.04233 -10.2277 -10.2144
2.0925 -5.90015 -5.62402 -8.89274 -8.95974 -10.2597 -10.2482
2.1025 -5.86033 -5.58831 -8.80173 -8.86643 -10.2911 -10.2817
2.1125 -5.82193 -5.55485 -8.69767 -8.75941 -10.3175 -10.31
2.1225 -5.7809 -5.51954 -8.57828 -8.63638 -10.3339 -10.3285
2.1325 -5.7342 -5.47931 -8.44232 -8.49641 -10.337 -10.3338
2.1425 -5.68025 -5.43253 -8.29022 -8.34017 -10.3246 -10.324
2.1525 -5.61893 -5.37886 -8.12404 -8.16972 -10.2964 -10.2984
2.1625 -5.55072 -5.31863 -7.94659 -7.98786 -10.2525 -10.257
2.1725 -5.47589 -5.25197 -7.76043 -7.79721 -10.193 -10.1997
2.1825 -5.39415 -5.17847 -7.56742 -7.59983 -10.117 -10.126
2.1925 -5.30475 -5.09725 -7.36892 -7.39721 -10.0237 -10.0348
2.2025 -5.20701 -5.00743 -7.16591 -7.19061 -9.91299 -9.92573
2.2125 -5.10045 -4.90836 -6.95923 -6.98124 -9.78584 -9.79769
2.2225 -4.98452 -4.79971 -6.75058 -6.77019 -9.64025 -9.65068
2.2325 -4.85898 -4.68118 -6.54144 -6.55862 -9.47389 -9.48426
2.2425 -4.72383 -4.55256 -6.33232 -6.34708 -9.28633 -9.29892
2.2525 -4.57906 -4.41381 -6.12335 -6.13625 -9.07894 -9.09389
2.2625 -4.4249 -4.26518 -5.91484 -5.92666 -8.85328 -8.86895
2.2725 -4.26206 -4.10738 -5.70741 -5.71872 -8.61003 -8.62491
2.2825 -4.09167 -3.9415 -5.5018 -5.513 -8.34918 -8.36282
2.2925 -3.91519 -3.76905 -5.29864 -5.31011 -8.0712 -8.08417
2.3025 -3.73439 -3.59188 -5.09856 -5.11067 -7.77778 -7.79056
2.3125 -3.55136 -3.41209 -4.90218 -4.91535 -7.47149 -7.4837
2.3225 -3.36841 -3.23205 -4.71027 -4.72478 -7.1549 -7.16567
2.3325 -3.18803 -3.0543 -4.52363 -4.53967 -6.83024 -6.83903
2.3425 -3.01282 -2.88155 -4.34312 -4.36078 -6.49969 -6.50659
2.3525 -2.84529 -2.71636 -4.16944 -4.18874 -6.16573 -6.17107
2.3625 -2.68751 -2.56087 -4.00292 -4.0238 -5.83093 -5.83479
2.3725 -2.54073 -2.4164 -3.84321 -3.86554 -5.49725 -5.49937
2.3825 -2.40502 -2.2831 -3.68897 -3.71258 -5.1654 -5.16548
2.3925 -2.27912 -2.15982 -3.53779 -3.56244 -4.83468 -4.83275
2.4025 -2.16076 -2.0444 -3.38647 -3.41188 -4.50359 -4.49988
2.4125 -2.04706 -1.93405 -3.23145 -3.25729 -4.17029 -4.16508
2.4225 -1.93493 -1.82607 -3.06923 -3.0951 -3.83284 -3.8261
2.4325 -1.8214 -1.71731 -2.89693 -2.92231 -3.48892 -3.48107
2.4425 -1.70419 -1.6055 -2.71206 -2.73648 -3.13747 -3.12947
2.4525 -1.58178 -1.48905 -2.51302 -2.53627 -2.77865 -2.77037
2.4625 -1.45342 -1.36726 -2.2994 -2.32133 -2.4132 -2.40414
2.4725 -1.31913 -1.24015 -2.07179 -2.09211 -2.04196 -2.03194
2.4825 -1.17929 -1.10806 -1.83128 -1.84961 -1.66593 -1.65532
2.4925 -1.03434 -0.971338 -1.57897 -1.59497 -1.28638 -1.27578
2.5025 -0.884865 -0.830437 -1.31581 -1.32919 -0.904743 -0.894367
2.5125 -0.736246 -0.685409 -1.04283 -1.05319 -0.522059 -0.511767
2.5225 -0.585293 -0.533881 -0.760756 -0.768404 -0.138819 -0.128148
2.5325 -0.424292 -0.376997 -0.47008 -0.475597 0.244801 0.256065
2.5425 -0.255503 -0.21399 -0.172256 -0.175558 0.628309 0.639741
2.5525 -0.083244 -0.0447432 0.130286 0.129292 1.01044 1.02177
2.5625 0.0930548 0.129158 0.434936 0.436412 1.38894 1.4001
2.5725 0.27343 0.305542 0.738717 0.742579 1.76107 1.77221
2.5825 0.454317 0.482458 1.03822 1.04423 2.1241 2.13535
2.5925 0.632451 0.657773 1.32988 1.33787 2.47537 2.48671
2.6025 0.806341 0.82896 1.61015 1.62007 2.81212 2.82341
2.6125 0.974033 0.993606 1.87577 1.88753 3.13154 3.14272
2.6225 1.13285 1.14975 2.12391 2.1373 3.43117 3.44229
2.6325 1.281 1.2958 2.35227 2.36703 3.70906 3.72024
2.6425 1.41774 1.43062 2.55915 2.57506 3.96388 3.97522
2.6525 1.54259 1.55369 2.74358 2.76044 4.195 4.20648
2.6625 1.65554 1.66523 2.90543 2.92306 4.40246 4.41405
2.6725 1.75747 1.76617 3.04552 3.06364 4.58698 4.59872
2.6825 1.85008 1.85801 3.1654 3.18377 4.75 4.76196
2.6925 1.93533 1.94275 3.26723 3.28559 4.89347 4.90573
2.7025 2.01521 2.02243 3.3534 3.37152 5.01953 5.03212
2.7125 2.09164 2.09893 3.42635 3.44396 5.13019 5.14313
2.7225 2.1664 2.17395 3.48861 3.50541 5.22741 5.24072
2.7325 2.24129 2.24931 3.54289 3.55863 5.31329 5.327
2.7425 2.31821 2.32686 3.59214 3.60664 5.39009 5.40425
2.7525 2.39891 2.40833 3.63936 3.65245 5.46009 5.4747
2.7625 2.48477 2.49505 3.68729 3.69886 5.52528 5.5403
2.7725 2.57652 2.58771 3.73815 3.74813 5.58708 5.60247
2.7825 2.67405 2.68615 3.79341 3.80177 5.6462 5.66189
2.7925 2.77637 2.78937 3.8537 3.86049 5.70254 5.71848
2.8025 2.88186 2.89568 3.91897 3.92431 5.75542 5.77155
2.8125 2.98863 3.00317 3.98891 3.99295 5.80403 5.82024
2.8225 3.09486 3.10999 4.06314 4.06611 5.84766 5.86379
2.8325 3.19895 3.21449 4.14132 4.1435 5.88578 5.90164
2.8425 3.29944 3.31519 4.22311 4.22483 5.918 5.93341
2.8525 3.395 3.41074 4.30806 4.30965 5.94402 5.95882
2.8625 3.48438 3.49991 4.39556 4.39738 5.96361 5.97767
2.8725 3.5666 3.58166 4.48495 4.48737 5.97675 5.98991
2.8825 3.64107 3.65543 4.57572 4.57912 5.9838 5.99589
2.8925 3.70793 3.72137 4.66779 4.67252 5.98572 5.99657
2.9025 3.76812 3.78043 4.76162 4.76802 5.98419 5.99369
2.9125 3.8233 3.83427 4.85811 4.86646 5.98152 5.98958
2.9225 3.87533 3.8848 4.95819 4.96873 5.98019 5.98675
2.9325 3.92581 3.93364 5.06231 5.07523 5.98234 5.98734
2.9425 3.97554 3.98162 5.17002 5.18545 5.98928 5.99269
2.9525 4.02425 4.0285 5.27972 5.29774 6.00118 6.00301
2.9625 4.07075 4.07313 5.38882 5.40941 6.01724 6.01754
2.9725 4.11346 4.11385 5.49442 5.51706 6.0362 6.03518
2.9825 4.15061 4.14915 5.59353 5.61809 6.0566 6.0544
2.9925 4.18053 4.17897 5.68283 5.70902 6.07686 6.07364
3.0025 4.20115 4.19971 5.75912 5.7865 6.09514 6.09115
3.0125 4.21009 4.20818 5.8191 5.84785 6.10923 6.10448
3.0225 4.20517 4.20295 5.85919 5.88909 6.11678 6.11135
3.0325 4.18406 4.18111 5.87614 5.90713 6.11513 6.10938
3.0425 4.1447 4.14081 5.86684 5.89871 6.10185 6.09606
3.0525 4.08573 4.08095 5.8289 5.86146 6.07518 6.06947
3.0625 4.00724 4.00166 5.76144 5.79442 6.03446 6.02882
3.0725 3.91063 3.90434 5.66521 5.69831 5.98022 5.97484
3.0825 3.79823 3.79143 5.5421 5.57489 5.91386 5.90908
3.0925 3.67287 3.66575 5.39459 5.42661 5.83724 5.83338
3.1025 3.53752 3.53027 5.22551 5.25633 5.75233 5.7496
3.1125 3.39512 3.38795 5.03793 5.06711 5.66105 5.65959
3.1225 3.24853 3.24169 4.83514 4.86228 5.56519 5.56517
3.1325 3.1007 3.09443 4.62075 4.64542 5.46656 5.46816
3.1425 2.95461 2.94914 4.39865 4.42048 5.36708 5.3705
3.1525 2.81325 2.80881 4.17302 4.19169 5.2688 5.27418
3.1625 2.67927 2.67607 3.94793 3.96316 5.1735 5.18089
3.1725 2.55442 2.55265 3.72675 3.73833 5.08212 5.09154
3.1825 2.43923 2.43904 3.51183 3.51963 4.99447 5.00592
3.1925 2.33329 2.33477 3.30471 3.30868 4.90952 4.92299
3.2025 2.23547 2.23866 3.10627 3.10644 4.82567 4.84109
3.2125 2.14399 2.14887 2.91675 2.91325 4.74074 4.758
3.2225 2.05655 2.06302 2.73579 2.72886 4.65213 4.67104
3.2325 1.97055 1.97846 2.56263 2.55257 4.55698 4.57733
3.2425 1.8835 1.89263 2.3964 2.3836 4.45256 4.47412
3.2525 1.79329 1.80338 2.23636 2.22128 4.33659 4.35917
3.2625 1.69831 1.70907 2.08191 2.06497 4.20741 4.2314
3.2725 1.5973 1.60843 1.93245 1.91426 4.06389 4.08821
3.2825 1.48922 1.50033 1.78728 1.76857 3.90467 3.92843
3.2925 1.37321 1.38397 1.64555 1.62675 3.72831 3.75175
3.3025 1.24866 1.25874 1.50622 1.48779 3.53407 3.55724
3.3125 1.11546 1.12455 1.36825 1.35071 3.32193 3.34452
3.3225 0.973908 0.981669 1.2307 1.21452 3.09219 3.11357
3.3325 0.824635 0.830819 1.09275 1.07834 2.84518 2.86489
3.3425 0.668585 0.672997 0.953608 0.941252 2.58139 2.59932
3.3525 0.506849 0.509339 0.812337 0.802247 2.3016 2.31781
3.3625 0.340485 0.340962 0.667808 0.660142 2.00684 2.02126
3.3725 0.170392 0.168831 0.518655 0.513492 1.69804 1.71046
3.3825 -0.00284277 -0.005711 0.363304 0.360504 1.37588 1.38609
3.3925 -0.17905 -0.182744 0.200119 0.199377 1.04074 1.04879
3.4025 -0.357451 -0.361915 0.0274182 0.0285722 0.693079 0.699065
3.4125 -0.538855 -0.543316 -0.156244 -0.153377 0.333794 0.337879
3.4225 -0.725273 -0.724819 -0.351619 -0.347236 -0.0355699 -0.0332969
3.4325 -0.911177 -0.904935 -0.558414 -0.553019 -0.412781 -0.412222
3.4425 -1.09135 -1.0814 -0.775406 -0.769438 -0.795473 -0.796768
3.4525 -1.26535 -1.25131 -1.00096 -0.995188 -1.18082 -1.1826
3.4625 -1.43228 -1.4117 -1.23322 -1.22825 -1.56504 -1.5669
3.4725 -1.58838 -1.56038 -1.47008 -1.46632 -1.94447 -1.94671
3.4825 -1.73066 -1.69574 -1.70947 -1.70745 -2.31644 -2.31945
3.4925 -1.85893 -1.81676 -1.94961 -1.94993 -2.6794 -2.68306
3.5025 -1.97372 -1.92315 -2.18917 -2.19244 -3.03233 -3.03604
3.5125 -2.07497 -2.01541 -2.42707 -2.43374 -3.37433 -3.37755
3.5225 -2.16286 -2.09414 -2.66221 -2.67206 -3.70439 -3.70716
3.5325 -2.23836 -2.1604 -2.89335 -2.90649 -4.02153 -4.02415
3.5425 -2.30263 -2.21498 -3.11864 -3.1353 -4.32511 -4.32767
3.5525 -2.35657 -2.25907 -3.33626 -3.35676 -4.61481 -4.61716
3.5625 -2.40125 -2.29417 -3.54486 -3.56938 -4.89046 -4.89223
3.5725 -2.4386 -2.32226 -3.74355 -3.77198 -5.15208 -5.15315
3.5825 -2.47123 -2.34593 -3.93193 -3.96405 -5.40027 -5.40077
3.5925 -2.50231 -2.36849 -4.11027 -4.14589 -5.63651 -5.6367
3.6025 -2.53569 -2.39402 -4.27982 -4.31871 -5.86333 -5.86329
3.6125 -2.57596 -2.42711 -4.44274 -4.48453 -6.0839 -6.0836
3.6225 -2.62771 -2.47237 -4.60155 -4.64575 -6.30147 -6.30088
3.6325 -2.69492 -2.53378 -4.75857 -4.80462 -6.51878 -6.51803
3.6425 -2.7805 -2.61436 -4.9156 -4.96295 -6.7379 -6.73721
3.6525 -2.88641 -2.71603 -5.07399 -5.12208 -6.96021 -6.95979
3.6625 -3.01354 -2.83966 -5.23464 -5.28287 -7.18642 -7.18635
3.6725 -3.16154 -2.98484 -5.3978 -5.44556 -7.41621 -7.41656
3.6825 -3.32879 -3.14993 -5.56302 -5.60968 -7.6483 -7.64916
3.6925 -3.51264 -3.332 -5.72938 -5.77439 -7.88061 -7.88213
3.7025 -3.70987 -3.52723 -5.89557 -5.93874 -8.11061 -8.11286
3.7125 -3.91697 -3.73285 -6.06035 -6.10132 -8.33581 -8.33885
3.7225 -4.1305 -3.94524 -6.22319 -6.26173 -8.55405 -8.55784
3.7325 -4.34765 -4.16151 -6.3841 -6.41998 -8.76371 -8.76822
3.7425 -4.56589 -4.37895 -6.54334 -6.57651 -8.96349 -8.9687
3.7525 -4.78254 -4.59473 -6.70113 -6.7317 -9.1521 -9.15795
3.7625 -4.99481 -4.80604 -6.85762 -6.88579 -9.3283 -9.33468
3.7725 -5.20007 -5.01015 -7.01296 -7.03901 -9.49095 -9.49768
3.7825 -5.39588 -5.20449 -7.16721 -7.19148 -9.63902 -9.64591
3.7925 -5.5799 -5.38665 -7.32022 -7.34316 -9.77157 -9.77845
3.8025 -5.75 -5.55444 -7.47169 -7.49385 -9.88788 -9.89456
3.8125 -5.90446 -5.7061 -7.62133 -7.64332 -9.98758 -9.99373
3.8225 -6.04204 -5.84036 -7.76887 -7.79133 -10.0706 -10.0759
3.8325 -6.16185 -5.95633 -7.91392 -7.93747 -10.1371 -10.1412
3.8425 -6.26314 -6.05324 -8.05568 -8.08096 -10.1872 -10.1898
3.8525 -6.34517 -6.13044 -8.19295 -8.22055 -10.2209 -10.2219
3.8625 -6.40748 -6.1875 -8.32423 -8.35475 -10.2385 -10.2377
3.8725 -6.45019 -6.22455 -8.44821 -8.48217 -10.2406 -10.2377
3.8825 -6.47444 -6.24282 -8.56409 -8.60196 -10.2286 -10.2236
3.8925 -6.48232 -6.2445 -8.67165 -8.71379 -10.2049 -10.1975
3.9025 -6.47661 -6.23249 -8.77106 -8.81771 -10.1721 -10.1623
3.9125 -6.46042 -6.20992 -8.8626 -8.91367 -10.1332 -10.1211
3.9225 -6.4369 -6.18016 -8.94677 -9.00165 -10.0913 -10.077
3.9325 -6.40924 -6.14654 -9.02388 -9.08241 -10.0491 -10.0328
3.9425 -6.38071 -6.11243 -9.09406 -9.15612 -10.0097 -9.99114
3.9525 -6.35447 -6.08109 -9.15793 -9.22334 -9.97545 -9.95523
3.9625 -6.3336 -6.05577 -9.21639 -9.28454 -9.94913 -9.92807
3.9725 -6.3209 -6.03928 -9.27013 -9.34049 -9.93356 -9.91187
3.9825 -6.31842 -6.03379 -9.3194 -9.39146 -9.93084 -9.90834
3.9925 -6.32692 -6.0398 -9.36389 -9.43627 -9.94157 -9.91839
4.0025 -6.34566 -6.05708 -9.40303 -9.47431 -9.96471 -9.94157
4.0125 -6.3732 -6.08419 -9.43484 -9.50554 -9.99865 -9.97573
4.0225 -6.40792 -6.11904 -9.4569 -9.52709 -10.042 -10.0196
4.0325 -6.44758 -6.1597 -9.46843 -9.53785 -10.0931 -10.0713
4.0425 -6.49007 -6.20418 -9.46935 -9.53693 -10.1502 -10.1291
4.0525 -6.53358 -6.25047 -9.45918 -9.5239 -10.2112 -10.1914
4.0625 -6.57629 -6.29655 -9.43738 -9.49891 -10.2745 -10.2563
4.0725 -6.61656 -6.34079 -9.40422 -9.46255 -10.3389 -10.3226
4.0825 -6.65346 -6.38216 -9.36126 -9.41625 -10.4041 -10.3897
4.0925 -6.68688 -6.42038 -9.311 -9.36228 -10.4701 -10.4573
4.1025 -6.71709 -6.45554 -9.25611 -9.30344 -10.5369 -10.5259
4.1125 -6.74423 -6.48763 -9.19899 -9.24241 -10.6047 -10.5957
4.1225 -6.76797 -6.51619 -9.14164 -9.1814 -10.6733 -10.6665
4.1325 -6.78737 -6.53986 -9.08552 -9.12192 -10.7419 -10.7372
4.1425 -6.80117 -6.5576 -9.0315 -9.0648 -10.8093 -10.8063
4.1525 -6.80814 -6.56808 -8.98029 -9.01078 -10.8741 -10.8726
4.1625 -6.80758 -6.57059 -8.93277 -8.96091 -10.9352 -10.9351
4.1725 -6.79942 -6.56492 -8.89007 -8.91637 -10.9921 -10.9935
4.1825 -6.78401 -6.55136 -8.85347 -8.87846 -11.0448 -11.0475
4.1925 -6.76211 -6.53057 -8.82429 -8.8485 -11.0938 -11.0973
4.2025 -6.73484 -6.50366 -8.8038 -8.8278 -11.1394 -11.1435
4.2125 -6.70356 -6.47195 -8.79307 -8.81744 -11.1822 -11.1867
4.2225 -6.66949 -6.43666 -8.7927 -8.818 -11.2228 -11.2274
4.2325 -6.63339 -6.39861 -8.80257 -8.82928 -11.261 -11.2656
4.2425 -6.59532 -6.35794 -8.8215 -8.85007 -11.2962 -11.3005
4.2525 -6.55466 -6.3141 -8.84735 -8.8782 -11.3269 -11.3307
4.2625 -6.51026 -6.26609 -8.87723 -8.91073 -11.3513 -11.3544
4.2725 -6.46079 -6.21271 -8.90785 -8.94429 -11.367 -11.3693
4.2825 -6.40464 -6.15252 -8.93549 -8.97507 -11.3718 -11.373
4.2925 -6.34011 -6.08396 -8.95614 -8.99899 -11.3629 -11.3631
4.3025 -6.26569 -6.00571 -8.96588 -9.01204 -11.3381 -11.3372
4.3125 -6.18038 -5.91696 -8.96128 -9.0107 -11.2956 -11.2936
4.3225 -6.08385 -5.81751 -8.93946 -8.99202 -11.2339 -11.2309
4.3325 -5.97637 -5.70777 -8.89825 -8.9537 -11.1527 -11.1485
4.3425 -5.85899 -5.58893 -8.83633 -8.89434 -11.0519 -11.0468
4.3525 -5.73352 -5.46291 -8.75328 -8.81342 -10.9324 -10.9267
4.3625 -5.60235 -5.33215 -8.64947 -8.71125 -10.796 -10.7896
4.3725 -5.46813 -5.19939 -8.52588 -8.58872 -10.6444 -10.6376
4.3825 -5.33348 -5.06726 -8.38377 -8.44703 -10.4796 -10.4726
4.3925 -5.20061 -4.93799 -8.22443 -8.28742 -10.3033 -10.2963
4.4025 -5.07113 -4.8132 -8.04901 -8.11104 -10.1167 -10.11
4.4125 -4.94614 -4.69395 -7.85863 -7.919 -9.92073 -9.91458
4.4225 -4.82633 -4.58092 -7.65449 -7.71251 -9.71607 -9.71064
4.4325 -4.71209 -4.47442 -7.43794 -7.49296 -9.50323 -9.49872
4.4425 -4.60356 -4.3745 -7.21052 -7.26194 -9.28265 -9.27925
4.4525 -4.50061 -4.28092 -6.97392 -7.02121 -9.05467 -9.05253
4.4625 -4.40277 -4.1931 -6.72985 -6.77258 -8.81945 -8.81867
4.4725 -4.30922 -4.11007 -6.47996 -6.51779 -8.57693 -8.57758
4.4825 -4.21883 -4.03054 -6.22586 -6.25855 -8.32688 -8.32899
4.4925 -4.13038 -3.95317 -5.96921 -5.99665 -8.06908 -8.07263
4.5025 -4.04286 -3.87678 -5.71195 -5.73414 -7.80361 -7.80853
4.5125 -3.95557 -3.80049 -5.45635 -5.47339 -7.53091 -7.53709
4.5225 -3.86804 -3.72368 -5.20479 -5.21692 -7.25169 -7.25898
4.5325 -3.77983 -3.64574 -4.95956 -4.96709 -6.96671 -6.97491
4.5425 -3.69033 -3.56592 -4.72258 -4.72594 -6.67661 -6.68549
4.5525 -3.59865 -3.4832 -4.49522 -4.49491 -6.38173 -6.39102
4.5625 -3.50351 -3.39632 -4.27812 -4.27493 -6.08204 -6.09142
4.5725 -3.40347 -3.30366 -4.07112 -4.06632 -5.77726 -5.78623
4.5825 -3.29704 -3.20365 -3.8738 -3.86791 -5.46708 -5.47536
4.5925 -3.18274 -3.09488 -3.68575 -3.67926 -5.15109 -5.15836
4.6025 -3.05937 -2.97615 -3.50593 -3.49915 -4.82895 -4.83506
4.6125 -2.92575 -2.84625 -3.33261 -3.32611 -4.5003 -4.50507
4.6225 -2.78066 -2.70408 -3.16373 -3.15823 -4.16478 -4.16795
4.6325 -2.62305 -2.54871 -2.99706 -2.99325 -3.82205 -3.8233
4.6425 -2.45215 -2.37948 -2.83023 -2.82863 -3.47179 -3.47088
4.6525 -2.26736 -2.19593 -2.66068 -2.66162 -3.11339 -3.11008
4.6625 -2.06816 -1.99774 -2.48571 -2.4894 -2.74576 -2.7406
4.6725 -1.85425 -1.78473 -2.30209 -2.3086 -2.36887 -2.36274
4.6825 -1.62537 -1.5568 -2.1065 -2.11607 -1.98303 -1.97546
4.6925 -1.38145 -1.31456 -1.89584 -1.90855 -1.58817 -1.5784
4.7025 -1.12265 -1.05861 -1.66758 -1.68296 -1.18378 -1.17171
4.7125 -0.850073 -0.789404 -1.41989 -1.43772 -0.769866 -0.756032
4.7225 -0.566987 -0.510043 -1.1518 -1.17162 -0.34788 -0.333052
4.7325 -0.280869 -0.222784 -0.863747 -0.885131 0.0793373 0.0949451
4.7425 0.00875003 0.0689318 -0.557093 -0.579844 0.50837 0.525131
4.7525 0.301728 0.360052 -0.233755 -0.257076 0.936022 0.953983
4.7625 0.591203 0.647107 0.103623 0.0804737 1.35937 1.37809
4.7725 0.871306 0.926357 0.452074 0.429859 1.77516 1.79394
4.7825 1.14002 1.19352 0.8083 0.787702 2.17967 2.19806
4.7925 1.39446 1.44478 1.16855 1.15028 2.56925 2.58715
4.8025 1.63039 1.67737 1.52903 1.51387 2.94107 2.95848
4.8125 1.84578 1.88953 1.88668 1.87524 3.29369 3.31035
4.8225 2.0414 2.08107 2.23996 2.23193 3.62715 3.64279
4.8325 2.21907 2.25403 2.58867 2.58438 3.94289 3.95713
4.8425 2.38152 2.41168 2.93289 2.93271 4.24359 4.25637
4.8525 2.53244 2.55773 3.27309 3.27755 4.53239 4.54372
4.8625 2.67576 2.69592 3.60988 3.61924 4.81256 4.82234
4.8725 2.81505 2.83 3.94367 3.95783 5.08726 5.09538
4.8825 2.95356 2.96343 4.27438 4.29318 5.35927 5.36567
4.8925 3.09427 3.09925 4.60142 4.62475 5.63091 5.63569
4.9025 3.2395 3.23977 4.92382 4.95152 5.9039 5.90724
4.9125 3.39063 3.38651 5.24014 5.27187 6.17927 6.18134
4.9225 3.5482 3.5401 5.54842 5.58367 6.45729 6.45825
4.9325 3.71226 3.70432 5.84629 5.88424 6.73751 6.73759
4.9425 3.888 3.95072 6.13183 6.16758 7.01871 7.01878
4.9525 4.08225 4.31588 6.41356 6.39098 7.29723 7.31037
4.9625 4.23688 4.37786 6.69885 6.68528 7.56514 7.58195
4.9725 4.40555 4.57974 6.94132 6.93758 7.83273 7.84506
4.9825 4.56964 4.7574 7.16444 7.16557 8.09913 8.1141
4.9925 4.72572 4.90347 7.391 7.40051 8.35643 8.36195
5.0025 4.88426 5.07708 7.60953 7.60336 8.60669 8.61625
5.0125 5.04074 5.2357 7.81417 7.80406 8.85048 8.86434
5.0225 5.20013 5.39776 8.00298 7.99786 9.0948 9.11157
5.0325 5.36357 5.56707 8.18643 8.18419 9.34385 9.36029
5.0425 5.53058 5.73748 8.37308 8.3684 9.59662 9.61044
5.0525 5.70249 5.91453 8.56041 8.54952 9.85061 9.86458
5.0625 5.87818 6.09451 8.74383 8.73001 10.1046 10.1217
5.0725 6.05559 6.27541 8.92302 8.90991 10.3591 10.3795
5.0825 6.23203 6.45605 9.10047 9.08695 10.6141 10.6357
5.0925 6.40299 6.63226 9.27617 9.25953 10.8662 10.8872
5.1025 6.56495 6.80144 9.4463 9.42602 11.1105 11.1317
5.1125 6.71782 6.96013 9.60709 9.58492 11.3432 11.3662
5.1225 6.85925 7.1057 9.75747 9.7348 11.5627 11.5883
5.1325 6.98608 7.237 9.8981 9.87445 11.7688 11.796
5.1425 7.09805 7.35354 10.0295 10.0042 11.9609 11.9884
5.1525 7.19673 7.45579 10.1519 10.1251 12.1389 12.1665
5.1625 7.28309 7.545 10.266 10.2388 12.3029 12.3312
5.1725 7.35792 7.62258 10.3734 10.3466 12.4544 12.4836
5.1825 7.4228 7.69004 10.4763 10.4496 12.5949 12.6247
5.1925 7.47949 7.74882 10.5759 10.5491 12.7259 12.7557
5.2025 7.52934 7.80042 10.6728 10.6462 12.8481 12.8778
5.2125 7.61005 7.84599 10.7689 10.7431 12.9623 12.9919
5.2225 7.90328 7.86529 10.8707 10.8545 13.0704 13.0937
5.2325 7.98738 7.88429 10.9736 10.965 13.1739 13.1889
5.2425 7.8596 7.93682 11.082 11.0723 13.267 13.2799
5.2525 7.84922 7.96714 11.2029 11.1886 13.347 13.3664
5.2625 7.97284 7.97773 11.3296 11.3178 13.4209 13.4443
5.2725 8.02662 7.99863 11.4542 11.4493 13.4968 13.5176
5.2825 7.99336 8.03112 11.5817 11.5822 13.5734 13.5873
5.2925 8.00304 8.06125 11.718 11.7192 13.645 13.655
5.3025 8.07357 8.08759 11.8592 11.8602 13.7103 13.7216
5.3125 8.12528 8.12105 11.9984 12.0019 13.7735 13.7872
5.3225 8.14467 8.16407 12.1347 12.142 13.8384 13.8516
5.3325 8.18165 8.21046 12.2709 12.2806 13.9046 13.9144
5.3425 8.24575 8.25758 12.4058 12.4159 13.9699 13.9765
5.3525 8.30761 8.31031 12.5368 12.5461 14.0326 14.0389
5.3625 8.35834 8.37009 12.6628 12.6726 14.0935 14.1008
5.3725 8.41593 8.43354 12.7833 12.7945 14.1546 14.1624
5.3825 8.48842 8.50073 12.8997 12.9118 14.2173 14.224
5.3925 8.56524 8.57282 13.0128 13.0246 14.2817 14.2864
5.4025 8.64027 8.65066 13.122 13.133 14.3471 14.3509
5.4125 8.71949 8.73335 13.2263 13.2373 14.4135 14.4176
5.4225 8.8068 8.81945 13.3256 13.3371 14.4815 14.4862
5.4325 8.89714 8.90792 13.42 13.4313 14.5512 14.5557
5.4425 8.98498 8.99702 13.5079 13.5183 14.6212 14.6249
5.4525 9.07021 9.08443 13.5877 13.5969 14.6892 14.6925
5.4625 9.1532 9.16781 13.6579 13.6663 14.7537 14.7573
5.4725 9.2311 9.24559 13.7182 13.7258 14.8138 14.8181
5.4825 9.30094 9.31651 13.7683 13.7748 14.8691 14.8739
5.4925 9.36218 9.37924 13.8082 13.8133 14.9192 14.9241
5.5025 9.41475 9.43256 13.8375 13.8414 14.9631 14.968
5.5125 9.45728 9.4755 13.8561 13.859 14.9999 15.0052
5.5225 9.48814 9.50711 13.8641 13.8661 15.0291 15.035
5.5325 9.50672 9.52654 13.8616 13.8627 15.0502 15.0567
5.5425 9.51314 9.53345 13.8488 13.8491 15.0632 15.0701
5.5525 9.50793 9.52844 13.8269 13.8266 15.0686 15.0758
5.5625 9.49262 9.5134 13.7978 13.7971 15.0681 15.0756
5.5725 9.47016 9.49118 13.7647 13.7638 15.0641 15.072
5.5825 9.4441 9.46519 13.7311 13.73 15.0598 15.0681
5.5925 9.41774 9.43876 13.7002 13.6989 15.0582 15.0669
5.6025 9.39371 9.41468 13.6745 13.6732 15.0616 15.0706
5.6125 9.37392 9.39483 13.6559 13.6546 15.0717 15.0809
5.6225 9.35941 9.38021 13.6452 13.6439 15.0888 15.0983
5.6325 9.35038 9.37102 13.6425 13.6413 15.113 15.1228
5.6425 9.34643 9.3669 13.6473 13.6462 15.1437 15.1537
5.6525 9.34672 9.36702 13.6588 13.6577 15.1796 15.1899
5.6625 9.35005 9.37012 13.6754 13.6745 15.2194 15.2298
5.6725 9.35494 9.37475 13.6957 13.695 15.2613 15.2719
5.6825 9.35992 9.37943 13.7179 13.7175 15.3037 15.3144
5.6925 9.36363 9.3828 13.7406 13.7405 15.3448 15.3557
5.7025 9.36461 9.3834 13.762 13.7622 15.3831 15.394
5.7125 9.36114 9.37947 13.78 13.7806 15.4165 15.4275
5.7225 9.35114 9.36895 13.7921 13.7933 15.4427 15.4537
5.7325 9.33243 9.34966 13.7958 13.7976 15.4592 15.4701
5.7425 9.30306 9.31966 13.7886 13.7911 15.4636 15.4745
5.7525 9.2617 9.27761 13.7684 13.7717 15.4543 15.4651
5.7625 9.20776 9.22292 13.7339 13.7381 15.4301 15.4409
5.7725 9.14129 9.1557 13.6844 13.6896 15.3906 15.4013
5.7825 9.06289 9.07653 13.6196 13.6256 15.3357 15.3463
5.7925 8.97359 8.98649 13.5395 13.5464 15.2658 15.2764
5.8025 8.87489 8.88708 13.4446 13.4524 15.1818 15.1923
5.8125 8.76903 8.78035 13.3362 13.3447 15.0849 15.0954
5.8225 8.65877 8.66894 13.2159 13.2251 14.9772 14.9878
5.8325 8.54671 8.55612 13.0863 13.096 14.8612 14.8718
5.8425 8.43592 8.4451 12.9499 12.9598 14.7394 14.7502
5.8525 8.32935 8.3385 12.8091 12.8188 14.6139 14.6249
5.8625 8.22888 8.23814 12.6653 12.6747 14.4862 14.4976
5.8725 8.13531 8.14503 12.5197 12.5285 14.357 14.3687
5.8825 8.04876 8.0593 12.3728 12.3806 14.2263 14.2385
5.8925 7.96883 7.98032 12.2245 12.2311 14.0934 14.1061
5.9025 7.89452 7.90704 12.0746 12.0798 13.9576 13.9708
5.9125 7.82463 7.83838 11.9229 11.9265 13.8178 13.8316
5.9225 7.75813 7.77332 11.7696 11.7715 13.6735 13.6878
5.9325 7.69414 7.71082 11.615 11.6151 13.524 13.5388
5.9425 7.63152 7.64976 11.4592 11.4574 13.3687 13.3841
5.9525 7.56898 7.5888 11.3023 11.2987 13.2069 13.2227
5.9625 7.50497 7.52635 11.1441 11.1386 13.0375 13.0537
5.9725 7.43789 7.46076 10.9842 10.9771 12.8597 12.8761
5.9825 7.36617 7.39042 10.8224 10.8138 12.6724 12.689
5.9925 7.28844 7.31395 10.6584 10.6485 12.4749 12.4916
6.0025 7.20357 7.23018 10.4919 10.4809 12.2668 12.2834
6.0125 7.11058 7.13809 10.3228 10.311 12.0475 12.0639
6.0225 7.00852 7.03673 10.1506 10.1382 11.8169 11.8329
6.0325 6.89641 6.9251 9.97457 9.96201 11.5742 11.5898
6.0425 6.77322 6.80217 9.79384 9.78138 11.3192 11.334
6.0525 6.63794 6.66695 9.6072 9.59514 11.051 11.065
6.0625 6.48973 6.51857 9.41335 9.402 10.7692 10.7823
6.0725 6.32807 6.35655 9.2111 9.20074 10.4735 10.4856
6.0825 6.15296 6.1809 8.99949 8.99037 10.1641 10.1751
6.0925 5.96484 5.99209 8.77784 8.77017 9.84145 9.85125
6.1025 5.76449 5.79094 8.54557 8.53951 9.50635 9.5149
6.1125 5.55281 5.57833 8.30208 8.29773 9.15954 9.16684
6.1225 5.33134 5.3552 8.04684 8.04428 8.80189 8.8079
6.1325 5.10102 5.12281 7.7795 7.77873 8.43447 8.43921
6.1425 4.86291 4.88313 7.50032 7.50127 8.0589 8.06241
6.1525 4.61971 4.63879 7.21039 7.2129 7.67749 7.67989
6.1625 4.37531 4.3932 6.9117 6.91554 7.2934 7.29482
6.1725 4.13368 4.15047 6.60699 6.61188 6.91039 6.91096
6.1825 3.8986 3.91483 6.29939 6.30495 6.53221 6.53199
6.1925 3.67388 3.69011 5.99192 5.99765 6.16233 6.16197
6.2025 3.46277 3.47941 5.68713 5.69254 5.80393 5.80363
6.2125 3.26736 3.28476 5.38696 5.39166 5.45935 5.45905
6.2225 3.08856 3.10722 5.09276 5.09631 5.12977 5.12938
6.2325 2.92635 2.9466 4.80515 4.80709 4.81516 4.81488
6.2425 2.77946 2.8015 4.5239 4.52379 4.51454 4.51465
6.2525 2.64525 2.66932 4.2479 4.24538 4.22597 4.22673
6.2625 2.52012 2.54646 3.97533 3.97016 3.94675 3.94827
6.2725 2.40021 2.42895 3.70426 3.69626 3.67385 3.67611
6.2825 2.28184 2.313 3.43304 3.42214 3.40434 3.40733
6.2925 2.16163 2.1952 3.16043 3.14664 3.13558 3.13936
6.3025 2.03669 2.0726 2.88563 2.86904 2.86544 2.87007
6.3125 1.90463 1.94283 2.60822 2.58904 2.5923 2.59776
6.3225 1.76378 1.8048 2.32803 2.3076 2.31502 2.32091
6.3325 1.61359 1.65636 2.04515 2.02356 2.03298 2.03913
6.3425 1.45294 1.49706 1.76034 1.73781 1.74565 1.752
6.3525 1.28109 1.3281 1.47414 1.45066 1.45286 1.45942
6.3625 1.09806 1.15407 1.1872 1.1619 1.15479 1.16185
6.3725 0.904445 0.967085 0.900667 0.873857 0.851772 0.859387
6.3825 0.70165 0.770862 0.614933 0.587025 0.544472 0.552348
6.3925 0.490272 0.565229 0.33065 0.30214 0.233647 0.241654
6.4025 0.270983 0.351625 0.048697 0.0199798 -0.0800787 -0.0722467
6.4125 0.0452245 0.131147 -0.230275 -0.259155 -0.396086 -0.388417
6.4225 -0.185224 -0.0950301 -0.50601 -0.53489 -0.713877 -0.706378
6.4325 -0.419857 -0.32512 -0.778587 -0.807428 -1.03302 -1.02558
6.4425 -0.658208 -0.559072 -1.04802 -1.0766 -1.35289 -1.34551
6.4525 -0.898458 -0.794991 -1.31413 -1.34233 -1.67253 -1.66537
6.4625 -1.13836 -1.03114 -1.57635 -1.60404 -1.99063 -1.98386
6.4725 -1.37594 -1.26519 -1.8339 -1.861 -2.30571 -2.29941
6.4825 -1.60937 -1.49499 -2.0862 -2.11267 -2.61644 -2.61052
6.4925 -1.83691 -1.71891 -2.33303 -2.35891 -2.92181 -2.91621
6.5025 -2.05726 -1.93574 -2.57459 -2.59997 -3.22117 -3.21586
6.5125 -2.26956 -2.14449 -2.81122 -2.83624 -3.51405 -3.50905
6.5225 -2.47302 -2.34419 -3.04314 -3.06796 -3.8 -3.79532
6.5325 -2.66655 -2.53375 -3.2703 -3.29513 -4.07843 -4.07398
6.5425 -2.84883 -2.71187 -3.49223 -3.51726 -4.34843 -4.3441
6.5525 -3.01834 -2.87696 -3.70808 -3.73329 -4.6087 -4.60448
6.5625 -3.17353 -3.02748 -3.91675 -3.94229 -4.85777 -4.85363
6.5725 -3.31319 -3.16221 -4.11711 -4.14317 -5.0945 -5.09042
6.5825 -3.43696 -3.28084 -4.3087 -4.33552 -5.31852 -5.31446
6.5925 -3.54559 -3.38423 -4.49204 -4.51988 -5.53055 -5.5264
6.6025 -3.64073 -3.47431 -4.66836 -4.69756 -5.73218 -5.7278
6.6125 -3.72491 -3.55343 -4.83922 -4.86996 -5.9253 -5.92064
6.6225 -3.80061 -3.62381 -5.00599 -5.03838 -6.11165 -6.10669
6.6325 -3.86969 -3.68743 -5.1695 -5.20359 -6.29262 -6.28738
6.6425 -3.9337 -3.74603 -5.33016 -5.36602 -6.46935 -6.46381
6.6525 -3.99434 -3.80129 -5.48827 -5.52599 -6.6429 -6.63703
6.6625 -4.05343 -3.85498 -5.64424 -5.68384 -6.81437 -6.80812
6.6725 -4.11246 -3.90867 -5.7983 -5.83971 -6.98462 -6.978
6.6825 -4.17235 -3.96341 -5.95015 -5.99327 -7.15398 -7.14706
6.6925 -4.23355 -4.01966 -6.099 -6.14371 -7.32231 -7.31515
6.7025 -4.2963 -4.07769 -6.24397 -6.29016 -7.48932 -7.48197
6.7125 -4.36103 -4.138 -6.38453 -6.43204 -7.65498 -7.64746
6.7225 -4.42847 -4.20136 -6.5206 -6.56925 -7.81959 -7.81193
6.7325 -4.49958 -4.26874 -6.65247 -6.70203 -7.98365 -7.97593
6.7425 -4.57521 -4.341 -6.78049 -6.83074 -8.14762 -8.13994
6.7525 -4.65585 -4.41855 -6.90487 -6.95559 -8.31174 -8.30419
6.7625 -4.74146 -4.50126 -7.02547 -7.0765 -8.47578 -8.46843
6.7725 -4.83133 -4.58861 -7.14172 -7.19282 -8.63896 -8.63185
6.7825 -4.92412 -4.67921 -7.25265 -7.30364 -8.79991 -8.79308
6.7925 -5.01809 -4.77135 -7.35708 -7.40775 -8.95696 -8.95048
6.8025 -5.11137 -4.86318 -7.45386 -7.50399 -9.10835 -9.10232
6.8125 -5.20224 -4.95292 -7.54209 -7.59148 -9.25248 -9.24696
6.8225 -5.28929 -5.03916 -7.6213 -7.66979 -9.38813 -9.38316
6.8325 -5.37159 -5.12093 -7.69155 -7.73902 -9.51454 -9.51015
6.8425 -5.44856 -5.19761 -7.75327 -7.79968 -9.63132 -9.62751
6.8525 -5.51986 -5.2688 -7.80719 -7.85249 -9.73831 -9.73508
6.8625 -5.58533 -5.33431 -7.85419 -7.89838 -9.8355 -9.83286
6.8725 -5.64503 -5.39412 -7.8953 -7.93841 -9.92314 -9.92105
6.8825 -5.69925 -5.44851 -7.93178 -7.97389 -10.0017 -10.0001
6.8925 -5.74833 -5.49801 -7.96501 -8.00621 -10.0719 -10.0708
6.9025 -5.79307 -5.54328 -7.99645 -8.03686 -10.1345 -10.1338
6.9125 -5.83455 -5.58494 -8.02745 -8.06721 -10.1904 -10.19
6.9225 -5.87327 -5.62352 -8.0591 -8.09839 -10.2403 -10.2401
6.9325 -5.90925 -5.65926 -8.09206 -8.13105 -10.2844 -10.2843
6.9425 -5.94228 -5.69192 -8.12645 -8.16533 -10.3228 -10.3227
6.9525 -5.97195 -5.72091 -8.16188 -8.20085 -10.3549 -10.3548
6.9625 -5.99735 -5.74536 -8.19755 -8.23681 -10.3801 -10.3798
6.9725 -6.01728 -5.76417 -8.23225 -8.27203 -10.3974 -10.3968
6.9825 -6.03039 -5.77607 -8.26446 -8.30498 -10.4056 -10.4046
6.9925 -6.03526 -5.7796 -8.29237 -8.33382 -10.4034 -10.4018
7.0025 -6.03045 -5.77334 -8.31393 -8.3565 -10.3893 -10.3871
7.0125 -6.01455 -5.75596 -8.32704 -8.37092 -10.3619 -10.3591
7.0225 -5.98642 -5.72642 -8.32973 -8.37505 -10.3202 -10.3166
7.0325 -5.94541 -5.68411 -8.32029 -8.36716 -10.2634 -10.259
7.0425 -5.89133 -5.62889 -8.29735 -8.34583 -10.1911 -10.1858
7.0525 -5.82432 -5.56101 -8.2598 -8.30986 -10.1031 -10.097
7.0625 -5.74474 -5.48086 -8.20683 -8.25789 -9.99969 -9.99297
7.0725 -5.65315 -5.38929 -8.13787 -8.18984 -9.88108 -9.87379
7.0825 -5.55055 -5.28735 -8.05237 -8.10531 -9.74802 -9.74019
7.0925 -5.43866 -5.17666 -7.95059 -8.00452 -9.60175 -9.5934
7.1025 -5.31968 -5.05934 -7.83367 -7.88841 -9.44397 -9.43511
7.1125 -5.19618 -4.93812 -7.70329 -7.75846 -9.27688 -9.26765
7.1225 -5.07113 -4.816 -7.56146 -7.61672 -9.10307 -9.09363
7.1325 -4.94751 -4.69587 -7.41028 -7.46528 -8.92511 -8.91565
7.1425 -4.82787 -4.58027 -7.25189 -7.30625 -8.74533 -8.73598
7.1525 -4.71411 -4.47115 -7.08815 -7.14141 -8.56553 -8.55642
7.1625 -4.60742 -4.36966 -6.92043 -6.97212 -8.38682 -8.37809
7.1725 -4.50812 -4.27604 -6.74949 -6.79918 -8.20952 -8.20133
7.1825 -4.41555 -4.1896 -6.57547 -6.62282 -8.03317 -8.02567
7.1925 -4.32823 -4.10885 -6.39804 -6.44272 -7.85663 -7.84994
7.2025 -4.24423 -4.03179 -6.21664 -6.25837 -7.67838 -7.67256
7.2125 -4.1614 -3.95622 -6.03064 -6.06919 -7.49672 -7.49184
7.2225 -4.07762 -3.87995 -5.83957 -5.87481 -7.31004 -7.30612
7.2325 -3.99096 -3.80099 -5.64323 -5.67511 -7.11694 -7.11401
7.2425 -3.8998 -3.71764 -5.44174 -5.47028 -6.91635 -6.9144
7.2525 -3.80281 -3.62847 -5.23545 -5.26072 -6.70746 -6.70643
7.2625 -3.69886 -3.53228 -5.02483 -5.04697 -6.48965 -6.48945
7.2725 -3.58705 -3.4281 -4.81044 -4.82966 -6.26249 -6.26303
7.2825 -3.46667 -3.31516 -4.59285 -4.60941 -6.02568 -6.02685
7.2925 -3.33717 -3.19284 -4.37258 -4.38677 -5.77905 -5.78072
7.3025 -3.19819 -3.06073 -4.15007 -4.16224 -5.52253 -5.52455
7.3125 -3.04948 -2.91856 -3.92567 -3.93616 -5.25615 -5.25835
7.3225 -2.89095 -2.76623 -3.69957 -3.70875 -4.97997 -4.9822
7.3325 -2.72266 -2.60379 -3.47184 -3.48008 -4.69416 -4.69626
7.3425 -2.54482 -2.43148 -3.24243 -3.25009 -4.39897 -4.40078
7.3525 -2.35791 -2.24977 -3.01127 -3.01868 -4.09483 -4.0962
7.3625 -2.16274 -2.05954 -2.77839 -2.78585 -3.78245 -3.78326
7.3725 -1.96053 -1.86205 -2.544 -2.55176 -3.46287 -3.46301
7.3825 -1.75285 -1.65889 -2.30844 -2.31669 -3.13743 -3.1368
7.3925 -1.54123 -1.45167 -2.07189 -2.08079 -2.80741 -2.80594
7.4025 -1.32693 -1.24172 -1.83415 -1.84377 -2.47377 -2.47143
7.4125 -1.11074 -1.03054 -1.5946 -1.60481 -2.13708 -2.13388
7.4225 -0.893154 -0.818089 -1.35257 -1.36317 -1.79752 -1.79358
7.4325 -0.674829 -0.605108 -1.10731 -1.11816 -1.45525 -1.45088
7.4425 -0.456455 -0.392206 -0.857986 -0.868944 -1.11095 -1.10646
7.4525 -0.23863 -0.1765 -0.603954 -0.615286 -0.765328 -0.760399
7.4625 -0.0225604 0.0416283 -0.344302 -0.357386 -0.418822 -0.412771
7.4725 0.191452 0.255533 -0.0781467 -0.0923722 -0.0716084 -0.0644938
7.4825 0.404541 0.468478 0.194404 0.179539 0.276552 0.284362
7.4925 0.616037 0.679556 0.473964 0.45888 0.625682 0.633881
7.5025 0.825033 0.887964 0.761423 0.746579 0.975437 0.983667
7.5125 1.03175 1.09446 1.05702 1.04229 1.32546 1.33389
7.5225 1.23632 1.29825 1.3605 1.34616 1.67541 1.68414
7.5325 1.43824 1.49874 1.67124 1.6574 2.025 2.03398
7.5425 1.63671 1.69567 1.98865 1.97518 2.3737 2.3828
7.5525 1.83125 1.8886 2.31187 2.29886 2.7208 2.72976
7.5625 2.02179 2.0773 2.63985 2.62766 3.06592 3.07472
7.5725 2.20885 2.26251 2.97203 2.96121 3.40935 3.41791
7.5825 2.39373 2.44531 3.30868 3.29946 3.75193 3.76015
7.5925 2.5778 2.62706 3.65012 3.64245 4.09465 4.10238
7.6025 2.76206 2.80895 3.99605 3.98989 4.43818 4.44537
7.6125 2.94701 2.99151 4.34539 4.34087 4.78262 4.78926
7.6225 3.1325 3.17452 4.6964 4.69369 5.12737 5.13347
7.6325 3.31801 3.35721 5.04701 5.04613 5.47137 5.47691
7.6425 3.50263 3.53898 5.39522 5.39605 5.81367 5.81862
7.6525 3.68607 3.71988 5.73954 5.742 6.15389 6.15827
7.6625 3.86907 3.90052 6.07915 6.08318 6.49225 6.49613
7.6725 4.05274 4.08185 6.4137 6.41922 6.82932 6.8328
7.6825 4.23808 4.26501 6.74315 6.74999 7.16592 7.16907
7.6925 4.42611 4.4512 7.06766 7.0756 7.50291 7.50581
7.7025 4.61804 4.6416 7.38753 7.39632 7.84119 7.84394
7.7125 4.81506 4.83734 7.70321 7.71264 8.18166 8.18437
7.7225 5.01823 5.03953 8.0154 8.02522 8.52525 8.52806
7.7325 5.2286 5.24921 8.325 8.33493 8.87294 8.87597
7.7425 5.44713 5.46731 8.63304 8.64279 9.22566 9.22902
7.7525 5.67448 5.6945 8.94056 8.94985 9.58414 9.58795
7.7625 5.91075 5.93088 9.2483 9.25689 9.94869 9.95305
7.7725 6.15523 6.17571 9.55648 9.56412 10.3189 10.3239
7.7825 6.40621 6.42721 9.8645 9.871 10.6933 10.6991
7.7925 6.66094 6.68271 10.171 10.1762 11.0699 11.0766
7.8025 6.91599 6.93907 10.4744 10.4782 11.4463 11.4536
7.8125 7.16859 7.1928 10.7729 10.7754 11.8197 11.8276
7.8225 7.41641 7.44044 11.0655 11.0668 12.1877 12.1962
7.8325 7.65725 7.68136 11.3513 11.3515 12.5486 12.5579
7.8425 7.88933 7.91373 11.6303 11.6295 12.9016 12.9117
7.8525 8.11188 8.13645 11.9028 11.9011 13.246 13.2567
7.8625 8.32456 8.34916 12.1691 12.1667 13.5816 13.5928
7.8725 8.52676 8.55108 12.4296 12.4266 13.9078 13.9195
7.8825 8.71795 8.74199 12.6847 12.6813 14.2244 14.2366
7.8925 8.89791 8.92162 12.9346 12.9309 14.5312 14.5439
7.9025 9.06654 9.08963 13.1794 13.1757 14.828 14.841
7.9125 9.22363 9.24592 13.4191 13.4155 15.1144 15.1276
7.9225 9.36906 9.39044 13.6534 13.6501 15.3903 15.4037
7.9325 9.50291 9.52319 13.8822 13.8795 15.6554 15.6689
7.9425 9.6255 9.64446 14.1053 14.1034 15.9096 15.9232
7.9525 9.73728 9.75472 14.3222 14.3213 16.1531 16.1666
7.9625 9.83884 9.85461 14.5328 14.5329 16.3858 16.3993
7.9725 9.93101 9.94499 14.7366 14.738 16.6082 16.6215
7.9825 10.0148 10.0269 14.9336 14.9363 16.8206 16.8337
7.9925 10.09 10.0999 15.1239 15.1264 17.0238 17.0371
8.0025 10.157 10.1673 15.3081 15.3111 17.2185 17.232
8.015 10.2357 10.2459 15.5314 15.5356 17.4519 17.4652
8.0275 10.3129 10.3208 15.75 15.7549 17.6765 17.6897
8.04 10.3891 10.3961 15.9661 15.9715 17.895 17.9082
8.0525 10.4674 10.4739 16.1806 16.1866 18.1089 18.1222
8.065 10.5494 10.5547 16.3931 16.3999 18.3184 18.3315
8.0775 10.633 10.6372 16.6018 16.6093 18.5218 18.5347
8.09 10.716 10.7197 16.8044 16.8122 18.7168 18.7296
8.1025 10.798 10.8009 16.9986 17.007 18.902 18.9147
8.115 10.8783 10.8803 17.1835 17.1924 19.0769 19.0894
8.1275 10.9561 10.9576 17.3583 17.3676 19.2408 19.2531
8.14 11.0305 11.0312 17.5212 17.5309 19.3923 19.4044
8.1525 11.0984 11.0984 17.669 17.679 19.5285 19.5405
8.165 11.1565 11.156 17.7982 17.8085 19.6463 19.6582
8.1775 11.2026 11.2016 17.9065 17.9171 19.7437 19.7554
8.19 11.2364 11.2349 17.9931 18.0039 19.8202 19.8317
8.2025 11.2591 11.2572 18.0588 18.0699 19.8768 19.8882
8.215 11.2728 11.2705 18.1054 18.1168 19.9156 19.927
8.2275 11.2797 11.2772 18.1348 18.1464 19.9387 19.95
8.24 11.2822 11.2795 18.1491 18.1608 19.9483 19.9595
8.2525 11.2831 11.2804 18.151 18.1627 19.9472 19.9584
8.265 11.2855 11.2829 18.1437 18.1551 19.9385 19.9497
8.2775 11.2918 11.2897 18.13 18.1409 19.9251 19.9364
8.29 11.3034 11.3021 18.1122 18.1222 19.9086 19.9201
8.3025 11.3202 11.3197 18.091 18.0999 19.8892 19.901
8.315 11.3402 11.3408 18.0663 18.0739 19.866 19.8781
8.3275 11.3609 11.3629 18.0373 18.0434 19.8373 19.8498
8.34 11.3804 11.3839 18.0037 18.0083 19.8019 19.8148
8.3525 11.3972 11.4021 17.966 17.9691 19.7593 19.7724
8.365 11.41 11.4163 17.9248 17.9264 19.7092 19.7226
8.3775 11.4179 11.4256 17.8809 17.8812 19.6516 19.6652
8.39 11.4203 11.4291 17.8352 17.8344 19.5868 19.6005
8.4025 11.4162 11.4259 17.7883 17.7866 19.5147 19.5284
8.415 11.4043 11.4147 17.7399 17.7376 19.4351 19.4486
8.4275 11.3833 11.3942 17.6895 17.6869 19.3472 19.3604
8.44 11.3515 11.3625 17.6357 17.6331 19.25 19.2629
8.4525 11.3069 11.3179 17.5768 17.5745 19.1423 19.1546
8.465 11.2481 11.2587 17.5106 17.509 19.0228 19.0345
8.4775 11.1744 11.1845 17.4358 17.4352 18.8912 18.9022
8.49 11.0873 11.0967 17.3525 17.3531 18.749 18.7591
8.5025 10.9897 10.9982 17.2618 17.2639 18.5987 18.608
8.515 10.8852 10.8927 17.1656 17.1691 18.4437 18.4521
8.5275 10.7774 10.7841 17.0653 17.0703 18.2873 18.2948
8.54 10.6698 10.6756 16.9623 16.9687 18.1322 18.139
8.5525 10.565 10.5699 16.8572 16.8649 17.9805 17.9867
8.565 10.4641 10.468 16.7495 16.7582 17.8331 17.8386
8.5775 10.3657 10.369 16.637 16.6464 17.6885 17.6937
8.59 10.2672 10.2702 16.516 16.5258 17.544 17.5489
8.6025 10.1648 10.1675 16.3819 16.3919 17.3953 17.4001
8.615 10.054 10.0567 16.2302 16.2401 17.2381 17.2429
8.6275 9.93152 9.93446 16.0573 16.0669 17.0688 17.0738
8.64 9.79528 9.79852 15.8612 15.8703 16.8849 16.8902
8.6525 9.64479 9.64844 15.6414 15.6498 16.6855 16.6913
8.665 9.48123 9.48548 15.3994 15.4071 16.4713 16.4777
8.6775 9.30687 9.31185 15.1379 15.1446 16.2439 16.2509
8.69 9.1245 9.13034 14.8601 14.8656 16.0052 16.0131
8.7025 8.93719 8.94405 14.5699 14.574 15.7578 15.7665
8.715 8.74819 8.7562 14.2712 14.2738 15.5041 15.5137
8.7275 8.56057 8.56984 13.9682 13.9691 15.2465 15.2572
8.74 8.377 8.38767 13.6649 13.664 14.9873 14.999
8.7525 8.19971 8.21186 13.3649 13.3621 14.7282 14.7409
8.765 8.03036 8.04406 13.0716 13.0667 14.4707 14.4843
8.7775 7.87004 7.88533 12.7877 12.7808 14.2156 14.2301
8.79 7.71912 7.736 12.5155 12.5066 13.9635 13.9788
8.8025 7.57725 7.59567 12.2565 12.2457 13.7142 13.7302
8.815 7.44363 7.46354 12.0116 11.9991 13.4674 13.4838
8.8275 7.31724 7.33867 11.7816 11.7677 13.2225 13.2393
8.84 7.19727 7.21997 11.567 11.5518 12.9792 12.9961
8.8525 7.08246 7.10612 11.3674 11.3513 12.7369 12.7536
8.865 6.97107 6.99549 11.1823 11.1656 12.4946 12.5109
8.8775 6.8611 6.886 11.0099 10.9931 12.2511 12.2669
8.89 6.75 6.77507 10.8479 10.8313 12.0046 12.0196
8.9025 6.63465 6.65963 10.6927 10.6768 11.7529 11.7669
8.915 6.51164 6.53627 10.5403 10.5254 11.4933 11.5061
8.9275 6.37783 6.40165 10.386 10.3725 11.2231 11.2345
8.94 6.2309 6.2533 10.2255 10.2138 10.9404 10.9503
8.9525 6.06946 6.09033 10.0558 10.0462 10.6446 10.6529
8.965 5.89454 5.91379 9.87521 9.86789 10.3369 10.3435
8.9775 5.7095 5.72693 9.68417 9.67919 10.0204 10.0253
8.99 5.51889 5.53456 9.48437 9.48168 9.69966 9.70302
9.0025 5.32759 5.34173 9.27786 9.27725 9.37949 9.38132
9.015 5.13973 5.15258 9.0662 9.06731 9.06338 9.06388
9.0275 4.95798 4.97004 8.84987 8.8521 8.75374 8.75378
9.04 4.78402 4.7961 8.62881 8.63167 8.4528 8.45239
9.0525 4.61949 4.63168 8.40349 8.40661 8.16235 8.16126
9.065 4.4659 4.47862 8.17488 8.17772 7.88365 7.88212
9.0775 4.32431 4.33792 7.9443 7.94631 7.61786 7.61642
9.09 4.1956 4.21054 7.71328 7.71389 7.36634 7.36532
9.1025 4.08048 4.09702 7.4839 7.48265 7.13055 7.12991
9.115 3.97971 3.99811 7.25908 7.25552 6.91186 6.91176
9.1275 3.89409 3.91409 7.04211 7.03598 6.71162 6.71238
9.14 3.8232 3.84506 6.83549 6.82649 6.53036 6.53221
9.1525 3.7643 3.78806 6.64007 6.62805 6.36662 6.36953
9.165 3.71297 3.73863 6.45497 6.43986 6.21699 6.22095
9.1775 3.66414 3.69237 6.2786 6.26167 6.07738 6.08219
9.19 3.61458 3.64468 6.10883 6.09133 5.94438 5.94957
9.2025 3.55999 3.5902 5.94516 5.92622 5.8145 5.82014
9.215 3.49361 3.52534 5.78469 5.76417 5.68361 5.68977
9.2275 3.41161 3.4448 5.62293 5.60174 5.54705 5.55382
9.24 3.30971 3.34294 5.45568 5.43441 5.3997 5.40678
9.2525 3.18187 3.21507 5.27899 5.25765 5.23657 5.24368
9.265 3.02485 3.05804 5.089 5.06793 5.05374 5.06089
9.2775 2.83851 2.8706 4.88296 4.86301 4.84893 4.85608
9.29 2.62354 2.65367 4.65983 4.64165 4.62174 4.62864
9.3025 2.38206 2.41017 4.41979 4.4037 4.37329 4.37964
9.315 2.11861 2.14436 4.16347 4.14982 4.10558 4.11132
9.3275 1.83824 1.86168 3.89182 3.88086 3.8212 3.82639
9.34 1.54546 1.5678 3.60593 3.5973 3.52282 3.52757
9.3525 1.24552 1.26636 3.30704 3.30065 3.21328 3.21756
9.365 0.944647 0.964267 2.99699 2.9926 2.89623 2.90017
9.3775 0.64921 0.667837 2.6789 2.67626 2.5759 2.5796
9.39 0.365363 0.383402 2.35592 2.35443 2.25626 2.25992
9.4025 0.097692 0.115467 2.03021 2.02924 1.94006 1.94387
9.415 -0.151756 -0.133751 1.70234 1.70126 1.62799 1.63215
9.4275 -0.383189 -0.364241 1.37128 1.36987 1.31857 1.32319
9.44 -0.596966 -0.575904 1.03548 1.03361 1.00954 1.0146
9.4525 -0.795305 -0.764166 0.694663 0.690581 0.699366 0.705294
9.465 -0.978643 -0.937679 0.350574 0.343828 0.387691 0.394754
9.4775 -1.14466 -1.09406 0.00494502 -0.00475618 0.0754484 0.0836763
9.49 -1.29457 -1.23396 -0.339904 -0.35246 -0.237395 -0.228269
9.5025 -1.43161 -1.36025 -0.683181 -0.699181 -0.55293 -0.542803
9.515 -1.55965 -1.47755 -1.02588 -1.04559 -0.874702 -0.863444
9.5275 -1.68403 -1.59123 -1.3697 -1.39303 -1.20651 -1.19415
9.54 -1.81043 -1.70669 -1.71597 -1.74276 -1.55201 -1.53881
9.5525 -1.94386 -1.82926 -2.06586 -2.09607 -1.91485 -1.901
9.565 -2.08949 -1.96432 -2.42104 -2.45445 -2.29871 -2.2843
9.5775 -2.25254 -2.11695 -2.78341 -2.8196 -2.70693 -2.6921
9.59 -2.43732 -2.29157 -3.15456 -3.19307 -3.14214 -3.12723
9.6025 -2.64705 -2.49152 -3.53565 -3.57604 -3.60619 -3.59154
9.615 -2.88371 -2.71832 -3.92728 -3.9691 -4.09982 -4.08565
9.6275 -3.14733 -2.97238 -4.32885 -4.37158 -4.62198 -4.60847
9.64 -3.43539 -3.25118 -4.73816 -4.78131 -5.16935 -5.15677
9.6525 -3.74312 -3.54998 -5.15134 -5.19449 -5.73661 -5.72528
9.665 -4.06412 -3.86237 -5.56338 -5.60627 -6.31766 -6.30739
9.6775 -4.39141 -4.18149 -5.96968 -6.0121 -6.90525 -6.89569
9.69 -4.71859 -4.501 -6.36646 -6.40809 -7.49235 -7.48407
9.7025 -5.04031 -4.81556 -6.75102 -6.79183 -8.07365 -8.06709
9.715 -5.35273 -5.12121 -7.12218 -7.16223 -8.64557 -8.64055
9.7275 -5.65348 -5.41539 -7.48042 -7.51971 -9.20553 -9.20172
9.74 -5.94136 -5.69683 -7.82723 -7.86573 -9.75166 -9.74914
9.7525 -6.21585 -5.9649 -8.16448 -8.20223 -10.2828 -10.2818
9.765 -6.47609 -6.219 -8.49368 -8.53079 -10.798 -10.7985
9.7775 -6.72147 -6.45792 -8.81556 -8.85211 -11.2957 -11.2974
9.79 -6.95069 -6.68005 -9.1299 -9.16602 -11.7733 -11.7761
9.8025 -7.16193 -6.884 -9.43614 -9.47201 -12.2285 -12.2324
9.815 -7.35378 -7.06898 -9.73361 -9.76999 -12.6596 -12.6644
9.8275 -7.52653 -7.23475 -10.0221 -10.0595 -13.0654 -13.0707
9.84 -7.68107 -7.38154 -10.3019 -10.3406 -13.4451 -13.4506
9.8525 -7.81831 -7.51023 -10.5734 -10.6137 -13.7987 -13.8044
9.865 -7.94099 -7.62508 -10.8373 -10.8796 -14.1275 -14.1332
9.8775 -8.05304 -7.72912 -11.0956 -11.1415 -14.4348 -14.4392
9.89 -8.15886 -7.82697 -11.3507 -11.4 -14.7231 -14.7257
9.9025 -8.24923 -8.24929 -11.6106 -11.6067 -14.994 -15.009
9.915 -8.32083 -8.21926 -11.9088 -11.8972 -15.2414 -15.2727
9.9275 -8.45551 -8.37096 -12.1708 -12.1751 -15.4871 -15.5119
9.94 -8.55851 -8.45716 -12.451 -12.4804 -15.7303 -15.745
9.9525 -8.6632 -8.58387 -12.7642 -12.7857 -15.9637 -15.9742
9.965 -8.8034 -8.71059 -13.0864 -13.1046 -16.1871 -16.2021
9.9775 -8.95166 -8.85318 -13.4061 -13.4326 -16.4122 -16.4289
9.99 -9.10525 -9.01449 -13.7352 -13.7677 -16.6433 -16.6544
10.0025 -9.27973 -9.18784 -14.0742 -14.1079 -16.8747 -16.88
10.015 -9.46964 -9.37376 -14.4152 -14.4475 -17.1011 -17.1076
10.0275 -9.66451 -9.56989 -14.7542 -14.7882 -17.3241 -17.3324
10.04 -9.86606 -9.77211 -15.0887 -15.1237 -17.5461 -17.5528
10.0525 -10.0726 -9.97677 -15.4171 -15.4523 -17.7643 -17.7671
10.065 -10.2787 -10.1828 -15.737 -15.7721 -17.9754 -17.9771
10.0775 -10.4848 -10.3897 -16.0481 -16.0836 -18.1815 -18.1838
10.09 -10.6929 -10.5973 -16.3517 -16.3875 -18.3871 -18.389
10.1025 -10.9018 -10.806 -16.649 -16.6847 -18.5947 -18.5945
10.115 -11.1106 -11.0152 -16.94 -16.9754 -18.8039 -18.8022
10.1275 -11.3191 -11.2239 -17.2245 -17.2599 -19.015 -19.0133
10.14 -11.5262 -11.4311 -17.503 -17.5383 -19.2301 -19.2283
10.1525 -11.7307 -11.6359 -17.776 -17.8108 -19.4507 -19.4479
10.165 -11.9324 -11.838 -18.0439 -18.0784 -19.6774 -19.6734
10.1775 -12.1313 -12.037 -18.3078 -18.342 -19.9107 -19.9065
10.19 -12.3268 -12.2328 -18.5688 -18.6026 -20.1521 -20.148
10.2025 -12.5182 -12.4244 -18.8272 -18.8606 -20.4024 -20.3982
10.215 -12.7041 -12.6105 -19.0828 -19.1157 -20.6611 -20.6566
10.2275 -12.8827 -12.7891 -19.3349 -19.3674 -20.9267 -20.9224
10.24 -13.0519 -12.9583 -19.5825 -19.6146 -21.198 -21.1941
10.2525 -13.2092 -13.1155 -19.8239 -19.8556 -21.4729 -21.4694
10.265 -13.3515 -13.2575 -20.0568 -20.0883 -21.7487 -21.7455
10.2775 -13.4758 -13.3814 -20.2787 -20.31 -22.0221 -22.0193
10.29 -13.5797 -13.4847 -20.4874 -20.5188 -22.2901 -22.288
10.3025 -13.6621 -13.5664 -20.6818 -20.7132 -22.551 -22.5496
10.315 -13.7234 -13.6267 -20.8616 -20.8933 -22.804 -22.8032
10.3275 -13.7647 -13.6669 -21.0272 -21.0594 -23.0487 -23.0486
10.34 -13.7876 -13.6886 -21.1794 -21.2121 -23.2849 -23.2856
10.3525 -13.794 -13.6937 -21.3186 -21.3518 -23.5125 -23.514
10.365 -13.7853 -13.6836 -21.4447 -21.4786 -23.7308 -23.7332
10.3775 -13.7627 -13.6595 -21.5572 -21.5919 -23.9385 -23.9417
10.39 -13.7273 -13.6226 -21.6555 -21.691 -24.1342 -24.1384
10.4025 -13.6807 -13.5745 -21.7395 -21.7757 -24.317 -24.3221
10.415 -13.625 -13.5176 -21.812 -21.8467 -24.4866 -24.4926
10.4275 -13.5636 -13.4552 -21.8747 -21.9038 -24.6434 -24.651
10.44 -13.5005 -13.392 -21.9251 -21.9507 -24.7892 -24.7986
10.4525 -13.4398 -13.3314 -21.9638 -21.9893 -24.9266 -24.9371
10.465 -13.3852 -13.2769 -21.9957 -22.0208 -25.0575 -25.0685
10.4775 -13.2995 -13.2224 -22.1172 -22.0943 -25.1842 -25.1925
10.49 -13.1625 -13.1794 -22.3801 -22.0884 -25.3061 -25.3369
10.5025 -13.1346 -13.1287 -22.4084 -22.1198 -25.4369 -25.491
10.515 -13.1135 -13.0559 -22.2737 -22.1678 -25.6026 -25.6432
10.5275 -13.0339 -12.9961 -22.273 -22.1909 -25.7876 -25.7973
10.54 -12.942 -12.9243 -22.4095 -22.1943 -25.9449 -25.9593
10.5525 -12.8567 -12.844 -22.4586 -22.1892 -26.0742 -26.1248
10.565 -12.7686 -12.7477 -22.3729 -22.1811 -26.2161 -26.2756
10.5775 -12.6701 -12.6413 -22.3005 -22.153 -26.3768 -26.4088
10.59 -12.5494 -12.5273 -22.2989 -22.0974 -26.516 -26.5354
10.6025 -12.4168 -12.4076 -22.2759 -22.0238 -26.6169 -26.6604
10.615 -12.2941 -12.2828 -22.1755 -21.944 -26.7109 -26.7748
10.6275 -12.1769 -12.1572 -22.0535 -21.8533 -26.8216 -26.8758
10.64 -12.0534 -12.0376 -21.9625 -21.7472 -26.9294 -26.97
10.6525 -11.9311 -11.9234 -21.878 -21.6319 -27.0108 -27.062
10.665 -11.8218 -11.8151 -21.7596 -21.511 -27.0763 -27.1493
10.6775 -11.7225 -11.7122 -21.6169 -21.3844 -27.1479 -27.2231
10.69 -11.625 -11.6147 -21.4781 -21.2479 -27.2221 -27.2812
10.7025 -11.5271 -11.5201 -21.3425 -21.0995 -27.273 -27.3266
10.715 -11.4292 -11.4241 -21.1883 -20.939 -27.2899 -27.3564
10.7275 -11.3282 -11.3224 -21.0079 -20.764 -27.2853 -27.3613
10.74 -11.2181 -11.212 -20.8111 -20.5717 -27.2647 -27.3341
10.7525 -11.0963 -11.0913 -20.6033 -20.3611 -27.215 -27.2756
10.765 -10.9642 -10.9604 -20.3797 -20.1343 -27.1246 -27.1886
10.7775 -10.8243 -10.8207 -20.1384 -19.8948 -26.9999 -27.0723
10.79 -10.6783 -10.6745 -19.8858 -19.6456 -26.8527 -26.9253
10.8025 -10.5283 -10.5245 -19.6288 -19.3899 -26.6833 -26.7499
10.815 -10.3777 -10.3731 -19.3722 -19.1311 -26.4854 -26.5505
10.8275 -10.2286 -10.2231 -19.1174 -18.8726 -26.2593 -26.3299
10.84 -10.0826 -10.0768 -18.8636 -18.6176 -26.0134 -26.0881
10.8525 -9.94231 -9.9356 -18.6121 -18.3685 -25.7529 -25.8256
10.865 -9.8085 -9.80042 -18.3669 -18.1264 -25.4751 -25.5442
10.8775 -9.67995 -9.67096 -18.1297 -17.8912 -25.1755 -25.245
10.89 -9.55567 -9.54591 -17.8986 -17.6623 -24.8551 -24.9265
10.9025 -9.43508 -9.42413 -17.671 -17.4393 -24.5169 -24.5874
10.915 -9.31838 -9.306 -17.4476 -17.2225 -24.1617 -24.2287
10.9275 -9.20763 -9.19375 -17.2325 -17.0139 -23.79 -23.8543
10.94 -9.10618 -9.09082 -17.0295 -16.8165 -23.4055 -23.4689
10.9525 -9.01754 -9.00062 -16.8404 -16.6336 -23.015 -23.0769
10.965 -8.94474 -8.92594 -16.6668 -16.4676 -22.6236 -22.6823
10.9775 -8.88961 -8.86875 -16.5112 -16.3203 -22.2342 -22.2893
10.99 -8.8532 -8.83045 -16.3756 -16.1926 -21.8494 -21.9017
11.0025 -8.83649 -8.81197 -16.2604 -16.0854 -21.4729 -21.5228
11.015 -8.83987 -8.8134 -16.1653 -15.9992 -21.1084 -21.155
11.0275 -8.86202 -8.83351 -16.0899 -15.933 -20.7574 -20.8002
11.04 -8.89999 -8.8696 -16.0324 -15.8845 -20.4196 -20.4588
11.0525 -8.95002 -8.91785 -15.9901 -15.8508 -20.0934 -20.1288
11.065 -9.00734 -8.97358 -15.9608 -15.8291 -19.7754 -19.8089
11.0775 -9.06782 -9.03283 -15.9401 -15.8147 -19.4661 -19.4987
11.09 -9.12777 -9.09105 -15.9235 -15.8059 -19.1662 -19.1953
11.1025 -9.18436 -9.14595 -15.9099 -15.8002 -18.8743 -18.899
11.115 -9.23619 -9.19618 -15.8998 -15.7972 -18.5895 -18.6111
11.1275 -9.28327 -9.24185 -15.8938 -15.7972 -18.314 -18.3339
11.14 -9.32642 -9.28357 -15.8918 -15.8011 -18.0519 -18.0696
11.1525 -9.36663 -9.32226 -15.8945 -15.8099 -17.8063 -17.8208
11.165 -9.40476 -9.35874 -15.9031 -15.8242 -17.5789 -17.5903
11.1775 -9.44141 -9.39404 -15.9184 -15.8442 -17.3714 -17.3808
11.19 -9.47662 -9.42804 -15.9398 -15.8697 -17.1857 -17.1934
11.2025 -9.50918 -9.45945 -15.9651 -15.8989 -17.0224 -17.0281
11.215 -9.53608 -9.48527 -15.9909 -15.9283 -16.8796 -16.8832
11.2275 -9.55343 -9.5017 -16.0132 -15.9534 -16.7542 -16.7562
11.24 -9.55815 -9.50567 -16.0284 -15.9706 -16.6439 -16.6448
11.2525 -9.54878 -9.49568 -16.0338 -15.9775 -16.548 -16.5481
11.265 -9.52544 -9.47201 -16.0283 -15.9729 -16.4672 -16.4664
11.2775 -9.4897 -9.43623 -16.0124 -15.9574 -16.4029 -16.4014
11.29 -9.44431 -9.39092 -15.9878 -15.9325 -16.3574 -16.3558
11.3025 -9.39236 -9.33926 -15.9561 -15.8999 -16.3335 -16.3321
11.315 -9.33625 -9.28357 -15.9187 -15.8611 -16.3329 -16.3318
11.3275 -9.27711 -9.22503 -15.8761 -15.8165 -16.3558 -16.3552
11.34 -9.21535 -9.16409 -15.8282 -15.766 -16.4012 -16.4019
11.3525 -9.15107 -9.10082 -15.7747 -15.7092 -16.4681 -16.4705
11.365 -9.08386 -9.03475 -15.715 -15.6459 -16.5547 -16.5589
11.3775 -9.01245 -8.96462 -15.6481 -15.575 -16.6579 -16.6642
11.39 -8.93494 -8.88857 -15.5726 -15.495 -16.7739 -16.7825
11.4025 -8.84918 -8.8044 -15.487 -15.4045 -16.8982 -16.9095
11.415 -8.75284 -8.70976 -15.3896 -15.3018 -17.0262 -17.0405
11.4275 -8.64359 -8.60232 -15.2786 -15.1852 -17.1534 -17.1711
11.44 -8.51941 -8.48013 -15.152 -15.0528 -17.2754 -17.2979
11.4525 -8.37874 -8.34105 -15.0077 -14.9038 -17.3898 -17.4142
11.465 -8.22014 -8.18408 -14.8452 -14.7369 -17.492 -17.5173
11.4775 -8.04277 -8.00859 -14.6648 -14.5512 -17.5765 -17.6044
11.49 -7.84667 -7.81399 -14.4654 -14.3459 -17.6405 -17.6723
11.5025 -7.63153 -7.60017 -14.2453 -14.1205 -17.6828 -17.7176
11.515 -7.39819 -7.36824 -14.0049 -13.8755 -17.7019 -17.7384
11.5275 -7.15011 -7.12148 -13.7472 -13.6129 -17.6969 -17.7353
11.54 -6.89267 -6.86526 -13.4764 -13.337 -17.6694 -17.7107
11.5525 -6.63277 -6.60569 -13.1983 -13.0525 -17.623 -17.6674
11.565 -6.37582 -6.3485 -12.9191 -12.7633 -17.5608 -17.6083
11.5775 -6.12574 -6.09898 -12.6388 -12.4736 -17.4851 -17.5358
11.59 -5.88823 -5.86175 -12.3585 -12.1872 -17.3986 -17.4521
11.6025 -5.66827 -5.64127 -12.0834 -11.9077 -17.3035 -17.3593
11.615 -5.46893 -5.44165 -11.8195 -11.6382 -17.2016 -17.2593
11.6275 -5.29326 -5.26602 -11.5695 -11.3819 -17.0936 -17.1537
11.64 -5.14369 -5.11615 -11.3336 -11.141 -16.9803 -17.0429
11.6525 -5.02036 -4.99227 -11.1121 -10.9166 -16.8614 -16.9259
11.665 -4.92162 -4.89295 -10.9058 -10.7085 -16.7351 -16.8006
11.6775 -4.84503 -4.81576 -10.7153 -10.5159 -16.5982 -16.6647
11.69 -4.78751 -4.75759 -10.5387 -10.3378 -16.4474 -16.5151
11.7025 -4.74526 -4.71457 -10.3737 -10.1728 -16.2798 -16.3484
11.715 -4.7139 -4.68344 -10.2179 -10.0205 -16.0925 -16.1607
11.7275 -4.68885 -4.65899 -10.0692 -9.87709 -15.8819 -15.9487
11.74 -4.66632 -4.6367 -9.9255 -9.73898 -15.645 -15.7102
11.7525 -4.64274 -4.61299 -9.78435 -9.60461 -15.3793 -15.4428
11.765 -4.61548 -4.58544 -9.64416 -9.47226 -15.0843 -15.1457
11.7775 -4.58338 -4.5525 -9.50494 -9.34136 -14.7604 -14.8191
11.79 -4.54562 -4.5134 -9.36705 -9.21133 -14.4085 -14.4642
11.8025 -4.50113 -4.46732 -9.22938 -9.08139 -14.0297 -14.0825
11.815 -4.44914 -4.41332 -9.09015 -8.95031 -13.6255 -13.6752
11.8275 -4.38922 -4.35094 -8.94826 -8.81692 -13.198 -13.2442
11.84 -4.32174 -4.28094 -8.80362 -8.68087 -12.7502 -12.7925
11.8525 -4.24836 -4.20501 -8.65645 -8.54228 -12.286 -12.3244
11.865 -4.17126 -4.12527 -8.50731 -8.40185 -11.8091 -11.8423
11.8775 -4.09191 -4.04346 -8.35825 -8.26049 -11.3209 -11.3515
11.89 -4.0123 -3.96218 -8.20824 -8.11721 -10.827 -10.8567
11.9025 -3.93416 -3.88189 -8.05442 -7.97317 -10.3335 -10.3593
11.915 -3.85891 -3.80425 -7.89789 -7.82766 -9.84247 -9.8623
11.9275 -3.78713 -3.73017 -7.74132 -7.68063 -9.35383 -9.36928
11.94 -3.71987 -3.66114 -7.58508 -7.53234 -8.87003 -8.88326
11.9525 -3.65888 -3.59826 -7.4279 -7.38358 -8.39595 -8.4067
11.965 -3.60526 -3.54262 -7.26999 -7.23479 -7.93536 -7.94209
11.9775 -3.55634 -3.49393 -7.11917 -7.08773 -7.48898 -7.49157
11.99 -3.51147 -3.45269 -6.97602 -6.94055 -7.05652 -7.05773
12.0025 -3.47268 -3.41526 -6.82795 -6.79347 -6.64038 -6.64122
12.015 -3.43642 -3.38026 -6.67396 -6.64628 -6.24394 -6.24201
12.0275 -3.39977 -3.34622 -6.52169 -6.49705 -5.86782 -5.86171
12.04 -3.36269 -3.31171 -6.37143 -6.34616 -5.51065 -5.50223
12.0525 -3.32423 -3.27512 -6.21811 -6.19427 -5.17318 -5.1645
12.065 -3.28294 -3.23482 -6.06261 -6.04072 -4.85791 -4.84861
12.0775 -3.23625 -3.18935 -5.90716 -5.88522 -4.56592 -4.55468
12.09 -3.1834 -3.13803 -5.75077 -5.72807 -4.29678 -4.28414
12.1025 -3.12542 -3.08115 -5.59324 -5.5711 -4.05161 -4.03882
12.115 -3.0633 -3.01996 -5.43754 -5.41616 -3.83357 -3.82082
12.1275 -2.99767 -2.95539 -5.28637 -5.26472 -3.64497 -3.63166
12.14 -2.9285 -2.88693 -5.13949 -5.1173 -3.48552 -3.47174
12.1525 -2.85428 -2.81318 -4.99529 -4.97313 -3.35336 -3.33975
12.165 -2.77264 -2.73207 -4.85262 -4.83044 -3.24635 -3.23339
12.1775 -2.68156 -2.64138 -4.71009 -4.68732 -3.16226 -3.15003
12.19 -2.57929 -2.53923 -4.5654 -4.54215 -3.09838 -3.08691
12.2025 -2.46426 -2.42426 -4.4167 -4.39342 -3.05168 -3.04123
12.215 -2.33567 -2.29572 -4.26322 -4.23988 -3.01955 -3.01043
12.2275 -2.19366 -2.15356 -4.10456 -4.08098 -2.9999 -2.99229
12.24 -2.03903 -1.99869 -3.94037 -3.91667 -2.99095 -2.98493
12.2525 -1.87306 -1.83238 -3.77075 -3.74716 -2.99093 -2.98661
12.265 -1.69757 -1.65635 -3.59623 -3.57272 -2.9981 -2.99564
12.2775 -1.51471 -1.47222 -3.41709 -3.39363 -3.01055 -3.01004
12.29 -1.32512 -1.28144 -3.23299 -3.20968 -3.02593 -3.02741
12.3025 -1.12978 -1.08518 -3.04343 -3.02034 -3.04146 -3.04496
12.315 -0.930321 -0.884573 -2.84805 -2.82511 -3.05429 -3.05987
12.3275 -0.728207 -0.681354 -2.64669 -2.62371 -3.06242 -3.07157
12.34 -0.525615 -0.477962 -2.4393 -2.41665 -3.06645 -3.0769
12.3525 -0.325458 -0.276826 -2.22749 -2.20551 -3.06531 -3.07537
12.365 -0.131014 -0.0818362 -2.01375 -1.9917 -3.05688 -3.06803
12.3775 0.0547303 0.10425 -1.79984 -1.77728 -3.04117 -3.05509
12.39 0.229068 0.278646 -1.58683 -1.56409 -3.01933 -3.03522
12.4025 0.391883 0.44103 -1.37868 -1.3525 -2.99062 -3.00721
12.415 0.543363 0.590622 -1.17518 -1.14102 -2.95198 -2.9704
12.4275 0.68269 0.728665 -0.969511 -0.929926 -2.9011 -2.9225
12.44 0.811007 0.856283 -0.758449 -0.718452 -2.83735 -2.86071
12.4525 0.93037 0.974667 -0.544902 -0.505488 -2.7591 -2.78242
12.465 1.04225 1.08531 -0.331404 -0.290122 -2.66251 -2.68581
12.4775 1.14793 1.1897 -0.115927 -0.0719984 -2.54431 -2.56917
12.49 1.24883 1.28934 0.104439 0.148689 -2.40372 -2.43031
12.5025 1.34669 1.38586 0.328689 0.372294 -2.24038 -2.26712
12.515 1.44347 1.4812 0.555411 0.599776 -2.0519 -2.07803
12.5275 1.5415 1.57781 0.786391 0.831918 -1.83494 -1.86128
12.54 1.64338 1.67832 1.0241 1.06963 -1.5877 -1.6148
12.5525 1.75161 1.78522 1.26918 1.31429 -1.30956 -1.33674
12.565 1.86866 1.90103 1.52217 1.56723 -0.999238 -1.02548
12.5775 1.99723 2.0285 1.78515 1.83005 -0.654451 -0.679634
12.59 2.13989 2.17019 2.06045 2.10451 -0.273578 -0.298026
12.6025 2.29828 2.32778 2.34901 2.39183 0.143183 0.119732
12.615 2.47211 2.50095 2.65015 2.69174 0.593784 0.571984
12.6275 2.65847 2.68677 2.96144 3.00161 1.07414 1.05429
12.64 2.85214 2.87999 3.27849 3.31684 1.57782 1.55984
12.6525 3.04678 3.07423 3.59563 3.632 2.09682 2.08085
12.665 3.23579 3.26282 3.90665 3.94106 2.62347 2.61069
12.6775 3.41237 3.43892 4.20527 4.23821 3.15056 3.13888
12.69 3.57014 3.59604 4.48644 4.51798 3.66895 3.65825
12.7025 3.70506 3.73032 4.74663 4.77632 4.17148 4.1632
12.715 3.81596 3.84039 4.98427 5.01227 4.65541 4.65013
12.7275 3.90367 3.92715 5.19951 5.22617 5.1202 5.11711
12.74 3.97005 3.99244 5.39374 5.41922 5.56489 5.56332
12.7525 4.01768 4.03892 5.56876 5.59296 5.98834 5.98872
12.765 4.05 4.07003 5.72672 5.74969 6.39085 6.39375
12.7775 4.07139 4.09018 5.8705 5.89242 6.77426 6.77947
12.79 4.08671 4.10428 6.00356 6.02452 7.14055 7.14753
12.8025 4.10118 4.11733 6.12956 6.14955 7.49128 7.49994
12.815 4.11967 4.1343 6.25209 6.27108 7.82817 7.83877
12.8275 4.1464 4.15998 6.37466 6.39267 8.1534 8.16596
12.84 4.18574 4.19852 6.5005 6.51752 8.46892 8.4831
12.8525 4.24097 4.25305 6.63215 6.64816 8.77563 8.7912
12.865 4.31359 4.32532 6.77108 6.78603 9.07332 9.09028
12.8775 4.404 4.41571 6.91776 6.93164 9.36108 9.37939
12.89 4.51195 4.52369 7.07179 7.08486 9.63871 9.65786
12.9025 4.63638 4.64835 7.23307 7.24545 9.90489 9.92371
12.915 4.77589 4.78828 7.40201 7.41352 10.157 10.176
12.9275 4.9289 4.94197 7.5782 7.5885 10.3936 10.4139
12.94 5.09321 5.10702 7.76086 7.77016 10.6143 10.6355
12.9525 5.26558 5.28061 7.9491 7.95741 10.8179 10.839
12.965 5.44284 5.4592 8.14159 8.14879 11.0016 11.0222
12.9775 5.62177 5.63915 8.33647 8.34267 11.1628 11.1837
12.99 5.79898 5.81732 8.53216 8.53777 11.3011 11.3219
13.0025 5.97201 5.99123 8.7278 8.73317 11.4162 11.4359
13.015 6.13931 6.15908 8.92292 8.92832 11.5082 11.5265
13.0275 6.29974 6.31979 9.11719 9.12297 11.5778 11.5948
13.04 6.45261 6.47285 9.31053 9.31712 11.6271 11.6426
13.0525 6.59715 6.61751 9.50305 9.51018 11.6587 11.6725
13.065 6.73414 6.75463 9.69538 9.70316 11.6751 11.6868
13.0775 6.86407 6.88387 9.88739 9.89588 11.6789 11.6885
13.09 6.98678 7.00604 10.0791 10.0886 11.673 11.6806
13.1025 7.10315 7.1218 10.2708 10.2815 11.6612 11.6665
13.115 7.21413 7.23189 10.4625 10.4744 11.6465 11.6495
13.1275 7.3191 7.33585 10.6528 10.666 11.6308 11.6315
13.14 7.41619 7.43195 10.8388 10.8535 11.6149 11.6131
13.1525 7.50324 7.51785 11.0177 11.0339 11.5973 11.5919
13.165 7.57817 7.59154 11.1862 11.2033 11.5761 11.571
13.1775 7.63982 7.65203 11.3416 11.3595 11.5534 11.5485
13.19 7.6887 7.69959 11.4823 11.5016 11.5322 11.5255
13.2025 7.72668 7.7363 11.609 11.6298 11.514 11.5048
13.215 7.75581 7.76418 11.7225 11.7444 11.4994 11.4892
13.2275 7.77721 7.78442 11.8222 11.8449 11.4901 11.4801
13.24 7.79066 7.79677 11.9061 11.9298 11.4873 11.4769
13.2525 7.79553 7.80065 11.9724 11.997 11.4907 11.479
13.265 7.79148 7.79575 12.0197 12.045 11.4986 11.4863
13.2775 7.778 7.78154 12.0464 12.0722 11.5101 11.4979
13.29 7.75408 7.75682 12.0503 12.0764 11.5239 11.5121
13.3025 7.71808 7.72018 12.0293 12.0558 11.5384 11.5266
13.315 7.66899 7.67079 11.9823 12.0087 11.5513 11.5397
13.3275 7.60698 7.60859 11.9089 11.935 11.5612 11.5507
13.34 7.53299 7.53478 11.8103 11.8356 11.5684 11.5594
13.3525 7.44906 7.45138 11.6889 11.7131 11.5735 11.566
13.365 7.35742 7.36042 11.5473 11.57 11.577 11.5712
13.3775 7.25991 7.26381 11.3884 11.4092 11.5794 11.5759
13.39 7.15836 7.16337 11.2153 11.2342 11.5815 11.5793
13.4025 7.05507 7.06138 11.0322 11.0488 11.583 11.5827
13.415 6.95236 6.96013 10.8433 10.8573 11.5846 11.5868
13.4275 6.8517 6.86123 10.6522 10.6636 11.5869 11.5918
13.44 6.75362 6.76503 10.4616 10.4703 11.5893 11.5964
13.4525 6.65756 6.67071 10.2733 10.2793 11.5896 11.5986
13.465 6.56198 6.57684 10.0883 10.0917 11.5847 11.596
13.4775 6.46551 6.48198 9.90745 9.90835 11.5723 11.5858
13.49 6.3672 6.38502 9.73167 9.73045 11.5503 11.5657
13.5025 6.2663 6.28518 9.56198 9.559 11.517 11.5339
13.515 6.16235 6.18202 9.39928 9.39493 11.4705 11.4887
13.5275 6.05533 6.07544 9.24438 9.2391 11.4096 11.429
13.54 5.94535 5.96561 9.09781 9.09206 11.3336 11.3538
13.5525 5.83224 5.8524 8.95932 8.95357 11.2412 11.2618
13.565 5.71497 5.73471 8.82726 8.82195 11.1303 11.1511
13.5775 5.59137 5.61039 8.69837 8.69397 10.9978 11.0185
13.59 5.45858 5.47663 8.56826 8.56519 10.8402 10.8605
13.6025 5.31373 5.33048 8.4319 8.43062 10.6538 10.6732
13.615 5.1549 5.16957 8.28453 8.28543 10.4356 10.4538
13.6275 4.98055 4.99299 8.1223 8.12567 10.1837 10.2006
13.64 4.79153 4.80195 7.94315 7.94915 9.89883 9.91421
13.6525 4.5915 4.59975 7.74693 7.75562 9.58362 9.59735
13.665 4.38498 4.39153 7.5349 7.54613 9.24237 9.25431
13.6775 4.17666 4.18298 7.30898 7.32214 8.87981 8.89007
13.69 3.97141 3.97718 7.07117 7.08602 8.50069 8.50936
13.7025 3.7737 3.7793 6.82318 6.83931 8.10973 8.11689
13.715 3.58684 3.59262 6.56719 6.58415 7.71134 7.71703
13.7275 3.41357 3.42002 6.30495 6.32207 7.30915 7.31354
13.74 3.25471 3.26214 6.03696 6.05362 6.90521 6.90852
13.7525 3.10847 3.11741 5.76211 5.7777 6.49955 6.50201
13.765 2.97106 2.98194 5.47828 5.49222 6.09065 6.0924
13.7775 2.83783 2.85103 5.18307 5.19486 5.67629 5.67743
13.79 2.70421 2.71999 4.87486 4.88419 5.2541 5.25421
13.8025 2.56615 2.58462 4.553 4.55936 4.82186 4.82254
13.815 2.4198 2.44066 4.21682 4.22021 4.37886 4.38023
13.8275 2.26135 2.28466 3.86581 3.86642 3.92447 3.92573
13.84 2.08788 2.1136 3.50078 3.49878 3.45778 3.45847
13.8525 1.89914 1.92727 3.12416 3.11984 2.97942 2.98
13.865 1.70043 1.72939 2.73594 2.73418 2.49271 2.49309
13.8775 1.49353 1.52004 2.33644 2.34535 2.00324 2.00216
13.89 1.27844 1.30545 1.93773 1.95786 1.51495 1.51036
13.9025 1.06037 1.08772 1.54955 1.57375 1.02883 1.02197
13.915 0.841465 0.868391 1.16956 1.195 0.544962 0.538215
13.9275 0.619396 0.646255 0.790235 0.820834 0.0641636 0.0577252
13.94 0.392226 0.418777 0.40928 0.448685 -0.414166 -0.422778
13.9525 0.157475 0.183118 0.0284932 0.0749014 -0.893943 -0.905824
13.965 -0.0878769 -0.0626526 -0.353202 -0.303324 -1.37978 -1.39312
13.9775 -0.344273 -0.3192 -0.74021 -0.687183 -1.87261 -1.88563
13.99 -0.609739 -0.585351 -1.13478 -1.0763 -2.36962 -2.38319
14.0025 -0.881818 -0.858351 -1.5344 -1.46942 -2.86802 -2.88399
14.015 -1.15757 -1.13474 -1.93493 -1.86487 -3.36671 -3.385
14.0275 -1.43335 -1.41101 -2.33431 -2.26069 -3.86419 -3.88317
14.04 -1.70545 -1.68365 -2.73218 -2.65468 -4.35688 -4.37596
14.0525 -1.97033 -1.94904 -3.12724 -3.04462 -4.84071 -4.86097
14.065 -2.22457 -2.20325 -3.5163 -3.42835 -5.31305 -5.33532
14.0775 -2.46495 -2.44376 -3.89607 -3.80359 -5.77234 -5.79603
14.09 -2.68877 -2.66755 -4.26481 -4.16831 -6.21665 -6.24084
14.1025 -2.89408 -2.87288 -4.62185 -4.52092 -6.64356 -6.66832
14.115 -3.07949 -3.05822 -4.96605 -4.86 -7.05137 -7.07747
14.1275 -3.24431 -3.22285 -5.29574 -5.18456 -7.43978 -7.46739
14.14 -3.38925 -3.36743 -5.61039 -5.49448 -7.80979 -7.83838
14.1525 -3.51678 -3.49474 -5.91159 -5.79108 -8.16334 -8.19255
14.165 -3.63084 -3.60852 -6.20228 -6.07685 -8.50337 -8.53348
14.1775 -3.7358 -3.7132 -6.4851 -6.35449 -8.83344 -8.8648
14.19 -3.83547 -3.81256 -6.7617 -6.62601 -9.15698 -9.18952
14.2025 -3.93274 -3.90951 -7.03304 -6.8926 -9.47632 -9.50973
14.215 -4.02945 -4.0059 -7.29947 -7.15435 -9.79244 -9.82666
14.2275 -4.12623 -4.10241 -7.56023 -7.41031 -10.1051 -10.1404
14.24 -4.22227 -4.19825 -7.81302 -7.65825 -10.4131 -10.4495
14.2525 -4.31548 -4.29128 -8.05427 -7.89482 -10.7139 -10.7513
14.265 -4.40314 -4.37882 -8.28015 -8.11622 -11.0043 -11.0427
14.2775 -4.48246 -4.45799 -8.48697 -8.31859 -11.2809 -11.3203
14.29 -4.55078 -4.52599 -8.67112 -8.49829 -11.5403 -11.5809
14.3025 -4.60564 -4.58075 -8.82965 -8.65244 -11.7801 -11.8219
14.315 -4.64641 -4.62159 -8.96112 -8.77962 -11.9989 -12.0418
14.3275 -4.67435 -4.6496 -9.06592 -8.88023 -12.1971 -12.2413
14.34 -4.69198 -4.66743 -9.14603 -8.95626 -12.3766 -12.422
14.3525 -4.70254 -4.67852 -9.20398 -9.01064 -12.54 -12.5867
14.365 -4.70954 -4.68626 -9.24261 -9.04653 -12.6901 -12.7378
14.3775 -4.71566 -4.69311 -9.26464 -9.06635 -12.8286 -12.8773
14.39 -4.72209 -4.70031 -9.27196 -9.07163 -12.9561 -13.0058
14.4025 -4.72893 -4.70796 -9.2655 -9.06335 -13.072 -13.1229
14.415 -4.73574 -4.71558 -9.24586 -9.0423 -13.1756 -13.2277
14.4275 -4.7419 -4.72251 -9.21395 -9.00938 -13.2659 -13.319
14.44 -4.74675 -4.72811 -9.17102 -8.96574 -13.3421 -13.3961
14.4525 -4.74943 -4.73167 -9.1184 -8.91262 -13.4029 -13.4579
14.465 -4.74906 -4.73236 -9.0573 -8.85122 -13.4475 -13.5035
14.4775 -4.74508 -4.72918 -8.98883 -8.78271 -13.4749 -13.5317
14.49 -4.73695 -4.72171 -8.91452 -8.70871 -13.4847 -13.5421
14.5025 -4.72517 -4.71059 -8.83704 -8.63176 -13.4772 -13.5352
14.515 -4.71161 -4.69757 -8.75994 -8.55532 -13.4543 -13.5127
14.5275 -4.69827 -4.68457 -8.68667 -8.48289 -13.4178 -13.4765
14.54 -4.6862 -4.67274 -8.61964 -8.41699 -13.369 -13.4279
14.5525 -4.6754 -4.66201 -8.56009 -8.35877 -13.3081 -13.3669
14.565 -4.66462 -4.65111 -8.50778 -8.30794 -13.234 -13.2926
14.5775 -4.65098 -4.63717 -8.4605 -8.26229 -13.1444 -13.2028
14.59 -4.63011 -4.61573 -8.41405 -8.21785 -13.0359 -13.0935
14.6025 -4.59692 -4.58176 -8.36343 -8.16952 -12.9039 -12.9603
14.615 -4.54682 -4.53076 -8.30376 -8.11223 -12.7444 -12.7996
14.6275 -4.47652 -4.4594 -8.23058 -8.04149 -12.5548 -12.6086
14.64 -4.38422 -4.36587 -8.14022 -7.95375 -12.3339 -12.3861
14.6525 -4.26991 -4.25019 -8.03035 -7.84671 -12.0822 -12.1325
14.665 -4.13521 -4.11403 -7.8999 -7.71924 -11.8016 -11.85
14.6775 -3.98247 -3.95974 -7.74815 -7.57055 -11.4947 -11.5411
14.69 -3.81434 -3.78943 -7.57384 -7.39959 -11.1638 -11.2083
14.7025 -3.63246 -3.60511 -7.37565 -7.20518 -10.8112 -10.8536
14.715 -3.43858 -3.40931 -7.15309 -6.98654 -10.4394 -10.4798
14.7275 -3.23614 -3.20543 -6.90673 -6.74384 -10.0508 -10.0896
14.74 -3.02886 -2.99669 -6.63825 -6.47855 -9.64808 -9.68735
14.7525 -2.82072 -2.78738 -6.34882 -6.19259 -9.2364 -9.27591
14.765 -2.6152 -2.5805 -6.03987 -5.88816 -8.82034 -8.85828
14.7775 -2.4146 -2.37871 -5.71322 -5.56643 -8.4013 -8.43715
14.79 -2.21969 -2.18276 -5.37024 -5.22849 -7.97879 -8.01362
14.8025 -2.0301 -1.99242 -5.01113 -4.87447 -7.55251 -7.58729
14.815 -1.8444 -1.80589 -4.63531 -4.50425 -7.12199 -7.15638
14.8275 -1.66014 -1.62085 -4.24243 -4.11748 -6.68518 -6.71868
14.84 -1.47471 -1.43475 -3.83291 -3.71418 -6.23913 -6.27213
14.8525 -1.28595 -1.2454 -3.40761 -3.29504 -5.78171 -5.8149
14.865 -1.09237 -1.05148 -2.968 -2.86212 -5.31225 -5.34555
14.8775 -0.893155 -0.854588 -2.51617 -2.42132 -4.83085 -4.86254
14.89 -0.688542 -0.651333 -2.05448 -1.96984 -4.33775 -4.36764
14.9025 -0.479499 -0.443206 -1.5872 -1.51177 -3.83231 -3.86058
14.915 -0.265093 -0.229219 -1.11773 -1.04817 -3.31449 -3.34198
14.9275 -0.0441482 -0.010011 -0.644823 -0.581662 -2.78503 -2.8119
14.94 0.181772 0.214879 -0.168479 -0.114099 -2.24496 -2.27063
14.9525 0.413371 0.445399 0.303832 0.35143 -1.69486 -1.71842
14.965 0.653256 0.681386 0.763948 0.81656 -1.13434 -1.1567
14.9775 0.897721 0.922926 1.22175 1.278 -0.563964 -0.587412
14.99 1.14636 1.17067 1.6816 1.73313 0.012859 -0.0104215
15.0025 1.40106 1.42355 2.13466 2.18234 0.59344 0.572761
15.015 1.66057 1.68121 2.57584 2.62483 1.17822 1.16
15.0275 1.92313 1.94285 3.00922 3.05877 1.76707 1.74917
15.04 2.18872 2.20773 3.43662 3.48299 2.35684 2.33919
15.0525 2.45713 2.47537 3.85458 3.8981 2.94477 2.92929
15.065 2.72796 2.74583 4.26213 4.30505 3.5312 3.51846
15.0775 3.00121 3.01891 4.6624 4.70428 4.11685 4.10556
15.09 3.27606 3.29366 5.0567 5.0959 4.69975 4.68932
15.1025 3.5506 3.56831 5.44317 5.47991 5.2765 5.26788
15.115 3.82279 3.8407 5.82071 5.85597 5.84487 5.83873
15.1275 4.09053 4.10862 6.18988 6.22345 6.40337 6.39912
15.14 4.35139 4.36999 6.55067 6.58195 6.94964 6.94668
15.1525 4.60381 4.62306 6.90229 6.93149 7.48094 7.47952
15.165 4.84746 4.86695 7.24521 7.27286 7.99599 7.99653
15.1775 5.08287 5.10251 7.58199 7.60809 8.49568 8.49794
15.19 5.31207 5.33189 7.91602 7.94039 8.98185 8.98536
15.2025 5.53769 5.55745 8.25027 8.27314 9.4561 9.46077
15.215 5.76138 5.78088 8.58712 8.60881 9.9195 9.92545
15.2275 5.98365 6.00279 8.92806 8.94861 10.3725 10.3796
15.24 6.20409 6.2227 9.27314 9.29258 10.8144 10.8224
15.2525 6.42134 6.43916 9.62111 9.63966 11.2435 11.2521
15.265 6.63301 6.64985 9.96977 9.98767 11.6571 11.6663
15.2775 6.83609 6.85175 10.3161 10.3335 12.0522 12.0618
15.29 7.02761 7.04191 10.6568 10.6738 12.4256 12.4355
15.3025 7.20546 7.2182 10.9889 11.0058 12.7749 12.785
15.315 7.36889 7.37989 11.3105 11.3275 13.0993 13.1093
15.3275 7.51859 7.52769 11.621 11.6383 13.399 13.4087
15.34 7.65595 7.66304 11.9199 11.9376 13.6751 13.6843
15.3525 7.78244 7.78745 12.2069 12.2252 13.9286 13.9373
15.365 7.89988 7.90278 12.4816 12.5006 14.1611 14.1692
15.3775 8.01108 8.01162 12.7446 12.7643 14.3748 14.3822
15.39 8.11881 8.1169 12.9965 13.017 14.5726 14.5792
15.4025 8.22519 8.22126 13.2379 13.2592 14.7568 14.7626
15.415 8.33258 8.32686 13.4691 13.4912 14.9297 14.9347
15.4275 8.44323 8.43587 13.6908 13.7135 15.0935 15.0978
15.44 8.55887 8.55028 13.9037 13.9269 15.2507 15.2543
15.4525 8.68063 8.67122 14.1079 14.1314 15.4028 15.4057
15.465 8.80861 8.79865 14.303 14.3268 15.5506 15.5529
15.4775 8.94192 8.93172 14.4882 14.512 15.6939 15.6958
15.49 9.07934 9.06921 14.6627 14.6864 15.8328 15.8343
15.5025 9.21985 9.21009 14.8265 14.8496 15.9673 15.9685
15.515 9.36288 9.35372 14.9799 15.0024 16.0981 16.0992
15.5275 9.50836 9.50012 15.1249 15.1462 16.2268 16.2278
15.54 9.65655 9.64961 15.2635 15.2835 16.355 16.3562
15.5525 9.80701 9.80199 15.398 15.4163 16.4841 16.4855
15.565 9.95927 9.95616 15.5298 15.5462 16.6146 16.6164
15.5775 10.1118 10.1105 15.6599 15.6745 16.7465 16.7487
15.59 10.2624 10.263 15.7893 15.802 16.8796 16.8821
15.6025 10.4088 10.4111 15.9181 15.9291 17.0128 17.0158
15.615 10.548 10.5513 16.0457 16.0553 17.1446 17.1479
15.6275 10.6764 10.6806 16.1707 16.1792 17.2727 17.2761
15.64 10.7903 10.7952 16.2914 16.2991 17.3946 17.3981
15.6525 10.8874 10.8925 16.4063 16.4137 17.5085 17.5121
15.665 10.966 10.971 16.5147 16.5222 17.6136 17.617
15.6775 11.0255 11.03 16.6159 16.624 17.7094 17.7126
15.69 11.066 11.0697 16.7095 16.7187 17.7961 17.799
15.7025 11.0889 11.0914 16.7955 16.8061 17.8745 17.877
15.715 11.0958 11.0969 16.8738 16.8863 17.9458 17.9477
15.7275 11.0888 11.0883 16.9443 16.9588 18.011 18.0123
15.74 11.0695 11.0672 17.0061 17.0227 18.0707 18.0715
15.7525 11.0374 11.0334 17.0573 17.0749 18.1243 18.125
15.765 10.9937 10.9884 17.0962 17.1149 18.1704 18.1711
15.7775 10.9394 10.932 17.1212 17.1405 18.2084 18.2091
15.79 10.8749 10.8661 17.1313 17.1507 18.2381 18.2389
15.8025 10.8026 10.7925 17.1253 17.1451 18.26 18.261
15.815 10.7248 10.7129 17.1029 17.1234 18.2742 18.2754
15.8275 10.6425 10.6288 17.064 17.0848 18.2805 18.282
15.84 10.5563 10.5416 17.0083 17.0291 18.2785 18.2806
15.8525 10.4684 10.453 16.9357 16.9564 18.2684 18.2711
15.865 10.381 10.3649 16.847 16.8677 18.2507 18.2541
15.8775 10.2953 10.2791 16.7438 16.764 18.2257 18.23
15.89 10.2129 10.1971 16.6272 16.6465 18.1936 18.199
15.9025 10.1343 10.1192 16.4981 16.5162 18.1536 18.1602
15.915 10.0587 10.0446 16.357 16.3735 18.104 18.1119
15.9275 9.98465 9.97187 16.2041 16.2185 18.0426 18.052
15.94 9.9105 9.89926 16.0398 16.0518 17.9675 17.9783
15.9525 9.83498 9.82542 15.8648 15.8744 17.8769 17.8897
15.965 9.7575 9.74986 15.6813 15.6881 17.7707 17.7857
15.9775 9.67837 9.67258 15.4919 15.4963 17.65 17.6657
15.99 9.59822 9.59464 15.3002 15.3023 17.5154 17.5315
16.0025 9.51846 9.51714 15.1103 15.1099 17.3677 17.385
16.0125 9.45594 9.4562 14.9619 14.9596 17.2415 17.2599
16.0225 9.39479 9.39651 14.8182 14.8143 17.1094 17.1285
16.0325 9.33475 9.33791 14.6802 14.6748 16.9716 16.9909
16.0425 9.27526 9.27971 14.5482 14.5416 16.8277 16.8469
16.0525 9.21536 9.22085 14.4222 14.4146 16.6768 16.6961
16.0625 9.15372 9.16004 14.3015 14.293 16.5182 16.5377
16.0725 9.08881 9.09574 14.185 14.1761 16.3513 16.3706
16.0825 9.01909 9.02638 14.0714 14.0625 16.175 16.1937
16.0925 8.94305 8.95043 13.9595 13.9508 15.9883 16.0061
16.1025 8.85925 8.86651 13.8475 13.8394 15.7901 15.8068
16.1125 8.76652 8.77346 13.7338 13.7266 15.5796 15.5953
16.1225 8.66402 8.67042 13.6168 13.6109 15.3564 15.371
16.1325 8.55116 8.5568 13.495 13.4906 15.1204 15.1337
16.1425 8.4276 8.43233 13.3668 13.3642 14.8717 14.8833
16.1525 8.2933 8.29699 13.2308 13.2302 14.6102 14.6201
16.1625 8.1485 8.15101 13.0856 13.0872 14.3363 14.3446
16.1725 7.99394 7.99478 12.93 12.9338 14.0506 14.0573
16.1825 7.82999 7.82887 12.7628 12.7688 13.7538 13.7588
16.1925 7.65677 7.65399 12.5827 12.591 13.4466 13.4499
16.2025 7.47496 7.47077 12.3887 12.3991 13.1297 13.1313
16.2125 7.28549 7.27983 12.1798 12.1922 12.8035 12.8037
16.2225 7.08906 7.08202 11.9551 11.9692 12.469 12.4678
16.2325 6.88637 6.87906 11.7143 11.7297 12.1266 12.1237
16.2425 6.67837 6.67129 11.4575 11.4736 11.7765 11.7734
16.2525 6.46652 6.4595 11.1847 11.201 11.4204 11.4179
16.2625 6.252 6.2453 10.896 10.9125 11.0601 11.0577
16.2725 6.03577 6.0295 10.5921 10.6085 10.697 10.6939
16.2825 5.81911 5.81365 10.2744 10.2904 10.3317 10.3278
16.2925 5.60377 5.59935 9.94462 9.95974 9.96537 9.9613
16.3025 5.39184 5.38865 9.60515 9.61888 9.59988 9.59649
16.3125 5.18569 5.18408 9.25886 9.27088 9.2382 9.23563
16.3225 4.98776 4.98804 8.90926 8.91921 8.8833 8.88121
16.3325 4.80018 4.80265 8.55988 8.56732 8.53742 8.53572
16.3425 4.62443 4.62936 8.21386 8.21835 8.20205 8.20111
16.3525 4.46125 4.46884 7.87384 7.87505 7.87833 7.87862
16.3625 4.31072 4.32086 7.54206 7.53982 7.56717 7.56904
16.3725 4.17251 4.18525 7.22046 7.21472 7.26928 7.27241
16.3825 4.04587 4.06131 6.91091 6.9016 6.98476 6.98871
16.3925 3.92961 3.94772 6.61496 6.60206 6.71298 6.71772
16.4025 3.82239 3.84441 6.33335 6.31895 6.45284 6.45818
16.4125 3.72445 3.74923 6.06549 6.05091 6.2031 6.20855
16.4225 3.63247 3.65661 5.80958 5.79387 5.96196 5.96826
16.4325 3.5411 3.5661 5.56163 5.54905 5.72703 5.73331
16.4425 3.44712 3.4736 5.32106 5.31394 5.49575 5.50137
16.4525 3.34932 3.37661 5.08909 5.08617 5.26525 5.27005
16.4625 3.24536 3.27271 4.86554 4.86425 5.03266 5.03692
16.4725 3.13211 3.1596 4.64757 4.64645 4.79579 4.80019
16.4825 3.0077 3.03579 4.43152 4.43156 4.55329 4.55799
16.4925 2.87149 2.8996 4.21516 4.21835 4.30432 4.30871
16.5025 2.7228 2.75021 3.99839 4.00563 4.04804 4.05136
16.5125 2.56098 2.58763 3.78212 3.79257 3.78374 3.78575
16.5225 2.3865 2.4125 3.56694 3.57895 3.51123 3.51236
16.5325 2.20094 2.22628 3.35239 3.36523 3.23134 3.23205
16.5425 2.00627 2.03067 3.13776 3.15181 2.94582 2.94609
16.5525 1.80483 1.82785 2.9231 2.9392 2.65667 2.65535
16.5625 1.59911 1.6201 2.70943 2.72797 2.36532 2.36203
16.5725 1.39113 1.41022 2.49791 2.51836 2.0728 2.06865
16.5825 1.18327 1.20074 2.289 2.31104 1.78099 1.77671
16.5925 0.97817 0.994291 2.08256 2.10628 1.49219 1.48768
16.6025 0.777708 0.793587 1.87844 1.90383 1.20804 1.20268
16.6125 0.58311 0.598338 1.67678 1.70387 0.929226 0.922586
16.6225 0.39586 0.41074 1.47748 1.50618 0.656136 0.648374
16.6325 0.217743 0.232497 1.28071 1.31064 0.389606 0.381396
16.6425 0.0503511 0.0648073 1.08694 1.11782 0.130971 0.122579
16.6525 -0.105006 -0.0906459 0.896584 0.928046 -0.118346 -0.12699
16.6625 -0.247319 -0.232775 0.710014 0.741713 -0.357349 -0.366441
16.6725 -0.375698 -0.360858 0.527384 0.559081 -0.585524 -0.595058
16.6825 -0.488795 -0.474132 0.347347 0.380107 -0.802545 -0.812185
16.6925 -0.5864 -0.572646 0.169433 0.205612 -1.00822 -1.01804
16.7025 -0.669499 -0.656769 -0.00436596 0.0352253 -1.20287 -1.21311
16.7125 -0.739352 -0.727241 -0.172101 -0.131718 -1.38767 -1.3981
16.7225 -0.797197 -0.785553 -0.334473 -0.29554 -1.5641 -1.57407
16.7325 -0.844366 -0.832607 -0.493902 -0.455611 -1.73333 -1.74242
16.7425 -0.882545 -0.869527 -0.652595 -0.6111 -1.89609 -1.90512
16.7525 -0.913633 -0.900012 -0.811255 -0.765997 -2.05345 -2.06291
16.7625 -0.940064 -0.925512 -0.96946 -0.920361 -2.20794 -2.21825
16.7725 -0.965031 -0.949641 -1.12773 -1.07612 -2.36267 -2.37351
16.7825 -0.991717 -0.975286 -1.28815 -1.23526 -2.52045 -2.53105
16.7925 -1.0229 -1.00573 -1.45346 -1.39887 -2.68345 -2.69361
16.8025 -1.06112 -1.04341 -1.62584 -1.56847 -2.85349 -2.86358
16.8125 -1.10891 -1.09069 -1.80617 -1.74538 -3.03249 -3.04307
16.8225 -1.16833 -1.14968 -1.99437 -1.93039 -3.22238 -3.23363
16.8325 -1.24051 -1.22133 -2.19012 -2.12377 -3.42436 -3.43597
16.8425 -1.32562 -1.30597 -2.39324 -2.32498 -3.63857 -3.65017
16.8525 -1.42325 -1.40324 -2.60344 -2.53298 -3.86428 -3.87586
16.8625 -1.53267 -1.51242 -2.81988 -2.74662 -4.10044 -4.11235
16.8725 -1.6531 -1.63272 -3.04128 -2.96491 -4.34628 -4.35889
16.8825 -1.78384 -1.76341 -3.26636 -3.18706 -4.60136 -4.61472
16.8925 -1.92421 -1.90384 -3.49433 -3.4125 -4.86528 -4.87921
16.9025 -2.07347 -2.05324 -3.7249 -3.64067 -5.13741 -5.15176
16.9125 -2.23068 -2.21071 -3.95791 -3.87103 -5.41685 -5.43171
16.9225 -2.39473 -2.37516 -4.19287 -4.103 -5.70257 -5.7182
16.9325 -2.56423 -2.54515 -4.42883 -4.33583 -5.99348 -6.0102
16.9425 -2.73748 -2.71895 -4.66453 -4.56842 -6.2884 -6.30668
16.9525 -2.9125 -2.8946 -4.89866 -4.79982 -6.58578 -6.60532
16.9625 -3.08713 -3.06987 -5.13014 -5.02886 -6.88381 -6.90454
16.9725 -3.25919 -3.24263 -5.358 -5.25409 -7.18056 -7.20261
16.9825 -3.42678 -3.41095 -5.58134 -5.47462 -7.4745 -7.49794
16.9925 -3.58863 -3.57327 -5.7994 -5.68993 -7.76509 -7.78942
17.0025 -3.74427 -3.72887 -6.01237 -5.90039 -8.05205 -8.07673
17.0125 -3.89408 -3.87888 -6.22152 -6.10698 -8.33558 -8.36068
17.0225 -4.03906 -4.02408 -6.42874 -6.31125 -8.61659 -8.6426
17.0325 -4.18058 -4.16577 -6.6359 -6.51513 -8.89662 -8.92387
17.0425 -4.32011 -4.30549 -6.84466 -6.72041 -9.1775 -9.20593
17.0525 -4.45905 -4.44453 -7.05665 -6.92889 -9.46086 -9.49021
17.0625 -4.59863 -4.58415 -7.27346 -7.14217 -9.74793 -9.77802
17.0725 -4.73975 -4.72527 -7.49643 -7.36138 -10.0395 -10.0704
17.0825 -4.88272 -4.86821 -7.72625 -7.58714 -10.3358 -10.3678
17.0925 -5.02716 -5.01267 -7.96271 -7.81942 -10.6368 -10.6701
17.1025 -5.17207 -5.15773 -8.20447 -8.05755 -10.9419 -10.9762
17.1125 -5.31631 -5.30204 -8.45047 -8.30045 -11.2499 -11.285
17.1225 -5.45858 -5.44423 -8.70002 -8.54684 -11.5595 -11.5952
17.1325 -5.59746 -5.583 -8.95232 -8.79543 -11.8692 -11.9056
17.1425 -5.73178 -5.71725 -9.20619 -9.04512 -12.1777 -12.2152
17.1525 -5.86082 -5.84617 -9.4603 -9.29497 -12.4845 -12.523
17.1625 -5.98405 -5.96913 -9.71347 -9.54413 -12.7889 -12.8285
17.1725 -6.101 -6.08569 -9.96493 -9.7918 -13.0904 -13.1308
17.1825 -6.21124 -6.19549 -10.2141 -10.0371 -13.3885 -13.4296
17.1925 -6.31437 -6.29817 -10.4603 -10.279 -13.6824 -13.7243
17.2025 -6.40994 -6.39323 -10.7022 -10.5165 -13.9712 -14.0141
17.2125 -6.49737 -6.48013 -10.9384 -10.7481 -14.2541 -14.2981
17.2225 -6.57609 -6.55859 -11.1673 -10.9726 -14.5304 -14.5755
17.2325 -6.64577 -6.62795 -11.3878 -11.1886 -14.7994 -14.8454
17.2425 -6.70648 -6.68829 -11.599 -11.3954 -15.0607 -15.1075
17.2525 -6.75855 -6.74003 -11.8004 -11.5922 -15.3139 -15.3617
17.2625 -6.80243 -6.78359 -11.9913 -11.7783 -15.5589 -15.6079
17.2725 -6.83875 -6.81964 -12.1712 -11.9533 -15.796 -15.8461
17.2825 -6.86826 -6.84889 -12.3394 -12.1168 -16.0252 -16.0765
17.2925 -6.89179 -6.87218 -12.4959 -12.2686 -16.2469 -16.2993
17.3025 -6.91032 -6.89053 -12.6405 -12.4085 -16.4613 -16.5147
17.3125 -6.92499 -6.90507 -12.7734 -12.5366 -16.6688 -16.7234
17.3225 -6.93736 -6.91705 -12.8949 -12.6534 -16.87 -16.9259
17.3325 -6.94866 -6.92782 -13.0053 -12.7592 -17.0658 -17.123
17.3425 -6.9598 -6.93881 -13.1053 -12.8548 -17.2569 -17.3153
17.3525 -6.97203 -6.9512 -13.1955 -12.9406 -17.4438 -17.5035
17.3625 -6.98646 -6.96579 -13.2763 -13.0171 -17.6269 -17.6879
17.3725 -7.00351 -6.98316 -13.3478 -13.0845 -17.8062 -17.8685
17.3825 -7.02339 -7.00371 -13.4097 -13.1431 -17.9817 -18.0453
17.3925 -7.04654 -7.02778 -13.4626 -13.1934 -18.1533 -18.218
17.4025 -7.07357 -7.05562 -13.5071 -13.2357 -18.3212 -18.3869
17.4125 -7.10478 -7.08764 -13.5445 -13.2707 -18.4851 -18.5519
17.4225 -7.14024 -7.12401 -13.5754 -13.2995 -18.645 -18.713
17.4325 -7.17992 -7.16469 -13.6006 -13.3228 -18.8005 -18.8698
17.4425 -7.22369 -7.20941 -13.6209 -13.3416 -18.9514 -19.0219
17.4525 -7.27112 -7.25773 -13.6372 -13.3567 -19.0972 -19.1688
17.4625 -7.32142 -7.3091 -13.6505 -13.3689 -19.2372 -19.3099
17.4725 -7.37384 -7.36285 -13.6616 -13.379 -19.3705 -19.4443
17.4825 -7.4278 -7.41803 -13.6711 -13.3876 -19.4965 -19.5713
17.4925 -7.4823 -7.47351 -13.6795 -13.3954 -19.6139 -19.6898
17.5025 -7.536 -7.52817 -13.6871 -13.4026 -19.722 -19.7988
17.5125 -7.58777 -7.5809 -13.6945 -13.4098 -19.8196 -19.8972
17.5225 -7.6368 -7.63079 -13.7023 -13.4174 -19.9061 -19.9843
17.5325 -7.68244 -7.67714 -13.7112 -13.426 -19.9808 -20.0595
17.5425 -7.72413 -7.71941 -13.7216 -13.4364 -20.0433 -20.1226
17.5525 -7.7614 -7.75716 -13.7342 -13.449 -20.0934 -20.173
17.5625 -7.79392 -7.78999 -13.7492 -13.4643 -20.1308 -20.2107
17.5725 -7.82134 -7.81756 -13.7672 -13.4824 -20.1555 -20.2354
17.5825 -7.84341 -7.83957 -13.7881 -13.5035 -20.1672 -20.247
17.5925 -7.86005 -7.85604 -13.8118 -13.5276 -20.1662 -20.2459
17.6025 -7.8714 -7.86716 -13.8383 -13.5546 -20.1528 -20.2322
17.6125 -7.87779 -7.87317 -13.8675 -13.5844 -20.1279 -20.2064
17.6225 -7.87972 -7.87468 -13.8993 -13.617 -20.0919 -20.1694
17.6325 -7.87789 -7.87236 -13.9338 -13.6523 -20.0458 -20.1222
17.6425 -7.87313 -7.86702 -13.9705 -13.6899 -19.9907 -20.066
17.6525 -7.8663 -7.85956 -14.0093 -13.7296 -19.9277 -20.0018
17.6625 -7.8583 -7.85086 -14.0495 -13.7711 -19.8583 -19.931
17.6725 -7.84999 -7.84179 -14.0908 -13.8136 -19.7837 -19.8548
17.6825 -7.84217 -7.83319 -14.1325 -13.8567 -19.705 -19.7746
17.6925 -7.8357 -7.82592 -14.1741 -13.8998 -19.6235 -19.6915
17.7025 -7.83148 -7.82089 -14.215 -13.9422 -19.5406 -19.6071
17.7125 -7.83044 -7.81903 -14.2548 -13.9837 -19.4578 -19.5226
17.7225 -7.83339 -7.82118 -14.2931 -14.0237 -19.3763 -19.4396
17.7325 -7.84088 -7.82787 -14.3292 -14.0617 -19.2972 -19.3591
17.7425 -7.85306 -7.83933 -14.3625 -14.097 -19.2214 -19.2818
17.7525 -7.86943 -7.85518 -14.3913 -14.1284 -19.1492 -19.2083
17.7625 -7.89029 -7.87562 -14.4144 -14.156 -19.0813 -19.1392
17.7725 -7.91627 -7.90106 -14.4337 -14.1803 -19.0179 -19.0743
17.7825 -7.9473 -7.93149 -14.4514 -14.2008 -18.9592 -19.0154
17.7925 -7.98335 -7.96751 -14.4679 -14.218 -18.9062 -18.9631
17.8025 -8.02493 -8.00915 -14.4821 -14.2326 -18.8605 -18.918
17.8125 -8.07258 -8.05664 -14.4934 -14.2457 -18.8234 -18.8807
17.8225 -8.12626 -8.10993 -14.5026 -14.2579 -18.7952 -18.8517
17.8325 -8.18549 -8.16889 -14.5116 -14.2698 -18.776 -18.8317
17.8425 -8.24979 -8.23323 -14.5222 -14.2822 -18.7656 -18.821
17.8525 -8.31887 -8.30253 -14.5349 -14.2961 -18.7641 -18.8197
17.8625 -8.39242 -8.37629 -14.5498 -14.3124 -18.7719 -18.8279
17.8725 -8.4698 -8.45377 -14.5675 -14.332 -18.7892 -18.8454
17.8825 -8.54978 -8.53293 -14.5887 -14.3554 -18.8155 -18.8715
17.8925 -8.63046 -8.6128 -14.6136 -14.3822 -18.8492 -18.905
17.9025 -8.70913 -8.69147 -14.6415 -14.4111 -18.8882 -18.9442
17.9125 -8.78348 -8.76579 -14.671 -14.4415 -18.9306 -18.9868
17.9225 -8.85154 -8.83363 -14.7007 -14.4721 -18.9746 -19.0309
17.9325 -8.91123 -8.89305 -14.7299 -14.5021 -19.0186 -19.075
17.9425 -8.96087 -8.94257 -14.7582 -14.5311 -19.0614 -19.1177
17.9525 -8.9997 -8.98149 -14.7859 -14.5589 -19.1023 -19.1587
17.9625 -9.02763 -9.00954 -14.8132 -14.5858 -19.1412 -19.1977
17.9725 -9.04471 -9.02669 -14.84 -14.6121 -19.1782 -19.2349
17.9825 -9.05094 -9.03298 -14.8664 -14.6378 -19.2134 -19.2703
17.9925 -9.04646 -9.02852 -14.8923 -14.663 -19.247 -19.3038
18.0025 -9.03158 -9.01365 -14.9177 -14.6872 -19.2789 -19.3357
18.0125 -9.00678 -8.98883 -14.9423 -14.7102 -19.3094 -19.3662
18.0225 -8.97271 -8.95471 -14.9655 -14.7317 -19.3388 -19.3956
18.0325 -8.93015 -8.91211 -14.987 -14.7513 -19.3674 -19.4242
18.0425 -8.87998 -8.86188 -15.0063 -14.7685 -19.3956 -19.4525
18.0525 -8.82301 -8.80483 -15.0226 -14.7826 -19.4238 -19.4807
18.0625 -8.75994 -8.74185 -15.0352 -14.7928 -19.452 -19.5089
18.0725 -8.6914 -8.67386 -15.0431 -14.798 -19.4802 -19.5373
18.0825 -8.61812 -8.60098 -15.0454 -14.7975 -19.5084 -19.5658
18.0925 -8.54103 -8.52433 -15.0412 -14.7906 -19.5369 -19.5946
18.1025 -8.46117 -8.44497 -15.0302 -14.7766 -19.5658 -19.6239
18.1125 -8.37963 -8.36341 -15.0119 -14.7547 -19.5956 -19.6543
18.1225 -8.29756 -8.28095 -14.9862 -14.7247 -19.6262 -19.6861
18.1325 -8.21593 -8.19961 -14.9531 -14.6882 -19.658 -19.719
18.1425 -8.13616 -8.11992 -14.9129 -14.6447 -19.6916 -19.7537
18.1525 -8.06008 -8.04381 -14.8666 -14.5954 -19.7276 -19.7907
18.1625 -7.98894 -7.97283 -14.8152 -14.5412 -19.7669 -19.8308
18.1725 -7.92415 -7.90874 -14.7598 -14.4835 -19.8105 -19.8749
18.1825 -7.86734 -7.85273 -14.7017 -14.4233 -19.8584 -19.9236
18.1925 -7.81945 -7.80546 -14.6417 -14.3613 -19.9107 -19.9769
18.2025 -7.7803 -7.767 -14.5803 -14.298 -19.9665 -20.0338
18.2125 -7.74906 -7.73662 -14.5173 -14.2332 -20.0247 -20.0931
18.2225 -7.72458 -7.71302 -14.4523 -14.1667 -20.0835 -20.1528
18.2325 -7.70539 -7.69466 -14.3848 -14.098 -20.1407 -20.2109
18.2425 -7.68971 -7.67981 -14.3146 -14.0267 -20.194 -20.2653
18.2525 -7.67563 -7.66677 -14.2413 -13.9524 -20.2414 -20.3136
18.2625 -7.6616 -7.65383 -14.1646 -13.8749 -20.2806 -20.3539
18.2725 -7.64616 -7.6393 -14.0844 -13.794 -20.3098 -20.384
18.2825 -7.62766 -7.62157 -14.0004 -13.7095 -20.3271 -20.4021
18.2925 -7.60439 -7.59904 -13.9124 -13.6213 -20.3304 -20.4061
18.3025 -7.57481 -7.57013 -13.8201 -13.529 -20.3179 -20.3942
18.3125 -7.53761 -7.53342 -13.7234 -13.4323 -20.2879 -20.3653
18.3225 -7.49171 -7.48791 -13.622 -13.331 -20.2394 -20.3179
18.3325 -7.43636 -7.43274 -13.5157 -13.2252 -20.1712 -20.2503
18.3425 -7.37119 -7.36757 -13.4049 -13.1151 -20.083 -20.1625
18.3525 -7.29627 -7.29256 -13.2898 -13.0008 -19.9745 -20.0541
18.3625 -7.21199 -7.20802 -13.171 -12.8828 -19.8459 -19.9255
18.3725 -7.11912 -7.11479 -13.0487 -12.7615 -19.6978 -19.7772
18.3825 -7.01878 -7.01396 -12.9236 -12.6376 -19.5313 -19.6103
18.3925 -6.91244 -6.90694 -12.7962 -12.5119 -19.3477 -19.4259
18.4025 -6.80183 -6.79555 -12.6676 -12.3851 -19.1485 -19.2258
18.4125 -6.68887 -6.68171 -12.5386 -12.2581 -18.9356 -19.0118
18.4225 -6.57548 -6.56736 -12.4099 -12.1317 -18.7107 -18.7858
18.4325 -6.46349 -6.45432 -12.2822 -12.0065 -18.4759 -18.5497
18.4425 -6.35475 -6.34435 -12.1558 -11.8829 -18.233 -18.3053
18.4525 -6.25121 -6.23913 -12.0312 -11.7614 -17.9839 -18.0546
18.4625 -6.15408 -6.14024 -11.9087 -11.6426 -17.7305 -17.7995
18.4725 -6.06424 -6.04895 -11.7888 -11.5264 -17.4742 -17.5414
18.4825 -5.98256 -5.96592 -11.6711 -11.4126 -17.2161 -17.2817
18.4925 -5.90944 -5.89134 -11.5551 -11.3007 -16.9571 -17.021
18.5025 -5.84471 -5.8252 -11.4401 -11.19 -16.6978 -16.7599
18.5125 -5.78795 -5.76717 -11.3252 -11.0798 -16.4385 -16.4988
18.5225 -5.7388 -5.71684 -11.21 -10.9694 -16.1796 -16.2382
18.5325 -5.69682 -5.6737 -11.094 -10.8583 -15.9213 -15.9782
18.5425 -5.66145 -5.63714 -10.9766 -10.7461 -15.664 -15.7193
18.5525 -5.63206 -5.60664 -10.8577 -10.6324 -15.408 -15.4616
18.5625 -5.608 -5.58161 -10.7376 -10.5174 -15.1527 -15.2055
18.5725 -5.58882 -5.56165 -10.6166 -10.4011 -14.8985 -14.952
18.5825 -5.57427 -5.54635 -10.495 -10.2841 -14.6469 -14.7009
18.5925 -5.5639 -5.53512 -10.3728 -10.167 -14.399 -14.4527
18.6025 -5.55694 -5.52738 -10.2506 -10.0503 -14.155 -14.2071
18.6125 -5.55232 -5.52215 -10.129 -9.93429 -13.9143 -13.9642
18.6225 -5.54909 -5.51837 -10.0085 -9.81888 -13.6761 -13.7247
18.6325 -5.54603 -5.51475 -9.88893 -9.70419 -13.4399 -13.4878
18.6425 -5.54169 -5.50977 -9.77001 -9.59023 -13.2059 -13.2529
18.6525 -5.53485 -5.50189 -9.65165 -9.47703 -12.9738 -13.0195
18.6625 -5.52452 -5.48994 -9.53411 -9.36478 -12.7433 -12.7873
18.6725 -5.50955 -5.47375 -9.41747 -9.25298 -12.5136 -12.5561
18.6825 -5.48846 -5.45147 -9.30137 -9.14137 -12.2839 -12.3252
18.6925 -5.45978 -5.42163 -9.18495 -9.02925 -12.0534 -12.0937
18.7025 -5.42202 -5.38279 -9.06715 -8.91554 -11.8213 -11.8606
18.7125 -5.37377 -5.33344 -8.94705 -8.79939 -11.587 -11.625
18.7225 -5.314 -5.27265 -8.82398 -8.68 -11.3497 -11.3863
18.7325 -5.24216 -5.19992 -8.69751 -8.55682 -11.1091 -11.1445
18.7425 -5.15834 -5.1152 -8.5675 -8.42978 -10.8655 -10.8998
18.7525 -5.06342 -5.01936 -8.43428 -8.29925 -10.62 -10.6533
18.7625 -4.95896 -4.91398 -8.29861 -8.16605 -10.3742 -10.4065
18.7725 -4.84684 -4.80093 -8.1615 -8.03121 -10.13 -10.1611
18.7825 -4.72901 -4.68218 -8.02387 -7.89563 -9.88907 -9.91915
18.7925 -4.60738 -4.55967 -7.88656 -7.76013 -9.65318 -9.6823
18.8025 -4.48387 -4.43532 -7.75025 -7.62543 -9.42396 -9.45226
18.8125 -4.36027 -4.31102 -7.61547 -7.49209 -9.20301 -9.23055
18.8225 -4.23819 -4.18854 -7.4826 -7.3605 -8.9917 -9.01851
18.8325 -4.11886 -4.06872 -7.35175 -7.23086 -8.79096 -8.81708
18.8425 -4.00305 -3.95245 -7.22264 -7.10287 -8.60121 -8.62672
18.8525 -3.89121 -3.83997 -7.09454 -6.97581 -8.4224 -8.44745
18.8625 -3.78307 -3.73099 -6.96643 -6.84877 -8.25411 -8.27877
18.8725 -3.67769 -3.62504 -6.83713 -6.72053 -8.09557 -8.1199
18.8825 -3.57428 -3.52132 -6.70545 -6.58977 -7.9457 -7.96979
18.8925 -3.47231 -3.41904 -6.5703 -6.45537 -7.80348 -7.82745
18.9025 -3.37129 -3.31769 -6.43082 -6.31657 -7.66805 -7.69199
18.9125 -3.27077 -3.217 -6.28657 -6.17297 -7.53871 -7.56278
18.9225 -3.17043 -3.11665 -6.1373 -6.02424 -7.41473 -7.43919
18.9325 -3.06978 -3.01606 -5.98262 -5.86991 -7.29519 -7.3202
18.9425 -2.96792 -2.9143 -5.82183 -5.70936 -7.1788 -7.20445
18.9525 -2.86371 -2.81027 -5.65414 -5.54186 -7.064 -7.09036
18.9625 -2.75607 -2.70299 -5.47892 -5.36693 -6.9492 -6.97631
18.9725 -2.64411 -2.59238 -5.29573 -5.18541 -6.83295 -6.86053
18.9825 -2.52724 -2.47667 -5.10428 -4.99537 -6.71417 -6.74218
18.9925 -2.40522 -2.35592 -4.90465 -4.79711 -6.59173 -6.62024
19.0025 -2.27793 -2.22994 -4.69717 -4.59111 -6.46471 -6.49372
19.0125 -2.14546 -2.09876 -4.48231 -4.37763 -6.3325 -6.36219
19.0225 -2.00813 -1.96287 -4.2607 -4.15749 -6.19467 -6.22503
19.0325 -1.86633 -1.82243 -4.03297 -3.93129 -6.05082 -6.0821
19.0425 -1.72044 -1.67788 -3.79967 -3.69949 -5.90068 -5.9331
19.0525 -1.57101 -1.52967 -3.56139 -3.46322 -5.7445 -5.77707
19.0625 -1.41883 -1.37858 -3.3193 -3.22348 -5.58228 -5.61436
19.0725 -1.26512 -1.22603 -3.07522 -2.98164 -5.41399 -5.44574
19.0825 -1.11175 -1.07343 -2.83156 -2.73935 -5.24002 -5.2721
19.0925 -0.960028 -0.922165 -2.59068 -2.49794 -5.06117 -5.09423
19.1025 -0.810472 -0.773332 -2.35232 -2.25864 -4.87837 -4.91241
19.1125 -0.663708 -0.627482 -2.11563 -2.02231 -4.69211 -4.72659
19.1225 -0.520373 -0.484725 -1.88069 -1.78925 -4.50209 -4.53644
19.1325 -0.380286 -0.344871 -1.64843 -1.55932 -4.30742 -4.34142
19.1425 -0.242697 -0.207615 -1.41965 -1.3322 -4.10701 -4.14086
19.1525 -0.107164 -0.0726574 -1.19416 -1.1077 -3.90011 -3.93415
19.1625 0.0262233 0.0602131 -0.971135 -0.885851 -3.68646 -3.72073
19.1725 0.15728 0.191015 -0.750003 -0.666817 -3.46609 -3.50028
19.1825 0.28596 0.319593 -0.531052 -0.450801 -3.23901 -3.27266
19.1925 0.412216 0.445745 -0.315104 -0.237969 -3.00504 -3.03799
19.2025 0.535875 0.569293 -0.102765 -0.028466 -2.764 -2.79638
19.2125 0.656732 0.690106 0.106008 0.17754 -2.51596 -2.54791
19.2225 0.774672 0.808109 0.311621 0.379928 -2.26121 -2.2926
19.2325 0.889664 0.923271 0.514307 0.578676 -2.00001 -2.03049
19.2425 1.00172 1.03559 0.713919 0.773858 -1.73245 -1.76172
19.2525 1.11083 1.14506 0.910172 0.965649 -1.45857 -1.48651
19.2625 1.2173 1.25165 1.10174 1.15356 -1.17855 -1.20523
19.2725 1.322 1.35545 1.28607 1.33821 -0.892763 -0.918354
19.2825 1.42392 1.45623 1.46581 1.52008 -0.601999 -0.626747
19.2925 1.52243 1.55435 1.64417 1.69772 -0.30692 -0.329776
19.3025 1.61808 1.64995 1.82106 1.87164 -0.00792653 -0.0293268
19.3125 1.71153 1.74274 1.99402 2.0426 0.294581 0.274074
19.3225 1.80273 1.83318 2.16205 2.21049 0.599853 0.580188
19.3325 1.8915 1.92147 2.32666 2.37548 0.907112 0.888427
19.3425 1.978 2.00758 2.48933 2.53724 1.21561 1.19821
19.3525 2.06222 2.09134 2.64956 2.6955 1.52441 1.50854
19.3625 2.14347 2.17203 2.8055 2.84986 1.83224 1.81788
19.3725 2.22077 2.24884 2.95576 2.9995 2.1376 2.12458
19.3825 2.29339 2.321 3.10016 3.14351 2.43893 2.42707
19.3925 2.36091 2.388 3.23884 3.28123 2.73475 2.72406
19.4025 2.42296 2.44953 3.37127 3.41224 3.0237 3.01439
19.4125 2.47922 2.50529 3.49645 3.53621 3.30462 3.29685
19.4225 2.52945 2.555 3.61376 3.65277 3.57652 3.57022
19.4325 2.57355 2.59854 3.72315 3.76155 3.83845 3.83341
19.4425 2.61157 2.63599 3.82478 3.86235 4.08949 4.08557
19.4525 2.64369 2.66752 3.91853 3.9551 4.32872 4.32598
19.4625 2.67024 2.6934 4.00415 4.03983 4.55541 4.55398
19.4725 2.69153 2.71403 4.08161 4.11665 4.76911 4.76897
19.4825 2.708 2.72989 4.15123 4.18572 4.96951 4.97051
19.4925 2.72033 2.74164 4.21345 4.24731 5.15633 5.15832
19.5025 2.72928 2.75002 4.26867 4.30187 5.32938 5.3323
19.5125 2.73565 2.75585 4.31729 4.3499 5.48855 5.49244
19.5225 2.74015 2.75989 4.35972 4.39185 5.63386 5.63871
19.5325 2.74338 2.76271 4.39631 4.42803 5.76521 5.77092
19.5425 2.74582 2.7648 4.42739 4.45868 5.88247 5.88889
19.5525 2.74804 2.76674 4.45333 4.48418 5.98559 5.99262
19.5625 2.75079 2.7693 4.47469 4.50517 6.07476 6.08237
19.5725 2.75488 2.7733 4.49218 4.52235 6.15036 6.15851
19.5825 2.76094 2.77937 4.5064 4.53631 6.21269 6.2213
19.5925 2.76924 2.78773 4.51769 4.5473 6.26183 6.27079
19.6025 2.7798 2.79846 4.52623 4.55554 6.29769 6.3069
19.6125 2.79262 2.81152 4.53227 4.56126 6.3202 6.32959
19.6225 2.80767 2.8269 4.53618 4.56479 6.3294 6.33892
19.6325 2.82492 2.84457 4.53836 4.56646 6.32545 6.33506
19.6425 2.84425 2.8644 4.53907 4.56661 6.3086 6.31827
19.6525 2.86545 2.88614 4.53851 4.56552 6.27913 6.28868
19.6625 2.8881 2.90937 4.53681 4.56334 6.23721 6.24643
19.6725 2.91166 2.93355 4.53405 4.56012 6.18292 6.19168
19.6825 2.93552 2.95803 4.53022 4.55583 6.11635 6.12458
19.6925 2.95902 2.98217 4.52521 4.55042 6.03771 6.04536
19.7025 2.98134 3.00528 4.51885 4.54374 5.94733 5.95427
19.7125 3.00189 3.02673 4.51099 4.53567 5.8456 5.85169
19.7225 3.02036 3.04592 4.50154 4.5261 5.73302 5.73811
19.7325 3.03635 3.06246 4.49047 4.51501 5.61028 5.61427
19.7425 3.04946 3.07612 4.47781 4.50245 5.47828 5.4811
19.7525 3.05966 3.08685 4.46374 4.48859 5.33813 5.3397
19.7625 3.0671 3.09471 4.44845 4.47363 5.1911 5.19134
19.7725 3.0718 3.09965 4.43204 4.45764 5.0384 5.03721
19.7825 3.07358 3.1016 4.41436 4.44048 4.88109 4.87842
19.7925 3.07206 3.10024 4.39499 4.42171 4.72 4.71582
19.8025 3.0667 3.09496 4.37323 4.40062 4.55572 4.55002
19.8125 3.05671 3.08497 4.34812 4.37624 4.38863 4.38125
19.8225 3.04115 3.0693 4.31866 4.34767 4.21848 4.20831
19.8325 3.01914 3.04715 4.2841 4.31373 4.04433 4.03323
19.8425 2.99039 3.01841 4.24357 4.27349 3.86679 3.85605
19.8525 2.95504 2.98288 4.19655 4.22704 3.68775 3.67688
19.8625 2.91359 2.94119 4.14298 4.1743 3.50886 3.49674
19.8725 2.86672 2.89412 4.08335 4.11553 3.33083 3.31684
19.8825 2.81536 2.84254 4.01829 4.05116 3.15413 3.13881
19.8925 2.7607 2.78773 3.94847 3.98186 2.97995 2.96423
19.9025 2.70408 2.73097 3.87466 3.90851 2.81036 2.7946
19.9125 2.64686 2.67368 3.79776 3.83208 2.64757 2.63138
19.9225 2.59023 2.61704 3.7187 3.75338 2.49308 2.476
19.9325 2.53517 2.56207 3.63828 3.67316 2.34772 2.32978
19.9425 2.48258 2.50965 3.55728 3.59216 2.21226 2.19394
19.9525 2.43334 2.4607 3.47653 3.51123 2.08782 2.06957
19.9625 2.38829 2.41606 3.39695 3.43133 1.97575 1.95765
19.9725 2.34805 2.37631 3.31937 3.35329 1.87708 1.85893
19.9825 2.31282 2.34166 3.24437 3.27766 1.79215 1.77386
19.9925 2.28243 2.31194 3.17229 3.2048 1.72078 1.70248
20.0025 2.25637 2.28663 3.10327 3.13485 1.66249 1.6445
20.0125 2.23376 2.26483 3.03714 3.06764 1.6166 1.59924
20.0225 2.21332 2.24521 2.97335 3.00269 1.58212 1.56548
20.0325 2.19337 2.22613 2.91111 2.93926 1.55765 1.54164
20.0425 2.17208 2.20567 2.84924 2.87631 1.54137 1.52597
20.0525 2.14832 2.18234 2.78606 2.81291 1.53133 1.51663
20.0625 2.12034 2.15435 2.72108 2.74846 1.52573 1.51177
20.0725 2.08629 2.12055 2.65481 2.68216 1.52304 1.50982
20.0825 2.04519 2.08014 2.58739 2.61351 1.52192 1.50952
20.0925 1.99689 2.03235 2.51781 2.54233 1.52123 1.50978
20.1025 1.94126 1.97677 2.44486 2.46864 1.52009 1.50971
20.1125 1.87781 1.91319 2.36829 2.39221 1.51816 1.50882
20.1225 1.80638 1.8417 2.2888 2.31293 1.5149 1.50573
20.1325 1.72739 1.76253 2.20691 2.2308 1.50941 1.50037
20.1425 1.64156 1.67636 2.12242 2.14593 1.50096 1.49256
20.1525 1.54943 1.58374 2.03492 2.05848 1.48935 1.482
20.1625 1.45148 1.48525 1.94423 1.96825 1.47457 1.46813
20.1725 1.34822 1.38139 1.85036 1.87485 1.45634 1.45037
20.1825 1.24042 1.27289 1.75333 1.77811 1.43417 1.42842
20.1925 1.12942 1.16098 1.65323 1.67829 1.40786 1.40249
20.2025 1.0166 1.04715 1.55038 1.57589 1.37769 1.37298
20.2125 0.903124 0.932814 1.44523 1.47126 1.34408 1.34011
20.2225 0.789898 0.818843 1.33785 1.36429 1.30702 1.30361
20.2325 0.677409 0.705925 1.22779 1.25446 1.26587 1.26285
20.2425 0.565667 0.59421 1.11436 1.14102 1.21962 1.21707
20.2525 0.454651 0.48304 0.996908 1.02362 1.16732 1.16536
20.2625 0.344581 0.372953 0.874941 0.901668 1.10827 1.10701
20.2725 0.235654 0.264064 0.748255 0.774887 1.04203 1.04142
20.2825 0.128103 0.15659 0.616844 0.643285 0.968203 0.968123
20.2925 0.0223461 0.0510546 0.48084 0.506966 0.886502 0.886923
20.3025 -0.081019 -0.0520254 0.340677 0.366414 0.796849 0.797822
20.3125 -0.181316 -0.151964 0.197096 0.222337 0.699435 0.701018
20.3225 -0.277903 -0.248061 0.0509608 0.0755166 0.594581 0.596776
20.3325 -0.370287 -0.339817 -0.0969726 -0.0732828 0.482512 0.485263
20.3425 -0.45814 -0.426965 -0.246081 -0.223425 0.363291 0.366545
20.3525 -0.540565 -0.509377 -0.395457 -0.374633 0.236873 0.240774
20.3625 -0.61758 -0.586979 -0.544226 -0.5259 0.103246 0.10802
20.3725 -0.690049 -0.659616 -0.692192 -0.67651 -0.0372474 -0.0315456
20.3825 -0.757858 -0.727037 -0.838911 -0.825617 -0.184124 -0.177614
20.3925 -0.820407 -0.789455 -0.983441 -0.97244 -0.337058 -0.32998
20.4025 -0.877985 -0.846644 -1.12505 -1.1158 -0.496044 -0.488678
20.4125 -0.931647 -0.899213 -1.26424 -1.25556 -0.661231 -0.654037
20.4225 -0.982337 -0.949071 -1.40135 -1.3932 -0.832906 -0.825886
20.4325 -1.03088 -0.996772 -1.53605 -1.52837 -1.01161 -1.00498
20.4425 -1.07818 -1.04344 -1.66858 -1.66177 -1.19764 -1.19137
20.4525 -1.12532 -1.08987 -1.79946 -1.7935 -1.39114 -1.38523
20.4625 -1.17311 -1.13691 -1.92913 -1.92365 -1.59198 -1.58656
20.4725 -1.22202 -1.18517 -2.05786 -2.05259 -1.79984 -1.79508
20.4825 -1.27174 -1.2349 -2.18832 -2.18081 -2.0143 -2.01036
20.4925 -1.32228 -1.28643 -2.32147 -2.30668 -2.23483 -2.23231
20.5025 -1.37448 -1.33983 -2.45343 -2.43061 -2.46093 -2.46039
20.5125 -1.42856 -1.39445 -2.5804 -2.55283 -2.69219 -2.69353
20.5225 -1.48408 -1.45021 -2.70241 -2.67275 -2.92817 -2.93089
20.5325 -1.54023 -1.50683 -2.82211 -2.78989 -3.16786 -3.17153
20.5425 -1.59643 -1.56394 -2.94103 -2.9039 -3.40984 -3.41466
20.5525 -1.65252 -1.62132 -3.05799 -3.01466 -3.65291 -3.66016
20.5625 -1.70868 -1.67867 -3.17077 -3.12206 -3.89664 -3.90726
20.5725 -1.76494 -1.7357 -3.27856 -3.22681 -4.1415 -4.1541
20.5825 -1.82095 -1.79222 -3.38256 -3.32866 -4.38738 -4.40029
20.5925 -1.8762 -1.84831 -3.48462 -3.4276 -4.63267 -4.64557
20.6025 -1.93046 -1.90374 -3.58523 -3.52388 -4.87565 -4.88967
20.6125 -1.98379 -1.95829 -3.68353 -3.61763 -5.11565 -5.13204
20.6225 -2.03616 -2.01171 -3.7787 -3.70912 -5.35299 -5.37178
20.6325 -2.0874 -2.06381 -3.871 -3.79858 -5.58793 -5.60809
20.6425 -2.13737 -2.11467 -3.96156 -3.88628 -5.81998 -5.84064
20.6525 -2.1863 -2.16458 -4.05152 -3.9728 -6.04821 -6.06952
20.6625 -2.23472 -2.21404 -4.14149 -4.05897 -6.27219 -6.29498
20.6725 -2.28328 -2.26357 -4.23181 -4.14568 -6.49234 -6.51709
20.6825 -2.33248 -2.31362 -4.32297 -4.23367 -6.70932 -6.73571
20.6925 -2.38249 -2.36437 -4.41564 -4.3234 -6.92324 -6.95061
20.7025 -2.4331 -2.41569 -4.51024 -4.41495 -7.13336 -7.16138
20.7125 -2.48387 -2.46715 -4.60667 -4.5081 -7.33846 -7.3674
20.7225 -2.53422 -2.51811 -4.70436 -4.60245 -7.53753 -7.5678
20.7325 -2.58359 -2.56791 -4.80283 -4.69748 -7.72987 -7.76158
20.7425 -2.63129 -2.61593 -4.90152 -4.79269 -7.91494 -7.94781
20.7525 -2.67673 -2.66171 -4.99974 -4.88763 -8.09204 -8.12574
20.7625 -2.71968 -2.70493 -5.09705 -4.98196 -8.26047 -8.29485
20.7725 -2.76009 -2.74544 -5.19333 -5.07542 -8.41968 -8.45483
20.7825 -2.79792 -2.78334 -5.28864 -5.1678 -8.56939 -8.60544
20.7925 -2.83316 -2.81867 -5.38285 -5.25895 -8.70962 -8.74654
20.8025 -2.86587 -2.85154 -5.47531 -5.34877 -8.8404 -8.87799
20.8125 -2.89627 -2.88203 -5.56549 -5.43699 -8.96162 -8.99963
20.8225 -2.92442 -2.91006 -5.65325 -5.52319 -9.07299 -9.11124
20.8325 -2.95009 -2.93559 -5.73845 -5.60684 -9.1741 -9.21259
20.8425 -2.97319 -2.95861 -5.82075 -5.68743 -9.26476 -9.30352
20.8525 -2.99393 -2.97926 -5.89955 -5.76465 -9.34507 -9.38407
20.8625 -3.01277 -2.9979 -5.97441 -5.83837 -9.41539 -9.45443
20.8725 -3.03023 -3.01503 -6.04522 -5.90855 -9.4761 -9.51498
20.8825 -3.0468 -3.03103 -6.11203 -5.97504 -9.52748 -9.56609
20.8925 -3.06249 -3.04617 -6.17476 -6.03755 -9.56965 -9.60799
20.9025 -3.07734 -3.0606 -6.23311 -6.09571 -9.60274 -9.64083
20.9125 -3.09169 -3.07456 -6.28673 -6.14931 -9.62709 -9.6649
20.9225 -3.10609 -3.08849 -6.33548 -6.19837 -9.64326 -9.68069
20.9325 -3.12114 -3.10306 -6.37962 -6.24313 -9.65204 -9.68897
20.9425 -3.13761 -3.11912 -6.41969 -6.28406 -9.65432 -9.69071
20.9525 -3.15641 -3.13757 -6.45641 -6.32175 -9.65114 -9.687
20.9625 -3.17847 -3.15933 -6.49045 -6.35686 -9.6436 -9.67893
20.9725 -3.20466 -3.18527 -6.52246 -6.39011 -9.63282 -9.66762
20.9825 -3.23576 -3.21618 -6.55311 -6.42225 -9.61991 -9.65412
20.9925 -3.27245 -3.25272 -6.58314 -6.454 -9.60589 -9.63947
21.0025 -3.31524 -3.29531 -6.61333 -6.48595 -9.59164 -9.6246
21.0125 -3.36439 -3.34427 -6.64435 -6.51873 -9.57787 -9.61027
21.0225 -3.41992 -3.3996 -6.67671 -6.55282 -9.56513 -9.59702
21.0325 -3.48154 -3.461 -6.71065 -6.58854 -9.55372 -9.58513
21.0425 -3.54855 -3.52786 -6.74624 -6.62602 -9.54369 -9.57461
21.0525 -3.62003 -3.59937 -6.78346 -6.66526 -9.53491 -9.56532
21.0625 -3.69517 -3.67457 -6.82234 -6.70621 -9.52713 -9.55702
21.0725 -3.77303 -3.75238 -6.8628 -6.74878 -9.52001 -9.5494
21.0825 -3.85242 -3.8317 -6.90472 -6.79284 -9.51321 -9.54208
21.0925 -3.93206 -3.91133 -6.94789 -6.83819 -9.50632 -9.53465
21.1025 -4.01074 -3.98999 -6.99205 -6.88451 -9.49883 -9.5266
21.1125 -4.08717 -4.06631 -7.0368 -6.93137 -9.49019 -9.51735
21.1225 -4.15995 -4.1386 -7.08164 -6.97831 -9.47976 -9.50629
21.1325 -4.22774 -4.20558 -7.12594 -7.02475 -9.46695 -9.49277
21.1425 -4.28925 -4.2666 -7.16899 -7.06972 -9.45117 -9.47626
21.1525 -4.34323 -4.32007 -7.21005 -7.11266 -9.43183 -9.45616
21.1625 -4.38864 -4.36517 -7.24831 -7.15302 -9.40829 -9.43208
21.1725 -4.42508 -4.40146 -7.28349 -7.19033 -9.3805 -9.40401
21.1825 -4.45269 -4.42881 -7.31584 -7.22482 -9.34916 -9.37198
21.1925 -4.47189 -4.44778 -7.34584 -7.25668 -9.31533 -9.33727
21.2025 -4.48348 -4.45927 -7.37397 -7.28654 -9.27998 -9.30076
21.2125 -4.48861 -4.46429 -7.40076 -7.31511 -9.24412 -9.26385
21.2225 -4.48859 -4.46415 -7.42687 -7.34302 -9.20897 -9.22788
21.2325 -4.48464 -4.46005 -7.45296 -7.37082 -9.1759 -9.19408
21.2425 -4.47784 -4.45316 -7.47954 -7.39893 -9.14621 -9.16356
21.2525 -4.46924 -4.44453 -7.50686 -7.42756 -9.1209 -9.13732
21.2625 -4.45979 -4.4352 -7.53496 -7.45681 -9.1007 -9.11626
21.2725 -4.45029 -4.42586 -7.5638 -7.48666 -9.08628 -9.10115
21.2825 -4.44145 -4.41679 -7.59334 -7.51661 -9.07826 -9.09269
21.2925 -4.43389 -4.40873 -7.62358 -7.54656 -9.07713 -9.09149
21.3025 -4.42786 -4.40249 -7.65431 -7.57711 -9.08316 -9.09729
21.3125 -4.42347 -4.39781 -7.68508 -7.60738 -9.09647 -9.11052
21.3225 -4.42077 -4.395 -7.71532 -7.63706 -9.11692 -9.13092
21.3325 -4.4196 -4.39368 -7.74444 -7.66556 -9.14418 -9.15821
21.3425 -4.41965 -4.39363 -7.77189 -7.69221 -9.17787 -9.19204
21.3525 -4.42066 -4.39466 -7.79722 -7.71656 -9.21761 -9.23195
21.3625 -4.42258 -4.39666 -7.82022 -7.73833 -9.26314 -9.27776
21.3725 -4.42551 -4.39977 -7.84079 -7.75749 -9.31431 -9.32937
21.3825 -4.42958 -4.40415 -7.85887 -7.77418 -9.37112 -9.38674
21.3925 -4.43499 -4.40996 -7.87454 -7.78861 -9.43355 -9.44978
21.4025 -4.44186 -4.41726 -7.8881 -7.80091 -9.50144 -9.51831
21.4125 -4.4502 -4.42607 -7.89992 -7.81136 -9.57446 -9.59205
21.4225 -4.45995 -4.43636 -7.91037 -7.82027 -9.65225 -9.67067
21.4325 -4.47117 -4.44821 -7.91988 -7.82814 -9.73451 -9.75391
21.4425 -4.48406 -4.46176 -7.92896 -7.83556 -9.82114 -9.8421
21.4525 -4.49884 -4.47723 -7.93821 -7.84317 -9.91214 -9.93469
21.4625 -4.51565 -4.49464 -7.94825 -7.85189 -10.0078 -10.0314
21.4725 -4.53458 -4.51413 -7.95981 -7.86227 -10.1081 -10.132
21.4825 -4.55555 -4.53572 -7.97378 -7.875 -10.2123 -10.2365
21.4925 -4.57846 -4.55929 -7.99086 -7.8906 -10.3197 -10.3447
21.5025 -4.60316 -4.58469 -8.01145 -7.90954 -10.4298 -10.4562
21.5125 -4.62937 -4.61157 -8.03573 -7.9322 -10.5427 -10.5703
21.5225 -4.65676 -4.63959 -8.06391 -7.95886 -10.6581 -10.6864
21.5325 -4.68499 -4.66842 -8.09628 -7.98974 -10.7753 -10.8041
21.5425 -4.71374 -4.69776 -8.13318 -8.02505 -10.8935 -10.9229
21.5525 -4.74276 -4.72738 -8.17487 -8.06499 -11.0122 -11.0425
21.5625 -4.7719 -4.75709 -8.22144 -8.10975 -11.1311 -11.1623
21.5725 -4.801 -4.78672 -8.27292 -8.15941 -11.2501 -11.2821
21.5825 -4.82983 -4.81603 -8.32921 -8.21392 -11.3687 -11.4012
21.5925 -4.85799 -4.84461 -8.39002 -8.27292 -11.4862 -11.5192
21.6025 -4.88483 -4.87185 -8.45474 -8.33576 -11.6018 -11.6352
21.6125 -4.90957 -4.89696 -8.52246 -8.40152 -11.7143 -11.7483
21.6225 -4.93145 -4.91915 -8.59208 -8.46914 -11.823 -11.8575
21.6325 -4.94987 -4.93785 -8.6626 -8.53768 -11.927 -11.9618
21.6425 -4.96454 -4.95274 -8.73321 -8.60631 -12.0258 -12.0609
21.6525 -4.97536 -4.96375 -8.80319 -8.67432 -12.119 -12.1543
21.6625 -4.98237 -4.97089 -8.87185 -8.74109 -12.2063 -12.2418
21.6725 -4.9856 -4.97418 -8.93834 -8.80571 -12.2876 -12.3233
21.6825 -4.98509 -4.97308 -9.0018 -8.86636 -12.3626 -12.3985
21.6925 -4.98086 -4.96841 -9.06155 -8.92319 -12.4309 -12.4673
21.7025 -4.97298 -4.96012 -9.11697 -8.97595 -12.4925 -12.5292
21.7125 -4.96193 -4.94855 -9.1676 -9.02383 -12.5477 -12.5848
21.7225 -4.94846 -4.93471 -9.21327 -9.06699 -12.5969 -12.6343
21.7325 -4.93326 -4.91901 -9.25383 -9.10517 -12.6405 -12.6782
21.7425 -4.91691 -4.90206 -9.28892 -9.13806 -12.6787 -12.7166
21.7525 -4.89948 -4.88384 -9.31781 -9.165 -12.7113 -12.7494
21.7625 -4.88037 -4.86407 -9.33958 -9.18507 -12.7377 -12.7761
21.7725 -4.85911 -4.84243 -9.3533 -9.19728 -12.7575 -12.796
21.7825 -4.83559 -4.81858 -9.35825 -9.20083 -12.7701 -12.8088
21.7925 -4.80999 -4.79264 -9.35397 -9.19539 -12.7753 -12.8142
21.8025 -4.78264 -4.7651 -9.34046 -9.18103 -12.7735 -12.8126
21.8125 -4.75413 -4.73656 -9.31802 -9.15804 -12.765 -12.8043
21.8225 -4.72513 -4.70763 -9.28708 -9.12681 -12.7502 -12.7897
21.8325 -4.69628 -4.67885 -9.24819 -9.0877 -12.7294 -12.7692
21.8425 -4.66824 -4.65092 -9.20202 -9.04144 -12.7033 -12.7434
21.8525 -4.64179 -4.62463 -9.14939 -8.98891 -12.6723 -12.713
21.8625 -4.61772 -4.60071 -9.09138 -8.93124 -12.6372 -12.6783
21.8725 -4.59664 -4.57976 -9.02903 -8.86941 -12.5984 -12.6401
21.8825 -4.57871 -4.56199 -8.96315 -8.80421 -12.5561 -12.5984
21.8925 -4.56375 -4.54715 -8.89416 -8.73616 -12.5104 -12.5529
21.9025 -4.5512 -4.53469 -8.82229 -8.66554 -12.4608 -12.5032
21.9125 -4.54022 -4.52376 -8.74777 -8.59246 -12.4064 -12.4487
21.9225 -4.52981 -4.51342 -8.67076 -8.51694 -12.3461 -12.3885
21.9325 -4.51893 -4.50265 -8.59131 -8.43901 -12.2792 -12.3219
21.9425 -4.50648 -4.49043 -8.5094 -8.35869 -12.2051 -12.248
21.9525 -4.49164 -4.47575 -8.42499 -8.276 -12.1231 -12.1659
21.9625 -4.47363 -4.45773 -8.33818 -8.19105 -12.0324 -12.0751
21.9725 -4.45172 -4.43573 -8.24923 -8.10407 -11.9327 -11.9751
21.9825 -4.42543 -4.40935 -8.15858 -8.01543 -11.8236 -11.8658
21.9925 -4.39456 -4.37833 -8.06668 -7.92552 -11.7051 -11.7472
22.0025 -4.35893 -4.34243 -7.97377 -7.83466 -11.5774 -11.6193
22.0125 -4.31819 -4.30129 -7.87984 -7.74292 -11.4404 -11.4818
22.0225 -4.27181 -4.25441 -7.78464 -7.65005 -11.2939 -11.3346
22.0325 -4.21931 -4.20132 -7.68788 -7.55568 -11.1376 -11.1775
22.0425 -4.16049 -4.14185 -7.5894 -7.45958 -10.9715 -11.0106
22.0525 -4.09561 -4.07626 -7.48921 -7.36175 -10.7961 -10.8344
22.0625 -4.02532 -4.0052 -7.38749 -7.26245 -10.6124 -10.6498
22.0725 -3.95052 -3.92956 -7.28456 -7.16202 -10.4215 -10.4578
22.0825 -3.87232 -3.85048 -7.18087 -7.0609 -10.2247 -10.2598
22.0925 -3.79193 -3.76916 -7.07692 -6.95954 -10.0234 -10.0573
22.1025 -3.71051 -3.6868 -6.97305 -6.85829 -9.81905 -9.85166
22.1125 -3.62911 -3.60443 -6.86944 -6.75732 -9.61287 -9.64422
22.1225 -3.54849 -3.52283 -6.76598 -6.65656 -9.40587 -9.43588
22.1325 -3.46909 -3.44233 -6.66246 -6.55562 -9.19804 -9.22697
22.1425 -3.39076 -3.36281 -6.55829 -6.45382 -8.98926 -9.01753
22.1525 -3.31296 -3.284 -6.45223 -6.34994 -8.78002 -8.80804
22.1625 -3.23521 -3.20538 -6.34284 -6.24295 -8.57052 -8.59756
22.1725 -3.15706 -3.12618 -6.22894 -6.13184 -8.36026 -8.38573
22.1825 -3.07795 -3.04603 -6.10979 -6.01553 -8.14837 -8.17235
22.1925 -2.99738 -2.96454 -5.98487 -5.89334 -7.93428 -7.9573
22.2025 -2.91527 -2.88163 -5.85382 -5.76486 -7.71814 -7.74062
22.2125 -2.83182 -2.79743 -5.71637 -5.63 -7.50056 -7.52245
22.2225 -2.74729 -2.71214 -5.57244 -5.48883 -7.28208 -7.30308
22.2325 -2.66183 -2.62596 -5.42216 -5.34148 -7.06289 -7.08284
22.2425 -2.57557 -2.53905 -5.26584 -5.18812 -6.84301 -6.86208
22.2525 -2.48864 -2.45155 -5.10387 -5.02901 -6.62259 -6.64109
22.2625 -2.40118 -2.36355 -4.93652 -4.86447 -6.40195 -6.42005
22.2725 -2.31329 -2.27513 -4.76408 -4.69492 -6.18148 -6.1991
22.2825 -2.22502 -2.18636 -4.58697 -4.52082 -5.96139 -5.97843
22.2925 -2.13646 -2.09731 -4.40582 -4.34273 -5.7418 -5.75824
22.3025 -2.04769 -2.0081 -4.22135 -4.16129 -5.52279 -5.53877
22.3125 -1.95881 -1.91956 -4.03428 -3.97827 -5.3046 -5.31997
22.3225 -1.87 -1.83142 -3.84522 -3.79379 -5.08769 -5.10207
22.3325 -1.78167 -1.74355 -3.65485 -3.60763 -4.87242 -4.88607
22.3425 -1.69405 -1.65656 -3.46396 -3.42121 -4.65885 -4.67161
22.3525 -1.60696 -1.57011 -3.2736 -3.23517 -4.44707 -4.45911
22.3625 -1.51908 -1.48434 -3.08702 -3.05048 -4.23722 -4.24846
