0 0 417.58 0 0 -417.58 0 0 844.29 0 0 -844.29 0 0 24.8012 0 0 -24.8012 0 0 -432.877 0 0 432.877 0 0 -845.648 0 0 845.648 0 0 -23.151 0 0 23.151
0 0 430.525 0 0 -430.525 0 0 843.172 0 0 -843.172 0 0 24.8407 0 0 -24.8407 0 0 -419.41 0 0 419.41 0 0 -847.007 0 0 847.007 0 0 -23.0801 0 0 23.0801
0 0 459.414 0 0 -459.414 0 0 840.745 0 0 -840.745 0 0 24.9271 0 0 -24.9271 0 0 -389.665 0 0 389.665 0 0 -849.651 0 0 849.651 0 0 -22.997 0 0 22.997
0 0 518 0 0 -518 0 0 836.437 0 0 -836.437 0 0 25.0195 0 0 -25.0195 0 0 -329.232 0 0 329.232 0 0 -854.457 0 0 854.457 0 0 -22.852 0 0 22.852
0 0 583.186 0 0 -583.186 0 0 832.501 0 0 -832.501 0 0 25.0582 0 0 -25.0582 0 0 -262.027 0 0 262.027 0 0 -858.865 0 0 858.865 0 0 -22.7897 0 0 22.7897
0 0 665.155 0 0 -665.155 0 0 828.786 0 0 -828.786 0 0 25.0072 0 0 -25.0072 0 0 -177.532 0 0 177.532 0 0 -863.162 0 0 863.162 0 0 -22.8011 0 0 22.8011
0 0 764.218 0 0 -764.218 0 0 826.003 0 0 -826.003 0 0 24.8104 0 0 -24.8104 0 0 -75.4573 0 0 75.4573 0 0 -866.561 0 0 866.561 0 0 -22.9636 0 0 22.9636
0 0 880.577 0 0 -880.577 0 0 824.991 0 0 -824.991 0 0 24.4017 0 0 -24.4017 0 0 44.3798 0 0 -44.3798 0 0 -868.166 0 0 868.166 0 0 -23.3366 0 0 23.3366
0 0 1014.47 0 0 -1014.47 0 0 826.696 0 0 -826.696 0 0 23.7236 0 0 -23.7236 0 0 182.202 0 0 -182.202 0 0 -866.988 0 0 866.988 0 0 -23.9889 0 0 23.9889
0 0 1166.09 0 0 -1166.09 0 0 832.148 0 0 -832.148 0 0 22.7207 0 0 -22.7207 0 0 338.184 0 0 -338.184 0 0 -861.964 0 0 861.964 0 0 -24.9835 0 0 24.9835
0 0 1335.38 0 0 -1335.38 0 0 842.45 0 0 -842.45 0 0 21.3399 0 0 -21.3399 0 0 512.226 0 0 -512.226 0 0 -851.943 0 0 851.943 0 0 -26.3765 0 0 26.3765
0 0 1521.38 0 0 -1521.38 0 0 858.791 0 0 -858.791 0 0 19.5345 0 0 -19.5345 0 0 702.811 0 0 -702.811 0 0 -835.828 0 0 835.828 0 0 -28.2085 0 0 28.2085
0 0 1721.53 0 0 -1721.53 0 0 882.349 0 0 -882.349 0 0 17.282 0 0 -17.282 0 0 907.219 0 0 -907.219 0 0 -812.139 0 0 812.139 0 0 -30.5182 0 0 30.5182
0 0 1931.81 0 0 -1931.81 0 0 914.721 0 0 -914.721 0 0 14.553 0 0 -14.553 0 0 1121.96 0 0 -1121.96 0 0 -779.2 0 0 779.2 0 0 -33.3289 0 0 33.3289
0 0 2145.76 0 0 -2145.76 0 0 957.46 0 0 -957.46 0 0 11.3632 0 0 -11.3632 0 0 1340.01 0 0 -1340.01 0 0 -735.493 0 0 735.493 0 0 -36.6776 0 0 36.6776
0 0 2354.94 0 0 -2354.94 0 0 1012.04 0 0 -1012.04 0 0 7.74693 0 0 -7.74693 0 0 1552.71 0 0 -1552.71 0 0 -679.404 0 0 679.404 0 0 -40.4924 0 0 40.4924
0 0 2549.52 0 0 -2549.52 0 0 1079.73 0 0 -1079.73 0 0 3.7875 0 0 -3.7875 0 0 1750.08 0 0 -1750.08 0 0 -609.443 0 0 609.443 0 0 -44.7012 0 0 44.7012
0 0 2719.19 0 0 -2719.19 0 0 1161.45 0 0 -1161.45 0 0 -0.375092 0 0 0.375092 0 0 1921.53 0 0 -1921.53 0 0 -524.605 0 0 524.605 0 0 -49.1804 0 0 49.1804
0 0 2854.3 0 0 -2854.3 0 0 1257.59 0 0 -1257.59 0 0 -4.58835 0 0 4.58835 0 0 2057.08 0 0 -2057.08 0 0 -424.509 0 0 424.509 0 0 -53.7377 0 0 53.7377
0 0 2946.29 0 0 -2946.29 0 0 1367.77 0 0 -1367.77 0 0 -8.49946 0 0 8.49946 0 0 2147.98 0 0 -2147.98 0 0 -309.485 0 0 309.485 0 0 -58.0773 0 0 58.0773
0 0 2987.62 0 0 -2987.62 0 0 1490.88 0 0 -1490.88 0 0 -11.7718 0 0 11.7718 0 0 2186.57 0 0 -2186.57 0 0 -180.649 0 0 180.649 0 0 -61.8384 0 0 61.8384
0 0 2970.86 0 0 -2970.86 0 0 1625.14 0 0 -1625.14 0 0 -13.9882 0 0 13.9882 0 0 2165.25 0 0 -2165.25 0 0 -39.8336 0 0 39.8336 0 0 -64.5964 0 0 64.5964
0 0 2887.86 0 0 -2887.86 0 0 1768.11 0 0 -1768.11 0 0 -14.6772 0 0 14.6772 0 0 2075.73 0 0 -2075.73 0 0 110.463 0 0 -110.463 0 0 -65.8658 0 0 65.8658
0 0 2729.08 0 0 -2729.08 0 0 1916.8 0 0 -1916.8 0 0 -13.3124 0 0 13.3124 0 0 1908.35 0 0 -1908.35 0 0 267.146 0 0 -267.146 0 0 -65.1165 0 0 65.1165
0 0 2483.75 0 0 -2483.75 0 0 2067.39 0 0 -2067.39 0 0 -9.37291 0 0 9.37291 0 0 1652.35 0 0 -1652.35 0 0 425.379 0 0 -425.379 0 0 -61.8524 0 0 61.8524
0 0 2141.64 0 0 -2141.64 0 0 2215.67 0 0 -2215.67 0 0 -2.23683 0 0 2.23683 0 0 1297.11 0 0 -1297.11 0 0 581.889 0 0 -581.889 0 0 -55.4037 0 0 55.4037
0 0 1697.45 0 0 -1697.45 0 0 2356.24 0 0 -2356.24 0 0 8.53694 0 0 -8.53694 0 0 837.646 0 0 -837.646 0 0 730.667 0 0 -730.667 0 0 -45.1217 0 0 45.1217
0 0 1156.79 0 0 -1156.79 0 0 2482.01 0 0 -2482.01 0 0 23.7877 0 0 -23.7877 0 0 279.792 0 0 -279.792 0 0 864.346 0 0 -864.346 0 0 -30.3674 0 0 30.3674
0 0 540.376 0 0 -540.376 0 0 2584.19 0 0 -2584.19 0 0 44.0979 0 0 -44.0979 0 0 -354.947 0 0 354.947 0 0 973.585 0 0 -973.585 0 0 -10.379 0 0 10.379
0 0 -118.125 0 0 118.125 0 0 2652.8 0 0 -2652.8 0 0 69.9619 0 0 -69.9619 0 0 -1031.86 0 0 1031.86 0 0 1047.94 0 0 -1047.94 0 0 15.1176 0 0 -15.1176
0 0 -779.903 0 0 779.903 0 0 2677.92 0 0 -2677.92 0 0 101.845 0 0 -101.845 0 0 -1710.9 0 0 1710.9 0 0 1076.85 0 0 -1076.85 0 0 46.9431 0 0 -46.9431
0 0 -1409.05 0 0 1409.05 0 0 2650.5 0 0 -2650.5 0 0 140.023 0 0 -140.023 0 0 -2357.96 0 0 2357.96 0 0 1050.31 0 0 -1050.31 0 0 85.2797 0 0 -85.2797
0 0 -1973.11 0 0 1973.11 0 0 2564.26 0 0 -2564.26 0 0 184.44 0 0 -184.44 0 0 -2936.99 0 0 2936.99 0 0 961.651 0 0 -961.651 0 0 130.136 0 0 -130.136
0 0 -2447.75 0 0 2447.75 0 0 2415.16 0 0 -2415.16 0 0 234.723 0 0 -234.723 0 0 -3421.34 0 0 3421.34 0 0 807.556 0 0 -807.556 0 0 181.152 0 0 -181.152
0 0 -2820.69 0 0 2820.69 0 0 2201.38 0 0 -2201.38 0 0 290.215 0 0 -290.215 0 0 -3797.37 0 0 3797.37 0 0 585.75 0 0 -585.75 0 0 237.553 0 0 -237.553
0 0 -3084.15 0 0 3084.15 0 0 1926.13 0 0 -1926.13 0 0 349.673 0 0 -349.673 0 0 -4059.86 0 0 4059.86 0 0 298.504 0 0 -298.504 0 0 298.377 0 0 -298.377
0 0 -3242.27 0 0 3242.27 0 0 1593.81 0 0 -1593.81 0 0 411.747 0 0 -411.747 0 0 -4211.91 0 0 4211.91 0 0 -48.2875 0 0 48.2875 0 0 362.083 0 0 -362.083
0 0 -3304.4 0 0 3304.4 0 0 1212.22 0 0 -1212.22 0 0 474.798 0 0 -474.798 0 0 -4263.71 0 0 4263.71 0 0 -446.834 0 0 446.834 0 0 426.997 0 0 -426.997
0 0 -3283.85 0 0 3283.85 0 0 791.247 0 0 -791.247 0 0 536.89 0 0 -536.89 0 0 -4229.52 0 0 4229.52 0 0 -887.993 0 0 887.993 0 0 490.862 0 0 -490.862
0 0 -3196.82 0 0 3196.82 0 0 341.869 0 0 -341.869 0 0 595.811 0 0 -595.811 0 0 -4126.15 0 0 4126.15 0 0 -1359.61 0 0 1359.61 0 0 552.051 0 0 -552.051
0 0 -3060.71 0 0 3060.71 0 0 -122.823 0 0 122.823 0 0 649.514 0 0 -649.514 0 0 -3971.86 0 0 3971.86 0 0 -1847.69 0 0 1847.69 0 0 607.771 0 0 -607.771
0 0 -2891.42 0 0 2891.42 0 0 -589.911 0 0 589.911 0 0 695.77 0 0 -695.77 0 0 -3783.47 0 0 3783.47 0 0 -2338.09 0 0 2338.09 0 0 656.206 0 0 -656.206
0 0 -2700.6 0 0 2700.6 0 0 -1046.35 0 0 1046.35 0 0 732.516 0 0 -732.516 0 0 -3573.27 0 0 3573.27 0 0 -2817.53 0 0 2817.53 0 0 694.941 0 0 -694.941
0 0 -2494.47 0 0 2494.47 0 0 -1479.99 0 0 1479.99 0 0 757.749 0 0 -757.749 0 0 -3348.12 0 0 3348.12 0 0 -3273.21 0 0 3273.21 0 0 722.019 0 0 -722.019
0 0 -2276.15 0 0 2276.15 0 0 -1881.58 0 0 1881.58 0 0 769.344 0 0 -769.344 0 0 -3111.72 0 0 3111.72 0 0 -3693.31 0 0 3693.31 0 0 735.519 0 0 -735.519
0 0 -2051.46 0 0 2051.46 0 0 -2238.2 0 0 2238.2 0 0 766.357 0 0 -766.357 0 0 -2870.47 0 0 2870.47 0 0 -4066.6 0 0 4066.6 0 0 733.845 0 0 -733.845
0 0 -1834.79 0 0 1834.79 0 0 -2539.39 0 0 2539.39 0 0 747.209 0 0 -747.209 0 0 -2639.31 0 0 2639.31 0 0 -4381.55 0 0 4381.55 0 0 715.771 0 0 -715.771
0 0 -1651.08 0 0 1651.08 0 0 -2775.09 0 0 2775.09 0 0 710.889 0 0 -710.889 0 0 -2444 0 0 2444 0 0 -4627.52 0 0 4627.52 0 0 680.245 0 0 -680.245
0 0 -1534.83 0 0 1534.83 0 0 -2936.32 0 0 2936.32 0 0 656.866 0 0 -656.866 0 0 -2320.31 0 0 2320.31 0 0 -4794.93 0 0 4794.93 0 0 626.618 0 0 -626.618
0 0 -1528.65 0 0 1528.65 0 0 -3015.71 0 0 3015.71 0 0 585.025 0 0 -585.025 0 0 -2312.15 0 0 2312.15 0 0 -4876.05 0 0 4876.05 0 0 554.703 0 0 -554.703
0 0 -1749.66 0 0 1749.66 0 0 -2992.66 0 0 2992.66 0 0 470.76 0 0 -470.76 0 0 -2540.32 0 0 2540.32 0 0 -4848.39 0 0 4848.39 0 0 439.624 0 0 -439.624
0 0 -2313.29 0 0 2313.29 0 0 -2832.32 0 0 2832.32 0 0 331.083 0 0 -331.083 0 0 -3124.1 0 0 3124.1 0 0 -4675.32 0 0 4675.32 0 0 298.368 0 0 -298.368
0 0 -3294.38 0 0 3294.38 0 0 -2543.88 0 0 2543.88 0 0 169.265 0 0 -169.265 0 0 -4139.99 0 0 4139.99 0 0 -4366.02 0 0 4366.02 0 0 134.236 0 0 -134.236
0 0 -4726.73 0 0 4726.73 0 0 -2149.88 0 0 2149.88 0 0 -10.4891 0 0 10.4891 0 0 -5622.03 0 0 5622.03 0 0 -3943.88 0 0 3943.88 0 0 -50.0801 0 0 50.0801
0 0 -6591.26 0 0 6591.26 0 0 -1686.48 0 0 1686.48 0 0 -204.731 0 0 204.731 0 0 -7549.58 0 0 7549.58 0 0 -3447.56 0 0 3447.56 0 0 -245.995 0 0 245.995
0 0 -8811.11 0 0 8811.11 0 0 -1203.55 0 0 1203.55 0 0 -402.598 0 0 402.598 0 0 -9842.51 0 0 9842.51 0 0 -2928.89 0 0 2928.89 0 0 -448.242 0 0 448.242
0 0 -11252.8 0 0 11252.8 0 0 -760.095 0 0 760.095 0 0 -597.095 0 0 597.095 0 0 -12362.2 0 0 12362.2 0 0 -2450.53 0 0 2450.53 0 0 -646.009 0 0 646.009
0 0 -13738.2 0 0 13738.2 0 0 -419.879 0 0 419.879 0 0 -780.632 0 0 780.632 0 0 -14924.1 0 0 14924.1 0 0 -2080.01 0 0 2080.01 0 0 -832.775 0 0 832.775
0 0 -16077.3 0 0 16077.3 0 0 -243.92 0 0 243.92 0 0 -946.157 0 0 946.157 0 0 -17331.7 0 0 17331.7 0 0 -1881.9 0 0 1881.9 0 0 -1000.37 0 0 1000.37
0 0 -18109.8 0 0 18109.8 0 0 -282.509 0 0 282.509 0 0 -1088.05 0 0 1088.05 0 0 -19418.8 0 0 19418.8 0 0 -1909.56 0 0 1909.56 0 0 -1143.58 0 0 1143.58
0 0 -19731.3 0 0 19731.3 0 0 -569.09 0 0 569.09 0 0 -1202.81 0 0 1202.81 0 0 -21077.2 0 0 21077.2 0 0 -2198.12 0 0 2198.12 0 0 -1258.39 0 0 1258.39
0 0 -20895.9 0 0 20895.9 0 0 -1117.73 0 0 1117.73 0 0 -1289.22 0 0 1289.22 0 0 -22258.7 0 0 22258.7 0 0 -2762.81 0 0 2762.81 0 0 -1343.46 0 0 1343.46
0 0 -21605.5 0 0 21605.5 0 0 -1923.31 0 0 1923.31 0 0 -1348.28 0 0 1348.28 0 0 -22965.6 0 0 22965.6 0 0 -3598.2 0 0 3598.2 0 0 -1399.83 0 0 1399.83
0 0 -21899.3 0 0 21899.3 0 0 -2962.89 0 0 2962.89 0 0 -1383.23 0 0 1383.23 0 0 -23238.3 0 0 23238.3 0 0 -4680.18 0 0 4680.18 0 0 -1430.92 0 0 1430.92
0 0 -21838 0 0 21838 0 0 -4198.42 0 0 4198.42 0 0 -1399.28 0 0 1399.28 0 0 -23140.2 0 0 23140.2 0 0 -5968.66 0 0 5968.66 0 0 -1442.19 0 0 1442.19
0 0 -21487 0 0 21487 0 0 -5580.45 0 0 5580.45 0 0 -1403.31 0 0 1403.31 0 0 -22740.1 0 0 22740.1 0 0 -7411.76 0 0 7411.76 0 0 -1440.65 0 0 1440.65
0 0 -20912.9 0 0 20912.9 0 0 -7051.12 0 0 7051.12 0 0 -1403.25 0 0 1403.25 0 0 -22107.9 0 0 22107.9 0 0 -8948.69 0 0 8948.69 0 0 -1434.57 0 0 1434.57
0 0 -20195.5 0 0 20195.5 0 0 -8546.05 0 0 8546.05 0 0 -1407.74 0 0 1407.74 0 0 -21327.7 0 0 21327.7 0 0 -10511.6 0 0 10511.6 0 0 -1432.91 0 0 1432.91
0 0 -19436.8 0 0 19436.8 0 0 -9996.82 0 0 9996.82 0 0 -1425.55 0 0 1425.55 0 0 -20506.2 0 0 20506.2 0 0 -12028.5 0 0 12028.5 0 0 -1444.85 0 0 1444.85
0 0 -18754.4 0 0 18754.4 0 0 -11335.3 0 0 11335.3 0 0 -1465.05 0 0 1465.05 0 0 -19766.4 0 0 19766.4 0 0 -13427.6 0 0 13427.6 0 0 -1479.09 0 0 1479.09
0 0 -18261.3 0 0 18261.3 0 0 -12499.3 0 0 12499.3 0 0 -1533.53 0 0 1533.53 0 0 -19225.9 0 0 19225.9 0 0 -14643.4 0 0 14643.4 0 0 -1543.21 0 0 1543.21
0 0 -18039.3 0 0 18039.3 0 0 -13438.7 0 0 13438.7 0 0 -1636.61 0 0 1636.61 0 0 -18970.5 0 0 18970.5 0 0 -15622.9 0 0 15622.9 0 0 -1643.07 0 0 1643.07
0 0 -18124.3 0 0 18124.3 0 0 -14119 0 0 14119 0 0 -1777.77 0 0 1777.77 0 0 -19038.4 0 0 19038.4 0 0 -16330 0 0 16330 0 0 -1782.34 0 0 1782.34
0 0 -18517.4 0 0 18517.4 0 0 -14522.2 0 0 14522.2 0 0 -1958.21 0 0 1958.21 0 0 -19431.2 0 0 19431.2 0 0 -16745.8 0 0 16745.8 0 0 -1962.32 0 0 1962.32
0 0 -19201.1 0 0 19201.1 0 0 -14645.6 0 0 14645.6 0 0 -2176.74 0 0 2176.74 0 0 -20131.5 0 0 20131.5 0 0 -16867.4 0 0 16867.4 0 0 -2181.82 0 0 2181.82
0 0 -20145.9 0 0 20145.9 0 0 -14501.1 0 0 14501.1 0 0 -2429.9 0 0 2429.9 0 0 -21108.4 0 0 21108.4 0 0 -16707.5 0 0 16707.5 0 0 -2437.29 0 0 2437.29
0 0 -21312.3 0 0 21312.3 0 0 -14114 0 0 14114 0 0 -2712.04 0 0 2712.04 0 0 -22320.6 0 0 22320.6 0 0 -16292.8 0 0 16292.8 0 0 -2722.96 0 0 2722.96
0 0 -22653.3 0 0 22653.3 0 0 -13521.4 0 0 13521.4 0 0 -3015.64 0 0 3015.64 0 0 -23718.6 0 0 23718.6 0 0 -15662.5 0 0 15662.5 0 0 -3031.12 0 0 3031.12
0 0 -24117.7 0 0 24117.7 0 0 -12770 0 0 12770 0 0 -3331.71 0 0 3331.71 0 0 -25248.5 0 0 25248.5 0 0 -14865.5 0 0 14865.5 0 0 -3352.5 0 0 3352.5
0 0 -25651 0 0 25651 0 0 -11913.4 0 0 11913.4 0 0 -3650.14 0 0 3650.14 0 0 -26852.4 0 0 26852.4 0 0 -13958.2 0 0 13958.2 0 0 -3676.73 0 0 3676.73
0 0 -27194.1 0 0 27194.1 0 0 -11009.5 0 0 11009.5 0 0 -3960.26 0 0 3960.26 0 0 -28467.7 0 0 28467.7 0 0 -13001.9 0 0 13001.9 0 0 -3992.8 0 0 3992.8
0 0 -28686.7 0 0 28686.7 0 0 -10117.8 0 0 10117.8 0 0 -4251.3 0 0 4251.3 0 0 -30030.9 0 0 30030.9 0 0 -12058.8 0 0 12058.8 0 0 -4289.64 0 0 4289.64
0 0 -30075.3 0 0 30075.3 0 0 -9295.32 0 0 9295.32 0 0 -4513.01 0 0 4513.01 0 0 -31485.1 0 0 31485.1 0 0 -11189 0 0 11189 0 0 -4556.68 0 0 4556.68
0 0 -31321.5 0 0 31321.5 0 0 -8593.35 0 0 8593.35 0 0 -4736.09 0 0 4736.09 0 0 -32789.1 0 0 32789.1 0 0 -10446.2 0 0 10446.2 0 0 -4784.35 0 0 4784.35
0 0 -32403.9 0 0 32403.9 0 0 -8055.02 0 0 8055.02 0 0 -4912.7 0 0 4912.7 0 0 -33919.7 0 0 33919.7 0 0 -9875.91 0 0 9875.91 0 0 -4964.57 0 0 4964.57
0 0 -33310.5 0 0 33310.5 0 0 -7714.21 0 0 7714.21 0 0 -5036.74 0 0 5036.74 0 0 -34863.2 0 0 34863.2 0 0 -9513.51 0 0 9513.51 0 0 -5091.05 0 0 5091.05
0 0 -34020.3 0 0 34020.3 0 0 -7595.83 0 0 7595.83 0 0 -5104.06 0 0 5104.06 0 0 -35597.4 0 0 35597.4 0 0 -9385.29 0 0 9385.29 0 0 -5159.5 0 0 5159.5
0 0 -34488.4 0 0 34488.4 0 0 -7716 0 0 7716 0 0 -5112.67 0 0 5112.67 0 0 -36075.8 0 0 36075.8 0 0 -9508.39 0 0 9508.39 0 0 -5167.82 0 0 5167.82
0 0 -34648.8 0 0 34648.8 0 0 -8080.75 0 0 8080.75 0 0 -5062.83 0 0 5062.83 0 0 -36230.2 0 0 36230.2 0 0 -9889.39 0 0 9889.39 0 0 -5116.26 0 0 5116.26
0 0 -34433.6 0 0 34433.6 0 0 -8683.23 0 0 8683.23 0 0 -4957.25 0 0 4957.25 0 0 -35991.3 0 0 35991.3 0 0 -10521.4 0 0 10521.4 0 0 -5007.53 0 0 5007.53
0 0 -33956.1 0 0 33956.1 0 0 -9322.18 0 0 9322.18 0 0 -4836 0 0 4836 0 0 -35481.5 0 0 35481.5 0 0 -11192.9 0 0 11192.9 0 0 -4882.82 0 0 4882.82
0 0 -32957.8 0 0 32957.8 0 0 -10286.6 0 0 10286.6 0 0 -4644.51 0 0 4644.51 0 0 -34426.5 0 0 34426.5 0 0 -12208.1 0 0 12208.1 0 0 -4685.98 0 0 4685.98
0 0 -31525.4 0 0 31525.4 0 0 -11387.6 0 0 11387.6 0 0 -4417.2 0 0 4417.2 0 0 -32920.9 0 0 32920.9 0 0 -13368.5 0 0 13368.5 0 0 -4452.44 0 0 4452.44
0 0 -29706.4 0 0 29706.4 0 0 -12561.6 0 0 12561.6 0 0 -4164.76 0 0 4164.76 0 0 -31015.3 0 0 31015.3 0 0 -14607.5 0 0 14607.5 0 0 -4193.21 0 0 4193.21
0 0 -27570.3 0 0 27570.3 0 0 -13735.6 0 0 13735.6 0 0 -3898.94 0 0 3898.94 0 0 -28783.5 0 0 28783.5 0 0 -15848.4 0 0 15848.4 0 0 -3920.44 0 0 3920.44
0 0 -25194.3 0 0 25194.3 0 0 -14832.8 0 0 14832.8 0 0 -3631.86 0 0 3631.86 0 0 -26307.1 0 0 26307.1 0 0 -17010.3 0 0 17010.3 0 0 -3646.65 0 0 3646.65
0 0 -22659.6 0 0 22659.6 0 0 -15775.8 0 0 15775.8 0 0 -3375.4 0 0 3375.4 0 0 -23672.1 0 0 23672.1 0 0 -18012 0 0 18012 0 0 -3384.11 0 0 3384.11
0 0 -20046.1 0 0 20046.1 0 0 -16491.4 0 0 16491.4 0 0 -3140.46 0 0 3140.46 0 0 -20962.8 0 0 20962.8 0 0 -18776.3 0 0 18776.3 0 0 -3144.11 0 0 3144.11
0 0 -17425 0 0 17425 0 0 -16914.5 0 0 16914.5 0 0 -2936.38 0 0 2936.38 0 0 -18254.6 0 0 18254.6 0 0 -19234.8 0 0 19234.8 0 0 -2936.33 0 0 2936.33
0 0 -14858 0 0 14858 0 0 -16991.6 0 0 16991.6 0 0 -2770.43 0 0 2770.43 0 0 -15612.7 0 0 15612.7 0 0 -19331.1 0 0 19331.1 0 0 -2768.28 0 0 2768.28
0 0 -12395.5 0 0 12395.5 0 0 -16683.2 0 0 16683.2 0 0 -2647.3 0 0 2647.3 0 0 -13090.3 0 0 13090.3 0 0 -19023.8 0 0 19023.8 0 0 -2644.88 0 0 2644.88
0 0 -10072.5 0 0 10072.5 0 0 -15966.4 0 0 15966.4 0 0 -2568.88 0 0 2568.88 0 0 -10724.1 0 0 10724.1 0 0 -18288.7 0 0 18288.7 0 0 -2568.12 0 0 2568.12
0 0 -7912.47 0 0 7912.47 0 0 -14835.5 0 0 14835.5 0 0 -2534.05 0 0 2534.05 0 0 -8538.52 0 0 8538.52 0 0 -17119.9 0 0 17119.9 0 0 -2536.9 0 0 2536.9
0 0 -5939.85 0 0 5939.85 0 0 -13301.3 0 0 13301.3 0 0 -2538.73 0 0 2538.73 0 0 -6558.44 0 0 6558.44 0 0 -15528.6 0 0 15528.6 0 0 -2547.09 0 0 2547.09
0 0 -4193.51 0 0 4193.51 0 0 -11389.9 0 0 11389.9 0 0 -2576.05 0 0 2576.05 0 0 -4822.87 0 0 4822.87 0 0 -13542 0 0 13542 0 0 -2591.68 0 0 2591.68
0 0 -2718.71 0 0 2718.71 0 0 -9142.58 0 0 9142.58 0 0 -2636.47 0 0 2636.47 0 0 -3376.78 0 0 3376.78 0 0 -11203.2 0 0 11203.2 0 0 -2660.95 0 0 2660.95
0 0 -1539.47 0 0 1539.47 0 0 -6617.21 0 0 6617.21 0 0 -2708.12 0 0 2708.12 0 0 -2242.87 0 0 2242.87 0 0 -8573.15 0 0 8573.15 0 0 -2742.71 0 0 2742.71
0 0 -648.082 0 0 648.082 0 0 -3887.59 0 0 3887.59 0 0 -2777.23 0 0 2777.23 0 0 -1410.88 0 0 1410.88 0 0 -5729.12 0 0 5729.12 0 0 -2822.82 0 0 2822.82
0 0 -13.0969 0 0 13.0969 0 0 -1039.58 0 0 1039.58 0 0 -2828.76 0 0 2828.76 0 0 -845.782 0 0 845.782 0 0 -2761.17 0 0 2761.17 0 0 -2885.79 0 0 2885.79
0 0 399.397 0 0 -399.397 0 0 1828.98 0 0 -1828.98 0 0 -2846.72 0 0 2846.72 0 0 -497.118 0 0 497.118 0 0 231.392 0 0 -231.392 0 0 -2915.52 0 0 2915.52
0 0 658.317 0 0 -658.317 0 0 4624.91 0 0 -4624.91 0 0 -2816.41 0 0 2816.41 0 0 -316.601 0 0 316.601 0 0 3142.46 0 0 -3142.46 0 0 -2895.83 0 0 2895.83
0 0 845.578 0 0 -845.578 0 0 7232.31 0 0 -7232.31 0 0 -2723.76 0 0 2723.76 0 0 -207.005 0 0 207.005 0 0 5871.14 0 0 -5871.14 0 0 -2813.25 0 0 2813.25
0 0 1057.09 0 0 -1057.09 0 0 9575.28 0 0 -9575.28 0 0 -2558.27 0 0 2558.27 0 0 -59.6772 0 0 59.6772 0 0 8305.57 0 0 -8305.57 0 0 -2655 0 0 2655
0 0 1406.45 0 0 -1406.45 0 0 11578.2 0 0 -11578.2 0 0 -2306.92 0 0 2306.92 0 0 239.487 0 0 -239.487 0 0 10383.3 0 0 -10383.3 0 0 -2410.7 0 0 2410.7
0 0 2015.03 0 0 -2015.03 0 0 13170.8 0 0 -13170.8 0 0 -1963.76 0 0 1963.76 0 0 816.545 0 0 -816.545 0 0 12034.9 0 0 -12034.9 0 0 -2071.54 0 0 2071.54
0 0 2983.64 0 0 -2983.64 0 0 14308.1 0 0 -14308.1 0 0 -1525.59 0 0 1525.59 0 0 1777.23 0 0 -1777.23 0 0 13204.2 0 0 -13204.2 0 0 -1634.95 0 0 1634.95
0 0 4357.66 0 0 -4357.66 0 0 14968.2 0 0 -14968.2 0 0 -993.964 0 0 993.964 0 0 3167.8 0 0 -3167.8 0 0 13873.2 0 0 -13873.2 0 0 -1102.97 0 0 1102.97
0 0 6116.86 0 0 -6116.86 0 0 15157.9 0 0 -15157.9 0 0 -375.16 0 0 375.16 0 0 4967.88 0 0 -4967.88 0 0 14048.9 0 0 -14048.9 0 0 -480.705 0 0 480.705
0 0 8196.7 0 0 -8196.7 0 0 14911.2 0 0 -14911.2 0 0 312.434 0 0 -312.434 0 0 7110.19 0 0 -7110.19 0 0 13767.2 0 0 -13767.2 0 0 210.84 0 0 -210.84
0 0 10525.1 0 0 -10525.1 0 0 14280.3 0 0 -14280.3 0 0 1060.54 0 0 -1060.54 0 0 9519.25 0 0 -9519.25 0 0 13082.3 0 0 -13082.3 0 0 969.725 0 0 -969.725
0 0 13047.6 0 0 -13047.6 0 0 13332.3 0 0 -13332.3 0 0 1854.57 0 0 -1854.57 0 0 12137.4 0 0 -12137.4 0 0 12064.9 0 0 -12064.9 0 0 1770.45 0 0 -1770.45
0 0 15731.1 0 0 -15731.1 0 0 12145.5 0 0 -12145.5 0 0 2675.03 0 0 -2675.03 0 0 14927.6 0 0 -14927.6 0 0 10798.5 0 0 -10798.5 0 0 2600.6 0 0 -2600.6
0 0 18545 0 0 -18545 0 0 10808.2 0 0 -10808.2 0 0 3501.91 0 0 -3501.91 0 0 17856 0 0 -17856 0 0 9373.66 0 0 -9373.66 0 0 3438.67 0 0 -3438.67
0 0 21448 0 0 -21448 0 0 9416.14 0 0 -9416.14 0 0 4314.37 0 0 -4314.37 0 0 20877 0 0 -20877 0 0 7891.95 0 0 -7891.95 0 0 4260.64 0 0 -4260.64
0 0 24393.9 0 0 -24393.9 0 0 8067.26 0 0 -8067.26 0 0 5090.62 0 0 -5090.62 0 0 23940.2 0 0 -23940.2 0 0 6455.37 0 0 -6455.37 0 0 5046.65 0 0 -5046.65
0 0 27341.1 0 0 -27341.1 0 0 6857.08 0 0 -6857.08 0 0 5809.75 0 0 -5809.75 0 0 26999.7 0 0 -26999.7 0 0 5164.43 0 0 -5164.43 0 0 5774.41 0 0 -5774.41
0 0 30255.1 0 0 -30255.1 0 0 5874.82 0 0 -5874.82 0 0 6452.78 0 0 -6452.78 0 0 30017.3 0 0 -30017.3 0 0 4112.57 0 0 -4112.57 0 0 6425.13 0 0 -6425.13
0 0 33103.5 0 0 -33103.5 0 0 5199.87 0 0 -5199.87 0 0 7003.5 0 0 -7003.5 0 0 32956.9 0 0 -32956.9 0 0 3382.51 0 0 -3382.51 0 0 6981.77 0 0 -6981.77
0 0 35839.7 0 0 -35839.7 0 0 4962.81 0 0 -4962.81 0 0 7098.59 0 0 -7098.59 0 0 35772.7 0 0 -35772.7 0 0 3093.61 0 0 -3093.61 0 0 7115.9 0 0 -7115.9
0 0 38421.8 0 0 -38421.8 0 0 5130.91 0 0 -5130.91 0 0 7075.73 0 0 -7075.73 0 0 38397.4 0 0 -38397.4 0 0 3282.2 0 0 -3282.2 0 0 7088.47 0 0 -7088.47
0 0 40746.8 0 0 -40746.8 0 0 5758.58 0 0 -5758.58 0 0 7031.87 0 0 -7031.87 0 0 40770.1 0 0 -40770.1 0 0 3871.03 0 0 -3871.03 0 0 7136.87 0 0 -7136.87
0 0 42717.5 0 0 -42717.5 0 0 6815.16 0 0 -6815.16 0 0 7045.82 0 0 -7045.82 0 0 42745.8 0 0 -42745.8 0 0 4977.33 0 0 -4977.33 0 0 7136.34 0 0 -7136.34
0 0 44217 0 0 -44217 0 0 8327.97 0 0 -8327.97 0 0 7059.13 0 0 -7059.13 0 0 44230.4 0 0 -44230.4 0 0 6544.89 0 0 -6544.89 0 0 7124.35 0 0 -7124.35
0 0 45168.1 0 0 -45168.1 0 0 10282.9 0 0 -10282.9 0 0 6953.21 0 0 -6953.21 0 0 45136.5 0 0 -45136.5 0 0 8583.56 0 0 -8583.56 0 0 6990.65 0 0 -6990.65
0 0 45538 0 0 -45538 0 0 12628.6 0 0 -12628.6 0 0 6730.41 0 0 -6730.41 0 0 45439.3 0 0 -45439.3 0 0 11017.5 0 0 -11017.5 0 0 6783.01 0 0 -6783.01
0 0 45352 0 0 -45352 0 0 15274.3 0 0 -15274.3 0 0 6435.82 0 0 -6435.82 0 0 45161.6 0 0 -45161.6 0 0 13775.6 0 0 -13775.6 0 0 6490.25 0 0 -6490.25
0 0 44101.1 0 0 -44101.1 0 0 17956.7 0 0 -17956.7 0 0 6109.74 0 0 -6109.74 0 0 44227.7 0 0 -44227.7 0 0 16675.7 0 0 -16675.7 0 0 6133.47 0 0 -6133.47
0 0 42259.8 0 0 -42259.8 0 0 20571.8 0 0 -20571.8 0 0 5748.4 0 0 -5748.4 0 0 42912.6 0 0 -42912.6 0 0 19645.7 0 0 -19645.7 0 0 5738.73 0 0 -5738.73
0 0 40355.4 0 0 -40355.4 0 0 23239.4 0 0 -23239.4 0 0 5354.21 0 0 -5354.21 0 0 41198.8 0 0 -41198.8 0 0 22535.9 0 0 -22535.9 0 0 5338 0 0 -5338
0 0 38494.5 0 0 -38494.5 0 0 25807 0 0 -25807 0 0 4958.52 0 0 -4958.52 0 0 39494.8 0 0 -39494.8 0 0 25274.5 0 0 -25274.5 0 0 4938.67 0 0 -4938.67
0 0 2775.26 0 0 -2775.26 0 0 19513.1 0 0 -19513.1 0 0 5397.27 0 0 -5397.27 0 0 27685.8 0 0 -27685.8 0 0 23064.8 0 0 -23064.8 0 0 4903.96 0 0 -4903.96
0 0 -1561.52 0 0 1561.52 0 0 16836.6 0 0 -16836.6 0 0 4792.42 0 0 -4792.42 0 0 30981.4 0 0 -30981.4 0 0 26389.7 0 0 -26389.7 0 0 4371.08 0 0 -4371.08
0 0 3704.79 0 0 -3704.79 0 0 22314.6 0 0 -22314.6 0 0 4286.79 0 0 -4286.79 0 0 28377 0 0 -28377 0 0 28889 0 0 -28889 0 0 4055.87 0 0 -4055.87
0 0 2885.28 0 0 -2885.28 0 0 24643.5 0 0 -24643.5 0 0 3930.16 0 0 -3930.16 0 0 27507.9 0 0 -27507.9 0 0 30735.3 0 0 -30735.3 0 0 3639.35 0 0 -3639.35
0 0 -1816.16 0 0 1816.16 0 0 23369.9 0 0 -23369.9 0 0 3693.64 0 0 -3693.64 0 0 27297.7 0 0 -27297.7 0 0 31878.8 0 0 -31878.8 0 0 3278.77 0 0 -3278.77
0 0 -665.941 0 0 665.941 0 0 25199.4 0 0 -25199.4 0 0 3333.23 0 0 -3333.23 0 0 27160.3 0 0 -27160.3 0 0 32945.7 0 0 -32945.7 0 0 3004.25 0 0 -3004.25
0 0 687.48 0 0 -687.48 0 0 26443.2 0 0 -26443.2 0 0 3045.62 0 0 -3045.62 0 0 27437.7 0 0 -27437.7 0 0 33613.4 0 0 -33613.4 0 0 2725.95 0 0 -2725.95
0 0 -426.452 0 0 426.452 0 0 25380.9 0 0 -25380.9 0 0 2895.65 0 0 -2895.65 0 0 28388.4 0 0 -28388.4 0 0 33524.8 0 0 -33524.8 0 0 2552.92 0 0 -2552.92
0 0 704.371 0 0 -704.371 0 0 24963.9 0 0 -24963.9 0 0 2780.81 0 0 -2780.81 0 0 29635.9 0 0 -29635.9 0 0 33096.3 0 0 -33096.3 0 0 2397.9 0 0 -2397.9
0 0 2951.17 0 0 -2951.17 0 0 24608.1 0 0 -24608.1 0 0 2677.8 0 0 -2677.8 0 0 31253.8 0 0 -31253.8 0 0 32283.5 0 0 -32283.5 0 0 2314.5 0 0 -2314.5
0 0 4304.08 0 0 -4304.08 0 0 23034.1 0 0 -23034.1 0 0 2636.04 0 0 -2636.04 0 0 33421.5 0 0 -33421.5 0 0 30981.5 0 0 -30981.5 0 0 2301.3 0 0 -2301.3
0 0 6411.79 0 0 -6411.79 0 0 21341 0 0 -21341 0 0 2650.93 0 0 -2650.93 0 0 36000.8 0 0 -36000.8 0 0 29375.2 0 0 -29375.2 0 0 2317.19 0 0 -2317.19
0 0 9405.05 0 0 -9405.05 0 0 19778.6 0 0 -19778.6 0 0 2699.41 0 0 -2699.41 0 0 38917.3 0 0 -38917.3 0 0 27575.7 0 0 -27575.7 0 0 2351.48 0 0 -2351.48
0 0 12124.6 0 0 -12124.6 0 0 17779.3 0 0 -17779.3 0 0 2761.36 0 0 -2761.36 0 0 42150.6 0 0 -42150.6 0 0 25614.3 0 0 -25614.3 0 0 2417.41 0 0 -2417.41
0 0 14876.9 0 0 -14876.9 0 0 15723.9 0 0 -15723.9 0 0 2817.59 0 0 -2817.59 0 0 45517.1 0 0 -45517.1 0 0 23643.6 0 0 -23643.6 0 0 2494.29 0 0 -2494.29
0 0 17837.1 0 0 -17837.1 0 0 13967.2 0 0 -13967.2 0 0 2865.9 0 0 -2865.9 0 0 47881 0 0 -47881 0 0 21923.1 0 0 -21923.1 0 0 2544.11 0 0 -2544.11
0 0 20391.9 0 0 -20391.9 0 0 12417.3 0 0 -12417.3 0 0 2896.5 0 0 -2896.5 0 0 48137.5 0 0 -48137.5 0 0 20724.6 0 0 -20724.6 0 0 2557.01 0 0 -2557.01
0 0 22501.3 0 0 -22501.3 0 0 11060.2 0 0 -11060.2 0 0 2897.35 0 0 -2897.35 0 0 48361.4 0 0 -48361.4 0 0 19802.6 0 0 -19802.6 0 0 2537.73 0 0 -2537.73
0 0 24325.5 0 0 -24325.5 0 0 10164.2 0 0 -10164.2 0 0 2844.17 0 0 -2844.17 0 0 48554.3 0 0 -48554.3 0 0 19173.7 0 0 -19173.7 0 0 2493.01 0 0 -2493.01
0 0 25662 0 0 -25662 0 0 9636.48 0 0 -9636.48 0 0 2755.43 0 0 -2755.43 0 0 48708.2 0 0 -48708.2 0 0 18955.7 0 0 -18955.7 0 0 2387.9 0 0 -2387.9
0 0 26441 0 0 -26441 0 0 9485.66 0 0 -9485.66 0 0 2627.15 0 0 -2627.15 0 0 48823.9 0 0 -48823.9 0 0 19102.9 0 0 -19102.9 0 0 2247.72 0 0 -2247.72
0 0 26777.8 0 0 -26777.8 0 0 9781.9 0 0 -9781.9 0 0 2455.72 0 0 -2455.72 0 0 48900.4 0 0 -48900.4 0 0 19657.5 0 0 -19657.5 0 0 2059.68 0 0 -2059.68
0 0 26637.7 0 0 -26637.7 0 0 10494.8 0 0 -10494.8 0 0 2240.45 0 0 -2240.45 0 0 48937.5 0 0 -48937.5 0 0 20601.5 0 0 -20601.5 0 0 1836.47 0 0 -1836.47
0 0 25983.3 0 0 -25983.3 0 0 11576 0 0 -11576 0 0 1994.19 0 0 -1994.19 0 0 48823.5 0 0 -48823.5 0 0 21921.4 0 0 -21921.4 0 0 1580.22 0 0 -1580.22
0 0 24873.5 0 0 -24873.5 0 0 13030.3 0 0 -13030.3 0 0 1727.96 0 0 -1727.96 0 0 48237.5 0 0 -48237.5 0 0 23620.7 0 0 -23620.7 0 0 1298.06 0 0 -1298.06
0 0 23339.6 0 0 -23339.6 0 0 14803.3 0 0 -14803.3 0 0 1450.84 0 0 -1450.84 0 0 47152.5 0 0 -47152.5 0 0 25630.5 0 0 -25630.5 0 0 1003.68 0 0 -1003.68
0 0 21413.5 0 0 -21413.5 0 0 16806.8 0 0 -16806.8 0 0 1174.67 0 0 -1174.67 0 0 45534.9 0 0 -45534.9 0 0 27860.5 0 0 -27860.5 0 0 713.587 0 0 -713.587
0 0 19181.4 0 0 -19181.4 0 0 18977.2 0 0 -18977.2 0 0 914.876 0 0 -914.876 0 0 43557.3 0 0 -43557.3 0 0 30238.6 0 0 -30238.6 0 0 442.693 0 0 -442.693
0 0 16748.6 0 0 -16748.6 0 0 21213.5 0 0 -21213.5 0 0 694.857 0 0 -694.857 0 0 41285.2 0 0 -41285.2 0 0 32667 0 0 -32667 0 0 207.976 0 0 -207.976
0 0 14231.9 0 0 -14231.9 0 0 23404.7 0 0 -23404.7 0 0 528.658 0 0 -528.658 0 0 38845.2 0 0 -38845.2 0 0 35014 0 0 -35014 0 0 46.0405 0 0 -46.0405
0 0 12252.5 0 0 -12252.5 0 0 25046.2 0 0 -25046.2 0 0 441.615 0 0 -441.615 0 0 36866.1 0 0 -36866.1 0 0 36756 0 0 -36756 0 0 -46.2825 0 0 46.2825
0 0 10408.6 0 0 -10408.6 0 0 26408.6 0 0 -26408.6 0 0 404.893 0 0 -404.893 0 0 35200.5 0 0 -35200.5 0 0 36849.6 0 0 -36849.6 0 0 -6.25711 0 0 6.25711
0 0 8763.77 0 0 -8763.77 0 0 27490.6 0 0 -27490.6 0 0 453.615 0 0 -453.615 0 0 33579.2 0 0 -33579.2 0 0 36968.9 0 0 -36968.9 0 0 -0.0358694 0 0 0.0358694
0 0 7299.31 0 0 -7299.31 0 0 28449.8 0 0 -28449.8 0 0 526.435 0 0 -526.435 0 0 32102.6 0 0 -32102.6 0 0 37052.3 0 0 -37052.3 0 0 143.801 0 0 -143.801
0 0 6073.33 0 0 -6073.33 0 0 29138.2 0 0 -29138.2 0 0 674.968 0 0 -674.968 0 0 30780.8 0 0 -30780.8 0 0 37118.7 0 0 -37118.7 0 0 285.488 0 0 -285.488
0 0 5123.64 0 0 -5123.64 0 0 29599.6 0 0 -29599.6 0 0 871.035 0 0 -871.035 0 0 29671 0 0 -29671 0 0 37159.4 0 0 -37159.4 0 0 496.865 0 0 -496.865
0 0 4483.91 0 0 -4483.91 0 0 29796.3 0 0 -29796.3 0 0 1116.67 0 0 -1116.67 0 0 28787.7 0 0 -28787.7 0 0 37172.7 0 0 -37172.7 0 0 762.417 0 0 -762.417
0 0 4158.56 0 0 -4158.56 0 0 29685.7 0 0 -29685.7 0 0 1420.53 0 0 -1420.53 0 0 28165.8 0 0 -28165.8 0 0 36958.9 0 0 -36958.9 0 0 1077.72 0 0 -1077.72
0 0 4141.72 0 0 -4141.72 0 0 29256.5 0 0 -29256.5 0 0 1786.05 0 0 -1786.05 0 0 27820.8 0 0 -27820.8 0 0 36424.5 0 0 -36424.5 0 0 1446.42 0 0 -1446.42
0 0 4411.16 0 0 -4411.16 0 0 28544.2 0 0 -28544.2 0 0 2204.91 0 0 -2204.91 0 0 27715.4 0 0 -27715.4 0 0 35554.6 0 0 -35554.6 0 0 1867.74 0 0 -1867.74
0 0 4926.12 0 0 -4926.12 0 0 27572.7 0 0 -27572.7 0 0 2665.73 0 0 -2665.73 0 0 27794.9 0 0 -27794.9 0 0 34387.3 0 0 -34387.3 0 0 2336.04 0 0 -2336.04
0 0 5631.58 0 0 -5631.58 0 0 26371 0 0 -26371 0 0 3158.16 0 0 -3158.16 0 0 27999.5 0 0 -27999.5 0 0 32960.6 0 0 -32960.6 0 0 2842.89 0 0 -2842.89
0 0 6476.05 0 0 -6476.05 0 0 24977.7 0 0 -24977.7 0 0 3675.72 0 0 -3675.72 0 0 28271.8 0 0 -28271.8 0 0 31314.7 0 0 -31314.7 0 0 3378.25 0 0 -3378.25
0 0 7416.38 0 0 -7416.38 0 0 23437.3 0 0 -23437.3 0 0 4212.53 0 0 -4212.53 0 0 28564.6 0 0 -28564.6 0 0 29490.7 0 0 -29490.7 0 0 3930.21 0 0 -3930.21
0 0 8415.05 0 0 -8415.05 0 0 21790.9 0 0 -21790.9 0 0 4758.47 0 0 -4758.47 0 0 28846.2 0 0 -28846.2 0 0 27530.4 0 0 -27530.4 0 0 4489.07 0 0 -4489.07
0 0 9439.8 0 0 -9439.8 0 0 20074 0 0 -20074 0 0 5300.43 0 0 -5300.43 0 0 29097.5 0 0 -29097.5 0 0 25478.3 0 0 -25478.3 0 0 5045.19 0 0 -5045.19
0 0 10462.3 0 0 -10462.3 0 0 18322.2 0 0 -18322.2 0 0 5825.88 0 0 -5825.88 0 0 29303.9 0 0 -29303.9 0 0 23379.4 0 0 -23379.4 0 0 5588.47 0 0 -5588.47
0 0 11453.6 0 0 -11453.6 0 0 16574.6 0 0 -16574.6 0 0 6325.17 0 0 -6325.17 0 0 29447.9 0 0 -29447.9 0 0 21278.1 0 0 -21278.1 0 0 6107.64 0 0 -6107.64
0 0 12381 0 0 -12381 0 0 14871.6 0 0 -14871.6 0 0 6790.14 0 0 -6790.14 0 0 29506 0 0 -29506 0 0 19217.7 0 0 -19217.7 0 0 6591.36 0 0 -6591.36
0 0 13208.3 0 0 -13208.3 0 0 13259.2 0 0 -13259.2 0 0 7154.63 0 0 -7154.63 0 0 29451.2 0 0 -29451.2 0 0 17242.3 0 0 -17242.3 0 0 7017.15 0 0 -7017.15
0 0 13883.8 0 0 -13883.8 0 0 11830.3 0 0 -11830.3 0 0 7104.41 0 0 -7104.41 0 0 29255.1 0 0 -29255.1 0 0 15416.3 0 0 -15416.3 0 0 7210.58 0 0 -7210.58
0 0 14406.5 0 0 -14406.5 0 0 10525.8 0 0 -10525.8 0 0 7060.78 0 0 -7060.78 0 0 28900.1 0 0 -28900.1 0 0 13759.7 0 0 -13759.7 0 0 7242.18 0 0 -7242.18
0 0 14760.9 0 0 -14760.9 0 0 9378.51 0 0 -9378.51 0 0 6996.46 0 0 -6996.46 0 0 28368.7 0 0 -28368.7 0 0 12297.8 0 0 -12297.8 0 0 7217.01 0 0 -7217.01
0 0 14930.4 0 0 -14930.4 0 0 8405.99 0 0 -8405.99 0 0 6980.49 0 0 -6980.49 0 0 27663.3 0 0 -27663.3 0 0 11002.5 0 0 -11002.5 0 0 7245.88 0 0 -7245.88
0 0 14900.1 0 0 -14900.1 0 0 7607.83 0 0 -7607.83 0 0 7003.05 0 0 -7003.05 0 0 26762.6 0 0 -26762.6 0 0 9937.45 0 0 -9937.45 0 0 7219.36 0 0 -7219.36
0 0 14662 0 0 -14662 0 0 7009.62 0 0 -7009.62 0 0 7027.02 0 0 -7027.02 0 0 25671.7 0 0 -25671.7 0 0 9076.04 0 0 -9076.04 0 0 7210.68 0 0 -7210.68
0 0 14217.2 0 0 -14217.2 0 0 6624.94 0 0 -6624.94 0 0 6983.38 0 0 -6983.38 0 0 24391.8 0 0 -24391.8 0 0 8428.79 0 0 -8428.79 0 0 7185.89 0 0 -7185.89
0 0 13572.2 0 0 -13572.2 0 0 6445.58 0 0 -6445.58 0 0 6851.47 0 0 -6851.47 0 0 22928.5 0 0 -22928.5 0 0 8011.36 0 0 -8011.36 0 0 7073.71 0 0 -7073.71
0 0 12741.2 0 0 -12741.2 0 0 6458.63 0 0 -6458.63 0 0 6645.62 0 0 -6645.62 0 0 21301 0 0 -21301 0 0 7805.48 0 0 -7805.48 0 0 6892.4 0 0 -6892.4
0 0 11748.6 0 0 -11748.6 0 0 6644.99 0 0 -6644.99 0 0 6380.75 0 0 -6380.75 0 0 19532.9 0 0 -19532.9 0 0 7796.45 0 0 -7796.45 0 0 6630.71 0 0 -6630.71
0 0 10624.1 0 0 -10624.1 0 0 6983.51 0 0 -6983.51 0 0 6056.55 0 0 -6056.55 0 0 17654.5 0 0 -17654.5 0 0 7957.67 0 0 -7957.67 0 0 6298.1 0 0 -6298.1
0 0 9400.46 0 0 -9400.46 0 0 7447.08 0 0 -7447.08 0 0 5668.06 0 0 -5668.06 0 0 15701.4 0 0 -15701.4 0 0 8257.32 0 0 -8257.32 0 0 5905.59 0 0 -5905.59
0 0 8114.82 0 0 -8114.82 0 0 8003.11 0 0 -8003.11 0 0 5217.31 0 0 -5217.31 0 0 13712.6 0 0 -13712.6 0 0 8662.07 0 0 -8662.07 0 0 5462.06 0 0 -5462.06
0 0 6809.09 0 0 -6809.09 0 0 8616.48 0 0 -8616.48 0 0 4716.37 0 0 -4716.37 0 0 11730.5 0 0 -11730.5 0 0 9135.6 0 0 -9135.6 0 0 4972.31 0 0 -4972.31
0 0 5526.68 0 0 -5526.68 0 0 9250.63 0 0 -9250.63 0 0 4180.04 0 0 -4180.04 0 0 9798.72 0 0 -9798.72 0 0 9640.73 0 0 -9640.73 0 0 4440.43 0 0 -4440.43
0 0 4308.78 0 0 -4308.78 0 0 9869.53 0 0 -9869.53 0 0 3617.74 0 0 -3617.74 0 0 7959.35 0 0 -7959.35 0 0 10139.2 0 0 -10139.2 0 0 3874.27 0 0 -3874.27
0 0 3191.69 0 0 -3191.69 0 0 10439.5 0 0 -10439.5 0 0 3033.41 0 0 -3033.41 0 0 6248.47 0 0 -6248.47 0 0 10593.9 0 0 -10593.9 0 0 3284.79 0 0 -3284.79
0 0 2203.95 0 0 -2203.95 0 0 10931.2 0 0 -10931.2 0 0 2431.08 0 0 -2431.08 0 0 4691.19 0 0 -4691.19 0 0 10971.6 0 0 -10971.6 0 0 2682.58 0 0 -2682.58
0 0 1363.29 0 0 -1363.29 0 0 11320.6 0 0 -11320.6 0 0 1818.93 0 0 -1818.93 0 0 3297.65 0 0 -3297.65 0 0 11244.6 0 0 -11244.6 0 0 2075.44 0 0 -2075.44
0 0 675.478 0 0 -675.478 0 0 11589.9 0 0 -11589.9 0 0 1207.65 0 0 -1207.65 0 0 2061.93 0 0 -2061.93 0 0 11391.1 0 0 -11391.1 0 0 1468.96 0 0 -1468.96
0 0 136.698 0 0 -136.698 0 0 11727.2 0 0 -11727.2 0 0 606.025 0 0 -606.025 0 0 965.926 0 0 -965.926 0 0 11395.2 0 0 -11395.2 0 0 868.857 0 0 -868.857
0 0 -263.708 0 0 263.708 0 0 11725.8 0 0 -11725.8 0 0 19.0425 0 0 -19.0425 0 0 -9.22692 0 0 9.22692 0 0 11244.5 0 0 -11244.5 0 0 281.988 0 0 -281.988
0 0 -534.191 0 0 534.191 0 0 11557 0 0 -11557 0 0 -424.77 0 0 424.77 0 0 -698.05 0 0 698.05 0 0 10892 0 0 -10892 0 0 -215.543 0 0 215.543
0 0 -695.449 0 0 695.449 0 0 11256.8 0 0 -11256.8 0 0 -840.684 0 0 840.684 0 0 -1360.86 0 0 1360.86 0 0 10367.1 0 0 -10367.1 0 0 -607.839 0 0 607.839
0 0 -765.154 0 0 765.154 0 0 10811.7 0 0 -10811.7 0 0 -1218.95 0 0 1218.95 0 0 -2002.01 0 0 2002.01 0 0 9699.96 0 0 -9699.96 0 0 -1026.68 0 0 1026.68
0 0 -758.778 0 0 758.778 0 0 10240.8 0 0 -10240.8 0 0 -1585.18 0 0 1585.18 0 0 -2628.36 0 0 2628.36 0 0 8864.62 0 0 -8864.62 0 0 -1406.5 0 0 1406.5
0 0 -680.544 0 0 680.544 0 0 9546.41 0 0 -9546.41 0 0 -1936.55 0 0 1936.55 0 0 -3250.62 0 0 3250.62 0 0 7876.15 0 0 -7876.15 0 0 -1763.21 0 0 1763.21
0 0 -534.612 0 0 534.612 0 0 8732.6 0 0 -8732.6 0 0 -2266.8 0 0 2266.8 0 0 -3869.23 0 0 3869.23 0 0 6743.63 0 0 -6743.63 0 0 -2091.3 0 0 2091.3
0 0 -327.265 0 0 327.265 0 0 7804.6 0 0 -7804.6 0 0 -2568.14 0 0 2568.14 0 0 -4483.67 0 0 4483.67 0 0 5475.47 0 0 -5475.47 0 0 -2393.06 0 0 2393.06
0 0 -65.8266 0 0 65.8266 0 0 6772 0 0 -6772 0 0 -2838.97 0 0 2838.97 0 0 -5096.82 0 0 5096.82 0 0 4083.11 0 0 -4083.11 0 0 -2670.24 0 0 2670.24
0 0 -316.93 0 0 316.93 0 0 5490.65 0 0 -5490.65 0 0 -3072.9 0 0 3072.9 0 0 -5777.59 0 0 5777.59 0 0 2512.82 0 0 -2512.82 0 0 -2916.7 0 0 2916.7
0 0 -1200.94 0 0 1200.94 0 0 3865.98 0 0 -3865.98 0 0 -3291.53 0 0 3291.53 0 0 -6648.52 0 0 6648.52 0 0 756.391 0 0 -756.391 0 0 -3138.38 0 0 3138.38
0 0 -2152.3 0 0 2152.3 0 0 2154.52 0 0 -2154.52 0 0 -3485.38 0 0 3485.38 0 0 -7492.4 0 0 7492.4 0 0 -900.06 0 0 900.06 0 0 -3339.19 0 0 3339.19
0 0 -3060.97 0 0 3060.97 0 0 518.448 0 0 -518.448 0 0 -3662.95 0 0 3662.95 0 0 -8429.55 0 0 8429.55 0 0 -2545.4 0 0 2545.4 0 0 -3501.4 0 0 3501.4
0 0 -4028.71 0 0 4028.71 0 0 -1130.3 0 0 1130.3 0 0 -3815.92 0 0 3815.92 0 0 -9439.33 0 0 9439.33 0 0 -4182.93 0 0 4182.93 0 0 -3672.27 0 0 3672.27
0 0 -5121.21 0 0 5121.21 0 0 -2819.54 0 0 2819.54 0 0 -3952.23 0 0 3952.23 0 0 -10481 0 0 10481 0 0 -5827.93 0 0 5827.93 0 0 -3810.71 0 0 3810.71
0 0 -6267.96 0 0 6267.96 0 0 -4477.27 0 0 4477.27 0 0 -4075.32 0 0 4075.32 0 0 -11573.1 0 0 11573.1 0 0 -7437.58 0 0 7437.58 0 0 -3941.38 0 0 3941.38
0 0 -7431.82 0 0 7431.82 0 0 -6048.88 0 0 6048.88 0 0 -4190.22 0 0 4190.22 0 0 -12716.4 0 0 12716.4 0 0 -9000.21 0 0 9000.21 0 0 -4058.12 0 0 4058.12
0 0 -8635.04 0 0 8635.04 0 0 -7553.26 0 0 7553.26 0 0 -4297.64 0 0 4297.64 0 0 -13883.7 0 0 13883.7 0 0 -10499.7 0 0 10499.7 0 0 -4164.96 0 0 4164.96
0 0 -9869.32 0 0 9869.32 0 0 -8988.69 0 0 8988.69 0 0 -4397.23 0 0 4397.23 0 0 -15050.2 0 0 15050.2 0 0 -11916.2 0 0 11916.2 0 0 -4265.04 0 0 4265.04
0 0 -11091.5 0 0 11091.5 0 0 -10318.8 0 0 10318.8 0 0 -4490.53 0 0 4490.53 0 0 -16207.4 0 0 16207.4 0 0 -13235 0 0 13235 0 0 -4360.92 0 0 4360.92
0 0 -12279.7 0 0 12279.7 0 0 -11527 0 0 11527 0 0 -4580.19 0 0 4580.19 0 0 -17341 0 0 17341 0 0 -14443.8 0 0 14443.8 0 0 -4454.73 0 0 4454.73
0 0 -13431.6 0 0 13431.6 0 0 -12614.9 0 0 12614.9 0 0 -4669.17 0 0 4669.17 0 0 -18429.1 0 0 18429.1 0 0 -15533 0 0 15533 0 0 -4546.43 0 0 4546.43
0 0 -14534.3 0 0 14534.3 0 0 -13573.3 0 0 13573.3 0 0 -4759.11 0 0 4759.11 0 0 -19459.2 0 0 19459.2 0 0 -16493.1 0 0 16493.1 0 0 -4637.6 0 0 4637.6
0 0 -15572.4 0 0 15572.4 0 0 -14387.1 0 0 14387.1 0 0 -4850.35 0 0 4850.35 0 0 -20428.2 0 0 20428.2 0 0 -17315.6 0 0 17315.6 0 0 -4730.18 0 0 4730.18
0 0 -16545.5 0 0 16545.5 0 0 -15051.3 0 0 15051.3 0 0 -4942.66 0 0 4942.66 0 0 -21333.8 0 0 21333.8 0 0 -17993.6 0 0 17993.6 0 0 -4825.38 0 0 4825.38
0 0 -17463.4 0 0 17463.4 0 0 -15565.5 0 0 15565.5 0 0 -5036.32 0 0 5036.32 0 0 -22178.1 0 0 22178.1 0 0 -18522.7 0 0 18522.7 0 0 -4923.43 0 0 4923.43
0 0 -18336.4 0 0 18336.4 0 0 -15924.6 0 0 15924.6 0 0 -5132.14 0 0 5132.14 0 0 -22971.4 0 0 22971.4 0 0 -18900.9 0 0 18900.9 0 0 -5024.06 0 0 5024.06
0 0 -19179.9 0 0 19179.9 0 0 -16124.8 0 0 16124.8 0 0 -5230.52 0 0 5230.52 0 0 -23730.1 0 0 23730.1 0 0 -19127.6 0 0 19127.6 0 0 -5126.84 0 0 5126.84
0 0 -20015.6 0 0 20015.6 0 0 -16168.3 0 0 16168.3 0 0 -5330.84 0 0 5330.84 0 0 -24472 0 0 24472 0 0 -19204.3 0 0 19204.3 0 0 -5231.17 0 0 5231.17
0 0 -20864.1 0 0 20864.1 0 0 -16060 0 0 16060 0 0 -5431.51 0 0 5431.51 0 0 -25215.6 0 0 25215.6 0 0 -19121.1 0 0 19121.1 0 0 -5337.14 0 0 5337.14
0 0 -21740.7 0 0 21740.7 0 0 -15804.1 0 0 15804.1 0 0 -5531.15 0 0 5531.15 0 0 -25976.6 0 0 25976.6 0 0 -18884.1 0 0 18884.1 0 0 -5442.54 0 0 5442.54
0 0 -22658.6 0 0 22658.6 0 0 -15411.9 0 0 15411.9 0 0 -5628.11 0 0 5628.11 0 0 -26768 0 0 26768 0 0 -18503.1 0 0 18503.1 0 0 -5546.46 0 0 5546.46
0 0 -23631.9 0 0 23631.9 0 0 -14897.6 0 0 14897.6 0 0 -5720.92 0 0 5720.92 0 0 -27602 0 0 27602 0 0 -17994.5 0 0 17994.5 0 0 -5645.96 0 0 5645.96
0 0 -24674 0 0 24674 0 0 -14278.5 0 0 14278.5 0 0 -5807.46 0 0 5807.46 0 0 -28490.8 0 0 28490.8 0 0 -17376.8 0 0 17376.8 0 0 -5738.64 0 0 5738.64
0 0 -25794.4 0 0 25794.4 0 0 -13574.1 0 0 13574.1 0 0 -5884.91 0 0 5884.91 0 0 -29444.3 0 0 29444.3 0 0 -16671.1 0 0 16671.1 0 0 -5821.95 0 0 5821.95
0 0 -26997.5 0 0 26997.5 0 0 -12806.3 0 0 12806.3 0 0 -5950.33 0 0 5950.33 0 0 -30467.5 0 0 30467.5 0 0 -15901.9 0 0 15901.9 0 0 -5893.02 0 0 5893.02
0 0 -28279.8 0 0 28279.8 0 0 -12000.4 0 0 12000.4 0 0 -6000.97 0 0 6000.97 0 0 -31558.4 0 0 31558.4 0 0 -15096 0 0 15096 0 0 -5948.82 0 0 5948.82
0 0 -29627.9 0 0 29627.9 0 0 -11184 0 0 11184 0 0 -6034.33 0 0 6034.33 0 0 -32706.7 0 0 32706.7 0 0 -14282.1 0 0 14282.1 0 0 -5986.2 0 0 5986.2
0 0 -31018.5 0 0 31018.5 0 0 -10385.8 0 0 10385.8 0 0 -6047.88 0 0 6047.88 0 0 -33893.6 0 0 33893.6 0 0 -13490.3 0 0 13490.3 0 0 -6002.15 0 0 6002.15
0 0 -32422.4 0 0 32422.4 0 0 -9635.81 0 0 9635.81 0 0 -6037.17 0 0 6037.17 0 0 -35094.5 0 0 35094.5 0 0 -12750.7 0 0 12750.7 0 0 -5992.98 0 0 5992.98
0 0 -33808.6 0 0 33808.6 0 0 -8963.52 0 0 8963.52 0 0 -5992.09 0 0 5992.09 0 0 -36283.6 0 0 36283.6 0 0 -12093.9 0 0 12093.9 0 0 -5947.64 0 0 5947.64
0 0 -35148.4 0 0 35148.4 0 0 -8394.97 0 0 8394.97 0 0 -5910.19 0 0 5910.19 0 0 -37436.4 0 0 37436.4 0 0 -11546.5 0 0 11546.5 0 0 -5865.56 0 0 5865.56
0 0 -36416.3 0 0 36416.3 0 0 -7953.28 0 0 7953.28 0 0 -5789.46 0 0 5789.46 0 0 -38531.6 0 0 38531.6 0 0 -11131.4 0 0 11131.4 0 0 -5744.67 0 0 5744.67
0 0 -37590.1 0 0 37590.1 0 0 -7657.24 0 0 7657.24 0 0 -5629.43 0 0 5629.43 0 0 -39550.2 0 0 39550.2 0 0 -10868.3 0 0 10868.3 0 0 -5583.79 0 0 5583.79
0 0 -38649.9 0 0 38649.9 0 0 -7521.57 0 0 7521.57 0 0 -5430.51 0 0 5430.51 0 0 -40475.5 0 0 40475.5 0 0 -10772.1 0 0 10772.1 0 0 -5382.72 0 0 5382.72
0 0 -39579.3 0 0 39579.3 0 0 -7556.13 0 0 7556.13 0 0 -5193.69 0 0 5193.69 0 0 -41293.2 0 0 41293.2 0 0 -10852.6 0 0 10852.6 0 0 -5142.42 0 0 5142.42
0 0 -40366.4 0 0 40366.4 0 0 -7765.7 0 0 7765.7 0 0 -4920.65 0 0 4920.65 0 0 -41993 0 0 41993 0 0 -11114.4 0 0 11114.4 0 0 -4865.08 0 0 4865.08
0 0 -41006.3 0 0 41006.3 0 0 -8149.29 0 0 8149.29 0 0 -4614.18 0 0 4614.18 0 0 -42570.4 0 0 42570.4 0 0 -11555.8 0 0 11555.8 0 0 -4553.91 0 0 4553.91
0 0 -41504.3 0 0 41504.3 0 0 -8699.75 0 0 8699.75 0 0 -4278.38 0 0 4278.38 0 0 -43029.4 0 0 43029.4 0 0 -12169.6 0 0 12169.6 0 0 -4212.88 0 0 4212.88
0 0 -41876.5 0 0 41876.5 0 0 -9403.99 0 0 9403.99 0 0 -3918.39 0 0 3918.39 0 0 -43383.5 0 0 43383.5 0 0 -12942.6 0 0 12942.6 0 0 -3846.88 0 0 3846.88
0 0 -42147.3 0 0 42147.3 0 0 -10243.8 0 0 10243.8 0 0 -3540.05 0 0 3540.05 0 0 -43653.1 0 0 43653.1 0 0 -13856.5 0 0 13856.5 0 0 -3461.66 0 0 3461.66
0 0 -42344.3 0 0 42344.3 0 0 -11197.2 0 0 11197.2 0 0 -3149.64 0 0 3149.64 0 0 -43861.9 0 0 43861.9 0 0 -14889 0 0 14889 0 0 -3063.77 0 0 3063.77
0 0 -42491.9 0 0 42491.9 0 0 -12240 0 0 12240 0 0 -2753.87 0 0 2753.87 0 0 -44030.4 0 0 44030.4 0 0 -16015 0 0 16015 0 0 -2660.3 0 0 2660.3
0 0 -42605.9 0 0 42605.9 0 0 -13346.7 0 0 13346.7 0 0 -2359.87 0 0 2359.87 0 0 -44172.1 0 0 44172.1 0 0 -17208.1 0 0 17208.1 0 0 -2258.55 0 0 2258.55
0 0 -42691 0 0 42691 0 0 -14492.3 0 0 14492.3 0 0 -1975.03 0 0 1975.03 0 0 -44290.3 0 0 44290.3 0 0 -18441.5 0 0 18441.5 0 0 -1865.93 0 0 1865.93
0 0 -42742.3 0 0 42742.3 0 0 -15648.9 0 0 15648.9 0 0 -1606.65 0 0 1606.65 0 0 -44389.2 0 0 44389.2 0 0 -19587.8 0 0 19587.8 0 0 -1497.22 0 0 1497.22
0 0 -42752.4 0 0 42752.4 0 0 -16771.6 0 0 16771.6 0 0 -1265.25 0 0 1265.25 0 0 -44461.9 0 0 44461.9 0 0 -20699.6 0 0 20699.6 0 0 -1146.83 0 0 1146.83
0 0 -42707.1 0 0 42707.1 0 0 -17870.1 0 0 17870.1 0 0 -951.708 0 0 951.708 0 0 -44482.1 0 0 44482.1 0 0 -21742.9 0 0 21742.9 0 0 -831.807 0 0 831.807
0 0 -42535.1 0 0 42535.1 0 0 -18885.2 0 0 18885.2 0 0 -676.918 0 0 676.918 0 0 -44052.2 0 0 44052.2 0 0 -22614.8 0 0 22614.8 0 0 -562.42 0 0 562.42
0 0 -42308.8 0 0 42308.8 0 0 -19816.4 0 0 19816.4 0 0 -447.752 0 0 447.752 0 0 -43633.3 0 0 43633.3 0 0 -23478.1 0 0 23478.1 0 0 -321.402 0 0 321.402
0 0 -41996.5 0 0 41996.5 0 0 -20685.5 0 0 20685.5 0 0 -262.284 0 0 262.284 0 0 -43191.1 0 0 43191.1 0 0 -24231.6 0 0 24231.6 0 0 -149.153 0 0 149.153
0 0 -41589.5 0 0 41589.5 0 0 -21435.2 0 0 21435.2 0 0 -148.695 0 0 148.695 0 0 -42641.7 0 0 42641.7 0 0 -24918.6 0 0 24918.6 0 0 -39.7997 0 0 39.7997
0 0 -41060.9 0 0 41060.9 0 0 -22076.8 0 0 22076.8 0 0 -84.1068 0 0 84.1068 0 0 -42052.5 0 0 42052.5 0 0 -25505 0 0 25505 0 0 27.4193 0 0 -27.4193
0 0 -40394.6 0 0 40394.6 0 0 -22584 0 0 22584 0 0 -64.4962 0 0 64.4962 0 0 -41357.2 0 0 41357.2 0 0 -25986.5 0 0 25986.5 0 0 51.2678 0 0 -51.2678
0 0 -39545.8 0 0 39545.8 0 0 -22935 0 0 22935 0 0 -95.2132 0 0 95.2132 0 0 -40482 0 0 40482 0 0 -26318.5 0 0 26318.5 0 0 24.0832 0 0 -24.0832
0 0 -38519.4 0 0 38519.4 0 0 -23108.6 0 0 23108.6 0 0 -184.668 0 0 184.668 0 0 -39426.4 0 0 39426.4 0 0 -26488.1 0 0 26488.1 0 0 -68.6758 0 0 68.6758
0 0 -37338.2 0 0 37338.2 0 0 -23094.9 0 0 23094.9 0 0 -327.881 0 0 327.881 0 0 -38214.9 0 0 38214.9 0 0 -26473.4 0 0 26473.4 0 0 -218.927 0 0 218.927
0 0 -36035.5 0 0 36035.5 0 0 -22880.4 0 0 22880.4 0 0 -525.844 0 0 525.844 0 0 -36883.9 0 0 36883.9 0 0 -26252.6 0 0 26252.6 0 0 -419.099 0 0 419.099
0 0 -34646.7 0 0 34646.7 0 0 -22458.4 0 0 22458.4 0 0 -778.749 0 0 778.749 0 0 -35469.9 0 0 35469.9 0 0 -25814.5 0 0 25814.5 0 0 -675.378 0 0 675.378
0 0 -33206.7 0 0 33206.7 0 0 -21826.8 0 0 21826.8 0 0 -1082.11 0 0 1082.11 0 0 -34011 0 0 34011 0 0 -25156.1 0 0 25156.1 0 0 -984.509 0 0 984.509
0 0 -31750 0 0 31750 0 0 -20988.2 0 0 20988.2 0 0 -1431.78 0 0 1431.78 0 0 -32540.9 0 0 32540.9 0 0 -24281.3 0 0 24281.3 0 0 -1341.94 0 0 1341.94
0 0 -30308.6 0 0 30308.6 0 0 -19950.7 0 0 19950.7 0 0 -1822.91 0 0 1822.91 0 0 -31092.9 0 0 31092.9 0 0 -23196.9 0 0 23196.9 0 0 -1742.93 0 0 1742.93
0 0 -28913.5 0 0 28913.5 0 0 -18726 0 0 18726 0 0 -2250.14 0 0 2250.14 0 0 -29698.2 0 0 29698.2 0 0 -21916.7 0 0 21916.7 0 0 -2180.56 0 0 2180.56
0 0 -27595.2 0 0 27595.2 0 0 -17331.2 0 0 17331.2 0 0 -2706.42 0 0 2706.42 0 0 -28388.1 0 0 28388.1 0 0 -20458.1 0 0 20458.1 0 0 -2647.7 0 0 2647.7
0 0 -26382.8 0 0 26382.8 0 0 -15788.3 0 0 15788.3 0 0 -3183.38 0 0 3183.38 0 0 -27191.2 0 0 27191.2 0 0 -18844.1 0 0 18844.1 0 0 -3136.33 0 0 3136.33
0 0 -25298.5 0 0 25298.5 0 0 -14123.9 0 0 14123.9 0 0 -3671.93 0 0 3671.93 0 0 -26129.6 0 0 26129.6 0 0 -17102.1 0 0 17102.1 0 0 -3637.78 0 0 3637.78
0 0 -24351.3 0 0 24351.3 0 0 -12369.3 0 0 12369.3 0 0 -4162.91 0 0 4162.91 0 0 -25211.8 0 0 25211.8 0 0 -15265.1 0 0 15265.1 0 0 -4142.57 0 0 4142.57
0 0 -23535.1 0 0 23535.1 0 0 -10559.9 0 0 10559.9 0 0 -4647.05 0 0 4647.05 0 0 -24430.1 0 0 24430.1 0 0 -13370.7 0 0 13370.7 0 0 -4640.65 0 0 4640.65
0 0 -22832.1 0 0 22832.1 0 0 -8734.42 0 0 8734.42 0 0 -5114.83 0 0 5114.83 0 0 -23765.3 0 0 23765.3 0 0 -11459.5 0 0 11459.5 0 0 -5121.87 0 0 5121.87
0 0 -22216.2 0 0 22216.2 0 0 -6933.12 0 0 6933.12 0 0 -5556.4 0 0 5556.4 0 0 -23189 0 0 23189 0 0 -9573.76 0 0 9573.76 0 0 -5576.24 0 0 5576.24
0 0 -21653.7 0 0 21653.7 0 0 -5196.72 0 0 5196.72 0 0 -5962.1 0 0 5962.1 0 0 -22665.4 0 0 22665.4 0 0 -7756.29 0 0 7756.29 0 0 -5994.15 0 0 5994.15
0 0 -21104.9 0 0 21104.9 0 0 -3564.88 0 0 3564.88 0 0 -6322.89 0 0 6322.89 0 0 -22152.7 0 0 22152.7 0 0 -6048.78 0 0 6048.78 0 0 -6366.42 0 0 6366.42
0 0 -20528.7 0 0 20528.7 0 0 -2074.62 0 0 2074.62 0 0 -6630.75 0 0 6630.75 0 0 -21607.3 0 0 21607.3 0 0 -4490.43 0 0 4490.43 0 0 -6684.56 0 0 6684.56
0 0 -19887 0 0 19887 0 0 -758.806 0 0 758.806 0 0 -6878.69 0 0 6878.69 0 0 -20989.1 0 0 20989.1 0 0 -3115.62 0 0 3115.62 0 0 -6941.08 0 0 6941.08
0 0 -19148.4 0 0 19148.4 0 0 353.61 0 0 -353.61 0 0 -7048.95 0 0 7048.95 0 0 -20264.9 0 0 20264.9 0 0 -1955.25 0 0 1955.25 0 0 -7112.2 0 0 7112.2
0 0 -18289.9 0 0 18289.9 0 0 1236.5 0 0 -1236.5 0 0 -7079.33 0 0 7079.33 0 0 -19404.2 0 0 19404.2 0 0 -1066.03 0 0 1066.03 0 0 -7033.36 0 0 7033.36
0 0 -17293.6 0 0 17293.6 0 0 1887.91 0 0 -1887.91 0 0 -7069.59 0 0 7069.59 0 0 -18396.9 0 0 18396.9 0 0 -395.285 0 0 395.285 0 0 -7036.41 0 0 7036.41
0 0 -16142.5 0 0 16142.5 0 0 2299.62 0 0 -2299.62 0 0 -7026.58 0 0 7026.58 0 0 -17232.3 0 0 17232.3 0 0 35.0906 0 0 -35.0906 0 0 -7019.24 0 0 7019.24
0 0 -14833 0 0 14833 0 0 2475.21 0 0 -2475.21 0 0 -6909.67 0 0 6909.67 0 0 -15886.6 0 0 15886.6 0 0 195.996 0 0 -195.996 0 0 -6890.34 0 0 6890.34
0 0 -13358.3 0 0 13358.3 0 0 2420.08 0 0 -2420.08 0 0 -6715.91 0 0 6715.91 0 0 -14370.4 0 0 14370.4 0 0 125.632 0 0 -125.632 0 0 -6692.35 0 0 6692.35
0 0 -11723.8 0 0 11723.8 0 0 2150.1 0 0 -2150.1 0 0 -6446.67 0 0 6446.67 0 0 -12683 0 0 12683 0 0 -162.424 0 0 162.424 0 0 -6414.99 0 0 6414.99
0 0 -9939.79 0 0 9939.79 0 0 1689.76 0 0 -1689.76 0 0 -6102.69 0 0 6102.69 0 0 -10838.1 0 0 10838.1 0 0 -640.379 0 0 640.379 0 0 -6068.97 0 0 6068.97
0 0 -8023.75 0 0 8023.75 0 0 1067.13 0 0 -1067.13 0 0 -5692.22 0 0 5692.22 0 0 -8854.37 0 0 8854.37 0 0 -1282.79 0 0 1282.79 0 0 -5658.24 0 0 5658.24
0 0 -5997.92 0 0 5997.92 0 0 318.418 0 0 -318.418 0 0 -5226.2 0 0 5226.2 0 0 -6753.58 0 0 6753.58 0 0 -2056.11 0 0 2056.11 0 0 -5188.3 0 0 5188.3
0 0 -3886.25 0 0 3886.25 0 0 -517.663 0 0 517.663 0 0 -4713.67 0 0 4713.67 0 0 -4562.18 0 0 4562.18 0 0 -2920.09 0 0 2920.09 0 0 -4667.16 0 0 4667.16
0 0 -1713.1 0 0 1713.1 0 0 -1399.97 0 0 1399.97 0 0 -4161.32 0 0 4161.32 0 0 -2306.51 0 0 2306.51 0 0 -3832.07 0 0 3832.07 0 0 -4105.06 0 0 4105.06
0 0 498.757 0 0 -498.757 0 0 -2285.76 0 0 2285.76 0 0 -3576.3 0 0 3576.3 0 0 -10.909 0 0 10.909 0 0 -4747.81 0 0 4747.81 0 0 -3512.69 0 0 3512.69
0 0 2686.64 0 0 -2686.64 0 0 -3136.01 0 0 3136.01 0 0 -2967.15 0 0 2967.15 0 0 1787.68 0 0 -1787.68 0 0 -5555.18 0 0 5555.18 0 0 -2904.36 0 0 2904.36
0 0 4884.68 0 0 -4884.68 0 0 -3907.28 0 0 3907.28 0 0 -2348.51 0 0 2348.51 0 0 3652.87 0 0 -3652.87 0 0 -6307.19 0 0 6307.19 0 0 -2278.19 0 0 2278.19
0 0 7053.36 0 0 -7053.36 0 0 -4565.49 0 0 4565.49 0 0 -1726.24 0 0 1726.24 0 0 5500.17 0 0 -5500.17 0 0 -6934.8 0 0 6934.8 0 0 -1656.37 0 0 1656.37
0 0 8547.74 0 0 -8547.74 0 0 -5248.88 0 0 5248.88 0 0 -1102.08 0 0 1102.08 0 0 7187.09 0 0 -7187.09 0 0 -7492.66 0 0 7492.66 0 0 -1028.24 0 0 1028.24
0 0 9748.1 0 0 -9748.1 0 0 -5893.56 0 0 5893.56 0 0 -485.898 0 0 485.898 0 0 8817.6 0 0 -8817.6 0 0 -7863.57 0 0 7863.57 0 0 -420.77 0 0 420.77
0 0 10798 0 0 -10798 0 0 -6314.3 0 0 6314.3 0 0 62.616 0 0 -62.616 0 0 10314.6 0 0 -10314.6 0 0 -8056.98 0 0 8056.98 0 0 137.687 0 0 -137.687
0 0 11742 0 0 -11742 0 0 -6425.1 0 0 6425.1 0 0 444.906 0 0 -444.906 0 0 11683.2 0 0 -11683.2 0 0 -7940.85 0 0 7940.85 0 0 487.98 0 0 -487.98
0 0 12432.3 0 0 -12432.3 0 0 -6294.71 0 0 6294.71 0 0 814.331 0 0 -814.331 0 0 12894.2 0 0 -12894.2 0 0 -7583.93 0 0 7583.93 0 0 903.366 0 0 -903.366
0 0 12788.1 0 0 -12788.1 0 0 -5946.68 0 0 5946.68 0 0 1157.75 0 0 -1157.75 0 0 13925.3 0 0 -13925.3 0 0 -6940.96 0 0 6940.96 0 0 1255.51 0 0 -1255.51
0 0 12866.8 0 0 -12866.8 0 0 -5326.68 0 0 5326.68 0 0 1476.75 0 0 -1476.75 0 0 14744.8 0 0 -14744.8 0 0 -6003.33 0 0 6003.33 0 0 1581.02 0 0 -1581.02
0 0 12697 0 0 -12697 0 0 -4417.09 0 0 4417.09 0 0 1769.49 0 0 -1769.49 0 0 15343.1 0 0 -15343.1 0 0 -4773.85 0 0 4773.85 0 0 1866.62 0 0 -1866.62
0 0 12238.9 0 0 -12238.9 0 0 -3249.55 0 0 3249.55 0 0 2030.86 0 0 -2030.86 0 0 15719.7 0 0 -15719.7 0 0 -3279.93 0 0 3279.93 0 0 2116.69 0 0 -2116.69
0 0 11479.4 0 0 -11479.4 0 0 -1853.48 0 0 1853.48 0 0 2254.45 0 0 -2254.45 0 0 15882 0 0 -15882 0 0 -1531.52 0 0 1531.52 0 0 2337.16 0 0 -2337.16
0 0 10469.8 0 0 -10469.8 0 0 -239.249 0 0 239.249 0 0 2443.74 0 0 -2443.74 0 0 15835.4 0 0 -15835.4 0 0 334.483 0 0 -334.483 0 0 2532.43 0 0 -2532.43
0 0 9263.64 0 0 -9263.64 0 0 1543.4 0 0 -1543.4 0 0 2608.06 0 0 -2608.06 0 0 15597.9 0 0 -15597.9 0 0 2354.9 0 0 -2354.9 0 0 2696.86 0 0 -2696.86
0 0 7870.06 0 0 -7870.06 0 0 3487.4 0 0 -3487.4 0 0 2752.8 0 0 -2752.8 0 0 15151.7 0 0 -15151.7 0 0 4470.73 0 0 -4470.73 0 0 2831.43 0 0 -2831.43
0 0 6316.63 0 0 -6316.63 0 0 5535.69 0 0 -5535.69 0 0 2877.96 0 0 -2877.96 0 0 14549.5 0 0 -14549.5 0 0 6701.31 0 0 -6701.31 0 0 2947.02 0 0 -2947.02
0 0 4654.28 0 0 -4654.28 0 0 7655.02 0 0 -7655.02 0 0 2984.21 0 0 -2984.21 0 0 13814.8 0 0 -13814.8 0 0 8994.45 0 0 -8994.45 0 0 3041.09 0 0 -3041.09
0 0 2937.94 0 0 -2937.94 0 0 9805.49 0 0 -9805.49 0 0 3072.62 0 0 -3072.62 0 0 12987 0 0 -12987 0 0 11300.4 0 0 -11300.4 0 0 3127.41 0 0 -3127.41
0 0 1213.57 0 0 -1213.57 0 0 11930.9 0 0 -11930.9 0 0 3151.49 0 0 -3151.49 0 0 12109.9 0 0 -12109.9 0 0 13577.8 0 0 -13577.8 0 0 3202.44 0 0 -3202.44
0 0 -468.747 0 0 468.747 0 0 13979.5 0 0 -13979.5 0 0 3228.04 0 0 -3228.04 0 0 11236.8 0 0 -11236.8 0 0 15773.5 0 0 -15773.5 0 0 3273.36 0 0 -3273.36
0 0 -2045.49 0 0 2045.49 0 0 15903.9 0 0 -15903.9 0 0 3307.14 0 0 -3307.14 0 0 10425.8 0 0 -10425.8 0 0 17838.7 0 0 -17838.7 0 0 3343.08 0 0 -3343.08
0 0 -3450.41 0 0 3450.41 0 0 17658.3 0 0 -17658.3 0 0 3390.36 0 0 -3390.36 0 0 9742.08 0 0 -9742.08 0 0 19725.2 0 0 -19725.2 0 0 3417.89 0 0 -3417.89
0 0 -4623.03 0 0 4623.03 0 0 19194.6 0 0 -19194.6 0 0 3479.37 0 0 -3479.37 0 0 9254.32 0 0 -9254.32 0 0 21389.7 0 0 -21389.7 0 0 3502.51 0 0 -3502.51
0 0 -5508.65 0 0 5508.65 0 0 20469.8 0 0 -20469.8 0 0 3577.79 0 0 -3577.79 0 0 9026.68 0 0 -9026.68 0 0 22794.9 0 0 -22794.9 0 0 3599.86 0 0 -3599.86
0 0 -6059.68 0 0 6059.68 0 0 21452.8 0 0 -21452.8 0 0 3689.78 0 0 -3689.78 0 0 9112.21 0 0 -9112.21 0 0 23911.5 0 0 -23911.5 0 0 3711.53 0 0 -3711.53
0 0 -6241.93 0 0 6241.93 0 0 22123.5 0 0 -22123.5 0 0 3817.68 0 0 -3817.68 0 0 9548.81 0 0 -9548.81 0 0 24719.3 0 0 -24719.3 0 0 3838.41 0 0 -3838.41
0 0 -6037.92 0 0 6037.92 0 0 22470.9 0 0 -22470.9 0 0 3960.96 0 0 -3960.96 0 0 10358.8 0 0 -10358.8 0 0 25209 0 0 -25209 0 0 3981.14 0 0 -3981.14
0 0 -5445.78 0 0 5445.78 0 0 22494.8 0 0 -22494.8 0 0 4117.56 0 0 -4117.56 0 0 11548.2 0 0 -11548.2 0 0 25381.7 0 0 -25381.7 0 0 4139.48 0 0 -4139.48
0 0 -4478.55 0 0 4478.55 0 0 22206.4 0 0 -22206.4 0 0 4285.31 0 0 -4285.31 0 0 13107.9 0 0 -13107.9 0 0 25228.1 0 0 -25228.1 0 0 4312.95 0 0 -4312.95
0 0 -3163.92 0 0 3163.92 0 0 21626.8 0 0 -21626.8 0 0 4462.66 0 0 -4462.66 0 0 15009.3 0 0 -15009.3 0 0 24767.8 0 0 -24767.8 0 0 4496.85 0 0 -4496.85
0 0 -1544.99 0 0 1544.99 0 0 20793.7 0 0 -20793.7 0 0 4646.76 0 0 -4646.76 0 0 16882.5 0 0 -16882.5 0 0 24080.1 0 0 -24080.1 0 0 4684.69 0 0 -4684.69
0 0 320.152 0 0 -320.152 0 0 19756.8 0 0 -19756.8 0 0 4832.29 0 0 -4832.29 0 0 18864.1 0 0 -18864.1 0 0 23168.9 0 0 -23168.9 0 0 4879.3 0 0 -4879.3
0 0 2381.74 0 0 -2381.74 0 0 18542.4 0 0 -18542.4 0 0 5014.94 0 0 -5014.94 0 0 20983.3 0 0 -20983.3 0 0 22099.5 0 0 -22099.5 0 0 5066.81 0 0 -5066.81
0 0 4583.68 0 0 -4583.68 0 0 17214.9 0 0 -17214.9 0 0 5188.05 0 0 -5188.05 0 0 23214.5 0 0 -23214.5 0 0 20888.9 0 0 -20888.9 0 0 5247.6 0 0 -5247.6
0 0 6869.07 0 0 -6869.07 0 0 15817.1 0 0 -15817.1 0 0 5346.88 0 0 -5346.88 0 0 25500.9 0 0 -25500.9 0 0 19607.9 0 0 -19607.9 0 0 5414.06 0 0 -5414.06
0 0 9177.56 0 0 -9177.56 0 0 14401.2 0 0 -14401.2 0 0 5486.9 0 0 -5486.9 0 0 27804.8 0 0 -27804.8 0 0 18308 0 0 -18308 0 0 5559.8 0 0 -5559.8
0 0 11452.6 0 0 -11452.6 0 0 13020.1 0 0 -13020.1 0 0 5602.45 0 0 -5602.45 0 0 30083.8 0 0 -30083.8 0 0 17044.4 0 0 -17044.4 0 0 5680.17 0 0 -5680.17
0 0 13639.8 0 0 -13639.8 0 0 11725.3 0 0 -11725.3 0 0 5688.3 0 0 -5688.3 0 0 32292.1 0 0 -32292.1 0 0 15870 0 0 -15870 0 0 5768.31 0 0 -5768.31
0 0 15685.1 0 0 -15685.1 0 0 10563.8 0 0 -10563.8 0 0 5739.3 0 0 -5739.3 0 0 34388.4 0 0 -34388.4 0 0 14835.3 0 0 -14835.3 0 0 5820.6 0 0 -5820.6
0 0 17538.1 0 0 -17538.1 0 0 9578.17 0 0 -9578.17 0 0 5751.85 0 0 -5751.85 0 0 36334.8 0 0 -36334.8 0 0 13987.5 0 0 -13987.5 0 0 5832.12 0 0 -5832.12
0 0 19154.6 0 0 -19154.6 0 0 8808.73 0 0 -8808.73 0 0 5713.11 0 0 -5713.11 0 0 38096.3 0 0 -38096.3 0 0 13366.9 0 0 -13366.9 0 0 5790.42 0 0 -5790.42
0 0 20497.5 0 0 -20497.5 0 0 8288.18 0 0 -8288.18 0 0 5613.82 0 0 -5613.82 0 0 39641.8 0 0 -39641.8 0 0 13009.1 0 0 -13009.1 0 0 5683.51 0 0 -5683.51
0 0 21538.3 0 0 -21538.3 0 0 8040.88 0 0 -8040.88 0 0 5451.13 0 0 -5451.13 0 0 40948.3 0 0 -40948.3 0 0 12936.7 0 0 -12936.7 0 0 5514.31 0 0 -5514.31
0 0 22257.6 0 0 -22257.6 0 0 8080.8 0 0 -8080.8 0 0 5225.44 0 0 -5225.44 0 0 41999.7 0 0 -41999.7 0 0 13165.8 0 0 -13165.8 0 0 5281.57 0 0 -5281.57
0 0 22644.8 0 0 -22644.8 0 0 8413.96 0 0 -8413.96 0 0 4939.2 0 0 -4939.2 0 0 42786 0 0 -42786 0 0 13702.7 0 0 -13702.7 0 0 4987 0 0 -4987
0 0 22697 0 0 -22697 0 0 9038.43 0 0 -9038.43 0 0 4596.57 0 0 -4596.57 0 0 43301.9 0 0 -43301.9 0 0 14543.7 0 0 -14543.7 0 0 4633.67 0 0 -4633.67
0 0 22418.4 0 0 -22418.4 0 0 9944.21 0 0 -9944.21 0 0 4202.5 0 0 -4202.5 0 0 43546 0 0 -43546 0 0 15676.6 0 0 -15676.6 0 0 4226.77 0 0 -4226.77
0 0 21821.2 0 0 -21821.2 0 0 11113 0 0 -11113 0 0 3762.92 0 0 -3762.92 0 0 43504.8 0 0 -43504.8 0 0 17082 0 0 -17082 0 0 3773.26 0 0 -3773.26
0 0 20929.1 0 0 -20929.1 0 0 12518.5 0 0 -12518.5 0 0 3285.42 0 0 -3285.42 0 0 43152.7 0 0 -43152.7 0 0 18735.6 0 0 -18735.6 0 0 3281.15 0 0 -3281.15
0 0 19778.4 0 0 -19778.4 0 0 14123.4 0 0 -14123.4 0 0 2779.42 0 0 -2779.42 0 0 42520.3 0 0 -42520.3 0 0 20595.3 0 0 -20595.3 0 0 2760.48 0 0 -2760.48
0 0 18417.3 0 0 -18417.3 0 0 15882.2 0 0 -15882.2 0 0 2256.02 0 0 -2256.02 0 0 41654.1 0 0 -41654.1 0 0 22612.9 0 0 -22612.9 0 0 2221.01 0 0 -2221.01
0 0 16902.2 0 0 -16902.2 0 0 17743.7 0 0 -17743.7 0 0 1726.42 0 0 -1726.42 0 0 40607.8 0 0 -40607.8 0 0 24732.2 0 0 -24732.2 0 0 1674.85 0 0 -1674.85
0 0 15296.3 0 0 -15296.3 0 0 19639.6 0 0 -19639.6 0 0 1202.25 0 0 -1202.25 0 0 39471.5 0 0 -39471.5 0 0 26702.5 0 0 -26702.5 0 0 1145.59 0 0 -1145.59
0 0 13664.6 0 0 -13664.6 0 0 21510.4 0 0 -21510.4 0 0 700.188 0 0 -700.188 0 0 38271.9 0 0 -38271.9 0 0 28663.8 0 0 -28663.8 0 0 621.052 0 0 -621.052
0 0 12059.4 0 0 -12059.4 0 0 23328.6 0 0 -23328.6 0 0 224.71 0 0 -224.71 0 0 37079.7 0 0 -37079.7 0 0 30536.8 0 0 -30536.8 0 0 144.531 0 0 -144.531
0 0 10543.6 0 0 -10543.6 0 0 25019.8 0 0 -25019.8 0 0 -145.389 0 0 145.389 0 0 35934.7 0 0 -35934.7 0 0 32282.7 0 0 -32282.7 0 0 -204.687 0 0 204.687
0 0 9173.85 0 0 -9173.85 0 0 26549.2 0 0 -26549.2 0 0 -443.907 0 0 443.907 0 0 34905.9 0 0 -34905.9 0 0 33856.5 0 0 -33856.5 0 0 -520.196 0 0 520.196
0 0 8003.23 0 0 -8003.23 0 0 27868.3 0 0 -27868.3 0 0 -692.449 0 0 692.449 0 0 34035.2 0 0 -34035.2 0 0 35232.4 0 0 -35232.4 0 0 -797.51 0 0 797.51
0 0 7072.41 0 0 -7072.41 0 0 28946.7 0 0 -28946.7 0 0 -897.094 0 0 897.094 0 0 33374.3 0 0 -33374.3 0 0 36357.7 0 0 -36357.7 0 0 -1019.69 0 0 1019.69
0 0 6413.54 0 0 -6413.54 0 0 29751.6 0 0 -29751.6 0 0 -1054.09 0 0 1054.09 0 0 32934.5 0 0 -32934.5 0 0 37173.8 0 0 -37173.8 0 0 -1183.3 0 0 1183.3
0 0 6059.69 0 0 -6059.69 0 0 30216.6 0 0 -30216.6 0 0 -1158.59 0 0 1158.59 0 0 32845.3 0 0 -32845.3 0 0 37214.3 0 0 -37214.3 0 0 -1262.22 0 0 1262.22
0 0 6001.84 0 0 -6001.84 0 0 30387.4 0 0 -30387.4 0 0 -1194.05 0 0 1194.05 0 0 32939.1 0 0 -32939.1 0 0 37245.2 0 0 -37245.2 0 0 -1325.35 0 0 1325.35
0 0 6204.67 0 0 -6204.67 0 0 30327 0 0 -30327 0 0 -1174.62 0 0 1174.62 0 0 33251.3 0 0 -33251.3 0 0 37156.4 0 0 -37156.4 0 0 -1281.4 0 0 1281.4
0 0 6666.55 0 0 -6666.55 0 0 29965.5 0 0 -29965.5 0 0 -1069.73 0 0 1069.73 0 0 33769.6 0 0 -33769.6 0 0 36801.2 0 0 -36801.2 0 0 -1188.21 0 0 1188.21
0 0 7368.11 0 0 -7368.11 0 0 29345.9 0 0 -29345.9 0 0 -897.95 0 0 897.95 0 0 34479.6 0 0 -34479.6 0 0 36122.8 0 0 -36122.8 0 0 -1008.74 0 0 1008.74
0 0 8282.89 0 0 -8282.89 0 0 28477.5 0 0 -28477.5 0 0 -660.656 0 0 660.656 0 0 35335.1 0 0 -35335.1 0 0 35175.8 0 0 -35175.8 0 0 -758.731 0 0 758.731
0 0 9368.67 0 0 -9368.67 0 0 27388.2 0 0 -27388.2 0 0 -359.083 0 0 359.083 0 0 36302.2 0 0 -36302.2 0 0 33988.7 0 0 -33988.7 0 0 -448.682 0 0 448.682
0 0 10585.2 0 0 -10585.2 0 0 26121.2 0 0 -26121.2 0 0 -0.315936 0 0 0.315936 0 0 37348.2 0 0 -37348.2 0 0 32590.4 0 0 -32590.4 0 0 -81.371 0 0 81.371
0 0 11896.3 0 0 -11896.3 0 0 24726.3 0 0 -24726.3 0 0 361.136 0 0 -361.136 0 0 38437.4 0 0 -38437.4 0 0 31028.5 0 0 -31028.5 0 0 310.207 0 0 -310.207
0 0 13268.2 0 0 -13268.2 0 0 23232.9 0 0 -23232.9 0 0 747.024 0 0 -747.024 0 0 39540.9 0 0 -39540.9 0 0 29354.8 0 0 -29354.8 0 0 697.241 0 0 -697.241
0 0 14666.9 0 0 -14666.9 0 0 21677.7 0 0 -21677.7 0 0 1152.23 0 0 -1152.23 0 0 40639.4 0 0 -40639.4 0 0 27606.3 0 0 -27606.3 0 0 1128.53 0 0 -1128.53
0 0 16060.5 0 0 -16060.5 0 0 20099.7 0 0 -20099.7 0 0 1576.1 0 0 -1576.1 0 0 41714.9 0 0 -41714.9 0 0 25832.7 0 0 -25832.7 0 0 1570.22 0 0 -1570.22
0 0 17417.7 0 0 -17417.7 0 0 18542.2 0 0 -18542.2 0 0 2012.16 0 0 -2012.16 0 0 42747.1 0 0 -42747.1 0 0 24078.6 0 0 -24078.6 0 0 2019.81 0 0 -2019.81
0 0 18702.9 0 0 -18702.9 0 0 17048 0 0 -17048 0 0 2449.61 0 0 -2449.61 0 0 43653.2 0 0 -43653.2 0 0 22393.4 0 0 -22393.4 0 0 2467.62 0 0 -2467.62
0 0 19876 0 0 -19876 0 0 15659.3 0 0 -15659.3 0 0 2876.13 0 0 -2876.13 0 0 44363.6 0 0 -44363.6 0 0 20843 0 0 -20843 0 0 2905.27 0 0 -2905.27
0 0 20900.1 0 0 -20900.1 0 0 14407.5 0 0 -14407.5 0 0 3282.26 0 0 -3282.26 0 0 44956.3 0 0 -44956.3 0 0 19432.8 0 0 -19432.8 0 0 3328.58 0 0 -3328.58
0 0 21745.8 0 0 -21745.8 0 0 13328.6 0 0 -13328.6 0 0 3664.43 0 0 -3664.43 0 0 45425.4 0 0 -45425.4 0 0 18214.5 0 0 -18214.5 0 0 3723.99 0 0 -3723.99
0 0 22388.1 0 0 -22388.1 0 0 12451.5 0 0 -12451.5 0 0 4017.36 0 0 -4017.36 0 0 45751.2 0 0 -45751.2 0 0 17213 0 0 -17213 0 0 4088.77 0 0 -4088.77
0 0 22808.8 0 0 -22808.8 0 0 11795.5 0 0 -11795.5 0 0 4336.27 0 0 -4336.27 0 0 45924.1 0 0 -45924.1 0 0 16452.8 0 0 -16452.8 0 0 4413.1 0 0 -4413.1
0 0 22998.7 0 0 -22998.7 0 0 11374.9 0 0 -11374.9 0 0 4614.18 0 0 -4614.18 0 0 45934.3 0 0 -45934.3 0 0 15950.2 0 0 -15950.2 0 0 4696.12 0 0 -4696.12
0 0 22958 0 0 -22958 0 0 11197.6 0 0 -11197.6 0 0 4846.78 0 0 -4846.78 0 0 45762.1 0 0 -45762.1 0 0 15720.7 0 0 -15720.7 0 0 4933.35 0 0 -4933.35
0 0 22693.4 0 0 -22693.4 0 0 11264 0 0 -11264 0 0 5032.37 0 0 -5032.37 0 0 45414.4 0 0 -45414.4 0 0 15763.7 0 0 -15763.7 0 0 5123.35 0 0 -5123.35
0 0 22217.4 0 0 -22217.4 0 0 11566.7 0 0 -11566.7 0 0 5171.62 0 0 -5171.62 0 0 44908.3 0 0 -44908.3 0 0 16074.4 0 0 -16074.4 0 0 5263.73 0 0 -5263.73
0 0 21546.1 0 0 -21546.1 0 0 12093.5 0 0 -12093.5 0 0 5265.08 0 0 -5265.08 0 0 44261.9 0 0 -44261.9 0 0 16639.6 0 0 -16639.6 0 0 5354.95 0 0 -5354.95
0 0 20697.2 0 0 -20697.2 0 0 12827.8 0 0 -12827.8 0 0 5313.34 0 0 -5313.34 0 0 43490.2 0 0 -43490.2 0 0 17441.7 0 0 -17441.7 0 0 5398.38 0 0 -5398.38
0 0 19686.6 0 0 -19686.6 0 0 13750.3 0 0 -13750.3 0 0 5316.41 0 0 -5316.41 0 0 42603.1 0 0 -42603.1 0 0 18458.1 0 0 -18458.1 0 0 5395.72 0 0 -5395.72
0 0 18528.9 0 0 -18528.9 0 0 14839 0 0 -14839 0 0 5273.33 0 0 -5273.33 0 0 41605.2 0 0 -41605.2 0 0 19662.5 0 0 -19662.5 0 0 5345.2 0 0 -5345.2
0 0 17239.7 0 0 -17239.7 0 0 16068.4 0 0 -16068.4 0 0 5189.05 0 0 -5189.05 0 0 40498.7 0 0 -40498.7 0 0 21023.5 0 0 -21023.5 0 0 5253.16 0 0 -5253.16
0 0 15835.8 0 0 -15835.8 0 0 17409.7 0 0 -17409.7 0 0 5069.17 0 0 -5069.17 0 0 39285.4 0 0 -39285.4 0 0 22506.1 0 0 -22506.1 0 0 5124.46 0 0 -5124.46
0 0 14334.5 0 0 -14334.5 0 0 18831.3 0 0 -18831.3 0 0 4919.79 0 0 -4919.79 0 0 37965.8 0 0 -37965.8 0 0 24072.5 0 0 -24072.5 0 0 4965.41 0 0 -4965.41
0 0 12754.3 0 0 -12754.3 0 0 20299.6 0 0 -20299.6 0 0 4747.26 0 0 -4747.26 0 0 36540.8 0 0 -36540.8 0 0 25682.1 0 0 -25682.1 0 0 4782.96 0 0 -4782.96
0 0 11118 0 0 -11118 0 0 21779.3 0 0 -21779.3 0 0 4558.3 0 0 -4558.3 0 0 35015.6 0 0 -35015.6 0 0 27291.5 0 0 -27291.5 0 0 4584.56 0 0 -4584.56
0 0 9452.6 0 0 -9452.6 0 0 23232.3 0 0 -23232.3 0 0 4360.04 0 0 -4360.04 0 0 33401.7 0 0 -33401.7 0 0 28855.9 0 0 -28855.9 0 0 4377.83 0 0 -4377.83
0 0 7789.56 0 0 -7789.56 0 0 24618.8 0 0 -24618.8 0 0 4159.89 0 0 -4159.89 0 0 31717.4 0 0 -31717.4 0 0 30329.1 0 0 -30329.1 0 0 4170.31 0 0 -4170.31
0 0 6164.37 0 0 -6164.37 0 0 25898 0 0 -25898 0 0 3965.11 0 0 -3965.11 0 0 29988 0 0 -29988 0 0 31665.2 0 0 -31665.2 0 0 3969.4 0 0 -3969.4
0 0 4616.95 0 0 -4616.95 0 0 27029.7 0 0 -27029.7 0 0 3782.53 0 0 -3782.53 0 0 28246.2 0 0 -28246.2 0 0 32819.2 0 0 -32819.2 0 0 3782.19 0 0 -3782.19
0 0 3189.91 0 0 -3189.91 0 0 27974.5 0 0 -27974.5 0 0 3618.32 0 0 -3618.32 0 0 26531.4 0 0 -26531.4 0 0 33748 0 0 -33748 0 0 3615.32 0 0 -3615.32
0 0 1926.03 0 0 -1926.03 0 0 28695.7 0 0 -28695.7 0 0 3477.93 0 0 -3477.93 0 0 24886.6 0 0 -24886.6 0 0 34412.6 0 0 -34412.6 0 0 3474.54 0 0 -3474.54
0 0 865.556 0 0 -865.556 0 0 29161.1 0 0 -29161.1 0 0 3365.91 0 0 -3365.91 0 0 23354.4 0 0 -23354.4 0 0 34779.7 0 0 -34779.7 0 0 3364.56 0 0 -3364.56
0 0 42.9889 0 0 -42.9889 0 0 29344.9 0 0 -29344.9 0 0 3285.68 0 0 -3285.68 0 0 21973.2 0 0 -21973.2 0 0 34822.6 0 0 -34822.6 0 0 3288.78 0 0 -3288.78
0 0 -516.161 0 0 516.161 0 0 29229.2 0 0 -29229.2 0 0 3239.29 0 0 -3239.29 0 0 20772.5 0 0 -20772.5 0 0 34523.7 0 0 -34523.7 0 0 3249.24 0 0 -3249.24
0 0 -796.526 0 0 796.526 0 0 28805.2 0 0 -28805.2 0 0 3227.3 0 0 -3227.3 0 0 19771.8 0 0 -19771.8 0 0 33874.5 0 0 -33874.5 0 0 3246.54 0 0 -3246.54
0 0 -792.498 0 0 792.498 0 0 28072.8 0 0 -28072.8 0 0 3248.73 0 0 -3248.73 0 0 18980.9 0 0 -18980.9 0 0 32876.1 0 0 -32876.1 0 0 3279.77 0 0 -3279.77
0 0 -507.513 0 0 507.513 0 0 27040.6 0 0 -27040.6 0 0 3301.24 0 0 -3301.24 0 0 18401.8 0 0 -18401.8 0 0 31539.2 0 0 -31539.2 0 0 3346.47 0 0 -3346.47
0 0 46.6608 0 0 -46.6608 0 0 25725.3 0 0 -25725.3 0 0 3381.12 0 0 -3381.12 0 0 18029 0 0 -18029 0 0 29882.9 0 0 -29882.9 0 0 3442.74 0 0 -3442.74
0 0 850.639 0 0 -850.639 0 0 24150.9 0 0 -24150.9 0 0 3483.42 0 0 -3483.42 0 0 17850.9 0 0 -17850.9 0 0 27935.3 0 0 -27935.3 0 0 3563.35 0 0 -3563.35
0 0 1877.84 0 0 -1877.84 0 0 22348.7 0 0 -22348.7 0 0 3602.02 0 0 -3602.02 0 0 17849.6 0 0 -17849.6 0 0 25731.9 0 0 -25731.9 0 0 3701.89 0 0 -3701.89
0 0 3094.54 0 0 -3094.54 0 0 20356.3 0 0 -20356.3 0 0 3729.76 0 0 -3729.76 0 0 18000.2 0 0 -18000.2 0 0 23315.3 0 0 -23315.3 0 0 3850.95 0 0 -3850.95
0 0 4460.58 0 0 -4460.58 0 0 18216.8 0 0 -18216.8 0 0 3858.75 0 0 -3858.75 0 0 18271.6 0 0 -18271.6 0 0 20733.9 0 0 -20733.9 0 0 4002.31 0 0 -4002.31
0 0 5931.13 0 0 -5931.13 0 0 15977.5 0 0 -15977.5 0 0 3980.57 0 0 -3980.57 0 0 18627.9 0 0 -18627.9 0 0 18040.5 0 0 -18040.5 0 0 4147.19 0 0 -4147.19
0 0 7459.46 0 0 -7459.46 0 0 13688.1 0 0 -13688.1 0 0 4086.56 0 0 -4086.56 0 0 19031.7 0 0 -19031.7 0 0 15290.6 0 0 -15290.6 0 0 4276.53 0 0 -4276.53
0 0 8999.59 0 0 -8999.59 0 0 11398.4 0 0 -11398.4 0 0 4168.11 0 0 -4168.11 0 0 19447.5 0 0 -19447.5 0 0 12540.4 0 0 -12540.4 0 0 4381.28 0 0 -4381.28
0 0 10508 0 0 -10508 0 0 9157.17 0 0 -9157.17 0 0 4216.86 0 0 -4216.86 0 0 19843.7 0 0 -19843.7 0 0 9844.92 0 0 -9844.92 0 0 4452.71 0 0 -4452.71
0 0 11943.6 0 0 -11943.6 0 0 7010.79 0 0 -7010.79 0 0 4224.98 0 0 -4224.98 0 0 20191.5 0 0 -20191.5 0 0 7257.56 0 0 -7257.56 0 0 4482.64 0 0 -4482.64
0 0 13267.2 0 0 -13267.2 0 0 5003.18 0 0 -5003.18 0 0 4185.39 0 0 -4185.39 0 0 20463.1 0 0 -20463.1 0 0 4828.22 0 0 -4828.22 0 0 4463.63 0 0 -4463.63
0 0 14441.7 0 0 -14441.7 0 0 3174.97 0 0 -3174.97 0 0 4091.98 0 0 -4091.98 0 0 20630.7 0 0 -20630.7 0 0 2603.09 0 0 -2603.09 0 0 4389.23 0 0 -4389.23
0 0 15431.3 0 0 -15431.3 0 0 1562.89 0 0 -1562.89 0 0 3939.73 0 0 -3939.73 0 0 20665.5 0 0 -20665.5 0 0 623.461 0 0 -623.461 0 0 4254.14 0 0 -4254.14
0 0 16199.9 0 0 -16199.9 0 0 211.204 0 0 -211.204 0 0 3724.96 0 0 -3724.96 0 0 20506.5 0 0 -20506.5 0 0 -880.446 0 0 880.446 0 0 4040.88 0 0 -4040.88
0 0 16714 0 0 -16714 0 0 -848.728 0 0 848.728 0 0 3439.74 0 0 -3439.74 0 0 20164.7 0 0 -20164.7 0 0 -2107.66 0 0 2107.66 0 0 3778.31 0 0 -3778.31
0 0 16963.4 0 0 -16963.4 0 0 -1636.99 0 0 1636.99 0 0 3096 0 0 -3096 0 0 19603.3 0 0 -19603.3 0 0 -3026.06 0 0 3026.06 0 0 3431.56 0 0 -3431.56
0 0 16930 0 0 -16930 0 0 -2125.41 0 0 2125.41 0 0 2685.29 0 0 -2685.29 0 0 18826 0 0 -18826 0 0 -3669.48 0 0 3669.48 0 0 3031.95 0 0 -3031.95
0 0 16605 0 0 -16605 0 0 -2322.52 0 0 2322.52 0 0 2216.08 0 0 -2216.08 0 0 17806 0 0 -17806 0 0 -4015.98 0 0 4015.98 0 0 2565.24 0 0 -2565.24
0 0 15983 0 0 -15983 0 0 -2228.58 0 0 2228.58 0 0 1691.24 0 0 -1691.24 0 0 16537.3 0 0 -16537.3 0 0 -4077.05 0 0 4077.05 0 0 2043.05 0 0 -2043.05
0 0 15068.3 0 0 -15068.3 0 0 -1851.73 0 0 1851.73 0 0 1116.1 0 0 -1116.1 0 0 15008.2 0 0 -15008.2 0 0 -3834.1 0 0 3834.1 0 0 1467.99 0 0 -1467.99
0 0 13872.5 0 0 -13872.5 0 0 -1211.58 0 0 1211.58 0 0 496.588 0 0 -496.588 0 0 13220.1 0 0 -13220.1 0 0 -3307.37 0 0 3307.37 0 0 849.328 0 0 -849.328
0 0 12414.1 0 0 -12414.1 0 0 -339.696 0 0 339.696 0 0 -160.193 0 0 160.193 0 0 11178.6 0 0 -11178.6 0 0 -2527.53 0 0 2527.53 0 0 193.538 0 0 -193.538
0 0 10726.5 0 0 -10726.5 0 0 696.432 0 0 -696.432 0 0 -667.661 0 0 667.661 0 0 8898.37 0 0 -8898.37 0 0 -1550.72 0 0 1550.72 0 0 -384.663 0 0 384.663
0 0 8831.02 0 0 -8831.02 0 0 1901.21 0 0 -1901.21 0 0 -1187.94 0 0 1187.94 0 0 6401.26 0 0 -6401.26 0 0 -439.658 0 0 439.658 0 0 -893.277 0 0 893.277
0 0 6764.94 0 0 -6764.94 0 0 3204.33 0 0 -3204.33 0 0 -1693.06 0 0 1693.06 0 0 3695.84 0 0 -3695.84 0 0 790.141 0 0 -790.141 0 0 -1457.04 0 0 1457.04
0 0 4561.37 0 0 -4561.37 0 0 4577.06 0 0 -4577.06 0 0 -2204.66 0 0 2204.66 0 0 812.523 0 0 -812.523 0 0 2059.18 0 0 -2059.18 0 0 -1993.58 0 0 1993.58
0 0 2263.92 0 0 -2263.92 0 0 5961.03 0 0 -5961.03 0 0 -2713.37 0 0 2713.37 0 0 -1675.9 0 0 1675.9 0 0 3254.91 0 0 -3254.91 0 0 -2510.82 0 0 2510.82
0 0 -76.3558 0 0 76.3558 0 0 7298.3 0 0 -7298.3 0 0 -3200.48 0 0 3200.48 0 0 -4227.31 0 0 4227.31 0 0 4395.38 0 0 -4395.38 0 0 -3012.07 0 0 3012.07
0 0 -2421.62 0 0 2421.62 0 0 8558.64 0 0 -8558.64 0 0 -3653.08 0 0 3653.08 0 0 -6842.97 0 0 6842.97 0 0 5392.83 0 0 -5392.83 0 0 -3471.04 0 0 3471.04
0 0 -5420.99 0 0 5420.99 0 0 9484.9 0 0 -9484.9 0 0 -4046.21 0 0 4046.21 0 0 -9611.44 0 0 9611.44 0 0 6159.36 0 0 -6159.36 0 0 -3897.09 0 0 3897.09
0 0 -8580.75 0 0 8580.75 0 0 10049.6 0 0 -10049.6 0 0 -4400.26 0 0 4400.26 0 0 -12380.8 0 0 12380.8 0 0 6697.54 0 0 -6697.54 0 0 -4275.91 0 0 4275.91
0 0 -11705.9 0 0 11705.9 0 0 10367.5 0 0 -10367.5 0 0 -4716.49 0 0 4716.49 0 0 -15080.5 0 0 15080.5 0 0 6918.83 0 0 -6918.83 0 0 -4589.74 0 0 4589.74
0 0 -14646.3 0 0 14646.3 0 0 10437.4 0 0 -10437.4 0 0 -4976.41 0 0 4976.41 0 0 -17716.1 0 0 17716.1 0 0 6862.9 0 0 -6862.9 0 0 -4854.42 0 0 4854.42
0 0 -17431.7 0 0 17431.7 0 0 10165.9 0 0 -10165.9 0 0 -5176.25 0 0 5176.25 0 0 -20206.2 0 0 20206.2 0 0 6444.24 0 0 -6444.24 0 0 -5053.27 0 0 5053.27
0 0 -20028.6 0 0 20028.6 0 0 9497.81 0 0 -9497.81 0 0 -5312.24 0 0 5312.24 0 0 -22496.2 0 0 22496.2 0 0 5660.62 0 0 -5660.62 0 0 -5192.75 0 0 5192.75
0 0 -22342.4 0 0 22342.4 0 0 8476.54 0 0 -8476.54 0 0 -5386.55 0 0 5386.55 0 0 -24567 0 0 24567 0 0 4494.63 0 0 -4494.63 0 0 -5268.82 0 0 5268.82
0 0 -24333.2 0 0 24333.2 0 0 7107.15 0 0 -7107.15 0 0 -5404.06 0 0 5404.06 0 0 -26388.2 0 0 26388.2 0 0 2949.21 0 0 -2949.21 0 0 -5280.39 0 0 5280.39
0 0 -26004.5 0 0 26004.5 0 0 5367.82 0 0 -5367.82 0 0 -5349.05 0 0 5349.05 0 0 -27925.2 0 0 27925.2 0 0 1033.17 0 0 -1033.17 0 0 -5209.65 0 0 5209.65
0 0 -27346.9 0 0 27346.9 0 0 3292.98 0 0 -3292.98 0 0 -5223.22 0 0 5223.22 0 0 -29197.2 0 0 29197.2 0 0 -1008.32 0 0 1008.32 0 0 -5085.68 0 0 5085.68
0 0 -28362.4 0 0 28362.4 0 0 969.223 0 0 -969.223 0 0 -5038.61 0 0 5038.61 0 0 -30209 0 0 30209 0 0 -3269.13 0 0 3269.13 0 0 -4880.41 0 0 4880.41
0 0 -29089.8 0 0 29089.8 0 0 -1620.31 0 0 1620.31 0 0 -4791.93 0 0 4791.93 0 0 -30993.6 0 0 30993.6 0 0 -5723.63 0 0 5723.63 0 0 -4641.52 0 0 4641.52
0 0 -29597.8 0 0 29597.8 0 0 -4409.29 0 0 4409.29 0 0 -4506.44 0 0 4506.44 0 0 -31579.5 0 0 31579.5 0 0 -8381.21 0 0 8381.21 0 0 -4349.54 0 0 4349.54
0 0 -29941.3 0 0 29941.3 0 0 -7347.01 0 0 7347.01 0 0 -4190.29 0 0 4190.29 0 0 -32022.9 0 0 32022.9 0 0 -11163.8 0 0 11163.8 0 0 -4027.36 0 0 4027.36
0 0 -30179.8 0 0 30179.8 0 0 -10361.4 0 0 10361.4 0 0 -3854.12 0 0 3854.12 0 0 -32379.2 0 0 32379.2 0 0 -14019.4 0 0 14019.4 0 0 -3685.36 0 0 3685.36
0 0 -30378.5 0 0 30378.5 0 0 -13386.7 0 0 13386.7 0 0 -3509.34 0 0 3509.34 0 0 -32700.4 0 0 32700.4 0 0 -16892.7 0 0 16892.7 0 0 -3335.6 0 0 3335.6
0 0 -30599.3 0 0 30599.3 0 0 -16362.5 0 0 16362.5 0 0 -3168.89 0 0 3168.89 0 0 -33033.4 0 0 33033.4 0 0 -19719 0 0 19719 0 0 -2992.66 0 0 2992.66
0 0 -30894.4 0 0 30894.4 0 0 -19225.7 0 0 19225.7 0 0 -2847.28 0 0 2847.28 0 0 -33424.4 0 0 33424.4 0 0 -22441.7 0 0 22441.7 0 0 -2667.21 0 0 2667.21
0 0 -31307.3 0 0 31307.3 0 0 -21917.1 0 0 21917.1 0 0 -2556.41 0 0 2556.41 0 0 -33912.1 0 0 33912.1 0 0 -25006.4 0 0 25006.4 0 0 -2371.46 0 0 2371.46
0 0 -31872.8 0 0 31872.8 0 0 -24383.8 0 0 24383.8 0 0 -2306.18 0 0 2306.18 0 0 -34522.7 0 0 34522.7 0 0 -27365.4 0 0 27365.4 0 0 -2115.99 0 0 2115.99
0 0 -32613.6 0 0 32613.6 0 0 -26580.5 0 0 26580.5 0 0 -2105.28 0 0 2105.28 0 0 -35273.7 0 0 35273.7 0 0 -29476.9 0 0 29476.9 0 0 -1910.94 0 0 1910.94
0 0 -33391.7 0 0 33391.7 0 0 -28419 0 0 28419 0 0 -1965.2 0 0 1965.2 0 0 -35521.7 0 0 35521.7 0 0 -30998.1 0 0 30998.1 0 0 -1789.88 0 0 1789.88
0 0 -25890.2 0 0 25890.2 0 0 -27402 0 0 27402 0 0 -2161.68 0 0 2161.68 0 0 -17115.5 0 0 17115.5 0 0 -23636.7 0 0 23636.7 0 0 -2299.69 0 0 2299.69
0 0 -28577.2 0 0 28577.2 0 0 -25591.8 0 0 25591.8 0 0 -2454.51 0 0 2454.51 0 0 6080.69 0 0 -6080.69 0 0 -20454.3 0 0 20454.3 0 0 -2322.03 0 0 2322.03
0 0 -29879.6 0 0 29879.6 0 0 -29629.6 0 0 29629.6 0 0 -2109.27 0 0 2109.27 0 0 -12983.4 0 0 12983.4 0 0 -24314.3 0 0 24314.3 0 0 -1999.79 0 0 1999.79
0 0 -31163.8 0 0 31163.8 0 0 -29901.6 0 0 29901.6 0 0 -2076.65 0 0 2076.65 0 0 -4513.48 0 0 4513.48 0 0 -23491.2 0 0 23491.2 0 0 -2820.66 0 0 2820.66
0 0 -32525.1 0 0 32525.1 0 0 -30629.6 0 0 30629.6 0 0 -2375.41 0 0 2375.41 0 0 -5895.24 0 0 5895.24 0 0 -24928 0 0 24928 0 0 -1851.86 0 0 1851.86
0 0 -33775.2 0 0 33775.2 0 0 -31884 0 0 31884 0 0 -2127.71 0 0 2127.71 0 0 -8636.02 0 0 8636.02 0 0 -24659.4 0 0 24659.4 0 0 -2865.93 0 0 2865.93
0 0 -35120.6 0 0 35120.6 0 0 -31751 0 0 31751 0 0 -2408.87 0 0 2408.87 0 0 -6997.9 0 0 6997.9 0 0 -25283.4 0 0 25283.4 0 0 -2440.98 0 0 2440.98
0 0 -36458.5 0 0 36458.5 0 0 -32187.1 0 0 32187.1 0 0 -2538.39 0 0 2538.39 0 0 -8828.12 0 0 8828.12 0 0 -25355.8 0 0 25355.8 0 0 -2775.9 0 0 2775.9
0 0 -37878.9 0 0 37878.9 0 0 -32364.1 0 0 32364.1 0 0 -2765.03 0 0 2765.03 0 0 -9678.48 0 0 9678.48 0 0 -25218.9 0 0 25218.9 0 0 -2925.52 0 0 2925.52
0 0 -39422.8 0 0 39422.8 0 0 -32316.3 0 0 32316.3 0 0 -2977.75 0 0 2977.75 0 0 -10462.1 0 0 10462.1 0 0 -24971.1 0 0 24971.1 0 0 -3120.52 0 0 3120.52
0 0 -41070.2 0 0 41070.2 0 0 -32170.6 0 0 32170.6 0 0 -3149.46 0 0 3149.46 0 0 -11941.3 0 0 11941.3 0 0 -24637.9 0 0 24637.9 0 0 -3426.7 0 0 3426.7
0 0 -42812.6 0 0 42812.6 0 0 -31816.8 0 0 31816.8 0 0 -3391.73 0 0 3391.73 0 0 -13096.5 0 0 13096.5 0 0 -24212.1 0 0 24212.1 0 0 -3674.43 0 0 3674.43
0 0 -44623.9 0 0 44623.9 0 0 -31453.3 0 0 31453.3 0 0 -3687.53 0 0 3687.53 0 0 -14396.1 0 0 14396.1 0 0 -23703.5 0 0 23703.5 0 0 -3935.84 0 0 3935.84
0 0 -46468.4 0 0 46468.4 0 0 -31088.7 0 0 31088.7 0 0 -3992.79 0 0 3992.79 0 0 -15821.9 0 0 15821.9 0 0 -23114.8 0 0 23114.8 0 0 -4217.78 0 0 4217.78
0 0 -47855.7 0 0 47855.7 0 0 -30712.4 0 0 30712.4 0 0 -4269.95 0 0 4269.95 0 0 -17129.5 0 0 17129.5 0 0 -22524.9 0 0 22524.9 0 0 -4504.17 0 0 4504.17
0 0 -48007.2 0 0 48007.2 0 0 -30530 0 0 30530 0 0 -4515.59 0 0 4515.59 0 0 -18452.9 0 0 18452.9 0 0 -22025.9 0 0 22025.9 0 0 -4802.36 0 0 4802.36
0 0 -48156.7 0 0 48156.7 0 0 -30390.9 0 0 30390.9 0 0 -4759.64 0 0 4759.64 0 0 -19652.3 0 0 19652.3 0 0 -21549.5 0 0 21549.5 0 0 -5082.65 0 0 5082.65
0 0 -48293.8 0 0 48293.8 0 0 -30280.7 0 0 30280.7 0 0 -5024.15 0 0 5024.15 0 0 -20763.1 0 0 20763.1 0 0 -21129.2 0 0 21129.2 0 0 -5343.9 0 0 5343.9
0 0 -48415.7 0 0 48415.7 0 0 -30228.3 0 0 30228.3 0 0 -5267.18 0 0 5267.18 0 0 -21758.2 0 0 21758.2 0 0 -20784.6 0 0 20784.6 0 0 -5558.48 0 0 5558.48
0 0 -48523.5 0 0 48523.5 0 0 -30251 0 0 30251 0 0 -5478.66 0 0 5478.66 0 0 -22570.6 0 0 22570.6 0 0 -20557 0 0 20557 0 0 -5743.05 0 0 5743.05
0 0 -48615.8 0 0 48615.8 0 0 -30355.3 0 0 30355.3 0 0 -5651.88 0 0 5651.88 0 0 -23218 0 0 23218 0 0 -20441.5 0 0 20441.5 0 0 -5925.8 0 0 5925.8
0 0 -48691.5 0 0 48691.5 0 0 -30537.7 0 0 30537.7 0 0 -5796.97 0 0 5796.97 0 0 -23707.5 0 0 23707.5 0 0 -20441.5 0 0 20441.5 0 0 -6081.92 0 0 6081.92
0 0 -48751.7 0 0 48751.7 0 0 -30820.2 0 0 30820.2 0 0 -5912.26 0 0 5912.26 0 0 -24037 0 0 24037 0 0 -20548 0 0 20548 0 0 -6202.33 0 0 6202.33
0 0 -48798.6 0 0 48798.6 0 0 -31202.3 0 0 31202.3 0 0 -6016.08 0 0 6016.08 0 0 -24218.5 0 0 24218.5 0 0 -20766 0 0 20766 0 0 -6307.26 0 0 6307.26
0 0 -48833.2 0 0 48833.2 0 0 -31667.4 0 0 31667.4 0 0 -6096.49 0 0 6096.49 0 0 -24258.4 0 0 24258.4 0 0 -21096.6 0 0 21096.6 0 0 -6391.02 0 0 6391.02
0 0 -48856.5 0 0 48856.5 0 0 -32207.5 0 0 32207.5 0 0 -6152.31 0 0 6152.31 0 0 -24166.7 0 0 24166.7 0 0 -21532.3 0 0 21532.3 0 0 -6457.33 0 0 6457.33
0 0 -48870.3 0 0 48870.3 0 0 -32827.3 0 0 32827.3 0 0 -6190.45 0 0 6190.45 0 0 -23965.7 0 0 23965.7 0 0 -22058.8 0 0 22058.8 0 0 -6504.85 0 0 6504.85
0 0 -11725 0 0 11725 0 0 -22706.9 0 0 22706.9 0 0 -7102.14 0 0 7102.14 0 0 -22521.4 0 0 22521.4 0 0 -21975 0 0 21975 0 0 -6515.72 0 0 6515.72
0 0 -6000.31 0 0 6000.31 0 0 -18449.2 0 0 18449.2 0 0 -6969.27 0 0 6969.27 0 0 -22309.1 0 0 22309.1 0 0 -21087.4 0 0 21087.4 0 0 -6770.96 0 0 6770.96
0 0 -5445.64 0 0 5445.64 0 0 -20188.6 0 0 20188.6 0 0 -6440.71 0 0 6440.71 0 0 -22796 0 0 22796 0 0 -22435.7 0 0 22435.7 0 0 -6536.48 0 0 6536.48
0 0 -11752 0 0 11752 0 0 -25717.7 0 0 25717.7 0 0 -6217.4 0 0 6217.4 0 0 -20044.9 0 0 20044.9 0 0 -23979.3 0 0 23979.3 0 0 -6439.52 0 0 6439.52
0 0 -10716.4 0 0 10716.4 0 0 -27020 0 0 27020 0 0 -6155.8 0 0 6155.8 0 0 -19161.6 0 0 19161.6 0 0 -25622.1 0 0 25622.1 0 0 -6070.19 0 0 6070.19
0 0 -5186.72 0 0 5186.72 0 0 -25728.8 0 0 25728.8 0 0 -6030.67 0 0 6030.67 0 0 -18720.4 0 0 18720.4 0 0 -26789.1 0 0 26789.1 0 0 -5976.25 0 0 5976.25
0 0 -3914.8 0 0 3914.8 0 0 -27133.7 0 0 27133.7 0 0 -5773.45 0 0 5773.45 0 0 -17395.3 0 0 17395.3 0 0 -28307.2 0 0 28307.2 0 0 -5698.27 0 0 5698.27
0 0 -5528.07 0 0 5528.07 0 0 -30496.7 0 0 30496.7 0 0 -5385.25 0 0 5385.25 0 0 -15791.4 0 0 15791.4 0 0 -30101 0 0 30101 0 0 -5428.24 0 0 5428.24
0 0 -4531.22 0 0 4531.22 0 0 -32229 0 0 32229 0 0 -5058.45 0 0 5058.45 0 0 -14471.3 0 0 14471.3 0 0 -31761.7 0 0 31761.7 0 0 -5118.46 0 0 5118.46
0 0 -1633.43 0 0 1633.43 0 0 -32647.1 0 0 32647.1 0 0 -4807.66 0 0 4807.66 0 0 -13549.8 0 0 13549.8 0 0 -33146.4 0 0 33146.4 0 0 -4812.47 0 0 4812.47
0 0 -367.206 0 0 367.206 0 0 -33997.7 0 0 33997.7 0 0 -4540.34 0 0 4540.34 0 0 -12500.7 0 0 12500.7 0 0 -34494.8 0 0 34494.8 0 0 -4480.35 0 0 4480.35
0 0 -496.554 0 0 496.554 0 0 -36103.2 0 0 36103.2 0 0 -4219.07 0 0 4219.07 0 0 -11365.4 0 0 11365.4 0 0 -35854.6 0 0 35854.6 0 0 -4153.49 0 0 4153.49
0 0 21.7291 0 0 -21.7291 0 0 -36799.2 0 0 36799.2 0 0 -3928.5 0 0 3928.5 0 0 -10521.1 0 0 10521.1 0 0 -36767.3 0 0 36767.3 0 0 -3872.56 0 0 3872.56
0 0 1000.19 0 0 -1000.19 0 0 -36858.2 0 0 36858.2 0 0 -3640.16 0 0 3640.16 0 0 -10272 0 0 10272 0 0 -36852.1 0 0 36852.1 0 0 -3677.32 0 0 3677.32
0 0 1439.79 0 0 -1439.79 0 0 -36916.8 0 0 36916.8 0 0 -3421.4 0 0 3421.4 0 0 -9988.59 0 0 9988.59 0 0 -36942.4 0 0 36942.4 0 0 -3403.12 0 0 3403.12
0 0 1170.81 0 0 -1170.81 0 0 -37004.1 0 0 37004.1 0 0 -3222.93 0 0 3222.93 0 0 -9718.84 0 0 9718.84 0 0 -37008.4 0 0 37008.4 0 0 -3191.98 0 0 3191.98
0 0 1083.86 0 0 -1083.86 0 0 -37075.4 0 0 37075.4 0 0 -3037.53 0 0 3037.53 0 0 -9673.14 0 0 9673.14 0 0 -37068.2 0 0 37068.2 0 0 -2975.48 0 0 2975.48
0 0 1348.13 0 0 -1348.13 0 0 -37113.2 0 0 37113.2 0 0 -2844.47 0 0 2844.47 0 0 -9709.95 0 0 9709.95 0 0 -37116.4 0 0 37116.4 0 0 -2798.45 0 0 2798.45
0 0 1366.86 0 0 -1366.86 0 0 -37140.1 0 0 37140.1 0 0 -2660.89 0 0 2660.89 0 0 -9874.21 0 0 9874.21 0 0 -37153.4 0 0 37153.4 0 0 -2642.89 0 0 2642.89
0 0 970.29 0 0 -970.29 0 0 -37169.8 0 0 37169.8 0 0 -2512.23 0 0 2512.23 0 0 -10127.6 0 0 10127.6 0 0 -37180.1 0 0 37180.1 0 0 -2495.61 0 0 2495.61
0 0 522.937 0 0 -522.937 0 0 -37190.5 0 0 37190.5 0 0 -2400.92 0 0 2400.92 0 0 -10486.5 0 0 10486.5 0 0 -37194.3 0 0 37194.3 0 0 -2366.67 0 0 2366.67
0 0 177.289 0 0 -177.289 0 0 -37155.2 0 0 37155.2 0 0 -2314.17 0 0 2314.17 0 0 -10969.5 0 0 10969.5 0 0 -37194.4 0 0 37194.4 0 0 -2262.5 0 0 2262.5
0 0 -286.655 0 0 286.655 0 0 -37021 0 0 37021 0 0 -2238.68 0 0 2238.68 0 0 -11556.7 0 0 11556.7 0 0 -37079.4 0 0 37079.4 0 0 -2193 0 0 2193
0 0 -962.066 0 0 962.066 0 0 -36838.2 0 0 36838.2 0 0 -2181.69 0 0 2181.69 0 0 -12236.1 0 0 12236.1 0 0 -36871.6 0 0 36871.6 0 0 -2150.16 0 0 2150.16
0 0 -1703.67 0 0 1703.67 0 0 -36564.3 0 0 36564.3 0 0 -2155.02 0 0 2155.02 0 0 -12979.3 0 0 12979.3 0 0 -36558.7 0 0 36558.7 0 0 -2132.32 0 0 2132.32
0 0 -2410.5 0 0 2410.5 0 0 -36171.2 0 0 36171.2 0 0 -2162.95 0 0 2162.95 0 0 -13781.5 0 0 13781.5 0 0 -36158.8 0 0 36158.8 0 0 -2135.64 0 0 2135.64
0 0 -3129.95 0 0 3129.95 0 0 -35718 0 0 35718 0 0 -2194.77 0 0 2194.77 0 0 -14601 0 0 14601 0 0 -35696.8 0 0 35696.8 0 0 -2160.83 0 0 2160.83
0 0 -3889.99 0 0 3889.99 0 0 -35253.3 0 0 35253.3 0 0 -2239.85 0 0 2239.85 0 0 -15403.7 0 0 15403.7 0 0 -35201.8 0 0 35201.8 0 0 -2206.41 0 0 2206.41
0 0 -4625.27 0 0 4625.27 0 0 -34771.9 0 0 34771.9 0 0 -2296.42 0 0 2296.42 0 0 -16173.8 0 0 16173.8 0 0 -34688.8 0 0 34688.8 0 0 -2271.07 0 0 2271.07
0 0 -5280.64 0 0 5280.64 0 0 -34273 0 0 34273 0 0 -2368.08 0 0 2368.08 0 0 -16893.8 0 0 16893.8 0 0 -34172.1 0 0 34172.1 0 0 -2350.19 0 0 2350.19
0 0 -5862.03 0 0 5862.03 0 0 -33789.8 0 0 33789.8 0 0 -2455.07 0 0 2455.07 0 0 -17539.4 0 0 17539.4 0 0 -33671.4 0 0 33671.4 0 0 -2438.93 0 0 2438.93
0 0 -6373.94 0 0 6373.94 0 0 -33351 0 0 33351 0 0 -2552.38 0 0 2552.38 0 0 -18086.5 0 0 18086.5 0 0 -33207 0 0 33207 0 0 -2534.48 0 0 2534.48
0 0 -6785.9 0 0 6785.9 0 0 -32960.6 0 0 32960.6 0 0 -2654.04 0 0 2654.04 0 0 -18520.3 0 0 18520.3 0 0 -32794.5 0 0 32794.5 0 0 -2635.92 0 0 2635.92
0 0 -7073.66 0 0 7073.66 0 0 -32620.8 0 0 32620.8 0 0 -2756.95 0 0 2756.95 0 0 -18833.9 0 0 18833.9 0 0 -32442.1 0 0 32442.1 0 0 -2742.07 0 0 2742.07
0 0 -7246.02 0 0 7246.02 0 0 -32344.2 0 0 32344.2 0 0 -2860.92 0 0 2860.92 0 0 -19026.6 0 0 19026.6 0 0 -32155 0 0 32155 0 0 -2850.31 0 0 2850.31
0 0 -7323.33 0 0 7323.33 0 0 -32136.8 0 0 32136.8 0 0 -2966.32 0 0 2966.32 0 0 -19108.3 0 0 19108.3 0 0 -31934.7 0 0 31934.7 0 0 -2957.94 0 0 2957.94
0 0 -7319.24 0 0 7319.24 0 0 -31989.3 0 0 31989.3 0 0 -3072.24 0 0 3072.24 0 0 -19099.3 0 0 19099.3 0 0 -31776.5 0 0 31776.5 0 0 -3063.68 0 0 3063.68
0 0 -7250.21 0 0 7250.21 0 0 -31889.8 0 0 31889.8 0 0 -3176.71 0 0 3176.71 0 0 -19025.6 0 0 19025.6 0 0 -31672.7 0 0 31672.7 0 0 -3167.47 0 0 3167.47
0 0 -7142.34 0 0 7142.34 0 0 -31832.3 0 0 31832.3 0 0 -3278.15 0 0 3278.15 0 0 -18912.3 0 0 18912.3 0 0 -31613.5 0 0 31613.5 0 0 -3269.46 0 0 3269.46
0 0 -7019.03 0 0 7019.03 0 0 -31812.5 0 0 31812.5 0 0 -3376.18 0 0 3376.18 0 0 -18779.6 0 0 18779.6 0 0 -31590.9 0 0 31590.9 0 0 -3369.12 0 0 3369.12
0 0 -6891.96 0 0 6891.96 0 0 -31823.7 0 0 31823.7 0 0 -3471.13 0 0 3471.13 0 0 -18642.3 0 0 18642.3 0 0 -31599.8 0 0 31599.8 0 0 -3465.43 0 0 3465.43
0 0 -6765.7 0 0 6765.7 0 0 -31860.3 0 0 31860.3 0 0 -3562.95 0 0 3562.95 0 0 -18508.3 0 0 18508.3 0 0 -31636.5 0 0 31636.5 0 0 -3557.54 0 0 3557.54
0 0 -6643.29 0 0 6643.29 0 0 -31921.3 0 0 31921.3 0 0 -3650.79 0 0 3650.79 0 0 -18379.7 0 0 18379.7 0 0 -31700.1 0 0 31700.1 0 0 -3644.9 0 0 3644.9
0 0 -6524.58 0 0 6524.58 0 0 -32008.2 0 0 32008.2 0 0 -3733.48 0 0 3733.48 0 0 -18254.6 0 0 18254.6 0 0 -31790.1 0 0 31790.1 0 0 -3727.3 0 0 3727.3
0 0 -6403.78 0 0 6403.78 0 0 -32121.8 0 0 32121.8 0 0 -3810.24 0 0 3810.24 0 0 -18127.2 0 0 18127.2 0 0 -31906.9 0 0 31906.9 0 0 -3804.34 0 0 3804.34
0 0 -6272.18 0 0 6272.18 0 0 -32262.9 0 0 32262.9 0 0 -3880.79 0 0 3880.79 0 0 -17989.6 0 0 17989.6 0 0 -32052.9 0 0 32052.9 0 0 -3875.35 0 0 3875.35
0 0 -6121.69 0 0 6121.69 0 0 -32433.2 0 0 32433.2 0 0 -3945.06 0 0 3945.06 0 0 -17832.6 0 0 17832.6 0 0 -32229.6 0 0 32229.6 0 0 -3939.68 0 0 3939.68
0 0 -5945.37 0 0 5945.37 0 0 -32634.1 0 0 32634.1 0 0 -4002.91 0 0 4002.91 0 0 -17647.4 0 0 17647.4 0 0 -32438.7 0 0 32438.7 0 0 -3996.95 0 0 3996.95
0 0 -5736.26 0 0 5736.26 0 0 -32865.9 0 0 32865.9 0 0 -4054.05 0 0 4054.05 0 0 -17426.8 0 0 17426.8 0 0 -32679.8 0 0 32679.8 0 0 -4047.24 0 0 4047.24
0 0 -5486.71 0 0 5486.71 0 0 -33127.7 0 0 33127.7 0 0 -4098.32 0 0 4098.32 0 0 -17162.9 0 0 17162.9 0 0 -32952.1 0 0 32952.1 0 0 -4090.75 0 0 4090.75
0 0 -5188.29 0 0 5188.29 0 0 -33418.6 0 0 33418.6 0 0 -4135.89 0 0 4135.89 0 0 -16846.6 0 0 16846.6 0 0 -33255.6 0 0 33255.6 0 0 -4127.67 0 0 4127.67
0 0 -4831.8 0 0 4831.8 0 0 -33738.4 0 0 33738.4 0 0 -4167.29 0 0 4167.29 0 0 -16467.3 0 0 16467.3 0 0 -33589.1 0 0 33589.1 0 0 -4158.27 0 0 4158.27
0 0 -4408.5 0 0 4408.5 0 0 -34085 0 0 34085 0 0 -4193.25 0 0 4193.25 0 0 -16015.3 0 0 16015.3 0 0 -33951.1 0 0 33951.1 0 0 -4183 0 0 4183
0 0 -3912.81 0 0 3912.81 0 0 -34454.8 0 0 34454.8 0 0 -4214.55 0 0 4214.55 0 0 -15484.9 0 0 15484.9 0 0 -34337.5 0 0 34337.5 0 0 -4202.73 0 0 4202.73
0 0 -3345.16 0 0 3345.16 0 0 -34840.5 0 0 34840.5 0 0 -4232.15 0 0 4232.15 0 0 -14876.4 0 0 14876.4 0 0 -34740.4 0 0 34740.4 0 0 -4218.69 0 0 4218.69
0 0 -2712.57 0 0 2712.57 0 0 -35231.6 0 0 35231.6 0 0 -4247.34 0 0 4247.34 0 0 -14196.9 0 0 14196.9 0 0 -35149.4 0 0 35149.4 0 0 -4232.31 0 0 4232.31
0 0 -2027.31 0 0 2027.31 0 0 -35614.8 0 0 35614.8 0 0 -4261.77 0 0 4261.77 0 0 -13459.4 0 0 13459.4 0 0 -35550.1 0 0 35550.1 0 0 -4245.24 0 0 4245.24
0 0 -1305.89 0 0 1305.89 0 0 -35974.4 0 0 35974.4 0 0 -4277.3 0 0 4277.3 0 0 -12681.6 0 0 12681.6 0 0 -35926.4 0 0 35926.4 0 0 -4259.21 0 0 4259.21
0 0 -568.616 0 0 568.616 0 0 -36293.6 0 0 36293.6 0 0 -4295.74 0 0 4295.74 0 0 -11885.5 0 0 11885.5 0 0 -36261 0 0 36261 0 0 -4276.07 0 0 4276.07
0 0 100.417 0 0 -100.417 0 0 -36548 0 0 36548 0 0 -4319.17 0 0 4319.17 0 0 -11096.2 0 0 11096.2 0 0 -36534.2 0 0 36534.2 0 0 -4297.73 0 0 4297.73
0 0 715.015 0 0 -715.015 0 0 -36699.2 0 0 36699.2 0 0 -4349.18 0 0 4349.18 0 0 -10341.9 0 0 10341.9 0 0 -36721.7 0 0 36721.7 0 0 -4326.04 0 0 4326.04
0 0 1271.67 0 0 -1271.67 0 0 -36752.1 0 0 36752.1 0 0 -4387.72 0 0 4387.72 0 0 -9658.78 0 0 9658.78 0 0 -36811.5 0 0 36811.5 0 0 -4362.89 0 0 4362.89
0 0 1737.47 0 0 -1737.47 0 0 -36702.3 0 0 36702.3 0 0 -4434.2 0 0 4434.2 0 0 -9074.4 0 0 9074.4 0 0 -36782.4 0 0 36782.4 0 0 -4408.67 0 0 4408.67
0 0 2089.12 0 0 -2089.12 0 0 -36534.8 0 0 36534.8 0 0 -4489.69 0 0 4489.69 0 0 -8620.66 0 0 8620.66 0 0 -36620.8 0 0 36620.8 0 0 -4464.01 0 0 4464.01
0 0 2320.67 0 0 -2320.67 0 0 -36229.8 0 0 36229.8 0 0 -4554.65 0 0 4554.65 0 0 -8322.4 0 0 8322.4 0 0 -36312.9 0 0 36312.9 0 0 -4529.33 0 0 4529.33
0 0 2421.22 0 0 -2421.22 0 0 -35782.4 0 0 35782.4 0 0 -4628.32 0 0 4628.32 0 0 -8193.88 0 0 8193.88 0 0 -35853.9 0 0 35853.9 0 0 -4604.18 0 0 4604.18
0 0 2365.96 0 0 -2365.96 0 0 -35197.1 0 0 35197.1 0 0 -4709.35 0 0 4709.35 0 0 -8238.1 0 0 8238.1 0 0 -35244.6 0 0 35244.6 0 0 -4687.24 0 0 4687.24
0 0 2150 0 0 -2150 0 0 -34475.6 0 0 34475.6 0 0 -4795.87 0 0 4795.87 0 0 -8449.08 0 0 8449.08 0 0 -34490.3 0 0 34490.3 0 0 -4776.58 0 0 4776.58
0 0 1794.51 0 0 -1794.51 0 0 -33624.5 0 0 33624.5 0 0 -4885.65 0 0 4885.65 0 0 -8814.47 0 0 8814.47 0 0 -33604 0 0 33604 0 0 -4869.62 0 0 4869.62
0 0 1315.97 0 0 -1315.97 0 0 -32660.9 0 0 32660.9 0 0 -4975.63 0 0 4975.63 0 0 -9314.33 0 0 9314.33 0 0 -32601.5 0 0 32601.5 0 0 -4963.21 0 0 4963.21
0 0 729.889 0 0 -729.889 0 0 -31606.6 0 0 31606.6 0 0 -5062.27 0 0 5062.27 0 0 -9925.59 0 0 9925.59 0 0 -31503.1 0 0 31503.1 0 0 -5053.7 0 0 5053.7
0 0 59.4041 0 0 -59.4041 0 0 -30481.9 0 0 30481.9 0 0 -5141.78 0 0 5141.78 0 0 -10624.6 0 0 10624.6 0 0 -30330.1 0 0 30330.1 0 0 -5137.34 0 0 5137.34
0 0 -658.12 0 0 658.12 0 0 -29308.9 0 0 29308.9 0 0 -5210.2 0 0 5210.2 0 0 -11386.2 0 0 11386.2 0 0 -29105.6 0 0 29105.6 0 0 -5210.23 0 0 5210.23
0 0 -1409.53 0 0 1409.53 0 0 -28110 0 0 28110 0 0 -5263.68 0 0 5263.68 0 0 -12182.8 0 0 12182.8 0 0 -27854.3 0 0 27854.3 0 0 -5268.16 0 0 5268.16
0 0 -2167.39 0 0 2167.39 0 0 -26909.7 0 0 26909.7 0 0 -5298.44 0 0 5298.44 0 0 -12984.8 0 0 12984.8 0 0 -26601.4 0 0 26601.4 0 0 -5307.23 0 0 5307.23
0 0 -2902.3 0 0 2902.3 0 0 -25732.4 0 0 25732.4 0 0 -5310.72 0 0 5310.72 0 0 -13761.2 0 0 13761.2 0 0 -25373.2 0 0 25373.2 0 0 -5323.48 0 0 5323.48
0 0 -3585.87 0 0 3585.87 0 0 -24602.2 0 0 24602.2 0 0 -5297.06 0 0 5297.06 0 0 -14481.8 0 0 14481.8 0 0 -24195.1 0 0 24195.1 0 0 -5313.46 0 0 5313.46
0 0 -4192.38 0 0 4192.38 0 0 -23541.4 0 0 23541.4 0 0 -5254.43 0 0 5254.43 0 0 -15118 0 0 15118 0 0 -23089.9 0 0 23089.9 0 0 -5274.07 0 0 5274.07
0 0 -4698.9 0 0 4698.9 0 0 -22569.8 0 0 22569.8 0 0 -5180.48 0 0 5180.48 0 0 -15644.8 0 0 15644.8 0 0 -22078.7 0 0 22078.7 0 0 -5202.78 0 0 5202.78
0 0 -5085.88 0 0 5085.88 0 0 -21703.3 0 0 21703.3 0 0 -5073.48 0 0 5073.48 0 0 -16041.5 0 0 16041.5 0 0 -21178.1 0 0 21178.1 0 0 -5097.8 0 0 5097.8
0 0 -5337.4 0 0 5337.4 0 0 -20954.5 0 0 20954.5 0 0 -4932.44 0 0 4932.44 0 0 -16290.7 0 0 16290.7 0 0 -20401.3 0 0 20401.3 0 0 -4958.03 0 0 4958.03
0 0 -5440.85 0 0 5440.85 0 0 -20332.8 0 0 20332.8 0 0 -4757.09 0 0 4757.09 0 0 -16378.9 0 0 16378.9 0 0 -19758.4 0 0 19758.4 0 0 -4783.18 0 0 4783.18
0 0 -5385.12 0 0 5385.12 0 0 -19843.9 0 0 19843.9 0 0 -4547.93 0 0 4547.93 0 0 -16295.1 0 0 16295.1 0 0 -19254.8 0 0 19254.8 0 0 -4573.83 0 0 4573.83
0 0 -5162.44 0 0 5162.44 0 0 -19490.2 0 0 19490.2 0 0 -4306.32 0 0 4306.32 0 0 -16031.7 0 0 16031.7 0 0 -18893 0 0 18893 0 0 -4331.25 0 0 4331.25
0 0 -4769.55 0 0 4769.55 0 0 -19269.5 0 0 19269.5 0 0 -4034.43 0 0 4034.43 0 0 -15585.3 0 0 15585.3 0 0 -18670.4 0 0 18670.4 0 0 -4057.68 0 0 4057.68
0 0 -4207.75 0 0 4207.75 0 0 -19175.1 0 0 19175.1 0 0 -3735.27 0 0 3735.27 0 0 -14957.3 0 0 14957.3 0 0 -18579.9 0 0 18579.9 0 0 -3756.14 0 0 3756.14
0 0 -3484.43 0 0 3484.43 0 0 -19195.3 0 0 19195.3 0 0 -3412.62 0 0 3412.62 0 0 -14155.8 0 0 14155.8 0 0 -18609.8 0 0 18609.8 0 0 -3430.46 0 0 3430.46
0 0 -2613.8 0 0 2613.8 0 0 -19313.7 0 0 19313.7 0 0 -3070.97 0 0 3070.97 0 0 -13195.6 0 0 13195.6 0 0 -18742.1 0 0 18742.1 0 0 -3085.32 0 0 3085.32
0 0 -1615.85 0 0 1615.85 0 0 -19508.9 0 0 19508.9 0 0 -2715.51 0 0 2715.51 0 0 -12098.2 0 0 12098.2 0 0 -18955.1 0 0 18955.1 0 0 -2725.94 0 0 2725.94
0 0 -514.513 0 0 514.513 0 0 -19756.6 0 0 19756.6 0 0 -2351.88 0 0 2351.88 0 0 -10889.2 0 0 10889.2 0 0 -19223.2 0 0 19223.2 0 0 -2358.11 0 0 2358.11
0 0 540.773 0 0 -540.773 0 0 -19999.2 0 0 19999.2 0 0 -1988.55 0 0 1988.55 0 0 -9596.14 0 0 9596.14 0 0 -19516.5 0 0 19516.5 0 0 -1987.76 0 0 1987.76
0 0 1605.06 0 0 -1605.06 0 0 -20215.6 0 0 20215.6 0 0 -1628.25 0 0 1628.25 0 0 -8250.42 0 0 8250.42 0 0 -19800.1 0 0 19800.1 0 0 -1622.49 0 0 1622.49
0 0 2700.52 0 0 -2700.52 0 0 -20393.8 0 0 20393.8 0 0 -1277.92 0 0 1277.92 0 0 -6887.39 0 0 6887.39 0 0 -20055.9 0 0 20055.9 0 0 -1266.51 0 0 1266.51
0 0 3766.4 0 0 -3766.4 0 0 -20526.1 0 0 20526.1 0 0 -943.301 0 0 943.301 0 0 -5535.82 0 0 5535.82 0 0 -20249.7 0 0 20249.7 0 0 -927.078 0 0 927.078
0 0 4779.08 0 0 -4779.08 0 0 -20575 0 0 20575 0 0 -630.297 0 0 630.297 0 0 -4242.26 0 0 4242.26 0 0 -20350.8 0 0 20350.8 0 0 -608.839 0 0 608.839
0 0 5716.79 0 0 -5716.79 0 0 -20498.7 0 0 20498.7 0 0 -344.329 0 0 344.329 0 0 -3056.21 0 0 3056.21 0 0 -20323.8 0 0 20323.8 0 0 -318.436 0 0 318.436
0 0 6533.96 0 0 -6533.96 0 0 -20270.4 0 0 20270.4 0 0 -110.092 0 0 110.092 0 0 -2025.62 0 0 2025.62 0 0 -20137.5 0 0 20137.5 0 0 -68.4085 0 0 68.4085
0 0 7180.56 0 0 -7180.56 0 0 -19870.9 0 0 19870.9 0 0 45.6154 0 0 -45.6154 0 0 -1197.79 0 0 1197.79 0 0 -19752.5 0 0 19752.5 0 0 74.6779 0 0 -74.6779
0 0 7632.55 0 0 -7632.55 0 0 -19285.1 0 0 19285.1 0 0 175.77 0 0 -175.77 0 0 -606.67 0 0 606.67 0 0 -19171.4 0 0 19171.4 0 0 226.256 0 0 -226.256
0 0 7875 0 0 -7875 0 0 -18496.6 0 0 18496.6 0 0 279.448 0 0 -279.448 0 0 -274.297 0 0 274.297 0 0 -18367.8 0 0 18367.8 0 0 333.697 0 0 -333.697
0 0 7885.75 0 0 -7885.75 0 0 -17502.6 0 0 17502.6 0 0 357.412 0 0 -357.412 0 0 -226.562 0 0 226.562 0 0 -17340 0 0 17340 0 0 412.659 0 0 -412.659
0 0 7636.5 0 0 -7636.5 0 0 -16300.7 0 0 16300.7 0 0 409.641 0 0 -409.641 0 0 -453.001 0 0 453.001 0 0 -16090.6 0 0 16090.6 0 0 459.483 0 0 -459.483
0 0 7140.78 0 0 -7140.78 0 0 -14899.3 0 0 14899.3 0 0 433.964 0 0 -433.964 0 0 -944.76 0 0 944.76 0 0 -14633.9 0 0 14633.9 0 0 477.999 0 0 -477.999
0 0 6427.87 0 0 -6427.87 0 0 -13317.5 0 0 13317.5 0 0 424.651 0 0 -424.651 0 0 -1672.8 0 0 1672.8 0 0 -12992.1 0 0 12992.1 0 0 464.686 0 0 -464.686
0 0 5533.37 0 0 -5533.37 0 0 -11589 0 0 11589 0 0 384.873 0 0 -384.873 0 0 -2593.95 0 0 2593.95 0 0 -11196.3 0 0 11196.3 0 0 420.919 0 0 -420.919
0 0 4505.05 0 0 -4505.05 0 0 -9751.77 0 0 9751.77 0 0 321.194 0 0 -321.194 0 0 -3655.87 0 0 3655.87 0 0 -9285.57 0 0 9285.57 0 0 352.473 0 0 -352.473
0 0 3398.97 0 0 -3398.97 0 0 -7845.47 0 0 7845.47 0 0 240.421 0 0 -240.421 0 0 -4801.41 0 0 4801.41 0 0 -7302.38 0 0 7302.38 0 0 264.426 0 0 -264.426
0 0 2269.4 0 0 -2269.4 0 0 -5911.07 0 0 5911.07 0 0 148.002 0 0 -148.002 0 0 -5973.88 0 0 5973.88 0 0 -5290.56 0 0 5290.56 0 0 163.79 0 0 -163.79
0 0 1165.78 0 0 -1165.78 0 0 -3990.44 0 0 3990.44 0 0 49.2245 0 0 -49.2245 0 0 -7118.08 0 0 7118.08 0 0 -3293.07 0 0 3293.07 0 0 57.6037 0 0 -57.6037
0 0 134.335 0 0 -134.335 0 0 -2123.36 0 0 2123.36 0 0 -50.3976 0 0 50.3976 0 0 -8184.07 0 0 8184.07 0 0 -1351.57 0 0 1351.57 0 0 -47.4556 0 0 47.4556
0 0 -746.345 0 0 746.345 0 0 -359.126 0 0 359.126 0 0 -139.906 0 0 139.906 0 0 -9105.42 0 0 9105.42 0 0 264.707 0 0 -264.707 0 0 -128.955 0 0 128.955
0 0 -1435.36 0 0 1435.36 0 0 1040.04 0 0 -1040.04 0 0 -207.477 0 0 207.477 0 0 -9722.78 0 0 9722.78 0 0 1668.58 0 0 -1668.58 0 0 -202.604 0 0 202.604
0 0 -1946.87 0 0 1946.87 0 0 2342.89 0 0 -2342.89 0 0 -260.047 0 0 260.047 0 0 -10238.1 0 0 10238.1 0 0 2851.59 0 0 -2851.59 0 0 -256.243 0 0 256.243
0 0 -2278.92 0 0 2278.92 0 0 3507.38 0 0 -3507.38 0 0 -296.488 0 0 296.488 0 0 -10536.5 0 0 10536.5 0 0 3943.86 0 0 -3943.86 0 0 -296.055 0 0 296.055
0 0 -2415.65 0 0 2415.65 0 0 4532.14 0 0 -4532.14 0 0 -316.554 0 0 316.554 0 0 -10273.2 0 0 10273.2 0 0 4984.29 0 0 -4984.29 0 0 -322.766 0 0 322.766
0 0 -2366.27 0 0 2366.27 0 0 5449.8 0 0 -5449.8 0 0 -319.96 0 0 319.96 0 0 -8921.55 0 0 8921.55 0 0 6103.77 0 0 -6103.77 0 0 -337.97 0 0 337.97
0 0 -2117.07 0 0 2117.07 0 0 6174.14 0 0 -6174.14 0 0 -301.79 0 0 301.79 0 0 -7781.87 0 0 7781.87 0 0 6988.42 0 0 -6988.42 0 0 -312.342 0 0 312.342
0 0 -1652.64 0 0 1652.64 0 0 6762.15 0 0 -6762.15 0 0 -252.921 0 0 252.921 0 0 -6335.52 0 0 6335.52 0 0 7746.4 0 0 -7746.4 0 0 -288.177 0 0 288.177
0 0 -999.751 0 0 999.751 0 0 7189.94 0 0 -7189.94 0 0 -183.012 0 0 183.012 0 0 -4738.2 0 0 4738.2 0 0 8345.59 0 0 -8345.59 0 0 -212.248 0 0 212.248
0 0 -184.208 0 0 184.208 0 0 7461.26 0 0 -7461.26 0 0 -82.5543 0 0 82.5543 0 0 -2980.04 0 0 2980.04 0 0 8811.73 0 0 -8811.73 0 0 -131.126 0 0 131.126
0 0 669.358 0 0 -669.358 0 0 7624.75 0 0 -7624.75 0 0 32.8101 0 0 -32.8101 0 0 -1074.75 0 0 1074.75 0 0 9138.74 0 0 -9138.74 0 0 -12.6484 0 0 12.6484
0 0 1663.74 0 0 -1663.74 0 0 7691.58 0 0 -7691.58 0 0 140.23 0 0 -140.23 0 0 725.26 0 0 -725.26 0 0 9375.68 0 0 -9375.68 0 0 103.441 0 0 -103.441
0 0 2766.96 0 0 -2766.96 0 0 7658.38 0 0 -7658.38 0 0 256.932 0 0 -256.932 0 0 2529.97 0 0 -2529.97 0 0 9536.71 0 0 -9536.71 0 0 218.573 0 0 -218.573
0 0 3943.49 0 0 -3943.49 0 0 7506.25 0 0 -7506.25 0 0 386.247 0 0 -386.247 0 0 4365.17 0 0 -4365.17 0 0 9599.42 0 0 -9599.42 0 0 352.455 0 0 -352.455
0 0 5188.17 0 0 -5188.17 0 0 7281.64 0 0 -7281.64 0 0 527.312 0 0 -527.312 0 0 6277.61 0 0 -6277.61 0 0 9594.33 0 0 -9594.33 0 0 491.619 0 0 -491.619
0 0 6483.42 0 0 -6483.42 0 0 7008.82 0 0 -7008.82 0 0 677.082 0 0 -677.082 0 0 8201.97 0 0 -8201.97 0 0 9522.83 0 0 -9522.83 0 0 641.967 0 0 -641.967
0 0 7787.53 0 0 -7787.53 0 0 6707.84 0 0 -6707.84 0 0 832.327 0 0 -832.327 0 0 10121.4 0 0 -10121.4 0 0 9417.18 0 0 -9417.18 0 0 794.204 0 0 -794.204
0 0 9064.32 0 0 -9064.32 0 0 6399.69 0 0 -6399.69 0 0 987.976 0 0 -987.976 0 0 12009.4 0 0 -12009.4 0 0 9304.95 0 0 -9304.95 0 0 952.094 0 0 -952.094
0 0 10294.6 0 0 -10294.6 0 0 6113.89 0 0 -6113.89 0 0 1142.12 0 0 -1142.12 0 0 13838.9 0 0 -13838.9 0 0 9212.26 0 0 -9212.26 0 0 1107.79 0 0 -1107.79
0 0 11460.3 0 0 -11460.3 0 0 5876.86 0 0 -5876.86 0 0 1292.85 0 0 -1292.85 0 0 15588.9 0 0 -15588.9 0 0 9163.43 0 0 -9163.43 0 0 1260.3 0 0 -1260.3
0 0 12536.9 0 0 -12536.9 0 0 5705.81 0 0 -5705.81 0 0 1438.38 0 0 -1438.38 0 0 17242.5 0 0 -17242.5 0 0 9182.76 0 0 -9182.76 0 0 1405.49 0 0 -1405.49
0 0 13502.4 0 0 -13502.4 0 0 5617.28 0 0 -5617.28 0 0 1575.88 0 0 -1575.88 0 0 18783.7 0 0 -18783.7 0 0 9290.62 0 0 -9290.62 0 0 1541.52 0 0 -1541.52
0 0 14341.2 0 0 -14341.2 0 0 5629.84 0 0 -5629.84 0 0 1702.52 0 0 -1702.52 0 0 20195.1 0 0 -20195.1 0 0 9504.5 0 0 -9504.5 0 0 1666.38 0 0 -1666.38
0 0 15039.1 0 0 -15039.1 0 0 5755.91 0 0 -5755.91 0 0 1816.2 0 0 -1816.2 0 0 21468.8 0 0 -21468.8 0 0 9769.19 0 0 -9769.19 0 0 1783.3 0 0 -1783.3
0 0 15580.4 0 0 -15580.4 0 0 5998.42 0 0 -5998.42 0 0 1917.98 0 0 -1917.98 0 0 22585.1 0 0 -22585.1 0 0 10134.2 0 0 -10134.2 0 0 1880.84 0 0 -1880.84
0 0 15946.8 0 0 -15946.8 0 0 6377.12 0 0 -6377.12 0 0 2005.12 0 0 -2005.12 0 0 23525.7 0 0 -23525.7 0 0 10599.7 0 0 -10599.7 0 0 1969.88 0 0 -1969.88
0 0 16131.5 0 0 -16131.5 0 0 6891.57 0 0 -6891.57 0 0 2078.88 0 0 -2078.88 0 0 24279 0 0 -24279 0 0 11182.2 0 0 -11182.2 0 0 2040.87 0 0 -2040.87
0 0 16129.7 0 0 -16129.7 0 0 7544.53 0 0 -7544.53 0 0 2138.19 0 0 -2138.19 0 0 24844.9 0 0 -24844.9 0 0 11875.4 0 0 -11875.4 0 0 2098.55 0 0 -2098.55
0 0 15958.3 0 0 -15958.3 0 0 8239.65 0 0 -8239.65 0 0 2184.88 0 0 -2184.88 0 0 25236.4 0 0 -25236.4 0 0 12669.2 0 0 -12669.2 0 0 2141.63 0 0 -2141.63
0 0 15634.9 0 0 -15634.9 0 0 9042.73 0 0 -9042.73 0 0 2221.17 0 0 -2221.17 0 0 25475.9 0 0 -25475.9 0 0 13552.4 0 0 -13552.4 0 0 2175.46 0 0 -2175.46
0 0 15173.4 0 0 -15173.4 0 0 9938.96 0 0 -9938.96 0 0 2245.42 0 0 -2245.42 0 0 25585.5 0 0 -25585.5 0 0 14520 0 0 -14520 0 0 2194.78 0 0 -2194.78
0 0 14594.1 0 0 -14594.1 0 0 10905.4 0 0 -10905.4 0 0 2261.16 0 0 -2261.16 0 0 25591.9 0 0 -25591.9 0 0 15552.3 0 0 -15552.3 0 0 2206.99 0 0 -2206.99
0 0 13931 0 0 -13931 0 0 11925.7 0 0 -11925.7 0 0 2270.15 0 0 -2270.15 0 0 25508.9 0 0 -25508.9 0 0 16636.5 0 0 -16636.5 0 0 2209.68 0 0 -2209.68
0 0 13216 0 0 -13216 0 0 12984.2 0 0 -12984.2 0 0 2273.15 0 0 -2273.15 0 0 25361.5 0 0 -25361.5 0 0 17753.1 0 0 -17753.1 0 0 2206.58 0 0 -2206.58
0 0 12473.4 0 0 -12473.4 0 0 14058.6 0 0 -14058.6 0 0 2273.29 0 0 -2273.29 0 0 25178.7 0 0 -25178.7 0 0 18882 0 0 -18882 0 0 2201.11 0 0 -2201.11
0 0 11728.3 0 0 -11728.3 0 0 15125.2 0 0 -15125.2 0 0 2273.82 0 0 -2273.82 0 0 24989.2 0 0 -24989.2 0 0 20003.3 0 0 -20003.3 0 0 2196.66 0 0 -2196.66
0 0 11009.3 0 0 -11009.3 0 0 16163.7 0 0 -16163.7 0 0 2278.34 0 0 -2278.34 0 0 24819 0 0 -24819 0 0 21097.8 0 0 -21097.8 0 0 2196.24 0 0 -2196.24
0 0 10339.9 0 0 -10339.9 0 0 17156.5 0 0 -17156.5 0 0 2290.22 0 0 -2290.22 0 0 24687.2 0 0 -24687.2 0 0 22147.3 0 0 -22147.3 0 0 2202.81 0 0 -2202.81
0 0 9736 0 0 -9736 0 0 18087.1 0 0 -18087.1 0 0 2312.22 0 0 -2312.22 0 0 24607.7 0 0 -24607.7 0 0 23135.4 0 0 -23135.4 0 0 2219.37 0 0 -2219.37
0 0 9211.54 0 0 -9211.54 0 0 18940.8 0 0 -18940.8 0 0 2342.16 0 0 -2342.16 0 0 24592.2 0 0 -24592.2 0 0 24047.2 0 0 -24047.2 0 0 2247.15 0 0 -2247.15
0 0 8782.41 0 0 -8782.41 0 0 19704.3 0 0 -19704.3 0 0 2382.05 0 0 -2382.05 0 0 24653.4 0 0 -24653.4 0 0 24869.7 0 0 -24869.7 0 0 2287.66 0 0 -2287.66
0 0 8464.81 0 0 -8464.81 0 0 20366 0 0 -20366 0 0 2431.15 0 0 -2431.15 0 0 24806.1 0 0 -24806.1 0 0 25591.8 0 0 -25591.8 0 0 2335.9 0 0 -2335.9
0 0 8272.84 0 0 -8272.84 0 0 20914.2 0 0 -20914.2 0 0 2493.9 0 0 -2493.9 0 0 25065 0 0 -25065 0 0 26204.4 0 0 -26204.4 0 0 2397.49 0 0 -2397.49
0 0 8216.49 0 0 -8216.49 0 0 21342.2 0 0 -21342.2 0 0 2570.14 0 0 -2570.14 0 0 25442.7 0 0 -25442.7 0 0 26698.9 0 0 -26698.9 0 0 2473.71 0 0 -2473.71
0 0 8301.86 0 0 -8301.86 0 0 21646 0 0 -21646 0 0 2660.49 0 0 -2660.49 0 0 25871 0 0 -25871 0 0 27081.4 0 0 -27081.4 0 0 2563.08 0 0 -2563.08
0 0 8526.89 0 0 -8526.89 0 0 21827.6 0 0 -21827.6 0 0 2763.76 0 0 -2763.76 0 0 26395.2 0 0 -26395.2 0 0 27346.8 0 0 -27346.8 0 0 2667.38 0 0 -2667.38
0 0 8884.56 0 0 -8884.56 0 0 21887.6 0 0 -21887.6 0 0 2879.22 0 0 -2879.22 0 0 27009.6 0 0 -27009.6 0 0 27498.1 0 0 -27498.1 0 0 2784.45 0 0 -2784.45
0 0 9362.48 0 0 -9362.48 0 0 21826.4 0 0 -21826.4 0 0 3006.2 0 0 -3006.2 0 0 27705.9 0 0 -27705.9 0 0 27539.1 0 0 -27539.1 0 0 2913.35 0 0 -2913.35
0 0 9944.05 0 0 -9944.05 0 0 21649.7 0 0 -21649.7 0 0 3143.21 0 0 -3143.21 0 0 28466.4 0 0 -28466.4 0 0 27453.3 0 0 -27453.3 0 0 3054.59 0 0 -3054.59
0 0 10607.5 0 0 -10607.5 0 0 21371.3 0 0 -21371.3 0 0 3289.03 0 0 -3289.03 0 0 29271.6 0 0 -29271.6 0 0 27256.6 0 0 -27256.6 0 0 3203.24 0 0 -3203.24
0 0 11328.8 0 0 -11328.8 0 0 21009.4 0 0 -21009.4 0 0 3440.67 0 0 -3440.67 0 0 30100.5 0 0 -30100.5 0 0 26961.9 0 0 -26961.9 0 0 3359.73 0 0 -3359.73
0 0 12086.2 0 0 -12086.2 0 0 20581.5 0 0 -20581.5 0 0 3595.65 0 0 -3595.65 0 0 30933.3 0 0 -30933.3 0 0 26589.2 0 0 -26589.2 0 0 3519.69 0 0 -3519.69
0 0 12860.5 0 0 -12860.5 0 0 20106.6 0 0 -20106.6 0 0 3751.23 0 0 -3751.23 0 0 31755 0 0 -31755 0 0 26157.5 0 0 -26157.5 0 0 3681.12 0 0 -3681.12
0 0 13634.2 0 0 -13634.2 0 0 19602.5 0 0 -19602.5 0 0 3904.75 0 0 -3904.75 0 0 32552.6 0 0 -32552.6 0 0 25685.9 0 0 -25685.9 0 0 3840.82 0 0 -3840.82
0 0 14391 0 0 -14391 0 0 19086.7 0 0 -19086.7 0 0 4053.58 0 0 -4053.58 0 0 33315.2 0 0 -33315.2 0 0 25194.4 0 0 -25194.4 0 0 3995.76 0 0 -3995.76
0 0 15116.3 0 0 -15116.3 0 0 18576.1 0 0 -18576.1 0 0 4194.98 0 0 -4194.98 0 0 34033.3 0 0 -34033.3 0 0 24701.4 0 0 -24701.4 0 0 4143.13 0 0 -4143.13
0 0 15797.6 0 0 -15797.6 0 0 18086.6 0 0 -18086.6 0 0 4326.33 0 0 -4326.33 0 0 34699.9 0 0 -34699.9 0 0 24225.1 0 0 -24225.1 0 0 4280.08 0 0 -4280.08
0 0 16376.7 0 0 -16376.7 0 0 17643.9 0 0 -17643.9 0 0 4444.33 0 0 -4444.33 0 0 35310.7 0 0 -35310.7 0 0 23782 0 0 -23782 0 0 4404.18 0 0 -4404.18
0 0 16883.5 0 0 -16883.5 0 0 17258.8 0 0 -17258.8 0 0 4548.31 0 0 -4548.31 0 0 35863.4 0 0 -35863.4 0 0 23389.1 0 0 -23389.1 0 0 4512.83 0 0 -4512.83
0 0 17336.8 0 0 -17336.8 0 0 16932.3 0 0 -16932.3 0 0 4635.69 0 0 -4635.69 0 0 36358.7 0 0 -36358.7 0 0 23054.2 0 0 -23054.2 0 0 4604.09 0 0 -4604.09
0 0 17721.5 0 0 -17721.5 0 0 16663.3 0 0 -16663.3 0 0 4705.04 0 0 -4705.04 0 0 36799.2 0 0 -36799.2 0 0 22787.9 0 0 -22787.9 0 0 4676.45 0 0 -4676.45
0 0 18039.7 0 0 -18039.7 0 0 16462.3 0 0 -16462.3 0 0 4755.23 0 0 -4755.23 0 0 37184.6 0 0 -37184.6 0 0 22598.9 0 0 -22598.9 0 0 4728.6 0 0 -4728.6
0 0 18295.4 0 0 -18295.4 0 0 16341.1 0 0 -16341.1 0 0 4785.07 0 0 -4785.07 0 0 37512.4 0 0 -37512.4 0 0 22495.3 0 0 -22495.3 0 0 4759.41 0 0 -4759.41
0 0 18480.5 0 0 -18480.5 0 0 16302.7 0 0 -16302.7 0 0 4794.12 0 0 -4794.12 0 0 37778 0 0 -37778 0 0 22482.3 0 0 -22482.3 0 0 4768.08 0 0 -4768.08
0 0 18583.6 0 0 -18583.6 0 0 16348.1 0 0 -16348.1 0 0 4777.35 0 0 -4777.35 0 0 37975.2 0 0 -37975.2 0 0 22564.3 0 0 -22564.3 0 0 4749.96 0 0 -4749.96
0 0 18598.1 0 0 -18598.1 0 0 16481.1 0 0 -16481.1 0 0 4732.71 0 0 -4732.71 0 0 38095.2 0 0 -38095.2 0 0 22743.9 0 0 -22743.9 0 0 4702.11 0 0 -4702.11
0 0 18512.5 0 0 -18512.5 0 0 16707.8 0 0 -16707.8 0 0 4660.08 0 0 -4660.08 0 0 38129 0 0 -38129 0 0 23020 0 0 -23020 0 0 4627.01 0 0 -4627.01
0 0 18319.7 0 0 -18319.7 0 0 17027.5 0 0 -17027.5 0 0 4560.97 0 0 -4560.97 0 0 38050.7 0 0 -38050.7 0 0 23393.3 0 0 -23393.3 0 0 4525.13 0 0 -4525.13
0 0 18012.4 0 0 -18012.4 0 0 17435.2 0 0 -17435.2 0 0 4437.56 0 0 -4437.56 0 0 37847.9 0 0 -37847.9 0 0 23857.1 0 0 -23857.1 0 0 4398.64 0 0 -4398.64
0 0 17587.5 0 0 -17587.5 0 0 17923.6 0 0 -17923.6 0 0 4292.62 0 0 -4292.62 0 0 37510.1 0 0 -37510.1 0 0 24403.8 0 0 -24403.8 0 0 4249.67 0 0 -4249.67
0 0 17047.7 0 0 -17047.7 0 0 18484.5 0 0 -18484.5 0 0 4128.91 0 0 -4128.91 0 0 37031.1 0 0 -37031.1 0 0 25020.5 0 0 -25020.5 0 0 4081.54 0 0 -4081.54
0 0 16398.4 0 0 -16398.4 0 0 19105.4 0 0 -19105.4 0 0 3949.62 0 0 -3949.62 0 0 36408.9 0 0 -36408.9 0 0 25691.8 0 0 -25691.8 0 0 3897.94 0 0 -3897.94
0 0 15649.1 0 0 -15649.1 0 0 19769.6 0 0 -19769.6 0 0 3758.59 0 0 -3758.59 0 0 35647.9 0 0 -35647.9 0 0 26399.1 0 0 -26399.1 0 0 3703.02 0 0 -3703.02
0 0 14814.2 0 0 -14814.2 0 0 20457.4 0 0 -20457.4 0 0 3560.24 0 0 -3560.24 0 0 34757.3 0 0 -34757.3 0 0 27119.4 0 0 -27119.4 0 0 3501.19 0 0 -3501.19
0 0 13913 0 0 -13913 0 0 21144.3 0 0 -21144.3 0 0 3359.21 0 0 -3359.21 0 0 33755.3 0 0 -33755.3 0 0 27721.3 0 0 -27721.3 0 0 3305.18 0 0 -3305.18
0 0 12973 0 0 -12973 0 0 21787.7 0 0 -21787.7 0 0 3163.73 0 0 -3163.73 0 0 32655 0 0 -32655 0 0 28259.4 0 0 -28259.4 0 0 3105.69 0 0 -3105.69
0 0 12022.2 0 0 -12022.2 0 0 22328.2 0 0 -22328.2 0 0 2973.51 0 0 -2973.51 0 0 31462 0 0 -31462 0 0 28715.3 0 0 -28715.3 0 0 2916.94 0 0 -2916.94
0 0 11077.1 0 0 -11077.1 0 0 22814.1 0 0 -22814.1 0 0 2796 0 0 -2796 0 0 30199.5 0 0 -30199.5 0 0 29108.6 0 0 -29108.6 0 0 2739.95 0 0 -2739.95
0 0 10154.3 0 0 -10154.3 0 0 23225.7 0 0 -23225.7 0 0 2631.23 0 0 -2631.23 0 0 28891.8 0 0 -28891.8 0 0 29415.9 0 0 -29415.9 0 0 2575.04 0 0 -2575.04
0 0 9282.61 0 0 -9282.61 0 0 23540 0 0 -23540 0 0 2482 0 0 -2482 0 0 27574.3 0 0 -27574.3 0 0 29616 0 0 -29616 0 0 2431.17 0 0 -2431.17
0 0 8500.15 0 0 -8500.15 0 0 23736.3 0 0 -23736.3 0 0 2353.44 0 0 -2353.44 0 0 26283 0 0 -26283 0 0 29697.5 0 0 -29697.5 0 0 2305.62 0 0 -2305.62
0 0 7840.02 0 0 -7840.02 0 0 23798.7 0 0 -23798.7 0 0 2247.85 0 0 -2247.85 0 0 25062.4 0 0 -25062.4 0 0 29612.2 0 0 -29612.2 0 0 2205.74 0 0 -2205.74
0 0 7332.37 0 0 -7332.37 0 0 23688.9 0 0 -23688.9 0 0 2169.08 0 0 -2169.08 0 0 23952.3 0 0 -23952.3 0 0 29334.2 0 0 -29334.2 0 0 2131.55 0 0 -2131.55
0 0 7001.26 0 0 -7001.26 0 0 23394.1 0 0 -23394.1 0 0 2116.7 0 0 -2116.7 0 0 22983.4 0 0 -22983.4 0 0 28843.9 0 0 -28843.9 0 0 2086.79 0 0 -2086.79
0 0 6862.8 0 0 -6862.8 0 0 22908 0 0 -22908 0 0 2090.75 0 0 -2090.75 0 0 22175.1 0 0 -22175.1 0 0 28142.3 0 0 -28142.3 0 0 2070.32 0 0 -2070.32
0 0 6919.96 0 0 -6919.96 0 0 22232.2 0 0 -22232.2 0 0 2090.62 0 0 -2090.62 0 0 21536.7 0 0 -21536.7 0 0 27232 0 0 -27232 0 0 2081.1 0 0 -2081.1
0 0 7164.46 0 0 -7164.46 0 0 21375.3 0 0 -21375.3 0 0 2114.74 0 0 -2114.74 0 0 21064.9 0 0 -21064.9 0 0 26122.4 0 0 -26122.4 0 0 2117.05 0 0 -2117.05
0 0 7579.11 0 0 -7579.11 0 0 20354.1 0 0 -20354.1 0 0 2160.18 0 0 -2160.18 0 0 20743 0 0 -20743 0 0 24831.8 0 0 -24831.8 0 0 2174.91 0 0 -2174.91
0 0 8138.38 0 0 -8138.38 0 0 19191.4 0 0 -19191.4 0 0 2222.66 0 0 -2222.66 0 0 20544.1 0 0 -20544.1 0 0 23383.7 0 0 -23383.7 0 0 2250.98 0 0 -2250.98
0 0 8809.74 0 0 -8809.74 0 0 17913.6 0 0 -17913.6 0 0 2297.41 0 0 -2297.41 0 0 20434.8 0 0 -20434.8 0 0 21806.9 0 0 -21806.9 0 0 2340.53 0 0 -2340.53
0 0 9556.63 0 0 -9556.63 0 0 16550.9 0 0 -16550.9 0 0 2379.54 0 0 -2379.54 0 0 20378.4 0 0 -20378.4 0 0 20133.7 0 0 -20133.7 0 0 2438.3 0 0 -2438.3
0 0 10342.1 0 0 -10342.1 0 0 15135.5 0 0 -15135.5 0 0 2463.9 0 0 -2463.9 0 0 20338 0 0 -20338 0 0 18397.3 0 0 -18397.3 0 0 2538.66 0 0 -2538.66
0 0 11130.6 0 0 -11130.6 0 0 13699.7 0 0 -13699.7 0 0 2545.02 0 0 -2545.02 0 0 20278.6 0 0 -20278.6 0 0 16633.1 0 0 -16633.1 0 0 2635.8 0 0 -2635.8
0 0 11887.8 0 0 -11887.8 0 0 12275.1 0 0 -12275.1 0 0 2617.22 0 0 -2617.22 0 0 20168.7 0 0 -20168.7 0 0 14875.1 0 0 -14875.1 0 0 2724.12 0 0 -2724.12
0 0 12582 0 0 -12582 0 0 10891.3 0 0 -10891.3 0 0 2675.09 0 0 -2675.09 0 0 19979.7 0 0 -19979.7 0 0 13156.5 0 0 -13156.5 0 0 2798.15 0 0 -2798.15
0 0 13184.6 0 0 -13184.6 0 0 9576.5 0 0 -9576.5 0 0 2713.71 0 0 -2713.71 0 0 19686.9 0 0 -19686.9 0 0 11508.2 0 0 -11508.2 0 0 2852.75 0 0 -2852.75
0 0 13670.9 0 0 -13670.9 0 0 8355.8 0 0 -8355.8 0 0 2728.76 0 0 -2728.76 0 0 19268.8 0 0 -19268.8 0 0 9957.6 0 0 -9957.6 0 0 2883.27 0 0 -2883.27
0 0 14019.4 0 0 -14019.4 0 0 7250.75 0 0 -7250.75 0 0 2716.47 0 0 -2716.47 0 0 18707.4 0 0 -18707.4 0 0 8529.15 0 0 -8529.15 0 0 2885.69 0 0 -2885.69
0 0 14212.8 0 0 -14212.8 0 0 6279.03 0 0 -6279.03 0 0 2673.72 0 0 -2673.72 0 0 17988.6 0 0 -17988.6 0 0 7242.5 0 0 -7242.5 0 0 2856.81 0 0 -2856.81
0 0 14238.4 0 0 -14238.4 0 0 5453.85 0 0 -5453.85 0 0 2598.16 0 0 -2598.16 0 0 17101.8 0 0 -17101.8 0 0 6112.47 0 0 -6112.47 0 0 2794.3 0 0 -2794.3
0 0 14087.8 0 0 -14087.8 0 0 4784.04 0 0 -4784.04 0 0 2488.41 0 0 -2488.41 0 0 16040.6 0 0 -16040.6 0 0 5149.28 0 0 -5149.28 0 0 2696.69 0 0 -2696.69
0 0 13757.6 0 0 -13757.6 0 0 4273.5 0 0 -4273.5 0 0 2344.03 0 0 -2344.03 0 0 14802.4 0 0 -14802.4 0 0 4356.75 0 0 -4356.75 0 0 2563.52 0 0 -2563.52
0 0 13249 0 0 -13249 0 0 3921.09 0 0 -3921.09 0 0 2165.54 0 0 -2165.54 0 0 13388.2 0 0 -13388.2 0 0 3734.25 0 0 -3734.25 0 0 2395.21 0 0 -2395.21
0 0 12568.1 0 0 -12568.1 0 0 3720.96 0 0 -3720.96 0 0 1954.32 0 0 -1954.32 0 0 11803.9 0 0 -11803.9 0 0 3275.26 0 0 -3275.26 0 0 2193.2 0 0 -2193.2
0 0 11726.6 0 0 -11726.6 0 0 3662.15 0 0 -3662.15 0 0 1712.64 0 0 -1712.64 0 0 10060 0 0 -10060 0 0 2967.53 0 0 -2967.53 0 0 1959.87 0 0 -1959.87
0 0 10742.3 0 0 -10742.3 0 0 3728.94 0 0 -3728.94 0 0 1443.62 0 0 -1443.62 0 0 8173.54 0 0 -8173.54 0 0 2794.52 0 0 -2794.52 0 0 1698.42 0 0 -1698.42
0 0 9638.56 0 0 -9638.56 0 0 3901.01 0 0 -3901.01 0 0 1151.14 0 0 -1151.14 0 0 6167.68 0 0 -6167.68 0 0 2733.9 0 0 -2733.9 0 0 1412.91 0 0 -1412.91
0 0 8442.94 0 0 -8442.94 0 0 4154.2 0 0 -4154.2 0 0 839.711 0 0 -839.711 0 0 4070.18 0 0 -4070.18 0 0 2760.23 0 0 -2760.23 0 0 1107.91 0 0 -1107.91
0 0 7184.33 0 0 -7184.33 0 0 4462.39 0 0 -4462.39 0 0 514.303 0 0 -514.303 0 0 1909.27 0 0 -1909.27 0 0 2845.63 0 0 -2845.63 0 0 788.552 0 0 -788.552
0 0 5890.16 0 0 -5890.16 0 0 4798.82 0 0 -4798.82 0 0 180.106 0 0 -180.106 0 0 -179.906 0 0 179.906 0 0 2951.86 0 0 -2951.86 0 0 460.693 0 0 -460.693
0 0 4588.21 0 0 -4588.21 0 0 5128.58 0 0 -5128.58 0 0 -149.809 0 0 149.809 0 0 -2012.08 0 0 2012.08 0 0 3001.94 0 0 -3001.94 0 0 134.44 0 0 -134.44
0 0 3305 0 0 -3305 0 0 5428.9 0 0 -5428.9 0 0 -415.344 0 0 415.344 0 0 -3829.04 0 0 3829.04 0 0 3044.72 0 0 -3044.72 0 0 -156.873 0 0 156.873
0 0 2053.04 0 0 -2053.04 0 0 5688.19 0 0 -5688.19 0 0 -675.879 0 0 675.879 0 0 -5638.96 0 0 5638.96 0 0 3018.47 0 0 -3018.47 0 0 -407.547 0 0 407.547
0 0 854.366 0 0 -854.366 0 0 5878.57 0 0 -5878.57 0 0 -925.34 0 0 925.34 0 0 -7420.61 0 0 7420.61 0 0 2928.74 0 0 -2928.74 0 0 -672.228 0 0 672.228
0 0 -178.768 0 0 178.768 0 0 6005.41 0 0 -6005.41 0 0 -1168.74 0 0 1168.74 0 0 -8599.55 0 0 8599.55 0 0 3054.25 0 0 -3054.25 0 0 -936.772 0 0 936.772
0 0 -1142.33 0 0 1142.33 0 0 6057.27 0 0 -6057.27 0 0 -1408.16 0 0 1408.16 0 0 -9338.04 0 0 9338.04 0 0 3082.79 0 0 -3082.79 0 0 -1162.31 0 0 1162.31
0 0 -1997.78 0 0 1997.78 0 0 5921.11 0 0 -5921.11 0 0 -1623.33 0 0 1623.33 0 0 -10354.8 0 0 10354.8 0 0 2939.03 0 0 -2939.03 0 0 -1386.57 0 0 1386.57
0 0 -2697.27 0 0 2697.27 0 0 5691.95 0 0 -5691.95 0 0 -1815.13 0 0 1815.13 0 0 -11063.6 0 0 11063.6 0 0 2702.97 0 0 -2702.97 0 0 -1592.79 0 0 1592.79
0 0 -3269.45 0 0 3269.45 0 0 5316.59 0 0 -5316.59 0 0 -1985.36 0 0 1985.36 0 0 -11662.4 0 0 11662.4 0 0 2289.97 0 0 -2289.97 0 0 -1757.96 0 0 1757.96
0 0 -3724.07 0 0 3724.07 0 0 4756.22 0 0 -4756.22 0 0 -2125.2 0 0 2125.2 0 0 -12185.9 0 0 12185.9 0 0 1719.01 0 0 -1719.01 0 0 -1918.55 0 0 1918.55
0 0 -4040.37 0 0 4040.37 0 0 4049.48 0 0 -4049.48 0 0 -2245.06 0 0 2245.06 0 0 -12506.2 0 0 12506.2 0 0 977.278 0 0 -977.278 0 0 -2036 0 0 2036
0 0 -4204.18 0 0 4204.18 0 0 3182.26 0 0 -3182.26 0 0 -2340.83 0 0 2340.83 0 0 -12710.3 0 0 12710.3 0 0 65.7798 0 0 -65.7798 0 0 -2130.29 0 0 2130.29
0 0 -4224.38 0 0 4224.38 0 0 2163.47 0 0 -2163.47 0 0 -2410.02 0 0 2410.02 0 0 -12828.2 0 0 12828.2 0 0 -781.568 0 0 781.568 0 0 -2209.66 0 0 2209.66
0 0 -4100.46 0 0 4100.46 0 0 987.911 0 0 -987.911 0 0 -2456.31 0 0 2456.31 0 0 -12794.3 0 0 12794.3 0 0 -1801.38 0 0 1801.38 0 0 -2249.54 0 0 2249.54
0 0 -3835.68 0 0 3835.68 0 0 -271.103 0 0 271.103 0 0 -2476.62 0 0 2476.62 0 0 -12605 0 0 12605 0 0 -2943.04 0 0 2943.04 0 0 -2281.57 0 0 2281.57
0 0 -3453.03 0 0 3453.03 0 0 -1651.14 0 0 1651.14 0 0 -2472.92 0 0 2472.92 0 0 -12288.1 0 0 12288.1 0 0 -4203.13 0 0 4203.13 0 0 -2275.42 0 0 2275.42
0 0 -2952.2 0 0 2952.2 0 0 -3133.19 0 0 3133.19 0 0 -2444.14 0 0 2444.14 0 0 -11840.4 0 0 11840.4 0 0 -5571.96 0 0 5571.96 0 0 -2249.02 0 0 2249.02
0 0 -2350.95 0 0 2350.95 0 0 -4711.94 0 0 4711.94 0 0 -2393.97 0 0 2393.97 0 0 -11293.1 0 0 11293.1 0 0 -7034.12 0 0 7034.12 0 0 -2197.23 0 0 2197.23
0 0 -1673.33 0 0 1673.33 0 0 -6365.06 0 0 6365.06 0 0 -2323.47 0 0 2323.47 0 0 -10670.8 0 0 10670.8 0 0 -8570.28 0 0 8570.28 0 0 -2129.22 0 0 2129.22
0 0 -948.907 0 0 948.907 0 0 -8073.73 0 0 8073.73 0 0 -2238.95 0 0 2238.95 0 0 -9996.51 0 0 9996.51 0 0 -10161.7 0 0 10161.7 0 0 -2045.45 0 0 2045.45
0 0 -198.93 0 0 198.93 0 0 -9820.08 0 0 9820.08 0 0 -2145.63 0 0 2145.63 0 0 -9293.93 0 0 9293.93 0 0 -11785.3 0 0 11785.3 0 0 -1952.41 0 0 1952.41
0 0 502.89 0 0 -502.89 0 0 -11569.2 0 0 11569.2 0 0 -2049.2 0 0 2049.2 0 0 -8578.72 0 0 8578.72 0 0 -13421.8 0 0 13421.8 0 0 -1854.1 0 0 1854.1
0 0 1209.79 0 0 -1209.79 0 0 -13305.6 0 0 13305.6 0 0 -1951.66 0 0 1951.66 0 0 -7865.58 0 0 7865.58 0 0 -15053.6 0 0 15053.6 0 0 -1756.34 0 0 1756.34
0 0 1901.73 0 0 -1901.73 0 0 -15018.8 0 0 15018.8 0 0 -1857.39 0 0 1857.39 0 0 -7169.37 0 0 7169.37 0 0 -16666.6 0 0 16666.6 0 0 -1662.39 0 0 1662.39
0 0 2553.11 0 0 -2553.11 0 0 -16695.3 0 0 16695.3 0 0 -1771.62 0 0 1771.62 0 0 -6506.35 0 0 6506.35 0 0 -18240 0 0 18240 0 0 -1577.35 0 0 1577.35
0 0 3151.97 0 0 -3151.97 0 0 -18310.1 0 0 18310.1 0 0 -1699.47 0 0 1699.47 0 0 -5901.92 0 0 5901.92 0 0 -19754.2 0 0 19754.2 0 0 -1504.97 0 0 1504.97
0 0 3682.79 0 0 -3682.79 0 0 -19839.5 0 0 19839.5 0 0 -1644.78 0 0 1644.78 0 0 -5380.4 0 0 5380.4 0 0 -21189.4 0 0 21189.4 0 0 -1449.91 0 0 1449.91
0 0 4119.83 0 0 -4119.83 0 0 -21267.8 0 0 21267.8 0 0 -1610.6 0 0 1610.6 0 0 -4964.28 0 0 4964.28 0 0 -22529.1 0 0 22529.1 0 0 -1415.72 0 0 1415.72
0 0 4440.06 0 0 -4440.06 0 0 -22581 0 0 22581 0 0 -1599.79 0 0 1599.79 0 0 -4674.46 0 0 4674.46 0 0 -23757.8 0 0 23757.8 0 0 -1405.69 0 0 1405.69
0 0 4629.59 0 0 -4629.59 0 0 -23764.2 0 0 23764.2 0 0 -1615.22 0 0 1615.22 0 0 -4530.71 0 0 4530.71 0 0 -24862 0 0 24862 0 0 -1422.31 0 0 1422.31
0 0 4676.21 0 0 -4676.21 0 0 -24805.3 0 0 24805.3 0 0 -1659.11 0 0 1659.11 0 0 -4549.91 0 0 4549.91 0 0 -25831.2 0 0 25831.2 0 0 -1467.44 0 0 1467.44
0 0 4554.93 0 0 -4554.93 0 0 -25695.2 0 0 25695.2 0 0 -1732.68 0 0 1732.68 0 0 -4744.35 0 0 4744.35 0 0 -26658.2 0 0 26658.2 0 0 -1542.18 0 0 1542.18
0 0 4255.56 0 0 -4255.56 0 0 -26429.2 0 0 26429.2 0 0 -1836.02 0 0 1836.02 0 0 -5122.97 0 0 5122.97 0 0 -27339.2 0 0 27339.2 0 0 -1646.97 0 0 1646.97
0 0 3775.14 0 0 -3775.14 0 0 -27006.9 0 0 27006.9 0 0 -1968.56 0 0 1968.56 0 0 -5690.84 0 0 5690.84 0 0 -27874.5 0 0 27874.5 0 0 -1781.4 0 0 1781.4
0 0 3114.99 0 0 -3114.99 0 0 -27433.1 0 0 27433.1 0 0 -2129.11 0 0 2129.11 0 0 -6446.24 0 0 6446.24 0 0 -28268.2 0 0 28268.2 0 0 -1944.22 0 0 1944.22
0 0 2283.56 0 0 -2283.56 0 0 -27718.1 0 0 27718.1 0 0 -2315.67 0 0 2315.67 0 0 -7379.9 0 0 7379.9 0 0 -28529.3 0 0 28529.3 0 0 -2133.16 0 0 2133.16
0 0 1299.66 0 0 -1299.66 0 0 -27877.3 0 0 27877.3 0 0 -2525.3 0 0 2525.3 0 0 -8472.26 0 0 8472.26 0 0 -28672.3 0 0 28672.3 0 0 -2345.26 0 0 2345.26
0 0 192.837 0 0 -192.837 0 0 -27932.7 0 0 27932.7 0 0 -2740.11 0 0 2740.11 0 0 -9693.34 0 0 9693.34 0 0 -28717.7 0 0 28717.7 0 0 -2565.38 0 0 2565.38
0 0 -896.039 0 0 896.039 0 0 -27933.5 0 0 27933.5 0 0 -2925.69 0 0 2925.69 0 0 -11004.6 0 0 11004.6 0 0 -28691.6 0 0 28691.6 0 0 -2748.45 0 0 2748.45
0 0 -2047.78 0 0 2047.78 0 0 -27893.6 0 0 27893.6 0 0 -3121.61 0 0 3121.61 0 0 -12366.9 0 0 12366.9 0 0 -28603 0 0 28603 0 0 -2963.8 0 0 2963.8
0 0 -3207.5 0 0 3207.5 0 0 -27828.1 0 0 27828.1 0 0 -3323.64 0 0 3323.64 0 0 -13553.2 0 0 13553.2 0 0 -28528.6 0 0 28528.6 0 0 -3174.88 0 0 3174.88
0 0 -4328.45 0 0 4328.45 0 0 -27768.7 0 0 27768.7 0 0 -3528 0 0 3528 0 0 -14779.2 0 0 14779.2 0 0 -28495.2 0 0 28495.2 0 0 -3389.6 0 0 3389.6
0 0 -5388.71 0 0 5388.71 0 0 -27725.9 0 0 27725.9 0 0 -3732.27 0 0 3732.27 0 0 -15871.8 0 0 15871.8 0 0 -28461.9 0 0 28461.9 0 0 -3602.99 0 0 3602.99
0 0 -6381.9 0 0 6381.9 0 0 -27739.2 0 0 27739.2 0 0 -3932.34 0 0 3932.34 0 0 -16896.9 0 0 16896.9 0 0 -28489.8 0 0 28489.8 0 0 -3804.43 0 0 3804.43
0 0 -7276.44 0 0 7276.44 0 0 -27825.9 0 0 27825.9 0 0 -4121 0 0 4121 0 0 -17837.1 0 0 17837.1 0 0 -28583.8 0 0 28583.8 0 0 -4005.57 0 0 4005.57
0 0 -8048.63 0 0 8048.63 0 0 -27978.4 0 0 27978.4 0 0 -4299.73 0 0 4299.73 0 0 -18642.8 0 0 18642.8 0 0 -28744.7 0 0 28744.7 0 0 -4191.15 0 0 4191.15
0 0 -8697.7 0 0 8697.7 0 0 -28215.3 0 0 28215.3 0 0 -4466 0 0 4466 0 0 -19345.1 0 0 19345.1 0 0 -28975.2 0 0 28975.2 0 0 -4366.38 0 0 4366.38
0 0 -9214.99 0 0 9214.99 0 0 -28554.5 0 0 28554.5 0 0 -4619.01 0 0 4619.01 0 0 -19907.3 0 0 19907.3 0 0 -29289.6 0 0 29289.6 0 0 -4525.1 0 0 4525.1
0 0 -9588.65 0 0 9588.65 0 0 -28998.6 0 0 28998.6 0 0 -4756.43 0 0 4756.43 0 0 -20321.3 0 0 20321.3 0 0 -29703.2 0 0 29703.2 0 0 -4667.24 0 0 4667.24
0 0 -9809.46 0 0 9809.46 0 0 -29552.9 0 0 29552.9 0 0 -4876.22 0 0 4876.22 0 0 -20593.4 0 0 20593.4 0 0 -30219.4 0 0 30219.4 0 0 -4791.52 0 0 4791.52
0 0 -9878.35 0 0 9878.35 0 0 -30219.9 0 0 30219.9 0 0 -4977.51 0 0 4977.51 0 0 -20712.6 0 0 20712.6 0 0 -30837.8 0 0 30837.8 0 0 -4898.3 0 0 4898.3
0 0 -9789.65 0 0 9789.65 0 0 -31002 0 0 31002 0 0 -5060.85 0 0 5060.85 0 0 -20671 0 0 20671 0 0 -31560.4 0 0 31560.4 0 0 -4985.75 0 0 4985.75
0 0 -9546.02 0 0 9546.02 0 0 -31896.2 0 0 31896.2 0 0 -5126.87 0 0 5126.87 0 0 -20469.2 0 0 20469.2 0 0 -32388.9 0 0 32388.9 0 0 -5054.79 0 0 5054.79
0 0 -9154.13 0 0 9154.13 0 0 -32892.7 0 0 32892.7 0 0 -5176.42 0 0 5176.42 0 0 -20111.9 0 0 20111.9 0 0 -33313.6 0 0 33313.6 0 0 -5106.11 0 0 5106.11
0 0 -8627.26 0 0 8627.26 0 0 -33979.3 0 0 33979.3 0 0 -5210.44 0 0 5210.44 0 0 -19611.2 0 0 19611.2 0 0 -34323.7 0 0 34323.7 0 0 -5140.97 0 0 5140.97
0 0 -7983.64 0 0 7983.64 0 0 -35142.8 0 0 35142.8 0 0 -5230.19 0 0 5230.19 0 0 -18988.1 0 0 18988.1 0 0 -35405.8 0 0 35405.8 0 0 -5161.66 0 0 5161.66
0 0 -7243.73 0 0 7243.73 0 0 -36365.5 0 0 36365.5 0 0 -5237.07 0 0 5237.07 0 0 -18261.4 0 0 18261.4 0 0 -36543.3 0 0 36543.3 0 0 -5169.62 0 0 5169.62
0 0 -6491 0 0 6491 0 0 -37212.4 0 0 37212.4 0 0 -5256.25 0 0 5256.25 0 0 -17525.7 0 0 17525.7 0 0 -37228 0 0 37228 0 0 -5196.99 0 0 5196.99
0 0 -5958.91 0 0 5958.91 0 0 -37315 0 0 37315 0 0 -5268.07 0 0 5268.07 0 0 -17103.2 0 0 17103.2 0 0 -37340.2 0 0 37340.2 0 0 -5212.76 0 0 5212.76
0 0 -5463.59 0 0 5463.59 0 0 -37424.2 0 0 37424.2 0 0 -5299.86 0 0 5299.86 0 0 -16529.6 0 0 16529.6 0 0 -37450.7 0 0 37450.7 0 0 -5232.74 0 0 5232.74
0 0 -4741.81 0 0 4741.81 0 0 -37561.2 0 0 37561.2 0 0 -5318.6 0 0 5318.6 0 0 -15780.3 0 0 15780.3 0 0 -37585.3 0 0 37585.3 0 0 -5256.05 0 0 5256.05
0 0 -3955.11 0 0 3955.11 0 0 -37692.6 0 0 37692.6 0 0 -5327.02 0 0 5327.02 0 0 -15060.8 0 0 15060.8 0 0 -37723.3 0 0 37723.3 0 0 -5261.75 0 0 5261.75
0 0 -3261.94 0 0 3261.94 0 0 -37823.9 0 0 37823.9 0 0 -5325.22 0 0 5325.22 0 0 -14347 0 0 14347 0 0 -37857.1 0 0 37857.1 0 0 -5261.84 0 0 5261.84
0 0 -2626.33 0 0 2626.33 0 0 -37952.3 0 0 37952.3 0 0 -5316.01 0 0 5316.01 0 0 -13696.6 0 0 13696.6 0 0 -37987.3 0 0 37987.3 0 0 -5246.98 0 0 5246.98
0 0 -2007.65 0 0 2007.65 0 0 -38074.1 0 0 38074.1 0 0 -5296.9 0 0 5296.9 0 0 -13102.6 0 0 13102.6 0 0 -38111.8 0 0 38111.8 0 0 -5229.04 0 0 5229.04
0 0 -1460.4 0 0 1460.4 0 0 -38190.1 0 0 38190.1 0 0 -5269.46 0 0 5269.46 0 0 -12569.9 0 0 12569.9 0 0 -38230.8 0 0 38230.8 0 0 -5201.29 0 0 5201.29
0 0 -981.56 0 0 981.56 0 0 -38300.7 0 0 38300.7 0 0 -5236.63 0 0 5236.63 0 0 -12087.6 0 0 12087.6 0 0 -38343.5 0 0 38343.5 0 0 -5167.89 0 0 5167.89
0 0 -537.247 0 0 537.247 0 0 -38404.3 0 0 38404.3 0 0 -5200.68 0 0 5200.68 0 0 -11659.3 0 0 11659.3 0 0 -38449.4 0 0 38449.4 0 0 -5129.99 0 0 5129.99
0 0 -143.536 0 0 143.536 0 0 -38500.6 0 0 38500.6 0 0 -5160.75 0 0 5160.75 0 0 -11283.8 0 0 11283.8 0 0 -38547.8 0 0 38547.8 0 0 -5088.66 0 0 5088.66
0 0 166.42 0 0 -166.42 0 0 -38589.1 0 0 38589.1 0 0 -5117.78 0 0 5117.78 0 0 -10961.3 0 0 10961.3 0 0 -38638.4 0 0 38638.4 0 0 -5045.93 0 0 5045.93
0 0 435.778 0 0 -435.778 0 0 -38669 0 0 38669 0 0 -5074.21 0 0 5074.21 0 0 -10684 0 0 10684 0 0 -38720.9 0 0 38720.9 0 0 -5002 0 0 5002
0 0 680.328 0 0 -680.328 0 0 -38741.1 0 0 38741.1 0 0 -5031.56 0 0 5031.56 0 0 -10435.4 0 0 10435.4 0 0 -38795.5 0 0 38795.5 0 0 -4957.9 0 0 4957.9
0 0 905.792 0 0 -905.792 0 0 -38806.2 0 0 38806.2 0 0 -4989.83 0 0 4989.83 0 0 -10196.1 0 0 10196.1 0 0 -38862.4 0 0 38862.4 0 0 -4915.24 0 0 4915.24
0 0 1130.9 0 0 -1130.9 0 0 -38863.8 0 0 38863.8 0 0 -4949.68 0 0 4949.68 0 0 -9956.22 0 0 9956.22 0 0 -38921.8 0 0 38921.8 0 0 -4874.77 0 0 4874.77
0 0 1355.47 0 0 -1355.47 0 0 -38913.6 0 0 38913.6 0 0 -4912.67 0 0 4912.67 0 0 -9717.69 0 0 9717.69 0 0 -38973.3 0 0 38973.3 0 0 -4837.46 0 0 4837.46
0 0 1562.12 0 0 -1562.12 0 0 -38955.2 0 0 38955.2 0 0 -4880.08 0 0 4880.08 0 0 -9492.81 0 0 9492.81 0 0 -39016.4 0 0 39016.4 0 0 -4804.1 0 0 4804.1
0 0 1737.75 0 0 -1737.75 0 0 -38987.8 0 0 38987.8 0 0 -4852.4 0 0 4852.4 0 0 -9299.06 0 0 9299.06 0 0 -39050.1 0 0 39050.1 0 0 -4775.65 0 0 4775.65
0 0 1870.07 0 0 -1870.07 0 0 -39010.5 0 0 39010.5 0 0 -4830.1 0 0 4830.1 0 0 -9154.68 0 0 9154.68 0 0 -39073.8 0 0 39073.8 0 0 -4753.11 0 0 4753.11
0 0 1940.08 0 0 -1940.08 0 0 -39022.9 0 0 39022.9 0 0 -4813.93 0 0 4813.93 0 0 -9078.87 0 0 9078.87 0 0 -39086.6 0 0 39086.6 0 0 -4736.91 0 0 4736.91
0 0 1922.09 0 0 -1922.09 0 0 -39002.5 0 0 39002.5 0 0 -4805.88 0 0 4805.88 0 0 -9096.37 0 0 9096.37 0 0 -39062.7 0 0 39062.7 0 0 -4728.93 0 0 4728.93
0 0 1762.04 0 0 -1762.04 0 0 -38835.7 0 0 38835.7 0 0 -4809.94 0 0 4809.94 0 0 -9271.85 0 0 9271.85 0 0 -38891.1 0 0 38891.1 0 0 -4733.74 0 0 4733.74
0 0 1434.42 0 0 -1434.42 0 0 -38509.8 0 0 38509.8 0 0 -4826.46 0 0 4826.46 0 0 -9620.02 0 0 9620.02 0 0 -38548.6 0 0 38548.6 0 0 -4752.04 0 0 4752.04
0 0 947.521 0 0 -947.521 0 0 -38032.2 0 0 38032.2 0 0 -4853.86 0 0 4853.86 0 0 -10138.2 0 0 10138.2 0 0 -38049.7 0 0 38049.7 0 0 -4780.98 0 0 4780.98
0 0 324.711 0 0 -324.711 0 0 -37421 0 0 37421 0 0 -4888.72 0 0 4888.72 0 0 -10805.4 0 0 10805.4 0 0 -37412.4 0 0 37412.4 0 0 -4818.51 0 0 4818.51
0 0 -368.144 0 0 368.144 0 0 -36716.6 0 0 36716.6 0 0 -4926.38 0 0 4926.38 0 0 -11585.2 0 0 11585.2 0 0 -36669.1 0 0 36669.1 0 0 -4859.65 0 0 4859.65
0 0 -1114.27 0 0 1114.27 0 0 -35954.4 0 0 35954.4 0 0 -4962.94 0 0 4962.94 0 0 -12434.2 0 0 12434.2 0 0 -35855.3 0 0 35855.3 0 0 -4899.52 0 0 4899.52
0 0 -1883.81 0 0 1883.81 0 0 -35155.3 0 0 35155.3 0 0 -4993.4 0 0 4993.4 0 0 -13311.8 0 0 13311.8 0 0 -35004.2 0 0 35004.2 0 0 -4933.64 0 0 4933.64
0 0 -2640.35 0 0 2640.35 0 0 -34350.3 0 0 34350.3 0 0 -5013.08 0 0 5013.08 0 0 -14179.4 0 0 14179.4 0 0 -34150.2 0 0 34150.2 0 0 -4956.96 0 0 4956.96
0 0 -3362.17 0 0 3362.17 0 0 -33576.4 0 0 33576.4 0 0 -5017.32 0 0 5017.32 0 0 -15001.1 0 0 15001.1 0 0 -33327.1 0 0 33327.1 0 0 -4964.68 0 0 4964.68
0 0 -4018.38 0 0 4018.38 0 0 -32859.6 0 0 32859.6 0 0 -5002.27 0 0 5002.27 0 0 -15745.7 0 0 15745.7 0 0 -32565.1 0 0 32565.1 0 0 -4952.67 0 0 4952.67
0 0 -4581.22 0 0 4581.22 0 0 -32223.1 0 0 32223.1 0 0 -4964.65 0 0 4964.65 0 0 -16385.7 0 0 16385.7 0 0 -31890.9 0 0 31890.9 0 0 -4917.44 0 0 4917.44
0 0 -5031.54 0 0 5031.54 0 0 -31691.5 0 0 31691.5 0 0 -4901.76 0 0 4901.76 0 0 -16894.5 0 0 16894.5 0 0 -31328.4 0 0 31328.4 0 0 -4856.3 0 0 4856.3
0 0 -5348.12 0 0 5348.12 0 0 -31283.2 0 0 31283.2 0 0 -4811.96 0 0 4811.96 0 0 -17247.7 0 0 17247.7 0 0 -30897.2 0 0 30897.2 0 0 -4767.55 0 0 4767.55
0 0 -5510.44 0 0 5510.44 0 0 -31010.5 0 0 31010.5 0 0 -4694.76 0 0 4694.76 0 0 -17424.6 0 0 17424.6 0 0 -30612 0 0 30612 0 0 -4650.57 0 0 4650.57
0 0 -5501.4 0 0 5501.4 0 0 -30882.8 0 0 30882.8 0 0 -4550.75 0 0 4550.75 0 0 -17407.5 0 0 17407.5 0 0 -30481.5 0 0 30481.5 0 0 -4505.9 0 0 4505.9
0 0 -5300.92 0 0 5300.92 0 0 -30906 0 0 30906 0 0 -4381.64 0 0 4381.64 0 0 -17183.9 0 0 17183.9 0 0 -30509 0 0 30509 0 0 -4335.34 0 0 4335.34
0 0 -4906.18 0 0 4906.18 0 0 -31075.6 0 0 31075.6 0 0 -4190.51 0 0 4190.51 0 0 -16750 0 0 16750 0 0 -30689.1 0 0 30689.1 0 0 -4142.04 0 0 4142.04
0 0 -4327.86 0 0 4327.86 0 0 -31375.4 0 0 31375.4 0 0 -3981.88 0 0 3981.88 0 0 -16119.4 0 0 16119.4 0 0 -31005.5 0 0 31005.5 0 0 -3930.63 0 0 3930.63
