0 0 1094.58 0 0 -1094.58 0 0 1024.98 0 0 -1024.98 0 0 37.0284 0 0 -37.0284
0 0 1104.35 0 0 -1104.35 0 0 1023.63 0 0 -1023.63 0 0 37.0873 0 0 -37.0873
0 0 1126.8 0 0 -1126.8 0 0 1020.76 0 0 -1020.76 0 0 37.2034 0 0 -37.2034
0 0 1173.15 0 0 -1173.15 0 0 1015.66 0 0 -1015.66 0 0 37.3529 0 0 -37.3529
0 0 1225.74 0 0 -1225.74 0 0 1010.69 0 0 -1010.69 0 0 37.4342 0 0 -37.4342
0 0 1293.27 0 0 -1293.27 0 0 1005.42 0 0 -1005.42 0 0 37.4203 0 0 -37.4203
0 0 1376.84 0 0 -1376.84 0 0 1000.51 0 0 -1000.51 0 0 37.244 0 0 -37.244
0 0 1477.57 0 0 -1477.57 0 0 996.767 0 0 -996.767 0 0 36.8252 0 0 -36.8252
0 0 1596.74 0 0 -1596.74 0 0 995.022 0 0 -995.022 0 0 36.0872 0 0 -36.0872
0 0 1735.69 0 0 -1735.69 0 0 996.159 0 0 -996.159 0 0 34.9597 0 0 -34.9597
0 0 1895.62 0 0 -1895.62 0 0 1001.19 0 0 -1001.19 0 0 33.3777 0 0 -33.3777
0 0 2076.97 0 0 -2076.97 0 0 1011.27 0 0 -1011.27 0 0 31.2827 0 0 -31.2827
0 0 2278.9 0 0 -2278.9 0 0 1027.56 0 0 -1027.56 0 0 28.6417 0 0 -28.6417
0 0 2500.01 0 0 -2500.01 0 0 1051.81 0 0 -1051.81 0 0 25.3975 0 0 -25.3975
0 0 2736.09 0 0 -2736.09 0 0 1085.61 0 0 -1085.61 0 0 21.5529 0 0 -21.5529
0 0 2981.53 0 0 -2981.53 0 0 1130.66 0 0 -1130.66 0 0 17.138 0 0 -17.138
0 0 3229.32 0 0 -3229.32 0 0 1188.61 0 0 -1188.61 0 0 12.2316 0 0 -12.2316
0 0 3471.48 0 0 -3471.48 0 0 1260.82 0 0 -1260.82 0 0 6.9738 0 0 -6.9738
0 0 3699.93 0 0 -3699.93 0 0 1348.18 0 0 -1348.18 0 0 1.5423 0 0 -1.5423
0 0 3906.86 0 0 -3906.86 0 0 1450.94 0 0 -1450.94 0 0 -3.71796 0 0 3.71796
0 0 4084.57 0 0 -4084.57 0 0 1568.75 0 0 -1568.75 0 0 -8.40317 0 0 8.40317
0 0 4224.63 0 0 -4224.63 0 0 1700.68 0 0 -1700.68 0 0 -12.0397 0 0 12.0397
0 0 4317.28 0 0 -4317.28 0 0 1845.28 0 0 -1845.28 0 0 -14.0873 0 0 14.0873
0 0 4350.94 0 0 -4350.94 0 0 2000.57 0 0 -2000.57 0 0 -13.9531 0 0 13.9531
0 0 4312.05 0 0 -4312.05 0 0 2163.61 0 0 -2163.61 0 0 -11.0542 0 0 11.0542
0 0 4186.86 0 0 -4186.86 0 0 2331.79 0 0 -2331.79 0 0 -4.66509 0 0 4.66509
0 0 3964.41 0 0 -3964.41 0 0 2500.65 0 0 -2500.65 0 0 5.78104 0 0 -5.78104
0 0 3641.48 0 0 -3641.48 0 0 2663.91 0 0 -2663.91 0 0 21.1884 0 0 -21.1884
0 0 3226.16 0 0 -3226.16 0 0 2813.47 0 0 -2813.47 0 0 42.3228 0 0 -42.3228
0 0 2736.78 0 0 -2736.78 0 0 2939.78 0 0 -2939.78 0 0 69.8039 0 0 -69.8039
0 0 2196.35 0 0 -2196.35 0 0 3033.09 0 0 -3033.09 0 0 104.308 0 0 -104.308
0 0 1625.58 0 0 -1625.58 0 0 3083.83 0 0 -3083.83 0 0 146.195 0 0 -146.195
0 0 1046.79 0 0 -1046.79 0 0 3085.27 0 0 -3085.27 0 0 195.398 0 0 -195.398
0 0 476.131 0 0 -476.131 0 0 3032.04 0 0 -3032.04 0 0 251.55 0 0 -251.55
0 0 -78.0795 0 0 78.0795 0 0 2920.82 0 0 -2920.82 0 0 313.924 0 0 -313.924
0 0 -609.577 0 0 609.577 0 0 2752.46 0 0 -2752.46 0 0 381.308 0 0 -381.308
0 0 -1111.73 0 0 1111.73 0 0 2529.58 0 0 -2529.58 0 0 452.118 0 0 -452.118
0 0 -1584.73 0 0 1584.73 0 0 2256.95 0 0 -2256.95 0 0 524.414 0 0 -524.414
0 0 -2030.85 0 0 2030.85 0 0 1941.06 0 0 -1941.06 0 0 596.002 0 0 -596.002
0 0 -2452.34 0 0 2452.34 0 0 1589.54 0 0 -1589.54 0 0 664.357 0 0 -664.357
0 0 -2850.09 0 0 2850.09 0 0 1212.81 0 0 -1212.81 0 0 727.169 0 0 -727.169
0 0 -3223.93 0 0 3223.93 0 0 819.821 0 0 -819.821 0 0 781.887 0 0 -781.887
0 0 -3570.44 0 0 3570.44 0 0 419.996 0 0 -419.996 0 0 826.11 0 0 -826.11
0 0 -3881.76 0 0 3881.76 0 0 22.3539 0 0 -22.3539 0 0 857.556 0 0 -857.556
0 0 -4148.19 0 0 4148.19 0 0 -367.089 0 0 367.089 0 0 874.016 0 0 -874.016
0 0 -4363.22 0 0 4363.22 0 0 -739.093 0 0 739.093 0 0 873.733 0 0 -873.733
0 0 -4526.88 0 0 4526.88 0 0 -1083.59 0 0 1083.59 0 0 855.389 0 0 -855.389
0 0 -4649.77 0 0 4649.77 0 0 -1391.12 0 0 1391.12 0 0 817.814 0 0 -817.814
0 0 -4752.46 0 0 4752.46 0 0 -1652.89 0 0 1652.89 0 0 760.251 0 0 -760.251
0 0 -4864.34 0 0 4864.34 0 0 -1861.42 0 0 1861.42 0 0 682.493 0 0 -682.493
0 0 -5073.81 0 0 5073.81 0 0 -2038.03 0 0 2038.03 0 0 557.476 0 0 -557.476
0 0 -5436.76 0 0 5436.76 0 0 -2114.81 0 0 2114.81 0 0 403.479 0 0 -403.479
0 0 -6029.26 0 0 6029.26 0 0 -2093.43 0 0 2093.43 0 0 224.143 0 0 -224.143
0 0 -6905.97 0 0 6905.97 0 0 -1988.26 0 0 1988.26 0 0 23.193 0 0 -23.193
0 0 -8090.36 0 0 8090.36 0 0 -1826.85 0 0 1826.85 0 0 -191.685 0 0 191.685
0 0 -9569.47 0 0 9569.47 0 0 -1647.04 0 0 1647.04 0 0 -412.139 0 0 412.139
0 0 -11290.9 0 0 11290.9 0 0 -1496.92 0 0 1496.92 0 0 -628.519 0 0 628.519
0 0 -13167.9 0 0 13167.9 0 0 -1431.03 0 0 1431.03 0 0 -831.826 0 0 831.826
0 0 -15099.7 0 0 15099.7 0 0 -1502.4 0 0 1502.4 0 0 -1013.99 0 0 1013.99
0 0 -16999.8 0 0 16999.8 0 0 -1754.83 0 0 1754.83 0 0 -1168.52 0 0 1168.52
0 0 -18812.5 0 0 18812.5 0 0 -2217.6 0 0 2217.6 0 0 -1291.32 0 0 1291.32
0 0 -20512.8 0 0 20512.8 0 0 -2903.94 0 0 2903.94 0 0 -1380.68 0 0 1380.68
0 0 -22096.8 0 0 22096.8 0 0 -3810.7 0 0 3810.7 0 0 -1437.9 0 0 1437.9
0 0 -23573.6 0 0 23573.6 0 0 -4919.71 0 0 4919.71 0 0 -1466.72 0 0 1466.72
0 0 -24955.2 0 0 24955.2 0 0 -6200.58 0 0 6200.58 0 0 -1473.29 0 0 1473.29
0 0 -26245 0 0 26245 0 0 -7614.29 0 0 7614.29 0 0 -1465.4 0 0 1465.4
0 0 -27437.9 0 0 27437.9 0 0 -9115.08 0 0 9115.08 0 0 -1452.25 0 0 1452.25
0 0 -28532.9 0 0 28532.9 0 0 -10651.3 0 0 10651.3 0 0 -1443.83 0 0 1443.83
0 0 -29544.5 0 0 29544.5 0 0 -12167.2 0 0 12167.2 0 0 -1450.41 0 0 1450.41
0 0 -30501.2 0 0 30501.2 0 0 -13606.5 0 0 13606.5 0 0 -1481.66 0 0 1481.66
0 0 -31434.5 0 0 31434.5 0 0 -14917 0 0 14917 0 0 -1546.11 0 0 1546.11
0 0 -32361.6 0 0 32361.6 0 0 -16056.2 0 0 16056.2 0 0 -1650.29 0 0 1650.29
0 0 -33275.9 0 0 33275.9 0 0 -16994.6 0 0 16994.6 0 0 -1798.35 0 0 1798.35
0 0 -34157.7 0 0 34157.7 0 0 -17715.6 0 0 17715.6 0 0 -1991.73 0 0 1991.73
0 0 -34988.2 0 0 34988.2 0 0 -18214.7 0 0 18214.7 0 0 -2229.15 0 0 2229.15
0 0 -35753.5 0 0 35753.5 0 0 -18498.1 0 0 18498.1 0 0 -2506.68 0 0 2506.68
0 0 -36445.9 0 0 36445.9 0 0 -18582.2 0 0 18582.2 0 0 -2817.96 0 0 2817.96
0 0 -37063.7 0 0 37063.7 0 0 -18492.3 0 0 18492.3 0 0 -3154.45 0 0 3154.45
0 0 -37612.2 0 0 37612.2 0 0 -18260.4 0 0 18260.4 0 0 -3505.91 0 0 3505.91
0 0 -38101.1 0 0 38101.1 0 0 -17924.3 0 0 17924.3 0 0 -3860.84 0 0 3860.84
0 0 -38541.2 0 0 38541.2 0 0 -17525 0 0 17525 0 0 -4207.07 0 0 4207.07
0 0 -38943.6 0 0 38943.6 0 0 -17105 0 0 17105 0 0 -4532.36 0 0 4532.36
0 0 -39322.8 0 0 39322.8 0 0 -16704.9 0 0 16704.9 0 0 -4825.01 0 0 4825.01
0 0 -39700.3 0 0 39700.3 0 0 -16361.3 0 0 16361.3 0 0 -5074.44 0 0 5074.44
0 0 -40104.2 0 0 40104.2 0 0 -16104.6 0 0 16104.6 0 0 -5271.73 0 0 5271.73
0 0 -40560.9 0 0 40560.9 0 0 -15958.9 0 0 15958.9 0 0 -5409.93 0 0 5409.93
0 0 -41079.6 0 0 41079.6 0 0 -15942.6 0 0 15942.6 0 0 -5484.32 0 0 5484.32
0 0 -41638.6 0 0 41638.6 0 0 -16069.5 0 0 16069.5 0 0 -5492.58 0 0 5492.58
0 0 -42186.4 0 0 42186.4 0 0 -16347.5 0 0 16347.5 0 0 -5434.95 0 0 5434.95
0 0 -42655.7 0 0 42655.7 0 0 -16775.3 0 0 16775.3 0 0 -5314.41 0 0 5314.41
0 0 -42928.3 0 0 42928.3 0 0 -17217.6 0 0 17217.6 0 0 -5176.48 0 0 5176.48
0 0 -43089.8 0 0 43089.8 0 0 -17875.7 0 0 17875.7 0 0 -4959.04 0 0 4959.04
0 0 -43010.4 0 0 43010.4 0 0 -18617.3 0 0 18617.3 0 0 -4701.3 0 0 4701.3
0 0 -42662.7 0 0 42662.7 0 0 -19395.8 0 0 19395.8 0 0 -4415.51 0 0 4415.51
0 0 -42028.6 0 0 42028.6 0 0 -20156.9 0 0 20156.9 0 0 -4115.11 0 0 4115.11
0 0 -41092 0 0 41092 0 0 -20842.5 0 0 20842.5 0 0 -3814.03 0 0 3814.03
0 0 -39840.2 0 0 39840.2 0 0 -21393.5 0 0 21393.5 0 0 -3525.88 0 0 3525.88
0 0 -38263.3 0 0 38263.3 0 0 -21753.4 0 0 21753.4 0 0 -3263.23 0 0 3263.23
0 0 -36353 0 0 36353 0 0 -21871.2 0 0 21871.2 0 0 -3036.82 0 0 3036.82
0 0 -34104.9 0 0 34104.9 0 0 -21704.3 0 0 21704.3 0 0 -2855.05 0 0 2855.05
0 0 -31519.9 0 0 31519.9 0 0 -21219.9 0 0 21219.9 0 0 -2723.41 0 0 2723.41
0 0 -28603.6 0 0 28603.6 0 0 -20397.2 0 0 20397.2 0 0 -2644.12 0 0 2644.12
0 0 -25369.7 0 0 25369.7 0 0 -19228 0 0 19228 0 0 -2616.03 0 0 2616.03
0 0 -21850.6 0 0 21850.6 0 0 -17715.6 0 0 17715.6 0 0 -2634.57 0 0 2634.57
0 0 -18108.1 0 0 18108.1 0 0 -15873.5 0 0 15873.5 0 0 -2692.01 0 0 2692.01
0 0 -14226.9 0 0 14226.9 0 0 -13726 0 0 13726 0 0 -2777.63 0 0 2777.63
0 0 -10291.3 0 0 10291.3 0 0 -11310.8 0 0 11310.8 0 0 -2877.94 0 0 2877.94
0 0 -6374.52 0 0 6374.52 0 0 -8678.66 0 0 8678.66 0 0 -2977.26 0 0 2977.26
0 0 -2542.2 0 0 2542.2 0 0 -5890.61 0 0 5890.61 0 0 -3058.43 0 0 3058.43
0 0 1127.71 0 0 -1127.71 0 0 -3018.76 0 0 3018.76 0 0 -3103.47 0 0 3103.47
0 0 4566.52 0 0 -4566.52 0 0 -135.829 0 0 135.829 0 0 -3094.64 0 0 3094.64
0 0 7772.8 0 0 -7772.8 0 0 2660.24 0 0 -2660.24 0 0 -3018.23 0 0 3018.23
0 0 10727.6 0 0 -10727.6 0 0 5309.31 0 0 -5309.31 0 0 -2857.93 0 0 2857.93
0 0 13438 0 0 -13438 0 0 7765.16 0 0 -7765.16 0 0 -2601.76 0 0 2601.76
0 0 15941.5 0 0 -15941.5 0 0 9967.22 0 0 -9967.22 0 0 -2242.02 0 0 2242.02
0 0 18270 0 0 -18270 0 0 11864.9 0 0 -11864.9 0 0 -1774.48 0 0 1774.48
0 0 20440.3 0 0 -20440.3 0 0 13435.9 0 0 -13435.9 0 0 -1200.88 0 0 1200.88
0 0 22441.3 0 0 -22441.3 0 0 14679.1 0 0 -14679.1 0 0 -527.724 0 0 527.724
0 0 24249.9 0 0 -24249.9 0 0 15609 0 0 -15609 0 0 225.798 0 0 -225.798
0 0 25857.6 0 0 -25857.6 0 0 16252.9 0 0 -16252.9 0 0 1047.34 0 0 -1047.34
0 0 27287.5 0 0 -27287.5 0 0 16653 0 0 -16653 0 0 1922.03 0 0 -1922.03
0 0 28593.4 0 0 -28593.4 0 0 16857.8 0 0 -16857.8 0 0 2828.31 0 0 -2828.31
0 0 29843 0 0 -29843 0 0 16919.1 0 0 -16919.1 0 0 3743.78 0 0 -3743.78
0 0 31101.3 0 0 -31101.3 0 0 16895.4 0 0 -16895.4 0 0 4642.96 0 0 -4642.96
0 0 32432.4 0 0 -32432.4 0 0 16849.4 0 0 -16849.4 0 0 5502.32 0 0 -5502.32
0 0 33901.7 0 0 -33901.7 0 0 16842.5 0 0 -16842.5 0 0 6298.14 0 0 -6298.14
0 0 35574.2 0 0 -35574.2 0 0 16931.2 0 0 -16931.2 0 0 7009.22 0 0 -7009.22
0 0 37506.5 0 0 -37506.5 0 0 17166.9 0 0 -17166.9 0 0 7616.53 0 0 -7616.53
0 0 39758.8 0 0 -39758.8 0 0 17509.8 0 0 -17509.8 0 0 7724.43 0 0 -7724.43
0 0 42317 0 0 -42317 0 0 18020 0 0 -18020 0 0 7737.62 0 0 -7737.62
0 0 45121.3 0 0 -45121.3 0 0 18854.9 0 0 -18854.9 0 0 7746.82 0 0 -7746.82
0 0 48102.5 0 0 -48102.5 0 0 20024.6 0 0 -20024.6 0 0 7750.86 0 0 -7750.86
0 0 51155.1 0 0 -51155.1 0 0 21527.1 0 0 -21527.1 0 0 7706.52 0 0 -7706.52
0 0 54195.6 0 0 -54195.6 0 0 23275.6 0 0 -23275.6 0 0 7559.49 0 0 -7559.49
0 0 57133.7 0 0 -57133.7 0 0 25250.9 0 0 -25250.9 0 0 7320.73 0 0 -7320.73
0 0 59901.7 0 0 -59901.7 0 0 27414.3 0 0 -27414.3 0 0 6990.46 0 0 -6990.46
0 0 61108.5 0 0 -61108.5 0 0 29519 0 0 -29519 0 0 6594.24 0 0 -6594.24
0 0 61986 0 0 -61986 0 0 31520.6 0 0 -31520.6 0 0 6164.16 0 0 -6164.16
0 0 62715.8 0 0 -62715.8 0 0 33512.8 0 0 -33512.8 0 0 5719.37 0 0 -5719.37
0 0 63317.6 0 0 -63317.6 0 0 35425.3 0 0 -35425.3 0 0 5275.7 0 0 -5275.7
0 0 0 0 0 0 0 0 25961.6 0 0 -25961.6 0 0 5561.87 0 0 -5561.87
0 0 0 0 0 0 0 0 25041.4 0 0 -25041.4 0 0 5307.59 0 0 -5307.59
0 0 0 0 0 0 0 0 29803.9 0 0 -29803.9 0 0 4663.86 0 0 -4663.86
0 0 0 0 0 0 0 0 31669.9 0 0 -31669.9 0 0 4159.17 0 0 -4159.17
0 0 0 0 0 0 0 0 29963.4 0 0 -29963.4 0 0 3915.58 0 0 -3915.58
0 0 0 0 0 0 0 0 31065.3 0 0 -31065.3 0 0 3555.07 0 0 -3555.07
0 0 0 0 0 0 0 0 31827.3 0 0 -31827.3 0 0 3256.01 0 0 -3256.01
0 0 0 0 0 0 0 0 30563.5 0 0 -30563.5 0 0 3082.59 0 0 -3082.59
0 0 0 0 0 0 0 0 29839.3 0 0 -29839.3 0 0 2923.58 0 0 -2923.58
0 0 0 0 0 0 0 0 29223.1 0 0 -29223.1 0 0 2827.36 0 0 -2827.36
0 0 0 0 0 0 0 0 27596 0 0 -27596 0 0 2829.76 0 0 -2829.76
0 0 0 0 0 0 0 0 25885.4 0 0 -25885.4 0 0 2857.11 0 0 -2857.11
0 0 0 0 0 0 0 0 24290.8 0 0 -24290.8 0 0 2900.18 0 0 -2900.18
0 0 0 0 0 0 0 0 22319.9 0 0 -22319.9 0 0 2986.92 0 0 -2986.92
0 0 0 0 0 0 0 0 20310.1 0 0 -20310.1 0 0 3084.81 0 0 -3084.81
0 0 0 0 0 0 0 0 18561.7 0 0 -18561.7 0 0 3157.13 0 0 -3157.13
0 0 0 0 0 0 0 0 17046.6 0 0 -17046.6 0 0 3193.79 0 0 -3193.79
0 0 0 0 0 0 0 0 15605.9 0 0 -15605.9 0 0 3208.64 0 0 -3208.64
0 0 0 0 0 0 0 0 14601.9 0 0 -14601.9 0 0 3170.03 0 0 -3170.03
0 0 0 0 0 0 0 0 13904.9 0 0 -13904.9 0 0 3081.29 0 0 -3081.29
0 0 0 0 0 0 0 0 13494.2 0 0 -13494.2 0 0 2939.11 0 0 -2939.11
0 0 0 0 0 0 0 0 13447.8 0 0 -13447.8 0 0 2747.23 0 0 -2747.23
0 0 0 0 0 0 0 0 13767.9 0 0 -13767.9 0 0 2510.27 0 0 -2510.27
0 0 0 0 0 0 0 0 14410.1 0 0 -14410.1 0 0 2235.64 0 0 -2235.64
0 0 0 0 0 0 0 0 15389.2 0 0 -15389.2 0 0 1930.42 0 0 -1930.42
0 0 0 0 0 0 0 0 16673.1 0 0 -16673.1 0 0 1610.2 0 0 -1610.2
0 0 0 0 0 0 0 0 18204.8 0 0 -18204.8 0 0 1292.61 0 0 -1292.61
0 0 0 0 0 0 0 0 19954.7 0 0 -19954.7 0 0 991.814 0 0 -991.814
0 0 0 0 0 0 0 0 21834.5 0 0 -21834.5 0 0 732.111 0 0 -732.111
0 0 0 0 0 0 0 0 23769.1 0 0 -23769.1 0 0 528.252 0 0 -528.252
0 0 0 0 0 0 0 0 25294.3 0 0 -25294.3 0 0 417.466 0 0 -417.466
0 0 0 0 0 0 0 0 26470.4 0 0 -26470.4 0 0 381.225 0 0 -381.225
0 0 0 0 0 0 0 0 27569.2 0 0 -27569.2 0 0 407.785 0 0 -407.785
0 0 0 0 0 0 0 0 28750.7 0 0 -28750.7 0 0 463.969 0 0 -463.969
0 0 0 0 0 0 0 0 29651.2 0 0 -29651.2 0 0 607.469 0 0 -607.469
0 0 0 0 0 0 0 0 30396.4 0 0 -30396.4 0 0 819.976 0 0 -819.976
0 0 0 0 0 0 0 0 31032.1 0 0 -31032.1 0 0 1096.36 0 0 -1096.36
0 0 0 0 0 0 0 0 31510.8 0 0 -31510.8 0 0 1434.47 0 0 -1434.47
0 0 0 0 0 0 0 0 31761.6 0 0 -31761.6 0 0 1833.73 0 0 -1833.73
0 0 0 0 0 0 0 0 31792.7 0 0 -31792.7 0 0 2290.23 0 0 -2290.23
0 0 0 0 0 0 0 0 31627.6 0 0 -31627.6 0 0 2798.9 0 0 -2798.9
0 0 0 0 0 0 0 0 31304.2 0 0 -31304.2 0 0 3349.98 0 0 -3349.98
0 0 0 0 0 0 0 0 30847.9 0 0 -30847.9 0 0 3931.02 0 0 -3931.02
0 0 0 0 0 0 0 0 30273.3 0 0 -30273.3 0 0 4530.12 0 0 -4530.12
0 0 0 0 0 0 0 0 29596.7 0 0 -29596.7 0 0 5136.38 0 0 -5136.38
0 0 0 0 0 0 0 0 28842.3 0 0 -28842.3 0 0 5739.34 0 0 -5739.34
0 0 0 0 0 0 0 0 28034.4 0 0 -28034.4 0 0 6327.67 0 0 -6327.67
0 0 0 0 0 0 0 0 27191.9 0 0 -27191.9 0 0 6889.17 0 0 -6889.17
0 0 0 0 0 0 0 0 26332.1 0 0 -26332.1 0 0 7411.64 0 0 -7411.64
0 0 0 0 0 0 0 0 25469.5 0 0 -25469.5 0 0 7753.53 0 0 -7753.53
0 0 0 0 0 0 0 0 24521.4 0 0 -24521.4 0 0 7770.9 0 0 -7770.9
0 0 0 0 0 0 0 0 23601.2 0 0 -23601.2 0 0 7783.81 0 0 -7783.81
0 0 0 0 0 0 0 0 22746.1 0 0 -22746.1 0 0 7794.19 0 0 -7794.19
0 0 0 0 0 0 0 0 22037 0 0 -22037 0 0 7801.13 0 0 -7801.13
0 0 0 0 0 0 0 0 21432.4 0 0 -21432.4 0 0 7804.71 0 0 -7804.71
0 0 0 0 0 0 0 0 20927.3 0 0 -20927.3 0 0 7804.18 0 0 -7804.18
0 0 0 0 0 0 0 0 20504.8 0 0 -20504.8 0 0 7751.57 0 0 -7751.57
0 0 0 0 0 0 0 0 20152.2 0 0 -20152.2 0 0 7626.68 0 0 -7626.68
0 0 0 0 0 0 0 0 19872.3 0 0 -19872.3 0 0 7417 0 0 -7417
0 0 0 0 0 0 0 0 19649.9 0 0 -19649.9 0 0 7121.52 0 0 -7121.52
0 0 0 0 0 0 0 0 19464.7 0 0 -19464.7 0 0 6748.05 0 0 -6748.05
0 0 0 0 0 0 0 0 19295.5 0 0 -19295.5 0 0 6309.68 0 0 -6309.68
0 0 0 0 0 0 0 0 19121.2 0 0 -19121.2 0 0 5816.3 0 0 -5816.3
0 0 0 0 0 0 0 0 18921.6 0 0 -18921.6 0 0 5272.77 0 0 -5272.77
0 0 0 0 0 0 0 0 18673.8 0 0 -18673.8 0 0 4683.73 0 0 -4683.73
0 0 0 0 0 0 0 0 18354.9 0 0 -18354.9 0 0 4057.85 0 0 -4057.85
0 0 0 0 0 0 0 0 17944.2 0 0 -17944.2 0 0 3407.34 0 0 -3407.34
0 0 0 0 0 0 0 0 17425.1 0 0 -17425.1 0 0 2743.9 0 0 -2743.9
0 0 0 0 0 0 0 0 16787.2 0 0 -16787.2 0 0 2075.9 0 0 -2075.9
0 0 0 0 0 0 0 0 16026.6 0 0 -16026.6 0 0 1409.23 0 0 -1409.23
0 0 0 0 0 0 0 0 15144.5 0 0 -15144.5 0 0 749.889 0 0 -749.889
0 0 0 0 0 0 0 0 14146.2 0 0 -14146.2 0 0 105.152 0 0 -105.152
0 0 0 0 0 0 0 0 13057.3 0 0 -13057.3 0 0 -374.691 0 0 374.691
0 0 0 0 0 0 0 0 11902.5 0 0 -11902.5 0 0 -834.977 0 0 834.977
0 0 0 0 0 0 0 0 10651.5 0 0 -10651.5 0 0 -1271.21 0 0 1271.21
0 0 0 0 0 0 0 0 9312.62 0 0 -9312.62 0 0 -1681.95 0 0 1681.95
0 0 0 0 0 0 0 0 7891.66 0 0 -7891.66 0 0 -2062.07 0 0 2062.07
0 0 0 0 0 0 0 0 6406.82 0 0 -6406.82 0 0 -2413.63 0 0 2413.63
0 0 0 0 0 0 0 0 4870.99 0 0 -4870.99 0 0 -2739.22 0 0 2739.22
0 0 0 0 0 0 0 0 3290.16 0 0 -3290.16 0 0 -3038.58 0 0 3038.58
0 0 -1566.54 0 0 1566.54 0 0 1556.03 0 0 -1556.03 0 0 -3306.71 0 0 3306.71
0 0 -3819.64 0 0 3819.64 0 0 -557.105 0 0 557.105 0 0 -3524.31 0 0 3524.31
0 0 -6170.86 0 0 6170.86 0 0 -2659.83 0 0 2659.83 0 0 -3719.48 0 0 3719.48
0 0 -8821.94 0 0 8821.94 0 0 -4656.81 0 0 4656.81 0 0 -3897.23 0 0 3897.23
0 0 -11551.4 0 0 11551.4 0 0 -6635.81 0 0 6635.81 0 0 -4053.01 0 0 4053.01
0 0 -14180.7 0 0 14180.7 0 0 -8595.33 0 0 8595.33 0 0 -4193.43 0 0 4193.43
0 0 -16821.1 0 0 16821.1 0 0 -10486.6 0 0 10486.6 0 0 -4318.93 0 0 4318.93
0 0 -19519.9 0 0 19519.9 0 0 -12277 0 0 12277 0 0 -4432.37 0 0 4432.37
0 0 -22152.9 0 0 22152.9 0 0 -13989.2 0 0 13989.2 0 0 -4535.27 0 0 4535.27
0 0 -24659.1 0 0 24659.1 0 0 -15615.7 0 0 15615.7 0 0 -4631.15 0 0 4631.15
0 0 -27067 0 0 27067 0 0 -17122.3 0 0 17122.3 0 0 -4724.05 0 0 4724.05
0 0 -29358.6 0 0 29358.6 0 0 -18500.1 0 0 18500.1 0 0 -4815.56 0 0 4815.56
0 0 -31474.5 0 0 31474.5 0 0 -19758.3 0 0 19758.3 0 0 -4906.06 0 0 4906.06
0 0 -33394.1 0 0 33394.1 0 0 -20892.3 0 0 20892.3 0 0 -4996.77 0 0 4996.77
0 0 -35124.2 0 0 35124.2 0 0 -21886 0 0 21886 0 0 -5089.76 0 0 5089.76
0 0 -36654.4 0 0 36654.4 0 0 -22734 0 0 22734 0 0 -5186.5 0 0 5186.5
0 0 -37972.1 0 0 37972.1 0 0 -23437 0 0 23437 0 0 -5287.38 0 0 5287.38
0 0 -39085.9 0 0 39085.9 0 0 -23992.6 0 0 23992.6 0 0 -5392.13 0 0 5392.13
0 0 -40014.2 0 0 40014.2 0 0 -24397 0 0 24397 0 0 -5500.29 0 0 5500.29
0 0 -40772 0 0 40772 0 0 -24648.6 0 0 24648.6 0 0 -5611.29 0 0 5611.29
0 0 -41374.6 0 0 41374.6 0 0 -24747.3 0 0 24747.3 0 0 -5724.39 0 0 5724.39
0 0 -41843.2 0 0 41843.2 0 0 -24694.9 0 0 24694.9 0 0 -5838.38 0 0 5838.38
0 0 -42201.5 0 0 42201.5 0 0 -24500.7 0 0 24500.7 0 0 -5950.92 0 0 5950.92
0 0 -42472.4 0 0 42472.4 0 0 -24173.7 0 0 24173.7 0 0 -6059.52 0 0 6059.52
0 0 -42682.4 0 0 42682.4 0 0 -23724.2 0 0 23724.2 0 0 -6161.55 0 0 6161.55
0 0 -42860 0 0 42860 0 0 -23166 0 0 23166 0 0 -6254.2 0 0 6254.2
0 0 -43031.7 0 0 43031.7 0 0 -22516.2 0 0 22516.2 0 0 -6334.4 0 0 6334.4
0 0 -43219.6 0 0 43219.6 0 0 -21794.3 0 0 21794.3 0 0 -6398.8 0 0 6398.8
0 0 -43440.5 0 0 43440.5 0 0 -21022.1 0 0 21022.1 0 0 -6443.99 0 0 6443.99
0 0 -43706.5 0 0 43706.5 0 0 -20222.3 0 0 20222.3 0 0 -6466.65 0 0 6466.65
0 0 -44023.8 0 0 44023.8 0 0 -19419.4 0 0 19419.4 0 0 -6460.79 0 0 6460.79
0 0 -44397.2 0 0 44397.2 0 0 -18635.5 0 0 18635.5 0 0 -6417.17 0 0 6417.17
0 0 -44830.8 0 0 44830.8 0 0 -17892.5 0 0 17892.5 0 0 -6332.85 0 0 6332.85
0 0 -45327.5 0 0 45327.5 0 0 -17211.1 0 0 17211.1 0 0 -6205.94 0 0 6205.94
0 0 -45890 0 0 45890 0 0 -16609.4 0 0 16609.4 0 0 -6035.06 0 0 6035.06
0 0 -46517.9 0 0 46517.9 0 0 -16103 0 0 16103 0 0 -5819.78 0 0 5819.78
0 0 -47208.7 0 0 47208.7 0 0 -15704.5 0 0 15704.5 0 0 -5561.14 0 0 5561.14
0 0 -47959 0 0 47959 0 0 -15421.5 0 0 15421.5 0 0 -5261.49 0 0 5261.49
0 0 -48764.3 0 0 48764.3 0 0 -15258.6 0 0 15258.6 0 0 -4924.27 0 0 4924.27
0 0 -49622.6 0 0 49622.6 0 0 -15215.7 0 0 15215.7 0 0 -4553.84 0 0 4553.84
0 0 -50534.5 0 0 50534.5 0 0 -15287.9 0 0 15287.9 0 0 -4155.53 0 0 4155.53
0 0 -51502.3 0 0 51502.3 0 0 -15467 0 0 15467 0 0 -3735.69 0 0 3735.69
0 0 -52527.5 0 0 52527.5 0 0 -15740.9 0 0 15740.9 0 0 -3301.59 0 0 3301.59
0 0 -53606.1 0 0 53606.1 0 0 -16097 0 0 16097 0 0 -2861.01 0 0 2861.01
0 0 -54727.4 0 0 54727.4 0 0 -16522 0 0 16522 0 0 -2422.02 0 0 2422.02
0 0 -55871.1 0 0 55871.1 0 0 -17002.9 0 0 17002.9 0 0 -1992.72 0 0 1992.72
0 0 -57006.2 0 0 57006.2 0 0 -17518.9 0 0 17518.9 0 0 -1581.72 0 0 1581.72
0 0 -58096.5 0 0 58096.5 0 0 -18033.9 0 0 18033.9 0 0 -1199.32 0 0 1199.32
0 0 -59111.7 0 0 59111.7 0 0 -18595.3 0 0 18595.3 0 0 -846.855 0 0 846.855
0 0 -59935.1 0 0 59935.1 0 0 -19114.3 0 0 19114.3 0 0 -538.733 0 0 538.733
0 0 -60657.1 0 0 60657.1 0 0 -19627.9 0 0 19627.9 0 0 -278.017 0 0 278.017
0 0 -61245.1 0 0 61245.1 0 0 -20178.6 0 0 20178.6 0 0 -69.785 0 0 69.785
0 0 -61670.1 0 0 61670.1 0 0 -20695.1 0 0 20695.1 0 0 62.2141 0 0 -62.2141
0 0 -61894.9 0 0 61894.9 0 0 -21209.7 0 0 21209.7 0 0 140.803 0 0 -140.803
0 0 -61881.9 0 0 61881.9 0 0 -21689.2 0 0 21689.2 0 0 171.731 0 0 -171.731
0 0 -61550.2 0 0 61550.2 0 0 -22112.5 0 0 22112.5 0 0 141.447 0 0 -141.447
0 0 -60880.9 0 0 60880.9 0 0 -22463.8 0 0 22463.8 0 0 42.5784 0 0 -42.5784
0 0 -59879.7 0 0 59879.7 0 0 -22734.1 0 0 22734.1 0 0 -116.115 0 0 116.115
0 0 -58557.3 0 0 58557.3 0 0 -22904 0 0 22904 0 0 -334.139 0 0 334.139
0 0 -56938.9 0 0 56938.9 0 0 -22965.1 0 0 22965.1 0 0 -613.047 0 0 613.047
0 0 -55054.9 0 0 55054.9 0 0 -22908.1 0 0 22908.1 0 0 -949.97 0 0 949.97
0 0 -52934.6 0 0 52934.6 0 0 -22726.9 0 0 22726.9 0 0 -1340.73 0 0 1340.73
0 0 -50612.5 0 0 50612.5 0 0 -22419.8 0 0 22419.8 0 0 -1779.15 0 0 1779.15
0 0 -48129.7 0 0 48129.7 0 0 -21987.2 0 0 21987.2 0 0 -2258 0 0 2258
0 0 -45529.2 0 0 45529.2 0 0 -21433.4 0 0 21433.4 0 0 -2769.24 0 0 2769.24
0 0 -42859.3 0 0 42859.3 0 0 -20764.9 0 0 20764.9 0 0 -3304.25 0 0 3304.25
0 0 -40166.8 0 0 40166.8 0 0 -19992.3 0 0 19992.3 0 0 -3853.62 0 0 3853.62
0 0 -37492.6 0 0 37492.6 0 0 -19130.1 0 0 19130.1 0 0 -4406.94 0 0 4406.94
0 0 -34869.1 0 0 34869.1 0 0 -18197 0 0 18197 0 0 -4953.15 0 0 4953.15
0 0 -32320.7 0 0 32320.7 0 0 -17214.9 0 0 17214.9 0 0 -5481.06 0 0 5481.06
0 0 -29867.4 0 0 29867.4 0 0 -16206.9 0 0 16206.9 0 0 -5979.77 0 0 5979.77
0 0 -27522.5 0 0 27522.5 0 0 -15197.3 0 0 15197.3 0 0 -6438.73 0 0 6438.73
0 0 -25293.1 0 0 25293.1 0 0 -14211 0 0 14211 0 0 -6847.91 0 0 6847.91
0 0 -23182.9 0 0 23182.9 0 0 -13270.9 0 0 13270.9 0 0 -7197.99 0 0 7197.99
0 0 -21192 0 0 21192 0 0 -12398.5 0 0 12398.5 0 0 -7480.73 0 0 7480.73
0 0 -19323.4 0 0 19323.4 0 0 -11609.4 0 0 11609.4 0 0 -7667.83 0 0 7667.83
0 0 -17582.9 0 0 17582.9 0 0 -10886.3 0 0 10886.3 0 0 -7718.32 0 0 7718.32
0 0 -15957.9 0 0 15957.9 0 0 -10281.3 0 0 10281.3 0 0 -7724.61 0 0 7724.61
0 0 -14444.6 0 0 14444.6 0 0 -9808.4 0 0 9808.4 0 0 -7686.57 0 0 7686.57
0 0 -13040.1 0 0 13040.1 0 0 -9442.47 0 0 9442.47 0 0 -7558.8 0 0 7558.8
0 0 -11723.2 0 0 11723.2 0 0 -9177.94 0 0 9177.94 0 0 -7339.56 0 0 7339.56
0 0 -10485.9 0 0 10485.9 0 0 -9000 0 0 9000 0 0 -7038.29 0 0 7038.29
0 0 -9310.67 0 0 9310.67 0 0 -8889.62 0 0 8889.62 0 0 -6661.28 0 0 6661.28
0 0 -8181.16 0 0 8181.16 0 0 -8833 0 0 8833 0 0 -6213.45 0 0 6213.45
0 0 -7078.82 0 0 7078.82 0 0 -8807.92 0 0 8807.92 0 0 -5700.59 0 0 5700.59
0 0 -5983.63 0 0 5983.63 0 0 -8788.35 0 0 8788.35 0 0 -5131.46 0 0 5131.46
0 0 -4872.77 0 0 4872.77 0 0 -8745.63 0 0 8745.63 0 0 -4517.64 0 0 4517.64
0 0 -3719.22 0 0 3719.22 0 0 -8652.43 0 0 8652.43 0 0 -3871.17 0 0 3871.17
0 0 -2587.69 0 0 2587.69 0 0 -8475.58 0 0 8475.58 0 0 -3202.8 0 0 3202.8
0 0 -1312.12 0 0 1312.12 0 0 -8206.83 0 0 8206.83 0 0 -2521.94 0 0 2521.94
0 0 0 0 0 0 0 0 -7819.96 0 0 7819.96 0 0 -1836.62 0 0 1836.62
0 0 0 0 0 0 0 0 -7476.5 0 0 7476.5 0 0 -1147.53 0 0 1147.53
0 0 0 0 0 0 0 0 -7093.99 0 0 7093.99 0 0 -469.313 0 0 469.313
0 0 0 0 0 0 0 0 -6550.7 0 0 6550.7 0 0 91.9139 0 0 -91.9139
0 0 0 0 0 0 0 0 -5834.38 0 0 5834.38 0 0 557.61 0 0 -557.61
0 0 0 0 0 0 0 0 -4920.81 0 0 4920.81 0 0 979.892 0 0 -979.892
0 0 0 0 0 0 0 0 -3846.2 0 0 3846.2 0 0 1374.84 0 0 -1374.84
0 0 0 0 0 0 0 0 -2556.48 0 0 2556.48 0 0 1729.09 0 0 -1729.09
0 0 0 0 0 0 0 0 -1043.67 0 0 1043.67 0 0 2040.47 0 0 -2040.47
0 0 0 0 0 0 0 0 645.471 0 0 -645.471 0 0 2313.12 0 0 -2313.12
0 0 0 0 0 0 0 0 2493.14 0 0 -2493.14 0 0 2551.8 0 0 -2551.8
0 0 0 0 0 0 0 0 4493.97 0 0 -4493.97 0 0 2756.88 0 0 -2756.88
0 0 0 0 0 0 0 0 6585.39 0 0 -6585.39 0 0 2930.53 0 0 -2930.53
0 0 0 0 0 0 0 0 8811.47 0 0 -8811.47 0 0 3071.11 0 0 -3071.11
0 0 0 0 0 0 0 0 11092.9 0 0 -11092.9 0 0 3185.29 0 0 -3185.29
0 0 0 0 0 0 0 0 13396.7 0 0 -13396.7 0 0 3281.81 0 0 -3281.81
0 0 0 0 0 0 0 0 15702.2 0 0 -15702.2 0 0 3364.39 0 0 -3364.39
0 0 0 0 0 0 0 0 17972.4 0 0 -17972.4 0 0 3437.58 0 0 -3437.58
0 0 0 0 0 0 0 0 20165.1 0 0 -20165.1 0 0 3505.12 0 0 -3505.12
0 0 0 0 0 0 0 0 22234.7 0 0 -22234.7 0 0 3572.86 0 0 -3572.86
0 0 0 0 0 0 0 0 24140.4 0 0 -24140.4 0 0 3646.99 0 0 -3646.99
0 0 0 0 0 0 0 0 25845.1 0 0 -25845.1 0 0 3732.82 0 0 -3732.82
0 0 0 0 0 0 0 0 27314.9 0 0 -27314.9 0 0 3833.86 0 0 -3833.86
0 0 0 0 0 0 0 0 28521.5 0 0 -28521.5 0 0 3952.12 0 0 -3952.12
0 0 0 0 0 0 0 0 29444.3 0 0 -29444.3 0 0 4088.98 0 0 -4088.98
0 0 0 0 0 0 0 0 30072 0 0 -30072 0 0 4245.25 0 0 -4245.25
0 0 0 0 0 0 0 0 30403.8 0 0 -30403.8 0 0 4420.63 0 0 -4420.63
0 0 0 0 0 0 0 0 30445.6 0 0 -30445.6 0 0 4613.21 0 0 -4613.21
0 0 0 0 0 0 0 0 30210.8 0 0 -30210.8 0 0 4819.58 0 0 -4819.58
0 0 0 0 0 0 0 0 29736.9 0 0 -29736.9 0 0 5034.47 0 0 -5034.47
0 0 0 0 0 0 0 0 29064.9 0 0 -29064.9 0 0 5251.93 0 0 -5251.93
0 0 0 0 0 0 0 0 28192.6 0 0 -28192.6 0 0 5468.65 0 0 -5468.65
0 0 0 0 0 0 0 0 27191.2 0 0 -27191.2 0 0 5676.71 0 0 -5676.71
0 0 0 0 0 0 0 0 26088.9 0 0 -26088.9 0 0 5869.47 0 0 -5869.47
0 0 0 0 0 0 0 0 24925 0 0 -24925 0 0 6040.59 0 0 -6040.59
0 0 0 0 0 0 0 0 23737.1 0 0 -23737.1 0 0 6183.51 0 0 -6183.51
0 0 0 0 0 0 0 0 22567.3 0 0 -22567.3 0 0 6292.45 0 0 -6292.45
0 0 0 0 0 0 0 0 21456.2 0 0 -21456.2 0 0 6361.74 0 0 -6361.74
0 0 0 0 0 0 0 0 20438.1 0 0 -20438.1 0 0 6386.61 0 0 -6386.61
0 0 0 0 0 0 0 0 19541.9 0 0 -19541.9 0 0 6350.56 0 0 -6350.56
0 0 0 0 0 0 0 0 18790.1 0 0 -18790.1 0 0 6246.15 0 0 -6246.15
0 0 0 0 0 0 0 0 18205.2 0 0 -18205.2 0 0 6071.53 0 0 -6071.53
0 0 0 0 0 0 0 0 17803.5 0 0 -17803.5 0 0 5826.92 0 0 -5826.92
0 0 0 0 0 0 0 0 17594.9 0 0 -17594.9 0 0 5513.63 0 0 -5513.63
0 0 0 0 0 0 0 0 17584 0 0 -17584 0 0 5135.04 0 0 -5135.04
0 0 0 0 0 0 0 0 17769 0 0 -17769 0 0 4696.87 0 0 -4696.87
0 0 0 0 0 0 0 0 18143.3 0 0 -18143.3 0 0 4206.82 0 0 -4206.82
0 0 0 0 0 0 0 0 18696.9 0 0 -18696.9 0 0 3673.9 0 0 -3673.9
0 0 0 0 0 0 0 0 19406.7 0 0 -19406.7 0 0 3108.61 0 0 -3108.61
0 0 0 0 0 0 0 0 20245.2 0 0 -20245.2 0 0 2522.63 0 0 -2522.63
0 0 0 0 0 0 0 0 21180.6 0 0 -21180.6 0 0 1928.48 0 0 -1928.48
0 0 0 0 0 0 0 0 22142.8 0 0 -22142.8 0 0 1342 0 0 -1342
0 0 0 0 0 0 0 0 23124.5 0 0 -23124.5 0 0 775.411 0 0 -775.411
0 0 0 0 0 0 0 0 24116 0 0 -24116 0 0 244.976 0 0 -244.976
0 0 0 0 0 0 0 0 25067.2 0 0 -25067.2 0 0 -172.987 0 0 172.987
0 0 0 0 0 0 0 0 25951.2 0 0 -25951.2 0 0 -521.147 0 0 521.147
0 0 0 0 0 0 0 0 26725.3 0 0 -26725.3 0 0 -821.699 0 0 821.699
0 0 0 0 0 0 0 0 27367 0 0 -27367 0 0 -1065.88 0 0 1065.88
0 0 0 0 0 0 0 0 27840.5 0 0 -27840.5 0 0 -1245.15 0 0 1245.15
0 0 0 0 0 0 0 0 28025.4 0 0 -28025.4 0 0 -1352.26 0 0 1352.26
0 0 0 0 0 0 0 0 28110.2 0 0 -28110.2 0 0 -1395.34 0 0 1395.34
0 0 0 0 0 0 0 0 28128.2 0 0 -28128.2 0 0 -1378.09 0 0 1378.09
0 0 0 0 0 0 0 0 27905.2 0 0 -27905.2 0 0 -1263.86 0 0 1263.86
0 0 0 0 0 0 0 0 27541.3 0 0 -27541.3 0 0 -1066.58 0 0 1066.58
0 0 0 0 0 0 0 0 27078.5 0 0 -27078.5 0 0 -794.491 0 0 794.491
0 0 0 0 0 0 0 0 26525.1 0 0 -26525.1 0 0 -455.439 0 0 455.439
0 0 0 0 0 0 0 0 25875.5 0 0 -25875.5 0 0 -58.7498 0 0 58.7498
0 0 0 0 0 0 0 0 25139 0 0 -25139 0 0 344.345 0 0 -344.345
0 0 0 0 0 0 0 0 24359.3 0 0 -24359.3 0 0 783.707 0 0 -783.707
0 0 0 0 0 0 0 0 23579.9 0 0 -23579.9 0 0 1250.06 0 0 -1250.06
0 0 0 0 0 0 0 0 22818.9 0 0 -22818.9 0 0 1734.16 0 0 -1734.16
0 0 0 0 0 0 0 0 22088.7 0 0 -22088.7 0 0 2224.84 0 0 -2224.84
0 0 0 0 0 0 0 0 21413.6 0 0 -21413.6 0 0 2713.99 0 0 -2713.99
0 0 0 0 0 0 0 0 20832.1 0 0 -20832.1 0 0 3193.19 0 0 -3193.19
0 0 0 0 0 0 0 0 20356.2 0 0 -20356.2 0 0 3653.93 0 0 -3653.93
0 0 0 0 0 0 0 0 20011.4 0 0 -20011.4 0 0 4086.87 0 0 -4086.87
0 0 0 0 0 0 0 0 19809.9 0 0 -19809.9 0 0 4482.89 0 0 -4482.89
0 0 0 0 0 0 0 0 19760.3 0 0 -19760.3 0 0 4836.59 0 0 -4836.59
0 0 0 0 0 0 0 0 19870.3 0 0 -19870.3 0 0 5143.54 0 0 -5143.54
0 0 0 0 0 0 0 0 20142.6 0 0 -20142.6 0 0 5400.77 0 0 -5400.77
0 0 0 0 0 0 0 0 20572.4 0 0 -20572.4 0 0 5605.59 0 0 -5605.59
0 0 0 0 0 0 0 0 21148.6 0 0 -21148.6 0 0 5756.56 0 0 -5756.56
0 0 0 0 0 0 0 0 21860 0 0 -21860 0 0 5853.63 0 0 -5853.63
0 0 0 0 0 0 0 0 22693.7 0 0 -22693.7 0 0 5898.6 0 0 -5898.6
0 0 0 0 0 0 0 0 23633.4 0 0 -23633.4 0 0 5892.56 0 0 -5892.56
0 0 0 0 0 0 0 0 24660.9 0 0 -24660.9 0 0 5836.03 0 0 -5836.03
0 0 0 0 0 0 0 0 25758.1 0 0 -25758.1 0 0 5733.67 0 0 -5733.67
0 0 0 0 0 0 0 0 26906.2 0 0 -26906.2 0 0 5591.31 0 0 -5591.31
0 0 0 0 0 0 0 0 28086 0 0 -28086 0 0 5415.56 0 0 -5415.56
0 0 0 0 0 0 0 0 29275.5 0 0 -29275.5 0 0 5213.86 0 0 -5213.86
0 0 0 0 0 0 0 0 30451.5 0 0 -30451.5 0 0 4994.27 0 0 -4994.27
0 0 0 0 0 0 0 0 31588.5 0 0 -31588.5 0 0 4765 0 0 -4765
0 0 0 0 0 0 0 0 32659.3 0 0 -32659.3 0 0 4534.22 0 0 -4534.22
0 0 0 0 0 0 0 0 33636.6 0 0 -33636.6 0 0 4309.95 0 0 -4309.95
0 0 0 0 0 0 0 0 34490.9 0 0 -34490.9 0 0 4099.96 0 0 -4099.96
0 0 0 0 0 0 0 0 35193.3 0 0 -35193.3 0 0 3911.56 0 0 -3911.56
0 0 0 0 0 0 0 0 35715.7 0 0 -35715.7 0 0 3751.16 0 0 -3751.16
0 0 0 0 0 0 0 0 36032.5 0 0 -36032.5 0 0 3624 0 0 -3624
0 0 0 0 0 0 0 0 36123.6 0 0 -36123.6 0 0 3533.91 0 0 -3533.91
0 0 0 0 0 0 0 0 35973.3 0 0 -35973.3 0 0 3483.23 0 0 -3483.23
0 0 0 0 0 0 0 0 35573.3 0 0 -35573.3 0 0 3472.67 0 0 -3472.67
0 0 0 0 0 0 0 0 34921.4 0 0 -34921.4 0 0 3501.31 0 0 -3501.31
0 0 0 0 0 0 0 0 34021.6 0 0 -34021.6 0 0 3566.51 0 0 -3566.51
0 0 0 0 0 0 0 0 32884.1 0 0 -32884.1 0 0 3664.04 0 0 -3664.04
0 0 0 0 0 0 0 0 31524 0 0 -31524 0 0 3788.22 0 0 -3788.22
0 0 0 0 0 0 0 0 29961.6 0 0 -29961.6 0 0 3932.09 0 0 -3932.09
0 0 0 0 0 0 0 0 28222.7 0 0 -28222.7 0 0 4087.59 0 0 -4087.59
0 0 0 0 0 0 0 0 26336.1 0 0 -26336.1 0 0 4245.74 0 0 -4245.74
0 0 0 0 0 0 0 0 24335.5 0 0 -24335.5 0 0 4396.93 0 0 -4396.93
0 0 0 0 0 0 0 0 22255.3 0 0 -22255.3 0 0 4531.24 0 0 -4531.24
0 0 0 0 0 0 0 0 20130.7 0 0 -20130.7 0 0 4638.81 0 0 -4638.81
0 0 0 0 0 0 0 0 17996.2 0 0 -17996.2 0 0 4710.11 0 0 -4710.11
0 0 0 0 0 0 0 0 15884.6 0 0 -15884.6 0 0 4736.23 0 0 -4736.23
0 0 0 0 0 0 0 0 13827.9 0 0 -13827.9 0 0 4709.1 0 0 -4709.1
0 0 0 0 0 0 0 0 11856.4 0 0 -11856.4 0 0 4621.66 0 0 -4621.66
0 0 0 0 0 0 0 0 9998.07 0 0 -9998.07 0 0 4468.14 0 0 -4468.14
0 0 0 0 0 0 0 0 8312.89 0 0 -8312.89 0 0 4241.88 0 0 -4241.88
0 0 0 0 0 0 0 0 6795.41 0 0 -6795.41 0 0 3941.25 0 0 -3941.25
0 0 0 0 0 0 0 0 5422.29 0 0 -5422.29 0 0 3572.86 0 0 -3572.86
0 0 0 0 0 0 0 0 4252.86 0 0 -4252.86 0 0 3129.45 0 0 -3129.45
0 0 0 0 0 0 0 0 3277.99 0 0 -3277.99 0 0 2617.15 0 0 -2617.15
0 0 0 0 0 0 0 0 2493.92 0 0 -2493.92 0 0 2040.6 0 0 -2040.6
0 0 0 0 0 0 0 0 1900.79 0 0 -1900.79 0 0 1407.08 0 0 -1407.08
0 0 0 0 0 0 0 0 1497.34 0 0 -1497.34 0 0 724.508 0 0 -724.508
0 0 0 0 0 0 0 0 1273.83 0 0 -1273.83 0 0 -1.56965 0 0 1.56965
0 0 0 0 0 0 0 0 1252.88 0 0 -1252.88 0 0 -557.728 0 0 557.728
0 0 0 0 0 0 0 0 1398.26 0 0 -1398.26 0 0 -1153.55 0 0 1153.55
0 0 0 0 0 0 0 0 1642.66 0 0 -1642.66 0 0 -1751.11 0 0 1751.11
0 0 0 0 0 0 0 0 1965.69 0 0 -1965.69 0 0 -2341.74 0 0 2341.74
0 0 0 0 0 0 0 0 2317.5 0 0 -2317.5 0 0 -2911.75 0 0 2911.75
0 0 0 0 0 0 0 0 2676.67 0 0 -2676.67 0 0 -3455.71 0 0 3455.71
0 0 0 0 0 0 0 0 3046.34 0 0 -3046.34 0 0 -3971.51 0 0 3971.51
0 0 -1610.03 0 0 1610.03 0 0 3162.01 0 0 -3162.01 0 0 -4438.97 0 0 4438.97
0 0 -3525.38 0 0 3525.38 0 0 3010.9 0 0 -3010.9 0 0 -4844.29 0 0 4844.29
0 0 -5653.14 0 0 5653.14 0 0 2722.37 0 0 -2722.37 0 0 -5189.4 0 0 5189.4
0 0 -8143.9 0 0 8143.9 0 0 2293.25 0 0 -2293.25 0 0 -5471.89 0 0 5471.89
0 0 -10790.2 0 0 10790.2 0 0 1656.26 0 0 -1656.26 0 0 -5688.95 0 0 5688.95
0 0 -13519.2 0 0 13519.2 0 0 752.152 0 0 -752.152 0 0 -5837.83 0 0 5837.83
0 0 -16429.5 0 0 16429.5 0 0 -390.09 0 0 390.09 0 0 -5918.18 0 0 5918.18
0 0 -19508.1 0 0 19508.1 0 0 -1764.5 0 0 1764.5 0 0 -5924.94 0 0 5924.94
0 0 -22652 0 0 22652 0 0 -3382.2 0 0 3382.2 0 0 -5845.32 0 0 5845.32
0 0 -25823.9 0 0 25823.9 0 0 -5196.56 0 0 5196.56 0 0 -5687.26 0 0 5687.26
0 0 -29038.6 0 0 29038.6 0 0 -7148.62 0 0 7148.62 0 0 -5465.42 0 0 5465.42
0 0 -32292.3 0 0 32292.3 0 0 -9306.12 0 0 9306.12 0 0 -5177.07 0 0 5177.07
0 0 -35556 0 0 35556 0 0 -11579.6 0 0 11579.6 0 0 -4840.77 0 0 4840.77
0 0 -38821.7 0 0 38821.7 0 0 -13935.5 0 0 13935.5 0 0 -4467.45 0 0 4467.45
0 0 -42091.6 0 0 42091.6 0 0 -16335 0 0 16335 0 0 -4072.02 0 0 4072.02
0 0 -45345.2 0 0 45345.2 0 0 -18744.3 0 0 18744.3 0 0 -3668.93 0 0 3668.93
0 0 -48559 0 0 48559 0 0 -21119.8 0 0 21119.8 0 0 -3272.2 0 0 3272.2
0 0 -51718.1 0 0 51718.1 0 0 -23408.7 0 0 23408.7 0 0 -2896.3 0 0 2896.3
0 0 -54803 0 0 54803 0 0 -25571.6 0 0 25571.6 0 0 -2554.37 0 0 2554.37
0 0 -57785.9 0 0 57785.9 0 0 -27580.4 0 0 27580.4 0 0 -2258.59 0 0 2258.59
0 0 -60638 0 0 60638 0 0 -29409.2 0 0 29409.2 0 0 -2019.87 0 0 2019.87
0 0 -63102.6 0 0 63102.6 0 0 -30944.6 0 0 30944.6 0 0 -1854.51 0 0 1854.51
0 0 -50226.8 0 0 50226.8 0 0 -29964.6 0 0 29964.6 0 0 -1955.59 0 0 1955.59
0 0 -56283.7 0 0 56283.7 0 0 -25820.9 0 0 25820.9 0 0 -2284.26 0 0 2284.26
0 0 -56391.7 0 0 56391.7 0 0 -32894.6 0 0 32894.6 0 0 -1756.65 0 0 1756.65
0 0 -59585 0 0 59585 0 0 -31056.6 0 0 31056.6 0 0 -1903.45 0 0 1903.45
0 0 -61384.9 0 0 61384.9 0 0 -31065.9 0 0 31065.9 0 0 -2207.8 0 0 2207.8
0 0 -63209.3 0 0 63209.3 0 0 -33027.3 0 0 33027.3 0 0 -2097.93 0 0 2097.93
0 0 -64976.6 0 0 64976.6 0 0 -33332.6 0 0 33332.6 0 0 -2311.47 0 0 2311.47
0 0 -66259.8 0 0 66259.8 0 0 -34245.1 0 0 34245.1 0 0 -2370.85 0 0 2370.85
0 0 -67580.5 0 0 67580.5 0 0 -34270.8 0 0 34270.8 0 0 -2583.93 0 0 2583.93
0 0 -68826.7 0 0 68826.7 0 0 -34222.7 0 0 34222.7 0 0 -2861.94 0 0 2861.94
0 0 -69974.7 0 0 69974.7 0 0 -34617.7 0 0 34617.7 0 0 -3117.5 0 0 3117.5
0 0 -71129.5 0 0 71129.5 0 0 -34859.9 0 0 34859.9 0 0 -3387.94 0 0 3387.94
0 0 -72253.5 0 0 72253.5 0 0 -34894.4 0 0 34894.4 0 0 -3665.28 0 0 3665.28
0 0 -73359 0 0 73359 0 0 -34779.8 0 0 34779.8 0 0 -3965.6 0 0 3965.6
0 0 -74344.4 0 0 74344.4 0 0 -34725.9 0 0 34725.9 0 0 -4285.38 0 0 4285.38
0 0 -74353.6 0 0 74353.6 0 0 -35074.8 0 0 35074.8 0 0 -4582.25 0 0 4582.25
0 0 -74365.7 0 0 74365.7 0 0 -35431.3 0 0 35431.3 0 0 -4868.3 0 0 4868.3
0 0 -74500 0 0 74500 0 0 -35694.8 0 0 35694.8 0 0 -5138.48 0 0 5138.48
0 0 -74719.4 0 0 74719.4 0 0 -35945.6 0 0 35945.6 0 0 -5380.97 0 0 5380.97
0 0 -74930.8 0 0 74930.8 0 0 -36294.8 0 0 36294.8 0 0 -5606.99 0 0 5606.99
0 0 -75176.4 0 0 75176.4 0 0 -36749.9 0 0 36749.9 0 0 -5813.6 0 0 5813.6
0 0 -75520 0 0 75520 0 0 -37228.7 0 0 37228.7 0 0 -5976.38 0 0 5976.38
0 0 -75940.9 0 0 75940.9 0 0 -37711.2 0 0 37711.2 0 0 -6103.06 0 0 6103.06
0 0 -76406.9 0 0 76406.9 0 0 -38247.4 0 0 38247.4 0 0 -6205.5 0 0 6205.5
0 0 -76936.9 0 0 76936.9 0 0 -38858.4 0 0 38858.4 0 0 -6287.03 0 0 6287.03
0 0 -77543.4 0 0 77543.4 0 0 -39526.5 0 0 39526.5 0 0 -6348.61 0 0 6348.61
0 0 -78209.5 0 0 78209.5 0 0 -40222.7 0 0 40222.7 0 0 -6390.34 0 0 6390.34
0 0 0 0 0 0 0 0 -32632.8 0 0 32632.8 0 0 -6679.19 0 0 6679.19
0 0 0 0 0 0 0 0 -27542.5 0 0 27542.5 0 0 -6937.21 0 0 6937.21
0 0 0 0 0 0 0 0 -27472.7 0 0 27472.7 0 0 -7094.93 0 0 7094.93
0 0 0 0 0 0 0 0 -32408.6 0 0 32408.6 0 0 -6672.31 0 0 6672.31
0 0 0 0 0 0 0 0 -33803.5 0 0 33803.5 0 0 -6400.17 0 0 6400.17
0 0 0 0 0 0 0 0 -32354.8 0 0 32354.8 0 0 -6239.04 0 0 6239.04
0 0 0 0 0 0 0 0 -32970.2 0 0 32970.2 0 0 -6009.56 0 0 6009.56
0 0 0 0 0 0 0 0 -35559.6 0 0 35559.6 0 0 -5649.75 0 0 5649.75
0 0 0 0 0 0 0 0 -36907.8 0 0 36907.8 0 0 -5304.26 0 0 5304.26
0 0 0 0 0 0 0 0 -36977.2 0 0 36977.2 0 0 -4975.28 0 0 4975.28
0 0 0 0 0 0 0 0 -37696.7 0 0 37696.7 0 0 -4604.53 0 0 4604.53
0 0 0 0 0 0 0 0 -39035.6 0 0 39035.6 0 0 -4228.66 0 0 4228.66
0 0 0 0 0 0 0 0 -39352.2 0 0 39352.2 0 0 -3933.73 0 0 3933.73
0 0 0 0 0 0 0 0 -38975.2 0 0 38975.2 0 0 -3683.88 0 0 3683.88
0 0 0 0 0 0 0 0 -38657.3 0 0 38657.3 0 0 -3434.33 0 0 3434.33
0 0 0 0 0 0 0 0 -38442.7 0 0 38442.7 0 0 -3175.15 0 0 3175.15
0 0 0 0 0 0 0 0 -38124.4 0 0 38124.4 0 0 -2954.34 0 0 2954.34
0 0 0 0 0 0 0 0 -37783.3 0 0 37783.3 0 0 -2764.56 0 0 2764.56
0 0 0 0 0 0 0 0 -37538.5 0 0 37538.5 0 0 -2591.96 0 0 2591.96
0 0 0 0 0 0 0 0 -37346.9 0 0 37346.9 0 0 -2432.47 0 0 2432.47
0 0 0 0 0 0 0 0 -37115.3 0 0 37115.3 0 0 -2292.65 0 0 2292.65
0 0 0 0 0 0 0 0 -36840.8 0 0 36840.8 0 0 -2181.77 0 0 2181.77
0 0 0 0 0 0 0 0 -36527.7 0 0 36527.7 0 0 -2107.04 0 0 2107.04
0 0 0 0 0 0 0 0 -36245.4 0 0 36245.4 0 0 -2060.38 0 0 2060.38
0 0 0 0 0 0 0 0 -35906.7 0 0 35906.7 0 0 -2040.51 0 0 2040.51
0 0 0 0 0 0 0 0 -35471.1 0 0 35471.1 0 0 -2047.01 0 0 2047.01
0 0 0 0 0 0 0 0 -35014.6 0 0 35014.6 0 0 -2076.94 0 0 2076.94
0 0 0 0 0 0 0 0 -34598.1 0 0 34598.1 0 0 -2128.48 0 0 2128.48
0 0 0 0 0 0 0 0 -34207.7 0 0 34207.7 0 0 -2200.15 0 0 2200.15
0 0 0 0 0 0 0 0 -33821.3 0 0 33821.3 0 0 -2288.26 0 0 2288.26
0 0 0 0 0 0 0 0 -33464.6 0 0 33464.6 0 0 -2387.09 0 0 2387.09
0 0 0 0 0 0 0 0 -33174.1 0 0 33174.1 0 0 -2492.76 0 0 2492.76
0 0 0 0 0 0 0 0 -32955.8 0 0 32955.8 0 0 -2604.29 0 0 2604.29
0 0 0 0 0 0 0 0 -32803 0 0 32803 0 0 -2720.75 0 0 2720.75
0 0 0 0 0 0 0 0 -32716 0 0 32716 0 0 -2839.43 0 0 2839.43
0 0 0 0 0 0 0 0 -32698.1 0 0 32698.1 0 0 -2957.15 0 0 2957.15
0 0 0 0 0 0 0 0 -32744.7 0 0 32744.7 0 0 -3072.38 0 0 3072.38
0 0 0 0 0 0 0 0 -32841.4 0 0 32841.4 0 0 -3185.16 0 0 3185.16
0 0 0 0 0 0 0 0 -32976.4 0 0 32976.4 0 0 -3295.82 0 0 3295.82
0 0 0 0 0 0 0 0 -33140.1 0 0 33140.1 0 0 -3403.92 0 0 3403.92
0 0 0 0 0 0 0 0 -33324.8 0 0 33324.8 0 0 -3508.33 0 0 3508.33
0 0 0 0 0 0 0 0 -33527.6 0 0 33527.6 0 0 -3607.96 0 0 3607.96
0 0 0 0 0 0 0 0 -33745.9 0 0 33745.9 0 0 -3702.28 0 0 3702.28
0 0 0 0 0 0 0 0 -33978.4 0 0 33978.4 0 0 -3791.09 0 0 3791.09
0 0 0 0 0 0 0 0 -34224.9 0 0 34224.9 0 0 -3874.04 0 0 3874.04
0 0 0 0 0 0 0 0 -34485.7 0 0 34485.7 0 0 -3950.37 0 0 3950.37
0 0 0 0 0 0 0 0 -34764.8 0 0 34764.8 0 0 -4019.26 0 0 4019.26
0 0 0 0 0 0 0 0 -35063.4 0 0 35063.4 0 0 -4080.31 0 0 4080.31
0 0 0 0 0 0 0 0 -35381 0 0 35381 0 0 -4133.65 0 0 4133.65
0 0 0 0 0 0 0 0 -35718.1 0 0 35718.1 0 0 -4179.56 0 0 4179.56
0 0 0 0 0 0 0 0 -36074.7 0 0 36074.7 0 0 -4218.25 0 0 4218.25
0 0 0 0 0 0 0 0 -36453.3 0 0 36453.3 0 0 -4249.92 0 0 4249.92
0 0 0 0 0 0 0 0 -36853.7 0 0 36853.7 0 0 -4275.12 0 0 4275.12
0 0 0 0 0 0 0 0 -37273.7 0 0 37273.7 0 0 -4294.81 0 0 4294.81
0 0 0 0 0 0 0 0 -37709.6 0 0 37709.6 0 0 -4310.35 0 0 4310.35
0 0 0 0 0 0 0 0 -38152.7 0 0 38152.7 0 0 -4323.37 0 0 4323.37
0 0 0 0 0 0 0 0 -38593.3 0 0 38593.3 0 0 -4335.68 0 0 4335.68
0 0 0 0 0 0 0 0 -39018.5 0 0 39018.5 0 0 -4349.26 0 0 4349.26
0 0 0 0 0 0 0 0 -39413.4 0 0 39413.4 0 0 -4366.19 0 0 4366.19
0 0 0 0 0 0 0 0 -39759.8 0 0 39759.8 0 0 -4388.71 0 0 4388.71
0 0 0 0 0 0 0 0 -40012.8 0 0 40012.8 0 0 -4420.88 0 0 4420.88
0 0 0 0 0 0 0 0 -40184.8 0 0 40184.8 0 0 -4461.93 0 0 4461.93
0 0 0 0 0 0 0 0 -40271.2 0 0 40271.2 0 0 -4512.97 0 0 4512.97
0 0 0 0 0 0 0 0 -40255.4 0 0 40255.4 0 0 -4574.69 0 0 4574.69
0 0 0 0 0 0 0 0 -40118.7 0 0 40118.7 0 0 -4647.64 0 0 4647.64
0 0 0 0 0 0 0 0 -39852.8 0 0 39852.8 0 0 -4731.37 0 0 4731.37
0 0 0 0 0 0 0 0 -39459.2 0 0 39459.2 0 0 -4824.43 0 0 4824.43
0 0 0 0 0 0 0 0 -38936.5 0 0 38936.5 0 0 -4924.95 0 0 4924.95
0 0 0 0 0 0 0 0 -38287.1 0 0 38287.1 0 0 -5030.13 0 0 5030.13
0 0 0 0 0 0 0 0 -37523.7 0 0 37523.7 0 0 -5136.39 0 0 5136.39
0 0 0 0 0 0 0 0 -36661.7 0 0 36661.7 0 0 -5239.7 0 0 5239.7
0 0 0 0 0 0 0 0 -35714.9 0 0 35714.9 0 0 -5335.88 0 0 5335.88
0 0 0 0 0 0 0 0 -34700.6 0 0 34700.6 0 0 -5420.47 0 0 5420.47
0 0 0 0 0 0 0 0 -33632.8 0 0 33632.8 0 0 -5489.07 0 0 5489.07
0 0 0 0 0 0 0 0 -32531.1 0 0 32531.1 0 0 -5537.12 0 0 5537.12
0 0 0 0 0 0 0 0 -31413.5 0 0 31413.5 0 0 -5560.39 0 0 5560.39
0 0 0 0 0 0 0 0 -30298.4 0 0 30298.4 0 0 -5554.97 0 0 5554.97
0 0 0 0 0 0 0 0 -29204.6 0 0 29204.6 0 0 -5517.4 0 0 5517.4
0 0 0 0 0 0 0 0 -28147.1 0 0 28147.1 0 0 -5444.89 0 0 5444.89
0 0 0 0 0 0 0 0 -27140.1 0 0 27140.1 0 0 -5335.37 0 0 5335.37
0 0 0 0 0 0 0 0 -26194.6 0 0 26194.6 0 0 -5187.66 0 0 5187.66
0 0 0 0 0 0 0 0 -25319.4 0 0 25319.4 0 0 -5001.4 0 0 5001.4
0 0 0 0 0 0 0 0 -24523 0 0 24523 0 0 -4777.13 0 0 4777.13
0 0 0 0 0 0 0 0 -23809.4 0 0 23809.4 0 0 -4516.27 0 0 4516.27
0 0 0 0 0 0 0 0 -23181.4 0 0 23181.4 0 0 -4221.2 0 0 4221.2
0 0 0 0 0 0 0 0 -22638.2 0 0 22638.2 0 0 -3895.22 0 0 3895.22
0 0 0 0 0 0 0 0 -22174.3 0 0 22174.3 0 0 -3542.58 0 0 3542.58
0 0 0 0 0 0 0 0 -21782.1 0 0 21782.1 0 0 -3168.34 0 0 3168.34
0 0 0 0 0 0 0 0 -21448.7 0 0 21448.7 0 0 -2778.34 0 0 2778.34
0 0 0 0 0 0 0 0 -21159.3 0 0 21159.3 0 0 -2378.95 0 0 2378.95
0 0 0 0 0 0 0 0 -20871.2 0 0 20871.2 0 0 -1978.08 0 0 1978.08
0 0 0 0 0 0 0 0 -20562.4 0 0 20562.4 0 0 -1583.63 0 0 1583.63
0 0 0 0 0 0 0 0 -20238.1 0 0 20238.1 0 0 -1200.82 0 0 1200.82
0 0 0 0 0 0 0 0 -19900.2 0 0 19900.2 0 0 -834.624 0 0 834.624
0 0 0 0 0 0 0 0 -19519.9 0 0 19519.9 0 0 -492.161 0 0 492.161
0 0 0 0 0 0 0 0 -19064.5 0 0 19064.5 0 0 -180.071 0 0 180.071
0 0 0 0 0 0 0 0 -18516.7 0 0 18516.7 0 0 59.262 0 0 -59.262
0 0 0 0 0 0 0 0 -17885 0 0 17885 0 0 242.156 0 0 -242.156
0 0 0 0 0 0 0 0 -17124.2 0 0 17124.2 0 0 388.254 0 0 -388.254
0 0 0 0 0 0 0 0 -16218 0 0 16218 0 0 502.202 0 0 -502.202
0 0 0 0 0 0 0 0 -15162.3 0 0 15162.3 0 0 580.339 0 0 -580.339
0 0 0 0 0 0 0 0 -13951.6 0 0 13951.6 0 0 623.752 0 0 -623.752
0 0 0 0 0 0 0 0 -12597.4 0 0 12597.4 0 0 635.644 0 0 -635.644
0 0 0 0 0 0 0 0 -11117.5 0 0 11117.5 0 0 612.039 0 0 -612.039
0 0 0 0 0 0 0 0 -9536.94 0 0 9536.94 0 0 556.056 0 0 -556.056
0 0 0 0 0 0 0 0 -7886.44 0 0 7886.44 0 0 472.363 0 0 -472.363
0 0 0 0 0 0 0 0 -6196.15 0 0 6196.15 0 0 367.277 0 0 -367.277
0 0 0 0 0 0 0 0 -4498.83 0 0 4498.83 0 0 248.386 0 0 -248.386
0 0 0 0 0 0 0 0 -2827.13 0 0 2827.13 0 0 123.68 0 0 -123.68
0 0 0 0 0 0 0 0 -1209.74 0 0 1209.74 0 0 0.0732371 0 0 -0.0732371
0 0 0 0 0 0 0 0 297.674 0 0 -297.674 0 0 -110.245 0 0 110.245
0 0 0 0 0 0 0 0 1461.61 0 0 -1461.61 0 0 -193.205 0 0 193.205
0 0 0 0 0 0 0 0 2610.45 0 0 -2610.45 0 0 -269.372 0 0 269.372
0 0 0 0 0 0 0 0 3609.42 0 0 -3609.42 0 0 -321.832 0 0 321.832
0 0 0 0 0 0 0 0 4493.7 0 0 -4493.7 0 0 -351.782 0 0 351.782
0 0 0 0 0 0 0 0 5374.53 0 0 -5374.53 0 0 -364.568 0 0 364.568
0 0 0 0 0 0 0 0 6024.96 0 0 -6024.96 0 0 -342.252 0 0 342.252
0 0 0 0 0 0 0 0 6621.16 0 0 -6621.16 0 0 -292.774 0 0 292.774
0 0 0 0 0 0 0 0 7102.59 0 0 -7102.59 0 0 -219.081 0 0 219.081
0 0 0 0 0 0 0 0 7470.1 0 0 -7470.1 0 0 -113.894 0 0 113.894
0 0 0 0 0 0 0 0 7759.66 0 0 -7759.66 0 0 9.25272 0 0 -9.25272
0 0 0 0 0 0 0 0 7966.79 0 0 -7966.79 0 0 131.349 0 0 -131.349
0 0 0 0 0 0 0 0 8120.58 0 0 -8120.58 0 0 264.04 0 0 -264.04
0 0 0 0 0 0 0 0 8176.17 0 0 -8176.17 0 0 414.038 0 0 -414.038
0 0 0 0 0 0 0 0 8187.58 0 0 -8187.58 0 0 575.664 0 0 -575.664
0 0 0 0 0 0 0 0 8164.47 0 0 -8164.47 0 0 744.895 0 0 -744.895
0 0 0 0 0 0 0 0 8125.43 0 0 -8125.43 0 0 920.223 0 0 -920.223
0 0 0 0 0 0 0 0 8085.84 0 0 -8085.84 0 0 1098.16 0 0 -1098.16
0 0 0 0 0 0 0 0 8066.8 0 0 -8066.8 0 0 1275.51 0 0 -1275.51
0 0 0 0 0 0 0 0 8089.62 0 0 -8089.62 0 0 1448.03 0 0 -1448.03
0 0 0 0 0 0 0 0 8166.83 0 0 -8166.83 0 0 1612.65 0 0 -1612.65
0 0 0 0 0 0 0 0 8310.33 0 0 -8310.33 0 0 1766.87 0 0 -1766.87
0 0 0 0 0 0 0 0 8534.96 0 0 -8534.96 0 0 1908.62 0 0 -1908.62
0 0 0 0 0 0 0 0 8841.42 0 0 -8841.42 0 0 2036.39 0 0 -2036.39
0 0 0 0 0 0 0 0 9235.3 0 0 -9235.3 0 0 2149.12 0 0 -2149.12
0 0 0 0 0 0 0 0 9742.8 0 0 -9742.8 0 0 2243.49 0 0 -2243.49
0 0 0 0 0 0 0 0 10353.1 0 0 -10353.1 0 0 2320.52 0 0 -2320.52
0 0 0 0 0 0 0 0 11069.2 0 0 -11069.2 0 0 2380.41 0 0 -2380.41
0 0 0 0 0 0 0 0 11820.2 0 0 -11820.2 0 0 2427.54 0 0 -2427.54
0 0 0 0 0 0 0 0 12663.2 0 0 -12663.2 0 0 2459.55 0 0 -2459.55
0 0 0 0 0 0 0 0 13570.5 0 0 -13570.5 0 0 2479.84 0 0 -2479.84
0 0 0 0 0 0 0 0 14535.1 0 0 -14535.1 0 0 2488.88 0 0 -2488.88
0 0 0 0 0 0 0 0 15544.5 0 0 -15544.5 0 0 2488.91 0 0 -2488.91
0 0 0 0 0 0 0 0 16582.2 0 0 -16582.2 0 0 2482.21 0 0 -2482.21
0 0 0 0 0 0 0 0 17629.1 0 0 -17629.1 0 0 2472.96 0 0 -2472.96
0 0 0 0 0 0 0 0 18670.2 0 0 -18670.2 0 0 2464.94 0 0 -2464.94
0 0 0 0 0 0 0 0 19691.7 0 0 -19691.7 0 0 2461.4 0 0 -2461.4
0 0 0 0 0 0 0 0 20681.6 0 0 -20681.6 0 0 2465.71 0 0 -2465.71
0 0 0 0 0 0 0 0 21625.8 0 0 -21625.8 0 0 2481.31 0 0 -2481.31
0 0 0 0 0 0 0 0 22511.6 0 0 -22511.6 0 0 2505.86 0 0 -2505.86
0 0 0 0 0 0 0 0 23330.3 0 0 -23330.3 0 0 2543.22 0 0 -2543.22
0 0 0 0 0 0 0 0 24071.6 0 0 -24071.6 0 0 2593.39 0 0 -2593.39
0 0 0 0 0 0 0 0 24727.8 0 0 -24727.8 0 0 2659.02 0 0 -2659.02
0 0 0 0 0 0 0 0 25292.6 0 0 -25292.6 0 0 2740.56 0 0 -2740.56
0 0 0 0 0 0 0 0 25761.8 0 0 -25761.8 0 0 2838.38 0 0 -2838.38
0 0 0 0 0 0 0 0 26138.9 0 0 -26138.9 0 0 2952.07 0 0 -2952.07
0 0 0 0 0 0 0 0 26417.7 0 0 -26417.7 0 0 3081.27 0 0 -3081.27
0 0 0 0 0 0 0 0 26604.9 0 0 -26604.9 0 0 3224.44 0 0 -3224.44
0 0 0 0 0 0 0 0 26698.5 0 0 -26698.5 0 0 3379.9 0 0 -3379.9
0 0 0 0 0 0 0 0 26707.5 0 0 -26707.5 0 0 3545.6 0 0 -3545.6
0 0 0 0 0 0 0 0 26648.4 0 0 -26648.4 0 0 3718.35 0 0 -3718.35
0 0 0 0 0 0 0 0 26532.4 0 0 -26532.4 0 0 3895.46 0 0 -3895.46
0 0 0 0 0 0 0 0 26371.9 0 0 -26371.9 0 0 4073.76 0 0 -4073.76
0 0 0 0 0 0 0 0 26179.3 0 0 -26179.3 0 0 4250.04 0 0 -4250.04
0 0 0 0 0 0 0 0 25965.3 0 0 -25965.3 0 0 4421.02 0 0 -4421.02
0 0 0 0 0 0 0 0 25742.7 0 0 -25742.7 0 0 4583.49 0 0 -4583.49
0 0 0 0 0 0 0 0 25520.8 0 0 -25520.8 0 0 4734.47 0 0 -4734.47
0 0 0 0 0 0 0 0 25316.7 0 0 -25316.7 0 0 4871 0 0 -4871
0 0 0 0 0 0 0 0 25144.1 0 0 -25144.1 0 0 4989.77 0 0 -4989.77
0 0 0 0 0 0 0 0 24994.1 0 0 -24994.1 0 0 5089.73 0 0 -5089.73
0 0 0 0 0 0 0 0 24862.8 0 0 -24862.8 0 0 5169.4 0 0 -5169.4
0 0 0 0 0 0 0 0 24757.5 0 0 -24757.5 0 0 5227.2 0 0 -5227.2
0 0 0 0 0 0 0 0 24687.5 0 0 -24687.5 0 0 5261.8 0 0 -5261.8
0 0 0 0 0 0 0 0 24655.9 0 0 -24655.9 0 0 5272.45 0 0 -5272.45
0 0 0 0 0 0 0 0 24660.8 0 0 -24660.8 0 0 5252.9 0 0 -5252.9
0 0 0 0 0 0 0 0 24705.1 0 0 -24705.1 0 0 5202.35 0 0 -5202.35
0 0 0 0 0 0 0 0 24796 0 0 -24796 0 0 5121.25 0 0 -5121.25
0 0 0 0 0 0 0 0 24935.6 0 0 -24935.6 0 0 5010.94 0 0 -5010.94
0 0 0 0 0 0 0 0 25124.9 0 0 -25124.9 0 0 4873.17 0 0 -4873.17
0 0 0 0 0 0 0 0 25359.7 0 0 -25359.7 0 0 4710.6 0 0 -4710.6
0 0 0 0 0 0 0 0 25638 0 0 -25638 0 0 4526.54 0 0 -4526.54
0 0 0 0 0 0 0 0 25954 0 0 -25954 0 0 4325.08 0 0 -4325.08
0 0 0 0 0 0 0 0 26297.3 0 0 -26297.3 0 0 4110.7 0 0 -4110.7
0 0 0 0 0 0 0 0 26657 0 0 -26657 0 0 3888.16 0 0 -3888.16
0 0 0 0 0 0 0 0 27008.8 0 0 -27008.8 0 0 3663.06 0 0 -3663.06
0 0 0 0 0 0 0 0 27315 0 0 -27315 0 0 3442.97 0 0 -3442.97
0 0 0 0 0 0 0 0 27570.4 0 0 -27570.4 0 0 3230.13 0 0 -3230.13
0 0 0 0 0 0 0 0 27783.9 0 0 -27783.9 0 0 3028.35 0 0 -3028.35
0 0 0 0 0 0 0 0 27936.6 0 0 -27936.6 0 0 2844.41 0 0 -2844.41
0 0 0 0 0 0 0 0 28028.4 0 0 -28028.4 0 0 2679.49 0 0 -2679.49
0 0 0 0 0 0 0 0 28047.9 0 0 -28047.9 0 0 2536.97 0 0 -2536.97
0 0 0 0 0 0 0 0 27974 0 0 -27974 0 0 2419.75 0 0 -2419.75
0 0 0 0 0 0 0 0 27765.8 0 0 -27765.8 0 0 2332.69 0 0 -2332.69
0 0 0 0 0 0 0 0 27416.5 0 0 -27416.5 0 0 2276.79 0 0 -2276.79
0 0 0 0 0 0 0 0 26922.9 0 0 -26922.9 0 0 2252.14 0 0 -2252.14
0 0 0 0 0 0 0 0 26284.1 0 0 -26284.1 0 0 2257.36 0 0 -2257.36
0 0 0 0 0 0 0 0 25503.2 0 0 -25503.2 0 0 2290.19 0 0 -2290.19
0 0 0 0 0 0 0 0 24589.7 0 0 -24589.7 0 0 2347.35 0 0 -2347.35
0 0 0 0 0 0 0 0 23562.3 0 0 -23562.3 0 0 2424.48 0 0 -2424.48
0 0 0 0 0 0 0 0 22441.7 0 0 -22441.7 0 0 2516.37 0 0 -2516.37
0 0 0 0 0 0 0 0 21248.6 0 0 -21248.6 0 0 2617.16 0 0 -2617.16
0 0 0 0 0 0 0 0 20006.3 0 0 -20006.3 0 0 2720.61 0 0 -2720.61
0 0 0 0 0 0 0 0 18737.1 0 0 -18737.1 0 0 2820.39 0 0 -2820.39
0 0 0 0 0 0 0 0 17464.6 0 0 -17464.6 0 0 2910.25 0 0 -2910.25
0 0 0 0 0 0 0 0 16210.4 0 0 -16210.4 0 0 2984.19 0 0 -2984.19
0 0 0 0 0 0 0 0 14993.2 0 0 -14993.2 0 0 3036.59 0 0 -3036.59
0 0 0 0 0 0 0 0 13831.3 0 0 -13831.3 0 0 3062.35 0 0 -3062.35
0 0 0 0 0 0 0 0 12739.2 0 0 -12739.2 0 0 3057.09 0 0 -3057.09
0 0 0 0 0 0 0 0 11729.8 0 0 -11729.8 0 0 3017.28 0 0 -3017.28
0 0 0 0 0 0 0 0 10813.4 0 0 -10813.4 0 0 2940.38 0 0 -2940.38
0 0 0 0 0 0 0 0 9995.21 0 0 -9995.21 0 0 2824.82 0 0 -2824.82
0 0 0 0 0 0 0 0 9279.29 0 0 -9279.29 0 0 2670.07 0 0 -2670.07
0 0 0 0 0 0 0 0 8664.91 0 0 -8664.91 0 0 2476.62 0 0 -2476.62
0 0 0 0 0 0 0 0 8148.59 0 0 -8148.59 0 0 2246.03 0 0 -2246.03
0 0 0 0 0 0 0 0 7724.17 0 0 -7724.17 0 0 1980.93 0 0 -1980.93
0 0 0 0 0 0 0 0 7379.88 0 0 -7379.88 0 0 1684.9 0 0 -1684.9
0 0 0 0 0 0 0 0 7102.64 0 0 -7102.64 0 0 1362.34 0 0 -1362.34
0 0 0 0 0 0 0 0 6875.46 0 0 -6875.46 0 0 1018.41 0 0 -1018.41
0 0 0 0 0 0 0 0 6679.94 0 0 -6679.94 0 0 658.734 0 0 -658.734
0 0 0 0 0 0 0 0 6498.75 0 0 -6498.75 0 0 289.259 0 0 -289.259
0 0 0 0 0 0 0 0 6296.4 0 0 -6296.4 0 0 -55.1753 0 0 55.1753
0 0 0 0 0 0 0 0 6108.19 0 0 -6108.19 0 0 -365.139 0 0 365.139
0 0 0 0 0 0 0 0 5895.23 0 0 -5895.23 0 0 -665.946 0 0 665.946
0 0 0 0 0 0 0 0 5624.74 0 0 -5624.74 0 0 -953.495 0 0 953.495
0 0 0 0 0 0 0 0 5346.28 0 0 -5346.28 0 0 -1229.66 0 0 1229.66
0 0 0 0 0 0 0 0 5039.37 0 0 -5039.37 0 0 -1489.87 0 0 1489.87
0 0 0 0 0 0 0 0 4510.04 0 0 -4510.04 0 0 -1718.58 0 0 1718.58
0 0 0 0 0 0 0 0 3997.55 0 0 -3997.55 0 0 -1929.59 0 0 1929.59
0 0 0 0 0 0 0 0 3402.25 0 0 -3402.25 0 0 -2119.68 0 0 2119.68
0 0 0 0 0 0 0 0 2652.83 0 0 -2652.83 0 0 -2276.01 0 0 2276.01
0 0 0 0 0 0 0 0 1807.78 0 0 -1807.78 0 0 -2402.75 0 0 2402.75
0 0 0 0 0 0 0 0 852.193 0 0 -852.193 0 0 -2497.05 0 0 2497.05
0 0 0 0 0 0 0 0 -162.756 0 0 162.756 0 0 -2564.6 0 0 2564.6
0 0 0 0 0 0 0 0 -1299.22 0 0 1299.22 0 0 -2604.45 0 0 2604.45
0 0 0 0 0 0 0 0 -2523.73 0 0 2523.73 0 0 -2613.93 0 0 2613.93
0 0 0 0 0 0 0 0 -3766.91 0 0 3766.91 0 0 -2599.3 0 0 2599.3
0 0 0 0 0 0 0 0 -5072.67 0 0 5072.67 0 0 -2554.9 0 0 2554.9
0 0 0 0 0 0 0 0 -6439.57 0 0 6439.57 0 0 -2485.99 0 0 2485.99
0 0 0 0 0 0 0 0 -7862.52 0 0 7862.52 0 0 -2395.67 0 0 2395.67
0 0 0 0 0 0 0 0 -9321.19 0 0 9321.19 0 0 -2289.24 0 0 2289.24
0 0 0 0 0 0 0 0 -10793.9 0 0 10793.9 0 0 -2171.97 0 0 2171.97
0 0 0 0 0 0 0 0 -12252.9 0 0 12252.9 0 0 -2050.32 0 0 2050.32
0 0 0 0 0 0 0 0 -13702.4 0 0 13702.4 0 0 -1928.71 0 0 1928.71
0 0 0 0 0 0 0 0 -15142.1 0 0 15142.1 0 0 -1811.99 0 0 1811.99
0 0 0 0 0 0 0 0 -16562 0 0 16562 0 0 -1704.57 0 0 1704.57
0 0 0 0 0 0 0 0 -17940.8 0 0 17940.8 0 0 -1611.86 0 0 1611.86
0 0 0 0 0 0 0 0 -19263.8 0 0 19263.8 0 0 -1538.63 0 0 1538.63
0 0 0 0 0 0 0 0 -20523 0 0 20523 0 0 -1488.89 0 0 1488.89
0 0 0 0 0 0 0 0 -21711.6 0 0 21711.6 0 0 -1466.08 0 0 1466.08
0 0 0 0 0 0 0 0 -22816.1 0 0 22816.1 0 0 -1473.22 0 0 1473.22
0 0 0 0 0 0 0 0 -23825.6 0 0 23825.6 0 0 -1512.48 0 0 1512.48
0 0 0 0 0 0 0 0 -24734.1 0 0 24734.1 0 0 -1585.21 0 0 1585.21
0 0 0 0 0 0 0 0 -25537.1 0 0 25537.1 0 0 -1691.86 0 0 1691.86
0 0 0 0 0 0 0 0 -26233.7 0 0 26233.7 0 0 -1832.07 0 0 1832.07
0 0 0 0 0 0 0 0 -26825.1 0 0 26825.1 0 0 -2004.37 0 0 2004.37
0 0 0 0 0 0 0 0 -27316.6 0 0 27316.6 0 0 -2206.31 0 0 2206.31
0 0 0 0 0 0 0 0 -27720 0 0 27720 0 0 -2434.44 0 0 2434.44
0 0 0 0 0 0 0 0 -28048.1 0 0 28048.1 0 0 -2654.78 0 0 2654.78
0 0 0 0 0 0 0 0 -28324.9 0 0 28324.9 0 0 -2872.16 0 0 2872.16
0 0 0 0 0 0 0 0 -28573.4 0 0 28573.4 0 0 -3094.49 0 0 3094.49
0 0 0 0 0 0 0 0 -28814.6 0 0 28814.6 0 0 -3323.18 0 0 3323.18
0 0 0 0 0 0 0 0 -29081 0 0 29081 0 0 -3551.18 0 0 3551.18
0 0 0 0 0 0 0 0 -29346.3 0 0 29346.3 0 0 -3777.21 0 0 3777.21
0 0 0 0 0 0 0 0 -29664.9 0 0 29664.9 0 0 -3997.35 0 0 3997.35
0 0 0 0 0 0 0 0 -30049.9 0 0 30049.9 0 0 -4206.99 0 0 4206.99
0 0 0 0 0 0 0 0 -30482 0 0 30482 0 0 -4405.74 0 0 4405.74
0 0 0 0 0 0 0 0 -30963.8 0 0 30963.8 0 0 -4590.27 0 0 4590.27
0 0 0 0 0 0 0 0 -31525.9 0 0 31525.9 0 0 -4756.67 0 0 4756.67
0 0 0 0 0 0 0 0 -32162.9 0 0 32162.9 0 0 -4903.96 0 0 4903.96
0 0 0 0 0 0 0 0 -32879.3 0 0 32879.3 0 0 -5031.49 0 0 5031.49
0 0 0 0 0 0 0 0 -33671.9 0 0 33671.9 0 0 -5138.66 0 0 5138.66
0 0 0 0 0 0 0 0 -34544.6 0 0 34544.6 0 0 -5225.03 0 0 5225.03
0 0 0 0 0 0 0 0 -35498.2 0 0 35498.2 0 0 -5290.3 0 0 5290.3
0 0 0 0 0 0 0 0 -36523.8 0 0 36523.8 0 0 -5335.62 0 0 5335.62
0 0 0 0 0 0 0 0 -37611.2 0 0 37611.2 0 0 -5362.89 0 0 5362.89
0 0 0 0 0 0 0 0 -38749.8 0 0 38749.8 0 0 -5374.2 0 0 5374.2
0 0 0 0 0 0 0 0 -39926.7 0 0 39926.7 0 0 -5370.78 0 0 5370.78
0 0 0 0 0 0 0 0 -40897.1 0 0 40897.1 0 0 -5364.64 0 0 5364.64
0 0 0 0 0 0 0 0 -40986.5 0 0 40986.5 0 0 -5410.24 0 0 5410.24
0 0 0 0 0 0 0 0 -41194 0 0 41194 0 0 -5430.4 0 0 5430.4
0 0 0 0 0 0 0 0 -41407.5 0 0 41407.5 0 0 -5449.69 0 0 5449.69
0 0 0 0 0 0 0 0 -41612.2 0 0 41612.2 0 0 -5458.54 0 0 5458.54
0 0 0 0 0 0 0 0 -41817.2 0 0 41817.2 0 0 -5454.12 0 0 5454.12
0 0 0 0 0 0 0 0 -41977.3 0 0 41977.3 0 0 -5440.45 0 0 5440.45
0 0 0 0 0 0 0 0 -42101.5 0 0 42101.5 0 0 -5418.98 0 0 5418.98
0 0 0 0 0 0 0 0 -42216.4 0 0 42216.4 0 0 -5389.43 0 0 5389.43
0 0 0 0 0 0 0 0 -42317 0 0 42317 0 0 -5352.16 0 0 5352.16
0 0 0 0 0 0 0 0 -42386.9 0 0 42386.9 0 0 -5310.52 0 0 5310.52
0 0 0 0 0 0 0 0 -42437.9 0 0 42437.9 0 0 -5265.91 0 0 5265.91
0 0 0 0 0 0 0 0 -42479.1 0 0 42479.1 0 0 -5218.99 0 0 5218.99
0 0 0 0 0 0 0 0 -42505.3 0 0 42505.3 0 0 -5170.97 0 0 5170.97
0 0 0 0 0 0 0 0 -42518.5 0 0 42518.5 0 0 -5123.09 0 0 5123.09
0 0 0 0 0 0 0 0 -42527 0 0 42527 0 0 -5076.6 0 0 5076.6
0 0 0 0 0 0 0 0 -42533.6 0 0 42533.6 0 0 -5032.64 0 0 5032.64
0 0 0 0 0 0 0 0 -42537.8 0 0 42537.8 0 0 -4992.06 0 0 4992.06
0 0 0 0 0 0 0 0 -42539.6 0 0 42539.6 0 0 -4955.82 0 0 4955.82
0 0 0 0 0 0 0 0 -42538.6 0 0 42538.6 0 0 -4925.01 0 0 4925.01
0 0 0 0 0 0 0 0 -42534.3 0 0 42534.3 0 0 -4900.54 0 0 4900.54
0 0 0 0 0 0 0 0 -42525.3 0 0 42525.3 0 0 -4882.99 0 0 4882.99
0 0 0 0 0 0 0 0 -42496.7 0 0 42496.7 0 0 -4873.29 0 0 4873.29
0 0 0 0 0 0 0 0 -42335.5 0 0 42335.5 0 0 -4879.61 0 0 4879.61
0 0 0 0 0 0 0 0 -42038.6 0 0 42038.6 0 0 -4900.7 0 0 4900.7
0 0 0 0 0 0 0 0 -41605.8 0 0 41605.8 0 0 -4934.82 0 0 4934.82
0 0 0 0 0 0 0 0 -41051.1 0 0 41051.1 0 0 -4978.31 0 0 4978.31
0 0 0 0 0 0 0 0 -40408.3 0 0 40408.3 0 0 -5025.93 0 0 5025.93
0 0 0 0 0 0 0 0 -39704.5 0 0 39704.5 0 0 -5072.18 0 0 5072.18
0 0 0 0 0 0 0 0 -38954.3 0 0 38954.3 0 0 -5112.13 0 0 5112.13
0 0 0 0 0 0 0 0 -38180.7 0 0 38180.7 0 0 -5140.55 0 0 5140.55
0 0 0 0 0 0 0 0 -37412.5 0 0 37412.5 0 0 -5151.93 0 0 5151.93
0 0 0 0 0 0 0 0 -36669.7 0 0 36669.7 0 0 -5141.68 0 0 5141.68
0 0 0 0 0 0 0 0 -35969.6 0 0 35969.6 0 0 -5106.03 0 0 5106.03
0 0 0 0 0 0 0 0 -35332.5 0 0 35332.5 0 0 -5041.93 0 0 5041.93
0 0 0 0 0 0 0 0 -34774.5 0 0 34774.5 0 0 -4947.45 0 0 4947.45
0 0 0 0 0 0 0 0 -34307.9 0 0 34307.9 0 0 -4821.92 0 0 4821.92
0 0 0 0 0 0 0 0 -33943.7 0 0 33943.7 0 0 -4665.86 0 0 4665.86
0 0 0 0 0 0 0 0 -33692.2 0 0 33692.2 0 0 -4481.04 0 0 4481.04
0 0 0 0 0 0 0 0 -33555.2 0 0 33555.2 0 0 -4270.88 0 0 4270.88
0 0 0 0 0 0 0 0 -33524.7 0 0 33524.7 0 0 -4040.46 0 0 4040.46
0 0 0 0 0 0 0 0 -33583.2 0 0 33583.2 0 0 -3796.36 0 0 3796.36
0 0 0 0 0 0 0 0 -33705.9 0 0 33705.9 0 0 -3546.32 0 0 3546.32
0 0 0 0 0 0 0 0 -33863 0 0 33863 0 0 -3298.73 0 0 3298.73
0 0 0 0 0 0 0 0 -34024 0 0 34024 0 0 -3062.12 0 0 3062.12
0 0 0 0 0 0 0 0 -34159.8 0 0 34159.8 0 0 -2844.7 0 0 2844.7
0 0 0 0 0 0 0 0 -34225.6 0 0 34225.6 0 0 -2655.07 0 0 2655.07
0 0 0 0 0 0 0 0 -34219.3 0 0 34219.3 0 0 -2498.11 0 0 2498.11
0 0 0 0 0 0 0 0 -34144.3 0 0 34144.3 0 0 -2377.82 0 0 2377.82
0 0 0 0 0 0 0 0 -33996.9 0 0 33996.9 0 0 -2297.14 0 0 2297.14
0 0 0 0 0 0 0 0 -33776 0 0 33776 0 0 -2257.79 0 0 2257.79
0 0 0 0 0 0 0 0 -33493.5 0 0 33493.5 0 0 -2259.78 0 0 2259.78
0 0 0 0 0 0 0 0 -33156.5 0 0 33156.5 0 0 -2302.15 0 0 2302.15
0 0 0 0 0 0 0 0 -32766 0 0 32766 0 0 -2383.2 0 0 2383.2
0 0 0 0 0 0 0 0 -32323 0 0 32323 0 0 -2500.4 0 0 2500.4
0 0 0 0 0 0 0 0 -31824.8 0 0 31824.8 0 0 -2650.62 0 0 2650.62
0 0 0 0 0 0 0 0 -31265.2 0 0 31265.2 0 0 -2830 0 0 2830
0 0 0 0 0 0 0 0 -30639 0 0 30639 0 0 -3033.76 0 0 3033.76
0 0 0 0 0 0 0 0 -29940.7 0 0 29940.7 0 0 -3256.45 0 0 3256.45
0 0 0 0 0 0 0 0 -29166.1 0 0 29166.1 0 0 -3491.94 0 0 3491.94
0 0 0 0 0 0 0 0 -28314.7 0 0 28314.7 0 0 -3733.28 0 0 3733.28
0 0 0 0 0 0 0 0 -27389.7 0 0 27389.7 0 0 -3972.85 0 0 3972.85
0 0 0 0 0 0 0 0 -26397.4 0 0 26397.4 0 0 -4202.61 0 0 4202.61
0 0 0 0 0 0 0 0 -25347.4 0 0 25347.4 0 0 -4414.24 0 0 4414.24
0 0 0 0 0 0 0 0 -24253.3 0 0 24253.3 0 0 -4599.37 0 0 4599.37
0 0 0 0 0 0 0 0 -23131.6 0 0 23131.6 0 0 -4749.8 0 0 4749.8
0 0 0 0 0 0 0 0 -22001.2 0 0 22001.2 0 0 -4857.77 0 0 4857.77
0 0 0 0 0 0 0 0 -20890.1 0 0 20890.1 0 0 -4915.88 0 0 4915.88
0 0 0 0 0 0 0 0 -19812.7 0 0 19812.7 0 0 -4918.74 0 0 4918.74
0 0 0 0 0 0 0 0 -18780.5 0 0 18780.5 0 0 -4862.27 0 0 4862.27
0 0 0 0 0 0 0 0 -17809.6 0 0 17809.6 0 0 -4743.73 0 0 4743.73
0 0 0 0 0 0 0 0 -16917.4 0 0 16917.4 0 0 -4561.83 0 0 4561.83
0 0 0 0 0 0 0 0 -16115.7 0 0 16115.7 0 0 -4317.25 0 0 4317.25
0 0 0 0 0 0 0 0 -15416.5 0 0 15416.5 0 0 -4012.41 0 0 4012.41
0 0 0 0 0 0 0 0 -14829.1 0 0 14829.1 0 0 -3651.68 0 0 3651.68
0 0 0 0 0 0 0 0 -14356.7 0 0 14356.7 0 0 -3241.42 0 0 3241.42
0 0 0 0 0 0 0 0 -13975.6 0 0 13975.6 0 0 -2791.17 0 0 2791.17
0 0 0 0 0 0 0 0 -13689.6 0 0 13689.6 0 0 -2309.99 0 0 2309.99
0 0 0 0 0 0 0 0 -13492.6 0 0 13492.6 0 0 -1809.02 0 0 1809.02
0 0 0 0 0 0 0 0 -13355.8 0 0 13355.8 0 0 -1301.19 0 0 1301.19
0 0 0 0 0 0 0 0 -13240.9 0 0 13240.9 0 0 -800.526 0 0 800.526
0 0 0 0 0 0 0 0 -13112.6 0 0 13112.6 0 0 -320.948 0 0 320.948
0 0 0 0 0 0 0 0 -12935.9 0 0 12935.9 0 0 79.7531 0 0 -79.7531
0 0 0 0 0 0 0 0 -12704.6 0 0 12704.6 0 0 396.182 0 0 -396.182
0 0 0 0 0 0 0 0 -12350.6 0 0 12350.6 0 0 665.599 0 0 -665.599
0 0 0 0 0 0 0 0 -11853.8 0 0 11853.8 0 0 885.122 0 0 -885.122
0 0 0 0 0 0 0 0 -11215.9 0 0 11215.9 0 0 1050.04 0 0 -1050.04
0 0 0 0 0 0 0 0 -10416.4 0 0 10416.4 0 0 1160.22 0 0 -1160.22
0 0 0 0 0 0 0 0 -9466.3 0 0 9466.3 0 0 1218.01 0 0 -1218.01
0 0 0 0 0 0 0 0 -8357.03 0 0 8357.03 0 0 1219.01 0 0 -1219.01
0 0 0 0 0 0 0 0 -7111.31 0 0 7111.31 0 0 1156.28 0 0 -1156.28
0 0 0 0 0 0 0 0 -5752.51 0 0 5752.51 0 0 1036.76 0 0 -1036.76
0 0 0 0 0 0 0 0 -4315.24 0 0 4315.24 0 0 872.017 0 0 -872.017
0 0 0 0 0 0 0 0 -2810.69 0 0 2810.69 0 0 669.487 0 0 -669.487
0 0 0 0 0 0 0 0 -1302.54 0 0 1302.54 0 0 442.529 0 0 -442.529
0 0 0 0 0 0 0 0 162.246 0 0 -162.246 0 0 203.135 0 0 -203.135
0 0 0 0 0 0 0 0 1305.66 0 0 -1305.66 0 0 -17.3964 0 0 17.3964
0 0 0 0 0 0 0 0 1948.8 0 0 -1948.8 0 0 -183.636 0 0 183.636
0 0 0 0 0 0 0 0 2487.28 0 0 -2487.28 0 0 -337.519 0 0 337.519
0 0 0 0 0 0 0 0 2899.96 0 0 -2899.96 0 0 -467.512 0 0 467.512
0 0 0 0 0 0 0 0 3236.68 0 0 -3236.68 0 0 -575.796 0 0 575.796
0 0 0 0 0 0 0 0 3469.93 0 0 -3469.93 0 0 -659.125 0 0 659.125
0 0 0 0 0 0 0 0 3536.28 0 0 -3536.28 0 0 -710.917 0 0 710.917
0 0 0 0 0 0 0 0 3464.79 0 0 -3464.79 0 0 -731.249 0 0 731.249
0 0 0 0 0 0 0 0 3222.52 0 0 -3222.52 0 0 -716.831 0 0 716.831
0 0 0 0 0 0 0 0 2783.68 0 0 -2783.68 0 0 -668.937 0 0 668.937
0 0 0 0 0 0 0 0 2167.32 0 0 -2167.32 0 0 -593.089 0 0 593.089
0 0 0 0 0 0 0 0 1444.61 0 0 -1444.61 0 0 -498.72 0 0 498.72
0 0 0 0 0 0 0 0 687.349 0 0 -687.349 0 0 -396.914 0 0 396.914
0 0 0 0 0 0 0 0 -54.6716 0 0 54.6716 0 0 -299.386 0 0 299.386
0 0 0 0 0 0 0 0 -732.755 0 0 732.755 0 0 -214.654 0 0 214.654
0 0 0 0 0 0 0 0 -1271.41 0 0 1271.41 0 0 -155.366 0 0 155.366
0 0 0 0 0 0 0 0 -1658.42 0 0 1658.42 0 0 -125.183 0 0 125.183
0 0 0 0 0 0 0 0 -1840.06 0 0 1840.06 0 0 -132.419 0 0 132.419
0 0 0 0 0 0 0 0 -1764.96 0 0 1764.96 0 0 -181.925 0 0 181.925
0 0 0 0 0 0 0 0 -1405.38 0 0 1405.38 0 0 -275.899 0 0 275.899
0 0 0 0 0 0 0 0 -1047.76 0 0 1047.76 0 0 -392.101 0 0 392.101
0 0 0 0 0 0 0 0 -560.937 0 0 560.937 0 0 -538.052 0 0 538.052
0 0 0 0 0 0 0 0 164.584 0 0 -164.584 0 0 -717.378 0 0 717.378
0 0 0 0 0 0 0 0 967.517 0 0 -967.517 0 0 -885.118 0 0 885.118
0 0 0 0 0 0 0 0 2013.01 0 0 -2013.01 0 0 -1071.73 0 0 1071.73
0 0 0 0 0 0 0 0 3200.05 0 0 -3200.05 0 0 -1258.53 0 0 1258.53
0 0 0 0 0 0 0 0 4507.01 0 0 -4507.01 0 0 -1437.87 0 0 1437.87
0 0 0 0 0 0 0 0 5920.73 0 0 -5920.73 0 0 -1596.32 0 0 1596.32
0 0 0 0 0 0 0 0 7428.1 0 0 -7428.1 0 0 -1727.13 0 0 1727.13
0 0 0 0 0 0 0 0 8984.52 0 0 -8984.52 0 0 -1819.49 0 0 1819.49
0 0 0 0 0 0 0 0 10557.9 0 0 -10557.9 0 0 -1862.67 0 0 1862.67
0 0 0 0 0 0 0 0 12124.9 0 0 -12124.9 0 0 -1844.67 0 0 1844.67
0 0 0 0 0 0 0 0 13663.3 0 0 -13663.3 0 0 -1754.46 0 0 1754.46
0 0 0 0 0 0 0 0 15147 0 0 -15147 0 0 -1586.63 0 0 1586.63
0 0 0 0 0 0 0 0 16555.9 0 0 -16555.9 0 0 -1337.4 0 0 1337.4
0 0 0 0 0 0 0 0 17883.2 0 0 -17883.2 0 0 -1005.35 0 0 1005.35
0 0 0 0 0 0 0 0 19114.7 0 0 -19114.7 0 0 -591.916 0 0 591.916
0 0 0 0 0 0 0 0 20258.3 0 0 -20258.3 0 0 -105.544 0 0 105.544
0 0 0 0 0 0 0 0 21289.3 0 0 -21289.3 0 0 345.967 0 0 -345.967
0 0 0 0 0 0 0 0 22225.2 0 0 -22225.2 0 0 833.048 0 0 -833.048
0 0 0 0 0 0 0 0 23110.9 0 0 -23110.9 0 0 1360.33 0 0 -1360.33
0 0 0 0 0 0 0 0 23930.5 0 0 -23930.5 0 0 1916.77 0 0 -1916.77
0 0 0 0 0 0 0 0 24712.2 0 0 -24712.2 0 0 2493.78 0 0 -2493.78
0 0 0 0 0 0 0 0 25478.3 0 0 -25478.3 0 0 3084.38 0 0 -3084.38
0 0 0 0 0 0 0 0 26263.1 0 0 -26263.1 0 0 3677.27 0 0 -3677.27
0 0 0 0 0 0 0 0 27090.2 0 0 -27090.2 0 0 4258.88 0 0 -4258.88
0 0 0 0 0 0 0 0 27990 0 0 -27990 0 0 4818.27 0 0 -4818.27
0 0 0 0 0 0 0 0 28975.1 0 0 -28975.1 0 0 5347.68 0 0 -5347.68
0 0 0 0 0 0 0 0 30042 0 0 -30042 0 0 5840.61 0 0 -5840.61
0 0 0 0 0 0 0 0 31196.3 0 0 -31196.3 0 0 6289.39 0 0 -6289.39
0 0 0 0 0 0 0 0 32353 0 0 -32353 0 0 6691 0 0 -6691
0 0 0 0 0 0 0 0 33475.2 0 0 -33475.2 0 0 7046.67 0 0 -7046.67
0 0 0 0 0 0 0 0 34617.5 0 0 -34617.5 0 0 7350.48 0 0 -7350.48
0 0 0 0 0 0 0 0 35804.9 0 0 -35804.9 0 0 7596.39 0 0 -7596.39
0 0 0 0 0 0 0 0 37030.5 0 0 -37030.5 0 0 7784.41 0 0 -7784.41
0 0 0 0 0 0 0 0 38187.9 0 0 -38187.9 0 0 7810.56 0 0 -7810.56
0 0 0 0 0 0 0 0 39325.8 0 0 -39325.8 0 0 7814.91 0 0 -7814.91
0 0 0 0 0 0 0 0 40422.9 0 0 -40422.9 0 0 7816.77 0 0 -7816.77
0 0 0 0 0 0 0 0 35285.5 0 0 -35285.5 0 0 7754.49 0 0 -7754.49
0 0 0 0 0 0 0 0 43466.9 0 0 -43466.9 0 0 6871.25 0 0 -6871.25
0 0 0 0 0 0 0 0 39891.5 0 0 -39891.5 0 0 7032.65 0 0 -7032.65
0 0 0 0 0 0 0 0 42129.3 0 0 -42129.3 0 0 6663.73 0 0 -6663.73
0 0 0 0 0 0 0 0 43645.4 0 0 -43645.4 0 0 6308.77 0 0 -6308.77
0 0 0 0 0 0 0 0 44422.8 0 0 -44422.8 0 0 5761.45 0 0 -5761.45
0 0 0 0 0 0 0 0 44496.7 0 0 -44496.7 0 0 5360.65 0 0 -5360.65
0 0 0 0 0 0 0 0 44213.1 0 0 -44213.1 0 0 4989.22 0 0 -4989.22
0 0 0 0 0 0 0 0 43897.3 0 0 -43897.3 0 0 4588.38 0 0 -4588.38
0 0 0 0 0 0 0 0 43369.5 0 0 -43369.5 0 0 4154.09 0 0 -4154.09
0 0 0 0 0 0 0 0 42821.9 0 0 -42821.9 0 0 3707.44 0 0 -3707.44
0 0 0 0 0 0 0 0 42206 0 0 -42206 0 0 3306.73 0 0 -3306.73
0 0 0 0 0 0 0 0 41654.9 0 0 -41654.9 0 0 2911.98 0 0 -2911.98
0 0 0 0 0 0 0 0 41101.7 0 0 -41101.7 0 0 2511.57 0 0 -2511.57
0 0 0 0 0 0 0 0 40529.7 0 0 -40529.7 0 0 2122.79 0 0 -2122.79
0 0 0 0 0 0 0 0 39978.4 0 0 -39978.4 0 0 1769.4 0 0 -1769.4
0 0 0 0 0 0 0 0 39482.1 0 0 -39482.1 0 0 1452.2 0 0 -1452.2
0 0 0 0 0 0 0 0 39012.2 0 0 -39012.2 0 0 1160.23 0 0 -1160.23
0 0 0 0 0 0 0 0 38572 0 0 -38572 0 0 894.969 0 0 -894.969
0 0 0 0 0 0 0 0 38192.7 0 0 -38192.7 0 0 668.371 0 0 -668.371
0 0 0 0 0 0 0 0 37884 0 0 -37884 0 0 501.789 0 0 -501.789
0 0 0 0 0 0 0 0 37625.3 0 0 -37625.3 0 0 374.702 0 0 -374.702
0 0 0 0 0 0 0 0 37422.1 0 0 -37422.1 0 0 279.297 0 0 -279.297
0 0 0 0 0 0 0 0 37293.3 0 0 -37293.3 0 0 219.001 0 0 -219.001
0 0 0 0 0 0 0 0 37229.8 0 0 -37229.8 0 0 198.213 0 0 -198.213
0 0 0 0 0 0 0 0 37228.7 0 0 -37228.7 0 0 216.636 0 0 -216.636
0 0 0 0 0 0 0 0 37298.7 0 0 -37298.7 0 0 271.216 0 0 -271.216
0 0 0 0 0 0 0 0 37445.7 0 0 -37445.7 0 0 360.537 0 0 -360.537
0 0 0 0 0 0 0 0 37665.5 0 0 -37665.5 0 0 484.904 0 0 -484.904
0 0 0 0 0 0 0 0 37954.1 0 0 -37954.1 0 0 641.99 0 0 -641.99
0 0 0 0 0 0 0 0 38314.7 0 0 -38314.7 0 0 827.846 0 0 -827.846
0 0 0 0 0 0 0 0 38748 0 0 -38748 0 0 1039.47 0 0 -1039.47
0 0 0 0 0 0 0 0 39248.4 0 0 -39248.4 0 0 1275.43 0 0 -1275.43
0 0 0 0 0 0 0 0 39809.3 0 0 -39809.3 0 0 1534.06 0 0 -1534.06
0 0 0 0 0 0 0 0 40425.7 0 0 -40425.7 0 0 1812.34 0 0 -1812.34
0 0 0 0 0 0 0 0 41091.8 0 0 -41091.8 0 0 2107.04 0 0 -2107.04
0 0 0 0 0 0 0 0 41799.7 0 0 -41799.7 0 0 2416.11 0 0 -2416.11
0 0 0 0 0 0 0 0 42540.9 0 0 -42540.9 0 0 2737.77 0 0 -2737.77
0 0 0 0 0 0 0 0 43308.4 0 0 -43308.4 0 0 3069.6 0 0 -3069.6
0 0 0 0 0 0 0 0 44095 0 0 -44095 0 0 3408.82 0 0 -3408.82
0 0 0 0 0 0 0 0 44614.3 0 0 -44614.3 0 0 3741.83 0 0 -3741.83
0 0 0 0 0 0 0 0 44993.6 0 0 -44993.6 0 0 4008.03 0 0 -4008.03
0 0 0 0 0 0 0 0 45422.5 0 0 -45422.5 0 0 4259.17 0 0 -4259.17
0 0 0 0 0 0 0 0 45804.5 0 0 -45804.5 0 0 4522.33 0 0 -4522.33
0 0 0 0 0 0 0 0 46114.8 0 0 -46114.8 0 0 4815.78 0 0 -4815.78
0 0 0 0 0 0 0 0 46414.7 0 0 -46414.7 0 0 5112.75 0 0 -5112.75
0 0 0 0 0 0 0 0 0 0 0 0 0 0 1877.5 0 0 -1877.5
0 0 0 0 0 0 0 0 0 0 0 0 0 0 1057.3 0 0 -1057.3
0 0 0 0 0 0 0 0 0 0 0 0 0 0 1630.68 0 0 -1630.68
0 0 0 0 0 0 0 0 0 0 0 0 0 0 3379.67 0 0 -3379.67
0 0 0 0 0 0 0 0 0 0 0 0 0 0 3893.04 0 0 -3893.04
0 0 0 0 0 0 0 0 0 0 0 0 0 0 3221.24 0 0 -3221.24
0 0 0 0 0 0 0 0 0 0 0 0 0 0 3200.94 0 0 -3200.94
0 0 0 0 0 0 0 0 0 0 0 0 0 0 4227.98 0 0 -4227.98
0 0 0 0 0 0 0 0 0 0 0 0 0 0 5151.48 0 0 -5151.48
0 0 0 0 0 0 0 0 0 0 0 0 0 0 5307.05 0 0 -5307.05
0 0 0 0 0 0 0 0 0 0 0 0 0 0 5401.16 0 0 -5401.16
0 0 0 0 0 0 0 0 0 0 0 0 0 0 6074.26 0 0 -6074.26
0 0 0 0 0 0 0 0 0 0 0 0 0 0 6837.72 0 0 -6837.72
0 0 0 0 0 0 0 0 0 0 0 0 0 0 7279.55 0 0 -7279.55
0 0 0 0 0 0 0 0 0 0 0 0 0 0 7485.06 0 0 -7485.06
0 0 0 0 0 0 0 0 0 0 0 0 0 0 7822.95 0 0 -7822.95
0 0 0 0 0 0 0 0 0 0 0 0 0 0 7849.88 0 0 -7849.88
0 0 0 0 0 0 0 0 0 0 0 0 0 0 7880.39 0 0 -7880.39
0 0 0 0 0 0 0 0 0 0 0 0 0 0 7902.93 0 0 -7902.93
0 0 0 0 0 0 0 0 0 0 0 0 0 0 7921.17 0 0 -7921.17
0 0 0 0 0 0 0 0 0 0 0 0 0 0 7943.69 0 0 -7943.69
0 0 0 0 0 0 0 0 0 0 0 0 0 0 7970.17 0 0 -7970.17
0 0 0 0 0 0 0 0 0 0 0 0 0 0 7993.62 0 0 -7993.62
0 0 0 0 0 0 0 0 0 0 0 0 0 0 8011.3 0 0 -8011.3
0 0 0 0 0 0 0 0 0 0 0 0 0 0 8027.05 0 0 -8027.05
0 0 0 0 0 0 0 0 0 0 0 0 0 0 8043.89 0 0 -8043.89
0 0 0 0 0 0 0 0 0 0 0 0 0 0 8059.34 0 0 -8059.34
0 0 0 0 0 0 0 0 0 0 0 0 0 0 8067.82 0 0 -8067.82
0 0 0 0 0 0 0 0 0 0 0 0 0 0 8071.28 0 0 -8071.28
0 0 0 0 0 0 0 0 0 0 0 0 0 0 8073.5 0 0 -8073.5
0 0 0 0 0 0 0 0 0 0 0 0 0 0 8076.2 0 0 -8076.2
0 0 0 0 0 0 0 0 0 0 0 0 0 0 8052.93 0 0 -8052.93
0 0 0 0 0 0 0 0 0 0 0 0 0 0 7905.13 0 0 -7905.13
0 0 0 0 0 0 0 0 0 0 0 0 0 0 7665.35 0 0 -7665.35
0 0 0 0 0 0 0 0 0 0 0 0 0 0 7381.58 0 0 -7381.58
0 0 0 0 0 0 0 0 0 0 0 0 0 0 7033.2 0 0 -7033.2
0 0 0 0 0 0 0 0 0 0 0 0 0 0 6581.6 0 0 -6581.6
0 0 0 0 0 0 0 0 0 0 0 0 0 0 6031.88 0 0 -6031.88
0 0 0 0 0 0 0 0 0 0 0 0 0 0 5420.44 0 0 -5420.44
0 0 0 0 0 0 0 0 0 0 0 0 0 0 4765.42 0 0 -4765.42
0 0 0 0 0 0 0 0 0 0 0 0 0 0 4056.19 0 0 -4056.19
0 0 0 0 0 0 0 0 0 0 0 0 0 0 3294.22 0 0 -3294.22
0 0 0 0 0 0 0 0 0 0 0 0 0 0 2495.4 0 0 -2495.4
0 0 0 0 0 0 0 0 0 0 0 0 0 0 1678.89 0 0 -1678.89
0 0 0 0 0 0 0 0 0 0 0 0 0 0 846.519 0 0 -846.519
0 0 0 0 0 0 0 0 0 0 0 0 0 0 -1.05928 0 0 1.05928
0 0 0 0 0 0 0 0 0 0 0 0 0 0 -336.937 0 0 336.937
0 0 0 0 0 0 0 0 0 0 0 0 0 0 -696.852 0 0 696.852
0 0 0 0 0 0 0 0 0 0 0 0 0 0 -1054.5 0 0 1054.5
0 0 0 0 0 0 0 0 0 0 0 0 0 0 -1402.13 0 0 1402.13
0 0 0 0 0 0 0 0 0 0 0 0 0 0 -1743.07 0 0 1743.07
0 0 0 0 0 0 0 0 0 0 0 0 0 0 -2089.89 0 0 2089.89
0 0 0 0 0 0 0 0 0 0 0 0 0 0 -2438.47 0 0 2438.47
0 0 0 0 0 0 0 0 0 0 0 0 0 0 -2776.42 0 0 2776.42
0 0 0 0 0 0 0 0 0 0 0 0 0 0 -3098.72 0 0 3098.72
0 0 0 0 0 0 0 0 0 0 0 0 0 0 -3409.32 0 0 3409.32
0 0 0 0 0 0 0 0 0 0 0 0 0 0 -3708.94 0 0 3708.94
0 0 0 0 0 0 0 0 0 0 0 0 0 0 -3991.12 0 0 3991.12
0 0 0 0 0 0 0 0 0 0 0 0 0 0 -4249.08 0 0 4249.08
0 0 0 0 0 0 0 0 0 0 0 0 0 0 -4481.86 0 0 4481.86
0 0 0 0 0 0 0 0 0 0 0 0 0 0 -4690.97 0 0 4690.97
0 0 0 0 0 0 0 0 0 0 0 0 0 0 -4874.38 0 0 4874.38
0 0 0 0 0 0 0 0 0 0 0 0 0 0 -5027.08 0 0 5027.08
0 0 0 0 0 0 0 0 0 0 0 0 0 0 -5145.33 0 0 5145.33
0 0 0 0 0 0 0 0 0 0 0 0 0 0 -5227.88 0 0 5227.88
0 0 0 0 0 0 0 0 0 0 0 0 0 0 -5273.81 0 0 5273.81
0 0 0 0 0 0 0 0 0 0 0 0 0 0 -5268.39 0 0 5268.39
0 0 0 0 0 0 0 0 0 0 0 0 0 0 -5162.99 0 0 5162.99
0 0 0 0 0 0 0 0 0 0 0 0 0 0 -4951.08 0 0 4951.08
0 0 0 0 0 0 0 0 0 0 0 0 0 0 -4637.13 0 0 4637.13
0 0 0 0 0 0 0 0 0 0 0 0 0 0 -4221.49 0 0 4221.49
0 0 0 0 0 0 0 0 0 0 0 0 0 0 -3707.71 0 0 3707.71
0 0 0 0 0 0 0 0 0 0 0 0 0 0 -3105.28 0 0 3105.28
0 0 0 0 0 0 0 0 0 0 0 0 0 0 -2426.27 0 0 2426.27
0 0 0 0 0 0 0 0 0 0 0 0 0 0 -1681.77 0 0 1681.77
0 0 0 0 0 0 0 0 0 0 0 0 0 0 -882.901 0 0 882.901
0 0 0 0 0 0 0 0 0 0 0 0 0 0 -135.708 0 0 135.708
0 0 0 0 0 0 0 0 0 0 0 0 0 0 332.188 0 0 -332.188
0 0 0 0 0 0 0 0 0 0 0 0 0 0 787.364 0 0 -787.364
0 0 0 0 0 0 0 0 0 0 0 0 0 0 1255.65 0 0 -1255.65
0 0 0 0 0 0 0 0 0 0 0 0 0 0 1712.88 0 0 -1712.88
0 0 0 0 0 0 0 0 0 0 0 0 0 0 2162.75 0 0 -2162.75
0 0 0 0 0 0 0 0 0 0 0 0 0 0 2613.38 0 0 -2613.38
0 0 0 0 0 0 0 0 0 0 0 0 0 0 3060.71 0 0 -3060.71
0 0 0 0 0 0 0 0 0 0 0 0 0 0 3493.25 0 0 -3493.25
0 0 0 0 0 0 0 0 0 0 0 0 0 0 3905.02 0 0 -3905.02
0 0 0 0 0 0 0 0 0 0 0 0 0 0 4261.84 0 0 -4261.84
0 0 0 0 0 0 0 0 0 0 0 0 0 0 4594.53 0 0 -4594.53
0 0 0 0 0 0 0 0 0 0 0 0 0 0 4911.39 0 0 -4911.39
0 0 0 0 0 0 0 0 0 0 0 0 0 0 5227.13 0 0 -5227.13
0 0 0 0 0 0 0 0 0 0 0 0 0 0 5532.52 0 0 -5532.52
0 0 0 0 0 0 0 0 0 0 0 0 0 0 5808.94 0 0 -5808.94
0 0 0 0 0 0 0 0 0 0 0 0 0 0 6053.77 0 0 -6053.77
0 0 0 0 0 0 0 0 0 0 0 0 0 0 6277.86 0 0 -6277.86
0 0 0 0 0 0 0 0 0 0 0 0 0 0 6484.88 0 0 -6484.88
0 0 0 0 0 0 0 0 0 0 0 0 0 0 6663.02 0 0 -6663.02
0 0 0 0 0 0 0 0 0 0 0 0 0 0 6799.24 0 0 -6799.24
0 0 0 0 0 0 0 0 0 0 0 0 0 0 6891.36 0 0 -6891.36
0 0 0 0 0 0 0 0 0 0 0 0 0 0 6943.19 0 0 -6943.19
0 0 0 0 0 0 0 0 0 0 0 0 0 0 6925.68 0 0 -6925.68
0 0 0 0 0 0 0 0 0 0 0 0 0 0 6813.61 0 0 -6813.61
0 0 0 0 0 0 0 0 0 0 0 0 0 0 6599.82 0 0 -6599.82
0 0 0 0 0 0 0 0 0 0 0 0 0 0 6279.95 0 0 -6279.95
0 0 0 0 0 0 0 0 0 0 0 0 0 0 5856.79 0 0 -5856.79
0 0 0 0 0 0 0 0 0 0 0 0 0 0 5318.87 0 0 -5318.87
0 0 0 0 0 0 0 0 0 0 0 0 0 0 4667.17 0 0 -4667.17
0 0 0 0 0 0 0 0 0 0 0 0 0 0 3908.39 0 0 -3908.39
0 0 0 0 0 0 0 0 0 0 0 0 0 0 3058.99 0 0 -3058.99
0 0 0 0 0 0 0 0 0 0 0 0 0 0 2130.41 0 0 -2130.41
0 0 0 0 0 0 0 0 0 0 0 0 0 0 1130.65 0 0 -1130.65
0 0 0 0 0 0 0 0 0 0 0 0 0 0 67.3574 0 0 -67.3574
0 0 0 0 0 0 0 0 0 0 0 0 0 0 -402.422 0 0 402.422
0 0 0 0 0 0 0 0 0 0 0 0 0 0 -889.728 0 0 889.728
0 0 0 0 0 0 0 0 0 0 0 0 0 0 -1372.73 0 0 1372.73
0 0 0 0 0 0 0 0 0 0 0 0 0 0 -1835.94 0 0 1835.94
0 0 0 0 0 0 0 0 0 0 0 0 0 0 -2280.38 0 0 2280.38
0 0 0 0 0 0 0 0 0 0 0 0 0 0 -2726.86 0 0 2726.86
0 0 0 0 0 0 0 0 0 0 0 0 0 0 -3170.71 0 0 3170.71
0 0 0 0 0 0 0 0 0 0 0 0 0 0 -3589.94 0 0 3589.94
0 0 0 0 0 0 0 0 -947.132 0 0 947.132 0 0 -3979.33 0 0 3979.33
0 0 0 0 0 0 0 0 -2536.23 0 0 2536.23 0 0 -4407.88 0 0 4407.88
0 0 0 0 0 0 0 0 -3897.17 0 0 3897.17 0 0 -4835.32 0 0 4835.32
0 0 0 0 0 0 0 0 -5563.55 0 0 5563.55 0 0 -5217.75 0 0 5217.75
0 0 0 0 0 0 0 0 -7361.65 0 0 7361.65 0 0 -5547.84 0 0 5547.84
0 0 0 0 0 0 0 0 -8949.4 0 0 8949.4 0 0 -5850.32 0 0 5850.32
0 0 0 0 0 0 0 0 -10374.9 0 0 10374.9 0 0 -6134.26 0 0 6134.26
0 0 0 0 0 0 0 0 -11587.4 0 0 11587.4 0 0 -6394.21 0 0 6394.21
0 0 0 0 0 0 0 0 -12698.8 0 0 12698.8 0 0 -6615.37 0 0 6615.37
0 0 0 0 0 0 0 0 -13588.3 0 0 13588.3 0 0 -6803.37 0 0 6803.37
0 0 0 0 0 0 0 0 -14359.7 0 0 14359.7 0 0 -6956.87 0 0 6956.87
0 0 0 0 0 0 0 0 -15072.1 0 0 15072.1 0 0 -7073.93 0 0 7073.93
0 0 0 0 0 0 0 0 -15666.8 0 0 15666.8 0 0 -7152.71 0 0 7152.71
0 0 0 0 0 0 0 0 -16095 0 0 16095 0 0 -7194.17 0 0 7194.17
0 0 0 0 0 0 0 0 -16395.9 0 0 16395.9 0 0 -7192.62 0 0 7192.62
0 0 0 0 0 0 0 0 -16580.3 0 0 16580.3 0 0 -7114.7 0 0 7114.7
0 0 0 0 0 0 0 0 -16605 0 0 16605 0 0 -6955.93 0 0 6955.93
0 0 0 0 0 0 0 0 -16429.1 0 0 16429.1 0 0 -6716.37 0 0 6716.37
0 0 0 0 0 0 0 0 -16084.1 0 0 16084.1 0 0 -6396.74 0 0 6396.74
0 0 0 0 0 0 0 0 -15584.9 0 0 15584.9 0 0 -6002.98 0 0 6002.98
0 0 0 0 0 0 0 0 -14912.2 0 0 14912.2 0 0 -5542.58 0 0 5542.58
0 0 0 0 0 0 0 0 -14074.9 0 0 14074.9 0 0 -5021.09 0 0 5021.09
0 0 0 0 0 0 0 0 -13107.4 0 0 13107.4 0 0 -4442.58 0 0 4442.58
0 0 0 0 0 0 0 0 -12022.2 0 0 12022.2 0 0 -3814.64 0 0 3814.64
0 0 0 0 0 0 0 0 -10832.8 0 0 10832.8 0 0 -3145.51 0 0 3145.51
0 0 0 0 0 0 0 0 -9556.01 0 0 9556.01 0 0 -2443.04 0 0 2443.04
0 0 0 0 0 0 0 0 -8214.01 0 0 8214.01 0 0 -1713.65 0 0 1713.65
0 0 0 0 0 0 0 0 -6837.41 0 0 6837.41 0 0 -964.952 0 0 964.952
0 0 0 0 0 0 0 0 -5464 0 0 5464 0 0 -204.673 0 0 204.673
0 0 0 0 0 0 0 0 -4226.95 0 0 4226.95 0 0 189.085 0 0 -189.085
0 0 0 0 0 0 0 0 -3115.15 0 0 3115.15 0 0 520.903 0 0 -520.903
0 0 0 0 0 0 0 0 -2112.1 0 0 2112.1 0 0 857.427 0 0 -857.427
0 0 0 0 0 0 0 0 -1222.99 0 0 1222.99 0 0 1182.96 0 0 -1182.96
0 0 0 0 0 0 0 0 -374.887 0 0 374.887 0 0 1494.95 0 0 -1494.95
0 0 0 0 0 0 0 0 0 0 0 0 0 0 1790.54 0 0 -1790.54
0 0 0 0 0 0 0 0 0 0 0 0 0 0 2041.31 0 0 -2041.31
0 0 0 0 0 0 0 0 0 0 0 0 0 0 2265.28 0 0 -2265.28
0 0 0 0 0 0 0 0 0 0 0 0 0 0 2486.11 0 0 -2486.11
0 0 0 0 0 0 0 0 0 0 0 0 0 0 2718.47 0 0 -2718.47
0 0 0 0 0 0 0 0 0 0 0 0 0 0 2943.11 0 0 -2943.11
0 0 0 0 0 0 0 0 0 0 0 0 0 0 3135.34 0 0 -3135.34
0 0 0 0 0 0 0 0 -20.7157 0 0 20.7157 0 0 3296.45 0 0 -3296.45
0 0 0 0 0 0 0 0 -230.301 0 0 230.301 0 0 3436.56 0 0 -3436.56
0 0 0 0 0 0 0 0 -561.972 0 0 561.972 0 0 3552.5 0 0 -3552.5
0 0 0 0 0 0 0 0 -927.383 0 0 927.383 0 0 3632.62 0 0 -3632.62
0 0 0 0 0 0 0 0 -1377.18 0 0 1377.18 0 0 3672.16 0 0 -3672.16
0 0 0 0 0 0 0 0 -1961.21 0 0 1961.21 0 0 3666.48 0 0 -3666.48
0 0 0 0 0 0 0 0 -2649.07 0 0 2649.07 0 0 3585.29 0 0 -3585.29
0 0 0 0 0 0 0 0 -3399.44 0 0 3399.44 0 0 3415.87 0 0 -3415.87
0 0 0 0 0 0 0 0 -4231.21 0 0 4231.21 0 0 3155.19 0 0 -3155.19
0 0 0 0 0 0 0 0 -5155.06 0 0 5155.06 0 0 2805.19 0 0 -2805.19
0 0 0 0 0 0 0 0 -6145.21 0 0 6145.21 0 0 2372.18 0 0 -2372.18
0 0 0 0 0 0 0 0 -7183.62 0 0 7183.62 0 0 1861.83 0 0 -1861.83
0 0 0 0 0 0 0 0 -8279.56 0 0 8279.56 0 0 1279.35 0 0 -1279.35
0 0 0 0 0 0 0 0 -9441.49 0 0 9441.49 0 0 632.22 0 0 -632.22
0 0 0 0 0 0 0 0 -10662.5 0 0 10662.5 0 0 -26.0283 0 0 26.0283
0 0 0 0 0 0 0 0 -11822.4 0 0 11822.4 0 0 -453.813 0 0 453.813
0 0 0 0 0 0 0 0 -13034.7 0 0 13034.7 0 0 -915.052 0 0 915.052
0 0 0 0 0 0 0 0 -14316.6 0 0 14316.6 0 0 -1394.98 0 0 1394.98
0 0 0 0 0 0 0 0 -15670.5 0 0 15670.5 0 0 -1878.5 0 0 1878.5
0 0 0 0 0 0 0 0 -17075 0 0 17075 0 0 -2366.95 0 0 2366.95
0 0 0 0 0 0 0 0 -18505.1 0 0 18505.1 0 0 -2864.33 0 0 2864.33
0 0 0 0 0 0 0 0 -19964.3 0 0 19964.3 0 0 -3363.03 0 0 3363.03
0 0 0 0 0 0 0 0 -21443 0 0 21443 0 0 -3854.17 0 0 3854.17
0 0 0 0 0 0 0 0 -22919.4 0 0 22919.4 0 0 -4334.72 0 0 4334.72
0 0 0 0 0 0 0 0 -24368.4 0 0 24368.4 0 0 -4806.02 0 0 4806.02
0 0 0 0 0 0 0 0 -25773.5 0 0 25773.5 0 0 -5265.94 0 0 5265.94
0 0 0 0 0 0 0 0 -27109.9 0 0 27109.9 0 0 -5709.51 0 0 5709.51
0 0 0 0 0 0 0 0 -28369.6 0 0 28369.6 0 0 -6132 0 0 6132
0 0 0 0 0 0 0 0 -29537.8 0 0 29537.8 0 0 -6532.15 0 0 6532.15
0 0 0 0 0 0 0 0 -30596.6 0 0 30596.6 0 0 -6908.74 0 0 6908.74
0 0 0 0 0 0 0 0 -31533.8 0 0 31533.8 0 0 -7258.21 0 0 7258.21
0 0 0 0 0 0 0 0 -32344 0 0 32344 0 0 -7576.26 0 0 7576.26
0 0 0 0 0 0 0 0 -33007.3 0 0 33007.3 0 0 -7747.58 0 0 7747.58
0 0 0 0 0 0 0 0 -33462.5 0 0 33462.5 0 0 -7792.81 0 0 7792.81
0 0 0 0 0 0 0 0 -33774.4 0 0 33774.4 0 0 -7830.64 0 0 7830.64
0 0 0 0 0 0 0 0 -33963.4 0 0 33963.4 0 0 -7860.69 0 0 7860.69
0 0 0 0 0 0 0 0 -34005.7 0 0 34005.7 0 0 -7882.52 0 0 7882.52
0 0 0 0 0 0 0 0 -33903.3 0 0 33903.3 0 0 -7897.04 0 0 7897.04
0 0 0 0 0 0 0 0 -33693.1 0 0 33693.1 0 0 -7904.07 0 0 7904.07
0 0 0 0 0 0 0 0 -33398.9 0 0 33398.9 0 0 -7871.2 0 0 7871.2
0 0 0 0 0 0 0 0 -33012.8 0 0 33012.8 0 0 -7743.93 0 0 7743.93
0 0 0 0 0 0 0 0 -32568.2 0 0 32568.2 0 0 -7523.56 0 0 7523.56
0 0 0 0 0 0 0 0 -32096.5 0 0 32096.5 0 0 -7214.38 0 0 7214.38
0 0 0 0 0 0 0 0 -31620.9 0 0 31620.9 0 0 -6813.4 0 0 6813.4
0 0 0 0 0 0 0 0 -31158.3 0 0 31158.3 0 0 -6323.11 0 0 6323.11
0 0 0 0 0 0 0 0 -30488 0 0 30488 0 0 -5769.34 0 0 5769.34
0 0 0 0 0 0 0 0 -29717 0 0 29717 0 0 -5156.11 0 0 5156.11
0 0 0 0 0 0 0 0 -28945.1 0 0 28945.1 0 0 -4482.12 0 0 4482.12
0 0 0 0 0 0 0 0 -28146.4 0 0 28146.4 0 0 -3762.45 0 0 3762.45
0 0 0 0 0 0 0 0 -27347.3 0 0 27347.3 0 0 -3005.4 0 0 3005.4
0 0 0 0 0 0 0 0 -26563.4 0 0 26563.4 0 0 -2225.75 0 0 2225.75
0 0 0 0 0 0 0 0 -25808 0 0 25808 0 0 -1434.89 0 0 1434.89
0 0 0 0 0 0 0 0 -25091.6 0 0 25091.6 0 0 -645.03 0 0 645.03
0 0 0 0 0 0 0 0 -24438.1 0 0 24438.1 0 0 14.3863 0 0 -14.3863
0 0 0 0 0 0 0 0 -24058.8 0 0 24058.8 0 0 296.421 0 0 -296.421
0 0 0 0 0 0 0 0 -23723.6 0 0 23723.6 0 0 576.865 0 0 -576.865
0 0 0 0 0 0 0 0 -23470.2 0 0 23470.2 0 0 842.781 0 0 -842.781
0 0 0 0 0 0 0 0 -23244.9 0 0 23244.9 0 0 1079.61 0 0 -1079.61
0 0 0 0 0 0 0 0 -23092.2 0 0 23092.2 0 0 1291.55 0 0 -1291.55
0 0 0 0 0 0 0 0 -23019.6 0 0 23019.6 0 0 1483.19 0 0 -1483.19
0 0 0 0 0 0 0 0 -23007 0 0 23007 0 0 1648.54 0 0 -1648.54
0 0 0 0 0 0 0 0 -23039.8 0 0 23039.8 0 0 1779.05 0 0 -1779.05
0 0 0 0 0 0 0 0 -23124.5 0 0 23124.5 0 0 1873.08 0 0 -1873.08
0 0 0 0 0 0 0 0 -23269.9 0 0 23269.9 0 0 1933.63 0 0 -1933.63
0 0 0 0 0 0 0 0 -23467.3 0 0 23467.3 0 0 1960.43 0 0 -1960.43
0 0 0 0 0 0 0 0 -23714.6 0 0 23714.6 0 0 1921.9 0 0 -1921.9
0 0 0 0 0 0 0 0 -24035.9 0 0 24035.9 0 0 1785.14 0 0 -1785.14
0 0 0 0 0 0 0 0 -24415 0 0 24415 0 0 1555.32 0 0 -1555.32
0 0 0 0 0 0 0 0 -24749.9 0 0 24749.9 0 0 1230.78 0 0 -1230.78
0 0 0 0 0 0 0 0 -25034.8 0 0 25034.8 0 0 813.412 0 0 -813.412
0 0 0 0 0 0 0 0 -25257.2 0 0 25257.2 0 0 306.667 0 0 -306.667
0 0 0 0 0 0 0 0 -25396.1 0 0 25396.1 0 0 -176.684 0 0 176.684
0 0 0 0 0 0 0 0 -25402.3 0 0 25402.3 0 0 -650.015 0 0 650.015
0 0 0 0 0 0 0 0 -25344.3 0 0 25344.3 0 0 -1159.8 0 0 1159.8
0 0 0 0 0 0 0 0 -25216.6 0 0 25216.6 0 0 -1698.13 0 0 1698.13
0 0 0 0 0 0 0 0 -25038.9 0 0 25038.9 0 0 -2252.6 0 0 2252.6
0 0 0 0 0 0 0 0 -24815.1 0 0 24815.1 0 0 -2817.12 0 0 2817.12
0 0 0 0 0 0 0 0 -24554.3 0 0 24554.3 0 0 -3382.48 0 0 3382.48
0 0 0 0 0 0 0 0 -24278.4 0 0 24278.4 0 0 -3934.74 0 0 3934.74
0 0 0 0 0 0 0 0 -24013.8 0 0 24013.8 0 0 -4460.34 0 0 4460.34
0 0 0 0 0 0 0 0 -23777 0 0 23777 0 0 -4950.09 0 0 4950.09
0 0 0 0 0 0 0 0 -23582.4 0 0 23582.4 0 0 -5395.97 0 0 5395.97
0 0 0 0 0 0 0 0 -23446 0 0 23446 0 0 -5788.68 0 0 5788.68
0 0 0 0 0 0 0 0 -23377.2 0 0 23377.2 0 0 -6119.52 0 0 6119.52
0 0 0 0 0 0 0 0 -23380.1 0 0 23380.1 0 0 -6382.78 0 0 6382.78
0 0 0 0 0 0 0 0 -23455.7 0 0 23455.7 0 0 -6575.27 0 0 6575.27
0 0 0 0 0 0 0 0 -23599.2 0 0 23599.2 0 0 -6694.83 0 0 6694.83
0 0 0 0 0 0 0 0 -23803.1 0 0 23803.1 0 0 -6740.14 0 0 6740.14
0 0 0 0 0 0 0 0 -24056.6 0 0 24056.6 0 0 -6695.46 0 0 6695.46
0 0 0 0 0 0 0 0 -24341.7 0 0 24341.7 0 0 -6552.21 0 0 6552.21
0 0 0 0 0 0 0 0 -24621.4 0 0 24621.4 0 0 -6319.27 0 0 6319.27
0 0 0 0 0 0 0 0 -24879.8 0 0 24879.8 0 0 -6004.11 0 0 6004.11
0 0 0 0 0 0 0 0 -25109.7 0 0 25109.7 0 0 -5615.63 0 0 5615.63
0 0 0 0 0 0 0 0 -25280.1 0 0 25280.1 0 0 -5166.63 0 0 5166.63
0 0 0 0 0 0 0 0 -25339.1 0 0 25339.1 0 0 -4673.05 0 0 4673.05
0 0 0 0 0 0 0 0 -25238.3 0 0 25238.3 0 0 -4150.11 0 0 4150.11
0 0 0 0 0 0 0 0 -24933.7 0 0 24933.7 0 0 -3612.68 0 0 3612.68
0 0 0 0 0 0 0 0 -24432.8 0 0 24432.8 0 0 -3069.36 0 0 3069.36
0 0 0 0 0 0 0 0 -23653.9 0 0 23653.9 0 0 -2539.62 0 0 2539.62
0 0 0 0 0 0 0 0 -22619.9 0 0 22619.9 0 0 -2029.58 0 0 2029.58
0 0 0 0 0 0 0 0 -21306.6 0 0 21306.6 0 0 -1549.04 0 0 1549.04
0 0 0 0 0 0 0 0 -19711.7 0 0 19711.7 0 0 -1103.21 0 0 1103.21
0 0 0 0 0 0 0 0 -17844.2 0 0 17844.2 0 0 -696.559 0 0 696.559
0 0 0 0 0 0 0 0 -15749 0 0 15749 0 0 -328.349 0 0 328.349
0 0 0 0 0 0 0 0 -13468.2 0 0 13468.2 0 0 -19.5665 0 0 19.5665
0 0 0 0 0 0 0 0 -11109.8 0 0 11109.8 0 0 100.992 0 0 -100.992
0 0 0 0 0 0 0 0 -8661.59 0 0 8661.59 0 0 211.919 0 0 -211.919
0 0 0 0 0 0 0 0 -6188.84 0 0 6188.84 0 0 317.914 0 0 -317.914
0 0 0 0 0 0 0 0 -3707.39 0 0 3707.39 0 0 416.019 0 0 -416.019
0 0 0 0 0 0 0 0 -1299.15 0 0 1299.15 0 0 512.727 0 0 -512.727
0 0 0 0 0 0 0 0 0 0 0 0 0 0 620.184 0 0 -620.184
0 0 0 0 0 0 0 0 0 0 0 0 0 0 699.481 0 0 -699.481
0 0 0 0 0 0 0 0 0 0 0 0 0 0 744.605 0 0 -744.605
0 0 0 0 0 0 0 0 0 0 0 0 0 0 793.011 0 0 -793.011
0 0 0 0 0 0 0 0 0 0 0 0 0 0 875.879 0 0 -875.879
0 0 0 0 0 0 0 0 0 0 0 0 0 0 981.878 0 0 -981.878
0 0 0 0 0 0 0 0 0 0 0 0 0 0 1073.73 0 0 -1073.73
0 0 0 0 0 0 0 0 0 0 0 0 0 0 1148.33 0 0 -1148.33
0 0 0 0 0 0 0 0 0 0 0 0 0 0 1231.89 0 0 -1231.89
0 0 0 0 0 0 0 0 0 0 0 0 0 0 1340.17 0 0 -1340.17
0 0 0 0 0 0 0 0 0 0 0 0 0 0 1456.96 0 0 -1456.96
0 0 0 0 0 0 0 0 0 0 0 0 0 0 1561.46 0 0 -1561.46
0 0 0 0 0 0 0 0 0 0 0 0 0 0 1655.92 0 0 -1655.92
0 0 0 0 0 0 0 0 0 0 0 0 0 0 1755.77 0 0 -1755.77
0 0 0 0 0 0 0 0 0 0 0 0 0 0 1863.25 0 0 -1863.25
0 0 0 0 0 0 0 0 0 0 0 0 0 0 1964.59 0 0 -1964.59
0 0 0 0 0 0 0 0 0 0 0 0 0 0 2049.64 0 0 -2049.64
0 0 0 0 0 0 0 0 0 0 0 0 0 0 2122.67 0 0 -2122.67
0 0 0 0 0 0 0 0 0 0 0 0 0 0 2191.88 0 0 -2191.88
0 0 0 0 0 0 0 0 0 0 0 0 0 0 2255.75 0 0 -2255.75
0 0 0 0 0 0 0 0 0 0 0 0 0 0 2305.93 0 0 -2305.93
0 0 0 0 0 0 0 0 0 0 0 0 0 0 2340.38 0 0 -2340.38
0 0 0 0 0 0 0 0 0 0 0 0 0 0 2364.19 0 0 -2364.19
0 0 0 0 0 0 0 0 0 0 0 0 0 0 2382.69 0 0 -2382.69
0 0 0 0 0 0 0 0 0 0 0 0 0 0 2395.19 0 0 -2395.19
0 0 0 0 0 0 0 0 0 0 0 0 0 0 2399.93 0 0 -2399.93
0 0 0 0 0 0 0 0 0 0 0 0 0 0 2398 0 0 -2398
0 0 0 0 0 0 0 0 0 0 0 0 0 0 2397.65 0 0 -2397.65
0 0 0 0 0 0 0 0 0 0 0 0 0 0 2402.03 0 0 -2402.03
0 0 0 0 0 0 0 0 0 0 0 0 0 0 2409.27 0 0 -2409.27
0 0 0 0 0 0 0 0 0 0 0 0 0 0 2420.6 0 0 -2420.6
0 0 0 0 0 0 0 0 0 0 0 0 0 0 2438.46 0 0 -2438.46
0 0 0 0 0 0 0 0 0 0 0 0 0 0 2465.65 0 0 -2465.65
0 0 0 0 0 0 0 0 0 0 0 0 0 0 2503.14 0 0 -2503.14
0 0 0 0 0 0 0 0 0 0 0 0 0 0 2550.76 0 0 -2550.76
0 0 0 0 0 0 0 0 0 0 0 0 0 0 2608.57 0 0 -2608.57
0 0 0 0 0 0 0 0 0 0 0 0 0 0 2677.37 0 0 -2677.37
0 0 0 0 0 0 0 0 0 0 0 0 0 0 2757.82 0 0 -2757.82
0 0 0 0 0 0 0 0 0 0 0 0 0 0 2850.19 0 0 -2850.19
0 0 0 0 0 0 0 0 0 0 0 0 0 0 2955.67 0 0 -2955.67
0 0 0 0 0 0 0 0 0 0 0 0 0 0 3077.24 0 0 -3077.24
0 0 0 0 0 0 0 0 0 0 0 0 0 0 3216.06 0 0 -3216.06
0 0 0 0 0 0 0 0 0 0 0 0 0 0 3371.45 0 0 -3371.45
0 0 0 0 0 0 0 0 0 0 0 0 0 0 3541.1 0 0 -3541.1
0 0 0 0 0 0 0 0 0 0 0 0 0 0 3722.07 0 0 -3722.07
0 0 0 0 0 0 0 0 0 0 0 0 0 0 3912.24 0 0 -3912.24
0 0 0 0 0 0 0 0 0 0 0 0 0 0 4108.13 0 0 -4108.13
0 0 0 0 0 0 0 0 0 0 0 0 0 0 4305.07 0 0 -4305.07
0 0 0 0 0 0 0 0 0 0 0 0 0 0 4497.48 0 0 -4497.48
0 0 0 0 0 0 0 0 0 0 0 0 0 0 4681.44 0 0 -4681.44
0 0 0 0 0 0 0 0 0 0 0 0 0 0 4853.4 0 0 -4853.4
0 0 0 0 0 0 0 0 0 0 0 0 0 0 5009.3 0 0 -5009.3
0 0 0 0 0 0 0 0 0 0 0 0 0 0 5144.66 0 0 -5144.66
0 0 0 0 0 0 0 0 0 0 0 0 0 0 5255.82 0 0 -5255.82
0 0 0 0 0 0 0 0 0 0 0 0 0 0 5340.31 0 0 -5340.31
0 0 0 0 0 0 0 0 0 0 0 0 0 0 5396.01 0 0 -5396.01
0 0 0 0 0 0 0 0 0 0 0 0 0 0 5420.69 0 0 -5420.69
0 0 0 0 0 0 0 0 0 0 0 0 0 0 5387.27 0 0 -5387.27
0 0 0 0 0 0 0 0 0 0 0 0 0 0 5268.79 0 0 -5268.79
0 0 0 0 0 0 0 0 0 0 0 0 0 0 5066.94 0 0 -5066.94
0 0 0 0 0 0 0 0 0 0 0 0 0 0 4781.45 0 0 -4781.45
0 0 0 0 0 0 0 0 0 0 0 0 0 0 4413.69 0 0 -4413.69
0 0 0 0 0 0 0 0 0 0 0 0 0 0 3971.1 0 0 -3971.1
0 0 0 0 0 0 0 0 0 0 0 0 0 0 3466.62 0 0 -3466.62
0 0 0 0 0 0 0 0 0 0 0 0 0 0 2914.33 0 0 -2914.33
0 0 0 0 0 0 0 0 0 0 0 0 0 0 2328.79 0 0 -2328.79
0 0 0 0 0 0 0 0 0 0 0 0 0 0 1727.27 0 0 -1727.27
0 0 0 0 0 0 0 0 0 0 0 0 0 0 1132.32 0 0 -1132.32
0 0 0 0 0 0 0 0 0 0 0 0 0 0 558.693 0 0 -558.693
0 0 0 0 0 0 0 0 0 0 0 0 0 0 19.2002 0 0 -19.2002
0 0 0 0 0 0 0 0 0 0 0 0 0 0 -242.127 0 0 242.127
0 0 0 0 0 0 0 0 0 0 0 0 0 0 -489.408 0 0 489.408
0 0 0 0 0 0 0 0 0 0 0 0 0 0 -670.78 0 0 670.78
0 0 0 0 0 0 0 0 0 0 0 0 0 0 -799.738 0 0 799.738
0 0 0 0 0 0 0 0 0 0 0 0 0 0 -885.266 0 0 885.266
0 0 0 0 0 0 0 0 0 0 0 0 0 0 -936.961 0 0 936.961
0 0 0 0 0 0 0 0 0 0 0 0 0 0 -953.98 0 0 953.98
0 0 0 0 0 0 0 0 0 0 0 0 0 0 -911.493 0 0 911.493
0 0 0 0 0 0 0 0 0 0 0 0 0 0 -805.419 0 0 805.419
0 0 0 0 0 0 0 0 0 0 0 0 0 0 -655.365 0 0 655.365
0 0 0 0 0 0 0 0 0 0 0 0 0 0 -476.674 0 0 476.674
0 0 0 0 0 0 0 0 0 0 0 0 0 0 -283.275 0 0 283.275
0 0 0 0 0 0 0 0 0 0 0 0 0 0 -128.352 0 0 128.352
0 0 0 0 0 0 0 0 0 0 0 0 0 0 27.6527 0 0 -27.6527
0 0 0 0 0 0 0 0 0 0 0 0 0 0 87.7899 0 0 -87.7899
0 0 0 0 0 0 0 0 0 0 0 0 0 0 119.932 0 0 -119.932
0 0 0 0 0 0 0 0 0 0 0 0 0 0 129.165 0 0 -129.165
0 0 0 0 0 0 0 0 -96.7683 0 0 96.7683 0 0 125.749 0 0 -125.749
0 0 0 0 0 0 0 0 -1908.41 0 0 1908.41 0 0 -15.1247 0 0 15.1247
0 0 0 0 0 0 0 0 -3022.87 0 0 3022.87 0 0 -155.45 0 0 155.45
0 0 0 0 0 0 0 0 -4290.3 0 0 4290.3 0 0 -315.17 0 0 315.17
0 0 0 0 0 0 0 0 -5831.56 0 0 5831.56 0 0 -473.663 0 0 473.663
0 0 0 0 0 0 0 0 -7231.51 0 0 7231.51 0 0 -652.58 0 0 652.58
0 0 0 0 0 0 0 0 -8373.94 0 0 8373.94 0 0 -873.937 0 0 873.937
0 0 0 0 0 0 0 0 -9546.66 0 0 9546.66 0 0 -1122.9 0 0 1122.9
0 0 0 0 0 0 0 0 -10802.8 0 0 10802.8 0 0 -1382.56 0 0 1382.56
0 0 0 0 0 0 0 0 -11961.8 0 0 11961.8 0 0 -1655.98 0 0 1655.98
0 0 0 0 0 0 0 0 -12983.6 0 0 12983.6 0 0 -1951.22 0 0 1951.22
0 0 0 0 0 0 0 0 -13986.9 0 0 13986.9 0 0 -2263.96 0 0 2263.96
0 0 0 0 0 0 0 0 -15000.7 0 0 15000.7 0 0 -2584.1 0 0 2584.1
0 0 0 0 0 0 0 0 -15954.5 0 0 15954.5 0 0 -2906.96 0 0 2906.96
0 0 0 0 0 0 0 0 -16839 0 0 16839 0 0 -3232.07 0 0 3232.07
0 0 0 0 0 0 0 0 -17715.4 0 0 17715.4 0 0 -3556.56 0 0 3556.56
0 0 0 0 0 0 0 0 -18609.6 0 0 18609.6 0 0 -3874.04 0 0 3874.04
0 0 0 0 0 0 0 0 -19482.1 0 0 19482.1 0 0 -4179.78 0 0 4179.78
0 0 0 0 0 0 0 0 -20327.4 0 0 20327.4 0 0 -4470.63 0 0 4470.63
0 0 0 0 0 0 0 0 -21174.7 0 0 21174.7 0 0 -4744.05 0 0 4744.05
0 0 0 0 0 0 0 0 -22025.2 0 0 22025.2 0 0 -4997.35 0 0 4997.35
0 0 0 0 0 0 0 0 -22857.6 0 0 22857.6 0 0 -5227.44 0 0 5227.44
0 0 0 0 0 0 0 0 -23671.1 0 0 23671.1 0 0 -5431.4 0 0 5431.4
0 0 0 0 0 0 0 0 -24478.2 0 0 24478.2 0 0 -5607.53 0 0 5607.53
0 0 0 0 0 0 0 0 -25278.2 0 0 25278.2 0 0 -5754.97 0 0 5754.97
0 0 0 0 0 0 0 0 -26065.5 0 0 26065.5 0 0 -5872.56 0 0 5872.56
0 0 0 0 0 0 0 0 -26844.7 0 0 26844.7 0 0 -5958.93 0 0 5958.93
0 0 0 0 0 0 0 0 -27626.2 0 0 27626.2 0 0 -6013.59 0 0 6013.59
0 0 0 0 0 0 0 0 -28412 0 0 28412 0 0 -6037.31 0 0 6037.31
0 0 0 0 0 0 0 0 -29197 0 0 29197 0 0 -6021.69 0 0 6021.69
0 0 0 0 0 0 0 0 -29969.5 0 0 29969.5 0 0 -5950.52 0 0 5950.52
0 0 0 0 0 0 0 0 -30724.7 0 0 30724.7 0 0 -5827.18 0 0 5827.18
0 0 0 0 0 0 0 0 -31455.8 0 0 31455.8 0 0 -5658.43 0 0 5658.43
0 0 0 0 0 0 0 0 -32153.8 0 0 32153.8 0 0 -5450.52 0 0 5450.52
0 0 0 0 0 0 0 0 -32808.2 0 0 32808.2 0 0 -5211.79 0 0 5211.79
0 0 0 0 0 0 0 0 -33398.8 0 0 33398.8 0 0 -4952.22 0 0 4952.22
0 0 0 0 0 0 0 0 -33927.2 0 0 33927.2 0 0 -4679.87 0 0 4679.87
0 0 0 0 0 0 0 0 -34390.9 0 0 34390.9 0 0 -4402.23 0 0 4402.23
0 0 0 0 0 0 0 0 -34779.4 0 0 34779.4 0 0 -4127.72 0 0 4127.72
0 0 0 0 0 0 0 0 -35085.6 0 0 35085.6 0 0 -3864.21 0 0 3864.21
0 0 0 0 0 0 0 0 -35308.2 0 0 35308.2 0 0 -3618.58 0 0 3618.58
0 0 0 0 0 0 0 0 -35445.5 0 0 35445.5 0 0 -3396.27 0 0 3396.27
0 0 0 0 0 0 0 0 -35496.5 0 0 35496.5 0 0 -3201.67 0 0 3201.67
0 0 0 0 0 0 0 0 -35454.5 0 0 35454.5 0 0 -3037.14 0 0 3037.14
0 0 0 0 0 0 0 0 -35322.7 0 0 35322.7 0 0 -2903.46 0 0 2903.46
0 0 0 0 0 0 0 0 -35108.5 0 0 35108.5 0 0 -2801.37 0 0 2801.37
0 0 0 0 0 0 0 0 -34753.8 0 0 34753.8 0 0 -2735.28 0 0 2735.28
0 0 0 0 0 0 0 0 -34277 0 0 34277 0 0 -2702.7 0 0 2702.7
0 0 0 0 0 0 0 0 -33724.6 0 0 33724.6 0 0 -2698.36 0 0 2698.36
0 0 0 0 0 0 0 0 -33110.9 0 0 33110.9 0 0 -2718.41 0 0 2718.41
0 0 0 0 0 0 0 0 -32452.6 0 0 32452.6 0 0 -2757.43 0 0 2757.43
0 0 0 0 0 0 0 0 -31785.1 0 0 31785.1 0 0 -2808.8 0 0 2808.8
0 0 0 0 0 0 0 0 -31151.7 0 0 31151.7 0 0 -2865.09 0 0 2865.09
0 0 0 0 0 0 0 0 -30585.8 0 0 30585.8 0 0 -2919.39 0 0 2919.39
0 0 0 0 0 0 0 0 -30124.5 0 0 30124.5 0 0 -2964.96 0 0 2964.96
0 0 0 0 0 0 0 0 -29787.7 0 0 29787.7 0 0 -2997.83 0 0 2997.83
0 0 0 0 0 0 0 0 -29620.8 0 0 29620.8 0 0 -3011.56 0 0 3011.56
0 0 0 0 0 0 0 0 -29629.6 0 0 29629.6 0 0 -3004.84 0 0 3004.84
0 0 0 0 0 0 0 0 -29828.7 0 0 29828.7 0 0 -2976.34 0 0 2976.34
0 0 0 0 0 0 0 0 -30225.1 0 0 30225.1 0 0 -2927.08 0 0 2927.08
0 0 0 0 0 0 0 0 -30816.8 0 0 30816.8 0 0 -2859.38 0 0 2859.38
0 0 0 0 0 0 0 0 -31583.2 0 0 31583.2 0 0 -2778.29 0 0 2778.29
0 0 0 0 0 0 0 0 -32499.1 0 0 32499.1 0 0 -2690.15 0 0 2690.15
0 0 0 0 0 0 0 0 -33534.3 0 0 33534.3 0 0 -2602.51 0 0 2602.51
0 0 0 0 0 0 0 0 -34311 0 0 34311 0 0 -2547.18 0 0 2547.18
0 0 0 0 0 0 0 0 -35016.5 0 0 35016.5 0 0 -2516.48 0 0 2516.48
0 0 0 0 0 0 0 0 -35703.1 0 0 35703.1 0 0 -2494.94 0 0 2494.94
0 0 0 0 0 0 0 0 -36346.2 0 0 36346.2 0 0 -2490.4 0 0 2490.4
0 0 0 0 0 0 0 0 -37007.2 0 0 37007.2 0 0 -2512.13 0 0 2512.13
0 0 0 0 0 0 0 0 -37637.2 0 0 37637.2 0 0 -2570.63 0 0 2570.63
0 0 0 0 0 0 0 0 -38216.4 0 0 38216.4 0 0 -2668.94 0 0 2668.94
0 0 0 0 0 0 0 0 -38774.6 0 0 38774.6 0 0 -2804.21 0 0 2804.21
0 0 0 0 0 0 0 0 -39299.5 0 0 39299.5 0 0 -2978.59 0 0 2978.59
0 0 0 0 0 0 0 0 -39756 0 0 39756 0 0 -3194.47 0 0 3194.47
0 0 0 0 0 0 0 0 -40121 0 0 40121 0 0 -3452.58 0 0 3452.58
0 0 0 0 0 0 0 0 -40342.6 0 0 40342.6 0 0 -3755.19 0 0 3755.19
0 0 0 0 0 0 0 0 -40410.9 0 0 40410.9 0 0 -4096.92 0 0 4096.92
0 0 0 0 0 0 0 0 -40273.5 0 0 40273.5 0 0 -4470.76 0 0 4470.76
0 0 0 0 0 0 0 0 -39947.5 0 0 39947.5 0 0 -4865.6 0 0 4865.6
0 0 0 0 0 0 0 0 -39450.3 0 0 39450.3 0 0 -5270.89 0 0 5270.89
0 0 0 0 0 0 0 0 -38793.2 0 0 38793.2 0 0 -5675.48 0 0 5675.48
0 0 0 0 0 0 0 0 -37980.7 0 0 37980.7 0 0 -6012.19 0 0 6012.19
0 0 0 0 0 0 0 0 -37016 0 0 37016 0 0 -6190.08 0 0 6190.08
0 0 0 0 0 0 0 0 -35982.5 0 0 35982.5 0 0 -6354.64 0 0 6354.64
0 0 0 0 0 0 0 0 -34903.8 0 0 34903.8 0 0 -6497.97 0 0 6497.97
0 0 0 0 0 0 0 0 -33806.9 0 0 33806.9 0 0 -6610.54 0 0 6610.54
0 0 0 0 0 0 0 0 -32918.4 0 0 32918.4 0 0 -6677.91 0 0 6677.91
0 0 0 0 0 0 0 0 -32033.1 0 0 32033.1 0 0 -6725.35 0 0 6725.35
0 0 0 0 0 0 0 0 -31166.8 0 0 31166.8 0 0 -6751.2 0 0 6751.2
0 0 0 0 0 0 0 0 -30332.6 0 0 30332.6 0 0 -6746.34 0 0 6746.34
0 0 0 0 0 0 0 0 -29535.4 0 0 29535.4 0 0 -6688.2 0 0 6688.2
0 0 0 0 0 0 0 0 -28783.8 0 0 28783.8 0 0 -6573.52 0 0 6573.52
0 0 0 0 0 0 0 0 -28087.2 0 0 28087.2 0 0 -6404.76 0 0 6404.76
0 0 0 0 0 0 0 0 -27454.2 0 0 27454.2 0 0 -6183.07 0 0 6183.07
0 0 0 0 0 0 0 0 -26895.3 0 0 26895.3 0 0 -5908.13 0 0 5908.13
0 0 0 0 0 0 0 0 -26415.4 0 0 26415.4 0 0 -5581.1 0 0 5581.1
0 0 0 0 0 0 0 0 -26013.9 0 0 26013.9 0 0 -5206 0 0 5206
0 0 0 0 0 0 0 0 -25685.4 0 0 25685.4 0 0 -4789.14 0 0 4789.14
0 0 0 0 0 0 0 0 -25423.5 0 0 25423.5 0 0 -4337.27 0 0 4337.27
0 0 0 0 0 0 0 0 -25219.9 0 0 25219.9 0 0 -3856.83 0 0 3856.83
0 0 0 0 0 0 0 0 -25062.2 0 0 25062.2 0 0 -3354.46 0 0 3354.46
0 0 0 0 0 0 0 0 -24919 0 0 24919 0 0 -2838.71 0 0 2838.71
0 0 0 0 0 0 0 0 -24771.3 0 0 24771.3 0 0 -2319.14 0 0 2319.14
0 0 0 0 0 0 0 0 -24615.9 0 0 24615.9 0 0 -1803.93 0 0 1803.93
0 0 0 0 0 0 0 0 -24449.4 0 0 24449.4 0 0 -1300.64 0 0 1300.64
0 0 0 0 0 0 0 0 -24249.7 0 0 24249.7 0 0 -817.629 0 0 817.629
0 0 0 0 0 0 0 0 -23994 0 0 23994 0 0 -362.814 0 0 362.814
0 0 0 0 0 0 0 0 -23669.5 0 0 23669.5 0 0 14.2842 0 0 -14.2842
0 0 0 0 0 0 0 0 -23318.1 0 0 23318.1 0 0 161.478 0 0 -161.478
0 0 0 0 0 0 0 0 -22890.5 0 0 22890.5 0 0 300.295 0 0 -300.295
0 0 0 0 0 0 0 0 -22345.9 0 0 22345.9 0 0 420.544 0 0 -420.544
0 0 0 0 0 0 0 0 -21656.4 0 0 21656.4 0 0 517.531 0 0 -517.531
0 0 0 0 0 0 0 0 -20828.1 0 0 20828.1 0 0 588.217 0 0 -588.217
0 0 0 0 0 0 0 0 -19871 0 0 19871 0 0 637.133 0 0 -637.133
0 0 0 0 0 0 0 0 -18779.9 0 0 18779.9 0 0 666.491 0 0 -666.491
0 0 0 0 0 0 0 0 -17544 0 0 17544 0 0 676.505 0 0 -676.505
0 0 0 0 0 0 0 0 -16157.1 0 0 16157.1 0 0 640.753 0 0 -640.753
0 0 0 0 0 0 0 0 -14635.9 0 0 14635.9 0 0 555.697 0 0 -555.697
0 0 0 0 0 0 0 0 -12990.8 0 0 12990.8 0 0 427.732 0 0 -427.732
0 0 0 0 0 0 0 0 -11235.6 0 0 11235.6 0 0 266.202 0 0 -266.202
0 0 0 0 0 0 0 0 -9387.21 0 0 9387.21 0 0 79.0905 0 0 -79.0905
0 0 0 0 0 0 0 0 -7463.7 0 0 7463.7 0 0 -92.043 0 0 92.043
0 0 0 0 0 0 0 0 -5486.3 0 0 5486.3 0 0 -268.356 0 0 268.356
0 0 0 0 0 0 0 0 -3489.7 0 0 3489.7 0 0 -450.678 0 0 450.678
0 0 0 0 0 0 0 0 -1516 0 0 1516 0 0 -627.662 0 0 627.662
0 0 0 0 0 0 0 0 -518.577 0 0 518.577 0 0 -753.353 0 0 753.353
0 0 0 0 0 0 0 0 0 0 0 0 0 0 -832.133 0 0 832.133
0 0 0 0 0 0 0 0 0 0 0 0 0 0 -964.827 0 0 964.827
0 0 0 0 0 0 0 0 0 0 0 0 0 0 -1085.95 0 0 1085.95
0 0 0 0 0 0 0 0 0 0 0 0 0 0 -1207.74 0 0 1207.74
0 0 0 0 0 0 0 0 0 0 0 0 0 0 -1291.49 0 0 1291.49
0 0 0 0 0 0 0 0 0 0 0 0 0 0 -1321.78 0 0 1321.78
0 0 0 0 0 0 0 0 0 0 0 0 0 0 -1304.72 0 0 1304.72
0 0 0 0 0 0 0 0 0 0 0 0 0 0 -1258.14 0 0 1258.14
0 0 0 0 0 0 0 0 0 0 0 0 0 0 -1192.65 0 0 1192.65
0 0 0 0 0 0 0 0 0 0 0 0 0 0 -1096.95 0 0 1096.95
0 0 0 0 0 0 0 0 0 0 0 0 0 0 -948.42 0 0 948.42
0 0 0 0 0 0 0 0 0 0 0 0 0 0 -740.014 0 0 740.014
0 0 0 0 0 0 0 0 0 0 0 0 0 0 -479.335 0 0 479.335
0 0 0 0 0 0 0 0 -9.3342 0 0 9.3342 0 0 -193.757 0 0 193.757
0 0 0 0 0 0 0 0 -63.5458 0 0 63.5458 0 0 14.8643 0 0 -14.8643
0 0 0 0 0 0 0 0 -202.332 0 0 202.332 0 0 145.691 0 0 -145.691
0 0 0 0 0 0 0 0 -393.124 0 0 393.124 0 0 285.281 0 0 -285.281
0 0 0 0 0 0 0 0 -622.873 0 0 622.873 0 0 432.104 0 0 -432.104
0 0 0 0 0 0 0 0 -823.391 0 0 823.391 0 0 575.953 0 0 -575.953
0 0 0 0 0 0 0 0 -951.235 0 0 951.235 0 0 711.921 0 0 -711.921
0 0 0 0 0 0 0 0 -1019.17 0 0 1019.17 0 0 839.434 0 0 -839.434
0 0 0 0 0 0 0 0 -1037.14 0 0 1037.14 0 0 960.943 0 0 -960.943
0 0 0 0 0 0 0 0 -963.672 0 0 963.672 0 0 1073.57 0 0 -1073.57
0 0 0 0 0 0 0 0 -807.827 0 0 807.827 0 0 1176.56 0 0 -1176.56
0 0 0 0 0 0 0 0 -532.908 0 0 532.908 0 0 1266.04 0 0 -1266.04
0 0 0 0 0 0 0 0 -125.224 0 0 125.224 0 0 1340.26 0 0 -1340.26
0 0 0 0 0 0 0 0 0 0 0 0 0 0 1396.03 0 0 -1396.03
0 0 0 0 0 0 0 0 0 0 0 0 0 0 1420.44 0 0 -1420.44
0 0 0 0 0 0 0 0 0 0 0 0 0 0 1417.19 0 0 -1417.19
0 0 0 0 0 0 0 0 0 0 0 0 0 0 1395.9 0 0 -1395.9
0 0 0 0 0 0 0 0 0 0 0 0 0 0 1361.31 0 0 -1361.31
0 0 0 0 0 0 0 0 0 0 0 0 0 0 1319 0 0 -1319
0 0 0 0 0 0 0 0 0 0 0 0 0 0 1262.48 0 0 -1262.48
0 0 0 0 0 0 0 0 0 0 0 0 0 0 1189.3 0 0 -1189.3
0 0 0 0 0 0 0 0 0 0 0 0 0 0 1061.01 0 0 -1061.01
0 0 0 0 0 0 0 0 0 0 0 0 0 0 933.566 0 0 -933.566
0 0 0 0 0 0 0 0 0 0 0 0 0 0 815.847 0 0 -815.847
0 0 0 0 0 0 0 0 0 0 0 0 0 0 705.384 0 0 -705.384
0 0 0 0 0 0 0 0 0 0 0 0 0 0 596.962 0 0 -596.962
0 0 0 0 0 0 0 0 0 0 0 0 0 0 481.452 0 0 -481.452
0 0 0 0 0 0 0 0 0 0 0 0 0 0 368.255 0 0 -368.255
0 0 0 0 0 0 0 0 0 0 0 0 0 0 274.655 0 0 -274.655
0 0 0 0 0 0 0 0 0 0 0 0 0 0 209.257 0 0 -209.257
0 0 0 0 0 0 0 0 0 0 0 0 0 0 169.897 0 0 -169.897
0 0 0 0 0 0 0 0 0 0 0 0 0 0 149.735 0 0 -149.735
0 0 0 0 0 0 0 0 0 0 0 0 0 0 145.479 0 0 -145.479
0 0 0 0 0 0 0 0 0 0 0 0 0 0 162.188 0 0 -162.188
0 0 0 0 0 0 0 0 0 0 0 0 0 0 206.906 0 0 -206.906
0 0 0 0 0 0 0 0 0 0 0 0 0 0 281.75 0 0 -281.75
0 0 0 0 0 0 0 0 0 0 0 0 0 0 382.637 0 0 -382.637
0 0 0 0 0 0 0 0 0 0 0 0 0 0 503.329 0 0 -503.329
0 0 0 0 0 0 0 0 0 0 0 0 0 0 640.867 0 0 -640.867
0 0 0 0 0 0 0 0 0 0 0 0 0 0 771.231 0 0 -771.231
0 0 0 0 0 0 0 0 0 0 0 0 0 0 916.146 0 0 -916.146
0 0 0 0 0 0 0 0 0 0 0 0 0 0 1073.42 0 0 -1073.42
0 0 0 0 0 0 0 0 0 0 0 0 0 0 1243.08 0 0 -1243.08
0 0 0 0 0 0 0 0 0 0 0 0 0 0 1419.18 0 0 -1419.18
0 0 0 0 0 0 0 0 0 0 0 0 0 0 1503.04 0 0 -1503.04
0 0 0 0 0 0 0 0 0 0 0 0 0 0 1596.46 0 0 -1596.46
0 0 0 0 0 0 0 0 0 0 0 0 0 0 1692.17 0 0 -1692.17
0 0 0 0 0 0 0 0 0 0 0 0 0 0 1785.87 0 0 -1785.87
0 0 0 0 0 0 0 0 0 0 0 0 0 0 1875.24 0 0 -1875.24
0 0 0 0 0 0 0 0 0 0 0 0 0 0 1959.55 0 0 -1959.55
0 0 0 0 0 0 0 0 0 0 0 0 0 0 2040.8 0 0 -2040.8
0 0 0 0 0 0 0 0 0 0 0 0 0 0 2119.77 0 0 -2119.77
0 0 0 0 0 0 0 0 0 0 0 0 0 0 2194.98 0 0 -2194.98
0 0 0 0 0 0 0 0 0 0 0 0 0 0 2264.76 0 0 -2264.76
0 0 0 0 0 0 0 0 0 0 0 0 0 0 2328.06 0 0 -2328.06
0 0 0 0 0 0 0 0 0 0 0 0 0 0 2390.31 0 0 -2390.31
0 0 0 0 0 0 0 0 0 0 0 0 0 0 2450.72 0 0 -2450.72
0 0 0 0 0 0 0 0 0 0 0 0 0 0 2510.09 0 0 -2510.09
0 0 0 0 0 0 0 0 0 0 0 0 0 0 2563.95 0 0 -2563.95
0 0 0 0 0 0 0 0 0 0 0 0 0 0 2609.84 0 0 -2609.84
0 0 0 0 0 0 0 0 0 0 0 0 0 0 2647.47 0 0 -2647.47
0 0 0 0 0 0 0 0 0 0 0 0 0 0 2679.61 0 0 -2679.61
0 0 0 0 0 0 0 0 0 0 0 0 0 0 2708.74 0 0 -2708.74
0 0 0 0 0 0 0 0 0 0 0 0 0 0 2735.17 0 0 -2735.17
0 0 0 0 0 0 0 0 0 0 0 0 0 0 2757.57 0 0 -2757.57
0 0 0 0 0 0 0 0 0 0 0 0 0 0 2774.95 0 0 -2774.95
0 0 0 0 0 0 0 0 0 0 0 0 0 0 2788.18 0 0 -2788.18
0 0 0 0 0 0 0 0 0 0 0 0 0 0 2799.6 0 0 -2799.6
0 0 0 0 0 0 0 0 0 0 0 0 0 0 2811.41 0 0 -2811.41
0 0 0 0 0 0 0 0 0 0 0 0 0 0 2824.46 0 0 -2824.46
0 0 0 0 0 0 0 0 0 0 0 0 0 0 2838.52 0 0 -2838.52
0 0 0 0 0 0 0 0 0 0 0 0 0 0 2854.12 0 0 -2854.12
0 0 0 0 0 0 0 0 0 0 0 0 0 0 2872.58 0 0 -2872.58
0 0 0 0 0 0 0 0 0 0 0 0 0 0 2895.84 0 0 -2895.84
0 0 0 0 0 0 0 0 0 0 0 0 0 0 2925.99 0 0 -2925.99
0 0 0 0 0 0 0 0 0 0 0 0 0 0 2963.99 0 0 -2963.99
0 0 0 0 0 0 0 0 0 0 0 0 0 0 3010.3 0 0 -3010.3
0 0 0 0 0 0 0 0 0 0 0 0 0 0 3065.65 0 0 -3065.65
0 0 0 0 0 0 0 0 0 0 0 0 0 0 3132.03 0 0 -3132.03
0 0 0 0 0 0 0 0 0 0 0 0 0 0 3209.79 0 0 -3209.79
0 0 0 0 0 0 0 0 0 0 0 0 0 0 3299.77 0 0 -3299.77
0 0 0 0 0 0 0 0 0 0 0 0 0 0 3401.68 0 0 -3401.68
0 0 0 0 0 0 0 0 0 0 0 0 0 0 3516.26 0 0 -3516.26
0 0 0 0 0 0 0 0 0 0 0 0 0 0 3646.5 0 0 -3646.5
0 0 0 0 0 0 0 0 0 0 0 0 0 0 3792.88 0 0 -3792.88
0 0 0 0 0 0 0 0 0 0 0 0 0 0 3955.5 0 0 -3955.5
0 0 0 0 0 0 0 0 0 0 0 0 0 0 4133.41 0 0 -4133.41
0 0 0 0 0 0 0 0 0 0 0 0 0 0 4324.17 0 0 -4324.17
0 0 0 0 0 0 0 0 0 0 0 0 0 0 4525.07 0 0 -4525.07
0 0 0 0 0 0 0 0 0 0 0 0 0 0 4734.87 0 0 -4734.87
0 0 0 0 0 0 0 0 0 0 0 0 0 0 4951.55 0 0 -4951.55
0 0 0 0 0 0 0 0 0 0 0 0 0 0 5172.08 0 0 -5172.08
0 0 0 0 0 0 0 0 0 0 0 0 0 0 5391.74 0 0 -5391.74
0 0 0 0 0 0 0 0 0 0 0 0 0 0 5607.3 0 0 -5607.3
0 0 0 0 0 0 0 0 0 0 0 0 0 0 5815.58 0 0 -5815.58
0 0 0 0 0 0 0 0 0 0 0 0 0 0 6014.1 0 0 -6014.1
0 0 0 0 0 0 0 0 0 0 0 0 0 0 6199.71 0 0 -6199.71
0 0 0 0 0 0 0 0 0 0 0 0 0 0 6368.75 0 0 -6368.75
0 0 0 0 0 0 0 0 0 0 0 0 0 0 6517.66 0 0 -6517.66
0 0 0 0 0 0 0 0 0 0 0 0 0 0 6643.64 0 0 -6643.64
0 0 0 0 0 0 0 0 0 0 0 0 0 0 6744.73 0 0 -6744.73
0 0 0 0 0 0 0 0 0 0 0 0 0 0 6819.41 0 0 -6819.41
0 0 0 0 0 0 0 0 0 0 0 0 0 0 6866.25 0 0 -6866.25
0 0 0 0 0 0 0 0 0 0 0 0 0 0 6883.9 0 0 -6883.9
0 0 0 0 0 0 0 0 0 0 0 0 0 0 6845.12 0 0 -6845.12
0 0 0 0 0 0 0 0 0 0 0 0 0 0 6738.23 0 0 -6738.23
0 0 0 0 0 0 0 0 0 0 0 0 0 0 6565.92 0 0 -6565.92
0 0 0 0 0 0 0 0 0 0 0 0 0 0 6331.04 0 0 -6331.04
0 0 0 0 0 0 0 0 0 0 0 0 0 0 6036.62 0 0 -6036.62
0 0 0 0 0 0 0 0 0 0 0 0 0 0 5686.47 0 0 -5686.47
0 0 0 0 0 0 0 0 0 0 0 0 0 0 5287.64 0 0 -5287.64
0 0 0 0 0 0 0 0 0 0 0 0 0 0 4849.09 0 0 -4849.09
0 0 0 0 0 0 0 0 0 0 0 0 0 0 4379.8 0 0 -4379.8
0 0 0 0 0 0 0 0 0 0 0 0 0 0 3887.94 0 0 -3887.94
0 0 0 0 0 0 0 0 0 0 0 0 0 0 3381.42 0 0 -3381.42
0 0 0 0 0 0 0 0 0 0 0 0 0 0 2868.96 0 0 -2868.96
0 0 0 0 0 0 0 0 0 0 0 0 0 0 2360.12 0 0 -2360.12
0 0 0 0 0 0 0 0 0 0 0 0 0 0 1864.33 0 0 -1864.33
0 0 0 0 0 0 0 0 0 0 0 0 0 0 1389.91 0 0 -1389.91
0 0 0 0 0 0 0 0 0 0 0 0 0 0 943.905 0 0 -943.905
0 0 0 0 0 0 0 0 0 0 0 0 0 0 542.001 0 0 -542.001
0 0 0 0 0 0 0 0 0 0 0 0 0 0 226.644 0 0 -226.644
0 0 0 0 0 0 0 0 0 0 0 0 0 0 -12.3661 0 0 12.3661
0 0 0 0 0 0 0 0 0 0 0 0 0 0 -131.42 0 0 131.42
0 0 0 0 0 0 0 0 0 0 0 0 0 0 -242.478 0 0 242.478
0 0 0 0 0 0 0 0 0 0 0 0 0 0 -345.973 0 0 345.973
0 0 0 0 0 0 0 0 0 0 0 0 0 0 -426.261 0 0 426.261
0 0 0 0 0 0 0 0 0 0 0 0 0 0 -476.06 0 0 476.06
0 0 0 0 0 0 0 0 0 0 0 0 0 0 -497.507 0 0 497.507
0 0 0 0 0 0 0 0 0 0 0 0 0 0 -496.373 0 0 496.373
0 0 0 0 0 0 0 0 0 0 0 0 0 0 -469.645 0 0 469.645
0 0 0 0 0 0 0 0 0 0 0 0 0 0 -416.196 0 0 416.196
0 0 0 0 0 0 0 0 0 0 0 0 0 0 -331.888 0 0 331.888
0 0 0 0 0 0 0 0 0 0 0 0 0 0 -218.433 0 0 218.433
0 0 0 0 0 0 0 0 0 0 0 0 0 0 -88.3631 0 0 88.3631
0 0 0 0 0 0 0 0 0 0 0 0 0 0 31.755 0 0 -31.755
0 0 0 0 0 0 0 0 0 0 0 0 0 0 144.05 0 0 -144.05
0 0 0 0 0 0 0 0 0 0 0 0 0 0 248.757 0 0 -248.757
0 0 0 0 0 0 0 0 0 0 0 0 0 0 349.926 0 0 -349.926
0 0 0 0 0 0 0 0 0 0 0 0 0 0 442.55 0 0 -442.55
0 0 0 0 0 0 0 0 0 0 0 0 0 0 519.542 0 0 -519.542
0 0 0 0 0 0 0 0 0 0 0 0 0 0 577.623 0 0 -577.623
0 0 0 0 0 0 0 0 0 0 0 0 0 0 615.63 0 0 -615.63
0 0 0 0 0 0 0 0 0 0 0 0 0 0 634.73 0 0 -634.73
0 0 0 0 0 0 0 0 0 0 0 0 0 0 634.942 0 0 -634.942
0 0 0 0 0 0 0 0 0 0 0 0 0 0 613.216 0 0 -613.216
0 0 0 0 0 0 0 0 0 0 0 0 0 0 570.487 0 0 -570.487
0 0 0 0 0 0 0 0 0 0 0 0 0 0 509.494 0 0 -509.494
0 0 0 0 0 0 0 0 0 0 0 0 0 0 435.246 0 0 -435.246
0 0 0 0 0 0 0 0 0 0 0 0 0 0 353.669 0 0 -353.669
0 0 0 0 0 0 0 0 0 0 0 0 0 0 270.211 0 0 -270.211
0 0 0 0 0 0 0 0 0 0 0 0 0 0 190.092 0 0 -190.092
0 0 0 0 0 0 0 0 0 0 0 0 0 0 119.02 0 0 -119.02
0 0 0 0 0 0 0 0 0 0 0 0 0 0 64.2327 0 0 -64.2327
0 0 0 0 0 0 0 0 0 0 0 0 0 0 29.8766 0 0 -29.8766
0 0 0 0 0 0 0 0 0 0 0 0 0 0 22.9497 0 0 -22.9497
0 0 0 0 0 0 0 0 0 0 0 0 0 0 49.4028 0 0 -49.4028
0 0 0 0 0 0 0 0 0 0 0 0 0 0 122.322 0 0 -122.322
0 0 0 0 0 0 0 0 0 0 0 0 0 0 245.207 0 0 -245.207
0 0 0 0 0 0 0 0 0 0 0 0 0 0 394.993 0 0 -394.993
0 0 0 0 0 0 0 0 0 0 0 0 0 0 595.734 0 0 -595.734
0 0 0 0 0 0 0 0 0 0 0 0 0 0 793.703 0 0 -793.703
0 0 0 0 0 0 0 0 0 0 0 0 0 0 1027.58 0 0 -1027.58
0 0 0 0 0 0 0 0 0 0 0 0 0 0 1298.27 0 0 -1298.27
0 0 0 0 0 0 0 0 0 0 0 0 0 0 1603.97 0 0 -1603.97
0 0 0 0 0 0 0 0 0 0 0 0 0 0 1940.76 0 0 -1940.76
0 0 0 0 0 0 0 0 0 0 0 0 0 0 2306.69 0 0 -2306.69
0 0 0 0 0 0 0 0 0 0 0 0 0 0 2697.46 0 0 -2697.46
0 0 0 0 0 0 0 0 0 0 0 0 0 0 3107.74 0 0 -3107.74
0 0 0 0 0 0 0 0 0 0 0 0 0 0 3530.14 0 0 -3530.14
0 0 0 0 0 0 0 0 0 0 0 0 0 0 3956.02 0 0 -3956.02
0 0 0 0 0 0 0 0 0 0 0 0 0 0 4377.39 0 0 -4377.39
0 0 0 0 0 0 0 0 0 0 0 0 0 0 4787.72 0 0 -4787.72
0 0 0 0 0 0 0 0 0 0 0 0 0 0 5180.72 0 0 -5180.72
0 0 0 0 0 0 0 0 0 0 0 0 0 0 5549.16 0 0 -5549.16
0 0 0 0 0 0 0 0 0 0 0 0 0 0 5885.45 0 0 -5885.45
0 0 0 0 0 0 0 0 0 0 0 0 0 0 6182.57 0 0 -6182.57
0 0 0 0 0 0 0 0 0 0 0 0 0 0 6400.1 0 0 -6400.1
0 0 0 0 0 0 0 0 0 0 0 0 0 0 6574.63 0 0 -6574.63
0 0 0 0 0 0 0 0 0 0 0 0 0 0 6702.19 0 0 -6702.19
0 0 0 0 0 0 0 0 0 0 0 0 0 0 6786.44 0 0 -6786.44
0 0 0 0 0 0 0 0 0 0 0 0 0 0 6822.9 0 0 -6822.9
0 0 0 0 0 0 0 0 0 0 0 0 0 0 6800.94 0 0 -6800.94
0 0 0 0 0 0 0 0 0 0 0 0 0 0 6713.02 0 0 -6713.02
0 0 0 0 0 0 0 0 0 0 0 0 0 0 6561.31 0 0 -6561.31
0 0 0 0 0 0 0 0 0 0 0 0 0 0 6350.05 0 0 -6350.05
0 0 0 0 0 0 0 0 0 0 0 0 0 0 6083.01 0 0 -6083.01
0 0 0 0 0 0 0 0 0 0 0 0 0 0 5764.89 0 0 -5764.89
0 0 0 0 0 0 0 0 0 0 0 0 0 0 5402.51 0 0 -5402.51
0 0 0 0 0 0 0 0 0 0 0 0 0 0 5003.83 0 0 -5003.83
0 0 0 0 0 0 0 0 0 0 0 0 0 0 4578.62 0 0 -4578.62
0 0 0 0 0 0 0 0 0 0 0 0 0 0 4133.28 0 0 -4133.28
0 0 0 0 0 0 0 0 0 0 0 0 0 0 3673.66 0 0 -3673.66
0 0 0 0 0 0 0 0 0 0 0 0 0 0 3204.38 0 0 -3204.38
0 0 0 0 0 0 0 0 0 0 0 0 0 0 2732.04 0 0 -2732.04
0 0 0 0 0 0 0 0 0 0 0 0 0 0 2263.56 0 0 -2263.56
0 0 0 0 0 0 0 0 0 0 0 0 0 0 1804.86 0 0 -1804.86
0 0 0 0 0 0 0 0 0 0 0 0 0 0 1359.8 0 0 -1359.8
0 0 0 0 0 0 0 0 0 0 0 0 0 0 931.199 0 0 -931.199
0 0 0 0 0 0 0 0 0 0 0 0 0 0 522.175 0 0 -522.175
0 0 0 0 0 0 0 0 0 0 0 0 0 0 134.799 0 0 -134.799
0 0 0 0 0 0 0 0 0 0 0 0 0 0 -84.7376 0 0 84.7376
0 0 0 0 0 0 0 0 0 0 0 0 0 0 -249.302 0 0 249.302
0 0 0 0 0 0 0 0 0 0 0 0 0 0 -405.009 0 0 405.009
0 0 0 0 0 0 0 0 0 0 0 0 0 0 -551.937 0 0 551.937
0 0 0 0 0 0 0 0 0 0 0 0 0 0 -686.031 0 0 686.031
0 0 0 0 0 0 0 0 0 0 0 0 0 0 -787.277 0 0 787.277
0 0 0 0 0 0 0 0 0 0 0 0 0 0 -881.409 0 0 881.409
0 0 0 0 0 0 0 0 0 0 0 0 0 0 -972.751 0 0 972.751
0 0 0 0 0 0 0 0 0 0 0 0 0 0 -1065.27 0 0 1065.27
0 0 0 0 0 0 0 0 0 0 0 0 0 0 -1156.36 0 0 1156.36
0 0 0 0 0 0 0 0 0 0 0 0 0 0 -1246.21 0 0 1246.21
0 0 0 0 0 0 0 0 0 0 0 0 0 0 -1338.08 0 0 1338.08
0 0 0 0 0 0 0 0 0 0 0 0 0 0 -1434.06 0 0 1434.06
0 0 0 0 0 0 0 0 0 0 0 0 0 0 -1536.42 0 0 1536.42
0 0 0 0 0 0 0 0 0 0 0 0 0 0 -1645.43 0 0 1645.43
0 0 0 0 0 0 0 0 0 0 0 0 0 0 -1759.19 0 0 1759.19
0 0 0 0 0 0 0 0 0 0 0 0 0 0 -1878.36 0 0 1878.36
0 0 0 0 0 0 0 0 0 0 0 0 0 0 -2003.78 0 0 2003.78
0 0 0 0 0 0 0 0 0 0 0 0 0 0 -2135.99 0 0 2135.99
0 0 0 0 0 0 0 0 0 0 0 0 0 0 -2274.5 0 0 2274.5
0 0 0 0 0 0 0 0 0 0 0 0 0 0 -2417.26 0 0 2417.26
0 0 0 0 0 0 0 0 0 0 0 0 0 0 -2561.86 0 0 2561.86
0 0 0 0 0 0 0 0 0 0 0 0 0 0 -2706.52 0 0 2706.52
0 0 0 0 0 0 0 0 0 0 0 0 0 0 -2849.62 0 0 2849.62
0 0 0 0 0 0 0 0 0 0 0 0 0 0 -2989.32 0 0 2989.32
0 0 0 0 0 0 0 0 0 0 0 0 0 0 -3123.25 0 0 3123.25
0 0 0 0 0 0 0 0 0 0 0 0 0 0 -3248.73 0 0 3248.73
0 0 0 0 0 0 0 0 0 0 0 0 0 0 -3363.13 0 0 3363.13
0 0 0 0 0 0 0 0 0 0 0 0 0 0 -3464.89 0 0 3464.89
0 0 0 0 0 0 0 0 0 0 0 0 0 0 -3552.51 0 0 3552.51
0 0 0 0 0 0 0 0 0 0 0 0 0 0 -3623.19 0 0 3623.19
0 0 0 0 0 0 0 0 0 0 0 0 0 0 -3677 0 0 3677
0 0 0 0 0 0 0 0 0 0 0 0 0 0 -3713.1 0 0 3713.1
0 0 0 0 0 0 0 0 0 0 0 0 0 0 -3731.42 0 0 3731.42
0 0 0 0 0 0 0 0 0 0 0 0 0 0 -3725.53 0 0 3725.53
0 0 0 0 0 0 0 0 0 0 0 0 0 0 -3674.07 0 0 3674.07
0 0 0 0 0 0 0 0 0 0 0 0 0 0 -3576.06 0 0 3576.06
0 0 0 0 0 0 0 0 0 0 0 0 0 0 -3433.63 0 0 3433.63
0 0 0 0 0 0 0 0 0 0 0 0 0 0 -3248.92 0 0 3248.92
0 0 0 0 0 0 0 0 0 0 0 0 0 0 -3024.26 0 0 3024.26
0 0 0 0 0 0 0 0 0 0 0 0 0 0 -2763.12 0 0 2763.12
0 0 0 0 0 0 0 0 0 0 0 0 0 0 -2472.41 0 0 2472.41
0 0 0 0 0 0 0 0 0 0 0 0 0 0 -2172.44 0 0 2172.44
0 0 0 0 0 0 0 0 0 0 0 0 0 0 -1840.31 0 0 1840.31
0 0 0 0 0 0 0 0 0 0 0 0 0 0 -1491.42 0 0 1491.42
0 0 0 0 0 0 0 0 0 0 0 0 0 0 -1132.43 0 0 1132.43
0 0 0 0 0 0 0 0 0 0 0 0 0 0 -762.763 0 0 762.763
0 0 0 0 0 0 0 0 0 0 0 0 0 0 -389.775 0 0 389.775
0 0 0 0 0 0 0 0 0 0 0 0 0 0 -54.5779 0 0 54.5779
0 0 0 0 0 0 0 0 0 0 0 0 0 0 162.505 0 0 -162.505
0 0 0 0 0 0 0 0 0 0 0 0 0 0 373.263 0 0 -373.263
0 0 0 0 0 0 0 0 0 0 0 0 0 0 582.209 0 0 -582.209
0 0 0 0 0 0 0 0 0 0 0 0 0 0 780.235 0 0 -780.235
0 0 0 0 0 0 0 0 0 0 0 0 0 0 941.373 0 0 -941.373
0 0 0 0 0 0 0 0 0 0 0 0 0 0 1089.43 0 0 -1089.43
0 0 0 0 0 0 0 0 0 0 0 0 0 0 1220.88 0 0 -1220.88
0 0 0 0 0 0 0 0 0 0 0 0 0 0 1349.86 0 0 -1349.86
0 0 0 0 0 0 0 0 0 0 0 0 0 0 1474.76 0 0 -1474.76
0 0 0 0 0 0 0 0 0 0 0 0 0 0 1586.31 0 0 -1586.31
0 0 0 0 0 0 0 0 0 0 0 0 0 0 1676.07 0 0 -1676.07
0 0 0 0 0 0 0 0 0 0 0 0 0 0 1743.25 0 0 -1743.25
0 0 0 0 0 0 0 0 0 0 0 0 0 0 1793.35 0 0 -1793.35
0 0 0 0 0 0 0 0 0 0 0 0 0 0 1830.8 0 0 -1830.8
0 0 0 0 0 0 0 0 0 0 0 0 0 0 1853.61 0 0 -1853.61
0 0 0 0 0 0 0 0 0 0 0 0 0 0 1852.14 0 0 -1852.14
0 0 0 0 0 0 0 0 0 0 0 0 0 0 1811.9 0 0 -1811.9
0 0 0 0 0 0 0 0 0 0 0 0 0 0 1734.52 0 0 -1734.52
0 0 0 0 0 0 0 0 0 0 0 0 0 0 1626.71 0 0 -1626.71
0 0 0 0 0 0 0 0 0 0 0 0 0 0 1491.42 0 0 -1491.42
0 0 0 0 0 0 0 0 0 0 0 0 0 0 1326.31 0 0 -1326.31
0 0 0 0 0 0 0 0 0 0 0 0 0 0 1127.91 0 0 -1127.91
0 0 0 0 0 0 0 0 -884.587 0 0 884.587 0 0 827.385 0 0 -827.385
0 0 0 0 0 0 0 0 -1566.89 0 0 1566.89 0 0 484.049 0 0 -484.049
0 0 0 0 0 0 0 0 -2237.2 0 0 2237.2 0 0 147.028 0 0 -147.028
0 0 0 0 0 0 0 0 -2995.07 0 0 2995.07 0 0 -93.7162 0 0 93.7162
0 0 0 0 0 0 0 0 -3844.21 0 0 3844.21 0 0 -292.302 0 0 292.302
0 0 0 0 0 0 0 0 -4667.79 0 0 4667.79 0 0 -505.595 0 0 505.595
0 0 0 0 0 0 0 0 -5416.25 0 0 5416.25 0 0 -736.48 0 0 736.48
0 0 0 0 0 0 0 0 -6186.08 0 0 6186.08 0 0 -975.847 0 0 975.847
0 0 0 0 0 0 0 0 -7026.5 0 0 7026.5 0 0 -1217.98 0 0 1217.98
0 0 0 0 0 0 0 0 -7906.87 0 0 7906.87 0 0 -1463.8 0 0 1463.8
0 0 0 0 0 0 0 0 -8770.84 0 0 8770.84 0 0 -1716.56 0 0 1716.56
0 0 0 0 0 0 0 0 -9603.66 0 0 9603.66 0 0 -1976.87 0 0 1976.87
0 0 0 0 0 0 0 0 -10440.4 0 0 10440.4 0 0 -2240.7 0 0 2240.7
0 0 0 0 0 0 0 0 -11306.9 0 0 11306.9 0 0 -2503.63 0 0 2503.63
0 0 0 0 0 0 0 0 -12188.4 0 0 12188.4 0 0 -2764.29 0 0 2764.29
0 0 0 0 0 0 0 0 -13055.8 0 0 13055.8 0 0 -3023.53 0 0 3023.53
0 0 0 0 0 0 0 0 -13899.9 0 0 13899.9 0 0 -3281.53 0 0 3281.53
0 0 0 0 0 0 0 0 -14733.3 0 0 14733.3 0 0 -3536.46 0 0 3536.46
0 0 0 0 0 0 0 0 -15565.1 0 0 15565.1 0 0 -3785.64 0 0 3785.64
0 0 0 0 0 0 0 0 -16383.4 0 0 16383.4 0 0 -4027.56 0 0 4027.56
0 0 0 0 0 0 0 0 -17174.5 0 0 17174.5 0 0 -4261.73 0 0 4261.73
0 0 0 0 0 0 0 0 -17931.7 0 0 17931.7 0 0 -4487.97 0 0 4487.97
0 0 0 0 0 0 0 0 -18658.2 0 0 18658.2 0 0 -4705.31 0 0 4705.31
0 0 0 0 0 0 0 0 -19354.4 0 0 19354.4 0 0 -4912.38 0 0 4912.38
0 0 0 0 0 0 0 0 -20012.8 0 0 20012.8 0 0 -5107.99 0 0 5107.99
0 0 0 0 0 0 0 0 -20623.8 0 0 20623.8 0 0 -5291.45 0 0 5291.45
0 0 0 0 0 0 0 0 -21182.5 0 0 21182.5 0 0 -5462.32 0 0 5462.32
0 0 0 0 0 0 0 0 -21688 0 0 21688 0 0 -5620.07 0 0 5620.07
0 0 0 0 0 0 0 0 -22139.1 0 0 22139.1 0 0 -5763.97 0 0 5763.97
0 0 0 0 0 0 0 0 -22531.5 0 0 22531.5 0 0 -5893.21 0 0 5893.21
0 0 0 0 0 0 0 0 -22859.9 0 0 22859.9 0 0 -6007.17 0 0 6007.17
0 0 0 0 0 0 0 0 -23121.4 0 0 23121.4 0 0 -6105.37 0 0 6105.37
0 0 0 0 0 0 0 0 -23308.5 0 0 23308.5 0 0 -6187.68 0 0 6187.68
0 0 0 0 0 0 0 0 -23410 0 0 23410 0 0 -6254.29 0 0 6254.29
0 0 0 0 0 0 0 0 -23423.5 0 0 23423.5 0 0 -6304.56 0 0 6304.56
0 0 0 0 0 0 0 0 -23332.5 0 0 23332.5 0 0 -6337.18 0 0 6337.18
0 0 0 0 0 0 0 0 -23143.3 0 0 23143.3 0 0 -6351.11 0 0 6351.11
0 0 0 0 0 0 0 0 -22859.7 0 0 22859.7 0 0 -6336.04 0 0 6336.04
0 0 0 0 0 0 0 0 -22478.7 0 0 22478.7 0 0 -6281.37 0 0 6281.37
0 0 0 0 0 0 0 0 -22004.1 0 0 22004.1 0 0 -6186.56 0 0 6186.56
0 0 0 0 0 0 0 0 -21446.3 0 0 21446.3 0 0 -6051.45 0 0 6051.45
0 0 0 0 0 0 0 0 -20817.8 0 0 20817.8 0 0 -5874.94 0 0 5874.94
0 0 0 0 0 0 0 0 -20128.9 0 0 20128.9 0 0 -5656.67 0 0 5656.67
0 0 0 0 0 0 0 0 -19394.4 0 0 19394.4 0 0 -5397.3 0 0 5397.3
0 0 0 0 0 0 0 0 -18627.9 0 0 18627.9 0 0 -5097.9 0 0 5097.9
0 0 0 0 0 0 0 0 -17831.2 0 0 17831.2 0 0 -4760.99 0 0 4760.99
0 0 0 0 0 0 0 0 -17008.7 0 0 17008.7 0 0 -4388.73 0 0 4388.73
0 0 0 0 0 0 0 0 -16170.6 0 0 16170.6 0 0 -3983.18 0 0 3983.18
0 0 0 0 0 0 0 0 -15327.7 0 0 15327.7 0 0 -3547.16 0 0 3547.16
0 0 0 0 0 0 0 0 -14485.5 0 0 14485.5 0 0 -3084.38 0 0 3084.38
0 0 0 0 0 0 0 0 -13647.4 0 0 13647.4 0 0 -2599.06 0 0 2599.06
0 0 0 0 0 0 0 0 -12820.5 0 0 12820.5 0 0 -2095.44 0 0 2095.44
0 0 0 0 0 0 0 0 -12009.8 0 0 12009.8 0 0 -1577.96 0 0 1577.96
0 0 0 0 0 0 0 0 -11219 0 0 11219 0 0 -1051.59 0 0 1051.59
0 0 0 0 0 0 0 0 -10455 0 0 10455 0 0 -521.075 0 0 521.075
0 0 0 0 0 0 0 0 -9724.83 0 0 9724.83 0 0 -42.806 0 0 42.806
0 0 0 0 0 0 0 0 -9129.51 0 0 9129.51 0 0 176.216 0 0 -176.216
0 0 0 0 0 0 0 0 -8580.95 0 0 8580.95 0 0 390.782 0 0 -390.782
0 0 0 0 0 0 0 0 -8074.26 0 0 8074.26 0 0 605.308 0 0 -605.308
0 0 0 0 0 0 0 0 -7601.88 0 0 7601.88 0 0 810.92 0 0 -810.92
0 0 0 0 0 0 0 0 -7139.88 0 0 7139.88 0 0 1002.51 0 0 -1002.51
0 0 0 0 0 0 0 0 -6706.83 0 0 6706.83 0 0 1182.61 0 0 -1182.61
0 0 0 0 0 0 0 0 -6304 0 0 6304 0 0 1353.71 0 0 -1353.71
0 0 0 0 0 0 0 0 -5918.15 0 0 5918.15 0 0 1515.16 0 0 -1515.16
0 0 0 0 0 0 0 0 -5535.98 0 0 5535.98 0 0 1662.8 0 0 -1662.8
0 0 0 0 0 0 0 0 -5147.3 0 0 5147.3 0 0 1792.77 0 0 -1792.77
0 0 0 0 0 0 0 0 -4750.49 0 0 4750.49 0 0 1904.06 0 0 -1904.06
0 0 0 0 0 0 0 0 -4345.42 0 0 4345.42 0 0 1997.98 0 0 -1997.98
0 0 0 0 0 0 0 0 -3929.13 0 0 3929.13 0 0 2075.38 0 0 -2075.38
0 0 0 0 0 0 0 0 -3498.33 0 0 3498.33 0 0 2135.39 0 0 -2135.39
0 0 0 0 0 0 0 0 -3050.58 0 0 3050.58 0 0 2176.32 0 0 -2176.32
0 0 0 0 0 0 0 0 -2587.93 0 0 2587.93 0 0 2197.44 0 0 -2197.44
0 0 0 0 0 0 0 0 -2115.7 0 0 2115.7 0 0 2195.13 0 0 -2195.13
0 0 0 0 0 0 0 0 -1647.48 0 0 1647.48 0 0 2154.62 0 0 -2154.62
0 0 0 0 0 0 0 0 -1194.4 0 0 1194.4 0 0 2075.91 0 0 -2075.91
0 0 0 0 0 0 0 0 -764.827 0 0 764.827 0 0 1961.47 0 0 -1961.47
0 0 0 0 0 0 0 0 -370.014 0 0 370.014 0 0 1812.88 0 0 -1812.88
0 0 0 0 0 0 0 0 -36.464 0 0 36.464 0 0 1634.01 0 0 -1634.01
0 0 0 0 0 0 0 0 0 0 0 0 0 0 1419.85 0 0 -1419.85
0 0 0 0 0 0 0 0 0 0 0 0 0 0 1174.53 0 0 -1174.53
0 0 0 0 0 0 0 0 0 0 0 0 0 0 912.513 0 0 -912.513
0 0 0 0 0 0 0 0 0 0 0 0 0 0 647.044 0 0 -647.044
0 0 0 0 0 0 0 0 -61.8798 0 0 61.8798 0 0 383.667 0 0 -383.667
0 0 0 0 0 0 0 0 -208.707 0 0 208.707 0 0 115.22 0 0 -115.22
0 0 0 0 0 0 0 0 -389.793 0 0 389.793 0 0 -90.7749 0 0 90.7749
0 0 0 0 0 0 0 0 -597.692 0 0 597.692 0 0 -269.877 0 0 269.877
0 0 0 0 0 0 0 0 -904.254 0 0 904.254 0 0 -445.356 0 0 445.356
0 0 0 0 0 0 0 0 -1310.92 0 0 1310.92 0 0 -617.493 0 0 617.493
0 0 0 0 0 0 0 0 -1782.79 0 0 1782.79 0 0 -783.615 0 0 783.615
0 0 0 0 0 0 0 0 -2295.56 0 0 2295.56 0 0 -946.001 0 0 946.001
0 0 0 0 0 0 0 0 -2842.19 0 0 2842.19 0 0 -1107.24 0 0 1107.24
0 0 0 0 0 0 0 0 -3427.49 0 0 3427.49 0 0 -1267.26 0 0 1267.26
0 0 0 0 0 0 0 0 -4036.71 0 0 4036.71 0 0 -1424.66 0 0 1424.66
0 0 0 0 0 0 0 0 -4644.3 0 0 4644.3 0 0 -1578.86 0 0 1578.86
0 0 0 0 0 0 0 0 -5234.69 0 0 5234.69 0 0 -1730.04 0 0 1730.04
0 0 0 0 0 0 0 0 -5801.47 0 0 5801.47 0 0 -1879.41 0 0 1879.41
0 0 0 0 0 0 0 0 -6336.06 0 0 6336.06 0 0 -2028.03 0 0 2028.03
0 0 0 0 0 0 0 0 -6819.78 0 0 6819.78 0 0 -2176 0 0 2176
0 0 0 0 0 0 0 0 -7238.76 0 0 7238.76 0 0 -2322.76 0 0 2322.76
0 0 0 0 0 0 0 0 -7606.67 0 0 7606.67 0 0 -2466.37 0 0 2466.37
0 0 0 0 0 0 0 0 -7894.73 0 0 7894.73 0 0 -2607.86 0 0 2607.86
0 0 0 0 0 0 0 0 -8104.53 0 0 8104.53 0 0 -2747.54 0 0 2747.54
0 0 0 0 0 0 0 0 -8237.33 0 0 8237.33 0 0 -2883.95 0 0 2883.95
0 0 0 0 0 0 0 0 -8280.38 0 0 8280.38 0 0 -3016.69 0 0 3016.69
0 0 0 0 0 0 0 0 -8220.37 0 0 8220.37 0 0 -3143.96 0 0 3143.96
0 0 0 0 0 0 0 0 -8053.85 0 0 8053.85 0 0 -3264.21 0 0 3264.21
0 0 0 0 0 0 0 0 -7780.39 0 0 7780.39 0 0 -3376.46 0 0 3376.46
0 0 0 0 0 0 0 0 -7398.46 0 0 7398.46 0 0 -3479.51 0 0 3479.51
0 0 0 0 0 0 0 0 -7060.32 0 0 7060.32 0 0 -3568.02 0 0 3568.02
0 0 0 0 0 0 0 0 -6797.13 0 0 6797.13 0 0 -3630.52 0 0 3630.52
0 0 0 0 0 0 0 0 -6483.27 0 0 6483.27 0 0 -3678.22 0 0 3678.22
0 0 0 0 0 0 0 0 -6090.75 0 0 6090.75 0 0 -3709.29 0 0 3709.29
0 0 0 0 0 0 0 0 -5610.48 0 0 5610.48 0 0 -3724.68 0 0 3724.68
0 0 0 0 0 0 0 0 -5058.46 0 0 5058.46 0 0 -3719.94 0 0 3719.94
0 0 0 0 0 0 0 0 -4543.06 0 0 4543.06 0 0 -3677.9 0 0 3677.9
0 0 0 0 0 0 0 0 -3952.06 0 0 3952.06 0 0 -3601.93 0 0 3601.93
0 0 0 0 0 0 0 0 -3270.99 0 0 3270.99 0 0 -3501.25 0 0 3501.25
0 0 0 0 0 0 0 0 -2576.56 0 0 2576.56 0 0 -3359.52 0 0 3359.52
0 0 0 0 0 0 0 0 -1847.55 0 0 1847.55 0 0 -3183.71 0 0 3183.71
0 0 0 0 0 0 0 0 -1083.77 0 0 1083.77 0 0 -2972.33 0 0 2972.33
0 0 0 0 0 0 0 0 -278.296 0 0 278.296 0 0 -2728.7 0 0 2728.7
0 0 0 0 0 0 0 0 0 0 0 0 0 0 -2477.46 0 0 2477.46
0 0 0 0 0 0 0 0 0 0 0 0 0 0 -2274.77 0 0 2274.77
0 0 0 0 0 0 0 0 0 0 0 0 0 0 -2062.65 0 0 2062.65
0 0 0 0 0 0 0 0 0 0 0 0 0 0 -1818.13 0 0 1818.13
0 0 0 0 0 0 0 0 0 0 0 0 0 0 -1520.39 0 0 1520.39
0 0 0 0 0 0 0 0 0 0 0 0 0 0 -1171.08 0 0 1171.08
0 0 0 0 0 0 0 0 0 0 0 0 0 0 -800.973 0 0 800.973
0 0 0 0 0 0 0 0 0 0 0 0 0 0 -427.602 0 0 427.602
0 0 0 0 0 0 0 0 0 0 0 0 0 0 -120.831 0 0 120.831
0 0 0 0 0 0 0 0 0 0 0 0 0 0 91.4161 0 0 -91.4161
0 0 0 0 0 0 0 0 0 0 0 0 0 0 280.067 0 0 -280.067
0 0 0 0 0 0 0 0 0 0 0 0 0 0 481.918 0 0 -481.918
0 0 0 0 0 0 0 0 0 0 0 0 0 0 684.905 0 0 -684.905
0 0 0 0 0 0 0 0 0 0 0 0 0 0 881 0 0 -881
0 0 0 0 0 0 0 0 0 0 0 0 0 0 1074 0 0 -1074
0 0 0 0 0 0 0 0 0 0 0 0 0 0 1270.88 0 0 -1270.88
0 0 0 0 0 0 0 0 0 0 0 0 0 0 1473.17 0 0 -1473.17
0 0 0 0 0 0 0 0 0 0 0 0 0 0 1675.24 0 0 -1675.24
0 0 0 0 0 0 0 0 0 0 0 0 0 0 1869.89 0 0 -1869.89
0 0 0 0 0 0 0 0 0 0 0 0 0 0 2054.73 0 0 -2054.73
0 0 0 0 0 0 0 0 0 0 0 0 0 0 2232.29 0 0 -2232.29
0 0 0 0 0 0 0 0 0 0 0 0 0 0 2405.24 0 0 -2405.24
0 0 0 0 0 0 0 0 0 0 0 0 0 0 2572.6 0 0 -2572.6
0 0 0 0 0 0 0 0 0 0 0 0 0 0 2730.38 0 0 -2730.38
0 0 0 0 0 0 0 0 0 0 0 0 0 0 2875.11 0 0 -2875.11
0 0 0 0 0 0 0 0 0 0 0 0 0 0 3005.23 0 0 -3005.23
0 0 0 0 0 0 0 0 0 0 0 0 0 0 3120.67 0 0 -3120.67
0 0 0 0 0 0 0 0 0 0 0 0 0 0 3225.17 0 0 -3225.17
0 0 0 0 0 0 0 0 0 0 0 0 0 0 3318.36 0 0 -3318.36
0 0 0 0 0 0 0 0 0 0 0 0 0 0 3399.15 0 0 -3399.15
0 0 0 0 0 0 0 0 0 0 0 0 0 0 3465.55 0 0 -3465.55
0 0 0 0 0 0 0 0 0 0 0 0 0 0 3516.93 0 0 -3516.93
0 0 0 0 0 0 0 0 0 0 0 0 0 0 3555.67 0 0 -3555.67
0 0 0 0 0 0 0 0 0 0 0 0 0 0 3585.08 0 0 -3585.08
0 0 0 0 0 0 0 0 0 0 0 0 0 0 3605.04 0 0 -3605.04
0 0 0 0 0 0 0 0 0 0 0 0 0 0 3614.7 0 0 -3614.7
0 0 0 0 0 0 0 0 0 0 0 0 0 0 3607.94 0 0 -3607.94
0 0 0 0 0 0 0 0 0 0 0 0 0 0 3576.38 0 0 -3576.38
0 0 0 0 0 0 0 0 0 0 0 0 0 0 3523.76 0 0 -3523.76
0 0 0 0 0 0 0 0 0 0 0 0 0 0 3455 0 0 -3455
0 0 0 0 0 0 0 0 0 0 0 0 0 0 3372.85 0 0 -3372.85
0 0 0 0 0 0 0 0 0 0 0 0 0 0 3276.41 0 0 -3276.41
0 0 0 0 0 0 0 0 0 0 0 0 0 0 3165.18 0 0 -3165.18
0 0 0 0 0 0 0 0 0 0 0 0 0 0 3040.85 0 0 -3040.85
0 0 0 0 0 0 0 0 0 0 0 0 0 0 2907.81 0 0 -2907.81
0 0 0 0 0 0 0 0 0 0 0 0 0 0 2769.92 0 0 -2769.92
0 0 0 0 0 0 0 0 0 0 0 0 0 0 2629.18 0 0 -2629.18
0 0 0 0 0 0 0 0 0 0 0 0 0 0 2486.1 0 0 -2486.1
0 0 0 0 0 0 0 0 0 0 0 0 0 0 2341.57 0 0 -2341.57
0 0 0 0 0 0 0 0 0 0 0 0 0 0 2197.67 0 0 -2197.67
0 0 0 0 0 0 0 0 0 0 0 0 0 0 2057.13 0 0 -2057.13
0 0 0 0 0 0 0 0 0 0 0 0 0 0 1922.12 0 0 -1922.12
0 0 0 0 0 0 0 0 0 0 0 0 0 0 1793.44 0 0 -1793.44
0 0 0 0 0 0 0 0 0 0 0 0 0 0 1672.02 0 0 -1672.02
0 0 0 0 0 0 0 0 0 0 0 0 0 0 1556.83 0 0 -1556.83
0 0 0 0 0 0 0 0 0 0 0 0 0 0 1447.57 0 0 -1447.57
0 0 0 0 0 0 0 0 0 0 0 0 0 0 1344.44 0 0 -1344.44
0 0 0 0 0 0 0 0 0 0 0 0 0 0 1246.63 0 0 -1246.63
0 0 0 0 0 0 0 0 0 0 0 0 0 0 1152.56 0 0 -1152.56
0 0 0 0 0 0 0 0 0 0 0 0 0 0 1059.6 0 0 -1059.6
0 0 0 0 0 0 0 0 0 0 0 0 0 0 965.325 0 0 -965.325
0 0 0 0 0 0 0 0 0 0 0 0 0 0 866.939 0 0 -866.939
0 0 0 0 0 0 0 0 0 0 0 0 0 0 761.958 0 0 -761.958
0 0 0 0 0 0 0 0 0 0 0 0 0 0 647.937 0 0 -647.937
0 0 0 0 0 0 0 0 0 0 0 0 0 0 522.562 0 0 -522.562
0 0 0 0 0 0 0 0 0 0 0 0 0 0 383.138 0 0 -383.138
0 0 0 0 0 0 0 0 0 0 0 0 0 0 227.608 0 0 -227.608
0 0 0 0 0 0 0 0 0 0 0 0 0 0 59.0528 0 0 -59.0528
0 0 0 0 0 0 0 0 0 0 0 0 0 0 -61.1637 0 0 61.1637
0 0 0 0 0 0 0 0 0 0 0 0 0 0 -177.859 0 0 177.859
0 0 0 0 0 0 0 0 0 0 0 0 0 0 -285.274 0 0 285.274
0 0 0 0 0 0 0 0 0 0 0 0 0 0 -397.564 0 0 397.564
0 0 0 0 0 0 0 0 0 0 0 0 0 0 -511.281 0 0 511.281
0 0 0 0 0 0 0 0 0 0 0 0 0 0 -629.472 0 0 629.472
0 0 0 0 0 0 0 0 0 0 0 0 0 0 -750.245 0 0 750.245
0 0 0 0 0 0 0 0 0 0 0 0 0 0 -872.129 0 0 872.129
0 0 0 0 0 0 0 0 0 0 0 0 0 0 -993.292 0 0 993.292
0 0 0 0 0 0 0 0 0 0 0 0 0 0 -1111.56 0 0 1111.56
0 0 0 0 0 0 0 0 0 0 0 0 0 0 -1225.01 0 0 1225.01
0 0 0 0 0 0 0 0 0 0 0 0 0 0 -1331.86 0 0 1331.86
0 0 0 0 0 0 0 0 0 0 0 0 0 0 -1430.35 0 0 1430.35
0 0 0 0 0 0 0 0 0 0 0 0 0 0 -1517.38 0 0 1517.38
0 0 0 0 0 0 0 0 0 0 0 0 0 0 -1590.15 0 0 1590.15
0 0 0 0 0 0 0 0 0 0 0 0 0 0 -1654.19 0 0 1654.19
0 0 0 0 0 0 0 0 0 0 0 0 0 0 -1702.73 0 0 1702.73
0 0 0 0 0 0 0 0 0 0 0 0 0 0 -1736.78 0 0 1736.78
0 0 0 0 0 0 0 0 0 0 0 0 0 0 -1755.6 0 0 1755.6
0 0 0 0 0 0 0 0 0 0 0 0 0 0 -1755.25 0 0 1755.25
0 0 0 0 0 0 0 0 0 0 0 0 0 0 -1726.06 0 0 1726.06
0 0 0 0 0 0 0 0 0 0 0 0 0 0 -1666.3 0 0 1666.3
0 0 0 0 0 0 0 0 0 0 0 0 0 0 -1573.72 0 0 1573.72
0 0 0 0 0 0 0 0 0 0 0 0 0 0 -1447.01 0 0 1447.01
0 0 0 0 0 0 0 0 0 0 0 0 0 0 -1285.27 0 0 1285.27
0 0 0 0 0 0 0 0 0 0 0 0 0 0 -1089.9 0 0 1089.9
0 0 0 0 0 0 0 0 0 0 0 0 0 0 -865.356 0 0 865.356
0 0 0 0 0 0 0 0 0 0 0 0 0 0 -615.059 0 0 615.059
0 0 0 0 0 0 0 0 0 0 0 0 0 0 -348.374 0 0 348.374
0 0 0 0 0 0 0 0 0 0 0 0 0 0 -101.015 0 0 101.015
0 0 0 0 0 0 0 0 0 0 0 0 0 0 84.7663 0 0 -84.7663
0 0 0 0 0 0 0 0 0 0 0 0 0 0 255.457 0 0 -255.457
0 0 0 0 0 0 0 0 0 0 0 0 0 0 433.343 0 0 -433.343
0 0 0 0 0 0 0 0 0 0 0 0 0 0 612.976 0 0 -612.976
0 0 0 0 0 0 0 0 0 0 0 0 0 0 789.885 0 0 -789.885
0 0 0 0 0 0 0 0 0 0 0 0 0 0 963.04 0 0 -963.04
0 0 0 0 0 0 0 0 0 0 0 0 0 0 1133.54 0 0 -1133.54
0 0 0 0 0 0 0 0 0 0 0 0 0 0 1300.68 0 0 -1300.68
0 0 0 0 0 0 0 0 0 0 0 0 0 0 1461.22 0 0 -1461.22
0 0 0 0 0 0 0 0 0 0 0 0 0 0 1611.17 0 0 -1611.17
0 0 0 0 0 0 0 0 0 0 0 0 0 0 1748.36 0 0 -1748.36
0 0 0 0 0 0 0 0 0 0 0 0 0 0 1872.66 0 0 -1872.66
0 0 0 0 0 0 0 0 0 0 0 0 0 0 1984.42 0 0 -1984.42
0 0 0 0 0 0 0 0 0 0 0 0 0 0 2083.02 0 0 -2083.02
0 0 0 0 0 0 0 0 0 0 0 0 0 0 2166.9 0 0 -2166.9
0 0 0 0 0 0 0 0 0 0 0 0 0 0 2234.8 0 0 -2234.8
0 0 0 0 0 0 0 0 0 0 0 0 0 0 2286.67 0 0 -2286.67
0 0 0 0 0 0 0 0 0 0 0 0 0 0 2323.45 0 0 -2323.45
0 0 0 0 0 0 0 0 0 0 0 0 0 0 2346.23 0 0 -2346.23
0 0 0 0 0 0 0 0 0 0 0 0 0 0 2355.76 0 0 -2355.76
0 0 0 0 0 0 0 0 0 0 0 0 0 0 2349.35 0 0 -2349.35
0 0 0 0 0 0 0 0 0 0 0 0 0 0 2323.31 0 0 -2323.31
0 0 0 0 0 0 0 0 0 0 0 0 0 0 2281.65 0 0 -2281.65
0 0 0 0 0 0 0 0 0 0 0 0 0 0 2239.56 0 0 -2239.56
0 0 0 0 0 0 0 0 0 0 0 0 0 0 2185.03 0 0 -2185.03
0 0 0 0 0 0 0 0 0 0 0 0 0 0 2117.82 0 0 -2117.82
0 0 0 0 0 0 0 0 0 0 0 0 0 0 2051.26 0 0 -2051.26
0 0 0 0 0 0 0 0 0 0 0 0 0 0 1982.22 0 0 -1982.22
0 0 0 0 0 0 0 0 0 0 0 0 0 0 1917.49 0 0 -1917.49
0 0 0 0 0 0 0 0 0 0 0 0 0 0 1860.2 0 0 -1860.2
0 0 0 0 0 0 0 0 0 0 0 0 0 0 1811.27 0 0 -1811.27
0 0 0 0 0 0 0 0 0 0 0 0 0 0 1772.73 0 0 -1772.73
0 0 0 0 0 0 0 0 0 0 0 0 0 0 1746 0 0 -1746
0 0 0 0 0 0 0 0 0 0 0 0 0 0 1732.97 0 0 -1732.97
0 0 0 0 0 0 0 0 0 0 0 0 0 0 1735.42 0 0 -1735.42
0 0 0 0 0 0 0 0 0 0 0 0 0 0 1754.89 0 0 -1754.89
0 0 0 0 0 0 0 0 0 0 0 0 0 0 1792.02 0 0 -1792.02
0 0 0 0 0 0 0 0 0 0 0 0 0 0 1847.35 0 0 -1847.35
0 0 0 0 0 0 0 0 0 0 0 0 0 0 1919.84 0 0 -1919.84
0 0 0 0 0 0 0 0 0 0 0 0 0 0 1999.9 0 0 -1999.9
0 0 0 0 0 0 0 0 0 0 0 0 0 0 2095.63 0 0 -2095.63
0 0 0 0 0 0 0 0 0 0 0 0 0 0 2205.84 0 0 -2205.84
0 0 0 0 0 0 0 0 0 0 0 0 0 0 2328.35 0 0 -2328.35
0 0 0 0 0 0 0 0 0 0 0 0 0 0 2412.51 0 0 -2412.51
0 0 0 0 0 0 0 0 0 0 0 0 0 0 2497.84 0 0 -2497.84
0 0 0 0 0 0 0 0 0 0 0 0 0 0 2586.26 0 0 -2586.26
0 0 0 0 0 0 0 0 0 0 0 0 0 0 2673.67 0 0 -2673.67
0 0 0 0 0 0 0 0 0 0 0 0 0 0 2756.16 0 0 -2756.16
0 0 0 0 0 0 0 0 0 0 0 0 0 0 2831.14 0 0 -2831.14
0 0 0 0 0 0 0 0 0 0 0 0 0 0 2897.65 0 0 -2897.65
0 0 0 0 0 0 0 0 0 0 0 0 0 0 2954.08 0 0 -2954.08
0 0 0 0 0 0 0 0 0 0 0 0 0 0 2998.05 0 0 -2998.05
0 0 0 0 0 0 0 0 0 0 0 0 0 0 3026.5 0 0 -3026.5
0 0 0 0 0 0 0 0 0 0 0 0 0 0 3036.04 0 0 -3036.04
0 0 0 0 0 0 0 0 0 0 0 0 0 0 3013.47 0 0 -3013.47
0 0 0 0 0 0 0 0 0 0 0 0 0 0 2955.16 0 0 -2955.16
0 0 0 0 0 0 0 0 0 0 0 0 0 0 2860.84 0 0 -2860.84
0 0 0 0 0 0 0 0 0 0 0 0 0 0 2729.4 0 0 -2729.4
0 0 0 0 0 0 0 0 0 0 0 0 0 0 2559.69 0 0 -2559.69
0 0 0 0 0 0 0 0 0 0 0 0 0 0 2352.27 0 0 -2352.27
0 0 0 0 0 0 0 0 0 0 0 0 0 0 2110.01 0 0 -2110.01
0 0 0 0 0 0 0 0 0 0 0 0 0 0 1837.07 0 0 -1837.07
0 0 0 0 0 0 0 0 0 0 0 0 0 0 1537.7 0 0 -1537.7
0 0 0 0 0 0 0 0 0 0 0 0 0 0 1215.93 0 0 -1215.93
0 0 0 0 0 0 0 0 0 0 0 0 0 0 876.187 0 0 -876.187
0 0 0 0 0 0 0 0 0 0 0 0 0 0 523.85 0 0 -523.85
0 0 0 0 0 0 0 0 0 0 0 0 0 0 164.816 0 0 -164.816
0 0 0 0 0 0 0 0 0 0 0 0 0 0 -89.1738 0 0 89.1738
0 0 0 0 0 0 0 0 0 0 0 0 0 0 -276.363 0 0 276.363
0 0 0 0 0 0 0 0 0 0 0 0 0 0 -453.205 0 0 453.205
0 0 0 0 0 0 0 0 0 0 0 0 0 0 -621.267 0 0 621.267
0 0 0 0 0 0 0 0 0 0 0 0 0 0 -780.2 0 0 780.2
0 0 0 0 0 0 0 0 0 0 0 0 0 0 -927.686 0 0 927.686
0 0 0 0 0 0 0 0 0 0 0 0 0 0 -1066.17 0 0 1066.17
0 0 0 0 0 0 0 0 0 0 0 0 0 0 -1197.49 0 0 1197.49
0 0 0 0 0 0 0 0 0 0 0 0 0 0 -1319.73 0 0 1319.73
0 0 0 0 0 0 0 0 0 0 0 0 0 0 -1429.3 0 0 1429.3
0 0 0 0 0 0 0 0 0 0 0 0 0 0 -1524.17 0 0 1524.17
