0 1.5317e-05 8.13262e-06 0 -1.52597e-05 -8.17865e-06
0 1.52498e-05 8.14219e-06 0 -1.53268e-05 -8.16972e-06
0 1.51079e-05 8.15882e-06 0 -1.54696e-05 -8.14878e-06
0 1.48346e-05 8.18542e-06 0 -1.57438e-05 -8.11389e-06
0 1.45483e-05 8.20722e-06 0 -1.60296e-05 -8.08362e-06
0 1.42126e-05 8.22463e-06 0 -1.63634e-05 -8.05749e-06
0 1.38408e-05 8.23106e-06 0 -1.6731e-05 -8.04218e-06
0 1.34488e-05 8.2189e-06 0 -1.71152e-05 -8.0451e-06
0 1.30544e-05 8.18084e-06 0 -1.74974e-05 -8.07445e-06
0 1.2677e-05 8.10963e-06 0 -1.7857e-05 -8.13873e-06
0 1.23386e-05 7.99772e-06 0 -1.81709e-05 -8.24658e-06
0 1.20658e-05 7.83699e-06 0 -1.84207e-05 -8.40589e-06
0 1.1887e-05 7.61979e-06 0 -1.85749e-05 -8.62264e-06
0 1.18507e-05 7.33801e-06 0 -1.85728e-05 -8.91031e-06
0 1.20093e-05 6.98458e-06 0 -1.83684e-05 -9.27754e-06
0 1.24192e-05 6.55454e-06 0 -1.79027e-05 -9.73027e-06
0 1.3137e-05 6.0459e-06 0 -1.71136e-05 -1.02724e-05
0 1.42156e-05 5.46077e-06 0 -1.59487e-05 -1.09034e-05
0 1.56941e-05 4.80709e-06 0 -1.43696e-05 -1.1616e-05
0 1.75938e-05 4.10107e-06 0 -1.23551e-05 -1.23951e-05
0 1.99185e-05 3.36482e-06 0 -9.90233e-06 -1.32179e-05
0 2.26593e-05 2.62667e-06 0 -7.02265e-06 -1.40546e-05
0 2.57968e-05 1.92077e-06 0 -3.738e-06 -1.48695e-05
0 2.9305e-05 1.28641e-06 0 -7.74196e-08 -1.56217e-05
0 3.31474e-05 7.6441e-07 0 3.91502e-06 -1.62857e-05
0 3.72755e-05 4.04657e-07 0 8.19057e-06 -1.67877e-05
0 4.15986e-05 2.63397e-07 0 1.26528e-05 -1.70729e-05
0 4.59591e-05 4.0904e-07 0 1.71365e-05 -1.70689e-05
0 5.01168e-05 9.14956e-07 0 2.13915e-05 -1.66914e-05
0 5.37678e-05 1.85482e-06 0 2.51035e-05 -1.58545e-05
0 5.6594e-05 3.297e-06 0 2.79436e-05 -1.44735e-05
0 5.82927e-05 5.29517e-06 0 2.95508e-05 -1.24777e-05
0 5.86456e-05 7.87751e-06 0 2.97429e-05 -9.83967e-06
0 5.74947e-05 1.10435e-05 0 2.83891e-05 -6.5526e-06
0 5.47186e-05 1.47708e-05 0 2.53802e-05 -2.64924e-06
0 5.03974e-05 1.89849e-05 0 2.07436e-05 1.80798e-06
0 4.46168e-05 2.35934e-05 0 1.46063e-05 6.71962e-06
0 3.75523e-05 2.84808e-05 0 7.14601e-06 1.19544e-05
0 2.94361e-05 3.35032e-05 0 -1.41366e-06 1.73403e-05
0 2.05307e-05 3.8494e-05 0 -1.079e-05 2.27155e-05
0 1.11296e-05 4.32962e-05 0 -2.06784e-05 2.79072e-05
0 1.52525e-06 4.77417e-05 0 -3.07658e-05 3.27459e-05
0 -8.0005e-06 5.16694e-05 0 -4.07619e-05 3.70472e-05
0 -1.71982e-05 5.49238e-05 0 -5.04057e-05 4.06486e-05
0 -2.58554e-05 5.73206e-05 0 -5.94611e-05 4.33963e-05
0 -3.373e-05 5.87796e-05 0 -6.76936e-05 4.51528e-05
0 -4.05801e-05 5.91872e-05 0 -7.48405e-05 4.58044e-05
0 -4.61326e-05 5.8448e-05 0 -8.06178e-05 4.52466e-05
0 -5.01025e-05 5.64909e-05 0 -8.47339e-05 4.34001e-05
0 -5.22125e-05 5.32793e-05 0 -8.69057e-05 4.02132e-05
0 -5.1862e-05 4.75008e-05 0 -8.65049e-05 3.43256e-05
0 -4.78781e-05 3.9841e-05 0 -8.2328e-05 2.63973e-05
0 -4.01942e-05 3.05019e-05 0 -7.43204e-05 1.66367e-05
0 -2.91337e-05 1.98229e-05 0 -6.28293e-05 5.37637e-06
0 -1.54508e-05 8.23923e-06 0 -4.86535e-05 -6.85313e-06
0 -3.31275e-07 -3.62698e-06 0 -3.3027e-05 -1.94486e-05
0 1.4681e-05 -1.51394e-05 0 -1.75582e-05 -3.1664e-05
0 2.78106e-05 -2.56293e-05 0 -4.08884e-06 -4.27755e-05
0 3.73007e-05 -3.44753e-05 0 5.5648e-06 -5.20798e-05
0 4.16984e-05 -4.11833e-05 0 9.89985e-06 -5.90302e-05
0 4.00475e-05 -4.54326e-05 0 7.93354e-06 -6.32596e-05
0 3.19394e-05 -4.70977e-05 0 -7.54662e-07 -6.4634e-05
0 1.74805e-05 -4.62555e-05 0 -1.60494e-05 -6.3237e-05
0 -2.76874e-06 -4.31762e-05 0 -3.73657e-05 -5.93635e-05
0 -2.78943e-05 -3.82928e-05 0 -6.37497e-05 -5.34868e-05
0 -5.67535e-05 -3.2164e-05 0 -9.40094e-05 -4.62174e-05
0 -8.80385e-05 -2.54426e-05 0 -0.00012678 -3.82654e-05
0 -0.000120271 -1.88467e-05 0 -0.000160517 -3.04098e-05
0 -0.000151826 -1.31186e-05 0 -0.000193527 -2.34625e-05
0 -0.000181032 -8.97523e-06 0 -0.000224071 -1.82126e-05
0 -0.000206353 -7.05225e-06 0 -0.000250547 -1.53621e-05
0 -0.000226574 -7.84901e-06 0 -0.000271693 -1.54613e-05
0 -0.000240926 -1.16884e-05 0 -0.000286707 -1.88645e-05
0 -0.000249054 -1.8707e-05 0 -0.000295217 -2.57207e-05
0 -0.000250949 -2.8856e-05 0 -0.000297213 -3.59798e-05
0 -0.000246918 -4.19066e-05 0 -0.000293011 -4.9399e-05
0 -0.000237552 -5.74647e-05 0 -0.000283229 -6.55574e-05
0 -0.000223685 -7.49926e-05 0 -0.00026874 -8.38783e-05
0 -0.000206345 -9.38368e-05 0 -0.000250619 -0.000103661
0 -0.000186705 -0.00011326 0 -0.000230093 -0.000124113
0 -0.000166034 -0.000132476 0 -0.000208492 -0.000144393
0 -0.000145632 -0.000150691 0 -0.000187175 -0.000163645
0 -0.000126733 -0.000167148 0 -0.000167436 -0.000181053
0 -0.000110416 -0.000181163 0 -0.000150407 -0.000195885
0 -9.75543e-05 -0.000192161 0 -0.000137004 -0.000207522
0 -8.88212e-05 -0.000199693 0 -0.000127936 -0.000215487
0 -8.47545e-05 -0.000203447 0 -0.000123765 -0.000219442
0 -8.58062e-05 -0.000203253 0 -0.000124961 -0.000219201
0 -9.23042e-05 -0.000199099 0 -0.000131856 -0.000214739
0 -0.000104338 -0.000191151 0 -0.000144532 -0.000206221
0 -0.000117795 -0.00018229 0 -0.000158662 -0.000196728
0 -0.000138894 -0.000168522 0 -0.000180766 -0.000181973
0 -0.00016381 -0.000152398 0 -0.00020682 -0.00016469
0 -0.000191192 -0.000134731 0 -0.000235405 -0.000145757
0 -0.000219449 -0.000116426 0 -0.000264855 -0.000126151
0 -0.000246884 -9.84248e-05 0 -0.000293394 -0.000106891
0 -0.00027178 -8.16574e-05 0 -0.000319227 -8.8983e-05
0 -0.000292501 -6.69879e-05 0 -0.000340644 -7.33623e-05
0 -0.000307589 -5.51647e-05 0 -0.000356122 -6.0842e-05
0 -0.000315833 -4.67816e-05 0 -0.000364397 -5.20682e-05
0 -0.00031632 -4.22445e-05 0 -0.000364517 -4.74845e-05
0 -0.000308498 -4.17442e-05 0 -0.000355908 -4.73049e-05
0 -0.000292172 -4.52479e-05 0 -0.000338375 -5.15018e-05
0 -0.000267453 -5.25051e-05 0 -0.000312042 -5.98143e-05
0 -0.000234692 -6.30598e-05 0 -0.000277288 -7.1765e-05
0 -0.00019451 -7.62575e-05 0 -0.000234779 -8.66681e-05
0 -0.000147917 -9.1251e-05 0 -0.000185588 -0.000103628
0 -9.63227e-05 -0.000107032 0 -0.000131206 -0.000121568
0 -4.14425e-05 -0.000122476 0 -7.34363e-05 -0.00013928
0 1.45424e-05 -0.000136356 0 -1.43323e-05 -0.000155488
0 6.97989e-05 -0.000147528 0 4.36615e-05 -0.000168855
0 0.00012216 -0.000155179 0 9.86344e-05 -0.000178263
0 0.000169723 -0.000158029 0 0.000148495 -0.000182959
0 0.000210648 -0.000155149 0 0.000191318 -0.000181548
0 0.000243183 -0.000145912 0 0.000225359 -0.000173276
0 0.000266114 -0.000129911 0 0.000249288 -0.000157842
0 0.000278868 -0.000107142 0 0.000262541 -0.000135152
0 0.000281615 -7.79629e-05 0 0.000265305 -0.000105553
0 0.000275158 -4.31005e-05 0 0.000258414 -6.98557e-05
0 0.000260668 -3.39766e-06 0 0.000243099 -2.8895e-05
0 0.000239538 4.00263e-05 0 0.000220823 1.60121e-05
0 0.000213312 8.58563e-05 0 0.000193213 6.35931e-05
0 0.000183704 0.000132684 0 0.000162061 0.000112309
0 0.000152603 0.000179025 0 0.000129367 0.000160559
0 0.000121965 0.000223357 0 9.71845e-05 0.000206747
0 9.36887e-05 0.000264215 0 6.75088e-05 0.000249312
0 6.95304e-05 0.000300261 0 4.21892e-05 0.000286834
0 5.10643e-05 0.000330324 0 2.28769e-05 0.000318049
0 4.01944e-05 0.00034866 0 1.14456e-05 0.000337659
0 3.72613e-05 0.00035978 0 8.88357e-06 0.000348875
0 4.34517e-05 0.000364622 0 1.52968e-05 0.000353858
0 5.91608e-05 0.000363256 0 3.20751e-05 0.00035202
0 8.48923e-05 0.000355496 0 5.91731e-05 0.000343263
0 0.000120386 0.000340624 0 9.65931e-05 0.000326681
0 0.000164765 0.000319371 0 0.000143215 0.000303442
0 0.000216409 0.000292855 0 0.000197446 0.000274653
0 0.000263722 0.000264453 0 0.000254016 0.000242107
0 0.0003073 0.000235078 0 0.000313209 0.000206729
0 0.000354915 0.000203953 0 0.0003691 0.000171824
0 0.000402127 0.000173223 0 0.000422955 0.000137667
0 -9.85148e-05 0.000274257 0 0.000275373 0.000129708
0 -0.000216193 0.00026294 0 0.000409099 6.25127e-05
0 -1.11457e-05 0.000188079 0 0.000429394 5.30088e-05
0 3.96596e-05 0.000157855 0 0.000463875 2.4847e-05
0 -5.60931e-05 0.000163601 0 0.000494104 -9.8037e-06
0 -2.56489e-06 0.000135049 0 0.000508496 -2.67707e-05
0 3.39856e-05 0.000112769 0 0.000513409 -3.86223e-05
0 -2.10783e-05 0.000114847 0 0.000510955 -5.21058e-05
0 -3.55139e-05 0.000110176 0 0.000496463 -5.66452e-05
0 -3.86581e-05 0.000105493 0 0.000471563 -5.41877e-05
0 -8.77082e-05 0.000113531 0 0.00043945 -5.00107e-05
0 -0.000134718 0.000122743 0 0.000399352 -4.14729e-05
0 -0.000172046 0.000131219 0 0.000352826 -2.90262e-05
0 -0.000227334 0.00014452 0 0.00030349 -1.60678e-05
0 -0.00028541 0.000158181 0 0.000253636 -3.05105e-06
0 -0.000333469 0.000168968 0 0.000210764 8.71542e-06
0 -0.000380668 0.000179694 0 0.00019207 1.26384e-05
0 -0.000424826 0.000188002 0 0.000175186 1.53705e-05
0 -0.000456672 0.000191363 0 0.000163848 1.41845e-05
0 -0.000480461 0.000190593 0 0.000159407 9.42686e-06
0 -0.000497192 0.000186258 0 0.000161591 3.23977e-07
0 -0.000503524 0.000177446 0 0.000170742 -1.2684e-05
0 -0.000500467 0.000164433 0 0.000186604 -2.93093e-05
0 -0.000489478 0.000148071 0 0.000209582 -4.93466e-05
0 -0.000469564 0.0001289 0 0.000241599 -7.26534e-05
0 -0.0004414 0.000107657 0 0.000280973 -9.80974e-05
0 -0.000406567 8.52748e-05 0 0.000325304 -0.000124199
0 -0.000365923 6.29148e-05 0 0.00037467 -0.000150341
0 -0.000321274 4.19075e-05 0 0.000426632 -0.000174795
0 -0.000275079 2.35966e-05 0 0.000478524 -0.000195989
0 -0.000238721 1.16649e-05 0 0.000518193 -0.000209863
0 -0.000205337 1.37748e-06 0 0.000545727 -0.000207536
0 -0.000174944 -6.85428e-06 0 0.000570652 -0.000200072
0 -0.000147289 -1.08141e-05 0 0.000591671 -0.000193434
0 -0.000125055 -9.45798e-06 0 0.000608597 -0.000183577
0 -0.000107729 -2.80261e-06 0 0.000620885 -0.000172566
0 -9.55491e-05 8.31398e-06 0 0.000628143 -0.000159604
0 -8.91993e-05 2.35613e-05 0 0.000628985 -0.000142849
0 -8.87916e-05 4.28808e-05 0 0.000623032 -0.000121212
0 -9.35329e-05 6.61554e-05 0 0.000610356 -9.54217e-05
0 -0.000102622 9.27593e-05 0 0.000591714 -6.5776e-05
0 -0.000115216 0.000121949 0 0.000568006 -3.28296e-05
0 -0.000130366 0.000153087 0 0.00054016 2.74698e-06
0 -0.00014715 0.000185634 0 0.000509071 4.01875e-05
0 -0.000164877 0.000218976 0 0.000475595 7.87215e-05
0 -0.000183062 0.000252383 0 0.000440546 0.000117609
0 -0.000201237 0.000285111 0 0.000404724 0.000156101
0 -0.00021885 0.000316497 0 0.000368949 0.000193415
0 -0.000235294 0.000345935 0 0.000334057 0.000228768
0 -0.000249883 0.000371926 0 0.000300905 0.000261251
0 -0.000261747 0.000390134 0 0.000270465 0.000287925
0 -0.000271129 0.000406137 0 0.00024327 0.000309293
0 -0.00027726 0.000418607 0 0.000219785 0.000326774
0 -0.000279786 0.000427994 0 0.00020005 0.000341301
0 -0.000278826 0.000434055 0 0.000184717 0.000351621
0 -0.00027414 0.000436662 0 0.000173701 0.000358158
0 -0.000265608 0.00043498 0 0.000167081 0.000360405
0 -0.000253438 0.000428621 0 0.000164888 0.000357554
0 -0.000237936 0.000417739 0 0.000166792 0.000349955
0 -0.000219512 0.000402653 0 0.000172397 0.000337718
0 -0.000198664 0.000383701 0 0.00018113 0.000321233
0 -0.000176027 0.000361252 0 0.000192316 0.000300963
0 -0.000152317 0.000335737 0 0.000205217 0.000277444
0 -0.000128279 0.000307681 0 0.000219024 0.000251219
0 -0.000104686 0.000277672 0 0.000232906 0.000222851
0 -8.23093e-05 0.000246292 0 0.000246041 0.000192948
0 -6.18392e-05 0.000214085 0 0.000257652 0.000162136
0 -4.38029e-05 0.000181561 0 0.00026709 0.00013102
0 -2.85145e-05 0.000149202 0 0.000273855 0.000100141
0 -1.6068e-05 0.000117442 0 0.000277622 6.99751e-05
0 -6.36732e-06 8.66451e-05 0 0.000278225 4.09468e-05
0 8.09107e-07 5.71071e-05 0 0.000275573 1.34431e-05
0 5.56371e-06 3.07682e-05 0 0.000267975 -1.09402e-05
0 8.61839e-06 6.01815e-06 0 0.000257672 -3.22705e-05
0 9.95257e-06 -1.68954e-05 0 0.000244589 -5.19223e-05
0 9.87175e-06 -3.79682e-05 0 0.000228671 -6.92478e-05
0 8.546e-06 -5.71252e-05 0 0.000210087 -8.42743e-05
0 6.084e-06 -7.43733e-05 0 0.000189057 -9.68794e-05
0 2.52799e-06 -8.96777e-05 0 0.000165739 -0.000107109
0 -2.02435e-06 -0.000103014 0 0.00014033 -0.000115037
0 -1.60262e-05 -0.000113188 0 0.000110869 -0.00012076
0 -4.42187e-05 -0.000118704 0 7.62117e-05 -0.000124343
0 -7.44095e-05 -0.000122126 0 4.30706e-05 -0.000128476
0 -0.000100721 -0.000124989 0 8.92867e-06 -0.000130913
0 -0.000126615 -0.000126773 0 -2.53402e-05 -0.000132119
0 -0.000154092 -0.000127142 0 -5.86073e-05 -0.000132744
0 -0.000180437 -0.000127018 0 -9.09204e-05 -0.000132629
0 -0.000204196 -0.000126805 0 -0.000122328 -0.000131861
0 -0.00022671 -0.000126268 0 -0.000152172 -0.000130913
0 -0.000248252 -0.000125553 0 -0.000179972 -0.000130052
0 -0.000267692 -0.000125154 0 -0.000205732 -0.000129329
0 -0.000284776 -0.000125253 0 -0.00022931 -0.000128902
0 -0.000299979 -0.000125799 0 -0.000250378 -0.000129023
0 -0.000313197 -0.000126909 0 -0.000268769 -0.00012983
0 -0.000323988 -0.000128801 0 -0.000284435 -0.000131367
0 -0.000332292 -0.000131551 0 -0.00029723 -0.000133707
0 -0.000338185 -0.000135149 0 -0.000307004 -0.000136929
0 -0.000341498 -0.000139616 0 -0.000313691 -0.000141048
0 -0.000342014 -0.000144977 0 -0.000317251 -0.000146033
0 -0.000339689 -0.000151195 0 -0.000317657 -0.000151832
0 -0.000334539 -0.000158175 0 -0.000314841 -0.000158475
0 -0.00032656 -0.000165772 0 -0.000308924 -0.000165917
0 -0.000315861 -0.000173833 0 -0.000300086 -0.000173955
0 -0.000302632 -0.000182173 0 -0.000288571 -0.000182381
0 -0.000287108 -0.00019059 0 -0.00027469 -0.000190944
0 -0.000269564 -0.000198844 0 -0.000258814 -0.000199369
0 -0.000250362 -0.000206659 0 -0.000241379 -0.000207361
0 -0.000229967 -0.000213744 0 -0.000222896 -0.000214605
0 -0.000208923 -0.000219802 0 -0.000203927 -0.000220775
0 -0.000187844 -0.000224537 0 -0.000185097 -0.00022554
0 -0.000167392 -0.000227626 0 -0.000167049 -0.000228574
0 -0.000148226 -0.000228687 0 -0.000150413 -0.000229478
0 -0.000130938 -0.00022749 0 -0.000135771 -0.00022802
0 -0.000116057 -0.000223848 0 -0.000123623 -0.000223989
0 -0.000104027 -0.000217627 0 -0.000114401 -0.000217249
0 -9.52142e-05 -0.000208759 0 -0.000108448 -0.000207726
0 -8.98832e-05 -0.000197247 0 -0.000106 -0.000195423
0 -8.81883e-05 -0.000183167 0 -0.000107195 -0.000180419
0 -9.01531e-05 -0.000166671 0 -0.000112034 -0.000162873
0 -9.56455e-05 -0.000147989 0 -0.000120389 -0.000143021
0 -0.000104381 -0.000127424 0 -0.000132001 -0.000121172
0 -0.000115947 -0.000105341 0 -0.000146483 -9.7702e-05
0 -0.000129852 -8.2159e-05 0 -0.000163383 -7.30364e-05
0 -0.000145583 -5.83239e-05 0 -0.000182195 -4.76421e-05
0 -0.000162653 -3.42994e-05 0 -0.000202414 -2.20075e-05
0 -0.000180637 -1.05518e-05 0 -0.000223564 3.36953e-06
0 -0.000199108 1.24839e-05 0 -0.000244468 2.73226e-05
0 -0.000217489 3.45743e-05 0 -0.000265458 4.90688e-05
0 -0.000235813 5.50694e-05 0 -0.000285607 6.95349e-05
0 -0.000252482 7.34155e-05 0 -0.000298181 8.66432e-05
0 -0.000268591 8.95804e-05 0 -0.000312 0.00010126
0 -0.000284239 0.000102887 0 -0.000325576 0.000113956
0 -0.00029879 0.000113048 0 -0.000338434 0.000122987
0 -0.000312302 0.000119995 0 -0.000351406 0.000129637
0 -0.000324442 0.000123747 0 -0.000363688 0.000133126
0 -0.000334402 0.000123905 0 -0.000373739 0.000133243
0 -0.000341742 0.000120262 0 -0.000381149 0.000129547
0 -0.000346181 0.00011286 0 -0.000385494 0.000122113
0 -0.000347395 0.000101731 0 -0.00038641 0.00011078
0 -0.000345116 8.69049e-05 0 -0.000383585 9.55333e-05
0 -0.000339147 6.85195e-05 0 -0.000376858 7.65396e-05
0 -0.000329418 4.68002e-05 0 -0.000366149 5.40051e-05
0 -0.000315954 2.20463e-05 0 -0.000351475 2.82423e-05
0 -0.00029885 -5.37075e-06 0 -0.000332969 -3.64768e-07
0 -0.000278301 -3.50086e-05 0 -0.000310841 -3.13558e-05
0 -0.0002546 -6.63599e-05 0 -0.00028541 -6.42055e-05
0 -0.000228149 -9.88614e-05 0 -0.000257101 -9.83272e-05
0 -0.00019948 -0.0001319 0 -0.000226482 -0.000133075
0 -0.000169257 -0.00016482 0 -0.000194266 -0.000167759
0 -0.00013824 -0.000196948 0 -0.000161243 -0.000201662
0 -0.000107246 -0.000227603 0 -0.00012828 -0.000234061
0 -7.71243e-05 -0.000256119 0 -9.62686e-05 -0.000264248
0 -4.87279e-05 -0.00028186 0 -6.60992e-05 -0.000291544
0 -2.28661e-05 -0.000304243 0 -3.86264e-05 -0.000315325
0 -2.61732e-07 -0.000322754 0 -1.45995e-05 -0.000335043
0 1.84729e-05 -0.000336795 0 5.33386e-06 -0.000349989
0 3.28348e-05 -0.000345221 0 2.04122e-05 -0.000357807
0 4.26342e-05 -0.000349376 0 3.08991e-05 -0.000362602
0 4.77364e-05 -0.000349312 0 3.64656e-05 -0.000362751
0 4.80879e-05 -0.000344225 0 3.69508e-05 -0.000357372
0 4.38485e-05 -0.00033423 0 3.26292e-05 -0.000347145
0 3.53448e-05 -0.000319628 0 2.38852e-05 -0.000332069
0 2.30735e-05 -0.000300711 0 1.12025e-05 -0.000312615
0 7.6007e-06 -0.000277908 0 -4.82307e-06 -0.00028915
0 -1.03508e-05 -0.000251728 0 -2.34412e-05 -0.000262228
0 -2.99757e-05 -0.000222767 0 -4.3822e-05 -0.000232431
0 -5.04267e-05 -0.000191654 0 -6.50845e-05 -0.000200415
0 -7.08405e-05 -0.000159036 0 -8.63127e-05 -0.000166872
0 -9.09727e-05 -0.000125342 0 -0.000102806 -0.000133167
0 -0.000109493 -9.13676e-05 0 -0.000118476 -9.92973e-05
0 -0.000125783 -5.78246e-05 0 -0.000131661 -6.58678e-05
0 -0.000149351 -2.33686e-05 0 -0.000145136 -3.30669e-05
0 -0.000175349 1.06934e-05 0 -0.000154512 -2.32227e-06
0 -0.000197419 4.20683e-05 0 -0.000160967 2.5783e-05
0 -0.000212601 6.85203e-05 0 -0.000161966 4.91912e-05
0 -0.000223803 9.27871e-05 0 -0.000157905 7.0514e-05
0 -0.000232086 0.000114547 0 -0.000148018 8.787e-05
0 -0.000234978 0.000133044 0 -0.000132293 0.000101886
0 -0.000231327 0.000147843 0 -0.000110717 0.000112314
0 -0.000222443 0.000159397 0 -8.35256e-05 0.000118932
0 -0.000209289 0.00016797 0 -5.10103e-05 0.000122116
0 -0.000191548 0.000173561 0 -1.44633e-05 0.000122588
0 -0.000169542 0.000176015 0 2.6637e-05 0.000122179
0 -0.000143944 0.000176164 0 7.04567e-05 0.000118842
0 -0.000115953 0.000174486 0 0.000117136 0.000113754
0 -8.60481e-05 0.000171458 0 0.000165468 0.000107187
0 -5.47999e-05 0.000167419 0 0.000214372 9.97921e-05
0 -2.33196e-05 0.000162853 0 0.000262816 9.21e-05
0 7.2355e-06 0.000158359 0 0.000309642 8.4629e-05
0 3.58563e-05 0.000154502 0 0.000353656 7.78971e-05
0 6.149e-05 0.000151775 0 0.000393673 7.24201e-05
0 8.29178e-05 0.000150616 0 0.00042857 6.86684e-05
0 9.90062e-05 0.000151419 0 0.000457363 6.70242e-05
0 0.000108924 0.000154503 0 0.000479262 6.77646e-05
0 0.000112108 0.000160079 0 0.000493717 7.10585e-05
0 0.000108211 0.000168217 0 0.000500457 7.69641e-05
0 9.71484e-05 0.000178851 0 0.000499475 8.54271e-05
0 7.91603e-05 0.000191774 0 0.00049091 9.64293e-05
0 5.47844e-05 0.000206648 0 0.000475324 0.000109808
0 2.48573e-05 0.0002231 0 0.000455841 0.000124707
0 -9.6953e-06 0.000240827 0 0.000432498 0.000140414
0 -4.79844e-05 0.000259086 0 0.000405283 0.000157202
0 -8.86797e-05 0.000277338 0 0.00037515 0.000173919
0 -0.000130861 0.000294933 0 0.000343244 0.000190224
0 -0.000173563 0.000311368 0 0.000310782 0.000205349
0 -0.000215712 0.000326071 0 0.000278909 0.000218666
0 -0.000256217 0.000338463 0 0.000248678 0.000229552
0 -0.000294107 0.000348012 0 0.000221148 0.000237461
0 -0.000328516 0.000354273 0 0.00019731 0.000241894
0 -0.000358616 0.00035675 0 0.000178008 0.000242305
0 -0.000383703 0.000355072 0 0.00016396 0.000238262
0 -0.000403244 0.000349058 0 0.000155694 0.000229606
0 -0.000416906 0.000338641 0 0.000153561 0.00021626
0 -0.000424498 0.000323879 0 0.000157728 0.000198288
0 -0.000425957 0.000304955 0 0.000168178 0.000175882
0 -0.000421349 0.000282163 0 0.000184733 0.000149366
0 -0.000410887 0.000255901 0 0.000207146 0.00011918
0 -0.000394981 0.000226696 0 0.00023524 8.5803e-05
0 -0.000374309 0.000195182 0 0.000268136 4.99518e-05
0 -0.000349753 0.000162085 0 0.000304832 1.24071e-05
0 -0.000322344 0.000128186 0 0.00034414 -2.59637e-05
0 -0.000293326 9.41593e-05 0 0.000383645 -6.26889e-05
0 -0.000263759 6.07186e-05 0 0.000423257 -9.79561e-05
0 -0.000234568 2.89404e-05 0 0.00046169 -0.000131493
0 -0.000207119 5.78545e-07 0 0.00049765 -0.000161157
0 -0.000182264 -2.4257e-05 0 0.000530222 -0.000187842
0 -0.000160968 -4.5608e-05 0 0.00055844 -0.000210698
0 -0.000144046 -6.29235e-05 0 0.000581348 -0.000229313
0 -0.000132206 -7.5724e-05 0 0.000597721 -0.000243044
0 -0.00012613 -8.43738e-05 0 0.000604973 -0.000247084
0 -0.000125105 -8.83735e-05 0 0.000607458 -0.00024809
0 -0.000128686 -8.68856e-05 0 0.000604822 -0.000246825
0 -0.000137502 -7.99852e-05 0 0.000596521 -0.000239852
0 -0.000150471 -6.8325e-05 0 0.000582319 -0.000227794
0 -0.000167029 -5.26905e-05 0 0.00056288 -0.000210653
0 -0.000186747 -3.33303e-05 0 0.000538894 -0.000189033
0 -0.000208967 -1.04155e-05 0 0.00051113 -0.000163599
0 -0.000232815 1.48956e-05 0 0.000480489 -0.000135287
0 -0.000257672 4.23074e-05 0 0.000447903 -0.000105019
0 -0.000282972 7.11112e-05 0 0.000414164 -7.27067e-05
0 -0.000308205 0.000100798 0 0.000380167 -3.94114e-05
0 -0.000332774 0.000130855 0 0.000346771 -5.80465e-06
0 -0.000356018 0.00016066 0 0.000315091 2.73148e-05
0 -0.000377238 0.000189542 0 0.000287151 5.89934e-05
0 -0.000395821 0.00021681 0 0.000261769 8.90407e-05
0 -0.000411078 0.000241948 0 0.000240337 0.000116698
0 -0.000422548 0.000264521 0 0.000223272 0.000141489
0 -0.000429989 0.000284171 0 0.000210991 0.000162932
0 -0.000433247 0.000300577 0 0.000203795 0.00018073
0 -0.00043228 0.000313523 0 0.000202091 0.000194602
0 -0.000427222 0.000322927 0 0.000205798 0.000204419
0 -0.000418345 0.000328804 0 0.000214743 0.000210155
0 -0.000405954 0.000331225 0 0.000228615 0.000211888
0 -0.000390362 0.000330314 0 0.000247026 0.000209799
0 -0.000371859 0.000326253 0 0.000269539 0.000204126
0 -0.000350715 0.000319254 0 0.000295668 0.000195132
0 -0.000327195 0.000309648 0 0.000324863 0.00018324
0 -0.00030159 0.000297806 0 0.000356513 0.000168914
0 -0.000274211 0.000284135 0 0.000389955 0.000152686
0 -0.00024539 0.000269083 0 0.000424491 0.000135119
0 -0.00021551 0.000253135 0 0.000459349 0.000116816
0 -0.000185054 0.0002368 0 0.000493702 9.83967e-05
0 -0.000154594 0.000220599 0 0.000526676 8.04898e-05
0 -0.000124781 0.000205052 0 0.000557358 6.37139e-05
0 -9.63302e-05 0.000190668 0 0.00058483 4.8661e-05
0 -7.00204e-05 0.000177933 0 0.00060817 3.58809e-05
0 -4.66509e-05 0.000167287 0 0.000626511 2.58586e-05
0 -2.69718e-05 0.000159101 0 0.000639086 1.89974e-05
0 -1.16226e-05 0.000153661 0 0.000645263 1.56017e-05
0 -1.07844e-06 0.000151149 0 0.000644606 1.58588e-05
0 4.3782e-06 0.000151638 0 0.000636882 1.98344e-05
0 4.64745e-06 0.000155086 0 0.000622061 2.74687e-05
0 -2.04283e-07 0.000161343 0 0.000600319 3.85775e-05
0 -9.96507e-06 0.000170154 0 0.000572007 5.28593e-05
0 -2.42871e-05 0.000181173 0 0.000537658 6.99e-05
0 -4.26884e-05 0.000193964 0 0.000497964 8.91874e-05
0 -6.45604e-05 0.000208016 0 0.000453761 0.000110123
0 -8.91722e-05 0.000222753 0 0.000406029 0.000132036
0 -0.000115702 0.000237557 0 0.00035583 0.000154211
0 -0.000143291 0.000251785 0 0.000304289 0.0001759
0 -0.000171096 0.000264798 0 0.000252531 0.000196356
0 -0.00019833 0.00027598 0 0.000201644 0.000214852
0 -0.000224258 0.000284753 0 0.000152678 0.000230697
0 -0.000248178 0.000290583 0 0.000106621 0.000243254
0 -0.000269415 0.000292998 0 6.43943e-05 0.000251961
0 -0.000287319 0.000291593 0 2.68491e-05 0.000256338
0 -0.000301152 0.000286188 0 -4.02998e-06 0.000254352
0 -0.000310432 0.000276707 0 -2.90866e-05 0.000247154
0 -0.000315008 0.000262738 0 -4.78328e-05 0.000235542
0 -0.000314293 0.000244145 0 -6.01793e-05 0.00021924
0 -0.000308277 0.000221065 0 -6.59837e-05 0.000198546
0 -0.000296925 0.000193878 0 -6.53265e-05 0.000173607
0 -0.000280245 0.000163009 0 -5.82363e-05 0.000144457
0 -0.000258395 0.000128872 0 -4.50868e-05 0.000111582
0 -0.000231742 9.19551e-05 0 -2.6466e-05 7.5636e-05
0 -0.00020096 5.52355e-05 0 -3.23164e-06 3.88179e-05
0 -0.000166166 1.69766e-05 0 2.36377e-05 1.42082e-06
0 -0.000128322 -2.19331e-05 0 5.34749e-05 -3.69898e-05
0 -8.79514e-05 -6.0876e-05 0 8.50517e-05 -7.51214e-05
0 -4.58458e-05 -9.91909e-05 0 0.000113675 -0.000111666
0 -2.68724e-06 -0.000136336 0 0.000140902 -0.000145985
0 4.07403e-05 -0.000171302 0 0.000166378 -0.000177889
0 7.20101e-05 -0.000201216 0 0.000185956 -0.000205928
0 9.39287e-05 -0.000226205 0 0.000202145 -0.0002304
0 0.000111133 -0.000246773 0 0.000212834 -0.000250742
0 0.000125266 -0.000263316 0 0.000217411 -0.000265284
0 0.000132428 -0.000274547 0 0.000215282 -0.000274578
0 0.000131045 -0.000280153 0 0.000206351 -0.00027845
0 0.00012277 -0.000280475 0 0.000189754 -0.000276578
0 0.000107594 -0.000275647 0 0.000165356 -0.000268947
0 8.43496e-05 -0.000265354 0 0.000133549 -0.000255701
0 5.36012e-05 -0.00024989 0 9.62166e-05 -0.000239152
0 1.70463e-05 -0.000229536 0 5.28194e-05 -0.000219417
0 -2.51976e-05 -0.000205252 0 4.26691e-06 -0.000195582
0 -7.20239e-05 -0.000177852 0 -4.84336e-05 -0.000169056
0 -0.0001221 -0.000148337 0 -0.000104025 -0.000140316
0 -0.00017385 -0.000117528 0 -0.000161339 -0.000110283
0 -0.000225968 -8.62271e-05 0 -0.000219038 -7.9879e-05
0 -0.000277177 -5.53958e-05 0 -0.000275681 -4.99879e-05
0 -0.00032607 -2.60698e-05 0 -0.000330055 -2.14533e-05
0 -0.000371396 8.6287e-07 0 -0.000380995 4.91682e-06
0 -0.000412156 2.4698e-05 0 -0.000427433 2.83368e-05
0 -0.000447508 4.47944e-05 0 -0.000468495 4.81254e-05
0 -0.000474285 6.02261e-05 0 -0.000486697 6.12705e-05
0 -0.000356867 4.89808e-05 0 -0.000129656 1.98007e-05
0 -0.00035493 9.05683e-05 0 0.00029597 -0.000137651
0 -0.000415995 8.95746e-05 0 -4.29333e-05 7.16934e-06
0 -0.000414967 9.40058e-05 0 0.000106673 -5.78258e-05
0 -0.000422316 8.84127e-05 0 8.78465e-05 -4.41178e-05
0 -0.000436927 8.98497e-05 0 7.11988e-05 -3.50869e-05
0 -0.000433307 9.35285e-05 0 0.000110509 -5.62747e-05
0 -0.000434246 8.86778e-05 0 0.000107932 -5.89255e-05
0 -0.000428581 7.69889e-05 0 0.000124816 -6.85918e-05
0 -0.000419618 6.5048e-05 0 0.000146877 -8.27249e-05
0 -0.000409904 5.49694e-05 0 0.000162788 -9.62533e-05
0 -0.000396799 4.42224e-05 0 0.000186948 -0.000113916
0 -0.000382185 2.98163e-05 0 0.00020867 -0.000130454
0 -0.000366673 1.31056e-05 0 0.000230623 -0.000146818
0 -0.000353049 -2.44944e-06 0 0.000254435 -0.000164628
0 -0.000352779 -1.38485e-05 0 0.000275918 -0.000182951
0 -0.000353057 -2.47271e-05 0 0.000297166 -0.000200786
0 -0.000352404 -3.65482e-05 0 0.000316156 -0.000217175
0 -0.000352011 -4.79885e-05 0 0.000332474 -0.000231453
0 -0.000353572 -5.75238e-05 0 0.000346327 -0.000244489
0 -0.000356752 -6.51222e-05 0 0.000357266 -0.000256152
0 -0.00036072 -7.14851e-05 0 0.00036517 -0.000265852
0 -0.000365952 -7.66477e-05 0 0.000370398 -0.000273369
0 -0.000372899 -8.04369e-05 0 0.000373017 -0.000279111
0 -0.000381246 -8.24366e-05 0 0.000373254 -0.000283139
0 -0.000390681 -8.27959e-05 0 0.000371218 -0.000285486
0 -0.000401274 -8.18717e-05 0 0.000367136 -0.000286106
0 0.000195898 -0.00018058 0 0.000383023 -0.000282106
0 0.000388887 -0.00024054 0 0.000377776 -0.000247087
0 0.000361243 -0.000229964 0 0.000343768 -0.000229268
0 0.00014705 -0.000168298 0 0.000356835 -0.000242594
0 0.000130388 -0.00015267 0 0.000332439 -0.000226007
0 0.000236006 -0.000166105 0 0.000301124 -0.000195666
0 0.00022088 -0.000149906 0 0.00028121 -0.000174193
0 0.000121006 -0.000110831 0 0.000264402 -0.000159096
0 9.38223e-05 -8.6393e-05 0 0.000243042 -0.000137771
0 0.000123383 -7.47086e-05 0 0.000218206 -0.000112342
0 0.000110947 -5.42784e-05 0 0.000198797 -8.94682e-05
0 6.35604e-05 -2.59814e-05 0 0.000184012 -7.1086e-05
0 4.79226e-05 -1.05539e-05 0 0.000171511 -5.20993e-05
0 5.97875e-05 1.48508e-06 0 0.000160463 -3.93855e-05
0 5.90701e-05 1.35807e-05 0 0.000153713 -2.84795e-05
0 4.48695e-05 2.47713e-05 0 0.000151349 -1.71947e-05
0 3.9337e-05 3.44404e-05 0 0.000148925 -6.91855e-06
0 4.61192e-05 4.29094e-05 0 0.00014873 2.73034e-06
0 5.18528e-05 5.13291e-05 0 0.000150586 1.097e-05
0 5.28062e-05 5.91299e-05 0 0.00015515 1.76702e-05
0 5.70436e-05 6.49759e-05 0 0.000161803 2.36751e-05
0 6.79579e-05 6.89006e-05 0 0.000169834 2.87935e-05
0 8.03835e-05 7.13332e-05 0 0.000180135 3.18901e-05
0 9.10388e-05 7.31285e-05 0 0.000192047 3.26378e-05
0 0.000102805 7.3115e-05 0 0.000205342 3.16669e-05
0 0.000117395 7.07908e-05 0 0.000219157 2.94582e-05
0 0.000132319 6.71015e-05 0 0.000233273 2.59299e-05
0 0.000145673 6.28333e-05 0 0.000247321 2.10737e-05
0 0.000158268 5.7832e-05 0 0.0002608 1.52558e-05
0 0.000170735 5.18857e-05 0 0.000273271 8.87487e-06
0 0.000181995 4.53476e-05 0 0.000284411 2.12226e-06
0 0.000191055 3.87014e-05 0 0.000293925 -4.88394e-06
0 0.000198046 3.21139e-05 0 0.000301468 -1.19393e-05
0 0.000203227 2.55917e-05 0 0.000306843 -1.88255e-05
0 0.000206358 1.92302e-05 0 0.000310064 -2.54129e-05
0 0.000207358 1.31619e-05 0 0.000311341 -3.16574e-05
0 0.000206745 7.43151e-06 0 0.000311051 -3.75486e-05
0 0.000205161 2.01668e-06 0 0.000309622 -4.30896e-05
0 0.000202977 -3.10452e-06 0 0.000307518 -4.83063e-05
0 0.000200453 -7.94383e-06 0 0.000305124 -5.32187e-05
0 0.000197886 -1.25064e-05 0 0.000302672 -5.78263e-05
0 0.00019548 -1.67747e-05 0 0.000300301 -6.21198e-05
0 0.000193243 -2.07157e-05 0 0.000298031 -6.60777e-05
0 0.000191081 -2.43024e-05 0 0.000295834 -6.96734e-05
0 0.000188914 -2.7514e-05 0 0.000293615 -7.28692e-05
0 0.000186623 -3.03183e-05 0 0.000291209 -7.56246e-05
0 0.000184027 -3.26741e-05 0 0.000288467 -7.79115e-05
0 0.000180952 -3.45586e-05 0 0.000285229 -7.97075e-05
0 0.000177272 -3.59739e-05 0 0.000281372 -8.10063e-05
0 0.000172875 -3.69291e-05 0 0.000276782 -8.18117e-05
0 0.000167593 -3.74307e-05 0 0.00027128 -8.2132e-05
0 0.000161221 -3.74911e-05 0 0.000264694 -8.19891e-05
0 0.000153574 -3.71448e-05 0 0.000256843 -8.14119e-05
0 0.000144532 -3.64522e-05 0 0.000247605 -8.04561e-05
0 0.000134087 -3.5498e-05 0 0.000236995 -7.92137e-05
0 0.000122356 -3.43952e-05 0 0.000225131 -7.78071e-05
0 0.000109562 -3.32813e-05 0 0.000212256 -7.63894e-05
0 9.60129e-05 -3.23135e-05 0 0.00019868 -7.51264e-05
0 8.20718e-05 -3.16586e-05 0 0.000184772 -7.41964e-05
0 6.85128e-05 -3.15204e-05 0 0.000170988 -7.37852e-05
0 5.70687e-05 -3.23564e-05 0 0.000157863 -7.39916e-05
0 4.67329e-05 -3.40344e-05 0 0.000145825 -7.50643e-05
0 3.74872e-05 -3.65153e-05 0 0.000135609 -7.71876e-05
0 2.98674e-05 -3.99114e-05 0 0.000127708 -8.0499e-05
0 2.46834e-05 -4.43793e-05 0 0.000122536 -8.5023e-05
0 2.21517e-05 -4.99118e-05 0 0.000120319 -9.07582e-05
0 2.22033e-05 -5.64026e-05 0 0.000121153 -9.76644e-05
0 2.50217e-05 -6.37792e-05 0 0.00012496 -0.000105599
0 3.05794e-05 -7.19133e-05 0 0.00013144 -0.000114348
0 3.84864e-05 -8.057e-05 0 0.000140267 -0.000123678
0 4.82152e-05 -8.94614e-05 0 0.000151052 -0.00013333
0 5.93868e-05 -9.83183e-05 0 0.000163378 -0.000143012
0 7.1521e-05 -0.000106843 0 0.000176809 -0.000152413
0 8.42677e-05 -0.000114755 0 0.000190864 -0.000161212
0 9.71155e-05 -0.000121748 0 0.000205043 -0.000169089
0 0.000109567 -0.000127533 0 0.000218796 -0.000175722
0 0.000121105 -0.000131837 0 0.000231576 -0.000180811
0 0.00013124 -0.000134408 0 0.000242905 -0.000184094
0 0.000139548 -0.000135041 0 0.000252326 -0.000185345
0 0.000145686 -0.000133583 0 0.000259487 -0.000184395
0 0.000149377 -0.000129926 0 0.000264096 -0.000181124
0 0.000150379 -0.000124018 0 0.000265897 -0.000175472
0 0.000148492 -0.000115856 0 0.00026472 -0.000167437
0 0.000143559 -0.000105493 0 0.000260413 -0.000157074
0 0.000135503 -9.30441e-05 0 0.000252915 -0.000144502
0 0.00012434 -7.86871e-05 0 0.000242249 -0.000129903
0 0.000110193 -6.26597e-05 0 0.000228534 -0.000113522
0 9.33044e-05 -4.52574e-05 0 0.000212047 -9.56744e-05
0 7.40368e-05 -2.68284e-05 0 0.000193154 -7.6726e-05
0 5.28263e-05 -7.75997e-06 0 0.000172311 -5.70872e-05
0 3.19879e-05 1.12298e-05 0 0.000150045 -3.71693e-05
0 1.15224e-05 2.97153e-05 0 0.000126873 -1.7303e-05
0 -8.98941e-06 4.75197e-05 0 0.000103217 1.9455e-06
0 -2.99663e-05 6.44413e-05 0 7.9895e-05 2.00548e-05
0 -5.0382e-05 7.99829e-05 0 5.75601e-05 3.66083e-05
0 -6.89703e-05 9.36206e-05 0 3.70375e-05 5.12076e-05
0 -8.51913e-05 0.000104757 0 1.91941e-05 6.33163e-05
0 -9.87459e-05 0.000112931 0 4.95439e-06 7.17541e-05
0 -0.000108941 0.000118703 0 -5.21488e-06 7.7798e-05
0 -0.000115097 0.000121796 0 -1.06446e-05 8.06426e-05
0 -0.000117002 0.000122142 0 -1.12746e-05 8.05432e-05
0 -0.000114269 0.000119766 0 -6.92993e-06 7.74288e-05
0 -0.000106964 0.000114788 0 2.06196e-06 7.15259e-05
0 -9.54963e-05 0.000107348 0 1.52106e-05 6.30231e-05
0 -8.0718e-05 9.77936e-05 0 3.17831e-05 5.22598e-05
0 -6.35883e-05 8.65656e-05 0 5.08429e-05 3.97053e-05
0 -4.50355e-05 7.41349e-05 0 7.13609e-05 2.58745e-05
0 -2.6018e-05 6.09956e-05 0 9.23263e-05 1.13084e-05
0 -7.50257e-06 4.7653e-05 0 0.0001128 -3.45699e-06
0 9.63426e-06 3.45905e-05 0 0.000131883 -1.78935e-05
0 2.41047e-05 2.23247e-05 0 0.000147111 -3.04698e-05
0 3.45932e-05 1.1865e-05 0 0.000161121 -3.87631e-05
0 4.28708e-05 2.80616e-06 0 0.000169776 -4.73562e-05
0 4.78688e-05 -4.76573e-06 0 0.000175929 -5.38959e-05
0 4.94873e-05 -1.04608e-05 0 0.000184842 -5.97332e-05
0 4.77908e-05 -1.35282e-05 0 0.000205444 -6.79155e-05
0 4.18594e-05 -1.49342e-05 0 0.000215272 -7.14198e-05
0 3.30778e-05 -1.42462e-05 0 0.000223127 -7.43689e-05
0 2.08436e-05 -1.18423e-05 0 0.000226724 -7.44687e-05
0 5.04956e-06 -7.34027e-06 0 0.000226825 -7.2952e-05
0 -1.18773e-05 -1.30975e-06 0 0.000223616 -6.95182e-05
0 -3.02179e-05 5.83432e-06 0 0.00021893 -6.46883e-05
0 -5.0456e-05 1.44324e-05 0 0.000213711 -5.93227e-05
0 -7.30253e-05 2.43601e-05 0 0.00020571 -5.23116e-05
0 -9.67065e-05 3.531e-05 0 0.00019656 -4.4582e-05
0 -0.000120748 4.68541e-05 0 0.000185984 -3.58695e-05
0 -0.000144948 5.88039e-05 0 0.000174939 -2.67143e-05
0 -0.000168987 7.08794e-05 0 0.00016404 -1.73598e-05
0 -0.000192157 8.27547e-05 0 0.000153768 -8.18873e-06
0 -0.000213894 9.41336e-05 0 0.000144604 5.29049e-07
0 -0.000233986 0.000104801 0 0.000137049 8.48682e-06
0 -0.000252193 0.000114549 0 0.000131533 1.54196e-05
0 -0.000268106 0.000123156 0 0.000128403 2.11114e-05
0 -0.000281374 0.000130398 0 0.000127579 2.59504e-05
0 -0.000291772 0.000136036 0 0.000129657 2.97676e-05
0 -0.000298977 0.00014007 0 0.000134727 3.21468e-05
0 -0.000302878 0.00014247 0 0.000143011 3.31633e-05
0 -0.000303367 0.000143263 0 0.000154444 3.28026e-05
0 -0.000300768 0.000143288 0 0.000168802 3.10115e-05
0 -0.000294895 0.000141976 0 0.000185763 2.79955e-05
0 -0.000286452 0.000139529 0 0.000204951 2.39531e-05
0 -0.000276159 0.000136178 0 0.000225979 1.90464e-05
0 -0.000264354 0.0001321 0 0.000248479 1.34742e-05
0 -0.000251392 0.000127537 0 0.000271924 7.46187e-06
0 -0.000237887 0.000122795 0 0.000295796 1.26363e-06
0 -0.000224458 0.000118143 0 0.000319539 -4.85514e-06
0 -0.000211539 0.000113814 0 0.000342646 -1.06248e-05
0 -0.000199474 0.000110043 0 0.000364648 -1.57968e-05
0 -0.000188601 0.000107071 0 0.000385171 -2.01592e-05
0 -0.000179211 0.000105038 0 0.000403873 -2.35372e-05
0 -0.000171562 0.000104106 0 0.000420417 -2.57595e-05
0 -0.000165917 0.000104379 0 0.000434509 -2.67711e-05
0 -0.000162566 0.000106005 0 0.000445871 -2.63837e-05
0 -0.000161727 0.00010906 0 0.000454295 -2.45565e-05
0 -0.000163498 0.000113577 0 0.000460255 -2.13169e-05
0 -0.000167859 0.000119566 0 0.000463607 -1.67609e-05
0 -0.000174692 0.000126902 0 0.000464152 -1.07543e-05
0 -0.000183727 0.000135566 0 0.000462142 -3.55335e-06
0 -0.000194626 0.000145392 0 0.00045769 4.97183e-06
0 -0.000206977 0.000156152 0 0.000451202 1.4668e-05
0 -0.000220354 0.000167609 0 0.000443014 2.52896e-05
0 -0.000234369 0.000179519 0 0.000433522 3.65744e-05
0 -0.000248655 0.000191637 0 0.000423117 4.82556e-05
0 -0.000262898 0.000203718 0 0.000412158 6.00514e-05
0 -0.000276813 0.000215512 0 0.000401021 7.16824e-05
0 -0.000290137 0.000226773 0 0.000390032 8.28779e-05
0 -0.000302642 0.000237275 0 0.00037952 9.33748e-05
0 -0.000313494 0.000246717 0 0.000369765 0.000102937
0 -0.000322623 0.000254867 0 0.000360981 0.000111408
0 -0.000330553 0.000261721 0 0.000353344 0.000118524
0 -0.000337669 0.000267252 0 0.000347028 0.00012412
0 -0.000343747 0.000271315 0 0.00034216 0.000128071
0 -0.000348452 0.000273763 0 0.000338855 0.000130301
0 -0.00035179 0.000274559 0 0.000337224 0.000130734
0 -0.000353813 0.00027364 0 0.000337398 0.000129257
0 -0.000354337 0.000270963 0 0.000339445 0.000125842
0 -0.000352967 0.000266499 0 0.000343404 0.00012056
0 -0.000349551 0.000260306 0 0.00034943 0.000113477
0 -0.000344067 0.000252505 0 0.000357528 0.000104702
0 -0.000336487 0.000243241 0 0.000367625 9.44177e-05
0 -0.000326762 0.000232685 0 0.000379567 8.28463e-05
0 -0.000314963 0.00022105 0 0.000393121 7.02579e-05
0 -0.000301296 0.000208604 0 0.000407986 5.6954e-05
0 -0.000286049 0.000195641 0 0.000423729 4.32761e-05
0 -0.000269582 0.00018244 0 0.000438976 3.03484e-05
0 -0.00025239 0.000169059 0 0.000454051 1.88637e-05
0 -0.000234886 0.000156751 0 0.000468075 7.39153e-06
0 -0.00021721 0.000145154 0 0.000481048 -3.03313e-06
0 -0.000200014 0.00013464 0 0.000492349 -1.2339e-05
0 -0.000183883 0.000125364 0 0.000501452 -2.01892e-05
0 -0.000169301 0.000117501 0 0.000507862 -2.63115e-05
0 -0.000156842 0.000111328 0 0.00051085 -3.03511e-05
0 -0.00014727 0.000107183 0 0.000509951 -3.19152e-05
0 -0.000140955 0.000105193 0 0.000504756 -3.09865e-05
0 -0.000138113 0.000105332 0 0.000495147 -2.75051e-05
0 -0.000138835 0.000107559 0 0.000481145 -2.156e-05
0 -0.000143041 0.000111772 0 0.000462931 -1.33255e-05
0 -0.000150396 0.000117758 0 0.000440897 -3.05431e-06
0 -0.00016038 0.000125199 0 0.00041556 8.94097e-06
0 -0.000172398 0.000133731 0 0.000387562 2.22822e-05
0 -0.000185799 0.000142973 0 0.000357626 3.65396e-05
0 -0.0001999 0.000152524 0 0.000326481 5.12567e-05
0 -0.000214032 0.000161966 0 0.000294891 6.59656e-05
0 -0.00022757 0.00017088 0 0.000263581 8.02086e-05
0 -0.000239951 0.000178869 0 0.000233236 9.3541e-05
0 -0.000250654 0.000185572 0 0.000204509 0.000105545
0 -0.000259219 0.000190666 0 0.000177953 0.000115846
0 -0.000265261 0.00019387 0 0.000154072 0.00012412
0 -0.000268467 0.000194955 0 0.000133268 0.000130107
0 -0.000268606 0.000193751 0 0.000115833 0.000133612
0 -0.000265524 0.000190157 0 0.000101983 0.000134513
0 -0.000259159 0.000184136 0 9.17871e-05 0.000132764
0 -0.000249535 0.000175718 0 8.52341e-05 0.000128396
0 -0.000236759 0.000164999 0 8.2192e-05 0.000121517
0 -0.000221045 0.000152142 0 8.23967e-05 0.00011231
0 -0.00020271 0.000137373 0 8.55002e-05 0.000101022
0 -0.000182182 0.00012098 0 9.10144e-05 8.79704e-05
0 -0.000159978 0.000103296 0 9.83807e-05 7.35166e-05
0 -0.000136635 8.46837e-05 0 0.000107005 5.80606e-05
0 -0.000112664 6.55173e-05 0 0.000115849 4.20608e-05
0 -8.85692e-05 4.61933e-05 0 0.000121551 2.66399e-05
0 -6.46269e-05 2.77662e-05 0 0.000127837 1.1802e-05
0 -4.12714e-05 9.76784e-06 0 0.000132782 -2.00976e-06
0 -1.89977e-05 -7.39008e-06 0 0.000136452 -1.51375e-05
0 2.31676e-06 -2.33192e-05 0 0.000153238 -2.96698e-05
0 2.06062e-05 -3.66438e-05 0 0.000174049 -4.54683e-05
0 3.60046e-05 -4.85889e-05 0 0.000185592 -5.65025e-05
0 5.08128e-05 -5.8962e-05 0 0.000199379 -6.71235e-05
0 6.34296e-05 -6.74322e-05 0 0.000210035 -7.52759e-05
0 7.28408e-05 -7.35438e-05 0 0.000217446 -8.09268e-05
0 7.99085e-05 -7.72009e-05 0 0.000223541 -8.46792e-05
0 8.47285e-05 -7.86682e-05 0 0.000226566 -8.57975e-05
0 8.71823e-05 -7.78455e-05 0 0.000227959 -8.64759e-05
0 8.67502e-05 -7.45609e-05 0 0.000226704 -8.50595e-05
0 8.39986e-05 -6.92655e-05 0 0.000222896 -8.17789e-05
0 7.85397e-05 -6.27508e-05 0 0.000216432 -7.60927e-05
0 7.10528e-05 -5.44403e-05 0 0.000207857 -6.87659e-05
0 6.18811e-05 -4.45992e-05 0 0.000197452 -5.98328e-05
0 5.1496e-05 -3.33797e-05 0 0.000185722 -4.97231e-05
0 4.02305e-05 -2.11466e-05 0 0.000173133 -3.8717e-05
0 2.8443e-05 -8.3399e-06 0 0.000160074 -2.70863e-05
0 1.7397e-05 4.5317e-06 0 0.00014685 -1.5114e-05
0 6.78991e-06 1.73547e-05 0 0.000133639 -3.10418e-06
0 -3.59059e-06 2.99152e-05 0 0.000120683 8.5845e-06
0 -1.36913e-05 4.19171e-05 0 0.000108392 1.96292e-05
0 -2.2877e-05 5.29498e-05 0 9.71253e-05 2.97674e-05
0 -3.05877e-05 6.26929e-05 0 8.73181e-05 3.87163e-05
0 -3.66092e-05 7.09525e-05 0 7.93794e-05 4.61869e-05
0 -4.0716e-05 7.75354e-05 0 7.37118e-05 5.1933e-05
0 -4.25007e-05 8.22118e-05 0 7.06411e-05 5.57848e-05
0 -4.1618e-05 8.48059e-05 0 7.04378e-05 5.76174e-05
0 -3.77322e-05 8.52187e-05 0 7.33451e-05 5.73363e-05
0 -3.06479e-05 8.34216e-05 0 7.95121e-05 5.49074e-05
0 -2.02451e-05 7.94316e-05 0 8.90211e-05 5.03537e-05
0 -6.5436e-06 7.33278e-05 0 0.000101855 4.37609e-05
0 1.02762e-05 6.52637e-05 0 0.000117845 3.5278e-05
0 2.98863e-05 5.54659e-05 0 0.000136667 2.51144e-05
0 5.17595e-05 4.44327e-05 0 0.000157765 1.37068e-05
0 7.37144e-05 3.31131e-05 0 0.000180422 1.78161e-06
0 9.59641e-05 2.10417e-05 0 0.000204037 -1.12891e-05
0 0.000118289 8.56241e-06 0 0.000225844 -2.43656e-05
0 0.000140322 -4.20468e-06 0 0.000244349 -3.672e-05
0 0.000161507 -1.67113e-05 0 0.0002637 -4.93377e-05
0 0.000180808 -2.85567e-05 0 0.000281185 -6.12424e-05
0 0.000198175 -3.95502e-05 0 0.000296713 -7.22503e-05
0 0.000213774 -4.95779e-05 0 0.000310678 -8.23571e-05
0 0.000227046 -5.84661e-05 0 0.000322126 -9.15477e-05
0 0.000237648 -6.59559e-05 0 0.000331418 -9.93375e-05
0 0.00024561 -7.19103e-05 0 0.00033826 -0.000105811
0 0.000250939 -7.63105e-05 0 0.000342421 -0.000110721
0 0.000253524 -7.90984e-05 0 0.00034404 -0.000114119
0 0.000253159 -8.02367e-05 0 0.000342991 -0.00011598
0 0.000249867 -7.97635e-05 0 0.000338949 -0.000116276
0 0.00024388 -7.77892e-05 0 0.00033219 -0.000115098
0 0.000235448 -7.44504e-05 0 0.000322986 -0.000112597
0 0.000224829 -6.99188e-05 0 0.000311587 -0.000108914
0 0.000212394 -6.43866e-05 0 0.000298407 -0.000104265
0 0.000201279 -6.05595e-05 0 0.000287318 -0.000101701
0 0.000191382 -6.15677e-05 0 0.000274772 -0.000104267
0 0.000178978 -6.25204e-05 0 0.000263594 -0.000104473
0 0.000164633 -6.29993e-05 0 0.000249054 -0.000104328
0 0.000151675 -6.26959e-05 0 0.000233926 -0.000104064
0 0.000137787 -6.16755e-05 0 0.000219808 -0.00010321
0 0.000124779 -6.0395e-05 0 0.000206522 -0.00010183
0 0.000113873 -5.891e-05 0 0.000194459 -0.000100098
0 0.000103719 -5.6917e-05 0 0.000183472 -9.80478e-05
0 9.41762e-05 -5.46112e-05 0 0.000173563 -9.58428e-05
0 8.59535e-05 -5.22773e-05 0 0.00016458 -9.33866e-05
0 7.87722e-05 -4.98427e-05 0 0.000156637 -9.07757e-05
0 7.26933e-05 -4.72747e-05 0 0.000149784 -8.82028e-05
0 6.78093e-05 -4.47249e-05 0 0.000143858 -8.56021e-05
0 6.35089e-05 -4.22689e-05 0 0.000138534 -8.30367e-05
0 5.91909e-05 -3.9893e-05 0 0.000133483 -8.05796e-05
0 5.49126e-05 -3.76347e-05 0 0.000128479 -7.82583e-05
0 5.07434e-05 -3.55675e-05 0 0.000123568 -7.61253e-05
0 4.6751e-05 -3.37467e-05 0 0.000119011 -7.42298e-05
0 4.33029e-05 -3.2212e-05 0 0.00011514 -7.26285e-05
0 4.07733e-05 -3.10002e-05 0 0.00011227 -7.13751e-05
0 3.94009e-05 -3.01498e-05 0 0.000110732 -7.05012e-05
0 3.97033e-05 -2.98374e-05 0 0.0001111 -7.01689e-05
0 4.26869e-05 -3.08642e-05 0 0.000114077 -7.12841e-05
0 4.84456e-05 -3.31958e-05 0 0.000120122 -7.38578e-05
0 5.70997e-05 -3.67337e-05 0 0.000129139 -7.7767e-05
0 6.83656e-05 -4.12515e-05 0 0.000140766 -8.27245e-05
0 8.09455e-05 -4.62805e-05 0 0.000154355 -8.84015e-05
0 9.41121e-05 -5.14527e-05 0 0.00016916 -9.44149e-05
0 0.000107781 -5.6491e-05 0 0.000184444 -0.000100298
0 0.000121422 -6.10407e-05 0 0.000199539 -0.000105629
0 0.000134217 -6.46794e-05 0 0.000213857 -0.000110044
0 0.000145791 -6.71111e-05 0 0.000226848 -0.000113181
0 0.00015581 -6.80848e-05 0 0.000238028 -0.000114726
0 0.000163758 -6.7352e-05 0 0.000246952 -0.000114443
0 0.00016925 -6.47517e-05 0 0.000253198 -0.000112149
0 0.000172008 -6.0211e-05 0 0.000256388 -0.000107736
0 0.000171682 -5.37114e-05 0 0.000256229 -0.000101189
0 0.00016785 -4.52909e-05 0 0.000252491 -9.25931e-05
0 0.000160404 -3.51208e-05 0 0.000245093 -8.21274e-05
0 0.000149573 -2.35014e-05 0 0.000234242 -7.00931e-05
0 0.000135908 -1.08409e-05 0 0.000220523 -5.69263e-05
0 0.000120233 2.36652e-06 0 0.000204783 -4.31588e-05
0 0.000103521 1.55717e-05 0 0.000188005 -2.93739e-05
0 8.67519e-05 2.82161e-05 0 0.000171192 -1.6167e-05
0 7.08291e-05 3.9766e-05 0 0.000155272 -4.10777e-06
0 5.76192e-05 4.95452e-05 0 0.00014105 6.3347e-06
0 4.66927e-05 5.73173e-05 0 0.000128944 1.47421e-05
0 3.74659e-05 6.29827e-05 0 0.000119162 2.07871e-05
0 2.99654e-05 6.63428e-05 0 0.000111476 2.43313e-05
0 2.40632e-05 6.72737e-05 0 0.000105452 2.53556e-05
0 1.90614e-05 6.58497e-05 0 0.000100631 2.38732e-05
0 1.45597e-05 6.21447e-05 0 9.66108e-05 1.996e-05
0 1.04626e-05 5.62255e-05 0 9.31046e-05 1.37464e-05
0 6.63888e-06 4.82321e-05 0 9.00521e-05 5.35858e-06
0 3.15477e-06 3.83254e-05 0 8.75886e-05 -5.0638e-06
0 2.77817e-07 2.66748e-05 0 8.59106e-05 -1.73334e-05
0 -1.76933e-06 1.35058e-05 0 8.5253e-05 -3.12277e-05
0 -2.70984e-06 -9.24241e-07 0 8.58497e-05 -4.64787e-05
0 -2.27791e-06 -1.63185e-05 0 8.78856e-05 -6.27643e-05
0 -3.42173e-07 -3.23179e-05 0 9.14773e-05 -7.97184e-05
0 3.10724e-06 -4.85147e-05 0 9.66403e-05 -9.69271e-05
0 8.00788e-06 -6.44731e-05 0 0.000103271 -0.00011393
0 1.41786e-05 -7.97257e-05 0 0.000111158 -0.000130238
0 2.13164e-05 -9.37852e-05 0 0.000119985 -0.000145343
0 2.902e-05 -0.000106165 0 0.000129321 -0.000158732
0 3.67937e-05 -0.000116392 0 0.00013864 -0.000169903
0 4.36726e-05 -0.00012395 0 0.000147377 -0.000178407
0 4.94102e-05 -0.000128518 0 0.000155039 -0.000183852
0 5.39303e-05 -0.000129874 0 0.000161122 -0.000185897
0 5.67885e-05 -0.00012781 0 0.00016519 -0.000184315
0 5.74595e-05 -0.000122181 0 0.000166837 -0.00017899
0 5.56158e-05 -0.000112984 0 0.000165682 -0.000169892
0 5.08163e-05 -0.000100295 0 0.000161374 -0.000157111
0 4.26786e-05 -8.42936e-05 0 0.000153625 -0.000140853
0 3.10106e-05 -6.5304e-05 0 0.000142205 -0.000121433
0 1.70559e-05 -4.39905e-05 0 0.000127063 -9.9244e-05
0 9.17625e-08 -2.07917e-05 0 0.000108284 -7.48688e-05
0 -1.99199e-05 3.77364e-06 0 8.64105e-05 -4.90438e-05
0 -4.20666e-05 2.8896e-05 0 6.22499e-05 -2.25741e-05
0 -6.51019e-05 5.36909e-05 0 3.69886e-05 3.64438e-06
0 -8.79814e-05 7.73418e-05 0 1.20489e-05 2.86454e-05
0 -0.000109446 9.86633e-05 0 -1.11743e-05 5.13206e-05
0 -0.000128365 0.000116423 0 -3.14491e-05 6.99289e-05
0 -0.000143994 0.000131163 0 -4.72436e-05 8.53175e-05
0 -0.000155893 0.000142438 0 -5.79394e-05 9.65989e-05
0 -0.000163642 0.000149818 0 -6.49851e-05 0.000104029
0 -0.000166828 0.000153188 0 -6.70977e-05 0.000107089
0 -0.000165269 0.000152502 0 -6.44016e-05 0.000105935
0 -0.00015874 0.000147855 0 -5.64896e-05 0.000100523
0 -0.000147552 0.000139385 0 -4.38641e-05 9.11008e-05
0 -0.000132177 0.000127553 0 -2.75689e-05 7.82245e-05
0 -0.000113108 0.000112828 0 -9.00943e-06 6.28071e-05
0 -9.10233e-05 9.59871e-05 0 1.29566e-05 4.4986e-05
0 -6.73464e-05 7.78816e-05 0 3.6171e-05 2.59657e-05
0 -4.34563e-05 5.92593e-05 0 5.96784e-05 6.40425e-06
0 -2.28727e-05 4.13359e-05 0 7.87321e-05 -6.37189e-06
0 -5.25668e-06 2.94386e-05 0 9.59793e-05 -1.82183e-05
0 9.59699e-06 1.82555e-05 0 0.000109462 -2.84878e-05
0 1.79733e-05 9.24009e-06 0 0.000119145 -3.82867e-05
0 2.1959e-05 1.5633e-06 0 0.000124402 -4.54824e-05
0 2.14011e-05 -4.19576e-06 0 0.0001238 -5.08582e-05
0 1.37236e-05 -7.36265e-06 0 0.00011666 -5.41172e-05
0 -7.44535e-07 -8.2137e-06 0 0.000102647 -5.50055e-05
0 -2.0699e-05 -6.73463e-06 0 8.14271e-05 -5.27662e-05
0 -4.6535e-05 -2.73327e-06 0 5.3546e-05 -4.76313e-05
0 -7.79257e-05 3.49314e-06 0 2.01708e-05 -4.02805e-05
0 -0.000112989 1.10128e-05 0 -1.73423e-05 -3.13879e-05
0 -0.000150102 1.90378e-05 0 -5.46655e-05 -2.22335e-05
0 -0.000188253 2.71734e-05 0 -9.02856e-05 -1.40959e-05
0 -0.00022573 3.40749e-05 0 -0.000126464 -6.72428e-06
0 -0.00026075 3.92268e-05 0 -0.000159757 -1.55752e-06
0 -0.000292208 4.2112e-05 0 -0.000189603 1.5118e-06
0 -0.00031849 4.22482e-05 0 -0.000214107 1.57745e-06
0 -0.000338562 3.91005e-05 0 -0.000232593 -1.79027e-06
0 -0.000351974 3.24933e-05 0 -0.000244266 -8.80216e-06
0 -0.000360195 2.47997e-05 0 -0.000251198 -1.64204e-05
0 -0.000361754 1.47927e-05 0 -0.000246251 -2.61778e-05
0 -0.000356988 3.77321e-06 0 -0.000216254 -4.20038e-05
0 -0.00034737 -8.86346e-06 0 -0.000184731 -5.74247e-05
0 -0.000330935 -2.29275e-05 0 -0.000148107 -7.48792e-05
0 -0.000309774 -3.79182e-05 0 -0.000105642 -9.2759e-05
0 -0.000285151 -5.27471e-05 0 -5.95182e-05 -0.000110916
0 -0.000257696 -6.7028e-05 0 -1.07472e-05 -0.000128416
0 -0.000229069 -8.01451e-05 0 3.91716e-05 -0.000144651
0 -0.000201125 -9.12501e-05 0 8.87512e-05 -0.000158863
0 -0.000175014 -9.96327e-05 0 0.000136483 -0.000170459
0 -0.000152108 -0.000104747 0 0.000180977 -0.000178785
0 -0.00013389 -0.000106028 0 0.000220975 -0.000183238
0 -0.000121369 -0.000103045 0 0.000255423 -0.00018346
0 -0.00011527 -9.55216e-05 0 0.000283772 -0.000179211
0 -0.000116129 -8.33244e-05 0 0.000306816 -0.000170629
0 -0.000124044 -6.65804e-05 0 0.000323224 -0.000157475
0 -0.000138467 -4.55234e-05 0 0.000333389 -0.000140149
0 -0.000158495 -2.17897e-05 0 0.000338156 -0.000119697
0 -0.000183075 4.94392e-06 0 0.000338346 -9.66973e-05
0 -0.000210746 3.43397e-05 0 0.000334921 -7.09421e-05
0 -0.000240377 6.61181e-05 0 0.000329026 -4.30873e-05
0 -0.000270624 9.95079e-05 0 0.000321707 -1.39218e-05
0 -0.000300447 0.000133652 0 0.000314009 1.59789e-05
0 -0.00032891 0.000167631 0 0.000306851 4.59849e-05
0 -0.000355234 0.000200667 0 0.000301043 7.54564e-05
0 -0.000377902 0.00023189 0 0.000297291 0.000103787
0 -0.000396633 0.000260657 0 0.000296191 0.000130504
0 -0.00041191 0.000286542 0 0.000298331 0.000155019
0 -0.000423416 0.000309089 0 0.000304186 0.000176903
0 -0.000431092 0.000329194 0 0.000314033 0.000195736
0 -0.000434265 0.000346681 0 0.000327842 0.00021071
0 -0.000433156 0.000360761 0 0.000346039 0.000222276
0 -0.000427926 0.000371207 0 0.000369343 0.000230155
0 -0.000418434 0.000378107 0 0.000398935 0.000234063
0 -0.000405586 0.000380314 0 0.00042882 0.000234514
0 -0.000390567 0.000379366 0 0.00045945 0.000227444
0 -0.000374257 0.000375911 0 0.000491097 0.0002197
0 -0.000398442 0.000324846 0 -0.000524457 0.000450035
0 -0.000318717 0.000320468 0 -1.99965e-05 0.00025743
0 -0.000352406 0.000309117 0 -0.000179687 0.000316866
0 -0.000305454 0.00030089 0 -7.21965e-05 0.000244566
0 -0.000274648 0.000264778 0 -7.8778e-05 0.000232109
0 -0.000266006 0.000237993 0 -4.02021e-05 0.000195137
0 -0.000250048 0.00021517 0 -2.57786e-05 0.000169222
0 -0.000234809 0.000199513 0 -1.15326e-05 0.000141278
0 -0.000230838 0.000180407 0 -3.9434e-06 0.000118703
0 -0.00023127 0.000160195 0 7.47574e-07 0.000100431
0 -0.000229595 0.00014167 0 6.05139e-07 8.00868e-05
0 -0.000232191 0.000122614 0 -1.23007e-06 6.08024e-05
0 -0.000238404 0.000103553 0 -4.76125e-06 4.15721e-05
0 -0.000244474 8.51768e-05 0 -1.03443e-05 2.37829e-05
0 -0.000251921 6.8343e-05 0 -1.75392e-05 6.06347e-06
0 -0.000262033 5.24283e-05 0 -2.61036e-05 -1.0247e-05
0 -0.000273067 3.74336e-05 0 -3.61502e-05 -2.49481e-05
0 -0.000284818 2.4048e-05 0 -4.74652e-05 -3.8351e-05
0 -0.000297888 1.25054e-05 0 -5.95923e-05 -5.02775e-05
0 -0.000311537 2.50711e-06 0 -7.22945e-05 -6.03674e-05
0 -0.000325173 -5.6709e-06 0 -8.53449e-05 -6.80868e-05
0 -0.000338931 -1.18782e-05 0 -9.84253e-05 -7.42564e-05
0 -0.000352608 -1.62794e-05 0 -0.000111305 -7.8529e-05
0 -0.000365712 -1.89919e-05 0 -0.000123769 -8.12061e-05
0 -0.000378067 -2.00319e-05 0 -0.000135487 -8.21079e-05
0 -0.000389346 -1.92782e-05 0 -0.000146053 -8.1376e-05
0 -0.000399035 -1.68235e-05 0 -0.000155078 -7.89764e-05
0 -0.000406713 -1.28236e-05 0 -0.000162118 -7.4957e-05
0 -0.00041196 -7.3513e-06 0 -0.000166695 -6.94656e-05
0 -0.000414248 -4.90478e-07 0 -0.000168318 -6.26565e-05
0 -0.000413103 7.62088e-06 0 -0.000166533 -5.46201e-05
0 -0.000408237 1.68446e-05 0 -0.00016103 -4.54806e-05
0 -0.000399567 2.70763e-05 0 -0.000151733 -3.53546e-05
0 -0.000387225 3.82253e-05 0 -0.00013879 -2.43526e-05
0 -0.00037151 5.01777e-05 0 -0.000122486 -1.25776e-05
0 -0.000352821 6.28232e-05 0 -0.000103222 -1.19262e-07
0 -0.000331594 7.60726e-05 0 -8.14437e-05 1.29293e-05
0 -0.000308256 8.98388e-05 0 -5.75747e-05 2.64711e-05
0 -0.000283213 0.000104023 0 -3.20267e-05 4.04188e-05
0 -0.000256904 0.000118528 0 -5.25075e-06 5.46844e-05
0 -0.000230303 0.000130328 0 2.21624e-05 6.86445e-05
0 -0.00020401 0.000133686 0 4.95193e-05 8.09987e-05
0 -0.00017824 0.000134008 0 7.6157e-05 9.49333e-05
0 -0.000154172 0.000137183 0 9.69825e-05 0.000106004
0 -0.000132137 0.000144305 0 0.000116801 0.00011703
0 -0.000113143 0.000150855 0 0.00013375 0.000128771
0 -0.000257439 -0.000235184 0 8.40675e-05 -3.77482e-05
0 -0.000196302 -0.0004868 0 0.000119829 5.33308e-05
0 -0.000219782 -0.000425204 0 0.000137708 4.82818e-05
0 -0.000196221 -0.000254367 0 0.000169372 4.46288e-05
0 -0.000158293 -0.000270537 0 0.000183953 6.40984e-05
0 -0.000147384 -0.000397198 0 0.000207763 7.8049e-05
0 -0.000132173 -0.000414222 0 0.000226826 9.28503e-05
0 -0.000102173 -0.000328442 0 0.000252396 0.000104453
0 -8.25866e-05 -0.00029458 0 0.000273003 0.000119717
0 -6.61251e-05 -0.000342747 0 0.00029222 0.000142248
0 -4.40771e-05 -0.00036629 0 0.000309746 0.000168315
0 -2.59666e-05 -0.000321566 0 0.000327002 0.000187651
0 -1.34629e-05 -0.000278895 0 0.000344626 0.000205673
0 -9.52297e-07 -0.000279007 0 0.000355642 0.000229382
0 9.41782e-06 -0.000282404 0 0.000365281 0.000252886
0 1.42834e-05 -0.000251631 0 0.0003715 0.000276802
0 1.738e-05 -0.000213868 0 0.00037593 0.000301066
0 1.896e-05 -0.000191236 0 0.000376296 0.000329261
0 1.78679e-05 -0.000175583 0 0.000373984 0.000358706
0 1.46866e-05 -0.000148153 0 0.000369832 0.000387173
0 1.11367e-05 -0.000111982 0 0.000364791 0.000414998
0 7.77393e-06 -8.10211e-05 0 0.000359113 0.000443103
0 4.55338e-06 -5.66826e-05 0 0.00035332 0.00047053
0 1.74996e-06 -3.07623e-05 0 0.000347875 0.000495815
0 -3.14163e-07 -1.60178e-06 0 0.000342934 0.000518739
0 -1.78856e-06 2.51778e-05 0 0.000338315 0.00053984
0 -1.77243e-06 4.33415e-05 0 0.00033384 0.000558886
0 -2.45241e-06 5.29277e-05 0 0.000329531 0.000575281
0 -3.20643e-06 6.03864e-05 0 0.00032518 0.000588598
0 -3.24575e-06 6.91862e-05 0 0.000320471 0.000598967
0 -3.70026e-06 7.89498e-05 0 0.000315554 0.000606282
0 -4.63723e-06 8.66648e-05 0 0.000310514 0.000609762
0 -5.22475e-06 8.98981e-05 0 0.000305479 0.000608642
0 -5.50822e-06 9.06069e-05 0 0.000300799 0.000602961
0 -5.38232e-06 9.10565e-05 0 0.000296697 0.000592885
0 -4.57251e-06 8.91375e-05 0 0.000293067 0.000578448
0 -3.66097e-06 8.29465e-05 0 0.000289564 0.000559762
0 -3.14612e-06 7.26584e-05 0 0.000285631 0.000537194
0 -3.35854e-06 6.01296e-05 0 0.000280721 0.000511267
0 -4.8399e-06 4.63376e-05 0 0.000274412 0.000482451
0 -7.98944e-06 3.08132e-05 0 0.000266363 0.000451148
0 -1.28784e-05 1.4037e-05 0 0.000256312 0.000417791
0 -1.95737e-05 -3.6348e-06 0 0.000244102 0.000382821
0 -2.83216e-05 -2.14515e-05 0 0.000229756 0.000346699
0 -3.88888e-05 -3.96051e-05 0 0.000213482 0.000309764
0 -5.07933e-05 -5.83426e-05 0 0.000195714 0.000272231
0 -6.45054e-05 -7.19401e-05 0 0.000176539 0.000239974
0 -7.82083e-05 -8.73212e-05 0 0.000157235 0.000209192
0 -9.15917e-05 -0.000103544 0 0.000138277 0.000178248
0 -0.000103836 -0.000119792 0 0.000121268 0.000146542
0 -0.000114564 -0.000136662 0 0.000105693 0.000114747
0 -0.000123638 -0.000155102 0 9.24852e-05 8.26757e-05
0 -0.000131093 -0.000174947 0 8.1212e-05 5.06395e-05
0 -0.000136963 -0.000195191 0 7.20322e-05 1.8915e-05
0 -0.000141422 -0.000215375 0 6.48679e-05 -1.22729e-05
0 -0.000144689 -0.000235739 0 5.97695e-05 -4.26761e-05
0 -0.00014694 -0.000256304 0 5.57153e-05 -7.17539e-05
0 -0.000148238 -0.000276474 0 5.30323e-05 -9.93174e-05
0 -0.000148515 -0.000295665 0 5.15899e-05 -0.000125025
0 -0.000147473 -0.000313853 0 5.17687e-05 -0.000148682
0 -0.000144766 -0.000331217 0 5.40075e-05 -0.0001701
0 -0.000140209 -0.000347559 0 5.84638e-05 -0.000189031
0 -0.000133835 -0.00036235 0 6.50904e-05 -0.000205184
0 -0.000125911 -0.000375127 0 7.26252e-05 -0.000218043
0 -0.000116865 -0.000385601 0 8.14417e-05 -0.000227384
0 -0.000107333 -0.000393386 0 9.08946e-05 -0.00023293
0 -9.79176e-05 -0.00039785 0 0.000100346 -0.00023422
0 -8.91674e-05 -0.000397968 0 0.000109328 -0.000230261
0 -8.13413e-05 -0.000393566 0 0.000117556 -0.000221028
0 -7.45489e-05 -0.000384699 0 0.00012489 -0.000206519
0 -6.88189e-05 -0.000371359 0 0.000131317 -0.000186899
0 -6.40354e-05 -0.000353704 0 0.00013692 -0.000162438
0 -5.99215e-05 -0.000332187 0 0.000141956 -0.000133569
0 -5.60869e-05 -0.000307419 0 0.000146779 -0.00010082
0 -5.20755e-05 -0.00028001 0 0.000151819 -6.48053e-05
0 -4.73928e-05 -0.000250578 0 0.000157537 -2.61866e-05
0 -4.13697e-05 -0.000220982 0 0.000164594 1.19458e-05
0 -3.32135e-05 -0.000193739 0 0.000173452 4.77132e-05
0 -2.31905e-05 -0.000165747 0 0.000184216 8.46227e-05
0 -1.09683e-05 -0.000138027 0 0.000196875 0.000121808
0 2.66205e-06 -0.000111166 0 0.00021166 0.000158922
0 1.76293e-05 -8.48863e-05 0 0.000228489 0.00019562
0 3.46837e-05 -5.89019e-05 0 0.000247418 0.000231659
0 5.37649e-05 -3.36546e-05 0 0.00026807 0.000266915
0 7.39515e-05 -9.41349e-06 0 0.00028992 0.000301199
0 9.55746e-05 1.24495e-05 0 0.000312101 0.000334499
0 0.000116199 2.38926e-05 0 0.000333664 0.000366928
0 0.000135405 3.2362e-05 0 0.000353785 0.000398669
0 0.000153612 4.21195e-05 0 0.000371365 0.000429642
0 0.000169105 5.59628e-05 0 0.0003859 0.000459746
0 0.000180889 7.12275e-05 0 0.00039679 0.000489056
0 0.000189266 8.47104e-05 0 0.000403347 0.000517618
0 0.000193814 9.74171e-05 0 0.000405285 0.000545172
0 0.000193944 0.000112094 0 0.000402292 0.0005714
0 0.000189798 0.000128893 0 0.000394284 0.00059604
0 0.000181879 0.00014554 0 0.000381899 0.000618625
0 0.000170679 0.000160602 0 0.00036583 0.000638623
0 0.000157005 0.000174607 0 0.000346986 0.00065537
0 0.000141833 0.000188204 0 0.000326367 0.000668233
0 0.000126077 0.000200442 0 0.000308455 0.000667482
0 0.000110886 0.000210001 0 0.000290926 0.00066239
0 9.64793e-05 0.000216423 0 0.000273645 0.000652398
0 8.37373e-05 0.000219722 0 0.000258339 0.000636955
0 7.34826e-05 0.000218897 0 0.000244609 0.000616398
0 6.56509e-05 0.000212223 0 0.000233329 0.000590892
0 6.03458e-05 0.000199297 0 0.000224282 0.000560491
0 5.78862e-05 0.000180758 0 0.00021769 0.00052556
0 5.81308e-05 0.000157572 0 0.000213503 0.000486593
0 6.08148e-05 0.000130136 0 0.000211909 0.000443623
0 6.5699e-05 9.87685e-05 0 0.000212413 0.000396889
0 7.21726e-05 6.45229e-05 0 0.000214596 0.000347267
0 7.83118e-05 3.56445e-05 0 0.000216839 0.000303947
0 8.50309e-05 4.53443e-06 0 0.000219651 0.000259764
0 9.07864e-05 -2.30358e-05 0 0.00022126 0.000216702
0 9.6269e-05 -4.78075e-05 0 0.000222982 0.000172971
0 0.000100477 -7.07243e-05 0 0.000222822 0.000130751
0 0.000103169 -9.37086e-05 0 0.000221372 8.97022e-05
0 0.000104159 -0.000115769 0 0.000217617 5.07684e-05
0 0.000103 -0.000134487 0 0.000211557 1.39563e-05
0 9.67532e-05 -0.000154461 0 0.00020293 -1.97162e-05
0 8.5815e-05 -0.000186577 0 0.000191773 -5.57141e-05
0 7.44453e-05 -0.000218697 0 0.000177922 -9.00796e-05
0 5.92239e-05 -0.000243034 0 0.000164662 -0.000122761
0 4.32254e-05 -0.000261877 0 0.000149351 -0.000154174
0 2.74642e-05 -0.000280823 0 0.000133816 -0.00018134
0 1.09362e-05 -0.000297921 0 0.000118009 -0.000205343
0 -3.29715e-06 -0.000314467 0 0.000102707 -0.0002265
0 -1.68383e-05 -0.000328484 0 8.82182e-05 -0.000244191
0 -2.87779e-05 -0.000341348 0 7.48982e-05 -0.000258477
0 -3.92085e-05 -0.000351404 0 6.29035e-05 -0.000269545
0 -4.86245e-05 -0.000357372 0 5.24764e-05 -0.000277952
0 -5.66388e-05 -0.000360503 0 4.35177e-05 -0.000283201
0 -6.30201e-05 -0.000361558 0 3.60773e-05 -0.000285083
0 -6.7919e-05 -0.000359715 0 3.10039e-05 -0.000283967
0 -7.10477e-05 -0.000354132 0 2.76117e-05 -0.000279478
0 -7.18131e-05 -0.000345491 0 2.63736e-05 -0.00027147
0 -6.98614e-05 -0.000333804 0 2.78365e-05 -0.000259756
0 -6.49758e-05 -0.000318758 0 3.23295e-05 -0.000244753
0 -5.68939e-05 -0.000300458 0 3.94411e-05 -0.000226707
0 -4.55741e-05 -0.000279482 0 4.95082e-05 -0.000205684
0 -3.12306e-05 -0.000256102 0 6.24686e-05 -0.000182004
0 -1.41254e-05 -0.000230378 0 7.7981e-05 -0.000155958
0 5.45211e-06 -0.000202621 0 9.5749e-05 -0.000127869
0 2.55893e-05 -0.000173133 0 0.000115398 -9.81363e-05
0 4.63063e-05 -0.000142211 0 0.000136563 -6.71668e-05
0 6.83275e-05 -0.000110207 0 0.000158706 -3.51098e-05
0 9.11411e-05 -7.738e-05 0 0.00018138 -2.17353e-06
0 0.000113773 -4.39074e-05 0 0.000204168 3.13679e-05
0 0.000136309 -1.487e-05 0 0.000226998 5.92323e-05
0 0.000157796 1.38838e-05 0 0.000248161 8.83279e-05
0 0.000177603 4.2786e-05 0 0.000268202 0.000116813
0 0.000194984 7.18091e-05 0 0.000285032 0.000146201
0 0.000210184 9.98929e-05 0 0.000300051 0.000174785
0 0.000221222 0.000122991 0 0.000311092 0.000200846
0 0.000228414 0.000136895 0 0.000319573 0.000224436
0 0.000233049 0.000147155 0 0.000324018 0.000248359
0 0.000234366 0.000162346 0 0.000325729 0.000270973
0 0.000232926 0.000183324 0 0.000324367 0.000292292
0 0.000229165 0.000204058 0 0.000320106 0.000312483
0 0.000222951 0.000221279 0 0.000313333 0.000331262
0 0.00021472 0.000237694 0 0.000304415 0.000348204
0 0.000204676 0.000253899 0 0.000293701 0.000362274
0 0.00019341 0.000267771 0 0.000281663 0.000373599
0 0.00018143 0.000277801 0 0.000268822 0.000382408
0 0.000169229 0.000284931 0 0.000255784 0.000388041
0 0.000157415 0.000289677 0 0.000243104 0.000389963
0 0.000146608 0.000290671 0 0.000231442 0.000388259
0 0.000137319 0.000287173 0 0.000221232 0.000382481
0 0.000130053 0.000279632 0 0.000213078 0.000372515
0 0.000125253 0.000268422 0 0.000207322 0.000358274
0 0.000123173 0.000253303 0 0.000204282 0.000340012
0 0.000123728 0.000234273 0 0.000203827 0.000318053
0 0.000126419 0.000211924 0 0.000205486 0.00029266
0 0.00013039 0.00018685 0 0.000208397 0.000264203
0 0.000134642 0.000159586 0 0.000211605 0.000233298
0 0.000137982 0.000134064 0 0.000213853 0.000205208
0 0.000139707 0.000106758 0 0.000214577 0.000174491
0 0.000138707 7.87634e-05 0 0.000212426 0.000143289
0 0.000134547 5.04482e-05 0 0.000207388 0.00011138
0 0.000127113 2.18272e-05 0 0.00019894 7.90589e-05
0 0.000116649 -6.83816e-06 0 0.00018762 4.68139e-05
0 0.000103481 -3.5184e-05 0 0.000173587 1.46767e-05
0 8.81379e-05 -6.30216e-05 0 0.00015746 -1.70713e-05
0 7.12653e-05 -9.03257e-05 0 0.000139827 -4.82012e-05
0 5.36702e-05 -0.000116988 0 0.000121532 -7.85963e-05
0 3.64251e-05 -0.00014286 0 0.000103418 -0.00010808
0 2.1289e-05 -0.000167997 0 8.63761e-05 -0.000136524
0 7.93148e-06 -0.000192201 0 7.11751e-05 -0.000163783
0 -3.29468e-06 -0.000215297 0 5.86783e-05 -0.000189741
0 -1.14171e-05 -0.000237198 0 4.94772e-05 -0.000214243
0 -1.5907e-05 -0.000257775 0 4.40296e-05 -0.000237103
0 -1.68145e-05 -0.000276826 0 4.25634e-05 -0.000258141
0 -1.39606e-05 -0.000293155 0 4.50467e-05 -0.000276933
0 -7.27523e-06 -0.000306293 0 5.11754e-05 -0.000290694
0 2.98095e-06 -0.000317767 0 6.09094e-05 -0.000302932
0 1.63846e-05 -0.000327724 0 7.38259e-05 -0.000313108
0 3.26388e-05 -0.000335905 0 8.98012e-05 -0.000321388
0 5.03163e-05 -0.000341667 0 0.000107798 -0.000327313
0 6.8513e-05 -0.000344377 0 0.000127287 -0.000330643
0 8.71237e-05 -0.000343627 0 0.000147176 -0.00033069
0 0.000105616 -0.000338593 0 0.000166507 -0.000326064
0 0.000122815 -0.000329004 0 0.000184529 -0.000316717
0 0.000138222 -0.000314693 0 0.000200568 -0.000302557
0 0.000151612 -0.00029575 0 0.000214152 -0.000283567
0 0.000162585 -0.000272394 0 0.000225009 -0.000259901
0 0.000172352 -0.000247188 0 0.000234571 -0.000233082
0 0.000179464 -0.000218424 0 0.000241145 -0.000204948
0 0.000184558 -0.000186884 0 0.000246401 -0.00017366
0 0.000187867 -0.000152989 0 0.000248647 -0.000140034
0 0.000188793 -0.000117319 0 0.000249038 -0.000104524
0 0.000187713 -8.03159e-05 0 0.0002473 -6.7846e-05
0 0.000185114 -4.25862e-05 0 0.000243918 -3.04636e-05
0 0.000180865 -4.77923e-06 0 0.000238917 6.91192e-06
0 0.000174938 3.15639e-05 0 0.000232347 4.266e-05
0 0.00016746 6.13264e-05 0 0.000224409 7.11794e-05
0 0.0001583 9.08496e-05 0 0.000214461 0.00010014
0 0.000147443 0.000118522 0 0.000203286 0.000127169
0 0.000135447 0.000144261 0 0.000190673 0.000152235
0 0.000122797 0.000167662 0 0.00017768 0.000175039
0 0.00011006 0.000188407 0 0.000164524 0.000195082
0 9.76871e-05 0.000206071 0 0.000151853 0.000212182
0 8.5885e-05 0.000220426 0 0.000139749 0.000226068
0 7.4803e-05 0.00023132 0 0.000128468 0.000236491
0 6.46379e-05 0.000238519 0 0.00011816 0.000243265
0 5.59087e-05 0.000241794 0 0.00010898 0.000246274
0 4.85614e-05 0.000240788 0 0.000100921 0.000245203
0 4.20885e-05 0.000235117 0 9.39518e-05 0.000239456
0 3.6509e-05 0.000224701 0 8.8267e-05 0.000228973
0 3.24945e-05 0.000209036 0 8.42237e-05 0.000213094
0 2.99206e-05 0.000188376 0 8.2199e-05 0.000191962
0 2.90982e-05 0.000163068 0 8.22751e-05 0.000165913
0 3.02758e-05 0.000134574 0 8.44943e-05 0.000136212
0 3.34631e-05 0.000103691 0 8.86861e-05 0.000104871
0 3.83696e-05 6.98884e-05 0 9.49403e-05 7.00237e-05
0 4.51061e-05 3.38355e-05 0 0.000103106 3.28156e-05
0 5.30557e-05 -3.72193e-06 0 0.000112858 -6.02663e-06
0 6.17799e-05 -4.19984e-05 0 0.000123998 -4.57436e-05
0 7.11565e-05 -8.02433e-05 0 0.000135846 -8.54966e-05
0 8.07074e-05 -0.000117639 0 0.000147701 -0.000124353
0 8.94789e-05 -0.000153337 0 0.000158731 -0.000161461
0 9.68293e-05 -0.000186573 0 0.000168196 -0.000195975
0 0.000102301 -0.000216637 0 0.000175433 -0.000227146
0 0.000105353 -0.000242889 0 0.000179929 -0.000254334
0 0.000105622 -0.000264832 0 0.000181305 -0.000276989
0 0.000102845 -0.000282078 0 0.000179334 -0.00029471
0 9.68116e-05 -0.000294325 0 0.000173955 -0.000307249
0 8.7518e-05 -0.000301439 0 0.000165175 -0.000314482
0 7.49997e-05 -0.000303428 0 0.000152977 -0.000316387
0 5.91649e-05 -0.000300203 0 0.000137305 -0.000312883
0 3.99833e-05 -0.000291801 0 0.000118163 -0.000303983
0 1.88545e-05 -0.000278883 0 9.5702e-05 -0.000290095
0 -4.0775e-06 -0.000261913 0 7.02038e-05 -0.000271738
0 -2.93704e-05 -0.000241389 0 4.23141e-05 -0.000249687
0 -5.62545e-05 -0.000218059 0 1.30341e-05 -0.000224833
0 -8.30371e-05 -0.000192937 0 -1.63366e-05 -0.000198098
0 -0.000108542 -0.000166878 0 -4.20608e-05 -0.000170908
0 -0.000131726 -0.000140546 0 -6.25503e-05 -0.000144629
0 -0.000151371 -0.000115124 0 -8.12248e-05 -0.000118614
0 -0.000166089 -9.13586e-05 0 -9.44657e-05 -9.46725e-05
0 -0.000175674 -6.97462e-05 0 -0.000102861 -7.28662e-05
0 -0.000179323 -5.07316e-05 0 -0.000105249 -5.40093e-05
0 -0.000176535 -3.47296e-05 0 -0.000101399 -3.82598e-05
0 -0.000167631 -2.1792e-05 0 -9.1033e-05 -2.58924e-05
0 -0.000153607 -1.1731e-05 0 -7.53924e-05 -1.663e-05
0 -0.000135569 -4.43734e-06 0 -5.55111e-05 -1.04622e-05
0 -0.000114707 -1.58472e-06 0 -3.25414e-05 -9.33022e-06
0 -9.24691e-05 7.30681e-08 0 -8.89095e-06 -8.70223e-06
0 -7.01727e-05 7.2049e-07 0 1.39454e-05 -9.03421e-06
0 -4.90094e-05 1.11044e-06 0 3.61632e-05 -9.73093e-06
0 -3.03186e-05 1.77282e-06 0 5.59644e-05 -1.01643e-05
0 -1.93133e-05 5.32258e-06 0 6.81489e-05 -6.71097e-06
0 -1.37994e-05 -5.22009e-06 0 7.90951e-05 -2.323e-06
0 -1.02277e-05 -2.29525e-05 0 8.33316e-05 3.84856e-06
0 -1.07936e-05 -3.6755e-05 0 8.8319e-05 1.0122e-05
0 -1.16525e-05 -4.14161e-05 0 9.05833e-05 1.64402e-05
0 -1.29357e-05 -4.37021e-05 0 9.19037e-05 2.35743e-05
0 -1.69309e-05 -5.03533e-05 0 9.13567e-05 3.14651e-05
0 -2.28692e-05 -5.91031e-05 0 8.89315e-05 3.99831e-05
0 -3.02857e-05 -6.38122e-05 0 8.41578e-05 4.89807e-05
0 -4.01292e-05 -6.36897e-05 0 7.71432e-05 5.83543e-05
0 -5.23163e-05 -6.3232e-05 0 6.78793e-05 6.8173e-05
0 -6.60817e-05 -6.49677e-05 0 5.6737e-05 7.84204e-05
0 -8.10442e-05 -6.69195e-05 0 4.43706e-05 8.86779e-05
0 -9.65643e-05 -6.68543e-05 0 3.15343e-05 9.86627e-05
0 -0.000111746 -6.57722e-05 0 1.89049e-05 0.000108266
0 -0.000126 -6.61851e-05 0 7.17743e-06 0.000117305
0 -0.000138785 -6.89057e-05 0 -2.57903e-06 0.00012555
0 -0.000149365 -7.28785e-05 0 -8.84415e-06 0.000132582
0 -0.000157161 -7.73745e-05 0 -1.34566e-05 0.000138645
0 -0.000161724 -8.31951e-05 0 -1.47409e-05 0.000143474
0 -0.000162903 -9.14278e-05 0 -1.31104e-05 0.000147139
0 -0.000160513 -0.000102105 0 -7.63179e-06 0.000149559
0 -0.000154534 -0.000114413 0 1.43358e-06 0.000150761
0 -0.000145213 -0.00012783 0 1.38179e-05 0.000150918
0 -0.000133121 -0.000142474 0 2.82324e-05 0.000150312
0 -0.000119031 -0.000158409 0 4.4853e-05 0.000149088
0 -0.000103815 -0.000175078 0 6.24479e-05 0.000147545
0 -8.81879e-05 -0.000191602 0 8.04885e-05 0.000145949
0 -7.27871e-05 -0.00020748 0 9.82277e-05 0.000144556
0 -5.8138e-05 -0.000222681 0 0.00011522 0.000143621
0 -4.4583e-05 -0.000237096 0 0.000131093 0.000143354
0 -3.22295e-05 -0.000250362 0 0.000145731 0.000143933
0 -2.10094e-05 -0.000262115 0 0.000159177 0.000145479
0 -1.07728e-05 -0.000272281 0 0.000171564 0.000148101
0 -2.01613e-06 -0.000280821 0 0.000183029 0.000151886
0 5.95766e-06 -0.000287803 0 0.000193802 0.000156885
0 1.36467e-05 -0.000293173 0 0.000203918 0.000163145
0 2.08681e-05 -0.000296824 0 0.000213313 0.000170725
0 2.71871e-05 -0.000298616 0 0.000221729 0.000179668
0 3.22101e-05 -0.000297823 0 0.000228697 0.000190029
0 3.56096e-05 -0.000293565 0 0.000233717 0.00020182
0 3.68392e-05 -0.000285499 0 0.000236302 0.000215049
0 3.54449e-05 -0.000273756 0 0.00023594 0.000230585
0 3.13833e-05 -0.000258697 0 0.000232331 0.000248382
0 2.48895e-05 -0.00024061 0 0.00022578 0.000268152
0 1.62648e-05 -0.000219831 0 0.000216583 0.000289457
0 5.89565e-06 -0.000196966 0 0.000205211 0.000311769
0 -5.6887e-06 -0.00017277 0 0.000192141 0.000334595
0 -1.7263e-05 -0.000148217 0 0.000177937 0.000357362
0 -2.90807e-05 -0.00012379 0 0.000163124 0.000379509
0 -4.09184e-05 -9.99757e-05 0 0.000148378 0.000400435
0 -5.21652e-05 -7.74848e-05 0 0.000134165 0.000419606
0 -6.24874e-05 -5.70236e-05 0 0.000120796 0.000436551
0 -7.19593e-05 -3.90545e-05 0 0.000108432 0.000450864
0 -8.05108e-05 -2.39061e-05 0 9.71638e-05 0.000462193
0 -8.79385e-05 -1.19339e-05 0 8.71719e-05 0.000470223
0 -9.40578e-05 -3.51949e-06 0 7.87555e-05 0.000474674
0 -9.85146e-05 7.04901e-07 0 7.23487e-05 0.000474953
0 -0.000100767 2.25595e-07 0 6.85206e-05 0.000470549
0 -0.000100168 -5.04706e-06 0 6.79518e-05 0.00046137
0 -9.59849e-05 -1.5313e-05 0 7.12371e-05 0.000447455
0 -8.78049e-05 -3.05939e-05 0 7.87699e-05 0.000428992
0 -7.55566e-05 -5.04653e-05 0 9.0644e-05 0.000406389
0 -5.94167e-05 -7.41667e-05 0 0.000106628 0.000380255
0 -3.98827e-05 -0.000100759 0 0.000126111 0.000351392
0 -1.77823e-05 -0.000129198 0 0.000148185 0.000320749
0 5.00471e-06 -0.00015805 0 0.000171802 0.000289368
0 2.73622e-05 -0.000185563 0 0.000195959 0.000258313
0 4.95156e-05 -0.000210978 0 0.000219725 0.000228565
0 7.11366e-05 -0.000233582 0 0.000241509 0.000201248
0 9.03637e-05 -0.000249738 0 0.000259622 0.000178653
0 0.000106998 -0.000261751 0 0.000275056 0.000159335
0 0.000120189 -0.000267682 0 0.00028554 0.00014675
0 0.000129404 -0.000267243 0 0.000291581 0.000138341
0 0.000134196 -0.000260402 0 0.000291896 0.000135122
0 0.000134548 -0.000247489 0 0.000286934 0.000136213
0 0.000130336 -0.000228575 0 0.000276343 0.000141966
0 0.000121962 -0.000203687 0 0.000261079 0.000151726
0 0.000110204 -0.000173513 0 0.000241709 0.000165339
0 9.58834e-05 -0.000139318 0 0.000219224 0.000182031
0 7.97754e-05 -0.000102228 0 0.000194549 0.000200943
0 6.2709e-05 -6.3216e-05 0 0.000173309 0.000215898
0 4.56322e-05 -2.36003e-05 0 0.000149054 0.000221231
0 2.97695e-05 1.51316e-05 0 0.000129647 0.000229151
0 1.3424e-05 4.45876e-05 0 0.000108293 0.000234401
0 -1.17951e-06 7.0632e-05 0 8.91405e-05 0.000239694
0 -1.30628e-05 9.59289e-05 0 7.05312e-05 0.000242896
0 -2.40188e-05 0.000121641 0 5.391e-05 0.000244065
0 -3.8475e-05 0.000124731 0 3.80705e-05 0.000237685
0 -4.76808e-05 0.000118925 0 2.51409e-05 0.000234638
0 -5.594e-05 0.00011444 0 1.42723e-05 0.000227424
0 -6.26924e-05 0.000112705 0 6.69706e-06 0.000216659
0 -6.53799e-05 0.000106123 0 1.64993e-06 0.000204242
0 -6.5287e-05 9.3801e-05 0 -1.3397e-07 0.000190679
0 -6.31429e-05 8.06662e-05 0 9.40125e-07 0.000174528
0 -5.79799e-05 6.73924e-05 0 4.7599e-06 0.000155633
0 -4.99722e-05 5.09286e-05 0 1.11934e-05 0.000135385
0 -3.97111e-05 3.12048e-05 0 2.02156e-05 0.000113949
0 -2.71726e-05 1.06616e-05 0 3.15049e-05 9.10344e-05
0 -1.26773e-05 -1.0125e-05 0 4.46459e-05 6.68392e-05
0 3.05092e-06 -3.22158e-05 0 5.91414e-05 4.21603e-05
0 1.94936e-05 -5.53288e-05 0 7.43907e-05 1.74757e-05
0 3.56823e-05 -7.79822e-05 0 8.97427e-05 -7.18257e-06
0 5.04413e-05 -9.95167e-05 0 0.000104586 -3.14857e-05
0 6.41653e-05 -0.000120388 0 0.000118448 -5.48087e-05
0 7.69009e-05 -0.000140351 0 0.000130867 -7.67793e-05
0 8.8108e-05 -0.000158545 0 0.000141774 -9.72695e-05
0 9.78195e-05 -0.000174679 0 0.000151239 -0.000116061
0 0.00010643 -0.000188902 0 0.000159363 -0.000132822
0 0.000113884 -0.000201009 0 0.00016619 -0.000147366
0 0.000119997 -0.000210587 0 0.000171652 -0.000159607
0 0.000124714 -0.000217506 0 0.000175558 -0.000169396
0 0.000127813 -0.000221796 0 0.000177654 -0.000176582
0 0.000128884 -0.000223356 0 0.000177617 -0.000181093
0 0.000127446 -0.000222022 0 0.000175078 -0.000182931
0 0.0001232 -0.000217818 0 0.000169761 -0.000182117
0 0.000116055 -0.000210823 0 0.000161576 -0.000178675
0 0.000106159 -0.00020098 0 0.000150666 -0.000172402
0 9.39266e-05 -0.000188558 0 0.000137467 -0.000163616
0 7.98971e-05 -0.00017394 0 0.000122502 -0.000152634
0 6.46584e-05 -0.000157587 0 0.000106371 -0.000139846
0 4.91956e-05 -0.000140017 0 8.97223e-05 -0.000125679
0 3.49568e-05 -0.000121911 0 7.33528e-05 -0.000110564
0 2.1707e-05 -0.000103606 0 5.80066e-05 -9.5012e-05
0 9.75807e-06 -8.55181e-05 0 4.44697e-05 -7.95023e-05
0 5.67537e-08 -6.81957e-05 0 3.33099e-05 -6.4448e-05
0 -6.80565e-06 -5.20905e-05 0 2.51207e-05 -5.02425e-05
0 -1.06086e-05 -3.75302e-05 0 2.04067e-05 -3.72573e-05
0 -1.09863e-05 -2.48247e-05 0 1.94545e-05 -2.57742e-05
0 -7.60261e-06 -1.42285e-05 0 2.23125e-05 -1.59857e-05
0 -5.20383e-07 -5.75999e-06 0 2.88728e-05 -7.94931e-06
0 9.98921e-06 6.92382e-07 0 3.88947e-05 -1.70924e-06
0 2.37263e-05 5.10254e-06 0 5.22067e-05 2.64564e-06
0 4.06682e-05 7.08554e-06 0 6.87255e-05 4.48018e-06
0 6.03699e-05 6.8661e-06 0 8.82627e-05 3.97291e-06
0 8.10962e-05 4.99024e-06 0 0.000110323 1.33995e-06
0 0.000102992 1.7068e-06 0 0.000134396 -2.99465e-06
0 0.000126233 -2.7446e-06 0 0.000159649 -8.49843e-06
0 0.000149905 -7.86596e-06 0 0.00018524 -1.46473e-05
0 0.000172842 -1.30639e-05 0 0.000210246 -2.09206e-05
0 0.000194402 -1.791e-05 0 0.000233078 -2.66526e-05
0 0.000213757 -2.20288e-05 0 0.000252402 -3.11395e-05
0 0.000229896 -2.48738e-05 0 0.000268934 -3.4454e-05
0 0.000241933 -2.6112e-05 0 0.00028098 -3.59146e-05
0 0.000249542 -2.55792e-05 0 0.000288387 -3.5449e-05
0 0.000252319 -2.31972e-05 0 0.000290671 -3.28756e-05
0 0.000249934 -1.89431e-05 0 0.000287712 -2.82767e-05
0 0.000242446 -1.29756e-05 0 0.000279516 -2.179e-05
0 0.000230374 -5.63038e-06 0 0.000266682 -1.37873e-05
0 0.000214435 2.65548e-06 0 0.000249892 -4.70747e-06
0 0.000195441 1.13862e-05 0 0.000230021 4.88959e-06
0 0.000176177 1.68926e-05 0 0.000210599 1.18652e-05
0 0.000155077 2.23154e-05 0 0.000188547 1.51602e-05
0 0.000133185 2.74131e-05 0 0.000167454 1.80086e-05
0 0.000111467 3.24523e-05 0 0.000144792 2.07556e-05
0 8.91634e-05 3.63013e-05 0 0.000122717 2.16365e-05
0 6.80114e-05 3.79519e-05 0 0.000101219 2.0985e-05
0 5.00027e-05 3.70524e-05 0 8.11779e-05 1.8624e-05
0 3.35594e-05 3.40982e-05 0 6.30179e-05 1.40142e-05
0 1.87386e-05 2.8875e-05 0 4.73146e-05 7.22798e-06
0 6.78093e-06 2.08986e-05 0 3.44857e-05 -1.75099e-06
0 -1.83392e-06 9.9256e-06 0 2.51877e-05 -1.31514e-05
0 -7.07074e-06 -4.19888e-06 0 2.00116e-05 -2.78803e-05
0 -8.57304e-06 -2.13896e-05 0 1.93406e-05 -4.5757e-05
0 -5.75454e-06 -4.12064e-05 0 2.29543e-05 -6.61996e-05
0 7.85142e-07 -6.28557e-05 0 3.04969e-05 -8.8698e-05
0 1.03731e-05 -8.56835e-05 0 4.13497e-05 -0.000112647
0 2.24589e-05 -0.000109145 0 5.47413e-05 -0.000137267
0 3.62047e-05 -0.000131716 0 6.97501e-05 -0.000159909
0 5.09018e-05 -0.00015178 0 8.589e-05 -0.000180863
0 6.5467e-05 -0.000170582 0 0.0001024 -0.000200548
0 7.94239e-05 -0.000187433 0 0.000119107 -0.000218656
0 9.29242e-05 -0.000202018 0 0.000135256 -0.000234392
0 0.000103422 -0.000211787 0 0.000147628 -0.000245001
0 0.000113184 -0.00021957 0 0.000159158 -0.000253583
0 0.000121872 -0.000225128 0 0.00016959 -0.000259933
0 0.000129322 -0.00022827 0 0.000178582 -0.000263826
0 0.00013524 -0.000228551 0 0.000185714 -0.00026466
0 0.000139259 -0.00022586 0 0.000190697 -0.000262342
0 0.000141039 -0.000220116 0 0.000193194 -0.000256781
0 0.000140348 -0.000211306 0 0.000192941 -0.000247985
0 0.000136865 -0.000199459 0 0.000189751 -0.000236012
0 0.000130403 -0.0001847 0 0.000183503 -0.000220983
0 0.000120947 -0.000167243 0 0.000174205 -0.00020311
0 0.000108623 -0.000147364 0 0.000161935 -0.000182671
0 9.36112e-05 -0.000125389 0 0.000146893 -0.000160025
0 7.61497e-05 -0.000101696 0 0.000129367 -0.000135581
0 5.65837e-05 -7.67308e-05 0 0.000109718 -0.000109796
0 3.65052e-05 -5.11719e-05 0 8.84056e-05 -8.31493e-05
0 1.60489e-05 -2.55184e-05 0 6.59233e-05 -5.60978e-05
0 -4.84804e-06 -1.2099e-07 0 4.26964e-05 -2.92572e-05
0 -2.63318e-05 2.46465e-05 0 1.93581e-05 -3.20534e-06
0 -4.76991e-05 4.82358e-05 0 -3.63427e-06 2.15611e-05
0 -6.81728e-05 7.00955e-05 0 -2.57794e-05 4.45677e-05
0 -8.74406e-05 8.95801e-05 0 -4.62745e-05 6.52689e-05
0 -0.000105018 0.000103715 0 -6.13358e-05 7.91578e-05
0 -0.000121167 0.000116094 0 -7.55047e-05 9.12135e-05
0 -0.000134879 0.000125635 0 -8.78785e-05 0.000100729
0 -0.000145948 0.000132356 0 -9.6954e-05 0.000107062
0 -0.00015446 0.000136271 0 -0.000104029 0.000110724
0 -0.000160185 0.000137364 0 -0.000107906 0.00011118
0 -0.000162745 0.000135573 0 -0.000108821 0.00010871
0 -0.000161725 0.000130821 0 -0.000106209 0.000103242
0 -0.000156925 0.000122984 0 -9.9509e-05 9.44847e-05
0 -0.000148319 0.000112203 0 -8.88798e-05 8.25761e-05
0 -0.000135916 9.88034e-05 0 -7.43259e-05 6.78202e-05
0 -0.000119924 8.31349e-05 0 -5.60717e-05 5.06149e-05
0 -0.000100764 6.56148e-05 0 -3.47546e-05 3.1486e-05
0 -7.90479e-05 4.71678e-05 0 -1.20755e-05 1.19098e-05
0 -5.52629e-05 2.80359e-05 0 1.29281e-05 -8.61272e-06
0 -3.01826e-05 8.74324e-06 0 3.9152e-05 -2.93749e-05
0 -4.63243e-06 -1.0172e-05 0 6.56981e-05 -4.97075e-05
0 1.40882e-05 -2.19153e-05 0 8.46092e-05 -5.67501e-05
0 3.19222e-05 -3.17621e-05 0 0.000106305 -6.52382e-05
0 4.82019e-05 -4.9392e-05 0 0.000121652 -7.55979e-05
0 6.15546e-05 -6.79831e-05 0 0.000138744 -8.3254e-05
0 7.14867e-05 -8.6903e-05 0 0.000151957 -8.97927e-05
0 7.99444e-05 -0.000101609 0 0.000162788 -9.48892e-05
0 8.62774e-05 -0.000110771 0 0.000170573 -9.80073e-05
0 8.88426e-05 -0.00011616 0 0.000174494 -9.92708e-05
0 8.72755e-05 -0.000120512 0 0.000175067 -9.83511e-05
0 8.20024e-05 -0.000124547 0 0.000171281 -9.51883e-05
0 7.30801e-05 -0.000126519 0 0.000163387 -8.98684e-05
0 6.00075e-05 -0.00012358 0 0.000151582 -8.25134e-05
0 4.31242e-05 -0.000115335 0 0.000135666 -7.28094e-05
0 2.30265e-05 -0.000103053 0 0.000116311 -6.0083e-05
0 3.84171e-07 -8.84161e-05 0 9.35868e-05 -4.50759e-05
0 -2.29638e-05 -7.3899e-05 0 6.86468e-05 -3.06358e-05
0 -4.76526e-05 -5.97081e-05 0 4.16679e-05 -1.50262e-05
0 -7.35129e-05 -4.42695e-05 0 1.37187e-05 1.17862e-06
0 -9.98735e-05 -2.84933e-05 0 -1.44284e-05 1.74696e-05
0 -0.000125554 -1.30482e-05 0 -3.97503e-05 3.3292e-05
0 -0.000149917 1.84476e-06 0 -6.06884e-05 4.76453e-05
0 -0.000172799 1.52146e-05 0 -8.25535e-05 6.19232e-05
0 -0.000193694 2.74979e-05 0 -0.000101692 7.46329e-05
0 -0.000211913 3.84644e-05 0 -0.000118126 8.58814e-05
0 -0.000227144 4.7858e-05 0 -0.000132113 9.54384e-05
0 -0.000238985 5.55276e-05 0 -0.00014263 0.000102963
0 -0.000247241 6.12277e-05 0 -0.000149664 0.000108402
0 -0.000253206 6.22939e-05 0 -0.000153472 0.00011102
0 -0.000255575 5.73955e-05 0 -0.000153636 0.000110112
0 -0.000254586 4.8309e-05 0 -0.000149725 0.000107067
0 -0.000250092 3.86194e-05 0 -0.000141852 0.000101337
0 -0.000242385 2.98016e-05 0 -0.000129963 9.28287e-05
0 -0.000231613 2.11313e-05 0 -0.000114794 8.21025e-05
0 -0.000218191 1.00847e-05 0 -0.000100601 7.61243e-05
0 -0.000202853 -4.68836e-06 0 -8.16702e-05 7.26392e-05
0 -0.000185874 -2.24375e-05 0 -6.38156e-05 6.55136e-05
0 -0.000167458 -4.02081e-05 0 -4.29584e-05 5.91099e-05
0 -0.000148428 -5.65783e-05 0 -2.23436e-05 5.20949e-05
0 -0.000129493 -7.21508e-05 0 -1.84952e-06 4.47448e-05
0 -0.000111265 -8.81729e-05 0 1.70104e-05 3.79678e-05
0 -9.4164e-05 -0.000105075 0 3.49986e-05 3.14443e-05
0 -7.87738e-05 -0.00012176 0 5.1492e-05 2.53928e-05
0 -6.55578e-05 -0.000136741 0 6.57355e-05 2.0243e-05
0 -5.47213e-05 -0.000149399 0 7.78506e-05 1.59556e-05
0 -4.63975e-05 -0.000160241 0 8.74514e-05 1.27459e-05
0 -4.06633e-05 -0.000170025 0 9.45574e-05 1.07603e-05
0 -3.75177e-05 -0.000178918 0 9.92226e-05 9.98848e-06
0 -3.68852e-05 -0.000186388 0 0.000101451 1.04971e-05
0 -3.8658e-05 -0.000191842 0 0.000101297 1.22941e-05
0 -4.27431e-05 -0.000195213 0 9.87241e-05 1.53809e-05
0 -4.90192e-05 -0.000196958 0 9.39262e-05 1.97339e-05
0 -5.73079e-05 -0.000197592 0 8.70893e-05 2.52691e-05
0 -6.73674e-05 -0.000197281 0 7.843e-05 3.19002e-05
0 -7.88749e-05 -0.000196119 0 6.82953e-05 3.90366e-05
0 -9.14939e-05 -0.000193539 0 5.71268e-05 4.60814e-05
0 -0.000104832 -0.000189587 0 4.51411e-05 5.41879e-05
0 -0.000118446 -0.000184782 0 3.29458e-05 6.24474e-05
0 -0.000131952 -0.000179693 0 2.08731e-05 7.13077e-05
0 -0.000144764 -0.000175748 0 9.33882e-06 8.00057e-05
0 -0.000156775 -0.00017178 0 -4.72811e-07 8.88019e-05
0 -0.000167738 -0.000168137 0 -8.2348e-06 9.73094e-05
0 -0.000177674 -0.000165075 0 -1.59383e-05 0.000105848
0 -0.000186561 -0.000162921 0 -2.24367e-05 0.000114256
0 -0.000194531 -0.000161748 0 -2.80545e-05 0.000122326
0 -0.000201686 -0.000161465 0 -3.30503e-05 0.000130211
0 -0.000208088 -0.00016202 0 -3.72452e-05 0.000137767
0 -0.000213825 -0.000163494 0 -4.08962e-05 0.000144951
0 -0.000218967 -0.000166051 0 -4.39959e-05 0.000151783
0 -0.000223594 -0.000169726 0 -4.65023e-05 0.000158197
0 -0.000227656 -0.000172569 0 -4.83581e-05 0.000164159
0 -0.000230713 -0.000175781 0 -4.94232e-05 0.000169612
0 -0.000232693 -0.000179182 0 -4.94756e-05 0.0001745
0 -0.000233562 -0.000183689 0 -4.83095e-05 0.00017885
0 -0.000233007 -0.000189782 0 -4.56523e-05 0.000182633
0 -0.000230863 -0.000197313 0 -4.13924e-05 0.000185831
0 -0.000227134 -0.000205726 0 -3.54875e-05 0.000188451
0 -0.000221833 -0.000214678 0 -2.78786e-05 0.000190503
0 -0.000214937 -0.000224284 0 -1.86174e-05 0.000192047
0 -0.000206471 -0.000234861 0 -7.75495e-06 0.000193162
0 -0.000196526 -0.000246519 0 4.64824e-06 0.000193919
0 -0.000185181 -0.000259025 0 1.85259e-05 0.000194391
0 -0.000172475 -0.000271995 0 3.35311e-05 0.000194665
0 -0.00015847 -0.000285164 0 4.89181e-05 0.000194955
0 -0.000143262 -0.000298516 0 6.58187e-05 0.000195235
0 -0.000127108 -0.000312047 0 8.35947e-05 0.000195575
0 -0.000110237 -0.000325671 0 0.000101968 0.000196243
0 -9.28604e-05 -0.000339129 0 0.000120915 0.000197255
0 -7.52587e-05 -0.000352075 0 0.000139965 0.000198769
0 -5.77292e-05 -0.00036423 0 0.000158936 0.00020093
0 -4.05666e-05 -0.000375446 0 0.000177523 0.000203836
0 -2.40737e-05 -0.000385623 0 0.000195399 0.000207626
0 -9.36823e-06 -0.000394511 0 0.000212257 0.000212411
0 3.55843e-06 -0.000401715 0 0.000227779 0.000218281
0 1.48437e-05 -0.000407183 0 0.000241758 0.000225303
0 2.47043e-05 -0.000410915 0 0.000253765 0.000233557
0 3.27196e-05 -0.000412889 0 0.00026361 0.000243102
0 3.83228e-05 -0.000412483 0 0.000271197 0.000253939
0 4.1632e-05 -0.000408958 0 0.000276384 0.00026605
0 4.28218e-05 -0.000402109 0 0.000279089 0.000279379
0 4.15665e-05 -0.000391935 0 0.000279043 0.000294148
0 3.7622e-05 -0.000378706 0 0.00027618 0.000311107
0 3.11023e-05 -0.00036277 0 0.000270285 0.000329944
0 2.23077e-05 -0.000344376 0 0.000261661 0.0003505
0 1.13963e-05 -0.000323691 0 0.000250451 0.000372429
0 -1.47205e-06 -0.000301026 0 0.000236982 0.000395418
0 -1.56599e-05 -0.000276962 0 0.000221623 0.000419049
0 -3.04185e-05 -0.000252329 0 0.000204745 0.000442969
0 -4.58631e-05 -0.000227508 0 0.000186727 0.000466774
0 -6.19191e-05 -0.000202797 0 0.000168126 0.000490016
0 -7.81258e-05 -0.00017862 0 0.000149447 0.000512258
0 -9.38467e-05 -0.000155584 0 0.000131151 0.000533095
0 -0.000108698 -0.000134317 0 0.000113722 0.000552131
0 -0.000122461 -0.000115319 0 9.7611e-05 0.000568995
0 -0.000134836 -9.89706e-05 0 8.31823e-05 0.000583355
0 -0.000145479 -8.55551e-05 0 7.07487e-05 0.000594926
0 -0.000154165 -7.53533e-05 0 6.0575e-05 0.000603475
0 -0.000160777 -6.86371e-05 0 5.28804e-05 0.000608823
0 -0.000165184 -6.56208e-05 0 4.78308e-05 0.000610847
0 -0.000167232 -6.66741e-05 0 4.58638e-05 0.000609154
0 -0.00016685 -7.18901e-05 0 4.64068e-05 0.000603528
0 -0.000164007 -8.11003e-05 0 4.9457e-05 0.000594245
0 -0.000158819 -9.41299e-05 0 5.49917e-05 0.000581331
0 -0.000151513 -0.000110766 0 6.27115e-05 0.000565132
0 -0.000142377 -0.000130676 0 7.23869e-05 0.00054591
0 -0.000131726 -0.000153376 0 8.36604e-05 0.000524071
0 -0.000119908 -0.000178294 0 9.61429e-05 0.000500059
0 -0.000107304 -0.000204844 0 0.000109432 0.000474347
0 -9.43187e-05 -0.00023248 0 0.000123107 0.000447441
0 -8.13484e-05 -0.000260646 0 0.000136735 0.00041986
0 -6.87926e-05 -0.000288738 0 0.000149883 0.000392123
0 -5.70546e-05 -0.000316122 0 0.000162121 0.000364756
0 -4.65341e-05 -0.000342189 0 0.000173022 0.000338266
0 -3.7587e-05 -0.000366405 0 0.000182212 0.000313125
0 -3.04984e-05 -0.000388317 0 0.000189378 0.000289759
0 -2.64704e-05 -0.000404817 0 0.000194071 0.000268671
0 -2.3716e-05 -0.000413975 0 0.000195608 0.000252931
0 -2.3215e-05 -0.000419163 0 0.000195219 0.000238512
0 -2.55056e-05 -0.000421742 0 0.000192014 0.000226347
0 -3.01034e-05 -0.000424946 0 0.000187011 0.000216044
0 -3.67756e-05 -0.00042817 0 0.000178925 0.000208719
0 -4.55674e-05 -0.000428619 0 0.00016852 0.000203937
0 -5.65996e-05 -0.00042484 0 0.000155519 0.000201782
0 -6.97e-05 -0.000417446 0 0.000140271 0.000202061
0 -8.46151e-05 -0.000407916 0 0.00012294 0.000204652
0 -0.000101144 -0.000397001 0 0.000103791 0.0002094
0 -0.000119019 -0.000384567 0 8.32196e-05 0.000215954
0 -0.000137905 -0.000370211 0 6.16066e-05 0.000223985
0 -0.000157402 -0.00035426 0 3.98971e-05 0.000233081
0 -0.000177014 -0.000337761 0 2.17743e-05 0.00024202
0 -0.000195533 -0.000322061 0 2.85828e-06 0.000251342
0 -0.000212715 -0.000307617 0 -1.53381e-05 0.000260875
0 -0.000228403 -0.000294359 0 -3.1351e-05 0.000269606
0 -0.000242434 -0.0002823 0 -4.56524e-05 0.000277628
0 -0.000254157 -0.000272009 0 -5.75032e-05 0.000284562
0 -0.000263053 -0.000264205 0 -6.64314e-05 0.000290082
0 -0.000269062 -0.000259226 0 -7.2493e-05 0.00029413
0 -0.000272214 -0.000257037 0 -7.54319e-05 0.000296523
0 -0.000272403 -0.000257489 0 -7.51611e-05 0.000297205
0 -0.00026942 -0.000260592 0 -7.1284e-05 0.000296113
0 -0.000263341 -0.000266439 0 -6.38544e-05 0.000293263
0 -0.000254385 -0.000274953 0 -5.31428e-05 0.000288874
0 -0.000242763 -0.000285844 0 -3.93238e-05 0.000283104
0 -0.000228721 -0.000298657 0 -2.27499e-05 0.000276228
0 -0.000212588 -0.000312921 0 -3.80026e-06 0.000268564
0 -0.000194754 -0.000328218 0 1.71114e-05 0.00026046
0 -0.00017561 -0.000344138 0 3.95384e-05 0.000252295
0 -0.000155533 -0.000360198 0 6.21742e-05 0.000244605
0 -0.000134883 -0.000375853 0 8.43602e-05 0.000237966
0 -0.000114027 -0.000390568 0 0.000107434 0.000232144
0 -9.34571e-05 -0.00040382 0 0.000130004 0.000227871
0 -7.35567e-05 -0.000415166 0 0.000151835 0.000225428
0 -5.46841e-05 -0.00042415 0 0.000170406 0.000229641
0 -3.75038e-05 -0.000429462 0 0.000188933 0.000235993
0 -2.17577e-05 -0.000432504 0 0.000204365 0.000243168
0 -9.08668e-06 -0.000432123 0 0.000219102 0.000252686
0 1.07384e-06 -0.000428999 0 0.000231041 0.000263569
0 9.04316e-06 -0.000422512 0 0.000240867 0.000276274
0 1.48135e-05 -0.000412652 0 0.00024741 0.000291306
0 1.77971e-05 -0.000399307 0 0.000250848 0.000308918
0 1.76892e-05 -0.000382619 0 0.000251052 0.000329069
0 1.46709e-05 -0.000362858 0 0.000247854 0.000351591
0 9.12076e-06 -0.000340367 0 0.000241633 0.000376117
0 1.28995e-06 -0.000315516 0 0.000232794 0.000402205
0 -8.45465e-06 -0.000288828 0 0.000221798 0.000429363
0 -1.91462e-05 -0.000261089 0 0.0002092 0.00045708
0 -3.04299e-05 -0.000232931 0 0.000195502 0.00048484
0 -4.20518e-05 -0.000204904 0 0.000181272 0.000512121
0 -5.3691e-05 -0.000177462 0 0.000167104 0.000538372
0 -6.47705e-05 -0.00015118 0 0.000153516 0.000563082
0 -7.47355e-05 -0.000126704 0 0.00014102 0.000585765
0 -8.32326e-05 -0.000104611 0 0.000130115 0.000605967
0 -8.98878e-05 -8.582e-05 0 0.000121364 0.000621945
0 -9.44814e-05 -6.9992e-05 0 0.000115026 0.000634479
0 -9.67244e-05 -5.74863e-05 0 0.000111102 0.000644355
0 -9.65432e-05 -4.8474e-05 0 0.000110098 0.000650789
0 -9.38485e-05 -4.31655e-05 0 0.00011156 0.000654144
0 -8.86408e-05 -4.16496e-05 0 0.000115879 0.00065395
0 -8.10509e-05 -4.38482e-05 0 0.000122618 0.00065007
0 -7.13474e-05 -4.94679e-05 0 0.000131612 0.000642732
0 -5.98641e-05 -5.82165e-05 0 0.000142527 0.000632116
0 -4.69983e-05 -6.97835e-05 0 0.000154834 0.000618582
0 -3.31979e-05 -8.37535e-05 0 0.000168086 0.000602454
0 -1.89419e-05 -9.95889e-05 0 0.000181747 0.00058414
0 -4.70386e-06 -0.000116712 0 0.000195296 0.000564068
0 7.85268e-06 -0.000134187 0 0.000208206 0.000542683
0 1.91953e-05 -0.00015173 0 0.000220031 0.000520422
0 2.9408e-05 -0.000169015 0 0.000230297 0.000497686
0 3.83618e-05 -0.000185819 0 0.000238525 0.000474923
0 4.55192e-05 -0.000201687 0 0.000244495 0.000452473
0 5.05734e-05 -0.00021613 0 0.000248017 0.00043065
0 5.36007e-05 -0.000228821 0 0.000248836 0.000409767
0 5.46651e-05 -0.000239605 0 0.000247157 0.000389992
0 5.35758e-05 -0.000248365 0 0.00024278 0.000371535
0 5.01479e-05 -0.00025496 0 0.000235784 0.000354553
0 4.4501e-05 -0.000259306 0 0.000226315 0.00033909
0 3.66184e-05 -0.000259911 0 0.000214419 0.000325718
0 2.67613e-05 -0.00025813 0 0.000200262 0.000314342
0 1.5202e-05 -0.000254842 0 0.000184228 0.000304142
0 2.09901e-06 -0.000249964 0 0.000166361 0.000295249
0 -1.21409e-05 -0.000243451 0 0.000147196 0.00028743
0 -2.67224e-05 -0.000235545 0 0.000126727 0.000282086
0 -4.18165e-05 -0.000227041 0 0.00010546 0.000278014
0 -5.72985e-05 -0.000218379 0 8.40798e-05 0.000273854
0 -7.27566e-05 -0.000209755 0 6.26587e-05 0.000270098
0 -8.76343e-05 -0.000201361 0 4.21408e-05 0.000266029
0 -0.000101546 -0.000193525 0 2.50286e-05 0.000261288
0 -0.000114379 -0.000186665 0 9.94319e-06 0.000255628
0 -0.000125826 -0.000181181 0 -4.84353e-06 0.000249782
0 -0.0001354 -0.000177361 0 -1.7118e-05 0.000242838
0 -0.000142883 -0.000175302 0 -2.72702e-05 0.000234989
0 -0.000148057 -0.00017509 0 -3.51223e-05 0.000226112
0 -0.000150654 -0.000176888 0 -4.01675e-05 0.000216097
0 -0.000150477 -0.000180839 0 -4.24338e-05 0.000204978
0 -0.000147414 -0.000186978 0 -4.17595e-05 0.000192785
0 -0.000141544 -0.000195172 0 -3.7754e-05 0.00017949
0 -0.00013311 -0.000205149 0 -3.08428e-05 0.000165319
0 -0.000122453 -0.000216575 0 -2.13996e-05 0.000150514
0 -0.000109979 -0.000229096 0 -9.83313e-06 0.00013532
0 -9.61314e-05 -0.00024234 0 3.33557e-06 0.000120043
0 -8.13654e-05 -0.000255901 0 1.76199e-05 0.000104982
0 -6.61286e-05 -0.000269343 0 3.2515e-05 9.04552e-05
0 -5.08747e-05 -0.000282219 0 4.69417e-05 7.6879e-05
0 -3.59974e-05 -0.000294099 0 6.03802e-05 6.46422e-05
0 -2.18329e-05 -0.000304628 0 7.36027e-05 5.36436e-05
0 -9.26696e-06 -0.00031338 0 8.56771e-05 4.43617e-05
0 1.49817e-06 -0.000319898 0 9.65592e-05 3.6891e-05
0 1.09676e-05 -0.0003242 0 0.000106241 3.13615e-05
0 1.95087e-05 -0.000326376 0 0.000114497 2.79354e-05
0 2.69949e-05 -0.000326384 0 0.000121388 2.66759e-05
0 3.31873e-05 -0.000324027 0 0.000126977 2.7613e-05
0 3.81254e-05 -0.000318917 0 0.000131201 3.11363e-05
0 4.2008e-05 -0.00031115 0 0.000134071 3.7206e-05
0 4.48347e-05 -0.000300847 0 0.000135625 4.57696e-05
0 4.66021e-05 -0.000288149 0 0.000135986 5.66879e-05
0 4.74886e-05 -0.000273213 0 0.000135336 6.97791e-05
0 4.77246e-05 -0.000256232 0 0.000133847 8.48381e-05
0 4.75199e-05 -0.000237487 0 0.000133834 9.94332e-05
0 4.71114e-05 -0.000217421 0 0.000132175 0.000111432
0 4.66996e-05 -0.000195998 0 0.000132291 0.000126259
0 4.61949e-05 -0.000173551 0 0.000131696 0.000141277
0 4.58045e-05 -0.000150424 0 0.000131356 0.000156875
0 4.56435e-05 -0.00012675 0 0.00013141 0.000172956
0 4.57453e-05 -0.000102767 0 0.00013141 0.000189128
0 4.62018e-05 -7.91479e-05 0 0.00013186 0.000204147
0 4.71439e-05 -5.67338e-05 0 0.000132599 0.000218539
0 4.84054e-05 -3.42697e-05 0 0.000133549 0.000232551
0 4.99951e-05 -1.21159e-05 0 0.000134864 0.000246125
0 5.25164e-05 8.53071e-06 0 0.000136141 0.000259232
0 5.43319e-05 2.34044e-05 0 0.000137423 0.00027164
0 5.60307e-05 3.67351e-05 0 0.000138584 0.00028341
0 5.77182e-05 4.9378e-05 0 0.000139364 0.000294396
0 5.95032e-05 6.28674e-05 0 0.000139852 0.000304437
0 6.08987e-05 7.72009e-05 0 0.000140078 0.000313456
0 6.18999e-05 9.08945e-05 0 0.000140108 0.00032141
0 6.28828e-05 0.00010275 0 0.00013996 0.000328253
0 6.3971e-05 0.000112935 0 0.000139684 0.000333896
0 6.50402e-05 0.000122485 0 0.000139375 0.000338229
0 6.60685e-05 0.000132011 0 0.00013905 0.000341181
0 6.71658e-05 0.000141133 0 0.00013869 0.000342717
0 6.83502e-05 0.000149014 0 0.000138272 0.00034271
0 6.95436e-05 0.000155193 0 0.000137788 0.000341115
0 7.07045e-05 0.000160055 0 0.000137236 0.000337898
0 7.18758e-05 0.00016419 0 0.000136603 0.000333068
0 7.30753e-05 0.00016777 0 0.00013588 0.000326648
0 7.42408e-05 0.000170489 0 0.000135051 0.000318676
0 7.52634e-05 0.000172031 0 0.000134129 0.000309356
0 7.33806e-05 0.000162003 0 0.000132575 0.000295732
0 7.3121e-05 0.00014856 0 0.000131148 0.000281736
0 7.23043e-05 0.000134091 0 0.000129315 0.000267858
0 7.0621e-05 0.000122035 0 0.000127146 0.000253934
0 6.87052e-05 0.000110754 0 0.000125173 0.00023821
0 6.70624e-05 9.74704e-05 0 0.000122667 0.000222248
0 6.54654e-05 8.21428e-05 0 0.000120284 0.000205572
0 6.34847e-05 6.6106e-05 0 0.000117884 0.00018836
0 6.13858e-05 5.0427e-05 0 0.000115288 0.000170178
0 5.93464e-05 3.47e-05 0 0.000112687 0.000151309
0 5.71411e-05 1.80917e-05 0 0.000109835 0.000132197
0 5.45535e-05 6.02785e-07 0 0.000106723 0.000112952
0 5.15439e-05 -1.70464e-05 0 0.000103238 9.35062e-05
0 4.81261e-05 -3.43343e-05 0 9.92877e-05 7.38484e-05
0 4.42408e-05 -5.13849e-05 0 9.48805e-05 5.41427e-05
0 3.98319e-05 -6.85314e-05 0 9.00049e-05 3.46384e-05
0 3.49211e-05 -8.57379e-05 0 8.46516e-05 1.54559e-05
0 2.95498e-05 -0.000102628 0 7.88363e-05 -3.40528e-06
0 2.37665e-05 -0.000118931 0 7.26068e-05 -2.192e-05
0 1.78904e-05 -0.000134736 0 6.6037e-05 -3.99643e-05
0 1.17857e-05 -0.000150141 0 5.92015e-05 -5.73972e-05
0 5.48433e-06 -0.000165095 0 5.22096e-05 -7.41433e-05
0 -9.2897e-07 -0.0001794 0 4.51849e-05 -9.0187e-05
0 -7.26812e-06 -0.000192938 0 3.82562e-05 -0.000105492
0 -1.33664e-05 -0.000205732 0 3.15733e-05 -0.000119984
0 -1.91038e-05 -0.000217831 0 2.53027e-05 -0.000133588
0 -2.43557e-05 -0.000229203 0 1.95886e-05 -0.000146254
0 -2.89982e-05 -0.000239749 0 1.45356e-05 -0.000157956
0 -3.29318e-05 -0.0002494 0 1.024e-05 -0.00016866
0 -3.6071e-05 -0.00025815 0 6.8046e-06 -0.000178315
0 -3.83034e-05 -0.000266011 0 4.35883e-06 -0.000186874
0 -3.95021e-05 -0.000272957 0 3.02043e-06 -0.000194302
0 -3.95241e-05 -0.000279049 0 2.92912e-06 -0.000200625
0 -3.83078e-05 -0.000284276 0 4.11731e-06 -0.000206035
0 -3.58874e-05 -0.000288578 0 6.60512e-06 -0.000210431
0 -3.22261e-05 -0.000291743 0 1.03585e-05 -0.000213679
0 -2.74204e-05 -0.000293637 0 1.52762e-05 -0.000215701
0 -2.15826e-05 -0.000294068 0 2.12832e-05 -0.000216377
0 -1.48214e-05 -0.000292832 0 2.82136e-05 -0.000215341
0 -7.27398e-06 -0.000289908 0 3.59348e-05 -0.000212598
0 8.6131e-07 -0.000285227 0 4.4236e-05 -0.000208054
0 9.37547e-06 -0.000278709 0 5.29273e-05 -0.000201677
0 1.80606e-05 -0.000270324 0 6.17752e-05 -0.000193423
0 2.62759e-05 -0.000260016 0 7.05658e-05 -0.000183274
0 3.38032e-05 -0.000247764 0 7.90744e-05 -0.000171271
0 4.0837e-05 -0.000233695 0 8.71735e-05 -0.000157418
0 4.75283e-05 -0.000217931 0 9.46428e-05 -0.000141761
0 5.36702e-05 -0.000200549 0 0.00010138 -0.000124398
0 5.90141e-05 -0.000181641 0 0.000107325 -0.000105468
0 6.35818e-05 -0.000161373 0 0.000112437 -8.51213e-05
0 6.74846e-05 -0.000139947 0 0.000116695 -6.35314e-05
0 7.06955e-05 -0.000117557 0 0.000119891 -4.08637e-05
0 7.31512e-05 -9.44046e-05 0 0.000122341 -1.73817e-05
0 7.48415e-05 -7.07092e-05 0 0.00012405 6.63803e-06
0 7.57629e-05 -4.67203e-05 0 0.000124871 3.10132e-05
0 7.59001e-05 -2.31094e-05 0 0.000124865 5.48424e-05
0 7.52571e-05 -3.41001e-06 0 0.000124302 7.38653e-05
0 7.34232e-05 1.65172e-05 0 0.000122243 9.43748e-05
0 7.07157e-05 3.58663e-05 0 0.000119671 0.000113761
0 6.70962e-05 5.4606e-05 0 0.000115935 0.000132873
0 6.2859e-05 7.26164e-05 0 0.000111633 0.000151191
0 5.81071e-05 8.97325e-05 0 0.000106949 0.000168491
0 5.31068e-05 0.000105737 0 0.000101952 0.000184696
0 4.81803e-05 0.000120392 0 9.71207e-05 0.000199539
0 4.35975e-05 0.000133529 0 9.26284e-05 0.000212906
0 3.96236e-05 0.000145054 0 8.88151e-05 0.000224587
0 3.64942e-05 0.000154871 0 8.59068e-05 0.00023444
0 3.43948e-05 0.000162846 0 8.40667e-05 0.000242372
0 3.34658e-05 0.000168862 0 8.34462e-05 0.000248319
0 3.38238e-05 0.00017287 0 8.41724e-05 0.000252235
0 3.55572e-05 0.000174888 0 8.63217e-05 0.000254091
0 3.8687e-05 0.00017496 0 8.9914e-05 0.000253898
0 4.31414e-05 0.000173101 0 9.48688e-05 0.000251707
0 4.87841e-05 0.000169106 0 0.000101052 0.000247297
0 5.53784e-05 0.000163122 0 0.000108227 0.000240858
0 6.26436e-05 0.000155332 0 0.000116092 0.000232557
0 7.01999e-05 0.000145959 0 0.000124267 0.000222632
0 7.68006e-05 0.000135396 0 0.000132083 0.000211342
0 8.19237e-05 0.000122145 0 0.000138736 0.000198553
0 8.67564e-05 0.000107044 0 0.000144863 0.000184749
0 9.07429e-05 9.13832e-05 0 0.000149509 0.000170774
0 9.32443e-05 7.68662e-05 0 0.000152781 0.000156632
0 9.39854e-05 6.37221e-05 0 0.000154437 0.000142418
0 9.30635e-05 5.07733e-05 0 0.000154036 0.00012826
0 9.032e-05 3.82377e-05 0 0.000151533 0.000114939
0 8.54028e-05 2.6507e-05 0 0.000146657 0.000103785
0 7.82047e-05 1.54834e-05 0 0.000139861 9.2281e-05
0 6.90422e-05 5.32573e-06 0 0.000130799 8.15686e-05
0 5.82255e-05 -4.29768e-06 0 0.000120041 7.12216e-05
0 4.58213e-05 -1.36683e-05 0 0.000107584 6.15124e-05
0 3.20126e-05 -2.26901e-05 0 9.37694e-05 5.22827e-05
0 1.7088e-05 -3.11893e-05 0 7.88176e-05 4.34113e-05
0 1.92789e-06 -3.93396e-05 0 6.3011e-05 3.48298e-05
0 -1.33297e-05 -4.73871e-05 0 4.67752e-05 2.64977e-05
0 -2.85427e-05 -5.5479e-05 0 3.05018e-05 1.83069e-05
0 -4.35827e-05 -6.3584e-05 0 1.46402e-05 1.01075e-05
0 -5.80408e-05 -7.17049e-05 0 -5.34998e-07 1.79199e-06
0 -7.15414e-05 -7.99254e-05 0 -1.30134e-05 -7.00085e-06
0 -8.40703e-05 -8.82759e-05 0 -2.39144e-05 -1.62316e-05
0 -9.56626e-05 -9.69312e-05 0 -3.47121e-05 -2.53051e-05
0 -0.000105931 -0.000105871 0 -4.37905e-05 -3.47444e-05
0 -0.000114842 -0.000115045 0 -5.16432e-05 -4.4334e-05
0 -0.000122383 -0.000124411 0 -5.82161e-05 -5.40835e-05
0 -0.000128396 -0.000133957 0 -6.31787e-05 -6.40066e-05
0 -0.000132744 -0.000143612 0 -6.6615e-05 -7.39639e-05
0 -0.000135359 -0.000153233 0 -6.8407e-05 -8.38849e-05
0 -0.000136195 -0.000162683 0 -6.84587e-05 -9.37217e-05
0 -0.000135174 -0.000171874 0 -6.66072e-05 -0.000103378
0 -0.000133804 -0.000178571 0 -6.29496e-05 -0.000112864
0 -0.000130654 -0.000183261 0 -5.79408e-05 -0.000122783
0 -0.000125679 -0.000186771 0 -5.11886e-05 -0.000131857
0 -0.000119945 -0.00018924 0 -4.31032e-05 -0.000140348
0 -0.000113287 -0.000190808 0 -3.34404e-05 -0.000148007
0 -0.000105206 -0.000191275 0 -2.27853e-05 -0.000154612
0 -9.62368e-05 -0.000191054 0 -1.38964e-05 -0.000155315
0 -8.69462e-05 -0.000189835 0 -2.94893e-06 -0.000154085
0 -7.72622e-05 -0.000187146 0 6.64408e-06 -0.000151642
0 -6.74508e-05 -0.000182843 0 1.68605e-05 -0.000147318
0 -5.76051e-05 -0.000176682 0 2.65863e-05 -0.000141699
0 -4.81882e-05 -0.000168968 0 3.6176e-05 -0.000134392
0 -3.94063e-05 -0.000159814 0 4.51364e-05 -0.000125415
0 -3.26924e-05 -0.000154563 0 5.31679e-05 -0.000116004
0 -2.77019e-05 -0.000156146 0 5.9976e-05 -0.000108159
0 -2.35136e-05 -0.00016038 0 6.61224e-05 -9.71063e-05
0 -2.05043e-05 -0.000162262 0 7.09096e-05 -8.50423e-05
0 -1.83723e-05 -0.000159039 0 7.53095e-05 -7.18286e-05
0 -1.70592e-05 -0.000151982 0 7.87023e-05 -5.72014e-05
0 -1.66303e-05 -0.000144417 0 8.12638e-05 -4.13795e-05
0 -1.70294e-05 -0.000137728 0 8.31956e-05 -2.44622e-05
0 -1.79208e-05 -0.000131503 0 8.44605e-05 -8.87734e-06
0 -1.92423e-05 -0.000123784 0 8.53949e-05 7.10698e-06
0 -2.09213e-05 -0.000114094 0 8.56955e-05 2.31263e-05
0 -2.30661e-05 -0.000103302 0 8.58281e-05 3.98503e-05
0 -2.55327e-05 -9.29705e-05 0 8.53476e-05 5.70117e-05
0 -2.82334e-05 -8.31619e-05 0 8.46817e-05 7.43879e-05
0 -3.11257e-05 -7.28945e-05 0 8.38307e-05 9.18754e-05
0 -3.40745e-05 -6.16488e-05 0 8.29033e-05 0.000109312
0 -3.69436e-05 -4.99482e-05 0 8.20583e-05 0.000126613
0 -3.96762e-05 -3.87065e-05 0 8.12694e-05 0.000143733
0 -4.22741e-05 -2.83432e-05 0 8.05915e-05 0.000160527
0 -4.47419e-05 -1.86234e-05 0 8.00289e-05 0.000176845
0 -4.70642e-05 -9.2114e-06 0 7.95785e-05 0.000192573
0 -4.92219e-05 -1.60776e-07 0 7.92553e-05 0.000207627
0 -5.11774e-05 8.12244e-06 0 7.90922e-05 0.00022194
0 -5.28582e-05 1.52619e-05 0 7.91581e-05 0.000235424
0 -5.41564e-05 2.11546e-05 0 7.95661e-05 0.000247966
0 -5.48061e-05 2.52181e-05 0 8.04443e-05 0.000259467
0 -5.49796e-05 2.79401e-05 0 8.19113e-05 0.000269871
0 -5.44666e-05 2.94022e-05 0 8.40565e-05 0.000279137
0 -5.30853e-05 2.987e-05 0 8.69176e-05 0.000287209
0 -5.08619e-05 2.92528e-05 0 9.05382e-05 0.000294049
0 -4.7916e-05 2.72946e-05 0 9.48566e-05 0.00029965
0 -4.42554e-05 2.38061e-05 0 9.95959e-05 0.000304079
0 -4.00254e-05 1.97875e-05 0 0.000105033 0.000307325
0 -3.50569e-05 1.52097e-05 0 0.000110993 0.000309371
0 -2.95337e-05 1.04415e-05 0 0.000117391 0.000310284
0 -2.36326e-05 5.07255e-06 0 0.000124259 0.0003101
0 -1.73142e-05 -1.30666e-06 0 0.000131447 0.000308899
0 -1.0585e-05 -8.76209e-06 0 0.00013889 0.000306686
0 -3.60769e-06 -1.68005e-05 0 0.000146496 0.000303422
0 3.42875e-06 -2.49318e-05 0 0.000154115 0.000299245
0 9.76842e-06 -3.28971e-05 0 0.000161584 0.000294246
0 1.57772e-05 -4.09406e-05 0 0.000168771 0.000288562
0 2.15365e-05 -4.91889e-05 0 0.000175556 0.000282284
0 2.70196e-05 -5.75705e-05 0 0.000181794 0.000275543
0 3.19766e-05 -6.57324e-05 0 0.000187398 0.000268448
0 3.62141e-05 -7.33674e-05 0 0.000192239 0.000261106
0 3.96661e-05 -8.03841e-05 0 0.000196133 0.00025364
0 4.22205e-05 -8.68216e-05 0 0.000198905 0.000246143
0 4.36738e-05 -9.26623e-05 0 0.000200399 0.000238726
0 4.3843e-05 -9.77608e-05 0 0.000200453 0.000231483
0 4.25365e-05 -0.000101906 0 0.00019886 0.000224499
0 3.96277e-05 -0.000104954 0 0.000195503 0.000217852
0 3.50253e-05 -0.000106895 0 0.000190225 0.000211709
0 2.87072e-05 -0.000107805 0 0.00018302 0.000206431
0 2.07029e-05 -0.000107778 0 0.000173815 0.000201937
0 1.11058e-05 -0.000106859 0 0.000162784 0.000198187
0 4.25114e-08 -0.000105007 0 0.000150079 0.000195077
0 -1.16961e-05 -0.000102375 0 0.000135965 0.000192481
0 -2.42444e-05 -9.90893e-05 0 0.000120708 0.000190241
0 -3.75218e-05 -9.5385e-05 0 0.000104633 0.000188191
0 -5.131e-05 -9.1514e-05 0 8.81217e-05 0.000186128
0 -6.5175e-05 -8.78005e-05 0 7.15036e-05 0.000183866
0 -7.87528e-05 -8.4532e-05 0 5.51357e-05 0.000181215
0 -9.18086e-05 -8.19759e-05 0 3.94129e-05 0.000177984
0 -0.000104075 -8.03945e-05 0 2.47003e-05 0.000174
0 -0.000115183 -8.00521e-05 0 1.31748e-05 0.000168781
0 -0.0001249 -8.11324e-05 0 3.42221e-06 0.000162323
0 -0.000133003 -8.37302e-05 0 -5.4934e-06 0.000155226
0 -0.000139525 -8.60049e-05 0 -1.20157e-05 0.00014708
0 -0.000144016 -8.93415e-05 0 -1.66191e-05 0.000138038
0 -0.00014648 -9.34503e-05 0 -1.92694e-05 0.000128633
0 -0.000147082 -9.88668e-05 0 -1.98093e-05 0.000118819
0 -0.000145728 -0.000105629 0 -1.80207e-05 0.000107834
0 -0.0001425 -0.000113477 0 -1.42954e-05 9.62708e-05
0 -0.000137687 -0.00012206 0 -8.6007e-06 8.3994e-05
0 -0.000131629 -0.000131161 0 -1.48663e-06 7.13745e-05
0 -0.00012456 -0.000140749 0 6.90242e-06 5.8545e-05
0 -0.000116717 -0.000150739 0 1.61702e-05 4.57712e-05
0 -0.000108389 -0.000160886 0 2.59262e-05 3.32908e-05
0 -9.98672e-05 -0.000170853 0 3.53487e-05 2.14561e-05
0 -9.13625e-05 -0.000180386 0 4.49873e-05 1.0312e-05
0 -8.30936e-05 -0.000189346 0 5.30123e-05 2.98446e-06
0 -7.53541e-05 -0.000197665 0 6.13604e-05 -3.39117e-06
0 -6.8168e-05 -0.000205284 0 6.83502e-05 -8.83844e-06
0 -6.15786e-05 -0.00021197 0 7.54377e-05 -1.30968e-05
0 -5.57717e-05 -0.000217516 0 8.13334e-05 -1.61318e-05
0 -5.07868e-05 -0.000221877 0 8.67306e-05 -1.79357e-05
0 -4.66287e-05 -0.000225052 0 9.12889e-05 -1.83544e-05
0 -4.33112e-05 -0.000226968 0 9.49678e-05 -1.7216e-05
0 -4.0909e-05 -0.000227581 0 9.78906e-05 -1.45477e-05
0 -3.95035e-05 -0.000226364 0 9.98653e-05 -1.02931e-05
0 -3.90732e-05 -0.000223134 0 0.00010095 -4.50217e-06
0 -3.96114e-05 -0.00021783 0 0.00010094 3.04986e-06
0 -4.11572e-05 -0.000210606 0 9.99276e-05 1.24034e-05
0 -4.36484e-05 -0.000201743 0 9.78678e-05 2.33847e-05
0 -4.69653e-05 -0.000191444 0 9.49036e-05 3.58311e-05
0 -5.10121e-05 -0.000179868 0 9.11059e-05 4.95204e-05
0 -5.56202e-05 -0.000167678 0 8.67893e-05 6.24477e-05
0 -6.07559e-05 -0.000155103 0 8.17499e-05 7.65991e-05
0 -6.62464e-05 -0.000142125 0 7.6376e-05 9.07819e-05
0 -7.20989e-05 -0.000128638 0 7.05791e-05 0.000105635
0 -7.81514e-05 -0.000115054 0 6.45763e-05 0.000120615
0 -8.42807e-05 -0.000101682 0 5.85675e-05 0.000135587
0 -9.03487e-05 -8.86767e-05 0 5.26569e-05 0.000150348
0 -9.61618e-05 -7.61762e-05 0 4.71139e-05 0.000164676
0 -0.000101544 -6.43951e-05 0 4.20726e-05 0.0001784
0 -0.000106352 -5.3619e-05 0 3.77305e-05 0.000191317
0 -0.00011046 -4.41205e-05 0 3.42355e-05 0.000203251
0 -0.000113755 -3.60816e-05 0 3.17084e-05 0.000214051
0 -0.000116137 -2.95948e-05 0 3.02607e-05 0.000223597
0 -0.000117535 -2.47195e-05 0 2.9966e-05 0.000231799
0 -0.00011789 -2.15345e-05 0 3.08948e-05 0.000238582
0 -0.000117134 -2.01344e-05 0 3.31202e-05 0.000243889
0 -0.000115195 -2.05844e-05 0 3.67089e-05 0.000247687
0 -0.000112 -2.28864e-05 0 4.17378e-05 0.00024997
0 -0.0001075 -2.69789e-05 0 4.8243e-05 0.000250769
0 -0.000101704 -3.27588e-05 0 5.62018e-05 0.000250149
0 -9.46793e-05 -4.00962e-05 0 6.55294e-05 0.000248212
0 -8.65452e-05 -4.88625e-05 0 7.6056e-05 0.000245045
0 -7.74356e-05 -5.89048e-05 0 8.75666e-05 0.000240572
0 -6.7507e-05 -6.99407e-05 0 9.90044e-05 0.000235793
0 -5.69437e-05 -8.15917e-05 0 0.000111079 0.000234646
0 -4.59851e-05 -9.37707e-05 0 0.000122187 0.000231883
0 -3.45771e-05 -0.000106352 0 0.000133861 0.000228828
0 -2.3035e-05 -0.00011884 0 0.000145962 0.00022572
0 -1.16622e-05 -0.000131015 0 0.000157401 0.000222459
0 -9.0325e-07 -0.000142528 0 0.000168842 0.000219359
0 8.42051e-06 -0.000152843 0 0.000179414 0.000216524
0 1.70142e-05 -0.000161992 0 0.000189405 0.00021407
0 2.50866e-05 -0.000169965 0 0.000198595 0.000212087
0 3.25553e-05 -0.000176683 0 0.000206849 0.000210704
0 3.91304e-05 -0.000181937 0 0.000214244 0.000209973
0 4.47178e-05 -0.000185519 0 0.000220607 0.000209954
0 4.93415e-05 -0.000187298 0 0.00022581 0.000210717
0 5.28882e-05 -0.00018721 0 0.000229716 0.000212291
0 5.51702e-05 -0.000185217 0 0.000232057 0.000214921
0 5.60892e-05 -0.000181306 0 0.000232854 0.00021897
0 5.55695e-05 -0.000175612 0 0.000231824 0.000223768
0 5.34575e-05 -0.00016793 0 0.000228855 0.000229962
0 4.97062e-05 -0.000158379 0 0.000223992 0.000237172
0 4.43466e-05 -0.000147139 0 0.000217241 0.000245404
0 3.75926e-05 -0.000134986 0 0.000208722 0.000254336
0 2.95363e-05 -0.000121575 0 0.000198691 0.000263798
0 2.04262e-05 -0.000107219 0 0.000187362 0.000273686
0 1.05454e-05 -9.22888e-05 0 0.000175117 0.000283664
0 2.09824e-07 -7.7226e-05 0 0.000162251 0.000293505
0 -9.74392e-06 -6.25444e-05 0 0.000149182 0.000302909
0 -1.94383e-05 -4.84369e-05 0 0.000136219 0.000311631
0 -2.87228e-05 -3.51288e-05 0 0.00012374 0.000319412
0 -3.73672e-05 -2.28852e-05 0 0.000112081 0.000325993
0 -4.50304e-05 -1.20575e-05 0 0.000101491 0.00033117
0 -5.14982e-05 -2.97371e-06 0 9.21802e-05 0.00033472
0 -5.66808e-05 4.06372e-06 0 8.4353e-05 0.000336327
0 -6.04828e-05 8.93456e-06 0 7.81477e-05 0.00033589
0 -6.27586e-05 1.15861e-05 0 7.36982e-05 0.000333319
0 -6.33807e-05 1.19296e-05 0 7.11224e-05 0.000328576
0 -6.2244e-05 9.87351e-06 0 7.04893e-05 0.000321667
0 -5.93439e-05 5.42556e-06 0 7.17899e-05 0.000312656
0 -5.47666e-05 -1.25901e-06 0 7.4906e-05 0.000301682
0 -4.86998e-05 -9.91099e-06 0 7.96396e-05 0.000288933
0 -4.13892e-05 -2.0228e-05 0 8.57414e-05 0.000274641
0 -3.31124e-05 -3.19106e-05 0 9.28944e-05 0.000259078
0 -2.41776e-05 -4.46416e-05 0 0.000100755 0.000242544
0 -1.48987e-05 -5.80441e-05 0 0.000108981 0.000225356
0 -5.58327e-06 -7.1718e-05 0 0.000117235 0.00020784
0 2.95031e-06 -8.41777e-05 0 0.000125206 0.000190604
0 1.04852e-05 -9.5217e-05 0 0.000132535 0.000175073
0 1.74466e-05 -0.000105724 0 0.000139163 0.000161315
0 2.40351e-05 -0.000115642 0 0.000145223 0.000147397
0 3.01114e-05 -0.000124471 0 0.00015032 0.000134622
0 3.55296e-05 -0.000131977 0 0.000154876 0.000122527
0 4.02947e-05 -0.000138184 0 0.000158488 0.00011154
0 4.4483e-05 -0.000143182 0 0.000161282 0.000101633
0 4.80253e-05 -0.000146867 0 0.000163153 9.29264e-05
0 5.07957e-05 -0.000148989 0 0.000164002 8.55201e-05
0 5.27463e-05 -0.000149363 0 0.000163819 7.94517e-05
0 5.38878e-05 -0.000147987 0 0.000162536 7.47677e-05
0 5.42046e-05 -0.000144975 0 0.000160146 7.14683e-05
0 5.36117e-05 -0.000140396 0 0.000156671 6.95343e-05
0 5.21125e-05 -0.000134254 0 0.000152147 6.89246e-05
0 4.97767e-05 -0.000126551 0 0.000146643 6.95696e-05
0 4.66968e-05 -0.000117381 0 0.000140244 7.13785e-05
0 4.29408e-05 -0.000106936 0 0.000133044 7.42393e-05
0 3.85881e-05 -9.54368e-05 0 0.000125878 7.76298e-05
0 3.37286e-05 -8.30361e-05 0 0.000119208 7.66229e-05
0 2.85914e-05 -6.98338e-05 0 0.000112067 7.69619e-05
0 2.29862e-05 -5.5768e-05 0 0.000105217 7.77175e-05
0 1.69667e-05 -4.11855e-05 0 9.72644e-05 7.88273e-05
0 7.78134e-06 -3.13992e-05 0 8.93994e-05 7.84405e-05
0 4.41204e-07 -2.52148e-05 0 8.089e-05 7.70729e-05
0 -5.22407e-06 -2.58505e-05 0 7.29294e-05 7.82615e-05
0 -1.26627e-05 -2.50031e-05 0 6.50655e-05 7.90655e-05
0 -1.98271e-05 -2.19879e-05 0 5.77972e-05 7.92067e-05
0 -2.54831e-05 -1.90533e-05 0 5.06562e-05 7.93693e-05
0 -3.0518e-05 -1.73199e-05 0 4.39041e-05 7.97032e-05
0 -3.57926e-05 -1.6491e-05 0 3.7976e-05 8.00296e-05
0 -4.07076e-05 -1.5606e-05 0 3.25494e-05 8.01023e-05
0 -4.45631e-05 -1.43414e-05 0 2.77228e-05 7.96778e-05
0 -4.76845e-05 -1.32891e-05 0 2.35589e-05 7.89337e-05
0 -5.04799e-05 -1.30448e-05 0 2.01005e-05 7.80253e-05
0 -5.27411e-05 -1.35496e-05 0 1.73825e-05 7.68958e-05
0 -5.41855e-05 -1.43468e-05 0 1.53345e-05 7.54013e-05
0 -5.49176e-05 -1.52321e-05 0 1.39758e-05 7.34607e-05
0 -5.51102e-05 -1.64591e-05 0 1.337e-05 7.11418e-05
0 -5.46266e-05 -1.83332e-05 0 1.35729e-05 6.85452e-05
0 -5.32252e-05 -2.08208e-05 0 1.46464e-05 6.56698e-05
0 -5.0856e-05 -2.36644e-05 0 1.66606e-05 6.24496e-05
0 -4.75594e-05 -2.67438e-05 0 1.96817e-05 5.88722e-05
0 -4.32897e-05 -3.01646e-05 0 2.37518e-05 5.5008e-05
0 -3.79109e-05 -3.41105e-05 0 2.89585e-05 5.08911e-05
0 -3.13488e-05 -3.86433e-05 0 3.53205e-05 4.63048e-05
0 -2.37309e-05 -4.35333e-05 0 4.28548e-05 4.13534e-05
0 -1.51217e-05 -4.85615e-05 0 5.14626e-05 3.61448e-05
0 -5.62646e-06 -5.36376e-05 0 6.09512e-05 3.08293e-05
0 4.57285e-06 -5.86835e-05 0 7.11605e-05 2.55445e-05
0 1.51244e-05 -6.35551e-05 0 8.18376e-05 2.045e-05
0 2.4888e-05 -6.79038e-05 0 9.27191e-05 1.56333e-05
0 3.4524e-05 -7.17186e-05 0 0.000103659 1.12695e-05
0 4.41276e-05 -7.49699e-05 0 0.000114346 7.51075e-06
0 5.35045e-05 -7.75592e-05 0 0.00012456 4.52373e-06
0 6.21986e-05 -7.93166e-05 0 0.000134074 2.40142e-06
0 6.99521e-05 -8.0119e-05 0 0.000142627 1.25587e-06
0 7.66844e-05 -7.98161e-05 0 0.000149945 1.274e-06
0 8.22271e-05 -7.83103e-05 0 0.000155785 2.64323e-06
0 8.63289e-05 -7.55528e-05 0 0.000160007 5.3655e-06
0 8.88727e-05 -7.15373e-05 0 0.000162488 9.45857e-06
0 8.98844e-05 -6.63035e-05 0 0.000163201 1.48835e-05
0 8.93013e-05 -5.9907e-05 0 0.000162178 2.15661e-05
0 8.7135e-05 -5.24415e-05 0 0.000159542 2.93807e-05
0 8.35551e-05 -4.40515e-05 0 0.000155501 3.81695e-05
0 7.88362e-05 -3.49181e-05 0 0.000150268 4.77569e-05
0 7.39729e-05 -2.59296e-05 0 0.000144328 5.78476e-05
0 6.86958e-05 -1.78246e-05 0 0.000139012 6.58508e-05
0 6.25542e-05 -9.36119e-06 0 0.000132695 7.39521e-05
0 5.62899e-05 -8.08781e-07 0 0.00012669 8.21796e-05
0 5.01946e-05 7.62435e-06 0 0.000119828 9.02905e-05
0 4.39146e-05 1.5771e-05 0 0.000113361 9.82522e-05
0 3.76251e-05 2.35804e-05 0 0.000106983 0.000105804
0 3.18746e-05 3.08922e-05 0 0.000101085 0.000112885
0 2.6958e-05 3.75808e-05 0 9.58721e-05 0.000119341
0 2.28885e-05 4.35315e-05 0 9.1535e-05 0.000125069
0 1.98847e-05 4.86336e-05 0 8.83132e-05 0.000129975
0 1.81489e-05 5.28031e-05 0 8.63003e-05 0.000133989
0 1.77445e-05 5.60043e-05 0 8.55961e-05 0.00013705
0 1.8684e-05 5.83472e-05 0 8.63121e-05 0.000139152
0 2.10138e-05 5.96557e-05 0 8.84974e-05 0.00014021
0 2.46414e-05 5.99055e-05 0 9.21695e-05 0.000140242
0 2.95517e-05 5.91041e-05 0 9.73107e-05 0.000139266
0 3.57267e-05 5.72518e-05 0 0.000103988 0.000137193
0 4.32275e-05 5.43034e-05 0 0.000112027 0.000133919
0 5.18719e-05 5.03929e-05 0 0.000121385 0.000129625
0 6.14571e-05 4.56605e-05 0 0.000131808 0.000124433
0 7.17897e-05 4.02497e-05 0 0.000143059 0.000118524
0 8.26332e-05 3.43312e-05 0 0.000154832 0.000112087
0 9.36818e-05 2.80943e-05 0 0.000166802 0.000105323
0 0.000104624 2.17291e-05 0 0.00017864 9.84408e-05
0 0.000115175 1.54162e-05 0 0.00019 9.16485e-05
0 0.000125066 9.33064e-06 0 0.000200499 8.51492e-05
0 0.000134165 3.89991e-06 0 0.000209346 7.9352e-05
0 0.000142143 -8.00809e-07 0 0.000217148 7.4153e-05
0 0.000148887 -4.6401e-06 0 0.000223691 6.97893e-05
0 0.000154255 -7.60349e-06 0 0.000228539 6.6369e-05
0 0.000158159 -9.63294e-06 0 0.000231853 6.39038e-05
0 0.000160467 -1.06296e-05 0 0.000233389 6.24639e-05
0 0.000161854 -1.23833e-05 0 0.000234402 6.07134e-05
0 0.000161613 -1.31971e-05 0 0.000232844 5.79559e-05
0 0.00015935 -1.36097e-05 0 0.000230644 5.67057e-05
0 0.000155624 -1.32382e-05 0 0.000226198 5.56776e-05
0 0.000150302 -1.21252e-05 0 0.000220059 5.53091e-05
0 0.000143062 -1.0339e-05 0 0.000212274 5.54803e-05
0 0.00013404 -7.98648e-06 0 0.000202671 5.61115e-05
0 0.000123514 -5.16109e-06 0 0.000191542 5.71987e-05
0 0.000111602 -1.9107e-06 0 0.000178893 5.86038e-05
0 9.84081e-05 1.65657e-06 0 0.000165054 6.02274e-05
0 8.42284e-05 5.36461e-06 0 0.000150287 6.19496e-05
0 6.94643e-05 9.03197e-06 0 0.000134902 6.36463e-05
0 5.44345e-05 1.25226e-05 0 0.00011923 6.51772e-05
0 3.93966e-05 1.57163e-05 0 0.000103582 6.63982e-05
0 2.54542e-05 1.83464e-05 0 8.83067e-05 6.71878e-05
0 1.24878e-05 2.03249e-05 0 7.3699e-05 6.74622e-05
0 4.33055e-07 2.15494e-05 0 6.00329e-05 6.70781e-05
0 -1.07341e-05 2.19887e-05 0 4.76354e-05 6.59324e-05
0 -2.06277e-05 2.15966e-05 0 3.66707e-05 6.40357e-05
0 -2.89088e-05 2.0404e-05 0 2.72675e-05 6.19598e-05
0 -3.55505e-05 1.84597e-05 0 1.9657e-05 5.87923e-05
0 -4.0573e-05 1.56814e-05 0 1.39415e-05 5.50718e-05
0 -4.37324e-05 1.1866e-05 0 1.02749e-05 5.03093e-05
0 -4.48766e-05 7.0336e-06 0 8.78413e-06 4.47606e-05
0 -4.3904e-05 1.23394e-06 0 9.48855e-06 3.83185e-05
0 -4.0673e-05 -5.6358e-06 0 1.25301e-05 3.10529e-05
0 -3.50687e-05 -1.39064e-05 0 1.80163e-05 2.25122e-05
0 -2.71985e-05 -2.34221e-05 0 2.58754e-05 1.28137e-05
0 -1.71406e-05 -3.38726e-05 0 3.60781e-05 2.13038e-06
0 -5.06871e-06 -4.49695e-05 0 4.83065e-05 -9.26822e-06
0 8.71951e-06 -5.64743e-05 0 6.23177e-05 -2.12089e-05
0 2.38438e-05 -6.81877e-05 0 7.77136e-05 -3.34016e-05
0 3.96914e-05 -7.98603e-05 0 9.40842e-05 -4.55669e-05
0 5.4761e-05 -9.09772e-05 0 0.000110933 -5.74914e-05
0 6.97295e-05 -0.00010143 0 0.000127914 -6.8845e-05
0 8.45598e-05 -0.000111083 0 0.000144462 -7.93396e-05
0 9.88352e-05 -0.00011971 0 0.000160124 -8.86665e-05
0 0.000111846 -0.000127014 0 0.000174485 -9.66145e-05
0 0.000123206 -0.000132772 0 0.000187128 -0.000102963
0 0.000132801 -0.000136849 0 0.000197694 -0.000107515
0 0.000140407 -0.000139127 0 0.000205897 -0.000110116
0 0.000145714 -0.000139477 0 0.000211537 -0.000110663
0 0.000148578 -0.000137621 0 0.000214486 -0.000108833
0 0.000149038 -0.000133581 0 0.000214694 -0.000104635
0 0.00014695 -0.000127378 0 0.000212213 -9.81338e-05
0 0.000142312 -0.000119107 0 0.000207142 -8.94695e-05
0 0.000135278 -0.000108943 0 0.000199644 -7.88168e-05
0 0.000126129 -9.71232e-05 0 0.000189938 -6.63992e-05
0 0.000115132 -8.39086e-05 0 0.000178302 -5.2494e-05
0 0.000102552 -6.95849e-05 0 0.000165062 -3.7423e-05
0 8.87394e-05 -5.4478e-05 0 0.000150591 -2.15342e-05
0 7.41039e-05 -3.8945e-05 0 0.000135281 -5.19143e-06
0 5.90578e-05 -2.33501e-05 0 0.000119565 1.12225e-05
0 4.51561e-05 -9.13848e-06 0 0.000104742 2.69316e-05
0 3.27984e-05 2.8985e-06 0 9.1141e-05 3.84246e-05
0 2.06248e-05 1.43523e-05 0 7.83417e-05 4.9829e-05
0 9.59914e-06 2.50425e-05 0 6.67928e-05 6.03171e-05
0 -2.31218e-07 3.46503e-05 0 5.54573e-05 6.98708e-05
0 -9.37907e-06 4.30276e-05 0 4.57653e-05 7.83196e-05
0 -1.763e-05 5.01166e-05 0 3.70939e-05 8.54055e-05
0 -2.44664e-05 5.57478e-05 0 2.9888e-05 9.10961e-05
0 -2.9763e-05 5.98271e-05 0 2.41808e-05 9.52484e-05
0 -3.35373e-05 6.21046e-05 0 2.03114e-05 9.76539e-05
0 -3.55064e-05 6.23016e-05 0 1.85307e-05 9.77796e-05
0 -3.54749e-05 6.03882e-05 0 1.90421e-05 9.56779e-05
0 -3.31379e-05 5.63919e-05 0 2.19317e-05 9.13395e-05
0 -2.84969e-05 5.03905e-05 0 2.71637e-05 8.4897e-05
0 -2.17344e-05 4.25386e-05 0 3.46585e-05 7.64851e-05
0 -1.30467e-05 3.30375e-05 0 4.42079e-05 6.6322e-05
0 -2.64326e-06 2.21323e-05 0 5.55278e-05 5.46684e-05
0 9.18333e-06 1.01086e-05 0 6.83153e-05 4.182e-05
0 2.20766e-05 -2.72304e-06 0 8.22261e-05 2.81046e-05
0 3.55176e-05 -1.60217e-05 0 9.68898e-05 1.3872e-05
0 4.81782e-05 -2.92404e-05 0 0.000111878 -5.63909e-07
0 6.06628e-05 -4.22087e-05 0 0.00012687 -1.48031e-05
0 7.2918e-05 -5.46832e-05 0 0.000141367 -2.84666e-05
0 8.45724e-05 -6.63432e-05 0 0.000154953 -4.11828e-05
0 9.49876e-05 -7.68186e-05 0 0.000167228 -5.26488e-05
0 0.000103795 -8.58248e-05 0 0.000177808 -6.25658e-05
0 0.000110865 -9.31613e-05 0 0.000186333 -7.06582e-05
0 0.000115977 -9.86418e-05 0 0.000192529 -7.67117e-05
0 0.00011885 -0.0001021 0 0.000196208 -8.0578e-05
0 0.000119358 -0.000103441 0 0.000197249 -8.21625e-05
0 0.000117413 -0.000102624 0 0.000195629 -8.1429e-05
0 0.000113 -9.96564e-05 0 0.000191407 -7.84114e-05
0 0.000106222 -9.46134e-05 0 0.000184754 -7.32065e-05
0 9.73296e-05 -8.76403e-05 0 0.000175896 -6.59588e-05
0 8.66232e-05 -7.89292e-05 0 0.000165102 -5.68614e-05
0 7.44301e-05 -6.87065e-05 0 0.000152729 -4.61605e-05
0 6.10951e-05 -5.7229e-05 0 0.000139169 -3.41428e-05
0 4.69788e-05 -4.47845e-05 0 0.000124763 -2.11025e-05
0 3.24677e-05 -3.16805e-05 0 0.000109918 -7.36488e-06
0 1.85072e-05 -1.83175e-05 0 9.50536e-05 6.7349e-06
0 5.54759e-06 -5.07654e-06 0 8.06181e-05 2.09029e-05
0 -6.53617e-06 7.85843e-06 0 6.69293e-05 3.47606e-05
0 -1.7787e-05 2.02802e-05 0 5.44408e-05 4.79692e-05
0 -2.7813e-05 3.18925e-05 0 4.34264e-05 6.02492e-05
0 -3.61973e-05 4.24037e-05 0 3.40842e-05 7.13718e-05
0 -4.28937e-05 5.16303e-05 0 2.6555e-05 8.11222e-05
0 -4.80092e-05 5.94496e-05 0 2.0903e-05 8.93208e-05
0 -5.15269e-05 6.57355e-05 0 1.71137e-05 9.58457e-05
0 -5.33649e-05 6.99878e-05 0 1.51455e-05 0.000100481
0 -5.36688e-05 7.24931e-05 0 1.49313e-05 0.000102924
0 -5.24719e-05 7.34896e-05 0 1.63329e-05 0.000103831
0 -4.98022e-05 7.30294e-05 0 1.92756e-05 0.000103214
0 -4.57847e-05 7.10627e-05 0 2.36192e-05 0.000101029
0 -4.05704e-05 6.75887e-05 0 2.92303e-05 9.72181e-05
0 -3.43556e-05 6.2875e-05 0 3.59173e-05 9.22244e-05
0 -2.73398e-05 5.71793e-05 0 4.34629e-05 8.60786e-05
0 -1.97471e-05 5.0448e-05 0 5.16209e-05 7.89093e-05
0 -1.18511e-05 4.2912e-05 0 6.01062e-05 7.09105e-05
0 -3.91618e-06 3.47657e-05 0 6.86836e-05 6.22532e-05
0 3.85527e-06 2.61833e-05 0 7.71002e-05 5.31514e-05
0 1.13212e-05 1.73288e-05 0 8.52163e-05 4.37903e-05
0 1.83829e-05 8.37301e-06 0 9.2924e-05 3.43523e-05
0 2.44374e-05 -4.09e-07 0 0.000100117 2.49878e-05
0 2.98389e-05 -8.93368e-06 0 0.000106748 1.58624e-05
0 3.46881e-05 -1.70882e-05 0 0.000112685 7.15305e-06
0 3.89366e-05 -2.47536e-05 0 0.000117781 -9.63923e-07
0 4.23409e-05 -3.17666e-05 0 0.000121933 -8.36602e-06
0 4.47697e-05 -3.79949e-05 0 0.000125043 -1.49356e-05
0 4.62648e-05 -4.33612e-05 0 0.000127061 -2.05734e-05
0 4.68524e-05 -4.78063e-05 0 0.000127964 -2.51987e-05
0 4.645e-05 -5.12675e-05 0 0.000127739 -2.87599e-05
0 4.49397e-05 -5.36896e-05 0 0.000126366 -3.1227e-05
0 4.22932e-05 -5.5055e-05 0 0.000123796 -3.25797e-05
0 3.84879e-05 -5.53696e-05 0 0.000119984 -3.2819e-05
0 3.3471e-05 -5.46488e-05 0 0.000114885 -3.19618e-05
0 2.71936e-05 -5.28755e-05 0 0.00010847 -2.99801e-05
0 1.96836e-05 -5.01304e-05 0 0.00010078 -2.69667e-05
