0 0 892.418 0 0 -892.418 0 0 -904.425 0 0 904.425 0 0 842.423 0 0 -842.423 0 0 -845.155 0 0 845.155 0 0 24.7573 0 0 -24.7573 0 0 -23.1952 0 0 23.1952
0 0 901.238 0 0 -901.238 0 0 -895.161 0 0 895.161 0 0 841.68 0 0 -841.68 0 0 -846.065 0 0 846.065 0 0 24.7989 0 0 -24.7989 0 0 -23.1459 0 0 23.1459
0 0 921.46 0 0 -921.46 0 0 -874.024 0 0 874.024 0 0 840.006 0 0 -840.006 0 0 -847.884 0 0 847.884 0 0 24.8717 0 0 -24.8717 0 0 -23.0554 0 0 23.0554
0 0 963.15 0 0 -963.15 0 0 -830.586 0 0 830.586 0 0 836.868 0 0 -836.868 0 0 -851.242 0 0 851.242 0 0 24.9622 0 0 -24.9622 0 0 -22.9181 0 0 22.9181
0 0 1010.39 0 0 -1010.39 0 0 -781.272 0 0 781.272 0 0 833.936 0 0 -833.936 0 0 -854.365 0 0 854.365 0 0 24.9981 0 0 -24.9981 0 0 -22.8483 0 0 22.8483
0 0 1071 0 0 -1071 0 0 -718.04 0 0 718.04 0 0 831.077 0 0 -831.077 0 0 -857.505 0 0 857.505 0 0 24.9545 0 0 -24.9545 0 0 -22.857 0 0 22.857
0 0 1145.9 0 0 -1145.9 0 0 -639.909 0 0 639.909 0 0 828.752 0 0 -828.752 0 0 -860.144 0 0 860.144 0 0 24.7739 0 0 -24.7739 0 0 -23.0023 0 0 23.0023
0 0 1236.06 0 0 -1236.06 0 0 -545.862 0 0 545.862 0 0 827.499 0 0 -827.499 0 0 -861.676 0 0 861.676 0 0 24.3947 0 0 -24.3947 0 0 -23.3444 0 0 23.3444
0 0 1342.57 0 0 -1342.57 0 0 -434.781 0 0 434.781 0 0 827.971 0 0 -827.971 0 0 -861.438 0 0 861.438 0 0 23.7616 0 0 -23.7616 0 0 -23.9484 0 0 23.9484
0 0 1466.57 0 0 -1466.57 0 0 -305.488 0 0 305.488 0 0 830.899 0 0 -830.899 0 0 -858.706 0 0 858.706 0 0 22.8244 0 0 -22.8244 0 0 -24.8741 0 0 24.8741
0 0 1609.08 0 0 -1609.08 0 0 -156.936 0 0 156.936 0 0 837.069 0 0 -837.069 0 0 -852.679 0 0 852.679 0 0 21.534 0 0 -21.534 0 0 -26.1751 0 0 26.1751
0 0 1770.49 0 0 -1770.49 0 0 9.14168 0 0 -9.14168 0 0 847.338 0 0 -847.338 0 0 -842.497 0 0 842.497 0 0 19.846 0 0 -19.846 0 0 -27.8943 0 0 27.8943
0 0 1949.91 0 0 -1949.91 0 0 195.633 0 0 -195.633 0 0 862.558 0 0 -862.558 0 0 -827.122 0 0 827.122 0 0 17.7403 0 0 -17.7403 0 0 -30.0581 0 0 30.0581
0 0 2145.85 0 0 -2145.85 0 0 397.929 0 0 -397.929 0 0 883.952 0 0 -883.952 0 0 -805.574 0 0 805.574 0 0 15.1878 0 0 -15.1878 0 0 -32.6922 0 0 32.6922
0 0 2354.8 0 0 -2354.8 0 0 612.909 0 0 -612.909 0 0 912.74 0 0 -912.74 0 0 -776.307 0 0 776.307 0 0 12.201 0 0 -12.201 0 0 -35.8009 0 0 35.8009
0 0 2571.53 0 0 -2571.53 0 0 836.137 0 0 -836.137 0 0 950.143 0 0 -950.143 0 0 -738.067 0 0 738.067 0 0 8.81798 0 0 -8.81798 0 0 -39.3756 0 0 39.3756
0 0 2789.59 0 0 -2789.59 0 0 1060.81 0 0 -1060.81 0 0 997.284 0 0 -997.284 0 0 -689.762 0 0 689.762 0 0 5.11487 0 0 -5.11487 0 0 -43.3469 0 0 43.3469
0 0 3001.85 0 0 -3001.85 0 0 1279.3 0 0 -1279.3 0 0 1055.1 0 0 -1055.1 0 0 -630.411 0 0 630.411 0 0 1.22007 0 0 -1.22007 0 0 -47.5673 0 0 47.5673
0 0 3201.14 0 0 -3201.14 0 0 1484.24 0 0 -1484.24 0 0 1124.19 0 0 -1124.19 0 0 -559.379 0 0 559.379 0 0 -2.71889 0 0 2.71889 0 0 -51.8488 0 0 51.8488
0 0 3380.44 0 0 -3380.44 0 0 1668.45 0 0 -1668.45 0 0 1204.72 0 0 -1204.72 0 0 -476.495 0 0 476.495 0 0 -6.38461 0 0 6.38461 0 0 -55.9255 0 0 55.9255
0 0 3532.89 0 0 -3532.89 0 0 1824.82 0 0 -1824.82 0 0 1296.34 0 0 -1296.34 0 0 -382.086 0 0 382.086 0 0 -9.43934 0 0 9.43934 0 0 -59.4705 0 0 59.4705
0 0 3651.08 0 0 -3651.08 0 0 1945.66 0 0 -1945.66 0 0 1398.3 0 0 -1398.3 0 0 -276.914 0 0 276.914 0 0 -11.5005 0 0 11.5005 0 0 -62.0805 0 0 62.0805
0 0 3726.43 0 0 -3726.43 0 0 2022.13 0 0 -2022.13 0 0 1509.41 0 0 -1509.41 0 0 -162.18 0 0 162.18 0 0 -12.123 0 0 12.123 0 0 -63.2927 0 0 63.2927
0 0 3748.69 0 0 -3748.69 0 0 2043.69 0 0 -2043.69 0 0 1628.11 0 0 -1628.11 0 0 -39.4828 0 0 39.4828 0 0 -10.8115 0 0 10.8115 0 0 -62.6036 0 0 62.6036
0 0 3705.95 0 0 -3705.95 0 0 1997.97 0 0 -1997.97 0 0 1752.16 0 0 -1752.16 0 0 88.3264 0 0 -88.3264 0 0 -7.07054 0 0 7.07054 0 0 -59.6014 0 0 59.6014
0 0 3586.14 0 0 -3586.14 0 0 1872.79 0 0 -1872.79 0 0 1879.26 0 0 -1879.26 0 0 218.107 0 0 -218.107 0 0 -0.332098 0 0 0.332098 0 0 -53.5396 0 0 53.5396
0 0 3379.78 0 0 -3379.78 0 0 1658.41 0 0 -1658.41 0 0 2006.09 0 0 -2006.09 0 0 347.989 0 0 -347.989 0 0 9.82882 0 0 -9.82882 0 0 -43.8371 0 0 43.8371
0 0 3084.29 0 0 -3084.29 0 0 1352.11 0 0 -1352.11 0 0 2128.28 0 0 -2128.28 0 0 473.219 0 0 -473.219 0 0 24.1736 0 0 -24.1736 0 0 -29.9447 0 0 29.9447
0 0 2707.45 0 0 -2707.45 0 0 961.996 0 0 -961.996 0 0 2239.95 0 0 -2239.95 0 0 587.675 0 0 -587.675 0 0 43.2915 0 0 -43.2915 0 0 -11.2088 0 0 11.2088
0 0 2266.22 0 0 -2266.22 0 0 505.558 0 0 -505.558 0 0 2334.12 0 0 -2334.12 0 0 684.171 0 0 -684.171 0 0 67.6319 0 0 -67.6319 0 0 12.9508 0 0 -12.9508
0 0 1781.7 0 0 -1781.7 0 0 4.54416 0 0 -4.54416 0 0 2403.71 0 0 -2403.71 0 0 755.547 0 0 -755.547 0 0 97.6472 0 0 -97.6472 0 0 42.6349 0 0 -42.6349
0 0 1273.22 0 0 -1273.22 0 0 -529.62 0 0 529.62 0 0 2441.96 0 0 -2441.96 0 0 794.975 0 0 -794.975 0 0 133.589 0 0 -133.589 0 0 78.6135 0 0 -78.6135
0 0 759.956 0 0 -759.956 0 0 -1062.1 0 0 1062.1 0 0 2443.95 0 0 -2443.95 0 0 796.794 0 0 -796.794 0 0 175.398 0 0 -175.398 0 0 120.782 0 0 -120.782
0 0 257.826 0 0 -257.826 0 0 -1584.96 0 0 1584.96 0 0 2405.9 0 0 -2405.9 0 0 757.287 0 0 -757.287 0 0 222.732 0 0 -222.732 0 0 168.855 0 0 -168.855
0 0 -226.277 0 0 226.277 0 0 -2087.16 0 0 2087.16 0 0 2325.55 0 0 -2325.55 0 0 674.52 0 0 -674.52 0 0 274.91 0 0 -274.91 0 0 222.136 0 0 -222.136
0 0 -686.287 0 0 686.287 0 0 -2560.28 0 0 2560.28 0 0 2202.78 0 0 -2202.78 0 0 548.428 0 0 -548.428 0 0 330.911 0 0 -330.911 0 0 279.551 0 0 -279.551
0 0 -1116.83 0 0 1116.83 0 0 -3003 0 0 3003 0 0 2039.63 0 0 -2039.63 0 0 380.923 0 0 -380.923 0 0 389.397 0 0 -389.397 0 0 339.684 0 0 -339.684
0 0 -1519.63 0 0 1519.63 0 0 -3416.42 0 0 3416.42 0 0 1839.3 0 0 -1839.3 0 0 175.388 0 0 -175.388 0 0 448.774 0 0 -448.774 0 0 400.921 0 0 -400.921
0 0 -1896.07 0 0 1896.07 0 0 -3802.2 0 0 3802.2 0 0 1606.42 0 0 -1606.42 0 0 -67.1502 0 0 67.1502 0 0 507.245 0 0 -507.245 0 0 461.33 0 0 -461.33
0 0 -2248.53 0 0 2248.53 0 0 -4162.86 0 0 4162.86 0 0 1346.17 0 0 -1346.17 0 0 -335.259 0 0 335.259 0 0 562.726 0 0 -562.726 0 0 519.032 0 0 -519.032
0 0 -2579.11 0 0 2579.11 0 0 -4500.88 0 0 4500.88 0 0 1065.43 0 0 -1065.43 0 0 -625.281 0 0 625.281 0 0 613.272 0 0 -613.272 0 0 571.614 0 0 -571.614
0 0 -2888.55 0 0 2888.55 0 0 -4816.37 0 0 4816.37 0 0 771.062 0 0 -771.062 0 0 -929.564 0 0 929.564 0 0 656.815 0 0 -656.815 0 0 617.217 0 0 -617.217
0 0 -3174.03 0 0 3174.03 0 0 -5106.95 0 0 5106.95 0 0 470.049 0 0 -470.049 0 0 -1241.06 0 0 1241.06 0 0 691.385 0 0 -691.385 0 0 653.786 0 0 -653.786
0 0 -3429.2 0 0 3429.2 0 0 -5366.4 0 0 5366.4 0 0 168.757 0 0 -168.757 0 0 -1552.74 0 0 1552.74 0 0 715.109 0 0 -715.109 0 0 679.428 0 0 -679.428
0 0 -3646.31 0 0 3646.31 0 0 -5586.48 0 0 5586.48 0 0 -129.443 0 0 129.443 0 0 -1858.5 0 0 1858.5 0 0 726.229 0 0 -726.229 0 0 692.314 0 0 -692.314
0 0 -3819.6 0 0 3819.6 0 0 -5761.64 0 0 5761.64 0 0 -417.128 0 0 417.128 0 0 -2152 0 0 2152 0 0 723.196 0 0 -723.196 0 0 690.856 0 0 -690.856
0 0 -3949.98 0 0 3949.98 0 0 -5893.05 0 0 5893.05 0 0 -686.17 0 0 686.17 0 0 -2426.33 0 0 2426.33 0 0 705.036 0 0 -705.036 0 0 673.872 0 0 -673.872
0 0 -4047.79 0 0 4047.79 0 0 -5991.09 0 0 5991.09 0 0 -930.776 0 0 930.776 0 0 -2674.93 0 0 2674.93 0 0 670.793 0 0 -670.793 0 0 640.402 0 0 -640.402
0 0 -4131.64 0 0 4131.64 0 0 -6075.19 0 0 6075.19 0 0 -1144.88 0 0 1144.88 0 0 -2891.42 0 0 2891.42 0 0 619.862 0 0 -619.862 0 0 589.859 0 0 -589.859
0 0 -4228.03 0 0 4228.03 0 0 -6172.87 0 0 6172.87 0 0 -1322.76 0 0 1322.76 0 0 -3070.24 0 0 3070.24 0 0 552.142 0 0 -552.142 0 0 522.074 0 0 -522.074
0 0 -4417.55 0 0 4417.55 0 0 -6367.01 0 0 6367.01 0 0 -1487.52 0 0 1487.52 0 0 -3234.14 0 0 3234.14 0 0 444.455 0 0 -444.455 0 0 413.6 0 0 -413.6
0 0 -4751.9 0 0 4751.9 0 0 -6711.49 0 0 6711.49 0 0 -1584.43 0 0 1584.43 0 0 -3327.46 0 0 3327.46 0 0 312.822 0 0 -312.822 0 0 280.364 0 0 -280.364
0 0 -5298.39 0 0 5298.39 0 0 -7275.87 0 0 7275.87 0 0 -1615.57 0 0 1615.57 0 0 -3352.13 0 0 3352.13 0 0 160.302 0 0 -160.302 0 0 125.49 0 0 -125.49
0 0 -6104.69 0 0 6104.69 0 0 -8109.33 0 0 8109.33 0 0 -1591.14 0 0 1591.14 0 0 -3319.27 0 0 3319.27 0 0 -10.4474 0 0 10.4474 0 0 -47.149 0 0 47.149
0 0 -7189.78 0 0 7189.78 0 0 -9231.43 0 0 9231.43 0 0 -1530.98 0 0 1530.98 0 0 -3248.44 0 0 3248.44 0 0 -192.266 0 0 192.266 0 0 -234.091 0 0 234.091
0 0 -8539.23 0 0 8539.23 0 0 -10627.2 0 0 10627.2 0 0 -1461.78 0 0 1461.78 0 0 -3167.75 0 0 3167.75 0 0 -378.88 0 0 378.88 0 0 -424.265 0 0 424.265
0 0 -10102.9 0 0 10102.9 0 0 -12244.4 0 0 12244.4 0 0 -1418.21 0 0 1418.21 0 0 -3113.74 0 0 3113.74 0 0 -562.233 0 0 562.233 0 0 -611.236 0 0 611.236
0 0 -11799.7 0 0 11799.7 0 0 -13999.4 0 0 13999.4 0 0 -1438.43 0 0 1438.43 0 0 -3124.11 0 0 3124.11 0 0 -735.383 0 0 735.383 0 0 -787.786 0 0 787.786
0 0 -13536.3 0 0 13536.3 0 0 -15795.2 0 0 15795.2 0 0 -1559.57 0 0 1559.57 0 0 -3239.06 0 0 3239.06 0 0 -891.504 0 0 891.504 0 0 -945.841 0 0 945.841
0 0 -15232.6 0 0 15232.6 0 0 -17548.7 0 0 17548.7 0 0 -1812.83 0 0 1812.83 0 0 -3489.26 0 0 3489.26 0 0 -1025.39 0 0 1025.39 0 0 -1081.33 0 0 1081.33
0 0 -16837.4 0 0 16837.4 0 0 -19206.1 0 0 19206.1 0 0 -2219.11 0 0 2219.11 0 0 -3897.03 0 0 3897.03 0 0 -1133.71 0 0 1133.71 0 0 -1189.47 0 0 1189.47
0 0 -18327.4 0 0 18327.4 0 0 -20743 0 0 20743 0 0 -2787.54 0 0 2787.54 0 0 -4471.5 0 0 4471.5 0 0 -1215.31 0 0 1215.31 0 0 -1269.88 0 0 1269.88
0 0 -19699.5 0 0 19699.5 0 0 -22155.7 0 0 22155.7 0 0 -3515.74 0 0 3515.74 0 0 -5210.64 0 0 5210.64 0 0 -1271.15 0 0 1271.15 0 0 -1322.87 0 0 1322.87
0 0 -20963.2 0 0 20963.2 0 0 -23454.1 0 0 23454.1 0 0 -4390.9 0 0 4390.9 0 0 -6101.07 0 0 6101.07 0 0 -1304.28 0 0 1304.28 0 0 -1352.16 0 0 1352.16
0 0 -22131.4 0 0 22131.4 0 0 -24651.5 0 0 24651.5 0 0 -5391.3 0 0 5391.3 0 0 -7120.42 0 0 7120.42 0 0 -1319.62 0 0 1319.62 0 0 -1362.6 0 0 1362.6
0 0 -23209.7 0 0 23209.7 0 0 -25754.2 0 0 25754.2 0 0 -6488.59 0 0 6488.59 0 0 -8239.67 0 0 8239.67 0 0 -1323.63 0 0 1323.63 0 0 -1361 0 0 1361
0 0 -24196.7 0 0 24196.7 0 0 -26761.3 0 0 26761.3 0 0 -7649.66 0 0 7649.66 0 0 -9424.66 0 0 9424.66 0 0 -1323.8 0 0 1323.8 0 0 -1355.04 0 0 1355.04
0 0 -25095.1 0 0 25095.1 0 0 -27676.3 0 0 27676.3 0 0 -8837.39 0 0 8837.39 0 0 -10637 0 0 10637 0 0 -1328.24 0 0 1328.24 0 0 -1353.26 0 0 1353.26
0 0 -25921.4 0 0 25921.4 0 0 -28516.7 0 0 28516.7 0 0 -10011.6 0 0 10011.6 0 0 -11835.2 0 0 11835.2 0 0 -1345.22 0 0 1345.22 0 0 -1364.27 0 0 1364.27
0 0 -26704.9 0 0 26704.9 0 0 -29313.4 0 0 29313.4 0 0 -11131.7 0 0 11131.7 0 0 -12977.4 0 0 12977.4 0 0 -1382.64 0 0 1382.64 0 0 -1396.31 0 0 1396.31
0 0 -27476.8 0 0 27476.8 0 0 -30099.1 0 0 30099.1 0 0 -12159.9 0 0 12159.9 0 0 -14025 0 0 14025 0 0 -1447.35 0 0 1447.35 0 0 -1456.57 0 0 1456.57
0 0 -28255.2 0 0 28255.2 0 0 -30893 0 0 30893 0 0 -13065.2 0 0 13065.2 0 0 -14946.1 0 0 14946.1 0 0 -1544.66 0 0 1544.66 0 0 -1550.59 0 0 1550.59
0 0 -29035.9 0 0 29035.9 0 0 -31691.5 0 0 31691.5 0 0 -13825.9 0 0 13825.9 0 0 -15718.2 0 0 15718.2 0 0 -1677.83 0 0 1677.83 0 0 -1681.83 0 0 1681.83
0 0 -29802.4 0 0 29802.4 0 0 -32478 0 0 32478 0 0 -14429.6 0 0 14429.6 0 0 -16328.6 0 0 16328.6 0 0 -1847.99 0 0 1847.99 0 0 -1851.49 0 0 1851.49
0 0 -30538 0 0 30538 0 0 -33235.2 0 0 33235.2 0 0 -14872.2 0 0 14872.2 0 0 -16773 0 0 16773 0 0 -2054.02 0 0 2054.02 0 0 -2058.45 0 0 2058.45
0 0 -31229.6 0 0 31229.6 0 0 -33949.6 0 0 33949.6 0 0 -15157.4 0 0 15157.4 0 0 -17055.5 0 0 17055.5 0 0 -2292.64 0 0 2292.64 0 0 -2299.34 0 0 2299.34
0 0 -31869 0 0 31869 0 0 -34612.5 0 0 34612.5 0 0 -15296.3 0 0 15296.3 0 0 -17187.5 0 0 17187.5 0 0 -2558.53 0 0 2558.53 0 0 -2568.72 0 0 2568.72
0 0 -32452.8 0 0 32452.8 0 0 -35220 0 0 35220 0 0 -15306.3 0 0 15306.3 0 0 -17187 0 0 17187 0 0 -2844.63 0 0 2844.63 0 0 -2859.3 0 0 2859.3
0 0 -32983.1 0 0 32983.1 0 0 -35773.9 0 0 35773.9 0 0 -15209.9 0 0 15209.9 0 0 -17077.5 0 0 17077.5 0 0 -3142.43 0 0 3142.43 0 0 -3162.35 0 0 3162.35
0 0 -33465.7 0 0 33465.7 0 0 -36279.7 0 0 36279.7 0 0 -15033.7 0 0 15033.7 0 0 -16886.3 0 0 16886.3 0 0 -3442.44 0 0 3442.44 0 0 -3468.05 0 0 3468.05
0 0 -33907.3 0 0 33907.3 0 0 -36743.8 0 0 36743.8 0 0 -14806.5 0 0 14806.5 0 0 -16643.5 0 0 16643.5 0 0 -3734.6 0 0 3734.6 0 0 -3766.05 0 0 3766.05
0 0 -34314.5 0 0 34314.5 0 0 -37172.6 0 0 37172.6 0 0 -14558.5 0 0 14558.5 0 0 -16380 0 0 16380 0 0 -4008.77 0 0 4008.77 0 0 -4045.89 0 0 4045.89
0 0 -34697.1 0 0 34697.1 0 0 -37575.8 0 0 37575.8 0 0 -14318.7 0 0 14318.7 0 0 -16125.7 0 0 16125.7 0 0 -4255.29 0 0 4255.29 0 0 -4297.62 0 0 4297.62
0 0 -35071.7 0 0 35071.7 0 0 -37970.1 0 0 37970.1 0 0 -14113.1 0 0 14113.1 0 0 -15907.5 0 0 15907.5 0 0 -4465.43 0 0 4465.43 0 0 -4512.22 0 0 4512.22
0 0 -35460.9 0 0 35460.9 0 0 -38378.4 0 0 38378.4 0 0 -13963.6 0 0 13963.6 0 0 -15748.1 0 0 15748.1 0 0 -4631.79 0 0 4631.79 0 0 -4682.09 0 0 4682.09
0 0 -35886.5 0 0 35886.5 0 0 -38822.8 0 0 38822.8 0 0 -13887.4 0 0 13887.4 0 0 -15665.2 0 0 15665.2 0 0 -4748.65 0 0 4748.65 0 0 -4801.31 0 0 4801.31
0 0 -36355.3 0 0 36355.3 0 0 -39310.1 0 0 39310.1 0 0 -13897.8 0 0 13897.8 0 0 -15672.7 0 0 15672.7 0 0 -4812.11 0 0 4812.11 0 0 -4865.86 0 0 4865.86
0 0 -36847.2 0 0 36847.2 0 0 -39819.4 0 0 39819.4 0 0 -14004.3 0 0 14004.3 0 0 -15780.4 0 0 15780.4 0 0 -4820.28 0 0 4820.28 0 0 -4873.77 0 0 4873.77
0 0 -37315.9 0 0 37315.9 0 0 -40302.9 0 0 40302.9 0 0 -14212.2 0 0 14212.2 0 0 -15993.9 0 0 15993.9 0 0 -4773.43 0 0 4773.43 0 0 -4825.24 0 0 4825.24
0 0 -37701.8 0 0 37701.8 0 0 -40698.9 0 0 40698.9 0 0 -14520.4 0 0 14520.4 0 0 -16311.9 0 0 16311.9 0 0 -4674.07 0 0 4674.07 0 0 -4722.81 0 0 4722.81
0 0 -37910.4 0 0 37910.4 0 0 -40910.8 0 0 40910.8 0 0 -14833.3 0 0 14833.3 0 0 -16635.5 0 0 16635.5 0 0 -4559.93 0 0 4559.93 0 0 -4605.29 0 0 4605.29
0 0 -38002.4 0 0 38002.4 0 0 -40999.7 0 0 40999.7 0 0 -15292.8 0 0 15292.8 0 0 -17111.5 0 0 17111.5 0 0 -4379.64 0 0 4379.64 0 0 -4419.76 0 0 4419.76
0 0 -37872.5 0 0 37872.5 0 0 -40857.4 0 0 40857.4 0 0 -15804.1 0 0 15804.1 0 0 -17642.1 0 0 17642.1 0 0 -4165.58 0 0 4165.58 0 0 -4199.56 0 0 4199.56
0 0 -37499.6 0 0 37499.6 0 0 -40462.4 0 0 40462.4 0 0 -16333.8 0 0 16333.8 0 0 -18192.8 0 0 18192.8 0 0 -3927.82 0 0 3927.82 0 0 -3955.12 0 0 3955.12
0 0 -36871.3 0 0 36871.3 0 0 -39802.4 0 0 39802.4 0 0 -16842.8 0 0 16842.8 0 0 -18723.6 0 0 18723.6 0 0 -3677.43 0 0 3677.43 0 0 -3697.85 0 0 3697.85
0 0 -35977.4 0 0 35977.4 0 0 -38867.6 0 0 38867.6 0 0 -17289.5 0 0 17289.5 0 0 -19191.2 0 0 19191.2 0 0 -3425.82 0 0 3425.82 0 0 -3439.59 0 0 3439.59
0 0 -34810.6 0 0 34810.6 0 0 -37651 0 0 37651 0 0 -17631.3 0 0 17631.3 0 0 -19552 0 0 19552 0 0 -3184.17 0 0 3184.17 0 0 -3191.9 0 0 3191.9
0 0 -33365.9 0 0 33365.9 0 0 -36148.3 0 0 36148.3 0 0 -17827.6 0 0 17827.6 0 0 -19764 0 0 19764 0 0 -2962.75 0 0 2962.75 0 0 -2965.44 0 0 2965.44
0 0 -31639.1 0 0 31639.1 0 0 -34355.9 0 0 34355.9 0 0 -17841.5 0 0 17841.5 0 0 -19789.1 0 0 19789.1 0 0 -2770.37 0 0 2770.37 0 0 -2769.36 0 0 2769.36
0 0 -29629 0 0 29629 0 0 -32273.3 0 0 32273.3 0 0 -17642.1 0 0 17642.1 0 0 -19595.6 0 0 19595.6 0 0 -2613.83 0 0 2613.83 0 0 -2610.75 0 0 2610.75
0 0 -27338.6 0 0 27338.6 0 0 -29904.1 0 0 29904.1 0 0 -17205.6 0 0 17205.6 0 0 -19158.8 0 0 19158.8 0 0 -2497.61 0 0 2497.61 0 0 -2494.25 0 0 2494.25
0 0 -24773.7 0 0 24773.7 0 0 -27254.9 0 0 27254.9 0 0 -16516.5 0 0 16516.5 0 0 -18463.1 0 0 18463.1 0 0 -2423.45 0 0 2423.45 0 0 -2421.75 0 0 2421.75
0 0 -21946.8 0 0 21946.8 0 0 -24339 0 0 24339 0 0 -15568.7 0 0 15568.7 0 0 -17501.8 0 0 17501.8 0 0 -2390.3 0 0 2390.3 0 0 -2392.22 0 0 2392.22
0 0 -18886.1 0 0 18886.1 0 0 -21185.8 0 0 21185.8 0 0 -14364.1 0 0 14364.1 0 0 -16277.3 0 0 16277.3 0 0 -2394.32 0 0 2394.32 0 0 -2401.76 0 0 2401.76
0 0 -15645.2 0 0 15645.2 0 0 -17850.9 0 0 17850.9 0 0 -12912.5 0 0 12912.5 0 0 -14799.3 0 0 14799.3 0 0 -2429.02 0 0 2429.02 0 0 -2443.76 0 0 2443.76
0 0 -12297.5 0 0 12297.5 0 0 -14409.6 0 0 14409.6 0 0 -11231.4 0 0 11231.4 0 0 -13086.2 0 0 13086.2 0 0 -2485.47 0 0 2485.47 0 0 -2509.07 0 0 2509.07
0 0 -8915.12 0 0 8915.12 0 0 -10936.2 0 0 10936.2 0 0 -9347.6 0 0 9347.6 0 0 -11165.9 0 0 11165.9 0 0 -2552.47 0 0 2552.47 0 0 -2586.21 0 0 2586.21
0 0 -5559.44 0 0 5559.44 0 0 -7493.8 0 0 7493.8 0 0 -7297.85 0 0 7297.85 0 0 -9076.19 0 0 9076.19 0 0 -2617.05 0 0 2617.05 0 0 -2661.84 0 0 2661.84
0 0 -2284.58 0 0 2284.58 0 0 -4137.78 0 0 4137.78 0 0 -5126.32 0 0 5126.32 0 0 -6862.51 0 0 6862.51 0 0 -2665.06 0 0 2665.06 0 0 -2721.36 0 0 2721.36
0 0 842.41 0 0 -842.41 0 0 -921.094 0 0 921.094 0 0 -2883.89 0 0 2883.89 0 0 -4576.64 0 0 4576.64 0 0 -2681.74 0 0 2681.74 0 0 -2749.57 0 0 2749.57
0 0 3773.78 0 0 -3773.78 0 0 2070.73 0 0 -2070.73 0 0 -625.24 0 0 625.24 0 0 -2274.52 0 0 2274.52 0 0 -2652.43 0 0 2652.43 0 0 -2731.2 0 0 2731.2
0 0 6503.24 0 0 -6503.24 0 0 4876 0 0 -4876 0 0 1571.11 0 0 -1571.11 0 0 -17.2959 0 0 17.2959 0 0 -2566.02 0 0 2566.02 0 0 -2653.8 0 0 2653.8
0 0 9023.39 0 0 -9023.39 0 0 7445.71 0 0 -7445.71 0 0 3676.54 0 0 -3676.54 0 0 2110.42 0 0 -2110.42 0 0 -2408.26 0 0 2408.26 0 0 -2503.99 0 0 2503.99
0 0 11347.5 0 0 -11347.5 0 0 9816.85 0 0 -9816.85 0 0 5646.67 0 0 -5646.67 0 0 4119.19 0 0 -4119.19 0 0 -2170.84 0 0 2170.84 0 0 -2275.85 0 0 2275.85
0 0 13506.3 0 0 -13506.3 0 0 12023.4 0 0 -12023.4 0 0 7437.78 0 0 -7437.78 0 0 5929.97 0 0 -5929.97 0 0 -1847.29 0 0 1847.29 0 0 -1954.19 0 0 1954.19
0 0 15535.5 0 0 -15535.5 0 0 14095 0 0 -14095 0 0 9019.28 0 0 -9019.28 0 0 7527.65 0 0 -7527.65 0 0 -1433.98 0 0 1433.98 0 0 -1544.32 0 0 1544.32
0 0 17450 0 0 -17450 0 0 16052 0 0 -16052 0 0 10372 0 0 -10372 0 0 8887.48 0 0 -8887.48 0 0 -932.732 0 0 932.732 0 0 -1041.97 0 0 1041.97
0 0 19238.8 0 0 -19238.8 0 0 17882.4 0 0 -17882.4 0 0 11490.1 0 0 -11490.1 0 0 10005.5 0 0 -10005.5 0 0 -349.298 0 0 349.298 0 0 -455.621 0 0 455.621
0 0 20880.2 0 0 -20880.2 0 0 19563.8 0 0 -19563.8 0 0 12382.1 0 0 -12382.1 0 0 10892 0 0 -10892 0 0 298.999 0 0 -298.999 0 0 200.595 0 0 -200.595
0 0 22363.2 0 0 -22363.2 0 0 21085.3 0 0 -21085.3 0 0 13070.3 0 0 -13070.3 0 0 11566.4 0 0 -11566.4 0 0 1004.14 0 0 -1004.14 0 0 913.514 0 0 -913.514
0 0 23704.3 0 0 -23704.3 0 0 22462.9 0 0 -22462.9 0 0 13581.2 0 0 -13581.2 0 0 12060.8 0 0 -12060.8 0 0 1752.48 0 0 -1752.48 0 0 1665.77 0 0 -1665.77
0 0 24948 0 0 -24948 0 0 23742.9 0 0 -23742.9 0 0 13945.8 0 0 -13945.8 0 0 12401.8 0 0 -12401.8 0 0 2525.85 0 0 -2525.85 0 0 2453.73 0 0 -2453.73
0 0 26149.6 0 0 -26149.6 0 0 24979.9 0 0 -24979.9 0 0 14201.3 0 0 -14201.3 0 0 12634.1 0 0 -12634.1 0 0 3305.52 0 0 -3305.52 0 0 3241.73 0 0 -3241.73
0 0 27362.2 0 0 -27362.2 0 0 26229.3 0 0 -26229.3 0 0 14390.1 0 0 -14390.1 0 0 12797.2 0 0 -12797.2 0 0 4071.45 0 0 -4071.45 0 0 4019.46 0 0 -4019.46
0 0 28637.6 0 0 -28637.6 0 0 27543.4 0 0 -27543.4 0 0 14554.7 0 0 -14554.7 0 0 12935.4 0 0 -12935.4 0 0 4803.41 0 0 -4803.41 0 0 4761.75 0 0 -4761.75
0 0 30029.3 0 0 -30029.3 0 0 28976.4 0 0 -28976.4 0 0 14737.4 0 0 -14737.4 0 0 13095.3 0 0 -13095.3 0 0 5481.55 0 0 -5481.55 0 0 5448.98 0 0 -5448.98
0 0 31590.8 0 0 -31590.8 0 0 30583 0 0 -30583 0 0 14978.9 0 0 -14978.9 0 0 13316.1 0 0 -13316.1 0 0 6087.98 0 0 -6087.98 0 0 6064.44 0 0 -6064.44
0 0 33368.3 0 0 -33368.3 0 0 32409.7 0 0 -32409.7 0 0 15315.8 0 0 -15315.8 0 0 13636.6 0 0 -13636.6 0 0 6607.49 0 0 -6607.49 0 0 6590.28 0 0 -6590.28
0 0 35412.9 0 0 -35412.9 0 0 34503.6 0 0 -34503.6 0 0 15676.5 0 0 -15676.5 0 0 14003.8 0 0 -14003.8 0 0 6709.17 0 0 -6709.17 0 0 6707.22 0 0 -6707.22
0 0 37695.5 0 0 -37695.5 0 0 36856.1 0 0 -36856.1 0 0 16206 0 0 -16206 0 0 14526.8 0 0 -14526.8 0 0 6673.87 0 0 -6673.87 0 0 6708.24 0 0 -6708.24
0 0 40186.7 0 0 -40186.7 0 0 39402.3 0 0 -39402.3 0 0 16947 0 0 -16947 0 0 15259.8 0 0 -15259.8 0 0 6636.64 0 0 -6636.64 0 0 6733.41 0 0 -6733.41
0 0 42806.5 0 0 -42806.5 0 0 42087.1 0 0 -42087.1 0 0 17896.6 0 0 -17896.6 0 0 16228.8 0 0 -16228.8 0 0 6649.13 0 0 -6649.13 0 0 6748.5 0 0 -6748.5
0 0 45473.1 0 0 -45473.1 0 0 44809.2 0 0 -44809.2 0 0 19066.5 0 0 -19066.5 0 0 17424.2 0 0 -17424.2 0 0 6655.93 0 0 -6655.93 0 0 6722.32 0 0 -6722.32
0 0 48099.3 0 0 -48099.3 0 0 47491.1 0 0 -47491.1 0 0 20421.1 0 0 -20421.1 0 0 18803.5 0 0 -18803.5 0 0 6554.82 0 0 -6554.82 0 0 6603.61 0 0 -6603.61
0 0 50612.2 0 0 -50612.2 0 0 50052.1 0 0 -50052.1 0 0 21935.3 0 0 -21935.3 0 0 20341.8 0 0 -20341.8 0 0 6346.97 0 0 -6346.97 0 0 6404.2 0 0 -6404.2
0 0 52955.9 0 0 -52955.9 0 0 52436.7 0 0 -52436.7 0 0 23562.1 0 0 -23562.1 0 0 22007.1 0 0 -22007.1 0 0 6069.98 0 0 -6069.98 0 0 6126.15 0 0 -6126.15
0 0 54070.1 0 0 -54070.1 0 0 54358.8 0 0 -54358.8 0 0 25149.2 0 0 -25149.2 0 0 23681.1 0 0 -23681.1 0 0 5761.1 0 0 -5761.1 0 0 5790.48 0 0 -5790.48
0 0 54421.8 0 0 -54421.8 0 0 55998 0 0 -55998 0 0 26660.7 0 0 -26660.7 0 0 25347.4 0 0 -25347.4 0 0 5422.21 0 0 -5422.21 0 0 5416.78 0 0 -5416.78
0 0 54927.6 0 0 -54927.6 0 0 57157 0 0 -57157 0 0 28162.8 0 0 -28162.8 0 0 26938.5 0 0 -26938.5 0 0 5051.31 0 0 -5051.31 0 0 5036.69 0 0 -5036.69
0 0 55457.2 0 0 -55457.2 0 0 58193.9 0 0 -58193.9 0 0 29584.1 0 0 -29584.1 0 0 28413.9 0 0 -28413.9 0 0 4678.15 0 0 -4678.15 0 0 4658.85 0 0 -4658.85
0 0 12932.6 0 0 -12932.6 0 0 43325.1 0 0 -43325.1 0 0 23320.1 0 0 -23320.1 0 0 25686.8 0 0 -25686.8 0 0 4807.02 0 0 -4807.02 0 0 4633.01 0 0 -4633.01
0 0 -13889.5 0 0 13889.5 0 0 50004.5 0 0 -50004.5 0 0 22786.5 0 0 -22786.5 0 0 26923.1 0 0 -26923.1 0 0 4626.72 0 0 -4626.72 0 0 4194.7 0 0 -4194.7
0 0 880.075 0 0 -880.075 0 0 49755 0 0 -49755 0 0 26932.1 0 0 -26932.1 0 0 29459.6 0 0 -29459.6 0 0 4024.01 0 0 -4024.01 0 0 3762.79 0 0 -3762.79
0 0 2648.47 0 0 -2648.47 0 0 50321.5 0 0 -50321.5 0 0 28167.4 0 0 -28167.4 0 0 29910.5 0 0 -29910.5 0 0 3673.73 0 0 -3673.73 0 0 3451.88 0 0 -3451.88
0 0 -6377.55 0 0 6377.55 0 0 51703.9 0 0 -51703.9 0 0 26699.9 0 0 -26699.9 0 0 30125.8 0 0 -30125.8 0 0 3526.19 0 0 -3526.19 0 0 3090.12 0 0 -3090.12
0 0 -2748.43 0 0 2748.43 0 0 52253.1 0 0 -52253.1 0 0 27684 0 0 -27684 0 0 30568.5 0 0 -30568.5 0 0 3163.44 0 0 -3163.44 0 0 2791.64 0 0 -2791.64
0 0 201.946 0 0 -201.946 0 0 52852.4 0 0 -52852.4 0 0 28289.2 0 0 -28289.2 0 0 30695.6 0 0 -30695.6 0 0 2862.51 0 0 -2862.51 0 0 2599.03 0 0 -2599.03
0 0 -3468.64 0 0 3468.64 0 0 53585.6 0 0 -53585.6 0 0 27168.8 0 0 -27168.8 0 0 30280.4 0 0 -30280.4 0 0 2753.97 0 0 -2753.97 0 0 2379.86 0 0 -2379.86
0 0 -3131.53 0 0 3131.53 0 0 54070.7 0 0 -54070.7 0 0 26647 0 0 -26647 0 0 29723.2 0 0 -29723.2 0 0 2640.55 0 0 -2640.55 0 0 2253.96 0 0 -2253.96
0 0 -1221.95 0 0 1221.95 0 0 54421.5 0 0 -54421.5 0 0 26259.7 0 0 -26259.7 0 0 29001.3 0 0 -29001.3 0 0 2528.72 0 0 -2528.72 0 0 2181.39 0 0 -2181.39
0 0 -2330.24 0 0 2330.24 0 0 54890 0 0 -54890 0 0 24982.9 0 0 -24982.9 0 0 27941.7 0 0 -27941.7 0 0 2500.25 0 0 -2500.25 0 0 2158.32 0 0 -2158.32
0 0 -2642.5 0 0 2642.5 0 0 55371.7 0 0 -55371.7 0 0 23674.3 0 0 -23674.3 0 0 26711.4 0 0 -26711.4 0 0 2516.94 0 0 -2516.94 0 0 2177.15 0 0 -2177.15
0 0 -1676.95 0 0 1676.95 0 0 55878.5 0 0 -55878.5 0 0 22529.3 0 0 -22529.3 0 0 25409.7 0 0 -25409.7 0 0 2554.42 0 0 -2554.42 0 0 2211.22 0 0 -2211.22
0 0 -1824.26 0 0 1824.26 0 0 56535 0 0 -56535 0 0 21071.9 0 0 -21071.9 0 0 23991 0 0 -23991 0 0 2615.03 0 0 -2615.03 0 0 2274.51 0 0 -2274.51
0 0 -2076 0 0 2076 0 0 57293 0 0 -57293 0 0 19568.4 0 0 -19568.4 0 0 22567 0 0 -22567 0 0 2671.62 0 0 -2671.62 0 0 2345.01 0 0 -2345.01
0 0 -1652.7 0 0 1652.7 0 0 57562.7 0 0 -57562.7 0 0 18289.1 0 0 -18289.1 0 0 21296.5 0 0 -21296.5 0 0 2714.04 0 0 -2714.04 0 0 2397.42 0 0 -2397.42
0 0 -1506.78 0 0 1506.78 0 0 56729.9 0 0 -56729.9 0 0 17168.6 0 0 -17168.6 0 0 20365.3 0 0 -20365.3 0 0 2742.93 0 0 -2742.93 0 0 2403.39 0 0 -2403.39
0 0 -1652.95 0 0 1652.95 0 0 56118.9 0 0 -56118.9 0 0 16155.1 0 0 -16155.1 0 0 19551.4 0 0 -19551.4 0 0 2745.5 0 0 -2745.5 0 0 2390.62 0 0 -2390.62
0 0 -1476.14 0 0 1476.14 0 0 55762.5 0 0 -55762.5 0 0 15419.7 0 0 -15419.7 0 0 18958.6 0 0 -18958.6 0 0 2697.09 0 0 -2697.09 0 0 2340.76 0 0 -2340.76
0 0 -1377.88 0 0 1377.88 0 0 55671.5 0 0 -55671.5 0 0 14902.6 0 0 -14902.6 0 0 18589.6 0 0 -18589.6 0 0 2611.39 0 0 -2611.39 0 0 2247.23 0 0 -2247.23
0 0 -1465.91 0 0 1465.91 0 0 55913.7 0 0 -55913.7 0 0 14613 0 0 -14613 0 0 18448.9 0 0 -18448.9 0 0 2492.19 0 0 -2492.19 0 0 2112.04 0 0 -2112.04
0 0 -1475.93 0 0 1475.93 0 0 56438.7 0 0 -56438.7 0 0 14605.4 0 0 -14605.4 0 0 18554.7 0 0 -18554.7 0 0 2330.76 0 0 -2330.76 0 0 1934.97 0 0 -1934.97
0 0 -1487.28 0 0 1487.28 0 0 57283.5 0 0 -57283.5 0 0 14854.7 0 0 -14854.7 0 0 18910.3 0 0 -18910.3 0 0 2127.91 0 0 -2127.91 0 0 1724.31 0 0 -1724.31
0 0 -1602.51 0 0 1602.51 0 0 58327.9 0 0 -58327.9 0 0 15338.4 0 0 -15338.4 0 0 19507.3 0 0 -19507.3 0 0 1896.32 0 0 -1896.32 0 0 1482.54 0 0 -1482.54
0 0 -1711.13 0 0 1711.13 0 0 59378.8 0 0 -59378.8 0 0 16081.6 0 0 -16081.6 0 0 20357.8 0 0 -20357.8 0 0 1645.75 0 0 -1645.75 0 0 1215.82 0 0 -1215.82
0 0 -1813.52 0 0 1813.52 0 0 60289.1 0 0 -60289.1 0 0 17058.2 0 0 -17058.2 0 0 21433.9 0 0 -21433.9 0 0 1384.83 0 0 -1384.83 0 0 937.828 0 0 -937.828
0 0 -1955.18 0 0 1955.18 0 0 60966.8 0 0 -60966.8 0 0 18213.8 0 0 -18213.8 0 0 22686.4 0 0 -22686.4 0 0 1124.96 0 0 -1124.96 0 0 664.189 0 0 -664.189
0 0 -2097.44 0 0 2097.44 0 0 61525.5 0 0 -61525.5 0 0 19524.6 0 0 -19524.6 0 0 24084 0 0 -24084 0 0 880.843 0 0 -880.843 0 0 407.391 0 0 -407.391
0 0 -2229.97 0 0 2229.97 0 0 61931.6 0 0 -61931.6 0 0 20942.8 0 0 -20942.8 0 0 25579.8 0 0 -25579.8 0 0 674.459 0 0 -674.459 0 0 189.768 0 0 -189.768
0 0 -2361 0 0 2361 0 0 62169.1 0 0 -62169.1 0 0 22405.1 0 0 -22405.1 0 0 27105.6 0 0 -27105.6 0 0 517.176 0 0 -517.176 0 0 32.6101 0 0 -32.6101
0 0 -2459.34 0 0 2459.34 0 0 62241.9 0 0 -62241.9 0 0 23558.6 0 0 -23558.6 0 0 28299.2 0 0 -28299.2 0 0 434.658 0 0 -434.658 0 0 -53.5865 0 0 53.5865
0 0 -2555.46 0 0 2555.46 0 0 62031.8 0 0 -62031.8 0 0 24501.3 0 0 -24501.3 0 0 28521 0 0 -28521 0 0 411.405 0 0 -411.405 0 0 -35.6764 0 0 35.6764
0 0 -2622.92 0 0 2622.92 0 0 61689.5 0 0 -61689.5 0 0 25302.8 0 0 -25302.8 0 0 28774.1 0 0 -28774.1 0 0 439.385 0 0 -439.385 0 0 10.8964 0 0 -10.8964
0 0 -2638.47 0 0 2638.47 0 0 61299 0 0 -61299 0 0 26074.5 0 0 -26074.5 0 0 29095.6 0 0 -29095.6 0 0 511.988 0 0 -511.988 0 0 112.669 0 0 -112.669
0 0 -2697.82 0 0 2697.82 0 0 60877.7 0 0 -60877.7 0 0 26781.3 0 0 -26781.3 0 0 29426.6 0 0 -29426.6 0 0 647.955 0 0 -647.955 0 0 259.661 0 0 -259.661
0 0 -2732.76 0 0 2732.76 0 0 60418.4 0 0 -60418.4 0 0 27433.5 0 0 -27433.5 0 0 29799.8 0 0 -29799.8 0 0 833.897 0 0 -833.897 0 0 460.541 0 0 -460.541
0 0 -2725.1 0 0 2725.1 0 0 59921.9 0 0 -59921.9 0 0 27975.4 0 0 -27975.4 0 0 30220.1 0 0 -30220.1 0 0 1067.07 0 0 -1067.07 0 0 710.306 0 0 -710.306
0 0 -2702.76 0 0 2702.76 0 0 59365.8 0 0 -59365.8 0 0 28360 0 0 -28360 0 0 30550.2 0 0 -30550.2 0 0 1353.37 0 0 -1353.37 0 0 1010.13 0 0 -1010.13
0 0 -2675.67 0 0 2675.67 0 0 58734.2 0 0 -58734.2 0 0 28581 0 0 -28581 0 0 30733.7 0 0 -30733.7 0 0 1696.91 0 0 -1696.91 0 0 1360.59 0 0 -1360.59
0 0 -2625.7 0 0 2625.7 0 0 57992.1 0 0 -57992.1 0 0 28662 0 0 -28662 0 0 30744.6 0 0 -30744.6 0 0 2091.76 0 0 -2091.76 0 0 1757.27 0 0 -1757.27
0 0 -2551.97 0 0 2551.97 0 0 57133.4 0 0 -57133.4 0 0 28608.2 0 0 -28608.2 0 0 30600.1 0 0 -30600.1 0 0 2526.42 0 0 -2526.42 0 0 2197.25 0 0 -2197.25
0 0 -2465.02 0 0 2465.02 0 0 56142.1 0 0 -56142.1 0 0 28422.1 0 0 -28422.1 0 0 30316.9 0 0 -30316.9 0 0 2990.66 0 0 -2990.66 0 0 2674.21 0 0 -2674.21
0 0 -2367.58 0 0 2367.58 0 0 55007 0 0 -55007 0 0 28119.6 0 0 -28119.6 0 0 29910.6 0 0 -29910.6 0 0 3478.31 0 0 -3478.31 0 0 3178.91 0 0 -3178.91
0 0 -2255.16 0 0 2255.16 0 0 53728.7 0 0 -53728.7 0 0 27725.1 0 0 -27725.1 0 0 29395.6 0 0 -29395.6 0 0 3983.84 0 0 -3983.84 0 0 3700.51 0 0 -3700.51
0 0 -2130.35 0 0 2130.35 0 0 52318.2 0 0 -52318.2 0 0 27257.2 0 0 -27257.2 0 0 28787.7 0 0 -28787.7 0 0 4498.05 0 0 -4498.05 0 0 4229.04 0 0 -4229.04
0 0 -2000.14 0 0 2000.14 0 0 50799.4 0 0 -50799.4 0 0 26725.5 0 0 -26725.5 0 0 28104.2 0 0 -28104.2 0 0 5008.58 0 0 -5008.58 0 0 4755.04 0 0 -4755.04
0 0 -1868.82 0 0 1868.82 0 0 49197.4 0 0 -49197.4 0 0 26139.2 0 0 -26139.2 0 0 27364 0 0 -27364 0 0 5503.54 0 0 -5503.54 0 0 5268.73 0 0 -5268.73
0 0 -1737.69 0 0 1737.69 0 0 47536.9 0 0 -47536.9 0 0 25513.8 0 0 -25513.8 0 0 26583.4 0 0 -26583.4 0 0 5973.83 0 0 -5973.83 0 0 5759.54 0 0 -5759.54
0 0 -1608.29 0 0 1608.29 0 0 45837.8 0 0 -45837.8 0 0 24867.4 0 0 -24867.4 0 0 25778.2 0 0 -25778.2 0 0 6411.78 0 0 -6411.78 0 0 6216.84 0 0 -6216.84
0 0 -1483.9 0 0 1483.9 0 0 44115.1 0 0 -44115.1 0 0 24206.3 0 0 -24206.3 0 0 24963.4 0 0 -24963.4 0 0 6698.98 0 0 -6698.98 0 0 6609.68 0 0 -6609.68
0 0 -1365.25 0 0 1365.25 0 0 42392.6 0 0 -42392.6 0 0 23436.5 0 0 -23436.5 0 0 24096.5 0 0 -24096.5 0 0 6712.79 0 0 -6712.79 0 0 6824.06 0 0 -6824.06
0 0 -1275.54 0 0 1275.54 0 0 40677.6 0 0 -40677.6 0 0 22736.3 0 0 -22736.3 0 0 23226.2 0 0 -23226.2 0 0 6655.31 0 0 -6655.31 0 0 6841.32 0 0 -6841.32
0 0 -1185.28 0 0 1185.28 0 0 38979.4 0 0 -38979.4 0 0 22066.1 0 0 -22066.1 0 0 22403.3 0 0 -22403.3 0 0 6599.06 0 0 -6599.06 0 0 6834.55 0 0 -6834.55
0 0 -1093.12 0 0 1093.12 0 0 37299.6 0 0 -37299.6 0 0 21457.2 0 0 -21457.2 0 0 21654.1 0 0 -21654.1 0 0 6583.14 0 0 -6583.14 0 0 6845.71 0 0 -6845.71
0 0 -1021.35 0 0 1021.35 0 0 35652.1 0 0 -35652.1 0 0 20907.6 0 0 -20907.6 0 0 20976.7 0 0 -20976.7 0 0 6601.65 0 0 -6601.65 0 0 6825.95 0 0 -6825.95
0 0 -964.896 0 0 964.896 0 0 34037.2 0 0 -34037.2 0 0 20432.7 0 0 -20432.7 0 0 20372.5 0 0 -20372.5 0 0 6621.62 0 0 -6621.62 0 0 6815.7 0 0 -6815.7
0 0 -916.735 0 0 916.735 0 0 32460 0 0 -32460 0 0 20019.4 0 0 -20019.4 0 0 19833.8 0 0 -19833.8 0 0 6577.21 0 0 -6577.21 0 0 6784.23 0 0 -6784.23
0 0 -881.851 0 0 881.851 0 0 30927.2 0 0 -30927.2 0 0 19647.8 0 0 -19647.8 0 0 19343.8 0 0 -19343.8 0 0 6452.6 0 0 -6452.6 0 0 6681.88 0 0 -6681.88
0 0 -861.218 0 0 861.218 0 0 29442.3 0 0 -29442.3 0 0 19310.3 0 0 -19310.3 0 0 18899.8 0 0 -18899.8 0 0 6258.94 0 0 -6258.94 0 0 6509.92 0 0 -6509.92
0 0 -852.107 0 0 852.107 0 0 28006.6 0 0 -28006.6 0 0 19000 0 0 -19000 0 0 18491.4 0 0 -18491.4 0 0 6008.42 0 0 -6008.42 0 0 6263.7 0 0 -6263.7
0 0 -851.04 0 0 851.04 0 0 26621.8 0 0 -26621.8 0 0 18708 0 0 -18708 0 0 18106 0 0 -18106 0 0 5701.66 0 0 -5701.66 0 0 5950.08 0 0 -5950.08
0 0 -857.664 0 0 857.664 0 0 25288.4 0 0 -25288.4 0 0 18420.4 0 0 -18420.4 0 0 17729.7 0 0 -17729.7 0 0 5334.62 0 0 -5334.62 0 0 5579.2 0 0 -5579.2
0 0 -872.406 0 0 872.406 0 0 24006.1 0 0 -24006.1 0 0 18120.6 0 0 -18120.6 0 0 17348.1 0 0 -17348.1 0 0 4909.39 0 0 -4909.39 0 0 5159.56 0 0 -5159.56
0 0 -891.537 0 0 891.537 0 0 22776.9 0 0 -22776.9 0 0 17792.7 0 0 -17792.7 0 0 16943.9 0 0 -16943.9 0 0 4437.01 0 0 -4437.01 0 0 4696.13 0 0 -4696.13
0 0 -912.239 0 0 912.239 0 0 21599.8 0 0 -21599.8 0 0 17421.4 0 0 -17421.4 0 0 16500.9 0 0 -16500.9 0 0 3931.01 0 0 -3931.01 0 0 4193.42 0 0 -4193.42
0 0 -933.215 0 0 933.215 0 0 20475.2 0 0 -20475.2 0 0 16991.7 0 0 -16991.7 0 0 16002.1 0 0 -16002.1 0 0 3400.24 0 0 -3400.24 0 0 3658.84 0 0 -3658.84
0 0 -953.012 0 0 953.012 0 0 19399.5 0 0 -19399.5 0 0 16489.6 0 0 -16489.6 0 0 15433 0 0 -15433 0 0 2848.7 0 0 -2848.7 0 0 3102.39 0 0 -3102.39
0 0 -970.919 0 0 970.919 0 0 18362.7 0 0 -18362.7 0 0 15903.6 0 0 -15903.6 0 0 14782.2 0 0 -14782.2 0 0 2280.47 0 0 -2280.47 0 0 2533.82 0 0 -2533.82
0 0 -984.42 0 0 984.42 0 0 17351.6 0 0 -17351.6 0 0 15227.1 0 0 -15227.1 0 0 14040.3 0 0 -14040.3 0 0 1703.23 0 0 -1703.23 0 0 1960.5 0 0 -1960.5
0 0 -991.932 0 0 991.932 0 0 16342.5 0 0 -16342.5 0 0 14457.2 0 0 -14457.2 0 0 13202.9 0 0 -13202.9 0 0 1126.83 0 0 -1126.83 0 0 1387.95 0 0 -1387.95
0 0 -992.47 0 0 992.47 0 0 15309.3 0 0 -15309.3 0 0 13594.7 0 0 -13594.7 0 0 12268.2 0 0 -12268.2 0 0 559.377 0 0 -559.377 0 0 821.704 0 0 -821.704
0 0 -983.682 0 0 983.682 0 0 14228 0 0 -14228 0 0 12643 0 0 -12643 0 0 11237.1 0 0 -11237.1 0 0 5.6118 0 0 -5.6118 0 0 268.138 0 0 -268.138
0 0 -971.736 0 0 971.736 0 0 13168.2 0 0 -13168.2 0 0 11638 0 0 -11638 0 0 10114.6 0 0 -10114.6 0 0 -415.579 0 0 415.579 0 0 -178.267 0 0 178.267
0 0 -935.951 0 0 935.951 0 0 12026.7 0 0 -12026.7 0 0 10559 0 0 -10559 0 0 8932.26 0 0 -8932.26 0 0 -799.916 0 0 799.916 0 0 -570.25 0 0 570.25
0 0 -895.443 0 0 895.443 0 0 10740.5 0 0 -10740.5 0 0 9408.3 0 0 -9408.3 0 0 7659.92 0 0 -7659.92 0 0 -1160.61 0 0 1160.61 0 0 -965.085 0 0 965.085
0 0 -847.735 0 0 847.735 0 0 9319.79 0 0 -9319.79 0 0 8196 0 0 -8196 0 0 6314.09 0 0 -6314.09 0 0 -1504.91 0 0 1504.91 0 0 -1330.1 0 0 1330.1
0 0 -789.182 0 0 789.182 0 0 7782.72 0 0 -7782.72 0 0 6930.23 0 0 -6930.23 0 0 4898.85 0 0 -4898.85 0 0 -1835.23 0 0 1835.23 0 0 -1665.3 0 0 1665.3
0 0 -718.828 0 0 718.828 0 0 6124.47 0 0 -6124.47 0 0 5614.49 0 0 -5614.49 0 0 3422.43 0 0 -3422.43 0 0 -2145.83 0 0 2145.83 0 0 -1971.66 0 0 1971.66
0 0 -640.316 0 0 640.316 0 0 4350.49 0 0 -4350.49 0 0 4254.46 0 0 -4254.46 0 0 1893.08 0 0 -1893.08 0 0 -2429.66 0 0 2429.66 0 0 -2254.44 0 0 2254.44
0 0 -555.845 0 0 555.845 0 0 2473.34 0 0 -2473.34 0 0 2860 0 0 -2860 0 0 321.171 0 0 -321.171 0 0 -2685.27 0 0 2685.27 0 0 -2515.49 0 0 2515.49
0 0 -1577.68 0 0 1577.68 0 0 306.151 0 0 -306.151 0 0 1409.55 0 0 -1409.55 0 0 -1341.73 0 0 1341.73 0 0 -2916.86 0 0 2916.86 0 0 -2750.3 0 0 2750.3
0 0 -3650.22 0 0 3650.22 0 0 -2180.12 0 0 2180.12 0 0 -337.563 0 0 337.563 0 0 -3113.62 0 0 3113.62 0 0 -3109.72 0 0 3109.72 0 0 -2954.94 0 0 2954.94
0 0 -5997.74 0 0 5997.74 0 0 -4565.79 0 0 4565.79 0 0 -2082.66 0 0 2082.66 0 0 -4758.39 0 0 4758.39 0 0 -3291.88 0 0 3291.88 0 0 -3143.79 0 0 3143.79
0 0 -8129.97 0 0 8129.97 0 0 -7147.81 0 0 7147.81 0 0 -3712.38 0 0 3712.38 0 0 -6397.34 0 0 6397.34 0 0 -3459.95 0 0 3459.95 0 0 -3308.13 0 0 3308.13
0 0 -10297.2 0 0 10297.2 0 0 -9787.21 0 0 9787.21 0 0 -5307.89 0 0 5307.89 0 0 -7998.98 0 0 7998.98 0 0 -3606.28 0 0 3606.28 0 0 -3458.88 0 0 3458.88
0 0 -12655.6 0 0 12655.6 0 0 -12388.8 0 0 12388.8 0 0 -6911.43 0 0 6911.43 0 0 -9558.38 0 0 9558.38 0 0 -3733.65 0 0 3733.65 0 0 -3590.08 0 0 3590.08
0 0 -15011.1 0 0 15011.1 0 0 -15008.2 0 0 15008.2 0 0 -8467.07 0 0 8467.07 0 0 -11061.8 0 0 11061.8 0 0 -3849.46 0 0 3849.46 0 0 -3712.53 0 0 3712.53
0 0 -17257.7 0 0 17257.7 0 0 -17636.5 0 0 17636.5 0 0 -9932.21 0 0 9932.21 0 0 -12499.5 0 0 12499.5 0 0 -3958.41 0 0 3958.41 0 0 -3824.28 0 0 3824.28
0 0 -19481 0 0 19481 0 0 -20198.4 0 0 20198.4 0 0 -11325.3 0 0 11325.3 0 0 -13870.1 0 0 13870.1 0 0 -4059.6 0 0 4059.6 0 0 -3926.85 0 0 3926.85
0 0 -21685.5 0 0 21685.5 0 0 -22662.6 0 0 22662.6 0 0 -12651.6 0 0 12651.6 0 0 -15167.4 0 0 15167.4 0 0 -4152.84 0 0 4152.84 0 0 -4021.82 0 0 4021.82
0 0 -23776.9 0 0 23776.9 0 0 -25023.5 0 0 25023.5 0 0 -13887.7 0 0 13887.7 0 0 -16380.1 0 0 16380.1 0 0 -4240.7 0 0 4240.7 0 0 -4111.46 0 0 4111.46
0 0 -25722.3 0 0 25722.3 0 0 -27249.6 0 0 27249.6 0 0 -15023.2 0 0 15023.2 0 0 -17501.4 0 0 17501.4 0 0 -4325.71 0 0 4325.71 0 0 -4198.46 0 0 4198.46
0 0 -27541.9 0 0 27541.9 0 0 -29309.4 0 0 29309.4 0 0 -16061.4 0 0 16061.4 0 0 -18527.1 0 0 18527.1 0 0 -4409.7 0 0 4409.7 0 0 -4284.62 0 0 4284.62
0 0 -29218.8 0 0 29218.8 0 0 -31185.9 0 0 31185.9 0 0 -16997.4 0 0 16997.4 0 0 -19452.6 0 0 19452.6 0 0 -4494.19 0 0 4494.19 0 0 -4371.21 0 0 4371.21
0 0 -30716.9 0 0 30716.9 0 0 -32869.1 0 0 32869.1 0 0 -17822.1 0 0 17822.1 0 0 -20272.7 0 0 20272.7 0 0 -4579.97 0 0 4579.97 0 0 -4459.06 0 0 4459.06
0 0 -32033.4 0 0 32033.4 0 0 -34351.7 0 0 34351.7 0 0 -18533.6 0 0 18533.6 0 0 -20983.2 0 0 20983.2 0 0 -4666.96 0 0 4666.96 0 0 -4548.9 0 0 4548.9
0 0 -33180.7 0 0 33180.7 0 0 -35627.4 0 0 35627.4 0 0 -19132 0 0 19132 0 0 -21583.3 0 0 21583.3 0 0 -4755.19 0 0 4755.19 0 0 -4641.15 0 0 4641.15
0 0 -34160 0 0 34160 0 0 -36703.8 0 0 36703.8 0 0 -19613.2 0 0 19613.2 0 0 -22071.1 0 0 22071.1 0 0 -4845.35 0 0 4845.35 0 0 -4735.81 0 0 4735.81
0 0 -34976.1 0 0 34976.1 0 0 -37594.1 0 0 37594.1 0 0 -19973.8 0 0 19973.8 0 0 -22445.1 0 0 22445.1 0 0 -4937.88 0 0 4937.88 0 0 -4832.58 0 0 4832.58
0 0 -35646.6 0 0 35646.6 0 0 -38312 0 0 38312 0 0 -20214.9 0 0 20214.9 0 0 -22705.5 0 0 22705.5 0 0 -5032.2 0 0 5032.2 0 0 -4930.96 0 0 4930.96
0 0 -36191.8 0 0 36191.8 0 0 -38875 0 0 38875 0 0 -20338 0 0 20338 0 0 -22843.9 0 0 22843.9 0 0 -5126.93 0 0 5126.93 0 0 -5030.62 0 0 5030.62
0 0 -36626.4 0 0 36626.4 0 0 -39301 0 0 39301 0 0 -20343.4 0 0 20343.4 0 0 -22862.4 0 0 22862.4 0 0 -5220.59 0 0 5220.59 0 0 -5130.18 0 0 5130.18
0 0 -36967.3 0 0 36967.3 0 0 -39611.3 0 0 39611.3 0 0 -20235.8 0 0 20235.8 0 0 -22765.6 0 0 22765.6 0 0 -5311.76 0 0 5311.76 0 0 -5228.04 0 0 5228.04
0 0 -37237.5 0 0 37237.5 0 0 -39831.4 0 0 39831.4 0 0 -20022.8 0 0 20022.8 0 0 -22561.4 0 0 22561.4 0 0 -5398.97 0 0 5398.97 0 0 -5321.85 0 0 5321.85
0 0 -37460.8 0 0 37460.8 0 0 -39985.8 0 0 39985.8 0 0 -19714.3 0 0 19714.3 0 0 -22259.7 0 0 22259.7 0 0 -5480.24 0 0 5480.24 0 0 -5409.29 0 0 5409.29
0 0 -37659.4 0 0 37659.4 0 0 -40103.7 0 0 40103.7 0 0 -19320.6 0 0 19320.6 0 0 -21870.9 0 0 21870.9 0 0 -5553 0 0 5553 0 0 -5487.89 0 0 5487.89
0 0 -37855.3 0 0 37855.3 0 0 -40210.6 0 0 40210.6 0 0 -18853.3 0 0 18853.3 0 0 -21409 0 0 21409 0 0 -5614.48 0 0 5614.48 0 0 -5554.96 0 0 5554.96
0 0 -38067.5 0 0 38067.5 0 0 -40329.7 0 0 40329.7 0 0 -18326.8 0 0 18326.8 0 0 -20888.7 0 0 20888.7 0 0 -5662.09 0 0 5662.09 0 0 -5607.65 0 0 5607.65
0 0 -38310.3 0 0 38310.3 0 0 -40479.8 0 0 40479.8 0 0 -17757.4 0 0 17757.4 0 0 -20326 0 0 20326 0 0 -5693.45 0 0 5693.45 0 0 -5642.99 0 0 5642.99
0 0 -38591.3 0 0 38591.3 0 0 -40672.1 0 0 40672.1 0 0 -17162.3 0 0 17162.3 0 0 -19739.1 0 0 19739.1 0 0 -5706.21 0 0 5706.21 0 0 -5658.17 0 0 5658.17
0 0 -38915 0 0 38915 0 0 -40917.1 0 0 40917.1 0 0 -16559.6 0 0 16559.6 0 0 -19145.2 0 0 19145.2 0 0 -5695.37 0 0 5695.37 0 0 -5648.94 0 0 5648.94
0 0 -39284.8 0 0 39284.8 0 0 -41220.2 0 0 41220.2 0 0 -15964.1 0 0 15964.1 0 0 -18560.4 0 0 18560.4 0 0 -5653.12 0 0 5653.12 0 0 -5606.53 0 0 5606.53
0 0 -39701.7 0 0 39701.7 0 0 -41586.1 0 0 41586.1 0 0 -15393.2 0 0 15393.2 0 0 -18002.2 0 0 18002.2 0 0 -5575.94 0 0 5575.94 0 0 -5529.38 0 0 5529.38
0 0 -40168.1 0 0 40168.1 0 0 -42021.7 0 0 42021.7 0 0 -14862.4 0 0 14862.4 0 0 -17484.8 0 0 17484.8 0 0 -5462.26 0 0 5462.26 0 0 -5415.65 0 0 5415.65
0 0 -40684.5 0 0 40684.5 0 0 -42527.8 0 0 42527.8 0 0 -14385 0 0 14385 0 0 -17023 0 0 17023 0 0 -5311.59 0 0 5311.59 0 0 -5264.2 0 0 5264.2
0 0 -41249.8 0 0 41249.8 0 0 -43106.7 0 0 43106.7 0 0 -13972.6 0 0 13972.6 0 0 -16627.7 0 0 16627.7 0 0 -5124.27 0 0 5124.27 0 0 -5074.85 0 0 5074.85
0 0 -41862.1 0 0 41862.1 0 0 -43757.3 0 0 43757.3 0 0 -13634.5 0 0 13634.5 0 0 -16308.6 0 0 16308.6 0 0 -4901.22 0 0 4901.22 0 0 -4848.55 0 0 4848.55
0 0 -42517.1 0 0 42517.1 0 0 -44474.5 0 0 44474.5 0 0 -13377.7 0 0 13377.7 0 0 -16072.5 0 0 16072.5 0 0 -4644.06 0 0 4644.06 0 0 -4587.35 0 0 4587.35
0 0 -43211.4 0 0 43211.4 0 0 -45256.4 0 0 45256.4 0 0 -13206.3 0 0 13206.3 0 0 -15922.6 0 0 15922.6 0 0 -4355.44 0 0 4355.44 0 0 -4294.22 0 0 4294.22
0 0 -43943.9 0 0 43943.9 0 0 -46098.9 0 0 46098.9 0 0 -13120.7 0 0 13120.7 0 0 -15860.3 0 0 15860.3 0 0 -4039.19 0 0 4039.19 0 0 -3972.93 0 0 3972.93
0 0 -44715.4 0 0 44715.4 0 0 -47002.4 0 0 47002.4 0 0 -13118.6 0 0 13118.6 0 0 -15882.9 0 0 15882.9 0 0 -3700.15 0 0 3700.15 0 0 -3628.04 0 0 3628.04
0 0 -45529.3 0 0 45529.3 0 0 -47968 0 0 47968 0 0 -13194.8 0 0 13194.8 0 0 -15985 0 0 15985 0 0 -3343.8 0 0 3343.8 0 0 -3265 0 0 3265
0 0 -46387.5 0 0 46387.5 0 0 -48994.1 0 0 48994.1 0 0 -13341.8 0 0 13341.8 0 0 -16160.1 0 0 16160.1 0 0 -2976.09 0 0 2976.09 0 0 -2889.97 0 0 2889.97
0 0 -47288.4 0 0 47288.4 0 0 -50077.7 0 0 50077.7 0 0 -13551.4 0 0 13551.4 0 0 -16399 0 0 16399 0 0 -2603.33 0 0 2603.33 0 0 -2509.62 0 0 2509.62
0 0 -48223.4 0 0 48223.4 0 0 -51204.6 0 0 51204.6 0 0 -13814.8 0 0 13814.8 0 0 -16693.1 0 0 16693.1 0 0 -2232.27 0 0 2232.27 0 0 -2130.84 0 0 2130.84
0 0 -49175.5 0 0 49175.5 0 0 -52355.2 0 0 52355.2 0 0 -14123.4 0 0 14123.4 0 0 -17033.3 0 0 17033.3 0 0 -1869.84 0 0 1869.84 0 0 -1760.63 0 0 1760.63
0 0 -50120.3 0 0 50120.3 0 0 -53477.3 0 0 53477.3 0 0 -14463.4 0 0 14463.4 0 0 -17342.6 0 0 17342.6 0 0 -1523.39 0 0 1523.39 0 0 -1409.28 0 0 1409.28
0 0 -51023.1 0 0 51023.1 0 0 -54573.2 0 0 54573.2 0 0 -14810.7 0 0 14810.7 0 0 -17659.1 0 0 17659.1 0 0 -1200.75 0 0 1200.75 0 0 -1084.23 0 0 1084.23
0 0 -51867.6 0 0 51867.6 0 0 -55581 0 0 55581 0 0 -15180.5 0 0 15180.5 0 0 -17987.4 0 0 17987.4 0 0 -905.719 0 0 905.719 0 0 -786.759 0 0 786.759
0 0 -52541.3 0 0 52541.3 0 0 -55789.3 0 0 55789.3 0 0 -15537.9 0 0 15537.9 0 0 -18259.7 0 0 18259.7 0 0 -648.049 0 0 648.049 0 0 -529.419 0 0 529.419
0 0 -53122.8 0 0 53122.8 0 0 -56061.8 0 0 56061.8 0 0 -15902.2 0 0 15902.2 0 0 -18581.3 0 0 18581.3 0 0 -429.374 0 0 429.374 0 0 -308.486 0 0 308.486
0 0 -53603.2 0 0 53603.2 0 0 -56293.9 0 0 56293.9 0 0 -16284 0 0 16284 0 0 -18895.4 0 0 18895.4 0 0 -257.868 0 0 257.868 0 0 -144.107 0 0 144.107
0 0 -53936.4 0 0 53936.4 0 0 -56413.5 0 0 56413.5 0 0 -16664.7 0 0 16664.7 0 0 -19235.3 0 0 19235.3 0 0 -148.508 0 0 148.508 0 0 -41.1833 0 0 41.1833
0 0 -54104.2 0 0 54104.2 0 0 -56484.9 0 0 56484.9 0 0 -17042 0 0 17042 0 0 -19571.2 0 0 19571.2 0 0 -87.8311 0 0 87.8311 0 0 23.8751 0 0 -23.8751
0 0 -54066.5 0 0 54066.5 0 0 -56431.5 0 0 56431.5 0 0 -17398.4 0 0 17398.4 0 0 -19906.5 0 0 19906.5 0 0 -68.456 0 0 68.456 0 0 47.7783 0 0 -47.7783
0 0 -53759 0 0 53759 0 0 -56097.6 0 0 56097.6 0 0 -17721.2 0 0 17721.2 0 0 -20214.1 0 0 20214.1 0 0 -98.2522 0 0 98.2522 0 0 21.0122 0 0 -21.0122
0 0 -53153.4 0 0 53153.4 0 0 -55467.1 0 0 55467.1 0 0 -18000.6 0 0 18000.6 0 0 -20490.8 0 0 20490.8 0 0 -182.641 0 0 182.641 0 0 -65.0949 0 0 65.0949
0 0 -52260.1 0 0 52260.1 0 0 -54540.1 0 0 54540.1 0 0 -18224.7 0 0 18224.7 0 0 -20717.3 0 0 20717.3 0 0 -317.82 0 0 317.82 0 0 -207.636 0 0 207.636
0 0 -51095.5 0 0 51095.5 0 0 -53332.2 0 0 53332.2 0 0 -18381.2 0 0 18381.2 0 0 -20873.5 0 0 20873.5 0 0 -503.859 0 0 503.859 0 0 -397.715 0 0 397.715
0 0 -49679.4 0 0 49679.4 0 0 -51863.7 0 0 51863.7 0 0 -18462.4 0 0 18462.4 0 0 -20952.3 0 0 20952.3 0 0 -741.737 0 0 741.737 0 0 -638.964 0 0 638.964
0 0 -48035.3 0 0 48035.3 0 0 -50160.4 0 0 50160.4 0 0 -18461.5 0 0 18461.5 0 0 -20946.7 0 0 20946.7 0 0 -1027.46 0 0 1027.46 0 0 -929.281 0 0 929.281
0 0 -46191.7 0 0 46191.7 0 0 -48253.2 0 0 48253.2 0 0 -18374.2 0 0 18374.2 0 0 -20851.7 0 0 20851.7 0 0 -1356.7 0 0 1356.7 0 0 -1265.93 0 0 1265.93
0 0 -44180.5 0 0 44180.5 0 0 -46171.7 0 0 46171.7 0 0 -18198.2 0 0 18198.2 0 0 -20664.7 0 0 20664.7 0 0 -1725.01 0 0 1725.01 0 0 -1644.09 0 0 1644.09
0 0 -42034.9 0 0 42034.9 0 0 -43952.8 0 0 43952.8 0 0 -17932.7 0 0 17932.7 0 0 -20385.2 0 0 20385.2 0 0 -2127.22 0 0 2127.22 0 0 -2057.07 0 0 2057.07
0 0 -39793.3 0 0 39793.3 0 0 -41637.3 0 0 41637.3 0 0 -17579.4 0 0 17579.4 0 0 -20015.1 0 0 20015.1 0 0 -2556.75 0 0 2556.75 0 0 -2497.59 0 0 2497.59
0 0 -37497.7 0 0 37497.7 0 0 -39265.4 0 0 39265.4 0 0 -17142.6 0 0 17142.6 0 0 -19559.5 0 0 19559.5 0 0 -3005.7 0 0 3005.7 0 0 -2958.08 0 0 2958.08
0 0 -35188.2 0 0 35188.2 0 0 -36881.3 0 0 36881.3 0 0 -16629.2 0 0 16629.2 0 0 -19024.8 0 0 19024.8 0 0 -3465.58 0 0 3465.58 0 0 -3430.52 0 0 3430.52
0 0 -32899.6 0 0 32899.6 0 0 -34519.8 0 0 34519.8 0 0 -16048.4 0 0 16048.4 0 0 -18421.4 0 0 18421.4 0 0 -3927.73 0 0 3927.73 0 0 -3906.12 0 0 3906.12
0 0 -30658.5 0 0 30658.5 0 0 -32207.9 0 0 32207.9 0 0 -15412.6 0 0 15412.6 0 0 -17762 0 0 17762 0 0 -4383.43 0 0 4383.43 0 0 -4375.45 0 0 4375.45
0 0 -28485.1 0 0 28485.1 0 0 -29967.8 0 0 29967.8 0 0 -14736.2 0 0 14736.2 0 0 -17061.2 0 0 17061.2 0 0 -4823.66 0 0 4823.66 0 0 -4828.87 0 0 4828.87
0 0 -26394.9 0 0 26394.9 0 0 -27813.4 0 0 27813.4 0 0 -14035 0 0 14035 0 0 -16336.2 0 0 16336.2 0 0 -5239.19 0 0 5239.19 0 0 -5256.91 0 0 5256.91
0 0 -24397.4 0 0 24397.4 0 0 -25756 0 0 25756 0 0 -13325.8 0 0 13325.8 0 0 -15603.5 0 0 15603.5 0 0 -5620.93 0 0 5620.93 0 0 -5650.5 0 0 5650.5
0 0 -22497.2 0 0 22497.2 0 0 -23798.9 0 0 23798.9 0 0 -12625.1 0 0 12625.1 0 0 -14880.8 0 0 14880.8 0 0 -5960.4 0 0 5960.4 0 0 -6001.06 0 0 6001.06
0 0 -20694.9 0 0 20694.9 0 0 -21942.6 0 0 21942.6 0 0 -11948.9 0 0 11948.9 0 0 -14184.9 0 0 14184.9 0 0 -6250.05 0 0 6250.05 0 0 -6300.61 0 0 6300.61
0 0 -18989.7 0 0 18989.7 0 0 -20187.4 0 0 20187.4 0 0 -11311.5 0 0 11311.5 0 0 -13529.7 0 0 13529.7 0 0 -6483.28 0 0 6483.28 0 0 -6542.12 0 0 6542.12
0 0 -17382.2 0 0 17382.2 0 0 -18531 0 0 18531 0 0 -10722.5 0 0 10722.5 0 0 -12925.1 0 0 12925.1 0 0 -6635.62 0 0 6635.62 0 0 -6686.51 0 0 6686.51
0 0 -15875.3 0 0 15875.3 0 0 -16984.5 0 0 16984.5 0 0 -10164.6 0 0 10164.6 0 0 -12338.5 0 0 12338.5 0 0 -6672.27 0 0 6672.27 0 0 -6634.99 0 0 6634.99
0 0 -14460.7 0 0 14460.7 0 0 -15525.9 0 0 15525.9 0 0 -9688.07 0 0 9688.07 0 0 -11860.7 0 0 11860.7 0 0 -6667.86 0 0 6667.86 0 0 -6632.3 0 0 6632.3
0 0 -13131.5 0 0 13131.5 0 0 -14154 0 0 14154 0 0 -9298.17 0 0 9298.17 0 0 -11463.7 0 0 11463.7 0 0 -6624.62 0 0 6624.62 0 0 -6605.07 0 0 6605.07
0 0 -11883.1 0 0 11883.1 0 0 -12868.9 0 0 12868.9 0 0 -8969.32 0 0 8969.32 0 0 -11140.4 0 0 11140.4 0 0 -6513.13 0 0 6513.13 0 0 -6492.61 0 0 6492.61
0 0 -10704.9 0 0 10704.9 0 0 -11651.4 0 0 11651.4 0 0 -8698.11 0 0 8698.11 0 0 -10876.4 0 0 10876.4 0 0 -6330.86 0 0 6330.86 0 0 -6304.82 0 0 6304.82
0 0 -9583.62 0 0 9583.62 0 0 -10488.8 0 0 10488.8 0 0 -8479.95 0 0 8479.95 0 0 -10657 0 0 10657 0 0 -6076.81 0 0 6076.81 0 0 -6042.9 0 0 6042.9
0 0 -8505.72 0 0 8505.72 0 0 -9375.15 0 0 9375.15 0 0 -8301.67 0 0 8301.67 0 0 -10478.8 0 0 10478.8 0 0 -5752.89 0 0 5752.89 0 0 -5716.09 0 0 5716.09
0 0 -7460.09 0 0 7460.09 0 0 -8289.92 0 0 8289.92 0 0 -8149.89 0 0 8149.89 0 0 -10326 0 0 10326 0 0 -5366.48 0 0 5366.48 0 0 -5328.95 0 0 5328.95
0 0 -6431.86 0 0 6431.86 0 0 -7221.81 0 0 7221.81 0 0 -8007.88 0 0 8007.88 0 0 -10183.1 0 0 10183.1 0 0 -4927.48 0 0 4927.48 0 0 -4886.6 0 0 4886.6
0 0 -5404.61 0 0 5404.61 0 0 -6154.97 0 0 6154.97 0 0 -7858.15 0 0 7858.15 0 0 -10032.4 0 0 10032.4 0 0 -4444.43 0 0 4444.43 0 0 -4396.02 0 0 4396.02
0 0 -4359.82 0 0 4359.82 0 0 -5070.37 0 0 5070.37 0 0 -7682.48 0 0 7682.48 0 0 -9854.9 0 0 9854.9 0 0 -3923.85 0 0 3923.85 0 0 -3866.52 0 0 3866.52
0 0 -3276.77 0 0 3276.77 0 0 -3946.75 0 0 3946.75 0 0 -7461.54 0 0 7461.54 0 0 -9631.73 0 0 9631.73 0 0 -3372.6 0 0 3372.6 0 0 -3308.21 0 0 3308.21
0 0 -2189.49 0 0 2189.49 0 0 -3038.53 0 0 3038.53 0 0 -7172.31 0 0 7172.31 0 0 -9307.86 0 0 9307.86 0 0 -2799.77 0 0 2799.77 0 0 -2733.61 0 0 2733.61
0 0 -1025.11 0 0 1025.11 0 0 -2113.28 0 0 2113.28 0 0 -6804 0 0 6804 0 0 -8918.17 0 0 8918.17 0 0 -2215.43 0 0 2215.43 0 0 -2145.39 0 0 2145.39
0 0 199.774 0 0 -199.774 0 0 -993.591 0 0 993.591 0 0 -6337.32 0 0 6337.32 0 0 -8419.74 0 0 8419.74 0 0 -1629.43 0 0 1629.43 0 0 -1556.78 0 0 1556.78
0 0 443.181 0 0 -443.181 0 0 -7.77613 0 0 7.77613 0 0 -5876.87 0 0 5876.87 0 0 -7886.53 0 0 7886.53 0 0 -1041 0 0 1041 0 0 -967.435 0 0 967.435
0 0 272.904 0 0 -272.904 0 0 1060.26 0 0 -1060.26 0 0 -5379.58 0 0 5379.58 0 0 -7242 0 0 7242 0 0 -461.296 0 0 461.296 0 0 -392.634 0 0 392.634
0 0 152.724 0 0 -152.724 0 0 2200.8 0 0 -2200.8 0 0 -4765.31 0 0 4765.31 0 0 -6497.05 0 0 6497.05 0 0 20.1838 0 0 -20.1838 0 0 114.371 0 0 -114.371
0 0 260.064 0 0 -260.064 0 0 3488.29 0 0 -3488.29 0 0 -4020.12 0 0 4020.12 0 0 -5637.88 0 0 5637.88 0 0 420.523 0 0 -420.523 0 0 479.521 0 0 -479.521
0 0 316.421 0 0 -316.421 0 0 4869.96 0 0 -4869.96 0 0 -3114.1 0 0 3114.1 0 0 -4610.78 0 0 4610.78 0 0 767.043 0 0 -767.043 0 0 851.467 0 0 -851.467
0 0 203.158 0 0 -203.158 0 0 6366.6 0 0 -6366.6 0 0 -2092.67 0 0 2092.67 0 0 -3438.41 0 0 3438.41 0 0 1089.85 0 0 -1089.85 0 0 1185.45 0 0 -1185.45
0 0 88.2583 0 0 -88.2583 0 0 7958.62 0 0 -7958.62 0 0 -920.618 0 0 920.618 0 0 -2098.71 0 0 2098.71 0 0 1391.28 0 0 -1391.28 0 0 1491.48 0 0 -1491.48
0 0 54.3713 0 0 -54.3713 0 0 9630.82 0 0 -9630.82 0 0 409.976 0 0 -409.976 0 0 -602.805 0 0 602.805 0 0 1667.64 0 0 -1667.64 0 0 1762.53 0 0 -1762.53
0 0 -0.301139 0 0 0.301139 0 0 11368.3 0 0 -11368.3 0 0 1873.54 0 0 -1873.54 0 0 1028.48 0 0 -1028.48 0 0 1912.44 0 0 -1912.44 0 0 1999.81 0 0 -1999.81
0 0 -130.279 0 0 130.279 0 0 13167.5 0 0 -13167.5 0 0 3454.09 0 0 -3454.09 0 0 2770.94 0 0 -2770.94 0 0 2123.35 0 0 -2123.35 0 0 2207.75 0 0 -2207.75
0 0 -272.736 0 0 272.736 0 0 14986 0 0 -14986 0 0 5142.2 0 0 -5142.2 0 0 4594.67 0 0 -4594.67 0 0 2302.69 0 0 -2302.69 0 0 2388.32 0 0 -2388.32
0 0 -392.997 0 0 392.997 0 0 16795.3 0 0 -16795.3 0 0 6897.33 0 0 -6897.33 0 0 6423.21 0 0 -6423.21 0 0 2458.07 0 0 -2458.07 0 0 2544.33 0 0 -2544.33
0 0 -513.654 0 0 513.654 0 0 18588.7 0 0 -18588.7 0 0 8722.99 0 0 -8722.99 0 0 8300.26 0 0 -8300.26 0 0 2594.03 0 0 -2594.03 0 0 2674.49 0 0 -2674.49
0 0 -667.214 0 0 667.214 0 0 20362 0 0 -20362 0 0 10588.8 0 0 -10588.8 0 0 10232.1 0 0 -10232.1 0 0 2711.81 0 0 -2711.81 0 0 2783.76 0 0 -2783.76
0 0 -829.406 0 0 829.406 0 0 22081.8 0 0 -22081.8 0 0 12477.6 0 0 -12477.6 0 0 12177.9 0 0 -12177.9 0 0 2812 0 0 -2812 0 0 2874.18 0 0 -2874.18
0 0 -975.268 0 0 975.268 0 0 23742.6 0 0 -23742.6 0 0 14363.5 0 0 -14363.5 0 0 14111.7 0 0 -14111.7 0 0 2896.09 0 0 -2896.09 0 0 2952.93 0 0 -2952.93
0 0 -1116.06 0 0 1116.06 0 0 25332.9 0 0 -25332.9 0 0 16210 0 0 -16210 0 0 16007.2 0 0 -16007.2 0 0 2970.73 0 0 -2970.73 0 0 3022.27 0 0 -3022.27
0 0 -1260.31 0 0 1260.31 0 0 26844.3 0 0 -26844.3 0 0 17986.2 0 0 -17986.2 0 0 17832.3 0 0 -17832.3 0 0 3043.07 0 0 -3043.07 0 0 3087.47 0 0 -3087.47
0 0 -1396.94 0 0 1396.94 0 0 28273.5 0 0 -28273.5 0 0 19666.9 0 0 -19666.9 0 0 19557.7 0 0 -19557.7 0 0 3117.63 0 0 -3117.63 0 0 3152.8 0 0 -3152.8
0 0 -1516.07 0 0 1516.07 0 0 29623.7 0 0 -29623.7 0 0 21224.8 0 0 -21224.8 0 0 21155.9 0 0 -21155.9 0 0 3196.09 0 0 -3196.09 0 0 3223.52 0 0 -3223.52
0 0 -1619.43 0 0 1619.43 0 0 30907.1 0 0 -30907.1 0 0 22628.8 0 0 -22628.8 0 0 22600.7 0 0 -22600.7 0 0 3280.1 0 0 -3280.1 0 0 3303.65 0 0 -3303.65
0 0 -1710.78 0 0 1710.78 0 0 32134.6 0 0 -32134.6 0 0 23850.9 0 0 -23850.9 0 0 23870.6 0 0 -23870.6 0 0 3372.99 0 0 -3372.99 0 0 3395.73 0 0 -3395.73
0 0 -1786.51 0 0 1786.51 0 0 33318.9 0 0 -33318.9 0 0 24872.4 0 0 -24872.4 0 0 24946.4 0 0 -24946.4 0 0 3478.62 0 0 -3478.62 0 0 3501.15 0 0 -3501.15
0 0 -1841.59 0 0 1841.59 0 0 34469.9 0 0 -34469.9 0 0 25680.9 0 0 -25680.9 0 0 25814.9 0 0 -25814.9 0 0 3599.15 0 0 -3599.15 0 0 3620.83 0 0 -3620.83
0 0 -1877.23 0 0 1877.23 0 0 35594.4 0 0 -35594.4 0 0 26268.8 0 0 -26268.8 0 0 26469.5 0 0 -26469.5 0 0 3734.19 0 0 -3734.19 0 0 3755.46 0 0 -3755.46
0 0 -1895.39 0 0 1895.39 0 0 36699.4 0 0 -36699.4 0 0 26633.4 0 0 -26633.4 0 0 26908.9 0 0 -26908.9 0 0 3881.83 0 0 -3881.83 0 0 3904.86 0 0 -3904.86
0 0 -1896.6 0 0 1896.6 0 0 37782.5 0 0 -37782.5 0 0 26778.3 0 0 -26778.3 0 0 27125.5 0 0 -27125.5 0 0 4040.14 0 0 -4040.14 0 0 4068.21 0 0 -4068.21
0 0 -1881.14 0 0 1881.14 0 0 38843.7 0 0 -38843.7 0 0 26714 0 0 -26714 0 0 27127.7 0 0 -27127.7 0 0 4207.33 0 0 -4207.33 0 0 4242.31 0 0 -4242.31
0 0 -1843.87 0 0 1843.87 0 0 39657.4 0 0 -39657.4 0 0 26464 0 0 -26464 0 0 26961.1 0 0 -26961.1 0 0 4380.62 0 0 -4380.62 0 0 4421.76 0 0 -4421.76
0 0 -1793.54 0 0 1793.54 0 0 40443.8 0 0 -40443.8 0 0 26058.8 0 0 -26058.8 0 0 26628.9 0 0 -26628.9 0 0 4555.74 0 0 -4555.74 0 0 4602.93 0 0 -4602.93
0 0 -1741.02 0 0 1741.02 0 0 41138 0 0 -41138 0 0 25509.5 0 0 -25509.5 0 0 26156.8 0 0 -26156.8 0 0 4727.83 0 0 -4727.83 0 0 4781.41 0 0 -4781.41
0 0 -1671.25 0 0 1671.25 0 0 41767.9 0 0 -41767.9 0 0 24851.2 0 0 -24851.2 0 0 25563.4 0 0 -25563.4 0 0 4891.21 0 0 -4891.21 0 0 4953.06 0 0 -4953.06
0 0 -1595.35 0 0 1595.35 0 0 42385.9 0 0 -42385.9 0 0 24107.5 0 0 -24107.5 0 0 24891.9 0 0 -24891.9 0 0 5040.87 0 0 -5040.87 0 0 5111.13 0 0 -5111.13
0 0 -1521.81 0 0 1521.81 0 0 42999 0 0 -42999 0 0 23309.1 0 0 -23309.1 0 0 24162.7 0 0 -24162.7 0 0 5172.78 0 0 -5172.78 0 0 5249.39 0 0 -5249.39
0 0 -1452.86 0 0 1452.86 0 0 43606.5 0 0 -43606.5 0 0 22487.5 0 0 -22487.5 0 0 23408.5 0 0 -23408.5 0 0 5281.86 0 0 -5281.86 0 0 5362.97 0 0 -5362.97
0 0 -1387.38 0 0 1387.38 0 0 44228.5 0 0 -44228.5 0 0 21672.5 0 0 -21672.5 0 0 22660.6 0 0 -22660.6 0 0 5362.93 0 0 -5362.93 0 0 5446.72 0 0 -5446.72
0 0 -1328.52 0 0 1328.52 0 0 44881.8 0 0 -44881.8 0 0 20891.1 0 0 -20891.1 0 0 21948.9 0 0 -21948.9 0 0 5411.22 0 0 -5411.22 0 0 5496.33 0 0 -5496.33
0 0 -1282.63 0 0 1282.63 0 0 45574.3 0 0 -45574.3 0 0 20168.5 0 0 -20168.5 0 0 21300.3 0 0 -21300.3 0 0 5423.28 0 0 -5423.28 0 0 5507.52 0 0 -5507.52
0 0 -1251.06 0 0 1251.06 0 0 46314.9 0 0 -46314.9 0 0 19526.8 0 0 -19526.8 0 0 20735.7 0 0 -20735.7 0 0 5386.09 0 0 -5386.09 0 0 5467.11 0 0 -5467.11
0 0 -1234.65 0 0 1234.65 0 0 47110 0 0 -47110 0 0 18984.6 0 0 -18984.6 0 0 20274.5 0 0 -20274.5 0 0 5292.45 0 0 -5292.45 0 0 5366.91 0 0 -5366.91
0 0 -1234.75 0 0 1234.75 0 0 47964.8 0 0 -47964.8 0 0 18558.6 0 0 -18558.6 0 0 19933 0 0 -19933 0 0 5139.39 0 0 -5139.39 0 0 5206.9 0 0 -5206.9
0 0 -1253.08 0 0 1253.08 0 0 48880.2 0 0 -48880.2 0 0 18260 0 0 -18260 0 0 19723.7 0 0 -19723.7 0 0 4926.88 0 0 -4926.88 0 0 4986.92 0 0 -4986.92
0 0 -1290.67 0 0 1290.67 0 0 49854.6 0 0 -49854.6 0 0 18096.2 0 0 -18096.2 0 0 19654.7 0 0 -19654.7 0 0 4657.3 0 0 -4657.3 0 0 4708.46 0 0 -4708.46
0 0 -1346.35 0 0 1346.35 0 0 50883.6 0 0 -50883.6 0 0 18071.3 0 0 -18071.3 0 0 19728.2 0 0 -19728.2 0 0 4334.53 0 0 -4334.53 0 0 4374.53 0 0 -4374.53
0 0 -1419.75 0 0 1419.75 0 0 51954.6 0 0 -51954.6 0 0 18185.4 0 0 -18185.4 0 0 19943.7 0 0 -19943.7 0 0 3963.27 0 0 -3963.27 0 0 3990.06 0 0 -3990.06
0 0 -1509.23 0 0 1509.23 0 0 53043.2 0 0 -53043.2 0 0 18434.2 0 0 -18434.2 0 0 20296.3 0 0 -20296.3 0 0 3549.13 0 0 -3549.13 0 0 3561.64 0 0 -3561.64
0 0 -1610.6 0 0 1610.6 0 0 54116.9 0 0 -54116.9 0 0 18810 0 0 -18810 0 0 20779.9 0 0 -20779.9 0 0 3099.21 0 0 -3099.21 0 0 3096.74 0 0 -3096.74
0 0 -1723.47 0 0 1723.47 0 0 55158.1 0 0 -55158.1 0 0 19298.2 0 0 -19298.2 0 0 21377.6 0 0 -21377.6 0 0 2622.58 0 0 -2622.58 0 0 2604.62 0 0 -2604.62
0 0 -1844.33 0 0 1844.33 0 0 56162.8 0 0 -56162.8 0 0 19879.7 0 0 -19879.7 0 0 22068.5 0 0 -22068.5 0 0 2129.48 0 0 -2129.48 0 0 2095.08 0 0 -2095.08
0 0 -1969.93 0 0 1969.93 0 0 57123.6 0 0 -57123.6 0 0 20531.5 0 0 -20531.5 0 0 22829 0 0 -22829 0 0 1630.6 0 0 -1630.6 0 0 1579.13 0 0 -1579.13
0 0 -2099.2 0 0 2099.2 0 0 58007.8 0 0 -58007.8 0 0 21208.8 0 0 -21208.8 0 0 23492.6 0 0 -23492.6 0 0 1138.57 0 0 -1138.57 0 0 1078.05 0 0 -1078.05
0 0 -2226.95 0 0 2226.95 0 0 58841 0 0 -58841 0 0 21893 0 0 -21893 0 0 24205.2 0 0 -24205.2 0 0 662.716 0 0 -662.716 0 0 589.518 0 0 -589.518
0 0 -2343.75 0 0 2343.75 0 0 59602.2 0 0 -59602.2 0 0 22572.9 0 0 -22572.9 0 0 24895 0 0 -24895 0 0 220.308 0 0 -220.308 0 0 137.525 0 0 -137.525
0 0 -2459.98 0 0 2459.98 0 0 60300.8 0 0 -60300.8 0 0 23247.4 0 0 -23247.4 0 0 25578.2 0 0 -25578.2 0 0 -127.181 0 0 127.181 0 0 -193.981 0 0 193.981
0 0 -2562.49 0 0 2562.49 0 0 60940.8 0 0 -60940.8 0 0 23881.6 0 0 -23881.6 0 0 26198.8 0 0 -26198.8 0 0 -411.588 0 0 411.588 0 0 -492.958 0 0 492.958
0 0 -2649.35 0 0 2649.35 0 0 61513.9 0 0 -61513.9 0 0 24433.9 0 0 -24433.9 0 0 26750.4 0 0 -26750.4 0 0 -648.873 0 0 648.873 0 0 -752.635 0 0 752.635
0 0 -2719.9 0 0 2719.9 0 0 62022.4 0 0 -62022.4 0 0 24887.6 0 0 -24887.6 0 0 27208.3 0 0 -27208.3 0 0 -841.323 0 0 841.323 0 0 -963.624 0 0 963.624
0 0 -2777.86 0 0 2777.86 0 0 62418.4 0 0 -62418.4 0 0 25230.4 0 0 -25230.4 0 0 27548.5 0 0 -27548.5 0 0 -989.061 0 0 989.061 0 0 -1119.39 0 0 1119.39
0 0 -2822.06 0 0 2822.06 0 0 62703.5 0 0 -62703.5 0 0 25390.9 0 0 -25390.9 0 0 27458.1 0 0 -27458.1 0 0 -1083.63 0 0 1083.63 0 0 -1199.06 0 0 1199.06
0 0 -2836.17 0 0 2836.17 0 0 62912.9 0 0 -62912.9 0 0 25437.8 0 0 -25437.8 0 0 27422.2 0 0 -27422.2 0 0 -1122.93 0 0 1122.93 0 0 -1241.2 0 0 1241.2
0 0 -2822.88 0 0 2822.88 0 0 63077.7 0 0 -63077.7 0 0 25420.4 0 0 -25420.4 0 0 27402.1 0 0 -27402.1 0 0 -1101.13 0 0 1101.13 0 0 -1217.22 0 0 1217.22
0 0 -2819.75 0 0 2819.75 0 0 63172.7 0 0 -63172.7 0 0 25306.7 0 0 -25306.7 0 0 27276.6 0 0 -27276.6 0 0 -1003.59 0 0 1003.59 0 0 -1120.68 0 0 1120.68
0 0 -2788.13 0 0 2788.13 0 0 63150.8 0 0 -63150.8 0 0 25100.1 0 0 -25100.1 0 0 27026 0 0 -27026 0 0 -840.396 0 0 840.396 0 0 -950.524 0 0 950.524
0 0 -2727.08 0 0 2727.08 0 0 63002.8 0 0 -63002.8 0 0 24790.1 0 0 -24790.1 0 0 26685.2 0 0 -26685.2 0 0 -616.478 0 0 616.478 0 0 -715.569 0 0 715.569
0 0 -2654.27 0 0 2654.27 0 0 62736.7 0 0 -62736.7 0 0 24393.8 0 0 -24393.8 0 0 26263.2 0 0 -26263.2 0 0 -333.209 0 0 333.209 0 0 -423.247 0 0 423.247
0 0 -2576.51 0 0 2576.51 0 0 62356.8 0 0 -62356.8 0 0 23944.6 0 0 -23944.6 0 0 25767.9 0 0 -25767.9 0 0 1.62516 0 0 -1.62516 0 0 -78.1583 0 0 78.1583
0 0 -2485.86 0 0 2485.86 0 0 61874.9 0 0 -61874.9 0 0 23452.9 0 0 -23452.9 0 0 25210.7 0 0 -25210.7 0 0 344.371 0 0 -344.371 0 0 286.276 0 0 -286.276
0 0 -2384.5 0 0 2384.5 0 0 61308.2 0 0 -61308.2 0 0 22937.3 0 0 -22937.3 0 0 24610.7 0 0 -24610.7 0 0 707.681 0 0 -707.681 0 0 657.546 0 0 -657.546
0 0 -2278.01 0 0 2278.01 0 0 60678.4 0 0 -60678.4 0 0 22409 0 0 -22409 0 0 24005.7 0 0 -24005.7 0 0 1089.48 0 0 -1089.48 0 0 1061.89 0 0 -1061.89
0 0 -2171.37 0 0 2171.37 0 0 60013.6 0 0 -60013.6 0 0 21887.5 0 0 -21887.5 0 0 23408 0 0 -23408 0 0 1488.26 0 0 -1488.26 0 0 1480.81 0 0 -1480.81
0 0 -2066.51 0 0 2066.51 0 0 59336.5 0 0 -59336.5 0 0 21397.2 0 0 -21397.2 0 0 22838.2 0 0 -22838.2 0 0 1898.62 0 0 -1898.62 0 0 1906.54 0 0 -1906.54
0 0 -1964.59 0 0 1964.59 0 0 58645.7 0 0 -58645.7 0 0 20957.9 0 0 -20957.9 0 0 22315.5 0 0 -22315.5 0 0 2310.49 0 0 -2310.49 0 0 2330.33 0 0 -2330.33
0 0 -1866.65 0 0 1866.65 0 0 57898.8 0 0 -57898.8 0 0 20587.1 0 0 -20587.1 0 0 21876.7 0 0 -21876.7 0 0 2712.01 0 0 -2712.01 0 0 2744.18 0 0 -2744.18
0 0 -1783.7 0 0 1783.7 0 0 57202.4 0 0 -57202.4 0 0 20292.1 0 0 -20292.1 0 0 21519.7 0 0 -21519.7 0 0 3095.06 0 0 -3095.06 0 0 3143.01 0 0 -3143.01
0 0 -1708.67 0 0 1708.67 0 0 56588.8 0 0 -56588.8 0 0 20091.2 0 0 -20091.2 0 0 21263.5 0 0 -21263.5 0 0 3454.89 0 0 -3454.89 0 0 3516.83 0 0 -3516.83
0 0 -1644.1 0 0 1644.1 0 0 56045 0 0 -56045 0 0 19996.6 0 0 -19996.6 0 0 21117.8 0 0 -21117.8 0 0 3787.5 0 0 -3787.5 0 0 3860.44 0 0 -3860.44
0 0 -1595.23 0 0 1595.23 0 0 55592 0 0 -55592 0 0 20015.2 0 0 -20015.2 0 0 21091.7 0 0 -21091.7 0 0 4087.8 0 0 -4087.8 0 0 4167.47 0 0 -4167.47
0 0 -1563.08 0 0 1563.08 0 0 55243.3 0 0 -55243.3 0 0 20149.5 0 0 -20149.5 0 0 21191.3 0 0 -21191.3 0 0 4349.64 0 0 -4349.64 0 0 4434.96 0 0 -4434.96
0 0 -1546.21 0 0 1546.21 0 0 54988.7 0 0 -54988.7 0 0 20400.5 0 0 -20400.5 0 0 21420.8 0 0 -21420.8 0 0 4568.77 0 0 -4568.77 0 0 4659.39 0 0 -4659.39
0 0 -1544.07 0 0 1544.07 0 0 54837.6 0 0 -54837.6 0 0 20765.4 0 0 -20765.4 0 0 21776.1 0 0 -21776.1 0 0 4743.77 0 0 -4743.77 0 0 4838.7 0 0 -4838.7
0 0 -1558.69 0 0 1558.69 0 0 54795.5 0 0 -54795.5 0 0 21237.9 0 0 -21237.9 0 0 22252.1 0 0 -22252.1 0 0 4875.08 0 0 -4875.08 0 0 4971.26 0 0 -4971.26
0 0 -1589.77 0 0 1589.77 0 0 54865.5 0 0 -54865.5 0 0 21808.9 0 0 -21808.9 0 0 22838.7 0 0 -22838.7 0 0 4963.29 0 0 -4963.29 0 0 5057.23 0 0 -5057.23
0 0 -1635.21 0 0 1635.21 0 0 55042.6 0 0 -55042.6 0 0 22466.7 0 0 -22466.7 0 0 23525.2 0 0 -23525.2 0 0 5008.89 0 0 -5008.89 0 0 5098.07 0 0 -5098.07
0 0 -1694.29 0 0 1694.29 0 0 55313.7 0 0 -55313.7 0 0 23199.3 0 0 -23199.3 0 0 24298.3 0 0 -24298.3 0 0 5011.53 0 0 -5011.53 0 0 5094.74 0 0 -5094.74
0 0 -1765.31 0 0 1765.31 0 0 55659.8 0 0 -55659.8 0 0 23992.7 0 0 -23992.7 0 0 25141 0 0 -25141 0 0 4971.31 0 0 -4971.31 0 0 5046.95 0 0 -5046.95
0 0 -1846.27 0 0 1846.27 0 0 56054.1 0 0 -56054.1 0 0 24834 0 0 -24834 0 0 26038.2 0 0 -26038.2 0 0 4892.18 0 0 -4892.18 0 0 4959.64 0 0 -4959.64
0 0 -1934.36 0 0 1934.36 0 0 56468.5 0 0 -56468.5 0 0 25708 0 0 -25708 0 0 26971.5 0 0 -26971.5 0 0 4779.48 0 0 -4779.48 0 0 4837.72 0 0 -4837.72
0 0 -2027.19 0 0 2027.19 0 0 56869.9 0 0 -56869.9 0 0 26598.4 0 0 -26598.4 0 0 27922.1 0 0 -27922.1 0 0 4638.95 0 0 -4638.95 0 0 4687.13 0 0 -4687.13
0 0 -2122.96 0 0 2122.96 0 0 57222.9 0 0 -57222.9 0 0 27488.2 0 0 -27488.2 0 0 28870.6 0 0 -28870.6 0 0 4476.56 0 0 -4476.56 0 0 4514.44 0 0 -4514.44
0 0 -2217.46 0 0 2217.46 0 0 57495.7 0 0 -57495.7 0 0 28359.9 0 0 -28359.9 0 0 29794.7 0 0 -29794.7 0 0 4298.65 0 0 -4298.65 0 0 4326.67 0 0 -4326.67
0 0 -2307.83 0 0 2307.83 0 0 57655.7 0 0 -57655.7 0 0 29194.4 0 0 -29194.4 0 0 30672.8 0 0 -30672.8 0 0 4111.96 0 0 -4111.96 0 0 4131.04 0 0 -4131.04
0 0 -2391.97 0 0 2391.97 0 0 57677.8 0 0 -57677.8 0 0 29971.1 0 0 -29971.1 0 0 31481.3 0 0 -31481.3 0 0 3923.42 0 0 -3923.42 0 0 3934.69 0 0 -3934.69
0 0 -2466.41 0 0 2466.41 0 0 57541.5 0 0 -57541.5 0 0 30668.6 0 0 -30668.6 0 0 32196.7 0 0 -32196.7 0 0 3739.87 0 0 -3739.87 0 0 3744.63 0 0 -3744.63
0 0 -2528.91 0 0 2528.91 0 0 57230.2 0 0 -57230.2 0 0 31265.6 0 0 -31265.6 0 0 32796.1 0 0 -32796.1 0 0 3567.73 0 0 -3567.73 0 0 3567.59 0 0 -3567.59
0 0 -2576.46 0 0 2576.46 0 0 56738.3 0 0 -56738.3 0 0 31740.9 0 0 -31740.9 0 0 33256.1 0 0 -33256.1 0 0 3412.84 0 0 -3412.84 0 0 3409.79 0 0 -3409.79
0 0 -2607.15 0 0 2607.15 0 0 56062.7 0 0 -56062.7 0 0 32074.2 0 0 -32074.2 0 0 33555.9 0 0 -33555.9 0 0 3280.33 0 0 -3280.33 0 0 3276.71 0 0 -3276.71
0 0 -2620.27 0 0 2620.27 0 0 55206.2 0 0 -55206.2 0 0 32247.3 0 0 -32247.3 0 0 33677 0 0 -33677 0 0 3174.49 0 0 -3174.49 0 0 3172.75 0 0 -3172.75
0 0 -2613.86 0 0 2613.86 0 0 54175.7 0 0 -54175.7 0 0 32245 0 0 -32245 0 0 33603.9 0 0 -33603.9 0 0 3098.55 0 0 -3098.55 0 0 3101.17 0 0 -3101.17
0 0 -2587.52 0 0 2587.52 0 0 52976.3 0 0 -52976.3 0 0 32056.5 0 0 -32056.5 0 0 33326.7 0 0 -33326.7 0 0 3054.44 0 0 -3054.44 0 0 3063.9 0 0 -3063.9
0 0 -2540.83 0 0 2540.83 0 0 51616.3 0 0 -51616.3 0 0 31675.9 0 0 -31675.9 0 0 32838.9 0 0 -32838.9 0 0 3042.68 0 0 -3042.68 0 0 3061.49 0 0 -3061.49
0 0 -2473.55 0 0 2473.55 0 0 50103.2 0 0 -50103.2 0 0 31101.8 0 0 -31101.8 0 0 32140 0 0 -32140 0 0 3062.37 0 0 -3062.37 0 0 3093.08 0 0 -3093.08
0 0 -2386.54 0 0 2386.54 0 0 48447.2 0 0 -48447.2 0 0 30337.3 0 0 -30337.3 0 0 31234.2 0 0 -31234.2 0 0 3111.29 0 0 -3111.29 0 0 3156.35 0 0 -3156.35
0 0 -2280.49 0 0 2280.49 0 0 46661.9 0 0 -46661.9 0 0 29390.1 0 0 -29390.1 0 0 30129.6 0 0 -30129.6 0 0 3185.95 0 0 -3185.95 0 0 3247.62 0 0 -3247.62
0 0 -2157.88 0 0 2157.88 0 0 44760.7 0 0 -44760.7 0 0 28271.3 0 0 -28271.3 0 0 28840 0 0 -28840 0 0 3281.69 0 0 -3281.69 0 0 3361.95 0 0 -3361.95
0 0 -2020.67 0 0 2020.67 0 0 42762.6 0 0 -42762.6 0 0 26996.3 0 0 -26996.3 0 0 27381.9 0 0 -27381.9 0 0 3392.74 0 0 -3392.74 0 0 3493.28 0 0 -3493.28
0 0 -1871.21 0 0 1871.21 0 0 40684.9 0 0 -40684.9 0 0 25583.9 0 0 -25583.9 0 0 25776.4 0 0 -25776.4 0 0 3512.37 0 0 -3512.37 0 0 3634.61 0 0 -3634.61
0 0 -1713.33 0 0 1713.33 0 0 38545.5 0 0 -38545.5 0 0 24055.8 0 0 -24055.8 0 0 24047.9 0 0 -24047.9 0 0 3633.15 0 0 -3633.15 0 0 3778.17 0 0 -3778.17
0 0 -1549.1 0 0 1549.1 0 0 36365.1 0 0 -36365.1 0 0 22436.7 0 0 -22436.7 0 0 22222.4 0 0 -22222.4 0 0 3747.15 0 0 -3747.15 0 0 3915.65 0 0 -3915.65
0 0 -1381.79 0 0 1381.79 0 0 34161.6 0 0 -34161.6 0 0 20752.1 0 0 -20752.1 0 0 20329 0 0 -20329 0 0 3846.21 0 0 -3846.21 0 0 4038.48 0 0 -4038.48
0 0 -1214.86 0 0 1214.86 0 0 31958.3 0 0 -31958.3 0 0 19028.4 0 0 -19028.4 0 0 18395.8 0 0 -18395.8 0 0 3922.21 0 0 -3922.21 0 0 4138.1 0 0 -4138.1
0 0 -1050.86 0 0 1050.86 0 0 29779.8 0 0 -29779.8 0 0 17291.3 0 0 -17291.3 0 0 16451.5 0 0 -16451.5 0 0 3967.28 0 0 -3967.28 0 0 4206.25 0 0 -4206.25
0 0 -894.089 0 0 894.089 0 0 27649.5 0 0 -27649.5 0 0 15565.4 0 0 -15565.4 0 0 14524.2 0 0 -14524.2 0 0 3974.06 0 0 -3974.06 0 0 4235.18 0 0 -4235.18
0 0 -747.426 0 0 747.426 0 0 25592 0 0 -25592 0 0 13874.9 0 0 -13874.9 0 0 12639.8 0 0 -12639.8 0 0 3935.89 0 0 -3935.89 0 0 4217.86 0 0 -4217.86
0 0 -613.44 0 0 613.44 0 0 23626 0 0 -23626 0 0 12242.3 0 0 -12242.3 0 0 10824.1 0 0 -10824.1 0 0 3847.02 0 0 -3847.02 0 0 4148.17 0 0 -4148.17
0 0 -494.827 0 0 494.827 0 0 21766.5 0 0 -21766.5 0 0 10689 0 0 -10689 0 0 9100.01 0 0 -9100.01 0 0 3702.73 0 0 -3702.73 0 0 4021.1 0 0 -4021.1
0 0 -392.094 0 0 392.094 0 0 20059.6 0 0 -20059.6 0 0 9253.89 0 0 -9253.89 0 0 7639.51 0 0 -7639.51 0 0 3497.79 0 0 -3497.79 0 0 3822.79 0 0 -3822.79
0 0 -307.622 0 0 307.622 0 0 18450.2 0 0 -18450.2 0 0 7946.93 0 0 -7946.93 0 0 6249.87 0 0 -6249.87 0 0 3231.63 0 0 -3231.63 0 0 3565.4 0 0 -3565.4
0 0 -249.665 0 0 249.665 0 0 16969.4 0 0 -16969.4 0 0 6761 0 0 -6761 0 0 4994 0 0 -4994 0 0 2905.62 0 0 -2905.62 0 0 3245.39 0 0 -3245.39
0 0 -201.966 0 0 201.966 0 0 15592.2 0 0 -15592.2 0 0 5703.37 0 0 -5703.37 0 0 3862.46 0 0 -3862.46 0 0 2518.72 0 0 -2518.72 0 0 2867.37 0 0 -2867.37
0 0 -174.284 0 0 174.284 0 0 14306.2 0 0 -14306.2 0 0 4776.43 0 0 -4776.43 0 0 2865.77 0 0 -2865.77 0 0 2075.47 0 0 -2075.47 0 0 2428.98 0 0 -2428.98
0 0 -167.917 0 0 167.917 0 0 13106.3 0 0 -13106.3 0 0 3989.74 0 0 -3989.74 0 0 2000.46 0 0 -2000.46 0 0 1580.18 0 0 -1580.18 0 0 1935.89 0 0 -1935.89
0 0 -179.991 0 0 179.991 0 0 11979.3 0 0 -11979.3 0 0 3349.59 0 0 -3349.59 0 0 1287.82 0 0 -1287.82 0 0 1037.59 0 0 -1037.59 0 0 1392.58 0 0 -1392.58
0 0 -206.253 0 0 206.253 0 0 10905.9 0 0 -10905.9 0 0 2850.17 0 0 -2850.17 0 0 721.211 0 0 -721.211 0 0 453.611 0 0 -453.611 0 0 807.287 0 0 -807.287
0 0 -246.008 0 0 246.008 0 0 9862.94 0 0 -9862.94 0 0 2478.6 0 0 -2478.6 0 0 291.874 0 0 -291.874 0 0 -168.82 0 0 168.82 0 0 187.765 0 0 -187.765
0 0 -301.111 0 0 301.111 0 0 8821.07 0 0 -8821.07 0 0 2272.25 0 0 -2272.25 0 0 13.1797 0 0 -13.1797 0 0 -643.615 0 0 643.615 0 0 -335.61 0 0 335.61
0 0 -353.263 0 0 353.263 0 0 7751.76 0 0 -7751.76 0 0 2160.73 0 0 -2160.73 0 0 -148.516 0 0 148.516 0 0 -1127.41 0 0 1127.41 0 0 -843.555 0 0 843.555
0 0 -417.045 0 0 417.045 0 0 6630.88 0 0 -6630.88 0 0 2130.55 0 0 -2130.55 0 0 -241.557 0 0 241.557 0 0 -1607.14 0 0 1607.14 0 0 -1370.99 0 0 1370.99
0 0 -483.739 0 0 483.739 0 0 5425.18 0 0 -5425.18 0 0 2162.29 0 0 -2162.29 0 0 -279.705 0 0 279.705 0 0 -2088.54 0 0 2088.54 0 0 -1880.44 0 0 1880.44
0 0 -559.19 0 0 559.19 0 0 4427.17 0 0 -4427.17 0 0 2223.09 0 0 -2223.09 0 0 -343.776 0 0 343.776 0 0 -2566.12 0 0 2566.12 0 0 -2367.59 0 0 2367.59
0 0 -622.997 0 0 622.997 0 0 3303.68 0 0 -3303.68 0 0 2286.25 0 0 -2286.25 0 0 -386.899 0 0 386.899 0 0 -3025 0 0 3025 0 0 -2832.85 0 0 2832.85
0 0 -671.637 0 0 671.637 0 0 2108.68 0 0 -2108.68 0 0 2340.46 0 0 -2340.46 0 0 -474.452 0 0 474.452 0 0 -3450.38 0 0 3450.38 0 0 -3270.66 0 0 3270.66
0 0 -1841.66 0 0 1841.66 0 0 440.952 0 0 -440.952 0 0 2255.04 0 0 -2255.04 0 0 -676.35 0 0 676.35 0 0 -3831.37 0 0 3831.37 0 0 -3672.82 0 0 3672.82
0 0 -3861.61 0 0 3861.61 0 0 -1384.96 0 0 1384.96 0 0 1976.26 0 0 -1976.26 0 0 -976.316 0 0 976.316 0 0 -4161.66 0 0 4161.66 0 0 -4026.58 0 0 4026.58
0 0 -5963.9 0 0 5963.9 0 0 -3405.99 0 0 3405.99 0 0 1599.28 0 0 -1599.28 0 0 -1409.46 0 0 1409.46 0 0 -4450.79 0 0 4450.79 0 0 -4326.15 0 0 4326.15
0 0 -8040.26 0 0 8040.26 0 0 -5655.77 0 0 5655.77 0 0 1142.63 0 0 -1142.63 0 0 -1943.18 0 0 1943.18 0 0 -4697.12 0 0 4697.12 0 0 -4572.51 0 0 4572.51
0 0 -10308 0 0 10308 0 0 -8106.47 0 0 8106.47 0 0 529.38 0 0 -529.38 0 0 -2639.76 0 0 2639.76 0 0 -4885.81 0 0 4885.81 0 0 -4761.19 0 0 4761.19
0 0 -12811.2 0 0 12811.2 0 0 -10706.3 0 0 10706.3 0 0 -280.158 0 0 280.158 0 0 -3502.08 0 0 3502.08 0 0 -5012.73 0 0 5012.73 0 0 -4893.13 0 0 4893.13
0 0 -15385.7 0 0 15385.7 0 0 -13469.5 0 0 13469.5 0 0 -1250.87 0 0 1250.87 0 0 -4538.86 0 0 4538.86 0 0 -5083.65 0 0 5083.65 0 0 -4965.03 0 0 4965.03
0 0 -17991.6 0 0 17991.6 0 0 -16379.1 0 0 16379.1 0 0 -2376.78 0 0 2376.78 0 0 -5749.38 0 0 5749.38 0 0 -5099.4 0 0 5099.4 0 0 -4973.98 0 0 4973.98
0 0 -20688.7 0 0 20688.7 0 0 -19387.8 0 0 19387.8 0 0 -3675 0 0 3675 0 0 -7124.91 0 0 7124.91 0 0 -5048.87 0 0 5048.87 0 0 -4907.07 0 0 4907.07
0 0 -23441.4 0 0 23441.4 0 0 -22399.7 0 0 22399.7 0 0 -5119.22 0 0 5119.22 0 0 -8469 0 0 8469 0 0 -4931.8 0 0 4931.8 0 0 -4783.08 0 0 4783.08
0 0 -26170.3 0 0 26170.3 0 0 -25510.2 0 0 25510.2 0 0 -6656.39 0 0 6656.39 0 0 -9953.5 0 0 9953.5 0 0 -4755.42 0 0 4755.42 0 0 -4604.96 0 0 4604.96
0 0 -28906.2 0 0 28906.2 0 0 -28628.2 0 0 28628.2 0 0 -8301.95 0 0 8301.95 0 0 -11518.4 0 0 11518.4 0 0 -4525.17 0 0 4525.17 0 0 -4374.05 0 0 4374.05
0 0 -31657.8 0 0 31657.8 0 0 -31746.6 0 0 31746.6 0 0 -10040.4 0 0 10040.4 0 0 -13160.5 0 0 13160.5 0 0 -4255.89 0 0 4255.89 0 0 -4097.1 0 0 4097.1
0 0 -34413.4 0 0 34413.4 0 0 -34898.1 0 0 34898.1 0 0 -11849.5 0 0 11849.5 0 0 -14843.1 0 0 14843.1 0 0 -3958.26 0 0 3958.26 0 0 -3791.25 0 0 3791.25
0 0 -37152 0 0 37152 0 0 -38052.6 0 0 38052.6 0 0 -13688 0 0 13688 0 0 -16544.9 0 0 16544.9 0 0 -3641.9 0 0 3641.9 0 0 -3469.76 0 0 3469.76
0 0 -39871.5 0 0 39871.5 0 0 -41181.5 0 0 41181.5 0 0 -15521 0 0 15521 0 0 -18247 0 0 18247 0 0 -3317.06 0 0 3317.06 0 0 -3143.21 0 0 3143.21
0 0 -42568.2 0 0 42568.2 0 0 -44276.2 0 0 44276.2 0 0 -17322.4 0 0 17322.4 0 0 -19924.7 0 0 19924.7 0 0 -2996.38 0 0 2996.38 0 0 -2821.4 0 0 2821.4
0 0 -45222 0 0 45222 0 0 -47317 0 0 47317 0 0 -19066.2 0 0 19066.2 0 0 -21551.8 0 0 21551.8 0 0 -2693.5 0 0 2693.5 0 0 -2514.51 0 0 2514.51
0 0 -47813.7 0 0 47813.7 0 0 -50278 0 0 50278 0 0 -20725.2 0 0 20725.2 0 0 -23102 0 0 23102 0 0 -2419.78 0 0 2419.78 0 0 -2234.58 0 0 2234.58
0 0 -50327.2 0 0 50327.2 0 0 -53133.3 0 0 53133.3 0 0 -22272.9 0 0 22272.9 0 0 -24555.3 0 0 24555.3 0 0 -2184.26 0 0 2184.26 0 0 -1993.22 0 0 1993.22
0 0 -52742 0 0 52742 0 0 -55858.9 0 0 55858.9 0 0 -23687.7 0 0 23687.7 0 0 -25893.5 0 0 25893.5 0 0 -1995.09 0 0 1995.09 0 0 -1800.16 0 0 1800.16
0 0 -54836.2 0 0 54836.2 0 0 -56935 0 0 56935 0 0 -24901.6 0 0 24901.6 0 0 -26918.4 0 0 26918.4 0 0 -1865.65 0 0 1865.65 0 0 -1677.82 0 0 1677.82
0 0 -45293.2 0 0 45293.2 0 0 -10906.5 0 0 10906.5 0 0 -25098.5 0 0 25098.5 0 0 -23848.4 0 0 23848.4 0 0 -1912.53 0 0 1912.53 0 0 -1899.13 0 0 1899.13
0 0 -46928.4 0 0 46928.4 0 0 18886.6 0 0 -18886.6 0 0 -22659.4 0 0 22659.4 0 0 -22003 0 0 22003 0 0 -2098.99 0 0 2098.99 0 0 -2504.8 0 0 2504.8
0 0 -50243.5 0 0 50243.5 0 0 -11413.9 0 0 11413.9 0 0 -25022.4 0 0 25022.4 0 0 -23848 0 0 23848 0 0 -1924.11 0 0 1924.11 0 0 -1800.25 0 0 1800.25
0 0 -51439.2 0 0 51439.2 0 0 1457.17 0 0 -1457.17 0 0 -25424.4 0 0 25424.4 0 0 -22979.3 0 0 22979.3 0 0 -2039.12 0 0 2039.12 0 0 -2394.63 0 0 2394.63
0 0 -53092.9 0 0 53092.9 0 0 752.303 0 0 -752.303 0 0 -26480.6 0 0 26480.6 0 0 -23651.1 0 0 23651.1 0 0 -2148.93 0 0 2148.93 0 0 -2275.44 0 0 2275.44
0 0 -55081.7 0 0 55081.7 0 0 -2114.75 0 0 2114.75 0 0 -27294.1 0 0 27294.1 0 0 -24397.4 0 0 24397.4 0 0 -2095.79 0 0 2095.79 0 0 -2481.4 0 0 2481.4
0 0 -56213.9 0 0 56213.9 0 0 443.507 0 0 -443.507 0 0 -27290.3 0 0 27290.3 0 0 -25084.8 0 0 25084.8 0 0 -2236.19 0 0 2236.19 0 0 -2420.48 0 0 2420.48
0 0 -57523.2 0 0 57523.2 0 0 -890.822 0 0 890.822 0 0 -27776.4 0 0 27776.4 0 0 -25516.7 0 0 25516.7 0 0 -2390.87 0 0 2390.87 0 0 -2530.95 0 0 2530.95
0 0 -58606.7 0 0 58606.7 0 0 -832.943 0 0 832.943 0 0 -28318 0 0 28318 0 0 -25689.3 0 0 25689.3 0 0 -2610.05 0 0 2610.05 0 0 -2727.78 0 0 2727.78
0 0 -59645.2 0 0 59645.2 0 0 -621.826 0 0 621.826 0 0 -28687 0 0 28687 0 0 -25801.2 0 0 25801.2 0 0 -2807.63 0 0 2807.63 0 0 -2992.04 0 0 2992.04
0 0 -60749.1 0 0 60749.1 0 0 -1088.54 0 0 1088.54 0 0 -28862.6 0 0 28862.6 0 0 -25957.6 0 0 25957.6 0 0 -2976.79 0 0 2976.79 0 0 -3256.04 0 0 3256.04
0 0 -61773.8 0 0 61773.8 0 0 -992.512 0 0 992.512 0 0 -28896.9 0 0 28896.9 0 0 -26081 0 0 26081 0 0 -3196.18 0 0 3196.18 0 0 -3493.14 0 0 3493.14
0 0 -62790.3 0 0 62790.3 0 0 -1131.84 0 0 1131.84 0 0 -29025.4 0 0 29025.4 0 0 -26149.4 0 0 26149.4 0 0 -3473.15 0 0 3473.15 0 0 -3723.65 0 0 3723.65
0 0 -63793.4 0 0 63793.4 0 0 -1326.06 0 0 1326.06 0 0 -29217.9 0 0 29217.9 0 0 -26158.3 0 0 26158.3 0 0 -3765.54 0 0 3765.54 0 0 -3976.98 0 0 3976.98
0 0 -64675.2 0 0 64675.2 0 0 -1382.96 0 0 1382.96 0 0 -29344.9 0 0 29344.9 0 0 -26174.8 0 0 26174.8 0 0 -4029.82 0 0 4029.82 0 0 -4257.07 0 0 4257.07
0 0 -64608.2 0 0 64608.2 0 0 -1572.52 0 0 1572.52 0 0 -29573.2 0 0 29573.2 0 0 -26291.7 0 0 26291.7 0 0 -4250.45 0 0 4250.45 0 0 -4541.82 0 0 4541.82
0 0 -64735.5 0 0 64735.5 0 0 -1663.47 0 0 1663.47 0 0 -29808.3 0 0 29808.3 0 0 -26407.1 0 0 26407.1 0 0 -4483.72 0 0 4483.72 0 0 -4810.46 0 0 4810.46
0 0 -64834.6 0 0 64834.6 0 0 -1780.39 0 0 1780.39 0 0 -30093.3 0 0 30093.3 0 0 -26531.9 0 0 26531.9 0 0 -4734.3 0 0 4734.3 0 0 -5056.37 0 0 5056.37
0 0 -64935.7 0 0 64935.7 0 0 -1909.32 0 0 1909.32 0 0 -30412.4 0 0 30412.4 0 0 -26674.7 0 0 26674.7 0 0 -4967.53 0 0 4967.53 0 0 -5249.38 0 0 5249.38
0 0 -65116.5 0 0 65116.5 0 0 -1992.61 0 0 1992.61 0 0 -30748.3 0 0 30748.3 0 0 -26876.2 0 0 26876.2 0 0 -5164.23 0 0 5164.23 0 0 -5430.39 0 0 5430.39
0 0 -65364.1 0 0 65364.1 0 0 -2060.48 0 0 2060.48 0 0 -31097.6 0 0 31097.6 0 0 -27140.4 0 0 27140.4 0 0 -5328.06 0 0 5328.06 0 0 -5601.63 0 0 5601.63
0 0 -65637.2 0 0 65637.2 0 0 -2124.02 0 0 2124.02 0 0 -31479.4 0 0 31479.4 0 0 -27450.2 0 0 27450.2 0 0 -5458.47 0 0 5458.47 0 0 -5747 0 0 5747
0 0 -65961.1 0 0 65961.1 0 0 -2170.14 0 0 2170.14 0 0 -31911.4 0 0 31911.4 0 0 -27790.9 0 0 27790.9 0 0 -5573.59 0 0 5573.59 0 0 -5861.49 0 0 5861.49
0 0 -66356.1 0 0 66356.1 0 0 -2199.54 0 0 2199.54 0 0 -32394.6 0 0 32394.6 0 0 -28180.7 0 0 28180.7 0 0 -5671.84 0 0 5671.84 0 0 -5958.6 0 0 5958.6
0 0 -66809.8 0 0 66809.8 0 0 -2213.41 0 0 2213.41 0 0 -32898.8 0 0 32898.8 0 0 -28618.9 0 0 28618.9 0 0 -5746.83 0 0 5746.83 0 0 -6038.56 0 0 6038.56
0 0 -67309.2 0 0 67309.2 0 0 -2213.52 0 0 2213.52 0 0 -33419.6 0 0 33419.6 0 0 -29100.7 0 0 29100.7 0 0 -5799 0 0 5799 0 0 -6102.07 0 0 6102.07
0 0 -67857.3 0 0 67857.3 0 0 -2206.99 0 0 2206.99 0 0 -33973 0 0 33973 0 0 -29613.6 0 0 29613.6 0 0 -5834.95 0 0 5834.95 0 0 -6147.07 0 0 6147.07
0 0 -10327.4 0 0 10327.4 0 0 -2014.72 0 0 2014.72 0 0 -31628.2 0 0 31628.2 0 0 -29349.2 0 0 29349.2 0 0 -5894.74 0 0 5894.74 0 0 -6213.48 0 0 6213.48
0 0 15076.6 0 0 -15076.6 0 0 -2739.84 0 0 2739.84 0 0 -26904.6 0 0 26904.6 0 0 -28158.5 0 0 28158.5 0 0 -6122.57 0 0 6122.57 0 0 -6244.74 0 0 6244.74
0 0 12158.8 0 0 -12158.8 0 0 -4141.85 0 0 4141.85 0 0 -26435.1 0 0 26435.1 0 0 -28841.4 0 0 28841.4 0 0 -6254.62 0 0 6254.62 0 0 -6140.77 0 0 6140.77
0 0 -3765.81 0 0 3765.81 0 0 -1143.56 0 0 1143.56 0 0 -30313.8 0 0 30313.8 0 0 -30220.9 0 0 30220.9 0 0 -5856.95 0 0 5856.95 0 0 -6042.89 0 0 6042.89
0 0 -3608.75 0 0 3608.75 0 0 -1400.07 0 0 1400.07 0 0 -31048.3 0 0 31048.3 0 0 -31102.5 0 0 31102.5 0 0 -5734.5 0 0 5734.5 0 0 -5799.89 0 0 5799.89
0 0 6313.89 0 0 -6313.89 0 0 -2667.77 0 0 2667.77 0 0 -29742.7 0 0 29742.7 0 0 -31474.5 0 0 31474.5 0 0 -5721.28 0 0 5721.28 0 0 -5610.76 0 0 5610.76
0 0 6761.58 0 0 -6761.58 0 0 -2484.45 0 0 2484.45 0 0 -30526.1 0 0 30526.1 0 0 -32208.5 0 0 32208.5 0 0 -5485.15 0 0 5485.15 0 0 -5379.65 0 0 5379.65
0 0 658.539 0 0 -658.539 0 0 -1640.8 0 0 1640.8 0 0 -32733.5 0 0 32733.5 0 0 -33301.5 0 0 33301.5 0 0 -5075.48 0 0 5075.48 0 0 -5130.43 0 0 5130.43
0 0 294.888 0 0 -294.888 0 0 -1445.91 0 0 1445.91 0 0 -33599.3 0 0 33599.3 0 0 -34186.1 0 0 34186.1 0 0 -4758.67 0 0 4758.67 0 0 -4838.91 0 0 4838.91
0 0 4288 0 0 -4288 0 0 -1896.82 0 0 1896.82 0 0 -33426.2 0 0 33426.2 0 0 -34721.7 0 0 34721.7 0 0 -4550.99 0 0 4550.99 0 0 -4531.17 0 0 4531.17
0 0 4841.61 0 0 -4841.61 0 0 -1888.67 0 0 1888.67 0 0 -34011.2 0 0 34011.2 0 0 -35258.9 0 0 35258.9 0 0 -4302.11 0 0 4302.11 0 0 -4219.96 0 0 4219.96
0 0 2517.13 0 0 -2517.13 0 0 -1495.82 0 0 1495.82 0 0 -35203.6 0 0 35203.6 0 0 -35875.7 0 0 35875.7 0 0 -3980.33 0 0 3980.33 0 0 -3931.03 0 0 3931.03
0 0 2276.53 0 0 -2276.53 0 0 -1349.99 0 0 1349.99 0 0 -35356.1 0 0 35356.1 0 0 -36206 0 0 36206 0 0 -3682.36 0 0 3682.36 0 0 -3667.33 0 0 3667.33
0 0 3677.51 0 0 -3677.51 0 0 -1644.91 0 0 1644.91 0 0 -34987.8 0 0 34987.8 0 0 -35861.1 0 0 35861.1 0 0 -3444.63 0 0 3444.63 0 0 -3451.7 0 0 3451.7
0 0 4033.43 0 0 -4033.43 0 0 -1725.39 0 0 1725.39 0 0 -34651.3 0 0 34651.3 0 0 -35517.8 0 0 35517.8 0 0 -3238.14 0 0 3238.14 0 0 -3224.51 0 0 3224.51
0 0 3139.57 0 0 -3139.57 0 0 -1593.64 0 0 1593.64 0 0 -34368.7 0 0 34368.7 0 0 -35218.4 0 0 35218.4 0 0 -3048.82 0 0 3048.82 0 0 -3015.61 0 0 3015.61
0 0 2807.55 0 0 -2807.55 0 0 -1640.11 0 0 1640.11 0 0 -34130.6 0 0 34130.6 0 0 -34929.8 0 0 34929.8 0 0 -2872.05 0 0 2872.05 0 0 -2821.18 0 0 2821.18
0 0 3359.32 0 0 -3359.32 0 0 -1708.3 0 0 1708.3 0 0 -33885.2 0 0 33885.2 0 0 -34675.8 0 0 34675.8 0 0 -2693.65 0 0 2693.65 0 0 -2650.55 0 0 2650.55
0 0 3641.24 0 0 -3641.24 0 0 -1785.65 0 0 1785.65 0 0 -33635.5 0 0 33635.5 0 0 -34459.6 0 0 34459.6 0 0 -2522.13 0 0 2522.13 0 0 -2498.23 0 0 2498.23
0 0 3332.94 0 0 -3332.94 0 0 -1786.83 0 0 1786.83 0 0 -33420.1 0 0 33420.1 0 0 -34272 0 0 34272 0 0 -2379.52 0 0 2379.52 0 0 -2360.39 0 0 2360.39
0 0 3133.34 0 0 -3133.34 0 0 -1792.02 0 0 1792.02 0 0 -33255.2 0 0 33255.2 0 0 -34098.6 0 0 34098.6 0 0 -2273.8 0 0 2273.8 0 0 -2239.4 0 0 2239.4
0 0 3328.74 0 0 -3328.74 0 0 -1857.95 0 0 1857.95 0 0 -33112.1 0 0 33112.1 0 0 -33942.6 0 0 33942.6 0 0 -2191.28 0 0 2191.28 0 0 -2141.49 0 0 2141.49
0 0 3497.7 0 0 -3497.7 0 0 -1910.82 0 0 1910.82 0 0 -32890.5 0 0 32890.5 0 0 -33741.7 0 0 33741.7 0 0 -2123.32 0 0 2123.32 0 0 -2074.95 0 0 2074.95
0 0 3390.62 0 0 -3390.62 0 0 -1958.56 0 0 1958.56 0 0 -32669.2 0 0 32669.2 0 0 -33517 0 0 33517 0 0 -2068.01 0 0 2068.01 0 0 -2035.97 0 0 2035.97
0 0 3276.21 0 0 -3276.21 0 0 -1999.9 0 0 1999.9 0 0 -32420.4 0 0 32420.4 0 0 -33253 0 0 33253 0 0 -2041.86 0 0 2041.86 0 0 -2019.77 0 0 2019.77
0 0 3324.9 0 0 -3324.9 0 0 -2074.09 0 0 2074.09 0 0 -32125.3 0 0 32125.3 0 0 -32952.4 0 0 32952.4 0 0 -2049.91 0 0 2049.91 0 0 -2022.78 0 0 2022.78
0 0 3377.1 0 0 -3377.1 0 0 -2149.8 0 0 2149.8 0 0 -31817 0 0 31817 0 0 -32637.6 0 0 32637.6 0 0 -2080.62 0 0 2080.62 0 0 -2045.83 0 0 2045.83
0 0 3320.24 0 0 -3320.24 0 0 -2208.9 0 0 2208.9 0 0 -31522.3 0 0 31522.3 0 0 -32331.5 0 0 32331.5 0 0 -2122.6 0 0 2122.6 0 0 -2089.16 0 0 2089.16
0 0 3249.41 0 0 -3249.41 0 0 -2267.04 0 0 2267.04 0 0 -31236.2 0 0 31236.2 0 0 -32037.6 0 0 32037.6 0 0 -2175.36 0 0 2175.36 0 0 -2150.48 0 0 2150.48
0 0 3244.24 0 0 -3244.24 0 0 -2327.19 0 0 2327.19 0 0 -30960 0 0 30960 0 0 -31760.4 0 0 31760.4 0 0 -2243.16 0 0 2243.16 0 0 -2225.08 0 0 2225.08
0 0 3249.05 0 0 -3249.05 0 0 -2384.75 0 0 2384.75 0 0 -30716.8 0 0 30716.8 0 0 -31509.8 0 0 31509.8 0 0 -2325.54 0 0 2325.54 0 0 -2308.63 0 0 2308.63
0 0 3212.23 0 0 -3212.23 0 0 -2429.64 0 0 2429.64 0 0 -30520.5 0 0 30520.5 0 0 -31300.2 0 0 31300.2 0 0 -2417.08 0 0 2417.08 0 0 -2398.86 0 0 2398.86
0 0 3169.6 0 0 -3169.6 0 0 -2461.83 0 0 2461.83 0 0 -30367.8 0 0 30367.8 0 0 -31140.6 0 0 31140.6 0 0 -2512.46 0 0 2512.46 0 0 -2494.72 0 0 2494.72
0 0 3153.23 0 0 -3153.23 0 0 -2492.07 0 0 2492.07 0 0 -30259.2 0 0 30259.2 0 0 -31031.3 0 0 31031.3 0 0 -2609.34 0 0 2609.34 0 0 -2594.75 0 0 2594.75
0 0 3144.43 0 0 -3144.43 0 0 -2512.77 0 0 2512.77 0 0 -30203.9 0 0 30203.9 0 0 -30974.8 0 0 30974.8 0 0 -2707.48 0 0 2707.48 0 0 -2696.57 0 0 2696.57
0 0 3122.8 0 0 -3122.8 0 0 -2523.26 0 0 2523.26 0 0 -30204.7 0 0 30204.7 0 0 -30969.1 0 0 30969.1 0 0 -2806.84 0 0 2806.84 0 0 -2797.88 0 0 2797.88
0 0 3097.92 0 0 -3097.92 0 0 -2528.33 0 0 2528.33 0 0 -30251.1 0 0 30251.1 0 0 -31009.6 0 0 31009.6 0 0 -2906.49 0 0 2906.49 0 0 -2897.49 0 0 2897.49
0 0 3086.26 0 0 -3086.26 0 0 -2526.45 0 0 2526.45 0 0 -30331.6 0 0 30331.6 0 0 -31090.6 0 0 31090.6 0 0 -3004.74 0 0 3004.74 0 0 -2995.29 0 0 2995.29
0 0 3081.42 0 0 -3081.42 0 0 -2522.72 0 0 2522.72 0 0 -30442 0 0 30442 0 0 -31202.1 0 0 31202.1 0 0 -3100.24 0 0 3100.24 0 0 -3091.31 0 0 3091.31
0 0 3073.8 0 0 -3073.8 0 0 -2515.31 0 0 2515.31 0 0 -30578.8 0 0 30578.8 0 0 -31338.8 0 0 31338.8 0 0 -3192.64 0 0 3192.64 0 0 -3185.12 0 0 3185.12
0 0 3067.86 0 0 -3067.86 0 0 -2506.02 0 0 2506.02 0 0 -30735.8 0 0 30735.8 0 0 -31495.2 0 0 31495.2 0 0 -3282.17 0 0 3282.17 0 0 -3275.82 0 0 3275.82
0 0 3068.11 0 0 -3068.11 0 0 -2498.02 0 0 2498.02 0 0 -30907.2 0 0 30907.2 0 0 -31667.2 0 0 31667.2 0 0 -3368.71 0 0 3368.71 0 0 -3362.58 0 0 3362.58
0 0 3073.18 0 0 -3073.18 0 0 -2488.35 0 0 2488.35 0 0 -31090.8 0 0 31090.8 0 0 -31854.6 0 0 31854.6 0 0 -3451.45 0 0 3451.45 0 0 -3444.93 0 0 3444.93
0 0 3078.23 0 0 -3078.23 0 0 -2480.73 0 0 2480.73 0 0 -31287.7 0 0 31287.7 0 0 -32054.2 0 0 32054.2 0 0 -3529.36 0 0 3529.36 0 0 -3522.61 0 0 3522.61
0 0 3084.53 0 0 -3084.53 0 0 -2471.32 0 0 2471.32 0 0 -31497.5 0 0 31497.5 0 0 -32266.6 0 0 32266.6 0 0 -3601.75 0 0 3601.75 0 0 -3595.23 0 0 3595.23
0 0 3095.69 0 0 -3095.69 0 0 -2460.69 0 0 2460.69 0 0 -31719.9 0 0 31719.9 0 0 -32492.6 0 0 32492.6 0 0 -3668.33 0 0 3668.33 0 0 -3662.16 0 0 3662.16
0 0 3108.54 0 0 -3108.54 0 0 -2451.54 0 0 2451.54 0 0 -31955.3 0 0 31955.3 0 0 -32731.6 0 0 32731.6 0 0 -3728.99 0 0 3728.99 0 0 -3722.78 0 0 3722.78
0 0 3122.79 0 0 -3122.79 0 0 -2437 0 0 2437 0 0 -32204.3 0 0 32204.3 0 0 -32986 0 0 32986 0 0 -3783.54 0 0 3783.54 0 0 -3776.79 0 0 3776.79
0 0 3138.65 0 0 -3138.65 0 0 -2421.45 0 0 2421.45 0 0 -32467.2 0 0 32467.2 0 0 -33253.7 0 0 33253.7 0 0 -3831.77 0 0 3831.77 0 0 -3824.22 0 0 3824.22
0 0 3155.92 0 0 -3155.92 0 0 -2402.85 0 0 2402.85 0 0 -32743.2 0 0 32743.2 0 0 -33534.8 0 0 33534.8 0 0 -3873.57 0 0 3873.57 0 0 -3865.24 0 0 3865.24
0 0 3176.58 0 0 -3176.58 0 0 -2377.07 0 0 2377.07 0 0 -33031.7 0 0 33031.7 0 0 -33829.9 0 0 33829.9 0 0 -3909.08 0 0 3909.08 0 0 -3900.06 0 0 3900.06
0 0 3197.77 0 0 -3197.77 0 0 -2348.77 0 0 2348.77 0 0 -33332.9 0 0 33332.9 0 0 -34137.1 0 0 34137.1 0 0 -3938.78 0 0 3938.78 0 0 -3928.9 0 0 3928.9
0 0 3218.84 0 0 -3218.84 0 0 -2313.11 0 0 2313.11 0 0 -33645.9 0 0 33645.9 0 0 -34457.6 0 0 34457.6 0 0 -3963.32 0 0 3963.32 0 0 -3952.22 0 0 3952.22
0 0 3240.39 0 0 -3240.39 0 0 -2271.52 0 0 2271.52 0 0 -33969.3 0 0 33969.3 0 0 -34788.2 0 0 34788.2 0 0 -3983.45 0 0 3983.45 0 0 -3970.81 0 0 3970.81
0 0 3260.34 0 0 -3260.34 0 0 -2225.22 0 0 2225.22 0 0 -34298.9 0 0 34298.9 0 0 -35124.5 0 0 35124.5 0 0 -4000.09 0 0 4000.09 0 0 -3985.79 0 0 3985.79
0 0 3278.83 0 0 -3278.83 0 0 -2171.78 0 0 2171.78 0 0 -34628.5 0 0 34628.5 0 0 -35461.6 0 0 35461.6 0 0 -4014.44 0 0 4014.44 0 0 -3998.56 0 0 3998.56
0 0 3294.54 0 0 -3294.54 0 0 -2115.23 0 0 2115.23 0 0 -34950.1 0 0 34950.1 0 0 -35789.3 0 0 35789.3 0 0 -4028.07 0 0 4028.07 0 0 -4010.63 0 0 4010.63
0 0 3307.29 0 0 -3307.29 0 0 -2053.49 0 0 2053.49 0 0 -35253.9 0 0 35253.9 0 0 -36099.7 0 0 36099.7 0 0 -4042.71 0 0 4042.71 0 0 -4023.66 0 0 4023.66
0 0 3316.25 0 0 -3316.25 0 0 -1990.75 0 0 1990.75 0 0 -35529.7 0 0 35529.7 0 0 -36381 0 0 36381 0 0 -4060.06 0 0 4060.06 0 0 -4039.41 0 0 4039.41
0 0 3315.31 0 0 -3315.31 0 0 -1928.59 0 0 1928.59 0 0 -35765.9 0 0 35765.9 0 0 -36620.8 0 0 36620.8 0 0 -4081.74 0 0 4081.74 0 0 -4059.66 0 0 4059.66
0 0 3297.84 0 0 -3297.84 0 0 -1862.81 0 0 1862.81 0 0 -35928.9 0 0 35928.9 0 0 -36801.8 0 0 36801.8 0 0 -4111.18 0 0 4111.18 0 0 -4086.3 0 0 4086.3
0 0 3310.76 0 0 -3310.76 0 0 -1813.02 0 0 1813.02 0 0 -36026.9 0 0 36026.9 0 0 -36918 0 0 36918 0 0 -4146.94 0 0 4146.94 0 0 -4120.56 0 0 4120.56
0 0 3294.56 0 0 -3294.56 0 0 -1764.41 0 0 1764.41 0 0 -36056.8 0 0 36056.8 0 0 -36957.1 0 0 36957.1 0 0 -4190.45 0 0 4190.45 0 0 -4163.37 0 0 4163.37
0 0 3252.96 0 0 -3252.96 0 0 -1722.12 0 0 1722.12 0 0 -36006.9 0 0 36006.9 0 0 -36909.3 0 0 36909.3 0 0 -4242.47 0 0 4242.47 0 0 -4215.42 0 0 4215.42
0 0 3215.72 0 0 -3215.72 0 0 -1695.31 0 0 1695.31 0 0 -35862.1 0 0 35862.1 0 0 -36763 0 0 36763 0 0 -4303.5 0 0 4303.5 0 0 -4276.83 0 0 4276.83
0 0 3184.7 0 0 -3184.7 0 0 -1679.65 0 0 1679.65 0 0 -35617.5 0 0 35617.5 0 0 -36515.2 0 0 36515.2 0 0 -4372.85 0 0 4372.85 0 0 -4347.18 0 0 4347.18
0 0 3136.3 0 0 -3136.3 0 0 -1676.92 0 0 1676.92 0 0 -35275.7 0 0 35275.7 0 0 -36163 0 0 36163 0 0 -4448.91 0 0 4448.91 0 0 -4425.34 0 0 4425.34
0 0 3070.28 0 0 -3070.28 0 0 -1685.27 0 0 1685.27 0 0 -34834.7 0 0 34834.7 0 0 -35708.4 0 0 35708.4 0 0 -4530.22 0 0 4530.22 0 0 -4509.48 0 0 4509.48
0 0 3007.54 0 0 -3007.54 0 0 -1705.02 0 0 1705.02 0 0 -34296.3 0 0 34296.3 0 0 -35156.7 0 0 35156.7 0 0 -4614.62 0 0 4614.62 0 0 -4597.08 0 0 4597.08
0 0 2943.77 0 0 -2943.77 0 0 -1737.76 0 0 1737.76 0 0 -33669.1 0 0 33669.1 0 0 -34514.2 0 0 34514.2 0 0 -4699.24 0 0 4699.24 0 0 -4685.15 0 0 4685.15
0 0 2868.59 0 0 -2868.59 0 0 -1776.85 0 0 1776.85 0 0 -32964.8 0 0 32964.8 0 0 -33793.1 0 0 33793.1 0 0 -4780.63 0 0 4780.63 0 0 -4770.36 0 0 4770.36
0 0 2785.2 0 0 -2785.2 0 0 -1823.25 0 0 1823.25 0 0 -32193.7 0 0 32193.7 0 0 -33002.3 0 0 33002.3 0 0 -4855.26 0 0 4855.26 0 0 -4849.14 0 0 4849.14
0 0 2704.17 0 0 -2704.17 0 0 -1874.69 0 0 1874.69 0 0 -31366.7 0 0 31366.7 0 0 -32154.1 0 0 32154.1 0 0 -4919.43 0 0 4919.43 0 0 -4917.73 0 0 4917.73
0 0 2621.57 0 0 -2621.57 0 0 -1926.91 0 0 1926.91 0 0 -30495.1 0 0 30495.1 0 0 -31261.9 0 0 31261.9 0 0 -4969.63 0 0 4969.63 0 0 -4972.3 0 0 4972.3
0 0 2537.04 0 0 -2537.04 0 0 -1981.33 0 0 1981.33 0 0 -29593 0 0 29593 0 0 -30337.6 0 0 30337.6 0 0 -5002.1 0 0 5002.1 0 0 -5009.07 0 0 5009.07
0 0 2454.75 0 0 -2454.75 0 0 -2030.35 0 0 2030.35 0 0 -28673.3 0 0 28673.3 0 0 -29397 0 0 29397 0 0 -5013.41 0 0 5013.41 0 0 -5024.38 0 0 5024.38
0 0 2376.46 0 0 -2376.46 0 0 -2076.06 0 0 2076.06 0 0 -27750 0 0 27750 0 0 -28453.1 0 0 28453.1 0 0 -5000.27 0 0 5000.27 0 0 -5014.92 0 0 5014.92
0 0 2300.56 0 0 -2300.56 0 0 -2115.9 0 0 2115.9 0 0 -26836 0 0 26836 0 0 -27519.1 0 0 27519.1 0 0 -4959.87 0 0 4959.87 0 0 -4977.77 0 0 4977.77
0 0 2230.16 0 0 -2230.16 0 0 -2143.52 0 0 2143.52 0 0 -25943 0 0 25943 0 0 -26608.5 0 0 26608.5 0 0 -4889.95 0 0 4889.95 0 0 -4910.59 0 0 4910.59
0 0 2165.45 0 0 -2165.45 0 0 -2163.52 0 0 2163.52 0 0 -25081.1 0 0 25081.1 0 0 -25729.5 0 0 25729.5 0 0 -4788.91 0 0 4788.91 0 0 -4811.65 0 0 4811.65
0 0 2107.28 0 0 -2107.28 0 0 -2169.9 0 0 2169.9 0 0 -24258.5 0 0 24258.5 0 0 -24892.5 0 0 24892.5 0 0 -4655.81 0 0 4655.81 0 0 -4679.93 0 0 4679.93
0 0 2057.48 0 0 -2057.48 0 0 -2161.83 0 0 2161.83 0 0 -23482.3 0 0 23482.3 0 0 -24104.1 0 0 24104.1 0 0 -4490.4 0 0 4490.4 0 0 -4515.17 0 0 4515.17
0 0 2014.58 0 0 -2014.58 0 0 -2141.58 0 0 2141.58 0 0 -22757.8 0 0 22757.8 0 0 -23368.9 0 0 23368.9 0 0 -4293.16 0 0 4293.16 0 0 -4317.85 0 0 4317.85
0 0 1979.62 0 0 -1979.62 0 0 -2104.31 0 0 2104.31 0 0 -22088.9 0 0 22088.9 0 0 -22692.4 0 0 22692.4 0 0 -4065.35 0 0 4065.35 0 0 -4089.24 0 0 4089.24
0 0 1951.75 0 0 -1951.75 0 0 -2053.3 0 0 2053.3 0 0 -21477.5 0 0 21477.5 0 0 -22074.2 0 0 22074.2 0 0 -3809.01 0 0 3809.01 0 0 -3831.39 0 0 3831.39
0 0 1930.09 0 0 -1930.09 0 0 -1987.02 0 0 1987.02 0 0 -20922.6 0 0 20922.6 0 0 -21515 0 0 21515 0 0 -3526.98 0 0 3526.98 0 0 -3547.13 0 0 3547.13
0 0 1914.62 0 0 -1914.62 0 0 -1906.52 0 0 1906.52 0 0 -20421.2 0 0 20421.2 0 0 -21011.2 0 0 21011.2 0 0 -3222.8 0 0 3222.8 0 0 -3240.1 0 0 3240.1
0 0 1902.85 0 0 -1902.85 0 0 -1814.59 0 0 1814.59 0 0 -19967.3 0 0 19967.3 0 0 -20555.3 0 0 20555.3 0 0 -2900.73 0 0 2900.73 0 0 -2914.65 0 0 2914.65
0 0 1894.86 0 0 -1894.86 0 0 -1708.98 0 0 1708.98 0 0 -19552.1 0 0 19552.1 0 0 -20140.5 0 0 20140.5 0 0 -2565.62 0 0 2565.62 0 0 -2575.74 0 0 2575.74
0 0 1888.69 0 0 -1888.69 0 0 -1596.24 0 0 1596.24 0 0 -19165.2 0 0 19165.2 0 0 -19753.9 0 0 19753.9 0 0 -2222.8 0 0 2222.8 0 0 -2228.82 0 0 2228.82
0 0 1843.33 0 0 -1843.33 0 0 -1471.47 0 0 1471.47 0 0 -18783.4 0 0 18783.4 0 0 -19381.6 0 0 19381.6 0 0 -1878.41 0 0 1878.41 0 0 -1879.73 0 0 1879.73
0 0 1855.48 0 0 -1855.48 0 0 -1341.49 0 0 1341.49 0 0 -18379.7 0 0 18379.7 0 0 -19005.2 0 0 19005.2 0 0 -1539.84 0 0 1539.84 0 0 -1534.61 0 0 1534.61
0 0 1874.88 0 0 -1874.88 0 0 -1220.6 0 0 1220.6 0 0 -17963.5 0 0 17963.5 0 0 -18620 0 0 18620 0 0 -1210.6 0 0 1210.6 0 0 -1198.81 0 0 1198.81
0 0 1847.03 0 0 -1847.03 0 0 -1089.89 0 0 1089.89 0 0 -17536.4 0 0 17536.4 0 0 -18214 0 0 18214 0 0 -895.018 0 0 895.018 0 0 -878.234 0 0 878.234
0 0 1798.86 0 0 -1798.86 0 0 -964.449 0 0 964.449 0 0 -17076.6 0 0 17076.6 0 0 -17769.9 0 0 17769.9 0 0 -599.551 0 0 599.551 0 0 -578.031 0 0 578.031
0 0 1767.49 0 0 -1767.49 0 0 -852.574 0 0 852.574 0 0 -16559.1 0 0 16559.1 0 0 -17269.2 0 0 17269.2 0 0 -329.84 0 0 329.84 0 0 -303.703 0 0 303.703
0 0 1738.66 0 0 -1738.66 0 0 -751.774 0 0 751.774 0 0 -15976.4 0 0 15976.4 0 0 -16698.6 0 0 16698.6 0 0 -121.514 0 0 121.514 0 0 -75.1241 0 0 75.1241
0 0 1682.3 0 0 -1682.3 0 0 -666.898 0 0 666.898 0 0 -15335.3 0 0 15335.3 0 0 -16061.4 0 0 16061.4 0 0 38.2182 0 0 -38.2182 0 0 73.287 0 0 -73.287
0 0 1605.81 0 0 -1605.81 0 0 -602.662 0 0 602.662 0 0 -14595 0 0 14595 0 0 -15315.8 0 0 15315.8 0 0 161.595 0 0 -161.595 0 0 209.315 0 0 -209.315
0 0 1530.11 0 0 -1530.11 0 0 -551.292 0 0 551.292 0 0 -13750.4 0 0 13750.4 0 0 -14463.8 0 0 14463.8 0 0 259.062 0 0 -259.062 0 0 312.485 0 0 -312.485
0 0 1448.05 0 0 -1448.05 0 0 -531.928 0 0 531.928 0 0 -12802.2 0 0 12802.2 0 0 -13497.7 0 0 13497.7 0 0 332.786 0 0 -332.786 0 0 387.336 0 0 -387.336
0 0 1342.89 0 0 -1342.89 0 0 -526.109 0 0 526.109 0 0 -11746.8 0 0 11746.8 0 0 -12420.9 0 0 12420.9 0 0 382.013 0 0 -382.013 0 0 432.318 0 0 -432.318
0 0 1230.34 0 0 -1230.34 0 0 -544.668 0 0 544.668 0 0 -10588.4 0 0 10588.4 0 0 -11238.9 0 0 11238.9 0 0 405.073 0 0 -405.073 0 0 450.157 0 0 -450.157
0 0 1116.54 0 0 -1116.54 0 0 -580.916 0 0 580.916 0 0 -9339.97 0 0 9339.97 0 0 -9967.48 0 0 9967.48 0 0 396.3 0 0 -396.3 0 0 437.231 0 0 -437.231
0 0 994.135 0 0 -994.135 0 0 -632.255 0 0 632.255 0 0 -8022.05 0 0 8022.05 0 0 -8624.22 0 0 8624.22 0 0 359.12 0 0 -359.12 0 0 395.844 0 0 -395.844
0 0 859.764 0 0 -859.764 0 0 -696.807 0 0 696.807 0 0 -6656.67 0 0 6656.67 0 0 -7229.97 0 0 7229.97 0 0 299.59 0 0 -299.59 0 0 330.873 0 0 -330.873
0 0 722.651 0 0 -722.651 0 0 -765.792 0 0 765.792 0 0 -5265.04 0 0 5265.04 0 0 -5809.72 0 0 5809.72 0 0 223.795 0 0 -223.795 0 0 247.663 0 0 -247.663
0 0 585.911 0 0 -585.911 0 0 -841.606 0 0 841.606 0 0 -3869.84 0 0 3869.84 0 0 -4385.34 0 0 4385.34 0 0 136.988 0 0 -136.988 0 0 152.704 0 0 -152.704
0 0 448.026 0 0 -448.026 0 0 -915.042 0 0 915.042 0 0 -2493.96 0 0 2493.96 0 0 -2981.17 0 0 2981.17 0 0 44.2322 0 0 -44.2322 0 0 52.5882 0 0 -52.5882
0 0 311.81 0 0 -311.81 0 0 -981.292 0 0 981.292 0 0 -1159.24 0 0 1159.24 0 0 -1618.94 0 0 1618.94 0 0 -49.2852 0 0 49.2852 0 0 -44.6317 0 0 44.6317
0 0 186.598 0 0 -186.598 0 0 -1075.05 0 0 1075.05 0 0 91.748 0 0 -91.748 0 0 -412.38 0 0 412.38 0 0 -132.035 0 0 132.035 0 0 -129.894 0 0 129.894
0 0 41.8501 0 0 -41.8501 0 0 -1025.25 0 0 1025.25 0 0 1072.74 0 0 -1072.74 0 0 540.931 0 0 -540.931 0 0 -193.411 0 0 193.411 0 0 -193.679 0 0 193.679
0 0 -34.3336 0 0 34.3336 0 0 -1056.86 0 0 1056.86 0 0 2022 0 0 -2022 0 0 1373.4 0 0 -1373.4 0 0 -246.462 0 0 246.462 0 0 -243.86 0 0 243.86
0 0 -108.504 0 0 108.504 0 0 -1029.14 0 0 1029.14 0 0 2883.02 0 0 -2883.02 0 0 2174.35 0 0 -2174.35 0 0 -281.231 0 0 281.231 0 0 -275.605 0 0 275.605
0 0 -202.735 0 0 202.735 0 0 -99.1646 0 0 99.1646 0 0 3662.86 0 0 -3662.86 0 0 2934.86 0 0 -2934.86 0 0 -299.379 0 0 299.379 0 0 -296.523 0 0 296.523
0 0 -286.629 0 0 286.629 0 0 1964.19 0 0 -1964.19 0 0 4419.83 0 0 -4419.83 0 0 3776.08 0 0 -3776.08 0 0 -303.882 0 0 303.882 0 0 -317.633 0 0 317.633
0 0 -401.807 0 0 401.807 0 0 3621.81 0 0 -3621.81 0 0 5059.4 0 0 -5059.4 0 0 4486.05 0 0 -4486.05 0 0 -282.218 0 0 282.218 0 0 -299.585 0 0 299.585
0 0 -449.509 0 0 449.509 0 0 5414.62 0 0 -5414.62 0 0 5632.2 0 0 -5632.2 0 0 5129.92 0 0 -5129.92 0 0 -237.999 0 0 237.999 0 0 -269.502 0 0 269.502
0 0 -489.424 0 0 489.424 0 0 7156.64 0 0 -7156.64 0 0 6113.1 0 0 -6113.1 0 0 5700.9 0 0 -5700.9 0 0 -170.239 0 0 170.239 0 0 -205.448 0 0 205.448
0 0 -547.496 0 0 547.496 0 0 8862.13 0 0 -8862.13 0 0 6514.4 0 0 -6514.4 0 0 6191.65 0 0 -6191.65 0 0 -76.7496 0 0 76.7496 0 0 -122.93 0 0 122.93
0 0 -630.21 0 0 630.21 0 0 10543.6 0 0 -10543.6 0 0 6864.25 0 0 -6864.25 0 0 6617.82 0 0 -6617.82 0 0 31.2324 0 0 -31.2324 0 0 -14.7787 0 0 14.7787
0 0 -633.924 0 0 633.924 0 0 12031.8 0 0 -12031.8 0 0 7156.84 0 0 -7156.84 0 0 6991.13 0 0 -6991.13 0 0 135.551 0 0 -135.551 0 0 99.0102 0 0 -99.0102
0 0 -627.906 0 0 627.906 0 0 13534.3 0 0 -13534.3 0 0 7403.67 0 0 -7403.67 0 0 7331.4 0 0 -7331.4 0 0 244.103 0 0 -244.103 0 0 207.757 0 0 -207.757
0 0 -667.818 0 0 667.818 0 0 14948.2 0 0 -14948.2 0 0 7581.2 0 0 -7581.2 0 0 7620.01 0 0 -7620.01 0 0 365.891 0 0 -365.891 0 0 332.018 0 0 -332.018
0 0 -694.606 0 0 694.606 0 0 16314.6 0 0 -16314.6 0 0 7721.78 0 0 -7721.78 0 0 7868.2 0 0 -7868.2 0 0 499.161 0 0 -499.161 0 0 463.488 0 0 -463.488
0 0 -691.267 0 0 691.267 0 0 17645.1 0 0 -17645.1 0 0 7838.66 0 0 -7838.66 0 0 8091.24 0 0 -8091.24 0 0 640.541 0 0 -640.541 0 0 604.312 0 0 -604.312
0 0 -686.924 0 0 686.924 0 0 18961.7 0 0 -18961.7 0 0 7941.98 0 0 -7941.98 0 0 8295.4 0 0 -8295.4 0 0 786.654 0 0 -786.654 0 0 749.028 0 0 -749.028
0 0 -697.968 0 0 697.968 0 0 20246.6 0 0 -20246.6 0 0 8041.75 0 0 -8041.75 0 0 8497.06 0 0 -8497.06 0 0 933.615 0 0 -933.615 0 0 897.282 0 0 -897.282
0 0 -710.302 0 0 710.302 0 0 21499.7 0 0 -21499.7 0 0 8156.09 0 0 -8156.09 0 0 8712.04 0 0 -8712.04 0 0 1079.08 0 0 -1079.08 0 0 1044.74 0 0 -1044.74
0 0 -713.233 0 0 713.233 0 0 22738.1 0 0 -22738.1 0 0 8300.76 0 0 -8300.76 0 0 8953.57 0 0 -8953.57 0 0 1221.29 0 0 -1221.29 0 0 1188.71 0 0 -1188.71
0 0 -719.105 0 0 719.105 0 0 23964.4 0 0 -23964.4 0 0 8484.25 0 0 -8484.25 0 0 9234.64 0 0 -9234.64 0 0 1358.52 0 0 -1358.52 0 0 1325.9 0 0 -1325.9
0 0 -737.387 0 0 737.387 0 0 25182.9 0 0 -25182.9 0 0 8715.05 0 0 -8715.05 0 0 9565.17 0 0 -9565.17 0 0 1488.25 0 0 -1488.25 0 0 1454.3 0 0 -1454.3
0 0 -762.04 0 0 762.04 0 0 26396.5 0 0 -26396.5 0 0 9003.63 0 0 -9003.63 0 0 9955.25 0 0 -9955.25 0 0 1607.8 0 0 -1607.8 0 0 1572.14 0 0 -1572.14
0 0 -790.402 0 0 790.402 0 0 27591.3 0 0 -27591.3 0 0 9353.5 0 0 -9353.5 0 0 10362 0 0 -10362 0 0 1715.62 0 0 -1715.62 0 0 1680.81 0 0 -1680.81
0 0 -826.11 0 0 826.11 0 0 28785.7 0 0 -28785.7 0 0 9765.97 0 0 -9765.97 0 0 10830 0 0 -10830 0 0 1811.12 0 0 -1811.12 0 0 1775.96 0 0 -1775.96
0 0 -869.141 0 0 869.141 0 0 29954.7 0 0 -29954.7 0 0 10251.4 0 0 -10251.4 0 0 11352.4 0 0 -11352.4 0 0 1893.73 0 0 -1893.73 0 0 1858.38 0 0 -1858.38
0 0 -923.206 0 0 923.206 0 0 31102.4 0 0 -31102.4 0 0 10812.9 0 0 -10812.9 0 0 11935.8 0 0 -11935.8 0 0 1963.26 0 0 -1963.26 0 0 1925.45 0 0 -1925.45
0 0 -982.745 0 0 982.745 0 0 32231.6 0 0 -32231.6 0 0 11452.4 0 0 -11452.4 0 0 12577.3 0 0 -12577.3 0 0 2019.36 0 0 -2019.36 0 0 1979.35 0 0 -1979.35
0 0 -1055.14 0 0 1055.14 0 0 33335.7 0 0 -33335.7 0 0 12097 0 0 -12097 0 0 13265.9 0 0 -13265.9 0 0 2064.95 0 0 -2064.95 0 0 2020.51 0 0 -2020.51
0 0 -1109.01 0 0 1109.01 0 0 34423.2 0 0 -34423.2 0 0 12817 0 0 -12817 0 0 14001.2 0 0 -14001.2 0 0 2097.34 0 0 -2097.34 0 0 2051.14 0 0 -2051.14
0 0 -1166.83 0 0 1166.83 0 0 35498.3 0 0 -35498.3 0 0 13581 0 0 -13581 0 0 14779.7 0 0 -14779.7 0 0 2120.73 0 0 -2120.73 0 0 2070.57 0 0 -2070.57
0 0 -1245.71 0 0 1245.71 0 0 36564.7 0 0 -36564.7 0 0 14379.7 0 0 -14379.7 0 0 15592.8 0 0 -15592.8 0 0 2135.9 0 0 -2135.9 0 0 2081.72 0 0 -2081.72
0 0 -1328.6 0 0 1328.6 0 0 37618.9 0 0 -37618.9 0 0 15205.6 0 0 -15205.6 0 0 16431.7 0 0 -16431.7 0 0 2144.35 0 0 -2144.35 0 0 2084.36 0 0 -2084.36
0 0 -1403.74 0 0 1403.74 0 0 38657.1 0 0 -38657.1 0 0 16052.1 0 0 -16052.1 0 0 17287.8 0 0 -17287.8 0 0 2147.4 0 0 -2147.4 0 0 2081.31 0 0 -2081.31
0 0 -1478.7 0 0 1478.7 0 0 39682.8 0 0 -39682.8 0 0 16907.8 0 0 -16907.8 0 0 18149.2 0 0 -18149.2 0 0 2147.75 0 0 -2147.75 0 0 2075.96 0 0 -2075.96
0 0 -1558.65 0 0 1558.65 0 0 40695.5 0 0 -40695.5 0 0 17758.6 0 0 -17758.6 0 0 19006.1 0 0 -19006.1 0 0 2148.59 0 0 -2148.59 0 0 2071.53 0 0 -2071.53
0 0 -1638.83 0 0 1638.83 0 0 41693.7 0 0 -41693.7 0 0 18593.5 0 0 -18593.5 0 0 19849.6 0 0 -19849.6 0 0 2153.14 0 0 -2153.14 0 0 2070.98 0 0 -2070.98
0 0 -1712.62 0 0 1712.62 0 0 42675.7 0 0 -42675.7 0 0 19403.8 0 0 -19403.8 0 0 20669.3 0 0 -20669.3 0 0 2164.55 0 0 -2164.55 0 0 2077.12 0 0 -2077.12
0 0 -1782.57 0 0 1782.57 0 0 43631.5 0 0 -43631.5 0 0 20181.2 0 0 -20181.2 0 0 21458.2 0 0 -21458.2 0 0 2185.5 0 0 -2185.5 0 0 2092.71 0 0 -2092.71
0 0 -1849.4 0 0 1849.4 0 0 44559 0 0 -44559 0 0 20917 0 0 -20917 0 0 22207.2 0 0 -22207.2 0 0 2213.68 0 0 -2213.68 0 0 2118.54 0 0 -2118.54
0 0 -1909.42 0 0 1909.42 0 0 45452.3 0 0 -45452.3 0 0 21603.5 0 0 -21603.5 0 0 22909.3 0 0 -22909.3 0 0 2251.18 0 0 -2251.18 0 0 2157.17 0 0 -2157.17
0 0 -1962.33 0 0 1962.33 0 0 46308.6 0 0 -46308.6 0 0 22233.1 0 0 -22233.1 0 0 23557.4 0 0 -23557.4 0 0 2297.98 0 0 -2297.98 0 0 2202.58 0 0 -2202.58
0 0 -2007.1 0 0 2007.1 0 0 47133.7 0 0 -47133.7 0 0 22800.5 0 0 -22800.5 0 0 24146.2 0 0 -24146.2 0 0 2356.81 0 0 -2356.81 0 0 2261.02 0 0 -2261.02
0 0 -2044.94 0 0 2044.94 0 0 47924 0 0 -47924 0 0 23300.6 0 0 -23300.6 0 0 24672 0 0 -24672 0 0 2428.85 0 0 -2428.85 0 0 2332.6 0 0 -2332.6
0 0 -2075.6 0 0 2075.6 0 0 48640.5 0 0 -48640.5 0 0 23731.6 0 0 -23731.6 0 0 25136.9 0 0 -25136.9 0 0 2513.95 0 0 -2513.95 0 0 2417.21 0 0 -2417.21
0 0 -2097.31 0 0 2097.31 0 0 49324 0 0 -49324 0 0 24094.3 0 0 -24094.3 0 0 25537.6 0 0 -25537.6 0 0 2611.37 0 0 -2611.37 0 0 2514.97 0 0 -2514.97
0 0 -2113.81 0 0 2113.81 0 0 49944.4 0 0 -49944.4 0 0 24387 0 0 -24387 0 0 25874.6 0 0 -25874.6 0 0 2720.27 0 0 -2720.27 0 0 2625.54 0 0 -2625.54
0 0 -2122.38 0 0 2122.38 0 0 50517.5 0 0 -50517.5 0 0 24608.8 0 0 -24608.8 0 0 26147.8 0 0 -26147.8 0 0 2839.86 0 0 -2839.86 0 0 2747.45 0 0 -2747.45
0 0 -2121.64 0 0 2121.64 0 0 51036.5 0 0 -51036.5 0 0 24758.6 0 0 -24758.6 0 0 26347.2 0 0 -26347.2 0 0 2969.19 0 0 -2969.19 0 0 2880.16 0 0 -2880.16
0 0 -2113.26 0 0 2113.26 0 0 51492.5 0 0 -51492.5 0 0 24844 0 0 -24844 0 0 26476.5 0 0 -26476.5 0 0 3106.54 0 0 -3106.54 0 0 3021.02 0 0 -3021.02
0 0 -2097.76 0 0 2097.76 0 0 51886.2 0 0 -51886.2 0 0 24873.3 0 0 -24873.3 0 0 26543.4 0 0 -26543.4 0 0 3249.45 0 0 -3249.45 0 0 3168.62 0 0 -3168.62
0 0 -2077.96 0 0 2077.96 0 0 52217.2 0 0 -52217.2 0 0 24855.5 0 0 -24855.5 0 0 26559 0 0 -26559 0 0 3395.42 0 0 -3395.42 0 0 3319.93 0 0 -3319.93
0 0 -2053.45 0 0 2053.45 0 0 52493.3 0 0 -52493.3 0 0 24800.5 0 0 -24800.5 0 0 26530.8 0 0 -26530.8 0 0 3541.94 0 0 -3541.94 0 0 3472.49 0 0 -3472.49
0 0 -2025.4 0 0 2025.4 0 0 52716.9 0 0 -52716.9 0 0 24717 0 0 -24717 0 0 26469.1 0 0 -26469.1 0 0 3686.54 0 0 -3686.54 0 0 3623.41 0 0 -3623.41
0 0 -1996.83 0 0 1996.83 0 0 52896.7 0 0 -52896.7 0 0 24613.3 0 0 -24613.3 0 0 26383.3 0 0 -26383.3 0 0 3826.7 0 0 -3826.7 0 0 3769.88 0 0 -3769.88
0 0 -1967.05 0 0 1967.05 0 0 53043.3 0 0 -53043.3 0 0 24497.4 0 0 -24497.4 0 0 26281.3 0 0 -26281.3 0 0 3959.86 0 0 -3959.86 0 0 3909.16 0 0 -3909.16
0 0 -1938.46 0 0 1938.46 0 0 53160.6 0 0 -53160.6 0 0 24376.8 0 0 -24376.8 0 0 26173.1 0 0 -26173.1 0 0 4083.52 0 0 -4083.52 0 0 4038.64 0 0 -4038.64
0 0 -1925.65 0 0 1925.65 0 0 53263.4 0 0 -53263.4 0 0 24261.3 0 0 -24261.3 0 0 26065.5 0 0 -26065.5 0 0 4195.43 0 0 -4195.43 0 0 4155.92 0 0 -4155.92
0 0 -1894.56 0 0 1894.56 0 0 53359.1 0 0 -53359.1 0 0 24166.4 0 0 -24166.4 0 0 25968.9 0 0 -25968.9 0 0 4292.51 0 0 -4292.51 0 0 4258.69 0 0 -4258.69
0 0 -1858.9 0 0 1858.9 0 0 53454.6 0 0 -53454.6 0 0 24083.7 0 0 -24083.7 0 0 25884.2 0 0 -25884.2 0 0 4374.48 0 0 -4374.48 0 0 4345.09 0 0 -4345.09
0 0 -1846.93 0 0 1846.93 0 0 53565.9 0 0 -53565.9 0 0 24009.9 0 0 -24009.9 0 0 25814.2 0 0 -25814.2 0 0 4439.96 0 0 -4439.96 0 0 4413.53 0 0 -4413.53
0 0 -1846.87 0 0 1846.87 0 0 53695 0 0 -53695 0 0 23951.8 0 0 -23951.8 0 0 25765.2 0 0 -25765.2 0 0 4487.33 0 0 -4487.33 0 0 4462.83 0 0 -4462.83
0 0 -1840.67 0 0 1840.67 0 0 53846.7 0 0 -53846.7 0 0 23917.3 0 0 -23917.3 0 0 25740.2 0 0 -25740.2 0 0 4515.47 0 0 -4515.47 0 0 4491.95 0 0 -4491.95
0 0 -1834.46 0 0 1834.46 0 0 54024.1 0 0 -54024.1 0 0 23907.3 0 0 -23907.3 0 0 25742.4 0 0 -25742.4 0 0 4524 0 0 -4524 0 0 4500.21 0 0 -4500.21
0 0 -1842.29 0 0 1842.29 0 0 54223.8 0 0 -54223.8 0 0 23920.1 0 0 -23920.1 0 0 25773.5 0 0 -25773.5 0 0 4507.9 0 0 -4507.9 0 0 4482.65 0 0 -4482.65
0 0 -1859.9 0 0 1859.9 0 0 54444.6 0 0 -54444.6 0 0 23958.1 0 0 -23958.1 0 0 25832.8 0 0 -25832.8 0 0 4465.82 0 0 -4465.82 0 0 4437.65 0 0 -4437.65
0 0 -1881.41 0 0 1881.41 0 0 54676.8 0 0 -54676.8 0 0 24026.3 0 0 -24026.3 0 0 25923.7 0 0 -25923.7 0 0 4397.51 0 0 -4397.51 0 0 4366.54 0 0 -4366.54
0 0 -1904.16 0 0 1904.16 0 0 54905.1 0 0 -54905.1 0 0 24126.5 0 0 -24126.5 0 0 26047.1 0 0 -26047.1 0 0 4304.18 0 0 -4304.18 0 0 4270.34 0 0 -4270.34
0 0 -1932.61 0 0 1932.61 0 0 55116.7 0 0 -55116.7 0 0 24257 0 0 -24257 0 0 26201.2 0 0 -26201.2 0 0 4187.96 0 0 -4187.96 0 0 4150.74 0 0 -4150.74
0 0 -1969.63 0 0 1969.63 0 0 55295.9 0 0 -55295.9 0 0 24415.9 0 0 -24415.9 0 0 26385.1 0 0 -26385.1 0 0 4051.42 0 0 -4051.42 0 0 4010.01 0 0 -4010.01
0 0 -2008.65 0 0 2008.65 0 0 55433.3 0 0 -55433.3 0 0 24601.2 0 0 -24601.2 0 0 26592.4 0 0 -26592.4 0 0 3897.17 0 0 -3897.17 0 0 3851.14 0 0 -3851.14
0 0 -2047.57 0 0 2047.57 0 0 55511 0 0 -55511 0 0 24808 0 0 -24808 0 0 26818.5 0 0 -26818.5 0 0 3728.2 0 0 -3728.2 0 0 3677.67 0 0 -3677.67
0 0 -2088.96 0 0 2088.96 0 0 55518.7 0 0 -55518.7 0 0 25029.3 0 0 -25029.3 0 0 27055.1 0 0 -27055.1 0 0 3548.15 0 0 -3548.15 0 0 3493.5 0 0 -3493.5
0 0 -2130.03 0 0 2130.03 0 0 55446.8 0 0 -55446.8 0 0 25256 0 0 -25256 0 0 27291.3 0 0 -27291.3 0 0 3361.2 0 0 -3361.2 0 0 3302.78 0 0 -3302.78
0 0 -2170.16 0 0 2170.16 0 0 55239.6 0 0 -55239.6 0 0 25472.4 0 0 -25472.4 0 0 27447.1 0 0 -27447.1 0 0 3172.22 0 0 -3172.22 0 0 3113.47 0 0 -3113.47
0 0 -2209.18 0 0 2209.18 0 0 54925.6 0 0 -54925.6 0 0 25652.2 0 0 -25652.2 0 0 27555.3 0 0 -27555.3 0 0 2986.67 0 0 -2986.67 0 0 2930.49 0 0 -2930.49
0 0 -2235.98 0 0 2235.98 0 0 54479.4 0 0 -54479.4 0 0 25754.7 0 0 -25754.7 0 0 27616.9 0 0 -27616.9 0 0 2809.3 0 0 -2809.3 0 0 2753.03 0 0 -2753.03
0 0 -2247.42 0 0 2247.42 0 0 53902.7 0 0 -53902.7 0 0 25842.2 0 0 -25842.2 0 0 27650.7 0 0 -27650.7 0 0 2639.85 0 0 -2639.85 0 0 2585.46 0 0 -2585.46
0 0 -2256.76 0 0 2256.76 0 0 53200.2 0 0 -53200.2 0 0 25890.5 0 0 -25890.5 0 0 27638.8 0 0 -27638.8 0 0 2484.27 0 0 -2484.27 0 0 2430.29 0 0 -2430.29
0 0 -2265.56 0 0 2265.56 0 0 52377.5 0 0 -52377.5 0 0 25885.9 0 0 -25885.9 0 0 27575 0 0 -27575 0 0 2343.96 0 0 -2343.96 0 0 2292.42 0 0 -2292.42
0 0 -2262.88 0 0 2262.88 0 0 51445.7 0 0 -51445.7 0 0 25817.3 0 0 -25817.3 0 0 27451.4 0 0 -27451.4 0 0 2222.27 0 0 -2222.27 0 0 2173.72 0 0 -2173.72
0 0 -2244.55 0 0 2244.55 0 0 50410.8 0 0 -50410.8 0 0 25677.1 0 0 -25677.1 0 0 27239.8 0 0 -27239.8 0 0 2122.47 0 0 -2122.47 0 0 2078.49 0 0 -2078.49
0 0 -2220.51 0 0 2220.51 0 0 49285.6 0 0 -49285.6 0 0 25443 0 0 -25443 0 0 26922.7 0 0 -26922.7 0 0 2047.55 0 0 -2047.55 0 0 2009.22 0 0 -2009.22
0 0 -2185.45 0 0 2185.45 0 0 48083.9 0 0 -48083.9 0 0 25103.6 0 0 -25103.6 0 0 26486.9 0 0 -26486.9 0 0 1997.83 0 0 -1997.83 0 0 1967.16 0 0 -1967.16
0 0 -2136.01 0 0 2136.01 0 0 46814.3 0 0 -46814.3 0 0 24653.6 0 0 -24653.6 0 0 25934.4 0 0 -25934.4 0 0 1972.96 0 0 -1972.96 0 0 1952.02 0 0 -1952.02
0 0 -2074.25 0 0 2074.25 0 0 45489.8 0 0 -45489.8 0 0 24093.3 0 0 -24093.3 0 0 25264.4 0 0 -25264.4 0 0 1972.31 0 0 -1972.31 0 0 1962.56 0 0 -1962.56
0 0 -2002.57 0 0 2002.57 0 0 44116.3 0 0 -44116.3 0 0 23427.2 0 0 -23427.2 0 0 24481 0 0 -24481 0 0 1994.57 0 0 -1994.57 0 0 1996.7 0 0 -1996.7
0 0 -1923.4 0 0 1923.4 0 0 42693.2 0 0 -42693.2 0 0 22664 0 0 -22664 0 0 23593.5 0 0 -23593.5 0 0 2036.93 0 0 -2036.93 0 0 2051.57 0 0 -2051.57
0 0 -1834.04 0 0 1834.04 0 0 41226.4 0 0 -41226.4 0 0 21815.3 0 0 -21815.3 0 0 22612.7 0 0 -22612.7 0 0 2095.35 0 0 -2095.35 0 0 2123.6 0 0 -2123.6
0 0 -1736.13 0 0 1736.13 0 0 39711.2 0 0 -39711.2 0 0 20894 0 0 -20894 0 0 21554.9 0 0 -21554.9 0 0 2165.28 0 0 -2165.28 0 0 2208.45 0 0 -2208.45
0 0 -1634.23 0 0 1634.23 0 0 38148.4 0 0 -38148.4 0 0 19916.2 0 0 -19916.2 0 0 20435.6 0 0 -20435.6 0 0 2242.13 0 0 -2242.13 0 0 2301.12 0 0 -2301.12
0 0 -1527.87 0 0 1527.87 0 0 36542.5 0 0 -36542.5 0 0 18898.9 0 0 -18898.9 0 0 19271.5 0 0 -19271.5 0 0 2321.08 0 0 -2321.08 0 0 2396.24 0 0 -2396.24
0 0 -1419.46 0 0 1419.46 0 0 34893.1 0 0 -34893.1 0 0 17859.2 0 0 -17859.2 0 0 18081.7 0 0 -18081.7 0 0 2396.95 0 0 -2396.95 0 0 2488.37 0 0 -2488.37
0 0 -1310.97 0 0 1310.97 0 0 33209.6 0 0 -33209.6 0 0 16813.1 0 0 -16813.1 0 0 16882 0 0 -16882 0 0 2464.41 0 0 -2464.41 0 0 2572.16 0 0 -2572.16
0 0 -1204.27 0 0 1204.27 0 0 31497.8 0 0 -31497.8 0 0 15775.5 0 0 -15775.5 0 0 15690.5 0 0 -15690.5 0 0 2518.34 0 0 -2518.34 0 0 2642.45 0 0 -2642.45
0 0 -1102.08 0 0 1102.08 0 0 29765.3 0 0 -29765.3 0 0 14761.1 0 0 -14761.1 0 0 14522.4 0 0 -14522.4 0 0 2554.12 0 0 -2554.12 0 0 2694.39 0 0 -2694.39
0 0 -1004.57 0 0 1004.57 0 0 28021.9 0 0 -28021.9 0 0 13783.1 0 0 -13783.1 0 0 13390.7 0 0 -13390.7 0 0 2567.68 0 0 -2567.68 0 0 2723.56 0 0 -2723.56
0 0 -914.336 0 0 914.336 0 0 26271.9 0 0 -26271.9 0 0 12852.5 0 0 -12852.5 0 0 12309.3 0 0 -12309.3 0 0 2555.49 0 0 -2555.49 0 0 2726.18 0 0 -2726.18
0 0 -831.94 0 0 831.94 0 0 24525.8 0 0 -24525.8 0 0 11978.6 0 0 -11978.6 0 0 11286.8 0 0 -11286.8 0 0 2514.59 0 0 -2514.59 0 0 2699.23 0 0 -2699.23
0 0 -757.961 0 0 757.961 0 0 22785.7 0 0 -22785.7 0 0 11168.1 0 0 -11168.1 0 0 10331.9 0 0 -10331.9 0 0 2442.77 0 0 -2442.77 0 0 2640.49 0 0 -2640.49
0 0 -694.382 0 0 694.382 0 0 21055.4 0 0 -21055.4 0 0 10426.1 0 0 -10426.1 0 0 9449.96 0 0 -9449.96 0 0 2338.73 0 0 -2338.73 0 0 2548.61 0 0 -2548.61
0 0 -639.225 0 0 639.225 0 0 19340.5 0 0 -19340.5 0 0 9755.24 0 0 -9755.24 0 0 8642.36 0 0 -8642.36 0 0 2202.07 0 0 -2202.07 0 0 2423.09 0 0 -2423.09
0 0 -594.04 0 0 594.04 0 0 17635.5 0 0 -17635.5 0 0 9155.1 0 0 -9155.1 0 0 7910.85 0 0 -7910.85 0 0 2033.28 0 0 -2033.28 0 0 2264.38 0 0 -2264.38
0 0 -558.538 0 0 558.538 0 0 15943.2 0 0 -15943.2 0 0 8623.53 0 0 -8623.53 0 0 7251.42 0 0 -7251.42 0 0 1833.66 0 0 -1833.66 0 0 2073.82 0 0 -2073.82
0 0 -529.975 0 0 529.975 0 0 14261.4 0 0 -14261.4 0 0 8155.38 0 0 -8155.38 0 0 6659.08 0 0 -6659.08 0 0 1605.33 0 0 -1605.33 0 0 1853.67 0 0 -1853.67
0 0 -509.522 0 0 509.522 0 0 12584.4 0 0 -12584.4 0 0 7743.32 0 0 -7743.32 0 0 6126.67 0 0 -6126.67 0 0 1351.24 0 0 -1351.24 0 0 1606.99 0 0 -1606.99
0 0 -494.662 0 0 494.662 0 0 10915.7 0 0 -10915.7 0 0 7377.62 0 0 -7377.62 0 0 5642.11 0 0 -5642.11 0 0 1075.05 0 0 -1075.05 0 0 1337.56 0 0 -1337.56
0 0 -484.099 0 0 484.099 0 0 9250.68 0 0 -9250.68 0 0 7046.19 0 0 -7046.19 0 0 5194.78 0 0 -5194.78 0 0 781.023 0 0 -781.023 0 0 1049.77 0 0 -1049.77
0 0 -477.855 0 0 477.855 0 0 7587.24 0 0 -7587.24 0 0 6736.4 0 0 -6736.4 0 0 4770.18 0 0 -4770.18 0 0 473.838 0 0 -473.838 0 0 748.439 0 0 -748.439
0 0 -473.769 0 0 473.769 0 0 5964.88 0 0 -5964.88 0 0 6434.98 0 0 -6434.98 0 0 4351.66 0 0 -4351.66 0 0 158.41 0 0 -158.41 0 0 438.794 0 0 -438.794
0 0 -479.04 0 0 479.04 0 0 4528.5 0 0 -4528.5 0 0 6120.64 0 0 -6120.64 0 0 3894.68 0 0 -3894.68 0 0 -136.45 0 0 136.45 0 0 132.154 0 0 -132.154
0 0 -471.869 0 0 471.869 0 0 3081.37 0 0 -3081.37 0 0 5813.93 0 0 -5813.93 0 0 3441.52 0 0 -3441.52 0 0 -402.003 0 0 402.003 0 0 -134.065 0 0 134.065
0 0 -461.888 0 0 461.888 0 0 1556.46 0 0 -1556.46 0 0 5478.25 0 0 -5478.25 0 0 2963.55 0 0 -2963.55 0 0 -648.574 0 0 648.574 0 0 -379.696 0 0 379.696
0 0 -454.618 0 0 454.618 0 0 18.5914 0 0 -18.5914 0 0 5106.21 0 0 -5106.21 0 0 2447.57 0 0 -2447.57 0 0 -884.385 0 0 884.385 0 0 -627.516 0 0 627.516
0 0 -414.828 0 0 414.828 0 0 -241.183 0 0 241.183 0 0 4723.12 0 0 -4723.12 0 0 2070.07 0 0 -2070.07 0 0 -1115.77 0 0 1115.77 0 0 -872.813 0 0 872.813
0 0 -390.241 0 0 390.241 0 0 11.8665 0 0 -11.8665 0 0 4317.58 0 0 -4317.58 0 0 1638.85 0 0 -1638.85 0 0 -1337.15 0 0 1337.15 0 0 -1101.86 0 0 1101.86
0 0 -433.944 0 0 433.944 0 0 -323.603 0 0 323.603 0 0 3804.3 0 0 -3804.3 0 0 1105.18 0 0 -1105.18 0 0 -1539.48 0 0 1539.48 0 0 -1305.78 0 0 1305.78
0 0 -364.522 0 0 364.522 0 0 -340.874 0 0 340.874 0 0 3251.35 0 0 -3251.35 0 0 539.795 0 0 -539.795 0 0 -1722.05 0 0 1722.05 0 0 -1494.51 0 0 1494.51
0 0 -282.147 0 0 282.147 0 0 -390.314 0 0 390.314 0 0 2619.34 0 0 -2619.34 0 0 -114.162 0 0 114.162 0 0 -1881.57 0 0 1881.57 0 0 -1658.36 0 0 1658.36
0 0 -243.826 0 0 243.826 0 0 -503.349 0 0 503.349 0 0 1895.14 0 0 -1895.14 0 0 -846.843 0 0 846.843 0 0 -2015.1 0 0 2015.1 0 0 -1803.21 0 0 1803.21
0 0 -189.605 0 0 189.605 0 0 -520.006 0 0 520.006 0 0 1106.18 0 0 -1106.18 0 0 -1659.23 0 0 1659.23 0 0 -2127.14 0 0 2127.14 0 0 -1919.08 0 0 1919.08
0 0 -103.379 0 0 103.379 0 0 -563.345 0 0 563.345 0 0 240.599 0 0 -240.599 0 0 -2556.5 0 0 2556.5 0 0 -2217.12 0 0 2217.12 0 0 -2008.47 0 0 2008.47
0 0 0.352888 0 0 -0.352888 0 0 -614.995 0 0 614.995 0 0 -691.305 0 0 691.305 0 0 -3399.72 0 0 3399.72 0 0 -2284.71 0 0 2284.71 0 0 -2079.35 0 0 2079.35
0 0 102.897 0 0 -102.897 0 0 -631.538 0 0 631.538 0 0 -1702.11 0 0 1702.11 0 0 -4305.15 0 0 4305.15 0 0 -2326.14 0 0 2326.14 0 0 -2120.8 0 0 2120.8
0 0 210.104 0 0 -210.104 0 0 -646.608 0 0 646.608 0 0 -2766.71 0 0 2766.71 0 0 -5266.22 0 0 5266.22 0 0 -2342.53 0 0 2342.53 0 0 -2146.4 0 0 2146.4
0 0 324.339 0 0 -324.339 0 0 -669.796 0 0 669.796 0 0 -3817.66 0 0 3817.66 0 0 -6263.58 0 0 6263.58 0 0 -2340.84 0 0 2340.84 0 0 -2145.17 0 0 2145.17
0 0 433.048 0 0 -433.048 0 0 -668.599 0 0 668.599 0 0 -4944.67 0 0 4944.67 0 0 -7310.02 0 0 7310.02 0 0 -2315.25 0 0 2315.25 0 0 -2120.86 0 0 2120.86
0 0 555.061 0 0 -555.061 0 0 -663.819 0 0 663.819 0 0 -6116.34 0 0 6116.34 0 0 -8396.69 0 0 8396.69 0 0 -2268.12 0 0 2268.12 0 0 -2073.03 0 0 2073.03
0 0 688.51 0 0 -688.51 0 0 -657.517 0 0 657.517 0 0 -7313.12 0 0 7313.12 0 0 -9516.32 0 0 9516.32 0 0 -2202.13 0 0 2202.13 0 0 -2007.54 0 0 2007.54
0 0 823.508 0 0 -823.508 0 0 -641.837 0 0 641.837 0 0 -8529.83 0 0 8529.83 0 0 -10658.8 0 0 10658.8 0 0 -2122.47 0 0 2122.47 0 0 -1928.43 0 0 1928.43
0 0 956.464 0 0 -956.464 0 0 -625.824 0 0 625.824 0 0 -9763.54 0 0 9763.54 0 0 -11810 0 0 11810 0 0 -2034.68 0 0 2034.68 0 0 -1840.86 0 0 1840.86
0 0 1075.73 0 0 -1075.73 0 0 -606.15 0 0 606.15 0 0 -10996.1 0 0 10996.1 0 0 -12961.1 0 0 12961.1 0 0 -1943.59 0 0 1943.59 0 0 -1749.06 0 0 1749.06
0 0 1228.86 0 0 -1228.86 0 0 -587.412 0 0 587.412 0 0 -12220 0 0 12220 0 0 -14107.8 0 0 14107.8 0 0 -1852.16 0 0 1852.16 0 0 -1657.21 0 0 1657.21
0 0 1374.6 0 0 -1374.6 0 0 -575.083 0 0 575.083 0 0 -13429.9 0 0 13429.9 0 0 -15245.2 0 0 15245.2 0 0 -1763.98 0 0 1763.98 0 0 -1569.13 0 0 1569.13
0 0 1496.59 0 0 -1496.59 0 0 -558.675 0 0 558.675 0 0 -14623.8 0 0 14623.8 0 0 -16367.5 0 0 16367.5 0 0 -1683.35 0 0 1683.35 0 0 -1489.09 0 0 1489.09
0 0 1614.71 0 0 -1614.71 0 0 -547.976 0 0 547.976 0 0 -15790.9 0 0 15790.9 0 0 -17463.3 0 0 17463.3 0 0 -1615.49 0 0 1615.49 0 0 -1421.08 0 0 1421.08
0 0 1739.22 0 0 -1739.22 0 0 -545.615 0 0 545.615 0 0 -16918.6 0 0 16918.6 0 0 -18523.8 0 0 18523.8 0 0 -1564.27 0 0 1564.27 0 0 -1369.25 0 0 1369.25
0 0 1858.78 0 0 -1858.78 0 0 -548.252 0 0 548.252 0 0 -17999 0 0 17999 0 0 -19543.2 0 0 19543.2 0 0 -1532.34 0 0 1532.34 0 0 -1337.24 0 0 1337.24
0 0 1962.36 0 0 -1962.36 0 0 -560.375 0 0 560.375 0 0 -19026 0 0 19026 0 0 -20512.6 0 0 20512.6 0 0 -1522.31 0 0 1522.31 0 0 -1328.08 0 0 1328.08
0 0 2056.5 0 0 -2056.5 0 0 -581.126 0 0 581.126 0 0 -19992.2 0 0 19992.2 0 0 -21427.4 0 0 21427.4 0 0 -1537.01 0 0 1537.01 0 0 -1344.06 0 0 1344.06
0 0 2147.45 0 0 -2147.45 0 0 -614.34 0 0 614.34 0 0 -20892 0 0 20892 0 0 -22280.8 0 0 22280.8 0 0 -1578.6 0 0 1578.6 0 0 -1386.86 0 0 1386.86
0 0 2226.99 0 0 -2226.99 0 0 -659.902 0 0 659.902 0 0 -21720.2 0 0 21720.2 0 0 -23068.9 0 0 23068.9 0 0 -1648.13 0 0 1648.13 0 0 -1457.56 0 0 1457.56
0 0 2296.49 0 0 -2296.49 0 0 -716.285 0 0 716.285 0 0 -22473.4 0 0 22473.4 0 0 -23790.9 0 0 23790.9 0 0 -1745.7 0 0 1745.7 0 0 -1556.61 0 0 1556.61
0 0 2357.61 0 0 -2357.61 0 0 -788.412 0 0 788.412 0 0 -23150.5 0 0 23150.5 0 0 -24444.1 0 0 24444.1 0 0 -1870.81 0 0 1870.81 0 0 -1683.62 0 0 1683.62
0 0 2411.28 0 0 -2411.28 0 0 -870.881 0 0 870.881 0 0 -23753.3 0 0 23753.3 0 0 -25031.5 0 0 25031.5 0 0 -2022.34 0 0 2022.34 0 0 -1837.38 0 0 1837.38
0 0 2457.27 0 0 -2457.27 0 0 -965.77 0 0 965.77 0 0 -24287 0 0 24287 0 0 -25556 0 0 25556 0 0 -2198.39 0 0 2198.39 0 0 -2015.8 0 0 2015.8
0 0 2495.16 0 0 -2495.16 0 0 -1072.51 0 0 1072.51 0 0 -24758.4 0 0 24758.4 0 0 -26023.5 0 0 26023.5 0 0 -2396.2 0 0 2396.2 0 0 -2216.04 0 0 2216.04
0 0 2529.35 0 0 -2529.35 0 0 -1184.37 0 0 1184.37 0 0 -25174.8 0 0 25174.8 0 0 -26442.8 0 0 26442.8 0 0 -2586.61 0 0 2586.61 0 0 -2415.25 0 0 2415.25
0 0 2584.4 0 0 -2584.4 0 0 -1308.34 0 0 1308.34 0 0 -25548.1 0 0 25548.1 0 0 -26808.3 0 0 26808.3 0 0 -2774.25 0 0 2774.25 0 0 -2597.43 0 0 2597.43
0 0 2593.01 0 0 -2593.01 0 0 -1430.75 0 0 1430.75 0 0 -25902.8 0 0 25902.8 0 0 -27152.3 0 0 27152.3 0 0 -2959.22 0 0 2959.22 0 0 -2798.12 0 0 2798.12
0 0 2600.04 0 0 -2600.04 0 0 -1485.21 0 0 1485.21 0 0 -26250.8 0 0 26250.8 0 0 -27506.4 0 0 27506.4 0 0 -3148.23 0 0 3148.23 0 0 -3001.01 0 0 3001.01
0 0 2629.11 0 0 -2629.11 0 0 -1722.8 0 0 1722.8 0 0 -26609.5 0 0 26609.5 0 0 -27885.1 0 0 27885.1 0 0 -3340.71 0 0 3340.71 0 0 -3202.4 0 0 3202.4
0 0 2672.12 0 0 -2672.12 0 0 -1790.79 0 0 1790.79 0 0 -26976.5 0 0 26976.5 0 0 -28262.7 0 0 28262.7 0 0 -3533.79 0 0 3533.79 0 0 -3402.74 0 0 3402.74
0 0 2688.67 0 0 -2688.67 0 0 -1894.07 0 0 1894.07 0 0 -27377.4 0 0 27377.4 0 0 -28678.5 0 0 28678.5 0 0 -3721.46 0 0 3721.46 0 0 -3595.48 0 0 3595.48
0 0 2702.54 0 0 -2702.54 0 0 -2016.96 0 0 2016.96 0 0 -27817.3 0 0 27817.3 0 0 -29132.3 0 0 29132.3 0 0 -3899.46 0 0 3899.46 0 0 -3782.11 0 0 3782.11
0 0 2742.43 0 0 -2742.43 0 0 -2091.13 0 0 2091.13 0 0 -28294.2 0 0 28294.2 0 0 -29621.3 0 0 29621.3 0 0 -4067.23 0 0 4067.23 0 0 -3957.85 0 0 3957.85
0 0 2787.23 0 0 -2787.23 0 0 -2180.84 0 0 2180.84 0 0 -28803.1 0 0 28803.1 0 0 -30130.1 0 0 30130.1 0 0 -4224.54 0 0 4224.54 0 0 -4123.09 0 0 4123.09
0 0 2823.63 0 0 -2823.63 0 0 -2254.69 0 0 2254.69 0 0 -29366.5 0 0 29366.5 0 0 -30680.3 0 0 30680.3 0 0 -4368.64 0 0 4368.64 0 0 -4273.6 0 0 4273.6
0 0 2865.8 0 0 -2865.8 0 0 -2312.14 0 0 2312.14 0 0 -29980.6 0 0 29980.6 0 0 -31278.9 0 0 31278.9 0 0 -4497.84 0 0 4497.84 0 0 -4408.31 0 0 4408.31
0 0 2921.22 0 0 -2921.22 0 0 -2361.88 0 0 2361.88 0 0 -30646.9 0 0 30646.9 0 0 -31925.3 0 0 31925.3 0 0 -4610.64 0 0 4610.64 0 0 -4525.54 0 0 4525.54
0 0 2985.74 0 0 -2985.74 0 0 -2395.15 0 0 2395.15 0 0 -31366.9 0 0 31366.9 0 0 -32619.7 0 0 32619.7 0 0 -4706.22 0 0 4706.22 0 0 -4625.57 0 0 4625.57
0 0 3052.23 0 0 -3052.23 0 0 -2414.76 0 0 2414.76 0 0 -32142.1 0 0 32142.1 0 0 -33359.7 0 0 33359.7 0 0 -4784.86 0 0 4784.86 0 0 -4708.08 0 0 4708.08
0 0 3121.33 0 0 -3121.33 0 0 -2426.69 0 0 2426.69 0 0 -32970.4 0 0 32970.4 0 0 -34148.3 0 0 34148.3 0 0 -4847.09 0 0 4847.09 0 0 -4773.36 0 0 4773.36
0 0 3198.33 0 0 -3198.33 0 0 -2426.73 0 0 2426.73 0 0 -33846 0 0 33846 0 0 -34978.7 0 0 34978.7 0 0 -4893.81 0 0 4893.81 0 0 -4822.08 0 0 4822.08
0 0 3280.65 0 0 -3280.65 0 0 -2416.61 0 0 2416.61 0 0 -34762.1 0 0 34762.1 0 0 -35845 0 0 35845 0 0 -4925.91 0 0 4925.91 0 0 -4855.41 0 0 4855.41
0 0 3366.09 0 0 -3366.09 0 0 -2396.21 0 0 2396.21 0 0 -35711.6 0 0 35711.6 0 0 -36741.6 0 0 36741.6 0 0 -4944.64 0 0 4944.64 0 0 -4875.03 0 0 4875.03
0 0 3452.94 0 0 -3452.94 0 0 -2369.09 0 0 2369.09 0 0 -36684.4 0 0 36684.4 0 0 -37657.8 0 0 37657.8 0 0 -4951.01 0 0 4951.01 0 0 -4882.28 0 0 4882.28
0 0 3571.93 0 0 -3571.93 0 0 -2255 0 0 2255 0 0 -37500.7 0 0 37500.7 0 0 -38270.6 0 0 38270.6 0 0 -4950.11 0 0 4950.11 0 0 -4892.95 0 0 4892.95
0 0 3620.23 0 0 -3620.23 0 0 -2445.78 0 0 2445.78 0 0 -37500.5 0 0 37500.5 0 0 -38363.4 0 0 38363.4 0 0 -4995.26 0 0 4995.26 0 0 -4925.88 0 0 4925.88
0 0 3486.18 0 0 -3486.18 0 0 -2470.32 0 0 2470.32 0 0 -37615.8 0 0 37615.8 0 0 -38473.6 0 0 38473.6 0 0 -5011.55 0 0 5011.55 0 0 -4949.64 0 0 4949.64
0 0 3460.78 0 0 -3460.78 0 0 -2484.87 0 0 2484.87 0 0 -37754.5 0 0 37754.5 0 0 -38636.5 0 0 38636.5 0 0 -5028.09 0 0 5028.09 0 0 -4959.24 0 0 4959.24
0 0 3557.72 0 0 -3557.72 0 0 -2562.64 0 0 2562.64 0 0 -37866.5 0 0 37866.5 0 0 -38746.6 0 0 38746.6 0 0 -5035.78 0 0 5035.78 0 0 -4970.26 0 0 4970.26
0 0 3527.52 0 0 -3527.52 0 0 -2592.99 0 0 2592.99 0 0 -37953 0 0 37953 0 0 -38823.6 0 0 38823.6 0 0 -5033.86 0 0 5033.86 0 0 -4969.52 0 0 4969.52
0 0 3487.36 0 0 -3487.36 0 0 -2638.49 0 0 2638.49 0 0 -38029.2 0 0 38029.2 0 0 -38918 0 0 38918 0 0 -5024.82 0 0 5024.82 0 0 -4954.06 0 0 4954.06
0 0 3528.82 0 0 -3528.82 0 0 -2683.89 0 0 2683.89 0 0 -38092.1 0 0 38092.1 0 0 -38963.4 0 0 38963.4 0 0 -5007.4 0 0 5007.4 0 0 -4938.96 0 0 4938.96
0 0 3541.85 0 0 -3541.85 0 0 -2730.26 0 0 2730.26 0 0 -38133.6 0 0 38133.6 0 0 -39008.6 0 0 39008.6 0 0 -4981.54 0 0 4981.54 0 0 -4911.22 0 0 4911.22
0 0 3522.82 0 0 -3522.82 0 0 -2770.27 0 0 2770.27 0 0 -38161.4 0 0 38161.4 0 0 -39044.3 0 0 39044.3 0 0 -4950.31 0 0 4950.31 0 0 -4880.61 0 0 4880.61
0 0 3534.72 0 0 -3534.72 0 0 -2815.37 0 0 2815.37 0 0 -38181.2 0 0 38181.2 0 0 -39056 0 0 39056 0 0 -4916.5 0 0 4916.5 0 0 -4844.86 0 0 4844.86
0 0 3550.06 0 0 -3550.06 0 0 -2859 0 0 2859 0 0 -38190.5 0 0 38190.5 0 0 -39066.8 0 0 39066.8 0 0 -4879.08 0 0 4879.08 0 0 -4805.55 0 0 4805.55
0 0 3539.89 0 0 -3539.89 0 0 -2897.22 0 0 2897.22 0 0 -38189.8 0 0 38189.8 0 0 -39065.5 0 0 39065.5 0 0 -4838.45 0 0 4838.45 0 0 -4765.53 0 0 4765.53
0 0 3552.89 0 0 -3552.89 0 0 -2933.85 0 0 2933.85 0 0 -38181.3 0 0 38181.3 0 0 -39056.7 0 0 39056.7 0 0 -4797.4 0 0 4797.4 0 0 -4724.14 0 0 4724.14
0 0 3568.74 0 0 -3568.74 0 0 -2967.69 0 0 2967.69 0 0 -38168.4 0 0 38168.4 0 0 -39044.4 0 0 39044.4 0 0 -4757.29 0 0 4757.29 0 0 -4682.47 0 0 4682.47
0 0 3567.34 0 0 -3567.34 0 0 -2995.45 0 0 2995.45 0 0 -38151.9 0 0 38151.9 0 0 -39025.4 0 0 39025.4 0 0 -4717.99 0 0 4717.99 0 0 -4642.44 0 0 4642.44
0 0 3567.91 0 0 -3567.91 0 0 -3019.64 0 0 3019.64 0 0 -38132 0 0 38132 0 0 -39005.4 0 0 39005.4 0 0 -4680.17 0 0 4680.17 0 0 -4604.19 0 0 4604.19
0 0 3573.47 0 0 -3573.47 0 0 -3039.8 0 0 3039.8 0 0 -38110.9 0 0 38110.9 0 0 -38984 0 0 38984 0 0 -4645.3 0 0 4645.3 0 0 -4569.06 0 0 4569.06
0 0 3571.72 0 0 -3571.72 0 0 -3054.28 0 0 3054.28 0 0 -38090.2 0 0 38090.2 0 0 -38961.6 0 0 38961.6 0 0 -4614.59 0 0 4614.59 0 0 -4537.61 0 0 4537.61
0 0 3567.81 0 0 -3567.81 0 0 -3063.59 0 0 3063.59 0 0 -38070.4 0 0 38070.4 0 0 -38941 0 0 38941 0 0 -4588.51 0 0 4588.51 0 0 -4510.76 0 0 4510.76
0 0 3568.16 0 0 -3568.16 0 0 -3069.63 0 0 3069.63 0 0 -38052.1 0 0 38052.1 0 0 -38921.9 0 0 38921.9 0 0 -4567.49 0 0 4567.49 0 0 -4489.54 0 0 4489.54
0 0 3567.24 0 0 -3567.24 0 0 -3073.54 0 0 3073.54 0 0 -38035.9 0 0 38035.9 0 0 -38905.3 0 0 38905.3 0 0 -4552.26 0 0 4552.26 0 0 -4474.25 0 0 4474.25
0 0 3564.88 0 0 -3564.88 0 0 -3072.15 0 0 3072.15 0 0 -38013.2 0 0 38013.2 0 0 -38877 0 0 38877 0 0 -4543.61 0 0 4543.61 0 0 -4465.97 0 0 4465.97
0 0 3562.1 0 0 -3562.1 0 0 -3088.88 0 0 3088.88 0 0 -37886.7 0 0 37886.7 0 0 -38749.6 0 0 38749.6 0 0 -4547.82 0 0 4547.82 0 0 -4470.79 0 0 4470.79
0 0 3537.86 0 0 -3537.86 0 0 -3114.17 0 0 3114.17 0 0 -37656.7 0 0 37656.7 0 0 -38513.6 0 0 38513.6 0 0 -4563.46 0 0 4563.46 0 0 -4487.51 0 0 4487.51
0 0 3505.74 0 0 -3505.74 0 0 -3153.15 0 0 3153.15 0 0 -37323.4 0 0 37323.4 0 0 -38170.8 0 0 38170.8 0 0 -4589.09 0 0 4589.09 0 0 -4515.31 0 0 4515.31
0 0 3473.49 0 0 -3473.49 0 0 -3202.93 0 0 3202.93 0 0 -36896.1 0 0 36896.1 0 0 -37733.8 0 0 37733.8 0 0 -4621.92 0 0 4621.92 0 0 -4550.42 0 0 4550.42
0 0 3442.7 0 0 -3442.7 0 0 -3262.03 0 0 3262.03 0 0 -36398.3 0 0 36398.3 0 0 -37220 0 0 37220 0 0 -4657.66 0 0 4657.66 0 0 -4589.3 0 0 4589.3
0 0 3385.59 0 0 -3385.59 0 0 -3324.59 0 0 3324.59 0 0 -35850.9 0 0 35850.9 0 0 -36650.1 0 0 36650.1 0 0 -4691.64 0 0 4691.64 0 0 -4627.05 0 0 4627.05
0 0 3334.19 0 0 -3334.19 0 0 -3390.41 0 0 3390.41 0 0 -35264.5 0 0 35264.5 0 0 -36041.3 0 0 36041.3 0 0 -4720.1 0 0 4720.1 0 0 -4659.27 0 0 4659.27
0 0 3293.04 0 0 -3293.04 0 0 -3456.53 0 0 3456.53 0 0 -34656.4 0 0 34656.4 0 0 -35412.1 0 0 35412.1 0 0 -4738.55 0 0 4738.55 0 0 -4681.26 0 0 4681.26
0 0 3243.58 0 0 -3243.58 0 0 -3517.52 0 0 3517.52 0 0 -34048.6 0 0 34048.6 0 0 -34782.2 0 0 34782.2 0 0 -4742.37 0 0 4742.37 0 0 -4688.59 0 0 4688.59
0 0 3195.81 0 0 -3195.81 0 0 -3571.94 0 0 3571.94 0 0 -33455.3 0 0 33455.3 0 0 -34168.1 0 0 34168.1 0 0 -4728 0 0 4728 0 0 -4677.35 0 0 4677.35
0 0 3158.83 0 0 -3158.83 0 0 -3618.32 0 0 3618.32 0 0 -32889.9 0 0 32889.9 0 0 -33585.2 0 0 33585.2 0 0 -4692.44 0 0 4692.44 0 0 -4644.18 0 0 4644.18
0 0 3125.69 0 0 -3125.69 0 0 -3653.47 0 0 3653.47 0 0 -32367.8 0 0 32367.8 0 0 -33047.9 0 0 33047.9 0 0 -4633.07 0 0 4633.07 0 0 -4586.62 0 0 4586.62
0 0 3097.57 0 0 -3097.57 0 0 -3675.5 0 0 3675.5 0 0 -31901 0 0 31901 0 0 -32568.9 0 0 32568.9 0 0 -4548.35 0 0 4548.35 0 0 -4503.04 0 0 4503.04
0 0 3079.77 0 0 -3079.77 0 0 -3683.49 0 0 3683.49 0 0 -31498.4 0 0 31498.4 0 0 -32158.3 0 0 32158.3 0 0 -4437.86 0 0 4437.86 0 0 -4392.84 0 0 4392.84
0 0 3070.94 0 0 -3070.94 0 0 -3675.64 0 0 3675.64 0 0 -31168.2 0 0 31168.2 0 0 -31824 0 0 31824 0 0 -4302.17 0 0 4302.17 0 0 -4256.52 0 0 4256.52
0 0 3069.88 0 0 -3069.88 0 0 -3651.1 0 0 3651.1 0 0 -30917.5 0 0 30917.5 0 0 -31571.5 0 0 31571.5 0 0 -4142.79 0 0 4142.79 0 0 -4095.79 0 0 4095.79
0 0 3074.5 0 0 -3074.5 0 0 -3610.06 0 0 3610.06 0 0 -30747.5 0 0 30747.5 0 0 -31401.6 0 0 31401.6 0 0 -3962.65 0 0 3962.65 0 0 -3913.6 0 0 3913.6
0 0 3085.68 0 0 -3085.68 0 0 -3554.55 0 0 3554.55 0 0 -30652.6 0 0 30652.6 0 0 -31308.9 0 0 31308.9 0 0 -3766.03 0 0 3766.03 0 0 -3714.27 0 0 3714.27
