0.0025 1.39e-05
0.0125 1.38966e-05
0.0225 1.38851e-05
0.035 1.3884e-05
0.045 1.39141e-05
0.055 1.39971e-05
0.065 1.41567e-05
0.075 1.44167e-05
0.085 1.47985e-05
0.095 1.53182e-05
0.105 1.59844e-05
0.115 1.67938e-05
0.125 1.77261e-05
0.135 1.87528e-05
0.145 1.98183e-05
0.155 2.0842e-05
0.165 2.17118e-05
0.175 2.22784e-05
0.185 2.2352e-05
0.195 2.1701e-05
0.205 2.00538e-05
0.215 1.7103e-05
0.225 1.25127e-05
0.235 5.92651e-06
0.245 -3.03336e-06
0.255 -1.47303e-05
0.265 -2.95134e-05
0.275 -4.77183e-05
0.285 -6.9633e-05
0.295 -9.54676e-05
0.305 -0.000125327
0.315 -0.00015917
0.325 -0.000196745
0.335 -0.000237599
0.345 -0.000281057
0.355 -0.000326218
0.365 -0.000371977
0.375 -0.000417038
0.385 -0.000459973
0.395 -0.000499271
0.405 -0.00053331
0.415 -0.000560496
0.425 -0.000579289
0.435 -0.000588254
0.445 -0.000586106
0.455 -0.000571746
0.465 -0.000544315
0.475 -0.000503211
0.485 -0.00044813
0.495 -0.000379096
0.5075 -0.000273803
0.52 -0.000148933
0.5325 -7.03416e-06
0.545 0.000148458
0.5575 0.000313303
0.57 0.000482623
0.5825 0.000651325
0.595 0.000814403
0.6075 0.000967357
0.62 0.00110657
0.6325 0.00122969
0.645 0.00133576
0.6575 0.00142538
0.67 0.00150055
0.6825 0.00156464
0.695 0.00162206
0.7075 0.00167803
0.72 0.00173818
0.7325 0.00180827
0.745 0.00189371
0.7575 0.0019992
0.77 0.00212834
0.7825 0.00228334
0.795 0.00246482
0.8075 0.00267179
0.82 0.00290163
0.8325 0.00315018
0.845 0.00341196
0.8575 0.00368038
0.87 0.0039481
0.8825 0.00420729
0.895 0.00445009
0.9075 0.00466896
0.92 0.004857
0.9325 0.00500835
0.945 0.00511841
0.9575 0.00518404
0.97 0.0052037
0.9825 0.00517756
0.995 0.00510753
1.005 0.0050223
1.0175 0.00488353
1.03 0.00471495
1.0425 0.00452406
1.055 0.00431905
1.0675 0.00410842
1.08 0.00390043
1.0925 0.00370272
1.105 0.00352178
1.1175 0.00336265
1.13 0.00322855
1.1425 0.00312067
1.155 0.00303809
1.1675 0.00297772
1.18 0.00293442
1.1925 0.00290119
1.205 0.00286939
1.2175 0.00282912
1.23 0.00276962
1.2425 0.00267988
1.255 0.00254912
1.2675 0.00236756
1.28 0.00212652
1.2925 0.0018196
1.305 0.00144271
1.3175 0.000994515
1.33 0.000476767
1.3425 -0.000105671
1.355 -0.000744827
1.3675 -0.00143001
1.38 -0.00214852
1.3925 -0.00288563
1.405 -0.00362541
1.4175 -0.00435122
1.43 -0.0050464
1.4425 -0.00569489
1.455 -0.00628189
1.4675 -0.0067945
1.48 -0.00722613
1.4925 -0.00756944
1.505 -0.0078148
1.5175 -0.00797011
1.53 -0.0080355
1.5425 -0.0080166
1.555 -0.00792041
1.5675 -0.00776023
1.58 -0.00755056
1.5925 -0.00730463
1.605 -0.00703766
1.6175 -0.00676488
1.63 -0.00649882
1.6425 -0.00619056
1.655 -0.00590588
1.6675 -0.00562369
1.68 -0.00533747
1.6925 -0.00508156
1.705 -0.00486177
1.7175 -0.00466964
1.73 -0.00451732
1.7425 -0.00440299
1.755 -0.00431822
1.7675 -0.00426306
1.78 -0.00423237
1.7925 -0.00421365
1.805 -0.00419841
1.8175 -0.0041796
1.83 -0.00414329
1.8425 -0.00408899
1.855 -0.00401141
1.8675 -0.00390952
1.88 -0.00378131
1.8925 -0.00362867
1.905 -0.00345476
1.9175 -0.00326499
1.93 -0.00306613
1.9425 -0.00286714
1.955 -0.00267878
1.9675 -0.00251178
1.98 -0.00237844
1.9925 -0.00228997
2.0025 -0.00225944
2.0125 -0.00227727
2.0225 -0.002349
2.0325 -0.00245776
2.0425 -0.00261232
2.0525 -0.00280971
2.0625 -0.00304932
2.0725 -0.00333247
2.0825 -0.00365807
2.0925 -0.00402148
2.1025 -0.00441733
2.1125 -0.00483951
2.1225 -0.00528112
2.1325 -0.00573457
2.1425 -0.00619164
2.1525 -0.00664375
2.1625 -0.00708223
2.1725 -0.00749857
2.1825 -0.00788449
2.1925 -0.00823228
2.2025 -0.00853658
2.2125 -0.00879041
2.2225 -0.00899028
2.2325 -0.00913121
2.2425 -0.00921297
2.2525 -0.00923106
2.2625 -0.00918318
2.2725 -0.00907052
2.2825 -0.00889456
2.2925 -0.00865814
2.3025 -0.00836419
2.3125 -0.00801608
2.3225 -0.00761828
2.3325 -0.00717652
2.3425 -0.00669727
2.3525 -0.00618707
2.3625 -0.00565231
2.3725 -0.00509933
2.3825 -0.00453465
2.3925 -0.00396476
2.4025 -0.00339579
2.4125 -0.00283329
2.4225 -0.00228151
2.4325 -0.00174394
2.4425 -0.00122656
2.4525 -0.000730645
2.4625 -0.000258445
2.4725 0.000187803
2.4825 0.000606371
2.4925 0.000996224
2.5025 0.00135712
2.5125 0.00168985
2.5225 0.0019983
2.5325 0.00228359
2.5425 0.00254463
2.5525 0.00278552
2.5625 0.00300776
2.5725 0.00321357
2.5825 0.00340549
2.5925 0.00358562
2.6025 0.00375572
2.6125 0.00391757
2.6225 0.00407301
2.6325 0.00422352
2.6425 0.00437003
2.6525 0.00451321
2.6625 0.00465353
2.6725 0.00479111
2.6825 0.00492569
2.6925 0.0050566
2.7025 0.00518288
2.7125 0.00530329
2.7225 0.00541608
2.7325 0.00551924
2.7425 0.00561052
2.7525 0.00568741
2.7625 0.00574731
2.7725 0.00578758
2.7825 0.00580562
2.7925 0.00579898
2.8025 0.00576542
2.8125 0.00570317
2.8225 0.00561076
2.8325 0.00548733
2.8425 0.00533265
2.8525 0.00514723
2.8625 0.00493224
2.8725 0.00468958
2.8825 0.00442188
2.8925 0.00413249
2.9025 0.00382545
2.9125 0.00350538
2.9225 0.00317734
2.9325 0.0028468
2.9425 0.00251947
2.9525 0.00220122
2.9625 0.00189805
2.9725 0.0016171
2.9825 0.00136177
2.9925 0.00113801
3.0025 0.000950862
3.0125 0.000800942
3.0225 0.000693717
3.0325 0.000631243
3.0425 0.000615951
3.0525 0.000649209
3.0625 0.000731587
3.0725 0.000863077
3.0825 0.00104307
3.0925 0.00126958
3.1025 0.00153955
3.1125 0.00184919
3.1225 0.00219379
3.1325 0.00256785
3.1425 0.0029651
3.1525 0.00337856
3.1625 0.00380066
3.1725 0.00422349
3.1825 0.00463884
3.1925 0.00503843
3.2025 0.00541402
3.2125 0.00575763
3.2225 0.00606174
3.2325 0.00631945
3.2425 0.0065247
3.2525 0.00667257
3.2625 0.00676164
3.2725 0.00678511
3.2825 0.00674112
3.2925 0.00663234
3.3025 0.00645897
3.3125 0.00622288
3.3225 0.00592712
3.3325 0.00557599
3.3425 0.00517499
3.3525 0.00473021
3.3625 0.00424817
3.3725 0.00373584
3.3825 0.00320097
3.3925 0.00265111
3.4025 0.00209267
3.4125 0.00153326
3.4225 0.000979836
3.4325 0.000439442
3.4425 -8.53004e-05
3.4525 -0.000584938
3.4625 -0.00105699
3.4725 -0.00149935
3.4825 -0.00191011
3.4925 -0.00228814
3.5025 -0.00263296
3.5125 -0.00294573
3.5225 -0.00323065
3.5325 -0.00348832
3.5425 -0.00372151
3.5525 -0.00393382
3.5625 -0.00412872
3.5725 -0.00431077
3.5825 -0.00448416
3.5925 -0.00465297
3.6025 -0.0048208
3.6125 -0.00499084
3.6225 -0.00516581
3.6325 -0.0053477
3.6425 -0.00553763
3.6525 -0.00573568
3.6625 -0.00594095
3.6725 -0.00615168
3.6825 -0.00636543
3.6925 -0.00657846
3.7025 -0.00678565
3.7125 -0.00698354
3.7225 -0.0071664
3.7325 -0.00732909
3.7425 -0.00746626
3.7525 -0.00757259
3.7625 -0.00764323
3.7725 -0.00767376
3.7825 -0.00766053
3.7925 -0.00760078
3.8025 -0.00749283
3.8125 -0.00733584
3.8225 -0.0071303
3.8325 -0.00687803
3.8425 -0.00658204
3.8525 -0.00624656
3.8625 -0.00587689
3.8725 -0.00547933
3.8825 -0.00506121
3.8925 -0.00463072
3.9025 -0.00419654
3.9125 -0.00376842
3.9225 -0.00335632
3.9325 -0.00296634
3.9425 -0.00260618
3.9525 -0.00228433
3.9625 -0.00200851
3.9725 -0.00178333
3.9825 -0.00161325
3.9925 -0.00150474
4.0025 -0.00145837
4.0125 -0.00146751
4.0225 -0.00153726
4.0325 -0.00166507
4.0425 -0.0018483
4.0525 -0.00208319
4.0625 -0.00236397
4.0725 -0.00268442
4.0825 -0.00303823
4.0925 -0.00341757
4.1025 -0.0038153
4.1125 -0.0042238
4.1225 -0.00463511
4.1325 -0.00504132
4.1425 -0.00543536
4.1525 -0.00581087
4.1625 -0.00616174
4.1725 -0.00648285
4.1825 -0.00676966
4.1925 -0.00701869
4.2025 -0.00722746
4.2125 -0.00739467
4.2225 -0.00751997
4.2325 -0.00760393
4.2425 -0.007648
4.2525 -0.0076546
4.2625 -0.00762684
4.2725 -0.00756858
4.2825 -0.00748426
4.2925 -0.00737874
4.3025 -0.0072572
4.3125 -0.00712502
4.3225 -0.00698762
4.3325 -0.00685032
4.3425 -0.00671814
4.3525 -0.00659563
4.3625 -0.00648678
4.3725 -0.0063948
4.3825 -0.00632209
4.3925 -0.00627004
4.4025 -0.00623903
4.4125 -0.00622838
4.4225 -0.00623636
4.4325 -0.0062602
4.4425 -0.00629623
4.4525 -0.00633993
4.4625 -0.00638605
4.4725 -0.00642881
4.4825 -0.00646202
4.4925 -0.00647933
4.5025 -0.00647438
4.5125 -0.00644101
4.5225 -0.00637348
4.5325 -0.0062666
4.5425 -0.00611594
4.5525 -0.00591795
4.5625 -0.00566944
4.5725 -0.00536801
4.5825 -0.005017
4.5925 -0.00461644
4.6025 -0.00416951
4.6125 -0.00367967
4.6225 -0.00315144
4.6325 -0.00259065
4.6425 -0.00200453
4.6525 -0.00139968
4.6625 -0.00078401
4.6725 -0.000168991
4.6825 0.000438849
4.6925 0.00103043
4.7025 0.00159567
4.7125 0.0021276
4.7225 0.00261725
4.7325 0.00305891
4.7425 0.00344874
4.7525 0.00377983
4.7625 0.00404998
4.7725 0.00425745
4.7825 0.00440187
4.7925 0.00448459
4.8025 0.00450878
4.8125 0.0044791
4.8225 0.00440342
4.8325 0.00428449
4.8425 0.00413128
4.8525 0.00395183
4.8625 0.00375501
4.8725 0.0035504
4.8825 0.00334736
4.8925 0.00315524
4.9025 0.00298289
4.9125 0.00283857
4.9225 0.00272966
4.9325 0.0026634
4.9425 0.00265668
4.9525 0.00286953
4.9625 0.00279858
4.9725 0.00283235
4.9825 0.00296046
4.9925 0.00300074
5.0025 0.00316132
5.0125 0.00330925
5.0225 0.00347598
5.0325 0.00367072
5.0425 0.00387653
5.0525 0.00410443
5.0625 0.00434355
5.0725 0.00458682
5.0825 0.00483366
5.0925 0.00508012
5.1025 0.00532345
5.1125 0.00555967
5.1225 0.00578499
5.1325 0.00599722
5.1425 0.00619307
5.1525 0.00637117
5.1625 0.00653044
5.1725 0.00666975
5.1825 0.00678867
5.1925 0.00688698
5.2025 0.00696493
5.2125 0.00701882
5.2225 0.00698878
5.2325 0.00694092
5.2425 0.00689023
5.2525 0.00679714
5.2625 0.00663694
5.2725 0.00645528
5.2825 0.00625804
5.2925 0.00604168
5.3025 0.00580961
5.3125 0.00557207
5.3225 0.00533572
5.3325 0.00509911
5.3425 0.00487067
5.3525 0.00465936
5.3625 0.00445758
5.3725 0.00426947
5.3825 0.00409544
5.3925 0.00393832
5.4025 0.00380125
5.4125 0.00368396
5.4225 0.00358642
5.4325 0.0035094
5.4425 0.00345397
5.4525 0.00341956
5.4625 0.00340505
5.4725 0.00340915
5.4825 0.00343036
5.4925 0.00346673
5.5025 0.00351633
5.5125 0.00357743
5.5225 0.00364824
5.5325 0.0037267
5.5425 0.00381085
5.5525 0.00389907
5.5625 0.00399012
5.5725 0.00408289
5.5825 0.00417632
5.5925 0.00426942
5.6025 0.00436139
5.6125 0.00445155
5.6225 0.00453931
5.6325 0.00462403
5.6425 0.00470512
5.6525 0.00478203
5.6625 0.00485435
5.6725 0.00492178
5.6825 0.0049841
5.6925 0.00504121
5.7025 0.00509312
5.7125 0.00513998
5.7225 0.0051821
5.7325 0.00521994
5.7425 0.00525407
5.7525 0.00528525
5.7625 0.00531434
5.7725 0.00534234
5.7825 0.00537032
5.7925 0.00539931
5.8025 0.00543032
5.8125 0.00546412
5.8225 0.00550138
5.8325 0.00554259
5.8425 0.00558792
5.8525 0.00563707
5.8625 0.00568934
5.8725 0.00574367
5.8825 0.00579855
5.8925 0.00585207
5.9025 0.00590197
5.9125 0.00594578
5.9225 0.0059808
5.9325 0.00600423
5.9425 0.00601324
5.9525 0.00600508
5.9625 0.00597713
5.9725 0.00592702
5.9825 0.00585272
5.9925 0.00575263
6.0025 0.00562563
6.0125 0.00547114
6.0225 0.00528918
6.0325 0.00508035
6.0425 0.00484589
6.0525 0.00458766
6.0625 0.00430809
6.0725 0.00401022
6.0825 0.00369758
6.0925 0.00337417
6.1025 0.00304431
6.1125 0.00271256
6.1225 0.00238335
6.1325 0.00206143
6.1425 0.00175138
6.1525 0.00145753
6.1625 0.00118375
6.1725 0.000933449
6.1825 0.000708623
6.1925 0.000512866
6.2025 0.000346737
6.2125 0.000210303
6.2225 0.000103217
6.2325 2.43028e-05
6.2425 -2.85198e-05
6.2525 -5.82031e-05
6.2625 -6.83052e-05
6.2725 -6.28941e-05
6.2825 -4.62452e-05
6.2925 -2.27514e-05
6.3025 3.19312e-06
6.3125 2.71984e-05
6.3225 4.15439e-05
6.3325 4.85866e-05
6.3425 4.43093e-05
6.3525 2.7345e-05
6.3625 -1.55004e-07
6.3725 -4.5162e-05
6.3825 -0.000108232
6.3925 -0.000188783
6.4025 -0.000287848
6.4125 -0.00040344
6.4225 -0.000535232
6.4325 -0.000680875
6.4425 -0.000839293
6.4525 -0.00100824
6.4625 -0.00118545
6.4725 -0.00136833
6.4825 -0.00155386
6.4925 -0.00173938
6.5025 -0.00192222
6.5125 -0.00209992
6.5225 -0.00227014
6.5325 -0.00243086
6.5425 -0.00258066
6.5525 -0.00271908
6.5625 -0.00284437
6.5725 -0.00295648
6.5825 -0.00305537
6.5925 -0.00314143
6.6025 -0.0032155
6.6125 -0.00327928
6.6225 -0.0033343
6.6325 -0.00338262
6.6425 -0.00342632
6.6525 -0.00346766
6.6625 -0.00350899
6.6725 -0.00355271
6.6825 -0.00360109
6.6925 -0.00365618
6.7025 -0.00371978
6.7125 -0.00379347
6.7225 -0.00387855
6.7325 -0.00397597
6.7425 -0.00408613
6.7525 -0.00420912
6.7625 -0.00434437
6.7725 -0.00449133
6.7825 -0.00464871
6.7925 -0.00481502
6.8025 -0.00498855
6.8125 -0.00516692
6.8225 -0.0053476
6.8325 -0.00552785
6.8425 -0.00570485
6.8525 -0.00587575
6.8625 -0.00603771
6.8725 -0.00618801
6.8825 -0.00632408
6.8925 -0.00644368
6.9025 -0.00654471
6.9125 -0.00662542
6.9225 -0.00668438
6.9325 -0.0067206
6.9425 -0.00673343
6.9525 -0.00672266
6.9625 -0.00668853
6.9725 -0.00663163
6.9825 -0.00655309
6.9925 -0.00645442
7.0025 -0.00633767
7.0125 -0.00620523
7.0225 -0.00605984
7.0325 -0.00590457
7.0425 -0.00574274
7.0525 -0.00557799
7.0625 -0.00541536
7.0725 -0.00525577
7.0825 -0.00510263
7.0925 -0.00495906
7.1025 -0.00482742
7.1125 -0.00471033
7.1225 -0.00460956
7.1325 -0.00452673
7.1425 -0.00446233
7.1525 -0.00441639
7.1625 -0.00438819
7.1725 -0.00437625
7.1825 -0.00437845
7.1925 -0.00439206
7.2025 -0.00441385
7.2125 -0.00444021
7.2225 -0.00446725
7.2325 -0.00449094
7.2425 -0.00450723
7.2525 -0.00451219
7.2625 -0.00450212
7.2725 -0.00447368
7.2825 -0.00442398
7.2925 -0.00435064
7.3025 -0.00425191
7.3125 -0.00412668
7.3225 -0.00397455
7.3325 -0.0037958
7.3425 -0.00359142
7.3525 -0.00336306
7.3625 -0.00311301
7.3725 -0.00284409
7.3825 -0.00255962
7.3925 -0.00226327
7.4025 -0.00195897
7.4125 -0.00165128
7.4225 -0.00134334
7.4325 -0.00103846
7.4425 -0.000741298
7.4525 -0.000452913
7.4625 -0.00017286
7.4725 8.7011e-05
7.4825 0.000327161
7.4925 0.000546195
7.5025 0.000739972
7.5125 0.00091009
7.5225 0.00105487
7.5325 0.00117534
7.5425 0.00127224
7.5525 0.00134489
7.5625 0.00139531
7.5725 0.0014254
7.5825 0.00143787
7.5925 0.00143549
7.6025 0.0014216
7.6125 0.00139947
7.6225 0.0013726
7.6325 0.00134452
7.6425 0.0013189
7.6525 0.00129923
7.6625 0.00128885
7.6725 0.00129083
7.6825 0.00130799
7.6925 0.00134275
7.7025 0.00139705
7.7125 0.00147231
7.7225 0.00156942
7.7325 0.00168865
7.7425 0.00182969
7.7525 0.00199158
7.7625 0.0021728
7.7725 0.00237125
7.7825 0.00258448
7.7925 0.00281027
7.8025 0.00304449
7.8125 0.00328402
7.8225 0.00352491
7.8325 0.00376516
7.8425 0.0040018
7.8525 0.00423103
7.8625 0.00445101
7.8725 0.0046595
7.8825 0.00485437
7.8925 0.00503419
7.9025 0.00519763
7.9125 0.00534392
7.9225 0.00547289
7.9325 0.00558464
7.9425 0.00567981
7.9525 0.00575949
7.9625 0.00582508
7.9725 0.00587841
7.9825 0.00592208
7.9925 0.00596344
8.0025 0.00599518
8.015 0.0060224
8.0275 0.00603888
8.04 0.00604457
8.0525 0.006041
8.065 0.00602867
8.0775 0.00600938
8.09 0.00598425
8.1025 0.00595431
8.115 0.00592073
8.1275 0.00588478
8.14 0.00584751
8.1525 0.00580994
8.165 0.005773
8.1775 0.00573763
8.19 0.00570474
8.2025 0.0056752
8.215 0.00564981
8.2275 0.00562922
8.24 0.00561395
8.2525 0.00560438
8.265 0.00560122
8.2775 0.00560402
8.29 0.00561145
8.3025 0.00562139
8.315 0.0056312
8.3275 0.00563786
8.34 0.00563805
8.3525 0.00562846
8.365 0.00560602
8.3775 0.00556796
8.39 0.00551197
8.4025 0.00543638
8.415 0.00534025
8.4275 0.00522343
8.44 0.0050867
8.4525 0.00493175
8.465 0.00476119
8.4775 0.00457855
8.49 0.00438815
8.5025 0.00419498
8.515 0.00400437
8.5275 0.00382178
8.54 0.00365248
8.5525 0.00350127
8.565 0.00337222
8.5775 0.0032687
8.59 0.00319307
8.6025 0.00314664
8.615 0.00312992
8.6275 0.00314254
8.64 0.00318336
8.6525 0.0032505
8.665 0.00334144
8.6775 0.00345297
8.69 0.00358128
8.7025 0.00372198
8.715 0.0038701
8.7275 0.00402026
8.74 0.0041667
8.7525 0.00430341
8.765 0.0044243
8.7775 0.00452332
8.79 0.0045947
8.8025 0.00463308
8.815 0.00463379
8.8275 0.00459301
8.84 0.00450787
8.8525 0.00437666
8.865 0.00419895
8.8775 0.00397561
8.89 0.00370885
8.9025 0.00340226
8.915 0.00306077
8.9275 0.0026905
8.94 0.00229871
8.9525 0.0018937
8.965 0.00148445
8.9775 0.00108035
8.99 0.000690827
9.0025 0.000324814
9.015 -1.0711e-05
9.0275 -0.000306889
9.04 -0.000559538
9.0525 -0.000765775
9.065 -0.000922606
9.0775 -0.00102963
9.09 -0.00108794
9.1025 -0.00110094
9.115 -0.00107291
9.1275 -0.00100997
9.14 -0.000918488
9.1525 -0.000806836
9.165 -0.000683236
9.1775 -0.000560152
9.19 -0.00044245
9.2025 -0.000331089
9.215 -0.000232212
9.2275 -0.000149553
9.24 -8.62522e-05
9.2525 -4.35947e-05
9.265 -2.19864e-05
9.2775 -2.16231e-05
9.29 -4.06145e-05
9.3025 -7.50782e-05
9.315 -0.000120142
9.3275 -0.000169991
9.34 -0.000217626
9.3525 -0.00025932
9.365 -0.00028847
9.3775 -0.000301686
9.39 -0.000294982
9.4025 -0.000266461
9.415 -0.000215708
9.4275 -0.000145703
9.44 -5.93372e-05
9.4525 4.59217e-05
9.465 0.000158946
9.4775 0.000276007
9.49 0.000387612
9.5025 0.000488071
9.515 0.000568499
9.5275 0.000620704
9.54 0.000636544
9.5525 0.00060883
9.565 0.000531061
9.5775 0.000397938
9.59 0.000205505
9.6025 -4.83695e-05
9.615 -0.000363766
9.6275 -0.000739357
9.64 -0.00117185
9.6525 -0.00165667
9.665 -0.00218828
9.6775 -0.00275777
9.69 -0.00335824
9.7025 -0.00398022
9.715 -0.00461397
9.7275 -0.00524973
9.74 -0.00587831
9.7525 -0.00649054
9.765 -0.00707779
9.7775 -0.00763197
9.79 -0.00814642
9.8025 -0.00861554
9.815 -0.00903358
9.8275 -0.0093981
9.84 -0.00970661
9.8525 -0.00995847
9.865 -0.0101551
9.8775 -0.0102924
9.89 -0.0103796
9.9025 -0.010619
9.915 -0.0105353
9.9275 -0.0104142
9.94 -0.010189
9.9525 -0.00995184
9.965 -0.00966767
9.9775 -0.00935165
9.99 -0.00900986
10.0025 -0.00865224
10.015 -0.00830229
10.0275 -0.00794077
10.04 -0.00758117
10.0525 -0.00722484
10.065 -0.00688202
10.0775 -0.00655512
10.09 -0.00624684
10.1025 -0.00596071
10.115 -0.00570149
10.1275 -0.00547233
10.14 -0.00527476
10.1525 -0.00510944
10.165 -0.00497804
10.1775 -0.00488278
10.19 -0.00482327
10.2025 -0.00479904
10.215 -0.00480927
10.2275 -0.00485325
10.24 -0.00492975
10.2525 -0.00503682
10.265 -0.00517249
10.2775 -0.0053349
10.29 -0.00552199
10.3025 -0.00573147
10.315 -0.00596101
10.3275 -0.00620845
10.34 -0.00647169
10.3525 -0.00674852
10.365 -0.0070367
10.3775 -0.00733405
10.39 -0.00763843
10.4025 -0.00794739
10.415 -0.0082582
10.4275 -0.00857433
10.44 -0.00888878
10.4525 -0.00920028
10.465 -0.00951195
10.4775 -0.00967003
10.49 -0.0101387
10.5025 -0.0105217
10.515 -0.010847
10.5275 -0.011256
10.54 -0.0117508
10.5525 -0.0122833
10.565 -0.0127793
10.5775 -0.0132828
10.59 -0.0138515
10.6025 -0.0144716
10.615 -0.0150774
10.6275 -0.0156758
10.64 -0.0163008
10.6525 -0.0169481
10.665 -0.0175977
10.6775 -0.0182232
10.69 -0.0188307
10.7025 -0.0194352
10.715 -0.0200296
10.7275 -0.0205906
10.74 -0.021106
10.7525 -0.0215809
10.765 -0.0220171
10.7775 -0.0224018
10.79 -0.0227208
10.8025 -0.0229712
10.815 -0.0231566
10.8275 -0.0232749
10.84 -0.0233163
10.8525 -0.0232745
10.865 -0.0231518
10.8775 -0.0229518
10.89 -0.0226723
10.9025 -0.02231
10.915 -0.021867
10.9275 -0.0213497
10.94 -0.020763
10.9525 -0.0201103
10.965 -0.0193965
10.9775 -0.0186299
10.99 -0.0178188
11.0025 -0.0169704
11.015 -0.0160917
11.0275 -0.0151909
11.04 -0.0142769
11.0525 -0.013352
11.065 -0.0124215
11.0775 -0.0114981
11.09 -0.0105788
11.1025 -0.00967149
11.115 -0.0087825
11.1275 -0.00791738
11.14 -0.00708018
11.1525 -0.00627626
11.165 -0.00551244
11.1775 -0.0047957
11.19 -0.00413132
11.2025 -0.00352439
11.215 -0.00298053
11.2275 -0.00250541
11.24 -0.00210407
11.2525 -0.00178086
11.265 -0.00154004
11.2775 -0.00138585
11.29 -0.00132127
11.3025 -0.00134898
11.315 -0.00146894
11.3275 -0.0016814
11.34 -0.00198489
11.3525 -0.00237596
11.365 -0.00284959
11.3775 -0.00339956
11.39 -0.00401842
11.4025 -0.00469742
11.415 -0.00542679
11.4275 -0.00619819
11.44 -0.00700717
11.4525 -0.00783507
11.465 -0.0086779
11.4775 -0.00952942
11.49 -0.0103821
11.5025 -0.0112268
11.515 -0.0120567
11.5275 -0.0128664
11.54 -0.0136506
11.5525 -0.0144036
11.565 -0.0151217
11.5775 -0.0157997
11.59 -0.0164323
11.6025 -0.0170149
11.615 -0.0175439
11.6275 -0.0180144
11.64 -0.0184205
11.6525 -0.0187558
11.665 -0.0190143
11.6775 -0.0191909
11.69 -0.0192798
11.7025 -0.0192748
11.715 -0.0191642
11.7275 -0.01895
11.74 -0.0186367
11.7525 -0.0182215
11.765 -0.0177073
11.7775 -0.0170964
11.79 -0.0163948
11.8025 -0.015609
11.815 -0.0147469
11.8275 -0.013818
11.84 -0.0128329
11.8525 -0.0118044
11.865 -0.010738
11.8775 -0.00964727
11.89 -0.00855025
11.9025 -0.00744725
11.915 -0.00635033
11.9275 -0.00527044
11.94 -0.00421635
11.9525 -0.00319325
11.965 -0.00220756
11.9775 -0.00126042
11.99 -0.000365719
12.0025 0.00047518
12.015 0.00126178
12.0275 0.00198296
12.04 0.00263399
12.0525 0.00321403
12.065 0.00372069
12.0775 0.00415275
12.09 0.00450665
12.1025 0.0047824
12.115 0.0049792
12.1275 0.00509693
12.14 0.00513596
12.1525 0.00509795
12.165 0.00498455
12.1775 0.00479802
12.19 0.00454195
12.2025 0.00422032
12.215 0.00383725
12.2275 0.00339793
12.24 0.00290807
12.2525 0.00237374
12.265 0.00180113
12.2775 0.00119723
12.29 0.000568879
12.3025 -7.687e-05
12.315 -0.000732716
12.3275 -0.00139781
12.34 -0.00206069
12.3525 -0.00271493
12.365 -0.00335936
12.3775 -0.00398815
12.39 -0.00459156
12.4025 -0.00516452
12.415 -0.00570969
12.4275 -0.00621901
12.44 -0.0066862
12.4525 -0.00710654
12.465 -0.00747717
12.4775 -0.00779391
12.49 -0.0080493
12.5025 -0.00823787
12.515 -0.00835769
12.5275 -0.00840575
12.54 -0.00837836
12.5525 -0.00827412
12.565 -0.00809209
12.5775 -0.00783298
12.59 -0.00749854
12.6025 -0.00709144
12.615 -0.00661596
12.6275 -0.00607778
12.64 -0.00548377
12.6525 -0.00484127
12.665 -0.0041522
12.6775 -0.0034311
12.69 -0.00268332
12.7025 -0.00191362
12.715 -0.00113029
12.7275 -0.000340358
12.74 0.00044976
12.7525 0.00123521
12.765 0.00201016
12.7775 0.00276859
12.79 0.00350501
12.8025 0.0042147
12.815 0.00489291
12.8275 0.00553462
12.84 0.00613476
12.8525 0.00668865
12.865 0.00719179
12.8775 0.00763967
12.89 0.00803059
12.9025 0.00835909
12.915 0.00862182
12.9275 0.00881821
12.94 0.00894302
12.9525 0.0089936
12.965 0.00896833
12.9775 0.00886728
12.99 0.00868939
13.0025 0.00843561
13.015 0.00810912
13.0275 0.00771466
13.04 0.00725807
13.0525 0.00674885
13.065 0.00619119
13.0775 0.00559503
13.09 0.00496884
13.1025 0.00432282
13.115 0.00366736
13.1275 0.00301338
13.14 0.00237088
13.1525 0.00174156
13.165 0.00114763
13.1775 0.000589698
13.19 7.45671e-05
13.2025 -0.000390132
13.215 -0.000796298
13.2275 -0.00113858
13.24 -0.00141344
13.2525 -0.00161661
13.265 -0.0017438
13.2775 -0.00179221
13.29 -0.00176123
13.3025 -0.0016517
13.315 -0.00146384
13.3275 -0.00119924
13.34 -0.000862272
13.3525 -0.000459051
13.365 3.87608e-06
13.3775 0.000520409
13.39 0.00107708
13.4025 0.0016663
13.415 0.00227688
13.4275 0.00289705
13.44 0.00351454
13.4525 0.00411771
13.465 0.00469511
13.4775 0.00523542
13.49 0.00572803
13.5025 0.00616374
13.515 0.00653482
13.5275 0.00683488
13.54 0.00705908
13.5525 0.00720436
13.565 0.00726947
13.5775 0.00725511
13.59 0.00716383
13.6025 0.00699944
13.615 0.00676769
13.6275 0.00647608
13.64 0.00613315
13.6525 0.00574822
13.665 0.0053314
13.6775 0.00489367
13.69 0.00444239
13.7025 0.00398745
13.715 0.00353583
13.7275 0.00309449
13.74 0.00266824
13.7525 0.00226062
13.765 0.00187322
13.7775 0.00150614
13.79 0.00115486
13.8025 0.000821431
13.815 0.000499441
13.8275 0.000185109
13.84 -0.000125793
13.8525 -0.000436463
13.865 -0.000752447
13.8775 -0.00107115
13.89 -0.00139669
13.9025 -0.00172214
13.915 -0.00204989
13.9275 -0.00238174
13.94 -0.00271992
13.9525 -0.00306094
13.965 -0.00340137
13.9775 -0.00374048
13.99 -0.00407894
14.0025 -0.00441502
14.015 -0.00474449
14.0275 -0.00506391
14.04 -0.00537229
14.0525 -0.00566902
14.065 -0.00595186
14.0775 -0.00621862
14.09 -0.00646856
14.1025 -0.00670224
14.115 -0.00692094
14.1275 -0.00712493
14.14 -0.00731555
14.1525 -0.00749524
14.165 -0.00766737
14.1775 -0.00783493
14.19 -0.00800095
14.2025 -0.0081683
14.215 -0.00834056
14.2275 -0.00852082
14.24 -0.00871176
14.2525 -0.00891546
14.265 -0.00913388
14.2775 -0.00936873
14.29 -0.00962125
14.3025 -0.00989212
14.315 -0.0101817
14.3275 -0.0104901
14.34 -0.010817
14.3525 -0.0111611
14.365 -0.0115208
14.3775 -0.0118942
14.39 -0.0122789
14.4025 -0.0126702
14.415 -0.0130629
14.4275 -0.0134508
14.44 -0.0138275
14.4525 -0.0141863
14.465 -0.0145202
14.4775 -0.0148222
14.49 -0.0150856
14.5025 -0.0153042
14.515 -0.0154725
14.5275 -0.0155857
14.54 -0.0156395
14.5525 -0.0156308
14.565 -0.0155577
14.5775 -0.0154198
14.59 -0.0152174
14.6025 -0.0149526
14.615 -0.0146297
14.6275 -0.0142543
14.64 -0.0138337
14.6525 -0.0133765
14.665 -0.0128925
14.6775 -0.0123925
14.69 -0.0118873
14.7025 -0.0113872
14.715 -0.0109027
14.7275 -0.0104423
14.74 -0.010015
14.7525 -0.00962334
14.765 -0.00927004
14.7775 -0.00895982
14.79 -0.00869268
14.8025 -0.00846696
14.815 -0.00827754
14.8275 -0.0081186
14.84 -0.00798362
14.8525 -0.00786473
14.865 -0.00775104
14.8775 -0.00761928
14.89 -0.00748379
14.9025 -0.00733087
14.915 -0.00715922
14.9275 -0.00696079
14.94 -0.00673076
14.9525 -0.00646021
14.965 -0.00615875
14.9775 -0.00582213
14.99 -0.00544178
15.0025 -0.00502364
15.015 -0.00457187
15.0275 -0.0040874
15.04 -0.00356992
15.0525 -0.00302376
15.065 -0.00245503
15.0775 -0.00186864
15.09 -0.00126898
15.1025 -0.00066176
15.115 -5.37823e-05
15.1275 0.000548283
15.14 0.00113835
15.1525 0.00171046
15.165 0.00225864
15.1775 0.00277731
15.19 0.00326144
15.2025 0.0037067
15.215 0.00410937
15.2275 0.00446621
15.24 0.00477456
15.2525 0.00503255
15.265 0.00523921
15.2775 0.00539433
15.29 0.00549844
15.3025 0.00555301
15.315 0.00556096
15.3275 0.00552571
15.34 0.00545155
15.3525 0.00534364
15.365 0.00520767
15.3775 0.00504962
15.39 0.0048757
15.4025 0.00469224
15.415 0.0045053
15.4275 0.0043205
15.44 0.00414298
15.4525 0.00397723
15.465 0.00382692
15.4775 0.00369481
15.49 0.00358278
15.5025 0.00349202
15.515 0.00342325
15.5275 0.00337584
15.54 0.00334801
15.5525 0.0033372
15.565 0.00334
15.5775 0.00335264
15.59 0.00337119
15.6025 0.00339166
15.615 0.00341002
15.6275 0.00342381
15.64 0.00343032
15.6525 0.00342829
15.665 0.0034172
15.6775 0.00339778
15.69 0.00337183
15.7025 0.00334226
15.715 0.00331285
15.7275 0.00328811
15.74 0.00327349
15.7525 0.00327754
15.765 0.00329649
15.7775 0.00333525
15.79 0.00339649
15.8025 0.00348272
15.815 0.00359556
15.8275 0.0037366
15.84 0.00390614
15.8525 0.00410348
15.865 0.00432713
15.8775 0.00457568
15.89 0.00484538
15.9025 0.00513088
15.915 0.00542565
15.9275 0.0057224
15.94 0.00601283
15.9525 0.00629005
15.965 0.00654671
15.9775 0.00677085
15.99 0.00695763
16.0025 0.00710066
16.0125 0.00717935
16.0225 0.00722279
16.0325 0.00722851
16.0425 0.0071948
16.0525 0.0071208
16.0625 0.00700576
16.0725 0.00684918
16.0825 0.00665163
16.0925 0.00641465
16.1025 0.00614057
16.1125 0.00583232
16.1225 0.00549342
16.1325 0.00512805
16.1425 0.00474111
16.1525 0.00433802
16.1625 0.00392456
16.1725 0.00350649
16.1825 0.0030899
16.1925 0.00268081
16.2025 0.00228515
16.2125 0.00190851
16.2225 0.00155608
16.2325 0.00122977
16.2425 0.000935526
16.2525 0.000676907
16.2625 0.000453232
16.2725 0.000266283
16.2825 0.000116553
16.2925 4.89421e-06
16.3025 -6.98987e-05
16.3125 -0.000110025
16.3225 -0.000118607
16.3325 -9.86319e-05
16.3425 -5.38241e-05
16.3525 1.11265e-05
16.3625 9.12138e-05
16.3725 0.000180075
16.3825 0.000271874
16.3925 0.000360964
16.4025 0.000434575
16.4125 0.000492013
16.4225 0.000544279
16.4325 0.000575089
16.4425 0.000584985
16.4525 0.000573895
16.4625 0.00053892
16.4725 0.000479844
16.4825 0.000394577
16.4925 0.000281999
16.5025 0.000142738
16.5125 -2.13136e-05
16.5225 -0.000207836
16.5325 -0.000415691
16.5425 -0.000642081
16.5525 -0.000885915
16.5625 -0.00114215
16.5725 -0.00140358
16.5825 -0.00166769
16.5925 -0.00193072
16.6025 -0.00218835
16.6125 -0.00243848
16.6225 -0.0026773
16.6325 -0.00290025
16.6425 -0.00310626
16.6525 -0.00329287
16.6625 -0.00345866
16.6725 -0.00360218
16.6825 -0.00372126
16.6925 -0.00381914
16.7025 -0.00389617
16.7125 -0.0039525
16.7225 -0.00399043
16.7325 -0.00401626
16.7425 -0.00403877
16.7525 -0.00404778
16.7625 -0.00405083
16.7725 -0.00404929
16.7825 -0.00404429
16.7925 -0.00404101
16.8025 -0.00404217
16.8125 -0.00405024
16.8225 -0.00406754
16.8325 -0.00409551
16.8425 -0.00413604
16.8525 -0.00419126
16.8625 -0.00426258
16.8725 -0.00435075
16.8825 -0.00445587
16.8925 -0.00457777
16.9025 -0.00471627
16.9125 -0.00487102
16.9225 -0.00504119
16.9325 -0.0052259
16.9425 -0.00542529
16.9525 -0.00563515
16.9625 -0.00585418
16.9725 -0.00608152
16.9825 -0.00631498
16.9925 -0.00655271
17.0025 -0.00679258
17.0125 -0.007034
17.0225 -0.00727639
17.0325 -0.00751792
17.0425 -0.00775754
17.0525 -0.00799412
17.0625 -0.00822675
17.0725 -0.00845516
17.0825 -0.00867886
17.0925 -0.00889722
17.1025 -0.00910945
17.1125 -0.00931508
17.1225 -0.00951422
17.1325 -0.00970714
17.1425 -0.00989404
17.1525 -0.0100751
17.1625 -0.0102507
17.1725 -0.0104214
17.1825 -0.0105884
17.1925 -0.010753
17.2025 -0.0109164
17.2125 -0.0110799
17.2225 -0.0112449
17.2325 -0.0114131
17.2425 -0.0115857
17.2525 -0.0117651
17.2625 -0.0119526
17.2725 -0.01215
17.2825 -0.0123587
17.2925 -0.0125802
17.3025 -0.012816
17.3125 -0.0130673
17.3225 -0.0133351
17.3325 -0.0136198
17.3425 -0.0139218
17.3525 -0.0142414
17.3625 -0.0145782
17.3725 -0.0149315
17.3825 -0.0153001
17.3925 -0.0156824
17.4025 -0.0160775
17.4125 -0.0164832
17.4225 -0.0168961
17.4325 -0.0173127
17.4425 -0.017729
17.4525 -0.0181403
17.4625 -0.0185424
17.4725 -0.0189305
17.4825 -0.0192999
17.4925 -0.0196457
17.5025 -0.0199632
17.5125 -0.020248
17.5225 -0.020496
17.5325 -0.0207038
17.5425 -0.0208681
17.5525 -0.0209862
17.5625 -0.0210561
17.5725 -0.0210765
17.5825 -0.021047
17.5925 -0.0209684
17.6025 -0.0208414
17.6125 -0.0206678
17.6225 -0.0204507
17.6325 -0.0201934
17.6425 -0.0199004
17.6525 -0.0195761
17.6625 -0.0192259
17.6725 -0.0188552
17.6825 -0.0184701
17.6925 -0.0180766
17.7025 -0.0176805
17.7125 -0.0172876
17.7225 -0.0169035
17.7325 -0.0165335
17.7425 -0.0161822
17.7525 -0.0158548
17.7625 -0.0155528
17.7725 -0.0152748
17.7825 -0.015027
17.7925 -0.0148099
17.8025 -0.0146233
17.8125 -0.0144662
17.8225 -0.014338
17.8325 -0.0142382
17.8425 -0.0141658
17.8525 -0.0141186
17.8625 -0.0140934
17.8725 -0.0140868
17.8825 -0.0140954
17.8925 -0.0141162
17.9025 -0.0141482
17.9125 -0.0141864
17.9225 -0.0142286
17.9325 -0.0142723
17.9425 -0.0143152
17.9525 -0.0143562
17.9625 -0.0143941
17.9725 -0.0144282
17.9825 -0.0144582
17.9925 -0.0144846
18.0025 -0.0145087
18.0125 -0.014532
18.0225 -0.0145565
18.0325 -0.0145847
18.0425 -0.0146193
18.0525 -0.0146631
18.0625 -0.0147195
18.0725 -0.0147918
18.0825 -0.0148823
18.0925 -0.0149938
18.1025 -0.0151289
18.1125 -0.0152922
18.1225 -0.0154852
18.1325 -0.0157016
18.1425 -0.0159457
18.1525 -0.0162153
18.1625 -0.0165096
18.1725 -0.0168273
18.1825 -0.0171673
18.1925 -0.0175266
18.2025 -0.0179021
18.2125 -0.0182892
18.2225 -0.0186833
18.2325 -0.0190791
18.2425 -0.0194713
18.2525 -0.0198541
18.2625 -0.0202216
18.2725 -0.0205682
18.2825 -0.020888
18.2925 -0.0211759
18.3025 -0.021427
18.3125 -0.0216383
18.3225 -0.0218068
18.3325 -0.021926
18.3425 -0.0219957
18.3525 -0.0220142
18.3625 -0.0219809
18.3725 -0.0218967
18.3825 -0.0217623
18.3925 -0.0215794
18.4025 -0.0213505
18.4125 -0.0210788
18.4225 -0.020768
18.4325 -0.020422
18.4425 -0.0200451
18.4525 -0.0196416
18.4625 -0.0192163
18.4725 -0.0187736
18.4825 -0.018318
18.4925 -0.0178535
18.5025 -0.0173842
18.5125 -0.0169133
18.5225 -0.0164442
18.5325 -0.0159797
18.5425 -0.015522
18.5525 -0.0150725
18.5625 -0.0146323
18.5725 -0.0142037
18.5825 -0.0137853
18.5925 -0.0133759
18.6025 -0.0129738
18.6125 -0.0125776
18.6225 -0.0121905
18.6325 -0.011809
18.6425 -0.0114316
18.6525 -0.0110565
18.6625 -0.010682
18.6725 -0.0103093
18.6825 -0.00993711
18.6925 -0.00956453
18.7025 -0.00919192
18.7125 -0.00881899
18.7225 -0.00844666
18.7325 -0.0080763
18.7425 -0.00770921
18.7525 -0.0073472
18.7625 -0.00699252
18.7725 -0.00664768
18.7825 -0.00631558
18.7925 -0.00599928
18.8025 -0.00570172
18.8125 -0.00542589
18.8225 -0.00517483
18.8325 -0.00495075
18.8425 -0.00475609
18.8525 -0.00459314
18.8625 -0.00446317
18.8725 -0.00436754
18.8825 -0.00430716
18.8925 -0.00428237
18.9025 -0.00429282
18.9125 -0.00433774
18.9225 -0.00441621
18.9325 -0.00452649
18.9425 -0.00466631
18.9525 -0.004833
18.9625 -0.00502304
18.9725 -0.0052282
18.9825 -0.00545196
18.9925 -0.00569015
19.0025 -0.00593824
19.0125 -0.00619403
19.0225 -0.00645299
19.0325 -0.00671289
19.0425 -0.00697131
19.0525 -0.00722175
19.0625 -0.00746218
19.0725 -0.00769068
19.0825 -0.00790493
19.0925 -0.00810327
19.1025 -0.00828267
19.1125 -0.00844033
19.1225 -0.00857426
19.1325 -0.00868321
19.1425 -0.00876613
19.1525 -0.00882162
19.1625 -0.00884795
19.1725 -0.00884351
19.1825 -0.00880731
19.1925 -0.00873913
19.2025 -0.00863893
19.2125 -0.0085064
19.2225 -0.00834123
19.2325 -0.00814348
19.2425 -0.00791378
19.2525 -0.00765343
19.2625 -0.00736203
19.2725 -0.00704295
19.2825 -0.00670047
19.2925 -0.00632802
19.3025 -0.00593312
19.3125 -0.00551975
19.3225 -0.00508834
19.3325 -0.00464125
19.3425 -0.00417924
19.3525 -0.00370463
19.3625 -0.00322091
19.3725 -0.00273069
19.3825 -0.00223608
19.3925 -0.00173898
19.4025 -0.00124171
19.4125 -0.000747048
19.4225 -0.000257645
19.4325 0.000224266
19.4425 0.000696688
19.4525 0.00115757
19.4625 0.0016047
19.4725 0.00203596
19.4825 0.00244941
19.4925 0.00284333
19.5025 0.00321606
19.5125 0.003566
19.5225 0.00389156
19.5325 0.00419129
19.5425 0.00446384
19.5525 0.00470799
19.5625 0.00492261
19.5725 0.00510661
19.5825 0.00525903
19.5925 0.00537916
19.6025 0.00546618
19.6125 0.00551913
19.6225 0.00553723
19.6325 0.00551998
19.6425 0.0054671
19.6525 0.00537816
19.6625 0.00525309
19.6725 0.00509224
19.6825 0.00489621
19.6925 0.00466586
19.7025 0.00440242
19.7125 0.00410742
19.7225 0.00378281
19.7325 0.00343092
19.7425 0.00305445
19.7525 0.0026564
19.7625 0.00224004
19.7725 0.00180891
19.7825 0.00136684
19.7925 0.000917939
19.8025 0.000466289
19.8125 1.56342e-05
19.8225 -0.000434957
19.8325 -0.000875458
19.8425 -0.00130289
19.8525 -0.00171712
19.8625 -0.00211472
19.8725 -0.00249277
19.8825 -0.00284753
19.8925 -0.00317612
19.9025 -0.00347664
19.9125 -0.00374749
19.9225 -0.00398684
19.9325 -0.00419283
19.9425 -0.00436398
19.9525 -0.00449957
19.9625 -0.00459951
19.9725 -0.00466402
19.9825 -0.00469349
19.9925 -0.0046889
20.0025 -0.00465152
20.0125 -0.004583
20.0225 -0.0044857
20.0325 -0.00436211
20.0425 -0.00421454
20.0525 -0.00404581
20.0625 -0.00385985
20.0725 -0.00365899
20.0825 -0.00344567
20.0925 -0.00322271
20.1025 -0.00299292
20.1125 -0.00275713
20.1225 -0.00251934
20.1325 -0.00227976
20.1425 -0.00203924
20.1525 -0.00179927
20.1625 -0.00156091
20.1725 -0.00132487
20.1825 -0.00109142
20.1925 -0.000860785
20.2025 -0.000633278
20.2125 -0.000409333
20.2225 -0.000189407
20.2325 2.61982e-05
20.2425 0.000237361
20.2525 0.000442403
20.2625 0.000640885
20.2725 0.000831881
20.2825 0.00101385
20.2925 0.00118588
20.3025 0.00134647
20.3125 0.00149401
20.3225 0.0016269
20.3325 0.00174328
20.3425 0.00184135
20.3525 0.00192074
20.3625 0.00197853
20.3725 0.002013
20.3825 0.00202248
20.3925 0.00200518
20.4025 0.0019573
20.4125 0.00187742
20.4225 0.00177065
20.4325 0.00163356
20.4425 0.00146818
20.4525 0.00127423
20.4625 0.0010521
20.4725 0.000803693
20.4825 0.000531979
20.4925 0.000232106
20.5025 -9.29472e-05
20.5125 -0.000439144
20.5225 -0.000805703
20.5325 -0.00119112
20.5425 -0.00159413
20.5525 -0.00201466
20.5625 -0.0024507
20.5725 -0.00289415
20.5825 -0.00334466
20.5925 -0.00380139
20.6025 -0.00426276
20.6125 -0.00472663
20.6225 -0.00518931
20.6325 -0.00564766
20.6425 -0.00609974
20.6525 -0.00654408
20.6625 -0.00697882
20.6725 -0.0074014
20.6825 -0.00780911
20.6925 -0.00819976
20.7025 -0.00857186
20.7125 -0.00892415
20.7225 -0.00925515
20.7325 -0.00956336
20.7425 -0.00984746
20.7525 -0.0101065
20.7625 -0.0103399
20.7725 -0.0105475
20.7825 -0.0107292
20.7925 -0.0108851
20.8025 -0.0110151
20.8125 -0.0111193
20.8225 -0.0111987
20.8325 -0.0112539
20.8425 -0.0112862
20.8525 -0.0112966
20.8625 -0.0112861
20.8725 -0.011256
20.8825 -0.011208
20.8925 -0.0111437
20.9025 -0.0110647
20.9125 -0.0109725
20.9225 -0.0108687
20.9325 -0.0107548
20.9425 -0.0106325
20.9525 -0.0105033
20.9625 -0.0103685
20.9725 -0.0102294
20.9825 -0.010087
20.9925 -0.00994216
21.0025 -0.00979602
21.0125 -0.009649
21.0225 -0.00950125
21.0325 -0.00935266
21.0425 -0.00920287
21.0525 -0.00905139
21.0625 -0.00889766
21.0725 -0.00874098
21.0825 -0.00858064
21.0925 -0.00841593
21.1025 -0.00824623
21.1125 -0.00807108
21.1225 -0.00789007
21.1325 -0.00770293
21.1425 -0.00751105
21.1525 -0.0073143
21.1625 -0.00711318
21.1725 -0.0069091
21.1825 -0.00670148
21.1925 -0.00649373
21.2025 -0.00628659
21.2125 -0.00608221
21.2225 -0.00588285
21.2325 -0.00569056
21.2425 -0.00550758
21.2525 -0.00533632
21.2625 -0.00517932
21.2725 -0.00503897
21.2825 -0.00491911
21.2925 -0.00482187
21.3025 -0.00474462
21.3125 -0.00469144
21.3225 -0.00466247
21.3325 -0.00465871
21.3425 -0.00468112
21.3525 -0.0047297
21.3625 -0.0048047
21.3725 -0.00490601
21.3825 -0.00503296
21.3925 -0.00518468
21.4025 -0.00536018
21.4125 -0.00555771
21.4225 -0.00577527
21.4325 -0.0060105
21.4425 -0.00626261
21.4525 -0.00652784
21.4625 -0.00680246
21.4725 -0.00708415
21.4825 -0.00737055
21.4925 -0.00765954
21.5025 -0.00794828
21.5125 -0.00823371
21.5225 -0.00851304
21.5325 -0.00878399
21.5425 -0.00904462
21.5525 -0.00929308
21.5625 -0.00952747
21.5725 -0.00974614
21.5825 -0.00994787
21.5925 -0.0101319
21.6025 -0.0102979
21.6125 -0.0104457
21.6225 -0.0105753
21.6325 -0.0106871
21.6425 -0.0107821
21.6525 -0.0108614
21.6625 -0.0109262
21.6725 -0.0109786
21.6825 -0.0110242
21.6925 -0.0110615
21.7025 -0.0110902
21.7125 -0.0111142
21.7225 -0.0111339
21.7325 -0.0111516
21.7425 -0.0111689
21.7525 -0.0111872
21.7625 -0.0112079
21.7725 -0.0112321
21.7825 -0.0112608
21.7925 -0.0112948
21.8025 -0.0113346
21.8125 -0.0113803
21.8225 -0.0114321
21.8325 -0.0114902
21.8425 -0.0115543
21.8525 -0.0116232
21.8625 -0.0116951
21.8725 -0.0117687
21.8825 -0.0118419
21.8925 -0.0119125
21.9025 -0.0119778
21.9125 -0.0120357
21.9225 -0.0120837
21.9325 -0.012119
21.9425 -0.0121389
21.9525 -0.0121409
21.9625 -0.0121225
21.9725 -0.012082
21.9825 -0.0120175
21.9925 -0.0119279
22.0025 -0.0118121
22.0125 -0.0116695
22.0225 -0.0115
22.0325 -0.0113042
22.0425 -0.0110832
22.0525 -0.0108386
22.0625 -0.0105721
22.0725 -0.0102863
22.0825 -0.00998401
22.0925 -0.00966831
22.1025 -0.00934259
22.1125 -0.00901029
22.1225 -0.00867455
22.1325 -0.00833756
22.1425 -0.00800162
22.1525 -0.00767197
22.1625 -0.00734895
22.1725 -0.00703463
22.1825 -0.00673164
22.1925 -0.00644182
22.2025 -0.00616652
22.2125 -0.00590653
22.2225 -0.00566244
22.2325 -0.00543495
22.2425 -0.0052246
22.2525 -0.00503146
22.2625 -0.0048551
22.2725 -0.00469471
22.2825 -0.00454934
22.2925 -0.00441795
22.3025 -0.00429925
22.3125 -0.00418758
22.3225 -0.0040833
22.3325 -0.00399013
22.3425 -0.00390261
22.3525 -0.00382004
22.3625 -0.003739
22.3725 -0.00366608
22.3825 -0.00359732
22.3925 -0.0035273
22.4025 -0.00345859
22.4125 -0.00339054
22.4225 -0.00332279
22.4325 -0.00325473
22.4425 -0.00318484
22.4525 -0.00311273
22.4625 -0.00303851
22.4725 -0.00296219
22.4825 -0.00288357
22.4925 -0.00280231
22.5025 -0.00271832
22.5125 -0.00263186
22.5225 -0.00254335
22.5325 -0.00245317
22.5425 -0.00236172
22.5525 -0.00226951
22.5625 -0.00217726
22.5725 -0.00208559
22.5825 -0.00199548
22.5925 -0.00190822
22.6025 -0.00182502
22.6125 -0.00174721
22.6225 -0.00167624
22.6325 -0.0016135
22.6425 -0.00156038
22.6525 -0.00151822
22.6625 -0.00148822
22.6725 -0.00147137
22.6825 -0.00146855
22.6925 -0.00148036
22.7025 -0.00150706
22.7125 -0.00154875
22.7225 -0.00160512
22.7325 -0.00167545
22.7425 -0.00175872
22.7525 -0.00185356
22.7625 -0.00195832
22.7725 -0.00207106
22.7825 -0.00218962
22.7925 -0.00231052
22.8025 -0.00243176
22.8125 -0.00255375
22.8225 -0.00267319
22.8325 -0.00278904
22.8425 -0.00289909
22.8525 -0.00300161
22.8625 -0.00309498
22.8725 -0.00317765
22.8825 -0.00324838
22.8925 -0.00330604
22.9025 -0.00334973
22.9125 -0.00337881
22.9225 -0.00339281
22.9325 -0.00339162
22.9425 -0.0033754
22.9525 -0.00334448
22.9625 -0.00329924
22.9725 -0.00324074
22.9825 -0.00317017
22.9925 -0.00308898
23.0025 -0.00299882
23.0125 -0.00290142
23.0225 -0.0027986
23.0325 -0.00269217
23.0425 -0.0025839
23.0525 -0.00247562
23.0625 -0.00236873
23.0725 -0.00226433
23.0825 -0.00216366
23.0925 -0.00206734
23.1025 -0.00197586
23.1125 -0.00188911
23.1225 -0.00180493
23.1325 -0.00172661
23.1425 -0.00165338
23.1525 -0.00158471
23.1625 -0.00152075
23.1725 -0.00146047
23.1825 -0.00140327
23.1925 -0.00134805
23.2025 -0.00129369
23.2125 -0.00123897
23.2225 -0.0011826
23.2325 -0.00112326
23.2425 -0.00105959
23.2525 -0.000990347
23.2625 -0.000914459
23.2725 -0.000830904
23.2825 -0.000738857
23.2925 -0.000637625
23.3025 -0.000525891
23.3125 -0.000404235
23.3225 -0.000272796
23.3325 -0.000131518
23.3425 1.91996e-05
23.3525 0.000179048
23.3625 0.000347113
23.3725 0.000522359
23.3825 0.000703482
23.3925 0.000888335
23.4025 0.0010748
23.4125 0.00126047
23.4225 0.00144255
23.4325 0.00161802
23.4425 0.00178397
23.4525 0.00193756
23.4625 0.00207598
23.4725 0.00219653
23.4825 0.00229672
23.4925 0.00237442
23.5025 0.00242786
23.5125 0.00245568
23.5225 0.00245703
23.5325 0.00243175
23.5425 0.00238011
23.5525 0.00230275
23.5625 0.00220117
23.5725 0.00207736
23.5825 0.00193384
23.5925 0.00177347
23.6025 0.00159956
23.6125 0.00141574
23.6225 0.0012259
23.6325 0.00103407
23.6425 0.000844268
23.6525 0.000662502
23.6625 0.000490208
23.6725 0.000328041
23.6825 0.000180176
23.6925 4.77832e-05
23.7025 -6.65418e-05
23.7125 -0.000161298
23.7225 -0.000235072
23.7325 -0.000286827
23.7425 -0.000315596
23.7525 -0.00032125
23.7625 -0.000304326
23.7725 -0.000265881
23.7825 -0.000207572
23.7925 -0.000131547
23.8025 -4.0432e-05
23.8125 6.27776e-05
23.8225 0.000174767
23.8325 0.000291981
23.8425 0.000410785
23.8525 0.000527467
23.8625 0.000638308
23.8725 0.000739747
23.8825 0.000828497
23.8925 0.000901575
23.9025 0.000956362
23.9125 0.000990702
23.9225 0.00100297
23.9325 0.000992104
23.9425 0.000957624
23.9525 0.000899662
23.9625 0.000818941
23.9725 0.00071674
23.9825 0.000594853
23.9925 0.000455553
24.0025 0.000301525
24.0125 0.000135764
24.0225 -3.84951e-05
24.0325 -0.000217846
24.0425 -0.000398907
24.0525 -0.000578209
24.0625 -0.000752403
24.0725 -0.00091834
24.0825 -0.00107319
24.0925 -0.0012144
24.1025 -0.0013398
24.1125 -0.00144759
24.1225 -0.00153652
24.1325 -0.00160599
24.1425 -0.00165517
24.1525 -0.00168395
24.1625 -0.00169325
24.1725 -0.0016838
24.1825 -0.00165618
24.1925 -0.00161172
24.2025 -0.00155254
24.2125 -0.00148054
24.2225 -0.00139768
24.2325 -0.00130595
24.2425 -0.00120751
24.2525 -0.00110464
24.2625 -0.000999633
24.2725 -0.000894587
24.2825 -0.000791527
24.2925 -0.000692345
24.3025 -0.000598824
24.3125 -0.000512584
24.3225 -0.000435029
24.3325 -0.000367283
24.3425 -0.000310198
24.3525 -0.000264384
24.3625 -0.00023022
24.3725 -0.000207824
24.3825 -0.000197014
24.3925 -0.000197242
24.4025 -0.000207736
24.4125 -0.000227512
24.4225 -0.000255343
24.4325 -0.000289735
24.4425 -0.000329031
24.4525 -0.000371466
24.4625 -0.000415246
24.4725 -0.000458543
24.4825 -0.00049955
24.4925 -0.000536552
24.5025 -0.000567984
24.5125 -0.000592453
24.5225 -0.000608531
24.5325 -0.000615718
24.5425 -0.00061375
24.5525 -0.000601998
24.5625 -0.000580889
24.5725 -0.000550754
24.5825 -0.000512333
24.5925 -0.000466777
24.6025 -0.000415475
24.6125 -0.000360075
24.6225 -0.000302449
24.6325 -0.000244646
24.6425 -0.000188917
24.6525 -0.000137171
24.6625 -9.13548e-05
24.6725 -5.44605e-05
24.6825 -2.7933e-05
24.6925 -1.35439e-05
24.7025 -1.37741e-05
24.7125 -3.18e-05
24.7225 -6.30223e-05
24.7325 -0.000110529
24.7425 -0.000172961
24.7525 -0.000250348
24.7625 -0.000342515
24.7725 -0.000449283
24.7825 -0.000569899
24.7925 -0.000703155
24.8025 -0.000847131
24.8125 -0.00100256
24.8225 -0.00116838
24.8325 -0.00134186
24.8425 -0.0015219
24.8525 -0.00170728
24.8625 -0.00189866
24.8725 -0.00209214
24.8825 -0.00228571
24.8925 -0.00247888
24.9025 -0.00266986
24.9125 -0.00285734
24.9225 -0.00303985
24.9325 -0.0032159
24.9425 -0.00338424
24.9525 -0.0035439
24.9625 -0.00369398
24.9725 -0.00383376
24.9825 -0.00396257
24.9925 -0.00408022
25.0025 -0.00418777
25.0125 -0.00428448
25.0225 -0.0043692
25.0325 -0.0044433
25.0425 -0.00450653
25.0525 -0.0045595
25.0625 -0.004603
25.0725 -0.00463781
25.0825 -0.00466511
25.0925 -0.00468601
25.1025 -0.00470172
25.1125 -0.00471345
25.1225 -0.00472189
25.1325 -0.00472824
25.1425 -0.00473386
25.1525 -0.00474021
25.1625 -0.00474834
25.1725 -0.00475897
25.1825 -0.00477277
25.1925 -0.00479055
25.2025 -0.00481324
25.2125 -0.00484155
25.2225 -0.00487583
25.2325 -0.00491605
25.2425 -0.00496208
25.2525 -0.00501373
25.2625 -0.0050708
25.2725 -0.00513289
25.2825 -0.00519989
25.2925 -0.00527056
25.3025 -0.00534368
25.3125 -0.00541888
25.3225 -0.00549511
25.3325 -0.00557146
25.3425 -0.00564697
25.3525 -0.0057206
25.3625 -0.00579151
25.3725 -0.00585942
25.3825 -0.00592394
25.3925 -0.00598519
25.4025 -0.00604255
25.4125 -0.00609541
25.4225 -0.00614421
25.4325 -0.00618892
25.4425 -0.00622995
25.4525 -0.00626741
25.4625 -0.0063014
25.4725 -0.00633246
25.4825 -0.00636133
25.4925 -0.00638876
25.5025 -0.00641537
25.5125 -0.00644176
25.5225 -0.00646855
25.5325 -0.00649658
25.5425 -0.00652683
25.5525 -0.00656013
25.5625 -0.00659717
25.5725 -0.00663854
25.5825 -0.0066848
25.5925 -0.00673654
25.6025 -0.00679426
25.6125 -0.00685833
25.6225 -0.00692887
25.6325 -0.00700591
25.6425 -0.00708942
25.6525 -0.00717914
25.6625 -0.00727485
25.6725 -0.00737631
25.6825 -0.00748297
25.6925 -0.0075941
25.7025 -0.0077091
25.7125 -0.00782702
25.7225 -0.0079469
25.7325 -0.00806771
25.7425 -0.00818827
25.7525 -0.00830737
25.7625 -0.00842386
25.7725 -0.00853665
25.7825 -0.00864472
25.7925 -0.00874711
25.8025 -0.00884294
25.8125 -0.00893146
25.8225 -0.00901208
25.8325 -0.00908441
25.8425 -0.00914819
25.8525 -0.00920334
25.8625 -0.00924993
25.8725 -0.00928822
25.8825 -0.00931889
25.8925 -0.0093442
25.9025 -0.00936232
25.9125 -0.00937424
25.9225 -0.00938118
25.9325 -0.00938343
25.9425 -0.00938221
25.9525 -0.00937838
25.9625 -0.00937286
25.9725 -0.00936633
25.9825 -0.00935945
25.9925 -0.0093531
26.0025 -0.00934817
26.0125 -0.00934535
26.0225 -0.00934502
26.0325 -0.0093474
26.0425 -0.00935275
26.0525 -0.00936142
26.0625 -0.00937365
26.0725 -0.00938947
26.0825 -0.00940873
26.0925 -0.0094312
26.1025 -0.00945631
26.1125 -0.00948361
26.1225 -0.00951244
26.1325 -0.00954196
26.1425 -0.00957141
26.1525 -0.00959999
26.1625 -0.00962613
26.1725 -0.00964926
26.1825 -0.00966844
26.1925 -0.00968273
26.2025 -0.00969121
26.2125 -0.00969336
26.2225 -0.00968863
26.2325 -0.00967655
26.2425 -0.00965679
26.2525 -0.00962912
26.2625 -0.00959349
26.2725 -0.00955011
26.2825 -0.00949938
26.2925 -0.0094418
26.3025 -0.00937799
26.3125 -0.00930873
26.3225 -0.00923495
26.3325 -0.00915772
26.3425 -0.00907817
26.3525 -0.00899744
26.3625 -0.00891671
26.3725 -0.00883715
26.3825 -0.00875992
26.3925 -0.00868614
26.4025 -0.00861681
26.4125 -0.00855282
26.4225 -0.00849489
26.4325 -0.00844354
26.4425 -0.00839927
26.4525 -0.00836242
26.4625 -0.00833313
26.4725 -0.00831125
26.4825 -0.00829646
26.4925 -0.00828833
26.5025 -0.00828636
26.5125 -0.00828988
26.5225 -0.00829804
26.5325 -0.00830985
26.5425 -0.00832425
26.5525 -0.00834015
26.5625 -0.0083565
26.5725 -0.00837218
26.5825 -0.00838609
26.5925 -0.00839716
26.6025 -0.00840439
26.6125 -0.00840694
26.6225 -0.00840405
26.6325 -0.00839509
26.6425 -0.00837957
26.6525 -0.00835712
26.6625 -0.00832758
26.6725 -0.00829093
26.6825 -0.00824732
26.6925 -0.00819703
26.7025 -0.00814048
26.7125 -0.00807822
26.7225 -0.0080109
26.7325 -0.00793928
26.7425 -0.00786416
26.7525 -0.0077864
26.7625 -0.00770686
26.7725 -0.00762639
26.7825 -0.00754583
26.7925 -0.00746596
26.8025 -0.00738748
26.8125 -0.007311
26.8225 -0.007237
26.8325 -0.00716588
26.8425 -0.00709788
26.8525 -0.00703309
26.8625 -0.00697149
26.8725 -0.0069129
26.8825 -0.00685701
26.8925 -0.0068034
26.9025 -0.00675151
26.9125 -0.00670072
26.9225 -0.0066503
26.9325 -0.00659949
26.9425 -0.00654747
26.9525 -0.00649342
26.9625 -0.00643654
26.9725 -0.00637605
26.9825 -0.00631123
26.9925 -0.00624143
27.0025 -0.00616611
27.0125 -0.00608483
27.0225 -0.00599648
27.0325 -0.00590063
27.0425 -0.00579972
27.0525 -0.00569271
27.0625 -0.00558051
27.0725 -0.00546334
27.0825 -0.00534138
27.0925 -0.00521509
27.1025 -0.00508564
27.1125 -0.00495311
27.1225 -0.00481839
27.1325 -0.00468228
27.1425 -0.0045454
27.1525 -0.00440842
27.1625 -0.00427199
27.1725 -0.0041368
27.1825 -0.00400359
27.1925 -0.00387299
27.2025 -0.00374556
27.2125 -0.00362174
27.2225 -0.00350194
27.2325 -0.00338653
27.2425 -0.0032758
27.2525 -0.00316864
27.2625 -0.00306678
27.2725 -0.00297165
27.2825 -0.00288094
27.2925 -0.00279495
27.3025 -0.00271435
27.3125 -0.00263919
27.3225 -0.00256993
27.3325 -0.00250559
27.3425 -0.00244574
27.3525 -0.00239047
27.3625 -0.00233967
27.3725 -0.00229338
27.3825 -0.00225133
27.3925 -0.00221309
27.4025 -0.00217841
27.4125 -0.00214714
27.4225 -0.00211916
27.4325 -0.00209432
27.4425 -0.00207236
27.4525 -0.00205309
27.4625 -0.00203637
27.4725 -0.00202213
27.4825 -0.00201031
27.4925 -0.00200083
27.5025 -0.00199364
27.5125 -0.00198867
27.5225 -0.00198592
27.5325 -0.00198538
27.5425 -0.00198706
27.5525 -0.00199096
27.5625 -0.00199703
27.5725 -0.00200524
27.5825 -0.00201554
27.5925 -0.00202786
27.6025 -0.00204213
27.6125 -0.0020582
27.6225 -0.00207585
27.6325 -0.00209491
27.6425 -0.00211514
27.6525 -0.00213627
27.6625 -0.00215799
27.6725 -0.00217995
27.6825 -0.00220177
27.6925 -0.00222306
27.7025 -0.00224339
27.7125 -0.0022623
27.7225 -0.00227934
27.7325 -0.00229404
27.7425 -0.00230591
27.7525 -0.00231449
27.7625 -0.00231933
27.7725 -0.00231999
27.7825 -0.00231608
27.7925 -0.00230722
27.8025 -0.00229309
27.8125 -0.00227344
27.8225 -0.00224806
27.8325 -0.0022168
27.8425 -0.0021796
27.8525 -0.00213647
27.8625 -0.0020875
27.8725 -0.00203284
27.8825 -0.00197275
27.8925 -0.00190755
27.9025 -0.00183764
27.9125 -0.0017635
27.9225 -0.00168553
27.9325 -0.00160363
27.9425 -0.0015193
27.9525 -0.00143306
27.9625 -0.00134515
27.9725 -0.00125619
27.9825 -0.00116674
27.9925 -0.00107757
28.0025 -0.000989393
28.0125 -0.000902799
28.0225 -0.000818387
28.0325 -0.000736771
28.0425 -0.000658616
28.0525 -0.000584568
28.0625 -0.000515192
28.0725 -0.000450959
28.0825 -0.000392284
28.0925 -0.000339553
28.1025 -0.000293105
28.1125 -0.000253027
28.1225 -0.000219559
28.1325 -0.000192978
28.1425 -0.000173297
28.1525 -0.000160567
28.1625 -0.000154709
28.1725 -0.000155576
28.1825 -0.000162945
28.1925 -0.000176633
28.2025 -0.000196341
28.2125 -0.000221691
28.2225 -0.000252267
28.2325 -0.000287629
28.2425 -0.000327298
28.2525 -0.000370764
28.2625 -0.00041749
28.2725 -0.000466929
28.2825 -0.000518535
28.2925 -0.000571761
28.3025 -0.000626075
28.3125 -0.000680914
28.3225 -0.000735799
28.3325 -0.000790313
28.3425 -0.000844085
28.3525 -0.000896802
28.3625 -0.000948194
28.3725 -0.000998054
28.3825 -0.00104622
28.3925 -0.00109258
28.4025 -0.00113704
28.4125 -0.00117958
28.4225 -0.00122018
28.4325 -0.00125885
28.4425 -0.00129562
28.4525 -0.00133052
28.4625 -0.00136358
28.4725 -0.00139485
28.4825 -0.00142434
28.4925 -0.00145205
28.5025 -0.00147797
28.5125 -0.00150207
28.5225 -0.00152431
28.5325 -0.0015446
28.5425 -0.00156285
28.5525 -0.00157896
28.5625 -0.0015928
28.5725 -0.00160424
28.5825 -0.00161315
28.5925 -0.00161941
28.6025 -0.00162291
28.6125 -0.00162355
28.6225 -0.00162129
28.6325 -0.00161611
28.6425 -0.00160802
28.6525 -0.00159709
28.6625 -0.00158345
28.6725 -0.00156726
28.6825 -0.00154877
28.6925 -0.00152826
28.7025 -0.00150608
28.7125 -0.00148262
28.7225 -0.00145834
28.7325 -0.00143373
28.7425 -0.00140934
28.7525 -0.00138572
28.7625 -0.00136347
28.7725 -0.00134319
28.7825 -0.00132547
28.7925 -0.00131091
28.8025 -0.00130009
28.8125 -0.00129355
28.8225 -0.00129178
28.8325 -0.00129524
28.8425 -0.00130431
28.8525 -0.00131931
28.8625 -0.00134047
28.8725 -0.00136796
28.8825 -0.00140186
28.8925 -0.00144213
28.9025 -0.00148869
28.9125 -0.00154134
28.9225 -0.0015998
28.9325 -0.00166373
28.9425 -0.00173269
28.9525 -0.00180619
28.9625 -0.00188369
28.9725 -0.00196457
28.9825 -0.00204817
28.9925 -0.00213351
29.0025 -0.00222017
29.0125 -0.00230733
29.0225 -0.00239424
29.0325 -0.00248015
29.0425 -0.00256442
29.0525 -0.00264635
29.0625 -0.00272532
29.0725 -0.00280044
29.0825 -0.00287257
29.0925 -0.00294151
29.1025 -0.00300641
29.1125 -0.00306729
29.1225 -0.00312581
29.1325 -0.00318221
29.1425 -0.00323468
29.1525 -0.00328472
29.1625 -0.00333158
29.1725 -0.0033753
29.1825 -0.00341654
29.1925 -0.00345576
29.2025 -0.00349349
29.2125 -0.00352996
29.2225 -0.0035653
29.2325 -0.00359979
29.2425 -0.00363401
29.2525 -0.00366854
29.2625 -0.00370381
29.2725 -0.00374007
29.2825 -0.00377755
29.2925 -0.00381657
29.3025 -0.00385751
29.3125 -0.00390073
29.3225 -0.00394648
29.3325 -0.00399485
29.3425 -0.00404591
29.3525 -0.00409974
29.3625 -0.00415645
29.3725 -0.00421607
29.3825 -0.00427855
29.3925 -0.00434374
29.4025 -0.00441145
29.4125 -0.00448151
29.4225 -0.00455373
29.4325 -0.00462789
29.4425 -0.0047037
29.4525 -0.00478084
29.4625 -0.00485896
29.4725 -0.00493775
29.4825 -0.00501691
29.4925 -0.00509612
29.5025 -0.00517506
29.5125 -0.00525341
29.5225 -0.00533089
29.5325 -0.00540723
29.5425 -0.00548223
29.5525 -0.00555568
29.5625 -0.00562741
29.5725 -0.00569729
29.5825 -0.00576523
29.5925 -0.00583116
29.6025 -0.00589508
29.6125 -0.00595701
29.6225 -0.00601701
29.6325 -0.00607517
29.6425 -0.00613161
29.6525 -0.00618647
29.6625 -0.00623995
29.6725 -0.00629222
29.6825 -0.00634351
29.6925 -0.00639401
29.7025 -0.00644396
29.7125 -0.00649356
29.7225 -0.00654303
29.7325 -0.00659257
29.7425 -0.00664235
29.7525 -0.00669254
29.7625 -0.00674326
29.7725 -0.00679461
29.7825 -0.00684667
29.7925 -0.00689947
29.8025 -0.00695299
29.8125 -0.0070072
29.8225 -0.00706202
29.8325 -0.00711732
29.8425 -0.00717296
29.8525 -0.00722873
29.8625 -0.00728442
29.8725 -0.00733973
29.8825 -0.0073944
29.8925 -0.00744809
29.9025 -0.00750051
29.9125 -0.00755129
29.9225 -0.00760009
29.9325 -0.00764656
29.9425 -0.00769037
29.9525 -0.00773118
29.9625 -0.00776868
29.9725 -0.0078026
29.9825 -0.00783278
29.9925 -0.00785897
30.0025 -0.007881
30.0125 -0.00789881
30.0225 -0.00791231
30.0325 -0.00792152
30.0425 -0.00792647
30.0525 -0.00792732
30.0625 -0.00792423
30.0725 -0.00791741
30.0825 -0.00790716
30.0925 -0.00789377
30.1025 -0.00787746
30.1125 -0.00785859
30.1225 -0.00783757
30.1325 -0.00781485
30.1425 -0.00779082
30.1525 -0.00776581
30.1625 -0.00774018
30.1725 -0.00771432
30.1825 -0.00768867
30.1925 -0.00766361
30.2025 -0.00763948
30.2125 -0.00761654
30.2225 -0.00759502
30.2325 -0.00757517
30.2425 -0.00755721
30.2525 -0.00754131
30.2625 -0.00752764
30.2725 -0.00751616
30.2825 -0.00750679
30.2925 -0.00749943
30.3025 -0.00749392
30.3125 -0.00749002
30.3225 -0.00748745
30.3325 -0.00748585
30.3425 -0.00748486
30.3525 -0.00748409
30.3625 -0.00748315
30.3725 -0.00748166
30.3825 -0.00747922
30.3925 -0.00747544
30.4025 -0.00746998
30.4125 -0.00746256
30.4225 -0.00745292
30.4325 -0.00744085
30.4425 -0.0074262
30.4525 -0.00740887
30.4625 -0.00738885
30.4725 -0.00736617
30.4825 -0.00734093
30.4925 -0.00731327
30.5025 -0.0072834
30.5125 -0.00725155
30.5225 -0.00721803
30.5325 -0.00718313
30.5425 -0.00714721
30.5525 -0.0071106
30.5625 -0.00707365
30.5725 -0.0070367
30.5825 -0.00700007
30.5925 -0.00696405
30.6025 -0.00692889
30.6125 -0.00689482
30.6225 -0.00686198
30.6325 -0.00683049
30.6425 -0.0068004
30.6525 -0.0067717
30.6625 -0.00674431
30.6725 -0.0067181
30.6825 -0.00669289
30.6925 -0.00666844
30.7025 -0.00664445
30.7125 -0.00662061
30.7225 -0.00659656
30.7325 -0.00657191
30.7425 -0.00654628
30.7525 -0.00651926
30.7625 -0.00649047
30.7725 -0.00645953
30.7825 -0.0064261
30.7925 -0.00638985
30.8025 -0.00635052
30.8125 -0.00630789
30.8225 -0.0062618
30.8325 -0.00621213
30.8425 -0.00615885
30.8525 -0.00610198
30.8625 -0.00604161
30.8725 -0.00597789
30.8825 -0.00591102
30.8925 -0.00584129
30.9025 -0.00576899
30.9125 -0.00569449
30.9225 -0.00561818
30.9325 -0.00554044
30.9425 -0.00546161
30.9525 -0.00538231
30.9625 -0.00530254
30.9725 -0.00522241
30.9825 -0.00514274
30.9925 -0.00506352
31.0025 -0.00498514
31.0125 -0.0049078
31.0225 -0.00483158
31.0325 -0.00475655
31.0425 -0.00468279
31.0525 -0.00460977
31.0625 -0.00453742
31.0725 -0.0044671
31.0825 -0.00439797
31.0925 -0.00433034
31.1025 -0.00426416
31.1125 -0.00419925
31.1225 -0.00413558
31.1325 -0.00407296
31.1425 -0.00401124
31.1525 -0.00395021
31.1625 -0.00388967
31.1725 -0.00382942
31.1825 -0.00376921
31.1925 -0.00370881
31.2025 -0.00364689
31.2125 -0.00358484
31.2225 -0.00352328
31.2325 -0.00346026
31.2425 -0.00339631
31.2525 -0.00333207
31.2625 -0.00326811
31.2725 -0.00320405
31.2825 -0.0031397
31.2925 -0.00307519
31.3025 -0.00301096
31.3125 -0.00294757
31.3225 -0.00288529
31.3325 -0.00282424
31.3425 -0.00276466
31.3525 -0.00270695
31.3625 -0.00265154
31.3725 -0.00259881
31.3825 -0.00254905
31.3925 -0.00250252
31.4025 -0.00245952
31.4125 -0.00242036
31.4225 -0.00238529
31.4325 -0.00235452
31.4425 -0.00232821
31.4525 -0.00230647
31.4625 -0.00228937
31.4725 -0.00227692
31.4825 -0.00226911
31.4925 -0.00226582
31.5025 -0.00226688
31.5125 -0.00227208
31.5225 -0.00228114
31.5325 -0.00229372
31.5425 -0.00230943
31.5525 -0.00232786
31.5625 -0.00234853
31.5725 -0.00237091
31.5825 -0.00239448
31.5925 -0.00241869
31.6025 -0.00244299
31.6125 -0.0024668
31.6225 -0.00248958
31.6325 -0.0025108
31.6425 -0.00252995
31.6525 -0.00254656
31.6625 -0.00256019
31.6725 -0.00257046
31.6825 -0.00257703
31.6925 -0.00257963
31.7025 -0.00257806
31.7125 -0.00257215
31.7225 -0.00256183
31.7325 -0.00254709
31.7425 -0.00252797
31.7525 -0.0025046
31.7625 -0.00247715
31.7725 -0.00244585
31.7825 -0.002411
31.7925 -0.00237293
31.8025 -0.002332
31.8125 -0.00228862
31.8225 -0.00224322
31.8325 -0.00219626
31.8425 -0.00214819
31.8525 -0.00209947
31.8625 -0.00205051
31.8725 -0.00200132
31.8825 -0.00195279
31.8925 -0.00190531
31.9025 -0.00185895
31.9125 -0.00181398
31.9225 -0.00177059
31.9325 -0.00172902
31.9425 -0.0016895
31.9525 -0.00165212
31.9625 -0.00161693
31.9725 -0.00158397
31.9825 -0.00155328
31.9925 -0.00152489
32.0025 -0.00149878
32.015 -0.00146925
32.0275 -0.00144299
32.04 -0.00141985
32.0525 -0.00139966
32.065 -0.00138221
32.0775 -0.00136727
32.09 -0.00135465
32.1025 -0.00134419
32.115 -0.00133575
32.1275 -0.00132923
32.14 -0.00132456
32.1525 -0.00132172
32.165 -0.00132073
32.1775 -0.00132164
32.19 -0.00132462
32.2025 -0.0013299
32.215 -0.00133777
32.2275 -0.00134852
32.24 -0.00136243
32.2525 -0.00137975
32.265 -0.00140072
32.2775 -0.00142549
32.29 -0.00145412
32.3025 -0.00148659
32.315 -0.00152275
32.3275 -0.00156235
32.34 -0.00160502
32.3525 -0.00165028
32.365 -0.00169751
32.3775 -0.00174603
32.39 -0.00179507
32.4025 -0.0018438
32.415 -0.00189136
32.4275 -0.00193688
32.44 -0.00197953
32.4525 -0.00201854
32.465 -0.0020532
32.4775 -0.0020829
32.49 -0.0021072
32.5025 -0.00212577
32.515 -0.00213844
32.5275 -0.0021452
32.54 -0.00214622
32.5525 -0.00214181
32.565 -0.00213246
32.5775 -0.00211876
32.59 -0.00210146
32.6025 -0.00208137
32.615 -0.0020594
32.6275 -0.00203647
32.64 -0.00201354
32.6525 -0.00199153
32.665 -0.00197134
32.6775 -0.00195379
32.69 -0.00193959
32.7025 -0.00192937
32.715 -0.00192363
32.7275 -0.00192273
32.74 -0.00192691
32.7525 -0.00193626
32.765 -0.00195077
32.7775 -0.00197029
32.79 -0.00199457
32.8025 -0.0020233
32.815 -0.00205606
32.8275 -0.00209242
32.84 -0.0021319
32.8525 -0.00217404
32.865 -0.00221837
32.8775 -0.00226446
32.89 -0.00231192
32.9025 -0.00236042
32.915 -0.00240969
32.9275 -0.00245952
32.94 -0.00250977
32.9525 -0.00256034
32.965 -0.0026112
32.9775 -0.00266196
32.99 -0.00271245
33.0025 -0.00276288
33.015 -0.00281308
33.0275 -0.00286289
33.04 -0.00291201
33.0525 -0.00295997
33.065 -0.00300771
33.0775 -0.00305553
33.09 -0.00310411
33.1025 -0.00315139
33.115 -0.00319843
33.1275 -0.00324504
33.14 -0.003291
33.1525 -0.0033358
33.165 -0.00337949
33.1775 -0.0034223
33.19 -0.00346423
33.2025 -0.00350502
33.215 -0.00354452
33.2275 -0.00358291
33.24 -0.00362044
33.2525 -0.00365712
33.265 -0.00369305
33.2775 -0.00372835
33.29 -0.00376326
33.3025 -0.00379821
33.315 -0.0038333
33.3275 -0.00386875
33.34 -0.00390483
33.3525 -0.00394194
33.365 -0.00398034
33.3775 -0.00402022
33.39 -0.00406178
33.4025 -0.00410528
33.415 -0.00415094
33.4275 -0.00419891
33.44 -0.00424926
33.4525 -0.00430208
33.465 -0.00435741
33.4775 -0.00441529
33.49 -0.00447565
33.5025 -0.00453837
33.515 -0.00460335
33.5275 -0.00467043
33.54 -0.00473943
33.5525 -0.00481009
33.565 -0.00488216
33.5775 -0.00495537
33.59 -0.00502944
33.6025 -0.00510407
33.615 -0.00517895
33.6275 -0.00525376
33.64 -0.00532821
33.6525 -0.00540201
33.665 -0.00547489
33.6775 -0.00554657
33.69 -0.00561681
33.7025 -0.00568541
33.715 -0.00575217
33.7275 -0.00581693
33.74 -0.00587954
33.7525 -0.00593989
33.765 -0.00599791
33.7775 -0.00605351
33.79 -0.00610666
33.8025 -0.00615734
33.815 -0.00620553
33.8275 -0.00625123
33.84 -0.00629446
33.8525 -0.00633523
33.865 -0.00637355
33.8775 -0.00640943
33.89 -0.00644289
33.9025 -0.00647394
33.915 -0.00650255
33.9275 -0.00652872
33.94 -0.00655242
33.9525 -0.00657362
33.965 -0.00659227
33.9775 -0.00660832
33.99 -0.00662171
34.0025 -0.00663238
34.015 -0.00664026
34.0275 -0.00664529
34.04 -0.00664742
34.0525 -0.00664662
34.065 -0.00664287
34.0775 -0.00663616
34.09 -0.00662653
34.1025 -0.00661404
34.115 -0.00659877
34.1275 -0.00658087
34.14 -0.00656048
34.1525 -0.00653782
34.165 -0.0065131
34.1775 -0.00648659
34.19 -0.00645857
34.2025 -0.00642934
34.215 -0.00639925
34.2275 -0.00636862
34.24 -0.00633779
34.2525 -0.00630712
34.265 -0.00627695
34.2775 -0.00624762
34.29 -0.00621943
34.3025 -0.00619266
34.315 -0.00616753
34.3275 -0.00614423
34.34 -0.00612292
34.3525 -0.00610366
34.365 -0.00608649
34.3775 -0.00607137
34.39 -0.00605822
34.4025 -0.0060469
34.415 -0.00603722
34.4275 -0.00602894
34.44 -0.00602181
34.4525 -0.00601554
34.465 -0.00600981
34.4775 -0.00600432
34.49 -0.00599875
34.5025 -0.0059928
34.515 -0.00598618
34.5275 -0.00597862
34.54 -0.00596987
34.5525 -0.00595974
34.565 -0.00594804
34.5775 -0.00593463
34.59 -0.00591941
34.6025 -0.00590229
34.615 -0.00588323
34.6275 -0.00586221
34.64 -0.00583922
34.6525 -0.00581427
34.665 -0.00578739
34.6775 -0.0057586
34.69 -0.00572793
34.7025 -0.00569539
34.715 -0.00566099
34.7275 -0.00562473
34.74 -0.00558659
34.7525 -0.00554654
34.765 -0.00550453
34.7775 -0.00546051
34.79 -0.0054144
34.8025 -0.00536614
34.815 -0.00531564
34.8275 -0.00526284
34.84 -0.00520767
34.8525 -0.00515009
34.865 -0.00509007
34.8775 -0.00502762
34.89 -0.00496273
34.9025 -0.00489537
34.915 -0.00482537
34.9275 -0.004753
34.94 -0.00467816
34.9525 -0.00460105
34.965 -0.00452177
34.9775 -0.00444019
34.99 -0.00435605
35.0025 -0.00427096
35.015 -0.00418472
35.0275 -0.00409802
35.04 -0.00401108
35.0525 -0.00392435
35.065 -0.0038382
35.0775 -0.00375301
35.09 -0.00366907
35.1025 -0.00358665
35.115 -0.003506
35.1275 -0.00342643
35.14 -0.00334958
35.1525 -0.00327554
35.165 -0.00320354
35.1775 -0.00313447
35.19 -0.0030688
35.2025 -0.00300646
35.215 -0.00294728
35.2275 -0.00289186
35.24 -0.00284038
35.2525 -0.0027928
35.265 -0.00274913
35.2775 -0.00270966
35.29 -0.0026746
35.3025 -0.00264402
35.315 -0.00261793
35.3275 -0.00259643
35.34 -0.0025796
35.3525 -0.00256741
35.365 -0.00255982
35.3775 -0.00255674
35.39 -0.00255801
35.4025 -0.00256346
35.415 -0.00257284
35.4275 -0.00258582
35.44 -0.00260202
35.4525 -0.00262104
35.465 -0.00264238
35.4775 -0.00266553
35.49 -0.0026899
35.5025 -0.0027149
35.515 -0.00273991
35.5275 -0.0027643
35.54 -0.00278743
35.5525 -0.00280866
35.565 -0.0028274
35.5775 -0.00284306
35.59 -0.00285512
35.6025 -0.00286308
35.615 -0.00286654
35.6275 -0.00286515
35.64 -0.00285863
35.6525 -0.00284681
35.665 -0.00282958
35.6775 -0.00280696
35.69 -0.00277901
35.7025 -0.00274593
35.715 -0.00270798
35.7275 -0.0026655
35.74 -0.00261893
35.7525 -0.00256877
35.765 -0.00251556
35.7775 -0.00245992
35.79 -0.00240249
35.8025 -0.00234365
35.815 -0.00228394
35.8275 -0.00222447
35.84 -0.00216536
35.8525 -0.0021071
35.865 -0.00205019
35.8775 -0.00199519
35.89 -0.00194248
35.9025 -0.00189237
35.915 -0.00184524
35.9275 -0.00180146
35.94 -0.00176132
35.9525 -0.00172503
35.965 -0.00169279
35.9775 -0.00166477
35.99 -0.00164112
36.0025 -0.00162191
36.015 -0.00160719
36.0275 -0.00159697
36.04 -0.00159124
36.0525 -0.00158995
36.065 -0.00159297
36.0775 -0.0016002
36.09 -0.00161148
36.1025 -0.00162662
36.115 -0.00164536
36.1275 -0.00166746
36.14 -0.0016926
36.1525 -0.00172048
36.165 -0.00175076
36.1775 -0.00178313
36.19 -0.00181727
36.2025 -0.00185282
36.215 -0.00188945
36.2275 -0.00192679
36.24 -0.00196451
36.2525 -0.00200222
36.265 -0.00203958
36.2775 -0.00207619
36.29 -0.0021117
36.3025 -0.00214574
36.315 -0.00217794
36.3275 -0.00220795
36.34 -0.00223545
36.3525 -0.00226012
36.365 -0.00228167
36.3775 -0.00229987
36.39 -0.00231451
36.4025 -0.00232543
36.415 -0.00233254
36.4275 -0.0023358
36.44 -0.00233523
36.4525 -0.00233093
36.465 -0.00232305
36.4775 -0.00231184
36.49 -0.00229759
36.5025 -0.00228067
36.515 -0.00226149
36.5275 -0.00224053
36.54 -0.00221832
36.5525 -0.0021954
36.565 -0.00217236
36.5775 -0.00214979
36.59 -0.00212828
36.6025 -0.00210841
36.615 -0.00209075
36.6275 -0.00207583
36.64 -0.00206412
36.6525 -0.00205607
