0.0025 0.00310553 -0.00206289 0.00447618 -0.00408888 -0.000904672 0.000327817
0.0125 0.00227319 -0.00289932 0.0036423 -0.00492154 -0.00173801 -0.000505718
0.0225 0.000111145 -0.00507387 0.00146916 -0.00708897 -0.00390736 -0.00267591
0.035 -0.00448455 -0.0096949 -0.00317736 -0.0117219 -0.0085386 -0.00730876
0.045 -0.00971901 -0.014957 -0.00850802 -0.0170383 -0.013845 -0.0126168
0.055 -0.016403 -0.0216752 -0.0153693 -0.0238843 -0.0206672 -0.0194406
0.065 -0.0245915 -0.029904 -0.0238535 -0.0323529 -0.0290926 -0.027867
0.075 -0.0343358 -0.039694 -0.0340556 -0.0425395 -0.0392106 -0.0379851
0.085 -0.0456878 -0.0510964 -0.0460762 -0.0545459 -0.0511176 -0.0498912
0.095 -0.0587059 -0.0641689 -0.0600263 -0.0684854 -0.0649227 -0.0636939
0.105 -0.0734294 -0.0789498 -0.0760017 -0.0844556 -0.0807218 -0.0794887
0.115 -0.089841 -0.0954207 -0.0940447 -0.102501 -0.0985599 -0.0973201
0.125 -0.107815 -0.113453 -0.11409 -0.122557 -0.118378 -0.117128
0.135 -0.127068 -0.132755 -0.135912 -0.1444 -0.139961 -0.138699
0.145 -0.147134 -0.15286 -0.159098 -0.167623 -0.162914 -0.161636
0.155 -0.167367 -0.173123 -0.183051 -0.191631 -0.186665 -0.185367
0.165 -0.186987 -0.192756 -0.207022 -0.215679 -0.210498 -0.209175
0.175 -0.205145 -0.210907 -0.230176 -0.238935 -0.233617 -0.232266
0.185 -0.221009 -0.226736 -0.251669 -0.260557 -0.25523 -0.253846
0.195 -0.233812 -0.239478 -0.270698 -0.279743 -0.274595 -0.273175
0.205 -0.24286 -0.248433 -0.286499 -0.295728 -0.291015 -0.289558
0.215 -0.247454 -0.252902 -0.298269 -0.307709 -0.303768 -0.302272
0.225 -0.246824 -0.252115 -0.305102 -0.314774 -0.31203 -0.310495
0.235 -0.240067 -0.245166 -0.305919 -0.315843 -0.314812 -0.313241
0.245 -0.226143 -0.231016 -0.299469 -0.30966 -0.310956 -0.309352
0.255 -0.20399 -0.208602 -0.284439 -0.294906 -0.29924 -0.29761
0.265 -0.172859 -0.177176 -0.25979 -0.27053 -0.278713 -0.277067
0.275 -0.132783 -0.136779 -0.225236 -0.236241 -0.249165 -0.247517
0.285 -0.0849987 -0.0886618 -0.181664 -0.192913 -0.211552 -0.20992
0.295 -0.0318897 -0.0352282 -0.131104 -0.142555 -0.167944 -0.166348
0.305 0.0235845 0.0205385 -0.0761768 -0.087768 -0.120974 -0.119436
0.315 0.0785094 0.0757138 -0.0194982 -0.0311434 -0.0732305 -0.071778
0.325 0.130312 0.127705 0.0366015 0.0250036 -0.0269727 -0.0256371
0.335 0.176923 0.174419 0.0902051 0.0787629 0.0159983 0.0171844
0.345 0.216959 0.21446 0.13999 0.128816 0.0545256 0.0555301
0.355 0.249789 0.247199 0.185286 0.174494 0.0881577 0.0889526
0.365 0.275452 0.272664 0.225976 0.215672 0.117043 0.117605
0.375 0.294451 0.29137 0.262321 0.252601 0.141753 0.142064
0.385 0.307558 0.30412 0.294775 0.28572 0.163085 0.163133
0.395 0.315753 0.311906 0.323911 0.31559 0.181982 0.181764
0.405 0.320104 0.315802 0.350318 0.342772 0.199422 0.198941
0.415 0.321574 0.31679 0.374459 0.367705 0.216254 0.215525
0.425 0.320811 0.315538 0.396458 0.39049 0.232983 0.232026
0.435 0.318027 0.312269 0.415994 0.410783 0.249647 0.248493
0.445 0.31315 0.306918 0.432462 0.427963 0.265979 0.264663
0.455 0.30625 0.299569 0.445429 0.441581 0.281832 0.2804
0.465 0.29805 0.290959 0.455158 0.451868 0.2977 0.296201
0.475 0.290197 0.282749 0.462877 0.460034 0.314984 0.313473
0.485 0.285219 0.277496 0.470769 0.468251 0.335974 0.334512
0.495 0.286424 0.278528 0.481885 0.479559 0.363747 0.362401
0.5075 0.302642 0.294706 0.506159 0.503855 0.413734 0.412625
0.52 0.342836 0.335098 0.549698 0.547143 0.488092 0.487325
0.5325 0.414115 0.40684 0.620117 0.617038 0.593881 0.593553
0.545 0.520757 0.514208 0.722647 0.718801 0.735567 0.735764
0.5575 0.663077 0.65749 0.859022 0.854214 0.913933 0.914731
0.57 0.836914 0.832461 1.02689 1.02099 1.12554 1.12697
0.5825 1.03353 1.03029 1.21958 1.21259 1.36258 1.36463
0.595 1.24029 1.23823 1.42664 1.41865 1.61343 1.61608
0.6075 1.44295 1.44191 1.63591 1.62716 1.86491 1.8681
0.62 1.62896 1.62867 1.83664 1.82744 2.1054 2.10903
0.6325 1.78975 1.78988 2.02158 2.01236 2.32705 2.331
0.645 1.92116 1.92133 2.18731 2.17851 2.52612 2.53025
0.6575 2.02261 2.02244 2.33335 2.32541 2.7021 2.7063
0.67 2.09621 2.09535 2.46125 2.4546 2.85689 2.86104
0.6825 2.14564 2.14377 2.57352 2.56853 2.99362 2.9976
0.695 2.17475 2.17161 2.67234 2.6693 3.11532 3.11906
0.7075 2.18714 2.18254 2.7592 2.75833 3.22457 3.22803
0.72 2.18716 2.18099 2.83605 2.83745 3.32451 3.32767
0.7325 2.1809 2.17313 2.90638 2.91006 3.41989 3.42277
0.745 2.17594 2.16664 2.9752 2.98105 3.5169 3.51956
0.7575 2.17999 2.16933 3.04778 3.05557 3.62189 3.62441
0.77 2.19885 2.18707 3.12781 3.13721 3.73939 3.7419
0.7825 2.23501 2.22241 3.21608 3.2267 3.8708 3.87343
0.795 2.28833 2.27522 3.31127 3.32268 4.01506 4.01798
0.8075 2.35749 2.3442 3.41143 3.42321 4.17017 4.17352
0.82 2.4406 2.42745 3.51462 3.52631 4.33372 4.33766
0.8325 2.53536 2.52263 3.619 3.6302 4.50313 4.50778
0.845 2.63922 2.62716 3.72298 3.73333 4.67571 4.68119
0.8575 2.74955 2.73839 3.82533 3.83453 4.84887 4.85528
0.87 2.86367 2.85355 3.92509 3.93292 5.02008 5.02748
0.8825 2.97865 2.96967 4.02133 4.02764 5.18671 5.19511
0.895 3.09142 3.08361 4.11307 4.11783 5.34602 5.3554
0.9075 3.19925 3.19259 4.19976 4.203 5.49567 5.50599
0.92 3.30041 3.2948 4.28169 4.28356 5.63433 5.64549
0.9325 3.39431 3.38962 4.36019 4.36089 5.7618 5.77368
0.945 3.48093 3.47699 4.43688 4.43667 5.87844 5.8909
0.9575 3.55941 3.55602 4.51221 4.51141 5.98371 5.99659
0.97 3.62661 3.62353 4.58397 4.58294 6.07478 6.08788
0.9825 3.67708 3.67402 4.64719 4.64632 6.14639 6.15952
0.995 3.70443 3.70108 4.69546 4.69519 6.19226 6.20523
1.005 3.70586 3.70204 4.71911 4.71962 6.20655 6.21925
1.0175 3.67878 3.67407 4.72574 4.72757 6.19288 6.20509
1.03 3.61834 3.61243 4.70405 4.70752 6.14243 6.15399
1.0425 3.52581 3.51845 4.65314 4.65852 6.05576 6.06656
1.055 3.40426 3.39528 4.57353 4.58096 5.93507 5.94503
1.0675 3.25747 3.24677 4.46614 4.47565 5.78305 5.79213
1.08 3.08958 3.07718 4.33214 4.34363 5.6027 5.61093
1.0925 2.90493 2.89089 4.17286 4.18612 5.39714 5.40455
1.105 2.70748 2.69199 3.98948 4.00416 5.16911 5.17582
1.1175 2.50086 2.48416 3.78309 3.79877 4.92107 4.92719
1.13 2.28826 2.27066 3.55485 3.571 4.65514 4.66084
1.1425 2.07224 2.0541 3.30575 3.3218 4.37294 4.3784
1.155 1.85485 1.83656 3.03696 3.05228 4.07576 4.08117
1.1675 1.63869 1.62065 2.7508 2.76476 3.76562 3.77116
1.18 1.42798 1.41061 2.45194 2.46391 3.44639 3.45224
1.1925 1.22823 1.21197 2.14705 2.15644 3.12351 3.12983
1.205 1.04406 1.02931 1.8426 1.84887 2.80177 2.80869
1.2175 0.877832 0.86496 1.54351 1.54619 2.4841 2.4917
1.23 0.730159 0.71946 1.25347 1.25224 2.17192 2.18026
1.2425 0.600375 0.59206 0.975395 0.970051 1.86575 1.87479
1.255 0.486704 0.48089 0.711405 0.701894 1.56523 1.57491
1.2675 0.38608 0.382776 0.462462 0.44889 1.26897 1.27915
1.28 0.29367 0.292757 0.227716 0.210348 0.973974 0.984474
1.2925 0.202621 0.203798 0.00399264 -0.0167804 0.675265 0.685844
1.305 0.104401 0.107377 -0.213809 -0.237425 0.366398 0.376774
1.3175 -0.00878526 -0.00439384 -0.430914 -0.456645 0.0414916 0.051355
1.33 -0.141189 -0.135925 -0.649821 -0.676858 -0.302046 -0.293022
1.3425 -0.292523 -0.286895 -0.869177 -0.896776 -0.662339 -0.654491
1.355 -0.459169 -0.453651 -1.08529 -1.11273 -1.03443 -1.02808
1.3675 -0.637046 -0.632104 -1.29496 -1.32151 -1.41314 -1.40857
1.38 -0.823922 -0.819955 -1.49752 -1.52255 -1.79527 -1.79267
1.3925 -1.01979 -1.01714 -1.69521 -1.71823 -2.18001 -2.17963
1.405 -1.22542 -1.22438 -1.8917 -1.9123 -2.5676 -2.56957
1.4175 -1.44088 -1.44166 -2.09043 -2.10831 -2.95773 -2.96207
1.43 -1.66568 -1.6684 -2.29459 -2.30963 -3.34966 -3.35637
1.4425 -1.89945 -1.90415 -2.50766 -2.51988 -3.74293 -3.75194
1.455 -2.1421 -2.14872 -2.73343 -2.74303 -4.13753 -4.1487
1.4675 -2.39334 -2.40174 -2.97538 -2.98266 -4.53341 -4.54651
1.48 -2.6519 -2.66186 -3.23569 -3.24113 -4.92965 -4.94438
1.4925 -2.91441 -2.92561 -3.51398 -3.51816 -5.32328 -5.33932
1.505 -3.17431 -3.18635 -3.80613 -3.80975 -5.70825 -5.72523
1.5175 -3.42221 -3.4346 -4.10441 -4.10826 -6.07565 -6.09317
1.53 -3.64782 -3.66001 -4.39929 -4.40422 -6.41559 -6.43323
1.5425 -3.84241 -3.8538 -4.68178 -4.68868 -6.71956 -6.73689
1.555 -4.00023 -4.01021 -4.94483 -4.95454 -6.98179 -6.99842
1.5675 -4.11934 -4.12737 -5.18414 -5.1974 -7.20008 -7.21565
1.58 -4.20157 -4.20717 -5.3982 -5.41564 -7.37569 -7.3899
1.5925 -4.25199 -4.25483 -5.58792 -5.61001 -7.51292 -7.52554
1.605 -4.27835 -4.27822 -5.75632 -5.78329 -7.61853 -7.62941
1.6175 -4.28995 -4.28681 -5.90761 -5.9395 -7.70077 -7.70986
1.63 -4.29608 -4.29007 -6.04599 -6.08259 -7.76789 -7.7752
1.6425 -4.30488 -4.29627 -6.17469 -6.2156 -7.82706 -7.83271
1.655 -4.32309 -4.31229 -6.29607 -6.34069 -7.88424 -7.8884
1.6675 -4.35603 -4.34355 -6.41179 -6.45937 -7.94421 -7.94715
1.68 -4.40753 -4.39374 -6.52253 -6.57218 -8.01013 -8.01214
1.6925 -4.48022 -4.4633 -6.62748 -6.67826 -8.08289 -8.08427
1.705 -4.56928 -4.55092 -6.72475 -6.77575 -8.16156 -8.16262
1.7175 -4.67227 -4.65481 -6.81312 -6.86337 -8.24501 -8.24614
1.73 -4.79064 -4.77391 -6.89357 -6.94221 -8.33355 -8.33513
1.7425 -4.92478 -4.90888 -6.96991 -7.01635 -8.42988 -8.43215
1.755 -5.07777 -5.06334 -7.04801 -7.09214 -8.53845 -8.54153
1.7675 -5.25426 -5.24111 -7.13435 -7.17563 -8.66339 -8.66752
1.78 -5.45483 -5.44304 -7.23345 -7.27135 -8.80642 -8.81174
1.7925 -5.67619 -5.66616 -7.34595 -7.38017 -8.96549 -8.97213
1.805 -5.91197 -5.90359 -7.46902 -7.49958 -9.13489 -9.14284
1.8175 -6.15285 -6.14605 -7.59766 -7.6246 -9.30646 -9.31565
1.83 -6.3886 -6.38342 -7.72593 -7.74936 -9.47119 -9.48152
1.8425 -6.61051 -6.60676 -7.84883 -7.86907 -9.62132 -9.63267
1.855 -6.81285 -6.81032 -7.96413 -7.98168 -9.75228 -9.76443
1.8675 -6.99315 -6.99162 -8.0725 -8.0879 -9.86274 -9.87541
1.88 -7.15092 -7.15009 -8.1759 -8.18975 -9.9532 -9.96609
1.8925 -7.28587 -7.28541 -8.27581 -8.28881 -10.0243 -10.0371
1.905 -7.39686 -7.39644 -8.37212 -8.38502 -10.0759 -10.0883
1.9175 -7.48166 -7.48093 -8.46291 -8.47644 -10.1065 -10.1182
1.93 -7.53737 -7.536 -8.54482 -8.55968 -10.114 -10.1247
1.9425 -7.56115 -7.55881 -8.61377 -8.63063 -10.0962 -10.1056
1.955 -7.55083 -7.54693 -8.66553 -8.68509 -10.0513 -10.0592
1.9675 -7.5057 -7.49978 -8.69644 -8.71935 -9.97873 -9.98486
1.98 -7.42767 -7.41934 -8.70469 -8.73142 -9.88015 -9.88439
1.9925 -7.32177 -7.31075 -8.6909 -8.72171 -9.7599 -9.7622
2.0025 -7.22182 -7.20856 -8.66562 -8.69974 -9.65235 -9.65312
2.0125 -7.11293 -7.09744 -8.62949 -8.66688 -9.53869 -9.538
2.0225 -6.99943 -6.98179 -8.5843 -8.62478 -9.42262 -9.42056
2.0325 -6.88538 -6.86574 -8.5317 -8.57499 -9.30756 -9.30428
2.0425 -6.77442 -6.75301 -8.47312 -8.51883 -9.1965 -9.19218
2.0525 -6.66968 -6.64679 -8.40972 -8.45741 -9.09197 -9.08682
2.0625 -6.57349 -6.54945 -8.3422 -8.39134 -8.99571 -8.98997
2.0725 -6.48693 -6.4621 -8.27039 -8.32042 -8.90829 -8.90222
2.0825 -6.40956 -6.38433 -8.19307 -8.24337 -8.82888 -8.82274
2.0925 -6.33947 -6.31422 -8.1079 -8.15788 -8.75521 -8.74927
2.1025 -6.27346 -6.24854 -8.01173 -8.06079 -8.68379 -8.67831
2.1125 -6.20771 -6.18346 -7.90118 -7.94875 -8.6106 -8.60584
2.1225 -6.13875 -6.11547 -7.77358 -7.81915 -8.53198 -8.52817
2.1325 -6.06412 -6.04206 -7.62758 -7.6707 -8.4453 -8.44265
2.1425 -5.98273 -5.96211 -7.46352 -7.50377 -8.34934 -8.34802
2.1525 -5.89474 -5.87575 -7.28322 -7.32026 -8.24411 -8.24427
2.1625 -5.80092 -5.7837 -7.08926 -7.12283 -8.13022 -8.13198
2.1725 -5.70176 -5.68641 -6.88413 -6.91403 -8.00804 -8.01147
2.1825 -5.59715 -5.58372 -6.66981 -6.69593 -7.87732 -7.88245
2.1925 -5.48645 -5.47494 -6.44778 -6.4701 -7.73729 -7.7441
2.2025 -5.36887 -5.35924 -6.21937 -6.23796 -7.58703 -7.59549
2.2125 -5.24383 -5.23596 -5.98603 -6.00103 -7.4258 -7.43581
2.2225 -5.11088 -5.10464 -5.7492 -5.76085 -7.25299 -7.26443
2.2325 -4.96963 -4.96481 -5.51021 -5.51879 -7.06803 -7.08072
2.2425 -4.81966 -4.81604 -5.27013 -5.27601 -6.87028 -6.88405
2.2525 -4.66067 -4.658 -5.02989 -5.03347 -6.65923 -6.67385
2.2625 -4.49264 -4.49063 -4.79035 -4.79209 -6.43457 -6.44981
2.2725 -4.31592 -4.31429 -4.55247 -4.55283 -6.19636 -6.21197
2.2825 -4.13125 -4.1297 -4.31724 -4.3167 -5.94505 -5.96076
2.2925 -3.93978 -3.93803 -4.0857 -4.08474 -5.68142 -5.69698
2.3025 -3.74299 -3.74076 -3.85892 -3.858 -5.40661 -5.42177
2.3125 -3.54264 -3.53969 -3.63794 -3.6375 -5.12206 -5.13656
2.3225 -3.34079 -3.33691 -3.42381 -3.42422 -4.82948 -4.8431
2.3325 -3.13975 -3.13477 -3.2176 -3.2192 -4.53089 -4.54341
2.3425 -2.94171 -2.93628 -3.02038 -3.02334 -4.22851 -4.23978
2.3525 -2.74901 -2.74356 -2.83322 -2.83742 -3.9246 -3.93453
2.3625 -2.56403 -2.55785 -2.65661 -2.66227 -3.62112 -3.62954
2.3725 -2.38749 -2.38044 -2.49014 -2.49739 -3.31947 -3.32629
2.3825 -2.21906 -2.21145 -2.3325 -2.34152 -3.02005 -3.02514
2.3925 -2.05791 -2.04976 -2.18135 -2.19213 -2.72216 -2.72549
2.4025 -1.90219 -1.89336 -2.03346 -2.04587 -2.4243 -2.42584
2.4125 -1.74925 -1.73984 -1.88505 -1.89897 -2.12451 -2.12429
2.4225 -1.59644 -1.58667 -1.73232 -1.74765 -1.82083 -1.81889
2.4325 -1.44157 -1.43154 -1.57192 -1.58851 -1.51156 -1.50792
2.4425 -1.28293 -1.27276 -1.40121 -1.41885 -1.19563 -1.19038
2.4525 -1.11952 -1.10941 -1.21848 -1.23686 -0.87276 -0.866036
2.4625 -0.951267 -0.941448 -1.023 -1.04178 -0.543564 -0.535486
2.4725 -0.778838 -0.76951 -0.814911 -0.833798 -0.209348 -0.200051
2.4825 -0.603175 -0.594561 -0.594854 -0.613559 0.128273 0.138637
2.4925 -0.4252 -0.417545 -0.363698 -0.381908 0.467705 0.478961
2.5025 -0.245581 -0.239112 -0.122269 -0.139624 0.807638 0.819601
2.5125 -0.064678 -0.0595361 0.12886 0.112735 1.1472 1.15969
2.5225 0.117173 0.12145 0.38928 0.374713 1.48589 1.49875
2.5325 0.300721 0.304043 0.658433 0.645677 1.82325 1.83633
2.5425 0.486201 0.488037 0.935228 0.924551 2.15853 2.17168
2.5525 0.672558 0.67283 1.21782 1.20946 2.49045 2.50352
2.5625 0.858292 0.857128 1.50362 1.49778 2.81712 2.82997
2.5725 1.04177 1.03906 1.78946 1.78626 3.13613 3.14865
2.5825 1.22099 1.21659 2.07186 2.07139 3.44492 3.45704
2.5925 1.39377 1.3877 2.34727 2.34956 3.74096 3.75262
2.6025 1.55799 1.55033 2.61208 2.61714 4.02171 4.03286
2.6125 1.71177 1.70253 2.86283 2.87059 4.28478 4.2954
2.6225 1.85344 1.84267 3.09642 3.10675 4.52812 4.53822
2.6325 1.98183 1.96965 3.31027 3.32302 4.7502 4.7598
2.6425 2.09632 2.08285 3.50247 3.51742 4.95006 4.95921
2.6525 2.19692 2.18231 3.6718 3.68869 5.12734 5.13611
2.6625 2.2843 2.26871 3.8179 3.83643 5.28244 5.29091
2.6725 2.35982 2.34345 3.94126 3.9611 5.41646 5.42472
2.6825 2.42548 2.40855 4.04322 4.06401 5.53118 5.53932
2.6925 2.48369 2.46642 4.12572 4.14708 5.6288 5.63696
2.7025 2.53689 2.5195 4.191 4.21254 5.71167 5.71995
2.7125 2.5873 2.57004 4.24134 4.26266 5.78195 5.79047
2.7225 2.63699 2.62009 4.2791 4.29981 5.84174 5.85061
2.7325 2.68805 2.67174 4.30693 4.32666 5.89323 5.90254
2.7425 2.74262 2.7271 4.32777 4.34619 5.93872 5.94857
2.7525 2.80263 2.78809 4.34462 4.36142 5.98043 5.99089
2.7625 2.8696 2.85623 4.36026 4.37517 6.02025 6.03138
2.7725 2.94438 2.93232 4.377 4.3898 6.05948 6.0713
2.7825 3.02695 3.0163 4.39642 4.40697 6.09863 6.11115
2.7925 3.11637 3.10721 4.41932 4.42753 6.1374 6.15059
2.8025 3.211 3.20336 4.44588 4.45173 6.17484 6.18867
2.8125 3.30892 3.3028 4.47601 4.47955 6.20979 6.2242
2.8225 3.40823 3.40357 4.50962 4.51096 6.24117 6.25605
2.8325 3.50716 3.50389 4.5467 4.54601 6.26807 6.2833
2.8425 3.60409 3.60207 4.58721 4.58475 6.28972 6.30516
2.8525 3.69743 3.69652 4.63106 4.62711 6.30542 6.32092
2.8625 3.78569 3.7857 4.678 4.6729 6.31456 6.32995
2.8725 3.86754 3.86827 4.72774 4.72187 6.3167 6.33179
2.8825 3.94209 3.94331 4.78014 4.7739 6.31177 6.32638
2.8925 4.0091 4.01058 4.83549 4.82928 6.30036 6.3143
2.9025 4.06918 4.07069 4.89458 4.88883 6.28383 6.29693
2.9125 4.12361 4.12481 4.95863 4.95375 6.26421 6.27629
2.9225 4.17408 4.17441 5.02882 5.0253 6.24372 6.25459
2.9325 4.22187 4.2212 5.10582 5.10399 6.22432 6.23385
2.9425 4.26739 4.26574 5.18941 5.18956 6.20717 6.21524
2.9525 4.31035 4.30763 5.27814 5.28047 6.19237 6.19892
2.9625 4.34956 4.34563 5.36948 5.37419 6.17914 6.18412
2.9725 4.38335 4.37817 5.46042 5.46768 6.16631 6.16971
2.9825 4.41006 4.40362 5.54786 5.55777 6.15265 6.15444
2.9925 4.42811 4.42028 5.62854 5.64116 6.13675 6.13698
3.0025 4.43572 4.42638 5.69903 5.71433 6.11706 6.11579
3.0125 4.4309 4.42007 5.7557 5.77363 6.09173 6.08907
3.0225 4.41167 4.39939 5.79486 5.8153 6.05881 6.05489
3.0325 4.37612 4.36239 5.8129 5.83564 6.01621 6.0112
3.0425 4.32243 4.30732 5.8064 5.83119 5.96191 5.95596
3.0525 4.24951 4.23311 5.77273 5.79928 5.89444 5.88776
3.0625 4.1576 4.14004 5.71072 5.73868 5.81354 5.80638
3.0725 4.04842 4.02984 5.62082 5.64979 5.72032 5.71293
3.0825 3.9246 3.90519 5.50463 5.53415 5.61675 5.60939
3.0925 3.78915 3.76914 5.36438 5.39396 5.50509 5.49801
3.1025 3.64523 3.62488 5.20266 5.2318 5.38765 5.38113
3.1125 3.49592 3.4755 5.02233 5.05051 5.26668 5.26098
3.1225 3.34424 3.32404 4.82651 4.85319 5.14433 5.13971
3.1325 3.19319 3.17351 4.61861 4.64329 5.02275 5.01948
3.1425 3.04578 3.02691 4.40242 4.42461 4.90414 4.90241
3.1525 2.90502 2.88724 4.18201 4.20126 4.7907 4.7907
3.1625 2.77349 2.75707 3.96139 3.97731 4.6843 4.68619
3.1725 2.65288 2.63805 3.74389 3.75617 4.58595 4.58988
3.1825 2.54361 2.53056 3.5319 3.54028 4.49555 4.50158
3.1925 2.44511 2.43398 3.32696 3.33128 4.41207 4.42024
3.2025 2.35607 2.34695 3.13004 3.13024 4.33382 4.3441
3.2125 2.27453 2.26743 2.94146 2.9376 4.25851 4.27085
3.2225 2.19793 2.19279 2.76101 2.75322 4.18335 4.19764
3.2325 2.12342 2.12013 2.58806 2.57659 4.10531 4.12139
3.2425 2.04823 2.0466 2.4219 2.40708 4.02144 4.03912
3.2525 1.96995 1.96974 2.26196 2.24423 3.92922 3.94825
3.2625 1.88666 1.88759 2.10788 2.08771 3.82658 3.84669
3.2725 1.79677 1.79853 1.95928 1.93723 3.7118 3.7327
3.2825 1.69891 1.70114 1.81561 1.79227 3.58334 3.60472
3.2925 1.59189 1.59423 1.67612 1.65208 3.43984 3.46138
3.3025 1.47486 1.47694 1.53994 1.51582 3.28026 3.30162
3.3125 1.34741 1.34887 1.40625 1.38264 3.10394 3.1248
3.3225 1.20958 1.21007 1.27422 1.2517 2.91068 2.93073
3.3325 1.06182 1.06104 1.1431 1.12218 2.70064 2.71959
3.3425 0.904942 0.902613 1.01208 0.993217 2.47433 2.49193
3.3525 0.739927 0.735825 0.880248 0.863824 2.23244 2.24845
3.3625 0.567794 0.56175 0.746469 0.732774 1.97568 1.98992
3.3725 0.389466 0.381366 0.609314 0.598545 1.70469 1.717
3.3825 0.205713 0.195529 0.467082 0.459333 1.41998 1.43025
3.3925 0.0169997 0.00581962 0.317953 0.312957 1.12196 1.1302
3.4025 -0.176209 -0.188644 0.160271 0.15779 0.811076 0.817303
3.4125 -0.373192 -0.386958 -0.00753158 -0.00765644 0.488128 0.492325
3.4225 -0.573176 -0.588026 -0.186342 -0.184267 0.154535 0.156779
3.4325 -0.77437 -0.789989 -0.375985 -0.371948 -0.18756 -0.187207
3.4425 -0.974177 -0.990428 -0.575412 -0.569853 -0.535339 -0.536708
3.4525 -1.16985 -1.18653 -0.783025 -0.776449 -0.885567 -0.888513
3.4625 -1.35866 -1.37544 -0.996932 -0.989815 -1.23486 -1.23921
3.4725 -1.53831 -1.55447 -1.21515 -1.20793 -1.58002 -1.58558
3.4825 -1.70648 -1.72154 -1.43582 -1.42901 -1.91834 -1.92486
3.4925 -1.86155 -1.87539 -1.65741 -1.65155 -2.24769 -2.25498
3.5025 -2.003 -2.01531 -1.8787 -1.87439 -2.56659 -2.57442
3.5125 -2.13087 -2.14119 -2.09875 -2.09648 -2.87401 -2.88219
3.5225 -2.24526 -2.25329 -2.31662 -2.31677 -3.16923 -3.17754
3.5325 -2.34635 -2.3519 -2.53105 -2.53396 -3.45151 -3.45976
3.5425 -2.43436 -2.43728 -2.74049 -2.74651 -3.72007 -3.72811
3.5525 -2.50927 -2.51012 -2.94332 -2.95277 -3.97433 -3.98203
3.5625 -2.57257 -2.57135 -3.13823 -3.15127 -4.21403 -4.22132
3.5725 -2.62616 -2.62229 -3.32423 -3.34097 -4.43945 -4.44624
3.5825 -2.67172 -2.66519 -3.50086 -3.52131 -4.65149 -4.65773
3.5925 -2.7119 -2.70303 -3.66844 -3.69254 -4.85185 -4.85753
3.6025 -2.75064 -2.73951 -3.82822 -3.85578 -5.04306 -5.04821
3.6125 -2.79236 -2.77903 -3.98221 -4.01295 -5.22836 -5.23305
3.6225 -2.84132 -2.8261 -4.13273 -4.16628 -5.41119 -5.41552
3.6325 -2.90142 -2.88471 -4.28191 -4.31782 -5.59464 -5.59873
3.6425 -2.97582 -2.95796 -4.43137 -4.46913 -5.78105 -5.78503
3.6525 -3.06658 -3.04804 -4.5822 -4.62126 -5.97201 -5.97605
3.6625 -3.17494 -3.15581 -4.73495 -4.77488 -6.16835 -6.17258
3.6725 -3.30133 -3.28188 -4.88948 -4.92974 -6.36998 -6.37456
3.6825 -3.44466 -3.42524 -5.04501 -5.08507 -6.57583 -6.58092
3.6925 -3.60305 -3.58407 -5.20023 -5.23954 -6.78407 -6.78979
3.7025 -3.77407 -3.75582 -5.35353 -5.39158 -6.99233 -6.99883
3.7125 -3.95498 -3.9377 -5.50338 -5.53976 -7.19813 -7.20552
3.7225 -4.1432 -4.12714 -5.6488 -5.68315 -7.39937 -7.40775
3.7325 -4.33661 -4.32199 -5.78954 -5.82156 -7.59447 -7.60388
3.7425 -4.53328 -4.52024 -5.92569 -5.95514 -7.7821 -7.79256
3.7525 -4.73108 -4.71971 -6.05735 -6.08408 -7.96087 -7.97237
3.7625 -4.92775 -4.91812 -6.18456 -6.20852 -8.12932 -8.14183
3.7725 -5.12105 -5.11317 -6.30743 -6.32866 -8.28608 -8.29953
3.7825 -5.30876 -5.30257 -6.42606 -6.44466 -8.42985 -8.44412
3.7925 -5.48866 -5.48407 -6.54045 -6.55662 -8.55934 -8.5743
3.8025 -5.65861 -5.65548 -6.65054 -6.66456 -8.6734 -8.68888
3.8125 -5.81673 -5.81487 -6.75633 -6.76853 -8.7711 -8.7869
3.8225 -5.96148 -5.96068 -6.85788 -6.86867 -8.85185 -8.86777
3.8325 -6.09152 -6.09154 -6.9552 -6.96503 -8.91525 -8.93107
3.8425 -6.20555 -6.20611 -7.04798 -7.05731 -8.9609 -8.97636
3.8525 -6.30221 -6.30303 -7.1355 -7.14484 -8.98826 -9.00315
3.8625 -6.38028 -6.38107 -7.21682 -7.22668 -8.99693 -9.01101
3.8725 -6.4391 -6.43956 -7.29117 -7.30204 -8.98695 -8.99998
3.8825 -6.47888 -6.47874 -7.35831 -7.37068 -8.95919 -8.97098
3.8925 -6.50079 -6.49978 -7.41858 -7.43289 -8.91538 -8.92574
3.9025 -6.50669 -6.50446 -7.47264 -7.4893 -8.85784 -8.86659
3.9125 -6.49877 -6.49507 -7.52121 -7.54059 -8.78918 -8.79619
3.9225 -6.47946 -6.4741 -7.56498 -7.58736 -8.71211 -8.71729
3.9325 -6.45136 -6.4442 -7.60454 -7.6301 -8.62941 -8.63269
3.9425 -6.41721 -6.40815 -7.6405 -7.66934 -8.54392 -8.54529
3.9525 -6.37986 -6.36888 -7.67351 -7.70562 -8.45858 -8.45808
3.9625 -6.34224 -6.3294 -7.7043 -7.73959 -8.37635 -8.37405
3.9725 -6.30709 -6.2925 -7.73349 -7.77176 -8.29999 -8.29599
3.9825 -6.27657 -6.26041 -7.76125 -7.80222 -8.23166 -8.22613
3.9925 -6.25184 -6.23432 -7.78696 -7.83028 -8.17255 -8.16567
4.0025 -6.23289 -6.21426 -7.80908 -7.85433 -8.12269 -8.11464
4.0125 -6.21888 -6.19941 -7.82555 -7.87227 -8.08128 -8.07232
4.0225 -6.20867 -6.18866 -7.8343 -7.88202 -8.04726 -8.03767
4.0325 -6.20109 -6.18084 -7.83362 -7.88182 -8.01958 -8.00963
4.0425 -6.19503 -6.17484 -7.82217 -7.87031 -7.99722 -7.98718
4.0525 -6.18942 -6.16957 -7.79895 -7.84653 -7.97919 -7.96933
4.0625 -6.18323 -6.164 -7.7634 -7.80992 -7.96457 -7.95514
4.0725 -6.17576 -6.1574 -7.71555 -7.76055 -7.9527 -7.94398
4.0825 -6.16688 -6.14962 -7.65633 -7.69938 -7.94354 -7.93575
4.0925 -6.15714 -6.14118 -7.58757 -7.62831 -7.93764 -7.93101
4.1025 -6.14737 -6.1329 -7.51164 -7.54975 -7.93588 -7.93057
4.1125 -6.13822 -6.12536 -7.4309 -7.46613 -7.9389 -7.93507
4.1225 -6.12974 -6.11858 -7.34727 -7.37945 -7.94676 -7.94451
4.1325 -6.12125 -6.11185 -7.26205 -7.29106 -7.95876 -7.95816
4.1425 -6.11158 -6.10391 -7.17606 -7.2019 -7.97364 -7.97474
4.1525 -6.09954 -6.09355 -7.09011 -7.11286 -7.99012 -7.99292
4.1625 -6.08431 -6.0799 -7.00532 -7.02512 -8.00726 -8.01172
4.1725 -6.06551 -6.06253 -6.9231 -6.94017 -8.02448 -8.03052
4.1825 -6.0431 -6.04136 -6.84502 -6.85965 -8.04149 -8.049
4.1925 -6.01735 -6.01662 -6.77277 -6.7853 -8.05827 -8.06711
4.2025 -5.98882 -5.98886 -6.70804 -6.71888 -8.07502 -8.08503
4.2125 -5.95818 -5.95872 -6.65239 -6.66196 -8.092 -8.10301
4.2225 -5.92595 -5.92673 -6.60692 -6.61567 -8.1093 -8.1211
4.2325 -5.89219 -5.89292 -6.57195 -6.58034 -8.12649 -8.13887
4.2425 -5.85628 -5.85668 -6.5468 -6.5553 -8.14241 -8.15516
4.2525 -5.81691 -5.81669 -6.52979 -6.53888 -8.15519 -8.1681
4.2625 -5.77234 -5.77124 -6.51851 -6.52863 -8.16251 -8.17537
4.2725 -5.72069 -5.71842 -6.51004 -6.52161 -8.16182 -8.17442
4.2825 -5.65987 -5.6562 -6.50101 -6.51441 -8.15035 -8.16252
4.2925 -5.58777 -5.58247 -6.48771 -6.50328 -8.12525 -8.13682
4.3025 -5.50257 -5.49545 -6.46649 -6.4845 -8.08392 -8.09475
4.3125 -5.40306 -5.39396 -6.4341 -6.45474 -8.0243 -8.03429
4.3225 -5.28874 -5.27756 -6.3878 -6.41121 -7.94501 -7.95407
4.3325 -5.15982 -5.14651 -6.32548 -6.3517 -7.84536 -7.85344
4.3425 -5.0174 -5.00196 -6.24584 -6.27481 -7.72548 -7.73257
4.3525 -4.86339 -4.84589 -6.1484 -6.17998 -7.58634 -7.59247
4.3625 -4.70038 -4.68095 -6.03345 -6.06741 -7.42959 -7.43482
4.3725 -4.53134 -4.51018 -5.9018 -5.93781 -7.2573 -7.26171
4.3825 -4.35928 -4.33663 -5.75451 -5.79217 -7.07162 -7.07532
4.3925 -4.18687 -4.16305 -5.59262 -5.63146 -6.87449 -6.87763
4.4025 -4.01634 -3.99168 -5.41702 -5.45651 -6.66745 -6.67018
4.4125 -3.84942 -3.8243 -5.22852 -5.2681 -6.45172 -6.45423
4.4225 -3.68752 -3.66233 -5.028 -5.06707 -6.22831 -6.23076
4.4325 -3.53178 -3.50691 -4.81649 -4.85447 -5.99809 -6.00066
4.4425 -3.38308 -3.35893 -4.5952 -4.63151 -5.76185 -5.76471
4.4525 -3.24204 -3.21899 -4.36554 -4.39961 -5.52026 -5.52357
4.4625 -3.10892 -3.08733 -4.12893 -4.16026 -5.27379 -5.27769
4.4725 -2.98354 -2.96408 -3.8868 -3.91486 -5.02267 -5.02729
4.4825 -2.86524 -2.84825 -3.64062 -3.66494 -4.76691 -4.77235
4.4925 -2.75367 -2.73899 -3.39189 -3.41228 -4.50649 -4.51277
4.5025 -2.64803 -2.63573 -3.14242 -3.15868 -4.24165 -4.24879
4.5125 -2.54771 -2.53805 -2.89446 -2.90655 -3.97294 -3.98087
4.5225 -2.45257 -2.44559 -2.65051 -2.6584 -3.7011 -3.70977
4.5325 -2.36206 -2.35779 -2.41293 -2.41668 -3.42689 -3.4362
4.5425 -2.27489 -2.27431 -2.18374 -2.18355 -3.15087 -3.16071
4.5525 -2.1912 -2.19406 -1.96449 -1.96061 -2.87331 -2.88352
4.5625 -2.11007 -2.11548 -1.75612 -1.74886 -2.59404 -2.60438
4.5725 -2.02907 -2.03689 -1.55889 -1.54873 -2.31259 -2.3228
4.5825 -1.94612 -1.95639 -1.37269 -1.36019 -2.02832 -2.03816
4.5925 -1.86016 -1.87212 -1.19724 -1.18296 -1.74066 -1.74988
4.6025 -1.76947 -1.78205 -1.0319 -1.01642 -1.44907 -1.45738
4.6125 -1.67127 -1.68453 -0.875542 -0.85945 -1.15293 -1.16006
4.6225 -1.56375 -1.57766 -0.726602 -0.710526 -0.851539 -0.857224
4.6325 -1.44572 -1.45964 -0.583258 -0.567838 -0.544246 -0.548235
4.6425 -1.31555 -1.32898 -0.44346 -0.42929 -0.230532 -0.23257
4.6525 -1.17166 -1.18444 -0.304912 -0.292536 0.0900392 0.0901722
4.6625 -1.01297 -1.02484 -0.165079 -0.154997 0.417848 0.42028
4.6725 -0.838537 -0.849132 -0.0211868 -0.0138275 0.753256 0.758113
4.6825 -0.647365 -0.656436 0.129719 0.134016 1.0966 1.10399
4.6925 -0.438734 -0.44616 0.290597 0.291581 1.44809 1.45808
4.7025 -0.212562 -0.218215 0.464084 0.4616 1.80757 1.82014
4.7125 0.0303971 0.0266198 0.652099 0.646099 2.17413 2.1892
4.7225 0.288351 0.286456 0.85554 0.846087 2.54588 2.56335
4.7325 0.558418 0.558333 1.07423 1.0615 2.91999 2.93967
4.7425 0.836926 0.83854 1.30715 1.29142 3.29294 3.31464
4.7525 1.11987 1.123 1.55275 1.53441 3.661 3.68471
4.7625 1.40309 1.40751 1.80889 1.78828 4.02098 4.04798
4.7725 1.68226 1.68772 2.07285 2.05093 4.37032 4.39766
4.7825 1.953 1.95906 2.34204 2.31984 4.70455 4.73032
4.7925 2.21107 2.21741 2.61367 2.59135 5.0184 5.04347
4.8025 2.45267 2.459 2.88489 2.8628 5.30801 5.33366
4.8125 2.67537 2.6813 3.15313 3.13182 5.57215 5.59901
4.8225 2.87836 2.88348 3.41699 3.39733 5.81181 5.83889
4.8325 3.06256 3.06649 3.67674 3.65962 6.02882 6.05433
4.8425 3.23026 3.23268 3.93372 3.91971 6.22502 6.24816
4.8525 3.38424 3.38487 4.18925 4.17875 6.40253 6.42373
4.8625 3.52744 3.52602 4.44427 4.43764 6.56434 6.58425
4.8725 3.66273 3.65909 4.69933 4.697 6.71419 6.73271
4.8825 3.79292 3.7869 4.95475 4.95705 6.85561 6.87199
4.8925 3.92045 3.91197 5.21042 5.21751 6.9912 7.00483
4.9025 4.04724 4.03631 5.46562 5.47751 7.12266 7.13359
4.9125 4.17456 4.16122 5.71889 5.73547 7.25122 7.25992
4.9225 4.30299 4.28734 5.96815 5.98924 7.3779 7.38467
4.9325 4.43251 4.41472 6.21087 6.23622 7.50331 7.50812
4.9425 4.5626 4.54287 6.44422 6.47347 7.62739 7.63009
4.9525 4.69239 4.6714 6.66524 6.69792 7.74939 7.75009
4.9625 4.82125 4.80331 6.87114 6.90587 7.86832 7.86757
4.9725 4.94699 4.93084 7.05991 7.09559 7.98333 7.98186
4.9825 5.06878 5.05436 7.22967 7.26645 8.09443 8.09228
4.9925 5.18786 5.17472 7.37986 7.41735 8.20282 8.20015
5.0025 5.30605 5.29237 7.51212 7.55052 8.31041 8.30718
5.0125 5.42557 5.41159 7.62884 7.66738 8.41969 8.41622
5.0225 5.54849 5.53483 7.73282 7.77066 8.53313 8.52988
5.0325 5.67715 5.66408 7.82653 7.86302 8.65289 8.65024
5.0425 5.81286 5.80044 7.912 7.94666 8.78041 8.77866
5.0525 5.95559 5.94411 7.99081 8.0232 8.91611 8.91544
5.0625 6.10444 6.09423 8.06386 8.09347 9.0593 9.05989
5.0725 6.25766 6.24886 8.13132 8.15768 9.20823 9.2103
5.0825 6.41248 6.40518 8.19253 8.21533 9.36023 9.36402
5.0925 6.56536 6.5597 8.24638 8.26543 9.51203 9.51769
5.1025 6.71257 6.70864 8.29163 8.30683 9.66007 9.66764
5.1125 6.85049 6.8483 8.32726 8.33856 9.80082 9.8103
5.1225 6.97587 6.97537 8.35257 8.36 9.93111 9.94247
5.1325 7.08625 7.0874 8.36759 8.37132 10.0485 10.0618
5.1425 7.18036 7.18304 8.3734 8.37368 10.1519 10.1669
5.1525 7.25791 7.26198 8.37188 8.36906 10.2409 10.2575
5.1625 7.31915 7.32443 8.36526 8.35973 10.3158 10.3338
5.1725 7.36458 7.37085 8.35568 8.3479 10.377 10.3963
5.1825 7.39487 7.4019 8.34515 8.33565 10.4252 10.4454
5.1925 7.41084 7.41836 8.33548 8.32483 10.461 10.4819
5.2025 7.4134 7.42114 8.32821 8.317 10.4853 10.5066
5.2125 7.40353 7.41113 8.32455 8.31339 10.4988 10.5203
5.2225 7.38223 7.38928 8.32528 8.31484 10.5023 10.5237
5.2325 7.3506 7.35669 8.33075 8.32166 10.4967 10.5176
5.2425 7.30981 7.31457 8.34099 8.33386 10.4825 10.5028
5.2525 7.26116 7.26427 8.3558 8.35114 10.4607 10.4801
5.2625 7.20614 7.20733 8.37475 8.37298 10.4323 10.4506
5.2725 7.14642 7.14547 8.39728 8.39876 10.3982 10.4152
5.2825 7.08367 7.08043 8.42262 8.42762 10.3595 10.3751
5.2925 7.01949 7.01387 8.44977 8.45845 10.3173 10.3314
5.3025 6.95524 6.94722 8.4774 8.4898 10.2722 10.2847
5.3125 6.89205 6.88168 8.50394 8.52 10.2247 10.2357
5.3225 6.83087 6.81825 8.52769 8.54725 10.1753 10.1848
5.3325 6.77249 6.7578 8.54696 8.56976 10.1242 10.1323
5.3425 6.71762 6.70109 8.56016 8.58583 10.0717 10.0785
5.3525 6.66689 6.64878 8.56587 8.59399 10.0181 10.0237
5.3625 6.62092 6.60156 8.56301 8.59308 9.96352 9.96825
5.3725 6.58039 6.56013 8.5509 8.58237 9.90857 9.91257
5.3825 6.546 6.52521 8.52929 8.56155 9.85378 9.85729
5.3925 6.51835 6.49744 8.49826 8.5307 9.79975 9.803
5.4025 6.49778 6.47713 8.45806 8.49005 9.74687 9.7501
5.4125 6.48407 6.46408 8.40883 8.43977 9.69512 9.69858
5.4225 6.47633 6.45735 8.35048 8.37978 9.6439 9.6478
5.4325 6.47285 6.45523 8.28247 8.3096 9.59187 9.59642
5.4425 6.47128 6.45529 8.20402 8.22851 9.53713 9.54252
5.4525 6.46903 6.4549 8.11437 8.13584 9.47761 9.48398
5.4625 6.46358 6.45148 8.01311 8.03126 9.41135 9.41882
5.4725 6.45264 6.44267 7.90023 7.91485 9.33663 9.34529
5.4825 6.43414 6.42634 7.77602 7.787 9.25196 9.26185
5.4925 6.40623 6.40058 7.64105 7.64838 9.15606 9.16717
5.5025 6.36723 6.36363 7.49599 7.49975 9.04778 9.06008
5.5125 6.31553 6.31385 7.34151 7.34188 8.926 8.93941
5.5225 6.24962 6.24966 7.17817 7.1754 8.78962 8.80403
5.5325 6.16823 6.16975 7.00656 7.00099 8.63772 8.65299
5.5425 6.07071 6.07342 6.82757 6.81959 8.4699 8.48585
5.5525 5.95739 5.96097 6.64277 6.63283 8.28665 8.3031
5.5625 5.82991 5.83405 6.45467 6.44325 8.08967 8.10641
5.5725 5.69105 5.69543 6.26658 6.25416 7.88172 7.89854
5.5825 5.54425 5.54856 6.08207 6.06914 7.66615 7.68282
5.5925 5.39302 5.39699 5.90449 5.89151 7.44629 7.4626
5.6025 5.24045 5.24383 5.73641 5.72382 7.22507 7.24081
5.6125 5.08896 5.09152 5.57945 5.56764 7.00465 7.01964
5.6225 4.94017 4.94173 5.43422 5.42355 6.78646 6.80052
5.6325 4.79512 4.79552 5.30046 5.29123 6.57128 6.58425
5.6425 4.65433 4.65344 5.17728 5.16975 6.35944 6.37119
5.6525 4.51793 4.51568 5.06325 5.0576 6.15086 6.1613
5.6625 4.38573 4.38205 4.9565 4.95285 5.94518 5.95423
5.6725 4.25729 4.25218 4.8549 4.8533 5.7418 5.74943
5.6825 4.13218 4.12566 4.75627 4.75671 5.54018 5.54637
5.6925 4.01 4.00213 4.65852 4.66093 5.3398 5.34458
5.7025 3.89017 3.88103 4.55945 4.5637 5.14003 5.14344
5.7125 3.77174 3.76147 4.45662 4.46251 4.93988 4.94198
5.7225 3.65332 3.64205 4.34728 4.35457 4.73785 4.73858
5.7325 3.53325 3.52115 4.22862 4.23697 4.53216 4.53193
5.7425 3.40996 3.39721 4.09803 4.10708 4.32129 4.32034
5.7525 3.28216 3.26968 3.95349 3.96282 4.10423 4.10264
5.7625 3.14879 3.13737 3.79396 3.80292 3.88039 3.87828
5.7725 3.01032 2.99924 3.61901 3.62742 3.64954 3.64693
5.7825 2.86638 2.85558 3.4286 3.43606 3.41187 3.40903
5.7925 2.71648 2.70658 3.22338 3.22966 3.16787 3.165
5.8025 2.56146 2.55273 3.00462 3.00935 2.91846 2.91572
5.8125 2.40258 2.39492 2.77416 2.77702 2.66497 2.66247
5.8225 2.24121 2.23471 2.53453 2.53525 2.4093 2.40711
5.8325 2.07908 2.07286 2.28887 2.28743 2.15378 2.15199
5.8425 1.91808 1.91262 2.0404 2.03699 1.90082 1.89946
5.8525 1.7601 1.756 1.79213 1.7864 1.65241 1.65163
5.8625 1.60675 1.6036 1.54654 1.53843 1.40977 1.40959
5.8725 1.45826 1.4559 1.30514 1.29454 1.17347 1.17394
5.8825 1.3138 1.31247 1.06881 1.05583 0.943356 0.944472
5.8925 1.17256 1.17233 0.837975 0.82272 0.718715 0.720459
5.9025 1.03354 1.03433 0.612844 0.595382 0.498579 0.500914
5.9125 0.895952 0.898588 0.393628 0.373796 0.282051 0.284971
5.9225 0.758752 0.762244 0.180694 0.158613 0.0684168 0.0718934
5.9325 0.620577 0.625075 -0.0257524 -0.0497472 -0.142844 -0.13895
5.9425 0.480594 0.486215 -0.225533 -0.251093 -0.352224 -0.348005
5.9525 0.33836 0.344782 -0.418588 -0.44536 -0.560364 -0.555994
5.9625 0.192973 0.19987 -0.605206 -0.63292 -0.768026 -0.763631
5.9725 0.0433349 0.0506198 -0.785977 -0.814309 -0.976003 -0.971711
5.9825 -0.111247 -0.103702 -0.961594 -0.990161 -1.18495 -1.18089
5.9925 -0.271133 -0.26359 -1.13269 -1.1611 -1.39532 -1.39162
6.0025 -0.436574 -0.429246 -1.29985 -1.32778 -1.60732 -1.60414
6.0125 -0.60768 -0.600697 -1.46374 -1.49089 -1.82108 -1.81856
6.0225 -0.784442 -0.777951 -1.62523 -1.65133 -2.03676 -2.03498
6.0325 -0.966915 -0.961074 -1.78544 -1.81022 -2.25466 -2.25378
6.0425 -1.15529 -1.15023 -1.94571 -1.96899 -2.47525 -2.47522
6.0525 -1.34982 -1.34561 -2.10764 -2.12929 -2.69897 -2.69975
6.0625 -1.55067 -1.54738 -2.27285 -2.29275 -2.92621 -2.92791
6.0725 -1.75778 -1.75544 -2.44283 -2.46093 -3.15723 -3.15996
6.0825 -1.97075 -1.96937 -2.61873 -2.63501 -3.3921 -3.39584
6.0925 -2.18885 -2.18839 -2.80134 -2.8159 -3.63055 -3.63519
6.1025 -2.41116 -2.41158 -2.9913 -3.00426 -3.87208 -3.87751
6.1125 -2.63682 -2.63802 -3.1892 -3.20072 -4.11624 -4.12236
6.1225 -2.86495 -2.86681 -3.39549 -3.40579 -4.36254 -4.36929
6.1325 -3.0945 -3.09687 -3.61033 -3.61966 -4.6104 -4.61769
6.1425 -3.32396 -3.32667 -3.83321 -3.8419 -4.85878 -4.86645
6.1525 -3.55112 -3.55402 -4.06278 -4.07115 -5.10593 -5.1138
6.1625 -3.77304 -3.77594 -4.29671 -4.3051 -5.34929 -5.35719
6.1725 -3.98624 -3.98894 -4.53186 -4.54065 -5.58573 -5.59352
6.1825 -4.18711 -4.18941 -4.76475 -4.77431 -5.81198 -5.81953
6.1925 -4.37242 -4.3741 -4.99196 -5.00266 -6.02511 -6.03226
6.2025 -4.53959 -4.54047 -5.21048 -5.2227 -6.2228 -6.22937
6.2125 -4.68695 -4.68684 -5.41794 -5.432 -6.40351 -6.40935
6.2225 -4.8138 -4.81251 -5.61267 -5.62887 -6.56658 -6.57159
6.2325 -4.92043 -4.91783 -5.79379 -5.81238 -6.71234 -6.71645
6.2425 -5.00825 -5.00422 -5.9613 -5.98249 -6.84213 -6.84528
6.2525 -5.07972 -5.07418 -6.11611 -6.14004 -6.9583 -6.96044
6.2625 -5.13816 -5.13106 -6.25989 -6.28662 -7.06399 -7.06509
6.2725 -5.18716 -5.1785 -6.39449 -6.42404 -7.16255 -7.16262
6.2825 -5.23012 -5.2199 -6.52154 -6.55383 -7.25707 -7.25618
6.2925 -5.27001 -5.25827 -6.64228 -6.6772 -7.35023 -7.34846
6.3025 -5.30931 -5.29617 -6.75757 -6.79492 -7.4442 -7.44165
6.3125 -5.34999 -5.33564 -6.86789 -6.9074 -7.54064 -7.53744
6.3225 -5.39352 -5.3781 -6.97336 -7.01474 -7.64068 -7.63698
6.3325 -5.44092 -5.42456 -7.07381 -7.11672 -7.74497 -7.74093
6.3425 -5.4927 -5.4756 -7.16887 -7.21294 -7.85373 -7.84955
6.3525 -5.54903 -5.53141 -7.25807 -7.3029 -7.96686 -7.96272
6.3625 -5.60973 -5.59181 -7.34084 -7.38601 -8.08388 -8.07997
6.3725 -5.67435 -5.65634 -7.41658 -7.46168 -8.20406 -8.20057
6.3825 -5.74217 -5.72427 -7.48473 -7.52936 -8.32643 -8.32355
6.3925 -5.8123 -5.79474 -7.54483 -7.5886 -8.4499 -8.44781
6.4025 -5.88375 -5.86672 -7.59654 -7.63909 -8.57324 -8.57211
6.4125 -5.95546 -5.93914 -7.63972 -7.68072 -8.69522 -8.69519
6.4225 -6.02642 -6.01096 -7.67445 -7.71361 -8.81465 -8.81584
6.4325 -6.0957 -6.08122 -7.70106 -7.73817 -8.93044 -8.93294
6.4425 -6.16229 -6.14889 -7.71999 -7.75487 -9.04145 -9.04534
6.4525 -6.2249 -6.21264 -7.73139 -7.76394 -9.14637 -9.15185
6.4625 -6.28177 -6.27069 -7.73505 -7.76524 -9.24348 -9.25028
6.4725 -6.33088 -6.32098 -7.73059 -7.75847 -9.33058 -9.33856
6.4825 -6.37041 -6.36165 -7.71773 -7.74333 -9.40559 -9.41484
6.4925 -6.399 -6.39131 -7.69661 -7.72003 -9.46703 -9.47764
6.5025 -6.41575 -6.40905 -7.66765 -7.68909 -9.51404 -9.52594
6.5125 -6.42001 -6.41418 -7.63143 -7.65113 -9.54597 -9.55893
6.5225 -6.41119 -6.40609 -7.58839 -7.60663 -9.56209 -9.57586
6.5325 -6.38857 -6.38401 -7.53869 -7.55577 -9.56146 -9.57589
6.5425 -6.35126 -6.34699 -7.48201 -7.49828 -9.54294 -9.55792
6.5525 -6.29819 -6.29394 -7.41752 -7.43339 -9.50522 -9.52062
6.5625 -6.2283 -6.2238 -7.34414 -7.36001 -9.44694 -9.46255
6.5725 -6.14095 -6.13591 -7.26088 -7.27713 -9.36708 -9.38264
6.5825 -6.03636 -6.03055 -7.16732 -7.1843 -9.26537 -9.28068
6.5925 -5.91599 -5.90918 -7.06394 -7.08198 -9.14268 -9.1576
6.6025 -5.78232 -5.77431 -6.952 -6.97139 -9.00091 -9.01528
6.6125 -5.63824 -5.62889 -6.83299 -6.85394 -8.84232 -8.85601
6.6225 -5.48656 -5.47578 -6.70814 -6.7308 -8.66911 -8.68199
6.6325 -5.32976 -5.31751 -6.57825 -6.60269 -8.48313 -8.4951
6.6425 -5.17001 -5.15631 -6.44373 -6.46997 -8.28596 -8.29695
6.6525 -5.00941 -4.9943 -6.30496 -6.33293 -8.07914 -8.08913
6.6625 -4.85004 -4.83363 -6.16235 -6.19193 -7.86428 -7.87327
6.6725 -4.69372 -4.67616 -6.01616 -6.04717 -7.64284 -7.65084
6.6825 -4.54167 -4.52314 -5.86624 -5.8984 -7.41572 -7.42276
6.6925 -4.39446 -4.37518 -5.71196 -5.74499 -7.18332 -7.18945
6.7025 -4.25241 -4.23262 -5.5527 -5.58626 -6.94586 -6.95117
6.7125 -4.11593 -4.09589 -5.38817 -5.42192 -6.70381 -6.70839
6.7225 -3.98569 -3.96566 -5.21865 -5.25218 -6.45798 -6.46193
6.7325 -3.86244 -3.84269 -5.04476 -5.07769 -6.20939 -6.21281
6.7425 -3.74676 -3.72758 -4.8673 -4.89923 -5.95904 -5.96204
6.7525 -3.63884 -3.62049 -4.68693 -4.71749 -5.70763 -5.7103
6.7625 -3.53827 -3.521 -4.50402 -4.53286 -5.45537 -5.45782
6.7725 -3.44396 -3.42799 -4.31853 -4.34534 -5.20193 -5.20424
6.7825 -3.3542 -3.33971 -4.13002 -4.15453 -4.94643 -4.94867
6.7925 -3.26688 -3.25401 -3.93785 -3.95985 -4.68768 -4.6899
6.8025 -3.17977 -3.16863 -3.7414 -3.76075 -4.42443 -4.42666
6.8125 -3.09078 -3.08141 -3.54027 -3.5569 -4.1556 -4.15785
6.8225 -2.9982 -2.9906 -3.3345 -3.34839 -3.8805 -3.88277
6.8325 -2.90081 -2.89494 -3.12458 -3.13578 -3.59897 -3.60121
6.8425 -2.79783 -2.79359 -2.9114 -2.92003 -3.31122 -3.31338
6.8525 -2.68875 -2.68603 -2.69603 -2.70225 -3.01775 -3.01976
6.8625 -2.5732 -2.57067 -2.47963 -2.48374 -2.71927 -2.72101
6.8725 -2.45084 -2.44885 -2.26337 -2.26591 -2.4168 -2.41808
6.8825 -2.32215 -2.32121 -2.04864 -2.0498 -2.1116 -2.11237
6.8925 -2.18885 -2.18833 -1.83709 -1.83721 -1.80516 -1.8053
6.9025 -2.05184 -2.05124 -1.6302 -1.62947 -1.49917 -1.49857
6.9125 -1.91177 -1.91181 -1.42932 -1.42789 -1.19522 -1.19365
6.9225 -1.76936 -1.76976 -1.23562 -1.23363 -0.894738 -0.892372
6.9325 -1.62516 -1.62577 -1.04966 -1.04746 -0.598948 -0.595742
6.9425 -1.47916 -1.47982 -0.87141 -0.869307 -0.308743 -0.304559
6.9525 -1.33107 -1.33169 -0.700423 -0.698766 -0.0245042 -0.0190986
6.9625 -1.1804 -1.18084 -0.535828 -0.534841 0.253821 0.260542
6.9725 -1.02646 -1.02667 -0.376333 -0.376209 0.526577 0.534586
6.9825 -0.868285 -0.868234 -0.220241 -0.221135 0.794283 0.803508
6.9925 -0.704815 -0.704323 -0.0655668 -0.067716 1.05761 1.06807
7.0025 -0.535 -0.533911 0.0898622 0.0862929 1.31737 1.32912
7.0125 -0.357791 -0.355947 0.248229 0.243123 1.57447 1.58754
7.0225 -0.172288 -0.169668 0.411588 0.4049 1.82971 1.84404
7.0325 0.0219305 0.025325 0.581694 0.573425 2.08359 2.09906
7.0425 0.224843 0.229048 0.759946 0.750129 2.33625 2.35273
7.0525 0.436203 0.441216 0.947454 0.93617 2.58763 2.60501
7.0625 0.655569 0.661327 1.14507 1.13246 2.83754 2.85571
7.0725 0.882245 0.88867 1.35336 1.33961 3.08569 3.1045
7.0825 1.11521 1.12221 1.57249 1.55784 3.33155 3.35081
7.0925 1.35298 1.36046 1.80203 1.78673 3.57418 3.59367
7.1025 1.59357 1.60137 2.04086 2.02521 3.81213 3.83165
7.1125 1.83446 1.84244 2.28719 2.27152 4.04354 4.06292
7.1225 2.07285 2.08084 2.5387 2.52336 4.26629 4.28532
7.1325 2.30599 2.31382 2.79296 2.77831 4.47839 4.49682
7.1425 2.53147 2.53896 3.04761 3.03401 4.67813 4.69574
7.1525 2.74741 2.75439 3.3006 3.28839 4.86436 4.88095
7.1625 2.95263 2.95893 3.55034 3.53985 5.03662 5.05204
7.1725 3.14676 3.15223 3.79585 3.78738 5.19529 5.20939
7.1825 3.33028 3.33479 4.03677 4.03058 5.34158 5.35422
7.1925 3.5044 3.50783 4.27329 4.26959 5.47738 5.48844
7.2025 3.67073 3.67299 4.50587 4.50482 5.605 5.61439
7.2125 3.83104 3.83208 4.73502 4.73673 5.72685 5.73454
7.2225 3.98707 3.98686 4.96111 4.96563 5.8453 5.85129
7.2325 4.14031 4.13885 5.18427 5.19159 5.96248 5.96679
7.2425 4.29196 4.28928 5.40433 5.41437 6.08021 6.08287
7.2525 4.44298 4.43914 5.62091 5.63355 6.20001 6.20111
7.2625 4.59411 4.58919 5.83352 5.84858 6.32317 6.32275
7.2725 4.74587 4.73998 6.04161 6.05886 6.45066 6.44885
7.2825 4.89866 4.89194 6.2446 6.26371 6.58332 6.58052
7.2925 5.05277 5.04537 6.44195 6.46262 6.722 6.71838
7.3025 5.20834 5.20042 6.63316 6.6551 6.8674 6.86304
7.3125 5.36546 5.35716 6.81793 6.84081 7.01998 7.01499
7.3225 5.52408 5.5156 6.99609 7.01954 7.18001 7.17462
7.3325 5.68411 5.67561 7.16757 7.19122 7.3477 7.34222
7.3425 5.84533 5.83698 7.33242 7.35591 7.52318 7.51786
7.3525 6.00735 5.99931 7.4907 7.51371 7.70638 7.7014
7.3625 6.16947 6.16188 7.64242 7.66464 7.89686 7.89238
7.3725 6.33064 6.32362 7.7874 7.80854 8.09374 8.08996
7.3825 6.48953 6.4832 7.92533 7.94515 8.29583 8.29294
7.3925 6.64484 6.63928 8.05606 8.07436 8.50192 8.50008
7.4025 6.79561 6.79086 8.17988 8.19652 8.71108 8.71047
7.4125 6.94122 6.93732 8.29748 8.31236 8.92279 8.92351
7.4225 7.08125 7.0782 8.40978 8.42289 9.13652 9.13851
7.4325 7.21528 7.21305 8.51772 8.52906 9.35162 9.35495
7.4425 7.34284 7.34137 8.62213 8.63175 9.56734 9.57213
7.4525 7.46349 7.46271 8.72381 8.73182 9.78298 9.78929
7.4625 7.57688 7.57669 8.82352 8.83009 9.99791 10.0057
7.4725 7.68279 7.68295 8.92202 8.92738 10.2115 10.2207
7.4825 7.7813 7.78153 9.01999 9.02452 10.4232 10.4336
7.4925 7.87271 7.87285 9.11809 9.12201 10.6325 10.6441
7.5025 7.95708 7.95701 9.21684 9.2204 10.8387 10.8514
7.5125 8.03451 8.03414 9.31649 9.31991 11.0412 11.0549
7.5225 8.10504 8.10424 9.41692 9.42048 11.2392 11.2539
7.5325 8.16854 8.16713 9.51772 9.52173 11.4318 11.4472
7.5425 8.22464 8.22252 9.61816 9.62288 11.6177 11.6338
7.5525 8.27301 8.27011 9.71735 9.723 11.7957 11.8123
7.5625 8.3137 8.30993 9.81462 9.82141 11.9651 11.9821
7.5725 8.34733 8.34259 9.90966 9.91779 12.1255 12.1429
7.5825 8.37501 8.36922 10.0026 10.0122 12.2773 12.2949
7.5925 8.39803 8.39106 10.0935 10.1049 12.4209 12.4386
7.6025 8.41745 8.40924 10.1824 10.1956 12.5564 12.5741
7.6125 8.43374 8.42428 10.2684 10.2834 12.6835 12.7013
7.6225 8.44666 8.43593 10.3499 10.3667 12.8012 12.8189
7.6325 8.45545 8.44347 10.4247 10.4434 12.9079 12.9254
7.6425 8.45946 8.44626 10.4911 10.5115 13.0021 13.0196
7.6525 8.45865 8.44431 10.5475 10.5697 13.0832 13.1005
7.6625 8.45357 8.43818 10.5935 10.6171 13.1509 13.1681
7.6725 8.44508 8.42878 10.6288 10.6537 13.2056 13.2227
7.6825 8.43422 8.41715 10.6534 10.6794 13.2477 13.2647
7.6925 8.42206 8.4044 10.6678 10.6945 13.2778 13.2947
7.7025 8.40966 8.3916 10.6724 10.6996 13.2966 13.3136
7.7125 8.39809 8.37983 10.6678 10.6952 13.3048 13.3219
7.7225 8.38835 8.37012 10.655 10.6822 13.3033 13.3205
7.7325 8.38143 8.36345 10.635 10.6618 13.293 13.3104
7.7425 8.37823 8.36071 10.6092 10.6352 13.2748 13.2925
7.7525 8.37941 8.36257 10.5786 10.6035 13.2495 13.2675
7.7625 8.38514 8.36916 10.5442 10.5679 13.2177 13.236
7.7725 8.39478 8.37983 10.5064 10.5286 13.1789 13.1976
7.7825 8.40675 8.39297 10.4648 10.4852 13.1322 13.1512
7.7925 8.41861 8.4061 10.4182 10.4368 13.0757 13.095
7.8025 8.42747 8.41627 10.365 10.3817 13.0071 13.0268
7.8125 8.43045 8.42057 10.3038 10.3186 12.9244 12.9442
7.8225 8.42505 8.41644 10.2335 10.2463 12.8257 12.8457
7.8325 8.40938 8.40196 10.1533 10.1645 12.7099 12.7299
7.8425 8.38226 8.3759 10.0635 10.0731 12.5765 12.5965
7.8525 8.34298 8.33756 9.9643 9.97246 12.4257 12.4455
7.8625 8.29112 8.28646 9.85623 9.86322 12.2576 12.2771
7.8725 8.22644 8.22239 9.73975 9.74581 12.0728 12.0919
7.8825 8.14887 8.14522 9.61529 9.62068 11.8717 11.8903
7.8925 8.05839 8.05495 9.4831 9.4881 11.655 11.6728
7.9025 7.95505 7.95162 9.34332 9.34819 11.4233 11.4402
7.9125 7.839 7.83541 9.19593 9.20092 11.177 11.193
7.9225 7.71052 7.70658 9.04082 9.04619 10.917 10.932
7.9325 7.57 7.56555 8.87784 8.88379 10.6441 10.6578
7.9425 7.41798 7.41289 8.70677 8.71347 10.3589 10.3714
7.9525 7.25513 7.24927 8.52738 8.53497 10.0625 10.0737
7.9625 7.08226 7.07555 8.33945 8.34803 9.75584 9.76572
7.9725 6.90037 6.89274 8.14286 8.15247 9.44006 9.44859
7.9825 6.71065 6.70209 7.93764 7.94828 9.11648 9.12367
7.9925 6.51459 6.50511 7.72407 7.73568 8.78663 8.79251
8.0025 6.31394 6.30359 7.50275 7.51522 8.45231 8.45695
8.015 6.05984 6.04852 7.21667 7.22997 8.03131 8.03452
8.0275 5.8061 5.79401 6.92238 6.93617 7.61094 7.61288
8.04 5.55673 5.54413 6.62232 6.63619 7.19527 7.19611
8.0525 5.31439 5.30156 6.3181 6.33159 6.787 6.78684
8.065 5.07964 5.06692 6.00979 6.02233 6.38674 6.38609
8.0775 4.85121 4.83889 5.69608 5.70717 5.99359 5.99271
8.09 4.62706 4.61542 5.37539 5.38462 5.60599 5.60492
8.1025 4.40536 4.39465 5.04697 5.05394 5.22239 5.22126
8.115 4.18486 4.17529 4.71108 4.71539 4.8418 4.84092
8.1275 3.96429 3.95603 4.36824 4.3696 4.46343 4.463
8.14 3.74122 3.73448 4.01811 4.01632 4.08535 4.08544
8.1525 3.51133 3.50713 3.65929 3.65383 3.70415 3.70488
8.165 3.27027 3.26614 3.29005 3.28159 3.3159 3.31715
8.1775 3.0137 3.01125 2.90908 2.89756 2.91784 2.9197
8.19 2.74067 2.7396 2.5175 2.50329 2.50875 2.51109
8.2025 2.45169 2.45138 2.11759 2.10076 2.08918 2.092
8.215 2.14707 2.14776 1.71224 1.69318 1.66057 1.66375
8.2275 1.82876 1.8313 1.3044 1.28339 1.22463 1.22805
8.24 1.49938 1.50271 0.897348 0.874467 0.783312 0.786899
8.2525 1.16042 1.16436 0.494413 0.470191 0.339346 0.342886
8.265 0.814808 0.819606 0.0990713 0.0740985 -0.103966 -0.100642
8.2775 0.466658 0.471669 -0.285324 -0.31058 -0.543507 -0.540605
8.29 0.118247 0.123238 -0.656783 -0.681973 -0.976916 -0.974517
8.3025 -0.229157 -0.224222 -1.0151 -1.03979 -1.40305 -1.40134
8.315 -0.574818 -0.570264 -1.36134 -1.38513 -1.82186 -1.82101
8.3275 -0.918635 -0.914624 -1.6971 -1.71972 -2.23366 -2.23378
8.34 -1.25999 -1.25658 -2.02384 -2.04512 -2.63837 -2.63947
8.3525 -1.59745 -1.59475 -2.34258 -2.36238 -3.03521 -3.03733
8.365 -1.92924 -1.92727 -2.65397 -2.67222 -3.42299 -3.42615
8.3775 -2.25337 -2.2521 -2.95841 -2.97519 -3.80036 -3.80452
8.39 -2.56783 -2.56719 -3.25628 -3.27174 -4.166 -4.17106
8.4025 -2.87102 -2.8709 -3.54818 -3.56252 -4.51894 -4.52478
8.415 -3.16199 -3.16224 -3.83508 -3.84858 -4.85879 -4.86527
8.4275 -3.44043 -3.44087 -4.11823 -4.13125 -5.18579 -5.19277
8.44 -3.70668 -3.70711 -4.39919 -4.41211 -5.50077 -5.50806
8.4525 -3.96176 -3.96196 -4.67974 -4.69297 -5.8052 -5.8126
8.465 -4.20707 -4.20682 -4.96161 -4.97556 -6.10081 -6.10814
8.4775 -4.44338 -4.44246 -5.24543 -5.26053 -6.38869 -6.39578
8.49 -4.67018 -4.66837 -5.53012 -5.54675 -6.66859 -6.67526
8.5025 -4.88595 -4.88307 -5.81317 -5.83169 -6.93919 -6.94526
8.515 -5.08885 -5.08473 -6.09136 -6.11208 -7.19875 -7.20409
8.5275 -5.27724 -5.27174 -6.36136 -6.3845 -7.44567 -7.4502
8.54 -5.45003 -5.44306 -6.62006 -6.6458 -7.67882 -7.68249
8.5525 -5.60696 -5.59846 -6.86501 -6.89345 -7.89787 -7.90063
8.565 -5.74914 -5.73912 -7.09503 -7.12615 -8.10372 -8.1056
8.5775 -5.87946 -5.86795 -7.31061 -7.34433 -8.299 -8.30006
8.59 -6.00241 -5.98949 -7.51399 -7.55012 -8.4879 -8.48824
8.6025 -6.12348 -6.1093 -7.70854 -7.74681 -8.67557 -8.67533
8.615 -6.24797 -6.2327 -7.8977 -7.9378 -8.86697 -8.8663
8.6275 -6.38013 -6.36397 -8.08424 -8.12575 -9.06599 -9.06508
8.64 -6.52267 -6.50586 -8.26981 -8.3123 -9.27506 -9.27412
8.6525 -6.6763 -6.65908 -8.45453 -8.49753 -9.49462 -9.49387
8.665 -6.83974 -6.82234 -8.637 -8.68006 -9.72319 -9.72284
8.6775 -7.01039 -6.99305 -8.81503 -8.8577 -9.95803 -9.95828
8.69 -7.18477 -7.1677 -8.98597 -9.02785 -10.1955 -10.1966
8.7025 -7.35875 -7.34214 -9.14696 -9.18769 -10.4315 -10.4335
8.715 -7.52782 -7.51182 -9.29509 -9.33438 -10.6614 -10.6645
8.7275 -7.68735 -7.67208 -9.42757 -9.46521 -10.8805 -10.8849
8.74 -7.83285 -7.81839 -9.54186 -9.57775 -11.0846 -11.0901
8.7525 -7.96014 -7.94649 -9.63596 -9.6701 -11.2692 -11.2758
8.765 -8.06577 -8.05268 -9.70819 -9.74072 -11.4305 -11.4384
8.7775 -8.14704 -8.13445 -9.75733 -9.7883 -11.5653 -11.5744
8.79 -8.20159 -8.18955 -9.78283 -9.81234 -11.6711 -11.6813
8.8025 -8.22812 -8.2166 -9.78465 -9.81286 -11.7461 -11.7572
8.815 -8.22586 -8.21474 -9.76311 -9.79028 -11.789 -11.8009
8.8275 -8.19432 -8.18341 -9.71865 -9.74509 -11.7989 -11.8115
8.84 -8.13365 -8.12265 -9.65176 -9.67785 -11.7753 -11.7885
8.8525 -8.04481 -8.0334 -9.56313 -9.58927 -11.7184 -11.7319
8.865 -7.9296 -7.91752 -9.45386 -9.48042 -11.629 -11.6425
8.8775 -7.7908 -7.77781 -9.32549 -9.35275 -11.5086 -11.5221
8.89 -7.63222 -7.61814 -9.18016 -9.20837 -11.3597 -11.373
8.9025 -7.45867 -7.44338 -9.02066 -9.04998 -11.186 -11.1989
8.915 -7.27569 -7.25917 -8.85036 -8.88086 -10.9915 -11.004
8.9275 -7.08912 -7.0714 -8.67281 -8.70445 -10.7809 -10.7929
8.94 -6.90416 -6.88536 -8.49101 -8.52367 -10.5582 -10.5696
8.9525 -6.72469 -6.705 -8.30683 -8.3403 -10.3264 -10.3372
8.965 -6.55272 -6.53236 -8.12056 -8.15455 -10.0866 -10.0969
8.9775 -6.38802 -6.36724 -7.93063 -7.96482 -9.83834 -9.84803
8.99 -6.22867 -6.20775 -7.73422 -7.76824 -9.5793 -9.5885
9.0025 -6.07221 -6.05141 -7.52837 -7.56187 -9.30711 -9.31586
9.015 -5.91661 -5.89618 -7.31104 -7.34365 -9.02001 -9.02835
9.0275 -5.76071 -5.7409 -7.08144 -7.1128 -8.71729 -8.72528
9.04 -5.60369 -5.58473 -6.83953 -6.86933 -8.39883 -8.4065
9.0525 -5.44439 -5.42646 -6.58526 -6.61322 -8.06427 -8.07166
9.065 -5.28118 -5.26443 -6.31845 -6.34433 -7.71301 -7.72014
9.0775 -5.11225 -5.0968 -6.03893 -6.06257 -7.34438 -7.35124
9.09 -4.93565 -4.92155 -5.74657 -5.76786 -6.95765 -6.96422
9.1025 -4.74908 -4.73635 -5.44094 -5.45986 -6.55182 -6.55806
9.115 -4.54975 -4.53833 -5.1211 -5.13768 -6.12544 -6.13127
9.1275 -4.33471 -4.32451 -4.78584 -4.8002 -5.67687 -5.68221
9.14 -4.1021 -4.09296 -4.43481 -4.44711 -5.20551 -5.21025
9.1525 -3.85212 -3.84387 -4.06948 -4.07993 -4.71274 -4.71677
9.165 -3.58686 -3.57912 -3.69292 -3.70176 -4.20177 -4.20498
9.1775 -3.3088 -3.30059 -3.30864 -3.31643 -3.67655 -3.67874
9.19 -3.02017 -3.0135 -2.92008 -2.92632 -3.14103 -3.1422
9.2025 -2.72423 -2.71825 -2.53064 -2.53564 -2.59902 -2.59899
9.215 -2.42368 -2.4181 -2.14347 -2.14758 -2.05515 -2.05391
9.2275 -2.12205 -2.11716 -1.76325 -1.7669 -1.51494 -1.51208
9.24 -1.82475 -1.82026 -1.39545 -1.39861 -0.984658 -0.980592
9.2525 -1.53645 -1.53221 -1.04472 -1.04756 -0.470762 -0.465421
9.265 -1.26081 -1.25724 -0.714469 -0.717301 0.0213604 0.0282487
9.2775 -1.00076 -0.997841 -0.407092 -0.409894 0.487981 0.496474
9.29 -0.757292 -0.754401 -0.123355 -0.126264 0.926937 0.936916
9.3025 -0.529348 -0.526785 0.137811 0.134627 1.33728 1.34861
9.315 -0.316032 -0.313655 0.378292 0.37464 1.71899 1.73172
9.3275 -0.115816 -0.113387 0.600352 0.596186 2.07266 2.08682
9.34 0.073077 0.0754824 0.806324 0.801634 2.39899 2.41443
9.3525 0.252248 0.254684 0.998819 0.99357 2.69895 2.71549
9.365 0.424289 0.42684 1.18131 1.17551 2.97447 2.99197
9.3775 0.592636 0.595271 1.35798 1.35169 3.22839 3.24676
9.39 0.760453 0.763173 1.53282 1.52615 3.46368 3.48272
9.4025 0.9299 0.932709 1.70881 1.70185 3.68242 3.70191
9.415 1.10132 1.10418 1.88693 1.87982 3.88501 3.90474
9.4275 1.27313 1.27599 2.06619 2.05909 4.07013 4.08989
9.44 1.44306 1.44588 2.24481 2.2379 4.23601 4.25564
9.4525 1.60982 1.61255 2.42179 2.41527 4.38208 4.40131
9.465 1.7737 1.77626 2.59758 2.59165 4.50945 4.52804
9.4775 1.93594 1.93828 2.77346 2.76829 4.62036 4.63811
9.49 2.09724 2.09931 2.94996 2.94572 4.71664 4.73339
9.5025 2.25652 2.25828 3.12573 3.12257 4.79854 4.81413
9.515 2.4113 2.41271 3.29787 3.29591 4.86502 4.87928
9.5275 2.55855 2.55957 3.46284 3.46219 4.91459 4.9274
9.54 2.69534 2.69597 3.61713 3.61784 4.94592 4.95721
9.5525 2.81888 2.81911 3.75725 3.75934 4.95787 4.9676
9.565 2.9262 2.92604 3.87953 3.88299 4.94919 4.95731
9.5775 3.01435 3.01383 3.98026 3.98505 4.91859 4.92512
9.59 3.08076 3.07993 4.05613 4.06215 4.86513 4.87012
9.6025 3.12349 3.12239 4.10448 4.1116 4.78843 4.79195
9.615 3.14147 3.14017 4.12359 4.13165 4.68893 4.69109
9.6275 3.13507 3.13362 4.11325 4.12207 4.56837 4.56924
9.64 3.10652 3.10493 4.07522 4.08462 4.43005 4.42975
9.6525 3.05996 3.05828 4.01316 4.02285 4.279 4.27795
9.665 3.0007 2.99902 3.93205 3.94181 4.12153 4.11982
9.6775 2.93411 2.93254 3.83708 3.84664 3.96369 3.96137
9.69 2.86468 2.86337 3.7329 3.74195 3.81041 3.80768
9.7025 2.79559 2.79471 3.62305 3.63128 3.66525 3.66242
9.715 2.72848 2.72816 3.5098 3.51694 3.53032 3.52762
9.7275 2.66341 2.66378 3.39413 3.39993 3.40612 3.40363
9.74 2.59917 2.60033 3.27602 3.28028 3.29168 3.28954
9.7525 2.53397 2.53598 3.15501 3.15758 3.18536 3.18376
9.765 2.46622 2.46908 3.03095 3.03174 3.08568 3.08477
9.7775 2.39507 2.39877 2.90449 2.90348 2.99184 2.99168
9.79 2.32045 2.32493 2.777 2.77423 2.90363 2.90424
9.8025 2.24253 2.2477 2.65003 2.64558 2.82089 2.82232
9.815 2.16124 2.16698 2.52471 2.51874 2.74314 2.74541
9.8275 2.07632 2.0825 2.40183 2.39451 2.6696 2.67268
9.84 1.98738 1.99383 2.28174 2.27332 2.59928 2.60312
9.8525 1.89359 1.90013 2.16413 2.15486 2.53052 2.53499
9.865 1.79344 1.79988 2.04767 2.03782 2.46083 2.46589
9.8775 1.68475 1.69087 1.93 1.91985 2.38694 2.39255
9.89 1.56502 1.57063 1.80814 1.79797 2.30526 2.31131
9.9025 1.43206 1.43695 1.67899 1.66908 2.21226 2.21861
9.915 1.28426 1.28824 1.53974 1.53031 2.10485 2.11141
9.9275 1.12083 1.12375 1.38805 1.37929 1.98062 1.98735
9.94 0.941768 0.943492 1.2221 1.21413 1.83788 1.8447
9.9525 0.747577 0.748039 1.04037 1.03326 1.67537 1.68223
9.965 0.539177 0.538591 0.841676 0.83537 1.49217 1.49903
9.9775 0.317833 0.317123 0.625641 0.619647 1.28798 1.29493
9.99 0.0856051 0.0843794 0.392782 0.38696 1.0634 1.07042
10.0025 -0.155239 -0.15675 0.144282 0.138541 0.819961 0.827062
10.015 -0.401495 -0.403289 -0.11749 -0.123257 0.559916 0.567075
10.0275 -0.649508 -0.651637 -0.389356 -0.39525 0.286244 0.293442
10.04 -0.894909 -0.897056 -0.667945 -0.674299 0.00218826 0.00949251
10.0525 -1.13429 -1.13651 -0.950349 -0.957365 -0.289689 -0.282277
10.065 -1.36635 -1.3684 -1.23505 -1.24301 -0.588271 -0.580728
10.0775 -1.59114 -1.59282 -1.52185 -1.53099 -0.893925 -0.886256
10.09 -1.80954 -1.81079 -1.81111 -1.82166 -1.20768 -1.19989
10.1025 -2.02267 -2.02334 -2.10299 -2.11512 -1.53045 -1.52254
10.115 -2.23121 -2.23119 -2.39706 -2.41093 -1.8626 -1.85461
10.1275 -2.4349 -2.43388 -2.69244 -2.70833 -2.20414 -2.19612
10.14 -2.63507 -2.63298 -2.98808 -3.00628 -2.55505 -2.547
10.1525 -2.83326 -2.82958 -3.28342 -3.30383 -2.91545 -2.90746
10.165 -3.03027 -3.02526 -3.5781 -3.60053 -3.28565 -3.27784
10.1775 -3.2279 -3.22165 -3.8719 -3.89627 -3.66609 -3.65863
10.19 -3.42774 -3.42019 -4.16464 -4.19083 -4.05696 -4.05
10.2025 -3.63042 -3.62175 -4.45577 -4.4835 -4.45774 -4.45142
10.215 -3.83603 -3.82638 -4.74411 -4.7731 -4.8672 -4.86175
10.2275 -4.04412 -4.0336 -5.02816 -5.05819 -5.28348 -5.27889
10.24 -4.25358 -4.24235 -5.30626 -5.33702 -5.70398 -5.70047
10.2525 -4.4626 -4.45083 -5.57627 -5.60742 -6.12546 -6.12329
10.265 -4.66865 -4.65648 -5.83556 -5.8668 -6.54403 -6.54333
10.2775 -4.8688 -4.85637 -6.08139 -6.1125 -6.95544 -6.95627
10.29 -5.06045 -5.04789 -6.31167 -6.3424 -7.35565 -7.35808
10.3025 -5.24195 -5.22936 -6.52541 -6.55554 -7.74157 -7.74572
10.315 -5.41261 -5.40008 -6.72273 -6.75213 -8.11114 -8.11707
10.3275 -5.57233 -5.55992 -6.90449 -6.93304 -8.46294 -8.47063
10.34 -5.72129 -5.70905 -7.07188 -7.09953 -8.79583 -8.80522
10.3525 -5.85958 -5.84752 -7.22606 -7.25279 -9.10859 -9.11964
10.365 -5.98681 -5.97492 -7.36768 -7.39353 -9.3996 -9.41224
10.3775 -6.10218 -6.09045 -7.4969 -7.52196 -9.66694 -9.68103
10.39 -6.20489 -6.19326 -7.61378 -7.63818 -9.90871 -9.9241
10.4025 -6.29458 -6.28299 -7.71868 -7.74258 -10.1236 -10.1401
10.415 -6.37171 -6.36002 -7.8122 -7.83602 -10.3122 -10.3294
10.4275 -6.43763 -6.42579 -7.89587 -7.9201 -10.476 -10.4919
10.44 -6.49452 -6.48245 -7.97255 -7.99721 -10.6146 -10.6296
10.4525 -6.54512 -6.5328 -8.04485 -8.06969 -10.7296 -10.7454
10.465 -6.59208 -6.57945 -8.11481 -8.14004 -10.8245 -10.8413
10.4775 -6.63747 -6.62448 -8.18393 -8.20986 -10.9024 -10.9189
10.49 -6.6822 -6.66881 -8.2528 -8.27948 -10.9635 -10.9792
10.5025 -6.72591 -6.71211 -8.32044 -8.3479 -11.0069 -11.0222
10.515 -6.76721 -6.75299 -8.38464 -8.41301 -11.0315 -11.0467
10.5275 -6.80374 -6.78909 -8.44228 -8.47168 -11.036 -11.0505
10.54 -6.83234 -6.81728 -8.48948 -8.51993 -11.0177 -11.031
10.5525 -6.84978 -6.83434 -8.5222 -8.55367 -10.9735 -10.9858
10.565 -6.85373 -6.83792 -8.53725 -8.56972 -10.9019 -10.9133
10.5775 -6.84334 -6.82718 -8.53295 -8.56639 -10.8031 -10.8134
10.59 -6.81932 -6.80285 -8.50918 -8.54351 -10.6787 -10.6879
10.6025 -6.78367 -6.76695 -8.46717 -8.50225 -10.5317 -10.5396
10.615 -6.73908 -6.72222 -8.40896 -8.4446 -10.3654 -10.3723
10.6275 -6.68822 -6.67136 -8.3367 -8.3727 -10.1839 -10.1897
10.64 -6.63332 -6.61659 -8.25233 -8.28844 -9.99035 -9.9951
10.6525 -6.57585 -6.55943 -8.15729 -8.19326 -9.78757 -9.7913
10.665 -6.51634 -6.50038 -8.05232 -8.08788 -9.57723 -9.58008
10.6775 -6.45415 -6.4388 -7.93727 -7.97217 -9.36005 -9.36215
10.69 -6.38747 -6.37286 -7.81108 -7.8451 -9.13567 -9.13708
10.7025 -6.31354 -6.29976 -7.67191 -7.70485 -8.9027 -8.90347
10.715 -6.22875 -6.21585 -7.51724 -7.54895 -8.65886 -8.65909
10.7275 -6.12905 -6.11704 -7.34418 -7.37456 -8.40139 -8.40117
10.74 -6.01115 -5.99998 -7.15059 -7.17958 -8.12816 -8.12755
10.7525 -5.87358 -5.86319 -6.93608 -6.96369 -7.83872 -7.83776
10.765 -5.71687 -5.70718 -6.70217 -6.7284 -7.53442 -7.53314
10.7775 -5.54293 -5.53384 -6.45159 -6.47647 -7.21775 -7.21621
10.79 -5.35439 -5.34581 -6.18764 -6.21124 -6.89182 -6.89005
10.8025 -5.15428 -5.14612 -5.91387 -5.93624 -6.55992 -6.55794
10.815 -4.94574 -4.93792 -5.63379 -5.655 -6.22533 -6.22315
10.8275 -4.73187 -4.72431 -5.35075 -5.37085 -5.89112 -5.88877
10.84 -4.51551 -4.50815 -5.06771 -5.08677 -5.56003 -5.55753
10.8525 -4.29901 -4.29181 -4.78707 -4.80515 -5.23422 -5.23157
10.865 -4.08387 -4.07677 -4.51029 -4.52744 -4.91491 -4.91213
10.8775 -3.87047 -3.86344 -4.23765 -4.25393 -4.60218 -4.59928
10.89 -3.65836 -3.65136 -3.9686 -3.98403 -4.2951 -4.29211
10.9025 -3.4473 -3.44029 -3.70268 -3.71729 -3.99303 -3.99006
10.915 -3.23833 -3.23129 -3.44066 -3.45451 -3.69665 -3.69364
10.9275 -3.03425 -3.02717 -3.18508 -3.19821 -3.40828 -3.40516
10.94 -2.83896 -2.83181 -2.9396 -2.952 -3.13127 -3.12804
10.9525 -2.65615 -2.64897 -2.70794 -2.71957 -2.86899 -2.86575
10.965 -2.48848 -2.48151 -2.49329 -2.50394 -2.62433 -2.62109
10.9775 -2.33769 -2.33131 -2.29794 -2.30767 -2.39934 -2.39603
10.99 -2.20562 -2.19953 -2.12367 -2.13261 -2.19558 -2.19221
11.0025 -2.09309 -2.08728 -1.97211 -1.98033 -2.01433 -2.01088
11.015 -2.00031 -1.99489 -1.84415 -1.8517 -1.85625 -1.85271
11.0275 -1.92658 -1.92144 -1.73939 -1.74637 -1.72082 -1.71716
11.04 -1.86964 -1.86473 -1.65607 -1.66259 -1.60623 -1.6024
11.0525 -1.82638 -1.82169 -1.5915 -1.59771 -1.50979 -1.50577
11.065 -1.79329 -1.78874 -1.54244 -1.54845 -1.42834 -1.42409
11.0775 -1.76676 -1.76228 -1.50542 -1.51139 -1.35865 -1.35414
11.09 -1.74378 -1.73932 -1.47749 -1.48356 -1.29808 -1.29326
11.1025 -1.72262 -1.71809 -1.45676 -1.46309 -1.24516 -1.24001
11.115 -1.70291 -1.6982 -1.44261 -1.44934 -1.19977 -1.19427
11.1275 -1.68539 -1.68044 -1.43536 -1.44263 -1.16283 -1.15696
11.14 -1.67144 -1.66618 -1.43581 -1.44372 -1.13582 -1.12957
11.1525 -1.66261 -1.65696 -1.44481 -1.45345 -1.12028 -1.11366
11.165 -1.66035 -1.65429 -1.4631 -1.47251 -1.11768 -1.11071
11.1775 -1.66585 -1.65935 -1.49105 -1.50126 -1.12912 -1.12183
11.19 -1.67951 -1.67257 -1.52828 -1.53928 -1.15491 -1.14735
11.2025 -1.70033 -1.69299 -1.57305 -1.58478 -1.19392 -1.18614
11.215 -1.7256 -1.7179 -1.62198 -1.63438 -1.24331 -1.23538
11.2275 -1.75166 -1.74362 -1.67082 -1.6838 -1.29925 -1.29124
11.24 -1.7754 -1.76706 -1.71595 -1.72944 -1.35842 -1.3504
11.2525 -1.79512 -1.78651 -1.75523 -1.76912 -1.41881 -1.41089
11.265 -1.81054 -1.80169 -1.788 -1.80217 -1.47975 -1.47204
11.2775 -1.82272 -1.81368 -1.81502 -1.82936 -1.54189 -1.53448
11.29 -1.83377 -1.8246 -1.83821 -1.85258 -1.60682 -1.5998
11.3025 -1.84602 -1.83681 -1.85983 -1.87411 -1.67631 -1.66977
11.315 -1.86115 -1.85197 -1.88162 -1.89567 -1.75146 -1.74549
11.3275 -1.87961 -1.87055 -1.90429 -1.91797 -1.83215 -1.82683
11.34 -1.90115 -1.89227 -1.92793 -1.94114 -1.91759 -1.91297
11.3525 -1.92525 -1.91661 -1.95251 -1.96516 -2.00668 -2.0028
11.365 -1.9509 -1.94252 -1.97757 -1.98961 -2.09787 -2.09476
11.3775 -1.97637 -1.96826 -2.00205 -2.01344 -2.18893 -2.18662
11.39 -1.99945 -1.99159 -2.0243 -2.03509 -2.27718 -2.2756
11.4025 -2.01769 -2.01003 -2.04248 -2.05274 -2.35962 -2.35869
11.415 -2.02857 -2.02105 -2.05459 -2.06439 -2.43311 -2.43284
11.4275 -2.02962 -2.02215 -2.05854 -2.06797 -2.49461 -2.49499
11.44 -2.01862 -2.01109 -2.05223 -2.06144 -2.54128 -2.54221
11.4525 -1.99371 -1.986 -2.03382 -2.04296 -2.57057 -2.57193
11.465 -1.95366 -1.94565 -2.00185 -2.01104 -2.58041 -2.58214
11.4775 -1.89775 -1.88931 -1.95511 -1.9645 -2.5692 -2.57124
11.49 -1.82545 -1.81648 -1.89242 -1.90211 -2.53551 -2.53778
11.5025 -1.7366 -1.72706 -1.81272 -1.82281 -2.4782 -2.4806
11.515 -1.63211 -1.62245 -1.71612 -1.72644 -2.39725 -2.39975
11.5275 -1.51464 -1.50475 -1.60469 -1.6152 -2.29468 -2.29722
11.54 -1.3888 -1.37874 -1.4823 -1.493 -2.17456 -2.17711
11.5525 -1.25989 -1.24972 -1.35362 -1.36454 -2.04171 -2.0442
11.565 -1.13276 -1.12252 -1.22299 -1.23403 -1.90056 -1.90292
11.5775 -1.01162 -1.00139 -1.09416 -1.10519 -1.75502 -1.75723
11.59 -0.900421 -0.890292 -0.970701 -0.981655 -1.6089 -1.61095
11.6025 -0.802946 -0.792996 -0.856223 -0.866998 -1.46601 -1.46785
11.615 -0.722561 -0.712887 -0.75414 -0.764599 -1.32991 -1.33151
11.6275 -0.661928 -0.652621 -0.66731 -0.677328 -1.20361 -1.20494
11.64 -0.62257 -0.613715 -0.597644 -0.607126 -1.08917 -1.09022
11.6525 -0.604408 -0.596195 -0.545807 -0.554669 -0.98741 -0.988143
11.665 -0.606187 -0.59865 -0.511323 -0.519505 -0.897975 -0.898354
11.6775 -0.626102 -0.619233 -0.493021 -0.500415 -0.819855 -0.819828
11.69 -0.661173 -0.655099 -0.489351 -0.495893 -0.751633 -0.751161
11.7025 -0.707967 -0.702819 -0.498182 -0.503889 -0.691415 -0.69046
11.715 -0.762637 -0.758367 -0.516908 -0.521897 -0.636902 -0.635414
11.7275 -0.820941 -0.817518 -0.542781 -0.547146 -0.585482 -0.58334
11.74 -0.87884 -0.876183 -0.573096 -0.57693 -0.534738 -0.532151
11.7525 -0.933012 -0.930967 -0.605444 -0.608978 -0.483171 -0.480029
11.765 -0.981114 -0.979497 -0.638249 -0.64179 -0.430115 -0.426138
11.7775 -1.02186 -1.02049 -0.670798 -0.67459 -0.375568 -0.370655
11.79 -1.05462 -1.0533 -0.70263 -0.706891 -0.320004 -0.31424
11.8025 -1.07871 -1.07725 -0.732892 -0.737874 -0.263927 -0.257329
11.815 -1.09341 -1.09161 -0.76034 -0.766288 -0.207624 -0.200079
11.8275 -1.09839 -1.09609 -0.783905 -0.791004 -0.151496 -0.142934
11.84 -1.09439 -1.09145 -0.803278 -0.811657 -0.0967241 -0.08721
11.8525 -1.08315 -1.07948 -0.818946 -0.828692 -0.0454029 -0.0350397
11.865 -1.0669 -1.06243 -0.831717 -0.842858 2.19467e-05 0.0111812
11.8775 -1.0478 -1.04252 -0.842303 -0.854795 0.0373377 0.0492391
11.89 -1.02773 -1.02167 -0.851131 -0.864869 0.0648101 0.0773264
11.9025 -1.00819 -1.00142 -0.858339 -0.873161 0.0811735 0.0941249
11.915 -0.990459 -0.983084 -0.864005 -0.879703 0.0854228 0.098638
11.9275 -0.975826 -0.967978 -0.868413 -0.884738 0.0766303 0.0899555
11.94 -0.965667 -0.957501 -0.872218 -0.888886 0.0538904 0.067164
11.9525 -0.961356 -0.953046 -0.876377 -0.893076 0.0163851 0.0293529
11.965 -0.963961 -0.955687 -0.881861 -0.89827 -0.0364268 -0.0240142
11.9775 -0.973819 -0.965758 -0.889231 -0.905056 -0.104379 -0.0926964
11.99 -0.990332 -0.982641 -0.898449 -0.913423 -0.186313 -0.175503
12.0025 -1.01218 -1.00499 -0.909051 -0.922945 -0.280291 -0.270514
12.015 -1.03787 -1.03128 -0.920625 -0.93326 -0.384181 -0.375589
12.0275 -1.06625 -1.06032 -0.933282 -0.944545 -0.496209 -0.488898
12.04 -1.09643 -1.09118 -0.947509 -0.957346 -0.614818 -0.60883
12.0525 -1.12735 -1.12276 -0.963656 -0.97208 -0.73821 -0.733564
12.065 -1.15765 -1.15367 -0.98175 -0.988836 -0.864248 -0.860943
12.0775 -1.18607 -1.18262 -1.0018 -1.00768 -0.990934 -0.989068
12.09 -1.21215 -1.20908 -1.02433 -1.02927 -1.11721 -1.11641
12.1025 -1.23657 -1.23375 -1.051 -1.05526 -1.24282 -1.24284
12.115 -1.26084 -1.25813 -1.084 -1.08777 -1.36813 -1.36905
12.1275 -1.2862 -1.28345 -1.12488 -1.12843 -1.49353 -1.4954
12.14 -1.3128 -1.30985 -1.17383 -1.17748 -1.61848 -1.62106
12.1525 -1.3396 -1.3363 -1.22966 -1.2337 -1.74111 -1.74409
12.165 -1.365 -1.3612 -1.29035 -1.295 -1.85877 -1.86206
12.1775 -1.38747 -1.38302 -1.3536 -1.3591 -1.96901 -1.97257
12.19 -1.4057 -1.40045 -1.41706 -1.42365 -2.06974 -2.07343
12.2025 -1.41877 -1.41257 -1.47851 -1.48639 -2.15916 -2.16278
12.215 -1.42636 -1.41927 -1.53614 -1.54537 -2.23597 -2.23939
12.2275 -1.42856 -1.42055 -1.58867 -1.59932 -2.29957 -2.30279
12.24 -1.42626 -1.41737 -1.63529 -1.6474 -2.35012 -2.35308
12.2525 -1.42073 -1.41093 -1.67553 -1.68908 -2.38814 -2.39075
12.265 -1.41323 -1.40261 -1.70911 -1.72401 -2.41434 -2.41653
12.2775 -1.40493 -1.3936 -1.73572 -1.7518 -2.42931 -2.43111
12.29 -1.39654 -1.38461 -1.75472 -1.77178 -2.43334 -2.4348
12.3025 -1.38825 -1.37589 -1.76526 -1.78307 -2.42645 -2.42758
12.315 -1.38015 -1.36752 -1.76666 -1.78495 -2.40861 -2.40943
12.3275 -1.37255 -1.35985 -1.75876 -1.77724 -2.38014 -2.38072
12.34 -1.36623 -1.35367 -1.7422 -1.76055 -2.34199 -2.34241
12.3525 -1.36241 -1.3502 -1.71844 -1.73636 -2.29575 -2.29607
12.365 -1.36272 -1.35107 -1.6897 -1.70689 -2.24356 -2.24382
12.3775 -1.36843 -1.35755 -1.6582 -1.6744 -2.18739 -2.18764
12.39 -1.37984 -1.36989 -1.62549 -1.64048 -2.12836 -2.12865
12.4025 -1.39635 -1.38746 -1.59251 -1.6061 -2.06686 -2.06721
12.415 -1.41647 -1.40875 -1.55954 -1.57163 -2.00257 -2.00297
12.4275 -1.43805 -1.43152 -1.52627 -1.53684 -1.93455 -1.93497
12.44 -1.45862 -1.45312 -1.4922 -1.50128 -1.86166 -1.86205
12.4525 -1.4758 -1.47104 -1.45676 -1.46459 -1.78286 -1.78313
12.465 -1.48731 -1.48345 -1.41942 -1.42613 -1.69727 -1.69733
12.4775 -1.49153 -1.48838 -1.37979 -1.38554 -1.60422 -1.60398
12.49 -1.48691 -1.48425 -1.33738 -1.3424 -1.50328 -1.50264
12.5025 -1.47189 -1.46965 -1.29158 -1.29622 -1.39414 -1.393
12.515 -1.44508 -1.44301 -1.24147 -1.24603 -1.27633 -1.27458
12.5275 -1.40487 -1.40273 -1.18561 -1.19036 -1.14903 -1.14652
12.54 -1.34979 -1.34733 -1.12223 -1.12745 -1.0112 -1.00798
12.5525 -1.27862 -1.27596 -1.0495 -1.05527 -0.862245 -0.858379
12.565 -1.18978 -1.18685 -0.965426 -0.971997 -0.701562 -0.696828
12.5775 -1.08211 -1.07876 -0.867571 -0.875112 -0.528083 -0.522371
12.59 -0.95434 -0.950445 -0.753483 -0.762153 -0.340646 -0.334024
12.6025 -0.806034 -0.801579 -0.621381 -0.631226 -0.138955 -0.131533
12.615 -0.638705 -0.633627 -0.471113 -0.482146 0.0755331 0.083749
12.6275 -0.456244 -0.450526 -0.304877 -0.317068 0.299124 0.308129
12.64 -0.264655 -0.258347 -0.127029 -0.140271 0.526197 0.535884
12.6525 -0.0709355 -0.0641037 0.0570299 0.0429304 0.750244 0.760438
12.665 0.117732 0.124986 0.241547 0.226832 0.964538 0.975088
12.6775 0.294072 0.301606 0.420415 0.405364 1.16227 1.17305
12.69 0.451433 0.459085 0.587813 0.572749 1.33731 1.34816
12.7025 0.585391 0.592986 0.739751 0.725027 1.48569 1.49643
12.715 0.694373 0.701728 0.874663 0.860636 1.60625 1.61668
12.7275 0.778754 0.785697 0.99252 0.979527 1.69967 1.70959
12.74 0.84004 0.846416 1.09401 1.08235 1.76765 1.77693
12.7525 0.880469 0.886144 1.18019 1.17012 1.81258 1.8211
12.765 0.903172 0.907973 1.25268 1.2444 1.83772 1.84536
12.7775 0.912238 0.916019 1.31378 1.30747 1.84717 1.85385
12.79 0.91234 0.915055 1.36618 1.36192 1.84555 1.85124
12.8025 0.908213 0.90977 1.41272 1.4105 1.83765 1.84235
12.815 0.905 0.905531 1.45622 1.45592 1.8283 1.83205
12.8275 0.907528 0.907077 1.49953 1.50093 1.82215 1.82503
12.84 0.919839 0.918688 1.54521 1.54799 1.82341 1.82553
12.8525 0.945115 0.943533 1.59515 1.59894 1.83535 1.83687
12.865 0.985119 0.983362 1.65033 1.65473 1.85998 1.861
12.8775 1.04014 1.03853 1.71085 1.71543 1.89805 1.89881
12.89 1.10957 1.10846 1.77638 1.78071 1.94955 1.95029
12.9025 1.19242 1.19169 1.84652 1.85038 2.01423 2.01505
12.915 1.28789 1.2876 1.92096 1.92411 2.09157 2.09252
12.9275 1.39426 1.39464 1.9996 2.00171 2.18064 2.18186
12.94 1.50957 1.51078 2.08191 2.08269 2.28004 2.28172
12.9525 1.6312 1.63325 2.16686 2.1662 2.38783 2.39006
12.965 1.7558 1.75876 2.2531 2.25093 2.50145 2.50421
12.9775 1.87995 1.88384 2.33925 2.33554 2.61809 2.62143
12.99 2.00066 2.00541 2.42426 2.41904 2.73531 2.7393
13.0025 2.11547 2.12102 2.50758 2.501 2.85132 2.85592
13.015 2.22259 2.22881 2.58911 2.58139 2.96482 2.96995
13.0275 2.32085 2.32758 2.66919 2.66055 3.07503 3.0806
13.04 2.40967 2.41674 2.74841 2.73915 3.18161 3.18757
13.0525 2.48891 2.49613 2.82745 2.8179 3.28463 3.29089
13.065 2.55873 2.56589 2.9069 2.89741 3.38431 3.39072
13.0775 2.61948 2.62639 2.98723 2.97813 3.48093 3.48739
13.09 2.67193 2.67839 3.06883 3.06047 3.57506 3.58146
13.1025 2.71722 2.72303 3.15215 3.14483 3.66754 3.67378
13.115 2.75642 2.76145 3.23723 3.23122 3.75906 3.76506
13.1275 2.78958 2.7937 3.3228 3.31832 3.84921 3.85489
13.14 2.81549 2.81858 3.40608 3.40331 3.9362 3.94151
13.1525 2.83252 2.83445 3.48362 3.48268 4.01772 4.02264
13.165 2.83924 2.83992 3.55203 3.553 4.09158 4.09613
13.1775 2.83509 2.83451 3.60869 3.61156 4.15638 4.16057
13.19 2.82105 2.81921 3.65243 3.65709 4.21207 4.21596
13.2025 2.79935 2.79631 3.68342 3.6897 4.25985 4.26354
13.215 2.77234 2.76824 3.70207 3.70973 4.301 4.30459
13.2275 2.74129 2.7363 3.70799 3.71671 4.33568 4.33932
13.24 2.70604 2.70035 3.69964 3.70906 4.36269 4.36652
13.2525 2.66591 2.65975 3.6753 3.68504 4.38035 4.38453
13.265 2.62036 2.61394 3.63375 3.64342 4.3872 4.39184
13.2775 2.56846 2.56202 3.57386 3.58305 4.38139 4.38659
13.29 2.50858 2.50232 3.49413 3.50244 4.36036 4.36632
13.3025 2.43871 2.43284 3.39306 3.40013 4.32139 4.32825
13.315 2.35735 2.35202 3.26994 3.27546 4.26227 4.27009
13.3275 2.26391 2.25926 3.12528 3.129 4.18173 4.19054
13.34 2.15892 2.15506 2.96091 2.9626 4.07961 4.08947
13.3525 2.04379 2.04079 2.7797 2.77922 3.95674 3.96767
13.365 1.92014 1.91806 2.58486 2.5821 3.81421 3.82618
13.3775 1.78956 1.78842 2.3796 2.37454 3.65316 3.66609
13.39 1.65391 1.65371 2.16743 2.1601 3.47505 3.48883
13.4025 1.51554 1.51625 1.95232 1.94281 3.28196 3.29648
13.415 1.37712 1.37869 1.73844 1.72689 3.07637 3.09147
13.4275 1.24078 1.24315 1.52932 1.51592 2.86038 2.87586
13.44 1.10765 1.11072 1.32732 1.3123 2.6352 2.65088
13.4525 0.977867 0.981522 1.13358 1.11723 2.40122 2.41687
13.465 0.850929 0.854301 0.948501 0.931252 2.15848 2.17382
13.4775 0.726165 0.729725 0.772111 0.754454 1.90721 1.92193
13.49 0.604122 0.608378 0.604787 0.586733 1.64805 1.662
13.5025 0.485224 0.489312 0.44685 0.428659 1.38202 1.39498
13.515 0.368978 0.373162 0.298207 0.280206 1.11056 1.12233
13.5275 0.256008 0.260254 0.159014 0.141577 0.835374 0.845718
13.54 0.147037 0.151049 0.0293382 0.0126278 0.55829 0.567043
13.5525 0.0418149 0.0456152 -0.0915704 -0.107435 0.28073 0.287778
13.565 -0.0607341 -0.057165 -0.205865 -0.220673 0.00307576 0.0083317
13.5775 -0.162934 -0.159714 -0.317005 -0.330562 -0.275656 -0.272548
13.59 -0.268183 -0.265322 -0.429212 -0.441603 -0.557871 -0.556376
13.6025 -0.380113 -0.377588 -0.547454 -0.558787 -0.84565 -0.845393
13.615 -0.501959 -0.499828 -0.676427 -0.686569 -1.14041 -1.14175
13.6275 -0.635872 -0.634126 -0.819442 -0.828405 -1.44312 -1.44637
13.64 -0.782123 -0.780723 -0.977855 -0.985841 -1.75337 -1.75823
13.6525 -0.938945 -0.937848 -1.1511 -1.15831 -2.06851 -2.07455
13.665 -1.10327 -1.1024 -1.33718 -1.34379 -2.38428 -2.39139
13.6775 -1.27158 -1.27085 -1.53338 -1.53963 -2.69621 -2.70446
13.69 -1.4405 -1.4398 -1.73689 -1.74309 -3.00038 -3.0096
13.7025 -1.60696 -1.60616 -1.94494 -1.95141 -3.29322 -3.30303
13.715 -1.76803 -1.76709 -2.15477 -2.16182 -3.57128 -3.58141
13.7275 -1.92135 -1.91986 -2.36397 -2.37208 -3.83191 -3.84224
13.74 -2.06734 -2.065 -2.57135 -2.58088 -4.0743 -4.08467
13.7525 -2.20751 -2.20412 -2.77761 -2.78884 -4.29983 -4.30997
13.765 -2.34496 -2.34058 -2.98466 -2.99772 -4.51137 -4.52108
13.7775 -2.48368 -2.47819 -3.19468 -3.20976 -4.71242 -4.72156
13.79 -2.62703 -2.62037 -3.40937 -3.42659 -4.90624 -4.91468
13.8025 -2.77757 -2.76983 -3.62971 -3.64908 -5.09551 -5.10312
13.815 -2.93774 -2.92896 -3.85641 -3.87787 -5.28275 -5.28947
13.8275 -3.10972 -3.09997 -4.09009 -4.11354 -5.47049 -5.47629
13.84 -3.29455 -3.28399 -4.33048 -4.35576 -5.66033 -5.66521
13.8525 -3.49128 -3.48004 -4.57551 -4.60239 -5.85201 -5.85598
13.865 -3.69694 -3.68518 -4.82142 -4.84964 -6.04344 -6.04655
13.8775 -3.90746 -3.89535 -5.06361 -5.09292 -6.23157 -6.23388
13.89 -4.11853 -4.10623 -5.29759 -5.32769 -6.41322 -6.41482
13.9025 -4.32659 -4.31425 -5.51988 -5.55051 -6.58605 -6.58703
13.915 -4.52988 -4.51767 -5.72915 -5.76002 -6.7496 -6.75006
13.9275 -4.7289 -4.71695 -5.92652 -5.95738 -6.90567 -6.90571
13.94 -4.9255 -4.91395 -6.11476 -6.14538 -7.05746 -7.05719
13.9525 -5.12176 -5.11072 -6.29709 -6.32725 -7.2084 -7.20792
13.965 -5.31913 -5.30869 -6.4763 -6.50582 -7.36132 -7.36071
13.9775 -5.51771 -5.50793 -6.65398 -6.68275 -7.51767 -7.51701
13.99 -5.71586 -5.70677 -6.83011 -6.85805 -7.67715 -7.67649
14.0025 -5.91063 -5.90222 -7.0034 -7.03049 -7.8381 -7.8375
14.015 -6.09853 -6.09076 -7.17201 -7.1983 -7.99828 -7.99775
14.0275 -6.27604 -6.26882 -7.33395 -7.35955 -8.15527 -8.15484
14.04 -6.43971 -6.43295 -7.48717 -7.51221 -8.30662 -8.30628
14.0525 -6.58619 -6.57973 -7.62945 -7.65413 -8.44981 -8.44954
14.065 -6.7122 -6.7059 -7.75838 -7.78293 -8.58223 -8.582
14.0775 -6.81478 -6.80846 -7.87155 -7.89621 -8.70136 -8.70114
14.09 -6.89162 -6.88508 -7.96678 -7.99182 -8.80509 -8.80485
14.1025 -6.94117 -6.93424 -8.04236 -8.06802 -8.8919 -8.8916
14.115 -6.96248 -6.95499 -8.09674 -8.12326 -8.96056 -8.9602
14.1275 -6.95524 -6.94692 -8.12864 -8.15626 -9.01028 -9.00983
14.14 -6.92052 -6.91114 -8.13774 -8.16667 -9.0413 -9.04075
14.1525 -6.86131 -6.85069 -8.12525 -8.15564 -9.05548 -9.05485
14.165 -6.78211 -6.77013 -8.0936 -8.12549 -9.05588 -9.05522
14.1775 -6.6877 -6.67433 -8.04538 -8.07873 -9.04569 -9.04507
14.19 -6.5824 -6.56767 -7.98259 -8.01728 -9.02743 -9.02694
14.2025 -6.46957 -6.45358 -7.90643 -7.94224 -9.00259 -9.00235
14.215 -6.35151 -6.3344 -7.81717 -7.85382 -8.97155 -8.97169
14.2275 -6.22925 -6.21123 -7.71412 -7.75127 -8.93343 -8.9341
14.24 -6.10231 -6.0836 -7.5954 -7.63266 -8.88585 -8.8872
14.2525 -5.96881 -5.94963 -7.4581 -7.49508 -8.82509 -8.82726
14.265 -5.82617 -5.80675 -7.29902 -7.3353 -8.74678 -8.74991
14.2775 -5.67154 -5.65209 -7.11503 -7.15024 -8.64635 -8.65055
14.29 -5.50203 -5.48274 -6.90335 -6.93712 -8.51922 -8.52461
14.3025 -5.31533 -5.29638 -6.66205 -6.69405 -8.36147 -8.36811
14.315 -5.11044 -5.09196 -6.39078 -6.42074 -8.17065 -8.17868
14.3275 -4.88804 -4.87017 -6.09099 -6.11872 -7.94628 -7.95537
14.34 -4.65029 -4.63313 -5.76597 -5.79132 -7.68891 -7.69892
14.3525 -4.40012 -4.38378 -5.41992 -5.44264 -7.39995 -7.41114
14.365 -4.14053 -4.12509 -5.05712 -5.07709 -7.08142 -7.09386
14.3775 -3.87387 -3.85939 -4.68127 -4.69848 -6.735 -6.74841
14.39 -3.60134 -3.58784 -4.2951 -4.30954 -6.36112 -6.3752
14.4025 -3.32326 -3.31075 -3.90042 -3.91214 -5.95937 -5.97403
14.415 -3.03962 -3.0282 -3.49865 -3.50774 -5.52934 -5.54451
14.4275 -2.75012 -2.74106 -3.09136 -3.0975 -5.07106 -5.08662
14.44 -2.45443 -2.44604 -2.68025 -2.68374 -4.58495 -4.60042
14.4525 -2.15118 -2.14337 -2.2663 -2.26801 -4.0717 -4.08662
14.465 -1.84014 -1.83384 -1.85083 -1.85108 -3.53219 -3.54635
14.4775 -1.52272 -1.5169 -1.43524 -1.43422 -2.96766 -2.9808
14.49 -1.19858 -1.19322 -1.02056 -1.01861 -2.38033 -2.39214
14.5025 -0.869223 -0.864553 -0.608668 -0.606346 -1.77371 -1.78381
14.515 -0.53812 -0.533684 -0.202599 -0.200254 -1.15256 -1.16066
14.5275 -0.2083 -0.204642 0.194716 0.196978 -0.522071 -0.527945
14.54 0.117561 0.120866 0.581529 0.583548 0.113193 0.109662
14.5525 0.4387 0.44183 0.957518 0.958843 0.749624 0.748677
14.565 0.755414 0.758185 1.32361 1.32402 1.38498 1.38712
14.5775 1.069 1.07167 1.68225 1.68178 2.01957 2.02422
14.59 1.38282 1.38544 2.03822 2.03699 2.65405 2.66043
14.6025 1.70111 1.70364 2.39724 2.39494 3.28928 3.29815
14.615 2.02755 2.03006 2.76443 2.76101 3.92706 3.93905
14.6275 2.3652 2.36767 3.144 3.13967 4.56919 4.58385
14.64 2.71598 2.7183 3.53926 3.53422 5.21582 5.23246
14.6525 3.08023 3.08237 3.95198 3.94638 5.86508 5.88363
14.665 3.45713 3.45899 4.38239 4.37644 6.51426 6.53495
14.6775 3.84546 3.84691 4.8301 4.82414 7.16099 7.1836
14.69 4.24433 4.24523 5.2949 5.28931 7.80336 7.82733
14.7025 4.65313 4.65333 5.77658 5.77171 8.43965 8.46493
14.715 5.07109 5.07043 6.27383 6.27022 9.06955 9.09577
14.7275 5.4965 5.49484 6.78503 6.78346 9.69073 9.71555
14.74 5.92713 5.92432 7.30764 7.30797 10.2988 10.3234
14.7525 6.36025 6.35623 7.8381 7.84042 10.8908 10.9162
14.765 6.7937 6.78835 8.37273 8.37741 11.4659 11.4916
14.7775 7.22598 7.21921 8.90874 8.91612 12.0231 12.0479
14.79 7.65656 7.64834 9.44431 9.45445 12.5615 12.5854
14.8025 8.08597 8.07629 9.97828 9.99126 13.0816 13.1048
14.815 8.51548 8.50435 10.5102 10.5261 13.5855 13.608
14.8275 8.94669 8.93349 11.0399 11.059 14.0757 14.097
14.84 9.38181 9.36651 11.5671 11.5895 14.5544 14.5742
14.8525 9.82262 9.80522 12.091 12.1165 15.0232 15.0417
14.865 10.2699 10.2503 12.6103 12.6384 15.483 15.5005
14.8775 10.7464 10.9514 13.1259 13.1274 15.9337 15.9545
14.89 11.188 11.3858 13.6702 13.6196 16.3657 16.4055
14.9025 11.6235 11.8166 14.1892 14.1654 16.7856 16.8155
14.915 12.0481 12.2826 14.6923 14.6728 17.2035 17.234
14.9275 12.4545 12.6859 15.2236 15.205 17.6047 17.6257
14.94 12.8549 13.1125 15.7508 15.716 17.9901 18.017
14.9525 13.234 13.4998 16.2613 16.2352 18.3647 18.3933
14.965 13.6012 13.8842 16.7626 16.7423 18.7364 18.7617
14.9775 13.9513 14.246 17.2643 17.2415 19.1021 19.1221
14.99 14.2817 14.5939 17.7526 17.7303 19.4587 19.4778
15.0025 14.8534 14.9084 18.2293 18.2223 19.8089 19.8246
15.015 15.3023 15.1788 18.702 18.7076 20.1602 20.1631
15.0275 15.3686 15.4853 19.1729 19.1732 20.5029 20.5011
15.04 15.6381 15.7319 19.6435 19.6403 20.8313 20.8369
15.0525 15.9787 15.9433 20.0972 20.1054 21.1619 21.1672
15.065 16.1264 16.1566 20.5363 20.5505 21.503 21.5002
15.0775 16.2774 16.3417 20.9743 20.9821 21.8443 21.8393
15.09 16.4929 16.5025 21.3995 21.4064 22.1841 22.1826
15.1025 16.6437 16.6506 21.8066 21.8164 22.5307 22.5318
15.115 16.748 16.785 22.1989 22.2125 22.8866 22.884
15.1275 16.8746 16.8974 22.5774 22.5921 23.2464 23.2407
15.14 16.9882 16.9928 22.94 22.9541 23.6064 23.6019
15.1525 17.0667 17.0738 23.2827 23.2973 23.9685 23.9665
15.165 17.1344 17.1391 23.6051 23.6222 24.3358 24.3335
15.1775 17.2006 17.191 23.9112 23.9294 24.7083 24.7045
15.19 17.2532 17.2351 24.2037 24.2213 25.0857 25.0825
15.2025 17.2961 17.2758 24.4829 24.501 25.4703 25.4694
15.215 17.3426 17.3153 24.7512 24.7708 25.8649 25.8656
15.2275 17.3926 17.3562 25.0111 25.031 26.2698 26.2709
15.24 17.4411 17.3998 25.2621 25.2815 26.6819 26.6838
15.2525 17.4907 17.4457 25.5019 25.5216 27.0973 27.1014
15.265 17.5429 17.4922 25.7288 25.7489 27.5131 27.5195
15.2775 17.593 17.5371 25.9409 25.961 27.9246 27.9327
15.29 17.6372 17.5779 26.1356 26.1613 28.3264 28.3347
15.3025 17.6752 17.612 26.31 26.343 28.7142 28.7219
15.315 17.7068 17.64 26.4619 26.4974 29.085 29.0937
15.3275 17.7197 17.6322 26.6138 26.8078 29.4378 29.4293
15.34 17.7152 17.535 26.7509 27.0098 29.7983 29.7402
15.3525 17.7093 17.613 26.8324 27.0051 30.1553 30.12
15.365 17.6666 17.5302 26.9161 27.1473 30.477 30.4519
15.3775 17.6231 17.4657 26.99 27.2455 30.8059 30.7791
15.39 17.5686 17.4228 27.0464 27.2723 31.1451 31.1141
15.4025 17.4911 17.3292 27.0945 27.3531 31.4671 31.4265
15.415 17.4127 17.2411 27.13 27.399 31.7774 31.7398
15.4275 17.3316 17.1561 27.157 27.4242 32.0862 32.0488
15.44 17.2402 17.0529 27.178 27.4625 32.3925 32.3435
15.4525 17.1476 16.9574 27.1897 27.4816 32.69 32.6349
15.465 17.0552 16.8658 27.1943 27.4878 32.975 32.9235
15.4775 16.9576 16.7632 27.192 27.4933 33.2492 33.1998
15.49 16.8329 16.6593 27.2398 27.4898 33.5164 33.4647
15.5025 16.581 16.5508 27.5248 27.4582 33.762 33.7357
15.515 16.4463 16.427 27.5912 27.4321 34.0018 34.0167
15.5275 16.3669 16.2716 27.3888 27.4421 34.2775 34.2918
15.54 16.2083 16.1097 27.2816 27.4469 34.5886 34.5606
15.5525 16.0086 15.956 27.3935 27.4211 34.8794 34.845
15.565 15.8266 15.7933 27.4848 27.4003 35.1347 35.1472
15.5775 15.6617 15.6184 27.4171 27.4038 35.4095 35.45
15.59 15.5053 15.4422 27.3313 27.4081 35.7356 35.7475
15.6025 15.3364 15.2679 27.3492 27.3996 36.0751 36.064
15.615 15.1428 15.1017 27.397 27.3647 36.3858 36.4125
15.6275 14.9523 14.9267 27.3844 27.3597 36.6817 36.7432
15.64 14.7809 14.7229 27.3304 27.3527 37.0111 37.0772
15.6525 14.5987 14.5404 27.2947 27.32 37.3684 37.4133
15.665 14.3893 14.3463 27.2798 27.2743 37.7131 37.7562
15.6775 14.1792 14.139 27.2438 27.2303 38.0384 38.1006
15.69 13.9793 13.9305 27.1718 27.1702 38.3719 38.4471
15.7025 13.7724 13.721 27.0887 27.0982 38.725 38.7888
15.715 13.5534 13.5043 27.014 27.0199 39.0774 39.1288
15.7275 13.3337 13.2875 26.9366 26.9309 39.4134 39.4735
15.74 13.1178 13.0719 26.84 26.8316 39.7436 39.8198
15.7525 12.9018 12.8528 26.729 26.7256 40.082 40.1591
15.765 12.6819 12.6308 26.6143 26.609 40.4221 40.4908
15.7775 12.4623 12.4086 26.4807 26.4752 40.7834 40.8239
15.79 12.247 12.1861 26.3139 26.3334 41.1592 41.1332
15.8025 12.0199 11.9547 26.1555 26.1911 41.479 41.4563
15.815 11.788 11.7282 26.0116 26.0285 41.7661 41.7872
15.8275 11.5589 11.504 25.8534 25.8441 42.0737 42.1113
15.84 11.333 11.2777 25.6599 25.6576 42.406 42.4205
15.8525 11.1091 11.0494 25.4452 25.4676 42.729 42.7227
15.865 10.8861 10.8255 25.2363 25.2609 43.025 43.0278
15.8775 10.6635 10.6079 25.0368 25.0422 43.3084 43.3303
15.89 10.4453 10.3929 24.8278 24.8231 43.597 43.6227
15.9025 10.236 10.1823 24.5983 24.6021 43.8894 43.9054
15.915 10.0335 9.97836 24.3598 24.3734 44.1717 44.1821
15.9275 9.83282 9.77923 24.1276 24.1387 44.4358 44.451
15.94 9.63372 9.58303 23.8997 23.9013 44.6848 44.7075
15.9525 9.43937 9.39027 23.6634 23.6601 44.9242 44.9496
15.965 9.25113 9.20234 23.4155 23.4156 45.154 45.177
15.9775 9.0686 9.02002 23.1668 23.1717 45.3696 45.3905
15.99 8.89275 8.84532 22.928 22.9311 45.5688 45.5914
16.0025 8.72703 8.68153 22.6991 22.6958 45.7544 45.7814
16.0125 8.60407 8.55972 22.5202 22.5138 45.8962 45.9257
16.0225 8.4905 8.44682 22.3453 22.3399 46.0333 46.063
16.0325 8.38627 8.34308 22.1776 22.1747 46.1647 46.1932
16.0425 8.2908 8.24829 22.0201 22.0177 46.2883 46.3161
16.0525 8.20319 8.16172 21.8735 21.8686 46.4018 46.4309
16.0625 8.12235 8.08209 21.7356 21.7273 46.5042 46.5358
16.0725 8.04703 8.00775 21.6035 21.5935 46.5951 46.6288
16.0825 7.97568 7.93703 21.4758 21.466 46.6734 46.7075
16.0925 7.90641 7.86821 21.3523 21.3435 46.7368 46.7702
16.1025 7.83725 7.79955 21.2333 21.2245 46.7824 46.8153
16.1125 7.76646 7.72937 21.1182 21.1081 46.8074 46.8409
16.1225 7.69269 7.65619 21.0049 20.9933 46.8104 46.8453
16.1325 7.61486 7.57874 20.8914 20.8791 46.7908 46.8269
16.1425 7.53196 7.49601 20.7764 20.7643 46.7479 46.7843
16.1525 7.44312 7.40715 20.6597 20.6484 46.6807 46.7164
16.1625 7.34764 7.31159 20.5411 20.5303 46.5873 46.6224
16.1725 7.24514 7.20896 20.4202 20.4095 46.4667 46.5019
16.1825 7.13551 7.09921 20.2959 20.2851 46.3188 46.3546
16.1925 7.01893 6.98263 20.167 20.1568 46.1441 46.1801
16.2025 6.89585 6.86122 20.0326 20.0231 45.9431 45.9782
16.2125 6.76787 6.73351 19.892 19.8825 45.7154 45.7493
16.2225 6.63394 6.59807 19.7449 19.7367 45.4607 45.4934
16.2325 6.49268 6.45584 19.5912 19.5851 45.1797 45.2111
16.2425 6.34506 6.30849 19.4312 19.4268 44.8737 44.9018
16.2525 6.19311 6.1563 19.2653 19.2627 44.5439 44.5682
16.2625 6.03819 6.00002 19.0934 19.0922 44.1908 44.212
16.2725 5.88068 5.84206 18.9159 18.9159 43.8141 43.8348
16.2825 5.72205 5.68367 18.7336 18.7342 43.4164 43.4385
16.2925 5.56505 5.52673 18.5474 18.5486 43.0019 43.0245
16.3025 5.41276 5.37401 18.3586 18.3609 42.5742 42.5953
16.3125 5.26812 5.22877 18.1695 18.1731 42.136 42.1547
16.3225 5.13424 5.09464 17.9828 17.9879 41.6895 41.7065
16.3325 5.01441 4.97479 17.8015 17.8075 41.2377 41.2543
16.3425 4.91163 4.87201 17.6275 17.6341 40.7842 40.801
16.3525 4.82819 4.78857 17.4622 17.4692 40.3323 40.3488
16.3625 4.76574 4.72618 17.3063 17.3139 39.8842 39.8996
16.3725 4.72581 4.68654 17.1606 17.1689 39.4409 39.455
16.3825 4.70975 4.67084 17.0258 17.0343 39.0032 39.0166
16.3925 4.71769 4.67917 16.9025 16.9107 38.5718 38.5852
16.4025 4.74881 4.711 16.7906 16.7983 38.1471 38.1606
16.4125 4.80167 4.76485 16.6892 16.6962 37.7287 37.742
16.4225 4.87407 4.83832 16.5968 16.603 37.315 37.328
16.4325 4.96299 4.92833 16.5118 16.5169 36.9037 36.9164
16.4425 5.06502 5.03158 16.4323 16.4363 36.4923 36.505
16.4525 5.17685 5.14479 16.3566 16.3593 36.0786 36.0916
16.4625 5.29534 5.26472 16.2833 16.2846 35.6608 35.674
16.4725 5.41747 5.38826 16.211 16.2108 35.237 35.2502
16.4825 5.54036 5.51253 16.1385 16.137 34.8054 34.8186
16.4925 5.66138 5.63492 16.0649 16.0621 34.3646 34.3776
16.5025 5.7783 5.75316 15.9896 15.9857 33.9133 33.9263
16.5125 5.88952 5.8656 15.9128 15.9078 33.4512 33.4641
16.5225 5.99404 5.97125 15.8346 15.8287 32.9785 32.9912
16.5325 6.09141 6.06964 15.7559 15.7492 32.4958 32.5081
16.5425 6.18163 6.16076 15.6777 15.6705 32.0041 32.0159
16.5525 6.26502 6.24489 15.6011 15.5937 31.5048 31.516
16.5625 6.34212 6.32259 15.5275 15.5201 30.9995 31.0099
16.5725 6.41365 6.3946 15.4582 15.4508 30.4898 30.4995
16.5825 6.48043 6.46171 15.3942 15.3871 29.9777 29.9864
16.5925 6.54314 6.5246 15.3363 15.3298 29.4647 29.4724
16.6025 6.60218 6.58367 15.285 15.2792 28.9523 28.9587
16.6125 6.65779 6.63919 15.2403 15.2356 28.4417 28.4468
16.6225 6.71033 6.69152 15.2025 15.1989 27.9342 27.9378
16.6325 6.76047 6.74134 15.1717 15.1693 27.4313 27.4335
16.6425 6.80911 6.78957 15.1481 15.1473 26.935 26.9356
16.6525 6.85722 6.83715 15.1322 15.1329 26.4472 26.4461
16.6625 6.90565 6.88498 15.1239 15.1262 25.9694 25.9667
16.6725 6.95499 6.9334 15.1231 15.1264 25.5036 25.4993
16.6825 7.00516 6.98283 15.1276 15.13 25.0512 25.0463
16.6925 7.05716 7.03567 15.1368 15.1402 24.6135 24.608
16.7025 7.11155 7.08931 15.1526 15.1598 24.1906 24.1831
16.7125 7.16763 7.14337 15.1758 15.1861 23.7828 23.7729
16.7225 7.2241 7.19896 15.2049 15.2151 23.3897 23.3784
16.7325 7.28034 7.25559 15.2373 15.2463 23.0112 22.9997
16.7425 7.33618 7.3112 15.2706 15.2803 22.6476 22.6358
16.7525 7.39082 7.3648 15.3033 15.3158 22.299 22.2859
16.7625 7.44229 7.41522 15.3343 15.3491 21.9647 21.9497
16.7725 7.4883 7.46082 15.3619 15.3774 21.6428 21.6261
16.7825 7.52696 7.49933 15.3836 15.3992 21.3312 21.3137
16.7925 7.55672 7.52868 15.3964 15.4127 21.0287 21.0107
16.8025 7.57591 7.54736 15.3976 15.4149 20.7346 20.7162
16.8125 7.58295 7.55408 15.3852 15.4038 20.4484 20.4292
16.8225 7.57679 7.54779 15.3584 15.378 20.1693 20.1488
16.8325 7.55723 7.5281 15.3168 15.3371 19.8968 19.8752
16.8425 7.52482 7.4956 15.2601 15.2809 19.6313 19.6092
16.8525 7.4806 7.45144 15.1884 15.2095 19.3742 19.3521
16.8625 7.42582 7.39683 15.1023 15.1237 19.1271 19.1049
16.8725 7.36173 7.33288 15.0026 15.0246 18.8914 18.8688
16.8825 7.28936 7.26063 14.89 14.9126 18.668 18.6448
16.8925 7.2095 7.18098 14.7652 14.7878 18.4573 18.4338
16.9025 7.12287 7.0947 14.6285 14.6509 18.2597 18.2364
16.9125 7.03019 7.00237 14.4802 14.5021 18.0761 18.0532
16.9225 6.93233 6.90496 14.3206 14.3421 17.9072 17.8847
16.9325 6.83024 6.80336 14.1511 14.1722 17.7535 17.7311
16.9425 6.725 6.69859 13.9732 13.9937 17.615 17.5932
16.9525 6.61782 6.59214 13.7889 13.808 17.4922 17.4717
16.9625 6.51003 6.48533 13.5997 13.6171 17.3859 17.3672
16.9725 6.40294 6.37929 13.4075 13.4229 17.2967 17.28
16.9825 6.29753 6.27494 13.2137 13.2272 17.2249 17.21
16.9925 6.19408 6.17262 13.0199 13.0314 17.1697 17.1565
17.0025 6.09198 6.07176 12.8268 12.836 17.1291 17.1181
17.0125 5.98976 5.97076 12.6343 12.6409 17.1006 17.0922
17.0225 5.88547 5.86636 12.4414 12.4459 17.0813 17.0754
17.0325 5.77701 5.75722 12.2472 12.2502 17.0679 17.0643
17.0425 5.66207 5.64231 12.0503 12.0516 17.057 17.0555
17.0525 5.53847 5.51936 11.8498 11.8488 17.0462 17.0487
17.0625 5.405 5.38691 11.6432 11.64 17.0351 17.0394
17.0725 5.26016 5.24313 11.4304 11.427 17.0207 17.023
17.0825 5.10321 5.08633 11.2137 11.2126 16.9988 16.9994
17.0925 4.93387 4.91658 10.9945 10.9934 16.9674 16.9685
17.1025 4.75284 4.73664 10.7717 10.7672 16.9279 16.9324
17.1125 4.5618 4.54799 10.5446 10.537 16.8827 16.8904
17.1225 4.36283 4.35005 10.3139 10.3066 16.8338 16.8418
17.1325 4.15763 4.14498 10.0818 10.0768 16.7814 16.7879
17.1425 3.94725 3.93532 9.85072 9.84642 16.7249 16.7305
17.1525 3.73281 3.72238 9.62191 9.616 16.6638 16.6706
17.1625 3.51589 3.50702 9.39538 9.38784 16.599 16.6079
17.1725 3.29815 3.29025 9.17065 9.16285 16.5321 16.5423
17.1825 3.08088 3.07373 8.94781 8.94055 16.4641 16.4745
17.1925 2.86525 2.85914 8.72793 8.72111 16.3955 16.4053
17.2025 2.65273 2.64776 8.51254 8.50582 16.3257 16.3354
17.2125 2.44514 2.44116 8.30279 8.29585 16.2553 16.2656
17.2225 2.2443 2.24126 8.09918 8.09174 16.1855 16.1969
17.2325 2.05173 2.04968 7.90188 7.89396 16.1177 16.1301
17.2425 1.86862 1.86752 7.71118 7.70322 16.0526 16.0652
17.2525 1.69589 1.69554 7.5276 7.52 15.9901 16.0026
17.2625 1.53422 1.53452 7.35167 7.34422 15.9299 15.9423
17.2725 1.38406 1.3851 7.18353 7.17569 15.8715 15.8845
17.2825 1.24582 1.24762 7.02298 7.01449 15.815 15.8289
17.2925 1.11976 1.12222 6.86966 6.86073 15.7605 15.7751
17.3025 1.00587 1.00883 6.72325 6.71416 15.7075 15.7224
17.3125 0.903834 0.907227 6.58351 6.57428 15.6552 15.6703
17.3225 0.813067 0.8169 6.45011 6.44053 15.6026 15.6179
17.3325 0.732781 0.737044 6.32249 6.31235 15.5483 15.5642
17.3425 0.662109 0.666826 6.19985 6.18908 15.4915 15.508
17.3525 0.600216 0.605458 6.0815 6.07008 15.4311 15.4483
17.3625 0.54641 0.552214 5.96707 5.95502 15.3665 15.3841
17.3725 0.500167 0.506567 5.85653 5.8439 15.2969 15.3148
17.3825 0.460969 0.467984 5.74995 5.73667 15.2215 15.2399
17.3925 0.428167 0.435828 5.64724 5.63319 15.1397 15.1586
17.4025 0.400935 0.409278 5.5481 5.5332 15.0507 15.0702
17.4125 0.378348 0.38737 5.45211 5.43641 14.9537 14.9736
17.4225 0.35948 0.369149 5.35891 5.34254 14.8478 14.868
17.4325 0.343489 0.353779 5.26832 5.25133 14.7322 14.7527
17.4425 0.329634 0.340528 5.18022 5.16259 14.6062 14.6271
17.4525 0.317288 0.328755 5.09438 5.0761 14.4696 14.4909
17.4625 0.30591 0.317911 5.01059 4.99176 14.3221 14.3435
17.4725 0.29505 0.307506 4.92876 4.90963 14.1636 14.1848
17.4825 0.284435 0.297254 4.84906 4.82989 13.9939 14.0142
17.4925 0.273971 0.287016 4.77202 4.75322 13.8129 13.832
17.5025 0.263623 0.276822 4.6983 4.67954 13.6201 13.639
17.5125 0.253438 0.267008 4.62806 4.6088 13.416 13.4354
17.5225 0.243455 0.257323 4.56085 4.54129 13.2015 13.2213
17.5325 0.233613 0.247523 4.49623 4.47698 12.9772 12.9966
17.5425 0.223729 0.237543 4.43402 4.41547 12.7431 12.7614
17.5525 0.213595 0.227303 4.37424 4.35638 12.499 12.5162
17.5625 0.203145 0.216763 4.31683 4.2995 12.2448 12.2614
17.5725 0.192517 0.206012 4.26144 4.24461 11.9812 11.9975
17.5825 0.181958 0.195266 4.20765 4.19146 11.7091 11.7248
17.5925 0.171679 0.184717 4.15507 4.13979 11.4293 11.444
17.6025 0.16181 0.174515 4.10346 4.08926 11.1422 11.1557
17.6125 0.152413 0.164777 4.05253 4.03939 10.8482 10.8605
17.6225 0.143517 0.155567 4.00181 3.98962 10.5476 10.559
17.6325 0.135147 0.146894 3.95068 3.9394 10.241 10.2516
17.6425 0.127325 0.138757 3.89845 3.88815 9.92918 9.93881
17.6525 0.120082 0.131187 3.84454 3.8353 9.61259 9.62109
17.6625 0.113466 0.124263 3.78853 3.78034 9.29177 9.29908
17.6725 0.107579 0.118114 3.73007 3.72284 8.96721 8.97345
17.6825 0.102564 0.112897 3.66884 3.66244 8.63957 8.6449
17.6925 0.0985375 0.108722 3.60443 3.59879 8.30954 8.31404
17.7025 0.0955061 0.105585 3.53643 3.5315 7.97774 7.98138
17.7125 0.0933581 0.103382 3.46441 3.46014 7.64461 7.64735
17.7225 0.0919719 0.102007 3.38805 3.38434 7.31051 7.31241
17.7325 0.0913733 0.101501 3.30725 3.30397 6.97596 6.97714
17.7425 0.0917792 0.102083 3.22213 3.21913 6.6417 6.6423
17.7525 0.0934739 0.104032 3.13293 3.13009 6.30856 6.30866
17.7625 0.0965604 0.107441 3.0398 3.03702 5.97721 5.97684
17.7725 0.100766 0.112037 2.94265 2.93984 5.6479 5.64709
17.7825 0.10542 0.117198 2.84113 2.83822 5.32049 5.31933
17.7925 0.109575 0.122097 2.73458 2.73175 4.99472 4.99323
17.8025 0.111636 0.125648 2.62488 2.61972 4.67008 4.66842
17.8125 0.110476 0.126967 2.51312 2.50146 4.34574 4.34476
17.8225 0.106153 0.124853 2.39625 2.37892 4.02135 4.0217
17.8325 0.0977987 0.1167 2.2712 2.25517 3.69732 3.69742
17.8425 0.0840494 0.102269 2.13759 2.12389 3.3745 3.37343
17.8525 0.0636342 0.0803688 1.99764 1.98492 3.05255 3.05037
17.8625 0.0356175 0.0508 1.85275 1.84082 2.73027 2.72631
17.8725 -0.000554352 0.013096 1.70169 1.68896 2.40723 2.40279
17.8825 -0.0450199 -0.0320661 1.54309 1.52959 2.08419 2.08038
17.8925 -0.0973645 -0.0849726 1.37768 1.36531 1.76297 1.75907
17.9025 -0.157286 -0.145121 1.208 1.197 1.44563 1.44075
17.9125 -0.223305 -0.209704 1.0367 1.02572 1.1336 1.12762
17.9225 -0.292539 -0.277646 0.865145 0.853265 0.82793 0.821501
17.9325 -0.363638 -0.348704 0.693899 0.681452 0.529944 0.523747
17.9425 -0.437461 -0.421783 0.5253 0.511341 0.241068 0.235166
17.9525 -0.511836 -0.496669 0.360128 0.344293 -0.0378187 -0.0436689
17.9625 -0.585465 -0.574954 0.196479 0.179662 -0.30631 -0.312985
17.9725 -0.662441 -0.655592 0.0330905 0.0165585 -0.564265 -0.571557
17.9825 -0.744367 -0.738268 -0.128924 -0.144638 -0.811795 -0.819899
17.9925 -0.829129 -0.822771 -0.288144 -0.304073 -1.04885 -1.05737
18.0025 -0.916191 -0.908594 -0.444395 -0.46196 -1.27525 -1.28368
18.0125 -1.00729 -0.999576 -0.598267 -0.616903 -1.49072 -1.49896
18.0225 -1.10261 -1.09353 -0.750291 -0.769157 -1.6949 -1.70326
18.0325 -1.20138 -1.19182 -0.899883 -0.918696 -1.88762 -1.89614
18.0425 -1.30332 -1.29394 -1.04627 -1.06521 -2.06895 -2.0779
18.0525 -1.40896 -1.39974 -1.18932 -1.20875 -2.23888 -2.24795
18.0625 -1.51801 -1.50862 -1.3291 -1.34881 -2.39713 -2.4061
18.0725 -1.62944 -1.61953 -1.46537 -1.48505 -2.54314 -2.55194
18.0825 -1.74267 -1.73273 -1.59755 -1.61711 -2.67644 -2.68516
18.0925 -1.85739 -1.84742 -1.72528 -1.74476 -2.79693 -2.80582
18.1025 -1.97334 -1.96333 -1.8487 -1.86823 -2.90494 -2.91382
18.1125 -2.09018 -2.08023 -1.96814 -1.98755 -3.00087 -3.00947
18.1225 -2.20762 -2.19791 -2.08393 -2.10307 -3.08505 -3.0932
18.1325 -2.32567 -2.31627 -2.19643 -2.21525 -3.1579 -3.16563
18.1425 -2.44447 -2.43538 -2.30627 -2.3248 -3.22027 -3.22767
18.1525 -2.56434 -2.55561 -2.41449 -2.43275 -3.27347 -3.2805
18.1625 -2.68594 -2.67765 -2.52248 -2.54042 -3.31922 -3.32573
18.1725 -2.81009 -2.80226 -2.63169 -2.64929 -3.35929 -3.36512
18.1825 -2.93733 -2.92995 -2.7433 -2.76058 -3.39521 -3.4003
18.1925 -3.06768 -3.06074 -2.85802 -2.87505 -3.42809 -3.43244
18.2025 -3.20058 -3.19407 -2.97603 -2.99286 -3.45861 -3.4622
18.2125 -3.33501 -3.32889 -3.09699 -3.11367 -3.48702 -3.48976
18.2225 -3.46957 -3.46378 -3.22013 -3.23673 -3.51322 -3.51501
18.2325 -3.60225 -3.59712 -3.34446 -3.3611 -3.53693 -3.53768
18.2425 -3.73104 -3.72752 -3.46891 -3.4857 -3.55785 -3.55756
18.2525 -3.85564 -3.85346 -3.59244 -3.60948 -3.5758 -3.57447
18.2625 -3.97498 -3.9735 -3.71405 -3.73148 -3.59075 -3.58833
18.2725 -4.08719 -4.08593 -3.8327 -3.8507 -3.60275 -3.59918
18.2825 -4.19124 -4.19001 -3.94729 -3.96628 -3.61188 -3.60703
18.2925 -4.28656 -4.28516 -4.0567 -4.07672 -3.61817 -3.61206
18.3025 -4.37212 -4.37036 -4.15989 -4.18106 -3.62161 -3.61425
18.3125 -4.44691 -4.44477 -4.25574 -4.27783 -3.62229 -3.61381
18.3225 -4.5103 -4.508 -4.34332 -4.36634 -3.62046 -3.61093
18.3325 -4.56228 -4.55965 -4.42203 -4.44611 -3.61614 -3.60489
18.3425 -4.60292 -4.59976 -4.49183 -4.51689 -3.60865 -3.59661
18.3525 -4.63242 -4.62873 -4.55238 -4.57794 -3.59897 -3.58808
18.3625 -4.65129 -4.64716 -4.60354 -4.62979 -3.58899 -3.57865
18.3725 -4.66052 -4.65581 -4.64543 -4.67269 -3.58029 -3.56923
18.3825 -4.6612 -4.65583 -4.67865 -4.70697 -3.57342 -3.56103
18.3925 -4.65454 -4.64853 -4.70411 -4.73338 -3.56866 -3.55535
18.4025 -4.64214 -4.63554 -4.72276 -4.75275 -3.56697 -3.55376
18.4125 -4.62569 -4.6185 -4.7355 -4.76612 -3.57018 -3.55752
18.4225 -4.60678 -4.59903 -4.74323 -4.7745 -3.58017 -3.56772
18.4325 -4.5868 -4.57855 -4.74683 -4.77871 -3.59817 -3.5853
18.4425 -4.56706 -4.5584 -4.74727 -4.77961 -3.62463 -3.61139
18.4525 -4.54886 -4.53986 -4.74544 -4.77798 -3.66002 -3.64701
18.4625 -4.53327 -4.52403 -4.74213 -4.77472 -3.70509 -3.69271
18.4725 -4.52104 -4.51167 -4.73785 -4.77035 -3.76045 -3.74879
18.4825 -4.51242 -4.50302 -4.73283 -4.76505 -3.82612 -3.81497
18.4925 -4.50719 -4.4979 -4.72699 -4.75874 -3.90136 -3.89068
18.5025 -4.5049 -4.49584 -4.72016 -4.75121 -3.98509 -3.97508
18.5125 -4.50495 -4.49622 -4.71207 -4.74225 -4.07615 -4.06711
18.5225 -4.50662 -4.49829 -4.70249 -4.73164 -4.17348 -4.1656
18.5325 -4.50915 -4.5013 -4.69125 -4.71926 -4.27604 -4.26928
18.5425 -4.51183 -4.50451 -4.6783 -4.70508 -4.38268 -4.37697
18.5525 -4.51404 -4.50728 -4.66374 -4.68923 -4.49223 -4.48759
18.5625 -4.51529 -4.50909 -4.64784 -4.672 -4.60363 -4.60018
18.5725 -4.51527 -4.50963 -4.63105 -4.65388 -4.71607 -4.71391
18.5825 -4.51382 -4.5087 -4.61394 -4.63547 -4.82894 -4.82806
18.5925 -4.51081 -4.50617 -4.59709 -4.61739 -4.94161 -4.94193
18.6025 -4.50604 -4.50182 -4.58096 -4.60014 -5.05332 -5.05475
18.6125 -4.4992 -4.49531 -4.56581 -4.58397 -5.16308 -5.16561
18.6225 -4.48977 -4.48613 -4.55163 -4.56892 -5.26979 -5.27339
18.6325 -4.47721 -4.47369 -4.53823 -4.55481 -5.37225 -5.37688
18.6425 -4.46096 -4.45747 -4.52533 -4.54137 -5.4693 -5.47486
18.6525 -4.44066 -4.43706 -4.51268 -4.52837 -5.55989 -5.56626
18.6625 -4.41607 -4.41225 -4.50002 -4.51557 -5.64306 -5.65013
18.6725 -4.38695 -4.38278 -4.48695 -4.50254 -5.71782 -5.72552
18.6825 -4.35287 -4.34823 -4.47275 -4.48857 -5.78298 -5.79123
18.6925 -4.31319 -4.30797 -4.45632 -4.47254 -5.83716 -5.84586
18.7025 -4.26718 -4.26128 -4.43645 -4.45329 -5.87889 -5.88792
18.7125 -4.21423 -4.20761 -4.41207 -4.42955 -5.90684 -5.91605
18.7225 -4.15418 -4.14676 -4.38204 -4.40009 -5.92 -5.92937
18.7325 -4.08719 -4.07887 -4.34542 -4.36428 -5.91778 -5.92724
18.7425 -4.01388 -4.00464 -4.30189 -4.32176 -5.90011 -5.90956
18.7525 -3.93554 -3.92536 -4.25185 -4.27274 -5.86756 -5.87692
18.7625 -3.85399 -3.8429 -4.1962 -4.218 -5.82127 -5.83047
18.7725 -3.77129 -3.75934 -4.13591 -4.15854 -5.76263 -5.77169
18.7825 -3.68941 -3.67668 -4.07191 -4.09535 -5.69309 -5.70197
18.7925 -3.6102 -3.59678 -4.00516 -4.02937 -5.61408 -5.62269
18.8025 -3.53534 -3.52138 -3.93666 -3.96148 -5.5269 -5.53518
18.8125 -3.46632 -3.45196 -3.8673 -3.89252 -5.43274 -5.44068
18.8225 -3.40432 -3.38973 -3.79781 -3.82324 -5.33262 -5.34025
18.8325 -3.35005 -3.33542 -3.72864 -3.75406 -5.2273 -5.23463
18.8425 -3.30367 -3.2892 -3.65987 -3.68506 -5.11709 -5.12412
18.8525 -3.26479 -3.25066 -3.59121 -3.61596 -5.00191 -5.0086
18.8625 -3.23253 -3.21891 -3.52209 -3.54618 -4.88128 -4.88764
18.8725 -3.20561 -3.19266 -3.4517 -3.47496 -4.75447 -4.76049
18.8825 -3.18248 -3.17033 -3.37915 -3.4014 -4.62058 -4.62629
18.8925 -3.16164 -3.1504 -3.30369 -3.3248 -4.47891 -4.48427
18.9025 -3.1418 -3.13157 -3.22491 -3.24479 -4.32902 -4.33401
18.9125 -3.12192 -3.11276 -3.14275 -3.16133 -4.17082 -4.1754
18.9225 -3.10098 -3.09292 -3.05718 -3.07442 -4.00427 -4.0084
18.9325 -3.07773 -3.07078 -2.968 -2.98389 -3.82915 -3.83279
18.9425 -3.05068 -3.04481 -2.87473 -2.88933 -3.64506 -3.64816
18.9525 -3.01823 -3.01341 -2.77677 -2.79015 -3.45149 -3.45399
18.9625 -2.97891 -2.97505 -2.67355 -2.68581 -3.24806 -3.24988
18.9725 -2.93149 -2.92849 -2.56466 -2.57595 -3.0346 -3.03567
18.9825 -2.87488 -2.87088 -2.44988 -2.46048 -2.81126 -2.81148
18.9925 -2.80841 -2.80043 -2.32889 -2.34 -2.57846 -2.57753
19.0025 -2.73245 -2.72189 -2.20153 -2.21329 -2.33706 -2.33484
19.0125 -2.64521 -2.63356 -2.06848 -2.08073 -2.08801 -2.08453
19.0225 -2.54601 -2.53602 -1.9301 -1.94285 -1.83238 -1.82769
19.0325 -2.4391 -2.43041 -1.78636 -1.79952 -1.57117 -1.56484
19.0425 -2.32608 -2.31625 -1.63782 -1.65165 -1.30402 -1.29622
19.0525 -2.20588 -2.19509 -1.48467 -1.49892 -1.03212 -1.02544
19.0625 -2.07892 -2.0688 -1.32731 -1.34144 -0.758182 -0.752412
19.0725 -1.94822 -1.93889 -1.16651 -1.17952 -0.484885 -0.478967
19.0825 -1.81637 -1.80724 -1.00365 -1.01587 -0.213647 -0.206716
19.0925 -1.68444 -1.67502 -0.840079 -0.852015 0.0549527 0.0629839
19.1025 -1.55351 -1.545 -0.676536 -0.68772 0.320179 0.328177
19.1125 -1.42531 -1.41961 -0.512914 -0.522103 0.580915 0.587834
19.1225 -1.30206 -1.2966 -0.347926 -0.356282 0.836069 0.84203
19.1325 -1.18238 -1.17515 -0.181414 -0.191775 1.08528 1.09187
19.1425 -1.06426 -1.05625 -0.0144113 -0.0269312 1.3291 1.33718
19.1525 -0.947748 -0.940773 0.152257 0.139946 1.56865 1.57742
19.1625 -0.833966 -0.828133 0.319113 0.308448 1.80468 1.81289
19.1725 -0.723386 -0.71761 0.487512 0.477726 2.03689 2.044
19.1825 -0.615852 -0.609844 0.658115 0.647902 2.26431 2.27084
19.1925 -0.511365 -0.505663 0.830252 0.819413 2.48647 2.49325
19.2025 -0.410214 -0.405084 1.00279 0.992039 2.70382 2.71116
19.2125 -0.312605 -0.307913 1.17531 1.16529 2.91718 2.92458
19.2225 -0.218652 -0.214427 1.34822 1.33913 3.12695 3.1336
19.2325 -0.128483 -0.124887 1.52203 1.51375 3.33292 3.33849
19.2425 -0.0420007 -0.0389667 1.69669 1.68887 3.53493 3.53992
19.2525 0.0411082 0.0436415 1.87158 1.86413 3.73342 3.73835
19.2625 0.121166 0.123049 2.04619 2.03958 3.92929 3.93396
19.2725 0.198371 0.199386 2.22034 2.21509 4.12326 4.12703
19.2825 0.272949 0.272987 2.39408 2.39013 4.31555 4.31819
19.2925 0.345288 0.344141 2.56723 2.56425 4.50623 4.50803
19.3025 0.415177 0.412982 2.73894 2.73603 4.69571 4.69727
19.3125 0.48284 0.480478 2.90826 2.90549 4.88469 4.88635
19.3225 0.549098 0.546432 3.07586 3.07448 5.07373 5.075
19.3325 0.614489 0.610598 3.24254 3.24296 5.26327 5.26361
19.3425 0.678869 0.673991 3.40825 3.40936 5.45341 5.45294
19.3525 0.7419 0.736686 3.57201 3.57281 5.64392 5.6432
19.3625 0.803333 0.797773 3.73245 3.73339 5.83438 5.83368
19.3725 0.862734 0.856422 3.88836 3.89045 6.02445 6.02354
19.3825 0.919357 0.912157 4.039 4.0423 6.21372 6.21229
19.3925 0.972544 0.96476 4.18397 4.18783 6.40167 6.39967
19.4025 1.022 1.01386 4.32278 4.3268 6.5877 6.58542
19.4125 1.06763 1.05902 4.45464 4.4589 6.77144 6.76917
19.4225 1.10927 1.10009 4.57863 4.58333 6.95293 6.95072
19.4325 1.14672 1.13701 4.694 4.69934 7.13256 7.12992
19.4425 1.17991 1.16978 4.80067 4.80668 7.31018 7.30687
19.4525 1.20891 1.19843 4.89887 4.90538 7.48525 7.48135
19.4625 1.23386 1.22304 4.98877 4.99557 7.65751 7.6536
19.4725 1.25499 1.24387 5.07025 5.07704 7.82731 7.82378
19.4825 1.2726 1.26131 5.14311 5.14974 7.99527 7.99213
19.4925 1.28713 1.27574 5.20738 5.21403 8.16196 8.15888
19.5025 1.29913 1.2876 5.26361 5.27046 8.32763 8.3244
19.5125 1.30912 1.29746 5.3126 5.3195 8.49244 8.48921
19.5225 1.31751 1.30587 5.35501 5.3616 8.65656 8.65369
19.5325 1.32456 1.31306 5.39116 5.39722 8.82019 8.81792
19.5425 1.33053 1.31922 5.42127 5.4268 8.98354 8.98187
19.5525 1.33576 1.32465 5.4458 5.45085 9.14682 9.1456
19.5625 1.3407 1.32982 5.46558 5.47011 9.31025 9.30943
19.5725 1.34582 1.33525 5.48163 5.48551 9.47402 9.4737
19.5825 1.35144 1.34126 5.49475 5.49782 9.6382 9.63858
19.5925 1.35764 1.34789 5.50544 5.50758 9.8027 9.80389
19.6025 1.3643 1.35499 5.51403 5.51527 9.96728 9.96926
19.6125 1.37137 1.36258 5.52134 5.52206 10.1316 10.1341
19.6225 1.37857 1.36997 5.52789 5.52789 10.2953 10.2983
19.6325 1.38571 1.37758 5.53367 5.53247 10.4582 10.462
19.6425 1.39277 1.38536 5.53883 5.53653 10.6202 10.6248
19.6525 1.39967 1.39267 5.54379 5.54097 10.7808 10.7861
19.6625 1.40606 1.39932 5.54908 5.54591 10.9398 10.9455
19.6725 1.41142 1.40506 5.55501 5.55108 11.0965 11.1028
19.6825 1.41526 1.40939 5.56157 5.55668 11.2503 11.2572
19.6925 1.41723 1.41175 5.56863 5.563 11.4006 11.408
19.7025 1.41693 1.41168 5.57603 5.56995 11.5467 11.5548
19.7125 1.41391 1.40884 5.58377 5.57733 11.6884 11.6969
19.7225 1.40781 1.40292 5.59198 5.58518 11.8251 11.8339
19.7325 1.3985 1.39374 5.60078 5.59366 11.9564 11.9655
19.7425 1.38605 1.38133 5.61029 5.60292 12.082 12.0915
19.7525 1.3707 1.36596 5.62069 5.61316 12.2022 12.212
19.7625 1.35278 1.34796 5.63226 5.62471 12.317 12.3271
19.7725 1.3326 1.32762 5.64522 5.6378 12.4267 12.4368
19.7825 1.3103 1.3051 5.65959 5.65236 12.531 12.5411
19.7925 1.28583 1.28035 5.67506 5.66805 12.6297 12.6398
19.8025 1.25887 1.25307 5.69099 5.68427 12.7223 12.7324
19.8125 1.22894 1.22277 5.70651 5.70021 12.808 12.8181
19.8225 1.19545 1.18884 5.7206 5.71486 12.886 12.896
19.8325 1.15798 1.15087 5.73232 5.72717 12.9558 12.9655
19.8425 1.11669 1.10923 5.74091 5.73625 13.0168 13.0263
19.8525 1.07162 1.06365 5.74606 5.74185 13.0692 13.0786
19.8625 1.02315 1.01473 5.74795 5.74453 13.1135 13.1225
19.8725 0.972332 0.963522 5.74693 5.7443 13.1502 13.159
19.8825 0.920476 0.911252 5.74348 5.74136 13.1804 13.1889
19.8925 0.868872 0.85921 5.73814 5.73654 13.2051 13.2133
19.9025 0.81892 0.808819 5.73168 5.73077 13.2255 13.2336
19.9125 0.772195 0.761724 5.72504 5.72481 13.2432 13.2509
19.9225 0.730148 0.719353 5.71907 5.71936 13.2591 13.2666
19.9325 0.693947 0.682846 5.71444 5.71514 13.2743 13.2817
19.9425 0.664659 0.653305 5.71177 5.71282 13.2898 13.297
19.9525 0.643414 0.631893 5.71175 5.71308 13.3066 13.3136
19.9625 0.631325 0.619697 5.71519 5.71669 13.3255 13.3325
19.9725 0.629242 0.617552 5.7228 5.72437 13.3475 13.3545
19.9825 0.637605 0.625936 5.73498 5.7365 13.3729 13.3799
19.9925 0.656556 0.645039 5.75188 5.75319 13.4018 13.4089
20.0025 0.685878 0.674577 5.77343 5.77438 13.434 13.4413
20.0125 0.724856 0.713824 5.79928 5.7998 13.469 13.4765
20.0225 0.772316 0.761631 5.8288 5.82882 13.5057 13.5135
20.0325 0.826762 0.816501 5.86111 5.86051 13.5429 13.551
20.0425 0.886453 0.87666 5.89515 5.89385 13.5791 13.5875
20.0525 0.949586 0.940282 5.92986 5.92782 13.6128 13.6214
20.0625 1.01446 1.00567 5.96431 5.96153 13.6424 13.6513
20.0725 1.07963 1.07135 5.99785 5.99434 13.6669 13.6762
20.0825 1.14392 1.13614 6.03009 6.02587 13.6854 13.6949
20.0925 1.20637 1.19907 6.06082 6.05593 13.6971 13.7069
20.1025 1.26616 1.25931 6.08992 6.08441 13.7017 13.7117
20.1125 1.32263 1.31617 6.11728 6.11123 13.6987 13.709
20.1225 1.37526 1.36914 6.14291 6.13646 13.6881 13.6985
20.1325 1.42373 1.41786 6.16697 6.16028 13.6699 13.6801
20.1425 1.46795 1.46228 6.18973 6.18292 13.6443 13.6543
20.1525 1.50785 1.50231 6.21143 6.20466 13.6115 13.6208
20.1625 1.54319 1.53762 6.23215 6.22574 13.5715 13.5799
20.1725 1.57367 1.56799 6.25185 6.24574 13.524 13.5318
20.1825 1.59923 1.59358 6.2706 6.26453 13.4691 13.4769
20.1925 1.62038 1.61469 6.28862 6.28267 13.4078 13.4158
20.2025 1.638 1.63211 6.30637 6.30083 13.3416 13.3493
20.2125 1.65281 1.64662 6.32424 6.31936 13.2715 13.2784
20.2225 1.66504 1.65852 6.34232 6.3382 13.1977 13.2037
20.2325 1.67454 1.66767 6.36027 6.35688 13.12 13.1253
20.2425 1.68102 1.67376 6.37738 6.37468 13.0384 13.0433
20.2525 1.68425 1.67659 6.39284 6.39086 12.9531 12.9575
20.2625 1.68413 1.67603 6.40594 6.4048 12.8643 12.8681
20.2725 1.68078 1.67219 6.41621 6.41603 12.7724 12.7753
20.2825 1.67443 1.66535 6.4234 6.42419 12.6776 12.6796
20.2925 1.66557 1.65601 6.42743 6.42911 12.5804 12.5818
20.3025 1.65491 1.64491 6.42837 6.43088 12.4819 12.4827
20.3125 1.64339 1.63298 6.42649 6.42979 12.3832 12.3834
20.3225 1.63201 1.62118 6.42214 6.42617 12.2855 12.2851
20.3325 1.62154 1.61008 6.41554 6.41938 12.1897 12.1888
20.3425 1.61246 1.60101 6.40638 6.40993 12.0965 12.0956
20.3525 1.60554 1.59421 6.39511 6.39951 12.0065 12.0053
20.3625 1.6015 1.58974 6.38275 6.38843 11.9203 11.9186
20.3725 1.60077 1.58874 6.37003 6.37601 11.8386 11.8364
20.3825 1.60367 1.59181 6.3572 6.36248 11.7619 11.7597
20.3925 1.61072 1.59917 6.34423 6.34897 11.6907 11.6887
20.4025 1.62225 1.61082 6.33106 6.33599 11.6255 11.6234
20.4125 1.63791 1.62649 6.31767 6.32285 11.5661 11.564
20.4225 1.65686 1.64568 6.30394 6.30884 11.5121 11.5099
20.4325 1.6782 1.66747 6.28952 6.2938 11.4627 11.4605
20.4425 1.70124 1.69095 6.27386 6.27749 11.4172 11.4153
20.4525 1.72532 1.71545 6.2565 6.25954 11.375 11.3735
20.4625 1.74972 1.7403 6.23733 6.23982 11.3358 11.3347
20.4725 1.77377 1.76484 6.21654 6.21846 11.2992 11.2983
20.4825 1.79704 1.78864 6.19444 6.19564 11.2647 11.264
20.4925 1.81927 1.81142 6.17132 6.17163 11.232 11.2318
20.5025 1.84034 1.83306 6.1477 6.14726 11.2011 11.2013
20.5125 1.86013 1.85325 6.124 6.12288 11.172 11.1727
20.5225 1.87861 1.87224 6.10064 6.09878 11.1451 11.1461
20.5325 1.89582 1.89003 6.07817 6.07566 11.1203 11.1216
20.5425 1.91179 1.9064 6.05721 6.05422 11.0975 11.0992
20.5525 1.92642 1.92133 6.03826 6.03479 11.0768 11.0788
20.5625 1.93959 1.93388 6.02162 6.01777 11.0581 11.0604
20.5725 1.95131 1.94456 6.00743 6.00383 11.0415 11.0439
20.5825 1.96141 1.95413 5.99572 5.99235 11.0269 11.0292
20.5925 1.96962 1.96209 5.98661 5.983 11.014 11.0163
20.6025 1.97579 1.9682 5.98032 5.97662 11.0026 11.0051
20.6125 1.97974 1.97228 5.97694 5.9733 10.9928 10.9954
20.6225 1.98187 1.97458 5.97642 5.97267 10.9848 10.9873
20.6325 1.98248 1.97517 5.97858 5.97477 10.9786 10.981
20.6425 1.98107 1.97344 5.98319 5.97968 10.9739 10.9762
20.6525 1.97705 1.96914 5.98984 5.98687 10.9705 10.9725
20.6625 1.97 1.96185 5.99793 5.99536 10.9679 10.9696
20.6725 1.95953 1.951 6.00663 6.00442 10.9656 10.967
20.6825 1.94518 1.93635 6.01511 6.01338 10.9632 10.9642
20.6925 1.92677 1.91768 6.02283 6.02165 10.9607 10.9614
20.7025 1.90463 1.89523 6.02969 6.0292 10.9585 10.9587
20.7125 1.8794 1.86962 6.03595 6.03617 10.9568 10.9564
20.7225 1.85187 1.84169 6.04202 6.04285 10.9564 10.9558
20.7325 1.82298 1.81238 6.04811 6.04918 10.9583 10.9577
20.7425 1.79362 1.7826 6.05436 6.05508 10.9635 10.963
20.7525 1.76456 1.75346 6.06064 6.06166 10.9728 10.9721
20.7625 1.7366 1.7252 6.06745 6.06962 10.9866 10.9853
20.7725 1.71033 1.69837 6.07537 6.07858 11.0051 11.0033
20.7825 1.68603 1.67375 6.0846 6.08802 11.0284 11.0265
20.7925 1.66391 1.65153 6.09489 6.09807 11.0568 11.0549
20.8025 1.64436 1.63186 6.10588 6.10917 11.0904 11.0886
20.8125 1.62788 1.61512 6.11749 6.12128 11.1295 11.1277
20.8225 1.61489 1.60188 6.13009 6.13428 11.1746 11.1727
20.8325 1.60574 1.59263 6.1442 6.14846 11.2257 11.2238
20.8425 1.6008 1.58768 6.16011 6.16417 11.283 11.2813
20.8525 1.60034 1.58725 6.1778 6.18156 11.3466 11.3452
20.8625 1.60439 1.59133 6.19711 6.20062 11.4162 11.4153
20.8725 1.61271 1.59972 6.21803 6.22132 11.4915 11.491
20.8825 1.6251 1.61223 6.24075 6.24369 11.5721 11.572
20.8925 1.64154 1.62885 6.2656 6.26795 11.6577 11.658
20.9025 1.66203 1.64962 6.29303 6.2948 11.7479 11.7488
20.9125 1.68636 1.6741 6.32304 6.32417 11.8425 11.8441
20.9225 1.7141 1.70215 6.35538 6.3558 11.941 11.9432
20.9325 1.74458 1.73299 6.38982 6.38968 12.0425 12.0452
20.9425 1.77695 1.76556 6.42595 6.42544 12.1463 12.1498
20.9525 1.81032 1.79908 6.46284 6.46184 12.2523 12.2558
20.9625 1.84347 1.83255 6.50005 6.49871 12.3586 12.3615
20.9725 1.87523 1.86445 6.53743 6.5362 12.4636 12.4662
20.9825 1.9046 1.8939 6.57454 6.57308 12.5658 12.5689
20.9925 1.93065 1.9202 6.61059 6.60835 12.6648 12.6689
21.0025 1.95253 1.94229 6.64469 6.64182 12.7603 12.765
21.0125 1.96958 1.95938 6.67621 6.67333 12.8519 12.8564
21.0225 1.98135 1.97106 6.70495 6.70234 12.9387 12.9428
21.0325 1.98762 1.97725 6.73106 6.72852 13.0201 13.0241
21.0425 1.98841 1.978 6.75474 6.7521 13.0961 13.1004
21.0525 1.98405 1.97353 6.77611 6.77341 13.167 13.1717
21.0625 1.97501 1.96432 6.79523 6.79264 13.2335 13.2383
21.0725 1.96185 1.95092 6.81232 6.81003 13.296 13.3006
21.0825 1.94516 1.93392 6.82783 6.826 13.3549 13.3591
21.0925 1.92561 1.91404 6.84228 6.84089 13.4104 13.4145
21.1025 1.90404 1.89215 6.85616 6.8551 13.4633 13.4673
21.1125 1.88143 1.86924 6.86991 6.86915 13.5144 13.5184
21.1225 1.85886 1.84632 6.88403 6.88368 13.5647 13.5687
21.1325 1.83754 1.82464 6.89915 6.8993 13.6153 13.619
21.1425 1.81861 1.80544 6.91599 6.91653 13.6669 13.6703
21.1525 1.80288 1.78942 6.93531 6.93618 13.7204 13.7237
21.1625 1.79117 1.77752 6.9577 6.95894 13.7765 13.7797
21.1725 1.78415 1.77032 6.98337 6.98483 13.8357 13.8389
21.1825 1.78194 1.76793 7.01204 7.01364 13.8981 13.9013
21.1925 1.78411 1.76991 7.04313 7.04494 13.9632 13.9663
21.2025 1.78997 1.77561 7.07588 7.07793 14.0304 14.0333
21.2125 1.79873 1.78426 7.10947 7.11166 14.0986 14.1016
21.2225 1.80953 1.79497 7.14299 7.14519 14.1672 14.1701
21.2325 1.82152 1.80689 7.17554 7.17773 14.2352 14.2382
21.2425 1.83397 1.81928 7.20638 7.20858 14.3019 14.305
21.2525 1.84632 1.8316 7.23496 7.23716 14.3668 14.3699
21.2625 1.85812 1.84338 7.26092 7.26307 14.4294 14.4325
21.2725 1.869 1.85426 7.28397 7.28603 14.4893 14.4925
21.2825 1.87867 1.86397 7.30391 7.30585 14.5461 14.5495
21.2925 1.88696 1.8723 7.32062 7.32242 14.5998 14.6033
21.3025 1.89383 1.87923 7.33416 7.3358 14.6502 14.6539
21.3125 1.89939 1.88485 7.34474 7.34624 14.6975 14.7013
21.3225 1.90391 1.88946 7.35275 7.35408 14.7418 14.7457
21.3325 1.90778 1.89342 7.3587 7.35983 14.7836 14.7876
21.3425 1.91143 1.89718 7.36314 7.36404 14.8231 14.8273
21.3525 1.91525 1.9011 7.3666 7.36728 14.8606 14.865
21.3625 1.91932 1.90527 7.36938 7.36987 14.8964 14.9009
21.3725 1.92353 1.90958 7.37142 7.37167 14.9302 14.9349
21.3825 1.9277 1.91391 7.37261 7.37261 14.962 14.9668
21.3925 1.93158 1.91793 7.37288 7.37271 14.9913 14.9963
21.4025 1.93493 1.92137 7.37221 7.37193 15.018 15.0231
21.4125 1.93753 1.92407 7.37061 7.37015 15.0419 15.0471
21.4225 1.93914 1.92582 7.36795 7.36725 15.0626 15.068
21.4325 1.93943 1.92623 7.364 7.3631 15.0799 15.0855
21.4425 1.93795 1.92482 7.35838 7.35738 15.0933 15.099
21.4525 1.93418 1.9211 7.35072 7.34965 15.1023 15.108
21.4625 1.92763 1.9146 7.34064 7.33949 15.1063 15.1121
21.4725 1.91785 1.90486 7.32777 7.32656 15.105 15.1108
21.4825 1.90452 1.89153 7.31175 7.31052 15.0978 15.1037
21.4925 1.88738 1.87437 7.29229 7.29108 15.0846 15.0905
21.5025 1.86631 1.85327 7.2692 7.26805 15.0651 15.071
21.5125 1.84134 1.82824 7.2424 7.24136 15.0393 15.0452
21.5225 1.81258 1.7994 7.21186 7.21096 15.0072 15.0131
21.5325 1.7802 1.76692 7.17752 7.17679 14.969 14.9748
21.5425 1.74435 1.73095 7.13932 7.13878 14.9247 14.9304
21.5525 1.7052 1.69168 7.09715 7.09687 14.8743 14.8799
21.5625 1.66299 1.64945 7.05092 7.05087 14.818 14.8234
21.5725 1.61794 1.60431 7.00058 7.0007 14.7558 14.7611
21.5825 1.57027 1.55652 6.94622 6.94665 14.688 14.693
21.5925 1.52053 1.50669 6.88816 6.88893 14.615 14.6197
21.6025 1.46965 1.45578 6.82697 6.82791 14.5376 14.5421
21.6125 1.41869 1.40483 6.76347 6.76448 14.4565 14.461
21.6225 1.36878 1.35491 6.69847 6.69956 14.3728 14.3774
21.6325 1.32092 1.30708 6.63268 6.63386 14.2875 14.2922
21.6425 1.27589 1.26211 6.56668 6.5679 14.2014 14.206
21.6525 1.23426 1.22056 6.50095 6.50217 14.1147 14.1192
21.6625 1.19652 1.18292 6.43592 6.43709 14.0279 14.0324
21.6725 1.16318 1.14974 6.3721 6.37311 13.9413 13.946
21.6825 1.13481 1.12159 6.31 6.31077 13.8556 13.8604
21.6925 1.11184 1.09888 6.25011 6.2506 13.771 13.776
21.7025 1.09451 1.08186 6.19286 6.19317 13.6879 13.693
21.7125 1.08274 1.07037 6.13851 6.13856 13.6061 13.6113
21.7225 1.07617 1.06414 6.08698 6.08655 13.5253 13.5307
21.7325 1.07441 1.06284 6.03817 6.03718 13.4453 13.4509
21.7425 1.07731 1.06617 5.99223 5.99078 13.366 13.3719
21.7525 1.08504 1.07432 5.94977 5.9479 13.2877 13.2938
21.7625 1.098 1.08774 5.91169 5.90932 13.211 13.2172
21.7725 1.11664 1.10688 5.87896 5.87601 13.1364 13.1427
21.7825 1.14126 1.13201 5.85234 5.8488 13.0643 13.0709
21.7925 1.17173 1.16296 5.83218 5.82808 12.9949 13.0017
21.8025 1.20747 1.19917 5.81847 5.81384 12.9279 12.9349
21.8125 1.24768 1.23983 5.81104 5.80591 12.8628 12.8699
21.8225 1.29151 1.2841 5.80963 5.80404 12.7991 12.8062
21.8325 1.33806 1.33105 5.81392 5.80789 12.736 12.7432
21.8425 1.38632 1.37966 5.8234 5.817 12.673 12.6802
21.8525 1.43514 1.42877 5.8374 5.83074 12.6092 12.6164
21.8625 1.48327 1.47711 5.85514 5.84833 12.5439 12.5509
21.8725 1.52962 1.52361 5.87588 5.86902 12.4762 12.483
21.8825 1.57345 1.56753 5.89911 5.8923 12.4059 12.4124
21.8925 1.61441 1.60849 5.9246 5.91799 12.3329 12.339
21.9025 1.65252 1.64652 5.95239 5.9461 12.2576 12.2633
21.9125 1.688 1.68185 5.98264 5.97679 12.1805 12.1857
21.9225 1.72125 1.71487 6.01559 6.01027 12.1025 12.1071
21.9325 1.75274 1.74608 6.05144 6.04675 12.0243 12.0282
21.9425 1.78301 1.776 6.0904 6.08644 11.9467 11.95
21.9525 1.8126 1.8052 6.13262 6.12946 11.8707 11.8733
21.9625 1.84198 1.83414 6.17812 6.17583 11.797 11.7988
21.9725 1.87149 1.86318 6.22675 6.22538 11.7264 11.7274
21.9825 1.9013 1.89249 6.27819 6.27776 11.6593 11.6595
21.9925 1.9315 1.92216 6.332 6.33248 11.5962 11.5956
22.0025 1.962 1.95187 6.38749 6.38787 11.5375 11.5364
22.0125 1.99304 1.98281 6.44358 6.44382 11.484 11.4827
22.0225 2.0255 2.01526 6.50105 6.50261 11.4362 11.4344
22.0325 2.06013 2.04901 6.56115 6.56465 11.395 11.3921
22.0425 2.09701 2.08522 6.62433 6.62852 11.3608 11.3571
22.0525 2.13594 2.12405 6.68983 6.6934 11.3337 11.3297
22.0625 2.17681 2.16488 6.75647 6.75978 11.3136 11.3097
22.0725 2.21937 2.20707 6.82326 6.82751 11.3007 11.2964
22.0825 2.26293 2.25007 6.88964 6.89507 11.2946 11.2897
22.0925 2.30652 2.29336 6.95518 6.96108 11.2948 11.2892
22.1025 2.34943 2.3362 7.0193 7.02513 11.3005 11.2946
22.1125 2.39126 2.3779 7.08119 7.08701 11.3114 11.3053
22.1225 2.43182 2.41824 7.14016 7.14619 11.3274 11.3213
22.1325 2.47116 2.45741 7.19615 7.20244 11.3492 11.343
22.1425 2.50967 2.49586 7.24975 7.25629 11.3773 11.3708
22.1525 2.5481 2.53424 7.30195 7.30867 11.4126 11.4057
22.1625 2.58732 2.57341 7.35368 7.36038 11.4557 11.4487
22.1725 2.62812 2.61424 7.40569 7.41215 11.5076 11.5007
22.1825 2.67118 2.6574 7.45866 7.46487 11.5691 11.5624
22.1925 2.71689 2.70321 7.51322 7.51925 11.6409 11.6342
22.2025 2.76532 2.75177 7.56978 7.57554 11.7229 11.7164
22.2125 2.81625 2.80292 7.62859 7.63386 11.815 11.8088
22.2225 2.86928 2.8562 7.68969 7.69438 11.9167 11.911
22.2325 2.92399 2.91118 7.7531 7.75716 12.0277 12.0226
22.2425 2.97991 2.96723 7.81884 7.82226 12.1476 12.143
22.2525 3.03657 3.02289 7.88693 7.89012 12.2756 12.2715
22.2625 3.09355 3.07852 7.95737 7.96084 12.4113 12.4075
22.2725 3.15005 3.13439 8.0301 8.03338 12.554 12.5506
22.2825 3.20478 3.18981 8.10525 8.10781 12.7029 12.7001
22.2925 3.258 3.24378 8.18276 8.18455 12.8572 12.855
22.3025 3.31004 3.29568 8.26207 8.26321 13.0162 13.0147
22.3125 3.36004 3.34529 8.34252 8.34325 13.1792 13.1782
22.3225 3.40671 3.39192 8.42382 8.42441 13.3452 13.3447
22.3325 3.44938 3.43474 8.50603 8.5065 13.5134 13.5133
22.3425 3.48796 3.47326 8.58882 8.58898 13.6833 13.684
22.3525 3.52223 3.50726 8.6712 8.67097 13.8553 13.8559
22.3625 3.55128 3.53604 8.75286 8.75303 14.0282 14.0279
22.3725 3.57459 3.55895 8.83401 8.83516 14.201 14.1999
22.3825 3.59223 3.57622 8.91467 8.91617 14.3728 14.372
22.3925 3.60419 3.58767 8.99423 8.99556 14.5439 14.5437
22.4025 3.61011 3.59309 9.07167 9.07321 14.7145 14.7145
22.4125 3.60964 3.5923 9.14624 9.14842 14.8844 14.8841
22.4225 3.60275 3.58499 9.21756 9.22054 15.0531 15.0521
22.4325 3.58934 3.57105 9.28527 9.28897 15.2197 15.2184
22.4425 3.56917 3.55034 9.34877 9.35298 15.384 15.3826
22.4525 3.54212 3.52285 9.40718 9.41184 15.5457 15.5445
22.4625 3.50824 3.48854 9.45962 9.46489 15.7049 15.7036
22.4725 3.46766 3.4474 9.5054 9.51147 15.8613 15.8597
22.4825 3.42041 3.39956 9.54401 9.55092 16.0147 16.0126
22.4925 3.36666 3.3453 9.57506 9.58268 16.1647 16.1624
22.5025 3.30694 3.28514 9.5983 9.60649 16.3114 16.3091
22.5125 3.24214 3.21992 9.61371 9.62242 16.4554 16.4532
22.5225 3.17339 3.15075 9.62154 9.63078 16.5975 16.5953
22.5325 3.10187 3.07883 9.62225 9.63202 16.7384 16.7361
22.5425 3.0288 3.00544 9.61647 9.62667 16.8789 16.8766
22.5525 2.9554 2.9318 9.60483 9.61532 17.0196 17.0174
22.5625 2.88287 2.85909 9.58797 9.59857 17.1612 17.1593
22.5725 2.81232 2.78844 9.5665 9.57709 17.3044 17.3029
22.5825 2.74472 2.72081 9.54099 9.55147 17.4498 17.4487
22.5925 2.68084 2.65696 9.51197 9.52224 17.5975 17.5968
22.6025 2.62121 2.59746 9.47993 9.48983 17.7477 17.7475
22.6125 2.56627 2.54265 9.4453 9.45462 17.9001 17.9007
22.6225 2.51634 2.49304 9.4089 9.4176 18.0546 18.0559
