0 1.58156e-05 8.00514e-06 0 -1.57617e-05 -8.05217e-06
0 1.57594e-05 8.01312e-06 0 -1.58164e-05 -8.04502e-06
0 1.56419e-05 8.02679e-06 0 -1.5932e-05 -8.02861e-06
0 1.54154e-05 8.04872e-06 0 -1.6153e-05 -8.00145e-06
0 1.51772e-05 8.06689e-06 0 -1.6384e-05 -7.97823e-06
0 1.48965e-05 8.08167e-06 0 -1.66545e-05 -7.95862e-06
0 1.45834e-05 8.08772e-06 0 -1.69538e-05 -7.94796e-06
0 1.42499e-05 8.07896e-06 0 -1.72686e-05 -7.95229e-06
0 1.39098e-05 8.04943e-06 0 -1.75846e-05 -7.97825e-06
0 1.35782e-05 7.99318e-06 0 -1.78858e-05 -8.03276e-06
0 1.32723e-05 7.90397e-06 0 -1.81539e-05 -8.12294e-06
0 1.30135e-05 7.77499e-06 0 -1.83664e-05 -8.25596e-06
0 1.28289e-05 7.59944e-06 0 -1.85055e-05 -8.43851e-06
0 1.27482e-05 7.37117e-06 0 -1.8541e-05 -8.67478e-06
0 1.28191e-05 7.08385e-06 0 -1.84125e-05 -8.97692e-06
0 1.30903e-05 6.7324e-06 0 -1.8075e-05 -9.35086e-06
0 1.36099e-05 6.31459e-06 0 -1.74818e-05 -9.79973e-06
0 1.44215e-05 5.83175e-06 0 -1.65866e-05 -1.0323e-05
0 1.55599e-05 5.28974e-06 0 -1.53551e-05 -1.09153e-05
0 1.70469e-05 4.69962e-06 0 -1.37676e-05 -1.15656e-05
0 1.88895e-05 4.07936e-06 0 -1.18184e-05 -1.22562e-05
0 2.10848e-05 3.45114e-06 0 -9.51237e-06 -1.29636e-05
0 2.36227e-05 2.8419e-06 0 -6.86233e-06 -1.36596e-05
0 2.64882e-05 2.28286e-06 0 -3.88675e-06 -1.43112e-05
0 2.96595e-05 1.80938e-06 0 -6.10916e-07 -1.48818e-05
0 3.30999e-05 1.46022e-06 0 2.9191e-06 -1.53485e-05
0 3.67408e-05 1.27785e-06 0 6.63941e-06 -1.56371e-05
0 4.04607e-05 1.32113e-06 0 1.04164e-05 -1.56993e-05
0 4.4066e-05 1.65193e-06 0 1.40526e-05 -1.54629e-05
0 4.73112e-05 2.33444e-06 0 1.72971e-05 -1.48566e-05
0 4.99377e-05 3.42446e-06 0 1.98864e-05 -1.38114e-05
0 5.16991e-05 4.96956e-06 0 2.15322e-05 -1.22639e-05
0 5.24078e-05 6.99686e-06 0 2.20765e-05 -1.01921e-05
0 5.193e-05 9.51134e-06 0 2.13854e-05 -7.58169e-06
0 5.01975e-05 1.24938e-05 0 1.94033e-05 -4.45262e-06
0 4.71887e-05 1.59015e-05 0 1.61309e-05 -8.53867e-07
0 4.29571e-05 1.9668e-05 0 1.16245e-05 3.14175e-06
0 3.76775e-05 2.36943e-05 0 6.02506e-06 7.44008e-06
0 3.14896e-05 2.7874e-05 0 -5.02692e-07 1.18989e-05
0 2.4592e-05 3.2079e-05 0 -7.75011e-06 1.64053e-05
0 1.72123e-05 3.6182e-05 0 -1.54984e-05 2.08175e-05
0 9.56756e-06 4.00497e-05 0 -2.35132e-05 2.49988e-05
0 1.86571e-06 4.35523e-05 0 -3.15745e-05 2.8803e-05
0 -5.70098e-06 4.65622e-05 0 -3.94849e-05 3.20977e-05
0 -1.29563e-05 4.89601e-05 0 -4.70612e-05 3.47584e-05
0 -1.97226e-05 5.06233e-05 0 -5.41159e-05 3.66686e-05
0 -2.58126e-05 5.14405e-05 0 -6.04436e-05 3.77136e-05
0 -3.09756e-05 5.13624e-05 0 -6.58045e-05 3.78087e-05
0 -3.49777e-05 5.03108e-05 0 -6.9951e-05 3.68742e-05
0 -3.75745e-05 4.82348e-05 0 -7.26372e-05 3.48573e-05
0 -3.85004e-05 4.41754e-05 0 -7.36008e-05 3.0774e-05
0 -3.65414e-05 3.85295e-05 0 -7.16009e-05 2.49817e-05
0 -3.15753e-05 3.14263e-05 0 -6.65287e-05 1.76137e-05
0 -2.3787e-05 2.31038e-05 0 -5.85913e-05 8.92472e-06
0 -1.37091e-05 1.38883e-05 0 -4.83489e-05 -7.29446e-07
0 -2.2268e-06 4.2477e-06 0 -3.67159e-05 -1.0876e-05
0 9.47746e-06 -5.31687e-06 0 -2.49143e-05 -2.0928e-05
0 2.00174e-05 -1.42726e-05 0 -1.43603e-05 -3.03189e-05
0 2.80019e-05 -2.21149e-05 0 -6.47534e-06 -3.84817e-05
0 3.22615e-05 -2.84247e-05 0 -2.45088e-06 -4.49656e-05
0 3.20007e-05 -3.29154e-05 0 -3.09476e-06 -4.94457e-05
0 2.68364e-05 -3.54465e-05 0 -8.79605e-06 -5.17736e-05
0 1.67726e-05 -3.60293e-05 0 -1.95472e-05 -5.19603e-05
0 2.15482e-06 -3.48216e-05 0 -3.49916e-05 -5.01812e-05
0 -1.6406e-05 -3.21103e-05 0 -5.44975e-05 -4.67464e-05
0 -3.81265e-05 -2.82827e-05 0 -7.72549e-05 -4.20775e-05
0 -6.20931e-05 -2.38051e-05 0 -0.000102317 -3.66787e-05
0 -8.72469e-05 -1.92039e-05 0 -0.000128587 -3.11187e-05
0 -0.000112392 -1.50375e-05 0 -0.000154828 -2.60039e-05
0 -0.000136274 -1.18586e-05 0 -0.000179746 -2.19385e-05
0 -0.000157709 -1.0172e-05 0 -0.000202122 -1.94752e-05
0 -0.000175742 -1.03911e-05 0 -0.000220972 -1.90658e-05
0 -0.000189734 -1.28077e-05 0 -0.000235633 -2.10272e-05
0 -0.000199341 -1.75818e-05 0 -0.000245747 -2.55323e-05
0 -0.000204455 -2.47411e-05 0 -0.000251197 -3.26128e-05
0 -0.000205187 -3.41823e-05 0 -0.000252094 -4.21609e-05
0 -0.000201851 -4.5678e-05 0 -0.000248761 -5.39361e-05
0 -0.000194935 -5.88902e-05 0 -0.000241705 -6.75781e-05
0 -0.000185077 -7.33865e-05 0 -0.000231585 -8.2626e-05
0 -0.00017303 -8.86604e-05 0 -0.000219186 -9.85398e-05
0 -0.000159638 -0.000104154 0 -0.000205386 -0.000114725
0 -0.000145796 -0.000119288 0 -0.000191112 -0.00013056
0 -0.000132374 -0.000133489 0 -0.000177274 -0.000145432
0 -0.000120159 -0.00014622 0 -0.000164692 -0.000158768
0 -0.000109818 -0.000157004 0 -0.000154063 -0.00017006
0 -0.000101905 -0.00016544 0 -0.00014597 -0.00017888
0 -9.69177e-05 -0.00017121 0 -0.00014093 -0.000184891
0 -9.53329e-05 -0.000174088 0 -0.000139437 -0.000187846
0 -9.75733e-05 -0.000173955 0 -0.000141916 -0.000187611
0 -0.000103906 -0.000170818 0 -0.00014863 -0.000184187
0 -0.000111941 -0.000166243 0 -0.000157062 -0.00017925
0 -0.000125485 -0.000158176 0 -0.000171196 -0.000170581
0 -0.000142391 -0.000147889 0 -0.000188765 -0.000159551
0 -0.000161806 -0.000135916 0 -0.000208879 -0.000146734
0 -0.000182668 -0.00012288 0 -0.000230429 -0.0001328
0 -0.000203795 -0.000109458 0 -0.000252189 -0.000118478
0 -0.00022395 -9.63472e-05 0 -0.000272872 -0.000104519
0 -0.000241905 -8.42246e-05 0 -0.000291204 -9.16519e-05
0 -0.000256516 -7.37091e-05 0 -0.000305997 -8.05441e-05
0 -0.000266772 -6.53315e-05 0 -0.000316204 -7.17688e-05
0 -0.000271841 -5.95055e-05 0 -0.00032096 -6.5774e-05
0 -0.000271114 -5.65033e-05 0 -0.000319637 -6.28564e-05
0 -0.000264218 -5.6443e-05 0 -0.000311852 -6.31477e-05
0 -0.000250973 -5.92871e-05 0 -0.000297427 -6.6613e-05
0 -0.000231356 -6.48446e-05 0 -0.000276353 -7.30561e-05
0 -0.000205543 -7.27668e-05 0 -0.00024883 -8.21158e-05
0 -0.000174018 -8.25431e-05 0 -0.000215381 -9.32565e-05
0 -0.000137598 -9.35168e-05 0 -0.000176872 -0.000105779
0 -9.73736e-05 -0.000104914 0 -0.000134449 -0.000118856
0 -5.46441e-05 -0.000115875 0 -8.94749e-05 -0.00013157
0 -1.08591e-05 -0.000125502 0 -4.3464e-05 -0.000142954
0 3.24292e-05 -0.000132891 0 1.96529e-06 -0.00015204
0 7.33684e-05 -0.000137144 0 4.51049e-05 -0.000157893
0 0.00011047 -0.000137781 0 8.40112e-05 -0.000159677
0 0.000142233 -0.000133948 0 0.000117278 -0.000156886
0 0.000167572 -0.000125136 0 0.000143854 -0.000148939
0 0.0001858 -0.000111172 0 0.000162959 -0.000135375
0 0.000196673 -9.2029e-05 0 0.000174426 -0.000116319
0 0.000200446 -6.80026e-05 0 0.000178474 -9.20859e-05
0 0.000197676 -3.96236e-05 0 0.000175681 -6.31615e-05
0 0.000189063 -7.67808e-06 0 0.000166787 -3.03959e-05
0 0.000175421 2.71621e-05 0 0.000152653 5.44824e-06
0 0.000157771 6.3882e-05 0 0.000134333 4.33523e-05
0 0.000137313 0.000101403 0 0.000113109 8.21777e-05
0 0.00011538 0.000138603 0 9.0372e-05 0.000120728
0 9.33492e-05 0.00017434 0 6.75628e-05 0.000157763
0 7.25767e-05 0.00020748 0 4.61104e-05 0.000192114
0 5.43791e-05 0.000236969 0 2.73908e-05 0.000222656
0 4.00158e-05 0.000261867 0 1.27214e-05 0.000248387
0 3.0699e-05 0.000281371 0 3.36334e-06 0.000268446
0 2.75838e-05 0.000294839 0 5.10938e-07 0.000282148
0 3.1684e-05 0.000301846 0 5.20397e-06 0.000289031
0 4.37122e-05 0.000302217 0 1.81646e-05 0.000288889
0 6.39316e-05 0.000296059 0 3.96479e-05 0.000281824
0 9.20775e-05 0.000283766 0 6.9363e-05 0.00026825
0 0.000127332 0.000266021 0 0.000106448 0.000248891
0 0.000168367 0.00024376 0 0.000149517 0.000224744
0 0.000213432 0.000218127 0 0.000196748 0.000197032
0 0.000260462 0.000190414 0 0.000245994 0.00016714
0 0.000307227 0.000161994 0 0.000294942 0.000136539
0 0.00035151 0.000134238 0 0.00034129 0.000106702
0 0.000391254 0.000108446 0 0.000382902 7.90206e-05
0 0.000424652 8.57855e-05 0 0.000417902 5.4746e-05
0 0.000450233 6.72344e-05 0 0.000444759 3.49248e-05
0 0.000462944 5.43295e-05 0 0.000461229 2.04804e-05
0 0.000463517 4.72769e-05 0 0.000468107 1.15415e-05
0 0.000457405 4.50783e-05 0 0.00046529 8.5418e-06
0 0.000444545 4.77255e-05 0 0.000453321 1.13719e-05
0 0.000423394 5.54091e-05 0 0.000433033 1.94369e-05
0 0.000401699 6.63894e-05 0 0.000411899 3.12617e-05
0 0.000376716 8.11223e-05 0 0.000386459 4.6754e-05
0 0.000346653 9.8848e-05 0 0.000356232 6.54091e-05
0 0.000313027 0.000118599 0 0.000322576 8.64067e-05
0 0.000277254 0.000139515 0 0.000286376 0.000108678
0 0.000240336 0.000160731 0 0.000249366 0.000131121
0 0.000203813 0.000181101 0 0.00021274 0.000152695
0 0.000169108 0.000199581 0 0.000177924 0.000172382
0 0.000137399 0.000215327 0 0.000146201 0.000189164
0 0.000109869 0.000227526 0 0.000118733 0.00020219
0 8.75196e-05 0.000235459 0 9.64908e-05 0.000210759
0 7.10785e-05 0.000238626 0 8.02801e-05 0.000214333
0 6.10963e-05 0.000236732 0 7.06419e-05 0.000212566
0 5.78829e-05 0.000229662 0 6.78783e-05 0.00020534
0 6.14835e-05 0.000217498 0 7.20394e-05 0.000192754
0 7.17085e-05 0.000200542 0 8.29108e-05 0.000175123
0 8.85223e-05 0.000179247 0 0.000100548 0.000152898
0 0.000112557 0.000154152 0 0.000125841 0.000126513
0 0.000142919 0.000126175 0 0.000157626 9.69754e-05
0 0.000178099 9.63941e-05 0 0.00019436 6.54408e-05
0 0.000216257 6.6032e-05 0 0.000234158 3.32307e-05
0 0.000247559 4.22098e-05 0 0.000266759 7.91863e-06
0 0.00027836 1.95427e-05 0 0.000298808 -1.62042e-05
0 0.000307577 -1.31682e-06 0 0.000329183 -3.84337e-05
0 0.000334194 -1.9763e-05 0 0.000356828 -5.81105e-05
0 0.000357285 -3.52477e-05 0 0.00038078 -7.46445e-05
0 0.00037605 -4.72997e-05 0 0.000400209 -8.75342e-05
0 0.000389853 -5.55484e-05 0 0.000414457 -9.63822e-05
0 0.00039826 -5.97389e-05 0 0.000423071 -0.00010091
0 0.000401061 -5.97362e-05 0 0.000425829 -0.000100969
0 0.000398263 -5.55244e-05 0 0.000422737 -9.65435e-05
0 0.00039008 -4.7206e-05 0 0.000414013 -8.77477e-05
0 0.000376883 -3.49939e-05 0 0.000400037 -7.48112e-05
0 0.000359142 -1.91979e-05 0 0.000381294 -5.80646e-05
0 0.00033738 -2.09904e-07 0 0.000358327 -3.79243e-05
0 0.000312147 2.15096e-05 0 0.00033171 -1.48789e-05
0 0.000284015 4.54409e-05 0 0.000302041 1.05218e-05
0 0.000253604 7.10116e-05 0 0.000269973 3.76737e-05
0 0.000221604 9.76069e-05 0 0.000236228 6.59273e-05
0 0.000188765 0.000124584 0 0.000201594 9.46013e-05
0 0.000155874 0.000151289 0 0.000166894 0.000123002
0 0.000123705 0.000177075 0 0.000132938 0.000150442
0 9.29948e-05 0.000201322 0 0.000100497 0.000176265
0 6.4423e-05 0.000223446 0 7.02829e-05 0.000199855
0 3.86012e-05 0.000242919 0 4.29356e-05 0.000220654
0 1.60576e-05 0.000259279 0 1.90087e-05 0.000238172
0 -2.78305e-06 0.000272142 0 -1.05264e-06 0.000252004
0 -1.76184e-05 0.000281212 0 -1.69309e-05 0.000261838
0 -2.82808e-05 0.000286286 0 -2.84487e-05 0.000267462
0 -3.47394e-05 0.000287259 0 -3.55712e-05 0.000268769
0 -3.71006e-05 0.000284126 0 -3.84063e-05 0.000265757
0 -3.56012e-05 0.000276978 0 -3.71979e-05 0.000258526
0 -3.05978e-05 0.000265997 0 -3.23144e-05 0.000247271
0 -2.25564e-05 0.000251449 0 -2.42383e-05 0.00023228
0 -1.19998e-05 0.000233671 0 -1.35409e-05 0.000213916
0 -1.81112e-06 0.000213256 0 -5.50768e-06 0.000193429
0 9.01528e-06 0.000190416 0 4.0323e-06 0.000170397
0 2.00589e-05 0.000165691 0 1.42723e-05 0.000145138
0 3.13817e-05 0.000139438 0 2.54777e-05 0.000118325
0 4.2911e-05 0.000112049 0 3.65851e-05 9.02981e-05
0 5.3923e-05 8.39879e-05 0 4.72012e-05 6.15854e-05
0 6.40028e-05 5.57051e-05 0 5.70046e-05 3.26881e-05
0 7.30031e-05 2.76357e-05 0 6.56273e-05 4.08948e-06
0 8.06358e-05 2.32709e-07 0 7.26712e-05 -2.37767e-05
0 8.65284e-05 -2.61922e-05 0 7.7817e-05 -5.05651e-05
0 9.04128e-05 -5.11525e-05 0 8.07635e-05 -7.5834e-05
0 9.21109e-05 -7.43737e-05 0 8.12019e-05 -9.9259e-05
0 9.13897e-05 -9.55507e-05 0 7.89455e-05 -0.000120398
0 8.80146e-05 -0.000114515 0 7.37679e-05 -0.000139089
0 8.19097e-05 -0.000130959 0 6.55394e-05 -0.000155127
0 7.30196e-05 -0.000144771 0 5.42229e-05 -0.000168351
0 6.13587e-05 -0.000155892 0 3.98506e-05 -0.000178681
0 4.54495e-05 -0.000163991 0 2.2109e-05 -0.00018607
0 2.63575e-05 -0.000169325 0 1.73716e-06 -0.000190696
0 4.9387e-06 -0.000172107 0 -2.11664e-05 -0.00019267
0 -1.82417e-05 -0.000172577 0 -4.63097e-05 -0.00019209
0 -4.31824e-05 -0.00017088 0 -7.3203e-05 -0.000189285
0 -6.95554e-05 -0.000167268 0 -0.000101409 -0.000184537
0 -9.67504e-05 -0.000162085 0 -0.000130579 -0.000178136
0 -0.000124349 -0.000155653 0 -0.000160261 -0.000170429
0 -0.000152027 -0.000148288 0 -0.000189945 -0.000161799
0 -0.000179318 -0.000140352 0 -0.000219156 -0.000152618
0 -0.000205713 -0.000132212 0 -0.000247437 -0.000143257
0 -0.000230787 -0.000124209 0 -0.000274305 -0.000134091
0 -0.000254132 -0.000116671 0 -0.000299285 -0.000125484
0 -0.000275313 -0.000109919 0 -0.000321937 -0.000117764
0 -0.000293919 -0.000104238 0 -0.000341852 -0.000111233
0 -0.000309597 -9.98727e-05 0 -0.000358646 -0.000106153
0 -0.000322031 -9.70211e-05 0 -0.000371986 -0.000102742
0 -0.000330943 -9.58384e-05 0 -0.000381601 -0.000101161
0 -0.000336126 -9.64228e-05 0 -0.000387289 -0.00010151
0 -0.00033746 -9.88091e-05 0 -0.000388932 -0.000103828
0 -0.000334918 -0.000102969 0 -0.000386508 -0.000108087
0 -0.000328549 -0.000108815 0 -0.000380092 -0.000114191
0 -0.000318488 -0.000116198 0 -0.000369842 -0.000121979
0 -0.000304965 -0.000124913 0 -0.00035601 -0.000131229
0 -0.000288297 -0.000134695 0 -0.000338932 -0.000141665
0 -0.000268884 -0.000145236 0 -0.000319031 -0.000152956
0 -0.000247206 -0.000156187 0 -0.000296813 -0.000164731
0 -0.00022382 -0.000167166 0 -0.000272858 -0.000176584
0 -0.000199345 -0.00017777 0 -0.000247808 -0.000188085
0 -0.000174441 -0.00018759 0 -0.00022234 -0.000198797
0 -0.000149777 -0.00019622 0 -0.000197144 -0.000208286
0 -0.000126008 -0.000203274 0 -0.000172894 -0.00021614
0 -0.000103758 -0.000208394 0 -0.000150231 -0.000221977
0 -8.36025e-05 -0.000211267 0 -0.000129749 -0.00022546
0 -6.60582e-05 -0.000211629 0 -0.000111979 -0.000226304
0 -5.15688e-05 -0.000209278 0 -9.73742e-05 -0.00022429
0 -4.04906e-05 -0.000204077 0 -8.63014e-05 -0.000219268
0 -3.30784e-05 -0.000195965 0 -7.90213e-05 -0.000211169
0 -2.94716e-05 -0.000184959 0 -7.56778e-05 -0.000200004
0 -2.96895e-05 -0.000171153 0 -7.62932e-05 -0.000185868
0 -3.35114e-05 -0.000154755 0 -8.17158e-05 -0.000168787
0 -4.06275e-05 -0.000136102 0 -9.11789e-05 -0.000148972
0 -5.1063e-05 -0.000115343 0 -0.000103636 -0.000127155
0 -6.45413e-05 -9.2846e-05 0 -0.00011888 -0.000103506
0 -8.0571e-05 -6.90357e-05 0 -0.000136513 -7.85518e-05
0 -9.87138e-05 -4.43989e-05 0 -0.000156125 -5.27226e-05
0 -0.000118632 -1.93968e-05 0 -0.000177207 -2.65485e-05
0 -0.000139845 5.47328e-06 0 -0.000199658 -4.83809e-07
0 -0.000161833 2.96765e-05 0 -0.00022297 2.49663e-05
0 -0.000184184 5.27203e-05 0 -0.000246661 4.92449e-05
0 -0.000206456 7.41163e-05 0 -0.000270153 7.18193e-05
0 -0.000228116 9.3344e-05 0 -0.000292921 9.2133e-05
0 -0.000248647 0.000109978 0 -0.000314452 0.000109786
0 -0.000267595 0.000123621 0 -0.000334234 0.000124309
0 -0.00028449 0.000133905 0 -0.000351753 0.00013532
0 -0.000298794 0.000140503 0 -0.000366475 0.000142481
0 -0.000309982 0.000143157 0 -0.00037787 0.000145516
0 -0.000317591 0.000141693 0 -0.000385447 0.00014422
0 -0.000321222 0.000136007 0 -0.000388791 0.000138477
0 -0.000320566 0.000126086 0 -0.000387599 0.000128271
0 -0.000315429 0.000112013 0 -0.000381679 0.000113683
0 -0.00030574 9.39726e-05 0 -0.000370964 9.48725e-05
0 -0.000291537 7.21628e-05 0 -0.000355504 7.21128e-05
0 -0.000272986 4.70585e-05 0 -0.000335485 4.58124e-05
0 -0.000250362 1.90854e-05 0 -0.000311211 1.64678e-05
0 -0.000224075 -1.1217e-05 0 -0.00028312 -1.53745e-05
0 -0.000194685 -4.32306e-05 0 -0.000251805 -4.90672e-05
0 -0.000162891 -7.62758e-05 0 -0.000218003 -8.38956e-05
0 -0.000129499 -0.000109634 0 -0.000182564 -0.000119096
0 -9.53925e-05 -0.000142565 0 -0.00014641 -0.000153882
0 -6.1502e-05 -0.000174321 0 -0.000110514 -0.000187459
0 -2.87739e-05 -0.000204165 0 -7.58659e-05 -0.00021905
0 1.87065e-06 -0.000231399 0 -4.34243e-05 -0.000247913
0 2.95796e-05 -0.000255387 0 -1.40768e-05 -0.000273369
0 5.36075e-05 -0.000275566 0 1.14e-05 -0.000294816
0 7.33375e-05 -0.000291465 0 3.23632e-05 -0.000311756
0 8.82896e-05 -0.000302714 0 4.83129e-05 -0.000323796
0 9.81277e-05 -0.000309058 0 5.88995e-05 -0.000330663
0 0.000102672 -0.000310358 0 6.39369e-05 -0.000332211
0 0.000101909 -0.000306599 0 6.34139e-05 -0.000328423
0 9.59982e-05 -0.000297888 0 5.7498e-05 -0.000319413
0 8.52647e-05 -0.00028445 0 4.65308e-05 -0.000305423
0 7.01901e-05 -0.000266623 0 3.10163e-05 -0.000286814
0 5.13937e-05 -0.000244847 0 1.16029e-05 -0.000264056
0 2.96076e-05 -0.000219649 0 -1.09434e-05 -0.00023771
0 5.64966e-06 -0.000191626 0 -3.57666e-05 -0.000208416
0 -1.9604e-05 -0.000161433 0 -6.19494e-05 -0.000176868
0 -4.52701e-05 -0.000129753 0 -8.77434e-05 -0.00014387
0 -6.67779e-05 -9.76838e-05 0 -0.000107452 -0.000111197
0 -8.65161e-05 -6.54453e-05 0 -0.000127748 -7.78964e-05
0 -0.000104277 -3.36733e-05 0 -0.000145691 -4.52904e-05
0 -0.000119549 -3.02664e-06 0 -0.000160793 -1.37206e-05
0 -0.000131641 2.60222e-05 0 -0.000172415 1.60312e-05
0 -0.000139807 5.28926e-05 0 -0.000180169 4.34417e-05
0 -0.000143647 7.72804e-05 0 -0.00018351 6.81501e-05
0 -0.000143879 9.89684e-05 0 -0.000182207 8.97977e-05
0 -0.000139801 0.000117614 0 -0.000176052 0.000108118
0 -0.000130901 0.000132983 0 -0.000164775 0.000122883
0 -0.000116992 0.000144897 0 -0.000148393 0.00013409
0 -9.84884e-05 0.000153338 0 -0.000127058 0.000141655
0 -7.56748e-05 0.000158555 0 -0.000101104 0.000145529
0 -4.88363e-05 0.000160679 0 -7.09507e-05 0.000146181
0 -1.84387e-05 0.000159989 0 -3.7133e-05 0.00014388
0 1.66214e-05 0.000156539 0 1.8859e-07 0.000138946
0 5.46037e-05 0.000150975 0 3.97306e-05 0.000131951
0 9.40993e-05 0.000143887 0 8.09032e-05 0.000123374
0 0.000134105 0.000135828 0 0.000123054 0.000113616
0 0.000174047 0.000127239 0 0.00016502 0.000103394
0 0.000213004 0.000118671 0 0.000205714 9.32876e-05
0 0.000249716 0.000110727 0 0.000244149 8.38529e-05
0 0.000283178 0.000103907 0 0.000279297 7.56415e-05
0 0.000312609 9.86302e-05 0 0.000310171 6.9173e-05
0 0.00033722 9.52913e-05 0 0.000335978 6.48599e-05
0 0.000356609 9.41802e-05 0 0.000356103 6.30127e-05
0 0.000371677 9.52286e-05 0 0.000371075 6.38214e-05
0 0.000380756 9.89203e-05 0 0.000381055 6.69989e-05
0 0.000384033 0.000105146 0 0.000385044 7.31128e-05
0 0.00038171 0.000113826 0 0.000383313 8.179e-05
0 0.00037406 0.000124737 0 0.00037602 9.29893e-05
0 0.000361401 0.00013766 0 0.000363601 0.000106371
0 0.000344256 0.000152264 0 0.000346604 0.000121587
0 0.000323277 0.000168127 0 0.000325652 0.000138206
0 0.000299139 0.00018478 0 0.000301444 0.000155736
0 0.000272573 0.000201722 0 0.000274762 0.000173638
0 0.000244397 0.000218425 0 0.000246433 0.000191346
0 0.000215463 0.000234347 0 0.000217316 0.000208284
0 0.000186611 0.000248949 0 0.000188285 0.000223874
0 0.000158671 0.000261706 0 0.000160194 0.000237563
0 0.000132443 0.000272134 0 0.000133859 0.000248837
0 0.00010867 0.000279801 0 0.000110036 0.000257232
0 8.80082e-05 0.000284339 0 8.94e-05 0.000262349
0 7.10167e-05 0.000285453 0 7.25252e-05 0.000263874
0 5.81507e-05 0.00028293 0 5.98736e-05 0.00026158
0 4.9751e-05 0.000276651 0 5.17914e-05 0.000255337
0 4.60381e-05 0.000266594 0 4.85011e-05 0.000245115
0 4.71027e-05 0.000252835 0 5.00901e-05 0.000230987
0 5.28919e-05 0.000235547 0 5.64986e-05 0.000213134
0 6.32001e-05 0.000215004 0 6.75134e-05 0.000191841
0 7.77349e-05 0.000191569 0 8.29394e-05 0.000167467
0 9.63055e-05 0.000165657 0 0.000102643 0.000140407
0 0.000118296 0.000137802 0 0.000125873 0.000111258
0 0.000142945 0.000108601 0 0.000151846 8.06427e-05
0 0.000169397 7.86905e-05 0 0.000179688 4.92471e-05
0 0.000196761 4.87412e-05 0 0.000208474 1.77824e-05
0 0.000224132 1.94332e-05 0 0.000237244 -1.30278e-05
0 0.000250594 -8.56177e-06 0 0.000265048 -4.24727e-05
0 0.000275274 -3.46065e-05 0 0.000290983 -6.9873e-05
0 0.000297396 -5.81176e-05 0 0.000314234 -9.46026e-05
0 0.000316312 -7.85779e-05 0 0.000334122 -0.00011611
0 0.000331523 -9.55915e-05 0 0.000350123 -0.000133959
0 0.000342662 -0.000108749 0 0.000361851 -0.000147788
0 0.000349488 -0.000117809 0 0.000369048 -0.000157265
0 0.000351878 -0.000122612 0 0.00037158 -0.00016224
0 0.000349815 -0.0001231 0 0.000369432 -0.000162655
0 0.000343403 -0.00011931 0 0.000362719 -0.000158565
0 0.000332863 -0.00011138 0 0.00035167 -0.000150118
0 0.000318509 -9.95433e-05 0 0.000336607 -0.000137558
0 0.000300717 -8.41133e-05 0 0.000317928 -0.000121213
0 0.000279928 -6.55224e-05 0 0.000296097 -0.000101553
0 0.000256643 -4.4183e-05 0 0.00027164 -7.89794e-05
0 0.00023145 -2.06058e-05 0 0.000245174 -5.40772e-05
0 0.000205018 4.64297e-06 0 0.0002174 -2.74252e-05
0 0.000178082 3.09702e-05 0 0.000189089 3.41089e-07
0 0.000151411 5.77672e-05 0 0.000161044 2.85743e-05
0 0.000125758 8.4426e-05 0 0.000134054 5.66282e-05
0 0.000101828 0.000110354 0 0.000108855 8.38782e-05
0 8.02598e-05 0.000134994 0 8.6118e-05 0.000109736
0 6.16113e-05 0.000157836 0 6.64271e-05 0.000133663
0 4.63486e-05 0.000178429 0 5.02725e-05 0.000155183
0 3.48356e-05 0.000196392 0 3.80379e-05 0.000173892
0 2.7335e-05 0.000211414 0 3.0001e-05 0.000189468
0 2.40172e-05 0.000223266 0 2.63425e-05 0.000201671
0 2.49705e-05 0.000231798 0 2.71559e-05 0.000210349
0 3.02065e-05 0.000236947 0 3.24531e-05 0.000215433
0 3.96573e-05 0.000238729 0 4.21611e-05 0.000216945
0 5.31611e-05 0.000237248 0 5.61077e-05 0.000214995
0 7.04549e-05 0.00023269 0 7.40133e-05 0.000209783
0 9.11812e-05 0.000225316 0 9.54997e-05 0.000201588
0 0.000114887 0.000215463 0 0.000120088 0.000190769
0 0.000141014 0.000203532 0 0.000147192 0.000177754
0 0.000168901 0.00018998 0 0.000176115 0.00016303
0 0.000197797 0.000175307 0 0.00020607 0.000147135
0 0.000226874 0.000160045 0 0.000236193 0.000130638
0 0.000255249 0.000144737 0 0.000265562 0.000114123
0 0.000282005 0.000129927 0 0.000293219 9.81745e-05
0 0.000306227 0.000116137 0 0.000318215 8.33564e-05
0 0.000327042 0.000103849 0 0.000339641 7.01896e-05
0 0.000343658 9.34879e-05 0 0.000356677 5.91341e-05
0 0.000355407 8.54057e-05 0 0.000368627 5.05708e-05
0 0.000361759 7.9868e-05 0 0.000374944 4.47883e-05
0 0.000362342 7.70466e-05 0 0.000375242 4.19734e-05
0 0.00035694 7.70131e-05 0 0.000369298 4.2206e-05
0 0.0003455 7.9737e-05 0 0.000357058 4.54561e-05
0 0.000328127 8.50852e-05 0 0.000338635 5.1584e-05
0 0.000305088 9.28256e-05 0 0.00031431 6.03433e-05
0 0.000276808 0.000102632 0 0.000284506 7.13882e-05
0 0.000244193 0.000113963 0 0.000247801 8.46678e-05
0 0.000206309 0.000126672 0 0.000208019 9.90685e-05
0 0.000165374 0.000139987 0 0.000165194 0.000114094
0 0.000122361 0.000153322 0 0.000120429 0.000129158
0 7.83618e-05 0.000166009 0 7.43537e-05 0.000143621
0 3.40966e-05 0.000177454 0 2.80588e-05 0.00015684
0 -7.44652e-06 0.0001866 0 -1.72168e-05 0.000168156
0 -4.66992e-05 0.000193257 0 -6.1306e-05 0.000177112
0 -8.39342e-05 0.000197116 0 -0.000102644 0.000182922
0 -0.000118626 0.00019762 0 -0.000140547 0.000184971
0 -0.000149447 0.000194191 0 -0.000174524 0.000183049
0 -0.00017578 0.000186815 0 -0.000203897 0.000177014
0 -0.000199068 0.000175661 0 -0.000228402 0.000166545
0 -0.0002172 0.000160315 0 -0.000246902 0.000151446
0 -0.000229118 0.000140578 0 -0.000259661 0.000131903
0 -0.000235022 0.000116671 0 -0.000266387 0.000107992
0 -0.000235341 8.89467e-05 0 -0.000267013 7.98969e-05
0 -0.000230078 5.76517e-05 0 -0.000261807 4.79136e-05
0 -0.000219366 2.31623e-05 0 -0.0002512 1.26962e-05
0 -0.000203821 -1.38368e-05 0 -0.000235644 -2.52636e-05
0 -0.000184115 -5.27053e-05 0 -0.000215734 -6.5301e-05
0 -0.000160857 -9.27679e-05 0 -0.000192231 -0.000106651
0 -0.000134809 -0.000133274 0 -0.000165986 -0.000148495
0 -0.000106902 -0.000173409 0 -0.000137895 -0.000190004
0 -7.80975e-05 -0.000212356 0 -0.000108939 -0.000230329
0 -4.93645e-05 -0.000249314 0 -8.01624e-05 -0.000268609
0 -2.17238e-05 -0.000283494 0 -5.26176e-05 -0.000304007
0 3.82497e-06 -0.000314148 0 -2.73233e-05 -0.000335735
0 2.6258e-05 -0.00033994 0 -5.33207e-06 -0.000362104
0 4.4366e-05 -0.000356283 0 1.17099e-05 -0.000377007
0 5.80208e-05 -0.000369235 0 2.44436e-05 -0.000390367
0 6.65233e-05 -0.000377722 0 3.19395e-05 -0.00039875
0 6.95185e-05 -0.000381667 0 3.35295e-05 -0.000402396
0 6.65663e-05 -0.000381217 0 2.91665e-05 -0.000401583
0 5.75529e-05 -0.000375366 0 1.85265e-05 -0.000395111
0 4.25702e-05 -0.000364052 0 1.67052e-06 -0.000382711
0 2.18653e-05 -0.00034749 0 -2.10055e-05 -0.000364861
0 -4.04061e-06 -0.000326056 0 -4.90515e-05 -0.000341973
0 -3.44884e-05 -0.000300314 0 -8.18058e-05 -0.000314567
0 -6.87022e-05 -0.000270954 0 -0.00011847 -0.000283297
0 -0.000105818 -0.000238694 0 -0.000158131 -0.000248944
0 -0.000144893 -0.000204271 0 -0.000199816 -0.000212359
0 -0.000184948 -0.00016848 0 -0.000242521 -0.000174409
0 -0.000224994 -0.000132184 0 -0.000285226 -0.000135956
0 -0.000264068 -9.62507e-05 0 -0.00032693 -9.78668e-05
0 -0.000301249 -6.14985e-05 0 -0.000366668 -6.10147e-05
0 -0.000335685 -2.86816e-05 0 -0.000403544 -2.62397e-05
0 -0.000366612 1.49214e-06 0 -0.00043675 5.69328e-06
0 -0.00039201 2.81708e-05 0 -0.000463049 3.37953e-05
0 -0.00041043 5.11198e-05 0 -0.000467556 5.39734e-05
0 -0.000427652 7.05515e-05 0 -0.00047834 7.19513e-05
0 -0.000440704 8.52854e-05 0 -0.000483415 8.54403e-05
0 -0.000448687 9.50947e-05 0 -0.000488321 9.42062e-05
0 -0.000451467 9.95734e-05 0 -0.000492285 9.96964e-05
0 -0.000449203 9.95249e-05 0 -0.000490543 9.96613e-05
0 -0.000441618 9.46687e-05 0 -0.000483207 9.45929e-05
0 -0.00042863 8.50544e-05 0 -0.000470342 8.44731e-05
0 -0.000410524 7.0867e-05 0 -0.000452391 6.97306e-05
0 -0.000387985 5.25875e-05 0 -0.00042976 5.06892e-05
0 -0.00036158 3.07522e-05 0 -0.000403057 2.78332e-05
0 -0.000331876 5.88964e-06 0 -0.000373015 1.78361e-06
0 -0.000299645 -2.14106e-05 0 -0.000340387 -2.67989e-05
0 -0.000265763 -5.04749e-05 0 -0.000305978 -5.72122e-05
0 -0.000231063 -8.05727e-05 0 -0.000270667 -8.87141e-05
0 -0.000196387 -0.000110958 0 -0.000235351 -0.00012054
0 -0.000162612 -0.000140903 0 -0.000200903 -0.000151926
0 -0.000130583 -0.000169715 0 -0.000168167 -0.000182121
0 -0.000101071 -0.000196729 0 -0.000137956 -0.000210417
0 -7.47829e-05 -0.000221316 0 -0.000111012 -0.000236163
0 -5.23548e-05 -0.000242911 0 -8.79915e-05 -0.000258778
0 -3.43225e-05 -0.000261046 0 -6.945e-05 -0.000277761
0 -2.11058e-05 -0.000275344 0 -5.58352e-05 -0.000292701
0 -1.30114e-05 -0.000285519 0 -4.74722e-05 -0.000303294
0 -1.02377e-05 -0.000291383 0 -4.45572e-05 -0.000309351
0 -1.35931e-05 -0.000292754 0 -4.79912e-05 -0.000310685
0 -2.2988e-05 -0.000289712 0 -5.77611e-05 -0.000307275
0 -3.81022e-05 -0.000282435 0 -7.35125e-05 -0.000299353
0 -5.84648e-05 -0.000271206 0 -9.47574e-05 -0.000287219
0 -8.34502e-05 -0.000256409 0 -0.000120849 -0.000271306
0 -0.000112302 -0.000238534 0 -0.000150989 -0.000252134
0 -0.000144154 -0.00021816 0 -0.000184272 -0.000230309
0 -0.000178064 -0.000195915 0 -0.000219715 -0.000206503
0 -0.000213045 -0.000172462 0 -0.000256285 -0.000181432
0 -0.000248095 -0.000148486 0 -0.000292933 -0.000155832
0 -0.000282225 -0.00012468 0 -0.000328623 -0.000130439
0 -0.000314479 -0.000101719 0 -0.000362351 -0.00010597
0 -0.000343958 -8.02422e-05 0 -0.000393177 -8.31057e-05
0 -0.000369846 -6.08307e-05 0 -0.000420243 -6.24682e-05
0 -0.000391422 -4.39997e-05 0 -0.000442793 -4.46078e-05
0 -0.000408078 -3.01849e-05 0 -0.000460191 -2.99869e-05
0 -0.000419334 -1.97294e-05 0 -0.000471932 -1.8969e-05
0 -0.00042485 -1.28723e-05 0 -0.000477661 -1.1809e-05
0 -0.000424441 -9.74283e-06 0 -0.000477185 -8.64625e-06
0 -0.000418094 -1.03577e-05 0 -0.000470492 -9.49878e-06
0 -0.000405976 -1.46199e-05 0 -0.000457756 -1.42619e-05
0 -0.000388439 -2.23213e-05 0 -0.000439343 -2.27118e-05
0 -0.000366008 -3.31482e-05 0 -0.000415801 -3.45127e-05
0 -0.000339361 -4.66945e-05 0 -0.000387835 -4.92296e-05
0 -0.000309286 -6.24781e-05 0 -0.000356263 -6.63458e-05
0 -0.00027664 -7.99573e-05 0 -0.000321982 -8.52812e-05
0 -0.000242332 -9.85473e-05 0 -0.000285936 -0.000105411
0 -0.000207286 -0.000117638 0 -0.000249095 -0.000126082
0 -0.000172429 -0.000136613 0 -0.000212422 -0.000146638
0 -0.000138656 -0.000154867 0 -0.000176857 -0.00016643
0 -0.000106823 -0.000171819 0 -0.000143292 -0.00018484
0 -7.7712e-05 -0.000186937 0 -0.000112548 -0.000201295
0 -5.2008e-05 -0.000199745 0 -8.53403e-05 -0.00021529
0 -3.02582e-05 -0.000209845 0 -6.22426e-05 -0.000226397
0 -1.2841e-05 -0.000216925 0 -4.36547e-05 -0.000234286
0 5.27399e-08 -0.000220772 0 -2.97828e-05 -0.000238729
0 8.40995e-06 -0.000221267 0 -2.06494e-05 -0.000239605
0 1.23669e-05 -0.000218387 0 -1.61217e-05 -0.000236894
0 1.21752e-05 -0.0002122 0 -1.59463e-05 -0.00023067
0 8.1708e-06 -0.000202853 0 -1.97795e-05 -0.000221096
0 7.51789e-07 -0.000190567 0 -2.72103e-05 -0.00020841
0 -9.63328e-06 -0.000175632 0 -3.77724e-05 -0.000192918
0 -2.24912e-05 -0.000158392 0 -5.09504e-05 -0.000174991
0 -3.72908e-05 -0.000139242 0 -6.61873e-05 -0.000155047
0 -5.34738e-05 -0.000118613 0 -8.28965e-05 -0.000133546
0 -7.04666e-05 -9.69656e-05 0 -0.000100474 -0.000110977
0 -8.76875e-05 -7.47746e-05 0 -0.000118307 -8.78451e-05
0 -0.000104552 -5.2522e-05 0 -0.00013578 -6.46605e-05
0 -0.000120487 -3.06825e-05 0 -0.000152289 -4.19275e-05
0 -0.00013496 -9.71105e-06 0 -0.000167271 -2.0129e-05
0 -0.000147486 9.86297e-06 0 -0.00018021 9.44125e-08
0 -0.000157624 2.71834e-05 0 -0.000190589 1.78092e-05
0 -0.000165116 4.26689e-05 0 -0.000198239 3.37576e-05
0 -0.000169694 5.59618e-05 0 -0.000202804 4.72674e-05
0 -0.000171849 6.70935e-05 0 -0.000199307 5.74313e-05
0 -0.000167026 7.52316e-05 0 -0.000193382 6.49699e-05
0 -0.000158571 8.06884e-05 0 -0.000184077 7.0157e-05
0 -0.000146885 8.358e-05 0 -0.000171883 7.25782e-05
0 -0.000132671 8.40683e-05 0 -0.000156304 7.24526e-05
0 -0.000115696 8.22805e-05 0 -0.00013786 6.98743e-05
0 -9.60563e-05 7.83562e-05 0 -0.000116909 6.50799e-05
0 -7.43331e-05 7.25214e-05 0 -9.37724e-05 5.82536e-05
0 -5.28434e-05 6.52515e-05 0 -7.46336e-05 5.07667e-05
0 -3.18762e-05 5.67081e-05 0 -5.2602e-05 4.17882e-05
0 -9.92973e-06 4.7252e-05 0 -3.02282e-05 3.14291e-05
0 1.29847e-05 3.69491e-05 0 -7.23664e-06 2.04069e-05
0 3.62361e-05 2.62546e-05 0 1.5913e-05 8.91667e-06
0 5.9057e-05 1.55237e-05 0 3.89872e-05 -2.5719e-06
0 8.12338e-05 5.10193e-06 0 6.14455e-05 -1.37585e-05
0 0.000102761 -4.70153e-06 0 8.33953e-05 -2.42981e-05
0 0.000125195 -1.37474e-05 0 0.000108608 -3.49004e-05
0 0.000146074 -2.16554e-05 0 0.000129836 -4.34169e-05
0 0.00016401 -2.77965e-05 0 0.000149086 -5.05284e-05
0 0.000179013 -3.20898e-05 0 0.000165297 -5.55292e-05
0 0.000191097 -3.43485e-05 0 0.000178306 -5.83472e-05
0 0.000200001 -3.4408e-05 0 0.000187947 -5.88145e-05
0 0.000205441 -3.21786e-05 0 0.000194176 -5.69148e-05
0 0.000207467 -2.7712e-05 0 0.000196918 -5.26199e-05
0 0.00020622 -2.10877e-05 0 0.000196202 -4.59793e-05
0 0.000201787 -1.2392e-05 0 0.0001922 -3.7139e-05
0 0.000194348 -1.79042e-06 0 0.000185158 -2.63027e-05
0 0.000184234 1.03933e-05 0 0.000175365 -1.3721e-05
0 0.000171846 2.35577e-05 0 0.00016323 -1.96556e-07
0 0.000157511 3.78033e-05 0 0.000149106 1.45374e-05
0 0.00014168 5.27399e-05 0 0.000133453 2.9959e-05
0 0.000124829 6.8006e-05 0 0.000116784 4.57703e-05
0 0.000107481 8.32331e-05 0 9.96177e-05 6.15376e-05
0 9.01531e-05 9.80413e-05 0 8.25023e-05 7.68789e-05
0 7.33757e-05 0.000112059 0 6.59861e-05 9.13942e-05
0 5.76724e-05 0.000124926 0 5.06034e-05 0.000104707
0 4.35366e-05 0.000136308 0 3.68617e-05 0.000116462
0 3.13938e-05 0.000145912 0 2.52217e-05 0.000126342
0 2.16552e-05 0.000153481 0 1.61067e-05 0.00013407
0 1.46873e-05 0.0001588 0 9.88017e-06 0.000139427
0 1.07821e-05 0.000161712 0 6.7093e-06 0.000142273
0 1.01911e-05 0.000162114 0 6.98103e-06 0.00014248
0 1.31044e-05 0.000159931 0 1.08177e-05 0.000139961
0 1.96096e-05 0.00015517 0 1.83273e-05 0.000134707
0 2.97046e-05 0.000147936 0 2.94764e-05 0.00012684
0 4.32718e-05 0.000138401 0 4.41417e-05 0.000116539
0 6.00907e-05 0.000126806 0 6.2087e-05 0.000104061
0 7.98386e-05 0.000113457 0 8.29738e-05 8.97252e-05
0 0.000102095 9.87172e-05 0 0.000106369 7.39116e-05
0 0.000126352 8.29951e-05 0 0.000131753 5.70505e-05
0 0.000152029 6.67336e-05 0 0.000158537 3.96109e-05
0 0.000178494 5.03998e-05 0 0.000186079 2.20858e-05
0 0.00020509 3.44712e-05 0 0.000213715 4.97712e-06
0 0.000231151 1.94244e-05 0 0.00024087 -1.12331e-05
0 0.000256047 5.71646e-06 0 0.000266837 -2.60629e-05
0 0.000279223 -6.24668e-06 0 0.000290873 -3.90239e-05
0 0.000300179 -1.60996e-05 0 0.000312374 -4.97008e-05
0 0.00031837 -2.3488e-05 0 0.00033131 -5.78388e-05
0 0.000333429 -2.81428e-05 0 0.000346978 -6.3115e-05
0 0.000345076 -2.98745e-05 0 0.000359151 -6.53115e-05
0 0.000353132 -2.85689e-05 0 0.000367589 -6.42944e-05
0 0.000357464 -2.41741e-05 0 0.000372207 -6.00141e-05
0 0.000358063 -1.67155e-05 0 0.000372988 -5.25033e-05
0 0.000355027 -6.29956e-06 0 0.000370014 -4.18697e-05
0 0.00034852 6.8957e-06 0 0.000363439 -2.82956e-05
0 0.000338789 2.26213e-05 0 0.000353528 -1.20383e-05
0 0.000326176 4.05653e-05 0 0.000340634 6.57086e-06
0 0.000311093 6.03607e-05 0 0.000325174 2.71478e-05
0 0.000294003 8.15963e-05 0 0.000307624 4.92565e-05
0 0.000275416 0.000103725 0 0.00028851 7.24081e-05
0 0.000255937 0.000125733 0 0.000268501 9.51551e-05
0 0.00023605 0.000147904 0 0.000248037 0.000118316
0 0.000216349 0.000169661 0 0.000227731 0.000140898
0 0.000197375 0.000190533 0 0.00020816 0.000162651
0 0.00017966 0.000210116 0 0.000189849 0.000183029
0 0.000163668 0.000228011 0 0.000173282 0.000201659
0 0.000149816 0.00024386 0 0.000158888 0.000218154
0 0.000138461 0.000257343 0 0.000147033 0.000232197
0 0.000130338 0.000268139 0 0.000138396 0.000243468
0 0.000125721 0.00027608 0 0.000133447 0.000251702
0 0.000124744 0.000281053 0 0.000132277 0.000256799
0 0.000127436 0.000283012 0 0.000134918 0.000258712
0 0.000133695 0.000281969 0 0.000141258 0.000257484
0 0.000143261 0.000277981 0 0.000151038 0.000253143
0 0.000155706 0.00027127 0 0.000163813 0.000245936
0 0.000170475 0.000262116 0 0.000179003 0.000236154
0 0.000186929 0.000250848 0 0.000195946 0.000224167
0 0.000204382 0.00023784 0 0.000213932 0.000210382
0 0.000222135 0.000223499 0 0.000232235 0.000195235
0 0.000239484 0.000208252 0 0.000250123 0.000179178
0 0.000255736 0.000192526 0 0.000266875 0.000162666
0 0.000270219 0.000176733 0 0.000281793 0.000146148
0 0.000282323 0.000161265 0 0.000294241 0.000130045
0 0.000291528 0.000146476 0 0.000303677 0.000114736
0 0.000297413 0.000132676 0 0.000309662 0.000100547
0 0.00029965 0.000120123 0 0.000311853 8.77502e-05
0 0.000297991 0.000109014 0 0.000309989 7.65572e-05
0 0.000292273 9.94862e-05 0 0.000303902 6.71144e-05
0 0.000282436 9.16123e-05 0 0.000293527 5.94973e-05
0 0.00026853 8.53962e-05 0 0.000278919 5.37072e-05
0 0.000250734 8.07725e-05 0 0.000260262 4.96714e-05
0 0.00022935 7.76087e-05 0 0.000237873 4.72445e-05
0 0.000204808 7.57107e-05 0 0.000212196 4.62146e-05
0 0.000177639 7.48316e-05 0 0.000183783 4.63118e-05
0 0.000148455 7.4683e-05 0 0.000153268 4.7221e-05
0 0.000117916 7.49463e-05 0 0.000121336 4.85955e-05
0 8.66989e-05 7.5287e-05 0 8.86907e-05 5.00715e-05
0 5.54711e-05 7.53675e-05 0 5.60237e-05 5.1283e-05
0 2.48666e-05 7.48597e-05 0 2.39955e-05 5.18744e-05
0 -4.52314e-06 7.34551e-05 0 -6.77775e-06 5.15116e-05
0 -3.21233e-05 7.08696e-05 0 -3.56745e-05 4.98852e-05
0 -5.64629e-05 6.67269e-05 0 -5.72177e-05 4.55579e-05
0 -7.62746e-05 6.04661e-05 0 -7.78896e-05 3.96323e-05
0 -9.32889e-05 5.24772e-05 0 -9.50903e-05 3.20804e-05
0 -0.000107783 4.28817e-05 0 -0.000109374 2.2605e-05
0 -0.000120371 3.17234e-05 0 -0.000121096 1.13358e-05
0 -0.000132515 1.96482e-05 0 -0.000134418 -1.70535e-07
0 -0.000141615 5.92204e-06 0 -0.000142909 -1.39257e-05
0 -0.000147687 -9.37808e-06 0 -0.00014924 -2.9136e-05
0 -0.000150875 -2.6054e-05 0 -0.000152503 -4.5951e-05
0 -0.000151177 -4.39664e-05 0 -0.000153116 -6.40042e-05
0 -0.000148802 -6.29123e-05 0 -0.000150936 -8.31444e-05
0 -0.000144037 -8.26113e-05 0 -0.000146776 -0.000103032
0 -0.000136903 -0.000102832 0 -0.000140266 -0.000123414
0 -0.000127724 -0.000123184 0 -0.000131599 -0.000144129
0 -0.000117016 -0.000143326 0 -0.000121134 -0.000164696
0 -0.000104911 -0.000162951 0 -0.000109214 -0.000184805
0 -9.1743e-05 -0.000181716 0 -9.63102e-05 -0.000204033
0 -7.79833e-05 -0.000199239 0 -8.28637e-05 -0.000222006
0 -6.41304e-05 -0.00021514 0 -6.93385e-05 -0.000238352
0 -5.06261e-05 -0.000229085 0 -5.62184e-05 -0.0002527
0 -3.79008e-05 -0.000240762 0 -4.39762e-05 -0.000264706
0 -2.63986e-05 -0.000249881 0 -3.30494e-05 -0.000274069
0 -1.65321e-05 -0.000256188 0 -2.3848e-05 -0.000280527
0 -8.66165e-06 -0.000259483 0 -1.67514e-05 -0.000283868
0 -3.11178e-06 -0.0002596 0 -1.20917e-05 -0.000283915
0 -1.69542e-07 -0.000256378 0 -1.01543e-05 -0.000280462
0 -4.66255e-08 -0.000249801 0 -1.1141e-05 -0.000273508
0 -2.87294e-06 -0.000239915 0 -1.51778e-05 -0.000263092
0 -8.69367e-06 -0.000226837 0 -2.23013e-05 -0.000249341
0 -1.74644e-05 -0.000210758 0 -3.24534e-05 -0.000232451
0 -2.90435e-05 -0.000191943 0 -4.5481e-05 -0.000212693
0 -4.31957e-05 -0.000170717 0 -6.11386e-05 -0.000190408
0 -5.96004e-05 -0.000147462 0 -7.90939e-05 -0.000165997
0 -7.7863e-05 -0.000122612 0 -9.89407e-05 -0.000139914
0 -9.75322e-05 -9.66375e-05 0 -0.000120217 -0.000112651
0 -0.000118118 -7.00404e-05 0 -0.000142421 -8.47308e-05
0 -0.00013911 -4.33356e-05 0 -0.00016503 -5.66923e-05
0 -0.000159996 -1.70407e-05 0 -0.000187517 -2.90785e-05
0 -0.000180275 8.33531e-06 0 -0.000209366 -2.423e-06
0 -0.000199469 3.23024e-05 0 -0.000230085 2.27619e-05
0 -0.000217111 5.41311e-05 0 -0.000249181 4.55848e-05
0 -0.00023282 7.3443e-05 0 -0.000266232 6.58247e-05
0 -0.000246274 9.02371e-05 0 -0.000280998 8.34799e-05
0 -0.000257224 0.000104172 0 -0.000293132 9.81296e-05
0 -0.000265446 0.000114994 0 -0.000302446 0.000109556
0 -0.000270815 0.000122546 0 -0.000308797 0.000117572
0 -0.000273282 0.000126732 0 -0.000312132 0.000122077
0 -0.000272868 0.000127508 0 -0.000312474 0.000123035
0 -0.000269666 0.00012483 0 -0.000309917 0.0001204
0 -0.000263855 0.000118799 0 -0.00030464 0.000114272
0 -0.00025569 0.000109589 0 -0.000296907 0.000104827
0 -0.000245495 9.74342e-05 0 -0.000287047 9.2313e-05
0 -0.000233652 8.26163e-05 0 -0.000275449 7.70321e-05
0 -0.000220584 6.5465e-05 0 -0.000262535 5.9333e-05
0 -0.000206744 4.64371e-05 0 -0.000248773 3.96299e-05
0 -0.000192598 2.5979e-05 0 -0.000234697 1.86612e-05
0 -0.000178617 4.38022e-06 0 -0.000220716 -3.61498e-06
0 -0.000165253 -1.79604e-05 0 -0.000207359 -2.65761e-05
0 -0.000152967 -4.06136e-05 0 -0.00019508 -4.98412e-05
0 -0.000142189 -6.31808e-05 0 -0.000184331 -7.29671e-05
0 -0.000133493 -8.52593e-05 0 -0.000175504 -9.55695e-05
0 -0.000128998 -0.000106209 0 -0.000170824 -0.000117075
0 -0.000126562 -0.000126213 0 -0.000168741 -0.000137231
0 -0.000126448 -0.000144892 0 -0.000169028 -0.000156078
0 -0.000128868 -0.000162017 0 -0.000171823 -0.000173249
0 -0.000133859 -0.000177413 0 -0.000177247 -0.000188675
0 -0.000141348 -0.000191018 0 -0.000185297 -0.000202172
0 -0.00015123 -0.000202774 0 -0.00019586 -0.00021368
0 -0.000163413 -0.000212637 0 -0.000208689 -0.000223208
0 -0.000177754 -0.000220598 0 -0.000223647 -0.000230809
0 -0.000193984 -0.00022675 0 -0.000240553 -0.00023651
0 -0.000211818 -0.000231212 0 -0.000259102 -0.000240447
0 -0.00023104 -0.000234116 0 -0.000279182 -0.000242733
0 -0.000251423 -0.00023562 0 -0.000300524 -0.000243539
0 -0.000272519 -0.000235929 0 -0.000322601 -0.00024312
0 -0.000293872 -0.000235276 0 -0.000344936 -0.000241716
0 -0.000315047 -0.000233901 0 -0.000367087 -0.000239588
0 -0.000335632 -0.000232046 0 -0.00038862 -0.000236993
0 -0.000355215 -0.000229954 0 -0.000409096 -0.000234194
0 -0.000373363 -0.000227862 0 -0.000428061 -0.000231446
0 -0.000389647 -0.000225995 0 -0.000445069 -0.000228992
0 -0.000403666 -0.000224555 0 -0.000459701 -0.000227051
0 -0.000415064 -0.000223713 0 -0.000471584 -0.00022581
0 -0.000423539 -0.000223608 0 -0.000480406 -0.000225417
0 -0.000428859 -0.000224335 0 -0.000485927 -0.000225978
0 -0.000430862 -0.000225943 0 -0.000487981 -0.000227547
0 -0.000429457 -0.000228439 0 -0.000486463 -0.000230135
0 -0.000424644 -0.000231775 0 -0.000481386 -0.000233694
0 -0.000416515 -0.000235859 0 -0.000472845 -0.000238126
0 -0.000405251 -0.000240548 0 -0.000461032 -0.000243279
0 -0.000391131 -0.000245657 0 -0.000446243 -0.000248956
0 -0.000374546 -0.000250957 0 -0.000428886 -0.000254912
0 -0.000355985 -0.000256187 0 -0.000409469 -0.000260867
0 -0.000336019 -0.000261062 0 -0.000388584 -0.000266511
0 -0.000315257 -0.000265286 0 -0.000366862 -0.000271523
0 -0.000294312 -0.000268549 0 -0.000344939 -0.00027557
0 -0.000273767 -0.000270571 0 -0.00032342 -0.000278341
0 -0.000254145 -0.000271097 0 -0.000302846 -0.000279563
0 -0.000235897 -0.000269908 0 -0.00028369 -0.000278996
0 -0.000219404 -0.000266827 0 -0.000266346 -0.000276449
0 -0.000204974 -0.000261726 0 -0.000251139 -0.000271781
0 -0.000192838 -0.000254527 0 -0.000238311 -0.000264903
0 -0.000183149 -0.000245208 0 -0.00022802 -0.000255789
0 -0.000175981 -0.000233801 0 -0.000220344 -0.000244468
0 -0.000171326 -0.000220396 0 -0.000215275 -0.000231032
0 -0.000169096 -0.000205136 0 -0.00021272 -0.000215631
0 -0.000169124 -0.000188218 0 -0.000212505 -0.000198468
0 -0.000171168 -0.000169884 0 -0.000214375 -0.000179801
0 -0.000174922 -0.000150419 0 -0.00021801 -0.000159929
0 -0.000180019 -0.000130142 0 -0.000223025 -0.000139191
0 -0.000186046 -0.000109399 0 -0.00022899 -0.000117951
0 -0.00019255 -8.85534e-05 0 -0.000235429 -9.65945e-05
0 -0.000199051 -6.79756e-05 0 -0.000241845 -7.55159e-05
0 -0.000205054 -4.80357e-05 0 -0.000247719 -5.51079e-05
0 -0.00021006 -2.90918e-05 0 -0.000252533 -3.57511e-05
0 -0.000214177 -7.32104e-06 0 -0.000256295 -1.35756e-05
0 -0.000215109 1.17896e-05 0 -0.000256712 5.78037e-06
0 -0.000212137 2.76944e-05 0 -0.000253042 2.16909e-05
0 -0.00020476 3.96794e-05 0 -0.000244713 3.32956e-05
0 -0.000192856 4.81602e-05 0 -0.000231712 4.13411e-05
0 -0.000176537 5.31156e-05 0 -0.000214069 4.56374e-05
0 -0.000156099 5.46879e-05 0 -0.000192127 4.63735e-05
0 -0.000132015 5.31407e-05 0 -0.000166364 4.3822e-05
0 -0.000104862 4.88591e-05 0 -0.000137388 3.83779e-05
0 -7.53538e-05 4.22884e-05 0 -0.000105946 3.0543e-05
0 -4.44712e-05 3.39784e-05 0 -7.1052e-05 2.06254e-05
0 -1.04578e-05 2.44526e-05 0 -3.42887e-05 8.79804e-06
0 2.119e-05 1.42706e-05 0 -4.34e-06 -1.08577e-06
0 4.99019e-05 4.56946e-06 0 2.51378e-05 -1.21377e-05
0 7.67462e-05 -4.31666e-06 0 5.27665e-05 -2.18703e-05
0 0.00010112 -1.18521e-05 0 7.7238e-05 -3.0239e-05
0 0.000121791 -1.74649e-05 0 9.86235e-05 -3.6647e-05
0 0.000140843 -2.11609e-05 0 0.000121256 -4.16848e-05
0 0.000157456 -2.2576e-05 0 0.000138864 -4.37913e-05
0 0.000169204 -2.10671e-05 0 0.000152337 -4.31775e-05
0 0.000176065 -1.68974e-05 0 0.000161086 -3.94243e-05
0 0.000178774 -1.01059e-05 0 0.000165086 -3.3002e-05
0 0.000177205 -6.65316e-07 0 0.000164762 -2.37682e-05
0 0.000171743 1.10953e-05 0 0.000160548 -1.20946e-05
0 0.000163123 2.47337e-05 0 0.000152904 1.67044e-06
0 0.000151839 3.98704e-05 0 0.000142528 1.70136e-05
0 0.000138604 5.59819e-05 0 0.000130173 3.33779e-05
0 0.000124294 7.24573e-05 0 0.000116639 5.01808e-05
0 0.000109705 8.8719e-05 0 0.000102805 6.67911e-05
0 9.5672e-05 0.000104198 0 8.95322e-05 8.25811e-05
0 8.30273e-05 0.000118323 0 7.76406e-05 9.69688e-05
0 7.24944e-05 0.000130584 0 6.78902e-05 0.000109418
0 6.47031e-05 0.000140551 0 6.09318e-05 0.000119469
0 6.01678e-05 0.000147884 0 5.72837e-05 0.000126759
0 5.92476e-05 0.000152345 0 5.73235e-05 0.000131034
0 6.21486e-05 0.000153805 0 6.12688e-05 0.000132164
0 6.89258e-05 0.000152257 0 6.91773e-05 0.000130134
0 7.95016e-05 0.000147751 0 8.09752e-05 0.000124979
0 9.36753e-05 0.000140503 0 9.64525e-05 0.00011693
0 0.000111127 0.000130846 0 0.000115271 0.000106336
0 0.000131417 0.000119212 0 0.000136967 9.36546e-05
0 0.00015399 0.00010612 0 0.00016096 7.94287e-05
0 0.000178191 9.21513e-05 0 0.000186569 6.42735e-05
0 0.000203283 7.7934e-05 0 0.000213031 4.88522e-05
0 0.000228466 6.4118e-05 0 0.000239523 3.38505e-05
0 0.000252896 5.1352e-05 0 0.000265185 1.99509e-05
0 0.000275728 4.02543e-05 0 0.00028916 7.80605e-06
0 0.00029616 3.13854e-05 0 0.000310642 -1.99209e-06
0 0.00031349 2.52214e-05 0 0.000328924 -8.941e-06
0 0.000327163 2.2131e-05 0 0.00034345 -1.26518e-05
0 0.000336798 2.23579e-05 0 0.000353836 -1.28666e-05
0 0.000342213 2.60091e-05 0 0.000359897 -9.47079e-06
0 0.000343433 3.30511e-05 0 0.000361654 -2.49745e-06
0 0.000340664 4.3315e-05 0 0.000359313 7.87665e-06
0 0.000334285 5.65042e-05 0 0.000353252 2.13407e-05
0 0.000324818 7.22086e-05 0 0.000343996 3.74644e-05
0 0.000312899 8.99239e-05 0 0.000332174 5.57211e-05
0 0.000299293 0.000108575 0 0.000318563 7.49811e-05
0 0.000284711 0.000127995 0 0.00030393 9.50066e-05
0 0.00027223 0.000147253 0 0.000290427 0.000115072
0 0.000259807 0.000166323 0 0.00027806 0.000134553
0 0.000247972 0.000184541 0 0.000266144 0.000153257
0 0.00023742 0.000201373 0 0.000255381 0.000170609
0 0.000228511 0.000216401 0 0.000246192 0.000186101
0 0.000221709 0.000229256 0 0.000239095 0.000199329
0 0.000218568 0.000239414 0 0.000235643 0.000209768
0 0.000219254 0.000246724 0 0.000236147 0.000217193
0 0.000223637 0.000251133 0 0.000240495 0.000221532
0 0.000231374 0.000252693 0 0.000248298 0.000222891
0 0.000241879 0.000251585 0 0.00025896 0.000221466
0 0.000254381 0.000248059 0 0.000271695 0.000217506
0 0.000267958 0.0002425 0 0.000285538 0.000211444
0 0.00028158 0.000235355 0 0.000299429 0.000203771
0 0.000294193 0.000227104 0 0.000312281 0.000195013
0 0.000304809 0.000218226 0 0.000323069 0.000185683
0 0.000312579 0.00020916 0 0.000330914 0.000176257
0 0.000316856 0.000200276 0 0.000335145 0.00016714
0 0.000317236 0.000191866 0 0.000335337 0.000158642
0 0.000313528 0.000184134 0 0.000331288 0.000150973
0 0.00030571 0.000177194 0 0.000322968 0.000144252
0 0.000293877 0.000171077 0 0.00031047 0.000138508
0 0.000278223 0.000165732 0 0.000293992 0.000133686
0 0.000259063 0.000161035 0 0.000273862 0.000129644
0 0.000236855 0.000156784 0 0.000250552 0.000126165
0 0.000212175 0.000152718 0 0.000224658 0.000122963
0 0.000185678 0.000148536 0 0.000196861 0.000119707
0 0.000158077 0.00014391 0 0.000167899 0.000116041
0 0.000130121 0.000138505 0 0.000138547 0.000111597
0 0.000102568 0.000131998 0 0.000109592 0.000106024
0 7.61314e-05 0.000124103 0 8.17682e-05 9.90058e-05
0 5.13849e-05 0.000114599 0 5.56712e-05 9.02947e-05
0 2.86982e-05 0.00010334 0 3.16851e-05 7.97324e-05
0 8.75507e-06 9.01929e-05 0 1.11242e-05 6.71049e-05
0 -1.20482e-05 7.59528e-05 0 -7.80794e-06 5.20096e-05
0 -3.10575e-05 5.93205e-05 0 -2.80134e-05 3.63971e-05
0 -4.8711e-05 4.1052e-05 0 -4.60942e-05 1.83094e-05
0 -6.4121e-05 2.14287e-05 0 -6.15925e-05 -1.33822e-06
0 -7.69127e-05 1.06416e-06 0 -7.49885e-05 -2.12965e-05
0 -8.76282e-05 -2.05747e-05 0 -8.60843e-05 -4.28172e-05
0 -9.61709e-05 -4.31304e-05 0 -9.49714e-05 -6.52616e-05
0 -0.000103032 -6.61642e-05 0 -0.000104068 -8.79852e-05
0 -0.000109777 -8.93462e-05 0 -0.000111633 -0.000110866
0 -0.00011472 -0.000112395 0 -0.000117478 -0.000133826
0 -0.000117656 -0.000135112 0 -0.000121393 -0.000156492
0 -0.000119206 -0.000157011 0 -0.000123793 -0.000178412
0 -0.000119589 -0.000177762 0 -0.000124782 -0.00019924
0 -0.000118872 -0.000197017 0 -0.000124779 -0.000218522
0 -0.000117463 -0.000214335 0 -0.000123984 -0.000235932
0 -0.000115605 -0.000229396 0 -0.000122678 -0.00025109
0 -0.000113456 -0.000241931 0 -0.00012113 -0.000263666
0 -0.000111279 -0.000251646 0 -0.000119559 -0.000273385
0 -0.000109288 -0.000258309 0 -0.000118202 -0.000280026
0 -0.000107686 -0.000261766 0 -0.000117296 -0.000283396
0 -0.000106708 -0.000261895 0 -0.00011706 -0.00028337
0 -0.000106549 -0.000258557 0 -0.000117686 -0.000279782
0 -0.000107313 -0.000251779 0 -0.000119285 -0.00027267
0 -0.000109027 -0.000241677 0 -0.000121879 -0.000262143
0 -0.000111639 -0.000228445 0 -0.000125418 -0.0002484
0 -0.000115057 -0.000212345 0 -0.000129811 -0.000231711
0 -0.000119179 -0.0001937 0 -0.000134942 -0.00021241
0 -0.000123883 -0.000172888 0 -0.000140673 -0.000190889
0 -0.000129021 -0.000150333 0 -0.000146831 -0.000167588
0 -0.00013441 -0.000126499 0 -0.000153212 -0.000142987
0 -0.000139839 -0.000101876 0 -0.000159582 -0.000117597
0 -0.000145089 -7.69709e-05 0 -0.000165694 -9.19458e-05
0 -0.000149929 -5.22945e-05 0 -0.000171296 -6.6562e-05
0 -0.000154127 -2.83482e-05 0 -0.00017613 -4.19668e-05
0 -0.000157448 -5.61407e-06 0 -0.000179942 -1.86605e-05
0 -0.000159663 1.54578e-05 0 -0.000182487 2.89011e-06
0 -0.000160867 3.43154e-05 0 -0.000183924 2.20285e-05
0 -0.000161009 5.0438e-05 0 -0.000184113 3.83532e-05
0 -0.000159707 6.39928e-05 0 -0.000182785 5.20137e-05
0 -0.000156597 7.46818e-05 0 -0.000179479 6.27288e-05
0 -0.000151364 8.23513e-05 0 -0.000173919 7.02863e-05
0 -0.000143845 8.69217e-05 0 -0.000165933 7.46146e-05
0 -0.000134031 8.84159e-05 0 -0.000155529 7.57438e-05
0 -0.000122094 8.69433e-05 0 -0.00014289 7.37992e-05
0 -0.000108375 8.26915e-05 0 -0.00012837 6.89635e-05
0 -9.33526e-05 7.59373e-05 0 -0.000112465 6.15246e-05
0 -7.75887e-05 6.7054e-05 0 -9.57667e-05 5.18909e-05
0 -6.16684e-05 5.64568e-05 0 -7.88815e-05 4.05116e-05
0 -4.61487e-05 4.45948e-05 0 -6.23921e-05 2.78539e-05
0 -3.15421e-05 3.19232e-05 0 -4.68365e-05 1.43964e-05
0 -1.83233e-05 1.88867e-05 0 -3.27152e-05 6.13019e-07
0 -6.92806e-06 5.9101e-06 0 -2.04866e-05 -1.30456e-05
0 2.26512e-06 -6.58006e-06 0 -1.05452e-05 -2.61511e-05
0 8.96042e-06 -1.82035e-05 0 -3.22145e-06 -3.82262e-05
0 1.29373e-05 -2.87638e-05 0 1.28858e-06 -4.9161e-05
0 1.40586e-05 -3.80468e-05 0 2.81527e-06 -5.87011e-05
0 1.22598e-05 -4.59077e-05 0 1.30951e-06 -6.66881e-05
0 7.59823e-06 -5.22848e-05 0 -3.16789e-06 -7.3079e-05
0 2.7088e-07 -5.7196e-05 0 -1.04038e-05 -7.78928e-05
0 -9.37398e-06 -6.07437e-05 0 -2.00324e-05 -8.12474e-05
0 -2.08404e-05 -6.31001e-05 0 -3.15328e-05 -8.33331e-05
0 -3.35057e-05 -6.45002e-05 0 -4.42543e-05 -8.44121e-05
0 -4.66591e-05 -6.52205e-05 0 -5.74542e-05 -8.47924e-05
0 -5.78851e-05 -6.57365e-05 0 -6.7119e-05 -8.52457e-05
0 -6.4815e-05 -6.65232e-05 0 -7.35224e-05 -8.61579e-05
0 -7.01673e-05 -6.72569e-05 0 -7.79503e-05 -8.70753e-05
0 -7.35252e-05 -6.82701e-05 0 -8.04901e-05 -8.8136e-05
0 -7.5767e-05 -6.93591e-05 0 -8.21995e-05 -8.94212e-05
0 -7.61259e-05 -7.07103e-05 0 -8.23477e-05 -9.06903e-05
0 -7.37416e-05 -7.24213e-05 0 -7.97578e-05 -9.26453e-05
0 -6.82609e-05 -7.45255e-05 0 -7.39999e-05 -9.49569e-05
0 -5.98391e-05 -7.689e-05 0 -6.52947e-05 -9.76485e-05
0 -4.85111e-05 -7.93898e-05 0 -5.36752e-05 -0.000100549
0 -3.4463e-05 -8.18475e-05 0 -3.94254e-05 -0.000103451
0 -1.80947e-05 -8.39993e-05 0 -2.28297e-05 -0.000106102
0 8.31092e-07 -8.56997e-05 0 -4.21037e-06 -0.000108228
0 2.37316e-05 -8.7142e-05 0 2.02686e-05 -0.000110311
0 4.78744e-05 -8.72682e-05 0 4.51564e-05 -0.000111286
0 7.19978e-05 -8.575e-05 0 7.09517e-05 -0.000110938
0 9.61401e-05 -8.24516e-05 0 9.64288e-05 -0.000108382
0 0.000119487 -7.69009e-05 0 0.00012104 -0.000103651
0 0.000141394 -6.88526e-05 0 0.000144279 -9.63898e-05
0 0.000161598 -5.84673e-05 0 0.000165631 -8.6585e-05
0 0.000179651 -4.56838e-05 0 0.000184802 -7.44606e-05
0 0.000195258 -3.02013e-05 0 0.000201424 -5.94688e-05
0 0.000208305 -1.21328e-05 0 0.00021537 -4.1763e-05
0 0.000218757 8.34924e-06 0 0.000226608 -2.1514e-05
0 0.000226687 3.10172e-05 0 0.000235226 1.02803e-06
0 0.000232306 5.55396e-05 0 0.000241409 2.55295e-05
0 0.000235866 8.15177e-05 0 0.000245425 5.15871e-05
0 0.000237664 0.000108505 0 0.000247584 7.87357e-05
0 0.000238033 0.000136023 0 0.000248226 0.000106476
0 0.000237323 0.000163561 0 0.000247715 0.000134279
0 0.000235899 0.000190591 0 0.000246439 0.000161604
0 0.000234141 0.000216591 0 0.000244793 0.000187906
0 0.000232432 0.00024106 0 0.000243174 0.00021266
0 0.000231138 0.000263518 0 0.000241965 0.000235372
0 0.000230586 0.000283537 0 0.000241501 0.000255599
0 0.000231101 0.000299975 0 0.000242064 0.000272795
0 0.000233074 0.000310167 0 0.000244191 0.000283423
0 0.000236124 0.000318134 0 0.000247411 0.000291793
0 0.000240217 0.000323687 0 0.0002517 0.000297378
0 0.000245186 0.0003269 0 0.000256971 0.000300508
0 0.000250915 0.000327776 0 0.000262988 0.000301125
0 0.000257194 0.000326193 0 0.000269583 0.000299298
0 0.000263892 0.000321665 0 0.000276652 0.00029447
0 0.000270825 0.000314359 0 0.000283985 0.000286807
0 0.000277773 0.000304562 0 0.00029137 0.000276533
0 0.000284547 0.000292503 0 0.000298583 0.000263987
0 0.000290959 0.000278472 0 0.000305417 0.000249506
0 0.000296796 0.000262858 0 0.000311651 0.000233421
0 0.000301967 0.000246026 0 0.000317236 0.000216084
0 0.000306338 0.000228332 0 0.000321979 0.000197903
0 0.000309537 0.000210172 0 0.000325491 0.000179318
0 0.000311156 0.000191971 0 0.000327344 0.000160744
0 0.000310813 0.000174113 0 0.000327144 0.000142578
0 0.000308195 0.000156936 0 0.000324562 0.000125188
0 0.000303084 0.000140725 0 0.00031937 0.000108882
0 0.000295388 0.00012571 0 0.000311476 9.38866e-05
0 0.000285158 0.000112046 0 0.00030093 8.03507e-05
0 0.000272595 9.98084e-05 0 0.000287938 6.83496e-05
0 0.000258037 8.90021e-05 0 0.000272847 5.78822e-05
0 0.000241939 7.95737e-05 0 0.000256122 4.88769e-05
0 0.00022484 7.14172e-05 0 0.00023832 4.12055e-05
0 0.00020732 6.43912e-05 0 0.000220037 3.47053e-05
0 0.000189908 5.83412e-05 0 0.000201815 2.92031e-05
0 0.000173012 5.31199e-05 0 0.000184074 2.45351e-05
0 0.000156905 4.85936e-05 0 0.000167103 2.05555e-05
0 0.000141756 4.46457e-05 0 0.000151077 1.71395e-05
0 0.000127647 4.11777e-05 0 0.000136091 1.41834e-05
0 0.000114598 3.81088e-05 0 0.000122168 1.16033e-05
0 0.000102575 3.53742e-05 0 0.000109282 9.33304e-06
0 9.15049e-05 3.29238e-05 0 9.73653e-05 7.3226e-06
0 8.12968e-05 3.07189e-05 0 8.63278e-05 5.53439e-06
0 7.1855e-05 2.87286e-05 0 7.60761e-05 3.93957e-06
0 6.31071e-05 2.69251e-05 0 6.6539e-05 2.51225e-06
0 5.50077e-05 2.53589e-05 0 5.7678e-05 1.24771e-06
0 4.75296e-05 2.41006e-05 0 4.94435e-05 3.52279e-07
0 4.06317e-05 2.29406e-05 0 4.1818e-05 -5.03976e-07
0 3.41721e-05 2.18796e-05 0 3.46374e-05 -1.24533e-06
0 2.7911e-05 2.09316e-05 0 2.76714e-05 -1.89264e-06
0 2.1749e-05 2.00815e-05 0 2.07477e-05 -2.42829e-06
0 1.15794e-05 1.98569e-05 0 1.06559e-05 -2.61389e-06
0 2.24152e-06 1.93528e-05 0 2.09742e-06 -2.95625e-06
0 -6.48192e-06 1.86452e-05 0 -7.5687e-06 -3.22999e-06
0 -1.5166e-05 1.78115e-05 0 -1.61828e-05 -4.0079e-06
0 -2.33309e-05 1.65542e-05 0 -2.45241e-05 -5.015e-06
0 -3.07681e-05 1.48594e-05 0 -3.21378e-05 -6.50068e-06
0 -3.7479e-05 1.26917e-05 0 -3.89105e-05 -8.49891e-06
0 -4.31809e-05 9.97735e-06 0 -4.46536e-05 -1.11127e-05
0 -4.76669e-05 6.65347e-06 0 -4.92012e-05 -1.43511e-05
0 -5.08339e-05 2.71094e-06 0 -5.23836e-05 -1.82654e-05
0 -5.25246e-05 -1.83841e-06 0 -5.40817e-05 -2.28273e-05
0 -5.26642e-05 -6.94711e-06 0 -5.42528e-05 -2.79993e-05
0 -5.12608e-05 -1.2536e-05 0 -5.28585e-05 -3.36951e-05
0 -4.82949e-05 -1.85017e-05 0 -4.98132e-05 -3.9835e-05
0 -4.39117e-05 -2.46901e-05 0 -4.53206e-05 -4.62404e-05
0 -3.83631e-05 -3.09147e-05 0 -3.96002e-05 -5.27333e-05
0 -3.19079e-05 -3.69821e-05 0 -3.29203e-05 -5.9098e-05
0 -2.48249e-05 -4.2683e-05 0 -2.55746e-05 -6.51145e-05
0 -1.74103e-05 -4.78031e-05 0 -1.78547e-05 -7.05629e-05
0 -1.00761e-05 -5.21215e-05 0 -1.01377e-05 -7.522e-05
0 -3.09575e-06 -5.54606e-05 0 -2.79202e-06 -7.88643e-05
0 3.45713e-06 -5.76809e-05 0 4.10851e-06 -8.13564e-05
0 9.55523e-06 -5.86371e-05 0 1.05267e-05 -8.25554e-05
0 1.51588e-05 -5.81902e-05 0 1.64076e-05 -8.23045e-05
0 2.01885e-05 -5.62796e-05 0 2.16672e-05 -8.05414e-05
0 2.4524e-05 -5.28665e-05 0 2.61768e-05 -7.72216e-05
0 2.80102e-05 -4.79404e-05 0 2.97781e-05 -7.2331e-05
0 3.04772e-05 -4.15684e-05 0 3.23068e-05 -6.59005e-05
0 3.1822e-05 -3.37878e-05 0 3.36486e-05 -5.79976e-05
0 3.20164e-05 -2.47198e-05 0 3.37884e-05 -4.8745e-05
0 3.11501e-05 -1.45414e-05 0 3.28197e-05 -3.8321e-05
0 2.93867e-05 -3.46389e-06 0 3.09128e-05 -2.69526e-05
0 2.69398e-05 8.26619e-06 0 2.82934e-05 -1.49027e-05
0 2.40757e-05 2.03615e-05 0 2.5223e-05 -2.4948e-06
0 2.1144e-05 3.23239e-05 0 2.20887e-05 9.75823e-06
0 1.84612e-05 4.40694e-05 0 1.92113e-05 2.18139e-05
0 1.6364e-05 5.53332e-05 0 1.69361e-05 3.33341e-05
0 1.51519e-05 6.58596e-05 0 1.5577e-05 4.40989e-05
0 1.50713e-05 7.54448e-05 0 1.53889e-05 5.38691e-05
0 1.6297e-05 8.3918e-05 0 1.65489e-05 6.24576e-05
0 1.8911e-05 9.11529e-05 0 1.91428e-05 6.97455e-05
0 2.28836e-05 9.70766e-05 0 2.31193e-05 7.56651e-05
0 2.80887e-05 0.000101684 0 2.83455e-05 8.02061e-05
0 3.43219e-05 0.000105013 0 3.46244e-05 8.34187e-05
0 4.01394e-05 0.000107299 0 4.04228e-05 8.55396e-05
0 4.44318e-05 0.000108724 0 4.42681e-05 8.70625e-05
0 4.84842e-05 0.000109107 0 4.78309e-05 8.74517e-05
0 5.1953e-05 0.000108657 0 5.09615e-05 8.70238e-05
0 5.45749e-05 0.000107446 0 5.30828e-05 8.58186e-05
0 5.60475e-05 0.000105535 0 5.4107e-05 8.39591e-05
0 5.61609e-05 0.000103027 0 5.37271e-05 8.15544e-05
0 5.47226e-05 0.000100038 0 5.18015e-05 7.86673e-05
0 5.16022e-05 9.66125e-05 0 4.82073e-05 7.53702e-05
0 4.67505e-05 9.27661e-05 0 4.28992e-05 7.16985e-05
0 4.01836e-05 8.85168e-05 0 3.59112e-05 6.76541e-05
0 3.20142e-05 8.38525e-05 0 2.73596e-05 6.32043e-05
0 2.30578e-05 7.86059e-05 0 1.75274e-05 5.8299e-05
0 1.24643e-05 7.28791e-05 0 6.89653e-06 5.27587e-05
0 2.9039e-07 6.6612e-05 0 -5.46967e-06 4.66524e-05
0 -1.26938e-05 5.96443e-05 0 -1.87045e-05 3.98515e-05
0 -2.59491e-05 5.17052e-05 0 -3.22126e-05 3.22238e-05
0 -3.88438e-05 4.29321e-05 0 -4.53247e-05 2.35892e-05
0 -5.06932e-05 3.36249e-05 0 -5.74088e-05 1.4533e-05
0 -6.07725e-05 2.31208e-05 0 -6.76434e-05 4.13406e-06
0 -6.86306e-05 1.14734e-05 0 -7.55683e-05 -7.45502e-06
0 -7.39273e-05 -1.29662e-06 0 -8.08241e-05 -2.02909e-05
0 -7.64702e-05 -1.51e-05 0 -8.32301e-05 -3.42599e-05
0 -7.62213e-05 -2.97651e-05 0 -8.27316e-05 -4.91851e-05
0 -7.32387e-05 -4.5032e-05 0 -7.94034e-05 -6.48328e-05
0 -6.76874e-05 -6.06173e-05 0 -7.34238e-05 -8.08858e-05
0 -5.98641e-05 -7.61779e-05 0 -6.51024e-05 -9.69788e-05
0 -5.02044e-05 -9.1312e-05 0 -5.48941e-05 -0.000112697
0 -3.92575e-05 -0.000105585 0 -4.33727e-05 -0.00012759
0 -2.7631e-05 -0.000118566 0 -3.11703e-05 -0.000141191
0 -1.59424e-05 -0.000129836 0 -1.89293e-05 -0.000153046
0 -4.78298e-06 -0.000138995 0 -7.26405e-06 -0.000162735
0 5.30972e-06 -0.000145693 0 3.26642e-06 -0.000169889
0 1.38664e-05 -0.000149648 0 1.21732e-05 -0.000174202
0 2.04917e-05 -0.000150621 0 1.90469e-05 -0.000175424
0 2.48735e-05 -0.000148367 0 2.3556e-05 -0.00017327
0 2.68209e-05 -0.000142857 0 2.55117e-05 -0.000167723
0 2.62815e-05 -0.000134168 0 2.48587e-05 -0.000158853
0 2.3359e-05 -0.000122482 0 2.17085e-05 -0.000146849
0 1.83165e-05 -0.000108086 0 1.63365e-05 -0.000132013
0 1.15474e-05 -9.13594e-05 0 9.15437e-06 -0.000114743
0 3.53013e-06 -7.27483e-05 0 6.61875e-07 -9.55147e-05
0 -5.21746e-06 -5.27538e-05 0 -8.59975e-06 -7.48544e-05
0 -1.41496e-05 -3.19132e-05 0 -1.80592e-05 -5.33256e-05
0 -2.26971e-05 -1.07803e-05 0 -2.71203e-05 -3.15116e-05
0 -3.02918e-05 1.00958e-05 0 -3.51882e-05 -9.993e-06
0 -3.63467e-05 2.95013e-05 0 -4.16268e-05 9.86556e-06
0 -4.05384e-05 4.76975e-05 0 -4.6127e-05 2.85581e-05
0 -4.25956e-05 6.43158e-05 0 -4.83863e-05 4.54959e-05
0 -4.23669e-05 7.90222e-05 0 -4.82542e-05 6.04769e-05
0 -3.98068e-05 9.15726e-05 0 -4.56501e-05 7.32164e-05
0 -3.48443e-05 0.000101873 0 -4.05276e-05 8.35587e-05
0 -2.74927e-05 0.000109785 0 -3.29118e-05 9.13444e-05
0 -1.78359e-05 0.000115281 0 -2.28576e-05 9.66462e-05
0 -6.05345e-06 0.000118469 0 -1.05813e-05 9.94781e-05
0 7.54709e-06 0.000119494 0 3.54246e-06 0.000100041
0 2.21511e-05 0.000118633 0 1.89991e-05 9.85785e-05
0 3.73478e-05 0.000116091 0 3.44765e-05 9.55872e-05
0 5.30579e-05 0.000112142 0 5.05929e-05 9.10616e-05
0 6.86216e-05 0.000107104 0 6.65579e-05 8.54797e-05
0 8.33831e-05 0.000101374 0 8.17251e-05 7.91737e-05
0 9.67902e-05 9.5289e-05 0 9.55013e-05 7.25716e-05
0 0.000108281 8.92078e-05 0 0.000107313 6.60347e-05
0 0.000117386 8.34528e-05 0 0.000116702 5.9887e-05
0 0.000123776 7.82706e-05 0 0.000123302 5.44069e-05
0 0.000127197 7.38552e-05 0 0.000126858 4.98043e-05
0 0.00012743 7.03539e-05 0 0.000127128 4.62293e-05
0 0.000124336 6.78394e-05 0 0.000123929 4.37754e-05
0 0.000117948 6.62981e-05 0 0.000117299 4.24238e-05
0 0.000108405 6.56425e-05 0 0.000107382 4.20866e-05
0 9.59768e-05 6.57164e-05 0 9.44691e-05 4.2589e-05
0 8.10999e-05 6.62894e-05 0 7.90175e-05 4.36807e-05
0 6.43432e-05 6.7073e-05 0 6.16177e-05 4.5051e-05
0 4.63821e-05 6.774e-05 0 4.29748e-05 4.63433e-05
0 2.79644e-05 6.79429e-05 0 2.38653e-05 4.71774e-05
0 9.97386e-06 6.73217e-05 0 5.80461e-06 4.70374e-05
0 -6.22094e-06 6.54917e-05 0 -1.00122e-05 4.54828e-05
0 -2.05465e-05 6.22474e-05 0 -2.47902e-05 4.25509e-05
0 -3.29716e-05 5.74387e-05 0 -3.73134e-05 3.78738e-05
0 -4.30713e-05 5.08726e-05 0 -4.74906e-05 3.14962e-05
0 -5.03303e-05 4.25933e-05 0 -5.48454e-05 2.32834e-05
0 -5.44621e-05 3.26292e-05 0 -5.89588e-05 1.32411e-05
0 -5.54064e-05 2.14483e-05 0 -5.97408e-05 1.79777e-06
0 -5.48429e-05 9.28148e-06 0 -5.81877e-05 -1.08571e-05
0 -5.18213e-05 -4.02702e-06 0 -5.53429e-05 -2.42776e-05
0 -4.63788e-05 -1.80893e-05 0 -5.00798e-05 -3.86573e-05
0 -3.90344e-05 -3.25482e-05 0 -4.28057e-05 -5.3486e-05
0 -3.00794e-05 -4.70249e-05 0 -3.39802e-05 -6.83541e-05
0 -1.99483e-05 -6.11265e-05 0 -2.40825e-05 -8.2859e-05
0 -9.25885e-06 -7.44021e-05 0 -1.36349e-05 -9.65131e-05
0 1.36129e-06 -8.63979e-05 0 -3.31698e-06 -0.000108871
0 1.12364e-05 -9.66966e-05 0 6.20118e-06 -0.000119471
0 1.96648e-05 -0.00010491 0 1.42409e-05 -0.000127914
0 2.60269e-05 -0.00011071 0 2.01958e-05 -0.000133851
0 2.97889e-05 -0.000113845 0 2.3529e-05 -0.000137018
0 3.05323e-05 -0.000114159 0 2.38486e-05 -0.00013725
0 2.80293e-05 -0.000111532 0 2.09316e-05 -0.000134417
0 2.22679e-05 -0.000106021 0 1.47675e-05 -0.000128575
0 1.34162e-05 -9.78153e-05 0 5.52932e-06 -0.000119924
0 1.80135e-06 -8.72156e-05 0 -6.45449e-06 -0.000108779
0 -1.21155e-05 -7.46172e-05 0 -2.0723e-05 -9.55498e-05
0 -2.8003e-05 -6.04667e-05 0 -3.71948e-05 -8.06518e-05
0 -4.53183e-05 -4.52958e-05 0 -5.51062e-05 -6.46586e-05
0 -6.33097e-05 -2.96776e-05 0 -7.35504e-05 -4.82194e-05
0 -8.13245e-05 -1.41847e-05 0 -9.25386e-05 -3.1791e-05
0 -9.77661e-05 4.70773e-07 0 -0.000109769 -1.63326e-05
0 -0.000111741 1.36973e-05 0 -0.000124491 -2.34567e-06
0 -0.000122596 2.50545e-05 0 -0.000135925 9.59547e-06
0 -0.000129722 3.41195e-05 0 -0.00014349 1.90832e-05
0 -0.000132784 4.05421e-05 0 -0.000146835 2.56396e-05
0 -0.000131739 4.42357e-05 0 -0.00014592 2.93976e-05
0 -0.000128595 4.56925e-05 0 -0.000141644 3.04165e-05
0 -0.000122242 4.45044e-05 0 -0.000135574 2.92584e-05
0 -0.000112863 4.09554e-05 0 -0.000126453 2.54705e-05
0 -0.000101051 3.53318e-05 0 -0.000114567 1.94624e-05
0 -8.72779e-05 2.80684e-05 0 -0.000100758 1.16533e-05
0 -7.2154e-05 1.94676e-05 0 -8.56098e-05 2.58179e-06
0 -5.64716e-05 9.96827e-06 0 -6.98408e-05 -7.44925e-06
0 -4.09413e-05 5.48192e-08 0 -5.4232e-05 -1.79132e-05
0 -2.62816e-05 -9.82836e-06 0 -3.95193e-05 -2.83165e-05
0 -1.31919e-05 -1.92473e-05 0 -2.63982e-05 -3.81955e-05
0 -2.26961e-06 -2.77924e-05 0 -1.5487e-05 -4.71216e-05
0 5.98339e-06 -3.51092e-05 0 -7.31691e-06 -5.47326e-05
0 1.11694e-05 -4.09316e-05 0 -2.28439e-06 -6.07331e-05
0 1.3029e-05 -4.50725e-05 0 -6.6648e-07 -6.49184e-05
0 1.14322e-05 -4.74215e-05 0 -2.59997e-06 -6.71791e-05
0 6.3811e-06 -4.79615e-05 0 -8.0823e-06 -6.7503e-05
0 -1.95557e-06 -4.67794e-05 0 -1.69631e-05 -6.5971e-05
0 -1.32843e-05 -4.40347e-05 0 -2.8948e-05 -6.27448e-05
0 -2.72509e-05 -3.99409e-05 0 -4.35559e-05 -5.80936e-05
0 -4.34166e-05 -3.48108e-05 0 -6.04365e-05 -5.2317e-05
0 -6.13256e-05 -2.90057e-05 0 -7.91857e-05 -4.57903e-05
0 -8.06145e-05 -2.29103e-05 0 -9.93876e-05 -3.89071e-05
0 -0.000100686 -1.69531e-05 0 -0.000120366 -3.21463e-05
0 -0.000120826 -1.15863e-05 0 -0.000141387 -2.59903e-05
0 -0.000140245 -7.2639e-06 0 -0.000161626 -2.09278e-05
0 -0.00015813 -4.41495e-06 0 -0.000180231 -1.74222e-05
0 -0.000173725 -3.41251e-06 0 -0.000196418 -1.5879e-05
0 -0.000186427 -4.54674e-06 0 -0.000209561 -1.6616e-05
0 -0.000195812 -8.0113e-06 0 -0.000219214 -1.98456e-05
0 -0.000201602 -1.36966e-05 0 -0.000225081 -2.54839e-05
0 -0.000203609 -2.17723e-05 0 -0.000226977 -3.36598e-05
0 -0.000201842 -3.21166e-05 0 -0.00022489 -4.42628e-05
0 -0.000196468 -4.45143e-05 0 -0.000219003 -5.71016e-05
0 -0.000187791 -5.86735e-05 0 -0.000209627 -7.18423e-05
0 -0.000176194 -7.4209e-05 0 -0.000197161 -8.80913e-05
0 -0.000162103 -9.06772e-05 0 -0.000182053 -0.000105384
0 -0.000145962 -0.000107591 0 -0.000164773 -0.000123209
0 -0.000128231 -0.000124436 0 -0.00014581 -0.000141022
0 -0.000109401 -0.000140673 0 -0.000125687 -0.000158261
0 -8.99836e-05 -0.000155762 0 -0.000104945 -0.000174358
0 -7.04697e-05 -0.000169182 0 -8.41087e-05 -0.000188764
0 -5.13064e-05 -0.000180447 0 -6.36558e-05 -0.000200965
0 -3.28988e-05 -0.000189114 0 -4.40194e-05 -0.000210498
0 -1.56348e-05 -0.000194797 0 -2.56135e-05 -0.000216956
0 1.01924e-07 -0.000197125 0 -8.84345e-06 -0.000219953
0 1.39628e-05 -0.000195814 0 5.91729e-06 -0.000219168
0 2.44222e-05 -0.000190599 0 1.48987e-05 -0.000213754
0 3.17342e-05 -0.000181351 0 2.34067e-05 -0.000204763
0 3.96303e-05 -0.000168778 0 3.14229e-05 -0.00019232
0 4.54101e-05 -0.000152691 0 3.71052e-05 -0.000176031
0 4.8823e-05 -0.000133222 0 4.04682e-05 -0.000156347
0 5.03078e-05 -0.000110812 0 4.20851e-05 -0.000133614
0 5.01915e-05 -8.59312e-05 0 4.1776e-05 -0.000108196
0 4.85155e-05 -5.89291e-05 0 4.00816e-05 -8.06703e-05
0 4.56606e-05 -3.04304e-05 0 3.71504e-05 -5.16252e-05
0 4.21086e-05 -2.43149e-06 0 3.34879e-05 -2.31815e-05
0 3.79096e-05 2.59428e-05 0 2.91995e-05 5.83719e-06
0 3.33986e-05 5.41557e-05 0 2.46381e-05 3.44771e-05
0 2.8912e-05 8.16369e-05 0 2.00661e-05 6.2531e-05
0 2.47591e-05 0.000107913 0 1.58576e-05 8.93123e-05
0 2.1343e-05 0.000132491 0 1.24211e-05 0.000114304
0 1.91089e-05 0.00015484 0 1.01689e-05 0.000137034
0 1.84714e-05 0.000174519 0 9.53789e-06 0.000157023
0 1.97994e-05 0.00019119 0 1.08967e-05 0.000173891
0 2.33826e-05 0.000204572 0 1.45204e-05 0.000187344
0 2.94066e-05 0.000214452 0 2.05968e-05 0.000197195
0 3.91643e-05 0.000220505 0 2.96285e-05 0.000203319
0 5.23884e-05 0.000222948 0 4.39872e-05 0.000205127
0 6.76288e-05 0.000222 0 6.02657e-05 0.000203574
0 8.47846e-05 0.000217881 0 7.84799e-05 0.000198673
0 0.000103373 0.000210753 0 9.81136e-05 0.000190735
0 0.000122605 0.000201143 0 0.000118517 0.000180204
0 0.000141904 0.000189509 0 0.000139029 0.000167578
0 0.000160663 0.000176324 0 0.000158973 0.000153423
0 0.000178202 0.000162136 0 0.000177741 0.000138274
0 0.000193972 0.000147475 0 0.000194731 0.000122676
0 0.000207504 0.000132816 0 0.000209446 0.00010714
0 0.000218442 0.000118587 0 0.000221536 9.21224e-05
0 0.000226596 0.000105163 0 0.000230783 7.80094e-05
0 0.000231899 9.28551e-05 0 0.000237095 6.51153e-05
0 0.000234381 8.18934e-05 0 0.000240496 5.36799e-05
0 0.000234157 7.24371e-05 0 0.000241085 4.38714e-05
0 0.000231384 6.45869e-05 0 0.000239017 3.57849e-05
0 0.000226247 5.83796e-05 0 0.000234487 2.9448e-05
0 0.000218985 5.37829e-05 0 0.000227745 2.48217e-05
0 0.000209911 5.07017e-05 0 0.000219122 2.18e-05
0 0.000199423 4.89857e-05 0 0.000209033 2.02133e-05
0 0.000188008 4.84312e-05 0 0.000197981 1.98381e-05
0 0.000176234 4.87928e-05 0 0.000186548 2.0409e-05
0 0.000164717 4.98026e-05 0 0.000175359 2.1636e-05
0 0.000154074 5.1188e-05 0 0.000165039 2.32238e-05
0 0.000144887 5.26884e-05 0 0.000156178 2.48912e-05
0 0.000137682 5.40705e-05 0 0.000149306 2.63877e-05
0 0.000132904 5.51429e-05 0 0.000144873 2.75073e-05
0 0.000130902 5.5768e-05 0 0.000143224 2.81009e-05
0 0.000131905 5.58704e-05 0 0.00014459 2.80868e-05
0 0.000136007 5.54436e-05 0 0.000149058 2.74575e-05
0 0.000143162 5.45524e-05 0 0.000156574 2.62817e-05
0 0.00015329 5.33169e-05 0 0.000167078 2.46855e-05
0 0.000166642 5.18629e-05 0 0.000180929 2.27557e-05
0 0.000182718 5.04863e-05 0 0.000197554 2.08134e-05
0 0.000200739 4.95276e-05 0 0.000216141 1.92308e-05
0 0.000219766 4.93667e-05 0 0.000235736 1.84414e-05
0 0.000238812 5.04041e-05 0 0.00025531 1.88797e-05
0 0.000256905 5.302e-05 0 0.000273852 2.09594e-05
0 0.000273166 5.75335e-05 0 0.000290456 2.50385e-05
0 0.000286845 6.41906e-05 0 0.000304341 3.13985e-05
0 0.000297351 7.3152e-05 0 0.000314894 4.02194e-05
0 0.000304291 8.44714e-05 0 0.000321707 5.15674e-05
0 0.000307469 9.80878e-05 0 0.000324574 6.53907e-05
0 0.000306849 0.000113835 0 0.000323455 8.15229e-05
0 0.000302536 0.000131448 0 0.000318456 9.96891e-05
0 0.000294755 0.000150568 0 0.00030981 0.000119518
0 0.000283798 0.000170764 0 0.000297818 0.000140561
0 0.000270061 0.000190736 0 0.000282891 0.000161512
0 0.000253723 0.000210831 0 0.000265264 0.000182683
0 0.000235094 0.000230526 0 0.000245207 0.000203433
0 0.000214461 0.000249293 0 0.000223054 0.000223381
0 0.000192169 0.000266618 0 0.000199167 0.000241901
0 0.000168629 0.000281958 0 0.000173979 0.000258443
0 0.000144325 0.000294762 0 0.000148003 0.000272458
0 0.000119772 0.000304533 0 0.00012178 0.000283399
0 9.45896e-05 0.000310853 0 9.31369e-05 0.000291086
0 6.38235e-05 0.000313784 0 6.01948e-05 0.000295747
0 3.59541e-05 0.000311969 0 3.39358e-05 0.000294265
0 1.30474e-05 0.000304907 0 1.01738e-05 0.000287598
0 -7.28715e-06 0.000292574 0 -1.08296e-05 0.000275746
0 -2.57019e-05 0.000275173 0 -2.93682e-05 0.000258635
0 -4.10313e-05 0.000252661 0 -4.50033e-05 0.000236285
0 -5.33309e-05 0.000225368 0 -5.79487e-05 0.00020902
0 -6.32015e-05 0.000193669 0 -6.81164e-05 0.000176941
0 -7.21102e-05 0.000157956 0 -7.92711e-05 0.000141391
0 -7.97411e-05 0.000118947 0 -8.76479e-05 0.000102189
0 -8.5201e-05 7.72365e-05 0 -9.42145e-05 6.02815e-05
0 -8.89896e-05 3.53505e-05 0 -9.92294e-05 1.79213e-05
0 -9.16215e-05 -7.42033e-06 0 -0.000102933 -2.51304e-05
0 -9.3383e-05 -5.06466e-05 0 -0.000105723 -6.84749e-05
0 -9.45917e-05 -9.36197e-05 0 -0.000108059 -0.000111883
0 -9.58068e-05 -0.000135685 0 -0.000110397 -0.000154212
0 -9.74051e-05 -0.000176144 0 -0.000113213 -0.000194905
0 -9.98304e-05 -0.000214258 0 -0.000116993 -0.000233175
0 -0.000103569 -0.000249376 0 -0.000122205 -0.0002684
0 -0.000109008 -0.000280982 0 -0.000129281 -0.00029994
0 -0.000116486 -0.000308583 0 -0.000138571 -0.000327304
0 -0.000126271 -0.000331755 0 -0.00015033 -0.000350115
0 -0.000138764 -0.000347708 0 -0.000164873 -0.000366196
0 -0.000153737 -0.000357513 0 -0.00018257 -0.000373865
0 -0.000171076 -0.000363731 0 -0.000202266 -0.000379308
0 -0.000190397 -0.000366206 0 -0.000224373 -0.000380551
0 -0.00021159 -0.000365417 0 -0.000248356 -0.000378517
0 -0.000234265 -0.000361414 0 -0.000273934 -0.000373151
0 -0.00025806 -0.00035418 0 -0.000300685 -0.000364584
0 -0.000282544 -0.000343558 0 -0.000328206 -0.000352523
0 -0.000307154 -0.000330168 0 -0.000355889 -0.000337601
0 -0.000331456 -0.000314586 0 -0.000383109 -0.000320434
0 -0.000360766 -0.000296662 0 -0.000416097 -0.000300732
0 -0.000388022 -0.000277914 0 -0.000445924 -0.000280329
0 -0.000411486 -0.000259377 0 -0.000473573 -0.000259835
0 -0.000431104 -0.000241418 0 -0.00049721 -0.000240128
0 -0.000294359 -0.000234132 0 0.000476184 -0.000416002
0 -0.000294271 -0.000192066 0 0.000129954 -0.000333002
0 -0.000315481 -0.000174105 0 0.000260256 -0.000344708
0 -0.000338688 -0.000148669 0 0.000299616 -0.000321644
0 -0.000373607 -0.000107933 0 0.000286539 -0.000288937
0 -0.000398954 -6.46215e-05 0 0.00034001 -0.000276001
0 -0.000436544 -2.96894e-05 0 0.000333478 -0.000237323
0 -0.000469675 8.55383e-06 0 0.000360542 -0.000212246
0 -0.000504161 4.84164e-05 0 0.000363064 -0.000180017
0 -0.000533334 6.93207e-05 0 0.000375766 -0.000147617
0 0.00031361 -4.56421e-05 0 0.000434591 -8.12957e-05
0 0.000405716 -5.95855e-05 0 0.000372798 -2.94083e-05
0 0.000122162 4.85674e-05 0 0.000404217 -2.55727e-05
0 0.000190325 6.82513e-05 0 0.000373243 2.52629e-05
0 0.000289403 7.3622e-05 0 0.000342697 7.51365e-05
0 0.000172733 0.000128098 0 0.00033819 8.55805e-05
0 0.000135707 0.000146866 0 0.000314816 9.91253e-05
0 0.000174034 0.000156265 0 0.000292296 0.000114231
0 0.000140635 0.000166 0 0.000269035 0.000125406
0 8.77975e-05 0.000174804 0 0.000246975 0.000132845
0 8.08038e-05 0.000179139 0 0.000218259 0.000138026
0 8.19452e-05 0.000180053 0 0.000189401 0.000140461
0 5.61292e-05 0.000178382 0 0.00016063 0.000138292
0 4.21027e-05 0.000171359 0 0.000130165 0.000133784
0 4.10414e-05 0.00016101 0 9.88869e-05 0.000125445
0 2.91879e-05 0.000148565 0 6.83023e-05 0.000112825
0 1.19992e-05 0.000132082 0 3.9031e-05 9.70636e-05
0 3.54661e-06 0.000111441 0 1.0795e-05 7.84297e-05
0 -2.66046e-06 8.88966e-05 0 -1.56783e-05 5.68057e-05
0 -1.36652e-05 6.42079e-05 0 -3.98406e-05 3.19465e-05
0 -2.3516e-05 3.63638e-05 0 -6.19201e-05 4.81667e-06
0 -2.92029e-05 6.10058e-06 0 -8.20906e-05 -2.43236e-05
0 -3.51086e-05 -2.4052e-05 0 -0.000100133 -5.33759e-05
0 -4.22507e-05 -5.02249e-05 0 -0.000114937 -6.09159e-05
0 -4.80029e-05 -7.75603e-05 0 -0.000128962 -6.90198e-05
0 -5.18336e-05 -0.000105954 0 -0.000139993 -9.20761e-05
0 -3.65912e-05 -3.30009e-05 0 9.99856e-05 0.000492424
0 -6.09008e-05 -2.44506e-05 0 -0.000136538 0.000490525
0 -4.35677e-05 -8.42112e-05 0 1.62499e-05 0.000229678
0 -7.99866e-05 -0.000100516 0 -9.04364e-05 0.000395517
0 -7.64497e-05 -0.000131581 0 -8.82985e-05 0.000383448
0 -7.61096e-05 -0.000168683 0 -9.65069e-05 0.000292941
0 -0.000100005 -0.000184492 0 -0.00013032 0.000356372
0 -0.000104854 -0.00020969 0 -0.000150448 0.000334742
0 -0.000108463 -0.000233397 0 -0.000166152 0.00030728
0 -0.000123377 -0.000253035 0 -0.000191861 0.00032376
0 -0.00013237 -0.000276781 0 -0.000196536 0.000302639
0 -0.000137903 -0.000302379 0 -0.000195601 0.000284227
0 -0.000148516 -0.000328151 0 -0.000212546 0.000281025
0 7.41227e-05 0.000149475 0 -0.000214492 0.000288413
0 -8.33524e-05 0.000401243 0 -0.000230046 0.000267042
0 -8.62274e-05 0.000392657 0 -0.000221694 0.000239375
0 -7.61797e-05 0.00015669 0 -0.000246866 0.000257999
0 -0.000135207 0.000105109 0 -0.000266628 0.000266254
0 -0.000176867 0.000254335 0 -0.000269962 0.000241762
0 -0.000202555 0.000325602 0 -0.000282334 0.000231813
0 -0.000229487 0.000237581 0 -0.000303409 0.000243433
0 -0.000230306 0.00016709 0 -0.000318333 0.000245619
0 -0.000239305 0.000230365 0 -0.000335038 0.00029161
0 -0.000272048 0.000274922 0 -0.000352469 0.000271141
0 -0.000295912 0.000253904 0 -0.000344976 0.000283808
0 -0.000292644 0.000197711 0 -0.000401646 0.000298213
0 -0.000298131 0.000180865 0 -0.00038627 0.000268774
0 -0.000330155 0.000201021 0 -0.000406608 0.000255597
0 -0.000349911 0.000195148 0 -0.000427865 0.00025371
0 -0.000352792 0.000160363 0 -0.00044077 0.000237621
0 -0.000364156 0.000133451 0 -0.000450027 0.00021575
0 -0.00038506 0.000125265 0 -0.00046915 0.000202297
0 -0.000400473 0.000112944 0 -0.000482506 0.000182062
0 -0.000411397 8.93521e-05 0 -0.000492886 0.000156295
0 -0.000423036 6.44192e-05 0 -0.000506843 0.000134093
0 -0.000435966 5.00575e-05 0 -0.000520426 0.000109188
0 -0.000450461 9.94747e-05 0 -0.000534936 0.000100612
0 -0.000455355 5.52695e-05 0 -0.000535888 5.10084e-05
0 -0.000470986 2.9915e-05 0 -0.000557317 4.79913e-05
0 -0.000485265 3.19614e-05 0 -0.000562795 2.9861e-05
0 -0.000494674 2.20499e-05 0 -0.00057021 -1.46482e-05
0 -0.000502849 -1.43317e-05 0 -0.000577752 -3.59264e-05
0 -0.000510187 -6.20211e-05 0 -0.000588102 -5.04112e-05
0 -0.000516954 -9.18097e-05 0 -0.000594771 -8.32962e-05
0 -0.000525753 -0.000105244 0 -0.000597668 -0.000121371
0 -0.000534452 -0.000127007 0 -0.000603971 -0.00014869
0 -0.000538842 -0.000169211 0 -0.00060932 -0.000175503
0 -0.000541347 -0.000214938 0 -0.000611856 -0.000211686
0 -0.000546125 -0.000246317 0 -0.000614018 -0.000247697
0 -0.000551867 -0.000269105 0 -0.000616691 -0.000278919
0 -0.00055541 -0.000300238 0 -0.000618704 -0.000311987
0 -0.000557041 -0.000342016 0 -0.000619249 -0.000348054
0 -0.000558795 -0.000381873 0 -0.000619807 -0.000381808
0 -0.000560589 -0.000412364 0 -0.00062017 -0.00041357
0 -0.000560726 -0.000439817 0 -0.000618744 -0.000446908
0 -0.000559619 -0.000465301 0 -0.00061683 -0.000473855
0 -0.00055771 -0.000493941 0 -0.000613975 -0.00049917
0 -0.000555053 -0.000522188 0 -0.000610247 -0.000523088
0 -0.000551622 -0.00054695 0 -0.000605946 -0.000546825
0 -0.000547625 -0.000568097 0 -0.000601194 -0.000570398
0 -0.000543438 -0.000587807 0 -0.000596242 -0.000592634
0 -0.00053936 -0.000607999 0 -0.000591384 -0.00061284
0 -0.000535614 -0.0006285 0 -0.000586931 -0.000631359
0 -0.000532464 -0.000647452 0 -0.000583169 -0.000648531
0 -0.000530213 -0.000663149 0 -0.000580328 -0.000663988
0 -0.000529116 -0.000675395 0 -0.000578625 -0.000677178
0 -0.000529348 -0.000685245 0 -0.000578279 -0.000688014
0 -0.000531077 -0.000693697 0 -0.000579482 -0.000696688
0 -0.000534445 -0.000700758 0 -0.000582342 -0.000703174
0 -0.000539529 -0.000705609 0 -0.000586914 -0.000707242
0 -0.000546332 -0.00070749 0 -0.000593211 -0.000708841
0 -0.00055483 -0.000706155 0 -0.000601235 -0.000708043
0 -0.000565271 -0.000700845 0 -0.000611337 -0.000703246
0 -0.000577325 -0.000691973 0 -0.000620427 -0.000694661
0 -0.000583873 -0.000681927 0 -0.000622939 -0.000685469
0 -0.000588063 -0.000670367 0 -0.000626789 -0.000675581
0 -0.00059219 -0.000656361 0 -0.000632715 -0.000659842
0 -0.00059862 -0.000639195 0 -0.000639447 -0.000640641
0 -0.000605879 -0.000620695 0 -0.000644822 -0.000626993
0 -0.000612569 -0.00060027 0 -0.00065054 -0.000608153
0 -0.000618205 -0.000582531 0 -0.000658062 -0.000589077
0 -0.000624563 -0.000563033 0 -0.000663484 -0.000569448
0 -0.000631478 -0.000542554 0 -0.000669451 -0.000549183
0 -0.000637819 -0.00052153 0 -0.000675193 -0.000528278
0 -0.000643109 -0.000500632 0 -0.000680393 -0.000507015
0 -0.000647694 -0.000480223 0 -0.000685003 -0.000486153
0 -0.000651742 -0.000460334 0 -0.000688443 -0.000465885
0 -0.000654898 -0.000440954 0 -0.000690956 -0.000446335
0 -0.000656736 -0.000422315 0 -0.000692306 -0.000427731
0 -0.000657138 -0.00040488 0 -0.000692209 -0.000410472
0 -0.000655522 -0.000389202 0 -0.000690328 -0.000394761
0 -0.000649896 -0.000376138 0 -0.000684297 -0.000381355
0 -0.000639641 -0.000365912 0 -0.000673878 -0.000371202
0 -0.000625087 -0.000358326 0 -0.000659505 -0.000363748
0 -0.000606726 -0.000353109 0 -0.000641024 -0.000358646
0 -0.000584709 -0.000350136 0 -0.000618897 -0.000355964
0 -0.000559216 -0.000349268 0 -0.000593432 -0.000355525
0 -0.000530837 -0.000350134 0 -0.000565206 -0.000356719
0 -0.000500297 -0.000352194 0 -0.000534789 -0.000359047
0 -0.00046815 -0.00035491 0 -0.000502712 -0.00036219
0 -0.00043489 -0.00035782 0 -0.000469581 -0.000365642
0 -0.000401097 -0.000360498 0 -0.000435975 -0.000368811
0 -0.000367376 -0.000362503 0 -0.00040244 -0.000371213
0 -0.000334255 -0.000363352 0 -0.000369492 -0.000372421
0 -0.000302164 -0.000362567 0 -0.00033759 -0.000371982
0 -0.000271479 -0.000359747 0 -0.000307125 -0.000369482
0 -0.000242507 -0.000354608 0 -0.000278378 -0.00036462
0 -0.00021545 -0.000346949 0 -0.000251552 -0.000357155
0 -0.000190436 -0.0003366 0 -0.0002268 -0.000346881
0 -0.000167534 -0.000323412 0 -0.000204193 -0.000333666
0 -0.000146772 -0.000307293 0 -0.000183761 -0.000317453
0 -0.000128138 -0.000288232 0 -0.000165484 -0.000298236
0 -0.00011156 -0.000266295 0 -0.000149303 -0.000276056
0 -9.69748e-05 -0.000241595 0 -0.000135165 -0.000250999
0 -8.43241e-05 -0.000214255 0 -0.000123004 -0.000223195
0 -7.35424e-05 -0.000184414 0 -0.000112755 -0.000192804
0 -6.45255e-05 -0.000152262 0 -0.000104306 -0.000160038
0 -5.70978e-05 -0.000118065 0 -9.74759e-05 -0.000125171
0 -5.1049e-05 -8.21472e-05 0 -9.20577e-05 -8.85234e-05
0 -4.61308e-05 -4.48656e-05 0 -8.7812e-05 -5.04422e-05
0 -4.21196e-05 -6.56927e-06 0 -8.45063e-05 -1.12908e-05
0 -3.75984e-05 2.55754e-05 0 -7.9511e-05 2.26716e-05
0 -3.47007e-05 5.40638e-05 0 -7.95192e-05 4.65143e-05
0 -3.23554e-05 7.96225e-05 0 -7.57896e-05 7.14023e-05
0 -2.95987e-05 0.000105902 0 -7.38636e-05 0.000102138
0 -2.67318e-05 0.000134177 0 -7.37704e-05 0.000134227
0 -2.44591e-05 0.000163469 0 -7.27009e-05 0.000161517
0 -2.27864e-05 0.000191774 0 -7.08227e-05 0.000186349
0 -2.11343e-05 0.000217969 0 -6.98951e-05 0.00021314
0 -1.93163e-05 0.000242436 0 -6.88579e-05 0.00024111
0 -1.78427e-05 0.000266308 0 -6.83279e-05 0.000266571
0 -1.70292e-05 0.00029019 0 -6.79714e-05 0.000289383
0 -1.67834e-05 0.000313588 0 -6.79599e-05 0.00031181
0 -1.70168e-05 0.000335482 0 -6.8401e-05 0.000334228
0 -1.79332e-05 0.000355326 0 -6.93446e-05 0.000354864
0 -1.97494e-05 0.000373405 0 -7.08164e-05 0.000373117
0 -2.24284e-05 0.000390252 0 -7.27913e-05 0.000389937
0 -2.57741e-05 0.000405943 0 -7.53759e-05 0.000405692
0 -2.96191e-05 0.000420012 0 -7.8356e-05 0.000419538
0 -3.38349e-05 0.0004319 0 -8.14631e-05 0.000430839
0 -3.82101e-05 0.000441349 0 -8.45952e-05 0.00043989
0 -4.24828e-05 0.000448395 0 -8.76405e-05 0.000446994
0 -4.64605e-05 0.000453132 0 -9.04364e-05 0.000451773
0 -5.00396e-05 0.000455528 0 -9.28365e-05 0.000453759
0 -5.30312e-05 0.000455017 0 -9.45675e-05 0.000452705
0 -5.53845e-05 0.000450864 0 -9.60173e-05 0.000447947
0 -5.69213e-05 0.000442242 0 -9.65968e-05 0.000438828
0 -5.7457e-05 0.000428961 0 -9.61909e-05 0.000425065
0 -5.69249e-05 0.000411541 0 -9.48838e-05 0.000407358
0 -5.52801e-05 0.000390281 0 -9.22299e-05 0.000385081
0 -5.25177e-05 0.000365222 0 -8.83433e-05 0.000358588
0 -4.86317e-05 0.000336452 0 -8.32875e-05 0.000328578
0 -4.36639e-05 0.000304301 0 -7.71394e-05 0.000295337
0 -3.78025e-05 0.000269411 0 -7.00509e-05 0.000259187
0 -3.13929e-05 0.000232543 0 -6.23599e-05 0.000220837
0 -2.48588e-05 0.000194346 0 -5.56256e-05 0.000181185
0 -1.86966e-05 0.000155434 0 -5.37435e-05 0.000142515
0 -1.31827e-05 0.000116314 0 -5.16079e-05 0.000104993
0 -8.94541e-06 7.78841e-05 0 -4.89968e-05 6.59038e-05
0 -7.84434e-06 4.86771e-05 0 -4.802e-05 3.63789e-05
0 -8.21598e-06 1.88669e-05 0 -4.80221e-05 4.8224e-06
0 -1.16123e-05 -6.02992e-06 0 -5.01025e-05 -2.20319e-05
0 -1.67802e-05 -2.62611e-05 0 -5.33465e-05 -3.63686e-05
0 -2.41556e-05 -4.21979e-05 0 -6.03886e-05 -5.16409e-05
0 -3.40498e-05 -5.64597e-05 0 -6.74434e-05 -7.05442e-05
0 -4.61931e-05 -7.07258e-05 0 -7.43405e-05 -8.95482e-05
0 -5.99858e-05 -8.5042e-05 0 -8.4712e-05 -0.000102816
0 -7.49917e-05 -9.82724e-05 0 -9.59803e-05 -0.000113136
0 -9.13871e-05 -0.00010929 0 -0.000107758 -0.00012515
0 -0.000109126 -0.000117993 0 -0.000120556 -0.000137764
0 -0.000127699 -0.000125385 0 -0.000133938 -0.000147736
0 -0.000146704 -0.000132626 0 -0.000148123 -0.000155379
0 -0.000166038 -0.000140029 0 -0.000162595 -0.000163185
0 -0.000185596 -0.000147024 0 -0.000176885 -0.00017156
0 -0.00020502 -0.000153034 0 -0.000191164 -0.000179072
0 -0.00022386 -0.000158208 0 -0.000205203 -0.000185489
0 -0.000241838 -0.000163276 0 -0.0002186 -0.000192051
0 -0.000258805 -0.000168872 0 -0.000231133 -0.000199301
0 -0.000274542 -0.000175129 0 -0.00024268 -0.00020662
0 -0.00028879 -0.000181809 0 -0.000253184 -0.000213706
0 -0.00030139 -0.000188695 0 -0.00026248 -0.000221144
0 -0.000312276 -0.000195838 0 -0.000270395 -0.0002294
0 -0.000321389 -0.000203516 0 -0.000276907 -0.000238228
0 -0.00032864 -0.000211995 0 -0.000282018 -0.000247297
0 -0.000333994 -0.000221316 0 -0.000285706 -0.000256743
0 -0.000337511 -0.000231283 0 -0.000287964 -0.000266818
0 -0.000339283 -0.000241654 0 -0.000288836 -0.00027744
0 -0.000339411 -0.000252321 0 -0.000288402 -0.000288348
0 -0.000338014 -0.000263316 0 -0.000286461 -0.000299509
0 -0.000335249 -0.000274666 0 -0.000283126 -0.000311051
0 -0.000331265 -0.000286259 0 -0.000278641 -0.000322815
0 -0.000326164 -0.000297874 0 -0.000273024 -0.00033451
0 -0.000320069 -0.000309291 0 -0.000266461 -0.000346023
0 -0.000313144 -0.000320361 0 -0.000259105 -0.000357332
0 -0.000305578 -0.000330993 0 -0.000251118 -0.000368283
0 -0.000297568 -0.000341085 0 -0.000242717 -0.000378607
0 -0.000289299 -0.000350476 0 -0.00023408 -0.000388124
0 -0.000280949 -0.000358953 0 -0.000225394 -0.000396739
0 -0.000272737 -0.000365996 0 -0.000216847 -0.00040397
0 -0.000264807 -0.000371556 0 -0.000208655 -0.000409836
0 -0.000257288 -0.000375658 0 -0.000200897 -0.00041428
0 -0.000250287 -0.000378214 0 -0.000193685 -0.000416906
0 -0.000243829 -0.000379453 0 -0.000186998 -0.000419384
0 -0.00023782 -0.000379624 0 -0.000180635 -0.000419222
0 -0.000232439 -0.000377442 0 -0.000175316 -0.000416958
0 -0.000227696 -0.000373015 0 -0.000170372 -0.000413102
0 -0.000223636 -0.00036661 0 -0.000166233 -0.000406958
0 -0.000220223 -0.000358456 0 -0.000162838 -0.000398529
0 -0.000217452 -0.0003485 0 -0.000160111 -0.000388151
0 -0.000215324 -0.000336587 0 -0.000158045 -0.000375974
0 -0.000213801 -0.000322733 0 -0.000156592 -0.000361933
0 -0.000212784 -0.000307204 0 -0.000155693 -0.000346214
0 -0.000212163 -0.000290346 0 -0.000155214 -0.000329082
0 -0.000211846 -0.000272396 0 -0.000155068 -0.000310693
0 -0.000211732 -0.000253468 0 -0.000155143 -0.000291219
0 -0.000211712 -0.00023367 0 -0.000155329 -0.000270928
0 -0.000211684 -0.000213207 0 -0.000155512 -0.000250071
0 -0.000211545 -0.000192374 0 -0.000155585 -0.000228853
0 -0.000211193 -0.000171469 0 -0.000155454 -0.000207492
0 -0.000210518 -0.000150727 0 -0.000154995 -0.000186243
0 -0.000209414 -0.000130318 0 -0.000154102 -0.000165344
0 -0.000207781 -0.000110416 0 -0.000152664 -0.000145016
0 -0.000205508 -9.12366e-05 0 -0.000150566 -0.000125477
0 -0.000202506 -7.30109e-05 0 -0.000147724 -0.000106928
0 -0.000198704 -5.59382e-05 0 -0.000144058 -8.95411e-05
0 -0.000194058 -4.01555e-05 0 -0.000139527 -7.34611e-05
0 -0.00018854 -2.57562e-05 0 -0.000134093 -5.88193e-05
0 -0.000182103 -1.28299e-05 0 -0.000127704 -4.57296e-05
0 -0.0001747 -1.47508e-06 0 -0.000120319 -3.42847e-05
0 -0.000166287 8.2179e-06 0 -0.00011189 -2.45555e-05
0 -0.00015686 1.62039e-05 0 -0.000102418 -1.65744e-05
0 -0.000146482 2.25027e-05 0 -9.19685e-05 -1.03264e-05
0 -0.000135103 2.58378e-05 0 -8.06544e-05 -5.75745e-06
0 -0.000121838 3.06557e-05 0 -6.84468e-05 -2.75566e-06
0 -0.000107747 3.94698e-05 0 -5.57598e-05 -1.78846e-06
0 -9.39947e-05 5.05585e-05 0 -4.27216e-05 -2.59966e-06
0 -7.92651e-05 6.13821e-05 0 -2.71917e-05 2.45742e-06
0 -6.45838e-05 6.88561e-05 0 -1.172e-05 1.69e-05
0 -5.04154e-05 7.42663e-05 0 -1.77937e-06 2.52181e-05
0 -3.70157e-05 8.02184e-05 0 3.33233e-06 3.40193e-05
0 -2.44656e-05 8.72136e-05 0 9.72333e-06 4.48334e-05
0 -1.28572e-05 9.40244e-05 0 1.43694e-05 5.29694e-05
0 -2.2622e-06 9.94561e-05 0 2.05771e-05 5.97111e-05
0 5.18024e-06 0.000103936 0 2.62178e-05 6.73648e-05
0 8.12514e-06 0.000109378 0 2.90911e-05 7.47003e-05
0 9.8557e-06 0.000115437 0 3.35765e-05 8.04835e-05
0 1.24052e-05 0.000120978 0 3.81128e-05 8.54011e-05
0 1.65754e-05 0.000129101 0 4.10734e-05 9.08696e-05
0 2.13492e-05 0.000137992 0 4.42727e-05 9.6713e-05
0 3.37667e-05 0.000147026 0 4.94673e-05 0.000107541
0 4.76229e-05 0.00015424 0 5.08723e-05 0.000115984
0 5.89422e-05 0.000160187 0 5.31984e-05 0.000124891
0 6.73238e-05 0.0001657 0 5.69243e-05 0.000131807
0 7.60861e-05 0.000170865 0 6.5561e-05 0.00013759
0 8.43258e-05 0.000175979 0 7.66471e-05 0.000140713
0 9.0378e-05 0.000179984 0 8.27663e-05 0.000145197
0 9.4515e-05 0.000183179 0 8.95519e-05 0.000147789
0 9.85746e-05 0.000185485 0 9.31344e-05 0.000150742
0 0.000101461 0.000187325 0 9.55748e-05 0.000152636
0 0.00010251 0.000188842 0 9.58965e-05 0.000154073
0 0.000101818 0.000189624 0 9.55698e-05 0.000154806
0 9.99272e-05 0.000189637 0 9.54864e-05 0.000154589
0 9.68793e-05 0.000188932 0 9.28621e-05 0.000153926
0 9.25575e-05 0.000187361 0 8.96971e-05 0.000152181
0 8.70398e-05 0.000184843 0 8.50682e-05 0.000149335
0 8.05031e-05 0.000181275 0 7.939e-05 0.000145625
0 7.31015e-05 0.000176643 0 7.26451e-05 0.000140957
0 6.48517e-05 0.000171016 0 6.50317e-05 0.000135305
0 5.58654e-05 0.000164413 0 5.67129e-05 0.000128583
0 4.63194e-05 0.000156753 0 4.7774e-05 0.000120809
0 3.63321e-05 0.000147983 0 3.83511e-05 0.000111978
0 2.5969e-05 0.000138122 0 2.85699e-05 0.000102075
0 1.5344e-05 0.000127212 0 1.8574e-05 9.10782e-05
0 4.64479e-06 0.00011526 0 8.54551e-06 7.89852e-05
0 -5.9271e-06 0.00010226 0 -1.32033e-06 6.58132e-05
0 -1.6165e-05 8.82244e-05 0 -1.07845e-05 5.15821e-05
0 -2.58377e-05 7.31995e-05 0 -1.96102e-05 3.63205e-05
0 -3.17139e-05 5.66454e-05 0 -2.7028e-05 2.00697e-05
0 -3.58763e-05 3.91327e-05 0 -3.36809e-05 2.99746e-06
0 -3.9187e-05 2.09434e-05 0 -3.89973e-05 -1.48354e-05
0 -4.14128e-05 2.22995e-06 0 -4.28043e-05 -3.34426e-05
0 -4.13127e-05 -1.71294e-05 0 -4.20146e-05 -5.3022e-05
0 -3.95829e-05 -3.65674e-05 0 -4.0154e-05 -7.31709e-05
0 -3.65736e-05 -5.60344e-05 0 -3.63045e-05 -9.3154e-05
0 -3.21349e-05 -7.53128e-05 0 -3.13171e-05 -0.000113004
0 -2.75791e-05 -9.30236e-05 0 -2.59327e-05 -0.000130973
0 -2.15336e-05 -0.000109975 0 -1.95345e-05 -0.000148365
0 -1.4908e-05 -0.000122228 0 -1.23057e-05 -0.000161037
0 -7.32299e-06 -0.000133461 0 -4.4869e-06 -0.000172169
0 9.22534e-07 -0.000143958 0 4.44276e-06 -0.000183205
0 9.92698e-06 -0.000153374 0 1.37789e-05 -0.000192816
0 1.94046e-05 -0.000161772 0 2.36785e-05 -0.000201479
0 2.91516e-05 -0.000169033 0 3.38809e-05 -0.000208946
0 3.90051e-05 -0.000174941 0 4.40726e-05 -0.000215027
0 4.86359e-05 -0.000179391 0 5.40417e-05 -0.000219698
0 5.77587e-05 -0.000182271 0 6.34849e-05 -0.000222847
0 6.6143e-05 -0.000183543 0 7.21362e-05 -0.000224358
0 7.35367e-05 -0.000182697 0 7.97314e-05 -0.000223685
0 7.9782e-05 -0.0001801 0 8.60811e-05 -0.000221181
0 8.4645e-05 -0.000175429 0 9.10564e-05 -0.000216519
0 8.80434e-05 -0.00016868 0 9.44582e-05 -0.000209787
0 8.98214e-05 -0.000159868 0 9.61922e-05 -0.000200925
0 8.98453e-05 -0.000148911 0 9.60891e-05 -0.000189802
0 8.81538e-05 -0.000135924 0 9.41773e-05 -0.000176532
0 8.48764e-05 -0.00012102 0 9.06008e-05 -0.000161266
0 8.01762e-05 -0.000104362 0 8.55402e-05 -0.0001442
0 7.42772e-05 -8.61705e-05 0 7.92308e-05 -0.000125547
0 6.74428e-05 -6.66989e-05 0 7.19268e-05 -0.000105545
0 5.99452e-05 -4.62006e-05 0 6.39192e-05 -8.44623e-05
0 5.20688e-05 -2.49321e-05 0 5.55168e-05 -6.25878e-05
0 4.41078e-05 -3.1648e-06 0 4.70159e-05 -4.02152e-05
0 3.63469e-05 1.88164e-05 0 3.87215e-05 -1.7639e-05
0 2.90589e-05 4.07256e-05 0 3.0915e-05 4.85248e-06
0 2.2502e-05 6.22892e-05 0 2.38659e-05 2.69759e-05
0 1.69194e-05 8.32517e-05 0 1.78359e-05 4.84573e-05
0 1.2537e-05 0.000103373 0 1.30514e-05 6.90416e-05
0 9.55138e-06 0.000122431 0 9.72891e-06 8.84945e-05
0 8.12767e-06 0.000140225 0 8.03671e-06 0.000106612
0 8.38375e-06 0.000156586 0 8.09258e-06 0.000123222
0 1.03806e-05 0.000171381 0 9.97059e-06 0.000138185
0 1.41273e-05 0.000184511 0 1.36702e-05 0.000151399
0 1.95845e-05 0.00019591 0 1.91573e-05 0.000162798
0 2.66768e-05 0.000205547 0 2.63539e-05 0.000172354
0 3.52909e-05 0.00021342 0 3.51331e-05 0.00018007
0 4.49319e-05 0.000219093 0 4.51027e-05 0.000185583
0 5.58007e-05 0.000222987 0 5.61856e-05 0.000189295
0 6.7531e-05 0.000225235 0 6.82709e-05 0.000191427
0 7.98634e-05 0.000226143 0 8.09637e-05 0.000192056
0 9.24535e-05 0.000225837 0 9.3919e-05 0.000191355
0 0.00010491 0.000224402 0 0.000106732 0.000189547
0 0.000116807 0.000221965 0 0.000118964 0.000186818
0 0.000127726 0.000218666 0 0.000130194 0.000183223
0 0.000137264 0.000214766 0 0.000139991 0.000179
0 0.00014505 0.000210441 0 0.000147964 0.000174349
0 0.000150756 0.000205817 0 0.000153791 0.000169471
0 0.000154082 0.000200983 0 0.00015717 0.000164485
0 0.0001548 0.000196016 0 0.000157837 0.000159419
0 0.000152792 0.000190985 0 0.000155697 0.000154389
0 0.000148038 0.000185934 0 0.000150717 0.000149432
0 0.000140611 0.000180871 0 0.000142977 0.000144555
0 0.000130666 0.000175771 0 0.000132637 0.000139725
0 0.000118441 0.000170578 0 0.000119934 0.000134875
0 0.000104226 0.000165208 0 0.000105181 0.00012991
0 8.83598e-05 0.000159557 0 8.87142e-05 0.000124715
0 7.1195e-05 0.000153509 0 7.09057e-05 0.000119161
0 5.3102e-05 0.000146942 0 5.21391e-05 0.000113108
0 3.44685e-05 0.000139727 0 3.28097e-05 0.000106416
0 1.56983e-05 0.00013174 0 1.33464e-05 9.89402e-05
0 -2.79603e-06 0.000122862 0 -5.83379e-06 9.05508e-05
0 -2.06183e-05 0.000112992 0 -2.43178e-05 8.11297e-05
0 -3.7406e-05 0.000102052 0 -4.17268e-05 7.05841e-05
0 -5.28443e-05 8.99901e-05 0 -5.77461e-05 5.88532e-05
0 -6.47427e-05 7.64859e-05 0 -6.39583e-05 4.45089e-05
0 -7.40912e-05 6.24024e-05 0 -6.11772e-05 2.65633e-05
0 -8.16188e-05 4.7233e-05 0 -6.24856e-05 9.70644e-06
0 -7.86403e-05 2.93674e-05 0 -5.92691e-05 -8.52667e-06
0 -7.12264e-05 1.01504e-05 0 -5.43959e-05 -2.72665e-05
0 -6.4568e-05 -4.96641e-06 0 -4.93558e-05 -4.27013e-05
0 -5.82078e-05 -1.82415e-05 0 -4.20391e-05 -5.52791e-05
0 -5.00392e-05 -3.19215e-05 0 -3.33316e-05 -7.01187e-05
0 -3.93283e-05 -4.53004e-05 0 -2.40683e-05 -8.18093e-05
0 -2.85962e-05 -5.82853e-05 0 -1.28559e-05 -9.0438e-05
0 -1.86275e-05 -7.06973e-05 0 -2.58657e-06 -9.98094e-05
0 -8.59738e-06 -8.25717e-05 0 8.23859e-06 -0.000109468
0 1.24292e-06 -9.37579e-05 0 1.43096e-05 -0.000117201
0 6.51471e-06 -0.000100381 0 1.48142e-05 -0.000119976
0 8.99427e-06 -0.000103681 0 1.76097e-05 -0.000122367
0 1.09028e-05 -0.000104789 0 2.14455e-05 -0.000126582
0 1.43085e-05 -0.000105907 0 2.47371e-05 -0.000129406
0 1.80503e-05 -0.000107395 0 2.62623e-05 -0.000129142
0 2.06745e-05 -0.00010802 0 2.72131e-05 -0.000127438
0 2.23538e-05 -0.000106615 0 2.8947e-05 -0.000125799
0 2.38066e-05 -0.000103077 0 3.02656e-05 -0.000123107
0 2.51185e-05 -9.81757e-05 0 3.0428e-05 -0.000118305
0 2.59712e-05 -9.25967e-05 0 3.00706e-05 -0.000111998
0 2.61456e-05 -8.62724e-05 0 2.96137e-05 -0.00010488
0 2.52653e-05 -7.84865e-05 0 2.81078e-05 -9.64931e-05
0 2.32843e-05 -6.88268e-05 0 2.53006e-05 -8.61934e-05
0 2.02158e-05 -5.73019e-05 0 2.15332e-05 -7.43007e-05
0 1.62149e-05 -4.46397e-05 0 1.68216e-05 -6.15092e-05
0 1.14251e-05 -3.13441e-05 0 1.13042e-05 -4.76545e-05
0 5.95835e-06 -1.74836e-05 0 5.03195e-06 -3.27099e-05
0 8.88794e-07 -3.19004e-06 0 -1.85141e-06 -1.72161e-05
0 -3.92102e-06 1.08476e-05 0 -8.15072e-06 -2.37181e-06
0 -9.67891e-06 2.15525e-05 0 -1.50438e-05 8.04406e-06
0 -1.5864e-05 3.14703e-05 0 -2.13509e-05 1.65729e-05
0 -2.1978e-05 4.11305e-05 0 -2.75271e-05 2.75031e-05
0 -2.77355e-05 5.13759e-05 0 -3.46151e-05 4.01962e-05
0 -3.34989e-05 6.2054e-05 0 -4.11266e-05 5.10076e-05
0 -3.94983e-05 7.2424e-05 0 -4.73977e-05 5.9745e-05
0 -4.54261e-05 8.19104e-05 0 -5.37563e-05 6.8936e-05
0 -5.10208e-05 9.03626e-05 0 -5.99934e-05 7.89717e-05
0 -5.64517e-05 9.80349e-05 0 -6.61734e-05 8.77867e-05
0 -6.19339e-05 0.000105328 0 -7.21079e-05 9.48669e-05
0 -6.73939e-05 0.000112274 0 -7.78473e-05 0.000101411
0 -7.26336e-05 0.000118484 0 -8.3516e-05 0.000107773
0 -7.77275e-05 0.000124195 0 -8.90019e-05 0.000113445
0 -8.26503e-05 0.000128553 0 -9.42838e-05 0.000117989
0 -8.74486e-05 0.00013182 0 -9.93993e-05 0.000121706
0 -9.1989e-05 0.000134364 0 -0.000104171 0.000124292
0 -9.62094e-05 0.000136287 0 -0.000108621 0.000126578
0 -0.000100055 0.000137172 0 -0.000112727 0.00012751
0 -0.000103536 0.000136475 0 -0.000116336 0.000126712
0 -0.000106601 0.000134017 0 -0.000119461 0.000124289
0 -0.000109123 0.000129869 0 -0.000122064 0.000120403
0 -0.000111054 0.000124227 0 -0.000124109 0.000114917
0 -0.000112421 0.000117203 0 -0.000125479 0.000107747
0 -0.000113243 0.000108762 0 -0.000126238 9.90374e-05
0 -0.000113423 9.8815e-05 0 -0.00012634 8.89136e-05
0 -0.000112895 8.73845e-05 0 -0.0001257 7.7357e-05
0 -0.000111687 7.46449e-05 0 -0.000124383 6.44499e-05
0 -0.000109841 6.08057e-05 0 -0.00012237 5.03618e-05
0 -0.000107391 4.60147e-05 0 -0.000119729 3.52289e-05
0 -0.000104405 3.03763e-05 0 -0.000116547 1.92004e-05
0 -0.000101211 1.54782e-05 0 -0.000113523 3.2436e-06
0 -9.75402e-05 7.17732e-07 0 -0.000109026 -1.08768e-05
0 -9.36377e-05 -1.3759e-05 0 -0.000105336 -2.52744e-05
0 -8.97778e-05 -2.84375e-05 0 -0.000101312 -4.06722e-05
0 -8.59728e-05 -4.34338e-05 0 -9.70486e-05 -5.63546e-05
0 -8.22031e-05 -5.8422e-05 0 -9.3209e-05 -7.09978e-05
0 -7.86068e-05 -7.29402e-05 0 -8.94839e-05 -8.50945e-05
0 -7.54448e-05 -8.66778e-05 0 -8.61763e-05 -9.9176e-05
0 -7.28509e-05 -9.95925e-05 0 -8.33607e-05 -0.00011264
0 -7.08666e-05 -0.000111752 0 -8.1183e-05 -0.000124911
0 -6.95812e-05 -0.000123103 0 -7.98001e-05 -0.000136108
0 -6.91508e-05 -0.000133414 0 -7.92587e-05 -0.000146408
0 -6.96818e-05 -0.000142445 0 -7.96424e-05 -0.000155545
0 -7.11826e-05 -0.000150111 0 -8.10118e-05 -0.000163263
0 -7.36424e-05 -0.000156466 0 -8.33829e-05 -0.000169638
0 -7.70574e-05 -0.00016157 0 -8.67231e-05 -0.000174762
0 -8.14033e-05 -0.000165415 0 -9.09916e-05 -0.000178557
0 -8.66209e-05 -0.00016797 0 -9.6145e-05 -0.000180982
0 -9.26527e-05 -0.000169237 0 -0.000102142 -0.000182136
0 -9.94836e-05 -0.000169272 0 -0.000108956 -0.000182109
0 -0.000107118 -0.000168152 0 -0.000116585 -0.000180896
0 -0.000115552 -0.000165841 0 -0.00012501 -0.000178393
0 -0.000124772 -0.00016238 0 -0.000134232 -0.000174661
0 -0.00013354 -0.000158198 0 -0.000143494 -0.000169984
0 -0.000142394 -0.000153357 0 -0.000151788 -0.000165203
0 -0.000151733 -0.000147916 0 -0.00016128 -0.000159773
0 -0.000161692 -0.00014181 0 -0.000170941 -0.000153186
0 -0.000171836 -0.000135231 0 -0.000180798 -0.00014635
0 -0.000181763 -0.000128483 0 -0.000190575 -0.000139609
0 -0.000191414 -0.000121824 0 -0.00020005 -0.000132889
0 -0.000200699 -0.000115455 0 -0.000209166 -0.000126219
0 -0.000209303 -0.000109559 0 -0.000217545 -0.000120083
0 -0.000216943 -0.000104286 0 -0.000225009 -0.000114729
0 -0.000223492 -9.97823e-05 0 -0.000231446 -0.00011015
0 -0.000228852 -9.62151e-05 0 -0.000236703 -0.000106476
0 -0.000232852 -9.374e-05 0 -0.000240598 -0.000103926
0 -0.000235315 -9.24513e-05 0 -0.000243006 -0.000102599
0 -0.000236163 -9.23791e-05 0 -0.00024387 -0.000102494
0 -0.000235215 -9.35694e-05 0 -0.000242969 -0.000103671
0 -0.000232328 -9.60761e-05 0 -0.00024006 -0.000106277
0 -0.00022755 -9.98671e-05 0 -0.000235352 -0.000110224
0 -0.000221061 -0.000104803 0 -0.000228949 -0.000115272
0 -0.000213101 -0.000110677 0 -0.000221068 -0.000121279
0 -0.000203907 -0.000117265 0 -0.000211957 -0.000128077
0 -0.00019376 -0.000124337 0 -0.000201915 -0.000135399
0 -0.000182983 -0.000131653 0 -0.000191259 -0.00014295
0 -0.000171878 -0.000138966 0 -0.000180267 -0.000150487
0 -0.000160712 -0.000146019 0 -0.000169216 -0.000157768
0 -0.000149712 -0.000152572 0 -0.000158334 -0.000164546
0 -0.000139089 -0.000158393 0 -0.000147838 -0.000170587
0 -0.000129072 -0.000163076 0 -0.000137942 -0.000175474
0 -0.000119845 -0.000166426 0 -0.000128844 -0.000179048
0 -0.00011146 -0.000168339 0 -0.000120617 -0.000181052
0 -0.000104098 -0.000168734 0 -0.000113466 -0.000181459
0 -9.77955e-05 -0.000167523 0 -0.000107339 -0.000180204
0 -9.25092e-05 -0.000165079 0 -0.000102169 -0.000178471
0 -8.8306e-05 -0.00016134 0 -9.80131e-05 -0.000174699
0 -8.5152e-05 -0.000156538 0 -9.52312e-05 -0.000169543
0 -8.32037e-05 -0.000150001 0 -9.33735e-05 -0.000163103
0 -8.23252e-05 -0.000142008 0 -9.27161e-05 -0.000155036
0 -8.23616e-05 -0.000132797 0 -9.29986e-05 -0.000145503
0 -8.32019e-05 -0.000122503 0 -9.40923e-05 -0.000134815
0 -8.47885e-05 -0.000111162 0 -9.59306e-05 -0.000123104
0 -8.70785e-05 -9.88245e-05 0 -9.84739e-05 -0.00011038
0 -9.00181e-05 -8.56442e-05 0 -0.000101687 -9.68379e-05
0 -9.35559e-05 -7.18526e-05 0 -0.000105489 -8.26987e-05
0 -9.76129e-05 -5.76825e-05 0 -0.000109797 -6.81152e-05
0 -0.000102074 -4.33248e-05 0 -0.000114507 -5.32664e-05
0 -0.000106804 -2.89458e-05 0 -0.000119474 -3.84078e-05
0 -0.000111642 -1.47365e-05 0 -0.000124529 -2.37856e-05
0 -0.000116409 -9.41525e-07 0 -0.000129493 -9.62211e-06
0 -0.000120898 1.21613e-05 0 -0.000134153 3.83902e-06
0 -0.000124898 2.43139e-05 0 -0.000137652 1.56701e-05
0 -0.000127929 3.27571e-05 0 -0.000141595 2.31383e-05
0 -0.000130457 3.96229e-05 0 -0.000144109 2.85197e-05
0 -0.000132199 4.48574e-05 0 -0.000145411 3.46347e-05
0 -0.000132711 4.94198e-05 0 -0.000146284 4.10242e-05
0 -0.000132105 5.34502e-05 0 -0.000145787 4.50684e-05
0 -0.000130565 5.65848e-05 0 -0.000144249 4.67346e-05
0 -0.000127934 5.82928e-05 0 -0.000141531 4.78638e-05
0 -0.000124022 5.83562e-05 0 -0.000137555 4.86955e-05
0 -0.000118932 5.70234e-05 0 -0.000132604 4.78249e-05
0 -0.00011291 5.446e-05 0 -0.000126603 4.49589e-05
0 -0.000106142 5.07956e-05 0 -0.000119693 4.08182e-05
0 -9.86834e-05 4.59078e-05 0 -0.000112182 3.56638e-05
0 -9.06268e-05 3.97723e-05 0 -0.000104086 2.93244e-05
0 -8.2183e-05 3.25354e-05 0 -9.55782e-05 2.18578e-05
0 -7.35525e-05 2.45897e-05 0 -8.68194e-05 1.36963e-05
0 -6.48532e-05 1.62246e-05 0 -7.79954e-05 4.99265e-06
0 -5.62508e-05 8.32679e-06 0 -6.94404e-05 -3.8543e-06
0 -4.77836e-05 4.52808e-07 0 -6.05406e-05 -1.17346e-05
0 -3.95763e-05 -7.2745e-06 0 -5.24033e-05 -1.95209e-05
0 -3.17858e-05 -1.49757e-05 0 -4.44709e-05 -2.76299e-05
0 -2.44524e-05 -2.24429e-05 0 -3.689e-05 -3.54188e-05
0 -1.76165e-05 -2.93713e-05 0 -3.00182e-05 -4.23401e-05
0 -1.13912e-05 -3.55724e-05 0 -2.43084e-05 -4.85626e-05
0 -5.94996e-06 -4.09225e-05 0 -2.28151e-05 -5.32633e-05
0 -1.17826e-06 -4.54122e-05 0 -2.13676e-05 -5.57522e-05
0 2.8049e-06 -4.9171e-05 0 -1.90945e-05 -5.85509e-05
0 5.83161e-06 -5.20193e-05 0 -1.77579e-05 -6.16276e-05
0 6.91375e-06 -5.33546e-05 0 -1.65756e-05 -6.28738e-05
0 7.13105e-06 -5.34302e-05 0 -1.62079e-05 -6.26808e-05
0 7.08543e-06 -5.2578e-05 0 -1.61755e-05 -6.20847e-05
0 6.71665e-06 -5.09508e-05 0 -1.65226e-05 -6.06558e-05
0 5.49115e-06 -4.8278e-05 0 -1.82439e-05 -5.75712e-05
0 3.23754e-06 -4.44157e-05 0 -2.07601e-05 -5.31614e-05
0 1.64805e-07 -3.94465e-05 0 -2.42545e-05 -4.79978e-05
0 -3.63745e-06 -3.35259e-05 0 -2.84435e-05 -4.185e-05
0 -8.27412e-06 -2.68469e-05 0 -3.29215e-05 -3.49697e-05
0 -1.37969e-05 -1.95517e-05 0 -3.83901e-05 -2.75343e-05
0 -1.99846e-05 -1.19293e-05 0 -4.4426e-05 -1.95259e-05
0 -2.65684e-05 -4.47411e-06 0 -5.08996e-05 -1.20245e-05
0 -3.35928e-05 3.41562e-06 0 -5.78446e-05 -3.70864e-06
0 -4.07705e-05 1.11846e-05 0 -6.45664e-05 2.9469e-06
0 -4.79686e-05 1.69734e-05 0 -7.20772e-05 7.66088e-06
0 -5.51839e-05 2.21347e-05 0 -7.87374e-05 1.25214e-05
0 -6.2188e-05 2.66606e-05 0 -8.55007e-05 1.8207e-05
0 -6.87078e-05 3.10247e-05 0 -9.21151e-05 2.34966e-05
0 -7.48199e-05 3.52621e-05 0 -9.80496e-05 2.7239e-05
0 -8.05594e-05 3.89637e-05 0 -0.000103593 2.99931e-05
0 -8.57361e-05 4.17012e-05 0 -0.000108573 3.27818e-05
0 -9.01612e-05 4.32447e-05 0 -0.000112926 3.4944e-05
0 -9.38113e-05 4.37427e-05 0 -0.000116567 3.56753e-05
0 -9.66827e-05 4.32081e-05 0 -0.000119296 3.50496e-05
0 -9.87567e-05 4.1547e-05 0 -0.000121308 3.31718e-05
0 -9.99356e-05 3.85069e-05 0 -0.000122411 2.99379e-05
0 -0.000100203 3.40101e-05 0 -0.000122648 2.53314e-05
0 -9.9566e-05 2.82304e-05 0 -0.000121976 1.95198e-05
0 -9.80987e-05 2.14395e-05 0 -0.000120434 1.25686e-05
0 -9.59636e-05 1.47778e-05 0 -0.000118387 5.07327e-06
0 -9.29765e-05 7.60093e-06 0 -0.000115082 -2.08751e-06
0 -8.93971e-05 -1.31854e-07 0 -0.000111681 -9.9205e-06
0 -8.53594e-05 -8.52764e-06 0 -0.000107567 -1.86857e-05
0 -8.09925e-05 -1.7005e-05 0 -0.000103073 -2.75692e-05
0 -7.68188e-05 -2.34345e-05 0 -9.87792e-05 -3.41453e-05
0 -7.24923e-05 -3.04272e-05 0 -9.48451e-05 -4.109e-05
0 -6.84563e-05 -3.73244e-05 0 -9.0702e-05 -4.86636e-05
0 -6.4855e-05 -4.36189e-05 0 -8.71194e-05 -5.40819e-05
0 -6.17403e-05 -4.91359e-05 0 -8.41764e-05 -5.94607e-05
0 -5.92848e-05 -5.39267e-05 0 -8.17578e-05 -6.48405e-05
0 -5.77092e-05 -5.811e-05 0 -8.02578e-05 -6.94389e-05
0 -5.70871e-05 -6.17076e-05 0 -7.96469e-05 -7.26712e-05
0 -5.74303e-05 -6.45764e-05 0 -8.00668e-05 -7.51285e-05
0 -5.87741e-05 -6.64873e-05 0 -8.14835e-05 -7.70406e-05
0 -6.11463e-05 -6.73421e-05 0 -8.38781e-05 -7.80305e-05
0 -6.44881e-05 -6.7279e-05 0 -8.72381e-05 -7.79667e-05
0 -6.86976e-05 -6.65215e-05 0 -9.14873e-05 -7.71304e-05
0 -7.36861e-05 -6.50983e-05 0 -9.65085e-05 -7.55728e-05
0 -7.93574e-05 -6.29909e-05 0 -0.000102191 -7.32186e-05
0 -8.55776e-05 -6.0198e-05 0 -0.000108456 -7.01975e-05
0 -9.21947e-05 -5.68465e-05 0 -0.000115093 -6.67448e-05
0 -9.90392e-05 -5.3161e-05 0 -0.000121954 -6.29789e-05
0 -0.000105788 -4.93731e-05 0 -0.000128873 -5.89849e-05
0 -0.000111722 -4.58534e-05 0 -0.000134895 -5.51086e-05
0 -0.000117272 -4.25292e-05 0 -0.000140202 -5.17854e-05
0 -0.00012255 -3.93272e-05 0 -0.000145521 -4.84907e-05
0 -0.000127377 -3.63353e-05 0 -0.00015017 -4.53113e-05
0 -0.000131494 -3.37422e-05 0 -0.000154267 -4.26768e-05
0 -0.000134859 -3.16875e-05 0 -0.000157647 -4.06285e-05
0 -0.000137606 -3.01857e-05 0 -0.000160434 -3.90099e-05
0 -0.000139805 -2.91933e-05 0 -0.000162684 -3.78315e-05
0 -0.00014145 -2.86757e-05 0 -0.000164372 -3.72453e-05
0 -0.000142614 -2.86174e-05 0 -0.000165619 -3.71919e-05
0 -0.000143413 -2.90238e-05 0 -0.000166507 -3.75719e-05
0 -0.000143919 -2.98962e-05 0 -0.000167089 -3.83868e-05
0 -0.000144171 -3.12044e-05 0 -0.00016741 -3.96531e-05
0 -0.000144201 -3.28938e-05 0 -0.000167504 -4.13244e-05
0 -0.000144053 -3.4922e-05 0 -0.000167401 -4.33576e-05
0 -0.000143769 -3.72674e-05 0 -0.000167143 -4.57378e-05
0 -0.000143375 -3.99146e-05 0 -0.000166761 -4.84265e-05
0 -0.000142892 -4.2834e-05 0 -0.000166282 -5.13777e-05
0 -0.000142319 -4.59858e-05 0 -0.000165697 -5.45659e-05
0 -0.000141645 -4.93343e-05 0 -0.000165001 -5.79728e-05
0 -0.000140847 -5.28574e-05 0 -0.000164169 -6.15731e-05
0 -0.000139945 -5.62758e-05 0 -0.000163194 -6.53249e-05
0 -0.000138823 -5.96638e-05 0 -0.000162081 -6.87559e-05
0 -0.000137538 -6.30143e-05 0 -0.000160719 -7.20218e-05
0 -0.000136176 -6.64258e-05 0 -0.000159399 -7.55032e-05
0 -0.000134761 -6.99083e-05 0 -0.000157877 -7.91195e-05
0 -0.00013332 -7.33689e-05 0 -0.000156409 -8.25755e-05
0 -0.000131907 -7.6685e-05 0 -0.000154976 -8.57955e-05
0 -0.00013059 -7.97848e-05 0 -0.000153617 -8.89447e-05
0 -0.000129417 -8.26547e-05 0 -0.000152397 -9.19517e-05
0 -0.000128436 -8.5294e-05 0 -0.000151364 -9.46507e-05
0 -0.000127711 -8.76684e-05 0 -0.0001506 -9.69957e-05
0 -0.000127324 -8.97052e-05 0 -0.000150171 -9.90206e-05
0 -0.000127346 -9.13347e-05 0 -0.000150131 -0.000100688
0 -0.000127818 -9.25277e-05 0 -0.000150534 -0.000101918
0 -0.000128776 -9.32921e-05 0 -0.000151421 -0.0001027
0 -0.000130237 -9.36446e-05 0 -0.000152801 -0.000103063
0 -0.000132207 -9.35915e-05 0 -0.000154677 -0.000103012
0 -0.000134668 -9.31028e-05 0 -0.000157032 -0.000102524
0 -0.000137588 -9.21027e-05 0 -0.000159834 -0.00010149
0 -0.000140914 -9.06797e-05 0 -0.000163046 -0.000100062
0 -0.000144598 -8.8919e-05 0 -0.000166596 -9.82672e-05
0 -0.000148411 -8.69357e-05 0 -0.000170282 -9.62037e-05
0 -0.000152134 -8.49253e-05 0 -0.000173562 -9.4219e-05
0 -0.000155944 -8.29651e-05 0 -0.000177174 -9.24664e-05
0 -0.000159911 -8.0983e-05 0 -0.000180781 -9.07055e-05
0 -0.000163908 -7.91108e-05 0 -0.000184421 -8.88258e-05
0 -0.000167671 -7.77018e-05 0 -0.000187836 -8.75707e-05
0 -0.000171146 -7.65322e-05 0 -0.000190929 -8.65376e-05
0 -0.000174202 -7.57779e-05 0 -0.000193688 -8.58286e-05
0 -0.000176708 -7.5546e-05 0 -0.000195847 -8.56596e-05
0 -0.000178556 -7.58992e-05 0 -0.000197373 -8.61389e-05
0 -0.000179682 -7.6851e-05 0 -0.000198211 -8.7191e-05
0 -0.000180045 -7.84079e-05 0 -0.000198321 -8.88446e-05
0 -0.000179513 -8.06117e-05 0 -0.00019755 -9.11931e-05
0 -0.000177995 -8.34987e-05 0 -0.000195774 -9.42825e-05
0 -0.000175509 -8.7021e-05 0 -0.00019314 -9.79204e-05
0 -0.000172001 -9.07613e-05 0 -0.000189303 -0.000101658
0 -0.000167559 -9.49238e-05 0 -0.000184726 -0.000105853
0 -0.000162276 -9.9447e-05 0 -0.000179295 -0.000110662
0 -0.000156273 -0.000104301 0 -0.000173062 -0.000115853
0 -0.0001496 -0.000109413 0 -0.000166238 -0.00012107
0 -0.000142274 -0.000114654 0 -0.000158774 -0.000126354
0 -0.000134337 -0.000119878 0 -0.000150728 -0.000131761
0 -0.000125824 -0.000124972 0 -0.000142108 -0.000137107
0 -0.000116776 -0.000129861 0 -0.000132981 -0.000142191
0 -0.00010729 -0.000134458 0 -0.00012347 -0.000146937
0 -9.75291e-05 -0.000138613 0 -0.000113716 -0.000151243
0 -8.76857e-05 -0.000142132 0 -0.000103908 -0.000154898
0 -7.7933e-05 -0.000144841 0 -9.42164e-05 -0.000157721
0 -6.84483e-05 -0.000146589 0 -8.48322e-05 -0.000159595
0 -5.94162e-05 -0.000147146 0 -7.59498e-05 -0.000160268
0 -5.10338e-05 -0.000146341 0 -6.77195e-05 -0.000159479
0 -4.34951e-05 -0.000144027 0 -6.04046e-05 -0.000157131
0 -3.6964e-05 -0.000140114 0 -5.40926e-05 -0.000153158
0 -3.15397e-05 -0.000134567 0 -4.89145e-05 -0.000147504
0 -2.72566e-05 -0.000127392 0 -4.49047e-05 -0.000140134
0 -2.40945e-05 -0.000118625 0 -4.20403e-05 -0.000131114
0 -2.20071e-05 -0.000108335 0 -4.02753e-05 -0.000120528
0 -2.09162e-05 -9.66292e-05 0 -3.95222e-05 -0.000108484
0 -2.07124e-05 -8.36518e-05 0 -3.96795e-05 -9.51179e-05
0 -2.12779e-05 -6.95683e-05 0 -4.06306e-05 -8.06011e-05
0 -2.2481e-05 -5.45576e-05 0 -4.22345e-05 -6.51258e-05
0 -2.41967e-05 -3.88071e-05 0 -4.43668e-05 -4.88764e-05
0 -2.63018e-05 -2.25154e-05 0 -4.69082e-05 -3.20682e-05
0 -2.86882e-05 -5.88498e-06 0 -4.97422e-05 -1.49064e-05
0 -3.10259e-05 1.0642e-05 0 -5.18993e-05 1.63104e-06
0 -3.33933e-05 2.26221e-05 0 -5.54826e-05 1.32298e-05
0 -3.60133e-05 3.37137e-05 0 -5.84405e-05 2.25223e-05
0 -3.84655e-05 4.39202e-05 0 -6.05613e-05 3.38777e-05
0 -4.02996e-05 5.44804e-05 0 -6.32767e-05 4.70641e-05
0 -4.1764e-05 6.54725e-05 0 -6.52037e-05 5.82826e-05
0 -4.30801e-05 7.61546e-05 0 -6.68183e-05 6.70398e-05
0 -4.40361e-05 8.57521e-05 0 -6.80607e-05 7.59862e-05
0 -4.4429e-05 9.40416e-05 0 -6.87894e-05 8.57157e-05
0 -4.43977e-05 0.000101405 0 -6.92676e-05 9.43574e-05
0 -4.41635e-05 0.00010836 0 -6.9411e-05 0.000101125
0 -4.37487e-05 0.000115018 0 -6.92403e-05 0.000107181
0 -4.30609e-05 0.000120995 0 -6.88442e-05 0.000113198
0 -4.21044e-05 0.000125855 0 -6.82291e-05 0.000118424
0 -4.0937e-05 0.000129542 0 -6.73631e-05 0.000122266
0 -3.95188e-05 0.000132332 0 -6.61666e-05 0.000125149
0 -3.77073e-05 0.00013444 0 -6.45555e-05 0.000127474
0 -3.53875e-05 0.000135799 0 -6.24657e-05 0.000128922
0 -3.25247e-05 0.000136167 0 -5.98301e-05 0.000129112
0 -2.90289e-05 0.000135094 0 -5.64921e-05 0.000127907
0 -2.4907e-05 0.000132488 0 -5.25312e-05 0.000125415
0 -2.01941e-05 0.000128481 0 -4.80169e-05 0.000121377
0 -1.49778e-05 0.000123263 0 -4.29043e-05 0.000115939
0 -9.39541e-06 0.000117015 0 -3.74697e-05 0.000109465
0 -3.57311e-06 0.000109877 0 -3.17734e-05 0.000102124
0 2.33612e-06 0.000102028 0 -2.72209e-05 9.42355e-05
0 8.16582e-06 9.37572e-05 0 -2.62996e-05 8.74664e-05
0 1.39292e-05 8.52202e-05 0 -2.47239e-05 8.12824e-05
0 1.64957e-05 7.73764e-05 0 -2.26336e-05 7.34219e-05
0 1.76663e-05 7.02188e-05 0 -2.05421e-05 6.52626e-05
0 1.85373e-05 6.36641e-05 0 -1.90822e-05 5.81165e-05
0 2.01707e-05 5.6922e-05 0 -1.82911e-05 5.14159e-05
0 2.17943e-05 5.00475e-05 0 -1.7358e-05 4.46695e-05
0 2.24536e-05 4.37231e-05 0 -1.67652e-05 3.83953e-05
0 2.23365e-05 3.87672e-05 0 -1.68518e-05 3.31618e-05
0 2.15971e-05 3.72404e-05 0 -1.77767e-05 3.14572e-05
0 2.0128e-05 3.57528e-05 0 -1.99295e-05 2.9738e-05
0 1.7101e-05 3.5086e-05 0 -2.29904e-05 2.91446e-05
0 1.25633e-05 3.56174e-05 0 -2.77579e-05 3.08475e-05
0 7.44978e-06 3.72782e-05 0 -3.35626e-05 3.27372e-05
0 1.54323e-06 3.99041e-05 0 -4.04597e-05 3.53109e-05
0 -5.51865e-06 4.31676e-05 0 -4.75147e-05 3.88053e-05
0 -1.38423e-05 4.69421e-05 0 -5.55735e-05 4.28101e-05
0 -2.31249e-05 5.12539e-05 0 -6.47744e-05 4.7461e-05
0 -3.32014e-05 5.61505e-05 0 -7.47028e-05 5.26429e-05
0 -4.4175e-05 6.15501e-05 0 -8.55704e-05 5.81763e-05
0 -5.60498e-05 6.71756e-05 0 -9.71024e-05 6.38217e-05
0 -6.86335e-05 7.27171e-05 0 -0.000109299 6.94793e-05
0 -8.17455e-05 7.79915e-05 0 -0.000122079 7.50338e-05
0 -9.5336e-05 8.29315e-05 0 -0.000135289 8.02281e-05
0 -0.000109341 8.74415e-05 0 -0.000148802 8.48485e-05
0 -0.000123582 9.13037e-05 0 -0.000162478 8.87223e-05
0 -0.000137815 9.42258e-05 0 -0.000176132 9.16575e-05
0 -0.000151828 9.59508e-05 0 -0.000189559 9.34279e-05
0 -0.000165443 9.63045e-05 0 -0.000202551 9.38227e-05
0 -0.000178451 9.51565e-05 0 -0.000214904 9.26642e-05
0 -0.000190643 9.23698e-05 0 -0.000226443 8.97906e-05
0 -0.000201835 8.77895e-05 0 -0.000236988 8.50575e-05
0 -0.000211872 8.12745e-05 0 -0.000246387 7.83605e-05
0 -0.000220631 7.27378e-05 0 -0.000254526 6.9632e-05
0 -0.00022801 6.21578e-05 0 -0.00026131 5.88359e-05
0 -0.000233956 4.95652e-05 0 -0.000266695 4.59775e-05
0 -0.000238633 3.68465e-05 0 -0.000271186 3.14738e-05
0 -0.000241705 2.28667e-05 0 -0.000273213 1.77352e-05
0 -0.000243364 7.81686e-06 0 -0.000274589 2.96525e-06
0 -0.00024375 -8.91154e-06 0 -0.000274826 -1.41384e-05
0 -0.00024266 -2.74954e-05 0 -0.000272902 -3.33431e-05
0 -0.000240124 -4.75012e-05 0 -0.000270091 -5.32183e-05
0 -0.000236351 -6.83741e-05 0 -0.000265943 -7.36716e-05
0 -0.00023166 -8.97939e-05 0 -0.000260796 -9.54255e-05
0 -0.000226253 -0.000111696 0 -0.000254915 -0.000118041
0 -0.000220293 -0.000134043 0 -0.000248465 -0.000140693
0 -0.000214025 -0.000156603 0 -0.000241794 -0.000163156
0 -0.00020772 -0.000178974 0 -0.000235059 -0.000185574
0 -0.0002016 -0.000200752 0 -0.000228467 -0.000207666
0 -0.00019581 -0.000221697 0 -0.000222218 -0.000228926
0 -0.000190472 -0.000241704 0 -0.000216451 -0.000249148
0 -0.000185712 -0.000260661 0 -0.000211282 -0.000268294
0 -0.000181638 -0.000278366 0 -0.000206797 -0.000286172
0 -0.000178347 -0.000294571 0 -0.000203118 -0.000302491
0 -0.000175936 -0.000309077 0 -0.000200355 -0.000317108
0 -0.000174501 -0.000321768 0 -0.000198594 -0.000329957
0 -0.000174111 -0.000332577 0 -0.000197899 -0.000340917
0 -0.00017478 -0.00034145 0 -0.000198288 -0.000349861
0 -0.000176484 -0.000348333 0 -0.000199755 -0.000356753
0 -0.000179176 -0.000353192 0 -0.000202247 -0.000361619
0 -0.000182773 -0.000356037 0 -0.000205676 -0.000364478
0 -0.000187162 -0.000356923 0 -0.000209939 -0.000365357
0 -0.000192224 -0.000355888 0 -0.000214941 -0.00036428
0 -0.000197807 -0.000352824 0 -0.000220476 -0.000361081
0 -0.000203807 -0.000347487 0 -0.000226488 -0.000355529
0 -0.000210115 -0.000339855 0 -0.000232948 -0.000347587
0 -0.00021656 -0.000330264 0 -0.00023953 -0.000337816
0 -0.000222954 -0.000319014 0 -0.000246141 -0.000326096
0 -0.000229085 -0.00030631 0 -0.000252583 -0.000312766
0 -0.00023464 -0.000293108 0 -0.000258355 -0.000300405
0 -0.000239605 -0.000279006 0 -0.000263334 -0.000286431
0 -0.000243528 -0.00026569 0 -0.000267975 -0.000272146
0 -0.000246657 -0.000251558 0 -0.000271305 -0.000258046
0 -0.000248762 -0.000237219 0 -0.000273912 -0.000243377
0 -0.000249742 -0.000222951 0 -0.000275433 -0.000228597
0 -0.000249573 -0.000208918 0 -0.000275821 -0.000214002
0 -0.00024827 -0.000195122 0 -0.000275097 -0.000199709
0 -0.000245827 -0.00018154 0 -0.00027324 -0.000185627
0 -0.00024224 -0.00016824 0 -0.000270302 -0.000171929
0 -0.000237555 -0.000155364 0 -0.000266272 -0.000158744
0 -0.000231822 -0.000143033 0 -0.000261202 -0.000146056
0 -0.000225076 -0.000131288 0 -0.000255142 -0.000133857
0 -0.000217355 -0.000120085 0 -0.00024813 -0.000122214
0 -0.000208732 -0.000109361 0 -0.000240225 -0.000111141
0 -0.000199315 -9.90852e-05 0 -0.000231534 -0.000100583
0 -0.000189216 -8.92662e-05 0 -0.000222164 -9.04876e-05
0 -0.000178556 -7.98903e-05 0 -0.000212249 -8.08064e-05
0 -0.000167472 -7.08844e-05 0 -0.000201916 -7.14698e-05
0 -0.000156102 -6.21338e-05 0 -0.000191297 -6.2397e-05
0 -0.000144599 -5.35269e-05 0 -0.000180549 -5.3507e-05
0 -0.000133127 -4.49829e-05 0 -0.000169828 -4.47107e-05
0 -0.00012187 -3.64344e-05 0 -0.000159321 -3.58993e-05
0 -0.000111024 -2.77992e-05 0 -0.000149221 -2.69657e-05
0 -0.000100752 -1.89807e-05 0 -0.000139685 -1.78225e-05
0 -9.11934e-05 -9.88562e-06 0 -0.000130851 -8.40335e-06
0 -8.24298e-05 -4.64286e-07 0 -0.000122791 1.32919e-06
0 -7.44978e-05 9.27995e-06 0 -0.000114824 1.05596e-05
0 -6.69974e-05 1.84117e-05 0 -0.000108877 1.67159e-05
0 -6.07577e-05 2.53453e-05 0 -0.000103091 2.20888e-05
0 -5.55217e-05 3.19154e-05 0 -9.79501e-05 2.93011e-05
0 -5.10407e-05 3.85719e-05 0 -9.41651e-05 3.82283e-05
0 -4.71865e-05 4.59718e-05 0 -9.09978e-05 4.64151e-05
0 -4.43433e-05 5.43076e-05 0 -8.8816e-05 5.36523e-05
0 -4.25632e-05 6.30632e-05 0 -8.74715e-05 6.16128e-05
0 -4.15904e-05 7.15932e-05 0 -8.69095e-05 7.0682e-05
0 -4.13357e-05 7.97378e-05 0 -8.72731e-05 7.97158e-05
0 -4.1923e-05 8.78802e-05 0 -8.84369e-05 8.81769e-05
0 -4.33844e-05 9.64086e-05 0 -9.03353e-05 9.67087e-05
0 -4.55349e-05 0.000105246 0 -9.28964e-05 0.000105662
0 -4.81888e-05 0.000113951 0 -9.60179e-05 0.000114505
0 -5.12932e-05 0.000122166 0 -9.96013e-05 0.00012278
0 -5.47996e-05 0.000129847 0 -0.000103522 0.000130674
0 -5.85751e-05 0.000137131 0 -0.000107673 0.000138402
0 -6.24576e-05 0.000144072 0 -0.000111946 0.000145701
0 -6.63395e-05 0.000150543 0 -0.000116225 0.000152214
0 -7.01519e-05 0.000156323 0 -0.000120405 0.000157936
0 -7.37816e-05 0.000161045 0 -0.000124383 0.000162777
0 -7.71504e-05 0.000164721 0 -0.000128074 0.000166828
0 -8.02282e-05 0.000167475 0 -0.000131473 0.000169922
0 -8.30111e-05 0.000169338 0 -0.000134555 0.000171811
0 -8.54759e-05 0.000170188 0 -0.000137297 0.000172591
0 -8.76595e-05 0.00016957 0 -0.00013968 0.000172059
0 -8.96109e-05 0.000167383 0 -0.000141902 0.000169883
0 -9.13984e-05 0.000163722 0 -0.000143815 0.000166227
0 -9.3078e-05 0.000158811 0 -0.000145659 0.000161334
0 -9.47351e-05 0.000152833 0 -0.000147456 0.000155267
0 -9.64672e-05 0.000145877 0 -0.00014927 0.000148079
0 -9.83725e-05 0.000138401 0 -0.000151196 0.000140006
0 -0.000101147 0.000134089 0 -0.000153761 0.000134904
0 -0.00010387 0.00012807 0 -0.000157132 0.000129305
0 -0.000106918 0.000121324 0 -0.000159861 0.00012204
0 -0.000110351 0.000114416 0 -0.000163582 0.000116377
0 -0.00011403 0.000107489 0 -0.000167389 0.000109332
0 -0.000118021 0.000100357 0 -0.000171297 0.000101491
0 -0.000122439 9.27145e-05 0 -0.000175777 9.36549e-05
0 -0.000127275 8.44751e-05 0 -0.000180615 8.5834e-05
0 -0.000132522 7.58699e-05 0 -0.000185893 7.7496e-05
0 -0.000138241 6.72245e-05 0 -0.000191563 6.88204e-05
0 -0.000144485 5.86385e-05 0 -0.000197744 6.01232e-05
0 -0.000151224 4.99453e-05 0 -0.000204399 5.13065e-05
0 -0.000158431 4.09649e-05 0 -0.000211501 4.22475e-05
0 -0.000166365 3.20168e-05 0 -0.000219066 3.30662e-05
0 -0.000174479 2.41268e-05 0 -0.000227448 2.40604e-05
0 -0.000183084 1.66097e-05 0 -0.00023565 1.66523e-05
0 -0.000192293 9.14651e-06 0 -0.000244686 9.43958e-06
0 -0.000202029 1.28777e-06 0 -0.000254342 1.51177e-06
0 -0.000212109 -7.0858e-06 0 -0.00026403 -6.93432e-06
0 -0.000222506 -1.56854e-05 0 -0.000274292 -1.51002e-05
0 -0.000233187 -2.42835e-05 0 -0.000284716 -2.32213e-05
0 -0.000243881 -3.29709e-05 0 -0.000295228 -3.19854e-05
0 -0.000253593 -4.23081e-05 0 -0.00030568 -4.12728e-05
0 -0.000262902 -5.23325e-05 0 -0.000315439 -5.08142e-05
0 -0.000272013 -6.29875e-05 0 -0.000323509 -6.11783e-05
0 -0.000280948 -7.40242e-05 0 -0.000331791 -7.24986e-05
0 -0.000289278 -8.53763e-05 0 -0.000339449 -8.39423e-05
0 -0.000296865 -9.71756e-05 0 -0.000346417 -9.56994e-05
0 -0.000303847 -0.000109552 0 -0.000353016 -0.000108138
0 -0.000310219 -0.000122525 0 -0.000358725 -0.000121232
0 -0.000315833 -0.000135995 0 -0.000363762 -0.000134668
0 -0.000320576 -0.000149844 0 -0.000368099 -0.000148392
0 -0.000324494 -0.000164002 0 -0.000371609 -0.000162575
0 -0.000327657 -0.000178441 0 -0.00037437 -0.000177151
0 -0.000330061 -0.000193131 0 -0.000376391 -0.000191888
0 -0.000331714 -0.000207985 0 -0.000377753 -0.000206671
0 -0.000332706 -0.000222859 0 -0.000378516 -0.000221482
0 -0.000333108 -0.000237606 0 -0.000378677 -0.000236234
0 -0.000332977 -0.00025211 0 -0.000378298 -0.000250771
0 -0.000332371 -0.000266276 0 -0.000377499 -0.000264953
0 -0.00033138 -0.000279995 0 -0.000376346 -0.000278665
0 -0.000330093 -0.000293138 0 -0.00037491 -0.000291797
0 -0.000328556 -0.000305579 0 -0.000373247 -0.000304223
0 -0.0003268 -0.0003172 0 -0.000371405 -0.000315829
0 -0.000324866 -0.000327904 0 -0.000369423 -0.000326522
0 -0.00032281 -0.000337596 0 -0.000367358 -0.0003362
0 -0.000320667 -0.000346188 0 -0.000365245 -0.000344762
0 -0.00031847 -0.000353597 0 -0.000363111 -0.000352124
0 -0.000316293 -0.000359729 0 -0.000361062 -0.000358203
0 -0.000314211 -0.000364497 0 -0.000359149 -0.000362905
0 -0.000312275 -0.00036783 0 -0.000357421 -0.000366159
0 -0.000310518 -0.000369678 0 -0.000355922 -0.000367922
0 -0.000308976 -0.000369983 0 -0.000354704 -0.000368131
0 -0.000307673 -0.000368525 0 -0.00035376 -0.000366517
0 -0.000306651 -0.000365237 0 -0.000353143 -0.000362969
0 -0.000305983 -0.000359978 0 -0.000352969 -0.000357465
0 -0.000305847 -0.000352379 0 -0.000353359 -0.00034953
0 -0.000306298 -0.000342652 0 -0.000354402 -0.000339512
0 -0.000307407 -0.000330904 0 -0.000356136 -0.000327242
0 -0.000309226 -0.000317181 0 -0.000358665 -0.000312809
0 -0.000311761 -0.000301563 0 -0.000361919 -0.000296513
0 -0.000314962 -0.000284381 0 -0.000365861 -0.000278671
0 -0.000318582 -0.000266708 0 -0.000369952 -0.000262551
