-6.83192e-06 -1.63696e-05 -7.18167e-07 7.17359e-06 1.63889e-05 6.68947e-07
-7.04441e-06 -1.63518e-05 -7.191e-07 6.95349e-06 1.64099e-05 6.67339e-07
-7.5163e-06 -1.63135e-05 -7.21053e-07 6.4689e-06 1.64509e-05 6.65482e-07
-8.47316e-06 -1.62454e-05 -7.23051e-07 5.48425e-06 1.65246e-05 6.6239e-07
-9.53933e-06 -1.61827e-05 -7.23716e-07 4.3875e-06 1.65924e-05 6.61258e-07
-1.08828e-05 -1.61229e-05 -7.22184e-07 3.00574e-06 1.66585e-05 6.62023e-07
-1.25106e-05 -1.60767e-05 -7.17095e-07 1.33196e-06 1.67109e-05 6.66468e-07
-1.44285e-05 -1.6057e-05 -7.06877e-07 -6.39259e-07 1.67359e-05 6.76071e-07
-1.66427e-05 -1.60785e-05 -6.90121e-07 -2.91422e-06 1.67182e-05 6.92468e-07
-1.91593e-05 -1.61571e-05 -6.65465e-07 -5.49873e-06 1.66413e-05 7.17193e-07
-2.19801e-05 -1.63102e-05 -6.3159e-07 -8.39419e-06 1.64871e-05 7.51646e-07
-2.5093e-05 -1.65565e-05 -5.87299e-07 -1.15877e-05 1.62357e-05 7.9709e-07
-2.84627e-05 -1.69171e-05 -5.31724e-07 -1.50344e-05 1.58683e-05 8.54252e-07
-3.20178e-05 -1.74121e-05 -4.6481e-07 -1.86581e-05 1.53595e-05 9.23761e-07
-3.56601e-05 -1.80693e-05 -3.86171e-07 -2.23697e-05 1.46807e-05 1.00561e-06
-3.9254e-05 -1.89136e-05 -2.96839e-07 -2.60265e-05 1.38061e-05 1.10031e-06
-4.26408e-05 -1.99665e-05 -1.98486e-07 -2.94644e-05 1.27136e-05 1.20517e-06
-4.56526e-05 -2.12438e-05 -9.42988e-08 -3.25125e-05 1.13846e-05 1.31702e-06
-4.8131e-05 -2.27532e-05 1.08743e-08 -3.50089e-05 9.81047e-06 1.4314e-06
-4.99341e-05 -2.44921e-05 1.11812e-07 -3.6808e-05 7.99422e-06 1.54219e-06
-5.0935e-05 -2.64457e-05 1.98419e-07 -3.77803e-05 5.95089e-06 1.64062e-06
-5.10062e-05 -2.8589e-05 2.61194e-07 -3.7796e-05 3.70622e-06 1.71647e-06
-5.00071e-05 -3.08872e-05 2.88831e-07 -3.67119e-05 1.29614e-06 1.7581e-06
-4.77724e-05 -3.32965e-05 2.68801e-07 -3.43603e-05 -1.23396e-06 1.75273e-06
-4.41155e-05 -3.57634e-05 1.87415e-07 -3.05517e-05 -3.82858e-06 1.68652e-06
-3.88567e-05 -3.82205e-05 3.09547e-08 -2.51062e-05 -6.40046e-06 1.5499e-06
-3.18971e-05 -4.05824e-05 -2.1207e-07 -1.79232e-05 -8.88533e-06 1.31619e-06
-2.33118e-05 -4.27434e-05 -5.62138e-07 -9.08301e-06 -1.11598e-05 9.77022e-07
-1.34232e-05 -4.45653e-05 -1.03459e-06 1.08231e-06 -1.3082e-05 5.12822e-07
-2.76273e-06 -4.58917e-05 -1.64375e-06 1.20246e-05 -1.44864e-05 -8.92338e-08
8.05353e-06 -4.65653e-05 -2.39811e-06 2.31107e-05 -1.52091e-05 -8.40817e-07
1.84506e-05 -4.64412e-05 -3.30779e-06 3.37819e-05 -1.50908e-05 -1.75391e-06
2.79155e-05 -4.54115e-05 -4.37281e-06 4.34854e-05 -1.40234e-05 -2.82693e-06
3.60546e-05 -4.34078e-05 -5.58521e-06 5.18099e-05 -1.1932e-05 -4.05781e-06
4.26228e-05 -4.04032e-05 -6.93045e-06 5.84957e-05 -8.79572e-06 -5.42679e-06
4.75485e-05 -3.64097e-05 -8.38454e-06 6.34555e-05 -4.63153e-06 -6.91074e-06
5.08987e-05 -3.14918e-05 -9.9145e-06 6.6746e-05 5.00269e-07 -8.4782e-06
5.27611e-05 -2.57697e-05 -1.1484e-05 6.85032e-05 6.47817e-06 -1.0089e-05
5.33434e-05 -1.93689e-05 -1.30469e-05 6.89241e-05 1.31824e-05 -1.16921e-05
5.28801e-05 -1.24512e-05 -1.45526e-05 6.82565e-05 2.04266e-05 -1.32513e-05
5.16207e-05 -5.21056e-06 -1.59524e-05 6.67667e-05 2.80172e-05 -1.47e-05
4.97945e-05 2.16386e-06 -1.71934e-05 6.46938e-05 3.57465e-05 -1.59921e-05
4.75624e-05 9.48052e-06 -1.82252e-05 6.22045e-05 4.34164e-05 -1.70722e-05
4.49971e-05 1.65546e-05 -1.89987e-05 5.93808e-05 5.08333e-05 -1.78913e-05
4.21262e-05 2.3211e-05 -1.94687e-05 5.62575e-05 5.78128e-05 -1.8403e-05
3.90245e-05 2.92891e-05 -1.95907e-05 5.29157e-05 6.41765e-05 -1.85656e-05
3.59034e-05 3.46481e-05 -1.93362e-05 4.95798e-05 6.97553e-05 -1.83399e-05
3.3161e-05 3.90719e-05 -1.86755e-05 4.66586e-05 7.43645e-05 -1.77024e-05
3.13564e-05 4.24189e-05 -1.7589e-05 4.47259e-05 7.78424e-05 -1.66301e-05
3.11834e-05 4.45593e-05 -1.60674e-05 4.44969e-05 8.00483e-05 -1.51134e-05
3.4478e-05 4.53898e-05 -1.35587e-05 4.78562e-05 8.08644e-05 -1.25949e-05
4.31491e-05 4.40991e-05 -1.04079e-05 5.67768e-05 7.94492e-05 -9.41573e-06
5.84738e-05 4.07753e-05 -6.68e-06 7.25642e-05 7.58902e-05 -5.6424e-06
8.10849e-05 3.57127e-05 -2.47528e-06 9.58605e-05 7.04927e-05 -1.37755e-06
0.000110777 2.94167e-05 2.13852e-06 0.000126444 6.3788e-05 3.29357e-06
0.000146424 2.26058e-05 6.93977e-06 0.000163144 5.65286e-05 8.20145e-06
0.000185985 1.61529e-05 1.17533e-05 0.00020385 4.96407e-05 1.3082e-05
0.000226692 1.10213e-05 1.63958e-05 0.000245704 4.4126e-05 1.78033e-05
0.000265571 8.14629e-06 2.07016e-05 0.000285637 4.09762e-05 2.21526e-05
0.000300104 8.31661e-06 2.45271e-05 0.000321046 4.1018e-05 2.60117e-05
0.000328642 1.20832e-05 2.77768e-05 0.000350227 4.4828e-05 2.92652e-05
0.00035044 1.97204e-05 3.04051e-05 0.000372404 5.26958e-05 3.18717e-05
0.000365486 3.12241e-05 3.24182e-05 0.000387559 6.46174e-05 3.38303e-05
0.000374322 4.6332e-05 3.38697e-05 0.000396256 8.03187e-05 3.52015e-05
0.000377809 6.45603e-05 3.48597e-05 0.000399384 9.92909e-05 3.60892e-05
0.000376852 8.52544e-05 3.5527e-05 0.000397889 0.00012085 3.66365e-05
0.000372355 0.000107627 3.60395e-05 0.00039272 0.000144172 3.70162e-05
0.000365434 0.000130783 3.65837e-05 0.000385043 0.000168316 3.74217e-05
0.00035757 0.000153744 3.7354e-05 0.000376401 0.000192258 3.80563e-05
0.00035051 0.000175519 3.85406e-05 0.000368613 0.000214956 3.91176e-05
0.000345954 0.000195178 4.03156e-05 0.000363442 0.000235438 4.07837e-05
0.000345131 0.000211945 4.2818e-05 0.000362174 0.000252889 4.31992e-05
0.000348569 0.000225255 4.61443e-05 0.000365366 0.000266719 4.6465e-05
0.000356279 0.000234765 5.03427e-05 0.000373043 0.000276565 5.06326e-05
0.000368024 0.000240335 5.54123e-05 0.000384966 0.000282284 5.57014e-05
0.000383412 0.000242023 6.13016e-05 0.000400733 0.000283938 6.16191e-05
0.00040193 0.000240079 6.79114e-05 0.00041981 0.000281788 6.82843e-05
0.000422976 0.000234918 7.50991e-05 0.000441568 0.000276271 7.55514e-05
0.000445901 0.000227099 8.26854e-05 0.000465327 0.000267973 8.32365e-05
0.000470009 0.000217295 9.04628e-05 0.000490353 0.0002576 9.11265e-05
0.000494535 0.00020626 9.82043e-05 0.000515843 0.000245943 9.89884e-05
0.000518685 0.000194791 0.000105675 0.000540957 0.000233838 0.00010658
0.000541749 0.00018368 0.000112642 0.000564949 0.000222115 0.000113664
0.000563236 0.000173667 0.000118886 0.000587292 0.000211548 0.000120014
0.000582894 0.000165404 0.000124214 0.000607711 0.00020282 0.000125432
0.000600577 0.000159443 0.000128461 0.000626039 0.00019651 0.000129747
0.000615949 0.00015624 0.000131501 0.000641918 0.000193097 0.00013283
0.000628237 0.000156156 0.000133247 0.000654548 0.000192961 0.000134592
0.000636281 0.00015943 0.000133663 0.000662733 0.000196355 0.000134992
0.000638847 0.000166131 0.000132761 0.000665208 0.000203351 0.000134045
0.000636278 0.000173869 0.000131135 0.000662381 0.000211451 0.000132361
0.000626798 0.000186214 0.000128071 0.000652344 0.00022439 0.000129201
0.000610334 0.000200983 0.000124015 0.000635073 0.000239886 0.000125026
0.000587415 0.000217388 0.000119174 0.00061113 0.000257112 0.000120049
0.000558918 0.000234478 0.000113786 0.000581439 0.000275073 0.000114516
0.000525854 0.000251204 0.000108109 0.000547065 0.000292671 0.000108693
0.000489322 0.000266475 0.000102405 0.000509165 0.00030876 0.000102851
0.000450429 0.00027921 9.69274e-05 0.000468906 0.000322208 9.72519e-05
0.000410192 0.000288406 9.19066e-05 0.000427359 0.000331963 9.21327e-05
0.000369525 0.000293176 8.75364e-05 0.000385488 0.000337097 8.76944e-05
0.000329217 0.000292801 8.3964e-05 0.000344123 0.000336855 8.40897e-05
0.000289871 0.000286762 8.12809e-05 0.000303899 0.000330693 8.14138e-05
0.000251958 0.000274762 7.95176e-05 0.000265307 0.000318301 7.96995e-05
0.000216026 0.000256721 7.86413e-05 0.000228917 0.000299594 7.89145e-05
0.000182907 0.00023277 7.8556e-05 0.000195574 0.000274707 7.89617e-05
0.000153574 0.000203262 7.91036e-05 0.000166266 0.000244011 7.96804e-05
0.000128684 0.000168812 8.00666e-05 0.000141648 0.000208149 8.08479e-05
0.000108396 0.000130292 8.11757e-05 0.000121862 0.000168038 8.21882e-05
9.24924e-05 8.87966e-05 8.21211e-05 0.000106651 0.00012482 8.33832e-05
8.04778e-05 4.55825e-05 8.25665e-05 9.54736e-05 7.98135e-05 8.40872e-05
7.1614e-05 2.01818e-06 8.2166e-05 8.75345e-05 3.44519e-05 8.39435e-05
6.48902e-05 -4.04714e-05 8.05805e-05 8.17577e-05 -9.77252e-06 8.2602e-05
5.91344e-05 -8.03891e-05 7.74851e-05 7.67243e-05 -5.13521e-05 7.97361e-05
5.24514e-05 -0.000116196 7.26358e-05 7.08043e-05 -8.87407e-05 7.50699e-05
4.28598e-05 -0.000146839 6.58501e-05 6.18042e-05 -0.000120571 6.83763e-05
2.86562e-05 -0.000171499 5.69253e-05 4.78532e-05 -0.000146036 5.95862e-05
8.95397e-06 -0.000189579 4.58421e-05 2.81539e-05 -0.000164667 4.85365e-05
-1.60934e-05 -0.000200883 3.26366e-05 2.77204e-06 -0.000176197 3.53116e-05
-4.57063e-05 -0.000205557 1.74568e-05 -2.74639e-05 -0.00018076 2.00718e-05
-7.90302e-05 -0.000204044 5.43765e-07 -6.16634e-05 -0.000178869 3.04635e-06
-0.000115528 -0.000197043 -1.74565e-05 -9.92604e-05 -0.000171242 -1.51176e-05
-0.000155021 -0.000185405 -3.65562e-05 -0.000140052 -0.000158761 -3.43805e-05
-0.000197376 -0.000170184 -5.6268e-05 -0.000183864 -0.000142514 -5.43063e-05
-0.000242254 -0.000152599 -7.6122e-05 -0.000230315 -0.000123826 -7.43636e-05
-0.000289202 -0.000133994 -9.56425e-05 -0.000278909 -0.000104061 -9.41305e-05
-0.000337795 -0.000115752 -0.000114357 -0.000329168 -8.46725e-05 -0.000113046
-0.000387653 -9.92375e-05 -0.000131782 -0.000380663 -6.70995e-05 -0.000130662
-0.000438357 -8.5763e-05 -0.000147476 -0.000432927 -5.27072e-05 -0.000146526
-0.000489303 -7.6546e-05 -0.000161051 -0.000485305 -4.27713e-05 -0.000160235
-0.000539473 -7.2674e-05 -0.000172188 -0.000536725 -3.84285e-05 -0.000171462
-0.000587279 -7.50682e-05 -0.000180641 -0.000585536 -4.06508e-05 -0.000179948
-0.000630683 -8.44259e-05 -0.000186251 -0.000629635 -5.01717e-05 -0.000185539
-0.000667637 -0.000101133 -0.000188967 -0.000666924 -6.73948e-05 -0.000188181
-0.000696551 -0.000125187 -0.000188851 -0.000695777 -9.23206e-05 -0.000187932
-0.000716553 -0.000156159 -0.000186075 -0.000715318 -0.000124503 -0.000184966
-0.000727622 -0.000193192 -0.000180917 -0.000725552 -0.000163048 -0.000179569
-0.000730549 -0.000235042 -0.00017375 -0.000727324 -0.000206649 -0.000172124
-0.000726811 -0.00028014 -0.000165025 -0.000722192 -0.000253663 -0.000163093
-0.000718436 -0.000326682 -0.000155249 -0.000712278 -0.000302202 -0.000152995
-0.000707737 -0.000372741 -0.000144961 -0.000700003 -0.000350247 -0.000142383
-0.000696982 -0.000416393 -0.000134697 -0.000687736 -0.000395786 -0.000131809
-0.000688162 -0.000455829 -0.000124972 -0.000677565 -0.000436925 -0.000121802
-0.000682946 -0.000489446 -0.000116252 -0.000671242 -0.000471989 -0.00011284
-0.00068265 -0.000515927 -0.000108932 -0.000670147 -0.0004996 -0.000105327
-0.000684216 -0.000533009 -0.000103476 -0.000674226 -0.000518216 -9.96401e-05
-0.000690273 -0.000540201 -9.99138e-05 -0.000684738 -0.000527765 -9.59272e-05
-0.000703796 -0.000539811 -9.82562e-05 -0.000701349 -0.000528337 -9.42897e-05
-0.00072414 -0.000531914 -9.85497e-05 -0.000723676 -0.000520403 -9.4578e-05
-0.000749958 -0.000516169 -0.000100683 -0.000751638 -0.000504434 -9.6789e-05
-0.00117171 -0.000495808 -0.000104331 -0.00123071 -0.000483978 -0.00010047
-0.00202043 -0.000471023 -0.000109308 -0.00211449 -0.000458053 -0.000105737
-0.0030072 -0.000441205 -0.000115428 -0.00313587 -0.000427382 -0.000111958
-0.00412494 -0.000407793 -0.000122297 -0.00429551 -0.000393131 -0.000119067
-0.00535459 -0.000372196 -0.000129577 -0.00556693 -0.000356454 -0.00012656
-0.00665427 -0.000335661 -0.000136857 -0.00691266 -0.000318902 -0.000134043
-0.00797407 -0.000299622 -0.000143711 -0.0082793 -0.000281843 -0.00014113
-0.00926049 -0.000265469 -0.000149757 -0.00961013 -0.000246759 -0.000147382
-0.0104648 -0.000234472 -0.000154641 -0.0108562 -0.000214941 -0.000152438
-0.0115542 -0.000207817 -0.000158039 -0.0119829 -0.000187593 -0.000155979
-0.0125117 -0.000186491 -0.000159677 -0.0129716 -0.000165741 -0.000157734
-0.0133298 -0.00017125 -0.000159371 -0.0138144 -0.0001502 -0.000157508
-0.0140036 -0.00016265 -0.000157019 -0.0145058 -0.00014152 -0.000155181
-0.0145259 -0.000160988 -0.00015259 -0.0150381 -0.00014 -0.000150728
-0.014886 -0.000166283 -0.000146133 -0.0154003 -0.000145675 -0.00014421
-0.0150721 -0.000178305 -0.000137797 -0.0155807 -0.000158298 -0.000135769
-0.0150945 -0.000196713 -0.000127797 -0.0155976 -0.000177565 -0.000125614
-0.0150851 -0.000221222 -0.000116425 -0.0155873 -0.000203263 -0.00011404
-0.0150678 -0.000250836 -0.000104055 -0.0155687 -0.000234288 -0.00010142
-0.0150433 -0.000284139 -9.11271e-05 -0.0155427 -0.000269159 -8.82331e-05
-0.0150131 -0.000319459 -7.8142e-05 -0.0155108 -0.000306166 -7.4963e-05
-0.0149861 -0.00034796 -6.80606e-05 -0.0154825 -0.000336027 -6.46524e-05
-0.0149579 -0.000375646 -5.85383e-05 -0.0154527 -0.000365031 -5.49051e-05
-0.0149293 -0.000401573 -4.98272e-05 -0.0154228 -0.000392192 -4.59849e-05
-0.0149015 -0.000424849 -4.21631e-05 -0.0153937 -0.000416583 -3.81343e-05
-0.0148754 -0.000444669 -3.5758e-05 -0.0153664 -0.00043736 -3.15697e-05
-0.0148516 -0.000460332 -3.0792e-05 -0.0153417 -0.000453788 -2.64749e-05
-0.0148308 -0.000471277 -2.74047e-05 -0.0153201 -0.000465278 -2.2995e-05
-0.0148132 -0.000477095 -2.56915e-05 -0.0153019 -0.000471408 -2.12303e-05
-0.0147987 -0.000477556 -2.57027e-05 -0.0152872 -0.000471938 -2.12332e-05
-0.014787 -0.000472602 -2.74424e-05 -0.0152753 -0.000466811 -2.30071e-05
-0.0147773 -0.000462345 -3.08679e-05 -0.0152657 -0.000456144 -2.6507e-05
-0.0147689 -0.000447041 -3.58914e-05 -0.0152576 -0.000440205 -3.16429e-05
-0.014761 -0.000427064 -4.23837e-05 -0.0152501 -0.000419388 -3.82834e-05
-0.014753 -0.000402878 -5.01795e-05 -0.0152428 -0.000394177 -4.62597e-05
-0.0147448 -0.00037502 -5.90824e-05 -0.0152352 -0.000365133 -5.53708e-05
-0.0147361 -0.000344086 -6.88693e-05 -0.0152273 -0.000332878 -6.53878e-05
-0.014727 -0.000310732 -7.92945e-05 -0.015219 -0.000298098 -7.60592e-05
-0.0147173 -0.000275668 -9.00945e-05 -0.0152102 -0.000261536 -8.71163e-05
-0.0147069 -0.00023965 -0.000100995 -0.0152006 -0.00022398 -9.82789e-05
-0.0146953 -0.000203449 -0.000111717 -0.0151899 -0.000186238 -0.000109262
-0.0146823 -0.00016783 -0.000121985 -0.0151777 -0.000149107 -0.000119785
-0.0146674 -0.000133523 -0.000131534 -0.0151636 -0.000113353 -0.000129576
-0.0146506 -0.000101205 -0.000140113 -0.0151473 -7.96836e-05 -0.00013838
-0.0146314 -7.14851e-05 -0.000147494 -0.0151287 -4.87375e-05 -0.000145963
-0.0146098 -4.48897e-05 -0.000153476 -0.0151074 -2.10655e-05 -0.000152122
-0.0145856 -2.18456e-05 -0.000157891 -0.0150833 2.88571e-06 -0.000156684
-0.0145586 -2.66613e-06 -0.000160604 -0.0150564 2.27878e-05 -0.000159514
-0.014529 1.24579e-05 -0.000161522 -0.0150265 3.84404e-05 -0.000160516
-0.0144968 2.34612e-05 -0.000160589 -0.014994 4.97751e-05 -0.000159634
-0.0144624 3.04041e-05 -0.000157791 -0.014959 5.6855e-05 -0.000156854
-0.014426 3.34681e-05 -0.000153155 -0.0149218 5.98699e-05 -0.000152203
-0.0143881 3.2947e-05 -0.000146743 -0.0148831 5.91277e-05 -0.000145748
-0.0143492 2.92364e-05 -0.000138656 -0.0148432 5.50427e-05 -0.00013759
-0.01431 2.28055e-05 -0.000129023 -0.0148028 4.81172e-05 -0.000127865
-0.0140979 1.50091e-05 -0.000118097 -0.0144689 4.06323e-05 -0.000116921
-0.0136719 5.81864e-06 -0.000105948 -0.0140141 3.11712e-05 -0.000104471
-0.0132551 -4.44515e-06 -9.26353e-05 -0.013573 2.08712e-05 -9.12759e-05
-0.0128541 -1.53502e-05 -7.85863e-05 -0.013149 9.33259e-06 -7.70254e-05
-0.0124712 -2.66967e-05 -6.38642e-05 -0.0127433 -2.34291e-06 -6.22217e-05
-0.0121044 -3.77973e-05 -4.87161e-05 -0.0123544 -1.38279e-05 -4.69134e-05
-0.0117503 -4.81879e-05 -3.33319e-05 -0.0119794 -2.46484e-05 -3.14118e-05
-0.0114059 -5.75413e-05 -1.79306e-05 -0.0116142 -3.43884e-05 -1.58884e-05
-0.0110672 -6.54867e-05 -2.71089e-06 -0.0112542 -4.25904e-05 -5.45964e-07
-0.0107302 -7.16353e-05 1.24451e-05 -0.0108959 -4.88757e-05 1.46335e-05
-0.0103925 -7.56133e-05 2.69664e-05 -0.0105366 -5.28827e-05 2.93206e-05
-0.0100536 -7.71583e-05 4.07825e-05 -0.0101754 -5.421e-05 4.32606e-05
-0.00971438 -7.60174e-05 5.3745e-05 -0.00981321 -5.27214e-05 5.62458e-05
-0.00937672 -7.19034e-05 6.5749e-05 -0.0094522 -4.81418e-05 6.82293e-05
-0.00904325 -6.47901e-05 7.66433e-05 -0.00909493 -4.0347e-05 7.91192e-05
-0.008716 -5.46237e-05 8.63781e-05 -0.00874358 -2.93125e-05 8.88307e-05
-0.00839606 -4.14239e-05 9.49102e-05 -0.00839943 -1.50723e-05 9.73111e-05
-0.0080693 -2.47944e-05 0.000102152 -0.00805949 2.46621e-06 0.000104515
-0.00774377 -5.06834e-06 0.000108188 -0.00772529 2.29035e-05 0.000110469
-0.00742111 1.71403e-05 0.000113066 -0.00739594 4.60517e-05 0.000115205
-0.00710238 4.14298e-05 0.000116807 -0.00706921 7.14889e-05 0.000118822
-0.00678692 6.75912e-05 0.000119507 -0.00674681 9.88634e-05 0.000121376
-0.00647623 9.52486e-05 0.000121266 -0.0064308 0.000127727 0.00012298
-0.00617384 0.000123861 0.000122206 -0.00612333 0.000157636 0.000123754
-0.00588286 0.000152963 0.000122457 -0.00582735 0.000188105 0.000123828
-0.00560589 0.000182128 0.000122157 -0.00554624 0.000218623 0.000123343
-0.00534596 0.000210859 0.000121444 -0.00528299 0.000248673 0.000122447
-0.00510606 0.000238636 0.000120463 -0.00504014 0.000277742 0.000121291
-0.00488811 0.000264984 0.000119357 -0.00481967 0.000305327 0.00012002
-0.00469297 0.000289455 0.000118265 -0.00462258 0.000330941 0.000118772
-0.00452052 0.000311606 0.000117313 -0.00444856 0.000354126 0.000117676
-0.00436949 0.000331033 0.000116615 -0.00429606 0.000374464 0.000116853
-0.00423712 0.000347385 0.000116268 -0.00416218 0.000391587 0.000116403
-0.00411931 0.000360368 0.000116352 -0.00404263 0.000405182 0.000116409
-0.0040109 0.000369745 0.000116926 -0.00393194 0.000415006 0.000116929
-0.00390615 0.000375355 0.000118028 -0.00382402 0.000420894 0.000118001
-0.00379951 0.000377123 0.000119667 -0.00371311 0.000422768 0.000119636
-0.00368626 0.000375061 0.000121828 -0.00359426 0.00042064 0.000121821
-0.00356228 0.000369268 0.000124473 -0.00346317 0.000414619 0.000124515
-0.00342369 0.000359927 0.000127539 -0.00331573 0.000404901 0.000127653
-0.00326668 0.00034731 0.00013094 -0.00314807 0.000391773 0.000131148
-0.00308814 0.000331774 0.00013457 -0.00295707 0.000375604 0.000134891
-0.00288616 0.000313746 0.000138305 -0.0027409 0.000356846 0.000138752
-0.00266061 0.000293725 0.000142004 -0.00249953 0.000336019 0.000142591
-0.00241341 0.000272266 0.00014552 -0.00223517 0.000313704 0.000146253
-0.00214862 0.000249974 0.000148695 -0.00195223 0.000290529 0.000149578
-0.00187182 0.000227474 0.000151373 -0.00165672 0.000267149 0.000152403
-0.00158912 0.000205402 0.000153401 -0.00135522 0.000244224 0.000154572
-0.00130651 0.000184378 0.000154635 -0.00105418 0.0002224 0.000155935
-0.00102957 0.00016499 0.000154943 -0.000759586 0.000202289 0.000156358
-0.000763492 0.00014778 0.000154214 -0.000477033 0.000184455 0.000155723
-0.000513166 0.00013323 0.000152357 -0.000211764 0.000169398 0.000153939
-0.0002831 0.000121748 0.000149308 3.13952e-05 0.000157545 0.000150936
-7.71072e-05 0.000113656 0.00014503 0.000248374 0.000149228 0.000146677
0.000102228 0.000109183 0.000139517 0.000436406 0.000144685 0.000141154
0.000254178 0.000108452 0.000132796 0.000594692 0.000144044 0.000134395
0.000380122 0.000111479 0.000124926 0.000724658 0.00014732 0.000126457
0.000482134 0.000118152 0.000116004 0.000881849 0.000154789 0.000117387
0.000562578 0.000128294 0.000106123 0.00106243 0.000165875 0.000107401
0.000629287 0.000141582 9.54734e-05 0.00120317 0.000180299 9.65709e-05
0.000683231 0.000157783 8.41929e-05 0.00131423 0.000197538 8.51138e-05
0.000724442 0.000176396 7.24882e-05 0.00139495 0.00021726 7.32204e-05
0.000751088 0.00019697 6.05691e-05 0.00144321 0.000238962 6.10926e-05
0.000762725 0.000219058 4.86451e-05 0.00145541 0.000262116 4.89702e-05
0.000762181 0.00024213 3.69438e-05 0.0014538 0.000286327 3.7051e-05
0.00075929 0.000265626 2.56865e-05 0.00145025 0.000310979 2.55991e-05
0.000754319 0.000288997 1.51116e-05 0.00144459 0.000335536 1.48172e-05
0.000747065 0.000311706 5.43298e-06 0.00143657 0.000359367 4.94794e-06
0.000737292 0.000333161 -3.04527e-06 0.001426 0.000381875 -3.67476e-06
0.000724765 0.000352793 -1.02084e-05 0.00141266 0.000402486 -1.10255e-05
0.000709303 0.000370087 -1.59209e-05 0.00139635 0.000420651 -1.68835e-05
0.000690876 0.000384548 -2.00355e-05 0.00137706 0.000435839 -2.1117e-05
0.000669691 0.000395683 -2.24232e-05 0.00135502 0.000447538 -2.35936e-05
0.000646234 0.000403043 -2.29952e-05 0.00133077 0.000455289 -2.42238e-05
0.000621137 0.000406256 -2.17002e-05 0.00130494 0.000458698 -2.29485e-05
0.000595068 0.000405035 -1.85194e-05 0.00127824 0.000457459 -1.97474e-05
0.000568679 0.000399188 -1.34698e-05 0.00125133 0.000451374 -1.46407e-05
0.000542581 0.000388634 -6.60947e-06 0.00122485 0.000440358 -7.68966e-06
0.000517344 0.000373415 1.98286e-06 0.00119939 0.000424451 1.06832e-06
0.000493505 0.000353671 1.23265e-05 0.00117548 0.000403803 1.154e-05
0.000471575 0.000329692 2.40234e-05 0.00115364 0.000378718 2.34519e-05
0.000452022 0.000301869 3.69018e-05 0.00113436 0.000349605 3.65528e-05
0.000435193 0.000270709 5.0716e-05 0.00111795 0.000316994 5.06198e-05
0.000421203 0.000236831 6.51846e-05 0.00110454 0.000281535 6.53675e-05
0.000409907 0.000200957 7.99998e-05 0.00109393 0.000243985 8.04825e-05
0.000400958 0.000163887 9.48398e-05 0.00108578 0.000205184 9.56345e-05
0.000393864 0.000126478 0.00010938 0.00107953 0.000166028 0.000110488
0.000387995 8.96069e-05 0.000123298 0.00107452 0.00012744 0.000124712
0.000382621 5.41515e-05 0.000136277 0.00106998 9.03414e-05 0.000137983
0.000376975 2.09555e-05 0.000148018 0.0010651 5.56169e-05 0.000149995
0.000370335 -9.20141e-06 0.000158243 0.00105912 2.40821e-05 0.000160465
0.000362084 -3.5634e-05 0.000166709 0.00105138 -3.54564e-06 0.000169145
0.000351724 -5.7773e-05 0.000173214 0.00104137 -2.66691e-05 0.000175825
0.000338853 -7.51784e-05 0.000177598 0.00102865 -4.48259e-05 0.00018034
0.000323135 -8.75499e-05 0.000179747 0.00101287 -5.77009e-05 0.000182573
0.000304318 -9.47364e-05 0.000179597 0.000993777 -6.51362e-05 0.000182459
0.000282261 -9.67436e-05 0.000177135 0.000971216 -6.71383e-05 0.000179987
0.000256946 -9.37365e-05 0.000172401 0.000945178 -6.38795e-05 0.000175197
0.000228484 -8.60338e-05 0.000165483 0.000915784 -5.56929e-05 0.00016818
0.000197102 -7.40989e-05 0.000156518 0.000883279 -4.3063e-05 0.000159076
0.00016312 -5.85237e-05 0.000145685 0.000848005 -2.66098e-05 0.000148069
0.000126915 -4.00098e-05 0.000133199 0.00081037 -7.06781e-06 0.00013538
8.88878e-05 -1.93458e-05 0.000119307 0.000770805 1.47375e-05 0.000121266
4.94325e-05 2.61672e-06 0.000104281 0.000729737 3.79149e-05 0.000106003
8.95586e-06 2.49936e-05 8.84091e-05 0.000651722 6.12173e-05 8.9913e-05
-0.000348127 4.56127e-05 7.20381e-05 0.000170911 8.2077e-05 7.34068e-05
-0.000802777 6.47814e-05 5.54492e-05 -0.00031832 0.000102274 5.64914e-05
-0.00125993 8.20036e-05 3.87894e-05 -0.000811673 0.000120379 3.9756e-05
-0.00171498 9.6755e-05 2.24331e-05 -0.00130185 0.000135732 2.31214e-05
-0.00216201 0.000108362 6.54945e-06 -0.00178355 0.000147693 7.15354e-06
-0.00259482 0.000116136 -8.3476e-06 -0.00224844 0.000155818 -7.90521e-06
-0.00300619 0.000119701 -2.23879e-05 -0.00268854 0.000159595 -2.20301e-05
-0.0033805 0.000119073 -3.53784e-05 -0.00309534 0.000158742 -3.50526e-05
-0.0037143 0.000113964 -4.71793e-05 -0.00346081 0.000153001 -4.68446e-05
-0.00400669 0.000104049 -5.76898e-05 -0.00378277 0.000142257 -5.73237e-05
-0.00425626 8.93168e-05 -6.68608e-05 -0.00405753 0.000126469 -6.6445e-05
-0.00446188 7.01638e-05 -7.4703e-05 -0.00428513 0.000105886 -7.41682e-05
-0.0046239 4.67295e-05 -8.12089e-05 -0.00446705 8.09804e-05 -8.05284e-05
-0.00474467 1.93835e-05 -8.64443e-05 -0.00460445 5.19375e-05 -8.55892e-05
-0.00482668 -1.13943e-05 -9.05013e-05 -0.00469991 1.93313e-05 -8.94623e-05
-0.00488736 -4.55478e-05 -9.34398e-05 -0.0047595 -1.64321e-05 -9.22295e-05
-0.00492077 -8.21935e-05 -9.54987e-05 -0.00478472 -5.44079e-05 -9.40852e-05
-0.0049278 -0.000120192 -9.68643e-05 -0.00478501 -9.39057e-05 -9.51836e-05
-0.00492609 -0.000158669 -9.76636e-05 -0.00478241 -0.000134028 -9.57564e-05
-0.0049231 -0.000196911 -9.8109e-05 -0.00477843 -0.000173908 -9.59758e-05
-0.00491967 -0.000234083 -9.84057e-05 -0.00477394 -0.000212567 -9.60509e-05
-0.0049167 -0.000269184 -9.87529e-05 -0.00477001 -0.000249092 -9.6189e-05
-0.00491526 -0.000301361 -9.93335e-05 -0.00476777 -0.000282608 -9.65739e-05
-0.00491643 -0.000329918 -0.000100305 -0.00476826 -0.000312316 -9.73748e-05
-0.0049211 -0.000354206 -0.000101803 -0.00477241 -0.000337543 -9.87325e-05
-0.00494118 -0.000373782 -0.000103923 -0.00478096 -0.000357757 -0.000100759
-0.0050863 -0.000388674 -0.000106747 -0.00486543 -0.000373052 -0.000103489
-0.0052825 -0.000398396 -0.000110266 -0.00507395 -0.00038307 -0.000106978
-0.00553354 -0.000402748 -0.000114543 -0.0053385 -0.000387723 -0.00011126
-0.00583586 -0.000401954 -0.000119518 -0.0056607 -0.000386944 -0.000116242
-0.00618532 -0.000396201 -0.000125115 -0.00603403 -0.000381022 -0.00012191
-0.00657514 -0.000385821 -0.000131247 -0.0064518 -0.000370309 -0.000128113
-0.00699804 -0.000371298 -0.000137775 -0.00690632 -0.000355301 -0.000134753
-0.00744722 -0.000353222 -0.00014454 -0.00738989 -0.000336603 -0.000141644
-0.00791622 -0.000332242 -0.000151359 -0.00789557 -0.000314891 -0.000148611
-0.00839868 -0.000309067 -0.000158037 -0.00841648 -0.000290919 -0.000155451
-0.00888782 -0.000284477 -0.000164376 -0.00894511 -0.000265487 -0.000161956
-0.00937654 -0.000259284 -0.000170168 -0.00947356 -0.000239427 -0.000167912
-0.00985769 -0.00023429 -0.000175208 -0.00999398 -0.000213578 -0.000173111
-0.0103242 -0.000210283 -0.000179298 -0.0104986 -0.000188764 -0.000177354
-0.0107691 -0.000188019 -0.00018226 -0.0109798 -0.000165768 -0.000180455
-0.011186 -0.000168198 -0.000183937 -0.0114303 -0.000145312 -0.000182251
-0.0115689 -0.000151438 -0.000184199 -0.0118438 -0.000128039 -0.000182608
-0.0119132 -0.000138263 -0.000182946 -0.0122149 -0.000114494 -0.00018142
-0.0122149 -0.000129091 -0.000180109 -0.0125393 -0.000105112 -0.000178622
-0.0124701 -0.000124226 -0.000175661 -0.0128128 -0.000100208 -0.000174182
-0.0126754 -0.000123849 -0.000169614 -0.0130317 -9.99666e-05 -0.000168111
-0.0128283 -0.000128012 -0.000162019 -0.0131931 -0.000104442 -0.000160458
-0.0129274 -0.000136632 -0.000152968 -0.0132958 -0.000113545 -0.000151317
-0.0129743 -0.000149491 -0.00014259 -0.0133413 -0.00012705 -0.000140818
-0.0129781 -0.000166263 -0.000131049 -0.013343 -0.000144658 -0.000129124
-0.0129736 -0.000186579 -0.000118541 -0.0133378 -0.000166002 -0.000116434
-0.0129657 -0.000209864 -0.000105293 -0.0133291 -0.000190442 -0.000102987
-0.0129552 -0.000235419 -9.15617e-05 -0.0133176 -0.000217251 -8.90314e-05
-0.0129426 -0.000262466 -7.7615e-05 -0.013304 -0.000245622 -7.48537e-05
-0.0129289 -0.000290189 -6.37359e-05 -0.0132892 -0.000274706 -6.07347e-05
-0.0129146 -0.000317759 -5.02077e-05 -0.0132738 -0.000303622 -4.69689e-05
-0.0129007 -0.000344348 -3.73097e-05 -0.0132589 -0.000331503 -3.38402e-05
-0.0128878 -0.000369156 -2.53071e-05 -0.013245 -0.000357517 -2.1622e-05
-0.0128765 -0.000391458 -1.44458e-05 -0.0132328 -0.000380903 -1.05658e-05
-0.0128672 -0.000410624 -4.94519e-06 -0.0132227 -0.000401003 -8.95849e-07
-0.0128599 -0.00042614 3.11664e-06 -0.0132148 -0.000417284 7.28705e-06
-0.0128545 -0.000437604 9.45415e-06 -0.013209 -0.000429313 1.37834e-05
-0.012851 -0.000444727 1.39576e-05 -0.0132052 -0.0004368 1.83699e-05
-0.0128492 -0.000447342 1.65427e-05 -0.0132032 -0.000439567 2.09883e-05
-0.0128487 -0.000445402 1.71878e-05 -0.0132028 -0.000437567 2.16146e-05
-0.0128495 -0.000438982 1.59036e-05 -0.0132038 -0.000430876 2.02758e-05
-0.0128512 -0.000428271 1.27404e-05 -0.0132058 -0.000419696 1.703e-05
-0.0128537 -0.000413565 7.79093e-06 -0.0132088 -0.000404336 1.19701e-05
-0.0128568 -0.000395245 1.18893e-06 -0.0132126 -0.000385194 5.22634e-06
-0.0128606 -0.000373787 -6.75732e-06 -0.0132171 -0.000362767 -2.87938e-06
-0.0128651 -0.000349717 -1.59863e-05 -0.0132224 -0.000337607 -1.2333e-05
-0.0128702 -0.00032365 -2.6271e-05 -0.0132285 -0.000310349 -2.28353e-05
-0.0128758 -0.000296256 -3.73694e-05 -0.013235 -0.000281695 -3.41693e-05
-0.0128814 -0.000268252 -4.90353e-05 -0.0132416 -0.0002524 -4.60678e-05
-0.0128867 -0.000240377 -6.10132e-05 -0.0132478 -0.000223236 -5.82722e-05
-0.0128912 -0.000213361 -7.30456e-05 -0.0132533 -0.000194965 -7.05211e-05
-0.0128947 -0.000187896 -8.4878e-05 -0.0132576 -0.000168313 -8.25592e-05
-0.0128968 -0.000164624 -9.6268e-05 -0.0132605 -0.00014395 -9.41424e-05
-0.0128975 -0.000144115 -0.000106993 -0.0132619 -0.000122473 -0.000105043
-0.0128968 -0.00012686 -0.000116855 -0.0132616 -0.000104396 -0.000115056
-0.0128945 -0.000113255 -0.000125683 -0.0132597 -9.01315e-05 -0.000124004
-0.0128907 -0.000103595 -0.000133332 -0.0132562 -7.99914e-05 -0.000131743
-0.0128856 -9.8077e-05 -0.000139691 -0.0132512 -7.41816e-05 -0.000138161
-0.0128791 -9.67978e-05 -0.000144685 -0.0132445 -7.2804e-05 -0.000143182
-0.012871 -9.97551e-05 -0.000148272 -0.0132362 -7.58572e-05 -0.000146766
-0.012861 -0.000106846 -0.000150448 -0.0132258 -8.32351e-05 -0.000148905
-0.012849 -0.000117862 -0.000151242 -0.0132132 -9.47215e-05 -0.000149633
-0.0128346 -0.00013249 -0.000150719 -0.0131981 -0.00010999 -0.000149015
-0.0128176 -0.000150316 -0.000148974 -0.0131801 -0.000128609 -0.00014715
-0.0127976 -0.000170831 -0.000146133 -0.0131591 -0.000150049 -0.000144167
-0.0127746 -0.000193435 -0.000142347 -0.013135 -0.000173684 -0.000140221
-0.0127485 -0.000217444 -0.000137788 -0.0131076 -0.0001988 -0.000135489
-0.0127194 -0.000242109 -0.000132647 -0.0130771 -0.000224613 -0.000130167
-0.0126877 -0.000266628 -0.000127123 -0.013044 -0.000250287 -0.00012446
-0.0126537 -0.00029017 -0.000121419 -0.0130086 -0.000274954 -0.000118578
-0.0126182 -0.000311898 -0.000115739 -0.0129716 -0.000297739 -0.00011273
-0.0125818 -0.000330995 -0.000110275 -0.0129339 -0.000317787 -0.000107114
-0.0125454 -0.000346695 -0.000105205 -0.0128962 -0.000334298 -0.000101913
-0.0125096 -0.000358312 -0.000100683 -0.0128593 -0.000346555 -9.7287e-05
-0.0124752 -0.000365268 -9.68362e-05 -0.012824 -0.000353953 -9.33678e-05
-0.0124426 -0.000367108 -9.37586e-05 -0.0127907 -0.000356018 -9.02526e-05
-0.0124123 -0.000363521 -9.15087e-05 -0.0127598 -0.000352422 -8.80023e-05
-0.0123846 -0.000354339 -9.01067e-05 -0.0127318 -0.00034299 -8.66383e-05
-0.0123597 -0.000339546 -8.95335e-05 -0.0127067 -0.000327706 -8.61416e-05
-0.0123377 -0.000319279 -8.97312e-05 -0.0126848 -0.000306708 -8.64532e-05
-0.0123186 -0.000293822 -9.06041e-05 -0.012666 -0.000280296 -8.74754e-05
-0.0123023 -0.000263605 -9.20214e-05 -0.0126493 -0.000248906 -8.90746e-05
-0.0122891 -0.000229229 -9.38029e-05 -0.0125163 -0.000212409 -9.1154e-05
-0.0121911 -0.000191 -9.58329e-05 -0.0124005 -0.000172695 -9.33077e-05
-0.0120929 -0.000150073 -9.77929e-05 -0.012309 -0.00013008 -9.56356e-05
-0.0120117 -0.000107361 -9.95291e-05 -0.0122367 -8.58153e-05 -9.75474e-05
-0.0119448 -6.38914e-05 -0.000100744 -0.0121793 -4.05251e-05 -9.90712e-05
-0.0118888 -2.04355e-05 -0.000101251 -0.0121332 4.67739e-06 -9.98182e-05
-0.0118585 2.14319e-05 -0.000100719 -0.0120965 4.86903e-05 -9.96089e-05
-0.0118346 6.10455e-05 -9.90544e-05 -0.0120613 9.09544e-05 -9.82264e-05
-0.0118094 9.82142e-05 -9.60962e-05 -0.0120253 0.000130429 -9.54245e-05
-0.0117756 0.000132379 -9.15646e-05 -0.0119843 0.000166581 -9.11799e-05
-0.0117301 0.000162683 -8.54252e-05 -0.0119295 0.000198575 -8.51768e-05
-0.0116664 0.00018826 -7.75714e-05 -0.0118544 0.00022571 -7.74882e-05
-0.0115647 0.000209407 -6.79858e-05 -0.0117512 0.000247722 -6.80041e-05
-0.0114361 0.00022527 -5.6675e-05 -0.0116209 0.000263927 -5.67057e-05
-0.0112784 0.000235231 -4.36107e-05 -0.0114548 0.000274254 -4.3646e-05
-0.011087 0.000239373 -2.88959e-05 -0.0112496 0.000278581 -2.8872e-05
-0.0108572 0.000237974 -1.26628e-05 -0.0110032 0.000277027 -1.25587e-05
-0.0105871 0.000231196 5.05874e-06 -0.0107126 0.000269826 5.42297e-06
-0.0102759 0.000219323 2.40978e-05 -0.0103756 0.000257403 2.45191e-05
-0.00992212 0.000202962 4.39866e-05 -0.00999151 0.000240317 4.45818e-05
-0.00952513 0.000182795 6.4464e-05 -0.00956058 0.000219242 6.52961e-05
-0.00908541 0.000159531 8.52284e-05 -0.00908299 0.000194952 8.63354e-05
-0.0086041 0.000133991 0.000105943 -0.00855989 0.000168326 0.000107324
-0.00808336 0.000107107 0.000126249 -0.00799423 0.000140316 0.000127899
-0.0075274 7.98423e-05 0.00014579 -0.00739091 0.000111926 0.000147709
-0.00694287 5.31704e-05 0.000164219 -0.00675719 8.4182e-05 0.000166407
-0.00633851 2.80754e-05 0.000181207 -0.00610262 5.81104e-05 0.00018365
-0.00572452 5.51168e-06 0.000196443 -0.00543835 3.46999e-05 0.000199113
-0.00511142 -1.34912e-05 0.000208292 -0.00477595 1.5041e-05 0.000210486
-0.00451015 -2.73637e-05 0.000208046 -0.00412946 1.82524e-06 0.000204691
-0.00392985 -3.6696e-05 0.000208251 -0.00350731 -7.51944e-06 0.000205417
-0.00338324 -4.0604e-05 0.000207372 -0.00291744 -1.20433e-05 0.000206001
-0.0028768 -3.93993e-05 0.000207176 -0.00237609 -1.01953e-05 0.00020533
-0.00242001 -3.24981e-05 0.000207835 -0.00188766 -2.83357e-06 0.000205732
-0.00201739 -1.96858e-05 0.000206724 -0.00145929 1.08398e-05 0.000203932
-0.00167013 -9.5252e-07 0.00020282 -0.00109185 3.06846e-05 0.000199439
-0.00137525 2.34797e-05 0.000196028 -0.000781492 5.62155e-05 0.000192926
-0.00112643 5.30059e-05 0.000186996 -0.00052217 8.71434e-05 0.000184158
-0.000916398 8.69829e-05 0.000176313 -0.000305776 0.000122805 0.000173267
-0.000737298 0.000124689 0.000164239 -0.00012374 0.000162425 0.000160523
-0.000581077 0.000165332 0.000150775 3.29141e-05 0.000205074 0.000146414
-0.000439798 0.000208002 0.000136054 0.000173049 0.000249783 0.000131389
-0.000306009 0.00025171 0.000120518 0.000304859 0.000295572 0.000115759
-0.000173265 0.000295452 0.000104749 0.000435427 0.000341434 9.97826e-05
-3.65428e-05 0.000338255 8.92063e-05 0.000570372 0.000386351 8.37899e-05
0.000107709 0.000379188 7.4147e-05 0.000713839 0.000429324 6.82036e-05
0.000261732 0.000417376 5.97738e-05 0.000868542 0.000469416 5.34485e-05
0.000426562 0.000452009 4.63825e-05 0.00103583 0.00050578 3.98618e-05
0.000592914 0.0004819 3.44188e-05 0.0012026 0.000536513 2.78073e-05
0.000750479 0.000505411 2.41964e-05 0.00124141 0.000556209 1.80542e-05
0.00109033 0.000525038 1.60038e-05 0.00136391 0.000575289 8.9551e-06
0.00150864 0.000540158 9.45546e-06 0.00154784 0.000587419 3.27378e-06
0.00196598 0.000549455 5.30437e-06 0.00190349 0.000596738 -1.00151e-06
0.00245435 0.000553614 3.08829e-06 0.00240665 0.000600628 -2.7919e-06
0.0029967 0.00055185 2.73816e-06 0.002958 0.00059916 -3.18951e-06
0.00359305 0.000544416 4.53521e-06 0.00356957 0.000591575 -1.4115e-06
0.00424903 0.000531352 8.40929e-06 0.00424539 0.000578184 2.54841e-06
0.0049668 0.000513032 1.42455e-05 0.00498947 0.000559377 8.41425e-06
0.00574533 0.000490046 2.18277e-05 0.00579873 0.000535612 1.61662e-05
0.00657768 0.000462947 3.09817e-05 0.00666429 0.000507582 2.55169e-05
0.00745027 0.000432386 4.14939e-05 0.00757377 0.000475994 3.62395e-05
0.00834586 0.000399166 5.31199e-05 0.00850902 0.000441652 4.80514e-05
0.00924418 0.000364165 6.55587e-05 0.00944802 0.000405412 6.068e-05
0.010123 0.000328247 7.84857e-05 0.0103676 0.000368193 7.38283e-05
0.0109603 0.000292285 9.15867e-05 0.0112452 0.000330931 8.71784e-05
0.0117361 0.000257179 0.000104567 0.0120596 0.000294549 0.000100405
0.0124344 0.000223804 0.000117136 0.0127937 0.000259937 0.000113195
0.0130443 0.000192973 0.000129004 0.0134362 0.000227942 0.000125256
0.01356 0.000165426 0.00013989 0.0139807 0.000199343 0.000136321
0.0139787 0.000141825 0.000149549 0.0144238 0.000174832 0.000146149
0.014299 0.000122736 0.00015778 0.0147637 0.000154995 0.000154525
0.0145212 0.000108607 0.000164422 0.0150004 0.000140299 0.000161274
0.0146468 9.97658e-05 0.000169349 0.0151355 0.000131087 0.000166265
0.0146794 9.64142e-05 0.000172472 0.0151716 0.000127568 0.000169416
0.0146761 9.88606e-05 0.000173739 0.0151682 0.000130143 0.000170663
0.0146693 0.000107058 0.000173149 0.015161 0.000138696 0.000170034
0.0146591 0.000120701 0.000170783 0.0151502 0.000152976 0.000167564
0.0146459 0.000139362 0.000166743 0.0151361 0.000172504 0.000163383
0.0146301 0.000162453 0.000161183 0.0151194 0.000196691 0.000157643
0.0146121 0.000189272 0.000154295 0.0151003 0.000224791 0.000150542
0.0145927 0.000219013 0.000146305 0.0150795 0.000255954 0.000142316
0.0145721 0.00025079 0.000137465 0.0150577 0.000289253 0.000133221
0.0145512 0.000283666 0.000128042 0.0150353 0.000323707 0.000123534
0.0145302 0.000316681 0.000118314 0.0150129 0.000358316 0.00011354
0.0145097 0.00034888 0.000108561 0.0149911 0.000392077 0.000103525
0.0144902 0.000379341 9.90583e-05 0.0149702 0.000424021 9.37728e-05
0.0144719 0.000407192 9.00645e-05 0.0149507 0.000453233 8.45499e-05
0.0144553 0.000431636 8.18191e-05 0.014933 0.000478879 7.6102e-05
0.0144405 0.000451972 7.45344e-05 0.0149173 0.000500225 6.86464e-05
0.014428 0.000467613 6.83903e-05 0.014904 0.000516653 6.23668e-05
0.0144179 0.0004781 6.35284e-05 0.0148934 0.000527681 5.74088e-05
0.0144105 0.000483114 6.00489e-05 0.0148856 0.000532973 5.38751e-05
0.0144059 0.000482486 5.80075e-05 0.0148808 0.000532353 5.18235e-05
0.0144041 0.000476206 5.74155e-05 0.0148792 0.000525812 5.12646e-05
0.0144051 0.000464429 5.82383e-05 0.0148805 0.000513511 5.21626e-05
0.0144086 0.000447469 6.03972e-05 0.0148845 0.000495778 5.44362e-05
0.0144141 0.000425789 6.37717e-05 0.0148906 0.000473102 5.79615e-05
0.0144209 0.000399985 6.82041e-05 0.0148982 0.00044611 6.25767e-05
0.0144284 0.00037076 7.35059e-05 0.0149067 0.000415537 6.80876e-05
0.0144359 0.000338893 7.9463e-05 0.0149152 0.000382201 7.42741e-05
0.0144427 0.000305216 8.58431e-05 0.014923 0.000346977 8.08973e-05
0.0144483 0.000270592 9.24024e-05 0.0149296 0.000310767 8.77065e-05
0.014452 0.000235884 9.88929e-05 0.0149343 0.000274478 9.4447e-05
0.0144534 0.000201938 0.00010507 0.0149365 0.000238995 0.000100867
0.0144518 0.000169557 0.000110699 0.0149357 0.000205161 0.000106726
0.0144469 0.000139477 0.000115562 0.0149314 0.000173747 0.0001118
0.0144382 0.000112346 0.000119464 0.0149231 0.000145431 0.000115888
0.0144254 8.86995e-05 0.00012224 0.0149106 0.000120772 0.000118822
0.0144087 6.89364e-05 0.000123758 0.0148939 0.000100188 0.000120464
0.0143883 5.33114e-05 0.000123921 0.0148733 8.39437e-05 0.000120717
0.0143647 4.19334e-05 0.000122673 0.0148494 7.21511e-05 0.000119524
0.0143386 3.47779e-05 0.000119993 0.0148228 6.47835e-05 0.000116864
0.0143108 3.17027e-05 0.0001159 0.0147942 6.16911e-05 0.000112756
0.0142818 3.24651e-05 0.000110446 0.0147644 6.26186e-05 0.000107256
0.0142522 3.67363e-05 0.000103717 0.0147339 6.72212e-05 0.000100451
0.0142223 4.41138e-05 9.58277e-05 0.014703 7.50767e-05 9.24594e-05
0.0141925 5.41309e-05 8.69182e-05 0.0146722 8.56965e-05 8.34262e-05
0.014163 6.62683e-05 7.71516e-05 0.0146415 9.85367e-05 7.35185e-05
0.014134 7.9967e-05 6.67083e-05 0.0146113 0.000113012 6.29211e-05
0.0141055 9.46417e-05 5.57815e-05 0.0145817 0.000128511 5.18323e-05
0.0140776 0.000109693 4.45726e-05 0.0145527 0.000144404 4.04584e-05
0.0140505 0.00012452 3.32859e-05 0.0145243 0.000160064 2.90086e-05
0.0140241 0.000138532 2.21242e-05 0.0144969 0.000174872 1.76903e-05
0.0139985 0.000151172 1.12825e-05 0.0144702 0.000188244 6.7031e-06
0.0139736 0.000161905 1.16152e-06 0.0144444 0.000199611 -3.33371e-06
0.0139493 0.00017019 -7.01618e-06 0.0144192 0.000208281 -1.09907e-05
0.0139253 0.000175771 -1.46039e-05 0.0143945 0.000214273 -1.87071e-05
0.0139015 0.000178333 -2.13694e-05 0.0143699 0.0002171 -2.5408e-05
0.0138784 0.000177754 -2.73537e-05 0.0140701 0.000214738 -3.10953e-05
0.0135842 0.000172625 -3.23331e-05 0.0136942 0.00020953 -3.62125e-05
0.0132232 0.000163995 -3.64629e-05 0.0133269 0.00020019 -3.98624e-05
0.0128583 0.00015196 -3.95676e-05 0.0129553 0.000188007 -4.30461e-05
0.0124908 0.0001371 -4.17832e-05 0.012581 0.000172263 -4.50756e-05
0.0121205 0.000119311 -4.31153e-05 0.012204 0.00015361 -4.63662e-05
0.011748 9.88273e-05 -4.36658e-05 0.0118277 0.000132245 -4.6785e-05
0.0113779 7.61059e-05 -4.34146e-05 0.0114549 0.000108554 -4.63694e-05
0.0110337 5.23274e-05 -4.24863e-05 0.0111435 8.52292e-05 -4.54978e-05
0.0107241 2.80538e-05 -4.10439e-05 0.0108493 5.94519e-05 -4.3669e-05
0.0104322 2.54669e-06 -3.90191e-05 0.0105658 3.3435e-05 -4.17724e-05
0.0101519 -2.35881e-05 -3.67538e-05 0.0103042 6.47726e-06 -3.91757e-05
0.00988565 -5.00494e-05 -3.4205e-05 0.0100555 -2.0452e-05 -3.65801e-05
0.00963041 -7.60806e-05 -3.1615e-05 0.00981732 -4.72607e-05 -3.38241e-05
0.00938044 -0.00010139 -2.90949e-05 0.00958296 -7.32921e-05 -3.11703e-05
0.00912668 -0.0001257 -2.67847e-05 0.00934379 -9.84076e-05 -2.87146e-05
0.00883928 -0.000149451 -2.48014e-05 0.00904206 -0.00012353 -2.64473e-05
0.00853716 -0.000171233 -2.31851e-05 0.00874933 -0.000145953 -2.48914e-05
0.00822535 -0.000190365 -2.22435e-05 0.00843547 -0.000165941 -2.36839e-05
0.00789766 -0.000206594 -2.19715e-05 0.00810368 -0.000182913 -2.34335e-05
0.00754929 -0.000219803 -2.25223e-05 0.00775078 -0.000196743 -2.38309e-05
0.0071772 -0.00022982 -2.38855e-05 0.00737245 -0.00020716 -2.51665e-05
0.00677914 -0.000236438 -2.61081e-05 0.00696501 -0.000214118 -2.73416e-05
0.00635282 -0.000239668 -2.91725e-05 0.00652635 -0.000217571 -3.04089e-05
0.00589672 -0.000239613 -3.30647e-05 0.00605597 -0.000217597 -3.43175e-05
0.00541106 -0.000236411 -3.77387e-05 0.00555376 -0.000214348 -3.90241e-05
0.0048969 -0.000230277 -4.31172e-05 0.0050204 -0.000208063 -4.44537e-05
0.00435529 -0.000221532 -4.89805e-05 0.00445738 -0.000199057 -5.0486e-05
0.00378755 -0.000210632 -5.44886e-05 0.0038664 -0.000187833 -5.58868e-05
0.00319453 -0.00019785 -6.04074e-05 0.0032492 -0.000174724 -6.17812e-05
0.00257804 -0.00018371 -6.64672e-05 0.00260639 -0.000160113 -6.78701e-05
0.00193922 -0.000168653 -7.26381e-05 0.00194049 -0.000144627 -7.39876e-05
0.00128052 -0.000153223 -7.87728e-05 0.00125375 -0.000128736 -8.00418e-05
0.000605315 -0.000137942 -8.47099e-05 0.000550072 -0.000113019 -8.58917e-05
-8.19678e-05 -0.000123345 -9.02918e-05 -0.000165875 -9.80082e-05 -9.14329e-05
-0.000776627 -0.000109946 -9.54027e-05 -0.00088895 -8.42428e-05 -9.65341e-05
-0.00147416 -9.82286e-05 -9.99524e-05 -0.00161423 -7.22306e-05 -0.000101066
-0.00216991 -8.86273e-05 -0.00010385 -0.00233694 -6.24316e-05 -0.000104923
-0.00285914 -8.1539e-05 -0.000106999 -0.00305201 -5.52571e-05 -0.000108019
-0.00353599 -7.73084e-05 -0.000109312 -0.00375319 -5.10545e-05 -0.000110295
-0.0041926 -7.6202e-05 -0.000110737 -0.00443114 -5.00522e-05 -0.00011171
-0.00481962 -7.84179e-05 -0.00011126 -0.00507688 -5.25255e-05 -0.000112216
-0.0054063 -8.40979e-05 -0.000110794 -0.0056793 -5.85687e-05 -0.000111729
-0.00594215 -9.32725e-05 -0.00010931 -0.00622746 -6.8258e-05 -0.000110144
-0.00641815 -0.00010589 -0.000106839 -0.00671212 -8.14985e-05 -0.000107581
-0.00682772 -0.000121785 -0.000103463 -0.00712657 -9.8132e-05 -0.0001041
-0.00716724 -0.000140701 -9.92949e-05 -0.00746719 -0.000117888 -9.98127e-05
-0.00743629 -0.000162288 -9.44746e-05 -0.00773372 -0.000140404 -9.48452e-05
-0.0076378 -0.000186118 -8.91549e-05 -0.00792937 -0.000165233 -8.93528e-05
-0.00777805 -0.000211687 -8.34984e-05 -0.00806088 -0.000191851 -8.35125e-05
-0.00786669 -0.000238433 -7.76822e-05 -0.0081385 -0.000219674 -7.75132e-05
-0.00791593 -0.000265751 -7.1898e-05 -0.00817512 -0.000248077 -7.15487e-05
-0.00793871 -0.000293018 -6.63439e-05 -0.0081844 -0.000276416 -6.58137e-05
-0.00794712 -0.000319608 -6.12135e-05 -0.008184 -0.000304076 -6.04982e-05
-0.00795204 -0.000344917 -5.66849e-05 -0.00818353 -0.000330397 -5.57976e-05
-0.00796342 -0.000368376 -5.29266e-05 -0.00818358 -0.000354754 -5.18838e-05
-0.00798931 -0.000389479 -5.00879e-05 -0.00818649 -0.000376587 -4.89165e-05
-0.00803472 -0.000407761 -4.83047e-05 -0.00822234 -0.000395587 -4.70083e-05
-0.00810413 -0.000422845 -4.76735e-05 -0.00828579 -0.000411225 -4.62985e-05
-0.00820047 -0.000434439 -4.82822e-05 -0.00837869 -0.000423263 -4.68287e-05
-0.0083251 -0.000442358 -5.01649e-05 -0.00850249 -0.000431458 -4.86809e-05
-0.00847782 -0.000446477 -5.33422e-05 -0.00865721 -0.000435722 -5.18459e-05
-0.00865723 -0.000446789 -5.77945e-05 -0.00884153 -0.000436034 -5.63184e-05
-0.00886103 -0.000443386 -6.34745e-05 -0.0090529 -0.000432483 -6.20426e-05
-0.00908578 -0.000436442 -7.03019e-05 -0.00928763 -0.000425244 -6.89408e-05
-0.00932739 -0.00042621 -7.81672e-05 -0.00954131 -0.00041459 -7.69009e-05
-0.00958144 -0.000413035 -8.69348e-05 -0.00980936 -0.000400878 -8.57854e-05
-0.00984345 -0.000397332 -9.64472e-05 -0.0100869 -0.000384535 -9.54322e-05
-0.0101089 -0.000379572 -0.000106527 -0.010369 -0.000366049 -0.00010566
-0.0103728 -0.000360281 -0.000116804 -0.0106504 -0.000345958 -0.000116241
-0.0106288 -0.000340161 -0.00012582 -0.0109243 -0.000325073 -0.000124876
-0.0108703 -0.00031955 -0.000134998 -0.0111827 -0.000303704 -0.000134192
-0.0110884 -0.000299106 -0.000143923 -0.0114181 -0.000282387 -0.000143133
-0.0112763 -0.000279299 -0.000152542 -0.0116214 -0.00026184 -0.000151687
-0.0114277 -0.000260691 -0.000160686 -0.011787 -0.000242497 -0.000159698
-0.0115386 -0.00024375 -0.000168154 -0.0119098 -0.000224898 -0.000167024
-0.0116052 -0.000228912 -0.000174759 -0.0119861 -0.00020945 -0.000173575
-0.0116244 -0.000216528 -0.000180396 -0.0120124 -0.000196542 -0.000179216
-0.0116219 -0.000207026 -0.000185002 -0.0120101 -0.000186631 -0.000183813
-0.0116157 -0.000200659 -0.000188519 -0.0120041 -0.000180001 -0.000187286
-0.0116057 -0.000197526 -0.000190885 -0.011994 -0.000176763 -0.000189586
-0.0115916 -0.000197636 -0.000192044 -0.0119796 -0.000176912 -0.000190705
-0.0115734 -0.000200875 -0.000191956 -0.0119609 -0.000180337 -0.000190629
-0.0115511 -0.000207015 -0.000190526 -0.011938 -0.00018682 -0.000189149
-0.0115253 -0.000215697 -0.000187843 -0.0119114 -0.000195976 -0.000186393
-0.0114966 -0.000226461 -0.000183998 -0.0118818 -0.000207314 -0.000182448
-0.0114656 -0.000238764 -0.000179103 -0.0118498 -0.000220275 -0.000177445
-0.0114331 -0.000252017 -0.000173296 -0.0118162 -0.000234241 -0.000171526
-0.0113997 -0.0002656 -0.000166731 -0.0117817 -0.000248565 -0.000164847
-0.0113659 -0.000278886 -0.000159573 -0.0117468 -0.000262589 -0.000157568
-0.0113324 -0.000291252 -0.000151986 -0.0117121 -0.000275659 -0.00014986
-0.0112996 -0.000302094 -0.000144127 -0.0116783 -0.000287148 -0.000141887
-0.0112681 -0.000310859 -0.000136149 -0.0116459 -0.000296475 -0.00013381
-0.0112382 -0.000317059 -0.000128193 -0.0116151 -0.000303131 -0.000125774
-0.0112101 -0.000320288 -0.000120389 -0.0115863 -0.000306691 -0.000117907
-0.0111839 -0.000320223 -0.000112844 -0.0115596 -0.000306817 -0.000110317
-0.0111598 -0.000316629 -0.000105643 -0.011535 -0.000303262 -0.000103094
-0.011138 -0.00030936 -9.8847e-05 -0.0115129 -0.000295873 -9.63008e-05
-0.0111186 -0.00029837 -9.24933e-05 -0.0114934 -0.000284602 -8.99767e-05
-0.0111016 -0.00028372 -8.65953e-05 -0.0114765 -0.000269509 -8.41332e-05
-0.0110871 -0.000265577 -8.11405e-05 -0.0114622 -0.00025077 -7.87554e-05
-0.0110749 -0.000244217 -7.60913e-05 -0.0114503 -0.00022867 -7.38041e-05
-0.0110646 -0.000220013 -7.13871e-05 -0.0114404 -0.0002036 -6.9217e-05
-0.0110558 -0.000193427 -6.69484e-05 -0.0114322 -0.000176041 -6.4912e-05
-0.0110479 -0.000164985 -6.26808e-05 -0.0114249 -0.000146542 -6.07907e-05
-0.0110403 -0.000135261 -5.84789e-05 -0.011418 -0.000115704 -5.67427e-05
-0.0110325 -0.000104853 -5.42306e-05 -0.0114108 -8.41512e-05 -5.26516e-05
-0.0110239 -7.43606e-05 -4.98216e-05 -0.011403 -5.25089e-05 -4.8399e-05
-0.0110143 -4.43666e-05 -4.51407e-05 -0.011394 -2.13872e-05 -4.387e-05
-0.0110033 -1.54243e-05 -4.00837e-05 -0.0113835 8.6364e-06 -3.89564e-05
-0.0109908 1.19442e-05 -3.45559e-05 -0.0113715 3.69997e-05 -3.35589e-05
-0.0109775 3.6887e-05 -2.84399e-05 -0.0113618 6.14432e-05 -2.73578e-05
-0.010964 5.88312e-05 -2.15701e-05 -0.0113489 8.44275e-05 -2.07688e-05
-0.0109485 7.81952e-05 -1.41464e-05 -0.0113342 0.00010402 -1.32044e-05
-0.010931 9.4884e-05 -6.04666e-06 -0.0113176 0.000120995 -5.28934e-06
-0.010875 0.00010913 2.5116e-06 -0.0112711 0.000135051 3.42711e-06
-0.0105744 0.000121391 1.06959e-05 -0.0109711 0.000148068 1.08279e-05
-0.0102545 0.000130614 1.92917e-05 -0.0106543 0.000157032 1.96388e-05
-0.00991505 0.000136796 2.84001e-05 -0.0103113 0.00016342 2.84174e-05
-0.00955598 0.000140043 3.78749e-05 -0.00994594 0.000166594 3.79067e-05
-0.00917671 0.000140374 4.77329e-05 -0.00955653 0.000166979 4.74754e-05
-0.00877654 0.000138046 5.77813e-05 -0.0091432 0.00016449 5.73551e-05
-0.00835313 0.000133299 6.78947e-05 -0.00870144 0.000159708 6.7281e-05
-0.0079077 0.000126375 7.79433e-05 -0.00823179 0.000152555 7.72656e-05
-0.00743733 0.000117509 8.78641e-05 -0.00773879 0.000143535 8.70555e-05
-0.00693953 0.000107197 9.75101e-05 -0.00721852 0.000132875 9.65952e-05
-0.00641553 9.57565e-05 0.000106746 -0.0066712 0.000121059 0.000105701
-0.00586522 8.35967e-05 0.000115408 -0.006096 0.000108518 0.00011426
-0.00528925 7.11891e-05 0.00012334 -0.00549391 9.57312e-05 0.000122137
-0.0046892 5.90166e-05 0.000130419 -0.00486723 8.31983e-05 0.000129179
-0.00406769 4.75378e-05 0.000136534 -0.00421874 7.14013e-05 0.000135257
-0.0034279 3.71961e-05 0.000141572 -0.00355175 6.0811e-05 0.000140251
-0.00277339 2.84253e-05 0.00014542 -0.0028702 5.18656e-05 0.000144066
-0.00210849 2.16191e-05 0.000147982 -0.00217885 4.49702e-05 0.000146618
-0.00143881 1.71186e-05 0.000149194 -0.00148359 4.04843e-05 0.000147841
-0.000771149 1.52185e-05 0.00014898 -0.000791519 3.87139e-05 0.000147657
-0.000113429 1.61686e-05 0.000147166 -0.000111008 3.99284e-05 0.00014579
0.000525956 2.0128e-05 0.000143759 0.000549124 4.42839e-05 0.000142317
0.0011391 2.7178e-05 0.000138788 0.00118079 5.18549e-05 0.000137268
0.00171944 3.7309e-05 0.000132327 0.00177712 6.2639e-05 0.000130712
0.00226224 5.04292e-05 0.000124489 0.00233326 7.65352e-05 0.000122748
0.00276505 6.63585e-05 0.000115409 0.00284675 9.33559e-05 0.000113507
0.00322798 8.48343e-05 0.00010524 0.0033178 0.000112825 0.000103151
0.00365374 0.000105518 9.41563e-05 0.00374938 0.000134587 9.18694e-05
0.00404724 0.000128003 8.23603e-05 0.00414673 0.000158221 7.98697e-05
0.00441462 0.000151832 7.00745e-05 0.00451641 0.000183251 6.73714e-05
0.0047626 0.000176511 5.75327e-05 0.0048656 0.000209164 5.46065e-05
0.00509776 0.000201522 4.49702e-05 0.00520135 0.00023542 4.18158e-05
0.00542606 0.000226344 3.26212e-05 0.00553008 0.000261477 2.92428e-05
0.00575261 0.000250462 2.07172e-05 0.00585731 0.000286797 1.71262e-05
0.00608181 0.000273381 9.48417e-06 0.00618784 0.000310867 5.69432e-06
0.00641732 0.000294586 -2.8275e-07 0.0065257 0.000333124 -3.92035e-06
0.00676201 0.000313699 -8.45353e-06 0.00687456 0.000353079 -1.18894e-05
0.00711842 0.00033036 -1.54975e-05 0.0072361 0.00037068 -1.9157e-05
0.00748816 0.000344366 -2.13806e-05 0.00761284 0.000385415 -2.50662e-05
0.00787245 0.000355469 -2.59752e-05 0.00800603 0.000397138 -2.96762e-05
0.008272 0.00036353 -2.92058e-05 0.0084164 0.000405675 -3.28599e-05
0.00868694 0.000368477 -3.09794e-05 0.00884419 0.000410971 -3.46081e-05
0.00911693 0.000370321 -3.12443e-05 0.00928891 0.000413048 -3.49093e-05
0.00956098 0.000369148 -2.98826e-05 0.0097496 0.000411974 -3.35743e-05
0.0100172 0.000365138 -2.69422e-05 0.0102243 0.00040792 -3.06021e-05
0.0104828 0.00035853 -2.24805e-05 0.01071 0.000401155 -2.60755e-05
0.0109535 0.00034964 -1.65808e-05 0.011202 0.000392002 -2.0087e-05
0.0114242 0.00033884 -9.34912e-06 0.011695 0.00038085 -1.27636e-05
0.0118899 0.000326551 -9.25845e-07 0.0121833 0.000368129 -4.24241e-06
0.012346 0.000313244 8.39261e-06 0.0126624 0.000354306 5.3124e-06
0.0127894 0.00029939 1.82602e-05 0.0131284 0.00034 1.4944e-05
0.0132171 0.000285474 2.87363e-05 0.0135783 0.000325531 2.55926e-05
0.0136262 0.000271943 3.97379e-05 0.0140089 0.000311482 3.66223e-05
0.0140136 0.000259272 5.10772e-05 0.0144168 0.000298322 4.79639e-05
0.0143766 0.000247905 6.25707e-05 0.0147989 0.000286509 5.94194e-05
0.0147208 0.000238312 7.40191e-05 0.0151526 0.000276467 7.08436e-05
0.0152015 0.000231397 8.52699e-05 0.0156171 0.000269336 8.20416e-05
0.0156558 0.000226789 9.61389e-05 0.0160902 0.000264464 9.29702e-05
0.0160645 0.000224476 0.000106634 0.0165098 0.000262181 0.000103383
0.0164253 0.000224713 0.000116589 0.0168806 0.000262407 0.000113297
0.0167392 0.000227524 0.000125927 0.017201 0.000265374 0.000122561
0.0170057 0.000232914 0.000134573 0.0174718 0.000271021 0.000131131
0.0172236 0.000240815 0.000142478 0.0176928 0.00027927 0.000138961
0.0173926 0.000251113 0.00014962 0.0178621 0.000289964 0.000146021
0.0175133 0.00026363 0.000155989 0.0179784 0.000302968 0.000152294
0.0175867 0.000278143 0.000161588 0.018046 0.000318034 0.00015779
0.0176178 0.000294369 0.000166443 0.0180691 0.000334886 0.000162531
0.0176193 0.000312034 0.000170583 0.0180682 0.000353266 0.000166553
0.0176178 0.000330824 0.00017406 0.0180662 0.000372832 0.000169921
0.0176154 0.000350319 0.000176942 0.0180633 0.000393154 0.000172684
0.0176124 0.00037009 0.000179303 0.0180598 0.000413763 0.000174926
0.0176088 0.000389702 0.000181221 0.0180557 0.000434219 0.000176724
0.0176047 0.00040873 0.000182776 0.018051 0.000454074 0.000178164
0.0175999 0.000426752 0.000184048 0.0180457 0.000472883 0.00017933
0.0175947 0.000443352 0.000185119 0.0180399 0.000490213 0.000180304
0.0175892 0.00045813 0.000186065 0.0180339 0.000505645 0.000181163
0.0175837 0.000470722 0.000186953 0.0180281 0.000518798 0.000181975
0.0175786 0.000480813 0.000187839 0.0180226 0.00052934 0.000182798
0.0175741 0.000488142 0.000188767 0.0180178 0.000536998 0.000183679
0.0175705 0.000492517 0.000189764 0.018014 0.000541569 0.000184647
0.0175679 0.000493815 0.000190846 0.0180113 0.000542925 0.000185717
0.0175666 0.000491986 0.000192009 0.01801 0.000541009 0.000186885
0.0175668 0.000487065 0.000193232 0.0180103 0.000535861 0.000188129
0.0175685 0.000479168 0.000194478 0.0180123 0.0005276 0.000189415
0.0175719 0.000468491 0.000195692 0.018016 0.000516432 0.000190685
0.0175769 0.000455314 0.000196806 0.0180215 0.000502648 0.00019187
0.0175832 0.00043999 0.00019774 0.0180283 0.000486623 0.000192888
0.0175904 0.000422948 0.000198401 0.0180361 0.000468805 0.000193645
0.0175979 0.000404667 0.000198693 0.0180441 0.000449696 0.000194041
0.0176048 0.000385655 0.000198512 0.0180517 0.000429831 0.000193971
0.0176107 0.00036643 0.000197731 0.0180582 0.000409752 0.000193305
0.0176149 0.000347489 0.000196249 0.0180629 0.000389983 0.000191925
0.0176169 0.000329291 0.000193976 0.0180653 0.000371002 0.000189748
0.0176163 0.000312243 0.000190838 0.0180651 0.000353239 0.000186693
0.0176131 0.000296695 0.00018678 0.0180621 0.000337058 0.000182702
0.017607 0.000282932 0.000181765 0.0180561 0.000322758 0.000177734
0.017598 0.000271167 0.000175774 0.018047 0.000310563 0.000171771
0.017586 0.000261539 0.000168814 0.0180348 0.000300616 0.000164819
0.0175709 0.00025411 0.00016091 0.0180195 0.000292982 0.000156905
0.0175529 0.000248864 0.000152115 0.0180009 0.000287644 0.000148079
0.0175319 0.000245707 0.000142501 0.0179793 0.000284502 0.000138416
0.017508 0.000244471 0.000132161 0.0179547 0.00028338 0.000128009
0.0174814 0.000244918 0.000121207 0.0179273 0.000284029 0.000116975
0.0174523 0.000246749 0.000109767 0.0178973 0.000286133 0.000105443
0.0174209 0.000249611 9.79816e-05 0.0178648 0.000289324 9.3559e-05
0.0173874 0.000253109 8.60033e-05 0.0178303 0.000293185 8.14764e-05
0.0173522 0.000256815 7.39893e-05 0.0177939 0.000297269 6.93567e-05
0.0173156 0.000260282 6.20992e-05 0.0177562 0.000301107 5.73634e-05
0.0172781 0.000263058 5.04905e-05 0.0177175 0.000304223 4.56582e-05
0.01724 0.000264695 3.9315e-05 0.0176783 0.000306148 3.43965e-05
0.0171925 0.000264494 2.61697e-05 0.0176294 0.000306202 2.11628e-05
0.017146 0.000261108 1.41668e-05 0.0175817 0.00030292 9.09824e-06
0.0171015 0.000253922 3.65972e-06 0.017536 0.000295653 -1.32559e-06
0.0170594 0.000242464 -4.36674e-06 0.0174931 0.000283763 -8.70793e-06
0.0170199 0.000226632 -1.09386e-05 0.0174528 0.000267487 -1.53001e-05
0.0169826 0.000206531 -1.61808e-05 0.017415 0.000246663 -2.03752e-05
0.0169472 0.000182389 -2.01863e-05 0.0173792 0.000221619 -2.41705e-05
0.016913 0.000154609 -2.29872e-05 0.0173449 0.000192768 -2.67485e-05
0.0168799 0.000123718 -2.46654e-05 0.0173116 0.000160683 -2.82546e-05
0.0168473 9.03939e-05 -2.53968e-05 0.017279 0.000126064 -2.88618e-05
0.0168147 5.54431e-05 -2.53591e-05 0.0171549 8.89553e-05 -2.85349e-05
0.0164528 1.87226e-05 -2.47221e-05 0.0166362 5.11556e-05 -2.78165e-05
0.0159426 -1.64615e-05 -2.39559e-05 0.0161854 1.47383e-05 -2.65233e-05
0.0153991 -5.00846e-05 -2.28998e-05 0.0156478 -1.93356e-05 -2.58024e-05
0.0147926 -8.16853e-05 -2.22945e-05 0.0150572 -5.22637e-05 -2.46806e-05
0.0141218 -0.000110871 -2.19854e-05 0.0143982 -8.19239e-05 -2.43927e-05
0.0133892 -0.00013657 -2.23372e-05 0.0136714 -0.000108426 -2.45771e-05
0.0125737 -0.000159335 -2.33832e-05 0.0128293 -0.000133005 -2.53488e-05
0.011679 -0.000178709 -2.52315e-05 0.0119224 -0.00015287 -2.73195e-05
0.0107377 -0.000193449 -2.81679e-05 0.0109599 -0.000168298 -3.00265e-05
0.00975938 -0.000203431 -3.17677e-05 0.00995612 -0.000179057 -3.37793e-05
0.00875158 -0.000209104 -3.60954e-05 0.00892243 -0.000185149 -3.78595e-05
0.00772474 -0.000210542 -4.12418e-05 0.00786694 -0.000186832 -4.29402e-05
0.00668503 -0.000208089 -4.7151e-05 0.0067951 -0.000184554 -4.87473e-05
0.00563491 -0.000202375 -5.36813e-05 0.00571203 -0.000178855 -5.51498e-05
0.00457832 -0.000193999 -6.06612e-05 0.00462092 -0.000170392 -6.20153e-05
0.00352079 -0.000183689 -6.78957e-05 0.00352742 -0.000159921 -6.9165e-05
0.00246955 -0.000172266 -7.51975e-05 0.00244012 -0.000148285 -7.63821e-05
0.00143387 -0.000160544 -8.23688e-05 0.00136867 -0.000136347 -8.34626e-05
0.000423463 -0.000149362 -8.91997e-05 0.000323315 -0.000124963 -9.02002e-05
-0.000552376 -0.000139526 -9.54839e-05 -0.000685738 -0.000114961 -9.64065e-05
-0.00148573 -0.000131757 -0.000101047 -0.00165004 -0.000107098 -0.000101902
-0.00237106 -0.000126684 -0.000105745 -0.00256357 -0.000102032 -0.000106531
-0.00320537 -0.000124826 -0.000109462 -0.00342289 -0.000100289 -0.000110176
-0.00398809 -0.00012655 -0.000112109 -0.00422724 -0.000102255 -0.000112759
-0.00472141 -0.000132076 -0.000113646 -0.00497871 -0.000108161 -0.000114239
-0.00540919 -0.00014147 -0.000114073 -0.00568121 -0.000118074 -0.000114614
-0.00605385 -0.000154663 -0.000113311 -0.00633724 -0.000131929 -0.000113755
-0.00665448 -0.000171431 -0.000111428 -0.00694596 -0.000149493 -0.000111755
-0.00720794 -0.000191415 -0.000108563 -0.00750438 -0.000170387 -0.000108762
-0.00771073 -0.000214124 -0.000104912 -0.00800913 -0.000194101 -0.000104964
-0.00816053 -0.000238956 -0.000100701 -0.00845816 -0.00022001 -0.000100581
-0.00855715 -0.000265217 -9.61713e-05 -0.00885165 -0.000247386 -9.58689e-05
-0.00890326 -0.000292138 -9.15799e-05 -0.00919275 -0.000275432 -9.10981e-05
-0.00920594 -0.000318909 -8.71995e-05 -0.0094892 -0.000303304 -8.65428e-05
-0.00947766 -0.000344699 -8.33002e-05 -0.00975422 -0.000330144 -8.24725e-05
-0.00973562 -0.000368702 -8.01321e-05 -0.0100059 -0.000355116 -7.91448e-05
-0.00999961 -0.000390168 -7.79181e-05 -0.0102651 -0.000377446 -7.67925e-05
-0.0102882 -0.000408448 -7.68482e-05 -0.0105511 -0.000396465 -7.56103e-05
-0.0106159 -0.000423027 -7.70707e-05 -0.0108793 -0.000411642 -7.57465e-05
-0.0109924 -0.000433554 -7.86815e-05 -0.0112597 -0.000422613 -7.72988e-05
-0.01142 -0.000439852 -8.17195e-05 -0.0116949 -0.000429197 -8.03093e-05
-0.0118946 -0.00044193 -8.61676e-05 -0.0121806 -0.000431403 -8.47618e-05
-0.0124076 -0.000439972 -9.19545e-05 -0.012708 -0.000429421 -9.05826e-05
-0.0129468 -0.000434325 -9.89567e-05 -0.0132644 -0.000423607 -9.7644e-05
-0.0134979 -0.000425478 -0.000107002 -0.0138348 -0.000414468 -0.000105771
-0.0140445 -0.000414035 -0.000115879 -0.0144022 -0.000402623 -0.00011475
-0.0145697 -0.000400816 -0.000124258 -0.0149486 -0.000388903 -0.000123195
-0.0150573 -0.000386406 -0.000132808 -0.0154564 -0.00037406 -0.000131657
-0.0156594 -0.000372324 -0.000141352 -0.0160202 -0.000359314 -0.000140121
-0.0162118 -0.000358473 -0.000149763 -0.0165957 -0.000344935 -0.000148475
-0.0166515 -0.000345194 -0.000157876 -0.0170519 -0.000331294 -0.000156387
-0.0169641 -0.000333199 -0.000165386 -0.0173787 -0.000318869 -0.000163843
-0.0171405 -0.000322905 -0.000172144 -0.0175659 -0.000308181 -0.000170551
-0.0171786 -0.000314757 -0.000178032 -0.0176106 -0.000299685 -0.000176378
-0.0171729 -0.000309473 -0.000182905 -0.0176049 -0.000294188 -0.000181142
-0.0171608 -0.000307243 -0.000186633 -0.0175927 -0.000291871 -0.000184812
-0.0171426 -0.000307979 -0.000189172 -0.0175741 -0.000292671 -0.000187305
-0.0171188 -0.000311403 -0.000190534 -0.0175498 -0.000296294 -0.000188635
-0.0170901 -0.000317047 -0.000190755 -0.0175203 -0.00030226 -0.000188813
-0.0170573 -0.000324305 -0.000189774 -0.0174867 -0.000309939 -0.000187746
-0.0170217 -0.000332437 -0.00018768 -0.0174501 -0.000318539 -0.000185587
-0.0169846 -0.000340611 -0.000184628 -0.017412 -0.000327201 -0.000182475
-0.0169472 -0.000347971 -0.000180794 -0.0173736 -0.000335034 -0.000178572
-0.0169108 -0.000353706 -0.000176347 -0.0173363 -0.000341184 -0.000174047
-0.0168763 -0.000357093 -0.000171428 -0.017301 -0.000344892 -0.000169071
-0.0168441 -0.000357542 -0.000166175 -0.0172681 -0.000345545 -0.000163787
-0.0168143 -0.00035463 -0.000160709 -0.0172377 -0.000342703 -0.000158308
-0.0167865 -0.000348101 -0.00015512 -0.0172095 -0.000336099 -0.00015272
-0.0167602 -0.000337852 -0.000149458 -0.017183 -0.000325625 -0.000147081
-0.0167351 -0.000323912 -0.000143744 -0.0171578 -0.00031131 -0.000141418
-0.016711 -0.000306434 -0.000137975 -0.0171337 -0.000293313 -0.000135722
-0.0166876 -0.000285694 -0.00013212 -0.0171104 -0.000271924 -0.000129955
-0.0166646 -0.000262093 -0.000126118 -0.0170876 -0.000247559 -0.000124056
-0.0166414 -0.000236136 -0.000119887 -0.0170647 -0.000220745 -0.000117943
-0.0166177 -0.000208403 -0.00011333 -0.0170413 -0.000192086 -0.000111514
-0.0165928 -0.00017952 -0.000106346 -0.0170167 -0.000162236 -0.000104662
-0.0165661 -0.000150138 -9.88305e-05 -0.0169903 -0.000131874 -9.72754e-05
-0.0165369 -0.0001209 -9.06843e-05 -0.0169613 -0.000101675 -8.92537e-05
-0.0165044 -9.24068e-05 -8.18233e-05 -0.016929 -7.22621e-05 -8.05089e-05
-0.0164683 -6.51601e-05 -7.21868e-05 -0.0168929 -4.41612e-05 -7.0976e-05
-0.0164286 -3.95293e-05 -6.17425e-05 -0.016853 -1.77559e-05 -6.06192e-05
-0.016386 -1.59198e-05 -5.04599e-05 -0.0168105 6.18614e-06 -4.93805e-05
-0.0160095 6.30241e-06 -3.83924e-05 -0.0163961 2.8841e-05 -3.74545e-05
-0.0153002 2.7236e-05 -2.56795e-05 -0.01567 4.9757e-05 -2.44412e-05
-0.0145462 4.61435e-05 -1.2096e-05 -0.014921 6.94134e-05 -1.12569e-05
-0.0137655 6.27486e-05 1.7952e-06 -0.0141408 8.6098e-05 2.97647e-06
-0.0129714 7.68153e-05 1.47712e-05 -0.0133421 0.000100704 1.50267e-05
-0.0121757 8.86293e-05 2.80175e-05 -0.0125399 0.000112638 2.83082e-05
-0.011394 9.80645e-05 4.15155e-05 -0.0117503 0.000122186 4.16266e-05
-0.0106337 0.000105376 5.51151e-05 -0.0109662 0.000130422 5.48035e-05
-0.00989033 0.000111442 6.85689e-05 -0.0101994 0.000136507 6.80917e-05
-0.00918373 0.000115565 8.17035e-05 -0.00947592 0.000140901 8.08651e-05
-0.00851899 0.000117869 9.4369e-05 -0.00879159 0.000143392 9.3452e-05
-0.00789075 0.000118768 0.000106481 -0.00814432 0.000144459 0.000105329
-0.00729491 0.000118577 0.000117843 -0.00753109 0.000144304 0.000116477
-0.00672913 0.000117512 0.000128238 -0.00694713 0.000143291 0.000126696
-0.00618866 0.000115935 0.0001375 -0.00638926 0.00014174 0.000135854
-0.00566639 0.000114155 0.000145519 -0.0058504 0.000139975 0.000143764
-0.00515354 0.000112435 0.000152176 -0.00532104 0.000138296 0.000150309
-0.00464135 0.000111066 0.000157332 -0.00479264 0.000136983 0.000155377
-0.00412445 0.000110295 0.000160885 -0.0042599 0.000136309 0.000158889
-0.00360335 0.000110343 0.000162787 -0.00372319 0.000136507 0.000160772
-0.003084 0.00011142 0.000162994 -0.00318885 0.000137784 0.000160971
-0.00257398 0.000113695 0.000161303 -0.00266482 0.000140329 0.000159221
-0.00207746 0.000117251 0.000157706 -0.00215545 0.000144224 0.000155575
-0.00159347 0.000122101 0.000152278 -0.00165972 0.000149476 0.000150091
-0.0011179 0.000128184 0.000145142 -0.00117343 0.000156028 0.000142872
-0.000648553 0.000135384 0.000136444 -0.000694226 0.000163762 0.000134059
-0.000188532 0.00014355 0.000126343 -0.000225189 0.000172512 0.000123834
0.000254989 0.000152491 0.000115036 0.000226413 0.000182074 0.000112402
0.000673554 0.000161973 0.000102752 0.000652002 0.000192204 9.99856e-05
0.00105922 0.000171732 8.97399e-05 0.00104353 0.00020262 8.68279e-05
0.00140447 0.000181476 7.62498e-05 0.00139341 0.000213013 7.31894e-05
0.00170136 0.000190897 6.25396e-05 0.00169364 0.000223059 5.93387e-05
0.00194206 0.000199684 4.88747e-05 0.00193632 0.000232426 4.55417e-05
0.00211993 0.000207521 3.55174e-05 0.00211478 0.000240784 3.20587e-05
0.00223029 0.000214108 2.27153e-05 0.00222435 0.000247815 1.9141e-05
0.00227115 0.000219159 1.06974e-05 0.00226313 0.000253219 7.02451e-06
0.00226915 0.000222493 5.23832e-08 0.0022609 0.000256832 -3.43869e-06
0.00226336 0.000223933 -8.58592e-06 0.00225493 0.000258331 -1.18155e-05
0.00225484 0.000223234 -1.60509e-05 0.00224614 0.000257775 -1.93101e-05
0.00224459 0.00022024 -2.23162e-05 0.00223569 0.000254718 -2.54874e-05
0.0022337 0.000214764 -2.73051e-05 0.00222464 0.000249083 -3.03421e-05
0.002223 0.000206757 -3.09132e-05 0.00221385 0.000240791 -3.38221e-05
0.00221302 0.000196289 -3.3118e-05 0.00220387 0.000229937 -3.59781e-05
0.00220398 0.000183574 -3.39917e-05 0.00219491 0.000216724 -3.681e-05
0.00219574 0.000168936 -3.35581e-05 0.00218683 0.000201484 -3.62789e-05
0.00218794 0.000152801 -3.18433e-05 0.00217926 0.000184664 -3.44298e-05
0.0021801 0.000135672 -2.89681e-05 0.00217167 0.000166806 -3.14464e-05
0.00217178 0.000118096 -2.51198e-05 0.00216361 0.000148471 -2.75002e-05
0.00216271 0.000100617 -2.05126e-05 0.00215478 0.000130228 -2.27671e-05
0.00215275 8.37572e-05 -1.53381e-05 0.00214504 0.000112623 -1.74507e-05
0.00214182 6.80052e-05 -9.77491e-06 0.00213427 9.61734e-05 -1.17631e-05
0.00212977 5.38079e-05 -4.01277e-06 0.00212232 8.13459e-05 -5.89951e-06
0.00211647 4.15567e-05 1.69795e-06 0.00210903 6.85422e-05 -7.31135e-08
0.00210176 3.15524e-05 7.0998e-06 0.00209424 5.81232e-05 5.29122e-06
0.0020854 2.40054e-05 1.2209e-05 0.0020777 5.02282e-05 1.04735e-05
0.00206708 1.90101e-05 1.69629e-05 0.00205908 4.50313e-05 1.52354e-05
0.00204635 1.65878e-05 2.12624e-05 0.00203793 4.25194e-05 1.95004e-05
0.00202279 1.66304e-05 2.50325e-05 0.0020138 4.25922e-05 2.32444e-05
0.00199604 1.89036e-05 2.82456e-05 0.00198636 4.49971e-05 2.64397e-05
0.00196595 2.30399e-05 3.09287e-05 0.00195544 4.93616e-05 2.90885e-05
0.0019325 2.85538e-05 3.31189e-05 0.00192104 5.51776e-05 3.12217e-05
0.00189589 3.48595e-05 3.48599e-05 0.00188338 6.18334e-05 3.29015e-05
0.00185641 4.1298e-05 3.62132e-05 0.00184278 6.86381e-05 3.42063e-05
0.00172733 4.65769e-05 3.73105e-05 0.00162567 7.35811e-05 3.53476e-05
0.00118585 4.94769e-05 3.82635e-05 0.00106515 7.67247e-05 3.60796e-05
0.000626578 5.07621e-05 3.88768e-05 0.000486988 7.77855e-05 3.69108e-05
5.47228e-05 5.00824e-05 3.94165e-05 -0.00010191 7.69358e-05 3.73472e-05
-0.000509939 4.75516e-05 3.97199e-05 -0.000683033 7.43982e-05 3.76943e-05
-0.00105834 4.28973e-05 3.98407e-05 -0.00123618 6.94604e-05 3.79076e-05
-0.00158605 3.54802e-05 3.98707e-05 -0.00177253 6.20748e-05 3.78289e-05
-0.00208762 2.52386e-05 3.96576e-05 -0.00227812 5.15446e-05 3.77374e-05
-0.00255854 1.22212e-05 3.92293e-05 -0.00275106 3.82397e-05 3.73341e-05
-0.00300027 -3.46591e-06 3.84902e-05 -0.00319209 2.21712e-05 3.66697e-05
-0.00341635 -2.16118e-05 3.73692e-05 -0.0036047 3.61876e-06 3.56285e-05
-0.00381014 -4.18594e-05 3.57657e-05 -0.003993 -1.71017e-05 3.41058e-05
-0.00418929 -6.40104e-05 3.36053e-05 -0.00436101 -3.96137e-05 3.20025e-05
-0.00457806 -8.82245e-05 3.07874e-05 -0.00474853 -6.51697e-05 2.94344e-05
-0.00495637 -0.000113337 2.72132e-05 -0.00512372 -9.09025e-05 2.58163e-05
-0.0053258 -0.000138379 2.2645e-05 -0.00549694 -0.000116904 2.14403e-05
-0.00569493 -0.000163006 1.6994e-05 -0.00586654 -0.000142559 1.58998e-05
-0.00606858 -0.000186642 1.01522e-05 -0.00624169 -0.000167024 9.14958e-06
-0.00645153 -0.000208703 2.05055e-06 -0.00662744 -0.000189911 1.15921e-06
-0.00684768 -0.000228879 -6.78395e-06 -0.00702716 -0.000210768 -7.71957e-06
-0.00725816 -0.000246779 -1.62763e-05 -0.007442 -0.000229401 -1.67126e-05
-0.00768235 -0.000262153 -2.68353e-05 -0.00787259 -0.000245252 -2.72005e-05
-0.00811861 -0.000274815 -3.85121e-05 -0.00831619 -0.000258345 -3.86579e-05
-0.00856254 -0.000284746 -5.11891e-05 -0.00876883 -0.00026859 -5.10923e-05
-0.00900784 -0.00029202 -6.4711e-05 -0.00922392 -0.000276073 -6.43792e-05
-0.00944713 -0.000296828 -7.88986e-05 -0.00967382 -0.000280972 -7.8372e-05
-0.00987364 -0.000299413 -9.35972e-05 -0.0101114 -0.000283556 -9.28859e-05
-0.0102827 -0.000300083 -0.000108621 -0.0105319 -0.000284157 -0.000107699
-0.0106718 -0.000299205 -0.00012374 -0.0109324 -0.000283144 -0.000122606
-0.0110395 -0.000297172 -0.000138708 -0.0113113 -0.000280924 -0.000137387
-0.0113849 -0.000294392 -0.000153296 -0.0116677 -0.000277931 -0.000151804
-0.011707 -0.000291285 -0.000167284 -0.0120002 -0.000274603 -0.000165622
-0.0120034 -0.000288266 -0.000180449 -0.0123062 -0.00027137 -0.000178616
-0.012271 -0.000285724 -0.000192569 -0.0125824 -0.000268638 -0.000190583
-0.0125068 -0.000284005 -0.000203452 -0.0128255 -0.000266766 -0.000201332
-0.012709 -0.000283549 -0.000211378 -0.0130338 -0.000266074 -0.000210364
-0.0128771 -0.000285237 -0.000210452 -0.0132073 -0.000267539 -0.000210534
-0.0130166 -0.000288062 -0.000209414 -0.013349 -0.000270251 -0.000211316
-0.0131317 -0.000291989 -0.000208956 -0.0134668 -0.000274087 -0.000211645
-0.0132302 -0.000296808 -0.00020947 -0.0135655 -0.000279246 -0.000211692
-0.0133182 -0.000302643 -0.000209946 -0.0136533 -0.00028532 -0.000211781
-0.0134008 -0.00030936 -0.00020972 -0.0137354 -0.000292214 -0.000211851
-0.0134805 -0.000316838 -0.000207954 -0.0138144 -0.000299969 -0.00021027
-0.0135572 -0.000324863 -0.000204843 -0.0138895 -0.000308372 -0.000207012
-0.0136279 -0.000333229 -0.000200328 -0.0139585 -0.000317142 -0.000202217
-0.0136877 -0.000341688 -0.000194319 -0.0140164 -0.000325984 -0.000196167
-0.01373 -0.000349948 -0.000187034 -0.0140563 -0.000334641 -0.000188958
-0.013748 -0.000357717 -0.000178812 -0.0140715 -0.000342819 -0.000180673
-0.0137472 -0.00036475 -0.000169817 -0.0140702 -0.000350275 -0.000171492
-0.0137438 -0.000370789 -0.000160111 -0.0140666 -0.000356701 -0.000161676
-0.0137382 -0.000375478 -0.000149869 -0.0140608 -0.000361734 -0.000151427
-0.0137311 -0.000378457 -0.000139363 -0.0140534 -0.000365003 -0.000140896
-0.0137229 -0.000379405 -0.000128809 -0.014045 -0.000366175 -0.00013025
-0.0137143 -0.000378066 -0.000118325 -0.0140363 -0.000364972 -0.000119688
-0.0137057 -0.000374264 -0.000108025 -0.0140276 -0.000361202 -0.00010938
-0.0136973 -0.000367921 -9.80602e-05 -0.0140192 -0.000354783 -9.94338e-05
-0.0136892 -0.000359065 -8.85578e-05 -0.0140112 -0.000345749 -8.99319e-05
-0.0136813 -0.00034784 -7.95752e-05 -0.0140034 -0.000334248 -8.09488e-05
-0.0136729 -0.000334495 -7.11302e-05 -0.0139954 -0.000320534 -7.25385e-05
-0.0136636 -0.000319362 -6.32428e-05 -0.0139863 -0.000304954 -6.47145e-05
-0.0136525 -0.000302836 -5.59255e-05 -0.0139754 -0.000287925 -5.74602e-05
-0.0136386 -0.000285344 -4.91599e-05 -0.0139618 -0.000269893 -5.07504e-05
-0.0136213 -0.000267298 -4.29029e-05 -0.0139447 -0.000251288 -4.45578e-05
-0.0136003 -0.000249058 -3.71137e-05 -0.0139238 -0.00023248 -3.88458e-05
-0.0135756 -0.000230911 -3.1761e-05 -0.0138991 -0.000213772 -3.35704e-05
-0.0135476 -0.00021308 -2.68118e-05 -0.0138711 -0.000195396 -2.86897e-05
-0.0135167 -0.000195728 -2.22264e-05 -0.0138401 -0.00017752 -2.41689e-05
-0.0134836 -0.000178968 -1.79672e-05 -0.0138067 -0.000160258 -1.99766e-05
-0.0134487 -0.000162865 -1.40058e-05 -0.0137715 -0.000143677 -1.60814e-05
-0.0134127 -0.000147445 -1.03185e-05 -0.0137351 -0.000127804 -1.24543e-05
-0.013376 -0.000132707 -6.88061e-06 -0.0136981 -0.000112636 -9.07122e-06
-0.0133392 -0.000118629 -3.6677e-06 -0.0136609 -9.81511e-05 -5.91169e-06
-0.0133025 -0.000105187 -6.58747e-07 -0.0136237 -8.43218e-05 -2.95538e-06
-0.0132659 -9.23371e-05 2.01171e-06 -0.0135867 -7.11191e-05 -2.24859e-07
-0.0132294 -8.00229e-05 4.11489e-06 -0.0135497 -5.84505e-05 1.8e-06
-0.0131929 -6.82425e-05 6.07718e-06 -0.0135127 -4.63516e-05 3.82161e-06
-0.0131567 -5.69135e-05 7.97073e-06 -0.0134761 -3.46909e-05 5.64998e-06
-0.0131215 -4.59038e-05 9.79753e-06 -0.0134403 -2.33605e-05 7.41083e-06
-0.0130882 -3.51286e-05 1.15395e-05 -0.0133983 -1.2273e-05 9.08303e-06
-0.0127201 -2.33298e-05 1.32341e-05 -0.0129833 -6.15365e-08 1.06557e-05
-0.0123082 -1.19057e-05 1.4766e-05 -0.0125771 1.11088e-05 1.23466e-05
-0.0119445 -1.21233e-06 1.64191e-05 -0.01221 2.24034e-05 1.38277e-05
-0.0116288 8.94463e-06 1.80878e-05 -0.011899 3.28216e-05 1.55056e-05
-0.0113653 1.83621e-05 1.98156e-05 -0.0116377 4.24475e-05 1.71915e-05
-0.0111539 2.67476e-05 2.16305e-05 -0.011429 5.10615e-05 1.89811e-05
-0.0109901 3.40318e-05 2.35558e-05 -0.0112681 5.84921e-05 2.0875e-05
-0.0108669 4.00092e-05 2.56011e-05 -0.0111478 6.46014e-05 2.28987e-05
-0.0107747 4.45412e-05 2.77684e-05 -0.0110575 6.92334e-05 2.50436e-05
-0.0107023 4.75516e-05 3.00545e-05 -0.0109864 7.22881e-05 2.7326e-05
-0.0106393 4.8958e-05 3.24481e-05 -0.0109234 7.36948e-05 2.97136e-05
-0.010577 4.87415e-05 3.49256e-05 -0.0108596 7.34516e-05 3.21959e-05
-0.0105112 4.69538e-05 3.74525e-05 -0.0107907 7.15834e-05 3.47299e-05
-0.0104427 4.36573e-05 3.99842e-05 -0.0107188 6.81405e-05 3.7281e-05
-0.010375 3.90095e-05 4.24669e-05 -0.0106468 6.33014e-05 3.97891e-05
-0.0103131 3.32377e-05 4.484e-05 -0.0105803 5.72959e-05 4.21914e-05
-0.0102623 2.65941e-05 4.70358e-05 -0.0105249 5.03784e-05 4.44207e-05
-0.0102282 1.93475e-05 4.89828e-05 -0.0104863 4.28348e-05 4.64045e-05
-0.0102153 1.17805e-05 5.0611e-05 -0.0104693 3.49551e-05 4.80725e-05
-0.0102161 4.21051e-06 5.18532e-05 -0.0104694 2.70635e-05 4.93531e-05
-0.0102182 -3.09077e-06 5.26484e-05 -0.0104714 1.94555e-05 5.01861e-05
-0.0102212 -9.95538e-06 5.29467e-05 -0.0104742 1.2312e-05 5.05175e-05
-0.0102244 -1.62417e-05 5.26434e-05 -0.0104773 5.77312e-06 5.02583e-05
-0.0102272 -2.1822e-05 5.15976e-05 -0.01048 -1.20008e-08 4.92231e-05
-0.0102293 -2.65733e-05 4.97773e-05 -0.0104821 -4.93343e-06 4.74243e-05
-0.0102309 -3.03847e-05 4.71818e-05 -0.0104836 -8.86688e-06 4.48429e-05
-0.0102321 -3.31539e-05 4.38273e-05 -0.0104848 -1.17043e-05 4.14859e-05
-0.0102335 -3.4763e-05 3.97449e-05 -0.0104861 -1.33551e-05 3.73844e-05
-0.0102354 -3.52172e-05 3.49765e-05 -0.0104881 -1.37882e-05 3.25879e-05
-0.0102382 -3.45469e-05 2.95879e-05 -0.010491 -1.3044e-05 2.71665e-05
-0.0102419 -3.28627e-05 2.36732e-05 -0.0104948 -1.12369e-05 2.12076e-05
-0.0102464 -3.03338e-05 1.73386e-05 -0.0104995 -8.53989e-06 1.48182e-05
-0.0102515 -2.71713e-05 1.0701e-05 -0.0105048 -5.17395e-06 8.1214e-06
-0.0102569 -2.36145e-05 3.89272e-06 -0.0105105 -1.36197e-06 1.25254e-06
-0.0102623 -1.99991e-05 -2.48813e-06 -0.0105161 2.49138e-06 -5.08274e-06
-0.0102671 -1.65627e-05 -8.70084e-06 -0.0105211 6.15349e-06 -1.13736e-05
-0.0102708 -1.35801e-05 -1.46772e-05 -0.010525 9.36186e-06 -1.74154e-05
-0.0102728 -1.12705e-05 -2.03566e-05 -0.0105271 1.18398e-05 -2.31322e-05
-0.0102727 -9.8242e-06 -2.56402e-05 -0.010527 1.34038e-05 -2.84335e-05
-0.0102699 -9.37039e-06 -3.04182e-05 -0.0105243 1.39275e-05 -3.32305e-05
-0.0102642 -9.95012e-06 -3.46286e-05 -0.0105185 1.33593e-05 -3.74722e-05
-0.0102553 -1.15151e-05 -3.82416e-05 -0.0105094 1.17474e-05 -4.10989e-05
-0.0102432 -1.39388e-05 -4.12384e-05 -0.0104969 9.22303e-06 -4.40814e-05
-0.0102279 -1.7023e-05 -4.3599e-05 -0.0104811 5.99196e-06 -4.64255e-05
-0.0101528 -2.01024e-05 -4.53673e-05 -0.0103977 2.83322e-06 -4.81877e-05
-0.00983002 -2.25761e-05 -4.65553e-05 -0.0100619 3.20746e-07 -4.9334e-05
-0.00947102 -2.48221e-05 -4.71038e-05 -0.00969254 -1.78471e-06 -4.99518e-05
-0.00909141 -2.65679e-05 -4.7135e-05 -0.00930128 -3.56641e-06 -4.99232e-05
-0.00870744 -2.76403e-05 -4.65775e-05 -0.00890555 -4.51885e-06 -4.93875e-05
-0.00833407 -2.77765e-05 -4.54742e-05 -0.00852135 -4.58023e-06 -4.8279e-05
-0.0079845 -2.68229e-05 -4.38577e-05 -0.00816179 -3.51237e-06 -4.66729e-05
-0.00767085 -2.46549e-05 -4.17657e-05 -0.00783975 -1.18872e-06 -4.45801e-05
-0.0074045 -2.11858e-05 -3.92118e-05 -0.00756689 2.4694e-06 -4.2035e-05
-0.0071954 -1.63931e-05 -3.62093e-05 -0.00735344 7.47482e-06 -3.90526e-05
-0.00705101 -1.03266e-05 -3.27756e-05 -0.00720707 1.37766e-05 -3.56421e-05
-0.00697509 -3.10951e-06 -2.89186e-05 -0.00713161 2.12566e-05 -3.18067e-05
-0.00696783 4.85266e-06 -2.46255e-05 -0.00712189 2.96674e-05 -2.75405e-05
-0.00697236 1.36745e-05 -1.98859e-05 -0.00712708 3.87113e-05 -2.28167e-05
-0.00698024 2.32533e-05 -1.47116e-05 -0.00713551 4.86442e-05 -1.76834e-05
-0.0069909 3.30102e-05 -9.09473e-06 -0.0071468 5.88338e-05 -1.21042e-05
-0.00700352 4.26556e-05 -3.01593e-06 -0.00716003 6.87671e-05 -6.033e-06
-0.0070172 5.15578e-05 3.42891e-06 -0.00717431 7.79806e-05 4.98569e-07
-0.00703107 5.93709e-05 9.08012e-06 -0.0071887 8.60745e-05 6.02629e-06
-0.00704431 6.54909e-05 1.51074e-05 -0.00720239 9.23716e-05 1.22424e-05
-0.00705618 6.95605e-05 2.15122e-05 -0.00721464 9.65598e-05 1.86459e-05
-0.00706622 7.13372e-05 2.82859e-05 -0.00722495 9.83647e-05 2.53594e-05
-0.00707416 7.07122e-05 3.52815e-05 -0.00723305 9.76631e-05 3.23108e-05
-0.00707988 6.76957e-05 4.23645e-05 -0.0072388 9.44321e-05 3.94413e-05
-0.00708328 6.23747e-05 4.94659e-05 -0.00724212 8.8802e-05 4.66251e-05
-0.00708427 5.49545e-05 5.65139e-05 -0.0072429 8.09917e-05 5.37097e-05
-0.00708288 4.57592e-05 6.33488e-05 -0.0072412 7.13279e-05 6.05668e-05
-0.0070794 3.521e-05 6.9782e-05 -0.00723733 6.02451e-05 6.70617e-05
-0.00707431 2.38019e-05 7.56606e-05 -0.00723179 4.82708e-05 7.3034e-05
-0.0070682 1.20776e-05 8.08605e-05 -0.00722519 3.59765e-05 7.83116e-05
-0.0070616 5.93591e-07 8.52368e-05 -0.0072181 2.3943e-05 8.27406e-05
-0.00705501 -1.01133e-05 8.86334e-05 -0.00721104 1.273e-05 8.61917e-05
-0.00704883 -1.95525e-05 9.0925e-05 -0.00720445 2.85144e-06 8.85474e-05
-0.00704342 -2.72985e-05 9.20303e-05 -0.00719869 -5.24595e-06 8.9706e-05
-0.00703912 -3.29989e-05 9.18314e-05 -0.00719413 -1.11958e-05 8.95529e-05
-0.00703627 -3.63776e-05 9.00322e-05 -0.00719112 -1.46918e-05 8.77236e-05
-0.00703515 -3.72905e-05 8.66027e-05 -0.00718996 -1.56052e-05 8.42872e-05
-0.00703597 -3.57286e-05 8.1598e-05 -0.00719085 -1.39157e-05 7.92609e-05
-0.00703873 -3.18163e-05 7.51301e-05 -0.0071938 -9.75279e-06 7.27354e-05
-0.00704322 -2.58076e-05 6.73362e-05 -0.0071986 -3.38166e-06 6.48448e-05
-0.0070491 -1.80666e-05 5.83744e-05 -0.00720486 4.80995e-06 5.57768e-05
-0.00705596 -9.04421e-06 4.84459e-05 -0.00721216 1.43489e-05 4.57422e-05
-0.00706346 7.53309e-07 3.77899e-05 -0.00722016 2.47074e-05 3.49702e-05
-0.00707132 1.0787e-05 2.66579e-05 -0.00722851 3.53203e-05 2.37083e-05
-0.00707916 2.0502e-05 1.5298e-05 -0.00723685 4.56038e-05 1.22191e-05
-0.00708659 2.93513e-05 3.95887e-06 -0.00724475 5.49831e-05 7.63734e-07
-0.00709325 3.66743e-05 -5.61067e-06 -0.0072518 6.27159e-05 -8.56239e-06
-0.00709899 4.22099e-05 -1.46e-05 -0.00725786 6.86248e-05 -1.77823e-05
-0.0071039 4.56421e-05 -2.29637e-05 -0.00726302 7.23424e-05 -2.62499e-05
-0.00710823 4.67945e-05 -3.06937e-05 -0.00726752 7.36434e-05 -3.40207e-05
-0.00711218 4.55942e-05 -3.76683e-05 -0.00727154 7.24057e-05 -4.09375e-05
-0.00711571 4.18804e-05 -4.37058e-05 -0.00727506 6.85763e-05 -4.69704e-05
-0.00711862 3.57127e-05 -4.8754e-05 -0.00727789 6.22411e-05 -5.20501e-05
-0.00712063 2.7226e-05 -5.28534e-05 -0.00727971 5.34285e-05 -5.61597e-05
-0.00712151 1.66064e-05 -5.60327e-05 -0.00728033 4.24062e-05 -5.92583e-05
-0.00712109 4.16926e-06 -5.82785e-05 -0.00727952 2.95033e-05 -6.14248e-05
-0.00711892 -9.55037e-06 -5.96383e-05 -0.00727715 1.51861e-05 -6.27262e-05
-0.00711523 -2.40079e-05 -6.02165e-05 -0.00727261 2.32321e-07 -6.32756e-05
-0.00711051 -3.89652e-05 -6.0077e-05 -0.00726716 -1.52247e-05 -6.30321e-05
-0.00710513 -5.37854e-05 -5.92695e-05 -0.00726101 -3.06124e-05 -6.2096e-05
-0.00709945 -6.79058e-05 -5.79011e-05 -0.00725461 -4.52387e-05 -6.06614e-05
-0.00709393 -8.07692e-05 -5.61316e-05 -0.00724841 -5.85901e-05 -5.88217e-05
-0.00708892 -9.18593e-05 -5.411e-05 -0.00724281 -7.01073e-05 -5.67295e-05
-0.00708464 -0.000100731 -5.19579e-05 -0.00723807 -7.93378e-05 -5.45003e-05
-0.00708126 -0.000107045 -4.97613e-05 -0.00723435 -8.59151e-05 -5.22522e-05
-0.00707886 -0.000110542 -4.76006e-05 -0.00723176 -8.95783e-05 -5.0069e-05
-0.00707749 -0.00011105 -4.55474e-05 -0.00723034 -9.01338e-05 -4.80077e-05
-0.00707728 -0.000108485 -4.36406e-05 -0.00723019 -8.74948e-05 -4.60994e-05
-0.00707845 -0.000102917 -4.18749e-05 -0.00723153 -8.17193e-05 -4.43555e-05
-0.00708126 -9.45217e-05 -4.02233e-05 -0.00723464 -7.29952e-05 -4.27485e-05
-0.00708586 -8.35981e-05 -3.86384e-05 -0.00723964 -6.16321e-05 -4.12264e-05
-0.00709214 -7.05684e-05 -3.70494e-05 -0.00724642 -4.80725e-05 -3.97081e-05
-0.00709983 -5.59591e-05 -3.53606e-05 -0.00725467 -3.28654e-05 -3.80978e-05
-0.00710843 -4.03759e-05 -3.34626e-05 -0.00726391 -1.66438e-05 -3.6286e-05
-0.00711735 -2.44738e-05 -3.12441e-05 -0.00727347 -9.20888e-08 -3.4156e-05
-0.00712605 -8.96805e-06 -2.85955e-05 -0.00728327 1.58031e-05 -3.15553e-05
-0.00717034 5.25983e-06 -2.53859e-05 -0.00735523 3.02981e-05 -2.8429e-05
-0.00722714 1.79006e-05 -2.15884e-05 -0.00741819 4.34716e-05 -2.46804e-05
-0.00726694 2.87008e-05 -1.71328e-05 -0.00746424 5.46692e-05 -2.02458e-05
-0.00728635 3.73822e-05 -1.20204e-05 -0.0074879 6.35214e-05 -1.51436e-05
-0.00728706 4.34866e-05 -6.23815e-06 -0.00749008 6.97569e-05 -9.36677e-06
-0.00728341 4.68543e-05 1.68099e-07 -0.00748653 7.31307e-05 -2.95449e-06
-0.00727639 4.7576e-05 6.31323e-06 -0.00747945 7.36546e-05 3.41698e-06
-0.00715672 4.6149e-05 1.26253e-05 -0.00741079 7.19538e-05 9.65031e-06
-0.00695782 4.26892e-05 1.91097e-05 -0.00720018 6.8161e-05 1.62997e-05
-0.00670184 3.70695e-05 2.58455e-05 -0.00693431 6.24525e-05 2.29752e-05
-0.00638791 2.98878e-05 3.25916e-05 -0.00660713 5.49539e-05 2.97852e-05
-0.00601437 2.14888e-05 3.91809e-05 -0.00621808 4.627e-05 3.63813e-05
-0.00558308 1.2386e-05 4.54435e-05 -0.00576881 3.68665e-05 4.27566e-05
-0.00510041 3.15386e-06 5.12792e-05 -0.00526681 2.73301e-05 4.86457e-05
-0.00457991 -5.61382e-06 5.65251e-05 -0.00472625 1.83014e-05 5.39211e-05
-0.00404073 -1.33044e-05 6.10075e-05 -0.00416702 1.03987e-05 5.84334e-05
-0.00350398 -1.93176e-05 6.45859e-05 -0.00361132 4.22841e-06 6.20625e-05
-0.00299106 -2.31376e-05 6.71739e-05 -0.00308152 3.25359e-07 6.46849e-05
-0.00252326 -2.43408e-05 6.87042e-05 -0.00259969 -8.62912e-07 6.62175e-05
-0.00211932 -2.26138e-05 6.91197e-05 -0.0021854 9.73366e-07 6.6617e-05
-0.00179119 -1.77859e-05 6.82439e-05 -0.00185103 6.00755e-06 6.5707e-05
-0.00154255 -9.87405e-06 6.60681e-05 -0.00160042 1.42292e-05 6.34765e-05
-0.00137136 9.44212e-07 6.26825e-05 -0.00143136 2.54476e-05 6.00222e-05
-0.00127207 1.43403e-05 5.82293e-05 -0.00133798 3.93295e-05 5.54731e-05
-0.00123667 2.98606e-05 5.28796e-05 -0.00131174 5.54053e-05 5.00044e-05
-0.00123786 4.70313e-05 4.68253e-05 -0.00131408 7.32811e-05 4.38098e-05
-0.00124207 6.52521e-05 4.02876e-05 -0.00131913 9.22317e-05 3.71438e-05
-0.00124761 8.378e-05 3.35191e-05 -0.00132575 0.000111467 3.02385e-05
-0.00125315 0.00010195 2.67705e-05 -0.00133183 0.000130498 2.33258e-05
-0.00125795 0.000118644 2.03095e-05 -0.00133729 0.000147997 1.67275e-05
-0.00126098 0.000133149 1.4368e-05 -0.0013408 0.000163172 1.06828e-05
-0.00126124 0.000144848 9.16189e-06 -0.00134143 0.000175422 5.36708e-06
-0.00125808 0.000153255 4.86631e-06 -0.00133845 0.000184216 1.00348e-06
-0.00125113 0.000158072 1.76437e-06 -0.00133148 0.000189192 -1.81547e-06
-0.00124035 0.000159209 -8.09577e-08 -0.00132049 0.000190378 -3.69135e-06
-0.00110559 0.000157362 -1.03407e-06 -0.00125056 0.000188217 -4.66954e-06
-0.000861973 0.00015259 -1.08798e-06 -0.000993413 0.000183223 -4.71511e-06
-0.000572789 0.000144817 -1.53861e-07 -0.000692082 0.000175346 -3.73842e-06
-0.000245357 0.000134643 1.70647e-06 -0.000350507 0.000164772 -1.76103e-06
0.000112875 0.000122546 4.14878e-06 2.39544e-05 0.000152276 8.60757e-07
0.000491865 0.000109149 7.06602e-06 0.000420568 0.000138437 3.79972e-06
0.00088055 9.51468e-05 1.03868e-05 0.00082742 0.000123927 7.24805e-06
0.00126696 8.1205e-05 1.39764e-05 0.00123186 0.000109506 1.09186e-05
0.00164038 6.80185e-05 1.76764e-05 0.0016228 9.5873e-05 1.46728e-05
0.00199206 5.62566e-05 2.13101e-05 0.00199071 8.37038e-05 1.83594e-05
0.00231499 4.64992e-05 2.47207e-05 0.00232821 7.36051e-05 2.18318e-05
0.00260427 3.92337e-05 2.77939e-05 0.00263004 6.61019e-05 2.49584e-05
0.00285702 3.48541e-05 3.0442e-05 0.00289302 6.15935e-05 2.76269e-05
0.00307195 3.36278e-05 3.25859e-05 0.00311573 6.0356e-05 2.97697e-05
0.00324893 3.56894e-05 3.41737e-05 0.003298 6.25319e-05 3.13477e-05
0.00338903 4.10407e-05 3.51988e-05 0.00344089 6.81262e-05 3.23514e-05
0.0034946 4.95425e-05 3.56945e-05 0.00354706 7.69997e-05 3.28013e-05
0.00356944 6.0932e-05 3.56899e-05 0.00362069 8.88788e-05 3.27255e-05
0.00361804 7.48445e-05 3.52335e-05 0.00366519 0.00010336 3.21777e-05
0.00364209 9.08366e-05 3.44394e-05 0.00368375 0.000119995 3.12917e-05
0.00364415 0.000108389 3.34585e-05 0.00368342 0.000138292 3.02008e-05
0.00364178 0.000126982 3.24477e-05 0.00368051 0.00015768 2.90736e-05
0.00363732 0.00014597 3.15746e-05 0.00367543 0.000177487 2.80749e-05
0.00363086 0.000164647 3.10061e-05 0.00366832 0.000196972 2.73907e-05
0.00362285 0.000182276 3.09126e-05 0.00365965 0.000215367 2.71908e-05
0.00361393 0.000198132 3.14505e-05 0.0036501 0.00023191 2.76337e-05
0.00360472 0.000211545 3.27492e-05 0.00364031 0.0002459 2.88546e-05
0.00359556 0.000221959 3.4904e-05 0.00363065 0.000256758 3.09555e-05
0.00358651 0.000228954 3.79709e-05 0.00362121 0.000264043 3.39979e-05
0.0035775 0.000232289 4.15176e-05 0.00361191 0.000267488 3.75886e-05
0.00356847 0.000231754 4.58617e-05 0.00360269 0.000266921 4.19556e-05
0.00355924 0.000227351 5.09385e-05 0.00359337 0.000262292 4.70718e-05
0.00354944 0.000219199 5.66798e-05 0.00358356 0.000253764 5.286e-05
0.00353862 0.000207567 6.29466e-05 0.0035728 0.000241603 5.91756e-05
0.00352643 0.000192815 6.95531e-05 0.00356072 0.000226185 6.5872e-05
0.00351268 0.000175375 7.63208e-05 0.00354711 0.000207963 7.27576e-05
0.00349737 0.000155728 8.30609e-05 0.00353197 0.00018745 7.9616e-05
0.00348068 0.000134401 8.95586e-05 0.00351543 0.000165192 8.62295e-05
0.00346275 0.000111952 9.5579e-05 0.00349767 0.000141772 9.23761e-05
0.00344375 8.89541e-05 0.000100898 0.00347882 0.000117792 9.78335e-05
0.0034239 6.59718e-05 0.000105308 0.0034591 9.38419e-05 0.000102379
0.00340354 4.35387e-05 0.000108615 0.00343883 7.04799e-05 0.000105809
0.00338305 2.21487e-05 0.000110634 0.00341839 4.82217e-05 0.000107942
0.00336268 2.25487e-06 0.000111207 0.00339805 2.75408e-05 0.000108624
0.00334252 -1.5724e-05 0.000110101 0.00337785 8.87268e-06 0.000107622
0.00332248 -3.14381e-05 0.000107125 0.00335772 -7.40211e-06 0.000104701
0.00330354 -4.41023e-05 0.000102173 0.00334037 -1.96838e-05 9.96747e-05
0.00326653 -5.38083e-05 9.52286e-05 0.00326096 -2.99895e-05 9.29137e-05
0.00302789 -6.19564e-05 8.65674e-05 0.00301552 -3.80941e-05 8.40961e-05
0.00278133 -6.74587e-05 7.60689e-05 0.00277067 -4.3649e-05 7.366e-05
0.00253404 -7.03714e-05 6.39696e-05 0.00251955 -4.63789e-05 6.14066e-05
0.00228513 -7.09076e-05 5.03797e-05 0.00226443 -4.6829e-05 4.77901e-05
0.00203602 -6.93527e-05 3.55515e-05 0.00200936 -4.50296e-05 3.28559e-05
0.00178909 -6.60034e-05 1.97256e-05 0.00175419 -4.1428e-05 1.69146e-05
0.00154255 -6.12394e-05 3.17476e-06 0.0014983 -3.63035e-05 2.31173e-07
0.00129225 -5.58505e-05 -1.0715e-05 0.00123836 -3.05911e-05 -1.32522e-05
0.00103137 -4.98877e-05 -2.4404e-05 0.000967941 -2.42612e-05 -2.73449e-05
0.000753526 -4.38435e-05 -3.7821e-05 0.000678705 -1.77775e-05 -4.09194e-05
0.000452095 -3.80591e-05 -5.10935e-05 0.000366609 -1.16289e-05 -5.42898e-05
0.000124497 -3.29947e-05 -6.39562e-05 2.81308e-05 -6.24682e-06 -6.70633e-05
-0.000227648 -2.9148e-05 -7.60033e-05 -0.000334694 -2.08629e-06 -7.91288e-05
-0.000598025 -2.6947e-05 -8.70357e-05 -0.000714908 4.05282e-07 -9.03513e-05
-0.00097743 -2.67666e-05 -9.70311e-05 -0.00110283 7.81323e-07 -0.000100437
-0.00135607 -2.89511e-05 -0.000105884 -0.00148811 -1.30746e-06 -0.000109243
-0.0017249 -3.37678e-05 -0.000113386 -0.00186141 -6.09356e-06 -0.000116703
-0.00207603 -4.13593e-05 -0.000119403 -0.00221454 -1.37386e-05 -0.000122749
-0.00241482 -5.21398e-05 -0.000123926 -0.00254356 -2.44942e-05 -0.000127308
-0.00273294 -6.61949e-05 -0.000126993 -0.00286952 -3.9049e-05 -0.000130284
-0.00302561 -8.24881e-05 -0.000128648 -0.00316282 -5.61244e-05 -0.000131799
-0.00329711 -0.000100935 -0.000128867 -0.00343536 -7.52582e-05 -0.000131995
-0.00355889 -0.000120997 -0.00012756 -0.0036961 -9.61592e-05 -0.000130516
-0.00382145 -0.000142073 -0.000124883 -0.00395755 -0.000118112 -0.000127727
-0.00409539 -0.00016357 -0.000121047 -0.00423051 -0.000140521 -0.000123733
-0.00438942 -0.000184875 -0.000116249 -0.00452379 -0.000162734 -0.000118794
-0.00471121 -0.000205357 -0.000110722 -0.00484603 -0.000184128 -0.000113122
-0.00506804 -0.000224468 -0.000104697 -0.00520482 -0.000204106 -0.000106956
-0.005464 -0.00024172 -9.83905e-05 -0.00560449 -0.000222158 -0.000100516
-0.00589743 -0.000256707 -9.20033e-05 -0.00604365 -0.00023788 -9.40091e-05
-0.00636172 -0.000269156 -8.57206e-05 -0.00651562 -0.000250977 -8.76235e-05
-0.00684724 -0.000278903 -7.97044e-05 -0.00701054 -0.000261268 -8.15186e-05
-0.00734352 -0.000285879 -7.40864e-05 -0.00751774 -0.000268683 -7.58286e-05
-0.00784184 -0.000290113 -6.89687e-05 -0.00802824 -0.000273251 -7.06582e-05
-0.00833788 -0.000291714 -6.44277e-05 -0.00853751 -0.00027508 -6.60831e-05
-0.0088325 -0.000290861 -6.05119e-05 -0.00904638 -0.000274353 -6.215e-05
-0.00932942 -0.000287806 -5.72409e-05 -0.00955859 -0.000271334 -5.88768e-05
-0.00983246 -0.000282878 -5.46068e-05 -0.0100779 -0.000266368 -5.62549e-05
-0.0103435 -0.000276485 -5.25789e-05 -0.0106061 -0.000259874 -5.42509e-05
-0.0108607 -0.000269098 -5.11053e-05 -0.011141 -0.000252344 -5.28096e-05
-0.0113777 -0.000261246 -5.01181e-05 -0.0116761 -0.000244323 -5.18595e-05
-0.011885 -0.00025348 -4.95386e-05 -0.0122013 -0.000236385 -5.13188e-05
-0.0123722 -0.000246351 -4.92847e-05 -0.0127054 -0.000229098 -5.11019e-05
-0.0128285 -0.000240377 -4.92765e-05 -0.0131774 -0.000222997 -5.11255e-05
-0.0132439 -0.000236017 -4.94424e-05 -0.0136067 -0.000218561 -5.1315e-05
-0.0136087 -0.000233657 -4.97243e-05 -0.013983 -0.000216184 -5.16097e-05
-0.0139138 -0.000233584 -5.00814e-05 -0.0142971 -0.000216166 -5.19673e-05
-0.0141515 -0.000235976 -5.04942e-05 -0.0145407 -0.000218689 -5.2367e-05
-0.0143158 -0.000240886 -5.0966e-05 -0.0147078 -0.000223807 -5.28119e-05
-0.0144036 -0.00024824 -5.15237e-05 -0.014795 -0.000231442 -5.33294e-05
-0.0144181 -0.000257874 -5.2213e-05 -0.0148074 -0.000241438 -5.3965e-05
-0.0144123 -0.000269659 -5.3096e-05 -0.0148012 -0.000253702 -5.47788e-05
-0.0144008 -0.000283131 -5.42672e-05 -0.0147891 -0.00026773 -5.58703e-05
-0.0143845 -0.000297634 -5.58344e-05 -0.014772 -0.000282829 -5.73551e-05
-0.0143645 -0.0003124 -5.79184e-05 -0.0147511 -0.000298218 -5.93537e-05
-0.0143418 -0.000326624 -6.06379e-05 -0.0147275 -0.000313044 -6.19937e-05
-0.0143175 -0.000339506 -6.40998e-05 -0.0147023 -0.000326467 -6.53857e-05
-0.0142925 -0.000350301 -6.83869e-05 -0.0146764 -0.00033771 -6.96201e-05
-0.0142672 -0.000358355 -7.3554e-05 -0.0146503 -0.000346095 -7.47552e-05
-0.014242 -0.00036314 -7.96202e-05 -0.0146245 -0.00035107 -8.08122e-05
-0.0142169 -0.000364276 -8.65625e-05 -0.0145988 -0.00035224 -8.77704e-05
-0.0141915 -0.000361536 -9.43138e-05 -0.014573 -0.000349373 -9.55644e-05
-0.0141654 -0.00035484 -0.000102765 -0.0145466 -0.000342389 -0.000104085
-0.0141381 -0.00034424 -0.000111765 -0.014519 -0.000331345 -0.000113179
-0.0141088 -0.000329909 -0.000121129 -0.0144896 -0.000316424 -0.000122659
-0.0140773 -0.000312111 -0.000130635 -0.0144579 -0.000297906 -0.000132302
-0.0140432 -0.000291378 -0.00013828 -0.0144238 -0.000276317 -0.000140129
-0.0140066 -0.000267826 -0.000145526 -0.0143871 -0.000251891 -0.000147671
-0.013968 -0.000241896 -0.000152222 -0.0143484 -0.000224934 -0.000154559
-0.0139277 -0.000213955 -0.000158323 -0.0143081 -0.000195956 -0.000160781
-0.0138862 -0.000184488 -0.00016354 -0.0142666 -0.000165407 -0.000166052
-0.0138439 -0.000154014 -0.00016755 -0.0142242 -0.000133799 -0.000170223
-0.0138007 -0.000123051 -0.000170179 -0.014181 -0.000101696 -0.000173087
-0.0137566 -9.21251e-05 -0.000171324 -0.0141368 -6.96647e-05 -0.000174395
-0.0136685 -6.14343e-05 -0.000170755 -0.0139618 -3.71757e-05 -0.000174039
-0.0129795 -2.96003e-05 -0.000168036 -0.0132354 -4.31203e-06 -0.000171307
-0.012253 -3.65823e-07 -0.000162656 -0.012537 2.4968e-05 -0.000166063
-0.0115293 2.51312e-05 -0.000154577 -0.0118275 5.15342e-05 -0.00015829
-0.0107785 4.77761e-05 -0.000143949 -0.0110766 7.47081e-05 -0.000147551
-0.00998818 6.76152e-05 -0.00013068 -0.0102884 9.48084e-05 -0.000134404
-0.00916469 8.40274e-05 -0.000114888 -0.00946241 0.000111414 -0.000118571
-0.00831336 9.69927e-05 -9.66875e-05 -0.00860174 0.00012465 -0.000100369
-0.0074404 0.000106922 -7.62818e-05 -0.00771887 0.000134768 -7.99284e-05
-0.00654105 0.000114694 -5.39767e-05 -0.00679008 0.000143257 -5.76435e-05
-0.0056294 0.00012031 -3.00885e-05 -0.00585457 0.000148771 -3.35308e-05
-0.00472258 0.000123511 -4.85956e-06 -0.00492048 0.000152011 -8.27573e-06
-0.00382353 0.000125209 1.74315e-05 -0.00399222 0.000153722 1.43166e-05
-0.00292604 0.000125577 3.91645e-05 -0.00306834 0.000154325 3.59578e-05
-0.00202429 0.000125236 6.05924e-05 -0.00213628 0.000153759 5.76216e-05
-0.00110672 0.000124394 8.22211e-05 -0.00118914 0.000152992 7.93655e-05
-0.000164315 0.000123757 0.000103621 -0.000216083 0.000152414 0.000100402
0.000809513 0.000123889 0.00012411 0.000788983 0.000152611 0.000120869
0.00181782 0.000125291 0.000143397 0.00182969 0.000154102 0.000140388
0.00285999 0.000128438 0.000161492 0.0029043 0.000157494 0.000158578
0.00393153 0.000133777 0.000178233 0.00400827 0.000163208 0.000175189
0.00502728 0.000141699 0.000193239 0.00513625 0.000171632 0.000190064
0.00614374 0.00015248 0.000206248 0.00628446 0.000183036 0.000203115
0.00727788 0.000166886 0.000211886 0.00745015 0.000197962 0.000210138
0.00842847 0.00018442 0.000212182 0.00862706 0.000217453 0.000206864
0.00958926 0.000205001 0.000212018 0.00981895 0.000238445 0.000208593
0.0107566 0.000227702 0.000212488 0.0110129 0.000262798 0.000208137
0.0119224 0.000252607 0.000213555 0.0122064 0.000289102 0.000208576
0.0130824 0.000279352 0.0002142 0.0133924 0.000317399 0.000208707
0.0142334 0.000307623 0.00021365 0.0145698 0.000347084 0.000208479
0.0153767 0.000336899 0.000211311 0.0157382 0.00037803 0.000205971
0.0165162 0.000366659 0.000207507 0.0169026 0.00040947 0.000201821
0.0176656 0.000396351 0.000202336 0.0180697 0.00044079 0.000196292
0.0193253 0.000427389 0.000195923 0.0197322 0.000473982 0.000189564
0.0210917 0.000456729 0.000188594 0.0215127 0.000504864 0.000182257
0.0228871 0.000483215 0.000181054 0.023338 0.000533415 0.000174368
0.0247255 0.000506171 0.000173417 0.0252132 0.000558361 0.000166433
0.0250534 0.000453766 0.000165983 0.0248622 0.000186092 0.000208771
0.0256938 0.000451951 0.000173048 0.0252111 0.000368528 0.000137046
0.0272589 0.000490643 0.000151282 0.0251805 0.0003213 0.000181105
0.0289571 0.000515781 0.000145903 0.0252004 0.000342033 0.000140551
0.0304548 0.000556614 0.000124476 0.0252691 0.000363788 0.00014096
0.0318633 0.000584308 0.000112994 0.0252611 0.000384665 0.000118219
0.0331694 0.000631292 9.70207e-05 0.0253069 0.000411064 0.000105953
0.0343701 0.000672657 8.0795e-05 0.0253113 0.000437081 8.91582e-05
0.0354887 0.000841715 6.3496e-05 0.0253325 0.000469174 7.4926e-05
0.0366492 0.00199533 5.05044e-05 0.0253411 0.000495942 5.96647e-05
0.0359703 0.00172209 3.8448e-05 0.025313 0.000466817 5.30963e-05
0.0358855 0.00173433 3.98376e-05 0.0253551 0.000528321 3.59858e-05
0.0360413 0.0018956 1.9369e-05 0.0253006 0.000584986 1.98901e-05
0.0359672 0.00191306 7.8617e-06 0.0252922 0.000639023 9.15789e-07
0.0358758 0.00192063 -6.74806e-07 0.0252757 0.000689953 -6.40157e-06
0.0359087 0.00223044 -1.21153e-05 0.0252452 0.0015855 -1.37179e-05
0.0359047 0.00406199 -1.98772e-05 0.0252325 0.00327336 -2.3149e-05
0.0358413 0.00489303 -2.35063e-05 0.0252116 0.00476052 -2.65729e-05
0.0358266 0.00640956 -2.63586e-05 0.0251884 0.0063525 -3.20792e-05
0.0358212 0.00838116 -3.06919e-05 0.0251603 0.00787812 -3.39835e-05
0.0357794 0.00977274 -3.30255e-05 0.025133 0.00948214 -3.53711e-05
0.0349821 0.0109926 -3.24365e-05 0.0251029 0.0110578 -3.56472e-05
0.0343857 0.0124892 -2.96697e-05 0.0250705 0.0126133 -3.43141e-05
0.0336569 0.0138949 -2.57391e-05 0.0250376 0.0141259 -2.99815e-05
0.0327173 0.0150699 -2.00864e-05 0.0250044 0.0156003 -2.3482e-05
0.0318934 0.0162691 -1.18035e-05 0.0249712 0.0170336 -1.53194e-05
0.03119 0.0175063 -9.91335e-07 0.0249388 0.0183924 -5.34556e-06
0.030431 0.0186062 1.12135e-05 0.0249083 0.0196658 6.85044e-06
0.0296797 0.0195885 2.38743e-05 0.0248798 0.0208617 1.97713e-05
0.0290499 0.0205453 3.82248e-05 0.0248534 0.0219693 3.43946e-05
0.0284847 0.0214359 5.44516e-05 0.0248294 0.0229773 5.01807e-05
0.0279296 0.0222065 7.17935e-05 0.0248078 0.0238858 6.72067e-05
0.0274308 0.0228761 8.9431e-05 0.0247882 0.0246804 8.45372e-05
0.0270142 0.023386 0.000106409 0.0247719 0.0249878 9.9909e-05
0.0266297 0.0238113 0.000123213 0.0247583 0.0250689 0.000116852
0.0262672 0.0241213 0.00014173 0.0246717 0.0253475 0.000133876
0.0262359 0.024065 0.000148181 0.024768 0.0247068 1.76149e-05
0.0262126 0.0240837 0.000116961 0.0249869 0.0247598 0.000119971
0.0256294 0.0240897 0.00016413 0.0246782 0.0249383 0.000111142
0.0253587 0.02411 0.000179127 0.0248331 0.0248067 0.000127511
0.0246385 0.0241164 0.000197275 0.0247981 0.0247883 0.000156579
0.0238115 0.024123 0.000222454 0.0247114 0.0248649 0.000167312
0.0232973 0.0241357 0.00022614 0.0247442 0.0247912 0.000190493
0.0225653 0.0241443 0.000232348 0.0247081 0.024802 0.000201776
0.0217619 0.0241512 0.0002345 0.0246533 0.0248159 0.000212115
0.0211201 0.0241604 0.000234597 0.0245909 0.0247854 0.000230173
0.0204336 0.0241684 0.000236051 0.0240349 0.0247828 0.000243589
0.0197237 0.0242167 0.000238883 0.0232533 0.0247831 0.000238226
0.0191228 0.0243952 0.000242126 0.0228874 0.024772 0.000241871
0.019068 0.0238045 0.00019916 0.0225283 0.0247415 0.000238433
0.0191425 0.0237309 0.00016341 0.0221921 0.0247399 0.000237863
0.0190904 0.0236995 0.000196076 0.0211381 0.0247448 0.000235731
0.0189803 0.0238384 0.000236056 0.0205002 0.0247279 0.000240029
0.0189472 0.0238867 0.000241653 0.0199547 0.0247099 0.000254911
0.0189522 0.0237835 0.000234785 0.0188889 0.0247197 0.000251429
0.0189262 0.0237236 0.000254425 0.0178686 0.0247243 0.000243186
0.0184698 0.0237789 0.000286377 0.0170733 0.0247121 0.000245562
0.0169028 0.0238281 0.000267325 0.0161351 0.0247063 0.000250309
0.0158261 0.0238039 0.000189611 0.0150728 0.0247181 0.000135591
0.0152062 0.0237671 0.000208142 0.0136027 0.0247855 3.90691e-05
0.0143444 0.0237687 0.000238926 0.0124939 0.0247348 6.52019e-05
0.0130284 0.0237814 0.000259428 0.0122425 0.0247328 6.25376e-05
0.0118468 0.0237716 0.00026338 0.0108332 0.024728 6.85854e-05
0.0111492 0.0237481 0.000264107 0.00982497 0.0247297 5.82683e-05
0.0103405 0.023731 0.000279226 0.00911062 0.0247083 6.60239e-05
0.00917834 0.0237288 0.000284324 0.00815425 0.0247021 5.98378e-05
0.00809755 0.0237253 0.000277693 0.00711173 0.0246941 5.93008e-05
0.00727961 0.0237081 0.000274935 0.00634083 0.024677 6.24546e-05
0.00647991 0.0236857 0.000283093 0.00552074 0.0246628 6.02583e-05
0.00558092 0.023547 0.000291268 0.00462713 0.0246508 5.63269e-05
0.00468532 0.0232928 0.000291617 0.00386166 0.024633 5.59241e-05
0.00385969 0.0229213 0.000288796 0.0031488 0.024614 5.71879e-05
0.00274571 0.0229238 7.08929e-05 0.00233213 0.0246131 -6.27801e-06
0.00185177 0.0227791 4.12778e-05 0.00149362 0.024472 4.24403e-05
0.00119143 0.0223298 5.8171e-05 0.00107283 0.0237209 5.52121e-05
0.000680208 0.021501 7.99143e-05 0.000465113 0.0230849 4.66553e-05
0.000138506 0.0207411 8.24607e-05 -0.000225704 0.0227919 4.16982e-05
-0.000455655 0.0203332 6.47254e-05 -0.000772242 0.0221749 4.2531e-05
-0.00102643 0.0200024 5.46494e-05 -0.00115243 0.0213413 4.71593e-05
-0.00148851 0.0193847 5.92177e-05 -0.00157709 0.0207262 4.32851e-05
-0.00180514 0.0185208 6.69651e-05 -0.00203473 0.0201558 3.73849e-05
-0.00206236 0.0177336 6.57295e-05 -0.00232735 0.0194014 3.74164e-05
-0.00236238 0.0171592 5.78063e-05 -0.002545 0.018585 3.83777e-05
-0.00265078 0.0166094 5.2279e-05 -0.00278824 0.017875 3.6052e-05
-0.0028196 0.0158783 5.30201e-05 -0.00299003 0.0171604 3.28678e-05
-0.00289028 0.0150237 5.5366e-05 -0.0031055 0.0163534 3.17796e-05
-0.00296196 0.0142504 5.39859e-05 -0.00319126 0.0155607 3.04923e-05
-0.00305688 0.0136136 4.9367e-05 -0.00328284 0.0148208 2.83641e-05
-0.00311506 0.0129789 4.56838e-05 -0.00333229 0.0140648 2.67626e-05
-0.00311655 0.0122457 4.49334e-05 -0.00333379 0.0132889 2.55947e-05
-0.00311359 0.0114787 4.5237e-05 -0.00333252 0.0125495 2.37529e-05
-0.00311083 0.0109209 4.44231e-05 -0.0033305 0.0119896 2.20115e-05
-0.00310769 0.0104277 4.22949e-05 -0.00332724 0.0114296 2.07872e-05
-0.00310375 0.00996245 3.96864e-05 -0.00332283 0.010871 2.00179e-05
-0.00309878 0.00948604 3.77496e-05 -0.00331776 0.0103399 1.90408e-05
-0.00309296 0.00899507 3.70007e-05 -0.00331246 0.00984621 1.76866e-05
-0.00308683 0.00852036 3.69237e-05 -0.00330695 0.0093793 1.63458e-05
-0.00308109 0.00809553 3.64958e-05 -0.00330139 0.00893309 1.53387e-05
-0.00307617 0.00772945 3.51684e-05 -0.00329626 0.00851794 1.4571e-05
-0.00307215 0.00740588 3.33598e-05 -0.00329206 0.00814617 1.3812e-05
-0.003069 0.00710496 3.19847e-05 -0.00328903 0.00781806 1.30411e-05
-0.0030669 0.00682357 3.15379e-05 -0.00328732 0.00752874 1.23666e-05
-0.00306627 0.00657675 3.16796e-05 -0.00328716 0.00728004 1.18176e-05
-0.00306753 0.00638236 3.16754e-05 -0.00328888 0.00707856 1.13623e-05
-0.00307085 0.00624568 3.11526e-05 -0.00329262 0.00692656 1.10294e-05
-0.00307616 0.00615777 3.03935e-05 -0.00329841 0.00682087 1.08752e-05
-0.00308335 0.00610639 2.99652e-05 -0.00330623 0.00675925 1.08735e-05
-0.00309236 0.00608767 2.96919e-05 -0.0033161 0.00674287 1.06802e-05
-0.00310345 0.00608945 2.72166e-05 -0.00332838 0.00674547 7.61169e-06
-0.00311675 0.00609385 2.23926e-05 -0.00344794 0.00674924 2.59753e-06
-0.00339833 0.00609954 1.55757e-05 -0.00381746 0.00675362 -3.82773e-06
-0.00382691 0.00610677 7.01853e-06 -0.00426423 0.00676311 -1.23042e-05
-0.00430747 0.00611588 -3.28523e-06 -0.00471006 0.00677252 -2.28698e-05
-0.00479847 0.00612681 -1.46955e-05 -0.0051657 0.00678238 -3.41808e-05
-0.00529781 0.00613811 -2.34511e-05 -0.00566271 0.00679265 -3.23398e-05
-0.00582016 0.00614998 -3.30926e-05 -0.0061657 0.00680218 -3.42546e-05
-0.00635216 0.0061607 -3.35468e-05 -0.00665716 0.00681384 -3.49635e-05
-0.00687744 0.0061722 -3.42185e-05 -0.00717135 0.0068252 -3.56117e-05
-0.00738076 0.00618389 -3.39228e-05 -0.00767812 0.00683789 -3.71385e-05
-0.00786601 0.00619588 -3.44272e-05 -0.00816005 0.00685049 -3.82896e-05
-0.00832777 0.00620822 -3.60626e-05 -0.00860906 0.0068629 -3.93192e-05
-0.00874668 0.00622086 -3.81396e-05 -0.00901422 0.00687561 -4.05361e-05
-0.00910012 0.00623335 -3.97741e-05 -0.00936463 0.00688807 -4.19284e-05
-0.00937272 0.00624515 -4.08082e-05 -0.00964087 0.00690013 -4.34631e-05
-0.00955612 0.00625616 -4.17844e-05 -0.00983074 0.00691161 -4.50993e-05
-0.00964324 0.00626661 -4.32534e-05 -0.00992817 0.00692244 -4.675e-05
-0.00964766 0.00627649 -4.52226e-05 -0.00993877 0.00693244 -4.84543e-05
-0.00964168 0.0062854 -4.73518e-05 -0.00993288 0.0069408 -5.00997e-05
-0.0096314 0.00629298 -4.93307e-05 -0.00992271 0.00694841 -5.20458e-05
-0.00961658 0.00629926 -5.12042e-05 -0.0099076 0.00695499 -5.43607e-05
-0.00959713 0.0063044 -5.31803e-05 -0.00988756 0.00695987 -5.6474e-05
-0.00957351 0.00630856 -5.54659e-05 -0.00986313 0.00696373 -5.87113e-05
-0.00954638 0.00631186 -5.79998e-05 -0.00983501 0.00696684 -6.11288e-05
-0.00951624 0.00631448 -6.05758e-05 -0.00980357 0.00696913 -6.35924e-05
-0.00948356 0.00631658 -6.30858e-05 -0.00976941 0.00697077 -6.61017e-05
-0.00944901 0.00631836 -6.55857e-05 -0.00973338 0.00697216 -6.87062e-05
-0.00941331 0.00632005 -6.81805e-05 -0.00969616 0.00697357 -7.13934e-05
-0.00937712 0.00632197 -7.09015e-05 -0.00965835 0.00697513 -7.40824e-05
-0.00934103 0.00632439 -7.36941e-05 -0.00962061 0.00697713 -7.67826e-05
-0.00930561 0.00632753 -7.64806e-05 -0.00958363 0.00697986 -7.95297e-05
-0.00927137 0.00633152 -7.92256e-05 -0.00954791 0.00698354 -8.23058e-05
-0.00923872 0.00633654 -8.19513e-05 -0.00951388 0.00698832 -8.50796e-05
-0.009208 0.0063428 -8.46953e-05 -0.0094819 0.00699439 -8.78464e-05
-0.00917946 0.00635047 -8.74644e-05 -0.00945223 0.0070019 -9.06085e-05
-0.00915326 0.00635964 -9.02312e-05 -0.00942503 0.00701095 -9.33569e-05
-0.00912948 0.00637035 -9.29641e-05 -0.00940039 0.00702159 -9.60866e-05
-0.00910813 0.00638262 -9.56529e-05 -0.00937833 0.00703389 -9.88005e-05
-0.00908921 0.00639646 -9.8311e-05 -0.00935884 0.00704785 -0.000101493
-0.00907265 0.00641186 -0.000100946 -0.00934184 0.00706343 -0.000104154
-0.0090584 0.0064288 -0.000103562 -0.00932727 0.00708059 -0.000106781
-0.00904639 0.00644721 -0.000106147 -0.00931504 0.00709927 -0.000109372
-0.00903652 0.00646697 -0.000108686 -0.00930506 0.00711936 -0.000111923
-0.00902864 0.00648794 -0.000111172 -0.00929718 0.00714072 -0.000114427
-0.00902256 0.00650999 -0.000113608 -0.00929119 0.00716322 -0.000116882
-0.00901804 0.00653296 -0.000115998 -0.00928684 0.00718667 -0.000119287
-0.00901484 0.00655668 -0.000118344 -0.00928384 0.00721089 -0.00012164
-0.00901269 0.00658094 -0.000120644 -0.00928193 0.00723568 -0.000123938
-0.00901002 0.00680055 -0.000122037 -0.00927871 0.00747331 -0.00012495
-0.00900792 0.00722059 -0.000125347 -0.0092759 0.00795987 -0.000128501
-0.00900649 0.00766242 -0.000128123 -0.00927752 0.00843799 -0.000132964
-0.00900561 0.00809321 -0.000130662 -0.00927338 0.00883463 -0.000134153
-0.00900486 0.00849674 -0.000133173 -0.00922246 0.00921053 -0.000135416
-0.0090039 0.00888215 -0.000135391 -0.00920127 0.00962832 -0.000137772
-0.00900296 0.00926531 -0.000137311 -0.00920232 0.0100642 -0.000140909
-0.00900245 0.00965002 -0.000139077 -0.00920189 0.0104651 -0.00014321
-0.00900253 0.0100302 -0.000141092 -0.00919865 0.0108205 -0.000144549
-0.00900285 0.0103964 -0.000143439 -0.00919264 0.0111792 -0.000146194
-0.00900326 0.0107397 -0.000145661 -0.00919367 0.0115459 -0.000148405
-0.00900399 0.0110577 -0.000147322 -0.00919712 0.0118865 -0.000150305
-0.00900544 0.0113564 -0.000148565 -0.0092087 0.0121898 -0.000151748
-0.00900777 0.0116417 -0.000149884 -0.00922735 0.0124746 -0.000153174
-0.00901092 0.0119113 -0.000151499 -0.00925605 0.0127493 -0.000154772
-0.00901474 0.0121561 -0.000153159 -0.00929195 0.0129981 -0.000156154
-0.00901913 0.0123696 -0.00015451 -0.00933104 0.0132116 -0.000157206
-0.00902396 0.0125521 -0.000155469 -0.00937406 0.0133962 -0.000158212
-0.00902905 0.0127069 -0.000156238 -0.00942159 0.013557 -0.000159313
-0.00903416 0.0128342 -0.000157042 -0.00947002 0.0136878 -0.000160316
-0.00903909 0.0129307 -0.000157931 -0.00951549 0.0137803 -0.000161031
-0.00904361 0.0129924 -0.00015877 -0.00955691 0.0138358 -0.000161564
-0.00904752 0.0130171 -0.000159391 -0.00959435 0.0138586 -0.000162107
-0.0090506 0.0130164 -0.000159703 -0.00962585 0.013858 -0.000162566
-0.00905273 0.0130132 -0.000159945 -0.00964752 0.0138548 -0.000162914
-0.00905381 0.0130079 -0.000158892 -0.00966147 0.0138493 -0.00016205
-0.00905363 0.0129999 -0.000155392 -0.00966476 0.0138408 -0.000158026
-0.009052 0.0129892 -0.000149398 -0.00966309 0.0138293 -0.000151842
-0.00904884 0.0129757 -0.000140984 -0.00966014 0.0138154 -0.000143356
-0.0090442 0.0129597 -0.000130331 -0.00965579 0.0137992 -0.000132752
-0.00903817 0.0129417 -0.000117749 -0.00964977 0.0137806 -0.000120037
-0.00903093 0.012922 -0.000103434 -0.0096423 0.0137599 -0.000105408
-0.00902266 0.0129006 -8.75283e-05 -0.00963379 0.0137377 -8.91653e-05
-0.00901363 0.0128779 -7.02368e-05 -0.00962454 0.0137141 -7.16186e-05
-0.00900431 0.0128541 -5.1849e-05 -0.00956572 0.01369 -5.30977e-05
-0.00899519 0.0128298 -3.27699e-05 -0.00937224 0.0136664 -3.41497e-05
-0.00898704 0.0128054 -1.34123e-05 -0.00917737 0.0136405 -1.4499e-05
-0.00898038 0.0127813 5.56584e-06 -0.00903624 0.0136161 5.51817e-06
-0.00897651 0.0127617 4.72064e-06 -0.00895149 0.0135957 3.34644e-06
-0.00897566 0.0127437 3.80363e-06 -0.00893947 0.0135804 -3.36984e-07
-0.00897832 0.012626 6.80135e-07 -0.00894355 0.0134586 -1.42769e-07
-0.00898309 0.0123902 1.35349e-08 -0.00894815 0.0131488 -3.61905e-07
-0.00898997 0.0121445 6.2471e-07 -0.00895408 0.0128597 1.62848e-06
-0.00899908 0.0119109 1.73046e-06 -0.00903824 0.0126564 -5.3678e-07
-0.0090106 0.0117078 2.27082e-06 -0.00916817 0.0124771 -2.04978e-06
-0.00902446 0.0115341 1.77251e-06 -0.00929129 0.012273 -2.1631e-06
-0.00904035 0.0113763 8.11147e-07 -0.00942308 0.0120521 -1.12319e-06
-0.00905755 0.0112235 2.20451e-07 -0.00957942 0.0118725 -1.04331e-06
-0.00907555 0.0110713 5.43881e-07 -0.00975316 0.0117339 -2.08034e-06
-0.00909438 0.0109239 1.48771e-06 -0.00993186 0.011587 -2.47481e-06
-0.00911414 0.0107908 2.1403e-06 -0.0101094 0.0114294 -2.12838e-06
-0.00913461 0.0106761 1.99982e-06 -0.0102929 0.0112891 -1.96435e-06
-0.00915523 0.0105725 1.47728e-06 -0.0104836 0.01117 -2.17588e-06
-0.00917549 0.0104687 1.32026e-06 -0.0106713 0.0110532 -2.2969e-06
-0.00919509 0.0103603 1.76468e-06 -0.0108505 0.0109296 -2.1606e-06
-0.00921385 0.0102516 2.39472e-06 -0.0110225 0.0108098 -2.12711e-06
-0.00923155 0.0101484 2.70462e-06 -0.011187 0.0106996 -2.34364e-06
-0.00924795 0.01005 2.59744e-06 -0.0113394 0.0105892 -2.48986e-06
-0.0092628 0.009951 2.34833e-06 -0.0114756 0.0104713 -2.42041e-06
-0.00927589 0.0098467 2.25615e-06 -0.0115956 0.0103506 -2.39173e-06
-0.00928703 0.00973614 2.38537e-06 -0.0117003 0.010232 -2.60132e-06
-0.00929617 0.00962133 2.56336e-06 -0.011788 0.0101122 -2.91795e-06
-0.00930332 0.00950459 2.5689e-06 -0.0118566 0.00998617 -3.14533e-06
-0.00930853 0.00938663 2.33031e-06 -0.0119063 0.00985499 -3.31297e-06
-0.00931177 0.00926621 1.9709e-06 -0.0119385 0.00972246 -3.56263e-06
-0.00931306 0.00914168 1.66955e-06 -0.0119542 0.0095891 -3.91715e-06
-0.00931253 0.00901301 1.48024e-06 -0.0119554 0.00945313 -4.30227e-06
-0.00931036 0.00888236 1.3007e-06 -0.0119535 0.00931386 -4.67595e-06
-0.00930674 0.00875262 1.00016e-06 -0.01195 0.00917492 -5.08744e-06
-0.00930182 0.0086253 5.61842e-07 -0.0119452 0.00903856 -5.5663e-06
-0.00929571 0.00850042 7.66583e-08 -0.011939 0.0089031 -6.01935e-06
-0.00928855 0.00837814 -3.69879e-07 -0.0119318 0.00877013 -6.46067e-06
-0.00928051 0.00825982 -7.67069e-07 -0.0119236 0.00864297 -6.95134e-06
-0.00927181 0.00814774 -1.16228e-06 -0.0119148 0.00852338 -7.47306e-06
-0.00926267 0.00804417 -1.60317e-06 -0.0119055 0.00841185 -7.97339e-06
-0.00925332 0.0079507 -2.09204e-06 -0.0118959 0.00830954 -8.42826e-06
-0.00924394 0.00786834 -2.61236e-06 -0.0118863 0.0082189 -8.87302e-06
-0.00923473 0.00779988 -4.03566e-06 -0.0118768 0.008143 -1.02148e-05
-0.0092259 0.00774849 -6.56992e-06 -0.0118678 0.00808754 -1.28305e-05
-0.00921763 0.0077166 -1.03299e-05 -0.0118595 0.00805375 -1.65724e-05
-0.00921003 0.00770509 -1.53145e-05 -0.0118517 0.00803943 -2.14966e-05
-0.00920312 0.00770556 -1.99612e-05 -0.0118447 0.00803892 -2.33758e-05
-0.00919682 0.00770669 -2.23481e-05 -0.011838 0.00803903 -2.475e-05
-0.00919112 0.00770855 -2.42707e-05 -0.011832 0.00804077 -2.67022e-05
-0.00918613 0.00771135 -2.59367e-05 -0.0118274 0.00804414 -2.89615e-05
-0.009182 0.00771548 -2.79909e-05 -0.0118235 0.00804867 -3.1478e-05
-0.00917881 0.00772109 -3.06281e-05 -0.0118203 0.00805413 -3.39318e-05
-0.00917653 0.00772802 -3.37064e-05 -0.011818 0.00806085 -3.66117e-05
-0.00917498 0.00773595 -3.68621e-05 -0.0118167 0.00806885 -3.95722e-05
-0.00917404 0.00774468 -3.99225e-05 -0.0118161 0.00807783 -4.27536e-05
-0.00917369 0.00775426 -4.30284e-05 -0.011816 0.00808775 -4.61301e-05
-0.00917391 0.00776476 -4.64135e-05 -0.0118166 0.00809858 -4.96766e-05
-0.00917458 0.00777615 -5.01441e-05 -0.0118176 0.00811016 -5.33303e-05
-0.00917554 0.0077882 -5.40808e-05 -0.0118189 0.00812232 -5.70825e-05
-0.00917662 0.00780067 -5.80454e-05 -0.0118203 0.008135 -6.09769e-05
-0.00917768 0.00781339 -6.1983e-05 -0.0118218 0.00814808 -6.50206e-05
-0.00917863 0.00782633 -6.59721e-05 -0.0118231 0.0081614 -6.91586e-05
-0.00917938 0.00783943 -7.0106e-05 -0.0118243 0.0081748 -7.33409e-05
-0.00917981 0.00785257 -7.43826e-05 -0.011825 0.00818815 -7.75525e-05
-0.00917977 0.00786555 -7.87097e-05 -0.0118253 0.00820134 -8.17968e-05
-0.00917911 0.0078782 -8.29977e-05 -0.011825 0.00821423 -8.60716e-05
-0.0091777 0.00789041 -8.72299e-05 -0.0118239 0.0082267 -9.03622e-05
-0.00917547 0.0079021 -9.14482e-05 -0.0118219 0.00823865 -9.46416e-05
-0.00917234 0.00791322 -9.56841e-05 -0.011819 0.00824995 -9.88801e-05
-0.00916825 0.00792367 -9.99178e-05 -0.011815 0.00826052 -0.000103064
-0.00916314 0.00793334 -0.000104095 -0.01181 0.00827029 -0.000107192
-0.00915695 0.00794215 -0.000108174 -0.0118039 0.00827919 -0.000111262
-0.00914963 0.00795006 -0.000112155 -0.0117965 0.00828717 -0.000115262
-0.00914114 0.00795705 -0.000116058 -0.011788 0.0082942 -0.000119176
-0.00913149 0.00796312 -0.000119897 -0.0117783 0.00830026 -0.000122993
-0.00912076 0.00796826 -0.000123656 -0.0117673 0.00830535 -0.00012671
-0.00910882 0.00801319 -0.000127208 -0.0117554 0.0083095 -0.000130332
-0.00909551 0.00804457 -0.000131456 -0.0117426 0.00831497 -0.000133865
-0.00907969 0.00801562 -0.000134685 -0.0117287 0.0083437 -0.000137045
-0.00906306 0.00794633 -0.000137961 -0.0117148 0.00837267 -0.000140465
-0.00904651 0.0078595 -0.000140927 -0.0117 0.0083602 -0.000145639
-0.00903036 0.00777866 -0.000143464 -0.0116805 0.00820875 -0.000146578
-0.00901489 0.00770664 -0.000146804 -0.0115073 0.00811969 -0.000148936
-0.00899979 0.00762728 -0.000150398 -0.0111875 0.00806363 -0.000154284
-0.00898534 0.0075363 -0.000153363 -0.0108684 0.00795281 -0.000155069
-0.00897195 0.00744267 -0.000155886 -0.0105684 0.00786892 -0.000157839
-0.00895986 0.00735436 -0.000158097 -0.0103261 0.00779281 -0.000161596
-0.00888096 0.00727739 -0.000160447 -0.010103 0.00769619 -0.000163612
-0.00865173 0.00720858 -0.000162988 -0.00987019 0.00760891 -0.000165758
-0.008435 0.00713901 -0.000165683 -0.00968095 0.00752323 -0.000168015
-0.00824459 0.00706339 -0.00016781 -0.00952165 0.00743849 -0.000170205
-0.00807221 0.00695638 -0.000170211 -0.00935771 0.00735289 -0.000172408
-0.00790394 0.00682959 -0.000171442 -0.00920211 0.00725432 -0.000173952
-0.00786563 0.0066685 -0.000172839 -0.00906535 0.00711217 -0.000176922
-0.00786126 0.00651103 -0.000174717 -0.00890841 0.00698084 -0.000176589
-0.00786149 0.00636719 -0.000176377 -0.00878522 0.00685964 -0.000179449
-0.00786205 0.00624057 -0.000177846 -0.00871463 0.00673398 -0.000180007
-0.00786526 0.00611588 -0.000179084 -0.00869381 0.00660203 -0.000181385
-0.00786996 0.00599202 -0.000180122 -0.0087012 0.00647233 -0.000182637
-0.00787599 0.00588648 -0.000180926 -0.00870672 0.00636142 -0.000183845
-0.00788855 0.00579659 -0.000181718 -0.00871588 0.00625603 -0.000184049
-0.00796324 0.00571541 -0.000182523 -0.00872539 0.00617222 -0.000185405
-0.00805298 0.00564479 -0.000183157 -0.0087368 0.00609693 -0.000185334
-0.00815322 0.00558658 -0.000183597 -0.00874952 0.00604114 -0.000186062
-0.00826356 0.00554281 -0.000183781 -0.00880133 0.00599485 -0.000186259
-0.00838453 0.00551066 -0.00018386 -0.00893124 0.00595534 -0.000186387
-0.0085153 0.00548908 -0.000183715 -0.0090628 0.0059328 -0.000186419
-0.00865438 0.0054782 -0.00018294 -0.00920576 0.00591739 -0.000185338
-0.00880047 0.00547624 -0.000181341 -0.0093555 0.0059149 -0.000183756
-0.00895404 0.0054772 -0.000178963 -0.00951193 0.00591564 -0.000181371
-0.00911412 0.00547902 -0.000175817 -0.00967445 0.00591736 -0.000178329
-0.00927957 0.0054816 -0.000172007 -0.009842 0.00591983 -0.000174534
-0.00944961 0.00548477 -0.000167544 -0.0100144 0.00592293 -0.000170013
-0.00962419 0.00548836 -0.000162386 -0.0101912 0.00592647 -0.000164796
-0.00980344 0.00549223 -0.000156507 -0.0103723 0.00593029 -0.000158911
-0.00998731 0.00549622 -0.00014994 -0.0105581 0.00593423 -0.000152379
-0.0101755 0.00550018 -0.000142749 -0.0107483 0.00593811 -0.000145204
-0.010367 0.0055039 -0.000134984 -0.0109419 0.00594174 -0.000137409
-0.0105602 0.00550721 -0.000126661 -0.0111372 0.00594494 -0.000129033
-0.0107526 0.00550993 -0.000117798 -0.0113318 0.00594749 -0.000120128
-0.0109414 0.00551188 -0.000108442 -0.0115229 0.00594922 -0.000110748
-0.0111444 0.00551192 -9.85971e-05 -0.0117106 0.00594966 -0.000100915
-0.0113398 0.00551043 -8.8373e-05 -0.0118883 0.00594907 -9.07081e-05
-0.0115244 0.005508 -7.7926e-05 -0.0120547 0.00594716 -8.02032e-05
-0.0116955 0.00550443 -6.72876e-05 -0.0122095 0.00594402 -6.95416e-05
-0.0118576 0.00549927 -5.65316e-05 -0.0123655 0.00593818 -5.86097e-05
-0.0120027 0.00549257 -4.57241e-05 -0.0125086 0.00593166 -4.79029e-05
-0.0121317 0.00548494 -3.51829e-05 -0.0126343 0.00592331 -3.71154e-05
-0.0122425 0.00547621 -2.48508e-05 -0.0127425 0.0059115 -2.68106e-05
-0.0123369 0.00540063 -1.50965e-05 -0.0128356 0.00582684 -1.70182e-05
-0.012413 0.00531318 -6.10984e-06 -0.0129084 0.00573241 -7.74271e-06
-0.0124699 0.00522842 -6.01796e-06 -0.0129632 0.00563924 -7.58863e-06
-0.0125069 0.0051371 -6.37297e-06 -0.0130002 0.00555039 -9.93673e-06
-0.0125269 0.00504702 -7.55566e-06 -0.0130179 0.0054466 -8.60893e-06
-0.0125307 0.00495259 -8.28254e-06 -0.0130202 0.00534648 -9.37271e-06
-0.0125292 0.00485673 -8.24949e-06 -0.0130185 0.00524599 -9.81158e-06
-0.0125261 0.00476241 -7.91918e-06 -0.0130152 0.00514558 -1.00867e-05
-0.0125217 0.0046712 -7.90552e-06 -0.0130106 0.00504971 -1.05629e-05
-0.0125165 0.00458603 -8.32793e-06 -0.0130051 0.00495814 -1.06336e-05
-0.0125108 0.00450816 -8.82621e-06 -0.012999 0.00487433 -1.06681e-05
-0.0125049 0.00443891 -9.0429e-06 -0.0129929 0.00480058 -1.07671e-05
-0.0124992 0.00438107 -1.00353e-05 -0.0129869 0.00473915 -1.19198e-05
-0.0124939 0.00433523 -1.10948e-05 -0.0129814 0.00469156 -1.32425e-05
-0.0124893 0.0043041 -1.31024e-05 -0.0129767 0.00465756 -1.50824e-05
-0.0124857 0.00428731 -1.57884e-05 -0.0129729 0.00464016 -1.76329e-05
-0.0124831 0.00428485 -1.90728e-05 -0.0129703 0.00463758 -2.07782e-05
-0.0124816 0.00428654 -2.28371e-05 -0.0129688 0.00463943 -2.46375e-05
-0.0124812 0.00428997 -2.71517e-05 -0.0129685 0.00464308 -2.90897e-05
-0.0124818 0.00429501 -3.20816e-05 -0.0129693 0.00464842 -3.40987e-05
-0.0124831 0.00430152 -3.76049e-05 -0.0129708 0.00465526 -3.95817e-05
-0.012485 0.00430927 -4.35958e-05 -0.012973 0.00466341 -4.55155e-05
-0.0124873 0.00431801 -4.99205e-05 -0.0129756 0.00467261 -5.18606e-05
-0.0124898 0.00432749 -5.65131e-05 -0.0129784 0.00468259 -5.85473e-05
-0.0124922 0.00433742 -6.33562e-05 -0.0129812 0.00469305 -6.54836e-05
-0.0124945 0.00434754 -7.04143e-05 -0.0129839 0.00470369 -7.25778e-05
-0.0124965 0.00435754 -7.75984e-05 -0.0129862 0.0047142 -7.97564e-05
-0.0124981 0.00436715 -8.4793e-05 -0.0129881 0.00472431 -8.69572e-05
-0.0124992 0.0043761 -9.19038e-05 -0.0129895 0.00473374 -9.41117e-05
-0.0124997 0.00438414 -9.88741e-05 -0.0129903 0.00474222 -0.000101141
-0.0124995 0.00439105 -0.000105661 -0.0129903 0.00474952 -0.000107966
-0.0124984 0.00439664 -0.000112208 -0.0129894 0.00475543 -0.000114518
-0.0124964 0.00440075 -0.000118443 -0.0129874 0.00475979 -0.000120743
-0.0124931 0.00440326 -0.000124297 -0.0129842 0.00476248 -0.000126597
-0.0124887 0.0044041 -0.000129725 -0.0129797 0.00476343 -0.000132034
-0.012483 0.00440327 -0.000134703 -0.0129739 0.00476263 -0.000137016
-0.012476 0.0044008 -0.00013921 -0.0129667 0.00476011 -0.000141509
-0.0124677 0.00439676 -0.000143225 -0.012958 0.00475594 -0.000145494
-0.0124579 0.00439127 -0.000146729 -0.0129479 0.00475025 -0.000148964
-0.0124467 0.0043852 -0.000149673 -0.0129362 0.00474371 -0.000151802
