-4.32329e-05 3.91727e-05 -5.19714e-05 4.64831e-05 -3.63348e-06 2.85891e-06
-4.35766e-05 3.88495e-05 -5.19333e-05 4.65235e-05 -3.63847e-06 2.85409e-06
-4.43636e-05 3.8111e-05 -5.18488e-05 4.66042e-05 -3.64677e-06 2.84556e-06
-4.59888e-05 3.65885e-05 -5.16904e-05 4.67529e-05 -3.65665e-06 2.83294e-06
-4.78346e-05 3.48578e-05 -5.15411e-05 4.68913e-05 -3.6598e-06 2.82731e-06
-5.02097e-05 3.2631e-05 -5.13939e-05 4.70311e-05 -3.65303e-06 2.83021e-06
-5.31548e-05 2.98702e-05 -5.12711e-05 4.71498e-05 -3.62934e-06 2.84745e-06
-5.67134e-05 2.65349e-05 -5.11992e-05 4.72209e-05 -3.58125e-06 2.88512e-06
-6.09342e-05 2.25796e-05 -5.12101e-05 4.72154e-05 -3.50197e-06 2.94992e-06
-6.58692e-05 1.79564e-05 -5.13402e-05 4.71013e-05 -3.38522e-06 3.04814e-06
-7.15657e-05 1.26214e-05 -5.16285e-05 4.68428e-05 -3.22477e-06 3.18548e-06
-7.80502e-05 6.55075e-06 -5.21183e-05 4.63992e-05 -3.01489e-06 3.36683e-06
-8.53086e-05 -3.51421e-07 -5.28585e-05 4.57272e-05 -2.75149e-06 3.59584e-06
-9.3258e-05 -8.65068e-06 -5.3898e-05 4.47741e-05 -2.43448e-06 3.87369e-06
-0.000101788 -1.75144e-05 -5.53063e-05 4.3494e-05 -2.06173e-06 4.20188e-06
-0.00011071 -2.67492e-05 -5.71479e-05 4.18122e-05 -1.63769e-06 4.57725e-06
-0.000119778 -3.61301e-05 -5.94827e-05 3.96714e-05 -1.17118e-06 4.99554e-06
-0.000128717 -4.53808e-05 -6.23603e-05 3.70289e-05 -6.77313e-07 5.44588e-06
-0.00013725 -5.42066e-05 -6.58158e-05 3.38553e-05 -1.78657e-07 5.90714e-06
-0.000145107 -6.23208e-05 -6.98625e-05 3.01383e-05 2.42948e-07 6.35224e-06
-0.000152016 -6.9442e-05 -7.44913e-05 2.58857e-05 5.88858e-07 6.7466e-06
-0.000157677 -7.52617e-05 -7.96703e-05 2.11254e-05 8.38125e-07 7.0511e-06
-0.000161744 -7.94195e-05 -8.53482e-05 1.59037e-05 9.46213e-07 7.21956e-06
-0.0001638 -8.14834e-05 -9.14551e-05 1.02849e-05 8.62857e-07 7.19993e-06
-0.000163363 -8.09546e-05 -9.79002e-05 4.35283e-06 5.33155e-07 6.93604e-06
-0.000159926 -7.73032e-05 -0.000104556 -2.08677e-06 -1.26228e-07 6.38045e-06
-0.000153086 -7.01246e-05 -0.000111261 -8.96053e-06 -1.295e-06 5.45782e-06
-0.000142705 -5.92755e-05 -0.000117807 -1.56429e-05 -2.96529e-06 4.10434e-06
-0.00012904 -4.50254e-05 -0.000123905 -2.18557e-05 -5.21818e-06 2.24101e-06
-0.000112701 -2.8003e-05 -0.000129212 -2.72499e-05 -8.12222e-06 -2.57082e-07
-9.44587e-05 -9.00875e-06 -0.000133366 -3.14687e-05 -1.17228e-05 -3.86321e-06
-7.50276e-05 9.68858e-06 -0.00013603 -3.41315e-05 -1.6062e-05 -8.24139e-06
-5.5102e-05 2.84804e-05 -0.000136933 -3.50205e-05 -2.11421e-05 -1.33791e-05
-3.52499e-05 4.70544e-05 -0.000135879 -3.39155e-05 -2.69297e-05 -1.92451e-05
-1.58698e-05 6.51589e-05 -0.000132756 -3.06699e-05 -3.335e-05 -2.57705e-05
2.5316e-06 8.26503e-05 -0.000127526 -2.5265e-05 -4.02869e-05 -3.28558e-05
1.87056e-05 9.94687e-05 -0.000120218 -1.77535e-05 -4.75976e-05 -4.0352e-05
3.42873e-05 0.00011557 -0.000111006 -8.3013e-06 -5.50828e-05 -4.80611e-05
4.9276e-05 0.000131004 -0.000100072 2.57968e-06 -6.25406e-05 -5.57488e-05
6.37074e-05 0.000145831 -8.76514e-05 1.39932e-05 -6.97277e-05 -6.31949e-05
7.75886e-05 0.000160094 -7.40621e-05 2.65214e-05 -7.64062e-05 -7.01204e-05
9.09065e-05 0.000173752 -5.96113e-05 3.98458e-05 -8.23267e-05 -7.62951e-05
0.000103526 0.000186666 -4.46133e-05 5.36749e-05 -8.72473e-05 -8.14661e-05
0.000115166 0.000198563 -2.93702e-05 6.77209e-05 -9.09345e-05 -8.53937e-05
0.000125485 0.000209099 -1.41708e-05 8.17092e-05 -9.31725e-05 -8.78521e-05
0.000134236 0.000218016 4.49279e-07 9.53725e-05 -9.37701e-05 -8.86399e-05
0.000141425 0.000225312 1.32338e-05 0.000108453 -9.25273e-05 -8.75688e-05
0.000147325 0.000231291 2.51868e-05 0.000120619 -8.93666e-05 -8.45265e-05
0.000152541 0.000236574 3.59878e-05 0.000131572 -8.41772e-05 -7.94078e-05
0.000157951 0.00024208 4.53726e-05 0.000141033 -7.69071e-05 -7.21634e-05
0.000166713 0.000251075 5.47595e-05 0.000150425 -6.49211e-05 -6.013e-05
0.000180037 0.000264845 6.12824e-05 0.000156866 -4.98694e-05 -4.49346e-05
0.000200272 0.000285831 6.49483e-05 0.000160353 -3.20601e-05 -2.68892e-05
0.00022913 0.000315816 6.61245e-05 0.000161257 -1.19695e-05 -6.48857e-06
0.000267384 0.000355601 6.55892e-05 0.000160366 7.9089e-06 1.31928e-05
0.0003147 0.000404831 6.44239e-05 0.000158869 2.72555e-05 3.26648e-05
0.000369548 0.000461905 6.40876e-05 0.0001582 4.66107e-05 5.24908e-05
0.000429344 0.000524133 6.62092e-05 0.000160024 6.52945e-05 7.14264e-05
0.000491093 0.000588374 7.23988e-05 0.00016604 8.26162e-05 8.89831e-05
0.000552242 0.00065196 8.40247e-05 0.000177606 9.80116e-05 0.000104515
0.000611199 0.000713196 0.00010205 0.000195746 0.000111092 0.000117609
0.000667297 0.000771375 0.00012696 0.000220927 0.000121675 0.000128105
0.000720508 0.000826448 0.00015876 0.000253185 0.000129787 0.000135972
0.000771178 0.000878776 0.000197029 0.000292075 0.000135641 0.000141487
0.000819712 0.000928782 0.000240976 0.000336791 0.000139644 0.00014504
0.000866213 0.000976592 0.000289536 0.000386238 0.000142349 0.000147231
0.000910488 0.00102203 0.00034143 0.000439107 0.000144434 0.000148738
0.000952447 0.00106502 0.000395192 0.000493882 0.000146644 0.000150351
0.00099245 0.00110597 0.000449201 0.000548897 0.000149763 0.00015288
0.00103128 0.00114571 0.000501777 0.00060243 0.000154555 0.000157128
0.00106978 0.00118514 0.000551329 0.000652853 0.000161711 0.00016381
0.00110834 0.0012247 0.000596514 0.000698789 0.00017179 0.000173512
0.00114661 0.00126404 0.00063634 0.000739222 0.000185179 0.000186639
0.00118383 0.0013024 0.000670169 0.000773492 0.000202072 0.000203396
0.00121928 0.00133903 0.00069768 0.000801268 0.000222464 0.000223779
0.0012524 0.00137335 0.000718849 0.000822532 0.000246147 0.00024758
0.00128284 0.00140499 0.000733936 0.000837556 0.000272723 0.000274388
0.00131046 0.00143379 0.000743459 0.000846872 0.000301619 0.000303616
0.00133535 0.00145984 0.000748147 0.000851235 0.000332114 0.000334525
0.00135777 0.00148339 0.000748902 0.000851577 0.000363374 0.000366257
0.00137806 0.00150475 0.000746757 0.000848964 0.000394487 0.000397875
0.00139656 0.00152428 0.000742818 0.000844537 0.00042451 0.000428405
0.00141377 0.00154248 0.000738191 0.000839433 0.000452508 0.000456889
0.00143045 0.00156011 0.000733905 0.000834712 0.000477603 0.000482422
0.00144756 0.00157815 0.000730862 0.000831303 0.000499013 0.000504202
0.00146606 0.00159759 0.000729829 0.000830002 0.000516082 0.000521553
0.00148638 0.00161886 0.000731462 0.000831489 0.000528301 0.000533949
0.00150799 0.00164142 0.000736324 0.000836346 0.000535326 0.000541037
0.00152947 0.00166376 0.000744843 0.000845012 0.000537005 0.000542654
0.00154888 0.00168388 0.000757218 0.000857685 0.000533391 0.00053885
0.00156158 0.00169697 0.000769822 0.000870634 0.000526867 0.000532085
0.00157244 0.00170804 0.000788574 0.000889937 0.000514566 0.000519378
0.0015765 0.00171198 0.000809882 0.000911908 0.000498277 0.000502588
0.00157296 0.00170792 0.000832578 0.000935342 0.00047883 0.00048257
0.00156125 0.00169531 0.000855219 0.000958763 0.000457184 0.000460313
0.00154078 0.00167357 0.000876201 0.000980519 0.000434373 0.000436886
0.00151106 0.00164219 0.000893834 0.000998871 0.000411451 0.000413381
0.00147159 0.00160072 0.000906431 0.00101208 0.000389436 0.000390849
0.00142192 0.00154869 0.000912398 0.00101852 0.000369251 0.000370246
0.00136165 0.00148574 0.00091031 0.00101672 0.000351675 0.000352382
0.00129054 0.00141162 0.00089897 0.00100544 0.0003373 0.000337871
0.00120846 0.00132624 0.000877476 0.000983765 0.000326494 0.000327096
0.00111553 0.00122973 0.000845242 0.000951095 0.000319378 0.00032019
0.00101248 0.00112288 0.000801994 0.000907144 0.00031582 0.000317022
0.000900947 0.00100738 0.000747742 0.000851923 0.000315435 0.000317203
0.000783332 0.000885735 0.000682813 0.000785779 0.00031759 0.000320088
0.000662067 0.000760464 0.000607946 0.000709487 0.00032141 0.000324784
0.000539299 0.000633793 0.000524321 0.000624259 0.000325815 0.000330179
0.000417014 0.000507766 0.000433489 0.00053169 0.00032956 0.000334994
0.000297097 0.000384318 0.000337299 0.000433683 0.000331295 0.000337839
0.000181276 0.000265207 0.000237816 0.000332367 0.00032963 0.000337279
7.09508e-05 0.000151851 0.000137259 0.000230023 0.000323205 0.000331907
-3.72088e-05 4.51675e-05 3.79783e-05 0.000129035 0.000310748 0.000320406
-0.000144929 -6.12279e-05 -6.55471e-05 3.21214e-05 0.000291332 0.000301685
-0.000246351 -0.000164743 -0.000165131 -6.65347e-05 0.000263874 0.000274853
-0.000342257 -0.000263429 -0.000256456 -0.000158857 0.000227949 0.000239409
-0.000433002 -0.000356439 -0.000338287 -0.000241864 0.00018337 0.000195076
-0.000517647 -0.000443488 -0.000410049 -0.000313976 0.000130258 0.000141802
-0.000595007 -0.000523058 -0.000471571 -0.00037571 6.9205e-05 8.05924e-05
-0.000664502 -0.000594628 -0.000523175 -0.000427217 1.19862e-06 1.20494e-05
-0.000726653 -0.000658706 -0.000565382 -0.000469177 -8.4794e-05 -7.43344e-05
-0.000783091 -0.00071702 -0.000599404 -0.000502454 -0.000176047 -0.000167274
-0.000836077 -0.000771786 -0.0006264 -0.000528727 -0.00027025 -0.0002619
-0.000887829 -0.000825361 -0.000647907 -0.000549367 -0.000365095 -0.000358227
-0.00094064 -0.000880078 -0.000665721 -0.000566216 -0.000458385 -0.000452698
-0.000996969 -0.000938426 -0.000681736 -0.000581295 -0.000547816 -0.000543197
-0.00105935 -0.00100303 -0.000697805 -0.000596435 -0.000631095 -0.000627607
-0.00113011 -0.00107624 -0.000715771 -0.00061365 -0.000706113 -0.0007035
-0.00121102 -0.00115988 -0.000737431 -0.000634722 -0.000771007 -0.000769188
-0.00130279 -0.00125464 -0.000764449 -0.000661367 -0.000824267 -0.00082296
-0.00140466 -0.00135971 -0.000798318 -0.00069517 -0.000864699 -0.000863615
-0.00151449 -0.00147285 -0.000840286 -0.000737392 -0.000891553 -0.000890418
-0.00162933 -0.00159103 -0.000891167 -0.000788862 -0.000904579 -0.000903074
-0.00174621 -0.00171113 -0.00095116 -0.000849779 -0.000904073 -0.000901882
-0.00186243 -0.00183041 -0.00101976 -0.000919628 -0.000890853 -0.000887667
-0.00197593 -0.00194672 -0.00109575 -0.000997158 -0.000866248 -0.000861797
-0.00208518 -0.00205852 -0.00117726 -0.00108042 -0.00083204 -0.000826114
-0.0021892 -0.00216483 -0.00126184 -0.00116692 -0.000790389 -0.000782834
-0.00228749 -0.00226517 -0.00134664 -0.0012537 -0.00074372 -0.000734453
-0.00237978 -0.00235931 -0.0014286 -0.00133762 -0.000694597 -0.000683612
-0.00246574 -0.00244697 -0.00150466 -0.00141554 -0.000645591 -0.000632966
-0.00254479 -0.00252759 -0.00157197 -0.00148451 -0.000599158 -0.000585043
-0.00261625 -0.00260052 -0.00162802 -0.00154197 -0.000557523 -0.00054213
-0.00267947 -0.0026651 -0.00167079 -0.00158583 -0.000522575 -0.00050617
-0.00271545 -0.00271614 -0.0016965 -0.00161331 -0.000496215 -0.000478961
-0.00272915 -0.00275801 -0.00170391 -0.00162446 -0.000479496 -0.000461243
-0.00274437 -0.00278954 -0.00169844 -0.00162053 -0.00047172 -0.00045325
-0.00275845 -0.00281129 -0.00168024 -0.0016022 -0.000473019 -0.000454782
-0.00276463 -0.00282488 -0.00164814 -0.00157024 -0.000483245 -0.000465353
-0.00273341 -0.00279458 -0.00160992 -0.00153228 -0.000500487 -0.000483112
-0.00267887 -0.00273566 -0.00156365 -0.00148452 -0.000524295 -0.000508146
-0.00261074 -0.00266856 -0.00150908 -0.00142973 -0.000553614 -0.000537908
-0.00253481 -0.0025923 -0.00144789 -0.00136782 -0.000586415 -0.000572103
-0.00245424 -0.00251143 -0.00138247 -0.00130188 -0.000621147 -0.000607861
-0.00237136 -0.00242856 -0.00131479 -0.00123326 -0.000655906 -0.000643734
-0.0022896 -0.00234703 -0.00124692 -0.00116464 -0.000688648 -0.000677693
-0.00221212 -0.00226966 -0.00118102 -0.00109811 -0.000717492 -0.000707595
-0.00214155 -0.00219943 -0.00111916 -0.00103572 -0.0007408 -0.000731872
-0.00208058 -0.00213894 -0.00106332 -0.000979326 -0.000757021 -0.000748815
-0.0020316 -0.00209053 -0.00101504 -0.000930655 -0.000764831 -0.000757247
-0.00199638 -0.00205613 -0.000975587 -0.000891049 -0.000763353 -0.000756184
-0.00197626 -0.00203707 -0.000946052 -0.000861513 -0.000752103 -0.000745057
-0.00197196 -0.00203406 -0.000927097 -0.000842687 -0.000730931 -0.000723753
-0.00198353 -0.00204713 -0.000918937 -0.000834872 -0.000700082 -0.000692553
-0.00201039 -0.00207566 -0.000921482 -0.000837955 -0.000660254 -0.000652155
-0.00204924 -0.00211538 -0.000934456 -0.000851821 -0.000612546 -0.000603601
-0.00208796 -0.00215527 -0.000958437 -0.000876893 -0.000558195 -0.000548167
-0.0021241 -0.00219196 -0.000991907 -0.000911686 -0.000499091 -0.0004878
-0.00215582 -0.00222406 -0.00103287 -0.000954118 -0.000437349 -0.000424638
-0.00218195 -0.0022503 -0.00107873 -0.00100161 -0.000375325 -0.000361144
-0.00219835 -0.0022666 -0.00111708 -0.00104129 -0.000327174 -0.000311793
-0.00221046 -0.00227845 -0.00115526 -0.00108075 -0.000281697 -0.000265141
-0.00221802 -0.00228564 -0.00119174 -0.00111842 -0.000240097 -0.000222448
-0.00222078 -0.00228791 -0.00122505 -0.00115281 -0.000203496 -0.000184878
-0.00221849 -0.00228503 -0.00125384 -0.00118255 -0.000172907 -0.000153464
-0.00221089 -0.00227676 -0.00127696 -0.00120643 -0.000149189 -0.000129084
-0.00219767 -0.00226279 -0.00129344 -0.00122346 -0.000133011 -0.000112429
-0.00217834 -0.00224265 -0.00130258 -0.00123292 -0.000124828 -0.00010398
-0.00215221 -0.0022156 -0.00130393 -0.00123437 -0.000124878 -0.000103986
-0.00211837 -0.00218072 -0.00129736 -0.00122768 -0.000133179 -0.000112464
-0.00207578 -0.00213695 -0.00128301 -0.00121297 -0.00014953 -0.000129197
-0.00202353 -0.00208335 -0.00126121 -0.0011906 -0.000173509 -0.000153754
-0.00196111 -0.00201936 -0.00123249 -0.0011611 -0.000204499 -0.000185508
-0.00188856 -0.00194504 -0.00119746 -0.0011251 -0.000241711 -0.000223651
-0.00180657 -0.00186106 -0.00115681 -0.00108334 -0.000284209 -0.000267224
-0.00171639 -0.0017687 -0.00111132 -0.00103659 -0.000330928 -0.000315135
-0.00161952 -0.00166948 -0.0010618 -0.000985717 -0.000380696 -0.000366184
-0.00151742 -0.00156489 -0.00100919 -0.000931675 -0.000432255 -0.000419087
-0.00141142 -0.00145627 -0.00095447 -0.000875487 -0.000484294 -0.000472502
-0.00130269 -0.00134484 -0.000898668 -0.000818208 -0.000535483 -0.000525067
-0.00119237 -0.00123175 -0.000842796 -0.000760884 -0.000584506 -0.000575434
-0.00108163 -0.00111818 -0.000787816 -0.000704504 -0.000630093 -0.000622302
-0.000971574 -0.00100526 -0.000734603 -0.000649981 -0.000671048 -0.000664449
-0.000863194 -0.000894001 -0.000683942 -0.000598125 -0.000706282 -0.000700758
-0.000757323 -0.000785254 -0.000636494 -0.000549623 -0.000734834 -0.000730249
-0.000654655 -0.000679725 -0.00059278 -0.000505012 -0.000755897 -0.000752095
-0.000555778 -0.000578016 -0.000553153 -0.000464659 -0.000768834 -0.000765644
-0.000461196 -0.000480645 -0.000517783 -0.000428744 -0.00077319 -0.000770436
-0.000371314 -0.000388031 -0.000486661 -0.000397261 -0.000768704 -0.000766205
-0.000286439 -0.000300495 -0.000459594 -0.000370013 -0.000755308 -0.000752884
-0.000206777 -0.000218256 -0.000436218 -0.000346627 -0.000733125 -0.000730606
-0.000132418 -0.000141418 -0.000416013 -0.000326568 -0.000702462 -0.000699686
-6.33617e-05 -6.99946e-05 -0.000398319 -0.000309158 -0.000663796 -0.000660618
-8.84141e-07 -3.995e-06 -0.000382361 -0.000293603 -0.000617754 -0.000614049
3.0998e-05 2.842e-05 -0.000366376 -0.000275226 -0.000565019 -0.000561359
5.2169e-05 5.41732e-05 -0.000348527 -0.000258323 -0.000506872 -0.0005025
7.10984e-05 7.34423e-05 -0.000329768 -0.00024003 -0.000443805 -0.000438709
8.73197e-05 9.02903e-05 -0.000310541 -0.000221029 -0.000376661 -0.000370652
0.000101113 0.000106934 -0.000290429 -0.000200402 -0.000306354 -0.000299786
0.000114413 0.000122582 -0.000268252 -0.000178197 -0.000233957 -0.000226804
0.000128479 0.000137992 -0.000243463 -0.000153704 -0.000160461 -0.000152682
0.000143952 0.000155166 -0.000216019 -0.000126363 -8.68729e-05 -7.84035e-05
0.000161875 0.000175629 -0.000185694 -9.58136e-05 -1.41524e-05 -5.02719e-06
0.000183489 0.000200178 -0.000151855 -6.17301e-05 4.66447e-05 5.67859e-05
0.000209653 0.000229645 -0.000114468 -2.39073e-05 0.000105146 0.000115561
0.000240811 0.000264897 -7.32074e-05 1.59366e-05 0.000160728 0.000171055
0.000277388 0.00030637 -2.79728e-05 5.73143e-05 0.000212851 0.000223141
0.000319664 0.000354236 1.89443e-05 0.000102713 0.000261029 0.00027145
0.000367643 0.000408524 6.70365e-05 0.000151956 0.000304896 0.000315367
0.00042116 0.000469165 0.000118563 0.000204852 0.000344075 0.000354433
0.000480073 0.000535953 0.000173446 0.000261213 0.0003784 0.000388468
0.000548294 0.000609651 0.000232321 0.000321238 0.000407679 0.000417368
0.000625393 0.000688617 0.000294423 0.000384149 0.000431959 0.000441287
0.000706589 0.00077297 0.000358662 0.000449547 0.000451477 0.000460367
0.000791237 0.000862007 0.000424343 0.000516619 0.000466553 0.000474867
0.000879472 0.000954436 0.000491267 0.000584898 0.000477447 0.000485142
0.000970394 0.00104918 0.000558853 0.000653753 0.000484552 0.000491601
0.0010623 0.00114526 0.000626198 0.000722509 0.000488373 0.000494701
0.00115393 0.00124135 0.000692626 0.000790453 0.000489433 0.000494978
0.00124429 0.00133594 0.000757593 0.000856873 0.000488266 0.000493021
0.00133202 0.0014277 0.000820397 0.000921058 0.00048544 0.000489426
0.00141569 0.00151533 0.000880279 0.0009823 0.000481539 0.000484781
0.00149414 0.00159756 0.000936579 0.00103991 0.000477133 0.000479667
0.00156638 0.00167323 0.000988686 0.00109322 0.000472776 0.000474642
0.00163145 0.00174138 0.00103598 0.0011416 0.00046898 0.000470236
0.00168856 0.00180124 0.00107787 0.00118446 0.000466202 0.000466922
0.0017372 0.00185226 0.00111387 0.00122128 0.00046483 0.000465111
0.0017771 0.0018941 0.00114354 0.00125161 0.000465184 0.00046513
0.00180817 0.00192671 0.00116651 0.00127508 0.000467505 0.000467219
0.00183053 0.00195025 0.00118253 0.00129144 0.00047194 0.000471525
0.00184451 0.00196503 0.00119146 0.00130054 0.000478531 0.000478096
0.00185052 0.00197151 0.0011933 0.00130237 0.000487217 0.000486876
0.0018491 0.00197027 0.00118813 0.00129706 0.000497842 0.000497706
0.00184094 0.00196209 0.0011762 0.00128483 0.000510155 0.000510323
0.00182696 0.00194791 0.00115786 0.00126607 0.000523813 0.000524374
0.00180819 0.00192881 0.00113361 0.00124127 0.000538388 0.000539418
0.00178571 0.00190591 0.00110403 0.00121106 0.000553378 0.000554945
0.00176061 0.00188036 0.00106986 0.00117618 0.000568227 0.000570379
0.00173394 0.00185323 0.00103189 0.00113745 0.000582334 0.000585104
0.00170667 0.00182551 0.000991034 0.0010958 0.000595074 0.000598475
0.00167967 0.00179812 0.000948242 0.0010522 0.000605816 0.00060984
0.00165382 0.00177195 0.000904494 0.00100767 0.000613946 0.000618567
0.00162995 0.00174784 0.000860766 0.000963191 0.000618884 0.000624056
0.00160889 0.00172665 0.000818004 0.000919733 0.000620105 0.000625767
0.00159138 0.00170912 0.0007771 0.000878209 0.000617159 0.000623231
0.00157807 0.00169594 0.000738877 0.00083946 0.000609683 0.000616073
0.00156948 0.00168762 0.000704068 0.000804233 0.000597419 0.00060402
0.00156601 0.00168458 0.000673298 0.000773163 0.00058022 0.000586919
0.00156797 0.00168712 0.000647068 0.000746759 0.000558064 0.00056474
0.00157558 0.00169548 0.000625735 0.000725384 0.000531055 0.000537587
0.00158904 0.00170986 0.000609514 0.000709252 0.000499428 0.000505695
0.001608 0.0017261 0.000598541 0.000699092 0.000463542 0.000469332
0.00163244 0.00174841 0.000592634 0.000694071 0.000423909 0.000429041
0.00166265 0.00177719 0.000591592 0.000694014 0.000381101 0.000385572
0.00169837 0.00181173 0.000595227 0.000698487 0.000335781 0.000339541
0.00173841 0.00185162 0.000603014 0.000707308 0.00028875 0.000291725
0.00178165 0.00189584 0.000614574 0.00071987 0.000240859 0.000242946
0.00182697 0.00194297 0.000629531 0.000735652 0.00019296 0.000194166
0.00187241 0.00198989 0.000647397 0.000754406 0.000145938 0.000146271
0.00191563 0.00203477 0.000667515 0.000775496 0.000100716 0.000100198
0.00195535 0.00207621 0.000689335 0.000798371 5.82175e-05 5.68327e-05
0.00199022 0.0021124 0.000712292 0.000822291 1.9328e-05 1.71015e-05
0.00201859 0.00214172 0.000735695 0.00084663 -1.7818e-05 -2.09924e-05
0.00203881 0.00216258 0.000758827 0.000870628 -5.19668e-05 -5.62289e-05
0.0020495 0.00217346 0.000780965 0.000893585 -7.92804e-05 -8.41513e-05
0.00204953 0.00217316 0.000801447 0.00091473 -9.8938e-05 -0.00010423
0.00203814 0.00216098 0.000819533 0.000933317 -0.000110344 -0.000115978
0.00201515 0.0021368 0.000834475 0.000948625 -0.000113078 -0.000118978
0.00198081 0.00210084 0.000845593 0.000959971 -0.000106896 -0.000112925
0.00193561 0.00205361 0.000852299 0.000966739 -9.17103e-05 -9.7679e-05
0.00188018 0.0019958 0.000854108 0.00096842 -6.76018e-05 -7.33112e-05
0.00181536 0.0019283 0.000850661 0.000964645 -3.48492e-05 -4.01052e-05
0.00174213 0.00185214 0.000841739 0.00095521 4.74715e-06 5.17834e-07
0.00166169 0.00176856 0.000827366 0.000940064 4.59951e-05 4.21897e-05
0.00157545 0.00167902 0.000807498 0.000919348 9.29859e-05 8.97608e-05
0.00148498 0.00158518 0.000782413 0.000893239 0.000144719 0.000142497
0.00139192 0.00148872 0.00075252 0.000862139 0.000200205 0.000199251
0.00129775 0.00139119 0.00071838 0.000826652 0.000258325 0.000258661
0.00120373 0.00129388 0.000680724 0.000787578 0.000317837 0.000319418
0.00111095 0.00119793 0.000640426 0.000745833 0.000377446 0.00038027
0.00102038 0.00110429 0.000598465 0.000702411 0.000435845 0.000439945
0.000932803 0.0010138 0.00055587 0.000658367 0.000491739 0.000497124
0.000848834 0.000927066 0.000513689 0.000614787 0.000543862 0.000550479
0.000768958 0.000844577 0.000472945 0.000572737 0.000591006 0.000598756
0.000693595 0.00076675 0.000434597 0.000533207 0.000632061 0.00064082
0.000623146 0.000693982 0.000399488 0.000497063 0.000666052 0.000675681
0.000557971 0.000626635 0.000368308 0.000465021 0.000692163 0.000702507
0.000498318 0.000564953 0.000341582 0.000437626 0.000709754 0.000720637
0.000444252 0.000508995 0.000319661 0.000415244 0.00071837 0.000729603
0.000395655 0.000458636 0.000302706 0.000398037 0.000717752 0.000729143
0.000352263 0.0004136 0.000290675 0.000385963 0.000707851 0.000719206
0.00031369 0.000373485 0.000283316 0.000378762 0.000688822 0.000699957
0.000279435 0.000337776 0.000280175 0.000375969 0.000661023 0.000671759
0.000248886 0.000305847 0.000280607 0.000376924 0.000625001 0.000635175
0.00022132 0.000276956 0.000283806 0.000380792 0.000581472 0.00059094
0.000195876 0.000250224 0.000288825 0.0003866 0.000531303 0.000539945
0.000171548 0.000224623 0.000294611 0.000393263 0.000475483 0.00048321
0.000147189 0.000198979 0.000300038 0.000399623 0.000415105 0.000421854
0.000121759 0.000175674 0.000303917 0.00040419 0.000351326 0.000357091
0.000120503 0.00017496 0.000301811 0.000402194 0.000285746 0.000290722
0.000114673 0.000171253 0.000296737 0.000397261 0.000218792 0.000222815
0.000104556 0.000160449 0.000286986 0.000387831 0.00015189 0.000155371
8.90434e-05 0.000143795 0.000272393 0.000373423 8.61001e-05 8.87962e-05
6.7208e-05 0.000121262 0.000252206 0.00035324 2.22882e-05 2.43374e-05
3.82002e-05 9.17293e-05 0.000225647 0.000326654 -4.6089e-05 -4.55335e-05
1.90648e-06 5.43992e-05 0.000192165 0.000293104 -0.000113064 -0.000112446
-4.33933e-05 1.00498e-05 0.000152154 0.000252566 -0.000175098 -0.000174291
-9.40935e-05 -4.67394e-05 0.000105683 0.000204864 -0.000231515 -0.00023059
-0.00015191 -0.000111932 5.21914e-05 0.000149966 -0.000281823 -0.000280779
-0.000217024 -0.000184623 -9.5524e-06 8.80314e-05 -0.00032577 -0.00032453
-0.000288282 -0.000264152 -8.40964e-05 1.96528e-05 -0.000363166 -0.000361581
-0.000364932 -0.000349901 -0.000164637 -6.11326e-05 -0.000394322 -0.000391935
-0.000446595 -0.000441265 -0.000250774 -0.00014921 -0.000419407 -0.000416113
-0.000532415 -0.000537132 -0.000341651 -0.000242404 -0.000438838 -0.000434631
-0.000626191 -0.000637492 -0.000437189 -0.000339967 -0.000453138 -0.000447899
-0.000726279 -0.000739243 -0.000536085 -0.000440172 -0.000463016 -0.000456746
-0.000825844 -0.000840898 -0.000636021 -0.000541766 -0.000469415 -0.000462007
-0.00092192 -0.000940482 -0.000735334 -0.000643057 -0.000473285 -0.000464607
-0.00101488 -0.0010364 -0.000832985 -0.000742598 -0.000475472 -0.000465586
-0.00110437 -0.00112791 -0.000927535 -0.000838713 -0.000476922 -0.000465926
-0.00118929 -0.00121504 -0.00101709 -0.000929793 -0.000478626 -0.000466567
-0.00126959 -0.00129778 -0.00110008 -0.00101428 -0.000481449 -0.000468382
-0.0013458 -0.00137612 -0.00117529 -0.00109078 -0.000486128 -0.000472186
-0.00141799 -0.00145021 -0.00124155 -0.00115808 -0.000493312 -0.000478661
-0.00148514 -0.00152016 -0.00129786 -0.00121521 -0.000503518 -0.00048833
-0.0015391 -0.00157744 -0.00134484 -0.00126256 -0.000516845 -0.000501468
-0.00158579 -0.00162622 -0.00138119 -0.0012994 -0.000533814 -0.000518064
-0.00162456 -0.00166684 -0.00140666 -0.00132529 -0.000554287 -0.000538489
-0.00165574 -0.001699 -0.00142143 -0.00134004 -0.000578075 -0.000562383
-0.00167934 -0.001723 -0.00142577 -0.00134438 -0.000604828 -0.000589533
-0.00169534 -0.00173941 -0.0014202 -0.00133871 -0.000634119 -0.00061929
-0.00170416 -0.00174865 -0.00140552 -0.00132374 -0.000665318 -0.000651046
-0.00170662 -0.00175125 -0.00138269 -0.00130042 -0.000697645 -0.000684026
-0.0017036 -0.00174817 -0.00135271 -0.00126984 -0.00073022 -0.000717384
-0.00169615 -0.00174063 -0.00131672 -0.00123322 -0.000762124 -0.000750157
-0.0016855 -0.00172986 -0.00127602 -0.00119184 -0.000792401 -0.000781333
-0.00167289 -0.00171711 -0.00123196 -0.00114706 -0.000820069 -0.000809886
-0.00165957 -0.00170365 -0.00118591 -0.00110025 -0.000844143 -0.000834814
-0.00164673 -0.00169074 -0.00113916 -0.00105281 -0.000863679 -0.000855161
-0.00163553 -0.00167956 -0.00109304 -0.00100606 -0.000877821 -0.000870043
-0.00162703 -0.00167117 -0.0010488 -0.00096125 -0.000885824 -0.000878677
-0.00162217 -0.00166654 -0.00100754 -0.000919531 -0.000887067 -0.000880413
-0.00162175 -0.00166651 -0.000970273 -0.00088191 -0.000881066 -0.000874756
-0.00162642 -0.00167173 -0.000937817 -0.000849244 -0.000867503 -0.00086138
-0.00163659 -0.00168261 -0.000910849 -0.000822217 -0.000846243 -0.000840143
-0.00165238 -0.00169926 -0.000889868 -0.000801327 -0.000817343 -0.00081109
-0.00167369 -0.00172159 -0.000875179 -0.000786878 -0.000781051 -0.000774466
-0.00170024 -0.00174931 -0.000866879 -0.000778964 -0.000737802 -0.000730711
-0.0017317 -0.00178204 -0.000864854 -0.000777464 -0.000688214 -0.000680459
-0.00176671 -0.00181823 -0.000868783 -0.000782153 -0.000633089 -0.000624506
-0.00180268 -0.00185566 -0.000878523 -0.000792826 -0.000573319 -0.000563765
-0.00183957 -0.00189383 -0.000893301 -0.000808631 -0.000510033 -0.000499394
-0.00187695 -0.00193237 -0.000912213 -0.00082865 -0.000444438 -0.000432618
-0.00191429 -0.00197082 -0.000934193 -0.00085183 -0.000377821 -0.000364777
-0.00195106 -0.00200868 -0.00095812 -0.000877018 -0.000311528 -0.000297233
-0.00198678 -0.00204539 -0.000982859 -0.000903004 -0.000246915 -0.00023138
-0.00202093 -0.00208048 -0.00100725 -0.000928579 -0.000185316 -0.000168584
-0.002053 -0.00211342 -0.00103016 -0.000952588 -0.000127997 -0.000110151
-0.00208236 -0.00214357 -0.00105056 -0.000973987 -7.61306e-05 -5.72838e-05
-0.00210819 -0.0021701 -0.00106759 -0.000991878 -3.07634e-05 -1.10533e-05
-0.00212945 -0.00219194 -0.00108051 -0.00100553 4.71189e-06 2.236e-05
-0.00214505 -0.00220797 -0.00108886 -0.0010144 3.02776e-05 4.82645e-05
-0.00215405 -0.00221723 -0.0010923 -0.00101816 4.83698e-05 6.63889e-05
-0.00215574 -0.00221898 -0.00109065 -0.0010166 5.87622e-05 7.67935e-05
-0.00214957 -0.00221271 -0.00108387 -0.00100973 6.13523e-05 7.93937e-05
-0.0021353 -0.00219815 -0.0010721 -0.000997702 5.61925e-05 7.41221e-05
-0.00211291 -0.0021753 -0.00105565 -0.000980813 4.34876e-05 6.11013e-05
-0.00208274 -0.00214449 -0.00103494 -0.000959486 2.36088e-05 4.07143e-05
-0.00204549 -0.00210644 -0.0010105 -0.000934268 -2.90999e-06 1.35466e-05
-0.00200226 -0.00206227 -0.000982879 -0.000905735 -4.08341e-05 -2.25442e-05
-0.00195436 -0.00201332 -0.000952894 -0.000874711 -8.48708e-05 -6.77774e-05
-0.00190313 -0.00196096 -0.000921328 -0.000842002 -0.000133984 -0.000117871
-0.0018498 -0.00190643 -0.000889084 -0.000808594 -0.000186989 -0.000171881
-0.00179541 -0.00185081 -0.000857141 -0.000775485 -0.000242697 -0.000228674
-0.00174089 -0.00179503 -0.000826517 -0.000743694 -0.000299894 -0.000287022
-0.00168719 -0.00174006 -0.000798195 -0.000714224 -0.000357353 -0.000345644
-0.00163533 -0.00168695 -0.000773084 -0.000688019 -0.000413862 -0.000403277
-0.00158639 -0.00163679 -0.000751997 -0.000665935 -0.000468262 -0.000458727
-0.00154143 -0.00159067 -0.000735642 -0.000648707 -0.000519492 -0.000510899
-0.00150149 -0.00154964 -0.000724597 -0.000636932 -0.000566603 -0.000558812
-0.00146749 -0.00151464 -0.000719292 -0.000631057 -0.000608775 -0.000601628
-0.00144022 -0.0014865 -0.000720004 -0.000631374 -0.00064532 -0.000638658
-0.00142022 -0.00146575 -0.000726863 -0.000638027 -0.000675709 -0.00066937
-0.00140761 -0.00145254 -0.000739866 -0.000651015 -0.000699574 -0.000693398
-0.00140211 -0.00144657 -0.000758879 -0.000670204 -0.000716722 -0.000710542
-0.00140301 -0.00144712 -0.000783628 -0.000695315 -0.000727131 -0.000720774
-0.00140926 -0.00145309 -0.000813694 -0.000725921 -0.000730942 -0.000724243
-0.00141955 -0.00146317 -0.000848502 -0.000761436 -0.000728458 -0.000721265
-0.00143234 -0.00147576 -0.00088733 -0.000801121 -0.000720137 -0.000712315
-0.00144589 -0.00148909 -0.000929318 -0.000844093 -0.000706578 -0.000698009
-0.00145845 -0.00150135 -0.00097346 -0.000889318 -0.000688503 -0.000679092
-0.0014683 -0.0015108 -0.00101861 -0.000935621 -0.000666738 -0.000656415
-0.00147388 -0.00151584 -0.00106351 -0.000981708 -0.000642188 -0.000630908
-0.00147379 -0.00151504 -0.0011068 -0.00102619 -0.000615804 -0.000603558
-0.00146688 -0.00150724 -0.00114708 -0.00106762 -0.000588563 -0.000575373
-0.0014523 -0.00149157 -0.0011829 -0.00110452 -0.00056143 -0.000547349
-0.00142944 -0.00146743 -0.00121285 -0.00113544 -0.000535327 -0.00052044
-0.00139791 -0.00143444 -0.00123558 -0.00115899 -0.000511101 -0.000495522
-0.00135747 -0.00139236 -0.00124987 -0.00117393 -0.00048949 -0.000473361
-0.00130794 -0.00134102 -0.00125469 -0.0011792 -0.000471099 -0.000454585
-0.00124921 -0.0012803 -0.00124921 -0.00117393 -0.00045638 -0.000439662
-0.00118125 -0.00121022 -0.00123282 -0.00115752 -0.000445609 -0.000428882
-0.00110423 -0.00113092 -0.00120516 -0.00112959 -0.000438884 -0.000422347
-0.00101848 -0.00104276 -0.00116613 -0.00109004 -0.000436114 -0.000419966
-0.00092456 -0.000946294 -0.00111588 -0.00103902 -0.000437021 -0.000421459
-0.000823193 -0.00084228 -0.0010548 -0.000976935 -0.000441149 -0.000426356
-0.000715262 -0.000731695 -0.000983541 -0.000904436 -0.000447874 -0.000434018
-0.000603105 -0.00062263 -0.000902803 -0.000821093 -0.000456427 -0.00044392
-0.000493005 -0.00050961 -0.000813106 -0.000730266 -0.000466 -0.000454528
-0.000377425 -0.000391589 -0.000716855 -0.000631972 -0.000475315 -0.000465252
-0.000259124 -0.00027021 -0.000615244 -0.000528536 -0.000483502 -0.000474703
-0.000140201 -0.000147437 -0.000509999 -0.000421206 -0.000489281 -0.000481987
-2.20248e-05 -2.57962e-05 -0.000402367 -0.000311693 -0.000491621 -0.000485692
7.54428e-05 8.06244e-05 -0.000295297 -0.00020211 -0.00048923 -0.000484682
0.000164547 0.000182527 -0.000189639 -9.31128e-05 -0.000481213 -0.000478035
0.000250237 0.000278579 -8.58162e-05 1.22039e-05 -0.000466814 -0.000464815
0.000331389 0.000368266 1.36032e-05 0.000104848 -0.000445265 -0.000444475
0.000405336 0.00045084 0.000100004 0.000193435 -0.000415712 -0.000415876
0.000472201 0.000525014 0.00018114 0.000276555 -0.000378099 -0.000378988
0.000536359 0.000590901 0.000257473 0.000353952 -0.000332505 -0.000333602
0.000591608 0.000647014 0.000326866 0.000423886 -0.000278331 -0.000279557
0.000636935 0.00069395 0.000388258 0.000485932 -0.000215817 -0.00021712
0.000672947 0.000731625 0.000441404 0.000539687 -0.000145447 -0.000146579
0.000701052 0.000760328 0.000486539 0.000585053 -6.78941e-05 -6.85726e-05
0.000721495 0.000780938 0.000523572 0.000622132 1.15195e-05 9.71083e-06
0.000734707 0.000794554 0.000552635 0.000651072 8.7863e-05 8.64497e-05
0.000742196 0.000802267 0.000574122 0.00067233 0.000167754 0.000167705
0.000745537 0.000805473 0.000588752 0.000686482 0.000250054 0.000251485
0.000746052 0.000805837 0.000597211 0.000694355 0.000333518 0.000336093
0.000745299 0.000805081 0.000600353 0.000696926 0.000416776 0.000420245
0.000745095 0.000804896 0.000599254 0.000695258 0.000498378 0.000502788
0.000747085 0.00080696 0.000595057 0.000690482 0.000576889 0.000582406
0.000752638 0.00081281 0.000588937 0.000683805 0.000650932 0.000657618
0.000762993 0.000823727 0.000582134 0.0006765 0.000719186 0.000726944
0.000779168 0.000840751 0.000575882 0.000669842 0.0007804 0.000789053
0.000802133 0.000864912 0.000570894 0.000664328 0.000825316 0.00082755
0.000833457 0.000898429 0.000562035 0.000654762 0.000829188 0.000812184
0.000871954 0.000938999 0.000560564 0.000653231 0.000827949 0.000813425
0.000918223 0.000987355 0.000564789 0.000656594 0.000825361 0.000815199
0.000971775 0.00104392 0.000575152 0.000667428 0.000824648 0.000814418
0.00103279 0.00110773 0.000592799 0.000685849 0.000827016 0.000815241
0.00110083 0.00117896 0.000616787 0.000711074 0.000821929 0.000807219
0.00117556 0.00125732 0.000647012 0.000742347 0.00080604 0.000789169
0.00125684 0.00134236 0.000683106 0.00077938 0.000778979 0.000762702
0.00134421 0.00143379 0.000724265 0.000821829 0.000742854 0.000727593
0.0014371 0.001531 0.000769725 0.000868928 0.000699977 0.000683976
0.00153471 0.00163317 0.00081878 0.000919758 0.000651414 0.000632894
0.00163607 0.00173923 0.000870562 0.000973266 0.0005973 0.000576233
0.00174003 0.001848 0.000923931 0.00102837 0.000538222 0.000515825
0.00184529 0.00195815 0.000977656 0.00108395 0.000475907 0.000452983
0.00195041 0.00206817 0.00103058 0.0011388 0.000412621 0.000388781
0.00205384 0.00217646 0.00108164 0.00119175 0.000350181 0.000324538
0.00215395 0.00228131 0.00112978 0.00124167 0.000289663 0.000261917
0.00224911 0.00238101 0.00117398 0.00128754 0.000231927 0.000202602
0.00233773 0.00247389 0.00121334 0.00132845 0.000178164 0.000147956
0.00241239 0.00254665 0.00124689 0.00136219 0.000129986 9.92314e-05
0.00247506 0.00256568 0.00126903 0.00137825 8.96295e-05 5.96597e-05
0.00251728 0.00260192 0.00128806 0.00139676 5.57818e-05 2.48728e-05
0.00255011 0.00262394 0.0013017 0.00140633 3.02664e-05 6.20688e-07
0.00257077 0.00263764 0.00130988 0.0014143 1.2813e-05 -1.6788e-05
0.00258046 0.00264845 0.00131268 0.00141633 4.02969e-06 -2.6743e-05
0.00257854 0.00264869 0.00130815 0.00141214 2.82345e-06 -2.83284e-05
0.00256557 0.00263605 0.00129684 0.00140082 9.92869e-06 -1.96919e-05
0.00254079 0.00261156 0.00127888 0.00138291 2.54788e-05 -3.29018e-06
0.00250498 0.00257623 0.00125491 0.00135867 4.89032e-05 2.0601e-05
0.00245967 0.00253085 0.00122569 0.00132875 7.93978e-05 5.17669e-05
0.00240607 0.0024767 0.00119177 0.00129412 0.000116182 8.93172e-05
0.00234538 0.00241532 0.00115392 0.00125565 0.000158412 0.000132357
0.0022792 0.00234834 0.00111325 0.00121429 0.000205109 0.000179844
0.00220936 0.00227742 0.00107094 0.00117106 0.000255073 0.000230643
0.00213757 0.00220437 0.001028 0.00112711 0.000307003 0.000283519
0.00206558 0.00213103 0.000985436 0.00108361 0.000359632 0.000337177
0.0019952 0.00205923 0.000944383 0.00104168 0.000411768 0.000390319
0.00192822 0.00199075 0.000905961 0.00100237 0.000462252 0.000441699
0.0018663 0.00192733 0.000871167 0.000966702 0.000509915 0.000490151
0.00181096 0.00187059 0.00084087 0.000935614 0.000553637 0.000534602
0.00176362 0.00182197 0.000815849 0.000909932 0.000592429 0.000574076
0.00172545 0.00178271 0.000796786 0.00089034 0.000625486 0.000607714
0.0016974 0.00175379 0.000784219 0.000877369 0.000652162 0.000634814
0.00168015 0.00173596 0.000778519 0.000871403 0.000671951 0.000654854
0.00167411 0.00172967 0.000779885 0.000872665 0.000684498 0.000667502
0.00167505 0.00173056 0.000788843 0.000881814 0.000689571 0.000672541
0.001682 0.00173751 0.000805339 0.000898693 0.000687231 0.000669994
0.00169487 0.00175064 0.000828958 0.000922927 0.000677737 0.000660081
0.00171331 0.0017695 0.000859012 0.000953762 0.000661527 0.000643266
0.00173677 0.00179349 0.000894612 0.000990361 0.000639209 0.000620195
0.00176453 0.00182187 0.000934744 0.00103168 0.000611555 0.00059167
0.00179576 0.00185382 0.000978274 0.0010765 0.000579478 0.00055862
0.0018295 0.00188835 0.00102394 0.00112354 0.000543986 0.000522074
0.00186466 0.00192434 0.00107042 0.00117142 0.000506153 0.000483139
0.00190004 0.00196055 0.00111633 0.00121878 0.00046709 0.000442965
0.00193436 0.00199567 0.00116037 0.00126422 0.000427925 0.00040271
0.00196635 0.0020284 0.00120125 0.00130643 0.00038976 0.000363505
0.00199477 0.00205747 0.00123777 0.00134417 0.000353639 0.000326424
0.0020185 0.00208171 0.00126883 0.00137629 0.000320522 0.000292455
0.00203653 0.00210009 0.00129347 0.00140182 0.000291259 0.000262474
0.00204808 0.00211181 0.00131089 0.00141992 0.000266576 0.00023722
0.00205258 0.00211628 0.00132046 0.00142995 0.000247041 0.00021728
0.00204971 0.00211317 0.00132176 0.00143146 0.000233056 0.000203069
0.00203937 0.00210239 0.00131456 0.00142423 0.000224848 0.000194818
0.00202163 0.002084 0.00129887 0.00140826 0.000222459 0.000192573
0.00199665 0.00205817 0.00127493 0.0013838 0.000225752 0.000196189
0.00196462 0.00202509 0.0012432 0.00135132 0.000234412 0.000205338
0.00192574 0.00198498 0.00120437 0.00131154 0.000247952 0.000219522
0.00188023 0.00193804 0.00115933 0.00126537 0.000265741 0.000238089
0.00182846 0.00188464 0.00110908 0.00121385 0.00028702 0.000260257
0.00177094 0.00182531 0.00105476 0.00115814 0.00031093 0.000285139
0.00170837 0.00176076 0.000997556 0.00109948 0.000336536 0.000311774
0.00164157 0.0016918 0.000938698 0.00103913 0.000362861 0.000339153
0.00157141 0.00161935 0.000879408 0.000978344 0.000388907 0.000366254
0.0014988 0.00154434 0.000820872 0.000918357 0.000413693 0.000392064
0.00142459 0.00146763 0.000764216 0.000860324 0.000436276 0.000415614
0.00134956 0.00139001 0.000710467 0.000805305 0.000455782 0.000436005
0.00127441 0.00131222 0.000660521 0.00075422 0.00047143 0.000452435
0.00119987 0.00123501 0.000615104 0.000707818 0.000482553 0.000464219
0.00112682 0.00115927 0.000574739 0.000666634 0.000488621 0.000470812
0.00105627 0.00108606 0.000539729 0.000630978 0.00048925 0.000471823
0.000989365 0.00101657 0.000510157 0.000600939 0.000484209 0.000467018
0.000927201 0.000951935 0.00048592 0.000576414 0.000473421 0.00045632
0.000870656 0.000893073 0.000466754 0.000557132 0.000456958 0.000439805
0.000820286 0.000840568 0.000452274 0.000542697 0.00043503 0.000417693
0.000776262 0.000794609 0.000441992 0.000532608 0.000407981 0.000390339
0.000738389 0.000755004 0.00043534 0.000526277 0.000376271 0.000358216
0.000706173 0.000721248 0.000431682 0.000523048 0.000340465 0.000321904
0.000678886 0.000692593 0.000430323 0.000522206 0.000301215 0.000282074
0.000655605 0.000668089 0.000430532 0.000522996 0.000259246 0.000239468
0.00063526 0.000646635 0.000431555 0.000524639 0.000215334 0.000194883
0.000616696 0.000627038 0.000432629 0.000526348 0.000170286 0.000149147
0.000598761 0.000608113 0.000432994 0.000527338 0.000124924 0.000103101
0.000580333 0.000588699 0.000431912 0.000526848 8.00619e-05 5.75791e-05
0.000560274 0.000567622 0.000428692 0.000524164 3.64835e-05 1.33849e-05
0.000537372 0.00054363 0.000422792 0.000518805 -3.76908e-06 -2.9743e-05
0.000510289 0.000515287 0.000414469 0.000510878 -4.36938e-05 -6.78716e-05
0.000478019 0.000481664 0.000401987 0.000498752 -7.9687e-05 -0.000103966
0.000439499 0.000441583 0.000385367 0.000482435 -0.000112042 -0.000135964
0.000396805 0.000411946 0.000363967 0.000458325 -0.000140463 -0.000163349
0.000366422 0.000378651 0.000335735 0.000430716 -0.000164444 -0.000186859
0.000326889 0.000338386 0.000303316 0.000397132 -0.000184179 -0.000205427
0.000280183 0.000290416 0.000266243 0.000359734 -0.000199103 -0.000220092
0.000227604 0.00023452 0.000225657 0.000317929 -0.000209668 -0.00022998
0.000168654 0.00017246 0.0001813 0.000272606 -0.000216099 -0.00023593
0.000103657 0.000104946 0.000133438 0.000223939 -0.000218739 -0.000237953
3.43093e-05 3.28254e-05 8.29436e-05 0.000172498 -0.000217548 -0.000235967
-3.59767e-05 -3.20317e-05 3.20829e-05 0.000123199 -0.000213288 -0.000231422
-0.00010948 -0.000104575 -2.12597e-05 7.07061e-05 -0.000206351 -0.000223601
-0.000183479 -0.000177138 -7.84655e-05 1.8572e-05 -0.00019688 -0.000213743
-0.000258679 -0.000250817 -0.000136651 -3.92095e-05 -0.000185838 -0.000201738
-0.000333894 -0.000324397 -0.000194882 -9.72864e-05 -0.000173768 -0.00018895
-0.000407289 -0.000397079 -0.000251801 -0.000154789 -0.000161402 -0.000175876
-0.000478758 -0.000467646 -0.000307121 -0.000210744 -0.000149397 -0.000163272
-0.000549703 -0.000539022 -0.000360475 -0.000264878 -0.000138413 -0.0001517
-0.000624496 -0.000619028 -0.000414037 -0.000319949 -0.000128477 -0.000140836
-0.000694668 -0.000691198 -0.000463788 -0.000370062 -0.000121133 -0.000133082
-0.000759355 -0.00075795 -0.000508978 -0.000416058 -0.000116735 -0.000127801
-0.000817698 -0.000818774 -0.000549093 -0.000457443 -0.000115571 -0.000126261
-0.000870047 -0.00087333 -0.000584267 -0.000493541 -0.000118173 -0.000128277
-0.000915975 -0.000921065 -0.000614219 -0.000523956 -0.000124725 -0.000134484
-0.000954919 -0.000961888 -0.00063848 -0.000548581 -0.00013536 -0.000144895
-0.000987144 -0.000995834 -0.000656987 -0.000567451 -0.000150021 -0.000159568
-0.00101307 -0.00102314 -0.000669932 -0.000580673 -0.000168613 -0.000178305
-0.00103292 -0.00104425 -0.000677537 -0.000588411 -0.000190938 -0.000200834
-0.00104708 -0.00105966 -0.000680103 -0.000590976 -0.000216639 -0.000226791
-0.0010563 -0.00107002 -0.000678032 -0.000588832 -0.000243857 -0.000255518
-0.00106153 -0.00107622 -0.000671277 -0.000581889 -0.000271182 -0.000281608
-0.00106345 -0.00107911 -0.000661189 -0.000571597 -0.000299197 -0.000309756
-0.00106316 -0.00107972 -0.000648301 -0.000558299 -0.000328199 -0.000338721
-0.00106173 -0.00107925 -0.000633357 -0.000543051 -0.000357684 -0.000367932
-0.00106034 -0.0010788 -0.000617205 -0.000526554 -0.000386995 -0.000396812
-0.00106004 -0.00107953 -0.000600679 -0.000509715 -0.000415356 -0.000424789
-0.00106189 -0.00108253 -0.000584641 -0.000493372 -0.000442035 -0.000451297
-0.0010669 -0.0010888 -0.00056992 -0.000478389 -0.000466473 -0.000475703
-0.001076 -0.00109932 -0.000557305 -0.00046559 -0.000488225 -0.000497392
-0.00108998 -0.00111495 -0.000547523 -0.00045573 -0.000506856 -0.000515844
-0.00110953 -0.00113643 -0.00054125 -0.000449501 -0.000521907 -0.000530662
-0.00113523 -0.00116428 -0.000539097 -0.000447509 -0.000532974 -0.000541554
-0.00116729 -0.00119838 -0.00054154 -0.000450159 -0.000539811 -0.000548315
-0.00120578 -0.00123902 -0.000549009 -0.000458017 -0.000542317 -0.000550761
-0.00125045 -0.00128595 -0.000561742 -0.000471239 -0.000540073 -0.000548346
-0.00130086 -0.00133872 -0.000579861 -0.000489969 -0.000532986 -0.000540819
-0.00135643 -0.00139667 -0.000603407 -0.000514203 -0.000521208 -0.000528543
-0.00141643 -0.00145906 -0.000632234 -0.000543809 -0.000505106 -0.00051189
-0.0014801 -0.00152508 -0.000666044 -0.000578488 -0.000485222 -0.000491372
-0.0015466 -0.00159387 -0.000704401 -0.000617788 -0.00046222 -0.000467602
-0.00161506 -0.00166454 -0.000746733 -0.000661113 -0.000436832 -0.000441323
-0.00168461 -0.00173621 -0.00079234 -0.000707742 -0.000409837 -0.000413379
-0.00175442 -0.00180804 -0.00084041 -0.000756853 -0.000382081 -0.000384672
-0.00182368 -0.00187921 -0.000890057 -0.000807544 -0.00035448 -0.000356133
-0.00189159 -0.00194891 -0.000940351 -0.000858869 -0.000327979 -0.000328693
-0.00195725 -0.00201595 -0.000990363 -0.000909933 -0.000303496 -0.000303268
-0.00201979 -0.00207975 -0.00103917 -0.000959727 -0.000281896 -0.000280765
-0.00207843 -0.00213996 -0.00108588 -0.00100731 -0.000263973 -0.00026204
-0.00213242 -0.00219595 -0.0011297 -0.0010518 -0.000250441 -0.000247842
-0.00218079 -0.0022454 -0.00116995 -0.0010928 -0.000241926 -0.000238738
-0.00222284 -0.00228846 -0.00120598 -0.00112941 -0.000238948 -0.000235301
-0.00225809 -0.00232465 -0.00123734 -0.00116126 -0.000241869 -0.000237859
-0.00228617 -0.00235346 -0.00126367 -0.00118793 -0.000250883 -0.00024668
-0.00230674 -0.00237461 -0.00128471 -0.0012092 -0.000266068 -0.000261814
-0.00231968 -0.00238797 -0.00130039 -0.00122498 -0.000287345 -0.000283193
-0.0023251 -0.00239363 -0.00131077 -0.00123534 -0.000314483 -0.000310567
-0.00232318 -0.00239173 -0.00131602 -0.00124042 -0.000347099 -0.000343553
-0.00231428 -0.00238267 -0.00131641 -0.00124053 -0.000384671 -0.000381621
-0.00229897 -0.00236704 -0.00131236 -0.0012361 -0.000426553 -0.000424112
-0.002278 -0.00234557 -0.00130438 -0.00122765 -0.000471991 -0.000470255
-0.00225223 -0.00231917 -0.00129308 -0.00121579 -0.000520141 -0.000519184
-0.00222262 -0.0022888 -0.00127906 -0.00120119 -0.000568016 -0.000569647
-0.00219034 -0.00225572 -0.00126201 -0.00118333 -0.000612593 -0.000612238
-0.00215601 -0.0022206 -0.00124414 -0.0011648 -0.000656158 -0.00065597
-0.00212072 -0.00218436 -0.0012258 -0.00114552 -0.000698841 -0.000698375
-0.00208528 -0.00214801 -0.00120767 -0.00112676 -0.000740036 -0.000739128
-0.00205069 -0.00211245 -0.00119057 -0.00110898 -0.000778949 -0.000777409
-0.00201781 -0.00207862 -0.00117514 -0.00109292 -0.000814616 -0.000812571
-0.00198746 -0.00204734 -0.00116197 -0.0010791 -0.000846188 -0.000844003
-0.00196032 -0.00201932 -0.00115148 -0.00106805 -0.000873144 -0.000871045
-0.00193434 -0.00199267 -0.00114432 -0.0010605 -0.000895163 -0.000893075
-0.00190874 -0.00196636 -0.00114088 -0.00105682 -0.000911977 -0.000909675
-0.00188334 -0.00194015 -0.00114129 -0.00105714 -0.000923273 -0.000920664
-0.00185775 -0.00191371 -0.00114545 -0.00106135 -0.000928812 -0.000926001
-0.00183158 -0.0018866 -0.00115307 -0.0010692 -0.000928312 -0.000925498
-0.00180453 -0.00185853 -0.00116355 -0.00108007 -0.000921506 -0.000918421
-0.00177649 -0.00182939 -0.00117627 -0.00109329 -0.000908676 -0.000905204
-0.00174752 -0.00179925 -0.0011904 -0.00110799 -0.000890294 -0.000886302
-0.00171765 -0.00176815 -0.00120497 -0.0011232 -0.000866902 -0.000862327
-0.00168673 -0.00173597 -0.00121895 -0.00113788 -0.000839145 -0.000833964
-0.00165445 -0.00170239 -0.00123127 -0.00115094 -0.000807768 -0.000801957
-0.00162039 -0.00166699 -0.00124092 -0.0011613 -0.000773557 -0.000767086
-0.00158409 -0.00162933 -0.00124687 -0.00116791 -0.000737294 -0.000730159
-0.00154517 -0.00158901 -0.00124811 -0.00116975 -0.000699733 -0.000691976
-0.00150319 -0.00154561 -0.00124377 -0.00116592 -0.000661599 -0.000653302
-0.00145763 -0.00149859 -0.00123308 -0.00115563 -0.000623572 -0.000614829
-0.00140788 -0.00144735 -0.00121544 -0.00113825 -0.000586266 -0.000577171
-0.00135346 -0.00139137 -0.0011904 -0.00111331 -0.000550196 -0.00054085
-0.00129407 -0.00133038 -0.00115762 -0.00108047 -0.000515765 -0.000506285
-0.0012297 -0.00126435 -0.00111696 -0.00103958 -0.000483267 -0.000473786
-0.00116055 -0.00119348 -0.00106841 -0.000990641 -0.000452879 -0.000443536
-0.00108694 -0.0011181 -0.00101217 -0.00093383 -0.000424666 -0.00041559
-0.00100923 -0.00103858 -0.000948611 -0.000869536 -0.000398568 -0.000389878
-0.000927767 -0.000955263 -0.000878291 -0.000798333 -0.000374405 -0.000366211
-0.000842846 -0.000868448 -0.000801953 -0.000720977 -0.000351889 -0.000344292
-0.000754706 -0.000778368 -0.00072049 -0.000638382 -0.000330638 -0.000323724
-0.000663601 -0.000685267 -0.000634913 -0.000551579 -0.000310204 -0.000304038
-0.000569838 -0.000589445 -0.000546312 -0.000461685 -0.000290082 -0.000284703
-0.000473839 -0.000491321 -0.000455817 -0.000369857 -0.000269737 -0.000265162
-0.000376183 -0.000391471 -0.000364559 -0.000277252 -0.000248623 -0.00024485
-0.000277601 -0.000290631 -0.000273637 -0.000184996 -0.000226211 -0.000223213
-0.000178907 -0.000189626 -0.000184097 -9.41606e-05 -0.000202002 -0.000199737
-8.12568e-05 -8.97401e-05 -9.69092e-05 -5.77396e-06 -0.000175549 -0.000173952
6.78102e-06 -1.23955e-05 -1.41713e-05 6.76427e-05 -0.00014603 -0.000144537
8.02754e-05 5.94664e-05 5.60321e-05 0.000139017 -0.000113245 -0.000112462
0.000150212 0.00012731 0.00012164 0.000205089 -7.77791e-05 -7.69824e-05
0.000218443 0.000193114 0.000183294 0.000267152 -3.92413e-05 -3.86824e-05
0.000281671 0.000252987 0.000240567 0.000324399 -2.16149e-06 -1.48529e-06
0.000325355 0.000297869 0.000294879 0.000379352 3.11146e-05 2.92721e-05
0.000365508 0.000336739 0.000343935 0.000428213 6.59595e-05 6.39694e-05
0.000400837 0.00037303 0.000387578 0.000472139 0.000102607 0.000100049
0.000431014 0.000403596 0.000425648 0.000510062 0.000140808 0.00013798
0.000456084 0.000428848 0.000458153 0.000542644 0.000180402 0.000176665
0.000476526 0.00044948 0.000485328 0.000569855 0.000220819 0.000216191
0.000492876 0.000467983 0.000507416 0.0005922 0.000261492 0.000256017
0.000505719 0.000482655 0.000524473 0.000609201 0.000301954 0.000295934
0.000515439 0.000494075 0.000536699 0.000621518 0.000341803 0.000335346
0.000523531 0.000503119 0.000544683 0.000629299 0.000380566 0.000373675
0.000530167 0.000510646 0.000548695 0.000633112 0.000417688 0.000410279
0.000536125 0.000517677 0.000549277 0.000633475 0.000452504 0.000444633
0.000542415 0.000525157 0.000547006 0.000630997 0.000484398 0.000476211
0.000550038 0.000534005 0.000542518 0.000626328 0.000512858 0.000504464
0.000559814 0.000545127 0.000536438 0.000620104 0.000537435 0.000528864
0.0005725 0.000559363 0.000529398 0.000612975 0.000557681 0.000548924
0.00058886 0.000577446 0.000522049 0.000605585 0.000573146 0.000564244
0.000609533 0.000599998 0.000514997 0.000598562 0.000583449 0.000574493
0.000634966 0.000627501 0.000508798 0.000592492 0.00058833 0.00057941
0.000665445 0.000660252 0.000503957 0.000587891 0.000587406 0.000578576
0.000701104 0.000698368 0.000500836 0.000585098 0.000580147 0.000571122
0.000741871 0.000741752 0.000499853 0.000584533 0.000566467 0.000557191
0.000787531 0.000790176 0.000501296 0.000586472 0.000546508 0.000536927
0.000837761 0.000843298 0.00050535 0.000591124 0.000520569 0.000510602
0.000892158 0.000900682 0.000512106 0.000598571 0.000489095 0.000478612
0.000950249 0.000961834 0.000521546 0.000608785 0.000452628 0.000441487
0.00101152 0.00102622 0.000533544 0.000621624 0.000411783 0.000399885
0.00107542 0.00109328 0.000547865 0.000636848 0.000367267 0.000354559
0.0011414 0.00116244 0.000564189 0.000654128 0.000319887 0.000306338
0.00120884 0.00123307 0.000582124 0.000673059 0.000270538 0.000256106
0.00127708 0.00130451 0.000601229 0.000693186 0.000220157 0.000204794
0.0013454 0.00137601 0.000621031 0.000714021 0.000169691 0.000153372
0.00141306 0.00144681 0.000641047 0.000735064 0.00012008 0.000102819
0.00147924 0.0015161 0.000660799 0.000755823 7.22559e-05 5.40948e-05
0.00154318 0.00158306 0.000679831 0.000775827 2.71266e-05 8.11756e-06
0.00160407 0.00164687 0.000697996 0.000795049 -1.29391e-05 -3.33346e-05
0.00166124 0.00170676 0.000715046 0.000812925 -5.27739e-05 -7.26266e-05
0.00171412 0.00176235 0.000730047 0.000828858 -8.66225e-05 -0.000106935
0.00176227 0.00181299 0.000742918 0.000842483 -0.000114672 -0.000135069
0.00180528 0.00185836 0.000753533 0.000853672 -0.000136618 -0.000156862
0.0018429 0.00189818 0.000761777 0.000862361 -0.000152028 -0.000171987
0.00187503 0.00193231 0.000767629 0.000868597 -0.000160481 -0.000180343
0.0019017 0.00196081 0.000771201 0.000872489 -0.000161691 -0.000181792
0.00192306 0.00198381 0.000772803 0.000874299 -0.000155197 -0.000175418
0.00193938 0.0020016 0.000772725 0.000874305 -0.000141131 -0.000161236
0.00195104 0.00201458 0.00077131 0.000872894 -0.000119812 -0.000139582
0.00195851 0.0020232 0.000768985 0.000870506 -9.16261e-05 -0.000110936
0.00196231 0.00202798 0.00076625 0.000867645 -5.70835e-05 -7.59031e-05
0.00196304 0.00202953 0.000763646 0.000864849 -1.6852e-05 -3.51518e-05
0.00196144 0.0020286 0.000761681 0.000862713 2.03027e-05 4.17762e-06
0.00195835 0.00202615 0.000760688 0.000861398 6.02004e-05 4.39027e-05
0.00195462 0.00202293 0.000761553 0.00086197 0.000102393 8.66574e-05
0.00195107 0.00201989 0.000764776 0.000864866 0.000146606 0.000131018
0.00194854 0.00201786 0.000770843 0.000870694 0.000192193 0.000176482
0.00194781 0.00201763 0.000780239 0.000879907 0.000238392 0.000222458
0.00194901 0.00201992 0.000793386 0.000892923 0.000284432 0.000268382
0.00194115 0.00201432 0.000812249 0.000911661 0.000329412 0.000313448
0.00193868 0.00201226 0.000834898 0.00093416 0.000373323 0.000357249
0.00194103 0.00201524 0.000861609 0.000961191 0.000415511 0.000399219
0.00194875 0.00202394 0.000892372 0.00099227 0.000455547 0.000438933
0.0019619 0.0020384 0.00092702 0.00102739 0.000493077 0.000476076
0.00198029 0.00205822 0.000965402 0.00106621 0.00052783 0.000510477
0.0020038 0.00208324 0.00100721 0.00110852 0.000559624 0.000541948
0.00203214 0.00211301 0.00105207 0.00115392 0.000588344 0.00057031
0.00206489 0.00214735 0.00109955 0.00120206 0.000613949 0.000595487
0.00210159 0.00218565 0.00114916 0.00125237 0.000636473 0.000617517
0.0021416 0.0022273 0.00120037 0.00130434 0.000656002 0.000636538
0.00218367 0.00227061 0.00125265 0.00135748 0.000672673 0.000652696
0.002226 0.00231425 0.0013055 0.00141119 0.000686666 0.000666194
0.00226826 0.00235777 0.00135812 0.00146474 0.000698268 0.000677287
0.00230984 0.00240056 0.00140977 0.00151733 0.000707779 0.000686275
0.00234984 0.00244175 0.00145973 0.00156822 0.00071551 0.000693481
0.00238728 0.0024803 0.00150727 0.00161667 0.000721779 0.00069925
0.00242125 0.00251526 0.00155171 0.00166197 0.000726911 0.000703924
0.00245106 0.00254592 0.00159235 0.00170341 0.000731231 0.000707829
0.00247623 0.00257179 0.00162851 0.00174029 0.000735047 0.000711267
0.00249641 0.00259253 0.0016596 0.00177199 0.000738629 0.000714517
0.00251141 0.00260791 0.00168505 0.00179794 0.000742201 0.000717814
0.00252111 0.00261784 0.00170443 0.00181769 0.000745934 0.000721342
0.00252552 0.00262233 0.00171739 0.00183088 0.000749946 0.000725224
0.00252473 0.00262147 0.00172369 0.00183726 0.000754293 0.000729512
0.00251895 0.00261545 0.0017232 0.00183671 0.000758963 0.000734196
0.00250853 0.00260467 0.00171594 0.00182923 0.000763874 0.000739193
0.00249396 0.0025896 0.00170205 0.00181498 0.00076887 0.00074435
0.00247576 0.00257081 0.0016818 0.00179425 0.000773737 0.000749451
0.00245443 0.00254879 0.00165562 0.00176745 0.000778201 0.000754214
0.00243032 0.00252392 0.00162404 0.00173515 0.000781937 0.000758307
0.00240359 0.00249637 0.00158775 0.00169806 0.000784579 0.000761354
0.00237425 0.00246612 0.00154753 0.00165698 0.000785732 0.000762951
0.00234223 0.00243309 0.0015042 0.00161275 0.000784979 0.000762684
0.0023075 0.00239724 0.00145861 0.00156625 0.00078182 0.000760008
0.00227014 0.00235865 0.00141159 0.00151832 0.000775842 0.000754479
0.00223039 0.00231755 0.00136391 0.00146976 0.000766685 0.000745739
0.00218861 0.00227432 0.00131628 0.0014213 0.000754056 0.000733479
0.00214521 0.00222936 0.00126931 0.00137356 0.00073773 0.000717457
0.00210059 0.00218308 0.00122355 0.00132711 0.000717557 0.000697512
0.00205504 0.00213579 0.00117942 0.00128238 0.000693468 0.000673569
0.00200882 0.00208775 0.00113727 0.00123972 0.000665481 0.000645648
0.00196203 0.00203909 0.0010973 0.00119934 0.000633707 0.000613861
0.00191471 0.00198981 0.00105963 0.00116136 0.00059835 0.000578411
0.00186676 0.00193984 0.00102428 0.00112579 0.000559704 0.000539591
0.001818 0.00188899 0.000991128 0.00109251 0.000518141 0.000497783
0.0017682 0.00183702 0.000959976 0.00106131 0.00047411 0.000453445
0.00171705 0.0017836 0.000930524 0.00103188 0.000428124 0.000407103
0.00166417 0.00172838 0.000902393 0.00100381 0.00038075 0.000359337
0.00160918 0.00167094 0.000875134 0.00097666 0.000332599 0.000310768
0.00155171 0.00161091 0.000848249 0.000949895 0.000284301 0.000262044
0.00149141 0.00154794 0.000821197 0.000922961 0.000236498 0.000213821
0.00142801 0.00148176 0.00079342 0.000895278 0.000189824 0.000166751
0.00136135 0.0014122 0.000764354 0.000866264 0.000144888 0.000121458
0.00127337 0.00132047 0.000725384 0.000827272 9.20255e-05 6.82274e-05
0.0011804 0.0012236 0.000682592 0.000784331 4.375e-05 1.9694e-05
0.00108264 0.00112186 0.00063526 0.000736736 1.80185e-06 -2.22483e-05
0.000980129 0.0010152 0.000583515 0.000684567 -3.4508e-05 -5.94274e-05
0.000872771 0.000903689 0.000526188 0.000626775 -6.59368e-05 -9.03275e-05
0.000760188 0.000786825 0.000463655 0.000563417 -9.09735e-05 -0.00011446
0.000642074 0.000664336 0.000396316 0.000495167 -0.000110157 -0.000132867
0.000518584 0.000536382 0.000324741 0.000422405 -0.000123562 -0.000144941
0.000390261 0.000403487 0.000249679 0.000346149 -0.000131641 -0.000152255
0.000257799 0.000266387 0.00017214 0.000267299 -0.000135181 -0.00015509
0.000122416 0.000134804 9.31935e-05 0.000186049 -0.000135012 -0.000153706
1.30754e-05 3.13168e-05 1.13574e-05 0.000103488 -0.000131779 -0.000149256
-9.40534e-05 -6.90771e-05 -7.12668e-05 2.63307e-05 -0.00012803 -0.000144775
-0.000197953 -0.000171074 -0.000153137 -5.31885e-05 -0.000123771 -0.000139707
-0.000300137 -0.000274504 -0.000230618 -0.000131063 -0.000120534 -0.000135419
-0.00040006 -0.000372214 -0.000303293 -0.000204264 -0.000119222 -0.000133697
-0.000494229 -0.000467098 -0.000369321 -0.00027112 -0.000120926 -0.000134443
-0.000588801 -0.000569551 -0.000430229 -0.000335208 -0.000125871 -0.000138675
-0.000681924 -0.000667286 -0.000485816 -0.000390265 -0.000134942 -0.000147371
-0.000766108 -0.000754307 -0.000532792 -0.000438339 -0.000148879 -0.000160753
-0.000839781 -0.000833409 -0.000570962 -0.00047788 -0.000165976 -0.000178342
-0.000904902 -0.000901555 -0.000601459 -0.00050899 -0.000186754 -0.000198001
-0.000960354 -0.000960556 -0.000624457 -0.000532324 -0.000211399 -0.000222344
-0.00100689 -0.00101046 -0.000640343 -0.000548615 -0.000239675 -0.000250039
-0.00104608 -0.00105258 -0.000650207 -0.000558768 -0.000270875 -0.000280604
-0.00107902 -0.00108824 -0.000655037 -0.000563709 -0.000304237 -0.000313478
-0.00110712 -0.00111912 -0.000655982 -0.000564675 -0.000338833 -0.000347586
-0.00113219 -0.00114668 -0.000654322 -0.000562989 -0.000373741 -0.000382109
-0.00115565 -0.00117261 -0.000651345 -0.00056001 -0.000408017 -0.000415951
-0.00117905 -0.00119846 -0.000648428 -0.000557088 -0.000440674 -0.000448159
-0.00120391 -0.00122573 -0.000646881 -0.000555531 -0.00047072 -0.00047784
-0.00123159 -0.00125582 -0.000647842 -0.000556573 -0.00049732 -0.000504112
-0.00126334 -0.00129003 -0.000652353 -0.000561268 -0.000519789 -0.000526253
-0.00130028 -0.00132946 -0.000661296 -0.000570479 -0.000537566 -0.000543688
-0.00134327 -0.00137502 -0.000675303 -0.000584872 -0.000550236 -0.000556041
-0.00139295 -0.00142737 -0.000694777 -0.000604872 -0.0005576 -0.000563124
-0.00144968 -0.00148687 -0.000719907 -0.000630664 -0.000559627 -0.000564897
-0.00151342 -0.00155348 -0.000750576 -0.000662117 -0.000556021 -0.000560768
-0.0015836 -0.00162663 -0.000786546 -0.000698983 -0.000547049 -0.000551203
-0.00165925 -0.00170529 -0.000827396 -0.000740823 -0.000533395 -0.00053688
-0.00173906 -0.00178812 -0.000872512 -0.000787013 -0.000515989 -0.0005187
-0.0018215 -0.00187355 -0.000921115 -0.000836741 -0.000495906 -0.000497731
-0.00190494 -0.00195987 -0.00097227 -0.000889048 -0.000474299 -0.00047518
-0.00198767 -0.00204535 -0.00102492 -0.000942845 -0.0004524 -0.000452351
-0.00206811 -0.00212837 -0.00107791 -0.000996956 -0.000431509 -0.000430551
-0.00214488 -0.00220754 -0.00113004 -0.00105015 -0.000412914 -0.000411072
-0.00221685 -0.00228172 -0.0011801 -0.00110121 -0.00039781 -0.000395146
-0.00228317 -0.00235008 -0.00122696 -0.00114897 -0.000387263 -0.000383885
-0.00234317 -0.00241196 -0.00126962 -0.00119241 -0.000382179 -0.000378222
-0.00239631 -0.00246683 -0.00130725 -0.00123071 -0.000383266 -0.000378867
-0.00244217 -0.0025143 -0.00133928 -0.00126329 -0.000390982 -0.000386286
-0.00248046 -0.00255406 -0.0013654 -0.00128981 -0.000405513 -0.000400681
-0.00251099 -0.00258592 -0.00138555 -0.00131024 -0.000426778 -0.000421975
-0.00253378 -0.00260988 -0.00139997 -0.00132481 -0.000454437 -0.000449816
-0.00254907 -0.00262619 -0.00140911 -0.00133396 -0.000487898 -0.000483596
-0.00255733 -0.0026353 -0.00141361 -0.00133838 -0.000526341 -0.000522477
-0.00255921 -0.00263782 -0.00141431 -0.00133887 -0.000568756 -0.000565434
-0.00255565 -0.00263468 -0.00141143 -0.00133577 -0.000609175 -0.00060563
-0.00254743 -0.00262684 -0.00140671 -0.00133061 -0.000649656 -0.000646471
-0.00252243 -0.00260468 -0.0014028 -0.00132604 -0.000690229 -0.000686586
-0.00249548 -0.00257753 -0.00139861 -0.00132125 -0.000730653 -0.000726745
-0.00246904 -0.00255114 -0.00139483 -0.00131738 -0.000769442 -0.000764526
-0.00244496 -0.00252661 -0.00139212 -0.0013142 -0.00080536 -0.000800157
-0.00242398 -0.00250501 -0.00139094 -0.00131275 -0.000837651 -0.000832323
-0.00240664 -0.00248701 -0.00139182 -0.0013133 -0.000865835 -0.000860094
-0.0023854 -0.00246506 -0.00139606 -0.00131739 -0.000889106 -0.000883022
-0.00235943 -0.00243827 -0.00140381 -0.00132507 -0.000906934 -0.000900473
-0.00232874 -0.00240651 -0.00141469 -0.00133602 -0.000919066 -0.000912428
-0.00229352 -0.00237004 -0.00142799 -0.00134956 -0.00092558 -0.00091875
-0.00225389 -0.00232896 -0.00144267 -0.00136463 -0.000926579 -0.000919531
-0.00221006 -0.00228356 -0.00145741 -0.00137984 -0.000921892 -0.000914413
-0.00216237 -0.00223417 -0.00147074 -0.00139366 -0.000911884 -0.000904037
-0.00211123 -0.00218125 -0.00148106 -0.00140449 -0.00089729 -0.000889101
-0.00205709 -0.00212528 -0.00148676 -0.00141067 -0.000878959 -0.000870384
-0.00200019 -0.00206655 -0.00148635 -0.00141067 -0.000857687 -0.0008487
-0.00194045 -0.00200498 -0.00147852 -0.00140315 -0.000834167 -0.000824856
-0.00187736 -0.00194007 -0.00146225 -0.00138705 -0.000809046 -0.000799548
-0.00180991 -0.00187079 -0.00143684 -0.00136168 -0.000782904 -0.000773316
-0.00173685 -0.00179587 -0.00140192 -0.00132663 -0.00075617 -0.000746567
-0.00165711 -0.00171419 -0.00135742 -0.00128184 -0.000729086 -0.000719579
-0.00157005 -0.0016251 -0.00130348 -0.00122743 -0.000701747 -0.000692478
-0.00147562 -0.00152852 -0.00124046 -0.00116379 -0.00067414 -0.000665226
-0.00137407 -0.0014247 -0.00116894 -0.0010915 -0.000646119 -0.000637643
-0.00126572 -0.00131395 -0.00108973 -0.00101139 -0.000617394 -0.000609432
-0.00115098 -0.00119666 -0.00100383 -0.000924481 -0.000587568 -0.000580194
-0.0010303 -0.00107329 -0.000912367 -0.000831928 -0.000556185 -0.000549452
-0.000904203 -0.000944348 -0.000816583 -0.000734996 -0.000522759 -0.000516685
-0.000773123 -0.000810246 -0.000717762 -0.000635 -0.000486792 -0.000481366
-0.000637288 -0.000671199 -0.000617198 -0.000533265 -0.000447811 -0.000443008
-0.000496839 -0.000527328 -0.000516123 -0.000431046 -0.000405414 -0.00040119
-0.000352178 -0.000379024 -0.000415602 -0.000329428 -0.000359311 -0.0003556
-0.000204242 -0.000227232 -0.00031646 -0.000229249 -0.000309349 -0.000306067
-5.72702e-05 -8.04382e-05 -0.000219353 -0.00013178 -0.000255448 -0.000252453
4.3262e-05 1.28528e-05 -0.000123569 -3.49191e-05 -0.000197758 -0.00019476
0.000123033 9.11505e-05 -2.91077e-05 5.15629e-05 -0.000136621 -0.000133599
0.000199697 0.000168108 5.57595e-05 0.000135577 -7.19596e-05 -6.97421e-05
0.000272257 0.000239571 0.000134759 0.000214671 -8.03633e-06 -5.22627e-06
0.000339838 0.000308215 0.000208247 0.000289322 4.44876e-05 4.31056e-05
0.000402773 0.000371106 0.000277971 0.000358876 9.78893e-05 9.74684e-05
0.000460183 0.000429043 0.000343 0.000424231 0.000152241 0.000149899
0.000511871 0.000486653 0.000403426 0.000486118 0.000206876 0.000203793
0.000564279 0.000541038 0.000460033 0.000543088 0.000260931 0.000256222
0.000609785 0.000588141 0.000511891 0.000595028 0.000313791 0.000308232
0.000648792 0.000630175 0.000558059 0.000641879 0.000364792 0.000358302
0.000683096 0.000666268 0.000599061 0.000683271 0.000413464 0.000406236
0.000713056 0.00069811 0.00063515 0.000719633 0.000459138 0.000450834
0.000739199 0.000725977 0.00066623 0.000750926 0.000500938 0.000491932
0.000762481 0.000751019 0.000692545 0.000777484 0.000538182 0.000528621
0.000783908 0.0007739 0.000714347 0.000799511 0.000570415 0.000560388
0.000804193 0.000795834 0.000731849 0.000817199 0.000597174 0.000586637
0.0008244 0.000817643 0.00074532 0.00083086 0.0006179 0.000606969
0.000845238 0.000840156 0.000755016 0.000840776 0.000632187 0.000621068
0.000867159 0.00086386 0.000761246 0.000847278 0.000639842 0.00062862
0.000890376 0.000888949 0.000764368 0.000850678 0.000640625 0.000629378
0.000914963 0.000915471 0.000764576 0.000851191 0.00063385 0.000622359
0.000940938 0.000943464 0.000762148 0.000849098 0.00061941 0.000607727
0.000968414 0.000973022 0.000757322 0.000844626 0.00059761 0.000585699
0.000997478 0.00100424 0.000750278 0.000837955 0.000568949 0.000556715
0.00102804 0.00103703 0.000741167 0.000829253 0.000534005 0.000521318
0.00105971 0.00107099 0.000730151 0.000818669 0.000493425 0.000480251
0.00109188 0.00110545 0.000717385 0.000806342 0.000447998 0.000434327
0.00112379 0.00113963 0.000702997 0.000792395 0.000398647 0.000384446
0.00115465 0.00117266 0.000687093 0.000776924 0.000346362 0.000331578
0.00118362 0.00120368 0.000669759 0.000760002 0.000292153 0.000276773
0.00120982 0.00123174 0.000651068 0.000741687 0.000237058 0.000221106
0.00123237 0.0012559 0.00063108 0.000722025 0.000182142 0.000165646
0.00125041 0.00127526 0.000609842 0.000701054 0.000128457 0.000111443
0.00126319 0.00128903 0.000587396 0.000678802 7.69985e-05 5.95047e-05
0.0012701 0.00129658 0.000563777 0.000655292 2.8688e-05 1.07819e-05
0.0012687 0.00129528 0.000539409 0.000631122 -1.35203e-05 -3.34422e-05
0.00125718 0.00128342 0.000514837 0.000606567 -5.53702e-05 -7.44286e-05
0.00123677 0.00126244 0.000489136 0.000580848 -9.12774e-05 -0.00010967
0.00120885 0.00123359 0.000462271 0.000553885 -0.00012119 -0.000139547
0.00117487 0.00119849 0.000434123 0.000525458 -0.000145055 -0.00016254
0.00113618 0.0011585 0.000404653 0.000495648 -0.00016229 -0.00017923
0.00109386 0.00111477 0.000374036 0.000464638 -0.000172861 -0.00018955
0.00104873 0.00106815 0.000342639 0.000432696 -0.000177059 -0.000193454
0.00100128 0.00101914 0.000311 0.000400453 -0.000174981 -0.000190926
0.000951822 0.000968057 0.000279764 0.000368557 -0.000166799 -0.000182055
0.000900618 0.000915171 0.000249626 0.000337748 -0.000153091 -0.000167793
0.00084809 0.000860908 0.00022131 0.000308741 -0.000134736 -0.000148922
0.000794919 0.00080596 0.000195483 0.00028222 -0.000112752 -0.000126284
0.000741982 0.000751227 0.000172731 0.000258819 -8.80513e-05 -0.000100879
0.000690145 0.000697597 0.000153581 0.000239076 -6.14982e-05 -7.36887e-05
0.000640109 0.000645794 0.000138477 0.000223449 -3.39956e-05 -4.56637e-05
0.000592416 0.000596366 0.00012772 0.000212271 -8.62051e-06 -1.80093e-05
0.00054741 0.000549697 0.000121438 0.000205615 1.32454e-05 3.7394e-06
0.000505127 0.000505763 0.000119828 0.000203763 3.38105e-05 2.45239e-05
0.000465189 0.000464228 0.000122798 0.000206597 5.29217e-05 4.36815e-05
0.000426858 0.000424287 0.00013013 0.000213939 7.019e-05 6.07851e-05
0.000389106 0.000384902 0.000141432 0.000225332 8.53446e-05 7.58591e-05
0.000350801 0.000344884 0.000156107 0.000240216 9.82591e-05 8.86509e-05
0.000310799 0.000303068 0.000173353 0.000257747 0.000109046 9.93042e-05
0.000268014 0.000258326 0.000192176 0.000276932 0.000117844 0.000107838
0.000221429 0.000209624 0.000211425 0.000296579 0.000124839 0.000114581
0.000170059 0.000155951 0.000229826 0.000315391 0.000130274 0.000119791
0.000121686 0.000113421 0.000245467 0.000329828 0.000134494 0.00012407
9.31602e-05 7.64448e-05 0.000253984 0.000339151 0.000138143 0.00012761
5.56709e-05 3.92408e-05 0.00025858 0.000343705 0.000140972 0.00013033
1.33487e-05 -6.97353e-06 0.000258542 0.000343341 0.000143094 0.000132543
-3.46544e-05 -5.69043e-05 0.000253534 0.000338355 0.000144459 0.000133738
-8.70474e-05 -0.000110996 0.000243546 0.000328019 0.000144947 0.000134491
-0.000144538 -0.000168489 0.000226702 0.000311109 0.000144854 0.000134359
-0.000207378 -0.000231713 0.000202897 0.000287226 0.000144036 0.000133844
-0.000274574 -0.000298712 0.00017221 0.000256196 0.000142269 0.000132229
-0.00034619 -0.000370232 0.000134616 0.000218305 0.000139273 0.000129595
-0.000422106 -0.000445424 9.03597e-05 0.000173709 0.000134742 0.000125349
-0.000501654 -0.000524254 3.99542e-05 0.000122885 0.000128264 0.000119266
-0.000588087 -0.00060617 -1.69717e-05 6.63702e-05 0.000119409 0.000110772
-0.000682418 -0.00070318 -8.77558e-05 1.44636e-06 0.000108327 0.00010026
-0.000778823 -0.000803737 -0.000162591 -7.3156e-05 9.38067e-05 8.59784e-05
-0.000875468 -0.000903093 -0.000240579 -0.000152884 7.53427e-05 6.84131e-05
-0.000971873 -0.00100299 -0.00032104 -0.000234494 5.26301e-05 4.5972e-05
-0.00106685 -0.00110036 -0.000402868 -0.000317441 2.50785e-05 1.89364e-05
-0.00115908 -0.00119577 -0.00048492 -0.000400574 -7.53199e-06 -1.32065e-05
-0.00124838 -0.00128756 -0.000565998 -0.00048268 -4.80084e-05 -5.45175e-05
-0.00133368 -0.0013755 -0.000644961 -0.000562488 -9.36685e-05 -9.88213e-05
-0.00141427 -0.00145846 -0.000721625 -0.000639813 -0.00014428 -0.000148554
-0.00148959 -0.00153604 -0.000795326 -0.000714184 -0.000200126 -0.000203246
-0.0015592 -0.0016077 -0.000865606 -0.000784967 -0.000260709 -0.00026276
-0.00162265 -0.00167304 -0.000932233 -0.000852044 -0.000325356 -0.000326129
-0.00167972 -0.00173179 -0.000995134 -0.000915208 -0.000393183 -0.000393041
-0.0017304 -0.00178393 -0.00105424 -0.000974483 -0.000463461 -0.000462378
-0.00177497 -0.00182978 -0.0011096 -0.00102997 -0.000535281 -0.00053317
-0.00181401 -0.00186991 -0.00116137 -0.00108176 -0.000607561 -0.000604453
-0.00184826 -0.00190508 -0.00120971 -0.00113005 -0.000679122 -0.000675108
-0.00187854 -0.00193617 -0.0012548 -0.00117507 -0.000748871 -0.00074406
-0.00190571 -0.00196404 -0.00129688 -0.00121705 -0.000815754 -0.000810151
-0.00193049 -0.00198944 -0.00133619 -0.00125626 -0.000878703 -0.000872312
-0.00195348 -0.00201298 -0.00137296 -0.00129294 -0.000936662 -0.000929568
-0.0019752 -0.00203522 -0.00140737 -0.00132728 -0.000988708 -0.000981001
-0.00199626 -0.00205667 -0.00143895 -0.0013593 -0.00102164 -0.00102317
-0.00201772 -0.00207862 -0.00146367 -0.00138476 -0.00102178 -0.00102614
-0.00203897 -0.0021004 -0.00148797 -0.00140923 -0.00101693 -0.00102959
-0.00206051 -0.00212237 -0.00151067 -0.00143213 -0.00101472 -0.00103065
-0.00208255 -0.00214509 -0.00153155 -0.00145362 -0.00101686 -0.0010316
-0.00210548 -0.00216857 -0.00155079 -0.00147316 -0.00101897 -0.0010317
-0.00212925 -0.00219296 -0.00156785 -0.00149034 -0.00101752 -0.00103171
-0.00215379 -0.00221822 -0.00158131 -0.00150408 -0.0010093 -0.00102418
-0.00217861 -0.0022438 -0.00159095 -0.00151422 -0.000994427 -0.00100853
-0.00220289 -0.00226891 -0.0015967 -0.00152026 -0.000972795 -0.000985651
-0.00222567 -0.00229251 -0.00159824 -0.00152207 -0.000944102 -0.000956641
-0.00224581 -0.00231344 -0.0015953 -0.00151949 -0.000909312 -0.000922093
-0.00226215 -0.00233049 -0.00158775 -0.00151229 -0.000870021 -0.000882416
-0.00227273 -0.00234154 -0.00157559 -0.00150043 -0.000827001 -0.000838484
-0.0022758 -0.00234494 -0.00155872 -0.00148384 -0.000780611 -0.000791492
-0.00227109 -0.00234044 -0.0015369 -0.00146224 -0.000731663 -0.000742407
-0.00225871 -0.00232809 -0.00150987 -0.00143537 -0.000681457 -0.000691988
-0.00223909 -0.00230836 -0.00147742 -0.001403 -0.000630994 -0.000641041
-0.00221273 -0.00228175 -0.00143945 -0.00136502 -0.00058087 -0.000590503
-0.00218012 -0.00224877 -0.00139601 -0.00132146 -0.000531632 -0.00054117
-0.00214164 -0.0022098 -0.00134731 -0.00127254 -0.000484003 -0.000493581
-0.00209754 -0.00216511 -0.00129374 -0.00121863 -0.00043857 -0.000448129
-0.00204784 -0.00211469 -0.00123589 -0.00116034 -0.000395618 -0.000405169
-0.00199236 -0.00205836 -0.0011745 -0.00109844 -0.000355237 -0.000364951
-0.00193073 -0.00199573 -0.00111047 -0.00103382 -0.000317525 -0.000327537
-0.00186243 -0.00192622 -0.00104478 -0.000967472 -0.000282532 -0.000292852
-0.00178686 -0.0018492 -0.000978417 -0.00090043 -0.00025017 -0.000260775
-0.0017037 -0.00176434 -0.000912322 -0.000833639 -0.000220237 -0.000231168
-0.00161326 -0.00167192 -0.000847277 -0.000767891 -0.000192541 -0.000203855
-0.00151639 -0.00157282 -0.000783879 -0.000703801 -0.000166928 -0.000178627
-0.00141429 -0.00146822 -0.000722566 -0.00064182 -0.000143242 -0.000155285
-0.00130824 -0.00135948 -0.000663635 -0.000582249 -0.000121292 -0.000133664
-0.00119955 -0.00124793 -0.000607263 -0.000525265 -0.000100903 -0.00011361
-0.00108949 -0.00113487 -0.000553518 -0.000470939 -8.19373e-05 -9.49756e-05
-0.000979212 -0.0010215 -0.00050238 -0.000419252 -6.42818e-05 -7.76227e-05
-0.000869693 -0.000908838 -0.000453768 -0.000370121 -4.78186e-05 -6.14367e-05
-0.000761703 -0.000797681 -0.000407563 -0.000323423 -3.24323e-05 -4.63195e-05
-0.000655662 -0.000688468 -0.000363629 -0.000279025 -1.80224e-05 -3.21741e-05
-0.000551578 -0.000581224 -0.000321906 -0.000236816 -7.22389e-06 -1.92663e-05
-0.000449163 -0.000475631 -0.000282471 -0.000196989 1.4519e-06 -1.07065e-05
-0.000348295 -0.000371609 -0.000244784 -0.000158875 9.35949e-06 -2.99562e-06
-0.000249247 -0.000269408 -0.000208656 -0.000122376 1.69952e-05 4.63476e-06
-0.00015284 -0.000169902 -0.000173713 -8.70295e-05 2.43495e-05 1.15667e-05
-6.17398e-05 -7.73646e-05 -0.000139512 -5.2528e-05 3.13496e-05 1.83865e-05
-4.65277e-06 -2.96766e-05 -0.000103037 -1.57805e-05 3.76763e-05 2.48037e-05
3.74841e-05 1.555e-05 -6.85711e-05 1.59193e-05 4.43904e-05 3.12346e-05
7.68513e-05 5.42019e-05 -3.50486e-05 4.63647e-05 5.10422e-05 3.76579e-05
0.000113364 9.14347e-05 -3.42154e-06 7.57556e-05 5.77116e-05 4.40137e-05
0.000145893 0.000123022 2.38181e-05 0.000103237 6.4671e-05 5.10822e-05
0.000173984 0.000151624 4.92346e-05 0.00012896 7.20002e-05 5.80332e-05
0.000197861 0.000174966 7.25536e-05 0.000152372 7.97414e-05 6.58371e-05
0.000217276 0.000194347 9.33378e-05 0.000173322 8.79629e-05 7.3817e-05
0.0002323 0.000209186 0.000111318 0.000191454 9.66738e-05 8.25434e-05
0.000243291 0.000220106 0.000126326 0.000206511 0.000105864 9.1638e-05
0.000250486 0.000227218 0.000138112 0.00021834 0.000115482 0.000101277
0.000254172 0.000230991 0.000146539 0.000226793 0.000125437 0.000111225
0.0002546 0.000231496 0.000151621 0.000231859 0.000135584 0.000121417
0.000251701 0.000228533 0.000153322 0.000233454 0.000145756 0.000131665
0.000245594 0.000222304 0.000151803 0.00023181 0.000155731 0.000141743
0.000236579 0.000213053 0.000147348 0.000227181 0.000165261 0.000151404
0.000224934 0.000201064 0.000140285 0.000219893 0.000174078 0.000160361
0.000210984 0.000186692 0.000130963 0.000210313 0.000181897 0.000168338
0.000195148 0.000170336 0.000119761 0.000198832 0.000188433 0.000175042
0.000177169 0.000151883 0.000107137 0.000185914 0.000193415 0.000180196
0.000157155 0.000131334 9.35014e-05 0.000171979 0.000196604 0.000183543
0.000136392 0.000110027 7.90671e-05 0.000157254 0.000197796 0.000184875
0.000116322 8.94164e-05 6.39499e-05 0.000141872 0.000196544 0.000183788
9.81102e-05 7.07336e-05 4.82469e-05 0.000125942 0.000192324 0.00017965
8.24473e-05 5.46861e-05 3.21779e-05 0.000109665 0.000185002 0.00017241
6.95659e-05 4.15197e-05 1.59741e-05 9.32843e-05 0.000174564 0.000162036
5.92488e-05 3.10049e-05 -1.10545e-07 7.70706e-05 0.000161075 0.000148537
5.09547e-05 2.25659e-05 -1.67903e-05 6.13148e-05 0.000144669 0.00013205
4.39742e-05 1.5503e-05 -3.34841e-05 4.62193e-05 0.00012549 0.000112762
3.78106e-05 9.26205e-06 -4.93893e-05 3.1904e-05 0.000103823 9.09558e-05
3.21995e-05 3.57893e-06 -6.44507e-05 1.8364e-05 8.0044e-05 6.69886e-05
2.698e-05 -1.70938e-06 -7.87581e-05 5.54474e-06 5.45761e-05 4.12862e-05
2.20059e-05 -6.75671e-06 -9.24561e-05 -6.68715e-06 2.78887e-05 1.43465e-05
1.72466e-05 -1.17966e-05 -0.000105699 -1.9723e-05 5.14178e-07 -1.32952e-05
1.27798e-05 -1.67903e-05 -0.000118479 -3.24597e-05 -2.81519e-05 -4.35481e-05
8.93389e-06 -2.11367e-05 -0.000131412 -4.52005e-05 -5.76325e-05 -7.37532e-05
6.05791e-06 -2.43192e-05 -0.000144727 -5.83957e-05 -8.62044e-05 -0.000102407
4.58733e-06 -2.58956e-05 -0.000158605 -7.22064e-05 -0.000113319 -0.000129911
5.01356e-06 -2.52717e-05 -0.0001732 -8.67969e-05 -0.000138563 -0.000155183
7.86879e-06 -2.18372e-05 -0.00018857 -0.000102203 -0.000161385 -0.000178122
1.36708e-05 -1.50046e-05 -0.000204584 -0.000118276 -0.000181508 -0.000198421
2.28995e-05 -4.90053e-06 -0.000220955 -0.000134789 -0.000198768 -0.000215722
3.60221e-05 8.924e-06 -0.000237292 -0.000151332 -0.000213083 -0.000229994
5.3559e-05 2.72854e-05 -0.000253081 -0.000167325 -0.000224357 -0.000241185
7.08292e-05 4.38046e-05 -0.000267317 -0.000181351 -0.000232621 -0.000249462
7.74666e-05 5.29785e-05 -0.000277106 -0.000191203 -0.000238255 -0.000255175
8.80994e-05 6.41519e-05 -0.000284464 -0.00019879 -0.000241096 -0.000257869
0.000100872 7.83749e-05 -0.000288864 -0.000202972 -0.000241203 -0.000257946
0.000115845 9.43508e-05 -0.000289666 -0.000203572 -0.00023857 -0.000255252
0.000132771 0.000112664 -0.00028629 -0.000200016 -0.000233282 -0.000249983
0.000151462 0.000132495 -0.000278476 -0.000192048 -0.000225547 -0.0002423
0.000171663 0.000153974 -0.000266066 -0.000179362 -0.000215541 -0.000232279
0.000193061 0.000176473 -0.000248898 -0.000161855 -0.000203331 -0.000220113
0.000215221 0.0001997 -0.000226932 -0.000139576 -0.000188972 -0.00020585
0.000237705 0.000223096 -0.000200357 -0.000112667 -0.000172551 -0.000189543
0.000260027 0.000246229 -0.000169507 -8.14307e-05 -0.000154111 -0.000171212
0.000278944 0.000267467 -0.000135241 -4.64994e-05 -0.000133507 -0.000150801
0.000293432 0.000280864 -9.75389e-05 -8.4377e-06 -0.000110871 -0.000128256
0.000304566 0.000291052 -5.65e-05 2.90293e-05 -8.6186e-05 -0.000103747
0.000311766 0.000297524 -1.34974e-05 6.80467e-05 -5.93572e-05 -7.69502e-05
0.000315523 0.000300564 2.62461e-05 0.000108208 -3.02786e-05 -4.81078e-05
0.000316345 0.000300619 6.55565e-05 0.000147975 -3.44583e-06 -1.76682e-05
0.000314419 0.00029811 0.000102729 0.000185618 2.01707e-05 4.46496e-06
0.000309857 0.000292947 0.000137565 0.000220753 4.44975e-05 2.93043e-05
0.000303121 0.00028556 0.000168957 0.000252349 7.01958e-05 5.50106e-05
0.00029444 0.000276197 0.000196183 0.000279798 9.74168e-05 8.20284e-05
0.000283894 0.000264997 0.000218829 0.000302501 0.000125496 0.000109942
0.00027165 0.00025209 0.000236593 0.000320166 0.000153974 0.000138591
0.000258059 0.000237868 0.000249271 0.000332663 0.000182506 0.00016745
0.000243679 0.000222903 0.000256902 0.000340061 0.000210818 0.000195908
0.000229086 0.000207785 0.000259752 0.000342562 0.000238262 0.000223471
0.000214675 0.000192916 0.000258232 0.000340616 0.000264105 0.000249558
0.000200669 0.000178525 0.000252901 0.00033483 0.000287721 0.000273557
0.000187259 0.000164793 0.000244452 0.000325912 0.000308606 0.000294757
0.000174689 0.000151965 0.000233631 0.000314614 0.000326177 0.000312558
0.000163278 0.000140356 0.000221166 0.000301694 0.000339815 0.000326424
0.000153398 0.000130336 0.000207751 0.000287878 0.000349018 0.000335893
0.00014537 0.000122228 0.000194026 0.000273817 0.000353456 0.000340551
0.000139383 0.000116216 0.00018052 0.000260061 0.000352582 0.000339845
0.00013545 0.000112318 0.000167521 0.000246907 0.000345356 0.000332561
0.000133384 0.000110325 0.000155374 0.000234692 0.000331575 0.000318728
0.000132905 0.00010995 0.000144238 0.000223581 0.000311464 0.000298533
0.000133762 0.000110932 0.000134101 0.000213566 0.00028547 0.000272299
0.000135792 0.000113102 0.000124792 0.000204469 0.000254142 0.00024058
0.000138851 0.000116315 0.000116004 0.000195953 0.000218121 0.000204123
0.000142687 0.000120317 0.000107317 0.000187591 0.000178219 0.000163773
0.000146827 0.000124627 9.82642e-05 0.000178897 0.00013539 0.000120455
0.000150671 0.000128637 8.83518e-05 0.000169355 9.06438e-05 7.51631e-05
0.000153673 0.000131787 7.70733e-05 0.000158429 4.49792e-05 2.89528e-05
0.000155386 0.000133625 6.39342e-05 0.000145606 -6.03059e-07 -1.71278e-05
0.000155233 0.000133551 4.93892e-05 0.000131284 -4.52154e-05 -6.19631e-05
0.000152837 0.000131169 3.20294e-05 0.000114192 -8.76891e-05 -0.000105741
0.000147374 0.000125654 1.19064e-05 9.42394e-05 -0.000127633 -0.000146096
0.00013799 0.000116139 -1.13487e-05 7.13459e-05 -0.000164564 -0.000183398
0.000124183 0.000102073 -3.99033e-05 4.55765e-05 -0.000197847 -0.000216377
0.000105859 8.33828e-05 -7.13741e-05 1.70806e-05 -0.000226678 -0.000245231
8.34839e-05 6.05535e-05 -0.000105469 -1.51733e-05 -0.000250822 -0.000269571
5.78092e-05 3.43291e-05 -0.000141777 -5.20495e-05 -0.000270417 -0.000289089
2.96948e-05 5.60065e-06 -0.000179902 -9.06009e-05 -0.0002856 -0.000304007
1.67163e-07 -2.6559e-05 -0.000219192 -0.000130474 -0.000296343 -0.000314268
-3.06465e-05 -5.97351e-05 -0.000258531 -0.000170598 -0.000302866 -0.000320512
-6.01207e-05 -8.81287e-05 -0.000296967 -0.00020948 -0.000305693 -0.000323115
-8.87319e-05 -0.000115918 -0.000333942 -0.000247045 -0.00030498 -0.000321879
-0.000115335 -0.00014169 -0.00036844 -0.000282075 -0.000301109 -0.000317479
-0.00013928 -0.000164955 -0.000399429 -0.000313582 -0.000294607 -0.000310531
-0.000160168 -0.000185183 -0.000425968 -0.000340589 -0.000286164 -0.000301748
-0.000177422 -0.000201869 -0.000447197 -0.000362245 -0.000276515 -0.00029173
-0.000190412 -0.000214479 -0.000462417 -0.000377807 -0.000266239 -0.000281056
-0.000198644 -0.000222454 -0.000471101 -0.00038672 -0.00025575 -0.000270308
-0.000201682 -0.000225393 -0.00047286 -0.000388623 -0.00024543 -0.000259859
-0.000199113 -0.000222803 -0.000467461 -0.000383236 -0.000235619 -0.000249995
-0.000190875 -0.000214419 -0.000454816 -0.000370463 -0.000226501 -0.000240879
-0.000177565 -0.000200895 -0.000435084 -0.000350464 -0.000218055 -0.000232538
-0.000160139 -0.000183179 -0.000408635 -0.000323614 -0.000210151 -0.000224866
-0.000139585 -0.000162313 -0.00037605 -0.000290506 -0.000202565 -0.000217596
-0.000116774 -0.000139187 -0.000338141 -0.000251973 -0.000194957 -0.000210352
-9.24743e-05 -0.000114575 -0.000295918 -0.000209048 -0.000186869 -0.00020267
-6.72866e-05 -8.9089e-05 -0.000250547 -0.000162928 -0.000177782 -0.000194027
-4.16766e-05 -6.31952e-05 -0.000203304 -0.000114917 -0.000167164 -0.000183862
-1.65431e-05 -4.03542e-05 -0.000155696 -6.69625e-05 -0.000154453 -0.000171499
7.67662e-06 -1.44008e-05 -0.000109544 -2.03747e-05 -0.00013913 -0.000156479
3.00321e-05 8.03089e-06 -6.51021e-05 2.11106e-05 -0.000120935 -0.000138549
5.1247e-05 2.89297e-05 -2.31911e-05 5.92448e-05 -9.96803e-05 -0.00011746
7.0636e-05 4.75843e-05 1.2476e-05 9.4056e-05 -7.51799e-05 -9.2955e-05
8.80002e-05 6.48763e-05 4.33537e-05 0.000125349 -4.76075e-05 -6.5482e-05
0.00010471 8.1201e-05 6.99311e-05 0.000151997 -1.78354e-05 -3.4725e-05
0.000121197 9.74883e-05 9.15252e-05 0.000173672 6.7229e-06 -7.70415e-06
0.000130769 0.000108554 0.000109481 0.000191167 3.19169e-05 1.82731e-05
0.000137422 0.000116357 0.000123358 0.000204918 5.80825e-05 4.44129e-05
0.000142324 0.000121519 0.000133212 0.000214938 8.51611e-05 7.17393e-05
0.000146889 0.000126945 0.000139495 0.000221002 0.00011228 9.87465e-05
0.000151859 0.000132509 0.000142581 0.00022404 0.000138743 0.000125503
0.000158055 0.000139822 0.000143111 0.000224428 0.000163923 0.000150991
0.000166444 0.000149276 0.000141846 0.000223041 0.000187379 0.000174734
0.000177516 0.000161569 0.000139573 0.000220666 0.000208452 0.000195909
0.000191503 0.00017687 0.000137183 0.000218252 0.000226464 0.000214072
0.000208556 0.000195231 0.000135607 0.000216644 0.000240851 0.000228652
0.000228629 0.000216569 0.00013564 0.000216704 0.000251261 0.000239201
0.000251493 0.000240614 0.000137972 0.000219132 0.000257415 0.000245369
0.000276823 0.000266981 0.000143166 0.000224486 0.000259072 0.000246973
0.000304329 0.00029534 0.000151467 0.000232995 0.000255551 0.000243291
0.000333795 0.00032548 0.000162929 0.000244721 0.000246814 0.000234331
0.000364985 0.000357153 0.00017741 0.000259513 0.000233221 0.000220444
0.00039754 0.000390015 0.000194561 0.000277032 0.000215336 0.000202154
0.000430966 0.000423594 0.000213867 0.000296743 0.000193847 0.000180168
0.000463412 0.00045561 0.000234848 0.0003183 0.00016952 0.000155275
0.000493454 0.000485273 0.000256809 0.000340844 0.000143267 0.000128441
0.000522381 0.000512896 0.000278731 0.000363322 0.000116104 0.000100675
0.000551105 0.000542919 0.000300007 0.000385285 8.89546e-05 7.287e-05
0.000577955 0.000570068 0.000318889 0.000404853 6.29943e-05 4.63363e-05
0.000602902 0.000595882 0.000334322 0.000420831 3.91342e-05 2.19561e-05
0.000626569 0.000620091 0.000345589 0.000432541 1.82037e-05 6.23955e-07
0.000648928 0.000643116 0.000352089 0.00043936 1.01675e-06 -1.68823e-05
0.000669954 0.000664869 0.00035364 0.000441133 -1.13629e-05 -2.98232e-05
0.00068967 0.000685338 0.000350211 0.000437693 -1.89682e-05 -3.89428e-05
0.00069894 0.000697544 0.000343056 0.000429949 -2.35514e-05 -4.35734e-05
0.000701629 0.000701593 0.000332056 0.000418952 -2.37791e-05 -4.37602e-05
0.000700005 0.000699952 0.000317564 0.000404367 -1.93259e-05 -3.89593e-05
0.000695465 0.000696333 0.000300298 0.000386812 -1.18114e-05 -2.9724e-05
0.000688672 0.00068957 0.000280785 0.000367103 -2.05177e-06 -1.79219e-05
0.000680227 0.000681809 0.000260144 0.000346132 9.66525e-06 -6.10996e-06
0.000671189 0.00067305 0.000239473 0.000325004 2.30164e-05 7.79596e-06
0.000662339 0.000664629 0.000219699 0.000304887 3.7429e-05 2.25062e-05
0.000654563 0.000657269 0.000201881 0.000286774 5.22908e-05 3.76645e-05
0.00064884 0.000651984 0.000187056 0.000271639 6.68876e-05 5.24628e-05
0.000646031 0.000649651 0.000176045 0.000260378 8.05977e-05 6.64488e-05
0.000646931 0.00065111 0.000169529 0.000253726 9.29485e-05 7.90114e-05
0.000652234 0.000657052 0.000168092 0.000252256 0.000103591 8.97491e-05
0.000662434 0.000667991 0.000172119 0.000256331 0.000112208 9.83643e-05
0.000677811 0.000684232 0.000181773 0.00026615 0.000118597 0.000104707
0.000698433 0.000705832 0.000197032 0.000281696 0.000122725 0.00010874
0.000724078 0.00073263 0.000217685 0.000302746 0.000124724 0.000110544
0.000754325 0.00076422 0.000243284 0.000328855 0.00012471 0.000110222
0.000788754 0.000799834 0.000273257 0.000359396 0.000122889 0.000108016
0.000826438 0.000838799 0.000306953 0.000393716 0.000119722 0.000104447
0.00086573 0.00087916 0.000343623 0.000431151 0.000115805 0.000100061
0.000903985 0.000918369 0.000382563 0.00047088 0.000111762 9.55133e-05
0.000939656 0.000954897 0.000422798 0.000511932 0.000108271 9.14873e-05
0.00097141 0.000987349 0.000463238 0.000553186 0.000106006 8.87238e-05
0.000998362 0.00101485 0.000502716 0.000593449 0.000105648 8.7903e-05
0.00102004 0.00103688 0.000540047 0.000631493 0.000107826 8.96706e-05
0.001036 0.00105303 0.000574102 0.000666166 0.000113059 9.45665e-05
0.00104564 0.00106267 0.000603904 0.000696476 0.000121732 0.000103005
0.00104809 0.00106492 0.000628678 0.000721623 0.00013405 0.000115227
0.00104261 0.00105901 0.000647577 0.000740767 0.000148386 0.000129613
0.00102865 0.00104438 0.00066037 0.000753609 0.000165745 0.000147202
0.00100586 0.00102063 0.000666802 0.000759919 0.000186159 0.000167724
0.000973849 0.00098738 0.000666847 0.000759702 0.000209212 0.000191024
0.000932391 0.000944381 0.000660689 0.000753147 0.000234385 0.000216366
0.000881606 0.00089176 0.000648624 0.000740523 0.000260914 0.000243301
0.000822057 0.000830091 0.000631012 0.000722251 0.000288096 0.00027094
0.000754757 0.000760422 0.000608291 0.00069878 0.000315154 0.000298505
0.000681052 0.000684143 0.000580954 0.000670617 0.000341237 0.000325061
0.000602383 0.000602746 0.000549545 0.000638331 0.000365398 0.000349754
0.000520209 0.000517743 0.000514644 0.000602528 0.000386742 0.000371667
0.000436083 0.000430744 0.000476841 0.000563821 0.000404433 0.00038992
0.000351685 0.000343486 0.000436706 0.000522795 0.000417688 0.00040369
0.000268693 0.000257703 0.000394779 0.000480016 0.000425769 0.000412253
0.000188524 0.000174863 0.000351592 0.000436033 0.000428047 0.000414989
0.000112187 9.60042e-05 0.000307607 0.000391336 0.000423544 0.000410926
4.02774e-05 2.17527e-05 0.000263266 0.000346368 0.000411549 0.000399184
-2.24251e-05 -3.81179e-05 0.000219941 0.000304015 0.000391563 0.000379122
-8.06308e-05 -8.99752e-05 0.000178129 0.000260616 0.000363741 0.000351605
-0.000119771 -0.000133124 0.000134327 0.000216731 0.000328775 0.000316536
-0.000156401 -0.000167937 9.07346e-05 0.000173355 0.000286659 0.000274239
-0.000187504 -0.000199564 4.86866e-05 0.000131087 0.000237992 0.000225347
-0.000213905 -0.000225842 7.74758e-06 9.00064e-05 0.000183398 0.000170331
-0.000236277 -0.00024809 -3.49157e-05 4.98461e-05 0.00012381 0.000110494
-0.000254571 -0.00026645 -7.81315e-05 1.10571e-05 6.01607e-05 4.62506e-05
-0.000269883 -0.00028197 -0.000120157 -2.94409e-05 -6.39288e-06 -2.06932e-05
-0.000283822 -0.000295973 -0.000159155 -6.81459e-05 -7.36378e-05 -8.61806e-05
-0.000297009 -0.000309375 -0.000197569 -0.000106551 -0.000138115 -0.000152254
-0.000311006 -0.000323683 -0.00023523 -0.000143905 -0.000202181 -0.000217064
-0.000327196 -0.0003401 -0.00027223 -0.000180726 -0.000265544 -0.000281496
-0.000346621 -0.000359724 -0.000309005 -0.000217609 -0.000326928 -0.000342079
-0.000370129 -0.000383476 -0.000346071 -0.000254526 -0.000384468 -0.000400044
-0.000398256 -0.000411742 -0.000383667 -0.000291953 -0.000437205 -0.00045363
-0.000431204 -0.000444738 -0.000422048 -0.000330402 -0.000484972 -0.000501785
-0.000468997 -0.000482492 -0.000461587 -0.000369992 -0.000527247 -0.000544028
-0.000511544 -0.000524825 -0.000502515 -0.000410984 -0.000563087 -0.000579647
-0.000558589 -0.0005715 -0.000544844 -0.000453431 -0.00059186 -0.000608597
-0.000614332 -0.00062375 -0.000589297 -0.000497728 -0.000613466 -0.000630407
-0.000676018 -0.000688625 -0.000635919 -0.000545041 -0.00062813 -0.00064463
-0.000740596 -0.000755111 -0.000683172 -0.000593308 -0.000636086 -0.000651961
-0.000808129 -0.00082537 -0.00073031 -0.000641131 -0.000637103 -0.000652564
-0.000878386 -0.000897585 -0.000776417 -0.000688159 -0.000630865 -0.000645745
-0.000950288 -0.000972075 -0.000820623 -0.000733339 -0.000618128 -0.000632235
-0.00102341 -0.0010477 -0.000862103 -0.000775694 -0.000599828 -0.000613182
-0.00109699 -0.0011238 -0.000899959 -0.000814462 -0.00057693 -0.000589509
-0.00117005 -0.00119949 -0.000933361 -0.000848818 -0.000550541 -0.00056237
-0.00124185 -0.00127401 -0.000961721 -0.000878034 -0.000521777 -0.000532868
-0.00131163 -0.00134647 -0.000984514 -0.000901598 -0.000491672 -0.000502044
-0.00137833 -0.0014159 -0.00100137 -0.000919188 -0.000461175 -0.000470924
-0.00144088 -0.00148114 -0.0010122 -0.000930683 -0.000431176 -0.000440381
-0.00149823 -0.00154109 -0.00101714 -0.000936159 -0.000402448 -0.000411186
-0.0015495 -0.00159485 -0.00101643 -0.000935881 -0.000375621 -0.000383981
-0.00159419 -0.00164186 -0.00101048 -0.000930263 -0.00035118 -0.000359262
-0.0016323 -0.00168211 -0.000999799 -0.00091982 -0.000329491 -0.000337394
-0.00166436 -0.00171616 -0.00098501 -0.000905158 -0.000310787 -0.000318597
-0.00169132 -0.00174498 -0.000966801 -0.000886991 -0.000295161 -0.000302958
-0.00171431 -0.00176972 -0.000945973 -0.000866143 -0.000282576 -0.000290435
-0.0017345 -0.0017916 -0.000923444 -0.000843541 -0.000272886 -0.000280869
-0.00175294 -0.00181168 -0.000900233 -0.00082022 -0.000265845 -0.000273995
-0.00177047 -0.00183082 -0.000877433 -0.000797295 -0.000261128 -0.000269471
-0.00178778 -0.00184969 -0.000856172 -0.000775914 -0.000258359 -0.000266905
-0.00180542 -0.00186886 -0.000837563 -0.000757202 -0.000257146 -0.000265885
-0.00182392 -0.00188882 -0.00082264 -0.000742208 -0.000257109 -0.000266014
-0.00184365 -0.00190994 -0.000812324 -0.00073187 -0.000257905 -0.000266934
-0.00186486 -0.00193244 -0.000807385 -0.000726971 -0.000259256 -0.000268355
-0.00188758 -0.00195635 -0.000808418 -0.000728111 -0.00026097 -0.000270073
-0.00191169 -0.00198151 -0.000815804 -0.000735677 -0.000262951 -0.000271989
-0.00193689 -0.00200762 -0.000829692 -0.000749816 -0.000265216 -0.000274118
-0.00196275 -0.00203421 -0.000849985 -0.000770427 -0.000267894 -0.000276589
-0.00198819 -0.00205992 -0.000876376 -0.000797252 -0.000271217 -0.000279637
-0.00200824 -0.00208018 -0.000908853 -0.000830298 -0.000275446 -0.000283512
-0.00202219 -0.00209394 -0.000946506 -0.000868561 -0.000281049 -0.000288718
-0.00202988 -0.0021012 -0.000988064 -0.000910786 -0.000288553 -0.000295782
-0.00203148 -0.00210216 -0.00103198 -0.000955425 -0.000298521 -0.000305316
-0.00202712 -0.00209696 -0.00107664 -0.0010008 -0.000311524 -0.00031791
-0.00201668 -0.00208549 -0.00112038 -0.00104521 -0.000328075 -0.0003341
-0.00199985 -0.00206746 -0.00116161 -0.00108702 -0.000348567 -0.000354323
-0.00197611 -0.00204234 -0.00119886 -0.00112474 -0.000373259 -0.000378855
-0.00194467 -0.00200937 -0.00123086 -0.00115708 -0.000402245 -0.000407802
-0.00190449 -0.00196748 -0.00125657 -0.00118297 -0.000435415 -0.000441065
-0.00185435 -0.00191541 -0.0012752 -0.00120162 -0.000472446 -0.000478331
-0.00179306 -0.00185196 -0.00128617 -0.00121246 -0.000512815 -0.000519077
-0.00171963 -0.00177609 -0.00128912 -0.00121512 -0.000555809 -0.000562577
-0.00163327 -0.001687 -0.00128385 -0.0012094 -0.00060053 -0.000607925
-0.00153363 -0.00158432 -0.00127031 -0.00119528 -0.000645932 -0.00065406
-0.00142116 -0.00146849 -0.00124741 -0.00117177 -0.000682853 -0.000691817
-0.00129656 -0.0013403 -0.00121654 -0.00114008 -0.000717009 -0.000727538
-0.00116141 -0.00120126 -0.00117762 -0.00110014 -0.000748949 -0.000760455
-0.00101751 -0.00105326 -0.00113085 -0.00105237 -0.000778034 -0.000790449
-0.000866763 -0.000898196 -0.00107665 -0.000997157 -0.000802888 -0.000815514
-0.000710838 -0.000737829 -0.00101551 -0.000934845 -0.00082201 -0.000835576
-0.000551086 -0.000573527 -0.000947888 -0.000866035 -0.000834539 -0.000849272
-0.00038858 -0.000406375 -0.000874388 -0.000791416 -0.00083997 -0.000855506
-0.000228733 -0.000251795 -0.000795436 -0.000709968 -0.000836967 -0.000853401
-0.000115752 -0.000129714 -0.000706136 -0.000618716 -0.00082383 -0.000841043
-4.94181e-06 -2.28844e-05 -0.000614199 -0.000528955 -0.000798082 -0.000815742
8.43986e-05 6.62e-05 -0.000523075 -0.000435839 -0.000759569 -0.00077799
0.000170066 0.000152799 -0.000431139 -0.000342558 -0.000708722 -0.000727383
0.000253238 0.000234637 -0.000337158 -0.000248707 -0.000645356 -0.000663843
0.000331254 0.000312735 -0.000243423 -0.000154527 -0.000569783 -0.000588421
0.000404028 0.000386118 -0.000150634 -6.0952e-05 -0.000482767 -0.000501177
0.000472484 0.000454838 -5.81687e-05 2.62319e-05 -0.000385253 -0.000403277
0.000539768 0.000526959 2.95717e-05 0.000112494 -0.000278622 -0.000296763
0.00060551 0.00059577 0.00011332 0.000195629 -0.000164416 -0.000181558
0.000665891 0.000658392 0.00019528 0.000278672 -4.38742e-05 -6.06674e-05
0.000722134 0.000718003 0.000273448 0.000357862 4.87371e-05 3.39417e-05
0.000775612 0.000774362 0.00035009 0.000434957 0.000134458 0.000120883
0.000827475 0.000828872 0.00042529 0.000510453 0.000220825 0.000207913
0.000878866 0.000883441 0.000498816 0.000584476 0.000307685 0.000295716
0.000931627 0.000939113 0.000571262 0.000657917 0.000393614 0.000379555
0.000986887 0.000997717 0.000642952 0.000729973 0.000475896 0.000462393
0.00104584 0.00106017 0.000713867 0.000801626 0.000553457 0.000540132
0.0011095 0.0011277 0.000784196 0.000872765 0.000626148 0.000613541
0.00117852 0.00120085 0.000854187 0.000943719 0.000693367 0.000679889
0.00125336 0.00128024 0.000924023 0.00101454 0.000753622 0.00073975
0.00133444 0.00136617 0.000993693 0.0010853 0.000805903 0.000791959
0.00142245 0.0014592 0.00106051 0.00115416 0.000828007 0.000814918
0.00151687 0.00156006 0.00112472 0.00121882 0.000829285 0.000809667
0.00161724 0.00166586 0.00119042 0.00128548 0.000829345 0.000812287
0.00172221 0.00177746 0.00125562 0.00135241 0.000831176 0.00081236
0.00183137 0.00189304 0.00132076 0.00141935 0.000835268 0.000813001
0.00194346 0.0020119 0.00138523 0.00148557 0.000837776 0.000813998
0.0020576 0.00213289 0.00144803 0.0015499 0.000835462 0.000812429
0.00217286 0.00225516 0.00150756 0.00161142 0.000826087 0.000802473
0.00228819 0.00237758 0.0015635 0.00166917 0.000810844 0.000785895
0.00240204 0.00249907 0.00161526 0.00172267 0.000790109 0.000763669
0.00247818 0.00258325 0.00166635 0.00177603 0.000763931 0.000736897
0.00254919 0.00266282 0.00171193 0.00182357 0.000735039 0.000707126
0.0026136 0.0027359 0.0017499 0.00186307 0.000704737 0.000675838
0.00266798 0.00280084 0.00177973 0.00189562 0.000674113 0.000643713
0.00227375 -0.000718309 0.00153453 0.00115692 0.000707333 0.000763442
0.00243474 0.000273034 0.00159154 0.0015745 0.000650614 0.000613537
0.00249585 0.000107049 0.00162479 0.00143914 0.000598975 0.000646216
0.0025565 1.44242e-05 0.00166372 0.00144332 0.000556827 0.000575852
0.00264897 0.000162487 0.00169143 0.00147357 0.000481016 0.000520806
0.00271489 5.12276e-05 0.00169809 0.0014736 0.000425801 0.000469242
0.00281093 0.00013626 0.00175839 0.00149964 0.000366431 0.000392798
0.00289445 9.56124e-05 0.00180486 0.00151083 0.000300448 0.000342937
0.00298491 0.000123874 0.0018357 0.00154625 0.00022745 0.000274872
0.00305651 0.000114932 0.00179616 0.00155984 0.000177122 0.000219887
-0.000485769 6.38463e-05 0.00138033 0.00140351 0.000255483 0.000185271
-0.000851727 0.00022615 0.00129483 0.00148105 0.000164105 0.000120025
0.000121489 5.38121e-05 0.00158324 0.0015854 4.88234e-05 6.00245e-05
-0.000174517 0.000101347 0.00157966 0.00165359 4.78506e-06 -1.60128e-05
-0.000609807 0.000150348 0.00156555 0.00171339 -1.89781e-05 -6.41898e-05
-0.000254462 9.38648e-05 0.00172297 0.00173727 -8.88414e-05 -9.2658e-05
-0.000184934 0.000111035 0.0016784 0.00172585 -0.00011927 -0.000131403
-0.000411089 0.00013007 0.0016612 0.00170732 -0.000134086 -0.000152055
-0.000363667 0.000132184 0.00165706 0.00170346 -0.000149422 -0.000177363
-0.000251198 0.000121723 0.00165832 0.00170224 -0.00016967 -0.00018834
-0.000324149 0.000133268 0.00166144 0.00170375 -0.000180592 -0.000191723
-0.000351165 0.000137842 0.0016685 0.00171528 -0.000177473 -0.000196669
-0.000312825 0.000135172 0.00168498 0.00172936 -0.000165402 -0.0001874
-0.000304161 0.000136207 0.00170857 0.00174991 -0.000146053 -0.000167587
-0.000331154 0.000139764 0.00173586 0.00177764 -0.000118509 -0.000137452
-0.000330151 0.000140809 0.00176768 0.00181029 -7.93422e-05 -9.74161e-05
-0.000313365 0.000139985 0.00180697 0.00184929 -2.79751e-05 -5.00723e-05
-0.000318006 0.000141451 0.00185213 0.00189275 2.08649e-05 1.55795e-06
-0.000327436 0.0001433 0.00189961 0.00194018 7.22673e-05 5.46404e-05
-0.000322273 0.00014373 0.00195095 0.00199314 0.000129906 0.000112948
-0.000317709 0.000144363 0.0020073 0.00204891 0.000195089 0.000176722
-0.000322189 0.000145849 0.00206673 0.00210776 0.000264883 0.000244852
-0.000324321 0.000146843 0.00212427 0.00216028 0.000336757 0.000316336
-0.000321385 0.000147081 0.00217767 0.00217802 0.000403634 0.000377556
-0.000320328 0.000150296 0.00222878 0.00219771 0.000472455 0.000441469
-0.000323034 0.000155565 0.002282 0.00223424 0.000546807 0.000513483
-0.000326256 -3.75705e-05 0.00193448 -0.000601443 0.000417358 0.000119833
-0.000282891 0.000701345 0.00196031 -0.000566492 0.000453095 0.000338493
-0.000353185 -8.04509e-05 0.00207698 0.000207911 0.000640251 0.000496312
-0.000289468 0.000362856 0.00216946 -0.00033508 0.00070099 0.00047088
-0.000319235 0.000302452 0.00224236 -0.000384638 0.00078087 0.000575486
-0.000343061 0.000177111 0.00232119 -5.75804e-05 0.000875919 0.000677599
-0.000308199 0.000290617 0.00239211 -0.000344393 0.00089503 0.000729117
-0.000319766 0.000267088 0.00246049 -0.000284298 0.000915805 0.000776053
-0.000336413 0.000228433 0.00252105 -0.000211883 0.000923444 0.000843747
-0.000323721 0.000272623 0.00258403 -0.000316149 0.000922194 0.000893878
-0.000324942 0.000262627 0.00264884 -0.000289954 0.000927088 0.000956282
-0.000334112 0.000238291 0.00270522 -0.000263019 0.000937851 0.000941035
-0.000329496 0.000256058 0.00275319 -0.000285994 0.000950171 0.000948706
-0.0005562 0.000257353 0.00102492 -0.000320798 0.000697482 0.000925694
4.18692e-05 0.000242212 -0.000637149 -0.00025222 0.000624019 0.000915925
-7.38884e-05 0.000195658 -0.000684193 -0.00017877 0.000725846 0.000951633
-0.000311875 0.000240831 0.000113834 -0.000293895 0.000944211 0.000947247
-0.000246869 0.000252148 0.000323517 -0.000362472 0.000987165 0.000997143
-0.000140077 0.000220188 -0.000216629 -0.000275054 0.000924431 0.000990909
-0.000136638 0.000209161 -0.00052157 -0.00023691 0.000980391 0.000968484
-0.000160779 0.000223542 -0.00019417 -0.000301734 0.00112775 0.000963286
-0.000200582 0.000222545 5.40277e-05 -0.000332526 0.0010808 0.000982804
-0.000218264 0.000218208 -0.000110249 -0.000353156 0.000738308 0.000190647
-0.000164771 0.000198975 -0.000302765 -0.000165233 0.00080717 0.000259108
-0.000133709 0.000152204 -0.000261244 -0.000321901 0.000945136 0.000156892
-0.000182164 0.000240558 -0.000125471 -0.000330446 0.00104732 0.000222478
-0.000205715 0.000178405 -0.0001246 -0.000327373 0.00106446 0.000228967
-0.000155449 0.000173024 -0.000227258 -0.000272755 0.00106757 0.000185977
-0.000136967 0.000192585 -0.000263703 -0.000339208 0.00112161 0.00022816
-0.000165973 0.000182774 -0.000207677 -0.000321611 0.00114577 0.000176872
-0.000173278 0.000170151 -0.00016912 -0.000314056 0.00112611 0.000204945
-0.000151795 0.000176735 -0.000201696 -0.000332349 0.00111419 0.000193501
-0.000141846 0.000174934 -0.000242153 -0.000332378 0.0011426 0.000196537
-0.000143793 0.000165265 -0.000229831 -0.000322884 0.00117629 0.000173475
-0.000145964 0.000166287 -0.000206819 -0.000331331 0.00117997 0.000174492
-0.000142544 0.000167921 -0.000210163 -0.000339291 0.00116978 0.00017616
-0.000127774 0.000166538 -0.000261869 -0.00032699 0.000321585 -1.71953e-05
-0.000160064 0.000143398 -0.000164366 -0.00030854 0.000165179 9.3264e-05
-0.000149674 0.000168876 -0.000148167 -0.000360573 0.00022341 0.000169967
-0.000133087 0.000157431 -0.000219673 -0.000365369 0.000291403 0.000108752
-0.000128938 0.00014883 -0.000266851 -0.000315083 0.000301665 0.000116043
-0.000128545 0.000145004 -0.000234685 -0.000325882 0.000235692 0.000106773
-0.000129225 0.000150966 -0.000177182 -0.000358666 0.000204218 0.000129116
-0.000128054 0.000149499 -0.000173984 -0.000350898 0.000218908 0.000106475
-0.000118811 0.000139334 -0.000220375 -0.000324037 0.000242901 8.93221e-05
-0.000108197 0.000140736 -0.000245161 -0.000329748 0.000234719 8.43902e-05
-0.000107214 0.000142936 -0.000216829 -0.000342877 0.000207133 8.70059e-05
-0.000109558 0.000140042 -0.000180297 -0.000334644 0.00018868 7.84685e-05
-0.000104175 0.000136988 -0.000183532 -0.000324354 0.000189749 6.61079e-05
-9.42641e-05 0.000137463 -0.000211687 -0.000326262 0.000194288 5.84315e-05
-8.86958e-05 0.000137787 -0.000218759 -0.00032503 0.000187228 5.13017e-05
-8.74714e-05 0.000135766 -0.000196105 -0.000317898 0.000170912 4.37526e-05
-8.50277e-05 0.000134936 -0.00017647 -0.000315226 0.000157659 3.6637e-05
-7.91139e-05 0.000136047 -0.000181044 -0.000315038 0.000152897 2.98814e-05
-7.29055e-05 0.00013515 -0.000193863 -0.000309336 0.000151375 2.09261e-05
-6.97403e-05 0.000134784 -0.000193411 -0.000302927 0.000147203 1.36192e-05
-6.74895e-05 0.000134767 -0.000182091 -0.000299706 0.000139148 8.09461e-06
-6.53078e-05 0.00013512 -0.000169117 -0.000298581 0.0001295 3.95288e-06
-6.27976e-05 0.00013556 -0.000163193 -0.000295391 0.000121763 -7.69471e-07
-5.98857e-05 0.000135466 -0.000164822 -0.00028942 0.000117739 -6.73256e-06
-5.67785e-05 0.000135416 -0.000167674 -0.000283734 0.000116039 -1.28721e-05
-5.4159e-05 0.000135631 -0.000165674 -0.000280229 0.000113497 -1.79686e-05
-5.24511e-05 0.000135897 -0.000158447 -0.000277797 0.000108252 -2.18835e-05
-5.11905e-05 0.00013596 -0.000150641 -0.000274861 0.000101485 -2.52392e-05
-4.97299e-05 0.000135642 -0.000146818 -0.000271616 9.60835e-05 -2.84916e-05
-4.78853e-05 0.000135212 -0.00014758 -0.000269274 9.37387e-05 -3.16772e-05
-4.60631e-05 0.000134634 -0.000149898 -0.000268062 9.3484e-05 -3.46024e-05
-4.47389e-05 0.00013373 -0.000150587 -0.000267516 9.29908e-05 -3.69537e-05
-4.38833e-05 0.000132519 -0.000149255 -0.000267637 9.09897e-05 -3.84212e-05
-4.32578e-05 0.000130957 -0.00014803 -0.00026877 8.83153e-05 -3.89788e-05
-4.26384e-05 0.000129142 -0.000149226 -0.000271018 8.67886e-05 -3.89868e-05
-4.19538e-05 0.000127006 -0.000153409 -0.000273973 8.44835e-05 -4.07956e-05
-4.12263e-05 0.000124464 -0.000159083 -0.000276424 7.46918e-05 -5.27915e-05
-4.14136e-05 0.000127735 -0.000163674 -0.000281979 5.51802e-05 -7.61845e-05
-3.72934e-05 0.000118892 -0.000166375 -0.000286867 2.75404e-05 -0.000106829
-4.1847e-05 0.000110349 -0.000167531 -0.000280482 -6.42767e-06 -0.00014504
-4.69569e-05 0.000106324 -0.000168786 -0.000283713 -5.31988e-05 -0.000194689
-4.79861e-05 0.00010334 -0.000170354 -0.000291754 -0.000104469 -0.000244205
-4.76459e-05 9.62938e-05 -0.000172584 -0.000289892 -0.000150949 -0.000238961
-4.88727e-05 8.94824e-05 -0.00017814 -0.000298373 -0.000190759 -0.000243971
-5.28521e-05 8.63638e-05 -0.00018055 -0.000301996 -0.000199556 -0.000245357
-5.47666e-05 7.88946e-05 -0.000185358 -0.000307188 -0.000200576 -0.000249227
-5.52847e-05 7.23993e-05 -0.000190591 -0.000310023 -0.00020001 -0.000255918
-5.63532e-05 6.62258e-05 -0.000196203 -0.000314082 -0.000202485 -0.000261356
-5.88866e-05 6.02228e-05 -0.000200689 -0.000319067 -0.000209653 -0.000265704
-6.16643e-05 5.45844e-05 -0.000203408 -0.000322774 -0.000218596 -0.000270321
-6.36612e-05 4.8651e-05 -0.000205502 -0.000326157 -0.000225765 -0.000275929
-6.52109e-05 4.33583e-05 -0.000208426 -0.000329085 -0.000230614 -0.000282639
-6.69233e-05 3.88147e-05 -0.000212179 -0.00033169 -0.000235382 -0.000289963
-6.88022e-05 3.46909e-05 -0.000215242 -0.000333498 -0.00024227 -0.000297298
-7.00807e-05 3.21423e-05 -0.000216185 -0.000334622 -0.000251387 -0.000304733
-7.07087e-05 3.01619e-05 -0.000215188 -0.000335651 -0.000261117 -0.000312378
-7.28238e-05 2.74144e-05 -0.000212428 -0.00033269 -0.000270361 -0.000321324
-7.52709e-05 2.58362e-05 -0.000208262 -0.00032745 -0.000279196 -0.000331633
-7.68036e-05 2.50507e-05 -0.000202659 -0.000322061 -0.000288636 -0.000341739
-7.80768e-05 2.49009e-05 -0.000195454 -0.000314838 -0.000299463 -0.00035228
-7.99181e-05 2.49664e-05 -0.000186662 -0.000305533 -0.00031136 -0.000363396
-8.20409e-05 2.55635e-05 -0.000176484 -0.000295282 -0.000323473 -0.000374889
-8.38904e-05 2.67034e-05 -0.000165387 -0.000284579 -0.000335378 -0.0003868
-8.55127e-05 2.79866e-05 -0.000153913 -0.000272994 -0.000347311 -0.000399164
-8.7305e-05 2.9294e-05 -0.000142277 -0.000260745 -0.000359687 -0.000411817
-8.92803e-05 3.0781e-05 -0.000130451 -0.000248586 -0.000372608 -0.000424502
-9.12959e-05 3.22267e-05 -0.000118451 -0.000236654 -0.000385824 -0.00043725
-9.33571e-05 3.34804e-05 -0.000106623 -0.000224966 -0.000399001 -0.000450163
-9.55046e-05 3.45359e-05 -9.54855e-05 -0.000213814 -0.000412003 -0.000463183
-9.77945e-05 3.53085e-05 -8.52765e-05 -0.000203442 -0.000424922 -0.000476181
-0.000100179 3.58203e-05 -7.5977e-05 -0.000193987 -0.000437899 -0.000489098
-0.0001027 3.59191e-05 -6.74922e-05 -0.000185448 -0.000450942 -0.000501913
-0.00010546 3.56274e-05 -5.98561e-05 -0.000177956 -0.000463926 -0.000514607
-0.000108406 3.50253e-05 -5.32687e-05 -0.000171599 -0.000476725 -0.000527176
-0.000111543 3.39724e-05 -4.79404e-05 -0.000166279 -0.000489304 -0.000539618
-0.000114861 3.2578e-05 -4.41109e-05 -0.000162036 -0.000501704 -0.000551903
-0.00011837 3.08343e-05 -4.12023e-05 -0.000158842 -0.000513974 -0.000563994
-0.000122146 2.87153e-05 -3.90802e-05 -0.000156653 -0.000526104 -0.000575877
-0.000126132 2.63268e-05 -3.77419e-05 -0.000155469 -0.000538048 -0.000587555
-0.000130298 2.3617e-05 -3.72138e-05 -0.000155193 -0.000549759 -0.000599019
-0.000134599 2.0697e-05 -3.75104e-05 -0.000155838 -0.000561215 -0.000610254
-0.000138995 1.75829e-05 -3.85632e-05 -0.00015729 -0.000572427 -0.000621255
-0.000143921 1.42634e-05 -4.01887e-05 -0.000159394 -0.000583412 -0.000632019
-0.000149137 1.08765e-05 -4.22642e-05 -0.000162086 -0.000594177 -0.000642546
-0.000154453 7.37113e-06 -4.46759e-05 -0.000165196 -0.000604713 -0.000652831
-0.000160874 3.41992e-06 -5.40492e-05 -0.00018505 -0.000616207 -0.00066022
-0.000162509 7.91572e-06 -5.59804e-05 -0.000171323 -0.000626998 -0.000674694
-0.000165218 -2.41024e-06 -5.00768e-05 -0.000161152 -0.00063922 -0.00069136
-0.000170224 -3.24053e-06 -4.60626e-05 -0.00016898 -0.000650963 -0.000699774
-0.000175698 -1.56296e-06 -4.88877e-05 -0.000181164 -0.000662492 -0.00070798
-0.000179368 -3.16721e-06 -5.58298e-05 -0.000181531 -0.000673359 -0.000718528
-0.000181562 -8.61466e-06 -6.13203e-05 -0.000176443 -0.00068262 -0.000730773
-0.00018469 -9.9448e-06 -6.26884e-05 -0.000178238 -0.000690913 -0.00074072
-0.00018943 -1.08479e-05 -6.14706e-05 -0.000186563 -0.00070005 -0.000748094
-0.00019383 -1.18141e-05 -6.09274e-05 -0.000190443 -0.000710638 -0.000756049
-0.000196867 -1.43943e-05 -6.31665e-05 -0.000189136 -0.000720888 -0.000765334
-0.000199245 -1.6673e-05 -6.75443e-05 -0.000189761 -0.000728887 -0.000773938
-0.000202034 -1.79636e-05 -7.15108e-05 -0.000194111 -0.000735013 -0.000781449
-0.000205083 -1.95023e-05 -7.34116e-05 -0.000197628 -0.000741215 -0.000788681
-0.000207705 -2.17107e-05 -7.40455e-05 -0.00019852 -0.000748535 -0.000795868
-0.00020977 -2.41794e-05 -7.5404e-05 -0.000199841 -0.000756106 -0.000802094
-0.000211455 -2.60171e-05 -7.84449e-05 -0.00020314 -0.000762471 -0.000807304
-0.000212904 -2.78746e-05 -8.228e-05 -0.000206371 -0.000767163 -0.000812318
-0.000214012 -3.02134e-05 -8.54992e-05 -0.000208073 -0.000770921 -0.000817401
-0.000214747 -3.26201e-05 -8.75839e-05 -0.000209355 -0.000774724 -0.000821928
-0.000215324 -3.47754e-05 -8.89685e-05 -0.000211433 -0.00077885 -0.000825391
-0.000215688 -3.66845e-05 -9.03372e-05 -0.000213604 -0.000782765 -0.000828154
-0.000215645 -3.87171e-05 -9.18738e-05 -0.000214589 -0.000785744 -0.00083079
-0.000215203 -4.09904e-05 -9.36222e-05 -0.000215779 -0.000787648 -0.000833113
-0.000214139 -4.21523e-05 -9.49867e-05 -0.000215842 -0.000788916 -0.000835077
-0.000212725 -4.37238e-05 -9.4272e-05 -0.000214411 -0.000783253 -0.00082959
-0.000210935 -4.50505e-05 -9.19604e-05 -0.00021287 -0.000766369 -0.000811092
-0.000208504 -4.48717e-05 -8.98585e-05 -0.000212103 -0.000737801 -0.000781713
-0.000205419 -4.50303e-05 -8.84038e-05 -0.000209727 -0.000697749 -0.000741332
-0.000201691 -4.49961e-05 -8.67425e-05 -0.000205925 -0.000647117 -0.000690516
-0.000197642 -4.43367e-05 -8.38929e-05 -0.000202288 -0.000587164 -0.000629842
-0.000193483 -4.31357e-05 -7.97248e-05 -0.000198418 -0.000518813 -0.000560145
-0.000189134 -4.1855e-05 -7.49871e-05 -0.000193593 -0.000442852 -0.000482669
-0.000184458 -4.04287e-05 -7.04712e-05 -0.000188336 -0.00036034 -0.000398952
-0.000179371 -4.27855e-05 -6.63726e-05 -0.000182525 -0.000272657 -0.000310468
-0.000173836 -3.83567e-05 -6.2544e-05 -0.000177186 -0.000181719 -0.000219656
-0.000168869 -3.37372e-05 -5.87002e-05 -0.000179266 -8.92354e-05 -0.000127001
-0.000164086 -3.263e-05 -5.4626e-05 -0.000175553 -1.08434e-05 -4.17466e-05
-0.000157946 -3.15431e-05 -5.65348e-05 -0.000177266 -7.66497e-06 -5.00042e-05
-0.000154936 -3.29752e-05 -5.09851e-05 -0.000163049 -1.45869e-05 -5.48417e-05
-0.000151554 -3.56276e-05 -4.15727e-05 -0.00014868 -2.29492e-05 -5.71749e-05
-0.000149951 -3.79714e-05 -3.83882e-05 -0.000163229 -2.80472e-05 -5.97474e-05
-0.000147095 -3.54905e-05 -4.41447e-05 -0.000173548 -2.46793e-05 -5.75195e-05
-0.000143074 -3.73652e-05 -5.21519e-05 -0.000167994 -2.11054e-05 -6.45351e-05
-0.000139072 -4.48577e-05 -5.60686e-05 -0.000159719 -1.94754e-05 -6.94784e-05
-0.000136381 -4.55019e-05 -5.57016e-05 -0.000163871 -2.12157e-05 -7.00198e-05
-0.000135077 -4.62861e-05 -5.5025e-05 -0.000174713 -2.46667e-05 -6.73168e-05
-0.00013329 -4.98011e-05 -5.78399e-05 -0.000177904 -2.68462e-05 -6.75531e-05
-0.000130247 -5.41186e-05 -6.48346e-05 -0.000175222 -2.55347e-05 -7.1163e-05
-0.000127062 -5.81401e-05 -7.34986e-05 -0.000177724 -2.24086e-05 -7.32445e-05
-0.000124756 -6.06576e-05 -8.03923e-05 -0.000185244 -2.02199e-05 -7.31048e-05
-0.000123134 -6.36164e-05 -8.43871e-05 -0.000190591 -2.06668e-05 -7.29614e-05
-0.000121313 -6.79046e-05 -8.75472e-05 -0.000192673 -2.2407e-05 -7.35133e-05
-0.0001191 -7.18049e-05 -9.24773e-05 -0.00019581 -2.29566e-05 -7.38915e-05
-0.000116891 -7.48199e-05 -9.95641e-05 -0.00020141 -2.14957e-05 -7.38567e-05
-0.000114865 -7.78825e-05 -0.000106864 -0.000206252 -1.93812e-05 -7.42452e-05
-0.000112949 -8.13374e-05 -0.000112384 -0.000208849 -1.832e-05 -7.51981e-05
-0.000111109 -8.46123e-05 -0.000115949 -0.000211371 -1.86895e-05 -7.57987e-05
-0.000109464 -8.72841e-05 -0.000118738 -0.000214991 -1.95895e-05 -7.58161e-05
-0.000107903 -8.95664e-05 -0.00012185 -0.000218232 -1.99944e-05 -7.61222e-05
-0.000106195 -9.19394e-05 -0.000125341 -0.000219759 -1.96686e-05 -7.72896e-05
-0.000104407 -9.42244e-05 -0.00012837 -0.000220354 -1.91976e-05 -7.88673e-05
-0.000102723 -9.59668e-05 -0.00013014 -0.000221211 -1.93417e-05 -8.02169e-05
-0.000101288 -9.73598e-05 -0.000130471 -0.000221935 -2.0345e-05 -8.13858e-05
-9.9972e-05 -9.85873e-05 -0.000129895 -0.000221701 -2.17856e-05 -8.28153e-05
-9.8564e-05 -9.96643e-05 -0.00012911 -0.000220572 -2.30614e-05 -8.46515e-05
-9.71338e-05 -0.000100354 -0.000128288 -0.000219115 -2.39907e-05 -8.67147e-05
-9.57893e-05 -0.0001008 -0.000127088 -0.000217536 -2.49158e-05 -8.88458e-05
-9.45359e-05 -0.000101315 -0.000125056 -0.000215176 -2.62692e-05 -9.11032e-05
-9.33676e-05 -0.000101562 -0.000122162 -0.000212073 -2.82847e-05 -9.35288e-05
-9.22618e-05 -0.000101702 -0.000118832 -0.000208898 -3.06734e-05 -9.59084e-05
-9.12543e-05 -0.00010169 -0.000115429 -0.000205586 -3.29262e-05 -9.83127e-05
-9.0313e-05 -0.000101572 -0.000112054 -0.000201865 -3.49875e-05 -0.000100894
-8.94431e-05 -0.000101517 -0.000108555 -0.000197757 -3.70407e-05 -0.000103558
-8.87039e-05 -0.000101407 -0.000104776 -0.000193662 -3.92714e-05 -0.000106113
-8.80776e-05 -0.000101214 -0.000100813 -0.000189786 -4.1686e-05 -0.000108477
-8.75964e-05 -0.000101118 -9.68799e-05 -0.000185937 -4.43931e-05 -0.000110806
-8.71812e-05 -0.000101034 -9.35224e-05 -0.000182568 -5.15026e-05 -0.000117731
-8.68893e-05 -0.00010105 -9.04181e-05 -0.00017896 -6.38637e-05 -0.000130308
-8.68551e-05 -0.000101409 -8.71864e-05 -0.000175082 -8.19333e-05 -0.00014828
-8.70048e-05 -0.000101796 -8.38293e-05 -0.000171881 -0.000105686 -0.000171728
-8.73593e-05 -0.000102389 -7.99912e-05 -0.000166984 -0.000128596 -0.000179852
-8.79405e-05 -0.00010308 -7.63651e-05 -0.000166578 -0.0001394 -0.00018721
-8.84072e-05 -0.000102984 -7.49241e-05 -0.000165491 -0.000148157 -0.000196162
-8.89169e-05 -0.000104628 -7.50144e-05 -0.000163136 -0.000156626 -0.00020657
-8.9613e-05 -0.000105959 -7.51226e-05 -0.00016176 -0.000166533 -0.000218036
-9.0791e-05 -0.000107114 -7.43062e-05 -0.000161902 -0.000179016 -0.000229739
-9.2379e-05 -0.000108658 -7.31432e-05 -0.000162183 -0.000193392 -0.000242385
-9.40196e-05 -0.00011055 -7.28464e-05 -0.000162302 -0.000208208 -0.000256252
-9.56092e-05 -0.000112597 -7.38965e-05 -0.000163049 -0.000222768 -0.000271263
-9.7264e-05 -0.000114637 -7.57195e-05 -0.00016429 -0.000237628 -0.000287223
-9.91753e-05 -0.00011697 -7.73966e-05 -0.000165629 -0.000253722 -0.000303861
-0.000101361 -0.000119432 -7.8608e-05 -0.000167236 -0.000271315 -0.000320953
-0.000103648 -0.000121875 -7.97872e-05 -0.000169233 -0.000289841 -0.000338547
-0.000105987 -0.000124475 -8.14118e-05 -0.000171267 -0.000308563 -0.000356832
-0.000108325 -0.000127139 -8.3539e-05 -0.00017323 -0.000327247 -0.000375816
-0.000110669 -0.000129847 -8.57583e-05 -0.000175175 -0.000346202 -0.000395269
-0.000113108 -0.000132562 -8.76241e-05 -0.000177133 -0.0003658 -0.000414961
-0.000115596 -0.000135214 -8.90847e-05 -0.000179015 -0.000386022 -0.000434805
-0.000118087 -0.000137886 -9.03274e-05 -0.000180655 -0.000406486 -0.000454813
-0.000120502 -0.000140468 -9.1538e-05 -0.000182058 -0.000426815 -0.000474989
-0.000122812 -0.000142982 -9.26496e-05 -0.000183128 -0.000446929 -0.000495265
-0.000125083 -0.000145431 -9.33843e-05 -0.0001838 -0.000466987 -0.000515502
-0.000127289 -0.000147716 -9.35802e-05 -0.000184111 -0.000487113 -0.000535568
-0.000129435 -0.000149923 -9.32249e-05 -0.000183977 -0.000507217 -0.000555401
-0.000131464 -0.000151947 -9.24436e-05 -0.000183404 -0.000527069 -0.000574996
-0.000133309 -0.000153804 -9.13272e-05 -0.00018234 -0.000546495 -0.000594339
-0.00013503 -0.000155547 -8.97856e-05 -0.00018073 -0.000565482 -0.00061337
-0.000136611 -0.000157054 -8.7713e-05 -0.000178617 -0.000584113 -0.000632014
-0.000138086 -0.000158443 -8.50261e-05 -0.00017593 -0.000602429 -0.000650212
-0.000139478 -0.000159675 -8.17658e-05 -0.000172719 -0.000620366 -0.000667948
-0.000140903 -0.000160698 -7.95948e-05 -0.00016894 -0.000637806 -0.000685278
-0.000142485 -0.000161857 -9.3015e-05 -0.000164912 -0.00065395 -0.00070209
-0.000142307 -0.00016214 -0.000121363 -0.000161383 -0.00067199 -0.000717691
-0.000139257 -0.000163155 -0.000159932 -0.000154874 -0.000688494 -0.000733684
-0.000138314 -0.000167718 -0.000201398 -0.000185069 -0.000702816 -0.00075334
-0.000138237 -0.000162438 -0.000235817 -0.000240762 -0.000715651 -0.000762914
-0.000138229 -0.000165426 -0.000264133 -0.00027748 -0.000730748 -0.000776208
-0.000137357 -0.00016122 -0.00029495 -0.000310559 -0.000747045 -0.000795473
-0.000135903 -0.000161236 -0.000330532 -0.000354529 -0.000761607 -0.000804452
-0.000134533 -0.000159669 -0.000366323 -0.000390211 -0.000774072 -0.000818147
-0.000133482 -0.000162092 -0.000398164 -0.00042322 -0.000784762 -0.000833325
-0.000133994 -0.000163464 -0.000426682 -0.000460358 -0.000795456 -0.000843999
-0.000133014 -0.000159945 -0.000453035 -0.000495022 -0.000807988 -0.000854478
-0.000128787 -0.000161471 -0.000481693 -0.000527021 -0.000820298 -0.000864805
-0.000127032 -0.000164081 -0.000510769 -0.000557233 -0.0008308 -0.000874933
-0.000128807 -0.000163309 -0.000554127 -0.000587997 -0.000838486 -0.000884981
-0.000138393 -0.000163166 -0.00060237 -0.000620921 -0.000847466 -0.000893307
-0.000164701 -0.000167386 -0.000658531 -0.000674503 -0.000856051 -0.000905012
-0.000199109 -0.000163058 -0.000712001 -0.000721666 -0.000863626 -0.000908282
-0.000228731 -0.000162364 -0.000758648 -0.000768466 -0.000871486 -0.00091857
-0.000251942 -0.000166185 -0.000800126 -0.000811829 -0.000878246 -0.000922717
-0.000280792 -0.0001969 -0.000840564 -0.000853426 -0.000884202 -0.000928706
-0.000312433 -0.000237841 -0.000880286 -0.000891983 -0.000889186 -0.000933957
-0.000341001 -0.000268638 -0.000914057 -0.000925905 -0.000893178 -0.00093905
-0.000367187 -0.000305621 -0.000942012 -0.000955821 -0.000896876 -0.0009416
-0.000391376 -0.000337226 -0.000966374 -0.000981398 -0.000900502 -0.000946488
-0.00041613 -0.000369481 -0.000987271 -0.00100223 -0.000903545 -0.000947705
-0.000438583 -0.000399857 -0.00100429 -0.00101828 -0.000905718 -0.000950552
-0.00045873 -0.00042607 -0.00101645 -0.00103034 -0.00090668 -0.000951775
-0.000478071 -0.000452599 -0.00102433 -0.00103931 -0.000906998 -0.000952516
-0.000496439 -0.000475043 -0.0010282 -0.00104358 -0.000906121 -0.000951924
-0.000513256 -0.000497309 -0.00102788 -0.00104358 -0.000902356 -0.000947224
-0.000528583 -0.000517089 -0.00102315 -0.00103862 -0.00089482 -0.00093932
-0.000542753 -0.000535672 -0.00101326 -0.00102907 -0.000883445 -0.000928077
-0.000556099 -0.000553151 -0.000998707 -0.0010148 -0.000868421 -0.0009135
-0.000568398 -0.000569543 -0.000979926 -0.000996262 -0.000850204 -0.000895392
-0.000579765 -0.000585055 -0.000957434 -0.000973752 -0.000828879 -0.000873785
-0.000590656 -0.000599929 -0.000931591 -0.0009478 -0.000804234 -0.000848849
-0.000601348 -0.00061448 -0.000902743 -0.000918978 -0.000776138 -0.000820726
-0.000612033 -0.000629194 -0.00087136 -0.000887669 -0.000744756 -0.000789493
-0.000622941 -0.000644287 -0.000838018 -0.000854381 -0.000710405 -0.00075519
-0.000634308 -0.000659987 -0.000803312 -0.000819669 -0.000673303 -0.000717926
-0.000646349 -0.000676523 -0.000767773 -0.000784118 -0.000633534 -0.000677899
-0.000659055 -0.00069386 -0.000731955 -0.000748429 -0.000591189 -0.000635353
-0.000672443 -0.000712103 -0.000696511 -0.000713155 -0.000546492 -0.000590528
-0.000698873 -0.000732787 -0.00066428 -0.000679812 -0.000499317 -0.000543495
-0.000727539 -0.000753278 -0.000633871 -0.000647902 -0.000450616 -0.000494747
-0.000756247 -0.00077493 -0.00060528 -0.00061828 -0.000400682 -0.000444647
-0.000785109 -0.000797646 -0.000578974 -0.000591106 -0.000349905 -0.000393633
-0.000816443 -0.00083228 -0.000556751 -0.000569652 -0.00029848 -0.00034175
