0.0025 1.37849e-05
0.0125 1.37822e-05
0.0225 1.37736e-05
0.035 1.37739e-05
0.045 1.37999e-05
0.055 1.38691e-05
0.065 1.40008e-05
0.075 1.42145e-05
0.085 1.45278e-05
0.095 1.49546e-05
0.105 1.55022e-05
0.115 1.61693e-05
0.125 1.69434e-05
0.135 1.77941e-05
0.145 1.86845e-05
0.155 1.95493e-05
0.165 2.02993e-05
0.175 2.08155e-05
0.185 2.09449e-05
0.195 2.04996e-05
0.205 1.92584e-05
0.215 1.69695e-05
0.225 1.33562e-05
0.235 8.12261e-06
0.245 9.61751e-07
0.255 -8.4421e-06
0.265 -2.04012e-05
0.275 -3.51936e-05
0.285 -5.30797e-05
0.295 -7.42599e-05
0.305 -9.88402e-05
0.315 -0.000126825
0.325 -0.000158055
0.335 -0.000192192
0.345 -0.000228733
0.355 -0.000266982
0.365 -0.000306075
0.375 -0.000344999
0.385 -0.000382609
0.395 -0.000417684
0.405 -0.000448908
0.415 -0.00047497
0.425 -0.000494582
0.435 -0.000506522
0.445 -0.000509677
0.455 -0.000503062
0.465 -0.000485852
0.475 -0.000457433
0.485 -0.000417414
0.495 -0.000365664
0.5075 -0.000284735
0.52 -0.000186697
0.5325 -7.32995e-05
0.545 5.29431e-05
0.5575 0.000188879
0.57 0.000330759
0.5825 0.00047454
0.595 0.000616198
0.6075 0.000752005
0.62 0.000878847
0.6325 0.000994504
0.645 0.00109782
0.6575 0.00118879
0.67 0.00126852
0.6825 0.00133916
0.695 0.00140375
0.7075 0.00146598
0.72 0.00153003
0.7325 0.00160021
0.745 0.00168074
0.7575 0.00177541
0.77 0.0018873
0.7825 0.00201852
0.795 0.00217008
0.8075 0.0023418
0.82 0.00253229
0.8325 0.00273902
0.845 0.00295838
0.8575 0.00318586
0.87 0.00341623
0.8825 0.00364378
0.895 0.00386258
0.9075 0.00406675
0.92 0.00425072
0.9325 0.00440948
0.945 0.0045388
0.9575 0.0046354
0.97 0.00469708
0.9825 0.00472285
0.995 0.00471299
1.005 0.0046805
1.0175 0.00461149
1.03 0.00451458
1.0425 0.00439466
1.055 0.00425738
1.0675 0.00410887
1.08 0.00395536
1.0925 0.00380286
1.105 0.00365684
1.1175 0.00352189
1.13 0.00340149
1.1425 0.00329774
1.155 0.00321125
1.1675 0.00314107
1.18 0.00308468
1.1925 0.00303804
1.205 0.00299571
1.2175 0.00295103
1.23 0.00289644
1.2425 0.00282378
1.255 0.00272476
1.2675 0.00259133
1.28 0.00241612
1.2925 0.00219296
1.305 0.00191698
1.3175 0.00158552
1.33 0.00119799
1.3425 0.000756195
1.355 0.000264201
1.3675 -0.000271705
1.38 -0.000843062
1.3925 -0.00144007
1.405 -0.0020514
1.4175 -0.00266467
1.43 -0.00326698
1.4425 -0.00384536
1.455 -0.00438723
1.4675 -0.0048809
1.48 -0.00531603
1.4925 -0.00568403
1.505 -0.00597841
1.5175 -0.00619511
1.53 -0.00633272
1.5425 -0.00639267
1.555 -0.00637917
1.5675 -0.00629914
1.58 -0.00616185
1.5925 -0.00597856
1.605 -0.00576192
1.6175 -0.00552545
1.63 -0.00528281
1.6425 -0.00504715
1.655 -0.00483056
1.6675 -0.00464349
1.68 -0.00449426
1.6925 -0.00438831
1.705 -0.00432854
1.7175 -0.00431576
1.73 -0.00434743
1.7425 -0.00441885
1.755 -0.00452371
1.7675 -0.00465633
1.78 -0.0048077
1.7925 -0.00496865
1.805 -0.00512879
1.8175 -0.00527794
1.83 -0.00540623
1.8425 -0.00550435
1.855 -0.00556414
1.8675 -0.00557901
1.88 -0.00554414
1.8925 -0.00545674
1.905 -0.00531622
1.9175 -0.00512423
1.93 -0.00488467
1.9425 -0.00460355
1.955 -0.0042886
1.9675 -0.00394976
1.98 -0.00359852
1.9925 -0.00324748
2.0025 -0.00297558
2.0125 -0.00271885
2.0225 -0.00248373
2.0325 -0.00227619
2.0425 -0.00210159
2.0525 -0.00196445
2.0625 -0.00186837
2.0725 -0.00181585
2.0825 -0.00180827
2.0925 -0.00184578
2.1025 -0.00192736
2.1125 -0.00205082
2.1225 -0.0022129
2.1325 -0.00240934
2.1425 -0.00263497
2.1525 -0.00288392
2.1625 -0.00314966
2.1725 -0.0034252
2.1825 -0.00370323
2.1925 -0.00397628
2.2025 -0.00423697
2.2125 -0.00447808
2.2225 -0.00469283
2.2325 -0.00487494
2.2425 -0.00501885
2.2525 -0.00511979
2.2625 -0.00517391
2.2725 -0.00517834
2.2825 -0.00513127
2.2925 -0.00503195
2.3025 -0.00488066
2.3125 -0.00467873
2.3225 -0.00442845
2.3325 -0.00413298
2.3425 -0.00379663
2.3525 -0.0034242
2.3625 -0.00301896
2.3725 -0.00258707
2.3825 -0.00213365
2.3925 -0.00166467
2.4025 -0.00118593
2.4125 -0.00070326
2.4225 -0.000222337
2.4325 0.000251548
2.4425 0.000713056
2.4525 0.00115736
2.4625 0.0015802
2.4725 0.00197799
2.4825 0.00234768
2.4925 0.00268686
2.5025 0.00299384
2.5125 0.00326766
2.5225 0.00350823
2.5325 0.00371615
2.5425 0.00389241
2.5525 0.00403889
2.5625 0.0041579
2.5725 0.00425216
2.5825 0.00432476
2.5925 0.00437908
2.6025 0.00441863
2.6125 0.00444699
2.6225 0.00446774
2.6325 0.00448433
2.6425 0.00449997
2.6525 0.00451755
2.6625 0.00453957
2.6725 0.00456809
2.6825 0.0046046
2.6925 0.00465006
2.7025 0.00470478
2.7125 0.00476846
2.7225 0.0048402
2.7325 0.00491846
2.7425 0.00500117
2.7525 0.00508575
2.7625 0.00516919
2.7725 0.00524811
2.7825 0.00531891
2.7925 0.00537785
2.8025 0.00542118
2.8125 0.00544523
2.8225 0.00544661
2.8325 0.00542225
2.8425 0.00536957
2.8525 0.00528654
2.8625 0.00517181
2.8725 0.00502473
2.8825 0.00484544
2.8925 0.00463488
2.9025 0.00439482
2.9125 0.00412776
2.9225 0.00383675
2.9325 0.00352641
2.9425 0.00320127
2.9525 0.00286656
2.9625 0.00252787
2.9725 0.00219108
2.9825 0.00186228
2.9925 0.00154753
3.0025 0.00125297
3.0125 0.000984515
3.0225 0.000747793
3.0325 0.000547929
3.0425 0.000389414
3.0525 0.000276167
3.0625 0.000211309
3.0725 0.000197094
3.0825 0.000234817
3.0925 0.000324745
3.1025 0.000466075
3.1125 0.000656905
3.1225 0.000894249
3.1325 0.00117411
3.1425 0.00149127
3.1525 0.00183968
3.1625 0.00221247
3.1725 0.00260207
3.1825 0.00300034
3.1925 0.00339874
3.2025 0.00378858
3.2125 0.00416121
3.2225 0.00450817
3.2325 0.00482148
3.2425 0.00509375
3.2525 0.00531843
3.2625 0.00548995
3.2725 0.00560384
3.2825 0.00565685
3.2925 0.00564701
3.3025 0.00557365
3.3125 0.00543746
3.3225 0.00524041
3.3325 0.00498569
3.3425 0.00467763
3.3525 0.00432156
3.3625 0.00392367
3.3725 0.0034908
3.3825 0.00303034
3.3925 0.00255069
3.4025 0.0020584
3.4125 0.00156049
3.4225 0.00106444
3.4325 0.000576597
3.4425 0.000103448
3.4525 -0.000349761
3.4625 -0.000778402
3.4725 -0.00117868
3.4825 -0.00154763
3.4925 -0.00188336
3.5025 -0.00218485
3.5125 -0.00245227
3.5225 -0.00268657
3.5325 -0.00288951
3.5425 -0.00306368
3.5525 -0.00321243
3.5625 -0.00333974
3.5725 -0.00344967
3.5825 -0.00354688
3.5925 -0.00363604
3.6025 -0.00372167
3.6125 -0.00380804
3.6225 -0.00389902
3.6325 -0.00399785
3.6425 -0.00410704
3.6525 -0.00422842
3.6625 -0.00436238
3.6725 -0.00450944
3.6825 -0.0046687
3.6925 -0.00483849
3.7025 -0.00501636
3.7125 -0.00519903
3.7225 -0.00538264
3.7325 -0.0055628
3.7425 -0.00573478
3.7525 -0.00589355
3.7625 -0.00603406
3.7725 -0.0061513
3.7825 -0.00624052
3.7925 -0.00629739
3.8025 -0.00631809
3.8125 -0.00629953
3.8225 -0.00623937
3.8325 -0.0061362
3.8425 -0.00598955
3.8525 -0.00579998
3.8625 -0.00556907
3.8725 -0.00529944
3.8825 -0.00499468
3.8925 -0.00465933
3.9025 -0.00429867
3.9125 -0.00391885
3.9225 -0.00352662
3.9325 -0.00312916
3.9425 -0.00273395
3.9525 -0.00234849
3.9625 -0.00198021
3.9725 -0.0016362
3.9825 -0.00132307
3.9925 -0.0010468
4.0025 -0.00081244
4.0125 -0.000624353
4.0225 -0.000485787
4.0325 -0.000398908
4.0425 -0.000364763
4.0525 -0.000383274
4.0625 -0.000453265
4.0725 -0.000572496
4.0825 -0.000737718
4.0925 -0.000944739
4.1025 -0.00118856
4.1125 -0.00146359
4.1225 -0.00176363
4.1325 -0.00208208
4.1425 -0.00241209
4.1525 -0.00274676
4.1625 -0.00307928
4.1725 -0.00340309
4.1825 -0.00371208
4.1925 -0.00400065
4.2025 -0.0042639
4.2125 -0.00449766
4.2225 -0.00469861
4.2325 -0.00486433
4.2425 -0.0049933
4.2525 -0.00508495
4.2625 -0.00513963
4.2725 -0.00515859
4.2825 -0.00514391
4.2925 -0.00509846
4.3025 -0.00502576
4.3125 -0.00492991
4.3225 -0.00481542
4.3325 -0.00468708
4.3425 -0.00454983
4.3525 -0.00440852
4.3625 -0.00426782
4.3725 -0.00413202
4.3825 -0.00400486
4.3925 -0.00388942
4.4025 -0.003788
4.4125 -0.00370202
4.4225 -0.00363197
4.4325 -0.00357739
4.4425 -0.00353685
4.4525 -0.003508
4.4625 -0.00348763
4.4725 -0.003472
4.4825 -0.00345635
4.4925 -0.00343476
4.5025 -0.00340234
4.5125 -0.00335306
4.5225 -0.00328144
4.5325 -0.003182
4.5425 -0.00304981
4.5525 -0.00288048
4.5625 -0.00267016
4.5725 -0.00241594
4.5825 -0.00211599
4.5925 -0.0017694
4.6025 -0.00137631
4.6125 -0.000938237
4.6225 -0.000457858
4.6325 6.11821e-05
4.6425 0.000613982
4.6525 0.00119447
4.6625 0.0017955
4.6725 0.0024093
4.6825 0.00302738
4.6925 0.00364075
4.7025 0.00424013
4.7125 0.00481619
4.7225 0.00535973
4.7325 0.00586197
4.7425 0.00631468
4.7525 0.00671129
4.7625 0.00705275
4.7725 0.00732437
4.7825 0.00752333
4.7925 0.00765331
4.8025 0.00771181
4.8125 0.00770034
4.8225 0.00762034
4.8325 0.0074741
4.8425 0.00726732
4.8525 0.00700682
4.8625 0.00669979
4.8725 0.00635365
4.8825 0.00597671
4.8925 0.00557839
4.9025 0.00516881
4.9125 0.00475796
4.9225 0.00435528
4.9325 0.00396974
4.9425 0.00360991
4.9525 0.00328393
4.9625 0.00300157
4.9725 0.00276614
4.9825 0.00257751
4.9925 0.00244322
5.0025 0.0023616
5.0125 0.00233721
5.0225 0.00236962
5.0325 0.00245698
5.0425 0.00259674
5.0525 0.00278478
5.0625 0.0030163
5.0725 0.00328535
5.0825 0.0035852
5.0925 0.00390844
5.1025 0.00424721
5.1125 0.00459345
5.1225 0.00493904
5.1325 0.00527602
5.1425 0.00559672
5.1525 0.00589397
5.1625 0.00616131
5.1725 0.00639312
5.1825 0.00658473
5.1925 0.00673254
5.2025 0.00683407
5.2125 0.00688799
5.2225 0.00689414
5.2325 0.00685384
5.2425 0.00676955
5.2525 0.00664486
5.2625 0.00648436
5.2725 0.00629348
5.2825 0.00607834
5.2925 0.00584556
5.3025 0.00560208
5.3125 0.00535492
5.3225 0.005111
5.3325 0.00487694
5.3425 0.0046589
5.3525 0.00446236
5.3625 0.00429204
5.3725 0.00415171
5.3825 0.00404412
5.3925 0.00397095
5.4025 0.00393273
5.4125 0.00392885
5.4225 0.00395762
5.4325 0.00401629
5.4425 0.00410114
5.4525 0.00420768
5.4625 0.00433071
5.4725 0.00446454
5.4825 0.00460313
5.4925 0.00474031
5.5025 0.00486993
5.5125 0.00498605
5.5225 0.00508311
5.5325 0.00515607
5.5425 0.00520057
5.5525 0.00521307
5.5625 0.00519088
5.5725 0.00513227
5.5825 0.00503643
5.5925 0.00490355
5.6025 0.0047347
5.6125 0.00453182
5.6225 0.00429765
5.6325 0.00403563
5.6425 0.00374983
5.6525 0.00344478
5.6625 0.00312543
5.6725 0.00279693
5.6825 0.0024646
5.6925 0.00213372
5.7025 0.00180942
5.7125 0.0014965
5.7225 0.00119853
5.7325 0.000920587
5.7425 0.000665595
5.7525 0.000436372
5.7625 0.000235203
5.7725 6.09036e-05
5.7825 -8.43465e-05
5.7925 -0.000201807
5.8025 -0.000292231
5.8125 -0.000357497
5.8225 -0.00039992
5.8325 -0.00042271
5.8425 -0.000429249
5.8525 -0.000420622
5.8625 -0.000402124
5.8725 -0.00037641
5.8825 -0.000347555
5.8925 -0.000319167
5.9025 -0.000294842
5.9125 -0.000277233
5.9225 -0.00027066
5.9325 -0.000278412
5.9425 -0.000302473
5.9525 -0.0003453
5.9625 -0.000407962
5.9725 -0.000491269
5.9825 -0.000595283
5.9925 -0.000719466
6.0025 -0.000862562
6.0125 -0.00102268
6.0225 -0.00119742
6.0325 -0.00138438
6.0425 -0.00157999
6.0525 -0.00178046
6.0625 -0.00198237
6.0725 -0.00218174
6.0825 -0.00237463
6.0925 -0.00255711
6.1025 -0.00272552
6.1125 -0.00287653
6.1225 -0.00300719
6.1325 -0.00311493
6.1425 -0.00319774
6.1525 -0.00325423
6.1625 -0.00328369
6.1725 -0.00328611
6.1825 -0.00326226
6.1925 -0.00321349
6.2025 -0.00314193
6.2125 -0.0030504
6.2225 -0.00294233
6.2325 -0.0028217
6.2425 -0.00269287
6.2525 -0.00256055
6.2625 -0.00242966
6.2725 -0.00230521
6.2825 -0.00219211
6.2925 -0.00209506
6.3025 -0.0020185
6.3125 -0.0019664
6.3225 -0.00194208
6.3325 -0.00194822
6.3425 -0.00198692
6.3525 -0.00205934
6.3625 -0.0021659
6.3725 -0.00230613
6.3825 -0.00247876
6.3925 -0.00268168
6.4025 -0.00291203
6.4125 -0.00316625
6.4225 -0.00344015
6.4325 -0.003729
6.4425 -0.00402771
6.4525 -0.00433181
6.4625 -0.00463497
6.4725 -0.00493162
6.4825 -0.00521694
6.4925 -0.00548568
6.5025 -0.00573301
6.5125 -0.00595445
6.5225 -0.00614616
6.5325 -0.00630498
6.5425 -0.00642834
6.5525 -0.00651443
6.5625 -0.00656222
6.5725 -0.0065715
6.5825 -0.00654303
6.5925 -0.00647824
6.6025 -0.00637921
6.6125 -0.00624867
6.6225 -0.00608985
6.6325 -0.0059064
6.6425 -0.0057022
6.6525 -0.00548127
6.6625 -0.00524764
6.6725 -0.00500521
6.6825 -0.00475765
6.6925 -0.00450829
6.7025 -0.00426001
6.7125 -0.00401521
6.7225 -0.00377573
6.7325 -0.00354282
6.7425 -0.00331712
6.7525 -0.00309866
6.7625 -0.0028869
6.7725 -0.00268073
6.7825 -0.0024786
6.7925 -0.00227855
6.8025 -0.00207837
6.8125 -0.00187563
6.8225 -0.00166787
6.8325 -0.00145264
6.8425 -0.00122769
6.8525 -0.000990986
6.8625 -0.000740544
6.8725 -0.000474925
6.8825 -0.00019529
6.8925 9.95753e-05
6.9025 0.000408536
6.9125 0.000731114
6.9225 0.00106511
6.9325 0.00140986
6.9425 0.00176263
6.9525 0.00212131
6.9625 0.00248247
6.9725 0.00284268
6.9825 0.00319801
6.9925 0.00354489
7.0025 0.00387899
7.0125 0.00419606
7.0225 0.00449171
7.0325 0.00476165
7.0425 0.00500187
7.0525 0.0052086
7.0625 0.00537843
7.0725 0.0055084
7.0825 0.00559607
7.0925 0.00563965
7.1025 0.00563809
7.1125 0.00559114
7.1225 0.00549924
7.1325 0.00536363
7.1425 0.00518642
7.1525 0.00497055
7.1625 0.0047197
7.1725 0.00443825
7.1825 0.00413122
7.1925 0.00380416
7.2025 0.00346307
7.2125 0.00311427
7.2225 0.00276422
7.2325 0.00241947
7.2425 0.00208646
7.2525 0.00177141
7.2625 0.00147995
7.2725 0.0012172
7.2825 0.000988789
7.2925 0.000798262
7.3025 0.000649
7.3125 0.00054362
7.3225 0.000484031
7.3325 0.000471298
7.3425 0.000505471
7.3525 0.000585793
7.3625 0.000710823
7.3725 0.000878353
7.3825 0.00108549
7.3925 0.00132872
7.4025 0.00160408
7.4125 0.00190744
7.4225 0.00223354
7.4325 0.0025777
7.4425 0.00293501
7.4525 0.00330045
7.4625 0.00366915
7.4725 0.00403645
7.4825 0.00439794
7.4925 0.00475049
7.5025 0.00509051
7.5125 0.00541525
7.5225 0.00572225
7.5325 0.00600965
7.5425 0.00627615
7.5525 0.00652101
7.5625 0.00674385
7.5725 0.00694481
7.5825 0.00712443
7.5925 0.00728364
7.6025 0.00742379
7.6125 0.00754646
7.6225 0.00765343
7.6325 0.00774655
7.6425 0.00782774
7.6525 0.00789889
7.6625 0.00796179
7.6725 0.00801802
7.6825 0.00806892
7.6925 0.00811553
7.7025 0.00815852
7.7125 0.00819818
7.7225 0.00823437
7.7325 0.00826655
7.7425 0.00829375
7.7525 0.00831462
7.7625 0.00832746
7.7725 0.00833026
7.7825 0.0083208
7.7925 0.00829669
7.8025 0.00825553
7.8125 0.00819493
7.8225 0.00811272
7.8325 0.00800693
7.8425 0.00787594
7.8525 0.00771857
7.8625 0.0075341
7.8725 0.00732232
7.8825 0.00708358
7.8925 0.00681879
7.9025 0.00652945
7.9125 0.00621758
7.9225 0.00588574
7.9325 0.00553695
7.9425 0.00517463
7.9525 0.00480256
7.9625 0.00442473
7.9725 0.00404531
7.9825 0.00366851
7.9925 0.00329849
8.0025 0.00293925
8.015 0.00251106
8.0275 0.00211207
8.04 0.00174758
8.0525 0.00142087
8.065 0.00113534
8.0775 0.000891203
8.09 0.000687573
8.1025 0.00052222
8.115 0.000391774
8.1275 0.000291511
8.14 0.000215728
8.1525 0.00015932
8.165 0.000110986
8.1775 6.91165e-05
8.19 2.43687e-05
8.2025 -2.73426e-05
8.215 -9.18752e-05
8.2275 -0.000172718
8.24 -0.000273308
8.2525 -0.000397329
8.265 -0.000545383
8.2775 -0.00071793
8.29 -0.00091306
8.3025 -0.00112842
8.315 -0.00136043
8.3275 -0.00160441
8.34 -0.00185504
8.3525 -0.0021066
8.365 -0.00235307
8.3775 -0.00258841
8.39 -0.00280689
8.4025 -0.00300329
8.415 -0.00317319
8.4275 -0.00331309
8.44 -0.00342058
8.4525 -0.00349447
8.465 -0.00353487
8.4775 -0.00354322
8.49 -0.00352219
8.5025 -0.00347557
8.515 -0.0034083
8.5275 -0.00332616
8.54 -0.00323561
8.5525 -0.00314353
8.565 -0.00305698
8.5775 -0.00298294
8.59 -0.00292797
8.6025 -0.00289798
8.615 -0.00289795
8.6275 -0.00293175
8.64 -0.00300195
8.6525 -0.00310968
8.665 -0.00325464
8.6775 -0.00343504
8.69 -0.00364775
8.7025 -0.00388834
8.715 -0.00415134
8.7275 -0.00443088
8.74 -0.00472016
8.7525 -0.00501165
8.765 -0.00529848
8.7775 -0.00557458
8.79 -0.00583314
8.8025 -0.00606848
8.815 -0.0062754
8.8275 -0.00644956
8.84 -0.0065875
8.8525 -0.00668727
8.865 -0.00674815
8.8775 -0.0067706
8.89 -0.00675615
8.9025 -0.00670714
8.915 -0.00662666
8.9275 -0.00651826
8.94 -0.00638569
8.9525 -0.00623257
8.965 -0.00606227
8.9775 -0.00587771
8.99 -0.00568119
9.0025 -0.00547436
9.015 -0.00525811
9.0275 -0.00503268
9.04 -0.00479764
9.0525 -0.00455194
9.065 -0.00429405
9.0775 -0.00402207
9.09 -0.00373395
9.1025 -0.00342759
9.115 -0.00310108
9.1275 -0.00275285
9.14 -0.00238183
9.1525 -0.00198764
9.165 -0.0015706
9.1775 -0.00113081
9.19 -0.000673785
9.2025 -0.00019772
9.215 0.000292348
9.2275 0.000795315
9.24 0.00130467
9.2525 0.00181692
9.265 0.00232693
9.2775 0.00282886
9.29 0.00331829
9.3025 0.00378895
9.315 0.00423559
9.3275 0.0046524
9.34 0.0050337
9.3525 0.00537427
9.365 0.00566936
9.3775 0.0059147
9.39 0.00610667
9.4025 0.00624241
9.415 0.00631997
9.4275 0.00633832
9.44 0.00629754
9.4525 0.00619862
9.465 0.00604366
9.4775 0.00583589
9.49 0.00557949
9.5025 0.00527952
9.515 0.00494185
9.5275 0.00457307
9.54 0.00418032
9.5525 0.00377108
9.565 0.00335307
9.5775 0.00293408
9.59 0.00252175
9.6025 0.00212345
9.615 0.00174607
9.6275 0.00139567
9.64 0.0010772
9.6525 0.000796172
9.665 0.000555602
9.6775 0.000358076
9.69 0.000205138
9.7025 9.71925e-05
9.715 3.33321e-05
9.7275 1.15404e-05
9.74 2.88914e-05
9.7525 8.17169e-05
9.765 0.000165529
9.7775 0.000275311
9.79 0.000405792
9.8025 0.000551619
9.815 0.00070746
9.8275 0.000868196
9.84 0.00102935
9.8525 0.00118643
9.865 0.00133605
9.8775 0.00147535
9.89 0.00160217
9.9025 0.00171514
9.915 0.00181367
9.9275 0.00189781
9.94 0.0019681
9.9525 0.0020255
9.965 0.00207134
9.9775 0.00210762
9.99 0.00213313
10.0025 0.00214894
10.015 0.00215459
10.0275 0.00214948
10.04 0.00213418
10.0525 0.00210702
10.065 0.00206704
10.0775 0.00201229
10.09 0.00194061
10.1025 0.00184951
10.115 0.00173634
10.1275 0.00159866
10.14 0.00143347
10.1525 0.00123709
10.165 0.00100716
10.1775 0.000741709
10.19 0.000439531
10.2025 0.000100149
10.215 -0.000276696
10.2275 -0.000688815
10.24 -0.00113439
10.2525 -0.00161007
10.265 -0.00211153
10.2775 -0.00263349
10.29 -0.00317006
10.3025 -0.00371465
10.315 -0.00426011
10.3275 -0.00479897
10.34 -0.00532364
10.3525 -0.00582662
10.365 -0.0063006
10.3775 -0.00673868
10.39 -0.00713456
10.4025 -0.00748286
10.415 -0.0077821
10.4275 -0.00802678
10.44 -0.00821596
10.4525 -0.00835127
10.465 -0.00843097
10.4775 -0.00845504
10.49 -0.008426
10.5025 -0.00834681
10.515 -0.00822
10.5275 -0.00804872
10.54 -0.00783729
10.5525 -0.00759083
10.565 -0.00731445
10.5775 -0.00701329
10.59 -0.00669281
10.6025 -0.0063587
10.615 -0.00601642
10.6275 -0.00567092
10.64 -0.00532666
10.6525 -0.00498765
10.665 -0.00465731
10.6775 -0.00433827
10.69 -0.0040324
10.7025 -0.00374102
10.715 -0.00346486
10.7275 -0.00320414
10.74 -0.0029587
10.7525 -0.00272807
10.765 -0.00251167
10.7775 -0.00230879
10.79 -0.00211864
10.8025 -0.0019404
10.815 -0.00177327
10.8275 -0.00161648
10.84 -0.00146927
10.8525 -0.0013309
10.865 -0.00120066
10.8775 -0.00107787
10.89 -0.000961575
10.9025 -0.000851331
10.915 -0.000746349
10.9275 -0.000645915
10.94 -0.000549452
10.9525 -0.000456255
10.965 -0.000365631
10.9775 -0.000275793
10.99 -0.000186016
11.0025 -9.53528e-05
11.015 -3.15226e-06
11.0275 9.11501e-05
11.04 0.000187866
11.0525 0.000286962
11.065 0.00038815
11.0775 0.000490802
11.09 0.000593942
11.1025 0.000696248
11.115 0.000796107
11.1275 0.000891578
11.14 0.00098049
11.1525 0.00106051
11.165 0.00112921
11.1775 0.00118422
11.19 0.00122326
11.2025 0.00124421
11.215 0.00124533
11.2275 0.00122524
11.24 0.00118302
11.2525 0.00111808
11.265 0.00103036
11.2775 0.000920336
11.29 0.000788968
11.3025 0.000637756
11.315 0.000468732
11.3275 0.000284455
11.34 8.79307e-05
11.3525 -0.000117481
11.365 -0.000328184
11.3775 -0.000540514
11.39 -0.000750643
11.4025 -0.000954895
11.415 -0.00114998
11.4275 -0.00133278
11.44 -0.00150054
11.4525 -0.00165099
11.465 -0.00178244
11.4775 -0.00189369
11.49 -0.00198396
11.5025 -0.00205303
11.515 -0.00210147
11.5275 -0.00212866
11.54 -0.00213516
11.5525 -0.00212127
11.565 -0.0020877
11.5775 -0.00203509
11.59 -0.00196409
11.6025 -0.00187533
11.615 -0.00176938
11.6275 -0.00164673
11.64 -0.00150778
11.6525 -0.00135291
11.665 -0.00118243
11.6775 -0.000996918
11.69 -0.000796717
11.7025 -0.000582306
11.715 -0.000354296
11.7275 -0.000112964
11.74 0.000139759
11.7525 0.000402463
11.765 0.000673071
11.7775 0.000948613
11.79 0.0012255
11.8025 0.00149983
11.815 0.00176719
11.8275 0.00202269
11.84 0.00226107
11.8525 0.00247707
11.865 0.00266554
11.8775 0.00282158
11.89 0.00294068
11.9025 0.003019
11.915 0.0030535
11.9275 0.00304211
11.94 0.00298393
11.9525 0.00287899
11.965 0.00272864
11.9775 0.00253546
11.99 0.00230312
12.0025 0.0020363
12.015 0.00174055
12.0275 0.00142212
12.04 0.00108775
12.0525 0.000744432
12.065 0.000399165
12.0775 5.80834e-05
12.09 -0.000271951
12.1025 -0.000585434
12.115 -0.000877913
12.1275 -0.00114536
12.14 -0.00138444
12.1525 -0.00159297
12.165 -0.00176984
12.1775 -0.0019147
12.19 -0.00202801
12.2025 -0.00211107
12.215 -0.00216612
12.2275 -0.0021956
12.24 -0.00220251
12.2525 -0.00218996
12.265 -0.00216141
12.2775 -0.00212018
12.29 -0.00206934
12.3025 -0.00201157
12.315 -0.00194907
12.3275 -0.00188353
12.34 -0.00181603
12.3525 -0.00174689
12.365 -0.00167581
12.3775 -0.00160188
12.39 -0.00152363
12.4025 -0.00143915
12.415 -0.00134624
12.4275 -0.00124262
12.44 -0.00112599
12.4525 -0.000994213
12.465 -0.000846457
12.4775 -0.000681788
12.49 -0.000500122
12.5025 -0.000302068
12.515 -8.90876e-05
12.5275 0.00013682
12.54 0.000372874
12.5525 0.00061452
12.565 0.000858829
12.5775 0.00110094
12.59 0.00133623
12.6025 0.00155959
12.615 0.00176621
12.6275 0.0019513
12.64 0.00211035
12.6525 0.00223941
12.665 0.00233538
12.6775 0.00239603
12.69 0.00242013
12.7025 0.00240764
12.715 0.0023597
12.7275 0.00227861
12.74 0.00216783
12.7525 0.00203178
12.765 0.00187566
12.7775 0.00170532
12.79 0.00152723
12.8025 0.00134785
12.815 0.00117391
12.8275 0.00101153
12.84 0.00086625
12.8525 0.000742591
12.865 0.000643768
12.8775 0.000572332
12.89 0.000529288
12.9025 0.000513934
12.915 0.000525631
12.9275 0.000562271
12.94 0.000621187
12.9525 0.000698688
12.965 0.000790507
12.9775 0.000892301
12.99 0.000999534
13.0025 0.00110773
13.015 0.00121275
13.0275 0.00131101
13.04 0.00139958
13.0525 0.00147624
13.065 0.00153966
13.0775 0.00158943
13.09 0.00162606
13.1025 0.00165091
13.115 0.00166618
13.1275 0.00167468
13.14 0.00167979
13.1525 0.00168527
13.165 0.00169515
13.1775 0.00171352
13.19 0.00174428
13.2025 0.001791
13.215 0.0018566
13.2275 0.00194321
13.24 0.00205199
13.2525 0.0021832
13.265 0.00233589
13.2775 0.00250791
13.29 0.00269625
13.3025 0.00289674
13.315 0.00310431
13.3275 0.00331318
13.34 0.00351708
13.3525 0.00370928
13.365 0.00388289
13.3775 0.00403104
13.39 0.00414711
13.4025 0.00422494
13.415 0.00425899
13.4275 0.00424452
13.44 0.00417781
13.4525 0.0040563
13.465 0.00387818
13.4775 0.0036438
13.49 0.00335603
13.5025 0.00301599
13.515 0.00262835
13.5275 0.00219769
13.54 0.00173038
13.5525 0.0012335
13.565 0.000714746
13.5775 0.000181067
13.59 -0.000358218
13.6025 -0.000894528
13.615 -0.00142068
13.6275 -0.00192873
13.64 -0.00241072
13.6525 -0.00285965
13.665 -0.00326965
13.6775 -0.00363554
13.69 -0.0039529
13.7025 -0.00421852
13.715 -0.00443068
13.7275 -0.00458851
13.74 -0.0046935
13.7525 -0.00474761
13.765 -0.00475456
13.7775 -0.00471847
13.79 -0.00464445
13.8025 -0.0045382
13.815 -0.00440574
13.8275 -0.00425328
13.84 -0.00408694
13.8525 -0.00391258
13.865 -0.00373566
13.8775 -0.00356106
13.89 -0.00339302
13.9025 -0.00323507
13.915 -0.00309
13.9275 -0.00295983
13.94 -0.00284586
13.9525 -0.00274867
13.965 -0.00266819
13.9775 -0.00260381
13.99 -0.00255445
14.0025 -0.00251875
14.015 -0.00249518
14.0275 -0.00248218
14.04 -0.00247836
14.0525 -0.00248255
14.065 -0.00249397
14.0775 -0.00251226
14.09 -0.00253755
14.1025 -0.00257049
14.115 -0.00261219
14.1275 -0.00266407
14.14 -0.0027281
14.1525 -0.00280654
14.165 -0.00290177
14.1775 -0.00301604
14.19 -0.00315125
14.2025 -0.00330871
14.215 -0.003489
14.2275 -0.00369175
14.24 -0.00391554
14.2525 -0.00415788
14.265 -0.00441513
14.2775 -0.00468263
14.29 -0.00495471
14.3025 -0.00522489
14.315 -0.00548672
14.3275 -0.00573236
14.34 -0.00595382
14.3525 -0.00614386
14.365 -0.00629454
14.3775 -0.00639802
14.39 -0.00644711
14.4025 -0.00643534
14.415 -0.00635695
14.4275 -0.00620824
14.44 -0.00598216
14.4525 -0.00567606
14.465 -0.00529111
14.4775 -0.004827
14.49 -0.00428691
14.5025 -0.00367499
14.515 -0.00299751
14.5275 -0.00226256
14.54 -0.00147904
14.5525 -0.000655947
14.565 0.000196928
14.5775 0.0010688
14.59 0.00194582
14.6025 0.00281901
14.615 0.00367679
14.6275 0.00450743
14.64 0.00530035
14.6525 0.00604637
14.665 0.00673693
14.6775 0.0073641
14.69 0.00792141
14.7025 0.00840578
14.715 0.00881881
14.7275 0.00915134
14.74 0.00941142
14.7525 0.00959986
14.765 0.00971972
14.7775 0.00977473
14.79 0.00977203
14.8025 0.00971779
14.815 0.00961875
14.8275 0.00948172
14.84 0.00931556
14.8525 0.00912995
14.865 0.00893295
14.8775 0.00882365
14.89 0.00869492
14.9025 0.00827122
14.915 0.00799362
14.9275 0.00755548
14.94 0.00718161
14.9525 0.00673593
14.965 0.00630297
14.9775 0.00586957
14.99 0.005454
15.0025 0.00500096
15.015 0.00454254
15.0275 0.00414463
15.04 0.00373479
15.0525 0.00331406
15.065 0.00296424
15.0775 0.00267553
15.09 0.00242274
15.1025 0.00223302
15.115 0.0020958
15.1275 0.00202447
15.14 0.0020218
15.1525 0.00208863
15.165 0.00222025
15.1775 0.00241931
15.19 0.00268802
15.2025 0.00302248
15.215 0.00341716
15.2275 0.00386991
15.24 0.00437651
15.2525 0.00493096
15.265 0.00552616
15.2775 0.00615369
15.29 0.00678336
15.3025 0.00742492
15.315 0.00810331
15.3275 0.00818176
15.34 0.00852185
15.3525 0.00972198
15.365 0.010314
15.3775 0.0110289
15.39 0.0119908
15.4025 0.0127132
15.415 0.0135481
15.4275 0.0144341
15.44 0.0152341
15.4525 0.016084
15.465 0.0169654
15.4775 0.0178106
15.49 0.0186482
15.5025 0.0195926
15.515 0.0205512
15.5275 0.0213787
15.54 0.0222027
15.5525 0.0231707
15.565 0.024179
15.5775 0.0251131
15.59 0.0260281
15.6025 0.0270425
15.615 0.0282391
15.6275 0.0292869
15.64 0.0303511
15.6525 0.0315023
15.665 0.0327149
15.6775 0.0339275
15.69 0.0351962
15.7025 0.0364875
15.715 0.0377931
15.7275 0.0391467
15.74 0.0405375
15.7525 0.0419273
15.765 0.0433265
15.7775 0.0447836
15.79 0.0461916
15.8025 0.0476442
15.815 0.0491842
15.8275 0.0507716
15.84 0.0523186
15.8525 0.0538548
15.865 0.0554522
15.8775 0.0570791
15.89 0.0586753
15.9025 0.0602474
15.915 0.0618251
15.9275 0.0633967
15.94 0.0649382
15.9525 0.0664465
15.965 0.0679194
15.9775 0.069347
15.99 0.0707251
16.0025 0.0720525
16.0125 0.0730707
16.0225 0.0740421
16.0325 0.074964
16.0425 0.0758376
16.0525 0.0766613
16.0625 0.0774299
16.0725 0.0781375
16.0825 0.0787811
16.0925 0.0793594
16.1025 0.0798713
16.1125 0.0803144
16.1225 0.0806866
16.1325 0.0809859
16.1425 0.081211
16.1525 0.0813609
16.1625 0.0814359
16.1725 0.081437
16.1825 0.0813655
16.1925 0.0812213
16.2025 0.0810086
16.2125 0.0807327
16.2225 0.0803893
16.2325 0.0799813
16.2425 0.07951
16.2525 0.078981
16.2625 0.0784011
16.2725 0.0777744
16.2825 0.0771046
16.2925 0.0763916
16.3025 0.075638
16.3125 0.0748487
16.3225 0.0740281
16.3325 0.0731798
16.3425 0.0723061
16.3525 0.0714093
16.3625 0.070492
16.3725 0.0695573
16.3825 0.0686089
16.3925 0.0676481
16.4025 0.0666736
16.4125 0.0656859
16.4225 0.0646847
16.4325 0.0636688
16.4425 0.0626364
16.4525 0.0615862
16.4625 0.0605161
16.4725 0.0594238
16.4825 0.0583071
16.4925 0.0571645
16.5025 0.0559944
16.5125 0.0547951
16.5225 0.0535659
16.5325 0.052306
16.5425 0.0510156
16.5525 0.0496951
16.5625 0.0483455
16.5725 0.0469684
16.5825 0.0455658
16.5925 0.0441404
16.6025 0.042695
16.6125 0.0412334
16.6225 0.0397595
16.6325 0.0382777
16.6425 0.0367927
16.6525 0.0353098
16.6625 0.0338342
16.6725 0.0323747
16.6825 0.0309499
16.6925 0.0295498
16.7025 0.0281627
16.7125 0.0268003
16.7225 0.0254784
16.7325 0.0241992
16.7425 0.0229572
16.7525 0.0217544
16.7625 0.020601
16.7725 0.0195028
16.7825 0.0184595
16.7925 0.0174722
16.8025 0.0165459
16.8125 0.0156848
16.8225 0.0148902
16.8325 0.0141638
16.8425 0.0135092
16.8525 0.0129294
16.8625 0.0124256
16.8725 0.0119981
16.8825 0.0116487
16.8925 0.0113793
16.9025 0.0111907
16.9125 0.0110834
16.9225 0.0110568
16.9325 0.0111077
16.9425 0.0112343
16.9525 0.0114346
16.9625 0.0117046
16.9725 0.0120385
16.9825 0.0124305
16.9925 0.012875
17.0025 0.013365
17.0125 0.0138929
17.0225 0.0144493
17.0325 0.0150251
17.0425 0.0156176
17.0525 0.0162294
17.0625 0.0168522
17.0725 0.0174658
17.0825 0.018061
17.0925 0.018649
17.1025 0.0192423
17.1125 0.0198295
17.1225 0.020397
17.1325 0.0209459
17.1425 0.0214859
17.1525 0.0220181
17.1625 0.0225345
17.1725 0.023032
17.1825 0.0235143
17.1925 0.0239831
17.2025 0.0244368
17.2125 0.0248743
17.2225 0.0252971
17.2325 0.0257057
17.2425 0.0260986
17.2525 0.0264749
17.2625 0.0268355
17.2725 0.0271811
17.2825 0.0275108
17.2925 0.0278226
17.3025 0.0281156
17.3125 0.0283895
17.3225 0.0286435
17.3325 0.028876
17.3425 0.0290854
17.3525 0.0292702
17.3625 0.029429
17.3725 0.0295596
17.3825 0.0296604
17.3925 0.0297297
17.4025 0.0297658
17.4125 0.0297665
17.4225 0.02973
17.4325 0.0296547
17.4425 0.0295397
17.4525 0.0293844
17.4625 0.0291877
17.4725 0.0289487
17.4825 0.0286652
17.4925 0.0283358
17.5025 0.0279633
17.5125 0.0275488
17.5225 0.0270913
17.5325 0.0265905
17.5425 0.0260485
17.5525 0.0254677
17.5625 0.02485
17.5725 0.0241974
17.5825 0.0235123
17.5925 0.0227972
17.6025 0.0220551
17.6125 0.0212894
17.6225 0.0205037
17.6325 0.0197011
17.6425 0.0188847
17.6525 0.018058
17.6625 0.0172245
17.6725 0.0163877
17.6825 0.0155507
17.6925 0.0147167
17.7025 0.0138885
17.7125 0.0130687
17.7225 0.0122599
17.7325 0.0114643
17.7425 0.010684
17.7525 0.00992062
17.7625 0.00917544
17.7725 0.00844958
17.7825 0.00774378
17.7925 0.00705831
17.8025 0.00639419
17.8125 0.00575309
17.8225 0.00512728
17.8325 0.00450138
17.8425 0.00389995
17.8525 0.00332535
17.8625 0.0027637
17.8725 0.00222791
17.8825 0.00171904
17.8925 0.00122898
17.9025 0.000760776
17.9125 0.000318022
17.9225 -9.91389e-05
17.9325 -0.000492212
17.9425 -0.00086197
17.9525 -0.00121087
17.9625 -0.0015376
17.9725 -0.00183557
17.9825 -0.00210756
17.9925 -0.00235112
18.0025 -0.00256466
18.0125 -0.00275298
18.0225 -0.00291542
18.0325 -0.0030507
18.0425 -0.00316073
18.0525 -0.00324344
18.0625 -0.00329991
18.0725 -0.00332986
18.0825 -0.00333351
18.0925 -0.00331166
18.1025 -0.00326341
18.1125 -0.00318953
18.1225 -0.00309029
18.1325 -0.00296626
18.1425 -0.00281793
18.1525 -0.00264592
18.1625 -0.00245102
18.1725 -0.00223419
18.1825 -0.00199662
18.1925 -0.00173968
18.2025 -0.00146486
18.2125 -0.00117384
18.2225 -0.000868514
18.2325 -0.000551132
18.2425 -0.000224279
18.2525 0.000109246
18.2625 0.000446767
18.2725 0.000785023
18.2825 0.00112126
18.2925 0.00145025
18.3025 0.00176907
18.3125 0.00207248
18.3225 0.00235771
18.3325 0.0026255
18.3425 0.00287228
18.3525 0.00308946
18.3625 0.00328071
18.3725 0.00344401
18.3825 0.0035766
18.3925 0.00367675
18.4025 0.00374216
18.4125 0.00377218
18.4225 0.00376647
18.4325 0.00372475
18.4425 0.00364611
18.4525 0.00352989
18.4625 0.00337704
18.4725 0.00318839
18.4825 0.0029653
18.4925 0.00270929
18.5025 0.00242241
18.5125 0.00210717
18.5225 0.00176668
18.5325 0.00140443
18.5425 0.00102405
18.5525 0.000629326
18.5625 0.00022416
18.5725 -0.000187363
18.5825 -0.000601082
18.5925 -0.0010129
18.6025 -0.00141889
18.6125 -0.00181534
18.6225 -0.00219872
18.6325 -0.00256576
18.6425 -0.0029135
18.6525 -0.00323933
18.6625 -0.0035411
18.6725 -0.00381703
18.6825 -0.00406574
18.6925 -0.00428626
18.7025 -0.00447763
18.7125 -0.0046395
18.7225 -0.00477305
18.7325 -0.00487814
18.7425 -0.00495571
18.7525 -0.00500681
18.7625 -0.00503268
18.7725 -0.0050348
18.7825 -0.00501443
18.7925 -0.00497292
18.8025 -0.00491167
18.8125 -0.00483194
18.8225 -0.00473473
18.8325 -0.00462099
18.8425 -0.00449143
18.8525 -0.00434659
18.8625 -0.00418682
18.8725 -0.00401228
18.8825 -0.00382299
18.8925 -0.00361882
18.9025 -0.00339957
18.9125 -0.00316504
18.9225 -0.00291505
18.9325 -0.00264949
18.9425 -0.00236838
18.9525 -0.00207191
18.9625 -0.0017605
18.9725 -0.00143485
18.9825 -0.00109551
18.9925 -0.00074134
19.0025 -0.000379365
19.0125 -1.1842e-05
19.0225 0.00035944
19.0325 0.000732448
19.0425 0.00110933
19.0525 0.00147776
19.0625 0.00183843
19.0725 0.00218649
19.0825 0.00252545
19.0925 0.0028558
19.1025 0.00317071
19.1125 0.00346422
19.1225 0.00374005
19.1325 0.00400637
19.1425 0.00425754
19.1525 0.00448651
19.1625 0.00469551
19.1725 0.00488849
19.1825 0.00506534
19.1925 0.0052242
19.2025 0.00536553
19.2125 0.00549092
19.2225 0.00560071
19.2325 0.00569522
19.2425 0.00577732
19.2525 0.00584961
19.2625 0.00591253
19.2725 0.00596737
19.2825 0.00601766
19.2925 0.00606671
19.3025 0.00612122
19.3125 0.00618246
19.3225 0.00624381
19.3325 0.00630663
19.3425 0.00637822
19.3525 0.00646189
19.3625 0.00655522
19.3725 0.00665761
19.3825 0.00677273
19.3925 0.00690338
19.4025 0.00704936
19.4125 0.00721059
19.4225 0.00738888
19.4325 0.00758606
19.4425 0.00780334
19.4525 0.00803985
19.4625 0.00829596
19.4725 0.00857285
19.4825 0.00887139
19.4925 0.00919118
19.5025 0.00953167
19.5125 0.00989299
19.5225 0.0102749
19.5325 0.0106763
19.5425 0.0110957
19.5525 0.0115317
19.5625 0.0119829
19.5725 0.0124475
19.5825 0.0129237
19.5925 0.0134092
19.6025 0.0139014
19.6125 0.0143947
19.6225 0.0148889
19.6325 0.0153854
19.6425 0.0158808
19.6525 0.0163705
19.6625 0.0168528
19.6725 0.0173273
19.6825 0.0177918
19.6925 0.0182429
19.7025 0.0186793
19.7125 0.0190998
19.7225 0.0195029
19.7325 0.0198871
19.7425 0.0202514
19.7525 0.0205955
19.7625 0.0209187
19.7725 0.0212203
19.7825 0.0215005
19.7925 0.0217596
19.8025 0.0219979
19.8125 0.0222155
19.8225 0.022413
19.8325 0.0225916
19.8425 0.022753
19.8525 0.0228986
19.8625 0.0230275
19.8725 0.0231419
19.8825 0.0232445
19.8925 0.0233358
19.9025 0.0234169
19.9125 0.0234897
19.9225 0.0235557
19.9325 0.0236159
19.9425 0.023671
19.9525 0.0237221
19.9625 0.0237698
19.9725 0.0238143
19.9825 0.0238558
19.9925 0.0238942
20.0025 0.0239292
20.0125 0.0239597
20.0225 0.0239845
20.0325 0.0240026
20.0425 0.0240125
20.0525 0.0240124
20.0625 0.0240007
20.0725 0.0239757
20.0825 0.0239358
20.0925 0.0238795
20.1025 0.0238056
20.1125 0.0237134
20.1225 0.0236017
20.1325 0.0234702
20.1425 0.0233188
20.1525 0.0231466
20.1625 0.0229529
20.1725 0.0227406
20.1825 0.0225106
20.1925 0.0222633
20.2025 0.021999
20.2125 0.0217199
20.2225 0.0214279
20.2325 0.0211251
20.2425 0.0208134
20.2525 0.0204952
20.2625 0.0201725
20.2725 0.0198478
20.2825 0.0195237
20.2925 0.0192031
20.3025 0.0188884
20.3125 0.0185819
20.3225 0.0182863
20.3325 0.0180071
20.3425 0.0177455
20.3525 0.0174961
20.3625 0.0172601
20.3725 0.0170425
20.3825 0.0168452
20.3925 0.0166657
20.4025 0.0165026
20.4125 0.016358
20.4225 0.016233
20.4325 0.0161259
20.4425 0.0160355
20.4525 0.0159612
20.4625 0.0159016
20.4725 0.0158546
20.4825 0.015819
20.4925 0.0157932
20.5025 0.0157742
20.5125 0.015761
20.5225 0.0157533
20.5325 0.0157489
20.5425 0.0157457
20.5525 0.0157428
20.5625 0.0157387
20.5725 0.0157306
20.5825 0.0157205
20.5925 0.0157096
20.6025 0.0156943
20.6125 0.0156744
20.6225 0.0156513
20.6325 0.015625
20.6425 0.0155945
20.6525 0.0155607
20.6625 0.0155251
20.6725 0.0154886
20.6825 0.0154521
20.6925 0.0154174
20.7025 0.0153854
20.7125 0.0153565
20.7225 0.0153338
20.7325 0.0153199
20.7425 0.015318
20.7525 0.0153259
20.7625 0.0153424
20.7725 0.0153706
20.7825 0.0154134
20.7925 0.0154708
20.8025 0.0155413
20.8125 0.0156256
20.8225 0.0157254
20.8325 0.0158407
20.8425 0.0159712
20.8525 0.0161163
20.8625 0.0162754
20.8725 0.0164471
20.8825 0.0166301
20.8925 0.016823
20.9025 0.0170226
20.9125 0.0172281
20.9225 0.0174387
20.9325 0.0176515
20.9425 0.0178663
20.9525 0.0180836
20.9625 0.0182984
20.9725 0.018508
20.9825 0.0187135
20.9925 0.0189154
21.0025 0.0191111
21.0125 0.019298
21.0225 0.0194771
21.0325 0.0196492
21.0425 0.0198137
21.0525 0.0199697
21.0625 0.0201176
21.0725 0.0202578
21.0825 0.0203906
21.0925 0.0205168
21.1025 0.0206374
21.1125 0.0207531
21.1225 0.0208645
21.1325 0.0209728
21.1425 0.0210793
21.1525 0.0211845
21.1625 0.0212884
21.1725 0.0213922
21.1825 0.0214969
21.1925 0.0216022
21.2025 0.0217084
21.2125 0.0218162
21.2225 0.0219256
21.2325 0.0220364
21.2425 0.0221485
21.2525 0.022262
21.2625 0.0223766
21.2725 0.022492
21.2825 0.0226081
21.2925 0.0227243
21.3025 0.0228404
21.3125 0.0229557
21.3225 0.02307
21.3325 0.0231828
21.3425 0.0232935
21.3525 0.0234012
21.3625 0.0235051
21.3725 0.0236056
21.3825 0.0237023
21.3925 0.0237941
21.4025 0.0238802
21.4125 0.0239606
21.4225 0.0240349
21.4325 0.0241023
21.4425 0.0241623
21.4525 0.0242146
21.4625 0.0242591
21.4725 0.0242954
21.4825 0.0243232
21.4925 0.0243427
21.5025 0.0243538
21.5125 0.0243565
21.5225 0.0243513
21.5325 0.0243384
21.5425 0.0243183
21.5525 0.0242916
21.5625 0.0242589
21.5725 0.0242209
21.5825 0.024177
21.5925 0.0241285
21.6025 0.0240766
21.6125 0.0240215
21.6225 0.0239632
21.6325 0.0239024
21.6425 0.0238392
21.6525 0.0237736
21.6625 0.0237058
21.6725 0.0236358
21.6825 0.0235632
21.6925 0.0234875
21.7025 0.0234076
21.7125 0.023323
21.7225 0.0232339
21.7325 0.0231391
21.7425 0.0230371
21.7525 0.0229272
21.7625 0.0228085
21.7725 0.0226802
21.7825 0.0225409
21.7925 0.0223897
21.8025 0.0222256
21.8125 0.0220475
21.8225 0.0218544
21.8325 0.0216457
21.8425 0.0214207
21.8525 0.0211786
21.8625 0.0209193
21.8725 0.020643
21.8825 0.0203499
21.8925 0.0200407
21.9025 0.0197166
21.9125 0.0193788
21.9225 0.0190289
21.9325 0.0186688
21.9425 0.0183007
21.9525 0.0179269
21.9625 0.0175499
21.9725 0.0171724
21.9825 0.016797
21.9925 0.0164267
22.0025 0.0160691
22.0125 0.0157269
22.0225 0.0153926
22.0325 0.015067
22.0425 0.0147583
22.0525 0.0144704
22.0625 0.0142006
22.0725 0.0139478
22.0825 0.013716
22.0925 0.0135086
22.1025 0.0133254
22.1125 0.0131656
22.1225 0.013031
22.1325 0.012923
22.1425 0.0128419
22.1525 0.0127874
22.1625 0.01276
22.1725 0.0127607
22.1825 0.0127888
22.1925 0.0128433
22.2025 0.0129241
22.2125 0.0130305
22.2225 0.0131606
22.2325 0.0133128
22.2425 0.0134853
22.2525 0.0136747
22.2625 0.0138784
22.2725 0.0140986
22.2825 0.0143329
22.2925 0.014577
22.3025 0.0148299
22.3125 0.0150905
22.3225 0.0153568
22.3325 0.0156268
22.3425 0.0159021
22.3525 0.0161828
22.3625 0.0164633
22.3725 0.016744
22.3825 0.0170281
22.3925 0.0173164
22.4025 0.0176071
22.4125 0.0179015
22.4225 0.0182009
22.4325 0.0185062
22.4425 0.018819
22.4525 0.0191405
22.4625 0.0194716
22.4725 0.0198134
22.4825 0.0201676
22.4925 0.0205358
22.5025 0.0209194
22.5125 0.0213194
22.5225 0.0217368
22.5325 0.0221726
22.5425 0.0226278
22.5525 0.0231028
22.5625 0.0235979
22.5725 0.0241131
22.5825 0.0246479
22.5925 0.0252015
22.6025 0.025773
22.6125 0.0263609
22.6225 0.0269609
22.6325 0.0275709
22.6425 0.0281932
22.6525 0.0288255
22.6625 0.0294628
22.6725 0.030102
22.6825 0.0307419
22.6925 0.0313796
22.7025 0.0320105
22.7125 0.0326308
22.7225 0.033238
22.7325 0.0338289
22.7425 0.0343998
22.7525 0.0349474
22.7625 0.0354691
22.7725 0.0359619
22.7825 0.0364231
22.7925 0.0368504
22.8025 0.0372417
22.8125 0.0375954
22.8225 0.0379097
22.8325 0.0381836
22.8425 0.0384161
22.8525 0.038607
22.8625 0.038756
22.8725 0.0388631
22.8825 0.0389286
22.8925 0.0389532
22.9025 0.038939
22.9125 0.0388877
22.9225 0.0388008
22.9325 0.0386808
22.9425 0.0385283
22.9525 0.0383449
22.9625 0.0381365
22.9725 0.0379059
22.9825 0.0376543
22.9925 0.0373827
23.0025 0.0370938
23.0125 0.0367902
23.0225 0.0364738
23.0325 0.0361469
23.0425 0.0358112
23.0525 0.0354679
23.0625 0.0351184
23.0725 0.0347646
23.0825 0.0344079
23.0925 0.0340497
23.1025 0.0336907
23.1125 0.0333319
23.1225 0.0329741
23.1325 0.0326183
23.1425 0.0322653
23.1525 0.0319158
23.1625 0.0315706
23.1725 0.0312301
23.1825 0.0308952
23.1925 0.0305667
23.2025 0.0302457
23.2125 0.0299333
23.2225 0.0296345
23.2325 0.0293496
23.2425 0.029073
23.2525 0.0288049
23.2625 0.0285505
23.2725 0.0283125
23.2825 0.0280892
23.2925 0.0278799
23.3025 0.0276874
23.3125 0.027514
23.3225 0.0273604
23.3325 0.0272269
23.3425 0.0271155
23.3525 0.0270282
23.3625 0.0269658
23.3725 0.026929
23.3825 0.0269193
23.3925 0.0269384
23.4025 0.0269874
23.4125 0.0270665
23.4225 0.0271758
23.4325 0.027316
23.4425 0.0274879
23.4525 0.0276912
23.4625 0.0279257
23.4725 0.0281911
23.4825 0.0284866
23.4925 0.0288107
23.5025 0.029162
23.5125 0.0295388
23.5225 0.0299391
23.5325 0.0303643
23.5425 0.0308158
23.5525 0.0312856
23.5625 0.0317733
23.5725 0.0322815
23.5825 0.0328099
23.5925 0.0333545
23.6025 0.0339136
23.6125 0.0344882
23.6225 0.035078
23.6325 0.0356815
23.6425 0.0362976
23.6525 0.0369253
23.6625 0.0375633
23.6725 0.0382109
23.6825 0.0388661
23.6925 0.0395282
23.7025 0.0401993
23.7125 0.0408781
23.7225 0.0415625
23.7325 0.042252
23.7425 0.0429474
23.7525 0.0436481
23.7625 0.0443523
23.7725 0.0450594
23.7825 0.0457694
23.7925 0.0464802
23.8025 0.0471901
23.8125 0.047899
23.8225 0.0486054
23.8325 0.0493073
23.8425 0.0500029
23.8525 0.0506913
23.8625 0.0513707
23.8725 0.052039
23.8825 0.0526942
23.8925 0.0533343
23.9025 0.0539576
23.9125 0.054562
23.9225 0.0551455
23.9325 0.0557061
23.9425 0.0562417
23.9525 0.0567506
23.9625 0.0572309
23.9725 0.0576811
23.9825 0.0580996
23.9925 0.0584848
24.0025 0.0588356
24.0125 0.0591507
24.0225 0.0594292
24.0325 0.0596704
24.0425 0.0598736
24.0525 0.0600386
24.0625 0.0601648
24.0725 0.0602522
24.0825 0.0603013
24.0925 0.0603137
24.1025 0.0602905
24.1125 0.060233
24.1225 0.0601433
24.1325 0.060024
24.1425 0.0598783
24.1525 0.059705
24.1625 0.0595078
24.1725 0.0592941
24.1825 0.0590668
24.1925 0.0588279
24.2025 0.0585794
24.2125 0.058325
24.2225 0.0580667
24.2325 0.0578071
24.2425 0.0575504
24.2525 0.0572992
24.2625 0.0570551
24.2725 0.0568198
24.2825 0.0565957
24.2925 0.0563852
24.3025 0.0561892
24.3125 0.0560086
24.3225 0.0558439
24.3325 0.0556954
24.3425 0.0555631
24.3525 0.0554467
24.3625 0.0553458
24.3725 0.0552594
24.3825 0.0551862
24.3925 0.055125
24.4025 0.0550746
24.4125 0.0550337
24.4225 0.0550011
24.4325 0.0549756
24.4425 0.0549561
24.4525 0.0549418
24.4625 0.0549321
24.4725 0.0549266
24.4825 0.0549253
24.4925 0.0549284
24.5025 0.0549363
24.5125 0.0549499
24.5225 0.0549704
24.5325 0.0550005
24.5425 0.0550456
24.5525 0.0551036
24.5625 0.0551718
24.5725 0.0552535
24.5825 0.0553536
24.5925 0.0554739
24.6025 0.0556141
24.6125 0.0557759
24.6225 0.0559625
24.6325 0.0561753
24.6425 0.0564151
24.6525 0.0566836
24.6625 0.0569825
24.6725 0.0573129
24.6825 0.0576774
24.6925 0.0580779
24.7025 0.0585126
24.7125 0.0589818
24.7225 0.0594872
24.7325 0.0600284
24.7425 0.0606027
24.7525 0.0612075
24.7625 0.0618428
24.7725 0.0625073
24.7825 0.0631974
24.7925 0.063908
24.8025 0.0646339
24.8125 0.0653775
24.8225 0.0661363
24.8325 0.0669042
24.8425 0.0676769
24.8525 0.0684524
24.8625 0.0692279
24.8725 0.0699983
24.8825 0.0707597
24.8925 0.0715098
24.9025 0.0722457
24.9125 0.072964
24.9225 0.0736617
24.9325 0.0743371
24.9425 0.074988
24.9525 0.0756128
24.9625 0.0762101
24.9725 0.0767792
24.9825 0.0773196
24.9925 0.0778309
25.0025 0.0783134
25.0125 0.0787677
25.0225 0.0791946
25.0325 0.0795949
25.0425 0.079971
25.0525 0.080325
25.0625 0.0806558
25.0725 0.0809659
25.0825 0.0812587
25.0925 0.0815356
25.1025 0.0817977
25.1125 0.0820473
25.1225 0.0822867
25.1325 0.0825174
25.1425 0.0827407
25.1525 0.082958
25.1625 0.0831706
25.1725 0.0833791
25.1825 0.0835841
25.1925 0.0837859
25.2025 0.0839845
25.2125 0.0841798
25.2225 0.0843711
25.2325 0.0845579
25.2425 0.0847394
25.2525 0.0849142
25.2625 0.0850808
25.2725 0.0852379
25.2825 0.0853837
25.2925 0.0855163
25.3025 0.0856335
25.3125 0.0857323
25.3225 0.0858101
25.3325 0.0858675
25.3425 0.0859029
25.3525 0.085913
25.3625 0.0858956
25.3725 0.0858501
25.3825 0.0857754
25.3925 0.0856701
25.4025 0.0855334
25.4125 0.0853647
25.4225 0.0851639
25.4325 0.0849312
25.4425 0.0846681
25.4525 0.0843758
25.4625 0.0840562
25.4725 0.0837073
25.4825 0.0833296
25.4925 0.0829321
25.5025 0.0825174
25.5125 0.0820866
25.5225 0.081641
25.5325 0.0811836
25.5425 0.0807164
25.5525 0.0802415
25.5625 0.0797631
25.5725 0.0792851
25.5825 0.0788095
25.5925 0.0783385
25.6025 0.077875
25.6125 0.0774221
25.6225 0.0769828
25.6325 0.0765594
25.6425 0.0761542
25.6525 0.0757689
25.6625 0.0754052
25.6725 0.0750646
25.6825 0.0747487
25.6925 0.0744582
25.7025 0.0741936
25.7125 0.0739551
25.7225 0.0737426
25.7325 0.0735558
25.7425 0.0733942
25.7525 0.0732568
25.7625 0.0731425
25.7725 0.0730499
25.7825 0.0729772
25.7925 0.0729223
25.8025 0.0728837
25.8125 0.0728592
25.8225 0.0728466
25.8325 0.0728435
25.8425 0.0728479
25.8525 0.0728577
25.8625 0.0728709
25.8725 0.0728856
25.8825 0.0729002
25.8925 0.0729132
25.9025 0.0729234
25.9125 0.0729302
25.9225 0.0729329
25.9325 0.0729314
25.9425 0.0729256
25.9525 0.072916
25.9625 0.0729033
25.9725 0.0728884
25.9825 0.0728725
25.9925 0.072857
26.0025 0.0728435
26.0125 0.0728335
26.0225 0.0728289
26.0325 0.0728314
26.0425 0.0728427
26.0525 0.0728645
26.0625 0.0728981
26.0725 0.0729449
26.0825 0.073006
26.0925 0.0730822
26.1025 0.073174
26.1125 0.0732815
26.1225 0.0734045
26.1325 0.0735425
26.1425 0.0736947
26.1525 0.07386
26.1625 0.0740389
26.1725 0.0742301
26.1825 0.07443
26.1925 0.0746372
26.2025 0.074851
26.2125 0.0750691
26.2225 0.075288
26.2325 0.0755057
26.2425 0.0757204
26.2525 0.0759296
26.2625 0.0761305
26.2725 0.0763204
26.2825 0.0764968
26.2925 0.0766572
26.3025 0.0767995
26.3125 0.0769216
26.3225 0.0770214
26.3325 0.0770971
26.3425 0.0771471
26.3525 0.0771702
26.3625 0.0771655
26.3725 0.0771322
26.3825 0.0770704
26.3925 0.0769804
26.4025 0.0768625
26.4125 0.0767173
26.4225 0.0765464
26.4325 0.0763505
26.4425 0.0761278
26.4525 0.0758831
26.4625 0.07562
26.4725 0.0753395
26.4825 0.0750418
26.4925 0.0747283
26.5025 0.0744012
26.5125 0.0740622
26.5225 0.073713
26.5325 0.0733558
26.5425 0.0729917
26.5525 0.0726215
26.5625 0.0722465
26.5725 0.0718683
26.5825 0.0714879
26.5925 0.0711059
26.6025 0.0707227
26.6125 0.0703387
26.6225 0.069954
26.6325 0.0695687
26.6425 0.0691827
26.6525 0.0687957
26.6625 0.0684069
26.6725 0.0680159
26.6825 0.0676217
26.6925 0.0672238
26.7025 0.0668211
26.7125 0.0664127
26.7225 0.0659977
26.7325 0.0655752
26.7425 0.0651442
26.7525 0.064704
26.7625 0.064254
26.7725 0.0637935
26.7825 0.0633222
26.7925 0.0628397
26.8025 0.0623461
26.8125 0.0618414
26.8225 0.061326
26.8325 0.0608004
26.8425 0.0602654
26.8525 0.0597219
26.8625 0.059171
26.8725 0.0586141
26.8825 0.0580527
26.8925 0.0574884
26.9025 0.056923
26.9125 0.0563584
26.9225 0.0557966
26.9325 0.0552395
26.9425 0.0546894
26.9525 0.0541481
26.9625 0.0536178
26.9725 0.0531003
26.9825 0.0525977
26.9925 0.0521115
27.0025 0.0516434
27.0125 0.0511949
27.0225 0.0507672
27.0325 0.0503614
27.0425 0.0499783
27.0525 0.0496185
27.0625 0.0492824
27.0725 0.0489702
27.0825 0.0486818
27.0925 0.0484167
27.1025 0.0481746
27.1125 0.0479547
27.1225 0.047756
27.1325 0.0475775
27.1425 0.0474178
27.1525 0.0472756
27.1625 0.0471495
27.1725 0.0470378
27.1825 0.0469389
27.1925 0.0468509
27.2025 0.0467724
27.2125 0.0467017
27.2225 0.0466372
27.2325 0.0465774
27.2425 0.0465208
27.2525 0.0464662
27.2625 0.0464125
27.2725 0.0463588
27.2825 0.0463043
27.2925 0.0462485
27.3025 0.046191
27.3125 0.0461318
27.3225 0.0460708
27.3325 0.0460084
27.3425 0.0459445
27.3525 0.0458793
27.3625 0.0458139
27.3725 0.045749
27.3825 0.0456849
27.3925 0.0456222
27.4025 0.045562
27.4125 0.045505
27.4225 0.0454519
27.4325 0.0454031
27.4425 0.0453593
27.4525 0.045321
27.4625 0.0452887
27.4725 0.0452626
27.4825 0.0452428
27.4925 0.045229
27.5025 0.0452208
27.5125 0.0452179
27.5225 0.0452196
27.5325 0.045225
27.5425 0.0452329
27.5525 0.0452419
27.5625 0.0452508
27.5725 0.0452578
27.5825 0.0452613
27.5925 0.0452594
27.6025 0.0452504
27.6125 0.0452324
27.6225 0.0452036
27.6325 0.0451622
27.6425 0.0451065
27.6525 0.0450351
27.6625 0.0449465
27.6725 0.0448396
27.6825 0.0447133
27.6925 0.0445671
27.7025 0.0444003
27.7125 0.0442129
27.7225 0.0440048
27.7325 0.0437764
27.7425 0.0435283
27.7525 0.0432597
27.7625 0.0429691
27.7725 0.0426609
27.7825 0.0423358
27.7925 0.0419925
27.8025 0.0416312
27.8125 0.0412545
27.8225 0.0408639
27.8325 0.0404597
27.8425 0.0400425
27.8525 0.0396139
27.8625 0.0391753
27.8725 0.0387278
27.8825 0.0382731
27.8925 0.0378125
27.9025 0.0373468
27.9125 0.0368771
27.9225 0.0364049
27.9325 0.0359313
27.9425 0.0354573
27.9525 0.0349836
27.9625 0.034511
27.9725 0.0340403
27.9825 0.0335719
27.9925 0.0331064
28.0025 0.0326442
28.0125 0.0321854
28.0225 0.0317303
28.0325 0.0312787
28.0425 0.0308308
28.0525 0.0303864
28.0625 0.0299454
28.0725 0.0295075
28.0825 0.0290726
28.0925 0.0286404
28.1025 0.0282105
28.1125 0.0277829
28.1225 0.0273574
28.1325 0.0269336
28.1425 0.0265116
28.1525 0.0260913
28.1625 0.0256728
28.1725 0.0252561
28.1825 0.0248415
28.1925 0.0244293
28.2025 0.0240199
28.2125 0.0236139
28.2225 0.0232118
28.2325 0.0228144
28.2425 0.0224225
28.2525 0.0220368
28.2625 0.0216584
28.2725 0.0212882
28.2825 0.0209273
28.2925 0.0205768
28.3025 0.0202377
28.3125 0.019911
28.3225 0.019598
28.3325 0.0192995
28.3425 0.0190166
28.3525 0.0187501
28.3625 0.018501
28.3725 0.0182698
28.3825 0.0180573
28.3925 0.017864
28.4025 0.0176902
28.4125 0.0175362
28.4225 0.017402
28.4325 0.0172877
28.4425 0.0171931
28.4525 0.0171178
28.4625 0.0170614
28.4725 0.0170232
28.4825 0.017002
28.4925 0.0169971
28.5025 0.0170074
28.5125 0.0170316
28.5225 0.0170681
28.5325 0.0171154
28.5425 0.0171721
28.5525 0.0172365
28.5625 0.0173069
28.5725 0.0173817
28.5825 0.0174592
28.5925 0.0175378
28.6025 0.0176161
28.6125 0.0176928
28.6225 0.0177666
28.6325 0.0178364
28.6425 0.0179012
28.6525 0.0179604
28.6625 0.0180134
28.6725 0.0180596
28.6825 0.0180989
28.6925 0.0181312
28.7025 0.0181565
28.7125 0.018175
28.7225 0.0181871
28.7325 0.0181932
28.7425 0.0181939
28.7525 0.0181897
28.7625 0.0181811
28.7725 0.018169
28.7825 0.0181539
28.7925 0.0181364
28.8025 0.0181171
28.8125 0.0180965
28.8225 0.0180748
28.8325 0.0180526
28.8425 0.0180298
28.8525 0.0180067
28.8625 0.017983
28.8725 0.0179587
28.8825 0.0179333
28.8925 0.0179065
28.9025 0.0178776
28.9125 0.0178461
28.9225 0.017811
28.9325 0.0177717
28.9425 0.0177272
28.9525 0.0176767
28.9625 0.0176192
28.9725 0.0175538
28.9825 0.0174797
28.9925 0.0173961
29.0025 0.0173023
29.0125 0.0171978
29.0225 0.017082
29.0325 0.0169546
29.0425 0.0168156
29.0525 0.0166649
29.0625 0.0165026
29.0725 0.0163292
29.0825 0.0161453
29.0925 0.0159515
29.1025 0.0157487
29.1125 0.0155381
29.1225 0.0153208
29.1325 0.0150971
29.1425 0.0148654
29.1525 0.0146304
29.1625 0.0143933
29.1725 0.0141532
29.1825 0.0139101
29.1925 0.0136663
29.2025 0.0134237
29.2125 0.0131823
29.2225 0.0129426
29.2325 0.0127056
29.2425 0.0124725
29.2525 0.0122441
29.2625 0.0120217
29.2725 0.0118059
29.2825 0.0115974
29.2925 0.0113966
29.3025 0.0112044
29.3125 0.0110215
29.3225 0.0108483
29.3325 0.0106852
29.3425 0.0105323
29.3525 0.01039
29.3625 0.0102583
29.3725 0.0101375
29.3825 0.0100274
29.3925 0.00992784
29.4025 0.0098387
29.4125 0.00975975
29.4225 0.0096909
29.4325 0.00963185
29.4425 0.00958192
29.4525 0.00954063
29.4625 0.00950782
29.4725 0.00948327
29.4825 0.00946657
29.4925 0.00945667
29.5025 0.00945381
29.5125 0.00945884
29.5225 0.00947083
29.5325 0.00948917
29.5425 0.00951405
29.5525 0.00954527
29.5625 0.00958221
29.5725 0.00962447
29.5825 0.00967201
29.5925 0.0097247
29.6025 0.00978218
29.6125 0.00984426
29.6225 0.00991094
29.6325 0.00998242
29.6425 0.0100587
29.6525 0.0101393
29.6625 0.0102241
29.6725 0.0103132
29.6825 0.0104067
29.6925 0.010505
29.7025 0.0106077
29.7125 0.0107146
29.7225 0.0108258
29.7325 0.0109411
29.7425 0.0110605
29.7525 0.0111839
29.7625 0.011311
29.7725 0.0114414
29.7825 0.0115747
29.7925 0.0117107
29.8025 0.0118491
29.8125 0.0119892
29.8225 0.0121306
29.8325 0.0122725
29.8425 0.0124145
29.8525 0.012556
29.8625 0.0126961
29.8725 0.0128344
29.8825 0.0129699
29.8925 0.0131021
29.9025 0.0132303
29.9125 0.0133538
29.9225 0.0134719
29.9325 0.013584
29.9425 0.0136896
29.9525 0.0137882
29.9625 0.0138793
29.9725 0.0139624
29.9825 0.0140374
29.9925 0.014104
30.0025 0.0141619
30.0125 0.0142112
30.0225 0.0142518
30.0325 0.0142839
30.0425 0.0143076
30.0525 0.0143231
30.0625 0.0143308
30.0725 0.0143311
30.0825 0.0143244
30.0925 0.0143113
30.1025 0.0142924
30.1125 0.0142681
30.1225 0.0142392
30.1325 0.0142063
30.1425 0.0141702
30.1525 0.0141313
30.1625 0.0140905
30.1725 0.0140485
30.1825 0.0140057
30.1925 0.0139628
30.2025 0.0139205
30.2125 0.0138793
30.2225 0.0138395
30.2325 0.0138018
30.2425 0.0137665
30.2525 0.0137339
30.2625 0.0137044
30.2725 0.0136783
30.2825 0.0136557
30.2925 0.0136368
30.3025 0.0136218
30.3125 0.0136108
30.3225 0.0136039
30.3325 0.0136012
30.3425 0.0136026
30.3525 0.0136083
30.3625 0.0136183
30.3725 0.0136325
30.3825 0.0136512
30.3925 0.0136742
30.4025 0.0137017
30.4125 0.0137338
30.4225 0.0137705
30.4325 0.0138121
30.4425 0.0138585
30.4525 0.0139101
30.4625 0.0139669
30.4725 0.0140292
30.4825 0.0140972
30.4925 0.0141711
30.5025 0.0142512
30.5125 0.0143375
30.5225 0.0144304
30.5325 0.0145301
30.5425 0.0146366
30.5525 0.0147502
30.5625 0.014871
30.5725 0.014999
30.5825 0.0151343
30.5925 0.0152769
30.6025 0.0154266
30.6125 0.0155834
30.6225 0.015747
30.6325 0.0159171
30.6425 0.0160936
30.6525 0.0162759
30.6625 0.0164636
30.6725 0.0166563
30.6825 0.0168533
30.6925 0.0170541
30.7025 0.0172579
30.7125 0.0174642
30.7225 0.0176722
30.7325 0.0178812
30.7425 0.018091
30.7525 0.0183026
30.7625 0.0185151
30.7725 0.0187268
30.7825 0.0189387
30.7925 0.0191513
30.8025 0.0193639
30.8125 0.0195756
30.8225 0.0197866
30.8325 0.0199978
30.8425 0.020209
30.8525 0.0204197
30.8625 0.0206297
30.8725 0.0208388
30.8825 0.021047
30.8925 0.0212542
30.9025 0.0214604
30.9125 0.0216654
30.9225 0.0218687
30.9325 0.0220703
30.9425 0.0222701
30.9525 0.0224679
30.9625 0.0226636
30.9725 0.0228571
30.9825 0.023048
30.9925 0.0232363
31.0025 0.0234219
31.0125 0.0236047
31.0225 0.0237846
31.0325 0.0239616
31.0425 0.0241356
31.0525 0.0243065
31.0625 0.0244743
31.0725 0.0246392
31.0825 0.024801
31.0925 0.02496
31.1025 0.025116
31.1125 0.0252693
31.1225 0.02542
31.1325 0.0255681
31.1425 0.0257139
31.1525 0.0258575
31.1625 0.0259991
31.1725 0.0261388
31.1825 0.0262768
31.1925 0.0264134
31.2025 0.0265487
31.2125 0.0266829
31.2225 0.0268162
31.2325 0.0269488
31.2425 0.0270808
31.2525 0.0272125
31.2625 0.027344
31.2725 0.0274755
31.2825 0.027607
31.2925 0.0277388
31.3025 0.0278708
31.3125 0.0280033
31.3225 0.0281362
31.3325 0.0282697
31.3425 0.0284038
31.3525 0.0285384
31.3625 0.0286738
31.3725 0.0288098
31.3825 0.0289465
31.3925 0.0290838
31.4025 0.0292217
31.4125 0.0293603
31.4225 0.0294995
31.4325 0.0296392
31.4425 0.0297794
31.4525 0.0299202
31.4625 0.0300615
31.4725 0.0302032
31.4825 0.0303455
31.4925 0.0304882
31.5025 0.0306314
31.5125 0.0307752
31.5225 0.0309195
31.5325 0.0310644
31.5425 0.03121
31.5525 0.0313563
31.5625 0.0315034
31.5725 0.0316514
31.5825 0.0318004
31.5925 0.0319505
31.6025 0.0321019
31.6125 0.0322545
31.6225 0.0324086
31.6325 0.0325643
31.6425 0.0327217
31.6525 0.0328808
31.6625 0.0330419
31.6725 0.0332051
31.6825 0.0333704
31.6925 0.0335378
31.7025 0.0337076
31.7125 0.0338798
31.7225 0.0340544
31.7325 0.0342314
31.7425 0.0344109
31.7525 0.0345928
31.7625 0.0347772
31.7725 0.034964
31.7825 0.0351531
31.7925 0.0353445
31.8025 0.035538
31.8125 0.0357336
31.8225 0.0359311
31.8325 0.0361304
31.8425 0.0363313
31.8525 0.0365337
31.8625 0.0367373
31.8725 0.036942
31.8825 0.0371475
31.8925 0.0373538
31.9025 0.0375605
31.9125 0.0377676
31.9225 0.0379747
31.9325 0.0381816
31.9425 0.0383883
31.9525 0.0385945
31.9625 0.0388001
31.9725 0.0390048
31.9825 0.0392085
31.9925 0.0394111
32.0025 0.0396125
32.015 0.0398624
32.0275 0.04011
32.04 0.0403551
32.0525 0.0405976
32.065 0.0408375
32.0775 0.0410747
32.09 0.0413092
32.1025 0.0415408
32.115 0.0417697
32.1275 0.0419958
32.14 0.0422191
32.1525 0.0424396
32.165 0.0426575
32.1775 0.0428725
32.19 0.0430848
32.2025 0.0432944
32.215 0.043501
32.2275 0.0437048
32.24 0.0439056
32.2525 0.0441032
32.265 0.0442976
32.2775 0.0444886
32.29 0.044676
32.3025 0.0448597
32.315 0.0450394
32.3275 0.045215
32.34 0.0453861
32.3525 0.0455527
32.365 0.0457146
32.3775 0.0458715
32.39 0.0460233
32.4025 0.0461699
32.415 0.0463111
32.4275 0.0464469
32.44 0.0465772
32.4525 0.046702
32.465 0.0468214
32.4775 0.0469355
32.49 0.0470443
32.5025 0.047148
32.515 0.0472469
32.5275 0.0473411
32.54 0.047431
32.5525 0.0475168
32.565 0.0475988
32.5775 0.0476774
32.59 0.0477529
32.6025 0.0478257
32.615 0.0478961
32.6275 0.0479645
32.64 0.0480313
32.6525 0.0480967
32.665 0.0481612
32.6775 0.0482249
32.69 0.0482881
32.7025 0.0483511
32.715 0.0484141
32.7275 0.0484773
32.74 0.0485407
32.7525 0.0486045
32.765 0.0486688
32.7775 0.0487336
32.79 0.0487989
32.8025 0.0488648
32.815 0.0489313
32.8275 0.0489982
32.84 0.0490657
32.8525 0.0491337
32.865 0.0492021
32.8775 0.0492709
32.89 0.0493401
32.9025 0.0494097
32.915 0.0494798
32.9275 0.0495502
32.94 0.0496212
32.9525 0.0496928
32.965 0.049765
32.9775 0.049838
32.99 0.0499118
33.0025 0.0499867
33.015 0.0500627
33.0275 0.0501399
33.04 0.0502185
33.0525 0.0502987
33.065 0.0503806
33.0775 0.0504643
33.09 0.0505497
33.1025 0.0506371
33.115 0.0507265
33.1275 0.0508178
33.14 0.0509111
33.1525 0.0510062
33.165 0.0511031
33.1775 0.0512017
33.19 0.0513018
33.2025 0.0514033
33.215 0.0515058
33.2275 0.0516092
33.24 0.0517131
33.2525 0.0518174
33.265 0.0519215
33.2775 0.0520253
33.29 0.0521283
33.3025 0.0522303
33.315 0.0523308
33.3275 0.0524296
33.34 0.0525262
33.3525 0.0526205
33.365 0.052712
33.3775 0.0528006
33.39 0.0528859
33.4025 0.0529678
33.415 0.053046
33.4275 0.0531204
33.44 0.0531908
33.4525 0.0532571
33.465 0.0533193
33.4775 0.0533772
33.49 0.0534309
33.5025 0.0534802
33.515 0.0535253
33.5275 0.0535661
33.54 0.0536027
33.5525 0.0536349
33.565 0.053663
33.5775 0.0536868
33.59 0.0537064
33.6025 0.0537219
33.615 0.0537331
33.6275 0.0537401
33.64 0.0537429
33.6525 0.0537414
33.665 0.0537356
33.6775 0.0537255
33.69 0.0537111
33.7025 0.0536923
33.715 0.0536692
33.7275 0.0536418
33.74 0.0536101
33.7525 0.0535742
33.765 0.0535342
33.7775 0.0534902
33.79 0.0534424
33.8025 0.053391
33.815 0.0533361
33.8275 0.0532781
33.84 0.0532172
33.8525 0.0531536
33.865 0.0530878
33.8775 0.05302
33.89 0.0529507
33.9025 0.0528801
33.915 0.0528087
33.9275 0.0527367
33.94 0.0526633
33.9525 0.05259
33.965 0.0525171
33.9775 0.0524442
33.99 0.0523718
34.0025 0.0523
34.015 0.0522288
34.0275 0.0521585
34.04 0.0520893
34.0525 0.0520212
34.065 0.0519544
34.0775 0.051889
34.09 0.0518247
34.1025 0.0517615
34.115 0.0516998
34.1275 0.0516395
34.14 0.0515805
34.1525 0.0515229
34.165 0.0514668
34.1775 0.0514122
34.19 0.0513592
34.2025 0.0513076
34.215 0.0512575
34.2275 0.051209
34.24 0.0511619
34.2525 0.0511163
34.265 0.0510721
34.2775 0.0510291
34.29 0.0509873
34.3025 0.0509467
34.315 0.0509069
34.3275 0.050868
34.34 0.0508296
34.3525 0.0507917
34.365 0.0507539
34.3775 0.0507162
34.39 0.0506781
34.4025 0.0506396
34.415 0.0506003
34.4275 0.05056
34.44 0.0505185
34.4525 0.0504755
34.465 0.0504307
34.4775 0.0503839
34.49 0.050335
34.5025 0.0502837
34.515 0.0502297
34.5275 0.050173
34.54 0.0501133
34.5525 0.0500506
34.565 0.0499846
34.5775 0.0499154
34.59 0.0498428
34.6025 0.0497667
34.615 0.0496872
34.6275 0.0496041
34.64 0.0495175
34.6525 0.0494274
34.665 0.0493337
34.6775 0.0492365
34.69 0.0491359
34.7025 0.0490317
34.715 0.0489242
34.7275 0.0488133
34.74 0.048699
34.7525 0.0485815
34.765 0.0484607
34.7775 0.0483367
34.79 0.0482095
34.8025 0.0480791
34.815 0.0479457
34.8275 0.0478092
34.84 0.0476696
34.8525 0.0475271
34.865 0.0473817
34.8775 0.0472334
34.89 0.0470823
34.9025 0.0469285
34.915 0.046772
34.9275 0.046613
34.94 0.0464516
34.9525 0.0462878
34.965 0.0461218
34.9775 0.0459538
34.99 0.045784
35.0025 0.0456125
35.015 0.0454395
35.0275 0.0452653
35.04 0.04509
35.0525 0.0449139
35.065 0.0447372
35.0775 0.0445603
35.09 0.0443833
35.1025 0.0442065
35.115 0.0440301
35.1275 0.0438545
35.14 0.0436798
35.1525 0.0435063
35.165 0.0433342
35.1775 0.0431637
35.19 0.042995
35.2025 0.0428283
35.215 0.0426637
35.2275 0.0425015
35.24 0.0423416
35.2525 0.0421842
35.265 0.0420295
35.2775 0.0418773
35.29 0.0417279
35.3025 0.0415812
35.315 0.0414372
35.3275 0.0412959
35.34 0.0411573
35.3525 0.0410214
35.365 0.040888
35.3775 0.0407573
35.39 0.040629
35.4025 0.0405033
35.415 0.0403798
35.4275 0.0402588
35.44 0.0401399
35.4525 0.0400233
35.465 0.0399087
35.4775 0.0397962
35.49 0.0396857
35.5025 0.0395772
35.515 0.0394704
35.5275 0.0393655
35.54 0.0392623
35.5525 0.0391607
35.565 0.0390607
35.5775 0.0389622
35.59 0.0388651
35.6025 0.0387693
35.615 0.0386747
35.6275 0.0385812
35.64 0.0384886
35.6525 0.0383969
35.665 0.0383058
35.6775 0.0382153
35.69 0.0381252
35.7025 0.0380353
35.715 0.0379453
35.7275 0.0378552
35.74 0.0377647
35.7525 0.0376736
35.765 0.0375817
35.7775 0.0374889
35.79 0.0373949
35.8025 0.0372995
35.815 0.0372025
35.8275 0.0371038
35.84 0.0370032
35.8525 0.0369006
35.865 0.0367958
35.8775 0.0366886
35.89 0.0365791
35.9025 0.036467
35.915 0.0363524
35.9275 0.0362352
35.94 0.0361153
35.9525 0.0359929
35.965 0.0358678
35.9775 0.0357402
35.99 0.03561
36.0025 0.0354774
36.015 0.0353425
36.0275 0.0352052
36.04 0.0350658
36.0525 0.0349244
36.065 0.034781
36.0775 0.0346358
36.09 0.0344889
36.1025 0.0343405
36.115 0.0341907
36.1275 0.0340397
36.14 0.0338875
36.1525 0.0337344
36.165 0.0335804
36.1775 0.0334256
36.19 0.0332703
36.2025 0.0331145
36.215 0.0329584
36.2275 0.0328021
36.24 0.0326456
36.2525 0.0324893
36.265 0.0323331
36.2775 0.0321772
36.29 0.0320218
36.3025 0.031867
36.315 0.0317129
36.3275 0.0315597
36.34 0.0314076
36.3525 0.0312567
36.365 0.0311072
36.3775 0.0309593
36.39 0.0308131
36.4025 0.0306689
36.415 0.0305268
36.4275 0.0303871
36.44 0.0302498
36.4525 0.0301153
36.465 0.0299837
36.4775 0.0298551
36.49 0.0297297
36.5025 0.0296078
36.515 0.0294893
36.5275 0.0293746
36.54 0.0292636
36.5525 0.0291565
36.565 0.0290535
36.5775 0.0289544
36.59 0.0288595
36.6025 0.0287687
36.615 0.028682
36.6275 0.0285994
36.64 0.0285209
36.6525 0.0284465
