0.0025 0.00310553 -0.00206289 0.00447618 -0.00408888 -0.000904672 0.000327817
0.0125 0.00227319 -0.00289932 0.0036423 -0.00492154 -0.00173801 -0.000505718
0.0225 0.000111145 -0.00507387 0.00146916 -0.00708897 -0.00390736 -0.00267591
0.035 -0.00448455 -0.0096949 -0.00317736 -0.0117219 -0.0085386 -0.00730876
0.045 -0.00971901 -0.014957 -0.00850802 -0.0170383 -0.013845 -0.0126168
0.055 -0.016403 -0.0216752 -0.0153693 -0.0238843 -0.0206672 -0.0194406
0.065 -0.0245915 -0.029904 -0.0238535 -0.0323529 -0.0290926 -0.027867
0.075 -0.0343358 -0.039694 -0.0340556 -0.0425395 -0.0392106 -0.0379851
0.085 -0.0456878 -0.0510964 -0.0460762 -0.0545459 -0.0511176 -0.0498912
0.095 -0.0587059 -0.0641689 -0.0600263 -0.0684854 -0.0649227 -0.0636939
0.105 -0.0734294 -0.0789498 -0.0760017 -0.0844556 -0.0807218 -0.0794887
0.115 -0.089841 -0.0954207 -0.0940447 -0.102501 -0.0985599 -0.0973201
0.125 -0.107815 -0.113453 -0.11409 -0.122557 -0.118378 -0.117128
0.135 -0.127068 -0.132755 -0.135912 -0.1444 -0.139961 -0.138699
0.145 -0.147134 -0.15286 -0.159098 -0.167623 -0.162914 -0.161636
0.155 -0.167367 -0.173123 -0.183051 -0.191631 -0.186665 -0.185367
0.165 -0.186987 -0.192756 -0.207022 -0.215679 -0.210498 -0.209175
0.175 -0.205145 -0.210907 -0.230176 -0.238935 -0.233617 -0.232266
0.185 -0.221009 -0.226736 -0.251669 -0.260557 -0.25523 -0.253846
0.195 -0.233812 -0.239478 -0.270698 -0.279743 -0.274595 -0.273175
0.205 -0.24286 -0.248433 -0.286499 -0.295728 -0.291015 -0.289558
0.215 -0.247454 -0.252902 -0.298269 -0.307709 -0.303768 -0.302272
0.225 -0.246824 -0.252115 -0.305102 -0.314774 -0.31203 -0.310495
0.235 -0.240067 -0.245166 -0.305919 -0.315843 -0.314812 -0.313241
0.245 -0.226143 -0.231016 -0.299469 -0.30966 -0.310956 -0.309352
0.255 -0.20399 -0.208602 -0.284439 -0.294906 -0.29924 -0.29761
0.265 -0.172859 -0.177176 -0.25979 -0.27053 -0.278713 -0.277067
0.275 -0.132783 -0.136779 -0.225236 -0.236241 -0.249165 -0.247517
0.285 -0.0849987 -0.0886618 -0.181664 -0.192913 -0.211552 -0.20992
0.295 -0.0318897 -0.0352282 -0.131104 -0.142555 -0.167944 -0.166348
0.305 0.0235845 0.0205385 -0.0761768 -0.087768 -0.120974 -0.119436
0.315 0.0785094 0.0757138 -0.0194982 -0.0311434 -0.0732305 -0.071778
0.325 0.130312 0.127705 0.0366015 0.0250036 -0.0269727 -0.0256371
0.335 0.176923 0.174419 0.0902051 0.0787629 0.0159983 0.0171844
0.345 0.216959 0.21446 0.13999 0.128816 0.0545256 0.0555301
0.355 0.249789 0.247199 0.185286 0.174494 0.0881577 0.0889526
0.365 0.275452 0.272664 0.225976 0.215672 0.117043 0.117605
0.375 0.294451 0.29137 0.262321 0.252601 0.141753 0.142064
0.385 0.307558 0.30412 0.294775 0.28572 0.163085 0.163133
0.395 0.315753 0.311906 0.323911 0.31559 0.181982 0.181764
0.405 0.320104 0.315802 0.350318 0.342772 0.199422 0.198941
0.415 0.321574 0.31679 0.374459 0.367705 0.216254 0.215525
0.425 0.320811 0.315538 0.396458 0.39049 0.232983 0.232026
0.435 0.318027 0.312269 0.415994 0.410783 0.249647 0.248493
0.445 0.31315 0.306918 0.432462 0.427963 0.265979 0.264663
0.455 0.30625 0.299569 0.445429 0.441581 0.281832 0.2804
0.465 0.29805 0.290959 0.455158 0.451868 0.2977 0.296201
0.475 0.290197 0.282749 0.462877 0.460034 0.314984 0.313473
0.485 0.285219 0.277496 0.470769 0.468251 0.335974 0.334512
0.495 0.286424 0.278528 0.481885 0.479559 0.363747 0.362401
0.5075 0.302642 0.294706 0.506159 0.503855 0.413734 0.412625
0.52 0.342836 0.335098 0.549698 0.547143 0.488092 0.487325
0.5325 0.414115 0.40684 0.620117 0.617038 0.593881 0.593553
0.545 0.520757 0.514208 0.722647 0.718801 0.735567 0.735764
0.5575 0.663077 0.65749 0.859022 0.854214 0.913933 0.914731
0.57 0.836914 0.832461 1.02689 1.02099 1.12554 1.12697
0.5825 1.03353 1.03029 1.21958 1.21259 1.36258 1.36463
0.595 1.24029 1.23823 1.42664 1.41865 1.61343 1.61608
0.6075 1.44295 1.44191 1.63591 1.62716 1.86491 1.8681
0.62 1.62896 1.62867 1.83664 1.82744 2.1054 2.10903
0.6325 1.78975 1.78988 2.02158 2.01236 2.32705 2.331
0.645 1.92116 1.92133 2.18731 2.17851 2.52612 2.53025
0.6575 2.02261 2.02244 2.33335 2.32541 2.7021 2.7063
0.67 2.09621 2.09535 2.46125 2.4546 2.85689 2.86104
0.6825 2.14564 2.14377 2.57352 2.56853 2.99362 2.9976
0.695 2.17475 2.17161 2.67234 2.6693 3.11532 3.11906
0.7075 2.18714 2.18254 2.7592 2.75833 3.22457 3.22803
0.72 2.18716 2.18099 2.83605 2.83745 3.32451 3.32767
0.7325 2.1809 2.17313 2.90638 2.91006 3.41989 3.42277
0.745 2.17594 2.16664 2.9752 2.98105 3.5169 3.51956
0.7575 2.17999 2.16933 3.04778 3.05557 3.62189 3.62441
0.77 2.19885 2.18707 3.12781 3.13721 3.73939 3.7419
0.7825 2.23501 2.22241 3.21608 3.2267 3.8708 3.87343
0.795 2.28833 2.27522 3.31127 3.32268 4.01506 4.01798
0.8075 2.35749 2.3442 3.41143 3.42321 4.17017 4.17352
0.82 2.4406 2.42745 3.51462 3.52631 4.33372 4.33766
0.8325 2.53536 2.52263 3.619 3.6302 4.50313 4.50778
0.845 2.63922 2.62716 3.72298 3.73333 4.67571 4.68119
0.8575 2.74955 2.73839 3.82533 3.83453 4.84887 4.85528
0.87 2.86367 2.85355 3.92509 3.93292 5.02008 5.02748
0.8825 2.97865 2.96967 4.02133 4.02764 5.18671 5.19511
0.895 3.09142 3.08361 4.11307 4.11783 5.34602 5.3554
0.9075 3.19925 3.19259 4.19976 4.203 5.49567 5.50599
0.92 3.30041 3.2948 4.28169 4.28356 5.63433 5.64549
0.9325 3.39431 3.38962 4.36019 4.36089 5.7618 5.77368
0.945 3.48093 3.47699 4.43688 4.43667 5.87844 5.8909
0.9575 3.55941 3.55602 4.51221 4.51141 5.98371 5.99659
0.97 3.62661 3.62353 4.58397 4.58294 6.07478 6.08788
0.9825 3.67708 3.67402 4.64719 4.64632 6.14639 6.15952
0.995 3.70443 3.70108 4.69546 4.69519 6.19226 6.20523
1.005 3.70586 3.70204 4.71911 4.71962 6.20655 6.21925
1.0175 3.67878 3.67407 4.72574 4.72757 6.19288 6.20509
1.03 3.61834 3.61243 4.70405 4.70752 6.14243 6.15399
1.0425 3.52581 3.51845 4.65314 4.65852 6.05576 6.06656
1.055 3.40426 3.39528 4.57353 4.58096 5.93507 5.94503
1.0675 3.25747 3.24677 4.46614 4.47565 5.78305 5.79213
1.08 3.08958 3.07718 4.33214 4.34363 5.6027 5.61093
1.0925 2.90493 2.89089 4.17286 4.18612 5.39714 5.40455
1.105 2.70748 2.69199 3.98948 4.00416 5.16911 5.17582
1.1175 2.50086 2.48416 3.78309 3.79877 4.92107 4.92719
1.13 2.28826 2.27066 3.55485 3.571 4.65514 4.66084
1.1425 2.07224 2.0541 3.30575 3.3218 4.37294 4.3784
1.155 1.85485 1.83656 3.03696 3.05228 4.07576 4.08117
1.1675 1.63869 1.62065 2.7508 2.76476 3.76562 3.77116
1.18 1.42798 1.41061 2.45194 2.46391 3.44639 3.45224
1.1925 1.22823 1.21197 2.14705 2.15644 3.12351 3.12983
1.205 1.04406 1.02931 1.8426 1.84887 2.80177 2.80869
1.2175 0.877832 0.86496 1.54351 1.54619 2.4841 2.4917
1.23 0.730159 0.71946 1.25347 1.25224 2.17192 2.18026
1.2425 0.600375 0.59206 0.975395 0.970051 1.86575 1.87479
1.255 0.486704 0.48089 0.711405 0.701894 1.56523 1.57491
1.2675 0.38608 0.382776 0.462462 0.44889 1.26897 1.27915
1.28 0.29367 0.292757 0.227716 0.210348 0.973974 0.984474
1.2925 0.202621 0.203798 0.00399264 -0.0167804 0.675265 0.685844
1.305 0.104401 0.107377 -0.213809 -0.237425 0.366398 0.376774
1.3175 -0.00878526 -0.00439384 -0.430914 -0.456645 0.0414916 0.051355
1.33 -0.141189 -0.135925 -0.649821 -0.676858 -0.302046 -0.293022
1.3425 -0.292523 -0.286895 -0.869177 -0.896776 -0.662339 -0.654491
1.355 -0.459169 -0.453651 -1.08529 -1.11273 -1.03443 -1.02808
1.3675 -0.637046 -0.632104 -1.29496 -1.32151 -1.41314 -1.40857
1.38 -0.823922 -0.819955 -1.49752 -1.52255 -1.79527 -1.79267
1.3925 -1.01979 -1.01714 -1.69521 -1.71823 -2.18001 -2.17963
1.405 -1.22542 -1.22438 -1.8917 -1.9123 -2.5676 -2.56957
1.4175 -1.44088 -1.44166 -2.09043 -2.10831 -2.95773 -2.96207
1.43 -1.66568 -1.6684 -2.29459 -2.30963 -3.34966 -3.35637
1.4425 -1.89945 -1.90415 -2.50766 -2.51988 -3.74293 -3.75194
1.455 -2.1421 -2.14872 -2.73343 -2.74303 -4.13753 -4.1487
1.4675 -2.39334 -2.40174 -2.97538 -2.98266 -4.53341 -4.54651
1.48 -2.6519 -2.66186 -3.23569 -3.24113 -4.92965 -4.94438
1.4925 -2.91441 -2.92561 -3.51398 -3.51816 -5.32328 -5.33932
1.505 -3.17431 -3.18635 -3.80613 -3.80975 -5.70825 -5.72523
1.5175 -3.42221 -3.4346 -4.10441 -4.10826 -6.07565 -6.09317
1.53 -3.64782 -3.66001 -4.39929 -4.40422 -6.41559 -6.43323
1.5425 -3.84241 -3.8538 -4.68178 -4.68868 -6.71956 -6.73689
1.555 -4.00023 -4.01021 -4.94483 -4.95454 -6.98179 -6.99842
1.5675 -4.11934 -4.12737 -5.18414 -5.1974 -7.20008 -7.21565
1.58 -4.20157 -4.20717 -5.3982 -5.41564 -7.37569 -7.3899
1.5925 -4.25199 -4.25483 -5.58792 -5.61001 -7.51292 -7.52554
1.605 -4.27835 -4.27822 -5.75632 -5.78329 -7.61853 -7.62941
1.6175 -4.28995 -4.28681 -5.90761 -5.9395 -7.70077 -7.70986
1.63 -4.29608 -4.29007 -6.04599 -6.08259 -7.76789 -7.7752
1.6425 -4.30488 -4.29627 -6.17469 -6.2156 -7.82706 -7.83271
1.655 -4.32309 -4.31229 -6.29607 -6.34069 -7.88424 -7.8884
1.6675 -4.35603 -4.34355 -6.41179 -6.45937 -7.94421 -7.94715
1.68 -4.40753 -4.39374 -6.52253 -6.57218 -8.01013 -8.01214
1.6925 -4.48022 -4.4633 -6.62748 -6.67826 -8.08289 -8.08427
1.705 -4.56928 -4.55092 -6.72475 -6.77575 -8.16156 -8.16262
1.7175 -4.67227 -4.65481 -6.81312 -6.86337 -8.24501 -8.24614
1.73 -4.79064 -4.77391 -6.89357 -6.94221 -8.33355 -8.33513
1.7425 -4.92478 -4.90888 -6.96991 -7.01635 -8.42988 -8.43215
1.755 -5.07777 -5.06334 -7.04801 -7.09214 -8.53845 -8.54153
1.7675 -5.25426 -5.24111 -7.13435 -7.17563 -8.66339 -8.66752
1.78 -5.45483 -5.44304 -7.23345 -7.27135 -8.80642 -8.81174
1.7925 -5.67619 -5.66616 -7.34595 -7.38017 -8.96549 -8.97213
1.805 -5.91197 -5.90359 -7.46902 -7.49958 -9.13489 -9.14284
1.8175 -6.15285 -6.14605 -7.59766 -7.6246 -9.30646 -9.31565
1.83 -6.3886 -6.38342 -7.72593 -7.74936 -9.47119 -9.48152
1.8425 -6.61051 -6.60676 -7.84883 -7.86907 -9.62132 -9.63267
1.855 -6.81285 -6.81032 -7.96413 -7.98168 -9.75228 -9.76443
1.8675 -6.99315 -6.99162 -8.0725 -8.0879 -9.86274 -9.87541
1.88 -7.15092 -7.15009 -8.1759 -8.18975 -9.9532 -9.96609
1.8925 -7.28587 -7.28541 -8.27581 -8.28881 -10.0243 -10.0371
1.905 -7.39686 -7.39644 -8.37212 -8.38502 -10.0759 -10.0883
1.9175 -7.48166 -7.48093 -8.46291 -8.47644 -10.1065 -10.1182
1.93 -7.53737 -7.536 -8.54482 -8.55968 -10.114 -10.1247
1.9425 -7.56115 -7.55881 -8.61377 -8.63063 -10.0962 -10.1056
1.955 -7.55083 -7.54693 -8.66553 -8.68509 -10.0513 -10.0592
1.9675 -7.5057 -7.49978 -8.69644 -8.71935 -9.97873 -9.98486
1.98 -7.42767 -7.41934 -8.70469 -8.73142 -9.88015 -9.88439
1.9925 -7.32177 -7.31075 -8.6909 -8.72171 -9.7599 -9.7622
2.0025 -7.22182 -7.20856 -8.66562 -8.69974 -9.65235 -9.65312
2.0125 -7.11293 -7.09744 -8.62949 -8.66688 -9.53869 -9.538
2.0225 -6.99943 -6.98179 -8.5843 -8.62478 -9.42262 -9.42056
2.0325 -6.88538 -6.86574 -8.5317 -8.57499 -9.30756 -9.30428
2.0425 -6.77442 -6.75301 -8.47312 -8.51883 -9.1965 -9.19218
2.0525 -6.66968 -6.64679 -8.40972 -8.45741 -9.09197 -9.08682
2.0625 -6.57349 -6.54945 -8.3422 -8.39134 -8.99571 -8.98997
2.0725 -6.48693 -6.4621 -8.27039 -8.32042 -8.90829 -8.90222
2.0825 -6.40956 -6.38433 -8.19307 -8.24337 -8.82888 -8.82274
2.0925 -6.33947 -6.31422 -8.1079 -8.15788 -8.75521 -8.74927
2.1025 -6.27346 -6.24854 -8.01173 -8.06079 -8.68379 -8.67831
2.1125 -6.20771 -6.18346 -7.90118 -7.94875 -8.6106 -8.60584
2.1225 -6.13875 -6.11547 -7.77358 -7.81915 -8.53198 -8.52817
2.1325 -6.06412 -6.04206 -7.62758 -7.6707 -8.4453 -8.44265
2.1425 -5.98273 -5.96211 -7.46352 -7.50377 -8.34934 -8.34802
2.1525 -5.89474 -5.87575 -7.28322 -7.32026 -8.24411 -8.24427
2.1625 -5.80092 -5.7837 -7.08926 -7.12283 -8.13022 -8.13198
2.1725 -5.70176 -5.68641 -6.88413 -6.91403 -8.00804 -8.01147
2.1825 -5.59715 -5.58372 -6.66981 -6.69593 -7.87732 -7.88245
2.1925 -5.48645 -5.47494 -6.44778 -6.4701 -7.73729 -7.7441
2.2025 -5.36887 -5.35924 -6.21937 -6.23796 -7.58703 -7.59549
2.2125 -5.24383 -5.23596 -5.98603 -6.00103 -7.4258 -7.43581
2.2225 -5.11088 -5.10464 -5.7492 -5.76085 -7.25299 -7.26443
2.2325 -4.96963 -4.96481 -5.51021 -5.51879 -7.06803 -7.08072
2.2425 -4.81966 -4.81604 -5.27013 -5.27601 -6.87028 -6.88405
2.2525 -4.66067 -4.658 -5.02989 -5.03347 -6.65923 -6.67385
2.2625 -4.49264 -4.49063 -4.79035 -4.79209 -6.43457 -6.44981
2.2725 -4.31592 -4.31429 -4.55247 -4.55283 -6.19636 -6.21197
2.2825 -4.13125 -4.1297 -4.31724 -4.3167 -5.94505 -5.96076
2.2925 -3.93978 -3.93803 -4.0857 -4.08474 -5.68142 -5.69698
2.3025 -3.74299 -3.74076 -3.85892 -3.858 -5.40661 -5.42177
2.3125 -3.54264 -3.53969 -3.63794 -3.6375 -5.12206 -5.13656
2.3225 -3.34079 -3.33691 -3.42381 -3.42422 -4.82948 -4.8431
2.3325 -3.13976 -3.13478 -3.2176 -3.2192 -4.53089 -4.54341
2.3425 -2.94188 -2.93633 -3.02039 -3.02334 -4.22851 -4.23978
2.3525 -2.74942 -2.74357 -2.83324 -2.83745 -3.9246 -3.93452
2.3625 -2.56451 -2.55784 -2.65667 -2.66233 -3.62111 -3.62952
2.3725 -2.38794 -2.38041 -2.49024 -2.4975 -3.31945 -3.32625
2.3825 -2.21954 -2.21136 -2.33268 -2.34171 -3.02001 -3.02508
2.3925 -2.05842 -2.04957 -2.18163 -2.19241 -2.7221 -2.7254
2.4025 -1.90266 -1.89308 -2.03386 -2.04628 -2.42421 -2.42572
2.4125 -1.74965 -1.73943 -1.88559 -1.89953 -2.12439 -2.12413
2.4225 -1.59682 -1.58611 -1.73303 -1.7484 -1.82068 -1.81869
2.4325 -1.44192 -1.43082 -1.57283 -1.58948 -1.51138 -1.50768
2.4425 -1.28325 -1.27185 -1.40235 -1.42006 -1.19542 -1.19011
2.4525 -1.11983 -1.1083 -1.21988 -1.23835 -0.872526 -0.865729
2.4625 -0.951586 -0.940105 -1.02471 -1.04359 -0.543313 -0.535148
2.4725 -0.779181 -0.767918 -0.816958 -0.835972 -0.20909 -0.199689
2.4825 -0.603548 -0.592694 -0.597281 -0.616144 0.128528 0.139013
2.4925 -0.425617 -0.415373 -0.366565 -0.38496 0.467945 0.47934
2.5025 -0.246048 -0.2366 -0.125644 -0.143204 0.807845 0.81997
2.5125 -0.065047 -0.0565764 0.12492 0.108556 1.14736 1.16004
2.5225 0.117533 0.124849 0.384738 0.369884 1.48597 1.49903
2.5325 0.301859 0.307863 0.653249 0.640179 1.82323 1.83651
2.5425 0.487772 0.49233 0.929367 0.918337 2.15836 2.17171
2.5525 0.674554 0.677548 1.21128 1.20253 2.49007 2.50335
2.5625 0.860841 0.862178 1.49643 1.49015 2.81644 2.82952
2.5725 1.04475 1.04437 1.78164 1.77797 3.13508 3.14784
2.5825 1.22422 1.22207 2.06344 2.06248 3.44342 3.45578
2.5925 1.39716 1.39324 2.33831 2.3401 3.73892 3.75081
2.6025 1.56147 1.55579 2.60266 2.6072 4.01903 4.03041
2.6125 1.71516 1.70776 2.85302 2.86026 4.28135 4.2922
2.6225 1.85658 1.84755 3.08629 3.09612 4.52385 4.53417
2.6325 1.98458 1.974 3.29992 3.31217 4.74501 4.75481
2.6425 2.09853 2.08655 3.49198 3.50645 4.94384 4.95318
2.6525 2.19844 2.18521 3.66125 3.67769 5.12003 5.12896
2.6625 2.28498 2.27067 3.80736 3.82548 5.27396 5.28257
2.6725 2.35954 2.34437 3.9308 3.95029 5.40676 5.41513
2.6825 2.42413 2.40831 4.0329 4.05338 5.52021 5.52845
2.6925 2.48117 2.46494 4.11558 4.13669 5.61655 5.62477
2.7025 2.53313 2.51674 4.18108 4.20242 5.69813 5.70645
2.7125 2.58226 2.56594 4.23163 4.25282 5.76715 5.77567
2.7225 2.63064 2.61465 4.26961 4.29025 5.8257 5.83454
2.7325 2.68041 2.66498 4.29763 4.31735 5.876 5.88526
2.7425 2.73373 2.71906 4.31863 4.33709 5.92037 5.93015
2.7525 2.79256 2.77885 4.33557 4.35246 5.96106 5.97142
2.7625 2.85843 2.84586 4.35124 4.36628 5.99996 6.01096
2.7725 2.93221 2.92092 4.36792 4.3809 6.03838 6.05006
2.7825 3.0139 3.00401 4.38718 4.39794 6.07684 6.08921
2.7925 3.10256 3.09414 4.40984 4.41827 6.11505 6.1281
2.8025 3.19657 3.18967 4.43604 4.44212 6.15208 6.16576
2.8125 3.29402 3.28863 4.46571 4.46947 6.18676 6.20101
2.8225 3.39299 3.38908 4.49875 4.5003 6.21799 6.23272
2.8325 3.49173 3.48921 4.53514 4.53466 6.24488 6.25997
2.8425 3.58859 3.58734 4.57488 4.5726 6.26663 6.28195
2.8525 3.68199 3.68187 4.61787 4.61406 6.28255 6.29795
2.8625 3.77042 3.77123 4.66386 4.65886 6.29201 6.30732
2.8725 3.85253 3.85409 4.71259 4.70677 6.29455 6.30959
2.8825 3.92741 3.92949 4.76395 4.75769 6.29008 6.30466
2.8925 3.99481 3.99718 4.8182 4.81193 6.27917 6.29312
2.9025 4.05531 4.05774 4.8762 4.87031 6.26318 6.27631
2.9125 4.11016 4.11237 4.93914 4.93406 6.24409 6.25623
2.9225 4.16101 4.16241 5.00826 5.00446 6.22412 6.23509
2.9325 4.20918 4.20959 5.08421 5.08206 6.20521 6.21486
2.9425 4.25502 4.25445 5.16681 5.16659 6.18849 6.19671
2.9525 4.29821 4.29659 5.25462 5.25654 6.17404 6.18076
2.9625 4.33756 4.33475 5.34512 5.34938 6.16108 6.16625
2.9725 4.37137 4.36738 5.43532 5.44208 6.14842 6.15202
2.9825 4.398 4.39278 5.52211 5.5315 6.13481 6.13683
2.9925 4.41592 4.40928 5.60225 5.61433 6.11886 6.11932
3.0025 4.42336 4.4151 5.67231 5.68707 6.09898 6.09794
3.0125 4.41819 4.40838 5.72866 5.74606 6.07335 6.07091
3.0225 4.39846 4.38716 5.76763 5.78755 6.03999 6.03629
3.0325 4.3623 4.34952 5.78559 5.80783 5.99682 5.99203
3.0425 4.30792 4.29368 5.77911 5.80344 5.94184 5.93611
3.0525 4.23418 4.21863 5.74557 5.77169 5.87358 5.86711
3.0625 4.14136 4.12464 5.68377 5.71134 5.79181 5.78482
3.0725 4.03125 4.01347 5.59415 5.62279 5.69764 5.6904
3.0825 3.90648 3.88783 5.47831 5.50755 5.59305 5.58581
3.0925 3.77007 3.7508 5.33844 5.3678 5.48032 5.47334
3.1025 3.62522 3.60557 5.17713 5.20611 5.36179 5.35534
3.1125 3.47504 3.45528 4.99722 5.02529 5.23972 5.23406
3.1225 3.32256 3.30299 4.80181 4.82844 5.11628 5.11168
3.1325 3.17079 3.15171 4.5943 4.61898 4.99363 4.99035
3.1425 3.02279 3.0045 4.37846 4.40069 4.874 4.87225
3.1525 2.88157 2.86434 4.15836 4.17769 4.7596 4.75955
3.1625 2.74973 2.73384 3.93799 3.95402 4.65231 4.65414
3.1725 2.62896 2.61465 3.72068 3.73308 4.55317 4.55701
3.1825 2.51968 2.50716 3.5088 3.51731 4.46207 4.468
3.1925 2.42134 2.41075 3.3039 3.30836 4.37798 4.38605
3.2025 2.33263 2.32404 3.10694 3.10728 4.29923 4.30941
3.2125 2.25157 2.24501 2.91827 2.91451 4.22353 4.23577
3.2225 2.17558 2.17101 2.73765 2.72995 4.14809 4.16228
3.2325 2.10183 2.09912 2.56448 2.55306 4.06986 4.08586
3.2425 2.0275 2.02648 2.39805 2.38325 3.98592 4.00352
3.2525 1.95017 1.95061 2.23782 2.22005 3.89371 3.91267
3.2625 1.8679 1.86951 2.08341 2.06317 3.79116 3.81122
3.2725 1.77908 1.78155 1.93449 1.91231 3.67655 3.69742
3.2825 1.68231 1.68529 1.7905 1.76697 3.54832 3.56968
3.2925 1.57638 1.57951 1.65071 1.62643 3.4051 3.42663
3.3025 1.4604 1.46331 1.51428 1.48987 3.24584 3.26721
3.3125 1.33396 1.33628 1.38038 1.35644 3.06987 3.09076
3.3225 1.19706 1.19844 1.24822 1.22532 2.87697 2.89707
3.3325 1.05014 1.05027 1.11703 1.0957 2.66732 2.68633
3.3425 0.893995 0.892599 0.986042 0.966742 2.44139 2.45906
3.3525 0.729592 0.726439 0.854334 0.83745 2.19988 2.21597
3.3625 0.557941 0.552854 0.720776 0.70661 1.9435 1.95781
3.3725 0.379959 0.372819 0.583945 0.572701 1.67287 1.68526
3.3825 0.196416 0.187187 0.442138 0.433923 1.38851 1.39887
3.3925 0.00778733 -0.00247178 0.293535 0.288094 1.09084 1.09915
3.4025 -0.185466 -0.196996 0.136472 0.133568 0.780304 0.786593
3.4125 -0.382622 -0.395498 -0.0306213 -0.0311379 0.457703 0.461952
3.4225 -0.58288 -0.596862 -0.208642 -0.206924 0.124464 0.126749
3.4325 -0.784434 -0.799217 -0.397429 -0.393707 -0.217257 -0.216878
3.4425 -0.984679 -1.00012 -0.595946 -0.590653 -0.564636 -0.565994
3.4525 -1.18085 -1.19675 -0.802607 -0.796246 -0.914425 -0.917376
3.4625 -1.37015 -1.3862 -1.01553 -1.00858 -1.26323 -1.26761
3.4725 -1.54999 -1.56578 -1.23274 -1.22564 -1.60785 -1.61345
3.4825 -1.71826 -1.73344 -1.45238 -1.44563 -1.94555 -1.95215
3.4925 -1.87353 -1.88784 -1.67293 -1.66708 -2.27422 -2.28161
3.5025 -2.01518 -2.02831 -1.89316 -1.88881 -2.59236 -2.60032
3.5125 -2.14311 -2.15475 -2.11213 -2.10977 -2.89895 -2.90728
3.5225 -2.25751 -2.26738 -2.3289 -2.3289 -3.19326 -3.20175
3.5325 -2.35863 -2.36651 -2.5422 -2.54492 -3.47453 -3.48299
3.5425 -2.44678 -2.45247 -2.75047 -2.75625 -3.74201 -3.75028
3.5525 -2.52247 -2.52582 -2.95215 -2.96129 -3.99509 -4.00304
3.5625 -2.58657 -2.58746 -3.1459 -3.1586 -4.23352 -4.24105
3.5725 -2.64048 -2.63881 -3.33075 -3.3471 -4.45756 -4.46459
3.5825 -2.68624 -2.68199 -3.50628 -3.5263 -4.66811 -4.67459
3.5925 -2.7267 -2.71993 -3.67282 -3.69645 -4.86684 -4.87276
3.6025 -2.76554 -2.75637 -3.83161 -3.85869 -5.0563 -5.0617
3.6125 -2.80707 -2.79569 -3.98469 -4.01493 -5.23975 -5.24468
3.6225 -2.85569 -2.84238 -4.13438 -4.16743 -5.42062 -5.42517
3.6325 -2.91535 -2.90042 -4.28283 -4.31824 -5.60198 -5.60627
3.6425 -2.98909 -2.97292 -4.43164 -4.46892 -5.78621 -5.79038
3.6525 -3.079 -3.06205 -4.58191 -4.62052 -5.97492 -5.97911
3.6625 -3.18634 -3.16873 -4.73417 -4.77368 -6.16893 -6.17329
3.6725 -3.3115 -3.29353 -4.88829 -4.92817 -6.36817 -6.37286
3.6825 -3.45348 -3.43548 -5.04347 -5.0832 -6.57161 -6.57677
3.6925 -3.61039 -3.59277 -5.1984 -5.23743 -6.77743 -6.78319
3.7025 -3.77981 -3.76287 -5.35143 -5.38927 -6.98327 -6.98978
3.7125 -3.95903 -3.94303 -5.50102 -5.53725 -7.1867 -7.19407
3.7225 -4.14551 -4.13069 -5.64619 -5.68046 -7.38563 -7.39395
3.7325 -4.33715 -4.32374 -5.78665 -5.81865 -7.57851 -7.58782
3.7425 -4.53205 -4.52018 -5.92248 -5.95197 -7.76402 -7.77435
3.7525 -4.72811 -4.71789 -6.05376 -6.08059 -7.94079 -7.95214
3.7625 -4.92309 -4.91458 -6.18052 -6.20463 -8.1074 -8.11973
3.7725 -5.11477 -5.10799 -6.30285 -6.32427 -8.26248 -8.27574
3.7825 -5.30096 -5.29586 -6.42083 -6.43966 -8.40475 -8.41881
3.7925 -5.47945 -5.47593 -6.53446 -6.55089 -8.53294 -8.54767
3.8025 -5.64811 -5.64604 -6.64368 -6.65797 -8.64588 -8.66112
3.8125 -5.80507 -5.80427 -6.74846 -6.76094 -8.74266 -8.75823
3.8225 -5.9488 -5.94906 -6.84889 -6.85995 -8.8227 -8.83839
3.8325 -6.07796 -6.07904 -6.94497 -6.95504 -8.88558 -8.90118
3.8425 -6.19124 -6.19288 -7.03637 -7.04593 -8.93089 -8.94615
3.8525 -6.28728 -6.2892 -7.12241 -7.13194 -8.9581 -8.9728
3.8625 -6.36485 -6.36676 -7.20215 -7.21216 -8.96676 -8.98068
3.8725 -6.42325 -6.42487 -7.27484 -7.28581 -8.95691 -8.96982
3.8825 -6.46272 -6.46376 -7.34024 -7.35265 -8.92941 -8.9411
3.8925 -6.48439 -6.48459 -7.39872 -7.413 -8.88596 -8.89625
3.9025 -6.49014 -6.4891 -7.45096 -7.46753 -8.82885 -8.83757
3.9125 -6.48209 -6.47956 -7.49771 -7.51692 -8.76065 -8.76767
3.9225 -6.46263 -6.45845 -7.53965 -7.5618 -8.68407 -8.68929
3.9325 -6.43435 -6.42837 -7.57742 -7.60269 -8.60184 -8.60521
3.9425 -6.39998 -6.39208 -7.61164 -7.64012 -8.5168 -8.51829
3.9525 -6.36232 -6.3525 -7.64299 -7.67468 -8.43184 -8.43149
3.9625 -6.32429 -6.3126 -7.67221 -7.70702 -8.34991 -8.34779
3.9725 -6.28863 -6.27518 -7.69993 -7.73768 -8.27374 -8.26996
3.9825 -6.25748 -6.24243 -7.72633 -7.76676 -8.2055 -8.20019
3.9925 -6.23199 -6.21555 -7.75082 -7.79357 -8.14633 -8.13968
4.0025 -6.21214 -6.19457 -7.77185 -7.81653 -8.09625 -8.08846
4.0125 -6.19709 -6.17866 -7.78737 -7.83352 -8.05449 -8.04579
4.0225 -6.18571 -6.16672 -7.79531 -7.84247 -8.01995 -8.01062
4.0325 -6.17684 -6.15758 -7.79394 -7.8416 -7.99159 -7.98189
4.0425 -6.16939 -6.15017 -7.78193 -7.82957 -7.96839 -7.9586
4.0525 -6.16231 -6.14341 -7.75827 -7.80538 -7.94938 -7.93975
4.0625 -6.15461 -6.13629 -7.72238 -7.76848 -7.93364 -7.92442
4.0725 -6.14558 -6.1281 -7.67428 -7.71892 -7.92053 -7.91199
4.0825 -6.13515 -6.11873 -7.61488 -7.65764 -7.91 -7.90238
4.0925 -6.12388 -6.10872 -7.54601 -7.5865 -7.90265 -7.89616
4.1025 -6.11264 -6.09891 -7.47 -7.50793 -7.89936 -7.89416
4.1125 -6.10209 -6.08994 -7.38919 -7.4243 -7.9008 -7.89705
4.1225 -6.09231 -6.08184 -7.30551 -7.33762 -7.90704 -7.90485
4.1325 -6.08267 -6.07391 -7.22022 -7.24922 -7.9174 -7.91683
4.1425 -6.07198 -6.06494 -7.13414 -7.16002 -7.93063 -7.93173
4.1525 -6.0591 -6.05372 -7.04807 -7.07088 -7.94549 -7.94826
4.1625 -6.04322 -6.0394 -6.96311 -6.983 -7.96103 -7.96545
4.1725 -6.02397 -6.02156 -6.88065 -6.89783 -7.97669 -7.98268
4.1825 -6.0013 -6.00013 -6.80229 -6.81704 -7.99221 -7.99965
4.1925 -5.97551 -5.97535 -6.72968 -6.74234 -8.00756 -8.01632
4.2025 -5.94712 -5.94775 -6.66454 -6.67548 -8.02294 -8.03287
4.2125 -5.91682 -5.91797 -6.60842 -6.61807 -8.03865 -8.04957
4.2225 -5.88512 -5.88653 -6.56242 -6.57122 -8.05475 -8.06646
4.2325 -5.85205 -5.85343 -6.52688 -6.53529 -8.07082 -8.08311
4.2425 -5.81696 -5.81805 -6.50113 -6.50961 -8.08569 -8.09836
4.2525 -5.77854 -5.77905 -6.48351 -6.49252 -8.09752 -8.11035
4.2625 -5.73503 -5.73469 -6.47161 -6.4816 -8.10394 -8.11673
4.2725 -5.68449 -5.68303 -6.46253 -6.47391 -8.10242 -8.11497
4.2825 -5.62482 -5.622 -6.45292 -6.46608 -8.09019 -8.10231
4.2925 -5.55389 -5.54948 -6.43908 -6.45435 -8.06437 -8.07591
4.3025 -5.46984 -5.46365 -6.41739 -6.43505 -8.02237 -8.03318
4.3125 -5.37143 -5.36331 -6.3846 -6.40484 -7.96212 -7.9721
4.3225 -5.25815 -5.24797 -6.33799 -6.36096 -7.88224 -7.8913
4.3325 -5.13018 -5.1179 -6.27547 -6.30121 -7.78203 -7.79011
4.3425 -4.98859 -4.9742 -6.19573 -6.22419 -7.66162 -7.66872
4.3525 -4.83529 -4.81886 -6.09831 -6.12937 -7.52198 -7.52812
4.3625 -4.67286 -4.65452 -5.98351 -6.01694 -7.36476 -7.36999
4.3725 -4.50426 -4.48418 -5.85214 -5.88761 -7.19203 -7.19644
4.3825 -4.33248 -4.31092 -5.70526 -5.74239 -7.00596 -7.00965
4.3925 -4.16022 -4.13748 -5.5439 -5.58223 -6.80848 -6.8116
4.4025 -3.98969 -3.9661 -5.36895 -5.40795 -6.60116 -6.60385
4.4125 -3.82266 -3.79858 -5.18121 -5.22034 -6.38521 -6.38766
4.4225 -3.66053 -3.63635 -4.98155 -5.02022 -6.16166 -6.16403
4.4325 -3.50446 -3.48058 -4.77098 -4.8086 -5.93139 -5.93387
4.4425 -3.35536 -3.33216 -4.55071 -4.58671 -5.69521 -5.69796
4.4525 -3.21386 -3.19172 -4.32212 -4.35594 -5.45381 -5.45698
4.4625 -3.08026 -3.05955 -4.08662 -4.11776 -5.20766 -5.2114
4.4725 -2.95434 -2.93587 -3.84564 -3.87352 -4.95702 -4.96146
4.4825 -2.83555 -2.81944 -3.60062 -3.62484 -4.70188 -4.70713
4.4925 -2.72354 -2.70967 -3.35303 -3.37336 -4.44226 -4.44834
4.5025 -2.61744 -2.60593 -3.10468 -3.12095 -4.17842 -4.18533
4.5125 -2.5167 -2.50783 -2.85781 -2.86995 -3.91089 -3.91858
4.5225 -2.42126 -2.41503 -2.6149 -2.62288 -3.64042 -3.64885
4.5325 -2.33077 -2.32708 -2.37833 -2.38219 -3.36777 -3.37684
4.5425 -2.24438 -2.24347 -2.1501 -2.15004 -3.09352 -3.10311
4.5525 -2.16144 -2.16317 -1.93179 -1.92808 -2.81792 -2.82785
4.5625 -2.08069 -2.08466 -1.72433 -1.71726 -2.54078 -2.55082
4.5725 -2.00014 -2.00616 -1.52802 -1.51809 -2.2616 -2.27151
4.5825 -1.91785 -1.92576 -1.34279 -1.33053 -1.97973 -1.98928
4.5925 -1.83213 -1.84154 -1.16833 -1.1543 -1.69461 -1.70355
4.6025 -1.74117 -1.75169 -1.004 -0.988769 -1.40569 -1.41373
4.6125 -1.64308 -1.65438 -0.848676 -0.83284 -1.11232 -1.1192
4.6225 -1.53602 -1.54774 -0.700789 -0.684988 -0.813795 -0.819251
4.6325 -1.41832 -1.43008 -0.558501 -0.543367 -0.509468 -0.513245
4.6425 -1.28847 -1.29988 -0.419768 -0.405886 -0.1988 -0.200644
4.6525 -1.14512 -1.15586 -0.282299 -0.270209 0.118669 0.118969
4.6625 -0.987102 -0.996864 -0.14355 -0.133754 0.443325 0.445897
4.6725 -0.813364 -0.821861 -0.000745448 0.00633176 0.77554 0.780515
4.6825 -0.622964 -0.629966 0.149064 0.153086 1.11567 1.12316
4.6925 -0.415236 -0.420572 0.30883 0.309549 1.46394 1.47401
4.7025 -0.19005 -0.193594 0.48119 0.478454 1.82022 1.83285
4.7125 0.0518647 0.0501874 0.668061 0.661822 2.18362 2.19873
4.7225 0.308696 0.308895 0.870335 0.860657 2.55226 2.56973
4.7325 0.577559 0.579576 1.08783 1.07489 2.92331 2.94299
4.7425 0.854806 0.858524 1.31951 1.30359 3.29329 3.31496
4.7525 1.13646 1.14167 1.56385 1.54534 3.65846 3.68202
4.7625 1.41835 1.4248 1.81874 1.79798 4.0155 4.04226
4.7725 1.69614 1.7036 2.08143 2.05927 4.36184 4.38933
4.7825 1.96546 1.97349 2.34929 2.32685 4.69324 4.71925
4.7925 2.22211 2.23033 2.6195 2.597 5.00454 5.02971
4.8025 2.46226 2.47039 2.88928 2.86703 5.29172 5.31727
4.8125 2.68348 2.69114 3.15606 3.13462 5.55341 5.5801
4.8225 2.88498 2.89173 3.41846 3.39864 5.79058 5.81758
4.8325 3.06768 3.07315 3.6767 3.65943 6.00519 6.03071
4.8425 3.23387 3.23771 3.9321 3.91797 6.19918 6.22232
4.8525 3.38633 3.38827 4.18605 4.17543 6.37464 6.39575
4.8625 3.528 3.52777 4.43945 4.43272 6.53448 6.55423
4.8725 3.66177 3.65919 4.69288 4.69045 6.68241 6.70079
4.8825 3.79042 3.78533 4.94665 4.94884 6.82198 6.83827
4.8925 3.9164 3.90873 5.20064 5.20763 6.95585 6.96942
4.9025 4.04164 4.03138 5.45415 5.46594 7.08574 7.09658
4.9125 4.16739 4.15459 5.70574 5.72221 7.21285 7.22141
4.9225 4.29422 4.279 5.9533 5.97429 7.33814 7.34477
4.9325 4.42214 4.40466 6.19433 6.21958 7.46224 7.46693
4.9425 4.55062 4.53109 6.426 6.45515 7.58509 7.5877
4.9525 4.67875 4.65773 6.64535 6.67793 7.70598 7.70658
4.9625 4.80583 4.7876 6.84957 6.88431 7.82388 7.82301
4.9725 4.92987 4.91359 7.03665 7.07231 7.93796 7.93634
4.9825 5.05001 5.03525 7.20477 7.24155 8.04817 8.04589
4.9925 5.16731 5.15408 7.35335 7.39075 8.15572 8.15296
5.0025 5.28364 5.26992 7.484 7.52229 8.26254 8.25925
5.0125 5.40141 5.3873 7.59911 7.63758 8.3711 8.36757
5.0225 5.52257 5.50875 7.70147 7.73926 8.48391 8.48059
5.0325 5.64939 5.63618 7.79361 7.83005 8.60306 8.60033
5.0425 5.78327 5.77073 7.87754 7.91213 8.72998 8.72817
5.0525 5.9242 5.91259 7.95481 7.98712 8.8651 8.8644
5.0625 6.07124 6.06089 8.02634 8.05588 9.00775 9.00833
5.0725 6.22264 6.21371 8.09227 8.11857 9.15616 9.15821
5.0825 6.37566 6.36824 8.15199 8.17473 9.30765 9.31142
5.0925 6.52677 6.52098 8.20436 8.22335 9.45892 9.46457
5.1025 6.67222 6.66815 8.24815 8.26329 9.60642 9.61399
5.1125 6.8084 6.80607 8.28232 8.29356 9.74662 9.75611
5.1225 6.93207 6.93143 8.30619 8.31356 9.87634 9.88772
5.1325 7.04077 7.04177 8.31979 8.32345 9.99318 10.0064
5.1425 7.13323 7.13577 8.32417 8.3244 10.0959 10.1109
5.1525 7.20917 7.2131 8.32125 8.31838 10.1842 10.2009
5.1625 7.26884 7.27398 8.31323 8.30765 10.2584 10.2765
5.1725 7.31275 7.31888 8.30227 8.29444 10.3189 10.3382
5.1825 7.34156 7.34844 8.29037 8.28082 10.3662 10.3865
5.1925 7.3561 7.36348 8.27935 8.26864 10.4012 10.4222
5.2025 7.35728 7.36488 8.27073 8.25947 10.4245 10.4459
5.2125 7.34607 7.35353 8.26574 8.25452 10.437 10.4586
5.2225 7.32351 7.3304 8.26514 8.25464 10.4395 10.4609
5.2325 7.29067 7.2966 8.2693 8.26016 10.4327 10.4537
5.2425 7.24874 7.25334 8.27825 8.27106 10.4173 10.4377
5.2525 7.19902 7.20198 8.29177 8.28704 10.3943 10.4138
5.2625 7.14302 7.14405 8.30946 8.30762 10.3645 10.3828
5.2725 7.08238 7.08127 8.33072 8.33213 10.3289 10.346
5.2825 7.0188 7.0154 8.35483 8.35975 10.2888 10.3044
5.2925 6.95385 6.94808 8.38076 8.38936 10.245 10.2591
5.3025 6.88892 6.88075 8.4072 8.4195 10.1982 10.2108
5.3125 6.8251 6.81459 8.43258 8.44852 10.149 10.1601
5.3225 6.76336 6.75062 8.4552 8.47463 10.0979 10.1074
5.3325 6.7045 6.68968 8.47337 8.49602 10.0449 10.0531
5.3425 6.64919 6.63254 8.48549 8.51102 9.99054 9.9974
5.3525 6.59808 6.57987 8.49018 8.51814 9.93491 9.94063
5.3625 6.55178 6.53232 8.48634 8.51624 9.87836 9.88314
5.3725 6.51095 6.49061 8.47329 8.50458 9.82135 9.8254
5.3825 6.4763 6.45544 8.4508 8.48287 9.76448 9.76802
5.3925 6.44843 6.42745 8.41894 8.45118 9.70833 9.7116
5.4025 6.42765 6.40695 8.37795 8.40974 9.65331 9.65656
5.4125 6.41376 6.39372 8.32801 8.35873 9.59942 9.60287
5.4225 6.40585 6.38684 8.26899 8.29807 9.54604 9.54993
5.4325 6.40222 6.38456 8.20038 8.22729 9.49187 9.49639
5.4425 6.40051 6.38448 8.12138 8.14566 9.43501 9.44035
5.4525 6.39811 6.38395 8.03125 8.0525 9.37339 9.3797
5.4625 6.39252 6.38039 7.92957 7.9475 9.30508 9.31248
5.4725 6.38145 6.37145 7.81632 7.83073 9.22836 9.23693
5.4825 6.36282 6.355 7.69179 7.70257 9.14177 9.15154
5.4925 6.33478 6.3291 7.55656 7.56369 9.04402 9.05501
5.5025 6.29566 6.29204 7.4113 7.41487 8.93399 8.94614
5.5125 6.24384 6.24214 7.25665 7.25685 8.81056 8.82381
5.5225 6.17782 6.17784 7.0932 7.09026 8.67265 8.68688
5.5325 6.09634 6.09782 6.92151 6.91578 8.51935 8.53443
5.5425 5.99873 6.0014 6.74248 6.73436 8.35027 8.36601
5.5525 5.88534 5.88888 6.55767 6.54761 8.16591 8.18214
5.5625 5.75781 5.7619 6.36961 6.35807 7.96799 7.98449
5.5725 5.61892 5.62324 6.18157 6.16905 7.75926 7.77583
5.5825 5.4721 5.47636 5.99715 5.98412 7.54308 7.5595
5.5925 5.32088 5.3248 5.81967 5.8066 7.32281 7.33886
5.6025 5.16836 5.17168 5.65173 5.63904 7.10136 7.11683
5.6125 5.01693 5.01944 5.49492 5.48302 6.8809 6.89561
5.6225 4.86824 4.86975 5.34985 5.3391 6.66285 6.67664
5.6325 4.72331 4.72366 5.21627 5.20697 6.44801 6.46072
5.6425 4.58268 4.58174 5.0933 5.08569 6.2367 6.24819
5.6525 4.44647 4.44416 4.9795 4.97376 6.02884 6.03903
5.6625 4.31447 4.31075 4.87299 4.86925 5.82406 5.83287
5.6725 4.18627 4.18112 4.77165 4.76995 5.62177 5.62915
5.6825 4.06143 4.05486 4.67331 4.67365 5.42139 5.42735
5.6925 3.93952 3.9316 4.57587 4.57818 5.22242 5.22698
5.7025 3.82 3.81082 4.47716 4.48128 5.02422 5.02743
5.7125 3.70189 3.69157 4.3747 4.38045 4.82577 4.82767
5.7225 3.5838 3.57249 4.26577 4.27292 4.62557 4.62613
5.7325 3.46407 3.45193 4.14755 4.15575 4.42183 4.42147
5.7425 3.34113 3.32835 4.01744 4.02634 4.21305 4.21197
5.7525 3.21366 3.20131 3.87342 3.88256 3.99818 3.99646
5.7625 3.08063 3.06923 3.71448 3.72325 3.77661 3.77437
5.7725 2.94254 2.93143 3.54016 3.54837 3.54809 3.54538
5.7825 2.79887 2.78806 3.35041 3.35767 3.31282 3.30991
5.7925 2.64921 2.63934 3.14591 3.152 3.07128 3.06835
5.8025 2.49447 2.48574 2.92792 2.93247 2.82438 2.82159
5.8125 2.33586 2.32816 2.69829 2.70096 2.57345 2.5709
5.8225 2.17473 2.1682 2.45952 2.46007 2.32034 2.31812
5.8325 2.01296 2.00751 2.21478 2.21309 2.06739 2.0656
5.8425 1.8527 1.84856 1.96741 1.96339 1.81698 1.81572
5.8525 1.69568 1.69294 1.72044 1.7139 1.57105 1.57044
5.8625 1.54294 1.54155 1.47628 1.46712 1.33086 1.33091
5.8725 1.39465 1.39462 1.23651 1.22472 1.09692 1.09765
5.8825 1.25032 1.25169 1.00212 0.987802 0.869068 0.870472
5.8925 1.109 1.11171 0.773594 0.756836 0.646563 0.648622
5.9025 0.969481 0.973428 0.551118 0.532023 0.428439 0.431113
5.9125 0.830597 0.835704 0.334846 0.313571 0.21382 0.217042
5.9225 0.69146 0.697625 0.125017 0.101803 0.00204816 0.00572756
5.9325 0.551391 0.55847 -0.0780645 -0.102932 -0.207373 -0.203344
5.9425 0.409732 0.417567 -0.274208 -0.300434 -0.41493 -0.41067
5.9525 0.265744 0.274175 -0.463501 -0.490784 -0.621213 -0.616847
5.9625 0.118607 0.127467 -0.646357 -0.674372 -0.826936 -0.822594
5.9725 -0.0324793 -0.0233709 -0.823408 -0.851806 -1.03283 -1.02865
5.9825 -0.188168 -0.17899 -0.995352 -1.02378 -1.23952 -1.23564
5.9925 -0.348869 -0.339793 -1.16286 -1.191 -1.44742 -1.44397
6.0025 -0.51474 -0.505929 -1.3266 -1.35414 -1.65675 -1.65385
6.0125 -0.685783 -0.677389 -1.48728 -1.51393 -1.86759 -1.86535
6.0225 -0.861977 -0.854136 -1.64579 -1.6713 -2.08008 -2.07861
6.0325 -1.04339 -1.03622 -1.80325 -1.8274 -2.29454 -2.29397
6.0425 -1.23016 -1.22378 -1.96103 -1.98368 -2.51141 -2.51164
6.0525 -1.42255 -1.41702 -2.12074 -2.14177 -2.7311 -2.73215
6.0625 -1.62072 -1.61611 -2.284 -2.30331 -2.95405 -2.95603
6.0725 -1.82465 -1.82096 -2.45228 -2.46983 -3.18058 -3.18355
6.0825 -2.03396 -2.03118 -2.62668 -2.64252 -3.41077 -3.4147
6.0925 -2.24795 -2.24604 -2.80799 -2.82222 -3.64436 -3.64912
6.1025 -2.46576 -2.46465 -2.99683 -3.00958 -3.88091 -3.88638
6.1125 -2.68658 -2.68616 -3.19372 -3.20519 -4.11996 -4.12607
6.1225 -2.90961 -2.90974 -3.39909 -3.40949 -4.36113 -4.36781
6.1325 -3.13386 -3.13436 -3.61303 -3.62265 -4.60387 -4.61101
6.1425 -3.35787 -3.35864 -3.835 -3.84414 -4.8472 -4.85463
6.1525 -3.57951 -3.58044 -4.06361 -4.07256 -5.0894 -5.09696
6.1625 -3.79591 -3.7968 -4.29648 -4.3056 -5.32796 -5.33548
6.1725 -4.00364 -4.0043 -4.53043 -4.54006 -5.5598 -5.56716
6.1825 -4.19915 -4.19939 -4.76192 -4.77243 -5.7817 -5.78877
6.1925 -4.37925 -4.37889 -4.98751 -4.99927 -5.99078 -5.99739
6.2025 -4.54143 -4.54028 -5.20418 -5.21753 -6.18472 -6.1907
6.2125 -4.68403 -4.68193 -5.40953 -5.42476 -6.362 -6.36724
6.2225 -4.80638 -4.80317 -5.60186 -5.61925 -6.52201 -6.52641
6.2325 -4.90881 -4.90436 -5.78029 -5.80008 -6.66507 -6.66857
6.2425 -4.99272 -4.98693 -5.94483 -5.96718 -6.79253 -6.79508
6.2525 -5.06058 -5.05338 -6.09639 -6.12143 -6.90673 -6.90828
6.2625 -5.11571 -5.10706 -6.23664 -6.26442 -7.01079 -7.01133
6.2725 -5.1617 -5.15158 -6.36747 -6.39796 -7.10804 -7.10761
6.2825 -5.20191 -5.1903 -6.49051 -6.52366 -7.20154 -7.2002
6.2925 -5.2393 -5.22626 -6.60703 -6.64271 -7.29395 -7.29178
6.3025 -5.27631 -5.26197 -6.71794 -6.75592 -7.38739 -7.38451
6.3125 -5.31492 -5.29944 -6.82375 -6.86377 -7.48347 -7.48001
6.3225 -5.35653 -5.34015 -6.92463 -6.96634 -7.58329 -7.5794
6.3325 -5.40199 -5.38499 -7.02044 -7.06349 -7.68741 -7.68328
6.3425 -5.45192 -5.43428 -7.11087 -7.15492 -7.79604 -7.79185
6.3525 -5.50648 -5.48837 -7.19545 -7.24014 -7.90901 -7.90492
6.3625 -5.56534 -5.54699 -7.27366 -7.31859 -8.02579 -8.02201
6.3725 -5.62799 -5.60964 -7.34497 -7.38971 -8.14561 -8.1423
6.3825 -5.69376 -5.67558 -7.40885 -7.45301 -8.26745 -8.26481
6.3925 -5.76174 -5.74392 -7.46484 -7.50805 -8.39016 -8.38837
6.4025 -5.83088 -5.81363 -7.51263 -7.55455 -8.51251 -8.51173
6.4125 -5.90012 -5.88361 -7.55209 -7.59242 -8.63322 -8.63357
6.4225 -5.96845 -5.95282 -7.58335 -7.6218 -8.75109 -8.75268
6.4325 -6.03493 -6.02028 -7.60673 -7.6431 -8.86499 -8.86792
6.4425 -6.09854 -6.08498 -7.62266 -7.6568 -8.97382 -8.97822
6.4525 -6.15801 -6.14558 -7.63127 -7.66309 -9.07632 -9.08222
6.4625 -6.21158 -6.20031 -7.63241 -7.66194 -9.17065 -9.17776
6.4725 -6.25726 -6.24714 -7.62567 -7.65291 -9.25457 -9.26291
6.4825 -6.29324 -6.28424 -7.61075 -7.63575 -9.32606 -9.33575
6.4925 -6.3182 -6.31024 -7.58774 -7.61063 -9.38377 -9.39482
6.5025 -6.33127 -6.32425 -7.55707 -7.57806 -9.42685 -9.43911
6.5125 -6.33184 -6.32564 -7.51929 -7.53863 -9.45462 -9.46784
6.5225 -6.31934 -6.31382 -7.47482 -7.4928 -9.46634 -9.48032
6.5325 -6.2931 -6.28806 -7.42379 -7.4407 -9.4611 -9.47572
6.5425 -6.25229 -6.24747 -7.36583 -7.38205 -9.43783 -9.45299
6.5525 -6.19589 -6.19102 -7.30011 -7.31603 -9.39529 -9.4108
6.5625 -6.12289 -6.1177 -7.2255 -7.24151 -9.33215 -9.34778
6.5725 -6.03268 -6.02691 -7.14099 -7.15747 -9.24738 -9.2629
6.5825 -5.92554 -5.91895 -7.04613 -7.06342 -9.14076 -9.15599
6.5925 -5.80296 -5.79532 -6.94139 -6.9598 -9.0132 -9.028
6.6025 -5.66742 -5.65856 -6.82801 -6.84781 -8.86663 -8.88085
6.6125 -5.52185 -5.51164 -6.70747 -6.72886 -8.70336 -8.71686
6.6225 -5.36906 -5.35743 -6.58098 -6.60408 -8.5256 -8.53824
6.6325 -5.21154 -5.19845 -6.44934 -6.47422 -8.33521 -8.34692
6.6425 -5.05146 -5.03693 -6.31298 -6.33963 -8.13379 -8.14451
6.6525 -4.89087 -4.87498 -6.17227 -6.20061 -7.92289 -7.93262
6.6625 -4.73186 -4.71471 -6.02764 -6.05754 -7.70417 -7.71288
6.6725 -4.5762 -4.55796 -5.87939 -5.91063 -7.47904 -7.48676
6.6825 -4.42506 -4.40593 -5.72736 -5.75967 -7.24843 -7.25519
6.6925 -4.279 -4.25918 -5.57096 -5.60405 -7.01272 -7.01859
6.7025 -4.13826 -4.11801 -5.4096 -5.44312 -6.77214 -6.7772
6.7125 -4.00323 -3.9828 -5.24303 -5.27661 -6.52714 -6.53149
6.7225 -3.8745 -3.85415 -5.07153 -5.10479 -6.27853 -6.28226
6.7325 -3.75276 -3.73279 -4.89578 -4.92834 -6.02732 -6.03054
6.7425 -3.63858 -3.61923 -4.7166 -4.74806 -5.7745 -5.77731
6.7525 -3.53207 -3.51362 -4.53468 -4.56468 -5.52075 -5.52326
6.7625 -3.43278 -3.41548 -4.35043 -4.37862 -5.2663 -5.26859
6.7725 -3.33959 -3.32363 -4.1638 -4.18989 -5.01079 -5.01295
6.7825 -3.25074 -3.2363 -3.97439 -3.99813 -4.75334 -4.75544
6.7925 -3.16411 -3.15133 -3.78157 -3.80277 -4.49278 -4.49485
6.8025 -3.07745 -3.06641 -3.58474 -3.60327 -4.22785 -4.22993
6.8125 -2.98866 -2.97939 -3.38349 -3.39929 -3.95748 -3.95956
6.8225 -2.89602 -2.88851 -3.17785 -3.19094 -3.681 -3.68308
6.8325 -2.79832 -2.79253 -2.96833 -2.97877 -3.39824 -3.40027
6.8425 -2.69479 -2.69061 -2.7558 -2.7637 -3.10945 -3.11137
6.8525 -2.58495 -2.5822 -2.5413 -2.54684 -2.81514 -2.81688
6.8625 -2.46851 -2.46675 -2.32599 -2.32942 -2.51606 -2.5175
6.8725 -2.34542 -2.34477 -2.11111 -2.11273 -2.2132 -2.21423
6.8825 -2.21636 -2.21665 -1.89807 -1.89822 -1.90785 -1.90837
6.8925 -2.08227 -2.08314 -1.68845 -1.68743 -1.60152 -1.60143
6.9025 -1.94395 -1.94581 -1.48378 -1.48174 -1.2959 -1.29497
6.9125 -1.80223 -1.80475 -1.28557 -1.2827 -0.992508 -0.99073
6.9225 -1.65792 -1.66089 -1.0948 -1.09143 -0.692883 -0.690324
6.9325 -1.51139 -1.51464 -0.911988 -0.908511 -0.398355 -0.394906
6.9425 -1.36275 -1.36615 -0.737185 -0.733996 -0.109795 -0.105211
6.9525 -1.21187 -1.2152 -0.56995 -0.567322 0.172449 0.178341
6.9625 -1.05829 -1.06137 -0.409328 -0.407501 0.448419 0.455652
6.9725 -0.901347 -0.904032 -0.25391 -0.253137 0.718373 0.726896
6.9825 -0.740228 -0.742391 -0.101938 -0.102474 0.982737 0.992537
6.9925 -0.573991 -0.575502 0.0486 0.0465587 1.24214 1.25327
7.0025 -0.401617 -0.402372 0.199899 0.196229 1.49739 1.50991
7.0125 -0.222146 -0.222072 0.354224 0.348852 1.74942 1.7633
7.0225 -0.0348565 -0.0339056 0.513715 0.5066 1.99899 2.01412
7.0325 0.160601 0.162451 0.680174 0.671323 2.24656 2.26281
7.0425 0.364201 0.366937 0.85502 0.844503 2.49225 2.50951
7.0525 0.575642 0.579217 1.03938 1.02733 2.73602 2.75418
7.0625 0.794417 0.798757 1.23413 1.22073 2.97772 2.99665
7.0725 1.01982 1.02485 1.43986 1.42533 3.21712 3.23662
7.0825 1.25084 1.25646 1.65674 1.64132 3.45371 3.47356
7.0925 1.48598 1.49207 1.88431 1.86831 3.68657 3.70656
7.1025 1.72328 1.72969 2.12143 2.10518 3.91434 3.93429
7.1125 1.96027 1.96682 2.36628 2.35013 4.13525 4.15495
7.1225 2.19416 2.20069 2.61651 2.60085 4.34728 4.36648
7.1325 2.42227 2.42861 2.86964 2.85484 4.54851 4.56696
7.1425 2.64224 2.6482 3.12325 3.10968 4.73731 4.75479
7.1525 2.85228 2.85768 3.37524 3.36326 4.91263 4.92897
7.1625 3.05126 3.05594 3.62397 3.61392 5.07413 5.08917
7.1725 3.2389 3.24271 3.86838 3.86055 5.2223 5.23588
7.1825 3.41577 3.41857 4.10806 4.1027 5.35844 5.37041
7.1925 3.58314 3.58482 4.34314 4.34046 5.48453 5.4948
7.2025 3.7427 3.74319 4.57402 4.57417 5.60296 5.61146
7.2125 3.8963 3.89556 4.80114 4.80422 5.71624 5.72293
7.2225 4.04574 4.04374 5.02486 5.03087 5.8268 5.83171
7.2325 4.19257 4.18932 5.24524 5.25416 5.93683 5.93998
7.2425 4.33805 4.33359 5.46209 5.47381 6.04819 6.04965
7.2525 4.48316 4.47757 5.67501 5.68938 6.16245 6.16228
7.2625 4.62867 4.62204 5.88352 5.90033 6.28079 6.27905
7.2725 4.77513 4.76759 6.08704 6.10597 6.40423 6.40133
7.2825 4.92295 4.91465 6.28498 6.30572 6.53373 6.52988
7.2925 5.07241 5.06348 6.47679 6.49905 6.67014 6.66541
7.3025 5.22364 5.21426 6.66205 6.68549 6.814 6.80851
7.3125 5.37669 5.36703 6.84049 6.86474 6.96567 6.95963
7.3225 5.5315 5.52174 7.01196 7.03661 7.12538 7.11911
7.3325 5.68793 5.67825 7.17643 7.2011 7.29335 7.28714
7.3425 5.84572 5.83628 7.33398 7.35832 7.46965 7.46369
7.3525 6.00441 5.99538 7.48477 7.50844 7.65411 7.64857
7.3625 6.16326 6.15477 7.62885 7.65152 7.84615 7.84124
7.3725 6.32116 6.31334 7.76609 7.78747 8.04479 8.04074
7.3825 6.47673 6.46969 7.89625 7.9161 8.24877 8.24577
7.3925 6.62861 6.62243 8.01925 8.03737 8.45679 8.455
7.4025 6.77576 6.7705 8.13541 8.15168 8.66785 8.66741
7.4125 6.91755 6.91321 8.24551 8.25983 8.88131 8.8823
7.4225 7.05349 7.05007 8.3505 8.36289 9.09652 9.0989
7.4325 7.18311 7.18057 8.45138 8.46185 9.31274 9.31659
7.4425 7.30593 7.30421 8.54901 8.55765 9.52916 9.5346
7.4525 7.42147 7.42047 8.64423 8.65116 9.74505 9.75209
7.4625 7.52939 7.52897 8.73781 8.74324 9.95969 9.96825
7.4725 7.62948 7.62925 8.83051 8.83477 10.1724 10.1824
7.4825 7.72195 7.7218 8.92302 8.92645 10.3826 10.3939
7.4925 7.80698 7.80674 9.01605 9.01889 10.5897 10.6022
7.5025 7.88471 7.88425 9.1101 9.11258 10.7931 10.8067
7.5125 7.95528 7.95449 9.20535 9.20775 10.9921 11.0067
7.5225 8.01877 8.01749 9.30168 9.30433 11.1859 11.2015
7.5325 8.07503 8.07312 9.39866 9.40187 11.3736 11.3899
7.5425 8.12384 8.12111 9.49554 9.49959 11.554 11.5709
7.5525 8.16493 8.16135 9.5914 9.59651 11.726 11.7434
7.5625 8.19829 8.19383 9.68551 9.69186 11.8887 11.9065
7.5725 8.22462 8.21915 9.77753 9.78537 12.042 12.06
7.5825 8.24515 8.2385 9.86751 9.87705 12.1861 12.2043
7.5925 8.26122 8.25329 9.95557 9.96698 12.3216 12.3398
7.6025 8.27397 8.26474 10.0415 10.0549 12.4488 12.4669
7.6125 8.284 8.27344 10.1246 10.1399 12.5672 12.5852
7.6225 8.29113 8.27923 10.203 10.2203 12.676 12.6938
7.6325 8.29465 8.28145 10.2747 10.294 12.7735 12.7912
7.6425 8.29396 8.27953 10.3377 10.3588 12.8585 12.876
7.6525 8.2891 8.27351 10.3906 10.4135 12.9303 12.9476
7.6625 8.28062 8.26398 10.4329 10.4573 12.9888 13.0058
7.6725 8.2694 8.25187 10.4642 10.4899 13.0341 13.0511
7.6825 8.25648 8.23822 10.4848 10.5115 13.067 13.0838
7.6925 8.24291 8.22411 10.4948 10.5222 13.088 13.1047
7.7025 8.22974 8.21061 10.4949 10.5227 13.0977 13.1145
7.7125 8.21797 8.19873 10.4856 10.5135 13.0971 13.1139
7.7225 8.20859 8.18947 10.4681 10.4957 13.0868 13.1038
7.7325 8.20249 8.18374 10.4432 10.4702 13.068 13.0851
7.7425 8.20051 8.18235 10.4125 10.4385 13.0414 13.0588
7.7525 8.20322 8.18586 10.377 10.4018 13.0079 13.0256
7.7625 8.21069 8.19434 10.3378 10.3611 12.9679 12.986
7.7725 8.2222 8.20703 10.2954 10.3169 12.9212 12.9397
7.7825 8.23608 8.22223 10.2493 10.2689 12.8667 12.8855
7.7925 8.2498 8.23734 10.1983 10.216 12.8026 12.8218
7.8025 8.26037 8.24935 10.1412 10.1568 12.7266 12.746
7.8125 8.26485 8.25525 10.0763 10.0898 12.6366 12.6562
7.8225 8.26066 8.25242 10.0026 10.0142 12.5307 12.5505
7.8325 8.24585 8.23887 9.91959 9.92933 12.408 12.4278
7.8425 8.21918 8.21333 9.82726 9.83535 12.2679 12.2876
7.8525 8.17993 8.17505 9.72602 9.73268 12.1105 12.13
7.8625 8.12765 8.12356 9.61634 9.62182 11.9362 11.9554
7.8725 8.06211 8.0586 9.49871 9.50329 11.7454 11.7641
7.8825 7.98322 7.98009 9.37352 9.37749 11.5387 11.5567
7.8925 7.89099 7.88803 9.24102 9.24469 11.3167 11.334
7.9025 7.78553 7.78252 9.1013 9.10496 11.08 11.0964
7.9125 7.66702 7.66376 8.95433 8.95826 10.8294 10.8447
7.9225 7.5358 7.53209 8.79997 8.80441 10.5656 10.5798
7.9325 7.39233 7.38801 8.63798 8.64318 10.2893 10.3022
7.9425 7.23722 7.23214 8.46813 8.47425 10.0015 10.0131
7.9525 7.07122 7.06526 8.29011 8.29731 9.70316 9.71339
7.9625 6.89522 6.88829 8.10367 8.11204 9.39529 9.40411
7.9725 6.7103 6.70234 7.90863 7.91821 9.07907 9.08649
7.9825 6.51773 6.50874 7.70497 7.71574 8.75587 8.76191
7.9925 6.31907 6.30906 7.49293 7.50481 8.42723 8.43193
8.0025 6.11615 6.10518 7.27307 7.28593 8.095 8.09844
8.015 5.85974 5.84771 6.98866 7.00247 7.67783 7.67983
8.0275 5.60438 5.59152 6.69583 6.7102 7.26266 7.26339
8.04 5.35414 5.34071 6.397 6.4115 6.85341 6.85296
8.0525 5.11169 5.09804 6.09382 6.10784 6.45265 6.45155
8.065 4.87763 4.8641 5.78627 5.79928 6.06117 6.05969
8.0775 4.65065 4.63757 5.47306 5.48457 5.67798 5.6762
8.09 4.42866 4.41633 5.15277 5.16229 5.30114 5.29923
8.1025 4.20975 4.19844 4.82469 4.83176 4.92892 4.9272
8.115 3.99258 3.98252 4.48912 4.49333 4.56034 4.55908
8.1275 3.77577 3.76713 4.14666 4.14773 4.19448 4.19378
8.14 3.55663 3.55044 3.79712 3.79466 3.82917 3.82912
8.1525 3.33073 3.32689 3.43936 3.433 3.46069 3.4615
8.165 3.09403 3.09173 3.07152 3.06148 3.08507 3.08668
8.1775 2.84162 2.84133 2.69274 2.67932 2.6993 2.70168
8.19 2.57209 2.57367 2.30411 2.28754 2.30203 2.30506
8.2025 2.28555 2.28855 1.90812 1.88867 1.89358 1.8972
8.215 1.9826 1.98698 1.50779 1.48588 1.47531 1.47941
8.2275 1.66477 1.6703 1.10611 1.08227 1.04887 1.05325
8.24 1.33407 1.34037 0.706138 0.680865 0.616255 0.620684
8.2525 0.993154 1.00003 0.311225 0.285015 0.1802 0.18449
8.265 0.645618 0.6528 -0.0751828 -0.101796 -0.255935 -0.251963
8.2775 0.295084 0.302277 -0.450094 -0.476592 -0.688793 -0.685339
8.29 -0.0556382 -0.0486454 -0.811721 -0.837667 -1.11593 -1.11323
8.3025 -0.404851 -0.39827 -1.15993 -1.18495 -1.53621 -1.53431
8.315 -0.751822 -0.745834 -1.49601 -1.51978 -1.94937 -1.94836
8.3275 -1.09613 -1.09086 -1.82181 -1.84404 -2.35545 -2.35553
8.34 -1.43689 -1.43243 -2.13893 -2.15947 -2.75427 -2.75552
8.3525 -1.77257 -1.76896 -2.44849 -2.4673 -3.14503 -3.14742
8.365 -2.10123 -2.09845 -2.75126 -2.76835 -3.52648 -3.52992
8.3775 -2.42076 -2.41877 -3.04776 -3.06325 -3.89713 -3.90158
8.39 -2.72914 -2.72781 -3.33841 -3.35252 -4.25558 -4.26098
8.4025 -3.02475 -3.02395 -3.6238 -3.63682 -4.60092 -4.60711
8.415 -3.30669 -3.30622 -3.90488 -3.91717 -4.93279 -4.93957
8.4275 -3.57474 -3.5744 -4.18288 -4.19485 -5.25147 -5.25866
8.44 -3.82937 -3.82893 -4.45926 -4.47134 -5.55782 -5.56524
8.4525 -4.07177 -4.071 -4.7357 -4.74836 -5.85342 -5.86087
8.465 -4.30353 -4.30219 -5.01379 -5.02748 -6.14015 -6.14741
8.4775 -4.52565 -4.52352 -5.29404 -5.30919 -6.41923 -6.42611
8.49 -4.73785 -4.73471 -5.57519 -5.5922 -6.69051 -6.69683
8.5025 -4.93884 -4.93453 -5.85458 -5.87382 -6.9528 -6.95841
8.515 -5.12704 -5.12138 -6.12886 -6.15059 -7.20451 -7.20929
8.5275 -5.30102 -5.29391 -6.39452 -6.41896 -7.44414 -7.44802
8.54 -5.4599 -5.45127 -6.64834 -6.67562 -7.67069 -7.67362
8.5525 -5.60362 -5.59343 -6.88777 -6.91792 -7.88386 -7.88584
8.565 -5.73344 -5.72173 -7.11151 -7.14448 -8.08463 -8.08571
8.5775 -5.85237 -5.83919 -7.32002 -7.35565 -8.27563 -8.2759
8.59 -5.96498 -5.95046 -7.5155 -7.55354 -8.46103 -8.46062
8.6025 -6.07682 -6.06112 -7.70132 -7.74145 -8.64595 -8.64502
8.615 -6.19319 -6.1765 -7.88097 -7.92277 -8.83524 -8.83399
8.6275 -6.3183 -6.30085 -8.05725 -8.10028 -9.03268 -9.03133
8.64 -6.45479 -6.43684 -8.23192 -8.27568 -9.24058 -9.23934
8.6525 -6.60328 -6.58508 -8.40519 -8.44919 -9.4592 -9.45832
8.665 -6.76234 -6.74414 -8.57583 -8.61955 -9.68688 -9.68657
8.6775 -6.92923 -6.91126 -8.74176 -8.78476 -9.92067 -9.92116
8.69 -7.10029 -7.08277 -8.90052 -8.94237 -10.1568 -10.1583
8.7025 -7.27123 -7.25436 -9.04939 -9.08974 -10.3908 -10.3934
8.715 -7.43737 -7.4213 -9.18562 -9.22419 -10.618 -10.6219
8.7275 -7.59392 -7.57874 -9.30652 -9.34314 -10.8338 -10.8391
8.74 -7.73619 -7.72198 -9.40979 -9.44442 -11.0334 -11.0398
8.7525 -7.85992 -7.84668 -9.49356 -9.52614 -11.2123 -11.22
8.765 -7.96128 -7.94878 -9.55623 -9.58693 -11.3666 -11.3757
8.7775 -8.03755 -8.02566 -9.59661 -9.62566 -11.4931 -11.5035
8.79 -8.08638 -8.07504 -9.61424 -9.64181 -11.5894 -11.6008
8.8025 -8.10635 -8.09555 -9.60915 -9.63543 -11.6534 -11.6657
8.815 -8.09674 -8.08633 -9.58161 -9.60691 -11.6841 -11.6972
8.8275 -8.05717 -8.04683 -9.53198 -9.55673 -11.6805 -11.6942
8.84 -7.98789 -7.97731 -9.46067 -9.48532 -11.6425 -11.6565
8.8525 -7.89006 -7.8789 -9.36831 -9.3933 -11.5702 -11.5843
8.865 -7.76568 -7.75365 -9.25586 -9.28156 -11.4646 -11.4786
8.8775 -7.61775 -7.60461 -9.12469 -9.15142 -11.3275 -11.3413
8.89 -7.45033 -7.43589 -8.97678 -9.00481 -11.1617 -11.1751
8.9025 -7.26842 -7.25259 -8.8148 -8.84427 -10.9709 -10.9838
8.915 -7.07781 -7.06056 -8.64196 -8.67291 -10.7596 -10.7718
8.9275 -6.8845 -6.86591 -8.46168 -8.49403 -10.5325 -10.544
8.94 -6.69386 -6.67408 -8.27685 -8.31041 -10.2938 -10.3046
8.9525 -6.50989 -6.48916 -8.08925 -8.12377 -10.0468 -10.0569
8.965 -6.33467 -6.31324 -7.89911 -7.93422 -9.79289 -9.80222
8.9775 -6.168 -6.14618 -7.70484 -7.74015 -9.53139 -9.54009
8.99 -6.00794 -5.98604 -7.50361 -7.53869 -9.26032 -9.26847
9.0025 -5.85194 -5.83027 -7.29252 -7.32694 -8.9773 -8.98498
9.015 -5.69787 -5.67672 -7.06957 -7.1029 -8.68061 -8.68788
9.0275 -5.5444 -5.52406 -6.83408 -6.86592 -8.36953 -8.37648
9.04 -5.39054 -5.37125 -6.58612 -6.61611 -8.04388 -8.05059
9.0525 -5.23489 -5.21685 -6.32578 -6.3536 -7.7033 -7.7098
9.065 -5.0756 -5.05898 -6.05301 -6.07843 -7.34709 -7.35341
9.0775 -4.91063 -4.89552 -5.76782 -5.79065 -6.97449 -6.98063
9.09 -4.73778 -4.72424 -5.47019 -5.49037 -6.58468 -6.59063
9.1025 -4.55455 -4.54257 -5.15986 -5.17738 -6.1766 -6.18229
9.115 -4.35795 -4.34743 -4.836 -4.85094 -5.74866 -5.75403
9.1275 -4.14488 -4.1357 -4.49751 -4.51004 -5.29919 -5.30413
9.14 -3.91334 -3.90531 -4.14413 -4.15446 -4.82749 -4.83188
9.1525 -3.66346 -3.65636 -3.77736 -3.78578 -4.3349 -4.33862
9.165 -3.39727 -3.39047 -3.40031 -3.40717 -3.82462 -3.82752
9.1775 -3.11732 -3.11214 -3.01656 -3.02186 -3.30058 -3.30255
9.19 -2.82639 -2.82244 -2.62985 -2.63349 -2.76664 -2.7676
9.2025 -2.52678 -2.52366 -2.24302 -2.24541 -2.2267 -2.22652
9.215 -2.22086 -2.21871 -1.85958 -1.8613 -1.6854 -1.68375
9.2275 -1.91312 -1.91166 -1.48433 -1.48561 -1.14814 -1.14505
9.24 -1.60865 -1.60763 -1.12241 -1.12335 -0.621461 -0.617132
9.2525 -1.31227 -1.31163 -0.778246 -0.779248 -0.112005 -0.106202
9.265 -1.02812 -1.02768 -0.45527 -0.456695 0.374909 0.38247
9.2775 -0.759009 -0.758604 -0.155649 -0.157642 0.835506 0.844797
9.29 -0.506297 -0.505866 0.120197 0.117538 1.26738 1.27822
9.3025 -0.270028 -0.269479 0.373484 0.37 1.6694 1.68174
9.315 -0.0492882 -0.048544 0.60634 0.601927 2.04147 2.05536
9.3275 0.157263 0.158225 0.821276 0.815948 2.38417 2.39954
9.34 0.35087 0.352063 1.0208 1.01461 2.69814 2.71479
9.3525 0.533033 0.534454 1.20764 1.20067 2.98432 3.00202
9.365 0.706231 0.707848 1.38537 1.37773 3.24466 3.26329
9.3775 0.873716 0.875485 1.55822 1.55008 3.48214 3.50152
9.39 1.03866 1.04052 1.73021 1.72177 3.69986 3.71975
9.4025 1.20327 1.20516 1.90421 1.89568 3.90008 3.9202
9.415 1.36796 1.3698 2.08115 2.07276 4.0834 4.10353
9.4275 1.5313 1.53302 2.25988 2.25187 4.2488 4.26873
9.44 1.69125 1.69275 2.43843 2.43106 4.39485 4.41432
9.4525 1.84675 1.84795 2.61562 2.60914 4.52126 4.54
9.465 1.99836 1.99917 2.79166 2.78628 4.62945 4.64724
9.4775 2.14763 2.14801 2.96759 2.9635 4.72199 4.73867
9.49 2.29557 2.29546 3.1437 3.14106 4.80108 4.81649
9.5025 2.4414 2.44077 3.31841 3.31733 4.86728 4.88125
9.515 2.58292 2.58175 3.48861 3.48915 4.91977 4.93219
9.5275 2.71735 2.71565 3.65056 3.65275 4.9573 4.96811
9.54 2.842 2.83979 3.80058 3.80441 4.97871 4.9879
9.5525 2.95424 2.95156 3.93508 3.94047 4.98301 4.99056
9.565 3.05124 3.04815 4.0503 4.05714 4.96896 4.97491
9.5775 3.13013 3.12669 4.14252 4.15065 4.93529 4.93971
9.59 3.18835 3.18465 4.20843 4.21767 4.88096 4.88395
9.6025 3.22392 3.22006 4.24543 4.25555 4.80546 4.80716
9.615 3.23569 3.23177 4.25193 4.26268 4.70903 4.70955
9.6275 3.22391 3.22002 4.22789 4.23901 4.593 4.59249
9.64 3.19065 3.18684 4.17523 4.18641 4.46047 4.45932
9.6525 3.13981 3.13616 4.09778 4.10878 4.31633 4.31466
9.665 3.07649 3.0731 4.00077 4.01133 4.1664 4.16427
9.6775 3.00577 3.00277 3.88971 3.89951 4.01619 4.01382
9.69 2.9319 2.92942 3.76944 3.77818 3.87031 3.86799
9.7025 2.85782 2.856 3.64373 3.65115 3.73212 3.73004
9.715 2.78493 2.78388 3.51508 3.52097 3.60335 3.60161
9.7275 2.71309 2.71291 3.38471 3.38886 3.48404 3.48278
9.74 2.64098 2.64169 3.25273 3.25502 3.37295 3.37233
9.7525 2.5667 2.56832 3.1188 3.1192 3.26825 3.2684
9.765 2.48864 2.49111 2.98288 2.98139 3.1683 3.16924
9.7775 2.40599 2.40924 2.84565 2.84235 3.07209 3.07383
9.79 2.31878 2.32269 2.7085 2.70353 2.97928 2.98184
9.8025 2.22732 2.23176 2.57289 2.56643 2.88975 2.89316
9.815 2.13178 2.13657 2.43989 2.43217 2.80311 2.80724
9.8275 2.03215 2.03713 2.31015 2.30143 2.71858 2.72336
9.84 1.92832 1.9333 2.1839 2.17444 2.63517 2.64058
9.8525 1.81979 1.82457 2.06063 2.05072 2.55146 2.55741
9.865 1.70537 1.70976 1.93882 1.92875 2.46524 2.4716
9.8775 1.58318 1.587 1.81594 1.80598 2.37347 2.38011
9.89 1.45105 1.4541 1.68882 1.67922 2.27267 2.2795
9.9025 1.30702 1.30915 1.55421 1.54519 2.15953 2.16649
9.915 1.14973 1.1508 1.40915 1.40087 2.03125 2.03825
9.9275 0.978556 0.978455 1.25117 1.24375 1.88565 1.89261
9.94 0.793595 0.792267 1.07839 1.07187 1.72122 1.72809
9.9525 0.595402 0.592922 0.889254 0.883595 1.53685 1.54362
9.965 0.384634 0.38203 0.68271 0.677454 1.33178 1.33852
9.9775 0.162371 0.159321 0.458422 0.453356 1.10584 1.11254
9.99 -0.0699279 -0.0732535 0.2167 0.211691 0.859792 0.866478
10.0025 -0.309911 -0.313258 -0.0409074 -0.0459741 0.595207 0.601882
10.015 -0.554359 -0.557729 -0.311865 -0.317287 0.314426 0.321122
10.0275 -0.799676 -0.802865 -0.592969 -0.59902 0.0205025 0.0272535
10.04 -1.04203 -1.04487 -0.880685 -0.887591 -0.28327 -0.276426
10.0525 -1.27847 -1.2808 -1.17191 -1.17992 -0.594276 -0.587324
10.065 -1.50776 -1.5094 -1.46488 -1.47428 -0.911388 -0.904317
10.0775 -1.73028 -1.73107 -1.75924 -1.77026 -1.23494 -1.22774
10.09 -1.94722 -1.94703 -2.0552 -2.068 -1.56591 -1.55859
10.1025 -2.15985 -2.15858 -2.35272 -2.36747 -1.90512 -1.89772
10.115 -2.36904 -2.36662 -2.65122 -2.66803 -2.25289 -2.24548
10.1275 -2.57545 -2.57183 -2.9499 -2.96875 -2.60916 -2.60178
10.14 -2.77975 -2.7749 -3.24784 -3.26865 -2.97374 -2.96649
10.1525 -2.98285 -2.97679 -3.54431 -3.56703 -3.34655 -3.33954
10.165 -3.186 -3.17878 -3.83902 -3.86355 -3.72776 -3.72112
10.1775 -3.39064 -3.38233 -4.13206 -4.15819 -4.11763 -4.11151
10.19 -3.59802 -3.58872 -4.42338 -4.45089 -4.51629 -4.51088
10.2025 -3.80868 -3.79852 -4.71249 -4.7412 -4.92307 -4.91837
10.215 -4.02245 -4.01155 -4.99847 -5.02808 -5.33642 -5.33262
10.2275 -4.23856 -4.22706 -5.28006 -5.31028 -5.75427 -5.7516
10.24 -4.45569 -4.44373 -5.55569 -5.58625 -6.17409 -6.17271
10.2525 -4.67179 -4.6595 -5.82334 -5.854 -6.59265 -6.5926
10.265 -4.88411 -4.87161 -6.08057 -6.11108 -7.00591 -7.00727
10.2775 -5.08953 -5.07693 -6.32478 -6.35495 -7.40947 -7.41238
10.29 -5.28532 -5.27271 -6.55392 -6.58358 -7.7994 -7.80392
10.3025 -5.46973 -5.45715 -6.76704 -6.79608 -8.17275 -8.1789
10.315 -5.64199 -5.62951 -6.96429 -6.99264 -8.5276 -8.53533
10.3275 -5.80201 -5.78963 -7.1465 -7.17412 -8.86261 -8.8719
10.34 -5.95 -5.93773 -7.31481 -7.34171 -9.17686 -9.18766
10.3525 -6.08611 -6.07394 -7.47027 -7.49651 -9.46942 -9.48164
10.365 -6.2101 -6.19799 -7.6134 -7.63908 -9.73898 -9.75249
10.3775 -6.32129 -6.3092 -7.74425 -7.76949 -9.98389 -9.99854
10.39 -6.41907 -6.40692 -7.86269 -7.88765 -10.2026 -10.2182
10.4025 -6.50326 -6.49098 -7.9689 -7.99376 -10.3941 -10.4106
10.415 -6.57452 -6.56198 -8.06331 -8.08851 -10.5595 -10.576
10.4275 -6.63435 -6.62152 -8.14749 -8.17335 -10.6996 -10.7149
10.44 -6.68516 -6.67199 -8.224 -8.25043 -10.8149 -10.8296
10.4525 -6.72984 -6.7163 -8.29521 -8.32206 -10.9074 -10.923
10.465 -6.77117 -6.75724 -8.36309 -8.39059 -10.9811 -10.9971
10.4775 -6.81135 -6.797 -8.42913 -8.45748 -11.0386 -11.0542
10.49 -6.85137 -6.83659 -8.49377 -8.523 -11.0805 -11.0952
10.5025 -6.89091 -6.87574 -8.556 -8.5861 -11.1061 -11.1203
10.515 -6.9286 -6.91305 -8.61364 -8.64465 -11.1145 -11.1283
10.5275 -6.96203 -6.94614 -8.66358 -8.69551 -11.1041 -11.1172
10.54 -6.988 -6.97181 -8.70195 -8.73476 -11.0725 -11.0845
10.5525 -7.00316 -6.98673 -8.72478 -8.75841 -11.0168 -11.0277
10.565 -7.00504 -6.98841 -8.729 -8.76337 -10.9351 -10.9453
10.5775 -6.99262 -6.97584 -8.71308 -8.74808 -10.8278 -10.8371
10.59 -6.96644 -6.94956 -8.67701 -8.71255 -10.6964 -10.7045
10.6025 -6.92828 -6.91137 -8.6222 -8.65812 -10.5434 -10.5505
10.615 -6.88063 -6.8638 -8.55084 -8.58697 -10.3724 -10.3786
10.6275 -6.82597 -6.80932 -8.46529 -8.5014 -10.187 -10.1923
10.64 -6.76633 -6.75 -8.36762 -8.40351 -9.99036 -9.99477
10.6525 -6.70304 -6.68716 -8.25942 -8.29487 -9.78498 -9.78854
10.665 -6.63651 -6.6212 -8.14157 -8.17637 -9.57239 -9.57523
10.6775 -6.566 -6.55137 -8.01402 -8.04797 -9.35314 -9.35537
10.69 -6.4897 -6.47583 -7.8758 -7.90874 -9.1267 -9.12837
10.7025 -6.40484 -6.39177 -7.72512 -7.75693 -8.89156 -8.8927
10.715 -6.30788 -6.29562 -7.55947 -7.59006 -8.64531 -8.64598
10.7275 -6.19488 -6.1834 -7.37598 -7.4053 -8.3851 -8.38538
10.74 -6.0627 -6.05192 -7.17243 -7.2005 -8.10872 -8.10866
10.7525 -5.91008 -5.89989 -6.94841 -6.97526 -7.81569 -7.81529
10.765 -5.73777 -5.72807 -6.70534 -6.73102 -7.5073 -7.5066
10.7775 -5.54792 -5.5386 -6.44584 -6.47043 -7.18607 -7.18509
10.79 -5.34343 -5.3344 -6.17314 -6.19668 -6.85508 -6.85385
10.8025 -5.1276 -5.11876 -5.89065 -5.9132 -6.51764 -6.51617
10.815 -4.90382 -4.8951 -5.60177 -5.62339 -6.17703 -6.17534
10.8275 -4.67544 -4.6668 -5.30975 -5.33048 -5.83635 -5.83447
10.84 -4.44553 -4.43693 -5.01747 -5.03732 -5.49834 -5.49629
10.8525 -4.21661 -4.20805 -4.72726 -4.74625 -5.16517 -5.16297
10.865 -3.99034 -3.9818 -4.44053 -4.45865 -4.83806 -4.83574
10.8775 -3.76719 -3.75868 -4.15756 -4.17479 -4.51706 -4.51464
10.89 -3.54676 -3.5383 -3.87774 -3.89407 -4.20133 -4.19884
10.9025 -3.32884 -3.32041 -3.60067 -3.6161 -3.89018 -3.88764
10.915 -3.1144 -3.10605 -3.32721 -3.34171 -3.58418 -3.58159
10.9275 -2.90618 -2.89791 -3.05996 -3.0735 -3.28557 -3.28297
10.94 -2.7078 -2.70042 -2.80273 -2.81508 -2.99772 -2.99516
10.9525 -2.5226 -2.51584 -2.55958 -2.57055 -2.72394 -2.72146
10.965 -2.35289 -2.34684 -2.3336 -2.34319 -2.46701 -2.46462
10.9775 -2.20021 -2.19499 -2.12726 -2.13565 -2.22899 -2.2266
10.99 -2.06595 -2.06138 -1.94269 -1.94996 -2.0114 -2.00895
11.0025 -1.95081 -1.94686 -1.7816 -1.78785 -1.81546 -1.81295
11.015 -1.85496 -1.85161 -1.64492 -1.6503 -1.64186 -1.63926
11.0275 -1.77749 -1.7746 -1.53235 -1.53706 -1.49015 -1.48738
11.04 -1.71608 -1.71356 -1.44221 -1.44642 -1.35859 -1.35555
11.0525 -1.66763 -1.6654 -1.37184 -1.37573 -1.24459 -1.24123
11.065 -1.62862 -1.62655 -1.31791 -1.32171 -1.14512 -1.1414
11.0775 -1.59551 -1.59348 -1.27693 -1.28087 -1.05713 -1.05299
11.09 -1.56539 -1.56328 -1.24588 -1.25015 -0.978199 -0.973553
11.1025 -1.53665 -1.53434 -1.22275 -1.22755 -0.907053 -0.901859
11.115 -1.50908 -1.50647 -1.20678 -1.2123 -0.843793 -0.838027
11.1275 -1.48364 -1.48063 -1.19816 -1.20454 -0.789592 -0.783241
11.14 -1.46188 -1.4584 -1.19755 -1.2049 -0.746158 -0.739214
11.1525 -1.44551 -1.4415 -1.20563 -1.21402 -0.715278 -0.707754
11.165 -1.43619 -1.43162 -1.22299 -1.23246 -0.698628 -0.690563
11.1775 -1.43525 -1.43011 -1.2499 -1.26042 -0.697508 -0.688961
11.19 -1.44323 -1.43756 -1.28585 -1.29737 -0.712401 -0.703442
11.2025 -1.45929 -1.4531 -1.32899 -1.34142 -0.742326 -0.73304
11.215 -1.4808 -1.47419 -1.37587 -1.38908 -0.784541 -0.775032
11.2275 -1.50418 -1.49721 -1.42222 -1.43605 -0.835292 -0.825673
11.24 -1.52635 -1.5191 -1.46441 -1.47871 -0.891292 -0.881669
11.2525 -1.54559 -1.53812 -1.5003 -1.51489 -0.950501 -0.941022
11.265 -1.56153 -1.55393 -1.52929 -1.544 -1.0122 -1.00301
11.2775 -1.57514 -1.56749 -1.55224 -1.56688 -1.07693 -1.06817
11.29 -1.58839 -1.58077 -1.57117 -1.58556 -1.14618 -1.13795
11.3025 -1.60343 -1.59595 -1.58847 -1.60244 -1.22154 -1.21396
11.315 -1.62175 -1.6145 -1.60604 -1.61941 -1.30391 -1.29709
11.3275 -1.64361 -1.63666 -1.6247 -1.63735 -1.39299 -1.38701
11.34 -1.66854 -1.66196 -1.64472 -1.65655 -1.48775 -1.48267
11.3525 -1.69583 -1.68966 -1.6662 -1.67717 -1.58688 -1.58275
11.365 -1.72429 -1.71853 -1.68886 -1.69894 -1.68862 -1.68544
11.3775 -1.75205 -1.74669 -1.71171 -1.72093 -1.79052 -1.78834
11.39 -1.77678 -1.77175 -1.73323 -1.7417 -1.88976 -1.88843
11.4025 -1.79594 -1.79116 -1.75165 -1.7595 -1.98313 -1.98257
11.415 -1.807 -1.80235 -1.76502 -1.77237 -2.06736 -2.06758
11.4275 -1.80749 -1.80284 -1.77124 -1.77826 -2.13932 -2.14026
11.44 -1.79523 -1.79043 -1.76823 -1.77511 -2.19608 -2.19761
11.4525 -1.76848 -1.76337 -1.75406 -1.76103 -2.23505 -2.23703
11.465 -1.72613 -1.72055 -1.72722 -1.73446 -2.25413 -2.25646
11.4775 -1.66763 -1.66144 -1.68641 -1.6941 -2.25171 -2.25434
11.49 -1.59265 -1.58572 -1.63031 -1.63859 -2.22642 -2.22922
11.5025 -1.50123 -1.49348 -1.55773 -1.56672 -2.17714 -2.18001
11.515 -1.39455 -1.38646 -1.46864 -1.47819 -2.10392 -2.10681
11.5275 -1.27543 -1.26694 -1.365 -1.37502 -2.00883 -2.0117
11.54 -1.14868 -1.13987 -1.25053 -1.26101 -1.89602 -1.89883
11.5525 -1.01979 -1.0107 -1.12975 -1.14071 -1.77038 -1.77306
11.565 -0.893727 -0.88445 -1.0069 -1.01819 -1.63639 -1.6389
11.5775 -0.774833 -0.765469 -0.885665 -0.897114 -1.49803 -1.50034
11.59 -0.667156 -0.657818 -0.769523 -0.781003 -1.35913 -1.36125
11.6025 -0.574524 -0.565329 -0.662031 -0.673394 -1.22353 -1.22543
11.615 -0.500325 -0.491403 -0.566586 -0.57764 -1.0948 -1.09647
11.6275 -0.447202 -0.438675 -0.486053 -0.496613 -0.975948 -0.977363
11.64 -0.416618 -0.408602 -0.422368 -0.432285 -0.869 -0.870167
11.6525 -0.408541 -0.401187 -0.376256 -0.38539 -0.774722 -0.775628
11.665 -0.421542 -0.415046 -0.347351 -0.355533 -0.692713 -0.693336
11.6775 -0.453243 -0.447739 -0.334612 -0.341684 -0.621876 -0.622176
11.69 -0.500603 -0.496222 -0.336574 -0.342481 -0.560719 -0.560663
11.7025 -0.560005 -0.55677 -0.351233 -0.356038 -0.507287 -0.50682
11.715 -0.627263 -0.625134 -0.376128 -0.379967 -0.459225 -0.458273
11.7275 -0.697956 -0.696872 -0.408589 -0.411596 -0.414031 -0.412515
11.74 -0.767869 -0.767707 -0.445984 -0.448334 -0.369264 -0.367042
11.7525 -0.833464 -0.834044 -0.486067 -0.487994 -0.323117 -0.320345
11.765 -0.892247 -0.893362 -0.527287 -0.529111 -0.275026 -0.271572
11.7775 -0.942831 -0.94425 -0.568898 -0.57096 -0.225297 -0.220888
11.79 -0.984486 -0.985972 -0.610453 -0.613057 -0.174483 -0.169016
11.8025 -1.01652 -1.01784 -0.651109 -0.654544 -0.123 -0.116538
11.815 -1.03819 -1.03912 -0.689565 -0.694117 -0.0711924 -0.0637387
11.8275 -1.04924 -1.04957 -0.724648 -0.730565 -0.0197062 -0.0111626
11.84 -1.05047 -1.05004 -0.755951 -0.763416 0.0300707 0.0397471
11.8525 -1.04377 -1.04245 -0.783854 -0.792981 0.0759589 0.0866845
11.865 -1.03149 -1.0292 -0.809033 -0.819865 0.115424 0.127078
11.8775 -1.01594 -1.01267 -0.83205 -0.844554 0.146072 0.158567
11.89 -0.999189 -0.994951 -0.853188 -0.867256 0.165978 0.179214
11.9025 -0.982893 -0.97777 -0.872445 -0.8879 0.173759 0.187568
11.915 -0.968504 -0.962613 -0.889767 -0.90637 0.168348 0.182512
11.9275 -0.95745 -0.950944 -0.905318 -0.922779 0.14874 0.163049
11.94 -0.951235 -0.944296 -0.919646 -0.937637 0.113944 0.128217
11.9525 -0.951331 -0.944162 -0.933632 -0.951787 0.0631129 0.0770931
11.965 -0.958873 -0.951688 -0.948188 -0.96613 -0.00425709 0.00914683
11.9775 -0.974228 -0.967238 -0.963851 -0.981223 -0.0879339 -0.0753346
11.99 -0.996792 -0.990189 -0.980578 -0.997054 -0.186687 -0.17507
12.0025 -1.02521 -1.01916 -0.99793 -1.01322 -0.298472 -0.288014
12.015 -1.0579 -1.05253 -1.01554 -1.02943 -0.421001 -0.411874
12.0275 -1.09362 -1.08901 -1.0336 -1.04592 -0.552309 -0.544641
12.04 -1.13135 -1.12754 -1.05269 -1.06335 -0.690643 -0.684498
12.0525 -1.16988 -1.16687 -1.07324 -1.08225 -0.833994 -0.829396
12.065 -1.20769 -1.20543 -1.09542 -1.10282 -0.979998 -0.976969
12.0775 -1.24338 -1.24178 -1.11928 -1.12524 -1.12655 -1.12513
12.09 -1.2763 -1.27521 -1.14554 -1.15036 -1.27225 -1.27197
12.1025 -1.30704 -1.30617 -1.17596 -1.17989 -1.41651 -1.41731
12.115 -1.33699 -1.33624 -1.21275 -1.21606 -1.55961 -1.56159
12.1275 -1.3673 -1.36656 -1.25755 -1.26055 -1.70185 -1.70491
12.14 -1.39821 -1.39724 -1.31066 -1.31367 -1.8425 -1.84631
12.1525 -1.4286 -1.42726 -1.37092 -1.37422 -1.97941 -1.98374
12.165 -1.45689 -1.45502 -1.43627 -1.44017 -2.10987 -2.11463
12.1775 -1.48159 -1.47902 -1.50442 -1.50922 -2.23139 -2.23649
12.19 -1.50142 -1.498 -1.57305 -1.579 -2.34183 -2.34706
12.2025 -1.51547 -1.51108 -1.63988 -1.64721 -2.43932 -2.44445
12.215 -1.52338 -1.51794 -1.70301 -1.7119 -2.52252 -2.52746
12.2275 -1.52558 -1.51901 -1.76109 -1.77163 -2.59093 -2.59562
12.24 -1.52307 -1.51536 -1.81322 -1.82548 -2.64476 -2.6491
12.2525 -1.51715 -1.50849 -1.85885 -1.87276 -2.68461 -2.68849
12.265 -1.5092 -1.49965 -1.89762 -1.91304 -2.71122 -2.71461
12.2775 -1.50042 -1.49008 -1.92908 -1.94586 -2.72532 -2.72823
12.29 -1.49148 -1.4805 -1.95249 -1.97046 -2.72733 -2.72979
12.3025 -1.48265 -1.47119 -1.96697 -1.98586 -2.71736 -2.71938
12.315 -1.47407 -1.4623 -1.97175 -1.99126 -2.69551 -2.69711
12.3275 -1.46606 -1.45418 -1.96658 -1.98642 -2.66221 -2.66347
12.34 -1.45943 -1.44764 -1.95203 -1.97188 -2.61853 -2.61952
12.3525 -1.45548 -1.44399 -1.92952 -1.94904 -2.56618 -2.56698
12.365 -1.45585 -1.4449 -1.90123 -1.92009 -2.5074 -2.50806
12.3775 -1.46185 -1.45167 -1.86934 -1.88724 -2.44424 -2.44482
12.39 -1.47377 -1.46454 -1.83541 -1.85208 -2.37791 -2.37847
12.4025 -1.49098 -1.48275 -1.80034 -1.81562 -2.30887 -2.30944
12.415 -1.51206 -1.50495 -1.76441 -1.77818 -2.23685 -2.23744
12.4275 -1.53487 -1.52892 -1.72738 -1.73956 -2.16094 -2.16153
12.44 -1.55697 -1.55219 -1.68877 -1.69934 -2.08003 -2.08059
12.4525 -1.57596 -1.57233 -1.64811 -1.65715 -1.99308 -1.99355
12.465 -1.58958 -1.58701 -1.60498 -1.61262 -1.89918 -1.8995
12.4775 -1.59575 -1.59403 -1.55903 -1.56546 -1.79764 -1.7977
12.49 -1.59273 -1.59172 -1.50995 -1.51539 -1.688 -1.6877
12.5025 -1.57886 -1.57847 -1.45728 -1.46202 -1.56992 -1.56915
12.515 -1.55259 -1.55257 -1.40015 -1.40455 -1.44287 -1.44153
12.5275 -1.51218 -1.51225 -1.3372 -1.34162 -1.30608 -1.30405
12.54 -1.45594 -1.45587 -1.26679 -1.27151 -1.15862 -1.15574
12.5525 -1.38263 -1.38215 -1.18713 -1.19245 -0.999657 -0.996041
12.565 -1.29121 -1.29016 -1.09617 -1.10237 -0.828624 -0.824218
12.5775 -1.18045 -1.17902 -0.99161 -0.998701 -0.644678 -0.63931
12.59 -1.04886 -1.04696 -0.871035 -0.879161 -0.446723 -0.440327
12.6025 -0.896206 -0.893735 -0.732543 -0.74182 -0.234398 -0.227116
12.615 -0.723924 -0.720801 -0.576008 -0.586529 -0.00916968 -0.00107554
12.6275 -0.535886 -0.532132 -0.403705 -0.415408 0.225138 0.234042
12.64 -0.33819 -0.333823 -0.219962 -0.232731 0.462801 0.472466
12.6525 -0.137863 -0.132942 -0.0301016 -0.0437925 0.697277 0.707541
12.665 0.0578721 0.0632274 0.160131 0.145738 0.921806 0.932482
12.6775 0.241656 0.247306 0.344625 0.329832 1.1295 1.14044
12.69 0.40677 0.412548 0.517611 0.502745 1.31412 1.32519
12.7025 0.548725 0.554441 0.675158 0.660558 1.47167 1.48267
12.715 0.665864 0.671327 0.815724 0.801747 1.6009 1.61165
12.7275 0.758493 0.763518 0.939298 0.926302 1.70247 1.71275
12.74 0.828053 0.83247 1.04661 1.03491 1.77803 1.78769
12.7525 0.876718 0.880381 1.13873 1.12859 1.82994 1.83885
12.765 0.907561 0.910356 1.21731 1.20893 1.86142 1.86947
12.7775 0.924616 0.926393 1.28468 1.27824 1.87658 1.88367
12.79 0.932478 0.933166 1.34354 1.33912 1.88003 1.88612
12.8025 0.935974 0.935582 1.39672 1.3943 1.87658 1.88166
12.815 0.93998 0.938573 1.4471 1.44657 1.87106 1.87517
12.8275 0.949166 0.946882 1.4975 1.49867 1.86817 1.87137
12.84 0.96767 0.964708 1.55048 1.55306 1.87217 1.87457
12.8525 0.998616 0.995216 1.60791 1.61158 1.8864 1.88812
12.865 1.04373 1.04017 1.67075 1.67512 1.91296 1.91411
12.8775 1.10336 1.09995 1.73903 1.7437 1.95267 1.95346
12.89 1.17694 1.17369 1.81233 1.81701 2.00562 2.00629
12.9025 1.26403 1.261 1.89016 1.89456 2.07168 2.07233
12.915 1.36337 1.36077 1.97225 1.97607 2.15045 2.15114
12.9275 1.47359 1.47163 2.05833 2.06121 2.24109 2.24196
12.94 1.59282 1.59157 2.14779 2.1495 2.34226 2.34352
12.9525 1.71832 1.7179 2.23958 2.23997 2.45208 2.45384
12.965 1.84688 1.84734 2.33232 2.33129 2.56814 2.5704
12.9775 1.97511 1.97646 2.42455 2.42204 2.6877 2.69045
12.99 2.09999 2.10219 2.51519 2.51123 2.8083 2.81164
13.0025 2.2191 2.22209 2.60368 2.59839 2.92816 2.93213
13.015 2.33062 2.33429 2.68993 2.68348 3.04602 3.05054
13.0275 2.43336 2.43756 2.77424 2.76686 3.16112 3.1661
13.04 2.52672 2.53129 2.85723 2.84919 3.27311 3.27848
13.0525 2.61051 2.61526 2.93962 2.93123 3.38198 3.38768
13.065 2.68482 2.68957 3.02203 3.0136 3.48791 3.49384
13.0775 2.74997 2.75451 3.10493 3.09681 3.59116 3.59719
13.09 2.80669 2.81079 3.18879 3.18131 3.69222 3.69825
13.1025 2.85604 2.85957 3.27411 3.26755 3.79185 3.79778
13.115 2.89894 2.90181 3.36099 3.35559 3.89063 3.89641
13.1275 2.93545 2.9375 3.44821 3.44421 3.98807 3.99364
13.14 2.96426 2.96537 3.53303 3.53062 4.08233 4.08761
13.1525 2.98366 2.9837 3.61207 3.61139 4.17099 4.17595
13.165 2.99219 2.99105 3.68198 3.68313 4.25178 4.25642
13.1775 2.98924 2.98688 3.74018 3.74316 4.3232 4.32755
13.19 2.97578 2.97218 3.78549 3.79025 4.38517 4.38928
13.2025 2.95403 2.94925 3.81811 3.8245 4.43882 4.44276
13.215 2.92639 2.92052 3.83847 3.84626 4.48538 4.48925
13.2275 2.89416 2.88735 3.84611 3.85503 4.52501 4.52894
13.24 2.85725 2.84968 3.83947 3.84918 4.55651 4.56062
13.2525 2.81507 2.80693 3.8168 3.82695 4.57817 4.58258
13.265 2.76715 2.75868 3.77685 3.78705 4.58844 4.59332
13.2775 2.7127 2.7041 3.71843 3.72825 4.58552 4.59103
13.29 2.65015 2.64165 3.63995 3.64902 4.56695 4.57321
13.3025 2.57763 2.56942 3.53988 3.54783 4.52997 4.53708
13.315 2.4937 2.48595 3.41747 3.42397 4.47234 4.48039
13.3275 2.39787 2.39073 3.27317 3.27795 4.39277 4.40184
13.34 2.29074 2.28432 3.10878 3.1116 4.29115 4.30129
13.3525 2.17376 2.16818 2.92714 2.92783 4.16832 4.17952
13.365 2.04862 2.04393 2.73144 2.72987 4.02534 4.03757
13.3775 1.9169 1.91316 2.5249 2.52101 3.86332 3.87652
13.39 1.78048 1.77768 2.31101 2.30482 3.68372 3.6978
13.4025 1.64169 1.63985 2.09377 2.08535 3.48862 3.50346
13.415 1.50316 1.50223 1.87738 1.86683 3.28047 3.2959
13.4275 1.36698 1.3669 1.6654 1.65291 3.06135 3.07719
13.44 1.2342 1.2349 1.46023 1.44602 2.83244 2.8485
13.4525 1.10488 1.10625 1.26308 1.24742 2.59414 2.61019
13.465 0.978566 0.98046 1.0744 1.0576 2.34645 2.36222
13.4775 0.854807 0.856965 0.894429 0.87686 2.08955 2.10477
13.49 0.733454 0.736379 0.72346 0.705334 1.82409 1.83855
13.5025 0.614666 0.617968 0.561923 0.543489 1.55111 1.5646
13.515 0.498543 0.50201 0.409937 0.391519 1.27202 1.2843
13.5275 0.385176 0.388822 0.267637 0.249638 0.988562 0.999397
13.54 0.27518 0.278816 0.135092 0.117757 0.702604 0.711813
13.5525 0.168514 0.171975 0.0116275 -0.0048785 0.415639 0.423077
13.565 0.063951 0.06721 -0.1049 -0.120332 0.128125 0.133689
13.5775 -0.0408377 -0.0378751 -0.218 -0.232126 -0.160791 -0.157381
13.59 -0.149129 -0.146535 -0.331932 -0.344767 -0.453302 -0.451719
13.6025 -0.26454 -0.262306 -0.451671 -0.463323 -0.75143 -0.751295
13.615 -0.390256 -0.388411 -0.581963 -0.592306 -1.05652 -1.05811
13.6275 -0.528316 -0.526857 -0.726203 -0.735241 -1.36933 -1.37292
13.64 -0.678926 -0.677799 -0.88581 -0.89374 -1.68924 -1.69458
13.6525 -0.840252 -0.83938 -1.06026 -1.06731 -2.01346 -2.02014
13.665 -1.00914 -1.00843 -1.2476 -1.25397 -2.33764 -2.34552
13.6775 -1.18203 -1.18135 -1.44519 -1.45114 -2.65721 -2.6663
13.69 -1.3555 -1.3547 -1.65022 -1.65609 -2.9681 -2.97822
13.7025 -1.52642 -1.52535 -1.85995 -1.8661 -3.26663 -3.27741
13.715 -1.69202 -1.6905 -2.07163 -2.0784 -3.54933 -3.56047
13.7275 -1.85027 -1.84814 -2.2829 -2.29063 -3.81349 -3.82486
13.74 -2.00075 -1.99787 -2.49266 -2.50169 -4.05826 -4.06968
13.7525 -2.14514 -2.14136 -2.70157 -2.71219 -4.28495 -4.29617
13.765 -2.28664 -2.28186 -2.91154 -2.92399 -4.49649 -4.50726
13.7775 -2.42901 -2.42317 -3.12481 -3.13929 -4.69642 -4.70656
13.79 -2.57563 -2.56869 -3.3431 -3.35973 -4.88802 -4.89738
13.8025 -2.72913 -2.7211 -3.56734 -3.58617 -5.07403 -5.0825
13.815 -2.8919 -2.88283 -3.7982 -3.81922 -5.25711 -5.2646
13.8275 -3.06615 -3.05612 -4.03627 -4.05939 -5.43989 -5.44634
13.84 -3.253 -3.24212 -4.28125 -4.30632 -5.62413 -5.62952
13.8525 -3.45152 -3.43993 -4.53096 -4.55779 -5.80967 -5.81401
13.865 -3.65882 -3.64666 -4.78159 -4.80993 -5.99461 -5.99795
13.8775 -3.8709 -3.85834 -5.02848 -5.05807 -6.17606 -6.17846
13.89 -4.08352 -4.07071 -5.26704 -5.29759 -6.35101 -6.35255
13.9025 -4.29317 -4.28029 -5.49373 -5.52496 -6.51728 -6.51806
13.915 -4.49818 -4.48537 -5.70712 -5.73875 -6.67456 -6.67469
13.9275 -4.69909 -4.68651 -5.9083 -5.94004 -6.82481 -6.82441
13.94 -4.89781 -4.88559 -6.09998 -6.13157 -6.97137 -6.97054
13.9525 -5.09644 -5.0847 -6.28531 -6.31652 -7.11777 -7.11664
13.965 -5.29646 -5.28531 -6.46708 -6.49769 -7.26694 -7.26562
13.9775 -5.49796 -5.48747 -6.64684 -6.67671 -7.42042 -7.41899
13.99 -5.69928 -5.6895 -6.82458 -6.8536 -7.57795 -7.5765
14.0025 -5.89743 -5.88838 -6.99903 -7.02715 -7.73792 -7.73651
14.015 -6.08889 -6.08052 -7.16836 -7.1956 -7.89807 -7.89675
14.0275 -6.27006 -6.26231 -7.33065 -7.35707 -8.05599 -8.05479
14.04 -6.43741 -6.43019 -7.48386 -7.5096 -8.20919 -8.20813
14.0525 -6.5875 -6.58067 -7.62587 -7.6511 -8.35509 -8.35416
14.065 -6.71697 -6.71038 -7.75433 -7.77928 -8.49102 -8.49021
14.0775 -6.82276 -6.81624 -7.86689 -7.89178 -8.61437 -8.61366
14.09 -6.90244 -6.89581 -7.96146 -7.98657 -8.72296 -8.72231
14.1025 -6.95441 -6.94747 -8.03638 -8.06196 -8.81514 -8.81454
14.115 -6.97762 -6.97019 -8.0902 -8.1165 -8.88962 -8.88903
14.1275 -6.97168 -6.96349 -8.12167 -8.14895 -8.94546 -8.94488
14.14 -6.93762 -6.9284 -8.13054 -8.15904 -8.98285 -8.98225
14.1525 -6.87837 -6.86793 -8.11803 -8.14794 -9.00353 -9.00293
14.165 -6.79843 -6.78663 -8.08661 -8.11802 -9.01049 -9.00992
14.1775 -6.70261 -6.68938 -8.03888 -8.07176 -9.00684 -9.00636
14.19 -6.59527 -6.58062 -7.97683 -8.0111 -8.99503 -8.99473
14.2025 -6.47983 -6.46384 -7.90162 -7.93709 -8.97652 -8.9765
14.215 -6.35867 -6.34148 -7.8135 -7.8499 -8.95164 -8.95202
14.2275 -6.23295 -6.21473 -7.71173 -7.74875 -8.91946 -8.92039
14.24 -6.10229 -6.08326 -7.59436 -7.63163 -8.87759 -8.87921
14.2525 -5.96493 -5.94531 -7.45843 -7.49556 -8.82229 -8.82473
14.265 -5.81844 -5.79845 -7.30066 -7.33725 -8.74917 -8.75258
14.2775 -5.66008 -5.63995 -7.11788 -7.15352 -8.65365 -8.65814
14.29 -5.48709 -5.46702 -6.90722 -6.94155 -8.53115 -8.53682
14.3025 -5.29727 -5.27744 -6.66671 -6.69938 -8.37771 -8.38464
14.315 -5.08972 -5.0703 -6.39598 -6.42668 -8.19077 -8.19901
14.3275 -4.86519 -4.84632 -6.09648 -6.12496 -7.96969 -7.97932
14.34 -4.62588 -4.6077 -5.77138 -5.79749 -7.71532 -7.72593
14.3525 -4.37479 -4.35741 -5.4249 -5.4484 -7.42901 -7.44068
14.365 -4.11489 -4.09843 -5.06139 -5.0821 -7.11249 -7.12539
14.3775 -3.84853 -3.83306 -4.68455 -4.70241 -6.76733 -6.78134
14.39 -3.57686 -3.56243 -4.2971 -4.31211 -6.39407 -6.40888
14.4025 -3.30017 -3.28679 -3.90092 -3.91311 -5.99234 -6.00771
14.415 -3.01835 -3.00612 -3.49748 -3.50693 -5.56159 -5.57744
14.4275 -2.73103 -2.72123 -3.08839 -3.09477 -5.10173 -5.11802
14.44 -2.4379 -2.42964 -2.67543 -2.67895 -4.61319 -4.62948
14.4525 -2.1379 -2.13097 -2.25983 -2.261 -4.09667 -4.11254
14.465 -1.8304 -1.82516 -1.84297 -1.84228 -3.55298 -3.56811
14.4775 -1.51577 -1.51169 -1.42624 -1.42399 -2.98335 -2.99749
14.49 -1.19405 -1.19094 -1.01096 -1.00753 -2.38997 -2.40279
14.5025 -0.866679 -0.864508 -0.599134 -0.595082 -1.77638 -1.78749
14.515 -0.536698 -0.535142 -0.193806 -0.189569 -1.14742 -1.15647
14.5275 -0.207107 -0.205989 0.202088 0.206186 -0.50837 -0.515095
14.54 0.119753 0.120517 0.586891 0.590419 0.136067 0.131878
14.5525 0.442439 0.443054 0.960258 0.962828 0.782109 0.780675
14.565 0.760878 0.761461 1.32321 1.32462 1.42725 1.42898
14.5775 1.07664 1.07725 1.67848 1.67865 2.07144 2.07613
14.59 1.39276 1.39347 2.03093 2.02996 2.7153 2.72203
14.6025 1.71325 1.71408 2.38633 2.38398 3.35952 3.36888
14.615 2.04174 2.0427 2.75003 2.74628 4.00549 4.01812
14.6275 2.3811 2.38217 3.12643 3.12145 4.65469 4.67027
14.64 2.73308 2.73418 3.51889 3.51294 5.30717 5.32497
14.6525 3.09796 3.09901 3.9293 3.92258 5.96096 5.98081
14.665 3.47481 3.47569 4.35799 4.35078 6.61314 6.63519
14.6775 3.86233 3.86289 4.80463 4.79731 7.26117 7.28524
14.69 4.25962 4.2597 5.26901 5.26203 7.90332 7.92928
14.7025 4.66618 4.6656 5.7503 5.74428 8.5399 8.56687
14.715 5.08105 5.07963 6.24796 6.24385 9.1688 9.19399
14.7275 5.50285 5.50043 6.76055 6.75813 9.78581 9.81094
14.74 5.92916 5.92566 7.28496 7.28435 10.3883 10.4148
14.7525 6.35755 6.35283 7.81718 7.81885 10.9756 11.0026
14.765 6.7859 6.77982 8.35381 8.35823 11.5461 11.572
14.7775 7.21282 7.20531 8.8922 8.89944 12.0973 12.1221
14.79 7.63793 7.62897 9.4302 9.44033 12.6286 12.6531
14.8025 8.06191 8.05146 9.96643 9.97968 13.1418 13.1658
14.815 8.48615 8.47423 10.5004 10.5169 13.6392 13.6618
14.8275 8.91235 8.89822 11.032 11.0519 14.1229 14.1438
14.84 9.34308 9.32688 11.5606 11.584 14.5948 14.6144
14.8525 9.78023 9.76182 12.0855 12.1122 15.0571 15.0756
14.865 10.2245 10.2061 12.6052 12.6344 15.5113 15.5285
14.8775 10.6886 10.8132 13.1199 13.1336 15.9571 15.9758
14.89 11.1413 11.3347 13.6516 13.6134 16.3877 16.4221
14.9025 11.5773 11.7709 14.1742 14.1447 16.8039 16.835
14.915 12.0004 12.1992 14.6745 14.6605 17.2169 17.2462
14.9275 12.4125 12.6172 15.1862 15.1761 17.6191 17.6404
14.94 12.8161 13.0356 15.7035 15.6827 18.006 18.028
14.9525 13.2041 13.4384 16.2055 16.1834 18.3808 18.4071
14.965 13.5778 13.8258 16.6925 16.6772 18.7511 18.7761
14.9775 13.9368 14.198 17.1744 17.1591 19.1175 19.1378
14.99 14.2771 14.5532 17.6466 17.6295 19.4758 19.4939
15.0025 14.6393 14.9 18.1 18.0878 19.8266 19.8451
15.015 15.1974 15.1976 18.5494 18.5423 20.1739 20.1872
15.0275 15.4537 15.4756 18.9903 18.9907 20.5181 20.5213
15.04 15.6118 15.7392 19.4223 19.4228 20.8517 20.8554
15.0525 15.9125 15.9666 19.8469 19.8509 21.1771 21.1842
15.065 16.1377 16.1762 20.2574 20.2668 21.5066 21.5113
15.0775 16.2873 16.37 20.6549 20.6664 21.8404 21.8403
15.09 16.4645 16.5339 21.0405 21.0527 22.1734 22.1724
15.1025 16.6306 16.6786 21.4129 21.4253 22.5059 22.5072
15.115 16.7448 16.8054 21.7688 21.7816 22.8415 22.8436
15.1275 16.846 16.9111 22.1062 22.1215 23.18 23.1802
15.14 16.942 16.9945 22.4258 22.4428 23.518 23.517
15.1525 17.0079 17.0594 22.7271 22.7441 23.8536 23.8536
15.165 17.0512 17.1069 23.0076 23.0255 24.1879 24.1896
15.1775 17.0877 17.1386 23.2685 23.2885 24.5235 24.5255
15.19 17.1135 17.1604 23.514 23.535 24.8619 24.8637
15.2025 17.1294 17.1772 23.7461 23.7675 25.2039 25.2066
15.215 17.1459 17.1922 23.9658 23.9881 25.5504 25.5551
15.2275 17.165 17.2081 24.1742 24.1975 25.9023 25.9084
15.24 17.1858 17.2266 24.3717 24.3953 26.2577 26.2649
15.2525 17.2126 17.2468 24.5572 24.5805 26.6132 26.6218
15.265 17.2393 17.2677 24.7292 24.7539 26.9645 26.9748
15.2775 17.2611 17.2868 24.8845 24.9155 27.3076 27.318
15.29 17.2791 17.3016 25.0178 25.0535 27.6389 27.6491
15.3025 17.2919 17.3104 25.1282 25.1668 27.9529 27.9638
15.315 17.2953 17.3093 25.2177 25.2768 28.2462 28.2568
15.3275 17.2825 17.2767 25.3046 25.5035 28.523 28.5064
15.34 17.2631 17.2404 25.3612 25.5449 28.8012 28.77
15.3525 17.203 17.1912 25.3892 25.5806 29.0575 29.0292
15.365 17.1388 17.1223 25.3969 25.5949 29.2944 29.2787
15.3775 17.0616 17.0373 25.3988 25.597 29.5248 29.5119
15.39 16.9687 16.9418 25.3889 25.5853 29.7495 29.7317
15.4025 16.8682 16.8351 25.362 25.5694 29.9616 29.9354
15.415 16.7613 16.7212 25.3225 25.5392 30.1569 30.1278
15.4275 16.6467 16.6022 25.2764 25.4977 30.3371 30.3079
15.44 16.5277 16.4796 25.2221 25.4479 30.506 30.4765
15.4525 16.408 16.3555 25.1571 25.3876 30.6635 30.6328
15.465 16.2865 16.2299 25.083 25.3199 30.8071 30.7754
15.4775 16.1624 16.1036 25.0013 25.2416 30.9349 30.9036
15.49 16.0372 15.9761 24.9101 25.1526 31.0462 31.0159
15.5025 15.9114 15.8476 24.8076 25.0534 31.1408 31.1106
15.515 15.7848 15.7178 24.6958 24.944 31.2181 31.1877
15.5275 15.6542 15.5883 24.5929 24.8294 31.2774 31.2474
15.54 15.501 15.4559 24.5686 24.7279 31.3176 31.2918
15.5525 15.3329 15.3209 24.6128 24.5929 31.344 31.3381
15.565 15.2036 15.1799 24.4843 24.4763 31.3725 31.3826
15.5775 15.0615 15.0291 24.2733 24.3777 31.418 31.4171
15.59 14.8995 14.8754 24.1788 24.265 31.4651 31.4497
15.6025 14.7402 14.7145 24.1327 24.1506 31.4875 31.4825
15.615 14.573 14.5468 24.0193 24.0498 31.4935 31.5085
15.6275 14.3987 14.3723 23.8808 23.9498 31.5054 31.521
15.64 14.2192 14.1912 23.7808 23.8412 31.5167 31.5179
15.6525 14.0262 14.0022 23.696 23.7268 31.5038 31.5033
15.665 13.8259 13.8039 23.5814 23.6113 31.4636 31.4769
15.6775 13.624 13.5992 23.4368 23.4802 31.4211 31.4755
15.69 13.4124 13.3916 23.2919 23.3387 31.3833 31.4193
15.7025 13.1973 13.1753 23.1519 23.1909 31.3348 31.3664
15.715 12.9799 12.9586 22.9992 23.0286 31.2689 31.3105
15.7275 12.7618 12.7402 22.8249 22.861 31.2 31.2491
15.74 12.5454 12.5224 22.6387 22.679 31.1366 31.1829
15.7525 12.3272 12.3047 22.4479 22.4855 31.0678 31.1098
15.765 12.1075 12.0858 22.2463 22.2788 30.9836 31.0306
15.7775 11.8867 11.8651 22.0265 22.0573 30.8869 30.9429
15.79 11.6638 11.6418 21.7908 21.823 30.7841 30.8428
15.8025 11.4393 11.414 21.5445 21.5766 30.6727 30.7302
15.815 11.2139 11.186 21.2872 21.3175 30.5479 30.6055
15.8275 10.9872 10.9567 21.0164 21.046 30.4085 30.4686
15.84 10.7583 10.7257 20.7343 20.7642 30.2553 30.3171
15.8525 10.5249 10.4945 20.4438 20.4721 30.0889 30.1511
15.865 10.2927 10.2637 20.1455 20.1717 29.9079 29.9708
15.8775 10.0639 10.0342 19.8403 19.8654 29.7123 29.7768
15.89 9.83606 9.80749 19.5306 19.5545 29.5031 29.5692
15.9025 9.61077 9.58357 19.2182 19.2401 29.2804 29.3473
15.915 9.3903 9.36182 18.9036 18.9222 29.0424 29.1105
15.9275 9.17138 9.14225 18.5862 18.6024 28.7874 28.857
15.94 8.95166 8.92432 18.2644 18.2802 28.5151 28.5856
15.9525 8.7333 8.70659 17.9398 17.9551 28.2255 28.2962
15.965 8.51712 8.49059 17.6147 17.6287 27.9186 27.9891
15.9775 8.30334 8.27763 17.2905 17.3031 27.5952 27.6663
15.99 8.09489 8.07024 16.9694 16.9812 27.258 27.3297
16.0025 7.89487 7.87067 16.655 16.6661 26.9104 26.9821
16.0125 7.7421 7.71844 16.4104 16.4207 26.6267 26.6979
16.0225 7.59665 7.57373 16.1732 16.1828 26.3391 26.4097
16.0325 7.45914 7.43691 15.9438 15.9529 26.0481 26.1184
16.0425 7.32954 7.30792 15.7223 15.7293 25.7541 25.8243
16.0525 7.20712 7.18689 15.5082 15.5106 25.4572 25.5278
16.0625 7.09059 7.07209 15.3015 15.3002 25.1566 25.2274
16.0725 6.97899 6.96122 15.1006 15.0968 24.8517 24.9224
16.0825 6.87113 6.85437 14.904 14.8968 24.5418 24.6113
16.0925 6.76504 6.74966 14.7107 14.7004 24.2257 24.2936
16.1025 6.65925 6.64451 14.5185 14.5064 23.9021 23.9684
16.1125 6.55325 6.53855 14.3238 14.3124 23.5704 23.6348
16.1225 6.44502 6.43026 14.1266 14.1176 23.2297 23.2919
16.1325 6.33259 6.3179 13.9286 13.9213 22.8792 22.9384
16.1425 6.21521 6.20098 13.7295 13.7218 22.5178 22.5742
16.1525 6.09252 6.07866 13.5268 13.5179 22.1451 22.1992
16.1625 5.96377 5.94996 13.3181 13.3096 21.7611 21.8127
16.1725 5.82822 5.81432 13.1028 13.0963 21.3659 21.4146
16.1825 5.68546 5.67146 12.8817 12.8769 20.9599 21.0051
16.1925 5.53511 5.52117 12.655 12.6505 20.5428 20.5845
16.2025 5.37678 5.36289 12.4215 12.4171 20.1144 20.1529
16.2125 5.21033 5.19638 12.1796 12.176 19.6751 19.7105
16.2225 5.03585 5.02178 11.929 11.9267 19.2256 19.2579
16.2325 4.85351 4.83925 11.67 11.6691 18.7669 18.7957
16.2425 4.66371 4.6493 11.4032 11.4033 18.2998 18.3249
16.2525 4.46718 4.45275 11.1289 11.1296 17.8253 17.8468
16.2625 4.26488 4.25044 10.8469 10.8483 17.3445 17.3628
16.2725 4.0579 4.04335 10.5577 10.5602 16.859 16.8744
16.2825 3.84743 3.83292 10.2631 10.2663 16.3698 16.3831
16.2925 3.63514 3.621 9.96489 9.96783 15.8784 15.8916
16.3025 3.42368 3.40998 9.66465 9.6669 15.3885 15.4021
16.3125 3.21605 3.20266 9.3643 9.36629 14.9042 14.9172
16.3225 3.01532 3.0022 9.06671 9.06904 14.4291 14.4404
16.3325 2.82433 2.81187 8.77517 8.77837 13.9655 13.9749
16.3425 2.64554 2.63373 8.49242 8.49616 13.5154 13.5236
16.3525 2.48108 2.46997 8.22043 8.22404 13.0811 13.089
16.3625 2.33263 2.32202 7.96091 7.96373 12.6646 12.6724
16.3725 2.20087 2.19058 7.71462 7.71651 12.2677 12.2749
16.3825 2.08628 2.07665 7.48199 7.48318 11.8912 11.8977
16.3925 1.98938 1.98062 7.26358 7.26425 11.5357 11.5414
16.4025 1.91023 1.90231 7.05981 7.05981 11.2009 11.2062
16.4125 1.84749 1.84031 6.87025 6.86911 10.886 10.8912
16.4225 1.79869 1.79246 6.69337 6.69076 10.5895 10.5946
16.4325 1.76115 1.75608 6.52713 6.5231 10.3094 10.3145
16.4425 1.7322 1.72823 6.36957 6.36427 10.0436 10.0485
16.4525 1.709 1.70605 6.21899 6.21246 9.78979 9.79445
16.4625 1.68869 1.6868 6.07392 6.06604 9.54574 9.55035
16.4725 1.66873 1.66796 5.93293 5.92359 9.30964 9.3143
16.4825 1.64694 1.64721 5.79464 5.78389 9.07989 9.0846
16.4925 1.62131 1.6225 5.65788 5.64592 8.85512 8.8598
16.5025 1.5902 1.59222 5.52195 5.50898 8.63424 8.6388
16.5125 1.55258 1.55538 5.38672 5.37284 8.41668 8.4211
16.5225 1.50812 1.51159 5.25252 5.23779 8.20243 8.20672
16.5325 1.45702 1.46104 5.11998 5.1045 7.992 7.99617
16.5425 1.39987 1.40432 4.98999 4.97397 7.78627 7.79028
16.5525 1.33754 1.34232 4.86367 4.84731 7.58637 7.59012
16.5625 1.27119 1.27618 4.7423 4.72577 7.39354 7.39697
16.5725 1.20208 1.20718 4.62716 4.61057 7.2091 7.21216
16.5825 1.13151 1.13662 4.51944 4.50288 7.03434 7.03704
16.5925 1.06063 1.06567 4.42002 4.40363 6.87041 6.87274
16.6025 0.990312 0.995199 4.32945 4.31349 6.7181 6.71998
16.6125 0.921242 0.925814 4.24809 4.23267 6.578 6.57934
16.6225 0.854116 0.858307 4.17616 4.16131 6.45073 6.4515
16.6325 0.789895 0.793674 4.114 4.09977 6.33712 6.33734
16.6425 0.729832 0.733135 4.06195 4.04837 6.23821 6.23791
16.6525 0.675209 0.677958 4.02032 4.00757 6.15503 6.15427
16.6625 0.627082 0.629178 3.98947 3.97772 6.08849 6.08722
16.6725 0.586335 0.587686 3.96975 3.95899 6.03928 6.03751
16.6825 0.553639 0.554254 3.96126 3.95145 6.00794 6.00573
16.6925 0.529553 0.529522 3.96373 3.95485 5.99473 5.99218
16.7025 0.514382 0.513699 3.97656 3.96864 5.99956 5.99677
16.7125 0.507965 0.506632 3.99887 3.99191 6.02201 6.01902
16.7225 0.509845 0.507937 4.02967 4.02356 6.06137 6.05823
16.7325 0.519514 0.517115 4.06785 4.06248 6.11675 6.11348
16.7425 0.536329 0.533493 4.11225 4.10749 6.18704 6.1838
16.7525 0.559253 0.556047 4.1614 4.15714 6.27083 6.26784
16.7625 0.586714 0.583222 4.21346 4.20955 6.36624 6.36365
16.7725 0.616746 0.613036 4.26622 4.26254 6.47098 6.46885
16.7825 0.647263 0.643387 4.31747 4.31388 6.58253 6.5809
16.7925 0.676268 0.672273 4.36515 4.36154 6.6984 6.69736
16.8025 0.701879 0.697805 4.40738 4.40364 6.81614 6.81585
16.8125 0.722425 0.718298 4.44256 4.43858 6.93352 6.9341
16.8225 0.736695 0.732531 4.46955 4.46524 7.04876 7.05028
16.8325 0.744162 0.739972 4.48795 4.48325 7.16067 7.16317
16.8425 0.74503 0.740821 4.49809 4.49293 7.26872 7.27224
16.8525 0.740003 0.735782 4.50082 4.49515 7.37281 7.37741
16.8625 0.730018 0.725791 4.49725 4.49102 7.47307 7.4788
16.8725 0.715976 0.71175 4.48845 4.48161 7.56956 7.57646
16.8825 0.698625 0.6944 4.47531 4.46785 7.66229 7.67037
16.8925 0.678607 0.674342 4.45841 4.45051 7.75174 7.76025
16.9025 0.656457 0.652135 4.43849 4.43037 7.8377 7.84557
16.9125 0.632761 0.628399 4.4165 4.40812 7.91925 7.92656
16.9225 0.608265 0.603878 4.39344 4.38459 7.99583 8.00396
16.9325 0.583919 0.579583 4.37026 4.3606 8.06793 8.07874
16.9425 0.56089 0.556669 4.34817 4.33788 8.1368 8.14956
16.9525 0.540638 0.53662 4.32857 4.31774 8.20382 8.21798
16.9625 0.52464 0.520722 4.31313 4.30179 8.26987 8.285
16.9725 0.514311 0.510474 4.30353 4.2917 8.33562 8.35171
16.9825 0.510843 0.507118 4.3011 4.28877 8.4018 8.41923
16.9925 0.51493 0.511338 4.30664 4.29386 8.46898 8.48779
17.0025 0.526487 0.523019 4.32015 4.307 8.53713 8.55702
17.0125 0.544522 0.541176 4.34084 4.32738 8.60518 8.62572
17.0225 0.567449 0.56423 4.36732 4.35361 8.67128 8.69226
17.0325 0.593486 0.590375 4.39793 4.38405 8.73337 8.75483
17.0425 0.620822 0.61778 4.43099 4.41702 8.78961 8.81158
17.0525 0.647705 0.644689 4.46482 4.45086 8.83838 8.86069
17.0625 0.672597 0.669556 4.49792 4.48409 8.87825 8.90062
17.0725 0.69437 0.691244 4.52912 4.51553 8.9081 8.93032
17.0825 0.712486 0.709216 4.55777 4.54451 8.92737 8.94941
17.0925 0.727111 0.72365 4.58386 4.57105 8.93629 8.95812
17.1025 0.739092 0.735398 4.60799 4.59572 8.93586 8.95737
17.1125 0.749685 0.745727 4.63114 4.6195 8.92745 8.9482
17.1225 0.760275 0.756015 4.65438 4.64348 8.91252 8.93232
17.1325 0.772209 0.767654 4.67871 4.66854 8.89257 8.9114
17.1425 0.786681 0.781855 4.70501 4.69562 8.86898 8.88673
17.1525 0.804727 0.799653 4.73398 4.72536 8.84305 8.85964
17.1625 0.827184 0.821895 4.76616 4.7583 8.81591 8.83124
17.1725 0.854773 0.84932 4.80202 4.79489 8.78864 8.80263
17.1825 0.888172 0.882617 4.84206 4.83561 8.7623 8.77493
17.1925 0.92809 0.922496 4.88683 4.88102 8.73805 8.74931
17.2025 0.97535 0.96979 4.93709 4.93185 8.71727 8.72713
17.2125 1.03087 1.02542 4.99379 4.98904 8.70148 8.70993
17.2225 1.09551 1.09026 5.0579 5.05357 8.69213 8.69922
17.2325 1.16985 1.16493 5.13039 5.12622 8.69008 8.69634
17.2425 1.25418 1.24967 5.21178 5.20756 8.69627 8.70244
17.2525 1.34846 1.34441 5.30225 5.29795 8.71196 8.71801
17.2625 1.45245 1.44891 5.40195 5.39766 8.73813 8.74356
17.2725 1.56572 1.56275 5.51107 5.5068 8.77515 8.7796
17.2825 1.68776 1.68539 5.62975 5.62543 8.82302 8.8266
17.2925 1.81787 1.81612 5.75793 5.75349 8.88179 8.88489
17.3025 1.95519 1.95406 5.89531 5.89079 8.95167 8.95451
17.3125 2.09866 2.09814 6.04145 6.03693 9.03285 9.0353
17.3225 2.24708 2.24712 6.19575 6.19134 9.12516 9.12696
17.3325 2.39905 2.3996 6.35745 6.35321 9.22802 9.22908
17.3425 2.55319 2.55418 6.52567 6.5217 9.34076 9.34121
17.3525 2.70824 2.70958 6.6996 6.69601 9.46295 9.46297
17.3625 2.86322 2.86482 6.87859 6.87552 9.59452 9.59414
17.3725 3.01743 3.01917 7.06217 7.05978 9.73558 9.73469
17.3825 3.17028 3.17205 7.2499 7.24832 9.88619 9.8847
17.3925 3.32115 3.32285 7.44118 7.44057 10.0462 10.0442
17.4025 3.46938 3.47088 7.63523 7.63573 10.2154 10.2129
17.4125 3.61426 3.61552 7.83115 7.83288 10.3934 10.3905
17.4225 3.75568 3.75582 8.02799 8.03119 10.5801 10.5768
17.4325 3.89726 3.89532 8.22496 8.22957 10.7752 10.7714
17.4425 4.03646 4.03286 8.42179 8.42649 10.9786 10.9746
17.4525 4.1677 4.1628 8.61822 8.62345 11.1896 11.1854
17.4625 4.29269 4.28864 8.81306 8.81907 11.4082 11.4038
17.4725 4.41413 4.4101 9.00603 9.01273 11.634 11.6299
17.4825 4.53113 4.52481 9.19743 9.20447 11.867 11.8633
17.4925 4.64237 4.63514 9.38732 9.39434 12.1073 12.104
17.5025 4.74819 4.74166 9.57518 9.58244 12.3548 12.3519
17.5125 4.85028 4.84356 9.76085 9.7689 12.6094 12.6069
17.5225 4.94927 4.94178 9.94463 9.95354 12.8705 12.8685
17.5325 5.04444 5.0363 10.1266 10.136 13.1378 13.1364
17.5425 5.13561 5.12727 10.3063 10.316 13.4104 13.4098
17.5525 5.22348 5.21485 10.4831 10.4933 13.6877 13.6879
17.5625 5.30813 5.299 10.6579 10.6697 13.9695 13.9701
17.5725 5.38852 5.37877 10.8333 10.8476 14.2556 14.2547
17.5825 5.46553 5.45531 11.0076 11.0208 14.5454 14.5434
17.5925 5.54013 5.53073 11.1776 11.1892 14.8383 14.8367
17.6025 5.61208 5.60246 11.342 11.3548 15.1339 15.1345
17.6125 5.68102 5.67086 11.5024 11.5179 15.4328 15.4346
17.6225 5.7468 5.73662 11.6604 11.6769 15.7348 15.7374
17.6325 5.8093 5.79927 11.8158 11.8311 16.0393 16.0428
17.6425 5.86845 5.85872 11.9668 11.9812 16.345 16.35
17.6525 5.92424 5.91444 12.1121 12.1271 16.6517 16.6587
17.6625 5.97666 5.96671 12.2519 12.2681 16.9595 16.9684
17.6725 6.02554 6.01568 12.3872 12.4038 17.2683 17.2787
17.6825 6.07082 6.06109 12.5183 12.5346 17.5774 17.5892
17.6925 6.11261 6.10301 12.6445 12.6603 17.8861 17.8997
17.7025 6.151 6.14156 12.765 12.7806 18.1938 18.2098
17.7125 6.18585 6.17652 12.8797 12.8954 18.5004 18.5187
17.7225 6.21701 6.20775 12.9889 13.0048 18.8054 18.8258
17.7325 6.24454 6.23543 13.093 13.1086 19.1084 19.1308
17.7425 6.26878 6.25993 13.192 13.2071 19.409 19.4336
17.7525 6.29023 6.28162 13.2862 13.3008 19.707 19.734
17.7625 6.30921 6.30078 13.3756 13.39 20.0022 20.0319
17.7725 6.32569 6.31743 13.4605 13.4747 20.2943 20.3264
17.7825 6.33929 6.33127 13.5408 13.5545 20.5824 20.6169
17.7925 6.34955 6.34179 13.6161 13.6292 20.8653 20.9022
17.8025 6.35596 6.34846 13.6856 13.6982 21.1419 21.1813
17.8125 6.35798 6.35076 13.7488 13.7609 21.411 21.4531
17.8225 6.35514 6.3482 13.8054 13.8171 21.6718 21.7164
17.8325 6.34702 6.34039 13.8551 13.8663 21.9232 21.9702
17.8425 6.33329 6.32699 13.8975 13.9082 22.1643 22.2137
17.8525 6.31358 6.30765 13.9322 13.9424 22.3941 22.4458
17.8625 6.28758 6.28203 13.9588 13.9685 22.6115 22.6656
17.8725 6.25516 6.24999 13.977 13.9864 22.8158 22.8723
17.8825 6.21669 6.21189 13.9872 13.9961 23.0069 23.0656
17.8925 6.17335 6.16875 13.9902 13.9987 23.185 23.2459
17.9025 6.12673 6.1222 13.9874 13.9955 23.3511 23.414
17.9125 6.07863 6.07421 13.9804 13.9882 23.5064 23.5713
17.9225 6.03077 6.0265 13.9708 13.9783 23.6519 23.7188
17.9325 5.98461 5.98048 13.96 13.9671 23.7886 23.8573
17.9425 5.94113 5.93713 13.9486 13.9554 23.9168 23.9873
17.9525 5.90078 5.89693 13.9372 13.9435 24.0364 24.1086
17.9625 5.86366 5.85996 13.9257 13.9316 24.1471 24.2209
17.9725 5.82978 5.82615 13.9141 13.9195 24.2483 24.3236
17.9825 5.79915 5.79554 13.9026 13.9071 24.3397 24.4165
17.9925 5.77178 5.76828 13.8906 13.8948 24.4218 24.4989
18.0025 5.74779 5.74436 13.8781 13.8828 24.4939 24.5707
18.0125 5.72734 5.72396 13.8655 13.8704 24.5555 24.6322
18.0225 5.71028 5.70708 13.8535 13.8578 24.606 24.6833
18.0325 5.69658 5.69364 13.8421 13.8453 24.6453 24.7236
18.0425 5.68636 5.68362 13.8307 13.8329 24.6739 24.7529
18.0525 5.67975 5.67712 13.8188 13.8206 24.692 24.7712
18.0625 5.67688 5.67436 13.8072 13.8092 24.6996 24.7787
18.0725 5.67799 5.67563 13.7969 13.7991 24.6968 24.7756
18.0825 5.68328 5.68115 13.7889 13.7907 24.6837 24.7625
18.0925 5.69278 5.69093 13.7831 13.7842 24.6605 24.7396
18.1025 5.70628 5.70474 13.779 13.7798 24.6277 24.7069
18.1125 5.72341 5.72221 13.7766 13.7774 24.5856 24.6644
18.1225 5.74369 5.74285 13.776 13.7768 24.5341 24.6121
18.1325 5.76647 5.76602 13.777 13.7776 24.473 24.5502
18.1425 5.79088 5.79083 13.779 13.7793 24.402 24.4786
18.1525 5.81573 5.81608 13.7808 13.781 24.3208 24.3969
18.1625 5.83951 5.84025 13.7813 13.7816 24.2291 24.3043
18.1725 5.86059 5.86168 13.7793 13.7798 24.126 24.1987
18.1825 5.87763 5.87897 13.7736 13.7746 24.0109 24.081
18.1925 5.88976 5.89133 13.7636 13.7649 23.8836 23.9514
18.2025 5.89664 5.89843 13.7492 13.751 23.7447 23.81
18.2125 5.89863 5.90057 13.7307 13.7331 23.5955 23.6581
18.2225 5.8964 5.89843 13.7089 13.712 23.4376 23.4971
18.2325 5.89081 5.89291 13.6847 13.6886 23.2726 23.3289
18.2425 5.88292 5.88511 13.6589 13.6624 23.1021 23.1554
18.2525 5.87368 5.87623 13.6322 13.6347 22.9278 22.9788
18.2625 5.86406 5.86684 13.6057 13.6081 22.7514 22.7996
18.2725 5.85522 5.85806 13.5801 13.582 22.5747 22.62
18.2825 5.84787 5.85089 13.5559 13.5571 22.3993 22.4418
18.2925 5.84286 5.84615 13.5338 13.5346 22.2266 22.2661
18.3025 5.84134 5.84481 13.5144 13.5147 22.0583 22.095
18.3125 5.84443 5.84769 13.4972 13.498 21.8958 21.9299
18.3225 5.85263 5.85548 13.4823 13.4853 21.7406 21.7719
18.3325 5.86596 5.86863 13.4716 13.4765 21.5936 21.622
18.3425 5.88456 5.88728 13.466 13.4714 21.4554 21.4811
18.3525 5.90839 5.91116 13.4647 13.4697 21.3261 21.3497
18.3625 5.93697 5.93982 13.4663 13.4713 21.2061 21.2278
18.3725 5.96955 5.97252 13.4699 13.4757 21.0953 21.1152
18.3825 6.00521 6.00834 13.4753 13.482 20.9937 21.0116
18.3925 6.04269 6.04606 13.4823 13.4891 20.9005 20.9166
18.4025 6.08052 6.08423 13.4894 13.496 20.8147 20.8291
18.4125 6.1172 6.12128 13.4951 13.5015 20.735 20.7484
18.4225 6.15121 6.1557 13.4983 13.5045 20.6602 20.6735
18.4325 6.18122 6.1861 13.4981 13.504 20.5896 20.6034
18.4425 6.20595 6.21121 13.4937 13.4991 20.5232 20.5371
18.4525 6.22414 6.22974 13.4841 13.4891 20.4601 20.4735
18.4625 6.23466 6.24061 13.4685 13.4734 20.3992 20.4119
18.4725 6.23677 6.24298 13.4463 13.4513 20.3395 20.3519
18.4825 6.23014 6.23657 13.4176 13.4226 20.281 20.2935
18.4925 6.21483 6.22145 13.3828 13.3876 20.2239 20.2367
18.5025 6.19117 6.19792 13.3423 13.3469 20.169 20.1818
18.5125 6.15964 6.16644 13.2963 13.301 20.1166 20.1292
18.5225 6.12077 6.12757 13.2456 13.2503 20.067 20.0794
18.5325 6.07507 6.0816 13.1907 13.1954 20.0204 20.0328
18.5425 6.02299 6.02827 13.132 13.1368 19.977 19.9898
18.5525 5.96521 5.96956 13.0697 13.0745 19.9373 19.9503
18.5625 5.90199 5.9052 13.0036 13.0085 19.9011 19.9144
18.5725 5.83346 5.83551 12.9339 12.9391 19.8682 19.8816
18.5825 5.75896 5.76073 12.8604 12.8657 19.838 19.8517
18.5925 5.67909 5.68102 12.7828 12.7882 19.8099 19.824
18.6025 5.59512 5.59656 12.7009 12.7064 19.7835 19.7981
18.6125 5.50722 5.50787 12.6148 12.6205 19.7586 19.7737
18.6225 5.41552 5.41578 12.5247 12.5305 19.7349 19.7505
18.6325 5.32111 5.32114 12.4311 12.437 19.7124 19.7285
18.6425 5.22525 5.22484 12.3344 12.3403 19.691 19.7078
18.6525 5.1286 5.12839 12.2351 12.2408 19.6705 19.688
18.6625 5.03151 5.03203 12.1335 12.1388 19.6507 19.669
18.6725 4.9349 4.93595 12.0302 12.0353 19.6314 19.6505
18.6825 4.84003 4.84174 11.9259 11.9307 19.6127 19.6335
18.6925 4.74781 4.75033 11.8221 11.8258 19.5952 19.6182
18.7025 4.65957 4.66317 11.7198 11.7225 19.5795 19.6043
18.7125 4.57691 4.58138 11.6199 11.6216 19.5661 19.593
18.7225 4.50077 4.50602 11.5231 11.5242 19.5555 19.5844
18.7325 4.43171 4.4375 11.4305 11.4308 19.5476 19.5786
18.7425 4.36978 4.37593 11.3426 11.3419 19.5421 19.575
18.7525 4.3142 4.32069 11.2589 11.2569 19.5379 19.5726
18.7625 4.2638 4.27079 11.1778 11.1746 19.5334 19.5701
18.7725 4.21723 4.22468 11.0981 11.0941 19.527 19.5655
18.7825 4.17307 4.18081 11.0193 11.0144 19.5169 19.5571
18.7925 4.12988 4.138 10.9404 10.9345 19.5015 19.5433
18.8025 4.08634 4.09487 10.8605 10.8534 19.4793 19.5226
18.8125 4.0413 4.05021 10.7785 10.7704 19.4488 19.4934
18.8225 3.99381 4.00311 10.6937 10.6847 19.4089 19.4548
18.8325 3.9432 3.953 10.606 10.5959 19.3589 19.406
18.8425 3.88928 3.89961 10.5157 10.5044 19.2983 19.3464
18.8525 3.83241 3.8432 10.423 10.4107 19.2274 19.2763
18.8625 3.77327 3.78457 10.3288 10.3154 19.1466 19.1961
18.8725 3.7128 3.72464 10.2343 10.2199 19.0568 19.1068
18.8825 3.65218 3.66454 10.1407 10.1253 18.9591 19.0094
18.8925 3.5925 3.60536 10.0491 10.0328 18.8545 18.9049
18.9025 3.53453 3.54791 9.96029 9.94293 18.7437 18.7942
18.9125 3.47883 3.49263 9.87432 9.85633 18.6273 18.6777
18.9225 3.42595 3.43997 9.79119 9.77346 18.5057 18.556
18.9325 3.37639 3.3906 9.71205 9.69491 18.3799 18.4298
18.9425 3.33101 3.34548 9.63835 9.62135 18.2508 18.3003
18.9525 3.29094 3.30571 9.57101 9.55373 18.1195 18.1684
18.9625 3.25723 3.27215 9.51051 9.49328 17.9871 18.0348
18.9725 3.23067 3.24549 9.45727 9.44062 17.8549 17.9013
18.9825 3.21178 3.22662 9.41181 9.39569 17.7236 17.7686
18.9925 3.20077 3.2156 9.37465 9.35908 17.5939 17.6372
19.0025 3.19767 3.21244 9.34579 9.33069 17.4661 17.5076
19.0125 3.20224 3.21703 9.32476 9.31004 17.3404 17.38
19.0225 3.214 3.2288 9.31101 9.29682 17.2166 17.2544
19.0325 3.23246 3.24726 9.30412 9.29065 17.0951 17.1309
19.0425 3.25701 3.27184 9.30378 9.29098 16.9759 17.0095
19.0525 3.28698 3.30191 9.30944 9.29726 16.859 16.8904
19.0625 3.32144 3.33645 9.3201 9.30855 16.744 16.773
19.0725 3.35901 3.37407 9.33434 9.32351 16.6302 16.6569
19.0825 3.39806 3.41316 9.35064 9.34062 16.5166 16.541
19.0925 3.43713 3.45229 9.36765 9.35846 16.4027 16.4247
19.1025 3.47519 3.49036 9.38437 9.37599 16.288 16.3075
19.1125 3.51155 3.52672 9.40012 9.39254 16.1726 16.1896
19.1225 3.54596 3.56113 9.4146 9.40787 16.0569 16.0715
19.1325 3.57851 3.59371 9.42806 9.42206 15.9412 15.9539
19.1425 3.6094 3.6247 9.44108 9.43535 15.8256 15.8379
19.1525 3.63895 3.65436 9.45365 9.44788 15.7116 15.7242
19.1625 3.66727 3.68275 9.46543 9.45984 15.6007 15.6131
19.1725 3.69431 3.70981 9.47621 9.47119 15.4938 15.5049
19.1825 3.71985 3.73536 9.48604 9.48163 15.3907 15.4002
19.1925 3.74366 3.75921 9.49493 9.4909 15.2908 15.2993
19.2025 3.76554 3.78115 9.50265 9.49878 15.1944 15.2026
19.2125 3.78537 3.80102 9.50884 9.50511 15.1021 15.1102
19.2225 3.80305 3.81874 9.51323 9.50979 15.0148 15.0223
19.2325 3.81857 3.83427 9.51584 9.51276 14.9326 14.9393
19.2425 3.83191 3.84764 9.51677 9.51399 14.8558 14.8615
19.2525 3.84308 3.85885 9.5161 9.51346 14.7842 14.7895
19.2625 3.85207 3.86788 9.51374 9.51116 14.7182 14.7234
19.2725 3.85883 3.87469 9.50957 9.50705 14.6583 14.6633
19.2825 3.8633 3.87921 9.5035 9.50109 14.6047 14.6094
19.2925 3.86542 3.88137 9.49556 9.49322 14.5575 14.5618
19.3025 3.86515 3.88115 9.48578 9.48345 14.5167 14.5207
19.3125 3.86251 3.87857 9.47425 9.47184 14.4823 14.4862
19.3225 3.8576 3.87372 9.46104 9.45852 14.4545 14.4585
19.3325 3.8505 3.86668 9.44629 9.44363 14.4336 14.4377
19.3425 3.84113 3.85737 9.42998 9.4272 14.4195 14.4236
19.3525 3.82914 3.84545 9.41193 9.40897 14.4117 14.4157
19.3625 3.81382 3.83018 9.39152 9.38829 14.4092 14.4134
19.3725 3.79425 3.81065 9.36782 9.36422 14.4109 14.4156
19.3825 3.76962 3.78601 9.33993 9.33602 14.4159 14.4211
19.3925 3.73935 3.7557 9.30733 9.30319 14.4233 14.4289
19.4025 3.70308 3.71933 9.26971 9.26534 14.4323 14.4384
19.4125 3.66044 3.67657 9.22676 9.22209 14.442 14.4486
19.4225 3.61117 3.62713 9.17808 9.1731 14.4515 14.4588
19.4325 3.55513 3.57087 9.12339 9.11814 14.46 14.468
19.4425 3.49235 3.50753 9.0626 9.05714 14.4669 14.4756
19.4525 3.42248 3.43657 8.99569 8.99028 14.4716 14.481
19.4625 3.34562 3.35991 8.9225 8.91723 14.474 14.4837
19.4725 3.26318 3.27733 8.84329 8.83818 14.4735 14.4832
19.4825 3.17608 3.18949 8.75838 8.75341 14.4694 14.4792
19.4925 3.08449 3.09734 8.66803 8.66309 14.4614 14.4716
19.5025 2.98905 3.00166 8.57265 8.56774 14.4494 14.4604
19.5125 2.89111 2.90394 8.4727 8.46762 14.4338 14.4467
19.5225 2.79149 2.80521 8.36879 8.36311 14.4146 14.4292
19.5325 2.69064 2.70472 8.26134 8.25519 14.3916 14.4076
19.5425 2.58934 2.60406 8.15042 8.14373 14.3645 14.3823
19.5525 2.4882 2.50355 8.03653 8.02926 14.3334 14.353
19.5625 2.38801 2.40391 7.92043 7.91258 14.2985 14.3199
19.5725 2.28974 2.30633 7.80293 7.79432 14.2601 14.2832
19.5825 2.19409 2.21131 7.68469 7.67525 14.2184 14.2431
19.5925 2.10146 2.11931 7.56608 7.5558 14.1731 14.1993
19.6025 2.01204 2.03055 7.4474 7.43623 14.1239 14.1517
19.6125 1.92595 1.9451 7.329 7.31689 14.0705 14.0999
19.6225 1.84335 1.86316 7.21128 7.19816 14.0129 14.0437
19.6325 1.7644 1.78507 7.09463 7.08073 13.9507 13.9829
19.6425 1.68923 1.71099 6.97925 6.96513 13.8839 13.917
19.6525 1.61803 1.64047 6.86554 6.85109 13.8123 13.8463
19.6625 1.55099 1.57381 6.75419 6.7389 13.7355 13.7703
19.6725 1.48745 1.51052 6.64516 6.62877 13.6531 13.6887
19.6825 1.42683 1.45046 6.538 6.52071 13.5648 13.6011
19.6925 1.36906 1.39328 6.43259 6.41473 13.4703 13.5071
19.7025 1.3139 1.33845 6.32912 6.31076 13.3694 13.4063
19.7125 1.26081 1.2857 6.22772 6.20872 13.2615 13.2985
19.7225 1.20934 1.23466 6.12831 6.10859 13.1465 13.1835
19.7325 1.15935 1.18511 6.03079 6.01051 13.0244 13.0614
19.7425 1.11084 1.13696 5.93536 5.91471 12.8955 12.9324
19.7525 1.0638 1.09026 5.84245 5.82149 12.7602 12.7968
19.7625 1.01831 1.04514 5.7525 5.73121 12.619 12.655
19.7725 0.974459 1.00164 5.66575 5.64425 12.4722 12.5071
19.7825 0.93216 0.959584 5.58219 5.56069 12.3202 12.3539
19.7925 0.891019 0.918712 5.50157 5.47981 12.1631 12.1955
19.8025 0.850424 0.878686 5.42329 5.39969 12.0008 12.0321
19.8125 0.80969 0.838705 5.34606 5.32136 11.8328 11.8631
19.8225 0.768226 0.796952 5.26818 5.24482 11.6585 11.6872
19.8325 0.724989 0.75347 5.18977 5.16819 11.4778 11.5046
19.8425 0.679197 0.707954 5.1116 5.09062 11.2904 11.3152
19.8525 0.630995 0.659986 5.03354 5.01254 11.0964 11.1192
19.8625 0.581157 0.61024 4.9547 4.93389 10.8967 10.9176
19.8725 0.530368 0.559485 4.87478 4.85489 10.6925 10.7114
19.8825 0.479329 0.508433 4.7947 4.77627 10.4852 10.5018
19.8925 0.42913 0.458263 4.71589 4.69858 10.2762 10.2903
19.9025 0.38103 0.41035 4.63963 4.62257 10.0661 10.0786
19.9125 0.336506 0.365886 4.56657 4.54932 9.85615 9.86871
19.9225 0.297058 0.325985 4.49678 4.4797 9.64882 9.66176
19.9325 0.263123 0.291654 4.43079 4.41448 9.44646 9.45876
19.9425 0.235302 0.263812 4.3698 4.35429 9.25038 9.26101
19.9525 0.214762 0.243403 4.31502 4.29982 9.06108 9.07007
19.9625 0.202609 0.231353 4.26718 4.25188 8.87923 8.88747
19.9725 0.199531 0.228424 4.22656 4.21115 8.70614 8.71433
19.9825 0.205782 0.234911 4.19338 4.17806 8.54327 8.55128
19.9925 0.22135 0.250781 4.16796 4.15277 8.3915 8.39871
20.0025 0.245902 0.275674 4.15043 4.13514 8.25082 8.25691
20.0125 0.278649 0.308832 4.14041 4.1248 8.1206 8.12587
20.0225 0.318397 0.349064 4.13706 4.12104 8.00013 8.00509
20.0325 0.36366 0.39484 4.13927 4.1229 7.88881 7.89365
20.0425 0.412674 0.444379 4.14592 4.12922 7.7859 7.79041
20.0525 0.463626 0.495888 4.1559 4.13886 7.69037 7.69425
20.0625 0.514928 0.547746 4.16821 4.15079 7.60106 7.60428
20.0725 0.565245 0.598571 4.18199 4.1642 7.51706 7.51984
20.0825 0.613492 0.647281 4.19664 4.17856 7.43792 7.44046
20.0925 0.658825 0.693033 4.21181 4.19353 7.36357 7.36584
20.1025 0.70058 0.735145 4.22726 4.20884 7.29399 7.29584
20.1125 0.738204 0.773051 4.24278 4.22428 7.22909 7.2304
20.1225 0.771318 0.806375 4.25824 4.23975 7.16884 7.16964
20.1325 0.799779 0.834973 4.27367 4.25529 7.11346 7.11387
20.1425 0.823646 0.858901 4.28923 4.27104 7.06342 7.06348
20.1525 0.842997 0.878235 4.30501 4.28711 7.01919 7.01885
20.1625 0.857784 0.892932 4.3209 4.30335 6.981 6.98018
20.1725 0.867905 0.902892 4.33662 4.31952 6.94893 6.94761
20.1825 0.873504 0.908261 4.35207 4.33545 6.9232 6.92145
20.1925 0.875234 0.909686 4.36741 4.35125 6.90453 6.90245
20.2025 0.874057 0.908118 4.38306 4.36754 6.89392 6.89157
20.2125 0.870826 0.904432 4.39942 4.38471 6.89221 6.88955
20.2225 0.865971 0.899083 4.41653 4.40263 6.89969 6.89674
20.2325 0.859527 0.892118 4.43394 4.42077 6.91614 6.91298
20.2425 0.851361 0.883407 4.45087 4.43841 6.94113 6.93787
20.2525 0.84135 0.872841 4.46658 4.45485 6.97417 6.97085
20.2625 0.829491 0.860431 4.48054 4.46951 7.01481 7.01155
20.2725 0.815951 0.846358 4.49241 4.48195 7.0627 7.05967
20.2825 0.801048 0.83095 4.502 4.49199 7.11762 7.11495
20.2925 0.78526 0.814699 4.50928 4.49962 7.17947 7.17726
20.3025 0.769286 0.798312 4.51453 4.50512 7.24829 7.24661
20.3125 0.753989 0.782663 4.51831 4.50902 7.3242 7.32317
20.3225 0.740248 0.768644 4.52128 4.51195 7.40731 7.40705
20.3325 0.728804 0.757 4.52401 4.51448 7.49757 7.49821
20.3425 0.720206 0.748282 4.52698 4.51712 7.59476 7.59639
20.3525 0.714883 0.742918 4.53067 4.52035 7.6985 7.7012
20.3625 0.71323 0.741302 4.53562 4.52471 7.80838 7.81222
20.3725 0.715672 0.743855 4.54248 4.53087 7.92401 7.92904
20.3825 0.722625 0.750983 4.55198 4.53958 8.04511 8.0514
20.3925 0.734417 0.762962 4.56458 4.55149 8.17198 8.17885
20.4025 0.751008 0.779763 4.58065 4.56712 8.30412 8.3106
20.4125 0.771942 0.801006 4.60044 4.58615 8.43978 8.44766
20.4225 0.796457 0.825981 4.62391 4.60852 8.57711 8.58703
20.4325 0.823856 0.853756 4.65057 4.63416 8.71526 8.72774
20.4425 0.853407 0.883648 4.67989 4.6625 8.85393 8.86886
20.4525 0.884306 0.914897 4.71166 4.69354 8.99248 9.00898
20.4625 0.916027 0.946943 4.74583 4.72702 9.1298 9.1475
20.4725 0.948168 0.97934 4.78243 4.76293 9.26473 9.28383
20.4825 0.980458 1.01183 4.82149 4.80137 9.39662 9.41747
20.4925 1.0128 1.04434 4.86311 4.84252 9.52538 9.54801
20.5025 1.04531 1.07692 4.90757 4.88669 9.65116 9.67516
20.5125 1.07821 1.10983 4.95527 4.93423 9.77395 9.79889
20.5225 1.11185 1.14341 5.0066 4.98552 9.89361 9.91934
20.5325 1.14658 1.17801 5.06186 5.04087 10.01 10.0366
20.5425 1.18274 1.21398 5.1213 5.10052 10.1234 10.1509
20.5525 1.22064 1.25164 5.18502 5.1646 10.2338 10.262
20.5625 1.26056 1.29126 5.25308 5.23313 10.3415 10.3701
20.5725 1.30273 1.33309 5.3254 5.30604 10.4464 10.4752
20.5825 1.34733 1.37732 5.40183 5.38315 10.5484 10.5773
20.5925 1.39451 1.42409 5.48215 5.46423 10.6474 10.6764
20.6025 1.44445 1.47361 5.5661 5.549 10.7435 10.7724
20.6125 1.49735 1.52609 5.65348 5.63725 10.8368 10.8656
20.6225 1.55343 1.58176 5.7441 5.72878 10.9275 10.9562
20.6325 1.61258 1.64079 5.83849 5.82349 11.0158 11.0441
20.6425 1.67471 1.70302 5.93645 5.92111 11.1016 11.1297
20.6525 1.73981 1.76786 6.03614 6.02127 11.1849 11.2124
20.6625 1.80723 1.83493 6.13576 6.12185 11.2654 11.2924
20.6725 1.87599 1.90349 6.23483 6.22255 11.3428 11.3688
20.6825 1.94559 1.9729 6.33348 6.32264 11.4168 11.4417
20.6925 2.01576 2.04289 6.4314 6.42101 11.4873 11.5113
20.7025 2.08637 2.11339 6.52789 6.51785 11.5547 11.5779
20.7125 2.1577 2.18466 6.62262 6.61342 11.6195 11.6419
20.7225 2.23026 2.25715 6.71599 6.70786 11.6828 11.7043
20.7325 2.30451 2.33167 6.80886 6.8016 11.7453 11.766
20.7425 2.38107 2.41077 6.90187 6.89452 11.808 11.8278
20.7525 2.45991 2.49184 6.99537 6.98756 11.8712 11.8907
20.7625 2.54121 2.5749 7.08945 7.08168 11.9356 11.9547
20.7725 2.6262 2.66083 7.18427 7.17647 12.0018 12.0205
20.7825 2.71474 2.74867 7.28029 7.27211 12.0702 12.0883
20.7925 2.8045 2.83854 7.37768 7.36903 12.1408 12.1584
20.8025 2.89505 2.92912 7.47644 7.46744 12.2137 12.2309
20.8125 2.9877 3.02041 7.5766 7.56798 12.2892 12.3059
20.8225 3.08268 3.11391 7.6782 7.67003 12.368 12.3841
20.8325 3.179 3.20907 7.78191 7.77405 12.4504 12.4661
20.8425 3.27652 3.30562 7.88857 7.88096 12.5368 12.552
20.8525 3.3758 3.40384 7.99832 7.9907 12.6273 12.6421
20.8625 3.47664 3.50338 8.1108 8.103 12.7222 12.7367
20.8725 3.5782 3.60373 8.22578 8.2182 12.8212 12.8354
20.8825 3.68007 3.70449 8.34339 8.33614 12.9246 12.9384
20.8925 3.78232 3.80566 8.46392 8.45673 13.0324 13.0459
20.9025 3.88488 3.90711 8.58754 8.58021 13.1449 13.158
20.9125 3.98735 4.00857 8.71401 8.7067 13.2621 13.275
20.9225 4.08937 4.10977 8.84301 8.83597 13.384 13.3967
20.9325 4.19047 4.21004 8.97428 8.96757 13.5102 13.5227
20.9425 4.28985 4.30856 9.10735 9.10086 13.6403 13.6525
20.9525 4.38651 4.40445 9.24144 9.23564 13.7734 13.7853
20.9625 4.4795 4.49651 9.37568 9.37133 13.9088 13.9202
20.9725 4.5679 4.5841 9.50959 9.50617 14.046 14.057
20.9825 4.65081 4.66674 9.64247 9.63915 14.1842 14.1949
20.9925 4.72749 4.74322 9.77311 9.76995 14.3228 14.3332
21.0025 4.79737 4.81275 9.90034 9.89795 14.4612 14.4714
21.0125 4.85993 4.87502 10.0235 10.0222 14.5993 14.6091
21.0225 4.91483 4.92959 10.1424 10.1421 14.7367 14.7462
21.0325 4.96209 4.97647 10.257 10.2575 14.8733 14.8825
21.0425 5.00205 5.01597 10.3671 10.3684 15.0095 15.0183
21.0525 5.03524 5.04865 10.4724 10.4746 15.1455 15.1542
21.0625 5.06224 5.07511 10.5729 10.5764 15.282 15.2904
21.0725 5.08378 5.09605 10.669 10.6738 15.4193 15.4274
21.0825 5.10064 5.1123 10.7611 10.7671 15.5581 15.5659
21.0925 5.11369 5.12474 10.8493 10.8563 15.6988 15.7064
21.1025 5.12389 5.13436 10.934 10.942 15.842 15.8495
21.1125 5.13234 5.14221 11.0156 11.0247 15.9883 15.9959
21.1225 5.14018 5.14947 11.0946 11.1048 16.1387 16.1462
21.1325 5.14852 5.15769 11.1719 11.183 16.2937 16.3013
21.1425 5.15847 5.1678 11.2481 11.2598 16.454 16.4618
21.1525 5.17112 5.18035 11.324 11.3361 16.6201 16.6289
21.1625 5.18746 5.19671 11.3998 11.4119 16.7927 16.8033
21.1725 5.20791 5.21733 11.4759 11.4879 16.972 16.9841
21.1825 5.23241 5.2418 11.5525 11.5645 17.1575 17.1714
21.1925 5.2606 5.2699 11.6289 11.6407 17.3485 17.3643
21.2025 5.29171 5.30117 11.7044 11.7156 17.544 17.562
21.2125 5.32479 5.3344 11.7781 11.7888 17.7428 17.7631
21.2225 5.35896 5.36862 11.849 11.8594 17.9443 17.9662
21.2325 5.39321 5.40296 11.9164 11.9266 18.1471 18.1701
21.2425 5.42654 5.43648 11.9802 11.9899 18.3495 18.3738
21.2525 5.45821 5.46842 12.0401 12.049 18.5501 18.5764
21.2625 5.48766 5.49816 12.0955 12.1036 18.7482 18.7769
21.2725 5.51439 5.52516 12.1463 12.1536 18.9434 18.9744
21.2825 5.53794 5.54896 12.1924 12.199 19.1352 19.168
21.2925 5.55795 5.56923 12.234 12.2399 19.3228 19.3572
21.3025 5.57425 5.58578 12.2714 12.2765 19.5052 19.5416
21.3125 5.58685 5.59862 12.3049 12.3092 19.6822 19.7207
21.3225 5.59592 5.60786 12.3349 12.3385 19.8538 19.8944
21.3325 5.60181 5.61378 12.3621 12.3651 20.02 20.0625
21.3425 5.60493 5.617 12.387 12.3895 20.1809 20.2251
21.3525 5.60557 5.61778 12.4103 12.4123 20.3363 20.3821
21.3625 5.60388 5.61623 12.4324 12.4339 20.486 20.5334
21.3725 5.59986 5.61233 12.4534 12.4544 20.6294 20.6786
21.3825 5.59336 5.60597 12.473 12.4738 20.7663 20.817
21.3925 5.58423 5.59697 12.4914 12.4919 20.8962 20.9483
21.4025 5.57239 5.58524 12.5084 12.5087 21.0186 21.0718
21.4125 5.5578 5.57076 12.524 12.5242 21.133 21.1874
21.4225 5.54043 5.55351 12.5379 12.5381 21.2391 21.2945
21.4325 5.52016 5.53333 12.55 12.5502 21.3364 21.3928
21.4425 5.49675 5.51002 12.5597 12.56 21.4244 21.4816
21.4525 5.46998 5.48334 12.5666 12.5671 21.5026 21.5604
21.4625 5.43962 5.45307 12.5701 12.5709 21.5703 21.6286
21.4725 5.40553 5.41906 12.5698 12.571 21.6271 21.6859
21.4825 5.36764 5.38126 12.5652 12.5667 21.6726 21.7318
21.4925 5.32601 5.3397 12.5558 12.5578 21.7066 21.766
21.5025 5.28088 5.29455 12.5414 12.5438 21.729 21.7885
21.5125 5.23256 5.24609 12.5216 12.5246 21.7396 21.7992
21.5225 5.18139 5.19472 12.4965 12.4999 21.7386 21.7982
21.5325 5.12776 5.14092 12.4657 12.4697 21.7261 21.7856
21.5425 5.07209 5.08509 12.4292 12.4336 21.7022 21.7616
21.5525 5.01471 5.0276 12.3868 12.3916 21.6669 21.7262
21.5625 4.95595 4.96878 12.3384 12.3435 21.6203 21.6795
21.5725 4.89617 4.90898 12.2838 12.2891 21.5626 21.6218
21.5825 4.83581 4.84866 12.2232 12.2286 21.4941 21.5531
21.5925 4.7755 4.78844 12.157 12.1626 21.4151 21.474
21.6025 4.71601 4.72914 12.086 12.0916 21.3264 21.3852
21.6125 4.65834 4.67177 12.0114 12.0166 21.229 21.2877
21.6225 4.6035 4.61733 11.9339 11.9385 21.124 21.1825
21.6325 4.55228 4.56658 11.8543 11.8585 21.0123 21.0707
21.6425 4.50518 4.52003 11.7736 11.7771 20.8948 20.9529
21.6525 4.46243 4.47754 11.6925 11.6952 20.772 20.83
21.6625 4.42421 4.43799 11.6115 11.614 20.6447 20.7022
21.6725 4.39036 4.40408 11.5311 11.5333 20.5136 20.5707
21.6825 4.36044 4.37534 11.4521 11.4538 20.3795 20.4361
21.6925 4.33614 4.35197 11.3752 11.3765 20.243 20.2984
21.7025 4.31796 4.33388 11.3008 11.3015 20.1048 20.1592
21.7125 4.30456 4.32087 11.2291 11.2293 19.9653 20.0186
21.7225 4.29507 4.31236 11.1601 11.1589 19.8245 19.8767
21.7325 4.28957 4.30822 11.0935 11.0887 19.6826 19.7344
21.7425 4.28771 4.30758 11.0302 11.0224 19.5396 19.591
21.7525 4.28919 4.30981 10.9708 10.9608 19.3961 19.4466
21.7625 4.29434 4.31611 10.9156 10.9028 19.2535 19.3032
21.7725 4.30358 4.32658 10.8656 10.85 19.1126 19.1615
21.7825 4.31763 4.34099 10.8199 10.8042 18.9742 19.0219
21.7925 4.33603 4.35941 10.7793 10.7653 18.8389 18.8851
21.8025 4.3576 4.38141 10.7459 10.7327 18.7065 18.7512
21.8125 4.38162 4.40608 10.7204 10.7065 18.5768 18.6199
21.8225 4.40766 4.43257 10.7014 10.6864 18.4495 18.4911
21.8325 4.43494 4.46008 10.6872 10.6719 18.3246 18.3647
21.8425 4.46232 4.48764 10.677 10.6627 18.2019 18.2403
21.8525 4.48874 4.51417 10.6711 10.658 18.0812 18.1174
21.8625 4.51302 4.5385 10.6693 10.6566 17.9617 17.9956
21.8725 4.53416 4.55969 10.6703 10.6577 17.8429 17.8746
21.8825 4.55169 4.57714 10.6728 10.6609 17.725 17.7545
21.8925 4.56546 4.59066 10.6762 10.6656 17.6083 17.6356
21.9025 4.5756 4.60044 10.6809 10.6719 17.4938 17.5185
21.9125 4.58246 4.60691 10.6873 10.6795 17.3822 17.4043
21.9225 4.58661 4.61065 10.6953 10.6886 17.2744 17.2939
21.9325 4.58873 4.61229 10.7047 10.6993 17.1715 17.1885
21.9425 4.58951 4.61252 10.7155 10.7117 17.0744 17.0891
21.9525 4.58956 4.61205 10.728 10.7257 16.9839 16.9968
21.9625 4.5894 4.61147 10.7426 10.7413 16.9003 16.9125
21.9725 4.58956 4.61122 10.759 10.7581 16.8247 16.837
21.9825 4.5903 4.61153 10.7761 10.7761 16.7585 16.7703
21.9925 4.59169 4.61247 10.7934 10.7943 16.7022 16.7128
22.0025 4.59377 4.6143 10.8105 10.8123 16.6556 16.665
22.0125 4.5971 4.61733 10.828 10.8308 16.6186 16.6271
22.0225 4.60274 4.62211 10.8462 10.8496 16.5916 16.5999
22.0325 4.61058 4.62964 10.8654 10.8687 16.5756 16.584
22.0425 4.6203 4.63951 10.8852 10.8885 16.5714 16.5797
22.0525 4.63227 4.65165 10.9054 10.909 16.5788 16.5868
22.0625 4.64649 4.66579 10.9257 10.9295 16.5975 16.6051
22.0725 4.66208 4.68126 10.9457 10.9495 16.6264 16.634
22.0825 4.67797 4.69727 10.9647 10.9682 16.6648 16.6726
22.0925 4.69345 4.71297 10.9818 10.985 16.7117 16.7201
22.1025 4.70787 4.7275 10.9964 10.9992 16.7665 16.7754
22.1125 4.72049 4.74021 11.0081 11.0105 16.8281 16.8375
22.1225 4.73082 4.75075 11.0169 11.0188 16.8959 16.9058
22.1325 4.73893 4.75913 11.0229 11.0242 16.9694 16.9801
22.1425 4.74525 4.76561 11.0268 11.0276 17.0488 17.06
22.1525 4.75029 4.77078 11.0295 11.0297 17.1343 17.1457
22.1625 4.75476 4.7753 11.0322 11.032 17.2258 17.2375
22.1725 4.75958 4.78015 11.0359 11.0353 17.3235 17.3356
22.1825 4.76534 4.7859 11.0417 11.0405 17.4274 17.4402
22.1925 4.77242 4.79308 11.0502 11.0484 17.5376 17.5511
22.2025 4.78105 4.80184 11.0617 11.0594 17.6537 17.6693
22.2125 4.79116 4.81213 11.0766 11.0734 17.7752 17.793
22.2225 4.80258 4.82391 11.095 11.0911 17.9013 17.921
22.2325 4.81518 4.8369 11.1165 11.1119 18.0314 18.0533
22.2425 4.82869 4.85084 11.1416 11.1363 18.1647 18.1888
22.2525 4.84292 4.86539 11.1709 11.1639 18.3007 18.3269
22.2625 4.85761 4.88046 11.2041 11.1944 18.4386 18.4671
22.2725 4.87244 4.8957 11.2398 11.2282 18.5778 18.6084
22.2825 4.88715 4.91044 11.2775 11.2664 18.7176 18.75
22.2925 4.90145 4.92434 11.3176 11.3076 18.8576 18.8911
22.3025 4.91488 4.9377 11.3602 11.35 18.997 19.0317
22.3125 4.92688 4.94978 11.4049 11.3943 19.1346 19.1707
22.3225 4.93712 4.95977 11.4509 11.4404 19.2698 19.3072
22.3325 4.94541 4.96773 11.4972 11.4871 19.402 19.4407
22.3425 4.95134 4.97333 11.5435 11.5341 19.5306 19.5704
22.3525 4.95459 4.97616 11.5899 11.5812 19.6552 19.6956
22.3625 4.95513 4.97626 11.6358 11.6277 19.775 19.816
22.3725 4.95295 4.97362 11.6805 11.673 19.8895 19.9313
22.3825 4.94798 4.96808 11.7235 11.7169 19.9984 20.0409
22.3925 4.94015 4.95964 11.7642 11.7587 20.1014 20.1443
22.4025 4.92935 4.94822 11.8022 11.7977 20.198 20.2413
22.4125 4.91541 4.93379 11.8366 11.8328 20.2878 20.3315
22.4225 4.89837 4.91637 11.867 11.8643 20.3701 20.4142
22.4325 4.87825 4.89557 11.8929 11.8913 20.4444 20.4888
22.4425 4.85486 4.87155 11.9136 11.9129 20.5104 20.5551
22.4525 4.828 4.84421 11.9283 11.9285 20.5675 20.6124
22.4625 4.79766 4.81335 11.9365 11.9376 20.6152 20.6603
22.4725 4.76386 4.77898 11.9375 11.9395 20.6531 20.6984
22.4825 4.72654 4.74112 11.9307 11.9335 20.6809 20.7264
22.4925 4.68583 4.69997 11.9159 11.9194 20.6981 20.7438
22.5025 4.64226 4.65599 11.8929 11.8969 20.7049 20.7509
22.5125 4.59652 4.60981 11.8617 11.8662 20.7016 20.7478
22.5225 4.54933 4.56231 11.823 11.8277 20.6885 20.735
22.5325 4.5016 4.51458 11.7773 11.7821 20.6664 20.7133
22.5425 4.45422 4.46741 11.7255 11.7298 20.6359 20.6833
22.5525 4.40806 4.42085 11.6683 11.6724 20.5976 20.6455
22.5625 4.36377 4.37573 11.6066 11.6106 20.5522 20.6005
22.5725 4.32122 4.3338 11.5415 11.545 20.5004 20.549
22.5825 4.2816 4.29502 11.4737 11.4765 20.4426 20.4916
22.5925 4.24621 4.2599 11.4039 11.4059 20.3791 20.4285
22.6025 4.21478 4.22879 11.3326 11.3339 20.3104 20.3602
22.6125 4.18702 4.20177 11.2602 11.261 20.2365 20.2864
22.6225 4.16315 4.17838 11.1873 11.1873 20.1576 20.2077
22.6325 4.14284 4.15859 11.1144 11.1134 20.0738 20.1239
22.6425 4.1256 4.14201 11.0416 11.0396 19.985 20.0352
22.6525 4.11117 4.12838 10.9692 10.9663 19.8915 19.9418
22.6625 4.09926 4.11722 10.8976 10.8939 19.7934 19.8436
22.6725 4.08919 4.10789 10.8271 10.8222 19.6906 19.7406
22.6825 4.08012 4.09986 10.7572 10.749 19.5827 19.633
22.6925 4.07097 4.09217 10.6878 10.6764 19.4691 19.52
22.7025 4.06074 4.08284 10.6188 10.6052 19.3494 19.4005
22.7125 4.04872 4.07171 10.5495 10.5333 19.2234 19.2746
22.7225 4.03399 4.05805 10.4798 10.4608 19.091 19.1423
22.7325 4.01613 4.04086 10.4089 10.3885 18.952 19.0029
22.7425 3.99534 4.02011 10.3359 10.3163 18.8064 18.8562
22.7525 3.97117 3.99585 10.2624 10.2443 18.655 18.7036
22.7625 3.94356 3.96849 10.1905 10.1727 18.4981 18.5453
