1.57758 255.427 2.84217e-14 -1.57758 -255.427 -324.806 9.07013 165.274 -824.148 -9.07013 -165.274 -852.972 1.00265 56.3797 -272.998 -1.00265 -56.3797 -24.4907 -1.65867 255.524 0 1.65867 -255.524 341.715 -9.05998 165.278 821.206 9.05998 -165.278 853.927 -1.00261 56.3703 274.61 1.00261 -56.3703 22.8146
1.61284 255.453 2.84217e-14 -1.61284 -255.453 -332.258 9.05459 165.27 -821.968 -9.05459 -165.27 -852.281 1.00345 56.3798 -273.206 -1.00345 -56.3798 -24.5209 -1.62193 255.498 -5.68434e-14 1.62193 -255.498 333.958 -9.07555 165.282 823.279 9.07555 -165.282 854.73 -1.00189 56.3702 274.438 1.00189 -56.3702 22.7722
1.70652 255.527 -5.68434e-14 -1.70652 -255.527 -352.042 9.01567 165.257 -816.55 -9.01567 -165.257 -850.51 1.00507 56.3803 -273.63 -1.00507 -56.3803 -24.5768 -1.52576 255.424 0 1.52576 -255.424 313.66 -9.115 165.294 828.647 9.115 -165.294 856.654 -0.99998 56.3697 273.936 0.99998 -56.3697 22.7084
1.90607 255.692 5.68434e-14 -1.90607 -255.692 -394.181 8.93776 165.234 -805.531 -8.93776 -165.234 -847.142 1.00776 56.3811 -274.353 -1.00776 -56.3811 -24.6482 -1.32033 255.259 5.68434e-14 1.32033 -255.259 270.305 -9.19307 165.317 839.42 9.19307 -165.317 860.304 -0.996647 56.3689 273.049 0.996647 -56.3689 22.6073
2.13304 255.886 0 -2.13304 -255.886 -442.114 8.85607 165.211 -793.667 -8.85607 -165.211 -843.925 1.00997 56.3816 -274.977 -1.00997 -56.3816 -24.6795 -1.08666 255.065 8.52651e-14 1.08666 -255.065 220.994 -9.27421 165.341 850.931 9.27421 -165.341 863.775 -0.993789 56.3684 272.254 0.993789 -56.3684 22.5561
2.42202 256.143 1.13687e-13 -2.42202 -256.143 -503.151 8.76198 165.185 -779.495 -8.76198 -165.185 -840.741 1.01168 56.3817 -275.516 -1.01168 -56.3817 -24.6466 -0.789174 254.807 0 0.789174 -254.807 158.213 -9.36728 165.367 864.61 9.36728 -165.367 867.274 -0.991438 56.3683 271.548 0.991438 -56.3683 22.5658
2.77468 256.472 -5.68434e-14 -2.77468 -256.472 -577.648 8.66115 165.159 -763.512 -8.66115 -165.159 -838.141 1.01217 56.3811 -275.799 -1.01217 -56.3811 -24.5026 -0.4262 254.479 -5.68434e-14 0.4262 -254.479 81.6103 -9.46618 165.393 879.915 9.46618 -165.393 870.203 -0.990347 56.3689 271.107 0.990347 -56.3689 22.6866
3.19234 256.88 1.13687e-13 -3.19234 -256.88 -665.896 8.56032 165.136 -746.325 -8.56032 -165.136 -836.771 1.01055 56.3794 -275.624 -1.01055 -56.3794 -24.1953 0.0036156 254.071 1.24345e-14 -0.0036156 -254.071 -9.10197 -9.5636 165.415 896.19 9.5636 -165.415 871.864 -0.991374 56.3706 271.129 0.991374 -56.3706 22.9722
3.67626 257.379 3.41061e-13 -3.67626 -257.379 -768.17 8.46725 165.12 -728.634 -8.46725 -165.12 -837.374 1.00598 56.3762 -274.783 -1.00598 -56.3762 -23.6753 0.501545 253.572 -5.68434e-14 -0.501545 -253.572 -114.192 -9.65131 165.431 912.689 9.65131 -165.431 871.475 -0.995455 56.3738 271.84 0.995455 -56.3738 23.4775
4.22791 257.978 0 -4.22791 -257.978 -884.79 8.39049 165.115 -711.206 -8.39049 -165.115 -840.768 0.997625 56.3712 -273.076 -0.997625 -56.3712 -22.896 1.06905 252.973 -5.68434e-14 -1.06905 -252.973 -233.969 -9.72046 165.437 928.605 9.72046 -165.437 868.195 -1.00356 56.3788 273.471 1.00356 -56.3788 24.2557
4.84783 258.689 1.13687e-13 -4.84783 -258.689 -1015.89 8.33948 165.124 -694.913 -8.33948 -165.124 -847.84 0.984611 56.3639 -270.293 -0.984611 -56.3639 -21.8121 1.70669 252.262 -5.68434e-14 -1.70669 -252.262 -368.549 -9.76108 165.427 943.013 9.76108 -165.427 861.101 -1.01667 56.3861 276.267 1.01667 -56.3861 25.3558
5.53408 259.521 0 -5.53408 -259.521 -1161.07 8.32516 165.154 -680.816 -8.32516 -165.154 -859.554 0.966029 56.3542 -266.204 -0.966029 -56.3542 -20.3811 2.41247 251.43 0 -2.41247 -251.43 -517.505 -9.7617 165.397 954.801 9.7617 -165.397 849.172 -1.03575 56.3958 280.47 1.03575 -56.3958 26.8215
6.27994 260.481 1.13687e-13 -6.27994 -260.481 -1318.92 8.36053 165.21 -670.265 -8.36053 -165.21 -876.975 0.940984 56.3417 -260.577 -0.940984 -56.3417 -18.5707 3.17876 250.47 2.27374e-13 -3.17876 -250.47 -679.23 -9.71005 165.341 962.761 9.71005 -165.341 831.342 -1.06173 56.4083 286.322 1.06173 -56.4083 28.6861
7.07093 261.559 2.27374e-13 -7.07093 -261.559 -1486.42 8.45921 165.298 -664.733 -8.45921 -165.298 -901.158 0.908732 56.3263 -253.199 -0.908732 -56.3263 -16.3734 3.98806 249.392 1.13687e-13 -3.98806 -249.392 -850.052 -9.59545 165.254 965.986 9.59545 -165.254 806.531 -1.09511 56.4237 293.959 1.09511 -56.4237 30.9604
7.88646 262.761 4.54747e-13 -7.88646 -262.761 -1659.22 8.64138 165.427 -666.572 -8.64138 -165.427 -933.486 0.868498 56.3078 -243.852 -0.868498 -56.3078 -13.7796 4.82201 248.19 1.02318e-12 -4.82201 -248.19 -1026.07 -9.39331 165.125 961.415 9.39331 -165.125 773.25 -1.13733 56.4422 303.779 1.13733 -56.4422 33.6718
8.69747 264.072 0 -8.69747 -264.072 -1831.19 8.92758 165.605 -678.269 -8.92758 -165.605 -975.276 0.819707 56.2862 -232.349 -0.819707 -56.2862 -10.808 5.65121 246.879 0 -5.65121 -246.879 -1201.07 -9.08128 164.946 946.414 9.08128 -164.946 729.995 -1.18896 56.4638 315.973 1.18896 -56.4638 36.7974
9.46919 265.472 -2.27374e-13 -9.46919 -265.472 -1995 9.33796 165.843 -702.373 -9.33796 -165.843 -1027.71 0.762226 56.2618 -218.593 -0.762226 -56.2618 -7.51559 6.43945 245.479 1.13687e-13 -6.43945 -245.479 -1367.44 -8.63993 164.709 918.559 8.63993 -164.709 675.595 -1.25043 56.4882 330.707 1.25043 -56.4882 40.3012
10.1641 266.936 -6.82121e-13 -10.1641 -266.936 -2142.71 9.88994 166.146 -741.215 -9.88994 -166.146 -1091.68 0.696426 56.2351 -202.602 -0.696426 -56.2351 -3.99726 7.1482 244.015 2.27374e-13 -7.1482 -244.015 -1517.05 -8.05096 164.405 875.452 8.05096 -164.405 609.062 -1.32147 56.5149 348.004 1.32147 -56.5149 44.0735
10.7458 268.436 2.27374e-13 -10.7458 -268.436 -2266.62 10.5967 166.523 -796.734 -10.5967 -166.523 -1167.68 0.623361 56.2072 -184.539 -0.623361 -56.2072 -0.405899 7.74001 242.515 2.27374e-13 -7.74001 -242.515 -1642.02 -7.30094 164.029 815.181 7.30094 -164.029 529.831 -1.40109 56.5428 367.712 1.40109 -56.5428 47.9691
11.1817 269.941 -9.09495e-13 -11.1817 -269.941 -2359.82 11.4653 166.976 -870.216 -11.4653 -166.976 -1255.71 0.544756 56.1791 -164.741 -0.544756 -56.1791 3.08117 8.18114 241.01 -6.82121e-13 -8.18114 -241.01 -1735.27 -6.38343 163.575 736.548 6.38343 -163.575 437.919 -1.48745 56.5709 389.491 1.48745 -56.5709 51.7866
11.4428 271.419 0 -11.4428 -271.419 -2416.13 12.495 167.508 -962.185 -12.495 -167.508 -1355.13 0.463506 56.1527 -143.769 -0.463506 -56.1527 6.16251 8.44165 239.532 -2.27374e-13 -8.44165 -239.532 -1790.48 -5.29932 163.043 639.092 5.29932 -163.043 333.963 -1.57781 56.5973 412.787 1.57781 -56.5973 55.2551
11.5009 272.832 4.54747e-13 -11.5009 -272.832 -2429.55 13.6793 168.118 -1072.59 -13.6793 -168.118 -1464.76 0.383182 56.1303 -122.351 -0.383182 -56.1303 8.50396 8.49237 238.119 6.82121e-13 -8.49237 -238.119 -1801.54 -4.05591 162.434 522.954 4.05591 -162.434 219.189 -1.66847 56.6197 436.844 1.66847 -56.6197 58.033
11.3252 274.134 -2.27374e-13 -11.3252 -274.134 -2393.55 15.0066 168.802 -1200.98 -15.0066 -168.802 -1582.87 0.308009 56.1143 -101.372 -0.308009 -56.1143 9.73241 8.3017 236.817 9.09495e-13 -8.3017 -236.817 -1761.81 -2.66577 161.75 388.726 2.66577 -161.75 95.3554 -1.75499 56.6357 460.728 1.75499 -56.6357 59.7343
10.8803 275.268 4.54747e-13 -10.8803 -275.268 -2300.54 16.4612 169.555 -1346.63 -16.4612 -169.555 -1707.31 0.242858 56.1077 -81.8627 -0.242858 -56.1077 9.43137 7.83294 235.683 4.54747e-13 -7.83294 -235.683 -1663.58 -1.14587 160.996 237.309 1.14587 -160.996 -35.2773 -1.83228 56.6423 483.353 1.83228 -56.6423 59.9292
10.1252 276.168 -2.27374e-13 -10.1252 -276.168 -2141.82 18.0234 170.371 -1508.48 -18.0234 -170.371 -1835.38 0.193228 56.1134 -65.0007 -0.193228 -56.1134 7.14167 7.04412 234.783 4.54747e-13 -7.04412 -234.783 -1498.01 0.482348 160.181 69.9311 -0.482348 -160.181 -169.936 -1.89466 56.6366 503.496 1.89466 -56.6366 58.1533
9.01876 276.754 -1.13687e-12 -9.01876 -276.754 -1908.61 19.6662 171.237 -1684.87 -19.6662 -171.237 -1963.79 0.165124 56.1347 -52.0917 -0.165124 -56.1347 2.38424 5.89318 234.197 -5.68434e-13 -5.89318 -234.197 -1256.26 2.18669 159.315 -111.363 -2.18669 -159.315 -304.68 -1.93737 56.6153 520.132 1.93737 -56.6153 54.0147
7.53366 276.951 0 -7.53366 -276.951 -1595.1 21.3492 172.133 -1872.58 -21.3492 -172.133 -2088.21 0.164402 56.1743 -44.5097 -0.164402 -56.1743 -5.20838 4.35263 234 5.68434e-13 -4.35263 -234 -932.512 3.92779 158.419 -303.367 -3.92779 -158.419 -435.397 -1.95181 56.5757 531.446 1.95181 -56.5757 46.7689
5.67699 276.715 -1.13687e-13 -5.67699 -276.715 -1202.78 23.0148 173.044 -2066.04 -23.0148 -173.044 -2203.5 0.199934 56.237 -44.1943 -0.199934 -56.237 -16.3311 2.43035 234.236 3.41061e-13 -2.43035 -234.236 -528.371 5.64336 157.508 -500.008 -5.64336 -157.508 -556.598 -1.93027 56.513 535.484 1.93027 -56.513 36.0885
3.50874 276.028 3.41061e-13 -3.50874 -276.028 -744.372 24.5754 173.935 -2255.93 -24.5754 -173.935 -2302.77 0.280368 56.3265 -53.2001 -0.280368 -56.3265 -31.4974 0.189175 234.923 8.52651e-14 -0.189175 -234.923 -56.9804 7.2443 156.616 -691.82 -7.2443 -156.616 -661.236 -1.86198 56.4235 529.803 1.86198 -56.4235 21.2107
1.13936 274.914 -1.13687e-13 -1.13936 -274.914 -243.281 25.9219 174.766 -2429.95 -25.9219 -174.766 -2378.02 0.414914 56.4469 -73.7351 -0.414914 -56.4469 -51.2324 -2.25571 236.037 5.68434e-14 2.25571 -236.037 457.52 8.61654 155.786 -866.168 -8.61654 -155.786 -740.814 -1.73736 56.3031 512.017 1.73736 -56.3031 1.68452
-1.29493 273.416 0 1.29493 -273.416 271.631 26.9368 175.489 -2574.63 -26.9368 -175.489 -2421.02 0.611271 56.6004 -107.768 -0.611271 -56.6004 -75.852 -4.76281 237.535 0 4.76281 -237.535 985.455 9.63948 155.062 -1009.33 -9.63948 -155.062 -786.718 -1.5474 56.1496 479.764 1.5474 -56.1496 -22.8018
-3.66159 271.568 0 3.66159 -271.568 772.296 27.5088 176.063 -2677.01 -27.5088 -176.063 -2424.05 0.876389 56.7906 -156.999 -0.876389 -56.7906 -105.715 -7.20252 239.383 2.27374e-13 7.20252 -239.383 1499.57 10.1834 154.488 -1105.99 -10.1834 -154.488 -790.267 -1.283 55.9594 430.832 1.283 -55.9594 -52.7312
-5.84271 269.425 0 5.84271 -269.425 1233.76 27.5462 176.448 -2726.33 -27.5462 -176.448 -2380.91 1.21418 57.0182 -222.517 -1.21418 -57.0182 -140.893 -9.44463 241.526 2.27374e-13 9.44463 -241.526 1972.56 10.1732 154.103 -1147.72 -10.1732 -154.103 -745.977 -0.940062 55.7318 364.043 0.940062 -55.7318 -88.1386
-7.74242 267.035 0 7.74242 -267.035 1635.79 26.9882 176.618 -2715.21 -26.9882 -176.618 -2287.72 1.62512 57.282 -304.672 -1.62512 -57.282 -181.168 -11.391 243.916 2.27374e-13 11.391 -243.916 2383.78 9.538 153.934 -1126.32 -9.538 -153.934 -648.895 -0.517575 55.468 279.031 0.517575 -55.468 -128.949
-9.29783 264.43 0 9.29783 -264.43 1965.09 25.801 176.549 -2639.29 -25.801 -176.549 -2142.54 2.10614 57.5794 -402.981 -2.10614 -57.5794 -226.105 -12.976 246.521 -4.54747e-13 12.976 -246.521 2719.4 8.24676 154.003 -1037.78 -8.24676 -154.003 -497.316 -0.0185341 55.1706 176.145 0.0185341 -55.1706 -174.612
-10.4831 261.625 9.09495e-13 10.4831 -261.625 2216.26 23.9794 176.233 -2497.35 -23.9794 -176.233 -1945.7 2.65022 57.9055 -516.128 -2.65022 -57.9055 -274.934 -14.1711 249.326 0 14.1711 -249.326 2973.38 6.30063 154.319 -881.734 -6.30063 -154.319 -291.816 0.550006 54.8445 56.7876 -0.550006 -54.8445 -224.427
-11.3116 258.624 -6.82121e-13 11.3116 -258.624 2392.04 21.5393 175.665 -2289.97 -21.5393 -175.665 -1699.58 3.24737 58.2537 -642.16 -3.24737 -58.2537 -326.625 -14.9828 252.327 4.54747e-13 14.9828 -252.327 3147.01 3.72684 154.886 -660.536 -3.72684 -154.886 -35.0746 1.17674 54.4963 -76.7179 -1.17674 -54.4963 -277.351
-11.7974 255.453 6.82121e-13 11.7974 -255.453 2495.56 18.5623 174.861 -2026.32 -18.5623 -174.861 -1410.11 3.88217 58.6153 -777.715 -3.88217 -58.6153 -379.955 -15.4385 255.498 -1.36424e-12 15.4385 -255.498 3245.98 0.591693 155.69 -380.742 -0.591693 -155.69 267.188 1.84693 54.1347 -221.299 -1.84693 -54.1347 -332.069
-11.9836 252.128 -6.82121e-13 11.9836 -252.128 2535.91 15.1221 173.833 -1713.63 -15.1221 -173.833 -1083.82 4.538 58.9804 -919.365 -4.538 -58.9804 -433.404 -15.5808 258.823 -4.54747e-13 15.5808 -258.823 3279.22 -3.0248 156.719 -50.6557 3.0248 -156.719 608.448 2.5406 53.7696 -372.644 -2.5406 -53.7696 -386.952
-11.9218 248.657 4.54747e-13 11.9218 -248.657 2523.98 11.3136 172.593 -1361.54 -11.3136 -172.593 -728.605 5.1948 59.3369 -1062.84 -5.1948 -59.3369 -485.273 -15.4634 262.294 -1.81899e-12 15.4634 -262.294 3257.94 -7.02341 157.958 319.524 7.02341 -157.958 980.524 3.23761 53.4131 -526.179 -3.23761 -53.4131 -440.588
-11.6678 245.081 -2.27374e-13 11.6678 -245.081 2471.58 7.25324 171.184 -981.796 -7.25324 -171.184 -354.407 5.83253 59.6743 -1203.81 -5.83253 -59.6743 -533.918 -15.1469 265.869 -9.09495e-13 15.1469 -265.869 3194.83 -11.2856 159.367 718.382 11.2856 -159.367 1372.86 3.91606 53.0757 -677.545 -3.91606 -53.0757 -490.822
-11.2752 241.436 4.54747e-13 11.2752 -241.436 2389.97 3.05559 169.632 -585.789 -3.05559 -169.632 28.9352 6.4298 59.98 -1337.73 -6.4298 -59.98 -577.524 -14.6874 269.515 0 14.6874 -269.515 3101.61 -15.6874 160.919 1133.7 15.6874 -160.919 1774.71 4.55553 52.77 -822.144 -4.55553 -52.77 -536.179
-10.7844 237.773 -4.54747e-13 10.7844 -237.773 2287.63 -1.16648 167.969 -184.49 1.16648 -167.969 411.431 6.96594 60.2423 -1460.17 -6.96594 -60.2423 -614.372 -14.1273 273.178 1.81899e-12 14.1273 -273.178 2987.11 -20.1104 162.583 1553.88 20.1104 -162.583 2175.69 5.13245 52.5077 -954.95 -5.13245 -52.5077 -574.687
-10.2158 234.163 -4.54747e-13 10.2158 -234.163 2168.91 -5.30559 166.223 211.891 5.30559 -166.223 783.359 7.42053 60.4497 -1566.74 -7.42053 -60.4497 -642.767 -13.4894 276.788 0 13.4894 -276.788 2856.09 -24.4429 164.328 1968.38 24.4429 -164.328 2565.64 5.62576 52.3003 -1071.37 -5.62576 -52.3003 -604.676
-9.57692 230.684 4.54747e-13 9.57692 -230.684 2035.35 -9.2617 164.424 594.019 9.2617 -164.424 1135.48 7.77441 60.5915 -1653.3 -7.77441 -60.5915 -661.142 -12.7835 280.266 6.82121e-13 12.7835 -280.266 2710.45 -28.5805 166.127 2367.52 28.5805 -166.127 2934.85 6.01539 52.1585 -1167.07 -6.01539 -52.1585 -624.505
-8.88097 227.41 2.27374e-13 8.88097 -227.41 1889.73 -12.9385 162.6 952.73 12.9385 -162.6 1459.1 8.00932 60.6581 -1715.9 -8.00932 -60.6581 -668.027 -12.0244 283.541 6.82121e-13 12.0244 -283.541 2553.24 -32.4209 167.952 2741.66 32.4209 -167.952 3273.97 6.28293 52.0919 -1238.04 -6.28293 -52.0919 -632.73
-8.1679 224.378 -1.81899e-12 8.1679 -224.378 1740.44 -16.2475 160.774 1278.47 16.2475 -160.774 1747.33 8.10612 60.6398 -1750.04 -8.10612 -60.6398 -662.225 -11.255 286.573 0 11.255 -286.573 2393.47 -35.8605 169.777 3080.35 35.8605 -169.777 3574.17 6.41031 52.1102 -1280.29 -6.41031 -52.1102 -627.967
-7.51921 221.608 1.36424e-12 7.51921 -221.608 1604.6 -19.06 158.994 1558.74 19.06 -158.994 1988.87 8.05616 60.5314 -1754.19 -8.05616 -60.5314 -642.685 -10.5584 289.343 0 10.5584 -289.343 2248.67 -38.7818 171.557 3371.44 38.7818 -171.557 3825.87 6.38441 52.2186 -1290.79 -6.38441 -52.2186 -609.347
-7.05373 219.07 1.36424e-12 7.05373 -219.07 1507.13 -21.2676 157.3 1781.24 21.2676 -157.3 2175.94 7.8485 60.3271 -1725.7 -7.8485 -60.3271 -608.825 -10.056 291.88 9.09495e-13 10.056 -291.88 2144.52 -41.0693 173.252 3602.08 41.0693 -173.252 4020.42 6.19291 52.4229 -1266.71 -6.19291 -52.4229 -576.033
-6.92262 216.693 2.27374e-13 6.92262 -216.693 1479.75 -22.7637 155.731 1933.28 22.7637 -155.731 2301.55 7.47488 60.0239 -1662.58 -7.47488 -60.0239 -560.176 -9.90165 294.258 0 9.90165 -294.258 2113.67 -42.6122 174.821 3759.39 42.6122 -174.821 4150.19 5.82776 52.7261 -1206.06 -5.82776 -52.7261 -527.625
-7.49899 213.772 -4.54747e-13 7.49899 -213.772 1600.7 -23.4888 154.001 2005.87 23.4888 -154.001 2363.76 6.77045 59.5051 -1533.8 -6.77045 -59.5051 -478.595 -10.4725 297.179 -1.36424e-12 10.4725 -297.179 2236.36 -43.3486 176.551 3834.69 43.3486 -176.551 4212.63 5.12126 53.2449 -1077.14 -5.12126 -53.2449 -445.819
-9.23541 210.635 -2.27374e-13 9.23541 -210.635 1964.74 -22.8213 152.577 1930.69 22.8213 -152.577 2315.76 5.80839 58.8362 -1350.52 -5.80839 -58.8362 -374.86 -12.2325 300.316 -4.54747e-13 12.2325 -300.316 2610.66 -42.6407 177.975 3758.07 42.6407 -177.975 4159.15 4.14119 53.9138 -889.602 -4.14119 -53.9138 -341.228
-12.44 206.968 -2.27374e-13 12.44 -206.968 2636.25 -20.7298 151.485 1699.12 20.7298 -151.485 2160.44 4.60826 58.0303 -1116.58 -4.60826 -58.0303 -250.993 -15.4897 303.983 0 15.4897 -303.983 3302.36 -40.46 179.067 3521.51 40.46 -179.067 3992.57 2.90747 54.7197 -647.304 -2.90747 -54.7197 -215.908
-17.2877 202.483 0 17.2877 -202.483 3651.37 -17.3219 150.704 1317.81 17.3219 -150.704 1911.21 3.20575 57.1089 -839.407 -3.20575 -57.1089 -110.2 -20.4142 308.468 1.36424e-12 20.4142 -308.468 4348.26 -36.9223 179.847 3132.74 36.9223 -179.847 3726.74 1.458 55.6411 -358.208 -1.458 -55.6411 -73.146
-23.7702 196.948 -4.54747e-13 23.7702 -196.948 5007.62 -12.8623 150.149 811.349 12.8623 -150.149 1592.56 1.64598 56.0917 -529.729 -1.64598 -56.0917 44.7839 -26.9866 314.003 9.09495e-13 26.9866 -314.003 5745.31 -32.3051 180.403 2617.71 32.3051 -180.403 3387.26 -0.159118 56.6583 -33.7759 0.159118 -56.6583 84.2201
-31.6735 190.243 -2.72848e-12 31.6735 -190.243 6659.12 -7.77329 149.698 222.632 7.77329 -149.698 1239.88 -0.000617194 55.0193 -202.468 0.000617194 -55.0193 207.93 -34.9751 320.708 -3.63798e-12 34.9751 -320.708 7445.72 -27.0506 180.854 2020.98 27.0506 -180.854 3011.61 -1.87108 57.7307 310.268 1.87108 -57.7307 250.284
-40.5746 182.364 -3.63798e-12 40.5746 -182.364 8516.14 -2.6142 149.185 -389.137 2.6142 -149.185 897.601 -1.6532 53.9385 125.196 1.6532 -53.9385 372.39 -43.936 328.587 1.81899e-12 43.936 -328.587 9356.7 -21.7378 181.366 1403.52 21.7378 -181.366 2646.3 -3.58761 58.8115 654.765 3.58761 -58.8115 417.378
-49.872 173.424 -1.81899e-12 49.872 -173.424 10452 1.96464 148.408 -953.138 -1.96464 -148.408 615.341 -3.23069 52.8925 435.261 3.23069 -52.8925 532.076 -53.2478 337.527 -9.09495e-13 53.2478 -337.527 11347.4 -17.04 182.144 837.956 17.04 -182.144 2343.53 -5.22278 59.8575 980.072 5.22278 -59.8575 579.589
-58.8908 163.603 -3.63798e-12 58.8908 -163.603 12325 5.30168 147.154 -1396.24 -5.30168 -147.154 442.463 -4.65474 51.9225 710.232 4.65474 -51.9225 681.22 -62.2195 347.348 1.81899e-12 62.2195 -347.348 13271.6 -13.6394 183.397 398.931 13.6394 -183.397 2155.17 -6.68979 60.8275 1266.76 6.68979 -60.8275 730.525
-67.0309 153.07 9.09495e-12 67.0309 -153.07 14010 6.82278 145.238 -1654.9 -6.82278 -145.238 421.708 -5.85811 51.0632 935.203 5.85811 -51.0632 814.771 -70.2426 357.881 -3.63798e-12 70.2426 -357.881 14999.9 -12.1282 185.313 151.245 12.1282 -185.313 2126.32 -7.91733 61.6868 1498.59 7.91733 -61.6868 865.214
-73.8776 141.923 -1.81899e-12 73.8776 -141.923 15420.8 6.11624 142.526 -1684.02 -6.11624 -142.526 584.134 -6.79292 50.3392 1099.56 6.79292 -50.3392 929.147 -76.9003 369.028 -3.63798e-12 76.9003 -369.028 16443.4 -12.9281 188.025 140.718 12.9281 -188.025 2289.38 -8.85332 62.4108 1663.75 8.85332 -62.4108 979.957
-79.2229 130.194 -1.81899e-12 79.2229 -130.194 16514.9 2.96259 138.946 -1459.93 -2.96259 -138.946 946.577 -7.43382 49.7642 1197.64 7.43382 -49.7642 1022.51 -81.9879 380.756 -1.81899e-12 81.9879 -380.756 17557.7 -16.2633 191.606 391.382 16.2633 -191.606 2662.12 -9.47009 62.9858 1756.03 9.47009 -62.9858 1072.7
-83.0331 117.887 -1.81899e-12 83.0331 -117.887 17286 -2.66881 134.483 -979.435 2.66881 -134.483 1511.33 -7.77863 49.3392 1228.91 7.77863 -49.3392 1094.75 -85.4784 393.063 -5.45697e-12 85.4784 -393.063 18336.3 -22.1629 196.068 906.353 22.1629 -196.068 3246.97 -9.76547 63.4108 1774.93 9.76547 -63.4108 1143.3
-85.4085 105.008 -5.45697e-12 85.4085 -105.008 17755.9 -10.6362 129.182 -257.611 10.6362 -129.182 2266.97 -7.84782 49.053 1197.91 7.84782 -49.053 1147.43 -87.4818 405.942 -7.27596e-12 87.4818 -405.942 18801.5 -30.4771 201.37 1670.03 30.4771 -201.37 4031.99 -9.76178 63.697 1725.43 9.76178 -63.697 1193.37
-86.5328 91.6004 -7.27596e-12 86.5328 -91.6004 17963.8 -20.6546 123.13 675.831 20.6546 -123.13 3190.17 -7.68245 48.8834 1113.7 7.68245 -48.8834 1183.7 -88.1928 419.351 -9.09495e-12 88.1928 -419.351 18994 -40.9071 207.421 2651.71 40.9071 -207.421 4992.66 -9.50343 63.8666 1617.41 9.50343 -63.8666 1226.28
-86.6092 77.7794 9.09495e-12 86.6092 -77.7794 17952.7 -32.3356 116.452 1781.43 32.3356 -116.452 4248.21 -7.34037 48.7992 988.962 7.34037 -48.7992 1208.07 -87.8279 433.172 1.45519e-11 87.8279 -433.172 18958.7 -53.0476 214.099 3810.59 53.0476 -214.099 6094.77 -9.05225 63.9508 1464.6 9.05225 -63.9508 1246.65
-85.8387 63.7366 -1.81899e-12 85.8387 -63.7366 17765.4 -45.2144 109.295 3012.75 45.2144 -109.295 5401.24 -6.89241 48.7623 839.149 6.89241 -48.7623 1226.12 -86.6031 447.214 -1.81899e-12 86.6031 -447.214 18740.4 -66.4142 221.256 5098.57 66.4142 -221.256 7296.6 -8.48385 63.9877 1283.77 8.48385 -63.9877 1260.24
-84.4613 49.6881 9.09495e-12 84.4613 -49.6881 17452.6 -58.7538 101.832 4316 58.7538 -101.832 6603.46 -6.41908 48.7294 681.901 6.41908 -48.7294 1244.12 -84.7722 461.263 0 84.7722 -461.263 18392.2 -80.4477 228.72 6459.91 80.4477 -228.72 8550.12 -7.88403 64.0206 1093.96 7.88403 -64.0206 1273.52
-82.7996 35.8166 3.63798e-12 82.7996 -35.8166 17081.6 -72.352 94.2574 5629.99 72.352 -94.2574 7804.61 -6.00635 48.6544 536.137 6.00635 -48.6544 1268.67 -82.6673 475.134 -5.45697e-12 82.6673 -475.134 17984.2 -94.5236 236.294 7831.3 94.5236 -236.294 9802.58 -7.34493 64.0956 915.692 7.34493 -64.0956 1293.41
-81.2477 22.2545 5.45697e-12 81.2477 -22.2545 16734.2 -85.3757 86.7786 6889.5 85.3757 -86.7786 8952.84 -5.74017 48.4917 420.823 5.74017 -48.4917 1306.31 -80.6863 488.696 -5.45697e-12 80.6863 -488.696 17601.5 -107.988 243.773 9145.45 107.988 -243.773 10999.6 -6.95898 64.2583 769.677 6.95898 -64.2583 1326.7
-80.2053 9.10686 0 80.2053 -9.10686 16492.5 -97.219 79.5965 8031.81 97.219 -79.5965 9998.92 -5.70001 48.1994 353.54 5.70001 -48.1994 1363.04 -79.2274 501.844 0 79.2274 -501.844 17329.4 -120.216 250.955 10337.8 120.216 -250.955 12089.6 -6.81176 64.5506 675.17 6.81176 -64.5506 1379.61
-79.9822 -3.50048 -1.81899e-12 79.9822 3.50048 16420.1 -107.37 72.885 9004.63 107.37 -72.885 10900.8 -5.95228 47.7428 349.012 5.95228 -47.7428 1443.83 -78.5976 514.451 1.81899e-12 78.5976 -514.451 17234.4 -130.684 257.666 11354.3 130.684 -257.666 13028.5 -6.97461 65.0072 648.266 6.97461 -65.0072 1457.3
-80.7295 -15.3881 0 80.7295 15.3881 16547.9 -115.463 66.7749 9771.76 115.463 -66.7749 11627 -6.5451 47.097 417.941 6.5451 -47.097 1552.24 -78.9481 526.339 1.81899e-12 78.9481 -526.339 17348.8 -139.014 263.777 12157.7 139.014 -263.777 13783.3 -7.49909 65.653 700.609 7.49909 -65.653 1563.48
-82.4666 -26.3571 -3.63798e-12 82.4666 26.3571 16879.8 -121.276 61.3528 10312.8 121.276 -61.3528 12157.8 -7.5062 46.2483 566.574 7.5062 -46.2483 1690.19 -80.3009 537.308 -7.27596e-12 80.3009 -537.308 17677.3 -144.982 269.199 12726.7 144.982 -269.199 14333.3 -8.41465 66.5017 838.946 8.41465 -66.5017 1700.21
-85.1471 -36.2482 -3.63798e-12 85.1471 36.2482 17406.2 -124.718 56.6683 10620 124.718 -56.6683 12483.8 -8.84245 45.1945 796.645 8.84245 -45.1945 1857.96 -82.6125 547.199 7.27596e-12 82.6125 -547.199 18210.4 -148.494 273.883 13052.9 148.494 -273.883 14668.8 -9.72863 67.5555 1065.2 9.72863 -67.5555 1867.77
-88.6855 -44.9642 -1.81899e-12 88.6855 44.9642 18109.5 -125.816 52.7365 10697.3 125.816 -52.7365 12606.5 -10.5399 43.9451 1105.4 10.5399 -43.9451 2054.09 -85.8007 555.915 0 85.8007 -555.915 18930.2 -149.582 277.815 13140.3 149.582 -277.815 14791.4 -11.4264 68.8049 1376.51 11.4264 -68.8049 2064.69
-92.9669 -52.4729 -5.45697e-12 92.9669 52.4729 18966.4 -124.709 49.5406 10559.1 124.709 -49.5406 12537.2 -12.5644 42.5208 1485.79 12.5644 -42.5208 2275.47 -89.7527 563.424 1.09139e-11 89.7527 -563.424 19812.2 -148.388 281.011 13003.8 148.388 -281.011 14712.8 -13.4722 70.2292 1765.45 13.4722 -70.2292 2287.8
-97.854 -58.8057 1.81899e-12 97.854 58.8057 19948.7 -121.634 47.0349 10229.6 121.634 -47.0349 12296 -14.864 40.9527 1926.93 14.864 -40.9527 2517.47 -94.3334 569.757 -5.45697e-12 94.3334 -569.757 20827.2 -145.163 283.517 12668.2 145.163 -283.517 14454.4 -15.8111 71.7973 2220.41 15.8111 -71.7973 2532.38
-103.197 -64.0543 2.36469e-11 103.197 64.0543 21025.9 -116.916 45.1496 9740.56 116.916 -45.1496 11910.9 -17.371 39.2806 2414.6 17.371 -39.2806 2774.21 -99.3938 575.005 5.45697e-12 99.3938 -575.005 21943.1 -140.24 285.402 12166.6 140.24 -285.402 14045.3 -18.3719 73.4694 2726.22 18.3719 -73.4694 2792.38
-108.838 -68.3602 -1.81899e-12 108.838 68.3602 22165.3 -110.946 43.7949 9130.3 110.946 -43.7949 11415.9 -20.0051 37.5511 2931.92 20.0051 -37.5511 3038.73 -104.774 579.311 0 104.774 -579.311 23125.7 -134.025 286.757 11538.7 134.025 -286.757 13521.4 -21.0704 75.1989 3264.9 21.0704 -75.1989 3060.68
-114.602 -71.8939 -3.63798e-12 114.602 71.8939 23331.2 -104.168 42.8652 8442.14 104.168 -42.8652 10849.8 -22.6774 35.8159 3460.12 22.6774 -35.8159 3303.41 -110.298 582.845 0 110.298 -582.845 24337.2 -126.979 287.686 10829.6 126.979 -287.686 12923.3 -23.8132 76.9341 3816.44 23.8132 -76.9341 3329.42
-120.305 -74.8425 -7.27596e-12 120.305 74.8425 24485.7 -97.0558 42.2446 7722.32 97.0558 -42.2446 10253.8 -25.2944 34.1291 3979.51 25.2944 -34.1291 3560.25 -115.778 585.793 0 115.778 -585.793 25537.7 -119.591 288.307 10087.5 119.591 -288.307 12294.1 -26.5022 78.6209 4359.76 26.5022 -78.6209 3590.41
-125.778 -77.4097 3.63798e-12 125.778 77.4097 25593.9 -90.0816 41.8163 7016.67 90.0816 -41.8163 9669.32 -27.7628 32.5446 4470.43 27.7628 -32.5446 3801.27 -121.043 588.361 -3.63798e-12 121.043 -588.361 26690.4 -112.351 288.735 9359.91 112.351 -288.735 11677.4 -29.0397 80.2054 4873.83 29.0397 -80.2054 3835.46
-130.9 -79.8242 0 130.9 79.8242 26630.5 -83.6844 41.4713 6367.13 83.6844 -41.4713 9135.56 -29.9944 31.1133 4914.31 29.9944 -31.1133 4018.93 -125.963 590.775 -3.63798e-12 125.963 -590.775 27768.4 -105.712 289.08 8690.67 105.712 -289.08 11114.1 -31.3334 81.6367 5338.81 31.3334 -81.6367 4056.8
-135.607 -82.3325 1.09139e-11 135.607 82.3325 27581.6 -78.2467 41.1145 5809.52 78.2467 -41.1145 8687.34 -31.9097 29.8813 5294.5 31.9097 -29.8813 4206.43 -130.463 593.283 -7.27596e-12 130.463 -593.283 28756.6 -100.073 289.437 8117.26 100.073 -289.437 10640.8 -33.3005 82.8687 5736.95 33.3005 -82.8687 4247.45
-139.867 -85.1691 -3.63798e-12 139.867 85.1691 28440 -74.0906 40.6649 5373.65 74.0906 -40.6649 8354.36 -33.4414 28.8874 5596.85 33.4414 -28.8874 4357.98 -134.501 596.12 1.45519e-11 134.501 -596.12 29646.7 -95.7668 289.887 7670.93 95.7668 -289.887 10288.5 -34.8711 83.8626 6053.19 34.8711 -83.8626 4401.46
-143.618 -88.4968 1.45519e-11 143.618 88.4968 29192.2 -71.4913 40.0504 5085.77 71.4913 -40.0504 8161.22 -34.5354 28.1625 5810 34.5354 -28.1625 4469.01 -138.004 599.448 -7.27596e-12 138.004 -599.448 30424.3 -93.0799 290.501 7379.12 93.0799 -290.501 10083.1 -35.989 84.5875 6275.43 35.989 -84.5875 4514.13
-146.697 -92.3469 3.63798e-12 146.697 92.3469 29805.4 -70.6912 39.2027 4970.92 70.6912 -39.2027 8127.63 -35.1531 27.7282 5925.68 35.1531 -27.7282 4536.37 -140.816 603.298 -7.27596e-12 140.816 -603.298 31055.2 -92.2626 291.349 7267.7 92.2626 -291.349 10045.4 -36.6135 85.0218 6394.73 36.6135 -85.0218 4582.18
-148.845 -96.6044 3.63798e-12 148.845 96.6044 30226.8 -71.8879 38.0612 5051.87 71.8879 -38.0612 8267.28 -35.2728 27.5957 5939.12 35.2728 -27.5957 4558.47 -142.69 607.555 3.63798e-12 142.69 -607.555 31485.1 -93.5166 292.49 7359.76 93.5166 -292.49 10189.6 -36.7214 85.1543 6405.8 36.7214 -85.1543 4603.95
-149.766 -101.047 7.27596e-12 149.766 101.047 30397.5 -75.1948 36.5852 5344.24 75.1948 -36.5852 8585.42 -34.8935 27.7645 5849.85 34.8935 -27.7645 4535.46 -143.355 611.998 -3.63798e-12 143.355 -611.998 31653.4 -96.9556 293.966 7670.75 96.9556 -293.966 10521.6 -36.3103 84.9855 6307.82 36.3103 -84.9855 4579.58
-149.447 -104.55 0 149.447 104.55 30319.4 -79.3575 35.1579 5733.2 79.3575 -35.1579 8965.17 -34.2441 28.1081 5707.14 34.2441 -28.1081 4485.85 -142.862 615.501 3.63798e-12 142.862 -615.501 31564.8 -101.275 295.394 8079.51 101.275 -295.394 10919 -35.6212 84.6419 6153.65 35.6212 -84.6419 4528.15
-147.591 -108.613 -7.27596e-12 147.591 108.613 29926.6 -86.3365 33.0926 6404.6 86.3365 -33.0926 9582.59 -33.0351 28.7778 5446.98 33.0351 -28.7778 4387.95 -140.847 619.564 0 140.847 -619.564 31147.6 -108.505 297.459 8780.77 108.505 -297.459 11565.9 -34.346 83.9722 5873.92 34.346 -83.9722 4427.11
-144.081 -112.057 -7.27596e-12 144.081 112.057 29200.2 -95.0121 30.7871 7257.11 95.0121 -30.7871 10332.2 -31.4438 29.6804 5108.43 31.4438 -29.6804 4255.16 -137.263 623.008 1.09139e-11 137.263 -623.008 30384.9 -117.481 299.764 9667.3 117.481 -299.764 12352.3 -32.6724 83.0696 5510.8 32.6724 -83.0696 4290.39
-139.014 -114.614 0 139.014 114.614 28161 -104.946 28.363 8248.9 104.946 -28.363 11174.8 -29.5525 30.7696 4708.99 29.5525 -30.7696 4094.29 -132.217 625.565 1.09139e-11 132.217 -625.565 29298.6 -127.747 302.189 10695.3 127.747 -302.189 13237 -30.6868 81.9804 5083.08 30.6868 -81.9804 4124.97
-132.578 -116.018 1.09139e-11 132.578 116.018 26848.5 -115.584 25.9775 9326.15 115.584 -25.9775 12062.1 -27.4583 31.991 4269.45 27.4583 -31.991 3913.3 -125.908 626.968 0 125.908 -626.968 27930.5 -138.732 304.574 11808.6 138.732 -304.574 14169.3 -28.4914 80.759 4613.13 28.4914 -80.759 3939.08
-125.005 -115.981 -1.45519e-11 125.005 115.981 25310 -126.307 23.8099 10428.2 126.307 -23.8099 12940.1 -25.2677 33.2851 3812.66 25.2677 -33.2851 3720.9 -118.57 626.932 3.63798e-12 118.57 -626.932 26330.5 -149.794 306.742 12944.3 149.794 -306.742 15092.9 -26.1988 79.4649 4125.58 26.1988 -79.4649 3741.69
-116.546 -114.206 7.27596e-12 116.546 114.206 23597.2 -136.459 22.053 11490.9 136.459 -22.053 13752.2 -23.0913 34.5908 3362.35 23.0913 -34.5908 3526.03 -110.455 625.157 1.09139e-11 110.455 -625.157 24552.9 -160.258 308.499 14035.6 160.258 -308.499 15948.3 -23.9253 78.1592 3645.94 23.9253 -78.1592 3542.06
-107.463 -110.403 -1.09139e-11 107.463 110.403 21763 -145.385 20.9024 12450 145.385 -20.9024 14441.9 -21.0368 35.8481 2941.79 21.0368 -35.8481 3337.42 -101.821 621.353 5.45697e-12 101.821 -621.353 22653.6 -169.448 309.649 15015.8 169.448 -309.649 16676.3 -21.7851 76.9019 3199.27 21.7851 -76.9019 3349.17
-97.9996 -104.287 0 97.9996 104.287 19856.7 -152.469 20.5458 13244.8 152.469 -20.5458 14956 -19.204 37.0023 2572.51 19.204 -37.0023 3163.07 -92.9052 615.238 1.27329e-11 92.9052 -615.238 20684.3 -176.729 310.006 15822.1 176.729 -310.006 17221.1 -19.8839 75.7477 2808.79 19.8839 -75.7477 3171.31
-88.3786 -95.6053 1.81899e-12 88.3786 95.6053 17922.6 -157.161 21.1546 13821.5 157.161 -21.1546 15247.1 -17.6788 38.0061 2273.19 17.6788 -38.0061 3009.83 -83.9192 606.556 -9.09495e-12 83.9192 -606.556 18692 -181.536 309.397 16398.4 181.536 -309.397 17533 -18.3132 74.7439 2494.67 18.3132 -74.7439 3015.56
-78.7966 -84.1516 7.27596e-12 78.7966 84.1516 15999.6 -159.004 22.8775 14134.9 159.004 -22.8775 15276.1 -16.5293 38.8229 2058.68 16.5293 -38.8229 2883.03 -75.0459 595.103 1.81899e-12 75.0459 -595.103 16717.3 -183.397 307.674 16697.9 183.397 -307.674 17571.1 -17.1454 73.9271 2272.99 17.1454 -73.9271 2887.44
-69.4097 -69.7724 1.81899e-12 69.4097 69.7724 14117.8 -157.659 25.8322 14151 157.659 -25.8322 15014.1 -15.8014 39.4284 1939.15 15.8014 -39.4284 2786.13 -66.4251 580.723 1.81899e-12 66.4251 -580.723 14792.2 -181.962 304.719 16685.6 181.962 -304.719 17305 -16.4299 73.3216 2154.8 16.4299 -73.3216 2790.54
-60.3395 -52.384 0 60.3395 52.384 12300.4 -152.915 30.102 13848.5 152.915 -30.102 14443.5 -15.5164 39.8125 1919.55 15.5164 -39.8125 2720.54 -58.1601 563.335 -5.45697e-12 58.1601 -563.335 12940.8 -177.011 300.45 16339.4 177.011 -300.45 16716.5 -16.1903 72.9375 2145.59 16.1903 -72.9375 2726.37
-51.7168 -32.0149 0 51.7168 32.0149 10572.2 -144.683 35.7387 13216.3 144.683 -35.7387 13558.2 -15.6706 39.9796 1999.52 15.6706 -39.9796 2685.51 -50.3594 542.966 5.45697e-12 50.3594 -542.966 11188.8 -168.45 294.813 15648.3 168.45 -294.813 15799 -16.4235 72.7704 2245.15 16.4235 -72.7704 2694.21
-43.7317 -8.85203 -4.54747e-12 43.7317 8.85203 8970.04 -132.978 42.7669 12251.8 132.978 -42.7669 12363.2 -16.2352 39.9485 2173.46 16.2352 -39.9485 2678.16 -43.1871 519.803 -5.45697e-12 43.1871 -519.803 9574.04 -156.291 287.785 14610.4 156.291 -287.785 14557.6 -17.1007 72.8015 2447.73 17.1007 -72.8015 2691.13
-36.6172 16.7639 9.09495e-13 36.6172 -16.7639 7540.33 -117.928 51.1792 10962.1 117.928 -51.1792 10874.7 -17.1565 39.7524 2430.43 17.1565 -39.7524 2693.44 -36.8507 494.187 -1.81899e-12 36.8507 -494.187 8143.45 -140.665 279.372 13233.8 140.665 -279.372 13009.4 -18.1669 72.9976 2742.04 18.1669 -72.9976 2712.03
-30.547 44.4165 -1.81899e-12 30.547 -44.4165 6317.99 -99.8193 60.9222 9369.33 99.8193 -60.9222 9122.21 -18.3551 39.4383 2753.97 18.3551 -39.4383 2724.3 -31.5062 466.534 -9.09495e-13 31.5062 -466.534 6932.06 -121.863 269.629 11542.6 121.863 -269.629 11185.3 -19.5403 73.3117 3110.83 19.5403 -73.3117 2749.67
-25.5773 73.6673 2.27374e-12 25.5773 -73.6673 5314.55 -79.1035 71.8888 7513.18 79.1035 -71.8888 7149.11 -19.7283 39.0662 3122.51 19.7283 -39.0662 2761.83 -27.2013 437.284 -5.45697e-12 27.2013 -437.284 5950.64 -100.348 258.663 9578.93 100.348 -258.663 9130.77 -21.1133 73.6838 3531.19 21.1133 -73.6838 2794.94
-21.6681 104.051 3.63798e-12 21.6681 -104.051 4522.38 -56.3781 83.925 5448.22 56.3781 -83.925 5010.46 -21.1542 38.7062 3510.27 21.1542 -38.7062 2795.67 -23.8929 406.9 -3.63798e-12 23.8929 -406.9 5189.98 -76.7349 246.627 7400.25 76.7349 -246.627 6903.41 -22.7582 74.0438 3975.58 22.7582 -74.0438 2837.21
-18.7111 135.072 4.54747e-13 18.7111 -135.072 3920.07 -32.3499 96.8367 3240.41 32.3499 -96.8367 2770.44 -22.4975 38.4353 3888.41 22.4975 -38.4353 2814.5 -21.4724 375.879 -1.81899e-12 21.4724 -375.879 4626.45 -51.7517 233.715 5075.71 51.7517 -233.715 4570.45 -24.3324 74.3147 4413.16 24.3324 -74.3147 2864.82
-16.5408 166.22 -9.09495e-13 16.5408 -166.22 3474.49 -7.80367 110.399 964.077 7.80367 -110.399 499.514 -23.6156 38.3335 4226.4 23.6156 -38.3335 2806.54 -19.775 344.731 2.72848e-12 19.775 -344.731 4224.32 -26.2104 220.153 2683.02 26.2104 -220.153 2205.72 -25.6854 74.4165 4811.2 25.6854 -74.4165 2865.65
-14.932 197 9.09495e-13 14.932 -197 3139.99 16.4282 124.361 -1300.71 -16.4282 -124.361 -1728.43 -24.3652 38.4807 4493.4 24.3652 -38.4807 2760.15 -18.575 313.95 -1.81899e-12 18.575 -313.95 3934.89 -0.975149 206.19 305.713 0.975149 -206.19 -113.394 -26.6656 74.2693 5136.56 26.6656 -74.2693 2827.68
-13.6073 226.924 4.54747e-13 13.6073 -226.924 2859.64 39.443 138.452 -3463.29 -39.443 -138.452 -3836.79 -24.6072 38.9521 4659.12 24.6072 -38.9521 2664.24 -17.5692 284.027 -9.09495e-13 17.5692 -284.027 3693.38 23.0596 192.1 -1968.41 -23.0596 -192.1 -2308.55 -27.1275 73.7979 5357.16 27.1275 -73.7979 2739.61
-12.1976 255.49 1.13687e-12 12.1976 -255.49 2556.67 60.3023 152.316 -5432.85 -60.3023 -152.316 -5742.14 -24.2459 39.8094 4703.92 24.2459 -39.8094 2510.05 -16.41 255.461 -1.36424e-12 16.41 -255.461 3425.74 44.8973 178.236 -4036.92 -44.8973 -178.236 -4297.65 -26.9393 72.9406 5443.73 26.9393 -72.9406 2591.57
-10.2208 282.517 -2.27374e-13 10.2208 -282.517 2130.08 78.3422 165.653 -7140.46 -78.3422 -165.653 -7389.63 -23.1638 41.1053 4600.25 23.1638 -41.1053 2290.15 -14.5966 228.434 -4.54747e-13 14.5966 -228.434 3026.82 63.7563 164.899 -5826.91 -63.7563 -164.899 -6009.18 -26.017 71.6447 5378.27 26.017 -71.6447 2376.65
-7.28041 308.061 0 7.28041 -308.061 1495.87 92.9588 178.357 -8521.68 -92.9588 -178.357 -8730.92 -21.28 42.8808 4329.83 21.28 -42.8808 1998.58 -11.7066 202.89 0 11.7066 -202.89 2408.51 79.047 152.194 -7275.17 -79.047 -152.194 -7397.78 -24.2602 69.8692 5137.14 24.2602 -69.8692 2088.81
-3.1462 331.967 -3.41061e-13 3.1462 -331.967 604.649 103.772 190.266 -9537.31 -103.772 -190.266 -9733.86 -18.5612 45.1517 3884.47 18.5612 -45.1517 1633.46 -7.48821 178.983 4.54747e-13 7.48821 -178.983 1519.02 90.3725 140.285 -8340.45 -90.3725 -140.285 -8431.91 -21.617 67.5983 4708.11 21.617 -67.5983 1725.09
2.18421 354.04 -2.27374e-13 -2.18421 -354.04 -544.691 110.621 201.27 -10170.5 -110.621 -201.27 -10384.4 -15.0036 47.9126 3262.12 15.0036 -47.9126 1195.51 -1.9298 156.911 -2.27374e-13 1.9298 -156.911 356.781 97.5619 129.282 -9006.69 -97.5619 -129.282 -9096.9 -18.0895 64.8374 4090.64 18.0895 -64.8374 1287
8.5517 374.094 2.27374e-13 -8.5517 -374.094 -1918.53 113.582 211.323 -10430.2 -113.582 -211.323 -10687.2 -10.6507 51.1358 2470.89 10.6507 -51.1358 689.167 4.8092 136.856 9.09495e-13 -4.8092 -136.856 -1044.52 100.688 119.228 -9283.82 -100.688 -119.228 -9397.09 -13.722 61.6142 3294.04 13.722 -61.6142 778.786
15.7631 392.047 -1.81899e-12 -15.7631 -392.047 -3475.54 112.918 220.437 -10343.4 -112.918 -220.437 -10662.8 -5.58629 54.7705 1527.75 5.58629 -54.7705 122.134 12.518 118.904 -9.09495e-13 -12.518 -118.904 -2641.16 100.014 110.114 -9198.36 -100.014 -110.114 -9355.25 -8.59341 57.9795 2334.33 8.59341 -57.9795 208.235
23.6846 407.921 -2.72848e-12 -23.6846 -407.921 -5186.87 109.005 228.571 -9945.52 -109.005 -228.571 -10345.7 0.0351663 58.6945 458.195 -0.0351663 -58.6945 -485.455 21.0491 103.03 0 -21.0491 -103.03 -4403.04 95.9349 101.981 -8788.01 -95.9349 -101.981 -9007.62 -2.85473 54.0555 1237.86 2.85473 -54.0555 -405.76
32.2658 422.031 9.09495e-13 -32.2658 -422.031 -7041.73 102.296 235.83 -9277.57 -102.296 -235.83 -9778.38 6.1287 62.8721 -714.683 -6.1287 -62.8721 -1131.57 30.3423 88.9195 -3.63798e-12 -30.3423 -88.9195 -6318.13 88.9209 94.7212 -8096.23 -88.9209 -94.7212 -8398.13 3.37812 49.8779 32.3324 -3.37812 -49.8779 -1056.13
41.4777 434.764 -2.72848e-12 -41.4777 -434.764 -9034.3 93.3554 242.302 -8390.96 -93.3554 -242.302 -9014.4 12.532 67.2169 -1957.83 -12.532 -67.2169 -1801.08 40.3592 76.1868 -2.72848e-12 -40.3592 -76.1868 -8378.78 79.5587 88.2493 -7176.25 -79.5587 -88.2493 -7582.47 9.96475 45.5331 -1250.39 -9.96475 -45.5331 -1732.78
51.2501 446.548 -2.72848e-12 -51.2501 -446.548 -11150.3 82.8458 248.1 -7346.68 -82.8458 -248.1 -8115.75 19.0696 71.6221 -3234.79 -19.0696 -71.6221 -2478.23 51.0219 64.403 -9.09495e-13 -51.0219 -64.403 -10568.8 68.5527 82.4519 -6092.66 -68.5527 -82.4519 -6626.64 16.7115 41.1279 -2571.26 -16.7115 -41.1279 -2417.15
61.4794 457.836 -9.09495e-12 -61.4794 -457.836 -13368.5 71.5065 253.354 -6213.21 -71.5065 -253.354 -7151.5 25.5601 75.9785 -4507.57 -25.5601 -75.9785 -3146.86 62.2195 53.1154 0 -62.2195 -53.1154 -12864.9 56.6794 77.1975 -4917.45 -56.6794 -77.1975 -5602.42 23.4304 36.7715 -3889.92 -23.4304 -36.7715 -3093.74
72.0617 469.113 3.63798e-12 -72.0617 -469.113 -15668.4 60.1085 258.21 -5062.1 -60.1085 -258.21 -6193.6 31.8193 80.1744 -5737.25 -31.8193 -80.1744 -3790.79 73.844 41.8376 1.09139e-11 -73.844 -41.8376 -15244.1 44.7459 72.3418 -3725.37 -44.7459 -72.3418 -4584.46 29.9202 32.5756 -5164.36 -29.9202 -32.5756 -3745.01
82.902 480.892 -5.45697e-12 -82.902 -480.892 -18031.7 49.4164 262.823 -3964.35 -49.4164 -262.823 -5313.45 37.6631 84.1003 -6885 -37.6631 -84.1003 -4393.64 85.8017 30.0586 0 -85.8017 -30.0586 -17685.6 33.5634 67.7288 -2591.08 -33.5634 -67.7288 -3648.12 35.9871 28.6497 -6353.97 -35.9871 -28.6497 -4354.33
93.8985 493.666 -7.27596e-12 -93.8985 -493.666 -20439 40.1706 267.35 -2988.97 -40.1706 -267.35 -4580 42.9184 87.6551 -7914.28 -42.9184 -87.6551 -4939.94 97.9963 17.2845 1.81899e-12 -97.9963 -17.2845 -20167.9 23.9124 63.2011 -1586.91 -23.9124 -63.2011 -2865.45 41.4494 25.0949 -7420.28 -41.4494 -25.0949 -4906.57
104.914 507.86 0 -104.914 -507.86 -22863.6 33.0718 271.947 -2202.1 -33.0718 -271.947 -4057.67 47.4316 90.7472 -8792.37 -47.4316 -90.7472 -5416.16 110.297 3.09103 9.09495e-12 -110.297 -3.09103 -22661.9 16.5307 58.6049 -781.961 -16.5307 -58.6049 -2303.68 46.1397 22.0028 -8328.19 -46.1397 -22.0028 -5387.63
115.731 523.774 -7.27596e-12 -115.731 -523.774 -25261.2 28.772 276.766 -1667.29 -28.772 -276.766 -3804.41 51.0716 93.2987 -9490.98 -51.0716 -93.2987 -5811.02 122.485 -12.823 -3.63798e-12 -122.485 12.823 -25120.6 12.1054 53.7855 -242.468 -12.1054 -53.7855 -2023.48 49.915 19.4513 -9047.47 -49.915 -19.4513 -5785.8
126.012 541.528 1.45519e-11 -126.012 -541.528 -27561 27.8638 281.964 -1445.39 -27.8638 -281.964 -3869.85 53.7333 95.2493 -9987.21 -53.7333 -95.2493 -6115.63 134.211 -30.5769 1.09139e-11 -134.211 30.5769 -27470.4 11.2611 48.5879 -31.4058 -11.2611 -48.5879 -2077.13 52.6608 17.5007 -9553.67 -52.6608 -17.5007 -6091.91
135.321 561.042 -7.27596e-12 -135.321 -561.042 -29668.9 30.8466 287.682 -1590.9 -30.8466 -287.682 -4292.6 55.3443 96.5586 -10265.1 -55.3443 -96.5586 -6324.05 145.002 -50.0908 -1.09139e-11 -145.002 50.0908 -29614.2 14.5224 42.87 -204.758 -14.5224 -42.87 -2505.26 54.2974 16.1914 -9829.56 -54.2974 -16.1914 -6299.99
143.205 582.08 -7.27596e-12 -143.205 -582.08 -31486 38.0612 294.028 -2144.22 -38.0612 -294.028 -5095.88 55.8723 97.2097 -10317.3 -55.8723 -97.2097 -6433.86 154.361 -71.1292 7.27596e-12 -154.361 71.1292 -31450.3 22.2453 36.5236 -803.582 -22.2453 -36.5236 -3332.17 54.787 15.5403 -9866.55 -54.787 -15.5403 -6407.6
149.307 604.322 7.27596e-12 -149.307 -604.322 -32932 49.6221 301.056 -3123.44 -49.6221 -301.056 -6283.2 55.3289 97.2109 -10145.6 -55.3289 -97.2109 -6446.5 161.875 -93.3707 2.54659e-11 -161.875 93.3707 -32896.7 34.5499 29.4953 -1845.7 -34.5499 -29.4953 -4561.71 54.1389 15.5391 -9666.22 -54.1389 -15.5391 -6416.06
153.425 627.399 7.27596e-12 -153.425 -627.399 -33958.8 65.381 308.752 -4519.72 -65.381 -308.752 -7836.15 53.7707 96.5965 -9761.72 -53.7707 -96.5965 -6367.19 167.291 -116.448 -2.18279e-11 -167.291 116.448 -33905 51.282 21.7993 -3321.08 -51.282 -21.7993 -6174.79 52.4122 16.1535 -9240.87 -52.4122 -16.1535 -6330.6
155.541 650.925 1.09139e-11 -155.541 -650.925 -34558.5 84.9148 317.026 -6295.4 -84.9148 -317.026 -9713.94 51.2992 95.4262 -9187.33 -51.2992 -95.4262 -6204.8 170.554 -139.974 -3.63798e-12 -170.554 139.974 -34467.8 71.9984 13.5253 -5189.94 -71.9984 -13.5253 -8128.75 49.7152 17.3238 -8613.34 -49.7152 -17.3238 -6160.33
155.823 674.508 0 -155.823 -674.508 -34762 107.544 325.717 -8385.73 -107.544 -325.717 -11855.1 48.057 93.7828 -8452.93 -48.057 -93.7828 -5971.49 171.809 -163.557 -3.63798e-12 -171.809 163.557 -34618.9 95.9865 4.83467 -7384.59 -95.9865 -4.83467 -10359.1 46.2001 18.9672 -7816.1 -46.2001 -18.9672 -5917.75
154.589 697.75 -1.45519e-11 -154.589 -697.75 -34634.5 132.372 334.602 -10703.1 -132.372 -334.602 -14180.5 44.2201 91.768 -7596.4 -44.2201 -91.768 -5682.25 171.374 -186.799 -3.63798e-12 -171.374 186.799 -34426.8 122.305 -4.05057 -9813.78 -122.305 4.05057 -12783.2 42.0563 20.982 -6889.63 -42.0563 -20.982 -5618.22
152.282 720.259 0 -152.282 -720.259 -34268.3 158.342 343.413 -13142.2 -158.342 -343.413 -16598.1 39.9901 89.4971 -6661.06 -39.9901 -89.4971 -5354.1 169.709 -209.308 7.27596e-12 -169.709 209.308 -33988.3 149.841 -12.8618 -12368.2 -149.841 12.8618 -15304.3 37.4998 23.2529 -5880.36 -37.4998 -23.2529 -5279.16
149.411 741.653 0 -149.411 -741.653 -33772.1 184.301 351.855 -15588 -184.301 -351.855 -19008.2 35.5826 87.0939 -5693.36 -35.5826 -87.0939 -5005.23 167.363 -230.702 1.81899e-11 -167.363 230.702 -33417.1 177.378 -21.3033 -14928.3 -177.378 21.3033 -17818.3 32.7625 25.6561 -4838.11 -32.7625 -25.6561 -4919.23
146.487 761.541 1.09139e-11 -146.487 -761.541 -33255 209.089 359.629 -17924.3 -209.089 -359.629 -21310.1 31.2161 84.6836 -4740.24 -31.2161 -84.6836 -4654.02 164.891 -250.59 -1.81899e-11 -164.891 250.59 -32827.2 203.69 -29.077 -17373.5 -203.69 29.077 -20219.6 28.0784 28.0664 -3813.22 -28.0784 -28.0664 -4557.35
143.962 779.526 7.27596e-12 -143.962 -779.526 -32814.3 231.614 366.456 -20042.1 -231.614 -366.456 -23408.2 27.0999 82.3866 -3846.58 -27.0999 -82.3866 -4318.21 162.789 -268.575 -7.27596e-12 -162.789 268.575 -32320.7 227.617 -35.9044 -19590.7 -227.617 35.9044 -22408.5 23.6715 30.3634 -2853.82 -23.6715 -30.3634 -4211.73
142.216 795.235 0 -142.216 -795.235 -32532.2 250.905 372.093 -21844.8 -250.905 -372.093 -25217.1 23.4248 80.3129 -3053.08 -23.4248 -80.3129 -4014.02 161.481 -284.284 7.27596e-12 -161.481 284.284 -31983.6 248.125 -41.5417 -21479.4 -248.125 41.5417 -24295.2 19.7451 32.4371 -2003.51 -19.7451 -32.4371 -3899.01
141.553 808.348 -1.81899e-11 -141.553 -808.348 -32474.4 266.152 376.343 -23252.4 -266.152 -376.343 -26665 20.3534 78.5567 -2394.34 -20.3534 -78.5567 -3755.39 161.307 -297.398 -3.63798e-12 -161.307 297.398 -31885.1 264.354 -45.7916 -22956.6 -264.354 45.7916 -25805 16.4722 34.1933 -1299.3 -16.4722 -34.1933 -3633.5
141.574 817.046 -3.63798e-12 -141.574 -817.046 -32552.6 275.701 378.891 -24058.8 -275.701 -378.891 -27649.7 18.0861 77.2048 -1914.91 -18.0861 -77.2048 -3557.39 162.319 -306.095 -1.09139e-11 -162.319 306.095 -32042.6 275.349 -48.3394 -23921.8 -275.349 48.3394 -26863.7 14.0014 35.5452 -772.739 -14.0014 -35.5452 -3427.82
142.333 821.894 -7.27596e-12 -142.333 -821.894 -32782.7 278.717 379.518 -24172.8 -278.717 -379.518 -28106.5 16.7357 76.3201 -1643.42 -16.7357 -76.3201 -3424.91 164.651 -310.943 2.18279e-11 -164.651 310.943 -32480.4 280.83 -48.9666 -24355.8 -280.83 48.9666 -27439.8 12.4002 36.4299 -436.251 -12.4002 -36.4299 -3289.65
144.759 824.233 2.91038e-11 -144.759 -824.233 -33359.9 277.503 378.755 -23905.1 -277.503 -378.755 -28151.6 16.1693 75.8825 -1541.57 -16.1693 -75.8825 -3356.88 168.447 -313.282 -7.27596e-12 -168.447 313.282 -33223.3 281.1 -48.2031 -24297.5 -281.1 48.2031 -27549 11.7024 36.8675 -297.207 -11.7024 -36.8675 -3221.73
148.828 824.06 0 -148.828 -824.06 -34277.4 272.464 376.646 -23305 -272.464 -376.646 -27811.2 16.369 75.8991 -1601.83 -16.369 -75.8991 -3355.48 173.543 -313.109 7.27596e-12 -173.543 313.109 -34238.6 276.316 -46.0941 -23754.9 -276.316 46.0941 -27212.7 11.9093 36.8509 -360.374 -11.9093 -36.8509 -3219.72
154.177 821.607 3.63798e-12 -154.177 -821.607 -35460.4 262.933 373.188 -22275 -262.933 -373.188 -27059.5 17.361 76.3459 -1834.99 -17.361 -76.3459 -3417.59 179.922 -310.656 -1.45519e-11 -179.922 310.656 -35523 266.824 -42.6368 -22771.1 -266.824 42.6368 -26451.2 12.954 36.4041 -605.304 -12.954 -36.4041 -3284.27
157.292 814.384 -3.63798e-12 -157.292 -814.384 -36176.8 251.353 369.076 -21132.6 -251.353 -369.076 -26033.5 18.9469 77.1641 -2192.98 -18.9469 -77.1641 -3532.36 183.188 -303.433 7.27596e-12 -183.188 303.433 -36185.6 255.115 -38.524 -21653.4 -255.115 38.524 -25415.6 14.6477 35.5859 -990.213 -14.6477 -35.5859 -3401.19
157.575 801.885 -7.27596e-12 -157.575 -801.885 -36300.8 237.966 364.512 -19872 -237.966 -364.512 -24785.2 21.0973 78.2765 -2672.23 -21.0973 -78.2765 -3694.43 183.749 -290.934 3.63798e-12 -183.749 290.934 -36314 241.136 -33.9605 -20381.9 -241.136 33.9605 -24115.3 16.9287 34.4735 -1494.36 -16.9287 -34.4735 -3572.91
157.931 787.006 -3.63798e-12 -157.931 -787.006 -36442.6 221.756 358.97 -18348.4 -221.756 -358.97 -23272.1 23.754 79.687 -3260.71 -23.754 -79.687 -3898.46 184.352 -276.056 1.09139e-11 -184.352 276.056 -36460.5 224.371 -28.4183 -18850.1 -224.371 28.4183 -22562.1 19.7153 33.063 -2114.67 -19.7153 -33.063 -3778.13
158.362 770.311 -2.18279e-11 -158.362 -770.311 -36603.8 203.402 352.817 -16623.5 -203.402 -352.817 -21559.9 26.7496 81.2761 -3924.31 -26.7496 -81.2761 -4128.64 185.015 -259.36 -2.18279e-11 -185.015 259.36 -36627.8 205.427 -22.2653 -17121.6 -205.427 22.2653 -20803.1 22.9019 31.4739 -2818.68 -22.9019 -31.4739 -4018.07
158.868 752.266 -3.63798e-12 -158.868 -752.266 -36782.1 183.711 346.156 -14776.2 -183.711 -346.156 -19721.2 29.9491 82.9802 -4632.21 -29.9491 -82.9802 -4375.47 185.717 -241.315 -2.91038e-11 -185.717 241.315 -36812.3 185.021 -15.6041 -15255.6 -185.021 15.6041 -18911.3 26.3008 29.7698 -3572.56 -26.3008 -29.7698 -4270.85
159.437 733.537 3.63798e-12 -159.437 -733.537 -36972 163.317 339.16 -12859.1 -163.317 -339.16 -17822.1 33.209 84.7018 -5355.99 -33.209 -84.7018 -4624.48 186.434 -222.586 2.91038e-11 -186.434 222.586 -37008.8 163.962 -8.60833 -13329.6 -163.962 8.60833 -16957.7 29.756 28.0482 -4339.15 -29.756 -28.0482 -4527.43
160.054 714.767 -1.81899e-11 -160.054 -714.767 -37166.1 143.013 332.04 -10947.7 -143.013 -332.04 -15935.4 36.356 86.3483 -6057.95 -36.356 -86.3483 -4861.56 187.132 -203.816 2.54659e-11 -187.132 203.816 -37209.8 143.044 -1.48886 -11414.2 -143.044 1.48886 -15018.2 33.0912 26.4017 -5081.93 -33.0912 -26.4017 -4772.09
160.7 696.58 0 -160.7 -696.58 -37356.6 123.608 325.01 -9119.33 -123.608 -325.01 -14134.8 39.2213 87.8265 -6701.13 -39.2213 -87.8265 -5073.24 187.78 -185.629 -3.63798e-12 -187.78 185.629 -37407 123.054 5.54142 -9579.36 -123.054 -5.54142 -13168.1 36.1439 24.9235 -5766.6 -36.1439 -24.9235 -4991.1
161.344 679.588 1.09139e-11 -161.344 -679.588 -37536.3 105.795 318.245 -7436.37 -105.795 -318.245 -12487.4 41.6658 89.0509 -7255.98 -41.6658 -89.0509 -5247.38 188.355 -168.637 7.27596e-12 -188.355 168.637 -37592.8 104.747 12.3067 -7894.83 -104.747 -12.3067 -11476.9 38.7507 23.6991 -6358 -38.7507 -23.6991 -5171.28
161.954 664.335 3.63798e-12 -161.954 -664.335 -37699.7 90.2427 311.916 -5960.62 -90.2427 -311.916 -11055.9 43.5586 89.9469 -7694.62 -43.5586 -89.9469 -5372.68 188.852 -153.384 1.09139e-11 -188.852 153.384 -37761.9 88.7962 18.6358 -6421.82 -88.7962 -18.6358 -10008 40.7726 22.8031 -6826.02 -40.7726 -22.8031 -5301.61
162.5 651.313 -1.81899e-11 -162.5 -651.313 -37844.1 77.5314 306.19 -4746.6 -77.5314 -306.19 -9893.75 44.7825 90.4517 -7991.69 -44.7825 -90.4517 -5439.45 189.28 -140.363 -1.81899e-11 -189.28 140.363 -37911 75.7835 24.3612 -5212.8 -75.7835 -24.3612 -8816.76 42.0934 22.2983 -7145.95 -42.0934 -22.2983 -5372.54
162.951 640.936 0 -162.951 -640.936 -37968.1 68.0995 301.206 -3834.41 -68.0995 -301.206 -9042.41 45.253 90.5172 -8128.76 -45.253 -90.5172 -5440.83 189.657 -129.985 2.54659e-11 -189.657 129.985 -38038.8 66.1838 29.3457 -4311.37 -66.1838 -29.3457 -7947.67 42.6234 22.2328 -7298.37 -42.6234 -22.2328 -5376.9
163.287 633.499 -1.81899e-11 -163.287 -633.499 -38071 62.2772 297.065 -3254.34 -62.2772 -297.065 -8532.76 44.9194 90.114 -8094.62 -44.9194 -90.114 -5372.91 189.998 -122.549 -3.63798e-11 -189.998 122.549 -38144.5 60.3303 33.4867 -3748.3 -60.3303 -33.4867 -7431.85 42.3035 22.636 -7270.3 -42.3035 -22.636 -5310.18
163.489 629.191 3.63798e-12 -163.489 -629.191 -38151.8 60.2616 293.845 -3024.97 -60.2616 -293.845 -8382.75 43.7598 89.232 -7884.29 -43.7598 -89.232 -5234.16 190.314 -118.24 1.45519e-11 -190.314 118.24 -38226.9 58.4142 36.7062 -3541.36 -58.4142 -36.7062 -7287.2 41.1105 23.518 -7056.31 -41.1105 -23.518 -5170.91
163.549 628.092 -7.27596e-12 -163.549 -628.092 -38209 62.0971 291.6 -3150.96 -62.0971 -291.6 -8595.82 41.783 87.8807 -7499.36 -41.783 -87.8807 -5025.83 190.604 -117.141 3.63798e-12 -190.604 117.141 -38284.7 60.4843 38.9515 -3695.58 -60.4843 -38.9515 -7517.88 39.0572 24.8693 -6658.51 -39.0572 -24.8693 -4960.67
163.464 630.16 2.18279e-11 -163.464 -630.16 -38241 67.6903 290.347 -3624.53 -67.6903 -290.347 -9162.25 39.0332 86.0889 -6948.76 -39.0332 -86.0889 -4752.32 190.862 -119.209 0 -190.862 119.209 -38316 66.4373 40.2046 -4202.16 -66.4373 -40.2046 -8113.69 36.1912 26.6612 -6086.39 -36.1912 -26.6612 -4683.88
163.049 635.112 -1.81899e-11 -163.049 -635.112 -38206.1 76.89 290.091 -4436.25 -76.89 -290.091 -10063.2 35.5849 83.9046 -6247.78 -35.5849 -83.9046 -4420.83 190.793 -124.161 -2.54659e-11 -190.793 124.161 -38262.6 76.1429 40.4603 -5054.94 -76.1429 -40.4603 -9056.64 32.5876 28.8454 -5355.21 -32.5876 -28.8454 -4347.4
161.027 641.529 1.09139e-11 -161.027 -641.529 -37830.3 89.8549 290.988 -5626.16 -89.8549 -290.988 -11287.5 31.5226 81.3804 -5412.77 -31.5226 -81.3804 -4040.47 188.984 -130.578 -1.81899e-11 -188.984 130.578 -37845.1 89.8543 39.5637 -6306.65 -89.8543 -39.5637 -10340.4 28.3223 31.3696 -4478.33 -28.3223 -31.3696 -3960.2
157.211 648.874 1.09139e-11 -157.211 -648.874 -37070.3 106.118 292.937 -7154.7 -106.118 -292.937 -12788.1 26.9877 78.6033 -4473.78 -26.9877 -78.6033 -3623.65 185.236 -137.923 7.27596e-12 -185.236 137.923 -37027.6 107.02 37.6141 -7907.66 -107.02 -37.6141 -11912.5 23.5481 34.1467 -3487.77 -23.5481 -34.1467 -3535.39
151.784 656.702 -1.45519e-11 -151.784 -656.702 -35960.8 124.912 295.783 -8949.1 -124.912 -295.783 -14494.5 22.1493 75.6735 -3466.61 -22.1493 -75.6735 -3185.15 179.712 -145.751 0 -179.712 145.751 -35847.4 126.831 34.7686 -9781.89 -126.831 -34.7686 -13699.2 18.4447 37.0765 -2421.65 -18.4447 -37.0765 -3088.02
145.065 664.593 -1.09139e-11 -145.065 -664.593 -34566.8 145.277 299.3 -10916.1 -145.277 -299.3 -16321.7 17.1999 72.7029 -2432.11 -17.1999 -72.7029 -2741.65 172.735 -153.642 7.27596e-12 -172.735 153.642 -34373.8 148.302 31.2512 -11833.9 -148.302 -31.2512 -15613.6 13.2195 40.0471 -1324.55 -13.2195 -40.0471 -2634.95
139.044 670.669 -3.63798e-12 -139.044 -670.669 -33306.1 161.99 302.419 -12543.8 -161.99 -302.419 -17808.3 13.3005 70.3767 -1614.74 -13.3005 -70.3767 -2395.09 166.4 -159.718 -2.54659e-11 -166.4 159.718 -33045.6 165.916 28.1328 -13529.6 -165.916 -28.1328 -17171.1 9.09979 42.3733 -456.335 -9.09979 -42.3733 -2280.57
132.711 676.306 -1.45519e-11 -132.711 -676.306 -31971 178.458 305.646 -14157.9 -178.458 -305.646 -19263.2 9.5721 68.1623 -831.721 -9.5721 -68.1623 -2065.65 159.671 -165.355 1.45519e-11 -159.671 165.355 -31642.2 183.268 24.9056 -15209.4 -183.268 -24.9056 -18695.3 5.15771 44.5877 376.682 -5.15771 -44.5877 -1943.39
126.305 681.298 1.09139e-11 -126.305 -681.298 -30612.5 194.112 308.832 -15701.7 -194.112 -308.832 -20637 6.11974 66.1193 -105.59 -6.11974 -66.1193 -1762.03 152.805 -170.347 -3.63798e-12 -152.805 170.347 -30217.2 199.76 21.7193 -16814.6 -199.76 -21.7193 -20134.5 1.50524 46.6307 1150.29 -1.50524 -46.6307 -1632.5
120.057 685.445 -4.00178e-11 -120.057 -685.445 -29279.2 208.41 311.834 -17121.2 -208.41 -311.834 -21882.7 3.04162 64.3036 542.629 -3.04162 -64.3036 -1492.41 146.049 -174.494 2.91038e-11 -146.049 174.494 -28821.5 214.821 18.7179 -18289.3 -214.821 -18.7179 -21439.8 -1.75246 48.4464 1841.62 1.75246 -48.4464 -1356.34
114.17 688.555 -2.54659e-11 -114.17 -688.555 -28014.7 220.858 314.514 -18367.1 -220.858 -314.514 -22957 0.427256 62.7656 1093.79 -0.427256 -62.7656 -1264.21 139.623 -177.604 7.27596e-12 -139.623 177.604 -27500.8 227.929 16.0372 -19582.1 -227.929 -16.0372 -22565.9 -4.52047 49.9844 2429.98 4.52047 -49.9844 -1122.49
108.823 690.453 -1.81899e-11 -108.823 -690.453 -26857 231.023 316.752 -19396.3 -231.023 -316.752 -23822.4 -1.64558 61.5485 1531.19 1.64558 -61.5485 -1083.82 133.719 -179.502 -2.91038e-11 -133.719 179.502 -26294.7 238.626 13.7995 -20648.3 -238.626 -13.7995 -23473.3 -6.71721 51.2015 2897.58 6.71721 -51.2015 -937.482
104.15 690.985 -3.63798e-12 -104.15 -690.985 -25834.7 238.55 318.444 -20173.5 -238.55 -318.444 -24447.8 -3.11448 60.6871 1841.41 3.11448 -60.6871 -956.327 128.484 -180.034 1.09139e-11 -128.484 180.034 -25233.5 246.537 12.1076 -21451.2 -246.537 -12.1076 -24129.7 -8.27696 52.0629 3230.06 8.27696 -52.0629 -806.549
100.227 690.007 -2.54659e-11 -100.227 -690.007 -24963.6 243.185 319.514 -20673.9 -243.185 -319.514 -24810.1 -3.93507 60.2062 2014.87 3.93507 -60.2062 -885.314 123.998 -179.056 7.27596e-12 -123.998 179.056 -24333.9 251.39 11.038 -21965.1 -251.39 -11.038 -24511 -9.15219 52.5438 3417.01 9.15219 -52.5438 -733.464
97.0566 687.38 1.09139e-11 -97.0566 -687.38 -24243.5 244.779 319.912 -20883.7 -244.779 -319.912 -24895.4 -4.08189 60.1203 2046.09 4.08189 -60.1203 -872.831 120.259 -176.429 3.63798e-12 -120.259 176.429 -23596.1 253.028 10.6391 -22175.6 -253.028 -10.6391 -24602.7 -9.31541 52.6297 3452.38 9.31541 -52.6297 -720.375
94.5698 682.973 -2.54659e-11 -94.5698 -682.973 -23658.6 243.295 319.62 -20801.1 -243.295 -319.62 -24698.6 -3.54848 60.4324 1933.62 3.54848 -60.4324 -919.36 117.185 -172.022 -1.45519e-11 -117.185 172.022 -23004 251.413 10.9312 -22080.5 -251.413 -10.9312 -24399.6 -8.75995 52.3176 3334.67 8.75995 -52.3176 -767.76
92.6344 676.667 7.27596e-12 -92.6344 -676.667 -23178.9 238.802 318.643 -20434.9 -238.802 -318.643 -24223.8 -2.34745 61.1349 1680.11 2.34745 -61.1349 -1023.8 114.622 -165.716 1.09139e-11 -114.622 165.716 -22527.1 246.615 11.9081 -21688.8 -246.615 -11.9081 -23906 -7.49956 51.6151 3066.8 7.49956 -51.6151 -874.44
91.082 668.376 3.63798e-12 -91.082 -668.376 -22767.2 231.46 317.01 -19802.8 -231.46 -317.01 -23482.6 -0.509581 62.2096 1292 0.509581 -62.2096 -1183.48 112.38 -157.425 1.63709e-11 -112.38 157.425 -22127.2 238.802 13.5415 -21018.8 -238.802 -13.5415 -23134.3 -5.56686 50.5404 2655.79 5.56686 -50.5404 -1037.67
89.747 658.076 -3.63798e-12 -89.747 -658.076 -22387.4 221.491 314.763 -18928.3 -221.491 -314.763 -22493.4 1.91795 63.6288 779.186 -1.91795 -63.6288 -1394.29 110.275 -147.125 -9.09495e-12 -110.275 147.125 -21766.8 228.208 15.7888 -20094.6 -228.208 -15.7888 -22103.6 -3.01119 49.1211 2112.19 3.01119 -49.1211 -1253.28
88.4955 645.818 3.63798e-12 -88.4955 -645.818 -22011.1 209.163 311.952 -17838.4 -209.163 -311.952 -21279.3 4.87392 65.3567 154.444 -4.87392 -65.3567 -1650.85 108.166 -134.867 0 -108.166 134.867 -21416.5 215.118 18.5997 -18944.1 -215.118 -18.5997 -20838.1 0.103533 47.3933 1449.59 -0.103533 -47.3933 -1515.76
87.2429 631.74 -3.63798e-12 -87.2429 -631.74 -21621.8 194.772 308.631 -16561.2 -194.772 -308.631 -19867.6 8.28528 67.3496 -567.005 -8.28528 -67.3496 -1946.68 105.972 -120.79 -7.27596e-12 -105.972 120.79 -21058.4 199.846 21.9209 -17596.8 -199.846 -21.9209 -19366.4 3.70095 45.4004 684.151 -3.70095 -45.4004 -1818.5
85.9506 616.057 3.63798e-12 -85.9506 -616.057 -21213.4 178.639 304.854 -15126.4 -178.639 -304.854 -18288.7 12.0689 69.5579 -1367.86 -12.0689 -69.5579 -2274.38 103.668 -105.106 7.27596e-12 -103.668 105.106 -20685.5 182.732 25.6971 -16083.5 -182.732 -25.6971 -17720.1 7.6941 43.1921 -165.814 -7.6941 -43.1921 -2153.89
84.5993 599.028 -1.27329e-11 -84.5993 -599.028 -20784.7 161.112 300.683 -13565.6 -161.112 -300.683 -16576 16.1328 71.9265 -2228.98 -16.1328 -71.9265 -2625.71 101.253 -88.0766 3.27418e-11 -101.253 88.0766 -20295.5 164.148 29.8687 -14437.6 -164.148 -29.8687 -15934.2 11.9868 40.8235 -1080.1 -11.9868 -40.8235 -2513.51
83.1575 580.926 7.27596e-12 -83.1575 -580.926 -20331.4 142.573 296.183 -11913.9 -142.573 -296.183 -14766.1 20.3777 74.3963 -3129.69 -20.3777 -74.3963 -2991.81 98.7131 -69.9752 5.45697e-12 -98.7131 69.9752 -19883.1 144.499 34.3682 -12695.9 -144.499 -34.3682 -14046.9 16.4753 38.3537 -2036.86 -16.4753 -38.3537 -2888.31
81.5656 562.017 -3.63798e-12 -81.5656 -562.017 -19843.2 123.437 291.431 -10209.8 -123.437 -291.431 -12897.7 24.6998 76.905 -4048.22 -24.6998 -76.905 -3363.38 96.0006 -51.0663 -3.63798e-12 -96.0006 51.0663 -19436.7 124.227 39.1204 -10898.8 -124.227 -39.1204 -12098.7 21.0499 35.845 -3013.07 -21.0499 -35.845 -3268.81
79.7415 542.552 2.36469e-11 -79.7415 -542.552 -19304.9 104.137 286.506 -8494.09 -104.137 -286.506 -11011 28.9925 79.389 -4962.34 -28.9925 -79.389 -3730.95 93.0428 -31.6016 1.63709e-11 -93.0428 31.6016 -18939.5 103.787 44.0455 -9088.82 -103.787 -44.0455 -10131.7 25.5985 33.361 -3985.11 -25.5985 -33.361 -3645.31
77.5978 522.777 -1.81899e-11 -77.5978 -522.777 -18699.9 85.104 281.488 -6807.29 -85.104 -281.488 -9146.11 33.1506 81.785 -5849.91 -33.1506 -81.785 -4085.07 89.761 -11.8258 -3.63798e-12 -89.761 11.8258 -18373.5 83.6382 49.0636 -7308.54 -83.6382 -49.0636 -8187.54 30.0092 30.965 -4929.48 -30.0092 -30.965 -4008.18
75.0559 502.93 1.45519e-11 -75.0559 -502.93 -18013.3 66.7548 276.452 -5188.3 -66.7548 -276.452 -7341.37 37.0717 84.0317 -6689.51 -37.0717 -84.0317 -4416.6 86.0848 8.02085 -1.45519e-11 -86.0848 -8.02085 -17722.4 64.2168 54.0991 -5598.63 -64.2168 -54.0991 -6306.56 34.1736 28.7183 -5823.49 -34.1736 -28.7183 -4348.07
72.0478 483.242 0 -72.0478 -483.242 -17232.7 49.4759 271.468 -3673.21 -49.4759 -271.468 -5632.77 40.6598 86.0711 -7460.95 -40.6598 -86.0711 -4716.88 81.9548 27.7089 0 -81.9548 -27.7089 -16972.5 45.9305 59.0831 -3996.86 -45.9305 -59.0831 -4526.37 37.9898 26.6789 -6645.81 -37.9898 -26.6789 -4656.15
68.5121 463.918 0 -68.5121 -463.918 -16346.5 33.6183 266.597 -2294.71 -33.6183 -266.597 -4052.89 43.8268 87.8501 -8145.79 -43.8268 -87.8501 -4977.95 77.3166 47.0326 1.63709e-11 -77.3166 -47.0326 -16111.1 29.1484 63.9547 -2537.46 -29.1484 -63.9547 -2881.09 41.3641 24.8999 -7376.94 -41.3641 -24.8999 -4924.29
64.3937 445.134 2.00089e-11 -64.3937 -445.134 -15344.6 19.4888 261.889 -1081.33 -19.4888 -261.889 -2630.13 46.495 89.3214 -8727.75 -46.495 -89.3214 -5192.75 72.1207 65.8169 2.54659e-11 -72.1207 -65.8169 -15126.9 14.1919 68.6627 -1250.3 -14.1919 -68.6627 -1400.47 44.2138 23.4286 -7999.67 -44.2138 -23.4286 -5145.32
59.6483 427.031 1.63709e-11 -59.6483 -427.031 -14218.4 7.33949 257.383 -56.4314 -7.33949 -257.383 -1387.92 48.5988 90.4449 -9193.12 -48.5988 -90.4449 -5355.27 66.3271 83.9204 1.27329e-11 -66.3271 -83.9204 -14010.5 1.32508 73.1685 -159.904 -1.32508 -73.1685 -109.009 46.469 22.3051 -8499.53 -46.469 -22.3051 -5313.09
54.2512 409.718 -7.27596e-12 -54.2512 -409.718 -12963.7 -2.64132 253.104 762.779 2.64132 -253.104 -343.896 50.0865 91.1886 -9531.13 -50.0865 -91.1886 -5460.69 59.9147 101.233 5.45697e-12 -59.9147 -101.233 -12757.1 -9.2558 77.4474 715.703 9.2558 -77.4474 974.797 48.0747 21.5614 -8865.15 -48.0747 -21.5614 -5422.72
48.2024 393.277 -7.27596e-12 -48.2024 -393.277 -11581 -10.3364 249.061 1366.02 10.3364 -249.061 490.58 50.9208 91.5291 -9734.16 -50.9208 -91.5291 -5505.48 52.8866 117.674 1.45519e-11 -52.8866 -117.674 -11366.7 -17.4288 81.491 1365.67 17.4288 -81.491 1839.04 48.9915 21.2209 -9088.57 -48.9915 -21.2209 -5470.62
41.5274 377.755 -1.81899e-11 -41.5274 -377.755 -10075.9 -15.7021 245.245 1750.13 15.7021 -245.245 1110.68 51.0805 91.4522 -9797.93 -51.0805 -91.4522 -5487.49 45.271 133.196 -1.18234e-11 -45.271 -133.196 -9845.15 -23.1488 85.3069 1786.55 23.1488 -85.3069 2478.65 49.197 21.2978 -9165.34 -49.197 -21.2978 -5454.59
34.2771 363.17 4.54747e-12 -34.2771 -363.17 -8459.35 -18.7682 241.632 1919.11 18.7682 -241.632 1518.14 50.5595 90.9532 -9721.5 -50.5595 -90.9532 -5405.92 37.1208 147.781 1.09139e-11 -37.1208 -147.781 -8203.42 -26.4482 88.9193 1982.36 26.4482 -88.9193 2895.43 48.6858 21.7968 -9094.6 -48.6858 -21.7968 -5373.87
26.526 349.505 -2.72848e-12 -26.526 -349.505 -6746.82 -19.6365 238.184 1883.84 19.6365 -238.184 1721.04 49.3679 90.0363 -9507.28 -49.3679 -90.0363 -5261.35 28.5119 161.446 0 -28.5119 -161.446 -6457.64 -27.434 92.3672 1964.3 27.434 -92.3672 3097.85 47.4691 22.7137 -8879.01 -47.4691 -22.7137 -5229.06
18.3687 336.717 -2.81943e-11 -18.3687 -336.717 -4957.91 -18.4747 234.848 1661.57 18.4747 -234.848 1733.46 47.5301 88.7149 -9160.79 -47.5301 -88.7149 -5055.7 19.54 174.234 0 -19.54 -174.234 -4628.19 -26.2826 95.7034 1750.17 26.2826 -95.7034 3100.65 45.5742 24.0351 -8524.56 -45.5742 -24.0351 -5022.14
9.91872 324.732 -2.72848e-12 -9.91872 -324.732 -3115.97 -15.5115 231.559 1275.39 15.5115 -231.559 1574.9 45.0847 87.0104 -8690.51 -45.0847 -87.0104 -4792.1 10.319 186.219 8.41283e-12 -10.319 -186.219 -2739.49 -23.2338 98.9924 1363.88 23.2338 -98.9924 2924.26 43.0431 25.7396 -8040.37 -43.0431 -25.7396 -4756.34
1.30629 313.454 -7.27596e-12 -1.30629 -313.454 -1247.78 -11.0339 228.242 754.193 11.0339 -228.242 1269.84 42.0827 84.9521 -8107.59 -42.0827 -84.9521 -4474.84 0.981116 197.497 4.77485e-12 -0.981116 -197.497 -819.839 -18.5834 102.309 834.675 18.5834 -102.309 2594.09 39.9314 27.7979 -7438.34 -39.9314 -27.7979 -4436.02
-5.56219 304.323 -2.27374e-12 5.56219 -304.323 250.678 -5.99875 224.568 216.59 5.99875 -224.568 876.824 38.6096 82.5769 -7430.87 -38.6096 -82.5769 -4110.69 -5.49602 206.628 -2.84217e-12 5.49602 -206.628 522.556 -14.0922 105.983 386.241 14.0922 -105.983 2211.97 36.3885 30.1731 -6752.09 -36.3885 -30.1731 -4071.73
-10.2592 297.339 -9.20863e-12 10.2592 -297.339 1292.51 -0.883379 220.368 -286.055 0.883379 -220.368 433.06 34.7269 79.9637 -6674.04 -34.7269 -79.9637 -3704.56 -10.6053 213.612 1.04592e-11 10.6053 -213.612 1592.46 -9.01722 110.183 -82.4828 9.01722 -110.183 1741.72 32.424 32.7863 -5989.32 -32.424 -32.7863 -3658.33
-14.8651 290.668 4.77485e-12 14.8651 -290.668 2310.09 4.86369 216.136 -833.192 -4.86369 -216.136 -83.5657 30.4839 77.08 -5848.13 -30.4839 -77.08 -3260.25 -15.5086 220.283 -1.00044e-11 15.5086 -220.283 2622 -3.29237 114.416 -614.829 3.29237 -114.416 1214.53 28.0628 35.67 -5139.95 -28.0628 -35.67 -3213.27
-19.3053 284.108 4.54747e-13 19.3053 -284.108 3288.6 10.9709 211.563 -1406.36 -10.9709 -211.563 -640.989 25.949 74.0084 -4964.49 -25.949 -74.0084 -2787.1 -20.2465 226.843 -2.27374e-12 20.2465 -226.843 3618.45 2.96474 118.989 -1184.41 -2.96474 -118.989 625.827 23.4063 38.7416 -4236.05 -23.4063 -38.7416 -2734.27
-23.5604 277.56 -7.7307e-12 23.5604 -277.56 4224.54 17.2996 206.748 -1992.99 -17.2996 -206.748 -1225.91 21.1902 70.7803 -4039.07 -21.1902 -70.7803 -2289.58 -24.7772 233.391 3.63798e-12 24.7772 -233.391 4572.76 9.35421 123.804 -1761.03 -9.35421 -123.804 19.4696 18.5246 41.9697 -3286.73 -18.5246 -41.9697 -2232.97
-27.6393 270.846 -6.36646e-12 27.6393 -270.846 5120.49 23.505 201.624 -2561.38 -23.505 -201.624 -1806.03 16.283 67.448 -3086.77 -16.283 -67.448 -1775.43 -29.1103 240.105 -1.81899e-12 29.1103 -240.105 5486.63 15.6557 128.928 -2322.98 -15.6557 -128.928 -585.38 13.4976 45.302 -2310.69 -13.4976 -45.302 -1714.25
-31.5736 263.793 -1.81899e-12 31.5736 -263.793 5983.81 29.3217 196.188 -3087.84 -29.3217 -196.188 -2355.68 11.3022 64.0558 -2122.92 -11.3022 -64.0558 -1251.69 -33.2761 247.158 0 33.2761 -247.158 6366.35 21.5989 134.363 -2847.18 -21.5989 -134.363 -1161.69 8.40475 48.6942 -1323.75 -8.40475 -48.6942 -1185.86
-35.4007 256.171 1.81899e-12 35.4007 -256.171 6823.2 34.5719 190.42 -3558.92 -34.5719 -190.42 -2855.3 6.32338 60.6508 -1162.93 -6.32338 -60.6508 -725.588 -37.3217 254.78 2.72848e-12 37.3217 -254.78 7221.84 26.9424 140.132 -3312.43 -26.9424 -140.132 -1685.86 3.32897 52.0992 -342.92 -3.32897 -52.0992 -655.364
-39.1659 247.779 2.72848e-12 39.1659 -247.779 7648.68 39.0596 184.298 -3958.29 -39.0596 -184.298 -3284.83 1.4237 57.2804 -222.661 -1.4237 -57.2804 -204.196 -41.295 263.172 -1.81899e-12 41.295 -263.172 8063.44 31.4631 146.253 -3699.79 -31.4631 -146.253 -2135.34 -1.65558 55.4696 616.444 1.65558 -55.4696 -129.488
-42.9156 238.408 2.72848e-12 42.9156 -238.408 8470.3 42.5763 177.765 -4267.25 -42.5763 -177.765 -3624.28 -3.36564 53.943 686.368 3.36564 -53.943 314.654 -45.2359 272.543 0 45.2359 -272.543 8900.02 34.964 152.787 -3992.68 -34.964 -152.787 -2490.1 -6.50979 58.807 1542.43 6.50979 -58.807 391.966
-46.6835 227.974 6.36646e-12 46.6835 -227.974 9294.93 44.9303 170.877 -4470.31 -44.9303 -170.877 -3853.73 -7.93838 50.7218 1548.44 7.93838 -50.7218 815.152 -49.1735 282.977 3.63798e-12 49.1735 -282.977 9738.38 37.2466 159.674 -4174.08 -37.2466 -159.674 -2730.21 -11.137 62.0282 2418.92 11.137 -62.0282 896.304
-50.4845 216.351 5.45697e-12 50.4845 -216.351 10125.4 45.978 163.63 -4555.91 -45.978 -163.63 -3958.17 -12.2427 47.6575 2352.85 12.2427 -47.6575 1292.68 -53.1201 294.6 -2.72848e-12 53.1201 -294.6 10581.8 38.1229 166.922 -4228.08 -38.1229 -166.922 -2836.53 -15.482 65.0925 3234.91 15.482 -65.0925 1378.01
-54.3169 203.442 4.54747e-12 54.3169 -203.442 10960.7 45.5718 156.005 -4511.24 -45.5718 -156.005 -3923.21 -16.2265 44.7811 3089.3 16.2265 -44.7811 1742.15 -57.0658 307.509 -3.63798e-12 57.0658 -307.509 11428.9 37.4582 174.546 -4142.8 -37.4582 -174.546 -2795.78 -19.4791 67.9689 3978.14 19.4791 -67.9689 1829.61
-58.164 189.235 5.45697e-12 58.164 -189.235 11796.5 43.5692 148.024 -4324.73 -43.5692 -148.024 -3734.26 -19.8545 42.1244 3751.43 19.8545 -42.1244 2159.53 -60.987 321.716 1.81899e-12 60.987 -321.716 12275.3 35.1352 182.528 -3907.19 -35.1352 -182.528 -2597.01 -23.0897 70.6256 4639.87 23.0897 -70.6256 2248.19
-62.0025 173.728 0 62.0025 -173.728 12627 39.9216 139.7 -3990.63 -39.9216 -139.7 -3388.22 -23.0773 39.7105 4329.13 23.0773 -39.7105 2540.44 -64.8525 337.223 -1.81899e-12 64.8525 -337.223 13115.2 31.0785 190.852 -3514.06 -31.0785 -190.852 -2233.2 -26.2731 73.0395 5212.23 26.2731 -73.0395 2629.35
-65.8116 156.972 3.63798e-12 65.8116 -156.972 13447 34.5973 131.072 -3505.86 -34.5973 -131.072 -2882.58 -25.868 37.5574 4817.2 25.868 -37.5574 2882.2 -68.6344 353.979 1.81899e-12 68.6344 -353.979 13943.3 25.2579 199.479 -2960.34 -25.2579 -199.479 -1701.57 -29.005 75.1926 5690.01 29.005 -75.1926 2970.85
-69.5797 139.034 0 69.5797 -139.034 14253.2 27.5981 122.181 -2870.84 -27.5981 -122.181 -2217.54 -28.2139 35.6755 5213.55 28.2139 -35.6755 3183.26 -72.313 371.917 -1.81899e-12 72.313 -371.917 14756 17.6868 208.37 -2247.15 -17.6868 -208.37 -1003.18 -31.2696 77.0745 6070.22 31.2696 -77.0745 3270.86
-73.3073 119.992 -3.63798e-12 73.3073 -119.992 15045.1 18.9754 113.068 -2090.66 -18.9754 -113.068 -1397.75 -30.1099 34.0701 5517.68 30.1099 -34.0701 3442.77 -75.8832 390.959 0 75.8832 -390.959 15553 8.42212 217.483 -1379.79 -8.42212 -217.483 -143.113 -33.0627 78.6799 6352.27 33.0627 -78.6799 3528.51
-77.0067 99.9383 -1.81899e-12 77.0067 -99.9383 15824.5 8.82809 103.78 -1174.75 -8.82809 -103.78 -432.438 -31.5595 32.7403 5730.59 31.5595 -32.7403 3660.82 -79.3511 411.013 0 79.3511 -411.013 16336.2 -2.43795 226.772 -367.617 2.43795 -226.772 870.018 -34.3909 80.0097 6538.05 34.3909 -80.0097 3743.76
-80.6942 78.9943 1.81899e-12 80.6942 -78.9943 16594.3 -2.71027 94.3695 -135.616 2.71027 -94.3695 665.985 -32.576 31.6796 5855.48 32.576 -31.6796 3838.31 -82.7278 431.957 0 82.7278 -431.957 17108.6 -14.7534 236.182 776.134 14.7534 -236.182 2023.63 -35.2713 81.0704 6631.61 35.2713 -81.0704 3917.6
-84.3808 57.3143 1.81899e-12 84.3808 -57.3143 17356.1 -15.4777 84.9006 1011.6 15.4777 -84.9006 1882.44 -33.1842 30.8751 5897.95 33.1842 -30.8751 3977.04 -86.0201 453.637 0 86.0201 -453.637 17871.8 -28.3494 245.651 2035.27 28.3494 -245.651 3301.59 -35.7303 81.8749 6638.73 35.7303 -81.8749 4051.94
-88.0645 35.0829 -3.63798e-12 88.0645 -35.0829 18109.3 -29.2863 75.4393 2249.63 29.2863 -75.4393 3199.24 -33.4173 30.3091 5865.33 33.4173 -30.3091 4079.54 -89.225 475.868 -1.81899e-12 89.225 -475.868 18625.5 -43.025 255.112 3391.48 43.025 -255.112 4684.95 -35.8019 82.4409 6566.87 35.8019 -82.4409 4149.47
-91.7279 12.5111 3.63798e-12 91.7279 -12.5111 18850 -43.9279 66.0507 3559.92 43.9279 -66.0507 4596.31 -33.3138 29.9598 5765.99 33.3138 -29.9598 4148.99 -92.3272 498.44 0 92.3272 -498.44 19365.9 -58.5604 264.501 4824.9 58.5604 -264.501 6152.74 -35.5275 82.7902 6425.08 35.5275 -82.7902 4213.47
-95.3398 -10.1668 -1.81899e-12 95.3398 10.1668 19571.9 -59.1789 56.7993 4922.92 59.1789 -56.7993 6051.77 -32.9177 29.8021 5609.2 32.9177 -29.8021 4189.11 -95.3015 521.118 3.63798e-12 95.3015 -521.118 20086.9 -74.7191 273.752 6314.27 74.7191 -273.752 7682.23 -34.9549 82.9479 6223.71 34.9549 -82.9479 4247.74
-98.8625 -32.7007 0 98.8625 32.7007 20267.8 -74.8014 47.752 6317.89 74.8014 -47.752 7542.34 -32.2783 29.8076 5405.42 32.2783 -29.8076 4204.1 -98.1199 543.652 -7.27596e-12 98.1199 -543.652 20781.3 -91.2491 282.8 7836.95 91.2491 -282.8 9249.03 -34.1363 82.9424 5974.12 34.1363 -82.9424 4256.57
-102.257 -54.8312 -1.81899e-12 102.257 54.8312 20930.4 -90.5454 38.9781 7722.95 90.5454 -38.9781 9043.76 -31.4496 29.9455 5166.06 31.4496 -29.9455 4198.53 -100.757 565.782 -5.45697e-12 100.757 -565.782 21441.9 -107.886 291.573 9369.21 107.886 -291.573 10827.4 -33.128 82.8045 5688.37 33.128 -82.8045 4244.63
-105.482 -76.2958 1.81899e-12 105.482 76.2958 21552.6 -106.155 30.5469 9115.72 106.155 -30.5469 10531.1 -30.4875 30.1837 4902.96 30.4875 -30.1837 4177.17 -103.188 587.247 3.63798e-12 103.188 -587.247 22061.7 -124.358 300.005 10886.7 124.358 -300.005 12391.1 -31.9883 82.5663 5379.02 31.9883 -82.5663 4216.85
-108.498 -96.8349 3.63798e-12 108.498 96.8349 22127.5 -121.37 22.5254 10473.6 121.37 -22.5254 11979.4 -29.4485 30.4891 4627.98 29.4485 -30.4891 4144.85 -105.394 607.786 -3.63798e-12 105.394 -607.786 22634 -140.393 308.026 12364.9 140.393 -308.026 13913.7 -30.777 82.2609 5058.85 30.777 -82.2609 4178.23
-111.272 -116.2 -3.63798e-12 111.272 116.2 22650.1 -135.933 14.9796 11774.1 135.933 -14.9796 13363.6 -28.3883 30.8291 4352.87 28.3883 -30.8291 4106.38 -107.361 627.15 0 107.361 -627.15 23153.7 -155.721 315.572 13779.2 155.721 -315.572 15368.9 -29.5532 81.9209 4740.58 29.5532 -81.9209 4133.75
-113.781 -134.158 3.63798e-12 113.781 134.158 23117.6 -149.59 7.97497 12994.5 149.59 -7.97497 14659.5 -27.3617 31.1723 4089.11 27.3617 -31.1723 4066.48 -109.088 645.108 7.27596e-12 109.088 -645.108 23618.3 -170.079 322.577 15105.4 170.079 -322.577 16731.5 -28.3741 81.5777 4436.51 28.3741 -81.5777 4088.21
-116.018 -150.498 -3.63798e-12 116.018 150.498 23529.9 -162.095 1.57484 14113.1 162.095 -1.57484 15844.2 -26.4207 31.4886 3847.62 26.4207 -31.4886 4029.62 -110.584 661.449 0 110.584 -661.449 24027.8 -183.211 328.977 16320.1 183.211 -328.977 17977.1 -27.2939 81.2614 4158.24 27.2939 -81.2614 4046.14
-117.988 -165.039 -3.63798e-12 117.988 165.039 23889.7 -173.22 -4.16088 15109.1 173.22 4.16088 16896.3 -25.6126 31.7507 3638.42 25.6126 -31.7507 3999.81 -111.871 675.99 7.27596e-12 111.871 -675.99 24385.1 -194.882 334.712 17401.3 194.882 -334.712 19083.3 -26.362 80.9993 3916.42 26.362 -80.9993 4011.73
-119.712 -177.632 0 119.712 177.632 24203.1 -182.753 -9.17702 15962.8 182.753 9.17702 17796.8 -24.9791 31.9346 3470.31 24.9791 -31.9346 3980.6 -112.984 688.583 -3.63798e-12 112.984 -688.583 24696.5 -204.876 339.729 18328.4 204.876 -339.729 20030.1 -25.6223 80.8154 3720.47 25.6223 -80.8154 3988.6
-121.233 -188.166 3.63798e-12 121.233 188.166 24479.2 -190.507 -13.4239 16656.9 190.507 13.4239 18529 -24.5551 32.0202 3350.69 24.5551 -32.0202 3974.92 -113.97 699.117 7.27596e-12 113.97 -699.117 24971.3 -213.004 343.975 19083.3 213.004 -343.975 20800.2 -25.1115 80.7298 3578.34 25.1115 -80.7298 3979.81
-122.606 -196.57 -3.63798e-12 122.606 196.57 24730.1 -196.325 -16.8584 17176 196.325 16.8584 19079.5 -24.3681 31.9922 3285.42 24.3681 -31.9922 3985.05 -114.886 707.52 7.27596e-12 114.886 -707.52 25221.8 -219.111 347.41 19650.5 219.111 -347.41 21379.5 -24.8583 80.7578 3496.24 24.8583 -80.7578 3987.69
-123.897 -202.813 0 123.897 202.813 24969.7 -200.089 -19.446 17508.1 200.089 19.446 19438.6 -24.4369 31.8401 3278.56 24.4369 -31.8401 4012.55 -115.796 713.764 7.27596e-12 115.796 -713.764 25462.3 -223.077 349.998 20017.9 223.077 -349.998 21757.9 -24.8821 80.9099 3478.43 24.8821 -80.9099 4013.8
-125.173 -206.903 3.63798e-12 125.173 206.903 25211.7 -201.721 -21.1635 17645 201.721 21.1635 19600.4 -24.771 31.559 3332.14 24.771 -31.559 4058.1 -116.761 717.854 -3.63798e-12 116.761 -717.854 25706.6 -224.831 351.715 20177.7 224.831 -351.715 21929.6 -25.1926 81.191 3527.07 25.1926 -81.191 4058.87
-126.493 -208.879 7.27596e-12 126.493 208.879 25467.9 -201.196 -22.0007 17583.2 201.196 22.0007 19563.9 -25.3696 31.1498 3446.09 25.3696 -31.1498 4121.57 -117.833 719.83 0 117.833 -719.83 25966.7 -224.352 352.552 20126.9 224.352 -352.552 21893.4 -25.7891 81.6002 3642.05 25.7891 -81.6002 4122.77
-127.908 -208.81 7.27596e-12 127.908 208.81 25748.6 -198.536 -21.9603 17323.5 198.536 21.9603 19332.4 -26.222 30.6189 3618.25 26.222 -30.6189 4201.98 -119.058 719.761 1.09139e-11 119.058 -719.761 26253.4 -221.669 352.512 19867.5 221.669 -352.512 21653 -26.6602 82.1311 3821.01 26.6602 -82.1311 4204.5
-129.463 -206.797 -3.63798e-12 129.463 206.797 26062.7 -193.798 -21.0545 16869.1 193.798 21.0545 18913 -27.3091 29.9782 3844.67 27.3091 -29.9782 4297.54 -120.476 717.748 -7.27596e-12 120.476 -717.748 26576 -216.857 351.606 19405.4 216.857 -351.606 21216.7 -27.7845 82.7718 4059.41 27.7845 -82.7718 4302.22
-131.206 -202.994 -7.27596e-12 131.206 202.994 26419.4 -187.1 -19.3123 16229.6 187.1 19.3123 18317.9 -28.6012 29.2454 4119.18 28.6012 -29.2454 4405.68 -122.124 713.945 3.63798e-12 122.124 -713.945 26944.3 -210.048 349.864 18752.1 210.048 -349.864 20597.5 -29.1304 83.5046 4350.46 29.1304 -83.5046 4413.24
-133.179 -197.589 1.09139e-11 133.179 197.589 26827 -178.617 -16.777 15420.1 178.617 16.777 17564.1 -30.0592 28.4429 4433.51 30.0592 -28.4429 4523.03 -124.034 708.54 3.63798e-12 124.034 -708.54 27366 -201.419 347.329 17923.2 201.419 -347.329 19813.2 -30.6574 84.3071 4685.49 30.6574 -84.3071 4534.17
-135.412 -190.798 3.63798e-12 135.412 190.798 27290.8 -168.568 -13.5057 14460.1 168.568 13.5057 16672.5 -31.636 27.5977 4777.74 31.636 -27.5977 4645.61 -126.226 701.749 -1.45519e-11 126.226 -701.749 27846.3 -191.194 344.057 16939.2 191.194 -344.057 18885.5 -32.3166 85.1523 5054.02 32.3166 -85.1523 4660.89
-137.913 -182.858 0 137.913 182.858 27812.5 -157.216 -9.56869 13372.9 157.216 9.56869 15667.8 -33.2782 26.7403 5140.52 33.2782 -26.7403 4768.91 -128.701 693.809 7.27596e-12 128.701 -693.809 28386.5 -179.645 340.12 15824.9 179.645 -340.12 17840.3 -34.052 86.0097 5443.92 34.052 -86.0097 4788.77
-140.668 -174.014 -1.09139e-11 140.668 174.014 28388.6 -144.862 -5.0491 12186.2 144.862 5.0491 14577.8 -34.9266 25.9043 5509.33 34.9266 -25.9043 4887.98 -131.441 684.965 -1.09139e-11 131.441 -684.965 28982.7 -167.08 335.601 14609.2 167.08 -335.601 16706.7 -35.8017 86.8457 5841.81 35.8017 -86.8457 4912.71
-143.635 -164.515 -1.81899e-11 143.635 164.515 29010.5 -131.842 -0.0418065 10931.3 131.842 0.0418065 13433 -36.5183 25.125 5870.72 36.5183 -25.125 4997.61 -134.403 675.466 -2.18279e-11 134.403 -675.466 29626 -153.842 330.593 13324.6 153.842 -330.593 15516.6 -37.5 87.625 6233.38 37.5 -87.625 5027.38
-146.753 -154.61 -1.09139e-11 146.753 154.61 29665.7 -118.516 5.34947 9641.98 118.516 -5.34947 12265.9 -37.9883 24.4387 6210.82 37.9883 -24.4387 5092.5 -137.526 665.561 1.81899e-11 137.526 -665.561 30303.1 -140.297 325.202 12005.8 140.297 -325.202 14303.6 -39.0792 88.3113 6603.87 39.0792 -88.3113 5127.29
-149.953 -144.549 -7.27596e-12 149.953 144.549 30339.6 -105.249 11.0158 8352.88 105.249 -11.0158 11109.1 -39.2723 23.8812 6515.81 39.2723 -23.8812 5167.39 -140.742 655.5 7.27596e-12 140.742 -655.5 30998.8 -126.819 319.536 10688.4 126.819 -319.536 13102 -40.4718 88.8688 6938.49 40.4718 -88.8688 5207.05
-153.167 -134.581 -7.27596e-12 153.167 134.581 31017.8 -92.4049 16.8466 7098.38 92.4049 -16.8466 9995.32 -40.3081 23.4868 6772.31 40.3081 -23.4868 5217.29 -143.979 645.532 3.63798e-12 143.979 -645.532 31698.1 -113.78 313.705 9408 113.78 -313.705 11945.6 -41.6126 89.2632 7222.95 41.6126 -89.2632 5261.49
-156.33 -124.952 1.09139e-11 156.33 124.952 31686.5 -80.3316 22.7323 5911.53 80.3316 -22.7323 8955.72 -41.0379 23.2869 6967.86 41.0379 -23.2869 5237.59 -147.171 635.903 7.27596e-12 147.171 -635.903 32386.9 -101.534 307.819 8198.42 101.534 -307.819 10867 -42.4412 89.4631 7443.9 42.4412 -89.4631 5285.85
-159.384 -115.893 1.09139e-11 159.384 115.893 32333.1 -69.3531 28.5664 4823.17 69.3531 -28.5664 8019.36 -41.4104 23.3094 7091.25 41.4104 -23.3094 5224.25 -150.253 626.844 3.63798e-12 150.253 -626.844 33051.8 -90.4142 301.985 7091.42 90.4142 -301.985 9896.28 -42.9033 89.4406 7589.33 42.9033 -89.4406 5275.98
-162.276 -107.617 -1.09139e-11 162.276 107.617 32945.6 -59.7618 34.2483 3861.24 59.7618 -34.2483 7212.39 -41.3818 23.5773 7132.9 41.3818 -23.5773 5173.95 -153.165 618.567 0 153.165 -618.567 33680.4 -80.7217 296.303 6115.78 80.7217 -296.303 9060.78 -42.9528 89.1727 7648.95 42.9528 -89.1727 5228.41
-164.954 -100.31 0 164.954 100.31 33512.8 -51.8118 39.6844 3050.2 51.8118 -39.6844 6557.41 -40.9181 24.1083 7085.19 40.9181 -24.1083 5084.17 -155.851 611.261 -7.27596e-12 155.851 -611.261 34261.1 -72.7174 290.867 5296.6 72.7174 -290.867 8383.96 -42.5532 88.6417 7614.49 42.5532 -88.6417 5140.53
-167.375 -94.1312 1.81899e-11 167.375 94.1312 34024.9 -45.711 44.7909 2410.21 45.711 -44.7909 6072.82 -39.9957 24.9137 6942.67 39.9957 -24.9137 4953.34 -158.26 605.082 0 158.26 -605.082 34783.8 -66.6155 285.761 4654.54 66.6155 -285.761 7884.91 -41.6789 87.8363 7480.02 41.6789 -87.8363 5010.68
-169.508 -89.2073 -3.63798e-12 169.508 89.2073 34474.8 -41.6139 49.4956 1956.38 41.6139 -49.4956 5772.2 -38.6028 25.998 6702.37 38.6028 -25.998 4780.88 -160.356 600.158 0 160.356 -600.158 35241.2 -62.5752 281.056 4205.08 62.5752 -281.056 7577.72 -40.3163 86.752 7242.2 40.3163 -86.752 4838.25
-171.343 -85.6396 -1.81899e-11 171.343 85.6396 34859.6 -39.6149 53.7402 1697.98 39.6149 -53.7402 5663.86 -36.7399 27.3585 6363.88 36.7399 -27.3585 4567.32 -162.12 596.59 7.27596e-12 162.12 -596.59 35630.1 -60.695 276.811 3957.78 60.695 -276.811 7471.02 -38.4646 85.3915 6900.43 38.4646 -85.3915 4623.72
-172.893 -83.5036 -7.27596e-12 172.893 83.5036 35181.2 -39.7453 57.4812 1638.1 39.7453 -57.4812 5750.62 -34.4204 28.9853 5929.48 34.4204 -28.9853 4314.22 -163.557 594.454 -1.09139e-11 163.557 -594.454 35952.5 -61.0086 273.07 3915.94 61.0086 -273.07 7567.69 -36.1363 83.7647 6456.94 36.1363 -83.7647 4368.68
-174.188 -82.7726 7.27596e-12 174.188 82.7726 35445.5 -41.9636 60.6803 1772.19 41.9636 -60.6803 6029.44 -31.6714 30.8605 5404.34 31.6714 -30.8605 4024.34 -164.341 593.724 3.63798e-12 164.341 -593.724 36142.5 -63.6409 269.871 4097.21 63.6409 -269.871 7873.1 -33.3495 81.8895 5915.1 33.3495 -81.8895 4075.28
-175.233 -83.1739 -1.45519e-11 175.233 83.1739 35654.7 -46.0975 63.255 2077.62 46.0975 -63.255 6491.14 -28.5445 32.9671 4800.02 28.5445 -32.9671 3701.39 -164.341 594.125 -1.09139e-11 164.341 -594.125 36173.4 -68.752 267.296 4530.37 68.752 -267.296 8387.92 -30.1125 79.7829 5274.15 30.1125 -79.7829 3746.99
-176.132 -85.2069 -7.27596e-12 176.132 85.2069 35827.1 -52.0973 65.3335 2558.5 52.0973 -65.3335 7122.49 -25.073 35.264 4121.93 25.073 -35.264 3349.69 -164.279 596.158 1.09139e-11 164.279 -596.158 36196.1 -75.5879 265.218 5116.03 75.5879 -265.218 9071.87 -26.5356 77.486 4559.52 26.5356 -77.486 3391.32
-176.904 -88.6231 -7.27596e-12 176.904 88.6231 35967.8 -59.8213 66.88 3202.28 59.8213 -66.88 7909.8 -21.3146 37.7137 3380.83 21.3146 -37.7137 2975.53 -164.172 599.574 -7.27596e-12 164.172 -599.574 36214.1 -84.115 263.672 5857.06 84.115 -263.672 9915.63 -22.6542 75.0363 3780.04 22.6542 -75.0363 3010.13
-177.553 -93.3503 0 177.553 93.3503 36077.7 -69.0501 67.9023 3988.98 69.0501 -67.9023 8832.42 -17.3323 40.2824 2589.94 17.3323 -40.2824 2584.31 -164.025 604.301 -3.63798e-12 164.025 -604.301 36227.5 -94.0682 262.649 6729.34 94.0682 -262.649 10894.1 -18.5524 72.4676 2950.81 18.5524 -72.4676 2613.52
-177.984 -99.1918 3.63798e-12 177.984 99.1918 36138.3 -79.5432 68.4336 4897.86 79.5432 -68.4336 9866.56 -13.2052 42.9185 1765.1 13.2052 -42.9185 2183.63 -163.843 610.143 1.81899e-11 163.843 -610.143 36236.2 -105.224 262.118 7712.92 105.224 -262.118 11985.6 -14.2928 69.8315 2086.47 14.2928 -69.8315 2205.59
-178.168 -105.925 -2.54659e-11 178.168 105.925 36144.5 -91.0899 68.4998 5912.38 91.0899 -68.4998 10989.7 -9.00788 45.5774 921.479 9.00788 -45.5774 1780.42 -163.624 616.876 -3.63798e-12 163.624 -616.876 36237.9 -117.261 262.052 8777.31 117.261 -262.052 13160.7 -9.96856 67.1726 1205.36 9.96856 -67.1726 1795.79
-178.212 -113.299 -2.18279e-11 178.212 113.299 36119.5 -103.328 68.1266 6995.28 103.328 -68.1266 12172 -4.82809 48.2057 77.6515 4.82809 -48.2057 1382.22 -163.133 624.25 1.45519e-11 163.133 -624.25 36182.5 -130.061 262.425 9920.25 130.061 -262.425 14399.9 -5.64732 64.5443 321.682 5.64732 -64.5443 1390.16
-177.764 -120.792 -3.63798e-12 177.764 120.792 35993.6 -115.935 67.3373 8117.18 115.935 -67.3373 13383.1 -0.753561 50.7557 -748.028 0.753561 -50.7557 996.746 -162.207 631.743 2.18279e-11 162.207 -631.743 36032.9 -143.327 263.214 11117.2 143.327 -263.214 15672.3 -1.41862 61.9943 -547.251 1.41862 -61.9943 998.014
-176.82 -128.258 7.27596e-12 176.82 128.258 35767.2 -128.684 66.1784 9263.27 128.684 -66.1784 14595.8 3.13683 53.1745 -1539.82 -3.13683 -53.1745 631.787 -160.824 639.209 1.09139e-11 160.824 -639.209 35782.7 -156.794 264.373 12345.4 156.794 -264.373 16951.3 2.63383 59.5755 -1383.03 -2.63383 -59.5755 625.851
-175.34 -135.412 3.63798e-12 175.34 135.412 35433.6 -141.363 64.6781 10417.9 141.363 -64.6781 15786.3 6.76551 55.4139 -2281.84 -6.76551 -55.4139 294.604 -158.94 646.363 -3.63798e-12 158.94 -646.363 35420.5 -170.117 265.873 13573.8 170.117 -265.873 18203.4 6.41939 57.3361 -2167.26 -6.41939 -57.3361 282.191
-173.265 -141.963 -1.81899e-11 173.265 141.963 34982.5 -153.667 62.89 11555 153.667 -62.89 16924.2 10.0501 57.4157 -2957.48 -10.0501 -57.4157 -6.83341 -156.52 652.914 -1.45519e-11 156.52 -652.914 34936.1 -182.988 267.662 14775.3 182.988 -267.662 19399 9.84402 55.3343 -2881.17 -9.84402 -55.3343 -23.8557
-170.53 -147.655 -7.27596e-12 170.53 147.655 34402.1 -165.259 60.8572 12644.3 165.259 -60.8572 17977.7 12.8937 59.1277 -3548.64 -12.8937 -59.1277 -261.698 -153.53 658.606 0 153.53 -658.606 34320.4 -195.098 269.694 15923.4 195.098 -269.694 20506.5 12.8349 53.6223 -3509.33 -12.8349 -53.6223 -286.129
-167.083 -152.167 3.63798e-12 167.083 152.167 33683.6 -175.867 58.6756 13662.2 175.867 -58.6756 18919.9 15.2603 60.5301 -4043.79 -15.2603 -60.5301 -470.673 -149.939 663.118 7.27596e-12 149.939 -663.118 33564.2 -206.15 271.876 16991.3 206.15 -271.876 21497.3 15.3234 52.2199 -4036.33 -15.3234 -52.2199 -499.731
-162.908 -155.232 0 162.908 155.232 32824.7 -185.228 56.4119 14586 185.228 -56.4119 19725 17.0826 61.5859 -4429.48 -17.0826 -61.5859 -627.068 -145.739 666.183 1.09139e-11 145.739 -666.183 32663.9 -215.842 274.14 17951.4 215.842 -274.14 22342.9 17.249 51.1641 -4448.63 -17.249 -51.1641 -660.25
-158.027 -156.622 3.63798e-12 158.027 156.622 31831.1 -193.031 54.1518 15385.5 193.031 -54.1518 20365.9 18.3046 62.2654 -4693.69 -18.3046 -62.2654 -726.255 -140.976 667.573 2.18279e-11 140.976 -667.573 31628.6 -223.874 276.4 18775.1 223.874 -276.4 23015.7 18.5524 50.4846 -4733.79 -18.5524 -50.4846 -762.649
-152.539 -156.2 1.45519e-11 152.539 156.2 30722.6 -198.972 51.986 16030.1 198.972 -51.986 20816.9 18.8812 62.5442 -4826.44 -18.8812 -62.5442 -764.667 -135.752 667.151 0 135.752 -667.151 30480.5 -229.959 278.566 19434.1 229.959 -278.566 23490.3 19.188 50.2058 -4881.71 -19.188 -50.2058 -803.465
-146.59 -153.885 -3.63798e-12 146.59 153.885 29528.6 -202.799 50.0017 16494.4 202.799 -50.0017 21057.4 18.7817 62.4057 -4820.82 -18.7817 -62.4057 -740.116 -130.208 664.836 3.63798e-12 130.208 -664.836 29250.3 -233.833 280.55 19901.3 233.833 -280.55 23744.7 19.1205 50.3443 -4884.44 -19.1205 -50.3443 -780.182
-140.342 -149.634 3.63798e-12 140.342 149.634 28281.3 -204.308 48.2837 16757.1 204.308 -48.2837 21070.8 17.9886 61.8414 -4672.63 -17.9886 -61.8414 -651.643 -124.489 660.585 -7.27596e-12 124.489 -660.585 27970.6 -235.274 282.268 20153.1 235.274 -282.268 23760.9 18.3285 50.9086 -4736.84 -18.3285 -50.9086 -691.607
-133.956 -143.451 -1.45519e-11 133.956 143.451 27012.4 -203.333 46.9112 16799.6 203.333 -46.9112 20845.2 16.4971 60.8519 -4380.26 -16.4971 -60.8519 -499.475 -118.741 654.402 1.09139e-11 118.741 -654.402 26674.7 -234.12 283.64 20171.5 234.12 -283.64 23526.6 16.8073 51.8981 -4437.22 -16.8073 -51.8981 -537.921
-127.585 -135.376 3.63798e-12 127.585 135.376 25751.8 -199.77 45.9521 16609.5 199.77 -45.9521 20374.2 14.3173 59.4474 -3945.36 -14.3173 -59.4474 -285.123 -113.102 646.327 0 113.102 -646.327 25393.5 -230.273 284.599 19944.7 230.273 -284.599 23035.3 14.5683 53.3026 -3987.32 -14.5683 -53.3026 -320.767
-121.372 -125.489 -1.09139e-11 121.372 125.489 24527.3 -193.589 45.4561 16181 193.589 -45.4561 19657.8 11.4754 57.6426 -3373.17 -11.4754 -57.6426 -11.252 -107.694 636.44 -7.27596e-12 107.694 -636.44 24155.6 -223.7 285.095 19466.8 223.7 -285.095 22286.9 11.6357 55.1074 -3391.91 -11.6357 -55.1074 -42.4358
-115.453 -113.944 -7.27596e-12 115.453 113.944 23365.3 -184.82 45.4301 15514.3 184.82 -45.4301 18701.4 7.98656 55.4429 -2669.85 -7.98656 -55.4429 323.577 -102.633 624.895 3.63798e-12 102.633 -624.895 22987.8 -214.433 285.121 18738.1 214.433 -285.121 21287 8.03699 57.3071 -2658.39 -8.03699 -57.3071 296.375
-109.957 -100.88 -5.45697e-12 109.957 100.88 22290.6 -173.569 45.9349 14615.9 173.569 -45.9349 17518.3 3.94085 52.9091 -1849.77 -3.94085 -52.9091 706.804 -98.0276 611.831 5.45697e-12 98.0276 -611.831 21915.2 -202.589 284.617 17766.5 202.589 -284.617 20049.5 3.84554 59.8409 -1799.57 -3.84554 -59.8409 686.831
-105.002 -86.5136 1.45519e-11 105.002 86.5136 21326.4 -160.002 46.9794 13498.1 160.002 -46.9794 16126.7 -0.595931 50.0884 -926.883 0.595931 -50.0884 1132.65 -93.9777 597.464 -1.63709e-11 93.9777 -597.464 20961.3 -188.342 283.572 16565.5 188.342 -283.572 18593.5 -0.855859 62.6616 -831.583 0.855859 -62.6616 1120.54
-100.683 -71.0883 1.81899e-12 100.683 71.0883 20491 -144.359 48.5615 12180.3 144.359 -48.5615 14551.4 -5.53755 47.0359 81.2263 5.53755 -47.0359 1592.91 -90.5599 582.039 -1.81899e-12 90.5599 -582.039 20144 -171.941 281.99 15156 171.941 -281.99 16944.8 -5.97892 65.7141 227.476 5.97892 -65.7141 1589.41
-97.0431 -54.8615 7.27596e-12 97.0431 54.8615 19792.7 -126.953 50.6535 10689.7 126.953 -50.6535 12823 -10.7849 43.8131 1154.24 10.7849 -43.8131 2078.34 -87.8051 565.812 1.27329e-11 87.8051 -565.812 19471.2 -153.713 279.898 13566.7 153.713 -279.898 15135.7 -11.4206 68.9369 1356.39 11.4206 -68.9369 2084.05
-94.0642 -38.0845 -1.09139e-11 94.0642 38.0845 19227.3 -108.169 53.2072 9060.89 108.169 -53.2072 10977.8 -16.2275 40.4869 2269.52 16.2275 -40.4869 2578.7 -85.6848 549.035 -7.27596e-12 85.6848 -549.035 18937.6 -134.06 277.344 11834.4 134.06 -277.344 13204.4 -17.0673 72.2631 2531.55 17.0673 -72.2631 2594.27
-91.6759 -21.0025 5.45697e-12 91.6759 21.0025 18780.2 -88.4488 56.1575 7334.73 88.4488 -56.1575 9056.64 -21.7475 37.1286 3402.91 21.7475 -37.1286 3083.12 -84.1232 531.953 -5.45697e-12 84.1232 -531.953 18527.3 -113.439 274.394 10001.9 113.439 -274.394 11193.6 -22.7966 75.6214 3727.36 22.7966 -75.6214 3109.14
-89.7712 -3.85524 7.27596e-12 89.7712 3.85524 18429.4 -68.2769 59.4264 5556.5 68.2769 -59.4264 7103.58 -27.2229 33.812 4529.28 27.2229 -33.812 3580.54 -83.0077 514.806 3.63798e-12 83.0077 -514.806 18216.4 -92.3522 271.125 8116.66 92.3522 -271.125 9149.42 -28.481 78.938 4917.12 28.481 -78.938 3617.3
-88.2106 13.1272 -5.45697e-12 88.2106 -13.1272 18146.2 -48.162 62.9252 3774.43 48.162 -62.9252 5164.41 -32.5301 30.6119 5623.08 32.5301 -30.6119 4059.92 -82.1945 497.824 -9.09495e-12 82.1945 -497.824 17974.6 -71.328 267.626 6229.1 71.328 -267.626 7119.9 -33.9914 82.1381 6073.66 33.9914 -82.1381 4107.29
-86.829 29.7317 1.81899e-12 86.829 -29.7317 17896.5 -28.6213 66.5582 2038.04 28.6213 -66.5582 3285.19 -37.5467 27.6015 6658.99 37.5467 -27.6015 4510.39 -81.5143 481.219 3.63798e-12 81.5143 -481.219 17765.6 -50.9046 263.993 4390.99 50.9046 -263.993 5153.47 -39.2008 85.1485 7170.16 39.2008 -85.1485 4567.91
-85.4496 45.7647 0 85.4496 -45.7647 17643.9 -10.1612 70.2282 396.204 10.1612 -70.2282 1510.76 -42.155 24.8506 7612.74 42.155 -24.8506 4921.52 -80.7855 465.186 1.81899e-12 80.7855 -465.186 17550.9 -31.6088 260.323 2653.25 31.6088 -260.323 3297.21 -43.9881 87.8994 8180.88 43.9881 -87.8994 4988.5
-83.9015 61.0502 9.09495e-12 83.9015 -61.0502 17352.9 6.74406 73.8431 -1105.23 -6.74406 -73.8431 -116.935 -46.2458 22.4238 8461.85 46.2458 -22.4238 5283.61 -79.8322 449.901 9.09495e-12 79.8322 -449.901 17293.3 -13.9337 256.708 1063.65 13.9337 -256.708 1595.02 -48.2408 90.3262 9081.9 48.2408 -90.3262 5359.21
-82.0363 75.4278 -1.81899e-12 82.0363 -75.4278 16992.7 21.6725 77.3212 -2425.51 -21.6725 -77.3212 -1560.45 -49.7219 20.3788 9186.35 49.7219 -20.3788 5588 -78.4999 435.523 -5.45697e-12 78.4999 -435.523 16960.1 1.68123 253.23 -335.365 -1.68123 -253.23 86.0757 -51.8587 92.3712 9851.89 51.8587 -92.3712 5671.22
-79.7329 88.7576 7.27596e-12 79.7329 -88.7576 16538 34.268 80.594 -3530.28 -34.268 -80.594 -2788.1 -52.5003 18.7648 9769.19 52.5003 -18.7648 5827.35 -76.6621 422.193 -3.63798e-12 76.6621 -422.193 16524.6 14.8641 249.958 -1508 -14.8641 -249.958 -1196.42 -54.7564 93.9852 10472.7 54.7564 -93.9852 5916.95
-76.8935 100.931 5.45697e-12 76.8935 -100.931 15968.5 44.2482 83.608 -4392.23 -44.2482 -83.608 -3774.77 -54.5146 17.6215 10196.7 54.5146 -17.6215 5995.77 -74.216 410.02 -7.27596e-12 74.216 -410.02 15965.4 25.3192 246.944 -2425.79 -25.3192 -246.944 -2226.08 -56.8656 95.1285 10929.8 56.8656 -95.1285 6090.31
-73.4362 111.885 7.27596e-12 73.4362 -111.885 15267 51.4089 86.3262 -4991.4 -51.4089 -86.3262 -4502.46 -55.7159 16.9783 10458.9 55.7159 -16.9783 6088.92 -71.0768 399.066 7.27596e-12 71.0768 -399.066 15264.3 32.832 244.225 -3067.98 -32.832 -244.225 -2984.01 -58.1364 95.7717 11212.7 58.1364 -95.7717 6186.81
-69.2964 121.604 1.81899e-12 69.2964 -121.604 14420.2 55.6302 88.7297 -5315.82 -55.6302 -88.7297 -4960.84 -56.0753 16.8527 10550 56.0753 -16.8527 6104.13 -67.1792 389.347 5.45697e-12 67.1792 -389.347 14407.6 37.2769 241.822 -3422.15 -37.2769 -241.822 -3459.39 -58.5388 95.8973 11315.1 58.5388 -95.8973 6203.73
-64.4332 130.117 1.81899e-12 64.4332 -130.117 13419.8 56.8829 90.8195 -5362.12 -56.8829 -90.8195 -5147.69 -55.5834 17.2508 10468.1 55.5834 -17.2508 6040.44 -62.4832 380.833 3.63798e-12 62.4832 -380.833 13386.5 38.6222 239.732 -3484.88 -38.6222 -239.732 -3649.94 -58.0636 95.4992 11235 58.0636 -95.4992 6140.16
-58.8338 137.499 -3.63798e-12 58.8338 -137.499 12263.2 55.2303 92.617 -5135.9 -55.2303 -92.617 -5069.11 -54.2517 18.1668 10215.8 54.2517 -18.1668 5898.69 -56.9792 373.452 0 56.9792 -373.452 12198.8 36.9335 237.935 -3262.14 -36.9335 -237.935 -3562.02 -56.7222 94.5832 10975.1 56.7222 -94.5832 5996.95
-52.5139 143.863 -9.09495e-13 52.5139 -143.863 10954.2 50.8277 94.1636 -4651.56 -50.8277 -94.1636 -4739.35 -52.1111 19.5834 9799.51 52.1111 -19.5834 5681.43 -50.6881 367.088 6.36646e-12 50.6881 -367.088 10848.3 32.3719 236.388 -2769.04 -32.3719 -236.388 -3210.54 -54.5464 93.1666 10542.5 54.5464 -93.1666 5776.73
-45.5169 149.363 0 45.5169 -149.363 9501.84 43.9168 95.5202 -3931.87 -43.9168 -95.5202 -4180.39 -49.2118 21.4722 9229.73 49.2118 -21.4722 5392.89 -43.6597 361.588 -2.72848e-12 43.6597 -361.588 9345.13 25.189 235.031 -2029.44 -25.189 -235.031 -2618.45 -51.5876 91.2778 9948.19 51.5876 -91.2778 5483.81
-37.909 154.188 -2.72848e-12 37.909 -154.188 7920.42 34.8177 96.7648 -3007.11 -34.8177 -96.7648 -3421.19 -45.6211 23.7947 8520.5 45.6211 -23.7947 5038.76 -35.9681 356.763 -9.09495e-13 35.9681 -356.763 7704.52 15.7179 233.787 -1075.02 -15.7179 -233.787 -1816.11 -47.9147 88.9553 9207.29 47.9147 -88.9553 5124.06
-29.772 158.565 9.09495e-13 29.772 -158.565 6227.16 23.9166 97.989 -1913.81 -23.9166 -97.989 -2496.76 -41.4216 26.5034 7689.01 41.4216 -26.5034 4626.08 -27.7036 352.386 1.81899e-12 27.7036 -352.386 5944.99 4.36138 232.562 55.9744 -4.36138 -232.562 -840.137 -43.6127 86.2466 8338.12 43.6127 -86.2466 4704.73
-21.195 162.753 -1.36424e-12 21.195 -162.753 4440.83 11.6529 99.2953 -693.427 -11.6529 -99.2953 -1447 -36.7083 29.5431 6755.06 36.7083 -29.5431 4163.01 -18.9638 348.198 -2.72848e-12 18.9638 -348.198 4086.77 -8.42273 231.256 1320.17 8.42273 -231.256 267.675 -38.7796 83.2069 7361.8 38.7796 -83.2069 4234.21
-12.2682 167.04 -9.09495e-13 12.2682 -167.04 2580.21 -1.49536 100.793 609.135 1.49536 -100.793 -315.497 -31.5864 32.8528 5740.5 31.5864 -32.8528 3658.61 -9.84662 343.911 -1.81899e-12 9.84662 -343.911 2150.21 -22.1364 229.759 2670.54 22.1364 -229.759 1461.72 -33.5238 79.8972 6301.6 33.5238 -79.8972 3721.83
-3.08168 171.706 8.52651e-13 3.08168 -171.706 663.848 -15.0289 102.599 1947.29 15.0289 -102.599 851.859 -26.1674 36.3677 4668.54 26.1674 -36.3677 3122.62 -0.786386 339.245 7.38964e-13 0.786386 -339.245 224.908 -36.1492 227.953 4043.68 36.1492 -227.953 2688.24 -27.9648 76.3823 5183.12 27.9648 -76.3823 3177.85
3.15055 174.141 1.13687e-13 -3.15055 -174.141 -648.448 -27.2857 105.325 3115.86 27.2857 -105.325 1953.1 -20.6141 39.9928 3574.97 20.6141 -39.9928 2567.27 4.68626 336.809 0 -4.68626 -336.809 -963.836 -48.0248 225.226 5132.05 48.0248 -225.226 3803.64 -22.3431 72.7572 4062.42 22.3431 -72.7572 2617.95
8.57214 177.375 4.54747e-13 -8.57214 -177.375 -1796.21 -38.5976 108.574 4182.22 38.5976 -108.574 2981.9 -14.9916 43.6886 2470.23 14.9916 -43.6886 2001.45 9.99741 333.575 -4.54747e-13 -9.99741 -333.575 -2119.71 -59.6605 221.978 6207.85 59.6605 -221.978 4886.07 -16.6004 69.0614 2925.22 16.6004 -69.0614 2039.4
14.0369 181.572 -1.36424e-12 -14.0369 -181.572 -2955.13 -48.8964 112.351 5150.53 48.8964 -112.351 3921.3 -9.38998 47.4097 1376.27 9.38998 -47.4097 1429.9 15.3489 329.379 9.09495e-13 -15.3489 -329.379 -3283.49 -70.1557 218.2 7176.79 70.1557 -218.2 5862.85 -10.9163 65.3403 1800.23 10.9163 -65.3403 1466.97
19.4788 187.291 -1.36424e-12 -19.4788 -187.291 -4112.4 -57.8541 116.801 5994.05 57.8541 -116.801 4737.24 -3.93216 51.0655 314.863 3.93216 -51.0655 867.329 20.6914 323.66 3.18323e-12 -20.6914 -323.66 -4443.66 -79.3338 213.75 8020.74 79.3338 -213.75 6719.07 -5.34031 61.6845 708.281 5.34031 -61.6845 894.718
24.8245 194.659 3.18323e-12 -24.8245 -194.659 -5253.69 -65.1587 121.916 6683.69 65.1587 -121.916 5400.94 1.30571 54.6214 -696.348 -1.30571 -54.6214 318.806 25.9688 316.292 -4.54747e-13 -25.9688 -316.292 -5586.99 -86.6685 208.636 8692.06 86.6685 -208.636 7404.78 -0.0112793 58.1286 -329.354 0.0112793 -58.1286 342.617
29.9948 203.764 -1.81899e-12 -29.9948 -203.764 -6363.25 -70.3876 127.719 7179.05 70.3876 -127.719 5874.38 6.20912 57.9792 -1638.42 -6.20912 -57.9792 -200.511 31.1051 307.187 -4.54747e-12 -31.1051 -307.187 -6696.03 -91.9093 202.832 9166.69 91.9093 -202.832 7897.55 4.97045 54.7708 -1291.56 -4.97045 -54.7708 -180.662
34.8995 214.724 2.72848e-12 -34.8995 -214.724 -7423.15 -73.2738 134.257 7454.49 73.2738 -134.257 6133.53 10.7261 61.1232 -2497.87 -10.7261 -61.1232 -688.468 36.0171 296.227 7.27596e-12 -36.0171 -296.227 -7751.72 -94.7633 196.295 9417.89 94.7633 -196.295 8169.89 9.55178 51.6268 -2164.97 -9.55178 -51.6268 -672.788
39.4174 227.534 2.72848e-12 -39.4174 -227.534 -8408.68 -73.7406 141.566 7507.96 73.7406 -141.566 6165.93 14.8096 64.0284 -3263.96 -14.8096 -64.0284 -1141.6 40.6242 283.417 2.72848e-12 -40.6242 -283.417 -8735.71 -95.0122 188.986 9424.67 95.0122 -188.986 8202.51 13.6661 48.7216 -2935.67 -13.6661 -48.7216 -1128
43.4706 242.207 -3.63798e-12 -43.4706 -242.207 -9304.02 -71.6122 149.649 7319.82 71.6122 -149.649 5958.32 18.4038 66.6622 -3925 -18.4038 -66.6622 -1554.88 44.835 268.744 2.72848e-12 -44.835 -268.744 -9627.8 -92.5479 180.903 9180.15 92.5479 -180.903 7982.54 17.2726 46.0878 -3595.35 -17.2726 -46.0878 -1542.62
47.0178 258.777 4.54747e-12 -47.0178 -258.777 -10100.8 -66.7382 158.512 6873.1 66.7382 -158.512 5499.44 21.4741 69.0026 -4473.84 -21.4741 -69.0026 -1924.9 48.6139 252.174 2.72848e-12 -48.6139 -252.174 -10419.6 -87.2183 172.04 8667 87.2183 -172.04 7499.58 20.3274 43.7474 -4135.52 -20.3274 -43.7474 -1912.26
50.027 277.15 6.36646e-12 -50.027 -277.15 -10792.1 -59.0944 168.102 6164.31 59.0944 -168.102 4787.84 24.0006 71.0354 -4906.67 -24.0006 -71.0354 -2249.38 51.924 233.801 -1.18234e-11 -51.924 -233.801 -11102.9 -79.0278 162.449 7885.88 79.0278 -162.449 6754.3 22.8157 41.7146 -4553.11 -22.8157 -41.7146 -2235.75
52.488 297.172 1.81899e-12 -52.488 -297.172 -11375.6 -48.8411 178.329 5205.04 48.8411 -178.329 3841.12 25.964 72.7502 -5218.14 -25.964 -72.7502 -2527.8 54.7538 213.779 -7.27596e-12 -54.7538 -213.779 -11675.7 -68.0586 152.222 6843.72 68.0586 -152.222 5755.59 24.7245 39.9998 -4846.29 -24.7245 -39.9998 -2511.23
54.4056 318.686 1.81899e-12 -54.4056 -318.686 -11851.6 -36.0667 189.112 4007.23 36.0667 -189.112 2663.3 27.3941 74.1565 -5417.13 -27.3941 -74.1565 -2759.96 57.1106 192.265 1.81899e-12 -57.1106 -192.265 -12139.9 -54.5157 141.439 5556.71 54.5157 -141.439 4525.79 26.048 38.5935 -5013.23 -26.048 -38.5935 -2738.96
55.8039 341.524 -9.09495e-12 -55.8039 -341.524 -12224.4 -21 200.39 2591 21 -200.39 1276.24 28.3135 75.2641 -5507.98 -28.3135 -75.2641 -2948.1 59.0088 169.427 -7.27596e-12 -59.0088 -169.427 -12499.2 -38.5496 130.162 4043.11 38.5496 -130.162 3075.24 26.8466 37.4859 -5067.84 -26.8466 -37.4859 -2923.01
56.713 365.484 -1.81899e-12 -56.713 -365.484 -12499.4 -3.90269 212.106 980.86 3.90269 -212.106 -296.387 28.764 76.0966 -5500.14 -28.764 -76.0966 -3095.17 60.4691 145.467 1.81899e-12 -60.4691 -145.467 -12759.1 -20.4664 118.446 2331.4 20.4664 -118.446 1432.67 27.1512 36.6534 -5018.19 -27.1512 -36.6534 -3064.61
57.1694 390.274 -7.27596e-12 -57.1694 -390.274 -12682.9 14.8895 224.125 -791.685 -14.8895 -224.125 -2024.1 28.8025 76.6825 -5406.24 -28.8025 -76.6825 -3205.37 61.516 120.677 -7.27596e-12 -61.516 -120.677 -12926 -0.600559 106.427 453.361 0.600559 -106.427 -371.218 27.0225 36.0675 -4877.65 -27.0225 -36.0675 -3168.42
57.2174 415.578 1.81899e-12 -57.2174 -415.578 -12782.6 34.9976 236.321 -2690.93 -34.9976 -236.321 -3872.41 28.4946 77.0552 -5240.81 -28.4946 -77.0552 -3283.7 62.1828 95.3731 5.45697e-12 -62.1828 -95.3731 -13008.3 20.6515 94.2307 -1554.29 -20.6515 -94.2307 -2299.34 26.5263 35.6948 -4660.62 -26.5263 -35.6948 -3239.65
56.9029 441.057 1.81899e-12 -56.9029 -441.057 -12806.7 56.0052 248.565 -4678.27 -56.0052 -248.565 -5802.65 27.909 77.2533 -5018.79 -27.909 -77.2533 -3335.65 62.4699 69.894 1.81899e-12 -62.4699 -69.894 -13007.9 42.8724 81.9864 -3652.87 -42.8724 -81.9864 -4312.82 25.7383 35.4967 -4383.92 -25.7383 -35.4967 -3283.94
56.1614 466.245 -5.45697e-12 -56.1614 -466.245 -12740.5 77.5163 260.746 -6718.97 -77.5163 -260.746 -7775.89 27.1179 77.3168 -4755.84 -27.1179 -77.3168 -3367.08 62.2861 44.7064 -1.81899e-11 -62.2861 -44.7064 -12908.3 65.676 69.8059 -5809.55 -65.676 -69.8059 -6372.89 24.7359 35.4332 -4064.39 -24.7359 -35.4332 -3307.41
55.0892 490.825 5.45697e-12 -55.0892 -490.825 -12603.4 99.0513 272.705 -8767.1 -99.0513 -272.705 -9748.65 26.2036 77.2908 -4470.02 -26.2036 -77.2908 -3384.46 61.7477 20.1258 9.09495e-12 -61.7477 -20.1258 -12735.1 88.5242 57.8468 -7972.03 -88.5242 -57.8468 -8432.38 23.6098 35.4592 -3721.96 -23.6098 -35.4592 -3317.08
53.8676 514.516 5.45697e-12 -53.8676 -514.516 -12432.5 120.092 284.275 -10771.5 -120.092 -284.275 -11675.4 25.2532 77.2222 -4180.35 -25.2532 -77.2222 -3394.71 61.0409 -3.56546 -1.09139e-11 -61.0409 3.56546 -12527.7 110.871 46.2769 -10087.3 -110.871 -46.2769 -10443.5 22.4491 35.5278 -3376.47 -22.4491 -35.5278 -3319.5
52.7094 537.085 -3.63798e-12 -52.7094 -537.085 -12272.6 140.111 295.292 -12679.4 -140.111 -295.292 -13510.3 24.3503 77.156 -3905.25 -24.3503 -77.156 -3404.37 60.3884 -26.1341 7.27596e-12 -60.3884 26.1341 -12333.1 132.155 35.2599 -12100.3 -132.155 -35.2599 -12358.1 21.3447 35.594 -3047.77 -21.3447 -35.594 -3321.78
51.8496 558.34 -1.81899e-12 -51.8496 -558.34 -12173.5 158.593 305.596 -14438.6 -158.593 -305.596 -15209.1 23.5735 77.1357 -3661.91 -23.5735 -77.1357 -3419.67 60.0418 -47.3888 1.09139e-11 -60.0418 47.3888 -12203.3 151.837 24.9552 -13957.5 -151.837 -24.9552 -14130.2 20.3821 35.6143 -2754.93 -20.3821 -35.6143 -3330.19
51.5214 578.123 -3.63798e-12 -51.5214 -578.123 -12185.4 175.065 315.041 -16001.1 -175.065 -315.041 -16731.2 22.9943 77.2001 -3466.06 -22.9943 -77.2001 -3446.22 60.2545 -67.1718 1.81899e-12 -60.2545 67.1718 -12190.5 169.412 15.5105 -15608.6 -169.412 -15.5105 -15717.8 19.64 35.5499 -2515.29 -19.64 -35.5499 -3350.7
51.9302 596.3 9.09495e-12 -51.9302 -596.3 -12352.5 189.119 323.494 -17324.8 -189.119 -323.494 -18042 22.6752 77.3832 -3331.47 -22.6752 -77.3832 -3488.9 61.2526 -85.3491 1.45519e-11 -61.2526 85.3491 -12340.8 184.444 7.05733 -17010.3 -184.444 -7.05733 -17084.3 19.1851 35.3668 -2343.65 -19.1851 -35.3668 -3388.3
53.2361 612.761 -1.81899e-12 -53.2361 -612.761 -12709.8 200.429 330.85 -18376.3 -200.429 -330.85 -19113.6 22.6662 77.7117 -3269.17 -22.6662 -77.7117 -3551.6 63.2151 -101.81 -1.81899e-12 -63.2151 101.81 -12690.7 196.584 -0.298265 -18128 -196.584 0.298265 -18200.3 19.0704 35.0383 -2251.69 -19.0704 -35.0383 -3447
54.475 626.855 7.27596e-12 -54.475 -626.855 -13059.3 209.298 337.138 -19208.2 -209.298 -337.138 -19948.4 22.9673 78.2001 -3277.69 -22.9673 -78.2001 -3635.88 65.5534 -115.904 1.81899e-12 -65.5534 115.904 -13120.5 205.808 -6.58668 -18965.8 -205.808 6.58668 -19057.9 19.3301 34.5499 -2247.08 -19.3301 -34.5499 -3529.19
56.2005 638.235 9.09495e-12 -56.2005 -638.235 -13514.1 215.219 342.347 -19748.7 -215.219 -342.347 -20523.9 23.6401 78.8558 -3372.47 -23.6401 -78.8558 -3744.61 67.9742 -127.284 1.81899e-12 -67.9742 127.284 -13570.7 212.382 -11.7954 -19568.8 -212.382 11.7954 -19661.8 19.9399 33.8942 -2322.95 -19.9399 -33.8942 -3634.62
58.5619 647.438 5.45697e-12 -58.5619 -647.438 -14106.9 218.125 346.335 -19996.6 -218.125 -346.335 -20828.3 24.6784 79.6861 -3551.87 -24.6784 -79.6861 -3877.59 71.0321 -136.487 -3.63798e-12 -71.0321 136.487 -14153.8 215.688 -15.7831 -19855.6 -215.688 15.7831 -19979.5 20.9658 33.0639 -2493.71 -20.9658 -33.0639 -3768.34
61.5337 654.296 -9.09495e-12 -61.5337 -654.296 -14830.7 218.04 349.133 -19953.2 -218.04 -349.133 -20864.2 26.0755 80.6912 -3814.15 -26.0755 -80.6912 -4034.63 74.7333 -143.346 7.27596e-12 -74.7333 143.346 -14872 215.92 -18.581 -19850.6 -215.92 18.581 -20022.8 22.3668 32.0588 -2753.19 -22.3668 -32.0588 -3924.35
65.0777 658.878 3.63798e-12 -65.0777 -658.878 -15676.2 215.108 350.767 -19634.2 -215.108 -350.767 -20643.2 27.7996 81.8494 -4152.82 -27.7996 -81.8494 -4212.76 79.0135 -147.927 1.81899e-12 -79.0135 147.927 -15712.7 213.115 -20.2158 -19556.2 -213.115 20.2158 -19796.5 24.1417 30.9006 -3098.58 -24.1417 -30.9006 -4105.07
69.1278 661.256 9.09495e-12 -69.1278 -661.256 -16627.6 209.488 351.275 -19054.4 -209.488 -351.275 -20179.6 29.8207 83.1456 -4561.05 -29.8207 -83.1456 -4409.86 83.7949 -150.305 -5.45697e-12 -83.7949 150.305 -16661 207.492 -20.7234 -18993.4 -207.492 20.7234 -19319.7 26.2359 29.6044 -3520.15 -26.2359 -29.6044 -4304.04
73.607 661.552 1.81899e-12 -73.607 -661.552 -17666.8 201.431 350.721 -18237.7 -201.431 -350.721 -19496.5 32.09 84.5483 -5028.78 -32.09 -84.5483 -4621.39 88.9874 -150.601 -7.27596e-12 -88.9874 150.601 -17699.2 199.305 -20.1693 -18187.2 -199.305 20.1693 -18614.4 28.6042 28.2017 -4006.68 -28.6042 -28.2017 -4519.04
78.4413 659.934 -1.09139e-11 -78.4413 -659.934 -18776.3 191.259 349.185 -17215.9 -191.259 -349.185 -18622.4 34.5466 86.0252 -5542.77 -34.5466 -86.0252 -4842.43 94.4985 -148.983 1.09139e-11 -94.4985 148.983 -18809.3 188.883 -18.6332 -17168.4 -188.883 18.6332 -17710.4 31.18 26.7248 -4544.49 -31.18 -26.7248 -4744.03
83.557 656.619 -9.09495e-12 -83.557 -656.619 -19939.4 179.319 346.765 -16022.1 -179.319 -346.765 -17589.4 37.1196 87.5364 -6087.84 -37.1196 -87.5364 -5067.01 100.245 -145.668 -1.81899e-12 -100.245 145.668 -19974.8 176.598 -16.2134 -15971.6 -176.598 16.2134 -16641.2 33.8915 25.2136 -5117.86 -33.8915 -25.2136 -4973.44
88.8823 651.874 1.63709e-11 -88.8823 -651.874 -21140.3 165.993 343.569 -14692.3 -165.993 -343.569 -16432.7 39.7332 89.0388 -6647.61 -39.7332 -89.0388 -5288.83 106.15 -140.923 -1.81899e-12 -106.15 140.923 -21179.7 162.868 -13.0174 -14636.2 -162.868 13.0174 -15444.5 36.6563 23.7112 -5709.13 -36.6563 -23.7112 -5200.57
94.3405 645.985 9.09495e-12 -94.3405 -645.985 -22362.2 151.707 339.714 -13267.4 -151.707 -339.714 -15191.6 42.3073 90.4863 -7204.7 -42.3073 -90.4863 -5501.27 112.131 -135.034 3.27418e-11 -112.131 135.034 -22407.2 148.139 -9.16253 -13203.8 -148.139 9.16253 -14160.8 39.3879 22.2637 -6299.57 -39.3879 -22.2637 -5418.54
99.8498 639.246 2.18279e-11 -99.8498 -639.246 -23587.7 136.915 335.326 -11791 -136.915 -335.326 -13907.2 44.7585 91.8321 -7741.04 -44.7585 -91.8321 -5697.48 118.101 -128.295 -1.45519e-11 -118.101 128.295 -23639 132.878 -4.77417 -11717.9 -132.878 4.77417 -12832.1 41.9971 20.9179 -6869.93 -41.9971 -20.9179 -5620.26
105.325 631.97 7.27596e-12 -105.325 -631.97 -24798.7 122.069 330.535 -10306.4 -122.069 -330.535 -12620.9 47.0032 93.0294 -8238.51 -47.0032 -93.0294 -5870.54 123.974 -121.019 7.27596e-12 -123.974 121.019 -24856.7 117.56 0.0166386 -10223.4 -117.56 -0.0166386 -11501.7 44.3949 19.7206 -7400.9 -44.3949 -19.7206 -5798.71
110.679 624.466 2.18279e-11 -110.679 -624.466 -25977.6 107.615 325.475 -8856.1 -107.615 -325.475 -11373.4 48.9601 94.0331 -8679.43 -48.9601 -94.0331 -6013.77 129.668 -113.515 -3.63798e-12 -129.668 113.515 -26042.3 102.657 5.07678 -8764.49 -102.657 -5.07678 -10211.9 46.4948 18.7169 -7873.71 -46.4948 -18.7169 -5947.12
115.828 617.034 0 -115.828 -617.034 -27106.8 93.9864 320.276 -7481.9 -93.9864 -320.276 -10204 50.553 94.801 -9047.12 -50.553 -94.801 -6121.01 135.102 -106.084 -4.00178e-11 -135.102 106.084 -27177.9 88.6205 10.2753 -7383.65 -88.6205 -10.2753 -9003.61 48.2156 17.949 -8270.72 -48.2156 -17.949 -6059.17
120.686 609.953 -1.45519e-11 -120.686 -609.953 -28169.7 81.5906 315.065 -6222.86 -81.5906 -315.065 -9149.47 51.7136 95.2953 -9326.62 -51.7136 -95.2953 -6186.83 140.201 -99.0023 1.09139e-11 -140.201 99.0023 -28246.2 75.8719 15.4869 -6120.63 -75.8719 -15.4869 -7914.92 49.4837 17.4547 -8575.86 -49.4837 -17.4547 -6129.19
125.178 603.481 1.45519e-11 -125.178 -603.481 -29151.4 70.7919 309.958 -5113.93 -70.7919 -309.958 -8242.83 52.3834 95.4841 -9504.99 -52.3834 -95.4841 -6206.62 144.897 -92.5299 -2.18279e-11 -144.897 92.5299 -29232 64.7903 20.594 -5011.36 -64.7903 -20.594 -6979.99 50.2357 17.2659 -8775.17 -50.2357 -17.2659 -6152.37
129.239 597.848 3.63798e-11 -129.239 -597.848 -30039.2 61.9039 305.063 -4185.25 -61.9039 -305.063 -7512.34 52.5146 95.3421 -9571.63 -52.5146 -95.3421 -6176.7 149.137 -86.8976 -2.91038e-11 -149.137 86.8976 -30122.2 55.7023 25.489 -4086.84 -55.7023 -25.489 -6228.26 50.4204 17.4079 -8857.3 -50.4204 -17.4079 -6124.96
132.811 593.251 3.63798e-11 -132.811 -593.251 -30822.6 55.1848 300.475 -3461.76 -55.1848 -300.475 -6981.06 52.0719 94.8515 -9518.61 -52.0719 -94.8515 -6094.53 152.875 -82.3001 -3.63798e-12 -152.875 82.3001 -30906.2 48.8742 30.0762 -3372.43 -48.8742 -30.0762 -5683.7 50.0006 17.8985 -8813.8 -50.0006 -17.8985 -6044.36
135.846 589.838 7.27596e-12 -135.846 -589.838 -31491.9 50.8312 296.278 -2962.68 -50.8312 -296.278 -6666.3 51.0343 94.003 -9341.05 -51.0343 -94.003 -5958.79 156.07 -78.8872 -2.54659e-11 -156.07 78.8872 -31573.9 44.508 34.2739 -2887.68 -44.508 -34.2739 -5364.25 48.954 18.747 -8639.39 -48.954 -18.747 -5909.18
138.296 587.709 7.27596e-12 -138.296 -587.709 -32038.3 48.9743 292.536 -2701.18 -48.9743 -292.536 -6579.19 49.3961 92.7958 -9037.29 -49.3961 -92.7958 -5769.51 158.684 -76.7578 -7.27596e-12 -158.684 76.7578 -32116.4 42.7373 38.0155 -2645.89 -42.7373 -38.0155 -5281.4 47.2739 19.9542 -8332.08 -47.2739 -19.9542 -5719.41
140.127 586.912 1.09139e-11 -140.127 -586.912 -32454.2 49.6747 289.301 -2683.87 -49.6747 -289.301 -6724.33 47.1668 91.2382 -8608.93 -47.1668 -91.2382 -5528.07 160.683 -75.9607 -3.63798e-12 -160.683 75.9607 -32526.1 43.622 41.2505 -2653.61 -43.622 -41.2505 -5439.84 44.9703 21.5118 -7893.36 -44.9703 -21.5118 -5476.34
141.318 587.451 1.81899e-11 -141.318 -587.451 -32735.8 52.9179 286.605 -2910.19 -52.9179 -286.605 -7099.47 44.3712 89.3475 -8060.89 -44.3712 -89.3475 -5237.13 162.05 -76.4998 1.45519e-11 -162.05 76.4998 -32799.2 47.144 43.9463 -2909.95 -47.144 -43.9463 -5837.16 42.0696 23.4025 -7328.29 -42.0696 -23.4025 -5182.67
141.879 589.294 1.45519e-11 -141.879 -589.294 -32884.7 58.6094 284.462 -3371.76 -58.6094 -284.462 -7695.36 41.0495 87.1501 -7401.39 -41.0495 -87.1501 -4900.67 162.795 -78.3429 -1.81899e-11 -162.795 78.3429 -32937.6 53.2034 46.0898 -3406.16 -53.2034 -46.0898 -6463.71 38.6151 25.5999 -6645.44 -38.6151 -25.5999 -4842.45
141.769 592.281 1.45519e-11 -141.769 -592.281 -32892.9 66.5491 282.86 -4048.55 -66.5491 -282.86 -8494.78 37.2597 84.6812 -6642.52 -37.2597 -84.6812 -4524.06 162.861 -81.3303 1.81899e-11 -162.861 81.3303 -32930.6 61.6428 47.6912 -4128.78 -61.6428 -47.6912 -7303.86 34.6642 28.0688 -5856.49 -34.6642 -28.0688 -4460.94
140.783 596.09 0 -140.783 -596.09 -32716.7 76.6218 281.825 -4935.61 -76.6218 -281.825 -9481.12 33.0641 81.9801 -5797.05 -33.0641 -81.9801 -4113.35 162.005 -85.1389 -1.45519e-11 -162.005 85.1389 -32730.4 72.3773 48.7266 -5076.99 -72.3773 -48.7266 -8342.64 30.279 30.7699 -4973.54 -30.279 -30.7699 -4044.22
139.009 600.623 2.18279e-11 -139.009 -600.623 -32375.1 88.5476 281.313 -6006.88 -88.5476 -281.313 -10628.3 28.5429 79.096 -4881.83 -28.5429 -79.096 -3675.77 160.324 -89.6724 -2.18279e-11 -160.324 89.6724 -32357.2 85.0515 49.2389 -6216.32 -85.0515 -49.2389 -9548.8 25.5491 33.654 -4015.07 -25.5491 -33.654 -3600.27
136.597 605.737 -1.09139e-11 -136.597 -605.737 -31899 101.952 281.252 -7226.61 -101.952 -281.252 -11902.5 23.7884 76.0856 -3915.95 -23.7884 -76.0856 -3219.89 157.966 -94.7863 0 -157.966 94.7863 -31842.5 99.2676 49.2995 -7507.9 -99.2676 -49.2995 -10887.6 20.5723 36.6644 -3002.11 -20.5723 -36.6644 -3136.96
133.7 611.289 0 -133.7 -611.289 -31320.6 116.39 281.567 -8551.16 -116.39 -281.567 -13264.5 18.9006 73.0077 -2920.65 -18.9006 -73.0077 -2754.45 155.096 -100.338 1.09139e-11 -155.096 100.338 -31221 114.569 48.9844 -8908.17 -114.569 -48.9844 -12318.1 15.4554 39.7423 -1956.79 -15.4554 -39.7423 -2663.82
130.484 617.107 1.45519e-11 -130.484 -617.107 -30674.2 131.393 282.166 -9934.93 -131.393 -282.166 -14672.7 13.9854 69.9253 -1918.12 -13.9854 -69.9253 -2288.83 151.886 -106.156 1.09139e-11 -151.886 106.156 -30529.1 130.474 48.3854 -10370.6 -130.474 -48.3854 -13797.6 10.3096 42.8247 -902.707 -10.3096 -42.8247 -2190.15
127.125 623.003 1.45519e-11 -127.125 -623.003 -29996.3 146.492 282.953 -11332.5 -146.492 -282.953 -16085.3 9.15031 66.9023 -930.962 -9.15031 -66.9023 -1832.51 148.516 -112.052 0 -148.516 112.052 -29804.6 146.473 47.5984 -11846.1 -146.473 -47.5984 -15281.2 5.24943 45.8477 135.899 -5.24943 -45.8477 -1725.78
123.797 628.794 -1.45519e-11 -123.797 -628.794 -29323.8 161.209 283.828 -12697.3 -161.209 -283.828 -17459.7 4.50272 64.0018 18.2391 -4.50272 -64.0018 -1394.87 145.169 -117.843 -7.27596e-12 -145.169 117.843 -29086 162.059 46.7233 -13285.6 -162.059 -46.7233 -16724.3 0.387739 48.7482 1135.04 -0.387739 -48.7482 -1280.27
120.669 634.304 1.09139e-11 -120.669 -634.304 -28691.4 175.073 284.695 -13983.3 -175.073 -284.695 -18754.3 0.146212 61.2848 907.725 -0.146212 -61.2848 -984.946 142.022 -123.353 -3.63798e-12 -142.022 123.353 -28410.4 176.745 45.8565 -14642.2 -176.745 -45.8565 -18083.5 -4.16703 51.4652 2071.7 4.16703 -51.4652 -862.927
117.878 639.354 2.54659e-11 -117.878 -639.354 -28128.2 187.658 285.466 -15149.4 -187.658 -285.466 -19930.9 -3.82338 58.8079 1717.47 3.82338 -58.8079 -611.143 139.219 -128.403 1.45519e-11 -139.219 128.403 -27808.1 190.082 45.0853 -15872.9 -190.082 -45.0853 -19319 -8.31394 53.9421 2924.37 8.31394 -53.9421 -482.355
115.518 643.753 0 -115.518 -643.753 -27653.1 198.601 286.068 -16161.2 -198.601 -286.068 -20956.1 -7.3201 56.6219 2429.6 7.3201 -56.6219 -281.06 136.854 -132.802 -7.27596e-12 -136.854 132.802 -27299.2 201.678 44.4837 -16940.9 -201.678 -44.4837 -20395.5 -11.9628 56.1281 3673.85 11.9628 -56.1281 -146.312
113.631 647.293 7.27596e-12 -113.631 -647.293 -27273.2 207.604 286.428 -16991.2 -207.604 -286.428 -21801.7 -10.2731 54.7584 3028.98 10.2731 -54.7584 -0.521595 134.959 -136.342 -3.63798e-12 -134.959 136.342 -26891.5 211.223 44.1232 -17817.4 -211.223 -44.1232 -21284.1 -15.0508 57.9916 4304.94 15.0508 -57.9916 141.536
112.212 649.788 3.63798e-12 -112.212 -649.788 -26986.5 214.444 286.51 -17619.2 -214.444 -286.51 -22446.3 -12.6351 53.2589 3504.15 12.6351 -53.2589 227.984 133.522 -138.838 3.63798e-12 -133.522 138.838 -26583.5 218.47 44.0416 -18480.9 -218.47 -44.0416 -21961.1 -17.4994 59.4911 4803.21 17.4994 -59.4911 372.152
111.239 651.1 -7.27596e-12 -111.239 -651.1 -26786.8 218.953 286.304 -18031.2 -218.953 -286.304 -22872.7 -14.3337 52.1633 3843.57 14.3337 -52.1633 394.542 132.509 -140.149 -7.27596e-12 -132.509 140.149 -26369.3 223.247 44.2474 -18916.5 -223.247 -44.2474 -22409.5 -19.263 60.5867 5159 19.263 -60.5867 541.526
110.681 651.114 -5.09317e-11 -110.681 -651.114 -26666.3 221.038 285.799 -18219.4 -221.038 -285.799 -23071.2 -15.3443 51.4899 4041.73 15.3443 -51.4899 497.472 131.877 -140.163 3.63798e-12 -131.877 140.163 -26240.8 225.448 44.7522 -19115.4 -225.448 -44.7522 -22618.7 -20.3075 61.2601 5365.48 20.3075 -61.2601 646.238
110.492 649.747 -3.63798e-11 -110.492 -649.747 -26614.7 220.656 284.994 -18180.4 -220.656 -284.994 -23037 -15.6524 51.249 4095.68 15.6524 -51.249 535.484 131.578 -138.796 -2.91038e-11 -131.578 138.796 -26188.6 225.038 45.5577 -19075 -225.038 -45.5577 -22584.4 -20.6172 61.501 5419.47 20.6172 -61.501 684.689
110.625 646.972 2.91038e-11 -110.625 -646.972 -26621.1 217.829 283.898 -17917 -217.829 -283.898 -22771.9 -15.2592 51.4405 4005.67 15.2592 -51.4405 508.661 131.559 -136.021 1.45519e-11 -131.559 136.021 -26202.2 222.048 46.6534 -18799.1 -222.048 -46.6534 -22308.5 -20.1932 61.3095 5321.53 20.1932 -61.3095 656.643
111.027 642.805 2.54659e-11 -111.027 -642.805 -26674.3 212.652 282.535 -17438.6 -212.652 -282.535 -22283.9 -14.1814 52.0545 3775.35 14.1814 -52.0545 418.328 131.763 -131.854 -3.27418e-11 -131.763 131.854 -26269.9 216.575 48.0163 -18297.7 -216.575 -48.0163 -21799.5 -19.0547 60.6955 5075.81 19.0547 -60.6955 563.673
111.651 637.313 -1.09139e-11 -111.651 -637.313 -26764.8 205.277 280.938 -16760.1 -205.277 -280.938 -21586.6 -12.4515 53.0716 3411.65 12.4515 -53.0716 267.169 132.142 -126.362 2.54659e-11 -132.142 126.362 -26381.7 208.779 49.6131 -17585.6 -208.779 -49.6131 -21071.2 -17.2364 59.6784 4689.65 17.2364 -59.6784 408.834
112.469 630.623 3.63798e-12 -112.469 -630.623 -26887.2 195.899 279.148 -15899.7 -195.899 -279.148 -20698 -10.1163 54.4643 2924.34 10.1163 -54.4643 59.2683 132.671 -119.672 -7.27596e-12 -132.671 119.672 -26531.3 198.865 51.4034 -16682.1 -198.865 -51.4034 -20142.9 -14.7871 58.2857 4173.38 14.7871 -58.2857 196.372
113.47 622.898 -1.09139e-11 -113.47 -622.898 -27041 184.752 277.19 -14878.6 -184.752 -277.19 -19641.2 -7.25168 56.1808 2326.89 7.25168 -56.1808 -196.353 133.349 -111.948 -1.81899e-11 -133.349 111.948 -26717.7 187.085 53.3615 -15609.4 -187.085 -53.3615 -19038.3 -11.7823 56.5692 3541.18 11.7823 -56.5692 -65.3149
114.653 614.361 -3.63798e-12 -114.653 -614.361 -27227.5 172.108 275.114 -13721.2 -172.108 -275.114 -18442 -3.91716 58.1811 1633.17 3.91716 -58.1811 -495.958 134.187 -103.41 1.45519e-11 -134.187 103.41 -26941.7 173.728 55.4375 -14393.7 -173.728 -55.4375 -17785 -8.28619 54.5689 2807.55 8.28619 -54.5689 -371.547
116.002 605.27 -3.63798e-12 -116.002 -605.27 -27445.7 158.285 272.998 -12456.4 -158.285 -272.998 -17130.9 -0.189582 60.4312 859.424 0.189582 -60.4312 -833.001 135.182 -94.3186 0 -135.182 94.3186 -27201 159.126 57.5532 -13064.8 -159.126 -57.5532 -16414 -4.38299 52.3188 1990.52 4.38299 -52.3188 -715.154
117.476 595.863 0 -117.476 -595.863 -27688.2 143.637 270.909 -11117.3 -143.637 -270.909 -15741.2 3.84153 62.8766 24.2523 -3.84153 -62.8766 -1199.52 136.3 -84.9121 -3.63798e-11 -136.3 84.9121 -27487.4 143.657 59.6427 -11657.6 -143.657 -59.6427 -14960.7 -0.158403 49.8734 1108.85 0.158403 -49.8734 -1089.32
119 586.372 2.18279e-11 -119 -586.372 -27940.5 128.557 268.923 -9740.66 -128.557 -268.923 -14309.1 8.08243 65.4619 -852.695 -8.08243 -65.4619 -1587.33 137.472 -75.4209 0 -137.472 75.4209 -27785.1 127.734 61.6285 -10210.6 -127.734 -61.6285 -13462.7 4.28605 47.2881 183.766 -4.28605 -47.2881 -1485.01
120.474 577.011 -1.45519e-11 -120.474 -577.011 -28183.2 113.457 267.12 -8365.62 -113.457 -267.12 -12872.3 12.4361 68.1287 -1751.07 -12.4361 -68.1287 -1987.91 138.601 -66.06 1.81899e-11 -138.601 66.06 -28073.2 111.793 63.4319 -8764.84 -111.793 -63.4319 -11959.6 8.84803 44.6213 -763.066 -8.84803 -44.6213 -1893.41
121.801 567.993 2.54659e-11 -121.801 -567.993 -28396.5 98.7491 265.577 -7031.16 -98.7491 -265.577 -11468.4 16.8049 70.8186 -2650.4 -16.8049 -70.8186 -2392.63 139.59 -57.0421 -1.81899e-11 -139.59 57.0421 -28330.6 96.2643 64.9746 -7360.92 -96.2643 -64.9746 -10490.5 13.4241 41.9314 -1709.81 -13.4241 -41.9314 -2305.6
122.9 559.535 -1.09139e-11 -122.9 -559.535 -28564.6 84.8254 264.367 -5774.13 -84.8254 -264.367 -10133.5 21.0926 73.4744 -3530.61 -21.0926 -73.4744 -2792.87 140.361 -48.5838 0 -140.361 48.5838 -28539.9 81.5621 66.1847 -6037.48 -81.5621 -66.1847 -9093.47 17.9136 39.2756 -2635.24 -17.9136 -39.2756 -2712.91
123.707 551.85 -1.45519e-11 -123.707 -551.85 -28675.8 72.0479 263.553 -4628.2 -72.0479 -263.553 -8901.3 25.2074 76.0412 -4372.57 -25.2074 -76.0412 -3180.32 140.859 -40.8995 1.45519e-11 -140.859 40.8995 -28688.4 68.0669 66.9985 -4829.78 -68.0669 -66.9985 -7803.6 22.2205 36.7088 -3519.25 -22.2205 -36.7088 -3107
124.182 545.142 7.27596e-12 -124.182 -545.142 -28722.7 60.7405 263.188 -3623.21 -60.7405 -263.188 -7802.15 29.0647 78.4681 -5158.67 -29.0647 -78.4681 -3547.33 141.047 -34.191 -2.18279e-11 -141.047 34.191 -28767.4 56.119 67.3637 -3769.1 -56.119 -67.3637 -6652.74 26.2557 34.2819 -4343.23 -26.2557 -34.2819 -3480.09
