-7.50821e-06 -1.02501e-05 -2.50142e-06
-7.56199e-06 -1.02389e-05 -2.50469e-06
-7.68503e-06 -1.02155e-05 -2.51088e-06
-7.93943e-06 -1.01737e-05 -2.51872e-06
-8.2289e-06 -1.01327e-05 -2.5227e-06
-8.60167e-06 -1.00889e-05 -2.52124e-06
-9.06449e-06 -1.00475e-05 -2.51057e-06
-9.6246e-06 -1.00147e-05 -2.48622e-06
-1.02899e-05 -9.99717e-06 -2.44388e-06
-1.1069e-05 -1.0002e-05 -2.37954e-06
-1.19696e-05 -1.00372e-05 -2.28942e-06
-1.29964e-05 -1.01124e-05 -2.17003e-06
-1.41473e-05 -1.02383e-05 -2.0185e-06
-1.541e-05 -1.04254e-05 -1.83404e-06
-1.67689e-05 -1.06899e-05 -1.61402e-06
-1.81926e-05 -1.10456e-05 -1.36045e-06
-1.96436e-05 -1.15064e-05 -1.07738e-06
-2.10798e-05 -1.2084e-05 -7.72344e-07
-2.24573e-05 -1.27869e-05 -4.57022e-07
-2.3733e-05 -1.36184e-05 -1.45613e-07
-2.48641e-05 -1.4577e-05 1.38111e-07
-2.5803e-05 -1.56568e-05 3.67523e-07
-2.64941e-05 -1.68476e-05 5.12508e-07
-2.68709e-05 -1.81357e-05 5.39695e-07
-2.68562e-05 -1.95025e-05 4.13039e-07
-2.63689e-05 -2.09214e-05 9.847e-08
-2.53436e-05 -2.23592e-05 -4.44514e-07
-2.37559e-05 -2.37709e-05 -1.26144e-06
-2.16437e-05 -2.50888e-05 -2.40004e-06
-1.9099e-05 -2.62358e-05 -3.90242e-06
-1.62396e-05 -2.71322e-05 -5.79794e-06
-1.3172e-05 -2.7702e-05 -8.11721e-06
-1.00116e-05 -2.78857e-05 -1.08617e-05
-6.83862e-06 -2.76382e-05 -1.40136e-05
-3.71477e-06 -2.69339e-05 -1.75357e-05
-6.52059e-07 -2.57661e-05 -2.13672e-05
2.32039e-06 -2.41459e-05 -2.54292e-05
5.20776e-06 -2.21154e-05 -2.96132e-05
7.99783e-06 -1.97148e-05 -3.38027e-05
1.06987e-05 -1.70004e-05 -3.78627e-05
1.33142e-05 -1.40488e-05 -4.16632e-05
1.58329e-05 -1.09266e-05 -4.50638e-05
1.82239e-05 -7.70338e-06 -4.79288e-05
2.04362e-05 -4.4476e-06 -5.01274e-05
2.2407e-05 -1.22543e-06 -5.15392e-05
2.40867e-05 1.91897e-06 -5.20539e-05
2.54738e-05 4.89868e-06 -5.15631e-05
2.66134e-05 7.64666e-06 -5.00157e-05
2.7606e-05 1.00773e-05 -4.73511e-05
2.86046e-05 1.21183e-05 -4.35384e-05
3.01653e-05 1.40372e-05 -3.71654e-05
3.24824e-05 1.51887e-05 -2.90857e-05
3.5973e-05 1.55665e-05 -1.94687e-05
4.09474e-05 1.52547e-05 -8.57912e-06
4.75536e-05 1.445e-05 3.35699e-06
5.57489e-05 1.34375e-05 1.58415e-05
6.52841e-05 1.25843e-05 2.83213e-05
7.57256e-05 1.23056e-05 4.03304e-05
8.65652e-05 1.30204e-05 5.13871e-05
9.73697e-05 1.50813e-05 6.11336e-05
0.00010787 1.87319e-05 6.92988e-05
0.000117954 2.40954e-05 7.57587e-05
0.000127615 3.11761e-05 8.05191e-05
0.00013691 3.98656e-05 8.37354e-05
0.000145897 4.9963e-05 8.56798e-05
0.00015458 6.12014e-05 8.67265e-05
0.000162908 7.32615e-05 8.73228e-05
0.000170843 8.5774e-05 8.79747e-05
0.000178428 9.83306e-05 8.92105e-05
0.000185778 0.00011051 9.15479e-05
0.000193022 0.000121913 9.54517e-05
0.000200213 0.000132204 0.000101301
0.000207275 0.000141142 0.00010936
0.000214068 0.00014857 0.000119763
0.00022046 0.000154417 0.000132509
0.000226354 0.000158685 0.000147466
0.000231694 0.00016145 0.000164371
0.000236463 0.000162847 0.000182849
0.000240692 0.00016307 0.000202425
0.00024444 0.000162351 0.000222549
0.000247782 0.000160959 0.000242617
0.0002508 0.000159178 0.000262007
0.000253599 0.00015729 0.000280101
0.000256327 0.000155559 0.00029632
0.000259174 0.000154212 0.000310148
0.000262317 0.000153445 0.00032115
0.000265845 0.000153425 0.000328989
0.000269674 0.000154299 0.000333437
0.000273554 0.000156178 0.00033439
0.000277144 0.000159118 0.000331878
0.000279568 0.000162219 0.000327491
0.000281769 0.000166938 0.000319294
0.000282819 0.0001724 0.000308493
0.000282558 0.00017831 0.00029564
0.000280861 0.000184305 0.000281372
0.000277606 0.000189981 0.000266378
0.000272677 0.000194912 0.000251362
0.000265967 0.000198673 0.000237004
0.00025737 0.000200864 0.00022392
0.000246798 0.00020113 0.000212632
0.000234195 0.000199171 0.000203539
0.000219526 0.000194765 0.000196889
0.000202808 0.000187768 0.000192768
0.000184167 0.000178115 0.000191096
0.0001639 0.000165806 0.000191625
0.000142439 0.000150926 0.00019394
0.000120229 0.000133663 0.000197469
9.76685e-05 0.000114312 0.000201498
7.5134e-05 9.32625e-05 0.000205202
5.29865e-05 7.09779e-05 0.000207688
3.15617e-05 4.79771e-05 0.00020803
1.11382e-05 2.48142e-05 0.00020532
-8.00364e-06 2.0923e-06 0.000198701
-2.57323e-05 -1.94113e-05 0.000187552
-4.23618e-05 -3.93243e-05 0.0001712
-5.80134e-05 -5.7345e-05 0.000149258
-7.26562e-05 -7.31973e-05 0.000121613
-8.61931e-05 -8.66936e-05 8.83518e-05
-9.84336e-05 -9.78434e-05 4.98472e-05
-0.000109281 -0.000106771 6.73021e-06
-0.000118845 -0.000113615 -3.94266e-05
-0.000127406 -0.000118612 -8.84391e-05
-0.000135335 -0.000122078 -0.000139172
-0.000143015 -0.000124386 -0.000190345
-0.000150838 -0.000125936 -0.000240741
-0.000159221 -0.000127156 -0.000289019
-0.000168593 -0.000128492 -0.00033396
-0.000179351 -0.000130371 -0.0003744
-0.000191801 -0.000133196 -0.000409316
-0.000206078 -0.000137349 -0.000437833
-0.000222083 -0.000143185 -0.000459297
-0.000239495 -0.000150992 -0.000473288
-0.000257864 -0.000160958 -0.000479673
-0.00027672 -0.000173131 -0.000478595
-0.000295635 -0.000187403 -0.000470506
-0.000314262 -0.000203495 -0.000456145
-0.000332338 -0.000220976 -0.000436512
-0.000349673 -0.000239286 -0.000412806
-0.000366145 -0.000257771 -0.000386379
-0.000381669 -0.00027573 -0.000358662
-0.000396147 -0.00029246 -0.000331093
-0.000409446 -0.000307308 -0.000305041
-0.000421422 -0.000319702 -0.000281745
-0.000431939 -0.000329178 -0.000262252
-0.000558113 -0.000334719 -0.000247685
-0.000769052 -0.000336241 -0.000238546
-0.000918214 -0.000334907 -0.000234497
-0.00100534 -0.000330778 -0.000235516
-0.00106027 -0.000323648 -0.000241453
-0.00106221 -0.000315373 -0.000251323
-0.00105274 -0.000305283 -0.000264874
-0.00104137 -0.000293321 -0.000281542
-0.00102876 -0.000280081 -0.000300135
-0.00101512 -0.000265906 -0.000319815
-0.00100129 -0.00025116 -0.000339553
-0.000987604 -0.000236429 -0.000358231
-0.000974616 -0.000222236 -0.00037476
-0.000962806 -0.000208973 -0.000388192
-0.000952638 -0.000197049 -0.000397701
-0.000944441 -0.000186863 -0.000402577
-0.000938574 -0.000178704 -0.000402299
-0.000935224 -0.000172774 -0.000396568
-0.000934518 -0.000169208 -0.000385311
-0.00093646 -0.00016807 -0.000368679
-0.000940963 -0.000169327 -0.000347042
-0.000947489 -0.000172924 -0.000320979
-0.000954138 -0.000178997 -0.000291164
-0.000960492 -0.000187167 -0.00025866
-0.000966239 -0.000196999 -0.000224635
-0.000971162 -0.000207921 -0.000190393
-0.000974399 -0.000217001 -0.000163767
-0.000976942 -0.000225999 -0.000138595
-0.000978734 -0.00023457 -0.000115556
-0.000979713 -0.000242389 -9.52773e-05
-0.00097982 -0.000249152 -7.83202e-05
-0.000978998 -0.00025459 -6.51621e-05
-0.000977186 -0.000258485 -5.61798e-05
-0.0009743 -0.000260684 -5.16333e-05
-0.000970222 -0.000261095 -5.16581e-05
-0.000964809 -0.000259695 -5.62631e-05
-0.000957904 -0.000256517 -6.53327e-05
-0.000949369 -0.000251648 -7.86343e-05
-0.000939131 -0.000245212 -9.58281e-05
-0.000927209 -0.000237357 -0.000116479
-0.000913725 -0.000228246 -0.000140069
-0.000898886 -0.000218057 -0.000166008
-0.000882942 -0.000206985 -0.00019365
-0.000866139 -0.000195246 -0.000222301
-0.000848701 -0.000183069 -0.000251237
-0.000830831 -0.000170695 -0.000279724
-0.000812725 -0.000158359 -0.000307034
-0.000794582 -0.000146287 -0.000332466
-0.000776591 -0.000134684 -0.000355359
-0.000758922 -0.000123737 -0.000375115
-0.000741716 -0.0001136 -0.000391202
-0.000725094 -0.000104399 -0.000403177
-0.000709154 -9.62172e-05 -0.00041069
-0.000693979 -8.90994e-05 -0.000413493
-0.000679635 -8.30467e-05 -0.000411445
-0.00066617 -7.80178e-05 -0.000404512
-0.000653611 -7.39315e-05 -0.000392765
-0.000641965 -7.06701e-05 -0.00037638
-0.000631226 -6.80832e-05 -0.000355622
-0.000620513 -6.59894e-05 -0.000330846
-0.000606468 -6.35927e-05 -0.000302594
-0.000596854 -6.11481e-05 -0.000271328
-0.00058924 -5.87687e-05 -0.000237249
-0.000582802 -5.6185e-05 -0.000201082
-0.000576996 -5.33901e-05 -0.000163208
-0.000571579 -5.02364e-05 -0.000124241
-0.000566024 -4.6642e-05 -8.46724e-05
-0.00055964 -4.24891e-05 -4.50673e-05
-0.000551919 -3.76628e-05 -5.96883e-06
-0.000542479 -3.20631e-05 3.27453e-05
-0.000530879 -2.56782e-05 6.99493e-05
-0.000516775 -1.84354e-05 0.000105255
-0.000499988 -1.02898e-05 0.000138276
-0.000480423 -1.129e-06 0.000168729
-0.000458073 9.02591e-06 0.000196303
-0.000432977 2.01018e-05 0.000220843
-0.000405228 3.20456e-05 0.000242236
-0.000374935 4.47942e-05 0.000260432
-0.000342241 5.82728e-05 0.000275448
-0.000307356 7.23766e-05 0.000287373
-0.000270564 8.69704e-05 0.000296372
-0.000232226 0.000101909 0.000302662
-0.000192789 0.000117049 0.000306501
-0.000152768 0.000132242 0.000308184
-0.000112712 0.00014733 0.000308042
-7.31844e-05 0.000162142 0.000306437
-3.47583e-05 0.000176509 0.000303743
1.99996e-06 0.000190267 0.00030034
3.65588e-05 0.000203254 0.0002966
6.84387e-05 0.000215308 0.000292883
9.72232e-05 0.000226276 0.000289529
0.000122572 0.000236015 0.000286846
0.000144237 0.000244395 0.0002851
0.000162068 0.000251305 0.000284512
0.000176016 0.000256651 0.000285247
0.000186122 0.000260362 0.000287411
0.000192499 0.000262396 0.000291046
0.000195315 0.000262746 0.000296129
0.000195191 0.00026143 0.000302571
0.000193691 0.000258493 0.000310221
0.000191083 0.000254017 0.000318864
0.000187546 0.000248122 0.000328228
0.000183279 0.000240953 0.000337993
0.000178485 0.000232686 0.000347798
0.00017336 0.000223519 0.000357251
0.000168083 0.000213676 0.000365942
0.000162825 0.000203393 0.000373454
0.000157753 0.000192914 0.000379377
0.00015303 0.000182481 0.000383325
0.000148814 0.000172327 0.000384942
0.00014525 0.000162675 0.00038392
0.000142467 0.000153728 0.000380009
0.000140569 0.000145666 0.000373022
0.000139638 0.000138644 0.000362847
0.000139736 0.000132782 0.000349451
0.000140911 0.000128167 0.000332885
0.000143202 0.000124845 0.000313285
0.000146545 0.000122838 0.000290871
0.00015092 0.000122125 0.00026594
0.000156488 0.000122564 0.000238907
0.000162983 0.000124195 0.000210161
0.000170339 0.000126886 0.000180174
0.000178285 0.000130521 0.000149508
0.000186633 0.000134959 0.000118719
0.000195135 0.000140069 8.84091e-05
0.00021391 0.000145665 5.91807e-05
0.000231985 0.000151644 3.16027e-05
0.000247871 0.000157868 6.23639e-06
0.000260946 0.000164156 -1.61462e-05
0.000270632 0.000170332 -3.52405e-05
0.000276232 0.000176215 -5.05864e-05
0.000277292 0.000181631 -6.18279e-05
0.000275585 0.000186376 -6.86366e-05
0.000271766 0.00019026 -7.07544e-05
0.000265849 0.000193116 -6.80111e-05
0.000257899 0.000194796 -6.0332e-05
0.000248037 0.00019517 -4.77498e-05
0.000236406 0.000194148 -3.041e-05
0.000223175 0.000191684 -8.37592e-06
0.000208555 0.000187782 1.79605e-05
0.000192803 0.000182451 4.80881e-05
0.000176206 0.000175757 8.13947e-05
0.000159061 0.000167807 0.00011722
0.000141643 0.000158761 0.000154838
0.000124191 0.000148818 0.00019346
0.000106918 0.000138212 0.000232255
9.00115e-05 0.000127198 0.000270367
7.36321e-05 0.000116052 0.000306933
5.791e-05 0.000105055 0.000341113
4.29519e-05 9.44837e-05 0.000372115
2.88517e-05 8.45918e-05 0.000399211
1.56983e-05 7.56037e-05 0.000421757
3.57165e-06 6.77067e-05 0.000439207
-7.47175e-06 6.10469e-05 0.000451126
-1.74104e-05 5.5724e-05 0.000457208
-2.62582e-05 5.17872e-05 0.000457277
-3.40589e-05 4.92327e-05 0.000451294
-4.08817e-05 4.80035e-05 0.000439355
-4.68199e-05 4.79903e-05 0.000421688
-5.19898e-05 4.90342e-05 0.000398644
-5.65309e-05 5.09321e-05 0.000370692
-6.06099e-05 5.34442e-05 0.000338398
-6.44214e-05 5.63033e-05 0.000302416
-6.8187e-05 5.92223e-05 0.000263461
-7.20905e-05 6.18972e-05 0.000222294
-7.17878e-05 6.30492e-05 0.000180008
-7.23294e-05 6.3688e-05 0.000136866
-7.34442e-05 6.32635e-05 9.37308e-05
-7.56989e-05 6.16175e-05 5.14081e-05
-7.91885e-05 5.86182e-05 1.04153e-05
-8.39276e-05 5.41324e-05 -2.81121e-05
-9.00182e-05 4.8029e-05 -6.41914e-05
-0.000102584 4.02507e-05 -9.74384e-05
-0.000121367 3.06929e-05 -0.000127488
-0.000142999 1.93381e-05 -0.000154111
-0.000167329 6.3511e-06 -0.000177169
-0.000194198 -8.23466e-06 -0.000196551
-0.000223396 -2.42247e-05 -0.000212397
-0.00025463 -4.15634e-05 -0.000224872
-0.000287499 -6.0037e-05 -0.000234214
-0.000321577 -7.93671e-05 -0.000240791
-0.000356367 -9.92763e-05 -0.000244999
-0.000391298 -0.000119495 -0.000247285
-0.000425453 -0.000139769 -0.000248115
-0.000458492 -0.000159739 -0.000248021
-0.000490145 -0.000179048 -0.000247537
-0.00052027 -0.000197349 -0.000247179
-0.000548821 -0.000214312 -0.000247431
-0.000575795 -0.000229634 -0.000248729
-0.000601201 -0.000243047 -0.000251443
-0.000625038 -0.000254342 -0.000255863
-0.000644238 -0.000263711 -0.000262058
-0.000660376 -0.000270833 -0.000270262
-0.000673937 -0.000275586 -0.000280475
-0.000684595 -0.000278095 -0.00029261
-0.000692372 -0.000278417 -0.000306463
-0.000697427 -0.000276655 -0.000321798
-0.00069992 -0.000272963 -0.000338269
-0.000700164 -0.000267549 -0.000355477
-0.000699286 -0.00026065 -0.000372954
-0.000697675 -0.000252521 -0.000390193
-0.000695524 -0.000243437 -0.00040666
-0.000693034 -0.00023369 -0.000421815
-0.00069042 -0.000223577 -0.000435123
-0.000687893 -0.000213397 -0.00044607
-0.000685644 -0.000203437 -0.000454181
-0.000683851 -0.000193967 -0.000459033
-0.000682675 -0.000185228 -0.000460275
-0.000682257 -0.000177439 -0.000457635
-0.000682706 -0.000170782 -0.000450931
-0.000684092 -0.000165402 -0.000440077
-0.000686441 -0.000161403 -0.00042509
-0.00068974 -0.000158846 -0.000406088
-0.000693949 -0.000157748 -0.000383297
-0.000699009 -0.000158077 -0.000357045
-0.000709765 -0.000159739 -0.000327765
-0.000722574 -0.000162712 -0.000295926
-0.000735818 -0.000166811 -0.000262128
-0.000749292 -0.000171833 -0.000227025
-0.000762863 -0.000177539 -0.000191311
-0.00077632 -0.00018367 -0.000155715
-0.000789421 -0.000189961 -0.000120973
-0.00080197 -0.000196139 -8.78117e-05
-0.000813775 -0.000201947 -5.6924e-05
-0.000824589 -0.000207152 -2.89481e-05
-0.000834093 -0.000211558 -4.45414e-06
-0.00084192 -0.000214999 1.62778e-05
-0.000847691 -0.000217353 3.25876e-05
-0.000851066 -0.000218547 4.42386e-05
-0.00085183 -0.000218543 5.09781e-05
-0.000850842 -0.000217327 5.27017e-05
-0.0008485 -0.00021492 4.94333e-05
-0.000844802 -0.000211385 4.13181e-05
-0.000839799 -0.000206817 2.86055e-05
-0.00083361 -0.000201335 1.16325e-05
-0.000826418 -0.000195066 -8.87091e-06
-0.000818432 -0.000188175 -3.26639e-05
-0.000809874 -0.000180846 -5.92181e-05
-0.000800949 -0.000173287 -8.79009e-05
-0.000791834 -0.000165722 -0.00011806
-0.00078269 -0.000158378 -0.00014902
-0.000773678 -0.00015148 -0.000180111
-0.000764973 -0.00014524 -0.000210677
-0.000756759 -0.00013985 -0.000240095
-0.000749214 -0.000135477 -0.000267784
-0.00074251 -0.000132256 -0.00029322
-0.000736804 -0.000130292 -0.000315949
-0.000732226 -0.000129658 -0.000335596
-0.000728865 -0.000130393 -0.000351874
-0.000726748 -0.000132508 -0.000364582
-0.000725831 -0.000135983 -0.000373609
-0.000726004 -0.000140769 -0.000378938
-0.0007271 -0.000146785 -0.000380642
-0.000728912 -0.000153915 -0.000378887
-0.000731192 -0.000162008 -0.000373923
-0.00073366 -0.000170885 -0.000366077
-0.000736029 -0.00018033 -0.000355745
-0.000738019 -0.000190096 -0.000343381
-0.000739372 -0.000199909 -0.000329484
-0.000739852 -0.000209474 -0.000314584
-0.000739262 -0.00021848 -0.000299224
-0.000737449 -0.000226608 -0.000283942
-0.000734303 -0.000233543 -0.000269255
-0.000729744 -0.000238987 -0.00025564
-0.000723717 -0.000242668 -0.000243514
-0.000716181 -0.000244353 -0.000233224
-0.000707104 -0.000243855 -0.000225028
-0.000696476 -0.000241039 -0.000219093
-0.000684314 -0.000235823 -0.000215482
-0.000670668 -0.000228181 -0.000214156
-0.000655625 -0.000218143 -0.000214973
-0.000639301 -0.000205794 -0.000217691
-0.000621872 -0.000191271 -0.000221971
-0.000603887 -0.000174704 -0.0002274
-0.000585817 -0.000156279 -0.000233528
-0.000567108 -0.000136433 -0.000239647
-0.000547819 -0.000115476 -0.000245308
-0.000528255 -9.37877e-05 -0.000249776
-0.000508845 -7.16698e-05 -0.000252483
-0.000472879 -4.94684e-05 -0.000252803
-0.00043368 -2.75697e-05 -0.000250158
-0.000396605 -6.19223e-06 -0.000244083
-0.000362237 1.45483e-05 -0.000234018
-0.000330723 3.41763e-05 -0.000219702
-0.000302429 5.23899e-05 -0.000200907
-0.000277751 6.89665e-05 -0.000177494
-0.00025679 8.37189e-05 -0.000149417
-0.000239494 9.65186e-05 -0.000116775
-0.000225813 0.000107302 -7.97862e-05
-0.000215607 0.000116045 -3.87847e-05
-0.000208577 0.000122764 6.23705e-06
-0.000204339 0.000127544 5.45607e-05
-0.000202439 0.000130494 0.000105215
-0.00020227 0.000131774 0.000157508
-0.000202784 0.000131582 0.000210597
-0.00020354 0.000130158 0.000263601
-0.000204227 0.000127774 0.000315612
-0.000204539 0.000124728 0.000365712
-0.000204198 0.000121328 0.000412986
-0.000202961 0.000117894 0.000456553
-0.000198904 0.000114736 0.000495595
-0.000191253 0.000112128 0.000525622
-0.000180235 0.000109296 0.000833197
-0.00016621 0.000107614 0.00120202
-0.000149068 0.000107583 0.00148475
-0.000128741 0.000109263 0.00165392
-0.000105557 0.000113165 0.00169542
-7.93906e-05 0.0001188 0.00168944
-5.03303e-05 0.00012591 0.00167777
-1.85647e-05 0.000134491 0.00166066
1.57399e-05 0.000144498 0.00163803
5.23373e-05 0.000155817 0.00160987
9.08981e-05 0.000168161 0.00157695
0.000131009 0.000181209 0.00154055
0.000172203 0.000194673 0.00150186
0.000213947 0.000208294 0.00146169
0.000255645 0.000221795 0.00142068
0.000296661 0.000234875 0.00137964
0.000336341 0.000247234 0.00133966
0.000374032 0.000258606 0.00130185
0.000409096 0.000268762 0.00126708
0.000441927 0.000277398 0.00123606
0.000490609 0.000283084 0.00120994
0.000525484 0.000288232 0.00118804
0.000549752 0.00029234 0.00117099
0.000565673 0.000294334 0.00115932
0.000573193 0.000295182 0.00114183
0.000573904 0.000294069 0.00113954
0.000571338 0.000291373 0.00114457
0.000566651 0.000287008 0.00115521
0.00056005 0.000280959 0.00117123
0.000551591 0.000273476 0.00119211
0.0005415 0.000264802 0.00121731
0.000530114 0.000255163 0.00124612
0.000517728 0.000244772 0.00127782
0.000504618 0.000233885 0.00131167
0.000491121 0.000222795 0.00134688
0.000477597 0.000211802 0.00138259
0.000464377 0.00020119 0.00141794
0.000451781 0.000191222 0.0014521
0.000440127 0.000182143 0.0014843
0.000429715 0.000174192 0.00151382
0.000420802 0.000167582 0.00154002
0.000413609 0.000162483 0.00156233
0.000408315 0.000159025 0.0015803
0.000405055 0.000157303 0.00159357
0.000403877 0.00015738 0.00160192
0.000404024 0.000159435 0.0016052
0.000405367 0.000163424 0.00160351
0.000407887 0.000169212 0.00159709
0.000411508 0.000176652 0.00158623
0.000416118 0.000185535 0.00157135
0.000421575 0.0001956 0.00155295
0.000427713 0.000206546 0.00153163
0.000434341 0.00021805 0.00150808
0.000441245 0.000229783 0.00148298
0.000448189 0.000241407 0.00145709
0.000454927 0.000252583 0.00143113
0.000461211 0.000262983 0.00140584
0.000466804 0.000272301 0.00138192
0.000471487 0.000280262 0.00135998
0.000475069 0.000286624 0.0013406
0.000477396 0.000291183 0.00132424
0.000478357 0.000293779 0.00131129
0.00047789 0.000294304 0.00130201
0.000475975 0.000292702 0.00129655
0.000472622 0.000288975 0.00129493
0.000467865 0.000283184 0.00129707
0.000461745 0.000275449 0.00130275
0.000454308 0.000265947 0.00131166
0.000445608 0.000254901 0.00132338
0.000435723 0.000242574 0.00133741
0.000424765 0.000229253 0.00135318
0.000412875 0.000215242 0.00137008
0.000400216 0.000200853 0.00138746
0.000386965 0.000186398 0.00140466
0.000373302 0.000172179 0.00142105
0.000359396 0.000158482 0.00143601
0.0003454 0.000145569 0.00144896
0.000331454 0.000133668 0.00145938
0.000317702 0.000122961 0.00146686
0.000304304 0.000113582 0.00147103
0.000291449 0.000105604 0.00147166
0.00027934 9.90455e-05 0.0014686
0.000268171 9.38787e-05 0.0014618
0.000258093 9.00341e-05 0.00145132
0.000249199 8.7411e-05 0.00143729
0.000241511 8.58837e-05 0.00141996
0.000234985 8.53063e-05 0.00139962
0.000229522 8.55157e-05 0.00137665
0.000224982 8.63346e-05 0.00135148
0.000221187 8.75761e-05 0.00132458
0.000217936 8.90475e-05 0.00129647
0.000215009 9.05538e-05 0.00126767
0.000212189 9.19003e-05 0.00123871
0.000209265 9.28975e-05 0.00121014
0.000206022 9.33684e-05 0.00118245
0.000202234 9.31708e-05 0.00115565
0.000197655 9.2311e-05 0.0010876
0.000192101 9.04718e-05 0.00102527
0.000185374 8.76067e-05 0.000969387
0.000178279 8.34768e-05 0.000921247
0.000172432 7.75843e-05 0.000882037
0.000165542 7.07084e-05 0.000850089
0.00015728 6.25774e-05 0.000826868
0.000147521 5.35417e-05 0.000811068
0.000136633 4.35719e-05 0.000802894
0.000124819 3.27825e-05 0.000801468
0.00011216 2.13093e-05 0.000803281
8.98119e-05 9.5146e-06 0.000806876
5.49228e-05 -2.57152e-06 0.000812013
1.93488e-05 -1.48555e-05 0.000818404
-1.62772e-05 -2.71585e-05 0.000825602
-5.16777e-05 -3.94251e-05 0.000833226
-8.64254e-05 -5.14667e-05 0.000840865
-0.000120041 -6.31061e-05 0.000848107
-0.000152148 -7.41618e-05 0.000854558
-0.000182448 -8.44911e-05 0.000859874
-0.000210624 -9.39791e-05 0.000863753
-0.000236377 -0.000102513 0.000865928
-0.000259497 -0.000109986 0.000866172
-0.000279847 -0.000116318 0.000864319
-0.000297348 -0.000121468 0.000860275
-0.000311991 -0.000125421 0.000854013
-0.000323842 -0.000128181 0.000845568
-0.000333027 -0.000129775 0.000835035
-0.000339723 -0.000130259 0.000822571
-0.000344169 -0.000129721 0.000808397
-0.000346675 -0.00012825 0.000777688
-0.000347616 -0.000125894 0.000730267
-0.000347526 -0.000122882 0.000680706
-0.000347124 -0.000119374 0.000629826
-0.000346617 -0.000115538 0.000578991
-0.000346182 -0.000111555 0.00052925
-0.000346 -0.000107592 0.000481553
-0.000346242 -0.000103835 0.000436929
-0.000347067 -0.000100463 0.000396459
-0.000350106 -9.7639e-05 0.000361153
-0.000356278 -9.55066e-05 0.000331823
-0.00036494 -9.42051e-05 0.000309091
-0.000376222 -9.3835e-05 0.000293392
-0.000390215 -9.44983e-05 0.00028507
-0.000406964 -9.62998e-05 0.000284022
-0.000426351 -9.92498e-05 0.000286525
-0.000448148 -0.000103384 0.000291631
-0.000472096 -0.000108692 0.000299157
-0.000497888 -0.000115137 0.00030888
-0.000525175 -0.000122647 0.00032052
-0.000553583 -0.000131113 0.00033373
-0.000582735 -0.0001404 0.000348096
-0.000612252 -0.000150345 0.000363163
-0.000641766 -0.000160765 0.000378449
-0.000670925 -0.000171459 0.000393464
-0.000699334 -0.000182223 0.000407715
-0.000726507 -0.00019286 0.00042072
-0.000752243 -0.000203141 0.000431998
-0.000776388 -0.00021287 0.000441122
-0.000798587 -0.000221877 0.000447718
-0.000818185 -0.000230046 0.000451494
-0.000834983 -0.000237246 0.000452194
-0.000848724 -0.000243384 0.000449649
-0.000859488 -0.000248332 0.000443732
-0.000866947 -0.000252117 0.000434454
-0.000871167 -0.000254718 0.0004219
-0.000872261 -0.000256143 0.00040621
-0.000871476 -0.000256423 0.000387607
-0.000869557 -0.000255635 0.000366386
-0.000866616 -0.000253889 0.000342924
-0.00086278 -0.000251304 0.00031765
-0.000858193 -0.00024802 0.000291043
-0.000853036 -0.000244116 0.000228716
-0.000847467 -0.000239718 0.00014975
-0.00084163 -0.000235142 7.17269e-05
-0.000835685 -0.000230531 -4.23106e-06
-0.000829777 -0.000226085 -7.6306e-05
-0.00082406 -0.000221935 -0.000143395
-0.000818681 -0.000218211 -0.000204468
-0.000813772 -0.000215045 -0.000258425
-0.000809395 -0.000212556 -0.000304136
-0.000805167 -0.000210927 -0.000340553
-0.00080108 -0.000210198 -0.000367123
-0.0007971 -0.000210371 -0.000383623
-0.000793159 -0.000211436 -0.000389988
-0.000789184 -0.000213329 -0.000388593
-0.000785117 -0.000215921 -0.00038374
-0.000780932 -0.000219055 -0.000375627
-0.000776623 -0.000222538 -0.000364554
-0.000772177 -0.000226155 -0.000350862
-0.00076756 -0.00022968 -0.000334926
-0.000762707 -0.000232872 -0.000317153
-0.000757536 -0.000235497 -0.000297972
-0.000751967 -0.000237325 -0.000277822
-0.000745924 -0.000238142 -0.000257133
-0.000739334 -0.000237755 -0.000236308
-0.000732104 -0.000235998 -0.00021571
-0.000724138 -0.000232744 -0.000195657
-0.000715356 -0.000227895 -0.000176419
-0.000705713 -0.00022139 -0.000158208
-0.00069521 -0.0002132 -0.000141172
-0.000683882 -0.000203333 -0.000125392
-0.000671788 -0.000191836 -0.000110878
-0.000658992 -0.0001788 -9.75767e-05
-0.000645562 -0.000164355 -8.53702e-05
-0.000631556 -0.000148673 -7.40836e-05
-0.000617025 -0.000131955 -6.34912e-05
-0.000602025 -0.000114429 -5.33278e-05
-0.000586618 -9.63408e-05 -4.33014e-05
-0.000570884 -7.79402e-05 -3.31068e-05
-0.000554927 -5.94762e-05 -2.24382e-05
-0.000538874 -4.11881e-05 -1.10009e-05
-0.000522863 -2.33017e-05 1.47896e-06
-0.00050717 -6.00556e-06 1.52712e-05
-0.000480221 1.05258e-05 3.06742e-05
-0.000446201 2.61508e-05 4.77391e-05
-0.00041353 4.0698e-05 6.64863e-05
-0.000382757 5.409e-05 8.69696e-05
-0.000361003 6.69068e-05 0.000131585
-0.000341087 7.81467e-05 0.000195819
-0.000323969 8.80603e-05 0.000264591
-0.000309389 9.65984e-05 0.000336976
-0.000297385 0.00010373 0.000412467
-0.0002879 0.000109443 0.000490431
-0.000280716 0.000113768 0.00057031
-0.000275545 0.000116799 0.000651124
-0.000272092 0.000118634 0.0007317
-0.000270007 0.000119373 0.000810796
-0.000268882 0.000119125 0.000887252
-0.000268281 0.000118029 0.000959943
-0.000267777 0.000116253 0.0010277
-0.000266945 0.000113961 0.00108929
-0.000265371 0.000111317 0.00114354
-0.000262671 0.00010849 0.00118935
-0.000258491 0.00010565 0.0012258
-0.000252527 0.000102953 0.00125212
-0.000244527 0.000100553 0.00126768
-0.000234271 9.85936e-05 0.00127194
-0.000221639 9.71779e-05 0.00126907
-0.000206599 9.64029e-05 0.00126185
-0.000189194 9.63551e-05 0.00125034
-0.000169529 9.70921e-05 0.00123467
-0.000147765 9.86462e-05 0.00121507
-0.000124105 0.000101018 0.00119182
-9.87812e-05 0.000104179 0.00116534
-7.20468e-05 0.000108071 0.00113608
-4.41706e-05 0.000112609 0.00110457
-1.54333e-05 0.000117686 0.0010714
1.38661e-05 0.000123178 0.00103717
4.34094e-05 0.000128948 0.00100253
7.28592e-05 0.000134853 0.000968121
0.000101862 0.000140748 0.000934612
0.00013006 0.000146492 0.000902636
0.000157089 0.000151973 0.000867714
0.000182585 0.000157196 0.000802284
0.000206321 0.000161865 0.000744826
0.000228021 0.000165935 0.000695785
0.000247485 0.000169303 0.000656426
0.000264568 0.000171935 0.000627332
0.000279169 0.000173834 0.0006088
0.000291262 0.000175005 0.000601027
0.00030088 0.000175473 0.000602254
0.000308113 0.000175304 0.000608119
0.00031311 0.000174581 0.000618345
0.000316065 0.000173412 0.000632674
0.000317199 0.000171918 0.000650798
0.000317021 0.000170224 0.000672372
0.000316263 0.000168479 0.000697087
0.0003151 0.000166827 0.000739189
0.000313702 0.000165384 0.000791682
0.000312235 0.000164375 0.000846904
0.000310877 0.000163931 0.000904059
0.000309791 0.00016421 0.000962125
0.000309128 0.000165336 0.00102028
0.000308077 0.000167607 0.00107769
0.000306473 0.000171149 0.00113345
0.000305979 0.000175664 0.00118713
0.000306527 0.000181213 0.00123812
0.000308148 0.00018784 0.00128578
0.000310857 0.000195478 0.00132983
0.000314653 0.000204066 0.00136999
0.000322217 0.000213521 0.00140606
0.000335265 0.000223754 0.00143794
0.000350251 0.000234641 0.00146563
0.000366901 0.000246105 0.00148918
0.000384453 0.000258054 0.00150874
0.000402348 0.000270322 0.00152462
0.000420397 0.000282732 0.00153714
0.000438401 0.000295097 0.00154667
0.0004561 0.000307214 0.00155365
0.000473101 0.000318886 0.00155855
0.00048895 0.000329928 0.00156184
0.000503252 0.000340163 0.00156398
0.00051571 0.000349417 0.00156542
0.000526098 0.000357524 0.00156656
0.000534257 0.000364328 0.00156776
0.000540088 0.000369697 0.00156933
0.000543544 0.000373525 0.0015715
0.000544621 0.000375737 0.00157441
0.000544044 0.000376278 0.00157812
0.000542469 0.000375125 0.00158261
0.000539967 0.0003723 0.00158774
0.000536631 0.000367858 0.00159328
0.000532571 0.000361887 0.00159895
0.000527894 0.00035451 0.00160434
0.000522682 0.000345886 0.00160901
0.000516984 0.000336207 0.00161245
0.000510822 0.00032569 0.00161413
0.000504207 0.000314562 0.0016138
0.000497154 0.000303051 0.00161182
0.000489697 0.00029138 0.00160794
0.000481895 0.000279756 0.00160191
0.000473827 0.000268361 0.00159353
0.000465579 0.000257355 0.00158264
0.000457225 0.000246871 0.00156913
0.000448827 0.000237014 0.00155298
0.000440427 0.000227859 0.0015342
0.000432047 0.000219451 0.00151289
0.000423681 0.000211804 0.00148919
0.000415306 0.000204903 0.00146333
0.000406879 0.0001987 0.00143558
0.000398342 0.000193124 0.00140627
0.000389623 0.000188077 0.00137577
0.000380639 0.000183439 0.00134449
0.000371302 0.000179074 0.00131286
0.000361524 0.000174831 0.00128132
0.000351225 0.000170552 0.00125034
0.000340337 0.000166074 0.00122035
0.000328814 0.000161233 0.00119177
0.000313482 0.000154437 0.00115864
0.000297119 0.000146561 0.00112957
0.000279732 0.000137527 0.00107203
0.000261354 0.000127031 0.00101358
0.000241944 0.000115032 0.000967141
0.000221446 0.000101516 0.000933472
0.000199823 8.66372e-05 0.000911585
0.000177121 7.05759e-05 0.000900459
0.000153465 5.35382e-05 0.00089861
0.00012901 3.57945e-05 0.000901026
0.000105561 1.74054e-05 0.000905675
8.17425e-05 -1.42291e-06 0.000911867
3.16099e-05 -1.96194e-05 0.000918501
-1.85191e-05 -3.68682e-05 0.000924988
-6.69068e-05 -5.30667e-05 0.000930389
-0.000112799 -6.78728e-05 0.000934011
-0.000155996 -8.1056e-05 0.000935286
-0.00019559 -9.24923e-05 0.000933814
-0.000231166 -0.000102048 0.000929257
-0.000262598 -0.000109669 0.000921424
-0.000289649 -0.000115421 0.000910339
-0.000312341 -0.000119399 0.000892714
-0.000331002 -0.000121656 0.000845238
-0.000345991 -0.000122439 0.000791508
-0.000357898 -0.000122029 0.000732446
-0.00036745 -0.000120694 0.000670046
-0.00037538 -0.00011872 0.000605889
-0.000382448 -0.000116426 0.000541821
-0.000389403 -0.000114145 0.000479832
-0.000396951 -0.000112195 0.000421935
-0.00040575 -0.000110866 0.000369837
-0.000416397 -0.00011042 0.00032498
-0.000429407 -0.00011108 0.000288592
-0.0004452 -0.000113014 0.000261636
-0.000464083 -0.000116336 0.000244665
-0.000486244 -0.000121098 0.000237789
-0.000511736 -0.000127293 0.000238799
-0.000540431 -0.000134847 0.000243235
-0.00057198 -0.000143662 0.000250608
-0.00060586 -0.000153593 0.000260435
-0.000641412 -0.000164456 0.000272133
-0.000677893 -0.000176027 0.000285027
-0.000714513 -0.000188051 0.000298382
-0.000750478 -0.000200252 0.000311441
-0.000785044 -0.000212342 0.000323446
-0.000817567 -0.000224022 0.000333666
-0.000847531 -0.000235005 0.000341423
-0.000874547 -0.000245023 0.000346132
-0.000898321 -0.00025385 0.000347324
-0.000918643 -0.000261311 0.000344665
-0.000935384 -0.000267291 0.000337973
-0.00094848 -0.000271744 0.000327228
-0.000957939 -0.000274693 0.000312576
-0.00096387 -0.000276222 0.000294316
-0.000966488 -0.000276473 0.000272893
-0.000966435 -0.000275628 0.00024887
-0.000965251 -0.000273861 0.00019808
-0.000963236 -0.000271344 0.000122155
-0.000960568 -0.000268503 4.53648e-05
-0.000956631 -0.000265776 -3.0302e-05
-0.000951197 -0.000263488 -0.000102418
-0.000946314 -0.000261362 -0.000170019
-0.000941989 -0.000259712 -0.000231224
-0.00093842 -0.000258657 -0.000284313
-0.000935516 -0.000258319 -0.000327879
-0.000932037 -0.000259037 -0.000360918
-0.000927995 -0.00026077 -0.000383005
-0.000923398 -0.000263421 -0.000393976
-0.000918224 -0.000266802 -0.000394775
-0.00091246 -0.000270626 -0.000391052
-0.000906094 -0.000274563 -0.000384071
-0.000899127 -0.000278246 -0.00037429
-0.000891576 -0.000281287 -0.000362202
-0.000883465 -0.000283288 -0.000348357
-0.000874792 -0.000283882 -0.000333328
-0.00086551 -0.000282757 -0.000317624
-0.000855513 -0.000279676 -0.000301668
-0.000844628 -0.000274483 -0.000285795
-0.000832658 -0.000267108 -0.000270257
-0.000819438 -0.000257549 -0.000255198
-0.000804885 -0.000245867 -0.00024065
-0.000789011 -0.000232176 -0.00022654
-0.000771884 -0.000216646 -0.000212713
-0.000753593 -0.000199498 -0.000198931
-0.000734237 -0.000181001 -0.000184887
-0.000713935 -0.000161455 -0.000170229
-0.000692809 -0.000141178 -0.000154579
-0.000670968 -0.000120499 -0.000137568
-0.000648487 -9.97422e-05 -0.000118849
-0.000625419 -7.9208e-05 -9.81244e-05
-0.000601855 -5.91509e-05 -7.51701e-05
-0.000577956 -3.97585e-05 -4.98584e-05
-0.000546556 -2.12647e-05 -2.2094e-05
-0.000505444 -2.17034e-06 7.51839e-06
-0.000468312 1.59811e-05 3.97109e-05
-0.000433665 3.326e-05 7.39126e-05
-0.000401182 4.91847e-05 0.000141928
-0.000371585 6.36336e-05 0.000244276
-0.000345082 7.66748e-05 0.000350454
-0.000321529 8.84001e-05 0.000458319
-0.000301125 9.88561e-05 0.000566515
-0.000283654 0.000108011 0.000674027
-0.000268803 0.000115952 0.00077931
-0.000256268 0.000122829 0.000880281
-0.00024561 0.000128725 0.000975138
-0.000236352 0.000133707 0.00106243
-0.000228068 0.000137897 0.00114073
-0.000220321 0.000141415 0.00120851
-0.000212651 0.000144348 0.0012644
-0.000204616 0.00014677 0.00130743
-0.000195823 0.000148762 0.00133691
-0.000185974 0.000150391 0.0013523
-0.00017492 0.000151714 0.00135407
-0.000162645 0.000152756 0.00134898
-0.000149239 0.000153554 0.00133869
-0.000134812 0.000154122 0.00132346
-0.000119467 0.000154456 0.00130361
-0.000103321 0.000154529 0.00127961
-8.65679e-05 0.000154306 0.00125202
-6.95264e-05 0.00015375 0.00122147
-5.26064e-05 0.000152826 0.00118863
-3.62585e-05 0.000151501 0.00115419
-2.09354e-05 0.000149737 0.0011189
-7.08255e-06 0.000147503 0.0010835
4.86012e-06 0.000144771 0.0010487
1.44757e-05 0.000141522 0.00101519
2.13962e-05 0.000137748 0.000983602
2.53228e-05 0.000133446 0.000954518
2.60978e-05 0.000128652 0.000923862
2.45919e-05 0.000123518 0.000867347
2.11332e-05 0.000117959 0.000820162
1.59401e-05 0.000111954 0.00078261
9.29992e-06 0.000105491 0.00075525
1.5109e-06 9.86136e-05 0.000737757
-7.14865e-06 9.13626e-05 0.000729924
-1.64379e-05 8.38131e-05 0.000730257
-2.61723e-05 7.61116e-05 0.000734355
-3.62181e-05 6.84287e-05 0.000741468
-4.64837e-05 6.09502e-05 0.000751123
-5.68893e-05 5.38668e-05 0.000762826
-6.73362e-05 4.73685e-05 0.000776072
-7.7689e-05 4.16238e-05 0.000790297
-8.77868e-05 3.67669e-05 0.000806169
-9.74771e-05 3.28833e-05 0.000829901
-0.000106653 3.00689e-05 0.000852902
-0.000115241 2.83656e-05 0.000874496
-0.000123209 2.7779e-05 0.000894125
-0.000130583 2.82709e-05 0.000911447
-0.000137465 2.9772e-05 0.000926231
-0.000144027 3.21787e-05 0.000938339
-0.00015049 3.5349e-05 0.000947741
-0.000157094 3.90963e-05 0.000954584
-0.000164078 4.31926e-05 0.000959123
-0.00017167 4.73738e-05 0.000961696
-0.000180076 5.13482e-05 0.000962681
-0.000188872 5.47091e-05 0.000962592
-0.000193685 5.62197e-05 0.000962348
-0.000199965 5.69349e-05 0.000961622
-0.000207386 5.64139e-05 0.00096077
-0.000215939 5.45944e-05 0.000959757
-0.000233423 5.15071e-05 0.00095855
-0.000253425 4.69357e-05 0.0009572
-0.000275244 4.07868e-05 0.000955662
-0.000298728 3.30741e-05 0.00095379
-0.000323705 2.38683e-05 0.000951375
-0.000350018 1.32397e-05 0.000948178
-0.000377463 1.3118e-06 0.000943924
-0.000405804 -1.15728e-05 0.000938374
-0.000434745 -2.53457e-05 0.000931135
-0.000464008 -3.98658e-05 0.000921898
-0.000493261 -5.49132e-05 0.000910352
-0.000522192 -7.02553e-05 0.000896224
-0.000550541 -8.56805e-05 0.000879288
-0.000578083 -0.000100988 0.000850517
-0.000604631 -0.000115906 0.000796019
-0.000629975 -0.000130367 0.000734384
-0.000653957 -0.00014424 0.000665811
-0.00067644 -0.00015745 0.000590739
-0.000697341 -0.000169912 0.000509658
-0.000716593 -0.000181601 0.000423335
-0.000734152 -0.000192534 0.000332905
-0.000750007 -0.000202744 0.000239625
-0.00076421 -0.00021227 0.000144777
-0.000776887 -0.00022117 4.96972e-05
-0.000788231 -0.000229504 -4.4135e-05
-0.000798474 -0.000237335 -0.00013522
-0.000807858 -0.000244718 -0.000222125
-0.000816608 -0.000251708 -0.000303519
-0.000824908 -0.000258357 -0.000378143
-0.000832892 -0.000264704 -0.000444847
-0.000840658 -0.000270775 -0.000502657
-0.000848349 -0.000276435 -0.000676817
-0.000856156 -0.000281217 -0.00101746
-0.000863837 -0.000285759 -0.00126641
-0.000871461 -0.000290286 -0.00142159
-0.000879091 -0.000294587 -0.00148286
-0.000886736 -0.000298392 -0.00148528
-0.000894436 -0.000301484 -0.00148101
-0.000902058 -0.000303874 -0.00147316
-0.000909403 -0.00030549 -0.00146172
-0.000916237 -0.000306245 -0.00144721
-0.000922269 -0.000306084 -0.0014303
-0.000927171 -0.000304994 -0.00141126
-0.000930621 -0.000302961 -0.0013903
-0.000932177 -0.000299985 -0.00136781
-0.000931715 -0.00029608 -0.00134435
-0.000929917 -0.000291204 -0.00132038
-0.000926843 -0.00028534 -0.00129618
-0.000922579 -0.000278474 -0.00127206
-0.00091723 -0.000270605 -0.00124841
-0.000910895 -0.000261758 -0.00122555
-0.000903658 -0.000252001 -0.00120365
-0.000895577 -0.000241434 -0.00118282
-0.000886679 -0.000230193 -0.00116317
-0.000876949 -0.000218438 -0.00114475
-0.000866344 -0.000206354 -0.00112754
-0.000854787 -0.000194139 -0.00111148
-0.000842186 -0.00018199 -0.00109647
-0.00082849 -0.000170073 -0.00108244
-0.000813736 -0.000158515 -0.00106933
-0.000798043 -0.000147396 -0.00105705
-0.000781575 -0.000136759 -0.00104554
-0.000764512 -0.000126608 -0.00103476
-0.000747036 -0.000116923 -0.0010247
-0.000729319 -0.000107661 -0.00101532
-0.000711516 -9.87687e-05 -0.00100662
-0.000693763 -9.01818e-05 -0.000998574
-0.000676162 -8.1837e-05 -0.000991165
-0.000658765 -7.36791e-05 -0.000984367
-0.00064157 -6.56656e-05 -0.000978137
-0.000624532 -5.77632e-05 -0.00097242
-0.00060763 -4.9937e-05 -0.000967158
-0.000590913 -4.21413e-05 -0.000962285
-0.000574522 -3.43187e-05 -0.000957703
-0.000562921 -2.55426e-05 -0.000944736
-0.000545888 -1.69612e-05 -0.000927468
-0.000522751 -8.39987e-06 -0.000909433
-0.00050102 -1.35489e-07 -0.000889921
-0.000481363 7.83194e-06 -0.000867958
-0.000463818 1.52703e-05 -0.000842812
-0.000448672 2.21155e-05 -0.000814063
-0.000436145 2.82671e-05 -0.00078149
-0.000426208 3.36145e-05 -0.000744821
-0.00041883 3.80828e-05 -0.000704014
-0.000413925 4.16288e-05 -0.00065929
-0.000411296 4.42085e-05 -0.000611156
-0.000410722 4.58117e-05 -0.000560299
-0.000411298 4.64566e-05 -0.00050758
-0.000412596 4.62009e-05 -0.000454079
-0.000414535 4.51267e-05 -0.000401082
-0.000417031 4.33389e-05 -0.000349992
-0.000419987 4.09579e-05 -0.000302255
-0.000423298 3.81127e-05 -0.000259319
-0.000426854 3.49303e-05 -0.000222603
-0.000430533 3.1533e-05 -0.000193431
-0.000434347 2.80628e-05 -0.00017301
-0.000438172 2.46127e-05 -0.000162292
-0.000441734 2.12204e-05 -0.000161131
-0.000444822 1.79125e-05 -0.000163792
-0.000447317 1.47248e-05 -0.000169163
-0.000449186 1.16946e-05 -0.000177224
-0.000450482 8.86334e-06 -0.000187903
-0.000451325 6.26312e-06 -0.000201052
-0.000451858 3.90546e-06 -0.000216436
-0.000452203 1.775e-06 -0.000233762
-0.000452438 -1.72221e-07 -0.000252686
-0.000452622 -1.98489e-06 -0.000272803
-0.000452816 -3.74549e-06 -0.000293688
-0.000453064 -5.56426e-06 -0.000314883
-0.000453381 -7.48534e-06 -0.00035029
-0.000453731 -9.63553e-06 -0.000391952
-0.000454072 -1.21129e-05 -0.000431722
-0.000454336 -1.5001e-05 -0.00046865
-0.000454441 -1.83104e-05 -0.000502194
-0.000454294 -2.20505e-05 -0.000531957
-0.000453794 -2.6181e-05 -0.000557589
-0.00045284 -3.06301e-05 -0.000578833
-0.000451328 -3.5277e-05 -0.000595643
-0.000449135 -3.99643e-05 -0.000608179
-0.000446702 -4.44069e-05 -0.0006167
-0.000446816 -4.78215e-05 -0.000621905
-0.000446073 -5.08295e-05 -0.000623457
-0.000444867 -5.30875e-05 -0.000622667
-0.000443168 -5.44746e-05 -0.000620491
-0.000440991 -5.49015e-05 -0.00061708
-0.000438324 -5.42655e-05 -0.000612535
-0.000435207 -5.24579e-05 -0.000606999
-0.000431678 -4.94467e-05 -0.000600563
-0.00042781 -4.52451e-05 -0.000593276
-0.000423683 -3.98791e-05 -0.000585151
-0.000419393 -3.34124e-05 -0.000576173
-0.000415399 -2.58909e-05 -0.000566324
-0.000412145 -1.74247e-05 -0.000555537
-0.000408192 -8.22522e-06 -0.000543652
-0.000403982 1.41429e-06 -0.000530576
-0.000401463 1.13541e-05 -0.000516124
-0.000400568 2.11559e-05 -0.000500273
-0.00040082 3.04981e-05 -0.000476132
-0.000401636 3.89713e-05 -0.000408661
-0.000402992 4.64499e-05 -0.000336696
-0.000404862 5.27544e-05 -0.000259871
-0.000407239 5.77492e-05 -0.000179416
-0.0004101 6.13318e-05 -9.57998e-05
-0.000413375 6.34791e-05 -1.02117e-05
-0.000416953 6.42268e-05 7.56004e-05
-0.000420713 6.36545e-05 0.000159603
-0.000424557 6.18946e-05 0.000239932
-0.000428412 5.91286e-05 0.000314643
-0.000432209 5.55722e-05 0.000381594
-0.000435864 5.1453e-05 0.000438596
-0.000439283 4.69993e-05 0.000483737
-0.000442364 4.24269e-05 0.000515417
-0.000445014 3.79335e-05 0.000532288
-0.000447172 3.36902e-05 0.000534327
-0.00044881 2.98097e-05 0.000529753
-0.000449944 2.63845e-05 0.000520411
-0.000450615 2.34673e-05 0.000506417
-0.000450865 2.10633e-05 0.000487986
-0.000450732 1.91203e-05 0.000465482
-0.000450254 1.75384e-05 0.000439426
-0.0004495 1.61876e-05 0.000410427
-0.000448579 1.49195e-05 0.000379158
-0.000447629 1.35716e-05 0.000346345
-0.000446781 1.19721e-05 0.00031276
-0.000446155 9.96419e-06 0.000272903
-0.000445886 7.58681e-06 0.000176028
-0.000446069 4.49223e-06 8.37886e-05
-0.000446521 5.83406e-07 -2.51087e-06
-0.000447658 -4.16662e-06 -8.11203e-05
-0.000449715 -9.73104e-06 -0.000151298
-0.000452772 -1.60465e-05 -0.000212396
-0.000456746 -2.31022e-05 -0.000263542
-0.000461529 -3.08101e-05 -0.000304271
-0.000467384 -3.90305e-05 -0.000334721
-0.000475195 -4.7628e-05 -0.000355385
-0.000483228 -5.64455e-05 -0.000366813
-0.000491255 -6.52805e-05 -0.000369724
-0.00049905 -7.38811e-05 -0.000368108
-0.000506425 -8.19938e-05 -0.000364411
-0.00051429 -8.91882e-05 -0.000359138
-0.000521392 -9.5448e-05 -0.000352596
-0.000527462 -0.000100539 -0.000345223
-0.000532307 -0.000104313 -0.000337402
-0.000535747 -0.000106641 -0.000329487
-0.000537646 -0.000107433 -0.000321735
-0.000537939 -0.000106626 -0.000314351
-0.000536925 -0.000104204 -0.000307477
-0.000534896 -0.000100167 -0.000301184
-0.000532058 -9.45714e-05 -0.000295449
-0.000528571 -8.75388e-05 -0.000290157
-0.000524505 -7.92608e-05 -0.000285127
-0.000519365 -7.00965e-05 -0.000280074
-0.000513943 -6.01382e-05 -0.000274782
-0.000508305 -4.96899e-05 -0.000268929
-0.000502595 -3.90295e-05 -0.000262213
-0.000496954 -2.84296e-05 -0.000254344
-0.000491515 -1.81581e-05 -0.000245076
-0.000486423 -8.47013e-06 -0.000234157
-0.000478529 4.19615e-07 -0.000221511
-0.000469032 8.40145e-06 -0.000207021
-0.000460185 1.52394e-05 -0.000190795
-0.000451709 2.08159e-05 -0.000170853
-0.000443349 2.49901e-05 -0.000111346
-0.000434872 2.78782e-05 -4.79606e-05
-0.000430226 3.00557e-05 1.69913e-05
-0.000427594 3.14016e-05 8.22455e-05
-0.000425004 3.18169e-05 0.000146958
-0.000422102 3.16208e-05 0.000209383
-0.000418455 3.0925e-05 0.000268014
-0.000413775 2.99266e-05 0.000321073
-0.000407953 2.88745e-05 0.000367134
-0.000400891 2.80214e-05 0.000404919
-0.00039255 2.75692e-05 0.000433279
-0.000382996 2.77016e-05 0.000451274
-0.000372335 2.85765e-05 0.00045834
-0.000360653 3.02839e-05 0.000457027
-0.000348018 3.28301e-05 0.00045214
-0.000334515 3.6184e-05 0.000443941
-0.000320287 4.02691e-05 0.000432737
-0.000305546 4.496e-05 0.000418951
-0.000290568 5.00828e-05 0.000403119
-0.000276266 5.54969e-05 0.000385821
-0.000262766 6.09453e-05 0.000367705
-0.000250036 6.61586e-05 0.000349439
-0.000238008 7.08627e-05 0.000331693
-0.000226625 7.48045e-05 0.000315099
-0.000215819 7.77717e-05 0.000300217
-0.000205551 7.96134e-05 0.000287505
-0.000195851 8.02667e-05 0.000277622
-0.000189111 7.99758e-05 0.000256399
-0.000185478 7.87102e-05 0.000242308
-0.000183324 7.63167e-05 0.000236693
-0.000182859 7.30572e-05 0.000237451
-0.00018328 6.90476e-05 0.000240813
-0.000184165 6.44587e-05 0.000246364
-0.000185401 5.95069e-05 0.000261273
-0.000186832 5.44403e-05 0.000283426
-0.000188286 4.95267e-05 0.000307972
-0.000189606 4.50256e-05 0.000333691
-0.000190615 4.11728e-05 0.000359499
-0.00019114 3.81844e-05 0.000384423
-0.000191031 3.62458e-05 0.000407521
-0.000190152 3.55021e-05 0.000427931
-0.0001884 3.60553e-05 0.000445061
-0.000185713 3.79613e-05 0.00045859
-0.000181238 4.12234e-05 0.000468403
-0.000171062 4.57665e-05 0.0004746
-0.00015906 5.15073e-05 0.000477471
-0.000145335 5.83618e-05 0.00047765
-0.000130177 6.61474e-05 0.000476768
-0.00011415 7.47001e-05 0.000475353
-9.83902e-05 8.3878e-05 0.000473752
-8.35325e-05 9.34477e-05 0.000472379
-7.013e-05 0.000103153 0.000471661
-5.85475e-05 0.000112707 0.00047203
-4.9015e-05 0.000121813 0.000473881
-4.17307e-05 0.000130185 0.000477559
-3.69705e-05 0.00013756 0.000491351
-3.51028e-05 0.000143733 0.000511212
-3.57341e-05 0.000148554 0.000536827
-3.79394e-05 0.00015189 0.00056816
-4.18004e-05 0.000153679 0.000604843
-4.73947e-05 0.000153903 0.000646295
-5.47645e-05 0.000152596 0.000691613
-6.3892e-05 0.000149823 0.00073966
-7.46771e-05 0.000145673 0.00078912
-8.69362e-05 0.000140251 0.000838573
-0.000100424 0.000133677 0.000886473
-0.000114878 0.000126089 0.000931203
-0.000130025 0.00011764 0.000971129
-0.000145577 0.000108483 0.00100468
-0.000161221 9.87701e-05 0.00103037
-0.000176643 8.86506e-05 0.00104685
-0.000191575 7.82721e-05 0.00105294
-0.000205821 6.77755e-05 0.00105073
-0.000219257 5.72857e-05 0.00104363
-0.000231759 4.6929e-05 0.00103146
-0.000250543 3.69416e-05 0.00101411
-0.000265868 2.67259e-05 0.000991927
-0.000278694 1.69413e-05 0.000964819
-0.000289466 7.47722e-06 0.000933246
-0.000298597 -1.51224e-06 0.000897563
-0.00030593 -9.95162e-06 0.000858404
-0.000311766 -1.79123e-05 0.000816282
-0.000316432 -2.5456e-05 0.000772017
-0.000320358 -3.24674e-05 0.000658249
-0.000323946 -3.90102e-05 0.000493729
-0.000327681 -4.53099e-05 0.00032916
-0.00033202 -5.1536e-05 0.000168711
-0.000337385 -5.77442e-05 1.49789e-05
-0.000344116 -6.39775e-05 -0.000130584
-0.000352417 -7.03766e-05 -0.000265382
-0.0003624 -7.70864e-05 -0.000386626
-0.000374118 -8.41784e-05 -0.000492151
-0.000387565 -9.16886e-05 -0.000581022
-0.000402679 -9.96535e-05 -0.000652393
-0.000419336 -0.000108075 -0.000705471
-0.000437364 -0.000116898 -0.00073994
-0.000456592 -0.000126022 -0.000756325
-0.00047687 -0.000135305 -0.0007573
-0.000498064 -0.000144548 -0.000752615
-0.00052 -0.000153555 -0.000743993
-0.000542451 -0.000162127 -0.000731963
-0.000565144 -0.000170076 -0.000717127
-0.000587796 -0.000177211 -0.000700122
-0.000610138 -0.000183366 -0.000681595
-0.000631887 -0.000188406 -0.00066217
-0.00065271 -0.000192244 -0.000642441
-0.000672249 -0.000194832 -0.000622959
-0.000690162 -0.000196166 -0.000604208
-0.000706164 -0.000196285 -0.000586597
-0.000720079 -0.000195255 -0.00057046
-0.000731881 -0.000193166 -0.000556055
-0.000741711 -0.000190129 -0.000543562
-0.000749831 -0.000186277 -0.000533077
-0.000756564 -0.000181771 -0.000524615
-0.000762257 -0.0001768 -0.00051812
-0.00076723 -0.00017158 -0.000513468
-0.000771756 -0.000166352 -0.000510481
-0.000776065 -0.000161367 -0.000508939
-0.000780363 -0.000156878 -0.000508603
-0.000784841 -0.000153122 -0.000509229
-0.000789658 -0.000150318 -0.000510588
-0.00079493 -0.000148652 -0.000512478
-0.000800718 -0.000148272 -0.000514738
-0.000807022 -0.000149281 -0.00051726
-0.000813796 -0.000151731 -0.000519997
-0.000820947 -0.000155619 -0.000522965
-0.000828243 -0.000160893 -0.000526241
-0.000834224 -0.000167595 -0.000529915
-0.000838601 -0.000175522 -0.000534207
-0.000841314 -0.000184405 -0.000539386
-0.0008424 -0.000193918 -0.000545747
-0.000842111 -0.000203694 -0.0005536
-0.000840893 -0.000213348 -0.000563241
-0.000838681 -0.000222523 -0.000574909
-0.000835368 -0.000230889 -0.00058877
-0.000830811 -0.000238154 -0.000604904
-0.000824827 -0.000244075 -0.000623288
-0.000817201 -0.000248472 -0.000643784
-0.000807735 -0.000251212 -0.000666143
-0.00079626 -0.000252208 -0.000690008
-0.000782645 -0.000251416 -0.000714921
-0.000766827 -0.000248823 -0.000740337
-0.000748851 -0.000244419 -0.000783215
-0.000728891 -0.000238056 -0.000872398
-0.000707149 -0.000229976 -0.000955957
-0.00068393 -0.000220229 -0.00103175
-0.000659533 -0.00020892 -0.00109673
-0.000634243 -0.000196115 -0.00114902
-0.000608289 -0.000181961 -0.00118637
-0.000581856 -0.000166635 -0.00120607
-0.000555796 -0.00015019 -0.00120764
-0.000536572 -0.000131428 -0.00120189
-0.000517378 -0.000112411 -0.00118938
-0.000475037 -9.31019e-05 -0.00117005
-0.000433664 -7.37552e-05 -0.00114356
-0.000395068 -5.46034e-05 -0.00110981
-0.000358718 -3.58154e-05 -0.00106901
-0.000324972 -1.74537e-05 -0.00102156
-0.000294089 4.38782e-07 -0.000967893
-0.000265918 1.79017e-05 -0.000908536
-0.000240344 3.48276e-05 -0.000844507
-0.000217208 5.12238e-05 -0.000776755
-0.000195934 6.69035e-05 -0.000604893
-0.000175927 8.16477e-05 -0.00032449
-0.000156763 9.60938e-05 -4.23072e-05
-0.000137646 0.000110284 0.000236014
-0.000117925 0.000124311 0.000506764
-9.69238e-05 0.000138182 0.00076775
-7.40525e-05 0.000152027 0.00101537
-4.88608e-05 0.000165992 0.00124458
-2.10027e-05 0.000180149 0.00145166
9.78424e-06 0.000194533 0.00163477
4.39185e-05 0.000208696 0.0020279
8.15021e-05 0.000222027 0.00260687
0.000121877 0.000236194 0.00308066
0.000165119 0.000250804 0.0034233
0.000210618 0.000266002 0.00363612
0.000258172 0.000281203 0.00375618
0.000307257 0.00029639 0.00379473
0.000357395 0.000311358 0.00379023
0.000408092 0.000325824 0.00378044
0.000458857 0.000339496 0.00376663
0.000507557 0.000352367 0.00374977
0.000541241 0.000365486 0.00372986
0.000574125 0.000376936 0.00370822
0.000624907 0.000386572 0.0036859
0.000658139 0.000393607 0.00366435
0.000626309 0.000350252 0.00366857
0.000609471 0.000349107 0.00365137
0.00063604 0.00036085 0.00360381
0.000648997 0.000361799 0.00358384
0.000684366 0.000371472 0.00354847
0.000743687 0.000382772 0.00350672
0.000799019 0.000390108 0.00346775
0.000859031 0.000396007 0.00343175
0.000921328 0.000405938 0.00339665
0.000989169 0.000405141 0.00336623
0.012896 0.000349481 0.00336034
0.0249753 0.000273916 0.00336337
0.0261878 0.000301473 0.00332717
0.0261882 0.000334715 0.00328701
0.0276941 0.000332751 0.00325777
0.0291675 0.000350463 0.0031479
0.0294039 0.000354067 0.00304396
0.0306312 0.000353446 0.00295319
0.0320014 0.000353777 0.00288216
0.0326387 0.00035693 0.00284397
0.0334263 0.000359279 0.00284093
0.0344961 0.000362541 0.00284541
0.0352814 0.000368753 0.00285266
0.0359275 0.000375474 0.00286512
0.0367011 0.000382261 0.00288364
0.0374148 0.000390797 0.00291932
0.0379986 0.000400669 0.00296223
0.038597 0.000410694 0.0030122
0.0391959 0.000421312 0.00306928
0.0399057 0.000432186 0.00313274
0.0406864 0.000471865 0.00320055
0.0413807 0.000586431 0.0032658
0.0419198 0.000716012 0.00332889
0.0424104 0.000829395 0.00340205
0.0428585 0.00094503 0.00347728
0.0431049 0.000944196 0.00353018
0.0430803 0.000913609 0.00345886
0.0430968 0.00090275 0.00354818
0.0430936 0.000932272 0.00361269
0.0431041 0.000944974 0.00370713
0.0433258 0.000980535 0.00378914
0.0435586 0.00113166 0.00475173
0.0437675 0.00124252 0.0058367
0.0440001 0.0013431 0.00693834
0.0441485 0.00146645 0.00794774
0.0442405 0.0015856 0.00874885
0.0443517 0.0016795 0.00958347
0.044405 0.00176926 0.0103976
0.044406 0.00186175 0.0111677
0.044405 0.00194321 0.0119212
0.0444032 0.00200649 0.0126781
0.0443996 0.00238049 0.0133963
0.0443811 0.00565904 0.0136497
0.0443189 0.0182485 0.0135355
0.0442949 0.022425 0.0134958
0.0442982 0.0228563 0.013539
0.0442991 0.0228144 0.0136019
0.044298 0.02285 0.0136197
0.0443022 0.0231803 0.0136141
0.0443046 0.0235151 0.0136288
0.044309 0.0235135 0.0136952
0.0443133 0.0239531 0.0140894
0.0443121 0.0249951 0.0140951
0.0443138 0.0255362 0.0140801
0.0443218 0.0255646 0.0139579
0.0443235 0.0257421 0.0139561
0.0443231 0.0263975 0.0139693
0.0443223 0.026925 0.0139817
0.0443209 0.0272122 0.0139943
0.04432 0.0274099 0.0140158
0.0443161 0.0277131 0.0140336
0.0443112 0.0280114 0.0140486
0.0443061 0.0281664 0.0140666
0.0443003 0.0282296 0.0140902
0.0442932 0.0282934 0.0143819
0.0442857 0.0283182 0.0149389
0.044277 0.0283159 0.0154988
0.0440145 0.0283143 0.0160528
0.0435868 0.0283131 0.0165878
0.0431505 0.0283102 0.0171005
0.0427101 0.0283055 0.0175887
0.042215 0.0283002 0.0180428
0.0417099 0.0282964 0.0184502
0.0412582 0.0282937 0.0187756
0.0407938 0.0282913 0.0190451
0.0402931 0.0282876 0.0192726
0.0397953 0.0282831 0.019453
0.0393039 0.0282783 0.0195642
0.0387918 0.0282728 0.0196016
0.0382798 0.0282662 0.0195993
0.0377788 0.0282586 0.0195929
0.0373801 0.028252 0.0195847
0.0369833 0.0282448 0.0195735
0.0365945 0.0282371 0.0195595
0.0362203 0.0282295 0.0195442
0.0358585 0.028221 0.0195279
0.0355004 0.0282127 0.0195074
0.0351467 0.028204 0.0194848
0.0348091 0.0281947 0.019466
0.0344783 0.0281735 0.0194454
0.0341655 0.027931 0.0194254
0.0338831 0.0276185 0.0194052
0.0336146 0.0272702 0.0193846
0.0333363 0.0269473 0.0193614
0.0330591 0.0266503 0.0193358
0.0327929 0.0263456 0.0193089
0.0325341 0.0260148 0.0192815
0.0322786 0.0256714 0.0192534
0.032025 0.0253318 0.0192243
0.0317715 0.0250044 0.0191939
0.031515 0.0246828 0.0191624
0.0312573 0.0243537 0.0191305
0.0309999 0.0240147 0.0190987
0.0307376 0.0236754 0.0190667
0.0304653 0.0233421 0.0190346
0.0301833 0.0230105 0.0190025
0.0298926 0.0226736 0.0189707
0.0295914 0.0223316 0.0187596
0.0292699 0.022002 0.0182614
0.0289321 0.0216775 0.0177669
0.028582 0.0213502 0.017284
0.0282235 0.0210092 0.0168309
0.0278558 0.020655 0.0164083
0.027478 0.0202975 0.0160035
0.027088 0.0199385 0.0156101
0.026699 0.0196029 0.015222
0.0263114 0.0192745 0.0148485
0.0259181 0.0189494 0.014496
0.0255184 0.0186172 0.0141708
0.0251274 0.0182775 0.0138686
0.0247607 0.0179339 0.013586
0.0244155 0.0175913 0.0133203
0.0240852 0.0172503 0.013073
0.0237687 0.016909 0.0128451
0.0234665 0.0165678 0.0126351
0.0231763 0.0162315 0.0124387
0.022894 0.0159057 0.0122513
0.0226179 0.0155928 0.012071
0.0223483 0.0152925 0.0118974
0.0220845 0.015005 0.0117299
0.0218251 0.014733 0.0115663
0.02157 0.0144796 0.0114037
0.0213205 0.0142463 0.0112402
0.0210783 0.0140329 0.0110755
0.0208451 0.0138389 0.0109101
0.0206228 0.013664 0.0107442
0.0204135 0.0135088 0.0105775
0.0202192 0.0133738 0.0104097
0.0200415 0.0132582 0.0102413
0.0198822 0.0131628 0.010073
0.0197431 0.0130928 0.00990333
0.0196244 0.0130482 0.00973335
0.0195254 0.0130273 0.00956497
0.019446 0.0130254 0.00940066
0.019389 0.0130263 0.00924637
0.0193557 0.0130279 0.00910608
0.0193444 0.0130301 0.00898163
0.0193448 0.0130329 0.00887413
0.019346 0.0130364 0.00878444
0.0193477 0.0130402 0.0087149
0.01935 0.0130444 0.00866827
0.0193527 0.0130488 0.00864646
0.0193558 0.0130534 0.00864576
0.0193592 0.0130582 0.00864863
0.0193627 0.0130631 0.00865383
0.0193664 0.0130681 0.00866136
0.01937 0.0130731 0.00867127
0.0193735 0.0130781 0.00868355
0.0193767 0.0130831 0.00869812
0.0193795 0.0130881 0.00871483
0.0193819 0.0130931 0.00873351
0.0193837 0.0130981 0.008754
0.019385 0.0131032 0.00877613
0.0193857 0.0131082 0.0087997
0.0193859 0.0131132 0.00882444
0.0193856 0.0131182 0.00885011
0.0193849 0.0131231 0.00887644
0.0193838 0.0131279 0.00890328
0.0193826 0.0131325 0.00906933
0.0193812 0.0131366 0.00934832
0.0193796 0.0131406 0.00962556
0.0193779 0.0131445 0.00989595
0.0193762 0.0131481 0.0101004
0.0193745 0.0131513 0.0102761
0.0193729 0.0131545 0.0104413
0.019372 0.0131571 0.0106022
0.0193713 0.0131596 0.0107546
0.0193708 0.013162 0.010894
0.0193704 0.0131643 0.0110191
0.0193704 0.0131663 0.0111307
0.019371 0.013168 0.0112302
0.019372 0.0131696 0.0113167
0.0193733 0.0131711 0.0113884
0.0193749 0.0131724 0.0114437
0.0193768 0.0131737 0.0114823
0.0193788 0.0131749 0.0115051
0.0193809 0.0131761 0.0115126
0.019383 0.0131772 0.0115112
0.0193851 0.0131782 0.0115077
0.0193871 0.0131791 0.0115021
0.0193892 0.0131799 0.0114948
0.0193913 0.0131805 0.0114874
0.0193934 0.013181 0.0114786
0.0193956 0.0131811 0.0114685
0.019398 0.013181 0.0114573
0.0194004 0.0131805 0.0114452
0.019403 0.0131796 0.0114322
0.0194058 0.0131783 0.0114186
0.0194086 0.0131766 0.0114044
0.0194117 0.0131745 0.0113899
0.0194149 0.013172 0.011375
0.0194184 0.013169 0.01136
0.0194222 0.0131659 0.0112396
0.0194262 0.0131625 0.011044
0.0194307 0.0131589 0.0108467
0.0194356 0.0131551 0.0106524
0.0194409 0.0131511 0.0104646
0.0194468 0.0131471 0.0102821
0.0194531 0.0131432 0.0101019
0.01946 0.0131395 0.00992288
0.0194674 0.0131361 0.00974723
0.0194755 0.0131332 0.00957759
0.0194841 0.0131307 0.0094148
0.0194932 0.0131289 0.00925795
0.0195029 0.0131279 0.00910625
0.0195131 0.0131277 0.00896048
0.0195238 0.0131285 0.00882264
0.019535 0.0131302 0.00869458
0.0195466 0.0131329 0.00857736
0.0195587 0.0131366 0.00847166
0.0195712 0.0131414 0.00837866
0.019584 0.0131472 0.0083003
0.019746 0.0131534 0.00824189
0.0201942 0.0131574 0.00821984
0.020679 0.0131614 0.00821853
0.0211034 0.0131686 0.00821946
0.021519 0.0131761 0.00822281
0.0219689 0.0131836 0.00822871
0.0224218 0.0131919 0.00823662
0.0228512 0.0132001 0.00824716
0.0232614 0.0132086 0.00825991
0.0236746 0.0132175 0.00827509
0.0240986 0.0132269 0.00829228
0.0245149 0.013237 0.00831136
0.0249193 0.0132478 0.00833235
0.0253207 0.0132692 0.00840373
0.0256985 0.0135247 0.00862712
0.0260344 0.0138906 0.00880783
0.0263551 0.014294 0.00900896
0.0266885 0.0146655 0.00920445
0.0270176 0.0150022 0.00939283
0.0273345 0.0153441 0.00959097
0.0276402 0.0157165 0.009798
0.0279331 0.0161143 0.0100112
0.0282153 0.0165162 0.0102323
0.0284877 0.0169053 0.0104671
0.0287518 0.0172862 0.010718
0.029004 0.0176774 0.0109799
0.02924 0.0180854 0.0112478
0.0294624 0.0184973 0.0115226
0.0296747 0.0189009 0.0118075
0.0298759 0.0192967 0.0121034
0.0300633 0.019693 0.0124083
0.0302366 0.0200935 0.0127194
0.0303971 0.0204943 0.0130353
0.030547 0.0208895 0.0133559
0.0306874 0.0212776 0.0136816
0.030818 0.0216609 0.0140117
0.0309376 0.0220423 0.0143442
0.0310456 0.0224211 0.014677
0.0311422 0.0227949 0.0150089
0.0312273 0.0231625 0.0153394
0.0312998 0.023525 0.0156677
0.031359 0.0238835 0.0159923
0.0314046 0.0242376 0.0163118
0.0314364 0.0245861 0.016625
0.0314541 0.0249278 0.0169308
0.0314577 0.0252625 0.0172285
0.0314573 0.0255887 0.0175179
0.0314567 0.0259037 0.0177983
0.0314558 0.0262054 0.0180692
0.0314547 0.0264923 0.0183298
0.0314535 0.026763 0.0185796
0.0314522 0.0270167 0.018818
0.031451 0.0272522 0.0190444
0.0314497 0.0274683 0.0192581
0.0314485 0.0276655 0.0194582
0.0314473 0.0278615 0.019648
0.0314463 0.0280304 0.0199843
0.0314452 0.0281775 0.0203077
0.0314441 0.0282965 0.0206098
0.0314431 0.0284104 0.0208751
0.0314419 0.0285255 0.0210896
0.0314407 0.0286275 0.0212582
0.0314396 0.0286979 0.021395
0.0314386 0.0287215 0.0215107
0.0314377 0.0287209 0.0215979
0.0314368 0.0287198 0.0216381
0.0314359 0.0287183 0.0216384
0.0314351 0.0287161 0.0216339
0.0314344 0.028713 0.0216268
0.0314338 0.028709 0.021617
0.0314333 0.0287045 0.0216045
0.0314329 0.0286994 0.0215889
0.0314326 0.0286938 0.0215706
0.0314323 0.0286876 0.0215498
0.0314319 0.028681 0.021529
0.0314314 0.0286746 0.0215103
0.0314308 0.0286679 0.0214902
0.03143 0.0286608 0.0214687
0.031429 0.0286537 0.0214456
0.0314279 0.0286463 0.0214216
0.0314267 0.0286388 0.0213965
0.0314254 0.0286316 0.0213705
0.0314245 0.0286251 0.0213442
0.0314236 0.0286185 0.0213174
0.0314226 0.028612 0.0212899
0.0314218 0.0286055 0.0212624
0.0314211 0.028599 0.0212351
0.0314203 0.0285925 0.0212078
0.03142 0.0285244 0.0211812
0.0314203 0.0283511 0.0211565
0.0314208 0.0281604 0.021133
0.0314213 0.027972 0.0211103
0.0314218 0.0277959 0.0210882
0.0314224 0.027623 0.0210669
0.0314232 0.0274422 0.0210471
0.0314239 0.0272533 0.0210288
0.0314247 0.0270649 0.0210121
0.0314253 0.0268852 0.0209967
0.0314258 0.0267142 0.0209824
0.0314261 0.0265498 0.0208046
0.0314261 0.026392 0.0206088
0.0314259 0.0262436 0.0204325
0.0314254 0.0261054 0.020283
0.0314246 0.025978 0.0201608
0.0314234 0.0258628 0.0200616
0.0314219 0.0257607 0.0199806
0.03142 0.0256727 0.0199176
0.0314178 0.0256009 0.0198737
0.0314152 0.0255448 0.0198509
0.0314124 0.0255021 0.0198481
0.0314093 0.0254739 0.0198497
0.0314063 0.0254634 0.0198526
0.0314031 0.025464 0.0198568
0.0313999 0.0254651 0.019863
0.0313965 0.0254667 0.0198709
0.0313484 0.0254691 0.0198888
0.0312399 0.0254723 0.0199161
0.0311228 0.0254761 0.019947
0.0310078 0.02548 0.0199817
0.0308883 0.0254842 0.0200201
0.0307567 0.0254886 0.0200618
0.0306168 0.0254931 0.0201067
0.0304733 0.0254976 0.0201544
0.0303274 0.0255018 0.0202048
0.0301727 0.0255059 0.0202574
0.0300103 0.0255101 0.0203108
0.0298459 0.0255463 0.0203494
0.0296737 0.0255906 0.0203885
0.0294975 0.0256366 0.0204274
0.0293237 0.0256707 0.0204674
0.0291551 0.025699 0.0205074
0.028994 0.0257352 0.0205454
0.0288379 0.0257682 0.0205824
0.0286836 0.0257965 0.0206186
0.0285319 0.0258145 0.0206542
0.0283827 0.0258248 0.0206886
0.0282339 0.0258317 0.020721
0.0280846 0.0258347 0.0207512
0.0279332 0.0258349 0.0207787
0.0277795 0.0258345 0.0208035
0.0276239 0.0258338 0.0208255
0.0274658 0.0258329 0.0208442
0.0273049 0.025832 0.0208592
0.0271427 0.0258308 0.0208704
0.0269814 0.0258292 0.020878
0.0268216 0.0258275 0.0208816
0.026665 0.0258255 0.0208815
0.0265141 0.0258233 0.0208791
0.0263702 0.0258076 0.0208746
0.0262381 0.0257298 0.0208688
0.0261161 0.0256342 0.0208611
0.0260027 0.0255276 0.0208514
0.0258975 0.0254191 0.0208396
0.0258032 0.0253083 0.0208278
0.0257204 0.0251933 0.0208154
0.0256507 0.0250682 0.0208022
0.0255959 0.0249319 0.0207879
0.0255537 0.0247909 0.0207723
0.0255241 0.0246457 0.0207555
0.0255084 0.0244928 0.0207377
0.0255045 0.0243321 0.020719
0.0255049 0.0241661 0.0206995
0.0255056 0.0239976 0.0206793
0.0255066 0.0238282 0.0206583
0.025508 0.0236575 0.0206367
0.0255096 0.0234852 0.0206146
0.0255113 0.0233129 0.0205923
0.0255131 0.0231421 0.0205696
0.0255148 0.022974 0.0205469
0.0255166 0.0228089 0.0205241
0.0255182 0.0226469 0.020466
0.0255197 0.0224975 0.0201032
0.0255211 0.0223577 0.0197294
0.0255225 0.0222248 0.0193552
0.0255238 0.0220928 0.0189983
0.0255251 0.0219615 0.0186629
0.0255263 0.0218343 0.0183424
0.0255274 0.0217152 0.0180296
0.0255284 0.0216042 0.0177257
0.0255293 0.0214984 0.0174388
0.02553 0.0213963 0.0171753
0.0255306 0.0212991 0.0169354
0.0255311 0.0212087 0.0167155
0.0255314 0.0211262 0.0165137
0.0255315 0.0210507 0.0163322
0.0255315 0.0209812 0.0161752
0.0255313 0.0209177 0.0160447
0.025531 0.0208612 0.0159398
0.0255305 0.0208125 0.0158584
0.0255298 0.0207716 0.0158001
0.025529 0.0207382 0.0157663
0.025528 0.0207122 0.0157577
0.0255269 0.0206944 0.0157594
0.0255256 0.0206863 0.0157629
0.0255241 0.020686 0.0157681
0.0255225 0.0206867 0.0157752
0.0255206 0.0206878 0.0157841
0.0255185 0.0206893 0.0157948
0.0255161 0.0206912 0.015807
0.0255135 0.0206937 0.0158207
0.0255106 0.0206965 0.0158357
0.0255073 0.0206997 0.0158518
0.0254997 0.0207033 0.0158692
0.0254088 0.0207078 0.0159655
0.025297 0.0207124 0.016091
0.0251792 0.0207171 0.0162226
0.0250586 0.0207219 0.0163568
0.024927 0.0207267 0.0164934
0.024782 0.0207314 0.016616
0.0246337 0.0207354 0.0167171
0.0244811 0.020739 0.0168175
0.0243149 0.0207427 0.0169183
0.0241432 0.0207457 0.0170193
0.0239635 0.0207483 0.0171195
0.0237751 0.0207504 0.0172185
0.0235815 0.020752 0.0173162
0.0233821 0.020753 0.0174118
0.0231781 0.0207534 0.0175044
0.0229702 0.0207532 0.0175932
0.0227586 0.0207524 0.0176774
0.0225448 0.020751 0.0177565
0.022331 0.0207494 0.0178296
0.0221195 0.0207473 0.0178966
0.0219156 0.0207461 0.0179519
0.0217218 0.0207445 0.0179987
0.0215287 0.0207427 0.0180349
0.0213344 0.0207404 0.0180624
0.0211436 0.0207375 0.0180812
0.0209579 0.0207342 0.0180901
0.0207758 0.0207306 0.0180901
0.020596 0.0207266 0.0180872
0.0204206 0.0207222 0.018082
0.0202512 0.0207174 0.0180746
0.0200873 0.0207122 0.0180649
0.0199294 0.0207068 0.0180542
0.0197778 0.0207014 0.0180431
0.019634 0.0206956 0.0180304
0.0194979 0.0206902 0.0180164
0.019372 0.0206687 0.0180014
0.0192624 0.0205163 0.0179866
0.0191588 0.0203505 0.0179703
0.0190619 0.0201787 0.017953
0.0189641 0.0200194 0.0179341
0.0188639 0.0198741 0.0179134
0.0187679 0.0197252 0.0178918
0.0186768 0.0195639 0.0178698
0.0185861 0.0193989 0.0178473
0.0184956 0.0192389 0.0176773
0.0184049 0.0190914 0.0173016
0.018339 0.0189368 0.0169171
0.0182801 0.0187709 0.0165337
0.0182211 0.0185936 0.0161641
0.0181564 0.0184135 0.0158044
0.0180904 0.0182342 0.0154461
0.0180316 0.0180512 0.0150866
0.0179818 0.0178592 0.0147328
0.0179409 0.017657 0.0143935
0.0179093 0.0174477 0.0140711
0.017887 0.0172349 0.013762
0.0178733 0.0170205 0.0134616
0.0178672 0.0168048 0.0131694
0.0178669 0.0165887 0.0128882
0.0178672 0.0163758 0.01262
0.0178676 0.0161698 0.0123635
0.0178682 0.015973 0.012116
0.0178688 0.0157868 0.0118753
0.0178696 0.0156129 0.0116416
0.0178704 0.015453 0.0114163
0.0178713 0.015309 0.0112001
0.0178723 0.015182 0.0109923
0.0178733 0.0150732 0.0107921
0.0178745 0.014983 0.0105996
0.0178757 0.0149121 0.0104159
0.0178771 0.0148606 0.0102429
0.0178785 0.0148285 0.0100817
0.0178799 0.0148154 0.00993316
0.0178815 0.0148155 0.00979887
0.0178832 0.0148167 0.00968353
0.0178851 0.0148186 0.00958975
0.0178871 0.0148212 0.00951921
0.0178892 0.0148243 0.00947299
0.0178913 0.014828 0.00945171
0.0178935 0.0148322 0.00945123
0.0178955 0.0148369 0.00945426
0.0178974 0.0148418 0.00945969
0.017899 0.0148471 0.00946754
0.0179004 0.0148526 0.00947785
0.0179016 0.0148583 0.00949065
0.0179025 0.014864 0.00950589
0.0179031 0.0148696 0.00952347
0.0179035 0.0148752 0.00954325
0.0179037 0.0148807 0.00956509
0.0179037 0.0148859 0.00958881
0.0179036 0.014891 0.00961418
0.0179034 0.0148959 0.00964095
0.0179032 0.0149005 0.00966902
0.017903 0.0149048 0.00983454
0.0179029 0.0149085 0.010156
0.017903 0.0149119 0.0104419
0.0179033 0.0149147 0.0106772
0.0179038 0.0149177 0.0108994
0.0179044 0.0149208 0.0111155
0.0179053 0.0149237 0.0113293
0.0179063 0.0149267 0.0115398
0.0179076 0.0149298 0.0117431
0.0179091 0.0149331 0.011934
0.0179109 0.0149366 0.012111
0.017913 0.0149403 0.0122754
0.0179155 0.0149442 0.0124281
0.0179183 0.0149484 0.0125681
0.0179215 0.0149528 0.0126931
0.017925 0.0149574 0.0128016
0.017929 0.0149621 0.0128938
0.0179334 0.014967 0.0129711
0.0179382 0.0149721 0.0130339
0.0179433 0.0149771 0.0130822
0.0179488 0.0149822 0.0131156
0.0179545 0.0149873 0.0131345
0.0179606 0.0149922 0.0131402
0.0179668 0.014997 0.0131391
0.0179732 0.0150358 0.0131364
0.0179793 0.0151602 0.0131311
0.0179853 0.0152722 0.0131241
0.0179915 0.0153738 0.0131158
0.017998 0.0154509 0.0131091
0.0180043 0.015515 0.0131025
0.0180105 0.0155786 0.0130952
0.0180167 0.0156411 0.0130876
0.0180227 0.0156961 0.0130797
0.0180286 0.0157367 0.013072
0.0180345 0.0157638 0.0130647
0.0180396 0.0157833 0.0130575
0.0180447 0.015788 0.0130508
0.0180494 0.0157878 0.0130442
0.018083 0.0157874 0.0130377
0.0182639 0.0157857 0.0130322
0.0184679 0.0157838 0.0130271
0.018659 0.0157822 0.0130221
0.0188334 0.0157808 0.0130171
0.0190193 0.0157626 0.0130124
0.0192253 0.015727 0.0130085
0.0194286 0.0156923 0.013005
0.019627 0.0156681 0.0130013
0.0198359 0.0156485 0.0129977
0.0200567 0.0156281 0.0129945
0.0202816 0.015612 0.0129915
0.0205102 0.0156028 0.0129886
0.0207478 0.0156 0.012986
0.0209943 0.0156002 0.0129835
0.0212457 0.0156004 0.0129815
0.0215041 0.0156009 0.0129798
0.0217719 0.0156018 0.0129785
0.0220477 0.015603 0.0129774
0.0223273 0.0156045 0.0129764
0.0226073 0.0156388 0.0129751
0.0228847 0.015713 0.0129738
0.0231619 0.0158076 0.0129726
0.0234364 0.0159183 0.0129715
0.0237078 0.0160397 0.0129707
0.0239754 0.0161714 0.0129706
0.0242355 0.0163199 0.0129708
0.0244867 0.0164895 0.0129714
0.0247293 0.0166759 0.0129725
0.0249637 0.0168735 0.0129746
0.0251892 0.0170812 0.0129777
0.0254051 0.0173011 0.0129819
0.0256113 0.0175335 0.0129873
0.0258077 0.0177765 0.0129939
0.0259945 0.0180269 0.013002
0.0261723 0.0182821 0.0130117
0.026342 0.018541 0.0130231
0.0265054 0.0188033 0.0130362
0.0266621 0.0190676 0.0130511
0.0268126 0.0193287 0.0130625
0.026962 0.0195806 0.0130754
0.0271079 0.0198262 0.0130896
0.0272466 0.0200709 0.0131048
0.0273789 0.020308 0.0131213
0.0275049 0.020535 0.013139
0.0276228 0.0207489 0.0133203
0.0277336 0.0209494 0.0135444
0.0278356 0.0211398 0.0137833
0.0279254 0.0213266 0.0140284
0.0280027 0.0215122 0.0142758
0.0280693 0.0216944 0.0145271
0.0281263 0.0218714 0.0147843
0.0281736 0.0220445 0.0150465
0.0282116 0.0222165 0.0153095
0.0282412 0.0223895 0.0155695
0.0282635 0.0225637 0.0158247
0.0282803 0.0227383 0.0160756
0.0282931 0.0229128 0.0163219
0.0283047 0.0230873 0.0165623
0.0283156 0.0232627 0.0167942
0.0283263 0.0234401 0.0170154
0.0283381 0.0236186 0.0172254
0.0283513 0.0237975 0.0174244
0.0283657 0.023977 0.0176117
0.028381 0.0241572 0.0177862
0.0283975 0.0243379 0.0179467
0.0284148 0.0245186 0.018093
0.0284322 0.0246985 0.0182249
0.028449 0.0248767 0.018343
0.028464 0.0250526 0.0184472
0.0284759 0.0252254 0.0185375
0.0284834 0.0253942 0.0186139
0.0284854 0.0255578 0.0186771
0.0284852 0.0257141 0.018728
0.0284849 0.025861 0.0187677
0.0284843 0.0259966 0.018797
0.0284834 0.0261193 0.0188167
0.0284823 0.026227 0.0188277
0.0284808 0.0263179 0.018831
0.028479 0.02639 0.0188305
0.0284768 0.0264414 0.0188293
0.0284742 0.0264705 0.0188274
0.0284712 0.0264765 0.018825
0.0284676 0.0264755 0.0188218
0.0284636 0.0264734 0.0188176
0.028459 0.0264704 0.0188126
0.028454 0.0264663 0.0188067
0.0284487 0.0264612 0.0188
0.028443 0.026455 0.0187924
0.0284376 0.026448 0.0187839
0.0284169 0.0264425 0.0187732
0.0282805 0.0264364 0.0187617
0.0281262 0.0264299 0.0187511
0.0279776 0.0264231 0.0187408
0.0278408 0.0264156 0.0187301
0.0277019 0.0264077 0.0187186
0.0275612 0.0264005 0.0187069
0.0274314 0.0263925 0.0186952
0.0273083 0.0263846 0.0186824
0.0271863 0.0263768 0.0186685
0.0270742 0.0263686 0.0186544
0.0269787 0.0262158 0.018641
0.0269057 0.0259831 0.0186278
0.0268484 0.0257283 0.0186148
0.026798 0.0254884 0.0186004
0.0267551 0.0252768 0.0185843
0.0267255 0.0250752 0.0185672
0.0267099 0.0248644 0.0185498
0.0267056 0.0246532 0.0185319
0.0267059 0.0244591 0.0185132
0.0267064 0.0242911 0.0184933
0.0267072 0.0241444 0.0184724
0.0267083 0.0240098 0.018451
0.0267097 0.023886 0.0184294
0.0267113 0.0237792 0.0184077
0.026713 0.0236931 0.0183857
0.0267149 0.0236249 0.0183638
0.0267169 0.0235687 0.0183422
0.0267191 0.0235224 0.0182698
0.0267212 0.0234956 0.017949
0.0267233 0.0234845 0.0176366
0.0267255 0.0234838 0.0173384
0.0267277 0.0234839 0.0170707
0.0267296 0.0234629 0.0168474
0.0267315 0.0234361 0.016659
0.0267715 0.0234151 0.0164952
0.0268314 0.0234028 0.0163545
0.0268869 0.023395 0.0162458
0.0269304 0.023392 0.0161722
0.0269706 0.0233922 0.016134
0.0270137 0.0233924 0.0161285
0.0270524 0.023393 0.0161312
0.0270814 0.0233939 0.0161365
0.0271021 0.023395 0.0161447
0.0271164 0.0233964 0.0161555
0.0271225 0.023398 0.0161691
0.0271223 0.0233999 0.016185
0.027122 0.0234019 0.0162843
0.0271215 0.0234042 0.0164119
0.027121 0.0234067 0.0165521
0.0271206 0.0234102 0.0166996
0.0271203 0.023414 0.0168546
0.0271202 0.0234181 0.0170158
0.0271201 0.0234224 0.0171709
0.0271204 0.0234264 0.0172923
0.0271208 0.0234307 0.0174145
0.0271215 0.0234354 0.017538
0.0271223 0.0234401 0.017662
0.0271428 0.0235179 0.0177809
0.0271765 0.0236353 0.0178947
0.027218 0.0237624 0.0180043
0.0272671 0.0238805 0.0181127
0.0273216 0.0239923 0.0182179
0.0273841 0.0241078 0.01832
0.0274553 0.0242272 0.0184185
0.0275304 0.024356 0.0185098
0.0276097 0.0244913 0.0185946
0.0276979 0.0246258 0.0186757
0.0277912 0.024763 0.0187522
0.0278854 0.0249078 0.0188225
0.0279815 0.0250577 0.0188865
0.0280798 0.0252088 0.018945
0.028178 0.0253598 0.0189985
0.0282743 0.0255106 0.0190478
0.028363 0.0256446 0.0190964
0.0284436 0.0257731 0.0191414
0.0285184 0.0258971 0.0191831
0.0285861 0.0260187 0.0192206
0.0286447 0.0261357 0.0192553
0.0286909 0.0262471 0.0192875
0.0287238 0.026352 0.0193174
0.0287435 0.0264488 0.0193457
0.0287484 0.0265371 0.0193724
0.0287479 0.0266168 0.0193977
0.0287468 0.0266852 0.0194224
0.0287452 0.02674 0.019447
0.0287431 0.0267814 0.0194715
0.0287406 0.0268073 0.0194961
0.0287375 0.0268141 0.0195214
0.0287343 0.0268134 0.0195459
0.0286662 0.0268122 0.0195686
0.0285463 0.0268101 0.0195885
0.0284118 0.0268073 0.0196058
0.0282767 0.0268033 0.0196208
0.0281368 0.0267991 0.0196325
0.0279961 0.0267953 0.0196369
0.0278528 0.0267908 0.019638
0.0277077 0.0267858 0.019637
0.0275584 0.0267802 0.0196349
0.0274078 0.0267741 0.0196315
0.0272587 0.0267676 0.0196269
0.0271119 0.0267614 0.019621
0.0269711 0.0267548 0.0196153
0.0268326 0.0267481 0.0196078
0.0266933 0.0267416 0.0195975
0.02656 0.0267348 0.0195865
0.0264304 0.0267034 0.0195742
0.0263126 0.0265274 0.019564
0.0262043 0.026333 0.0195535
0.0261002 0.0261346 0.0195423
0.0259956 0.0259574 0.0195291
0.0258948 0.0257993 0.0195141
0.0258022 0.0256413 0.019498
0.0257179 0.0254785 0.0194811
0.025639 0.0253196 0.0194632
0.0255647 0.0251744 0.0194442
0.0254949 0.0250425 0.0194241
0.02543 0.0249155 0.0194033
0.025371 0.0247874 0.0193822
0.0253175 0.0246597 0.0193609
0.0252686 0.0245367 0.0193396
0.0252239 0.0244183 0.0193182
0.0251842 0.0242999 0.0192971
0.0251498 0.0241777 0.0192765
0.0251204 0.0240518 0.0192567
0.0250952 0.0239239 0.0192377
0.0250741 0.0237946 0.0192055
0.0250557 0.0236683 0.0189483
0.025041 0.0235421 0.0186834
0.0250315 0.0234132 0.0184331
0.0250286 0.023278 0.0182101
0.0250288 0.0231378 0.0180162
0.0250292 0.0229965 0.0178447
0.0250298 0.0228579 0.0176882
0.0250306 0.0227232 0.0175458
0.0250318 0.0225922 0.0174218
0.0250332 0.0224659 0.0173191
0.0250348 0.0223467 0.0172358
0.0250367 0.022238 0.0171668
0.0250389 0.0221423 0.0171084
0.0250413 0.0220613 0.0170603
0.0250441 0.0219957 0.0170241
0.0250471 0.0219472 0.0169998
0.0250504 0.0219176 0.0169853
0.0250537 0.0219091 0.0169782
0.0250574 0.02191 0.0169778
0.0250615 0.0219117 0.0169791
0.0250659 0.0219144 0.0169814
0.0250707 0.0219182 0.0169849
0.0250757 0.0219229 0.0169893
0.025081 0.0219286 0.0169948
0.0251296 0.021935 0.0170015
0.0253287 0.0219411 0.0170101
0.0255241 0.0219477 0.01702
0.0256955 0.0219548 0.0170314
0.0258362 0.0219613 0.0170855
0.0259764 0.0219682 0.0171659
0.0261218 0.0219749 0.0172563
0.0262591 0.0219821 0.0173528
0.026384 0.0220234 0.0174533
0.0264891 0.0222171 0.0175443
0.0265816 0.0224155 0.0176311
0.0266646 0.0226228 0.0177172
0.0267491 0.0228047 0.0178032
0.0268293 0.0229678 0.0178856
0.0268964 0.023143 0.0179665
0.0269545 0.0233335 0.0180474
0.0270064 0.0235203 0.0181322
0.0270517 0.0236943 0.0182225
0.027089 0.0238596 0.018317
0.02712 0.0240189 0.0184152
0.0271448 0.0241737 0.0185156
0.0271617 0.0243221 0.0186178
0.027174 0.0244587 0.0187227
0.0271849 0.0245818 0.0188305
0.0271933 0.0246951 0.0189398
0.0271986 0.0248017 0.0190492
0.0272025 0.0249002 0.0191579
0.0272068 0.0249887 0.0192655
0.0272118 0.0250678 0.0193716
0.0272174 0.0251398 0.0194752
0.0272275 0.0252208 0.0195727
0.0272409 0.025303 0.0196646
0.027256 0.0253806 0.0197511
0.0272716 0.0254506 0.0198325
0.0272877 0.0255152 0.0199077
0.0273071 0.0255761 0.0199762
0.0273293 0.0256342 0.0200372
0.0273529 0.0256904 0.0200899
0.0273791 0.0257432 0.0201342
0.0274095 0.0257914 0.0201705
0.0274433 0.0258361 0.0201983
0.0274798 0.0258808 0.0202169
0.027519 0.025926 0.020226
0.027561 0.0259708 0.0202267
0.0276049 0.0260135 0.0202243
0.0276495 0.0260536 0.0202198
0.027694 0.0260907 0.0202134
0.027737 0.0261245 0.0202051
0.0277774 0.026154 0.0201951
0.0278106 0.0261675 0.020184
0.0278323 0.026167 0.0201724
0.0278447 0.0261662 0.0201599
0.0278501 0.0261655 0.0201495
0.0278499 0.0261645 0.0201384
0.0278493 0.026163 0.0201267
0.0278483 0.0261611 0.0201146
0.0278468 0.0261587 0.0201023
0.0278449 0.0261559 0.0200897
0.0278426 0.0261527 0.020077
0.0278399 0.0261488 0.0200644
0.0278367 0.0261442 0.0200518
0.0278333 0.0261389 0.0200396
0.0278038 0.0261333 0.0200275
0.0276996 0.0261275 0.0200155
0.0275859 0.0261211 0.0200039
0.0274722 0.0261145 0.0199926
0.0273679 0.0261089 0.0199818
0.0272639 0.0261026 0.0199718
0.0271542 0.0260966 0.0199617
0.0270442 0.0260905 0.0199519
0.0269409 0.0260626 0.0199429
0.0268489 0.0258879 0.019936
0.0267622 0.0256939 0.0199297
0.0266796 0.0254931 0.0199238
0.0265971 0.025309 0.0199175
0.0265169 0.0251419 0.0199106
0.0264431 0.0249737 0.0199039
0.0263772 0.0247967 0.0198976
0.0263179 0.0246214 0.0198913
0.0262659 0.0244601 0.0198846
0.0262228 0.0243142 0.0198774
0.0261898 0.0241773 0.0198698
0.0261683 0.0240448 0.019862
0.0261594 0.0239191 0.0198541
0.0261594 0.0238071 0.0198459
0.0261599 0.023715 0.0198371
0.0261609 0.0236426 0.0198277
0.0261625 0.0235867 0.0198179
0.0261646 0.0235476 0.019808
0.0261672 0.0235279 0.0197978
0.0261703 0.0235265 0.0197875
0.0261739 0.0235275 0.0197773
0.0261779 0.0235292 0.0197368
0.0261823 0.0235318 0.0195847
0.0262214 0.0235349 0.019441
0.0263839 0.0235377 0.0193138
0.0265466 0.0235405 0.0192065
0.0266889 0.0235429 0.0191205
0.026803 0.0235454 0.0190595
0.0269223 0.023548 0.0190139
0.0270454 0.0235507 0.0189893
0.027159 0.023554 0.0189844
0.02726 0.0235575 0.0189863
0.0273536 0.0235614 0.01899
0.0274422 0.0235654 0.0189955
0.0275203 0.023578 0.0190028
0.0275783 0.0236734 0.0190275
0.0276233 0.0237806 0.0190618
0.0276617 0.0238804 0.0191015
0.0276937 0.0239762 0.0191448
0.0277215 0.0240617 0.0191978
0.0277461 0.0241432 0.0192579
0.0277636 0.0242281 0.0193218
0.0277805 0.0243093 0.0193908
0.0277995 0.0243805 0.0194659
0.0278193 0.0244448 0.019533
0.0278444 0.0245004 0.019593
0.0278762 0.0245513 0.0196531
0.0279118 0.0246029 0.0197139
0.027954 0.0246514 0.0197752
0.028005 0.0246967 0.0198369
0.0280615 0.0247437 0.0198976
0.0281268 0.0248081 0.019955
0.028196 0.0248789 0.0200103
0.0282716 0.0249528 0.0200633
0.0283513 0.0250255 0.0201142
0.0284321 0.0251015 0.0201621
0.0285174 0.0251839 0.0202062
0.0286077 0.0252703 0.0202469
0.0287001 0.0253604 0.0202839
0.028794 0.025458 0.0203164
0.0288906 0.025563 0.0203445
0.0289897 0.0256746 0.0203683
0.0290879 0.0257927 0.0203879
0.0291848 0.0259164 0.0204034
0.0292772 0.0260245 0.0204175
0.0293628 0.0261291 0.0204285
0.0294468 0.0262324 0.0204368
0.0295285 0.0263375 0.0204417
0.0296055 0.0264411 0.0204443
0.0296757 0.026541 0.0204446
0.0297373 0.0266361 0.0204439
0.029791 0.0267255 0.0204427
0.029835 0.0268092 0.0204412
0.029867 0.0268874 0.0204393
0.0298873 0.0269582 0.0204372
0.0298968 0.0270193 0.0204353
0.0298973 0.0270702 0.0204335
0.0298969 0.0271104 0.020432
0.0298961 0.0271386 0.0204309
0.029895 0.0271537 0.0204303
0.0298935 0.027156 0.0204302
0.0298916 0.0271549 0.0204305
0.0298892 0.0271527 0.0204312
0.0298863 0.0271495 0.0204322
0.029883 0.0271454 0.0204334
0.0298794 0.0271403 0.0204346
0.0298758 0.0271344 0.0204357
0.0298722 0.0271282 0.0204363
0.0298256 0.0271218 0.0204364
0.0297268 0.0271165 0.0204351
0.0296331 0.0271113 0.020433
0.0295542 0.0271059 0.0204298
0.0294765 0.0271004 0.0204257
0.0293981 0.0270955 0.0204212
0.0293288 0.0270901 0.020417
0.0292678 0.027085 0.0204106
0.029211 0.0270802 0.0204027
0.0291613 0.0270752 0.0203943
0.0291171 0.0270706 0.0203865
0.0290796 0.0270664 0.0203775
0.0290519 0.0270265 0.020368
0.0290396 0.0269185 0.0203586
0.0290347 0.0268158 0.0203482
0.0290343 0.0267302 0.0203366
0.0290346 0.0266685 0.0203237
0.0290349 0.0266259 0.0203096
0.0290355 0.0265911 0.0202949
0.0290363 0.0265612 0.02028
0.0290371 0.0265426 0.0202647
0.029038 0.0265388 0.0202491
0.0290388 0.0265391 0.0202334
0.0290396 0.0265396 0.0202181
0.0290404 0.0265401 0.0202034
0.0290406 0.0265391 0.0201901
0.0290405 0.0265323 0.0201776
0.0290403 0.026514 0.0201662
0.02904 0.0264918 0.020156
0.0290394 0.026468 0.0201471
0.0290385 0.0264452 0.0201394
0.0290373 0.0264243 0.0201332
0.0290359 0.0264001 0.0201285
0.0290341 0.0263719 0.0201254
0.0289889 0.0263417 0.0201239
0.0289275 0.0263087 0.0201241
0.0288591 0.0262705 0.0201263
0.0287889 0.0262222 0.020131
0.0287119 0.026167 0.0201376
0.0286265 0.0261075 0.020146
0.0285363 0.0260449 0.0201561
0.0284476 0.0260081 0.0201663
0.0283552 0.0259743 0.0201777
0.028257 0.0259426 0.0201902
0.028152 0.0259122 0.0202032
0.0280426 0.0258834 0.0202167
0.0279307 0.0258571 0.0202292
0.0278149 0.0258321 0.020239
0.0276955 0.0258108 0.0202485
0.0275739 0.025796 0.0202578
0.0274515 0.0257864 0.0202668
0.0273306 0.0257806 0.0202754
0.0272106 0.0257803 0.0202835
0.0270944 0.0257806 0.020291
0.0269835 0.025781 0.020298
0.0268777 0.0257815 0.0203044
0.0267773 0.0257823 0.0203101
0.0266831 0.0257832 0.0203151
0.0265954 0.0257842 0.0203194
0.0265138 0.0257853 0.020323
0.0264386 0.0257865 0.0203258
0.0263702 0.0257879 0.0203278
0.0263098 0.0257893 0.0203291
0.0262543 0.0257907 0.0203296
0.0262033 0.0257922 0.0203293
0.0261577 0.0257935 0.0203282
0.0261149 0.0257947 0.0203261
0.0260744 0.0257957 0.0203233
0.0260357 0.0257966 0.0203198
0.0259979 0.0257972 0.0203157
0.0259601 0.0257974 0.020311
0.0259216 0.0257974 0.0203067
0.0258815 0.0257971 0.0203025
0.0258398 0.0257964 0.0202981
0.0257961 0.0257953 0.0202936
0.0257495 0.0257938 0.0202889
0.0257003 0.0257919 0.0202841
0.0256482 0.0257897 0.0202793
0.0255928 0.025787 0.0202743
0.0255342 0.025784 0.0202693
0.0254728 0.025781 0.0202644
0.0254143 0.0257334 0.02026
0.0253604 0.0256419 0.0202561
0.025304 0.0255407 0.0202524
0.0252443 0.0254372 0.0202485
0.0251811 0.025336 0.0202444
0.0251158 0.0252341 0.02024
0.0250511 0.0251256 0.0202357
0.0249868 0.0250177 0.0202311
0.0249227 0.02491 0.0202263
0.0248575 0.0248073 0.0202212
0.0247916 0.024705 0.0202157
0.0247267 0.0245989 0.0202102
0.024663 0.0244901 0.0202045
0.0246002 0.0243831 0.0201986
0.0245381 0.0242798 0.0201923
0.0244775 0.0241791 0.0201858
0.0244188 0.0240791 0.020179
0.0243623 0.0239798 0.020172
0.0243079 0.0238829 0.0201649
0.0242557 0.02379 0.0201576
0.0242058 0.023701 0.02015
0.0241586 0.0236152 0.0201423
0.0241142 0.023533 0.0201344
0.0240726 0.0234551 0.0201265
0.0240336 0.0233819 0.0201185
0.0239971 0.0233132 0.0201106
0.023963 0.0232484 0.0201027
0.0239314 0.0231871 0.0200949
0.023902 0.0231294 0.0200873
0.0238742 0.0230763 0.0200172
0.0238468 0.0230302 0.0198975
0.0238208 0.0229883 0.0197803
0.0237966 0.0229485 0.01967
0.0237739 0.0229095 0.0195701
0.0237522 0.022872 0.0194801
0.0237312 0.022837 0.0193973
0.0237106 0.0228051 0.0193202
0.0236904 0.0227754 0.0192508
0.0236706 0.0227467 0.0191918
0.0236512 0.0227191 0.0191441
0.0236317 0.0226931 0.0191068
0.0236119 0.0226694 0.0190785
0.0235919 0.0226479 0.0190588
0.0235715 0.0226283 0.0190487
0.0235509 0.0226105 0.0190478
0.0235299 0.0225951 0.0190487
0.0235086 0.0225828 0.0190503
0.023487 0.022574 0.0190525
0.0234654 0.0225684 0.0190553
0.023444 0.0225661 0.0190587
0.0234231 0.0225661 0.0190627
0.0234034 0.0225664 0.0190672
0.0233853 0.0225668 0.0190722
0.0233693 0.0225674 0.0190886
0.0233555 0.0225682 0.0191085
0.0233445 0.0225692 0.0191296
0.0233355 0.0225704 0.0191514
0.0233283 0.0225717 0.0191738
0.0233234 0.0225731 0.0191966
0.0233212 0.0225746 0.0192198
0.0233211 0.0225762 0.019243
0.0233212 0.022578 0.019266
0.0233214 0.0225799 0.0192885
0.0233218 0.0225819 0.0193105
0.0233223 0.0225839 0.0193319
0.0233228 0.0225861 0.0193525
0.0233235 0.0225883 0.0193722
0.0233243 0.0225905 0.0193898
0.0233251 0.0225926 0.0194023
0.0233261 0.0225947 0.0194141
0.0233271 0.0225968 0.0194252
0.0233281 0.0225987 0.0194357
0.0233292 0.0226006 0.0194454
0.0233303 0.0226024 0.0194545
0.0233315 0.022604 0.019463
0.0233326 0.0226055 0.0194709
0.0233338 0.0226068 0.0194781
0.023335 0.022608 0.0194847
0.0233361 0.022609 0.0194906
0.0233373 0.0226099 0.0194959
0.0233385 0.0226105 0.0195005
0.0233397 0.022611 0.0195044
0.0233409 0.0226114 0.0195076
0.0233421 0.0226116 0.0195101
0.0233433 0.0226117 0.0195117
0.0233445 0.0226117 0.0195126
0.0233458 0.0226115 0.0195126
0.0233471 0.0226113 0.0195122
0.0233485 0.0226111 0.0195115
0.0233499 0.0226107 0.0195104
0.0233514 0.0226104 0.0195089
0.0233529 0.0226101 0.019507
0.0233545 0.0226097 0.0195052
0.0233562 0.0226095 0.0195032
0.023358 0.0226093 0.019501
0.0233598 0.0226091 0.0194985
0.0233617 0.0226091 0.0194957
0.0233637 0.0226091 0.0194928
0.0233658 0.0226092 0.0194897
0.023368 0.0226094 0.0194865
0.0233702 0.0226097 0.0194832
0.0233725 0.0226101 0.0194798
0.0233748 0.0226106 0.0194764
0.0233771 0.0226112 0.019473
0.0233795 0.0226119 0.0194697
0.0233819 0.0226126 0.0194665
0.0233844 0.0226134 0.0194635
0.0233868 0.0226143 0.0194607
0.0233892 0.0226152 0.0194582
0.0233916 0.0226162 0.0194559
0.0233939 0.0226171 0.0194541
0.0233962 0.0226181 0.0194525
0.0233985 0.0226191 0.0194514
0.0234007 0.0226201 0.0194508
0.0234028 0.0226211 0.0194506
0.0234049 0.0226222 0.0194509
0.0234069 0.0226232 0.0194518
0.0234088 0.0226242 0.0194534
0.0234105 0.0226253 0.0194556
0.023412 0.0226261 0.0194585
0.0234135 0.0226271 0.019462
0.0234149 0.0226282 0.0194658
0.0234367 0.0226291 0.0194703
0.0234883 0.02263 0.0194752
0.0235418 0.0226308 0.0194791
0.0235903 0.0226318 0.019483
0.0236365 0.022633 0.0194869
0.0236858 0.0226342 0.0194911
0.023737 0.0226355 0.0194953
0.0237868 0.022637 0.0194996
0.0238359 0.0226464 0.0195039
0.0238826 0.0226844 0.0195079
0.0239285 0.0227285 0.0195118
0.0239751 0.0227754 0.019523
0.0240234 0.0228224 0.0195367
0.024073 0.0228702 0.0195505
0.0241225 0.0229217 0.0195639
0.0241719 0.0229761 0.0195766
0.0242206 0.0230267 0.0195886
0.0242688 0.0230794 0.0196001
0.0243186 0.0231305 0.019612
0.024368 0.0231831 0.0196235
0.024416 0.0232389 0.0196344
0.0244642 0.023295 0.019645
0.0245123 0.0233502 0.0196556
0.0245591 0.0234053 0.019666
0.0246049 0.0234599 0.0196764
0.0246497 0.0235139 0.0196867
0.0246928 0.0235671 0.0196969
0.0247341 0.0236186 0.0197071
0.0247736 0.0236674 0.0197175
0.0248102 0.0237106 0.0197284
0.0248442 0.0237522 0.0197393
0.0248766 0.023792 0.0197502
0.0249072 0.0238301 0.019761
0.0249352 0.0238663 0.0197718
0.0249609 0.0238998 0.0197827
0.0249846 0.0239305 0.0197935
0.0250061 0.0239583 0.0198044
0.0250252 0.0239833 0.0198151
0.0250418 0.0240052 0.0198257
0.0250563 0.0240238 0.0198361
0.0250691 0.0240394 0.0198462
0.0250799 0.0240521 0.019856
0.0250895 0.0240642 0.0198652
0.025098 0.0240742 0.0198738
0.0251053 0.0240822 0.0198817
0.0251113 0.0240877 0.0198889
0.0251164 0.0240907 0.0198955
0.0251209 0.0240917 0.0199012
0.0251248 0.0240917 0.0199058
0.0251279 0.0240915 0.0199094
0.0251306 0.0240914 0.0199119
0.0251331 0.0240911 0.0199132
0.0251355 0.0240908 0.0199134
0.025138 0.0240905 0.019913
0.0251406 0.0240901 0.019912
0.0251435 0.0240896 0.0199106
0.0251467 0.0240891 0.0199087
0.0251502 0.0240886 0.0199063
0.0251542 0.0240881 0.0199034
0.0251586 0.0240875 0.0199001
0.0251633 0.024087 0.0198964
0.025168 0.0240864 0.0198924
0.0251726 0.0240859 0.0198881
0.0251767 0.0240853 0.0198846
0.0251802 0.0240848 0.019881
0.025183 0.0240842 0.0198772
0.0251848 0.0240837 0.0198733
0.0251853 0.024083 0.0198694
0.0251852 0.0240824 0.0198655
0.0251851 0.0240816 0.0198616
0.025185 0.0240808 0.0198578
0.0251847 0.0240799 0.019854
0.0251844 0.0240789 0.0198504
0.0251841 0.024078 0.0198469
0.0251836 0.024077 0.0198435
0.0251831 0.0240759 0.0198403
0.0251825 0.0240749 0.0198374
0.0251819 0.0240739 0.0198348
0.0251812 0.0240729 0.0198323
0.0251804 0.0240719 0.01983
0.0251796 0.0240709 0.0198281
0.0251787 0.0240699 0.0198263
0.0251778 0.0240689 0.0198248
0.0251767 0.0240678 0.0198235
0.0251757 0.0240668 0.0198224
0.0251747 0.0240659 0.0198216
0.025163 0.024065 0.0198209
0.0251336 0.0240642 0.0198204
0.025102 0.0240635 0.01982
0.025072 0.0240628 0.0198199
0.0250421 0.0240621 0.0198199
0.0250102 0.0240615 0.0198202
0.0249773 0.0240609 0.0198206
0.024945 0.0240604 0.0198212
0.0249127 0.0240561 0.0198219
0.0248805 0.0240454 0.0198229
0.024848 0.0240351 0.019824
0.0248155 0.0240266 0.0198251
0.0247827 0.0240207 0.0198262
0.0247497 0.0240167 0.0198273
0.0247167 0.0240133 0.0198284
0.0246838 0.0240103 0.0198295
0.024651 0.0240082 0.0198306
0.024618 0.0240077 0.0198317
0.024585 0.0240078 0.0198328
0.0245521 0.0240078 0.0198338
0.0245192 0.0240078 0.0198347
0.0244862 0.0240079 0.0198357
0.0244531 0.0240079 0.0198366
0.0244199 0.024008 0.0198374
0.0243866 0.024008 0.0198382
0.0243529 0.024008 0.0198389
0.0243189 0.024008 0.0198396
0.0242846 0.024008 0.0198402
0.0242499 0.0240079 0.0198407
0.0242147 0.0240078 0.0198412
0.0241791 0.0240052 0.0198417
0.0241434 0.0239991 0.0198421
0.0241074 0.0239909 0.0198425
0.024071 0.023981 0.0198429
0.0240341 0.0239697 0.0198431
0.0239968 0.0239567 0.0198433
0.0239592 0.0239415 0.0198434
0.0239213 0.0239241 0.0198434
0.0238832 0.0239047 0.0198433
0.0238448 0.0238834 0.019843
0.0238064 0.0238602 0.0198427
0.0237678 0.0238351 0.0198422
0.0237293 0.0238079 0.0198415
0.0236909 0.0237789 0.0198407
0.0236527 0.0237481 0.0198396
0.0236147 0.0237158 0.0198384
0.0235771 0.023682 0.019837
0.0235399 0.0236467 0.0198353
0.0235032 0.0236101 0.0198334
0.0234672 0.0235723 0.0198313
0.0234317 0.0235336 0.0198289
0.023397 0.0234939 0.0198263
0.023363 0.0234535 0.0198234
0.0233299 0.0234125 0.0198203
0.0232976 0.0233709 0.019817
0.023266 0.0233292 0.019814
0.0232351 0.0232885 0.019811
0.023205 0.0232479 0.019808
0.0231761 0.0232069 0.0198048
0.0231478 0.0231662 0.0198014
0.0231205 0.0231256 0.019798
0.0230942 0.0230852 0.0197944
0.0230687 0.0230454 0.0197907
0.0230439 0.0230062 0.0197869
0.0230201 0.0229675 0.0197831
0.022997 0.0229294 0.0197792
0.0229746 0.0228921 0.0197753
0.0229529 0.0228555 0.0197714
0.0229317 0.0228195 0.0197675
0.022911 0.0227842 0.0197636
0.0228907 0.0227495 0.0197598
0.0228707 0.0227153 0.0197561
0.022851 0.0226818 0.0197525
0.0228315 0.0226489 0.0197491
0.0228121 0.0226165 0.0197457
0.0227928 0.0225847 0.0197426
0.0227736 0.0225535 0.0197396
0.0227543 0.022523 0.0197368
0.0227351 0.022493 0.0197342
0.0227158 0.0224638 0.0197319
0.0226964 0.0224353 0.0197297
0.022677 0.0224077 0.0197278
0.0226577 0.022381 0.0197262
0.0226383 0.0223552 0.0197247
0.022619 0.0223306 0.0197235
0.0226 0.022308 0.0197225
0.0225813 0.0222879 0.0197217
0.022563 0.0222696 0.0197211
0.0225449 0.0222528 0.0197207
0.0225271 0.0222375 0.0197205
0.0225099 0.0222239 0.0197205
0.0224932 0.0222123 0.0197208
0.0224769 0.0222029 0.0197213
0.0224612 0.0221956 0.0197219
0.0224463 0.0221903 0.0197228
0.0224322 0.0221869 0.0197238
0.0224189 0.0221857 0.0197249
0.0224064 0.0221858 0.0197262
0.0223952 0.0221859 0.0197277
0.0223852 0.0221862 0.0197293
0.0223763 0.0221865 0.019731
0.0223688 0.0221869 0.0197328
0.0223624 0.0221873 0.0197348
0.0223574 0.0221879 0.0197367
0.0223538 0.0221885 0.0197388
0.0223513 0.0221893 0.0197409
0.0223501 0.02219 0.019743
0.0223499 0.0221909 0.0197451
0.02235 0.0221917 0.0197473
0.0223501 0.0221926 0.0197495
0.0223502 0.0221936 0.0197516
0.0223503 0.0221945 0.0197538
0.0223505 0.0221954 0.0197559
0.0223507 0.0221964 0.019758
0.0223509 0.0221973 0.0197601
0.0223512 0.0221981 0.0197622
0.0223514 0.0221989 0.0197642
0.0223517 0.0221997 0.0197661
0.0223519 0.0222004 0.019768
0.0223522 0.022201 0.0197698
0.0223525 0.0222015 0.0197716
0.0223528 0.022202 0.0197732
0.022353 0.0222024 0.0197747
0.0223533 0.0222027 0.0197761
0.0223536 0.022203 0.0197773
0.022354 0.0222031 0.0197784
0.0223543 0.0222032 0.0197794
0.0223546 0.0222033 0.0197801
0.022355 0.0222033 0.0197806
0.0223554 0.0222032 0.019781
0.0223559 0.0222031 0.0197811
0.0223563 0.022203 0.0197809
0.0223568 0.0222028 0.0197806
0.0223574 0.0222027 0.01978
0.022358 0.0222025 0.0197792
0.0223586 0.0222023 0.0197781
0.0223593 0.0222022 0.0197769
0.02236 0.022202 0.0197754
0.0223608 0.0222019 0.0197737
0.0223616 0.0222018 0.0197719
0.0223625 0.0222018 0.0197699
0.0223634 0.0222017 0.0197677
0.0223643 0.0222017 0.0197655
0.0223653 0.0222018 0.0197632
0.0223663 0.0222018 0.0197609
0.0223673 0.0222019 0.0197585
0.0223684 0.0222021 0.0197562
0.0223695 0.0222022 0.019754
0.0223705 0.0222024 0.0197518
0.0223716 0.0222026 0.0197498
0.0223727 0.0222029 0.019748
0.0223738 0.0222032 0.0197463
0.0223748 0.0222035 0.0197449
0.0223759 0.0222038 0.0197437
0.0223769 0.0222041 0.0197428
0.0223779 0.0222045 0.0197422
0.0223789 0.0222048 0.0197419
0.0223799 0.0222052 0.0197419
0.0223808 0.0222056 0.0197422
0.0223818 0.0222061 0.0197428
0.0223826 0.0222065 0.0197437
0.0223835 0.022207 0.019745
0.0223843 0.0222076 0.0197465
0.0223852 0.0222081 0.0197483
0.022386 0.0222087 0.0197504
0.0223868 0.0222094 0.0197527
0.0223875 0.0222101 0.0197552
0.0223883 0.0222108 0.0197579
0.0223891 0.0222116 0.0197608
0.0223898 0.0222124 0.0197638
0.0223906 0.0222133 0.0197669
0.0223914 0.0222143 0.0197702
0.0223921 0.0222153 0.0197734
0.0223929 0.0222164 0.0197767
0.0223937 0.0222175 0.01978
0.0223945 0.0222186 0.0197833
0.0223952 0.0222254 0.0197865
0.0223959 0.0222525 0.0197889
0.0223965 0.0222806 0.0197908
0.0223971 0.0223074 0.0197926
0.0223977 0.0223343 0.0197944
0.0224084 0.0223593 0.0197962
0.0224323 0.022383 0.019798
0.0224569 0.0224081 0.0197997
0.022479 0.0224339 0.0198012
0.0225002 0.0224594 0.0198027
0.0225226 0.0224838 0.0198041
0.0225451 0.0225045 0.0198054
0.0225657 0.0225262 0.0198066
0.0225857 0.0225471 0.0198077
0.0226061 0.0225669 0.0198088
0.0226258 0.0225861 0.0198097
0.0226448 0.0226047 0.0198106
0.0226632 0.0226222 0.0198115
0.0226808 0.022639 0.0198123
0.0226978 0.0226548 0.019813
0.022714 0.0226693 0.0198137
0.0227293 0.0226826 0.0198143
0.0227437 0.0226948 0.0198149
0.0227572 0.0227057 0.0198154
0.0227698 0.0227153 0.0198159
0.0227814 0.0227234 0.0198164
0.0227919 0.0227302 0.0198167
0.0228015 0.0227356 0.0198171
0.0228102 0.0227397 0.0198174
0.0228178 0.0227424 0.0198177
0.0228245 0.0227438 0.0198179
0.0228303 0.0227439 0.019818
0.022835 0.0227439 0.0198181
0.0228386 0.0227437 0.0198181
0.0228412 0.0227436 0.019818
0.0228429 0.0227433 0.0198178
0.0228438 0.0227431 0.0198175
0.022844 0.0227427 0.019817
0.022844 0.0227424 0.0198164
0.0228439 0.022742 0.0198157
0.0228439 0.0227416 0.0198149
0.0228438 0.0227411 0.0198139
0.0228437 0.0227407 0.0198128
0.0228436 0.0227403 0.0198118
0.0228436 0.0227399 0.0198109
0.0228435 0.0227395 0.0198098
0.0228434 0.0227391 0.0198086
0.0228433 0.0227387 0.0198074
0.0228431 0.0227383 0.0198061
0.022843 0.0227379 0.0198047
0.0228429 0.0227375 0.0198033
0.0228428 0.0227371 0.0198019
0.0228426 0.0227368 0.0198004
0.0228425 0.0227364 0.0197989
0.0228423 0.0227361 0.0197973
0.0228421 0.0227357 0.0197958
0.0228419 0.0227354 0.0197943
0.0228417 0.022735 0.0197928
0.0228414 0.0227347 0.0197914
0.0228383 0.0227343 0.01979
0.022831 0.022734 0.0197886
0.0228231 0.0227337 0.0197873
0.0228149 0.0227334 0.0197861
0.0228063 0.0227283 0.019785
0.0227973 0.0227198 0.0197841
0.0227875 0.0227105 0.0197833
0.0227767 0.0227012 0.0197826
0.0227651 0.0226923 0.019782
0.0227525 0.022683 0.0197815
0.0227392 0.0226731 0.0197811
0.0227251 0.0226624 0.0197808
0.0227101 0.0226515 0.0197807
0.0226943 0.0226407 0.0197807
0.0226778 0.0226296 0.0197807
0.0226606 0.0226183 0.0197809
0.0226427 0.0226066 0.0197813
0.0226243 0.0225949 0.0197817
0.0226053 0.0225834 0.0197822
0.0225859 0.0225719 0.0197827
0.0225661 0.0225605 0.0197833
0.0225461 0.0225492 0.0197839
0.0225258 0.0225382 0.0197845
0.0225053 0.0225275 0.0197851
0.0224848 0.0225171 0.0197857
0.0224642 0.0225071 0.0197862
0.0224437 0.0224974 0.0197866
0.0224232 0.0224882 0.019787
0.0224029 0.0224793 0.0197873
0.0223827 0.0224709 0.0197876
0.0223627 0.0224629 0.0197877
0.0223429 0.0224551 0.0197877
0.0223233 0.0224477 0.0197876
0.0223039 0.0224405 0.0197874
0.0222846 0.0224334 0.0197872
0.0222655 0.0224264 0.0197868
0.0222465 0.0224195 0.0197863
0.0222276 0.0224124 0.0197857
0.0222088 0.0224051 0.0197851
0.0221899 0.0223975 0.0197844
0.022171 0.0223895 0.0197836
0.0221521 0.022381 0.0197828
0.022133 0.0223719 0.019782
0.0221137 0.0223621 0.0197811
0.0220943 0.0223515 0.0197803
0.0220745 0.0223403 0.0197796
0.0220544 0.0223283 0.0197788
0.0220341 0.0223153 0.0197781
0.0220135 0.0223012 0.0197774
0.0219926 0.0222862 0.0197767
0.0219715 0.0222701 0.019776
0.0219501 0.022253 0.0197753
0.0219285 0.022235 0.0197746
0.0219066 0.022216 0.0197739
0.0218846 0.022196 0.0197732
0.0218625 0.0221753 0.0197725
0.0218403 0.0221538 0.0197718
0.0218181 0.0221316 0.019771
0.0217959 0.0221088 0.0197702
0.0217738 0.0220855 0.0197693
0.0217519 0.0220618 0.0197685
0.0217301 0.0220379 0.0197675
0.0217087 0.0220138 0.0197665
0.0216876 0.0219896 0.0197655
0.0216669 0.0219655 0.0197643
0.0216466 0.0219415 0.0197631
0.0216267 0.0219178 0.0197619
0.0216074 0.0218943 0.0197605
0.0215887 0.0218713 0.0197591
0.0215705 0.0218487 0.0197576
0.0215529 0.0218267 0.019756
0.0215359 0.0218051 0.0197543
0.0215194 0.0217842 0.0197526
0.0215036 0.0217639 0.0197508
0.0214883 0.0217442 0.019749
0.0214736 0.0217251 0.0197472
0.0214593 0.0217067 0.0197453
0.0214456 0.0216888 0.0197434
0.0214323 0.0216714 0.0197414
0.0214193 0.0216546 0.0197395
0.0214067 0.0216383 0.0197376
0.0213944 0.0216224 0.0197358
0.0213824 0.0216069 0.019734
0.0213705 0.0215918 0.0197322
0.0213588 0.021577 0.0197305
0.0213473 0.0215625 0.0197289
0.0213358 0.0215482 0.0197274
0.0213243 0.0215342 0.019726
0.0213128 0.0215203 0.0197247
0.0213014 0.0215067 0.0197235
0.0212899 0.0214933 0.0197224
0.0212784 0.02148 0.0197215
0.0212669 0.021467 0.0197206
0.0212554 0.0214543 0.0197199
0.0212439 0.0214418 0.0197194
0.0212324 0.0214297 0.0197189
0.021221 0.021418 0.0197186
0.0212097 0.0214067 0.0197184
0.0211985 0.021396 0.0197183
0.0211875 0.0213858 0.0197183
0.0211768 0.0213763 0.0197185
0.0211663 0.0213676 0.0197187
0.0211562 0.0213598 0.019719
0.0211464 0.0213528 0.0197195
0.0211372 0.0213468 0.01972
0.0211284 0.0213418 0.0197205
0.0211202 0.0213378 0.0197211
0.0211126 0.021335 0.0197218
0.0211057 0.0213334 0.0197224
0.0210994 0.0213328 0.0197231
0.0210939 0.0213329 0.0197238
0.0210894 0.021333 0.0197245
0.0210857 0.0213331 0.0197252
0.021083 0.0213333 0.0197259
0.0210811 0.0213335 0.0197266
0.0210801 0.0213338 0.0197273
0.0210799 0.0213342 0.019728
0.0210799 0.0213345 0.0197287
0.02108 0.0213349 0.0197293
0.02108 0.0213354 0.01973
0.0210802 0.0213358 0.0197307
0.0210803 0.0213363 0.0197313
0.0210805 0.0213367 0.019732
0.0210806 0.0213372 0.0197326
0.0210808 0.0213377 0.0197333
0.021081 0.0213381 0.019734
0.0210812 0.0213385 0.0197346
0.0210814 0.0213389 0.0197353
0.0210816 0.0213393 0.019736
0.0210818 0.0213396 0.0197367
0.021082 0.0213399 0.0197375
0.0210822 0.0213402 0.0197382
0.0210825 0.0213404 0.0197389
0.0210827 0.0213406 0.0197396
0.0210829 0.0213407 0.0197403
0.0210831 0.0213408 0.0197409
0.0210833 0.0213409 0.0197415
0.0210836 0.0213409 0.0197421
0.0210838 0.0213409 0.0197426
0.0210841 0.0213409 0.0197431
0.0210843 0.0213409 0.0197435
0.0210846 0.0213409 0.0197438
0.0210849 0.0213409 0.019744
0.0210853 0.0213409 0.0197441
0.0210856 0.0213408 0.0197441
0.021086 0.0213408 0.019744
0.0210865 0.0213409 0.0197438
0.0210869 0.0213409 0.0197435
0.0210874 0.021341 0.0197431
0.0210879 0.021341 0.0197426
0.0210884 0.0213411 0.0197421
0.021089 0.0213413 0.0197414
0.0210896 0.0213415 0.0197407
0.0210902 0.0213417 0.0197399
0.0210909 0.0213419 0.0197391
0.0210915 0.0213421 0.0197383
0.0210922 0.0213424 0.0197374
0.0210929 0.0213427 0.0197366
0.0210936 0.021343 0.0197358
0.0210943 0.0213433 0.0197351
0.021095 0.0213436 0.0197344
0.0210957 0.021344 0.0197338
0.0210964 0.0213443 0.0197333
0.0210971 0.0213446 0.0197329
0.0210978 0.021345 0.0197327
0.0210984 0.0213453 0.0197325
0.0210991 0.0213456 0.0197325
0.0210997 0.021346 0.0197327
0.0211003 0.0213463 0.019733
0.0211009 0.0213466 0.0197335
0.0211015 0.0213469 0.0197341
0.021102 0.0213472 0.0197348
0.0211026 0.0213475 0.0197357
0.0211031 0.0213478 0.0197367
0.0211036 0.0213482 0.0197378
0.0211041 0.0213485 0.019739
0.0211046 0.0213488 0.0197404
0.0211051 0.0213492 0.0197418
0.0211055 0.0213496 0.0197432
0.021106 0.0213499 0.0197447
0.0211065 0.0213504 0.0197463
0.021107 0.0213508 0.0197478
0.0211074 0.0213513 0.0197494
0.0211079 0.0213518 0.019751
0.0211084 0.0213523 0.0197525
0.0211089 0.0213528 0.019754
0.0211094 0.0213534 0.0197554
0.0211099 0.021354 0.0197568
0.0211104 0.0213546 0.0197581
0.0211109 0.0213552 0.0197594
0.0211113 0.0213558 0.0197604
0.0211117 0.0213564 0.0197612
0.0211122 0.021357 0.0197619
0.0211126 0.0213576 0.0197626
0.0211216 0.0213581 0.0197632
0.0211386 0.0213586 0.0197638
0.0211557 0.0213591 0.0197644
0.0211707 0.0213609 0.0197649
0.0211836 0.0213717 0.0197653
0.0211964 0.0213832 0.0197655
0.0212093 0.021394 0.0197658
0.0212244 0.0214054 0.0197661
0.0212387 0.0214152 0.0197664
0.0212522 0.0214245 0.0197666
0.0212645 0.0214331 0.0197667
0.0212757 0.0214398 0.0197668
0.0212861 0.0214446 0.0197669
0.0212954 0.0214483 0.0197669
0.0213033 0.0214509 0.019767
0.0213103 0.0214518 0.0197669
0.0213162 0.0214518 0.0197669
0.0213208 0.0214517 0.0197667
0.0213242 0.0214516 0.0197665
0.0213265 0.0214514 0.0197662
0.0213278 0.0214512 0.0197659
0.0213282 0.0214509 0.0197655
0.0213281 0.0214507 0.0197651
0.0213281 0.0214504 0.0197646
0.021328 0.0214484 0.0197641
0.021328 0.0214409 0.0197636
0.0213279 0.0214327 0.0197631
0.0213278 0.0214249 0.0197625
0.0213278 0.0214177 0.0197618
0.0213277 0.0214103 0.019761
0.0213275 0.0214027 0.0197602
0.0213274 0.0213955 0.0197594
0.0213273 0.0213888 0.0197585
0.0213271 0.0213823 0.0197576
0.021327 0.0213759 0.0197567
0.0213238 0.0213701 0.0197558
0.021319 0.0213648 0.0197549
0.0213139 0.0213595 0.019754
0.0213084 0.021354 0.0197531
0.0213021 0.0213484 0.0197523
0.0212951 0.0213427 0.0197515
0.0212874 0.0213367 0.0197508
0.021279 0.0213304 0.0197502
0.0212697 0.0213237 0.0197497
0.0212596 0.0213166 0.0197493
0.0212487 0.021309 0.019749
0.021237 0.0213011 0.0197487
0.0212245 0.0212926 0.0197486
0.0212112 0.0212839 0.0197485
0.0211972 0.0212747 0.0197486
0.0211826 0.0212653 0.0197487
0.0211673 0.0212558 0.0197489
0.0211516 0.0212461 0.0197491
0.0211353 0.0212364 0.0197494
0.0211187 0.0212268 0.0197498
0.0211018 0.0212173 0.0197501
0.0210847 0.021208 0.0197504
0.0210675 0.021199 0.0197507
0.0210502 0.0211903 0.019751
0.0210329 0.0211819 0.0197512
0.0210157 0.0211738 0.0197514
0.0209985 0.0211661 0.0197515
0.0209814 0.0211587 0.0197515
0.0209645 0.0211515 0.0197514
0.0209476 0.0211446 0.0197512
0.0209309 0.0211377 0.019751
0.0209143 0.0211309 0.0197506
0.0208977 0.0211239 0.0197502
0.0208811 0.0211168 0.0197497
0.0208645 0.0211094 0.0197492
0.0208478 0.0211017 0.0197488
0.0208311 0.0210936 0.0197483
0.0208141 0.0210848 0.0197478
0.0207971 0.0210752 0.0197473
0.0207798 0.0210649 0.0197467
0.0207624 0.0210538 0.0197462
0.0207448 0.0210418 0.0197456
0.020727 0.0210288 0.0197451
0.020709 0.021015 0.0197445
0.0206909 0.0210004 0.0197439
0.0206727 0.0209849 0.0197433
0.0206544 0.0209688 0.0197427
0.0206362 0.020952 0.019742
0.0206179 0.0209347 0.0197414
0.0205998 0.020917 0.0197407
0.0205819 0.0208991 0.01974
0.0205642 0.020881 0.0197392
0.0205469 0.0208629 0.0197384
0.0205299 0.0208449 0.0197376
0.0205133 0.0208272 0.0197367
0.0204972 0.0208099 0.0197358
0.0204816 0.020793 0.0197348
0.0204666 0.0207767 0.0197337
0.0204521 0.020761 0.0197327
0.0204382 0.020746 0.0197316
0.0204249 0.0207317 0.0197304
0.0204121 0.0207181 0.0197292
0.0203999 0.0207056 0.0197281
0.0203884 0.0206945 0.0197269
0.0203773 0.020684 0.0197258
0.0203665 0.0206742 0.0197247
0.0203563 0.0206645 0.0197236
0.0203461 0.0206554 0.0197226
0.0203363 0.0206465 0.0197216
0.0203267 0.0206378 0.0197207
0.0203172 0.0206293 0.0197199
0.0203079 0.0206208 0.0197191
0.0202987 0.0206126 0.0197185
0.0202896 0.0206043 0.019718
0.0202806 0.0205962 0.0197175
0.0202718 0.0205882 0.0197172
0.020263 0.0205804 0.019717
0.0202545 0.0205727 0.0197168
0.0202462 0.0205653 0.0197168
0.0202381 0.0205582 0.0197168
0.0202303 0.0205515 0.0197169
0.020223 0.0205453 0.0197171
0.020216 0.0205397 0.0197174
0.0202096 0.0205348 0.0197177
0.0202038 0.0205306 0.019718
0.0201986 0.0205272 0.0197184
0.0201941 0.0205247 0.0197187
0.0201903 0.0205231 0.0197191
0.0201873 0.0205224 0.0197194
0.0201851 0.0205224 0.0197197
0.0201839 0.0205225 0.01972
0.0201836 0.0205226 0.0197202
0.0201837 0.0205227 0.0197205
0.0201837 0.0205229 0.0197207
0.0201838 0.0205232 0.0197209
0.020184 0.0205234 0.0197211
0.0201842 0.0205237 0.0197213
0.0201844 0.0205241 0.0197215
0.0201846 0.0205244 0.0197217
0.0201848 0.0205247 0.0197219
0.0201851 0.020525 0.0197222
0.0201853 0.0205254 0.0197225
0.0201856 0.0205257 0.0197228
0.0201858 0.0205259 0.0197232
0.0201861 0.0205262 0.0197236
0.0201864 0.0205264 0.019724
0.0201867 0.0205266 0.0197245
0.0201869 0.0205268 0.0197251
0.0201872 0.0205269 0.0197256
0.0201875 0.020527 0.0197262
0.0201878 0.0205272 0.0197268
0.0201881 0.0205273 0.0197273
0.0201884 0.0205274 0.0197279
0.0201888 0.0205275 0.0197284
0.0201891 0.0205276 0.0197288
0.0201895 0.0205277 0.0197292
0.0201899 0.0205278 0.0197296
0.0201903 0.020528 0.0197298
0.0201908 0.0205282 0.01973
0.0201913 0.0205284 0.0197301
0.0201918 0.0205286 0.0197302
0.0201924 0.0205289 0.0197302
0.0201929 0.0205292 0.0197301
0.0201935 0.0205295 0.0197299
0.0201942 0.0205299 0.0197298
0.0201948 0.0205302 0.0197296
0.0201954 0.0205306 0.0197294
0.0201961 0.020531 0.0197293
0.0201967 0.0205314 0.0197291
0.0201974 0.0205318 0.0197291
0.020198 0.0205322 0.019729
0.0201986 0.0205326 0.0197291
0.0201992 0.020533 0.0197292
0.0201998 0.0205333 0.0197295
0.0202004 0.0205337 0.0197298
0.0202009 0.020534 0.0197303
0.0202015 0.0205343 0.0197308
0.020202 0.0205346 0.0197314
0.0202025 0.0205349 0.0197321
0.0202029 0.0205351 0.0197329
0.0202034 0.0205354 0.0197338
0.0202038 0.0205356 0.0197347
0.0202043 0.0205359 0.0197356
0.0202047 0.0205362 0.0197366
0.0202051 0.0205364 0.0197376
0.0202055 0.0205367 0.0197385
0.0202059 0.020537 0.0197394
0.0202062 0.0205373 0.0197403
0.0202119 0.0205376 0.0197412
0.0202266 0.0205379 0.0197418
0.0202412 0.0205381 0.0197423
0.0202546 0.0205384 0.0197427
0.0202691 0.0205388 0.0197431
0.020284 0.0205391 0.0197435
0.0202984 0.0205395 0.0197437
0.020313 0.0205399 0.019744
0.0203276 0.0205402 0.0197441
0.0203418 0.0205406 0.0197443
0.0203556 0.020541 0.0197444
0.0203682 0.0205483 0.0197444
0.0203793 0.0205578 0.0197443
0.0203898 0.0205666 0.0197443
0.0204001 0.0205737 0.0197442
0.0204093 0.0205798 0.0197442
0.0204175 0.0205857 0.0197442
0.0204247 0.0205907 0.0197442
0.020431 0.0205941 0.0197442
0.0204362 0.0205963 0.0197443
0.0204403 0.0205977 0.0197443
0.0204434 0.0205982 0.0197444
0.0204454 0.0205981 0.0197445
0.0204463 0.020598 0.0197446
0.0204464 0.0205979 0.0197447
0.0204464 0.0205978 0.0197449
0.0204463 0.0205976 0.019745
0.0204462 0.0205974 0.019745
0.0204461 0.0205971 0.0197451
0.020446 0.0205928 0.0197452
0.0204459 0.0205875 0.0197452
0.0204458 0.0205825 0.0197452
0.0204457 0.0205781 0.0197451
0.0204456 0.0205739 0.019745
0.0204455 0.0205697 0.0197447
0.0204453 0.0205661 0.0197444
0.0204452 0.0205632 0.0197441
0.0204451 0.0205606 0.0197437
0.0204431 0.0205584 0.0197433
0.0204402 0.0205567 0.0197428
0.0204372 0.0205553 0.0197423
0.0204342 0.0205539 0.0197417
0.0204307 0.0205525 0.0197412
0.020427 0.0205509 0.0197406
0.0204229 0.0205492 0.0197401
0.0204183 0.0205471 0.0197395
0.0204132 0.0205446 0.019739
0.0204076 0.0205415 0.0197386
0.0204014 0.0205379 0.0197382
0.0203945 0.0205336 0.0197378
0.020387 0.0205286 0.0197376
0.0203789 0.0205228 0.0197373
0.0203701 0.0205164 0.0197372
0.0203608 0.0205093 0.019737
0.0203508 0.0205015 0.019737
0.0203404 0.0204932 0.019737
0.0203295 0.0204845 0.019737
0.0203182 0.0204753 0.019737
0.0203065 0.0204659 0.0197371
0.0202946 0.0204564 0.0197372
0.0202826 0.0204469 0.0197372
0.0202704 0.0204374 0.0197373
0.0202582 0.020428 0.0197373
0.020246 0.020419 0.0197372
0.0202339 0.0204103 0.0197372
0.020222 0.020402 0.019737
0.0202102 0.0203942 0.0197369
0.0201987 0.0203869 0.0197366
0.0201873 0.02038 0.0197363
0.0201762 0.0203736 0.019736
0.0201652 0.0203675 0.0197356
0.0201544 0.0203618 0.0197351
0.0201438 0.0203564 0.0197346
0.0201332 0.020351 0.019734
0.0201228 0.0203458 0.0197335
0.0201123 0.0203405 0.0197329
0.0201017 0.020335 0.0197323
0.0200911 0.0203293 0.0197317
0.0200804 0.0203231 0.0197311
0.0200694 0.0203166 0.0197306
0.0200583 0.0203095 0.01973
0.0200469 0.0203018 0.0197295
0.0200353 0.0202935 0.019729
0.0200234 0.0202846 0.0197286
0.0200113 0.020275 0.0197282
0.019999 0.0202649 0.0197278
0.0199865 0.0202542 0.0197275
0.0199739 0.0202431 0.0197272
0.0199612 0.0202316 0.0197269
0.0199484 0.0202198 0.0197267
0.0199357 0.0202079 0.0197264
0.0199231 0.0201959 0.0197262
0.0199107 0.020184 0.0197259
0.0198986 0.0201723 0.0197256
0.0198867 0.0201609 0.0197253
0.0198752 0.02015 0.019725
0.0198641 0.0201395 0.0197246
0.0198535 0.0201297 0.0197242
0.0198434 0.0201205 0.0197238
0.0198338 0.0201119 0.0197233
0.0198247 0.0201041 0.0197228
0.0198161 0.0200971 0.0197222
0.0198081 0.0200907 0.0197217
0.0198005 0.0200853 0.0197211
0.0197935 0.0200805 0.0197205
0.0197868 0.0200764 0.0197198
0.0197805 0.0200725 0.0197192
0.0197745 0.020069 0.0197186
0.0197686 0.0200656 0.019718
0.0197631 0.0200623 0.0197175
0.0197576 0.0200591 0.019717
0.0197523 0.0200558 0.0197165
0.019747 0.0200525 0.0197161
0.0197418 0.0200489 0.0197158
0.0197366 0.0200452 0.0197155
0.0197314 0.0200413 0.0197153
0.0197263 0.0200372 0.0197152
0.0197212 0.020033 0.0197152
0.0197161 0.0200286 0.0197152
0.0197112 0.0200241 0.0197152
0.0197064 0.0200195 0.0197154
0.0197018 0.0200151 0.0197156
0.0196974 0.0200107 0.0197158
0.0196934 0.0200066 0.019716
0.0196897 0.0200027 0.0197163
0.0196864 0.0199992 0.0197166
0.0196837 0.0199962 0.0197168
0.0196814 0.0199937 0.019717
0.0196798 0.0199917 0.0197172
0.0196788 0.0199904 0.0197173
0.0196784 0.0199897 0.0197174
0.0196784 0.0199896 0.0197174
0.0196784 0.0199897 0.0197174
0.0196785 0.0199898 0.0197174
0.0196786 0.0199899 0.0197173
0.0196788 0.01999 0.0197171
0.0196789 0.0199902 0.019717
0.0196791 0.0199904 0.0197168
0.0196793 0.0199906 0.0197167
0.0196796 0.0199909 0.0197165
0.0196798 0.0199911 0.0197164
0.01968 0.0199913 0.0197164
0.0196803 0.0199916 0.0197163
0.0196805 0.0199918 0.0197164
0.0196808 0.019992 0.0197165
0.019681 0.0199922 0.0197167
0.0196813 0.0199923 0.0197169
0.0196815 0.0199925 0.0197172
0.0196817 0.0199926 0.0197176
0.019682 0.0199927 0.019718
0.0196822 0.0199928 0.0197185
0.0196824 0.0199929 0.0197191
0.0196826 0.019993 0.0197196
0.0196829 0.019993 0.0197202
0.0196831 0.0199931 0.0197208
0.0196834 0.0199932 0.0197213
0.0196836 0.0199934 0.0197219
0.0196839 0.0199935 0.0197224
0.0196842 0.0199937 0.0197229
0.0196846 0.0199938 0.0197233
0.0196849 0.0199941 0.0197237
0.0196853 0.0199943 0.019724
0.0196857 0.0199946 0.0197242
0.0196861 0.0199949 0.0197244
0.0196866 0.0199952 0.0197246
0.019687 0.0199955 0.0197247
0.0196875 0.0199959 0.0197248
0.0196879 0.0199962 0.0197248
0.0196884 0.0199966 0.0197249
0.0196889 0.019997 0.019725
0.0196893 0.0199973 0.019725
0.0196898 0.0199977 0.0197251
0.0196902 0.019998 0.0197253
0.0196907 0.0199983 0.0197254
0.0196911 0.0199986 0.0197256
0.0196915 0.0199988 0.0197259
0.0196918 0.019999 0.0197262
0.0196922 0.0199992 0.0197266
0.0196925 0.0199994 0.019727
0.0196928 0.0199996 0.0197275
0.0196931 0.0199997 0.019728
0.0196934 0.0199998 0.0197285
0.0196937 0.0199999 0.019729
0.0196939 0.02 0.0197296
0.0196941 0.0200001 0.0197301
0.019697 0.0200002 0.0197305
0.0197057 0.0200002 0.0197309
0.0197144 0.0200002 0.0197312
0.0197224 0.0200003 0.0197315
0.019731 0.0200004 0.0197317
0.0197401 0.0200005 0.0197319
0.0197492 0.0200007 0.019732
0.0197586 0.0200008 0.0197321
0.0197684 0.020001 0.0197321
0.0197782 0.0200012 0.0197321
0.0197881 0.0200015 0.0197321
