0 0 325.126 0 0 -325.126 0 0 852.948 0 0 -852.948 0 0 24.492 0 0 -24.492 0 0 -341.386 0 0 341.386 0 0 -853.952 0 0 853.952 0 0 -22.8134 0 0 22.8134
0 0 335.238 0 0 -335.238 0 0 852.016 0 0 -852.016 0 0 24.5238 0 0 -24.5238 0 0 -330.911 0 0 330.911 0 0 -855.047 0 0 855.047 0 0 -22.7585 0 0 22.7585
0 0 357.695 0 0 -357.695 0 0 850.021 0 0 -850.021 0 0 24.5904 0 0 -24.5904 0 0 -307.85 0 0 307.85 0 0 -857.181 0 0 857.181 0 0 -22.6952 0 0 22.6952
0 0 403.232 0 0 -403.232 0 0 846.473 0 0 -846.473 0 0 24.6585 0 0 -24.6585 0 0 -260.991 0 0 260.991 0 0 -861.024 0 0 861.024 0 0 -22.5898 0 0 22.5898
0 0 453.97 0 0 -453.97 0 0 843.209 0 0 -843.209 0 0 24.6812 0 0 -24.6812 0 0 -208.798 0 0 208.798 0 0 -864.555 0 0 864.555 0 0 -22.5512 0 0 22.5512
0 0 517.905 0 0 -517.905 0 0 840.089 0 0 -840.089 0 0 24.629 0 0 -24.629 0 0 -143.041 0 0 143.041 0 0 -868 0 0 868 0 0 -22.5773 0 0 22.5773
0 0 595.373 0 0 -595.373 0 0 837.682 0 0 -837.682 0 0 24.4554 0 0 -24.4554 0 0 -63.3868 0 0 63.3868 0 0 -870.731 0 0 870.731 0 0 -22.7289 0 0 22.7289
0 0 686.64 0 0 -686.64 0 0 836.658 0 0 -836.658 0 0 24.1069 0 0 -24.1069 0 0 30.4219 0 0 -30.4219 0 0 -872.032 0 0 872.032 0 0 -23.0563 0 0 23.0563
0 0 792.012 0 0 -792.012 0 0 837.777 0 0 -837.777 0 0 23.5355 0 0 -23.5355 0 0 138.686 0 0 -138.686 0 0 -871.108 0 0 871.108 0 0 -23.6155 0 0 23.6155
0 0 911.779 0 0 -911.779 0 0 841.874 0 0 -841.874 0 0 22.6946 0 0 -22.6946 0 0 261.681 0 0 -261.681 0 0 -867.1 0 0 867.1 0 0 -24.4587 0 0 24.4587
0 0 1046.02 0 0 -1046.02 0 0 849.849 0 0 -849.849 0 0 21.5394 0 0 -21.5394 0 0 399.473 0 0 -399.473 0 0 -859.069 0 0 859.069 0 0 -25.6337 0 0 25.6337
0 0 1194.16 0 0 -1194.16 0 0 862.686 0 0 -862.686 0 0 20.0289 0 0 -20.0289 0 0 551.451 0 0 -551.451 0 0 -845.967 0 0 845.967 0 0 -27.1835 0 0 27.1835
0 0 1354.52 0 0 -1354.52 0 0 881.471 0 0 -881.471 0 0 18.1336 0 0 -18.1336 0 0 715.478 0 0 -715.478 0 0 -826.823 0 0 826.823 0 0 -29.1329 0 0 29.1329
0 0 1523.71 0 0 -1523.71 0 0 907.265 0 0 -907.265 0 0 15.8516 0 0 -15.8516 0 0 887.928 0 0 -887.928 0 0 -800.312 0 0 800.312 0 0 -31.5034 0 0 31.5034
0 0 1697.04 0 0 -1697.04 0 0 941.51 0 0 -941.51 0 0 13.1698 0 0 -13.1698 0 0 1064.56 0 0 -1064.56 0 0 -764.943 0 0 764.943 0 0 -34.2949 0 0 34.2949
0 0 1868.07 0 0 -1868.07 0 0 985.501 0 0 -985.501 0 0 10.1232 0 0 -10.1232 0 0 1238.58 0 0 -1238.58 0 0 -719.372 0 0 719.372 0 0 -37.5243 0 0 37.5243
0 0 2029.25 0 0 -2029.25 0 0 1040.36 0 0 -1040.36 0 0 6.76907 0 0 -6.76907 0 0 1402.19 0 0 -1402.19 0 0 -662.447 0 0 662.447 0 0 -41.1005 0 0 41.1005
0 0 2172.58 0 0 -2172.58 0 0 1106.92 0 0 -1106.92 0 0 3.21591 0 0 -3.21591 0 0 1547.25 0 0 -1547.25 0 0 -593.201 0 0 593.201 0 0 -44.9151 0 0 44.9151
0 0 2290.52 0 0 -2290.52 0 0 1185.57 0 0 -1185.57 0 0 -0.37085 0 0 0.37085 0 0 1666.05 0 0 -1666.05 0 0 -511.179 0 0 511.179 0 0 -48.8156 0 0 48.8156
0 0 2376.33 0 0 -2376.33 0 0 1276.17 0 0 -1276.17 0 0 -3.81318 0 0 3.81318 0 0 1751.67 0 0 -1751.67 0 0 -416.542 0 0 416.542 0 0 -52.594 0 0 52.594
0 0 2423.96 0 0 -2423.96 0 0 1377.97 0 0 -1377.97 0 0 -6.76677 0 0 6.76677 0 0 1797.94 0 0 -1797.94 0 0 -310.074 0 0 310.074 0 0 -55.9509 0 0 55.9509
0 0 2427.35 0 0 -2427.35 0 0 1489.64 0 0 -1489.64 0 0 -8.90762 0 0 8.90762 0 0 1798.68 0 0 -1798.68 0 0 -193.114 0 0 193.114 0 0 -58.5375 0 0 58.5375
0 0 2379.8 0 0 -2379.8 0 0 1609.39 0 0 -1609.39 0 0 -9.85012 0 0 9.85012 0 0 1747.09 0 0 -1747.09 0 0 -67.5358 0 0 67.5358 0 0 -59.9571 0 0 59.9571
0 0 2273.46 0 0 -2273.46 0 0 1734.93 0 0 -1734.93 0 0 -9.16703 0 0 9.16703 0 0 1635.18 0 0 -1635.18 0 0 64.2962 0 0 -64.2962 0 0 -59.774 0 0 59.774
0 0 2099.42 0 0 -2099.42 0 0 1863.47 0 0 -1863.47 0 0 -6.3915 0 0 6.3915 0 0 1453.94 0 0 -1453.94 0 0 199.49 0 0 -199.49 0 0 -57.5162 0 0 57.5162
0 0 1849.16 0 0 -1849.16 0 0 1991.5 0 0 -1991.5 0 0 -1.05566 0 0 1.05566 0 0 1194.79 0 0 -1194.79 0 0 333.499 0 0 -333.499 0 0 -52.8569 0 0 52.8569
0 0 1517.96 0 0 -1517.96 0 0 2114.56 0 0 -2114.56 0 0 7.23233 0 0 -7.23233 0 0 852.954 0 0 -852.954 0 0 462.974 0 0 -462.974 0 0 -44.8865 0 0 44.8865
0 0 1109.39 0 0 -1109.39 0 0 2227.16 0 0 -2227.16 0 0 19.1708 0 0 -19.1708 0 0 432.254 0 0 -432.254 0 0 581.487 0 0 -581.487 0 0 -33.3198 0 0 33.3198
0 0 638.8 0 0 -638.8 0 0 2322.09 0 0 -2322.09 0 0 35.283 0 0 -35.283 0 0 -51.5065 0 0 51.5065 0 0 681.642 0 0 -681.642 0 0 -17.489 0 0 17.489
0 0 131.476 0 0 -131.476 0 0 2391.21 0 0 -2391.21 0 0 56.0574 0 0 -56.0574 0 0 -572.242 0 0 572.242 0 0 754.818 0 0 -754.818 0 0 3.04318 0 0 -3.04318
0 0 -383.262 0 0 383.262 0 0 2426.3 0 0 -2426.3 0 0 81.784 0 0 -81.784 0 0 -1099.82 0 0 1099.82 0 0 792.475 0 0 -792.475 0 0 28.6748 0 0 -28.6748
0 0 -878.049 0 0 878.049 0 0 2419.84 0 0 -2419.84 0 0 112.807 0 0 -112.807 0 0 -1607.65 0 0 1607.65 0 0 786.315 0 0 -786.315 0 0 59.8143 0 0 -59.8143
0 0 -1328.48 0 0 1328.48 0 0 2366.19 0 0 -2366.19 0 0 149.128 0 0 -149.128 0 0 -2069.44 0 0 2069.44 0 0 730.694 0 0 -730.694 0 0 96.408 0 0 -96.408
0 0 -1715.81 0 0 1715.81 0 0 2261.78 0 0 -2261.78 0 0 190.475 0 0 -190.475 0 0 -2465.6 0 0 2465.6 0 0 621.725 0 0 -621.725 0 0 138.385 0 0 -138.385
0 0 -2028.39 0 0 2028.39 0 0 2105.23 0 0 -2105.23 0 0 236.352 0 0 -236.352 0 0 -2783.77 0 0 2783.77 0 0 458.305 0 0 -458.305 0 0 185.072 0 0 -185.072
0 0 -2262.8 0 0 2262.8 0 0 1897.14 0 0 -1897.14 0 0 285.942 0 0 -285.942 0 0 -3019.8 0 0 3019.8 0 0 241.328 0 0 -241.328 0 0 235.68 0 0 -235.68
0 0 -2422.23 0 0 2422.23 0 0 1640.9 0 0 -1640.9 0 0 338.119 0 0 -338.119 0 0 -3176.39 0 0 3176.39 0 0 -26.0667 0 0 26.0667 0 0 289.136 0 0 -289.136
0 0 -2510.86 0 0 2510.86 0 0 1342.74 0 0 -1342.74 0 0 391.646 0 0 -391.646 0 0 -3260.02 0 0 3260.02 0 0 -337.548 0 0 337.548 0 0 344.07 0 0 -344.07
0 0 -2538.57 0 0 2538.57 0 0 1009.23 0 0 -1009.23 0 0 444.944 0 0 -444.944 0 0 -3280.05 0 0 3280.05 0 0 -686.872 0 0 686.872 0 0 398.742 0 0 -398.742
0 0 -2516.53 0 0 2516.53 0 0 648.774 0 0 -648.774 0 0 496.294 0 0 -496.294 0 0 -3248.28 0 0 3248.28 0 0 -1064.34 0 0 1064.34 0 0 451.915 0 0 -451.915
0 0 -2456.59 0 0 2456.59 0 0 271.498 0 0 -271.498 0 0 544.033 0 0 -544.033 0 0 -3177.38 0 0 3177.38 0 0 -1459.85 0 0 1459.85 0 0 501.32 0 0 -501.32
0 0 -2369.69 0 0 2369.69 0 0 -112.749 0 0 112.749 0 0 586.355 0 0 -586.355 0 0 -3078.73 0 0 3078.73 0 0 -1862.59 0 0 1862.59 0 0 545.386 0 0 -545.386
0 0 -2263.46 0 0 2263.46 0 0 -493.986 0 0 493.986 0 0 621.542 0 0 -621.542 0 0 -2960.27 0 0 2960.27 0 0 -2262.23 0 0 2262.23 0 0 582.22 0 0 -582.22
0 0 -2141.38 0 0 2141.38 0 0 -862.586 0 0 862.586 0 0 647.92 0 0 -647.92 0 0 -2825.89 0 0 2825.89 0 0 -2648.69 0 0 2648.69 0 0 610.155 0 0 -610.155
0 0 -2004.75 0 0 2004.75 0 0 -1209.42 0 0 1209.42 0 0 663.95 0 0 -663.95 0 0 -2677.25 0 0 2677.25 0 0 -3012.36 0 0 3012.36 0 0 627.606 0 0 -627.606
0 0 -1857.15 0 0 1857.15 0 0 -1526.12 0 0 1526.12 0 0 668.109 0 0 -668.109 0 0 -2518.22 0 0 2518.22 0 0 -3343.95 0 0 3343.95 0 0 633.151 0 0 -633.151
0 0 -1708.62 0 0 1708.62 0 0 -1805.36 0 0 1805.36 0 0 659.432 0 0 -659.432 0 0 -2359.47 0 0 2359.47 0 0 -3634.63 0 0 3634.63 0 0 625.453 0 0 -625.453
0 0 -1578.11 0 0 1578.11 0 0 -2035.86 0 0 2035.86 0 0 636.9 0 0 -636.9 0 0 -2220.45 0 0 2220.45 0 0 -3874.79 0 0 3874.79 0 0 603.712 0 0 -603.712
0 0 -1492.23 0 0 1492.23 0 0 -2210.26 0 0 2210.26 0 0 599.845 0 0 -599.845 0 0 -2128.47 0 0 2128.47 0 0 -4056.01 0 0 4056.01 0 0 567.143 0 0 -567.143
0 0 -1483.99 0 0 1483.99 0 0 -2321.78 0 0 2321.78 0 0 547.954 0 0 -547.954 0 0 -2117.57 0 0 2117.57 0 0 -4170.95 0 0 4170.95 0 0 515.418 0 0 -515.418
0 0 -1640.78 0 0 1640.78 0 0 -2365.05 0 0 2365.05 0 0 462.398 0 0 -462.398 0 0 -2277.44 0 0 2277.44 0 0 -4213.47 0 0 4213.47 0 0 429.529 0 0 -429.529
0 0 -2053.43 0 0 2053.43 0 0 -2297.8 0 0 2297.8 0 0 354.945 0 0 -354.945 0 0 -2701.97 0 0 2701.97 0 0 -4139.73 0 0 4139.73 0 0 321.109 0 0 -321.109
0 0 -2782.73 0 0 2782.73 0 0 -2124.61 0 0 2124.61 0 0 227.811 0 0 -227.811 0 0 -3453.28 0 0 3453.28 0 0 -3954.29 0 0 3954.29 0 0 192.425 0 0 -192.425
0 0 -3858.77 0 0 3858.77 0 0 -1860.83 0 0 1860.83 0 0 84.4157 0 0 -84.4157 0 0 -4561.93 0 0 4561.93 0 0 -3673.05 0 0 3673.05 0 0 46.9791 0 0 -46.9791
0 0 -5271.81 0 0 5271.81 0 0 -1532.77 0 0 1532.77 0 0 -72.9308 0 0 72.9308 0 0 -6017.4 0 0 6017.4 0 0 -3323.7 0 0 3323.7 0 0 -112.322 0 0 112.322
0 0 -6968.23 0 0 6968.23 0 0 -1177.89 0 0 1177.89 0 0 -236.67 0 0 236.67 0 0 -7763.91 0 0 7763.91 0 0 -2945.45 0 0 2945.45 0 0 -279.698 0 0 279.698
0 0 -8850.9 0 0 8850.9 0 0 -841.652 0 0 841.652 0 0 -400.828 0 0 400.828 0 0 -9701.06 0 0 9701.06 0 0 -2586.55 0 0 2586.55 0 0 -446.143 0 0 446.143
0 0 -10788.1 0 0 10788.1 0 0 -574.271 0 0 574.271 0 0 -559.155 0 0 559.155 0 0 -11692.9 0 0 11692.9 0 0 -2299.21 0 0 2299.21 0 0 -607.153 0 0 607.153
0 0 -12638.4 0 0 12638.4 0 0 -424.466 0 0 424.466 0 0 -705.996 0 0 705.996 0 0 -13593.3 0 0 13593.3 0 0 -2135.08 0 0 2135.08 0 0 -755.481 0 0 755.481
0 0 -14281.7 0 0 14281.7 0 0 -433.34 0 0 433.34 0 0 -836.459 0 0 836.459 0 0 -15278.4 0 0 15278.4 0 0 -2137.26 0 0 2137.26 0 0 -887.09 0 0 887.09
0 0 -15639.8 0 0 15639.8 0 0 -629.602 0 0 629.602 0 0 -947.285 0 0 947.285 0 0 -16667.1 0 0 16667.1 0 0 -2335.78 0 0 2335.78 0 0 -998.046 0 0 998.046
0 0 -16677.2 0 0 16677.2 0 0 -1027.54 0 0 1027.54 0 0 -1036.92 0 0 1036.92 0 0 -17722.4 0 0 17722.4 0 0 -2745.74 0 0 2745.74 0 0 -1086.94 0 0 1086.94
0 0 -17393.2 0 0 17393.2 0 0 -1626.95 0 0 1626.95 0 0 -1105.57 0 0 1105.57 0 0 -18443.7 0 0 18443.7 0 0 -3366.92 0 0 3366.92 0 0 -1153.73 0 0 1153.73
0 0 -17813.7 0 0 17813.7 0 0 -2414.15 0 0 2414.15 0 0 -1155.07 0 0 1155.07 0 0 -18857.5 0 0 18857.5 0 0 -4185.04 0 0 4185.04 0 0 -1200.49 0 0 1200.49
0 0 -17979.7 0 0 17979.7 0 0 -3363.94 0 0 3363.94 0 0 -1188.84 0 0 1188.84 0 0 -19006.4 0 0 19006.4 0 0 -5173.6 0 0 5173.6 0 0 -1230.77 0 0 1230.77
0 0 -17934.1 0 0 17934.1 0 0 -4442.22 0 0 4442.22 0 0 -1211.59 0 0 1211.59 0 0 -18935.3 0 0 18935.3 0 0 -6296.93 0 0 6296.93 0 0 -1249.43 0 0 1249.43
0 0 -17720.1 0 0 17720.1 0 0 -5607.97 0 0 5607.97 0 0 -1229.07 0 0 1229.07 0 0 -18689.3 0 0 18689.3 0 0 -7512.13 0 0 7512.13 0 0 -1262.38 0 0 1262.38
0 0 -17390.8 0 0 17390.8 0 0 -6814.48 0 0 6814.48 0 0 -1247.63 0 0 1247.63 0 0 -18323.9 0 0 18323.9 0 0 -8770.17 0 0 8770.17 0 0 -1276.21 0 0 1276.21
0 0 -17016.5 0 0 17016.5 0 0 -8010.92 0 0 8010.92 0 0 -1273.9 0 0 1273.9 0 0 -17912.7 0 0 17912.7 0 0 -10017.7 0 0 10017.7 0 0 -1297.85 0 0 1297.85
0 0 -16680.5 0 0 16680.5 0 0 -9145.49 0 0 9145.49 0 0 -1314.37 0 0 1314.37 0 0 -17542 0 0 17542 0 0 -11200.4 0 0 11200.4 0 0 -1334.04 0 0 1334.04
0 0 -16463.7 0 0 16463.7 0 0 -10169.8 0 0 10169.8 0 0 -1374.9 0 0 1374.9 0 0 -17295.9 0 0 17295.9 0 0 -12267.6 0 0 12267.6 0 0 -1390.86 0 0 1390.86
0 0 -16424.6 0 0 16424.6 0 0 -11043.5 0 0 11043.5 0 0 -1460.24 0 0 1460.24 0 0 -17235.6 0 0 17235.6 0 0 -13176.9 0 0 13176.9 0 0 -1473.24 0 0 1473.24
0 0 -16588.2 0 0 16588.2 0 0 -11737 0 0 11737 0 0 -1573.68 0 0 1573.68 0 0 -17387.5 0 0 17387.5 0 0 -13897.5 0 0 13897.5 0 0 -1584.62 0 0 1584.62
0 0 -16955 0 0 16955 0 0 -12232.5 0 0 12232.5 0 0 -1716.86 0 0 1716.86 0 0 -17752.8 0 0 17752.8 0 0 -14410.6 0 0 14410.6 0 0 -1726.75 0 0 1726.75
0 0 -17514 0 0 17514 0 0 -12522.7 0 0 12522.7 0 0 -1889.75 0 0 1889.75 0 0 -18320.3 0 0 18320.3 0 0 -14708.5 0 0 14708.5 0 0 -1899.61 0 0 1899.61
0 0 -18246.3 0 0 18246.3 0 0 -12610.7 0 0 12610.7 0 0 -2090.6 0 0 2090.6 0 0 -19070.6 0 0 19070.6 0 0 -14794.7 0 0 14794.7 0 0 -2101.42 0 0 2101.42
0 0 -19127.6 0 0 19127.6 0 0 -12509.4 0 0 12509.4 0 0 -2316.01 0 0 2316.01 0 0 -19978.5 0 0 19978.5 0 0 -14682.7 0 0 14682.7 0 0 -2328.73 0 0 2328.73
0 0 -20129.1 0 0 20129.1 0 0 -12240.5 0 0 12240.5 0 0 -2561.14 0 0 2561.14 0 0 -21013.9 0 0 21013.9 0 0 -14395.2 0 0 14395.2 0 0 -2576.56 0 0 2576.56
0 0 -21220.1 0 0 21220.1 0 0 -11833.1 0 0 11833.1 0 0 -2819.86 0 0 2819.86 0 0 -22144.6 0 0 22144.6 0 0 -13962.9 0 0 13962.9 0 0 -2838.65 0 0 2838.65
0 0 -22367.4 0 0 22367.4 0 0 -11322.3 0 0 11322.3 0 0 -3085.09 0 0 3085.09 0 0 -23335.6 0 0 23335.6 0 0 -13422.4 0 0 13422.4 0 0 -3107.73 0 0 3107.73
0 0 -23534.6 0 0 23534.6 0 0 -10747.3 0 0 10747.3 0 0 -3349.11 0 0 3349.11 0 0 -24548.6 0 0 24548.6 0 0 -12815 0 0 12815 0 0 -3375.84 0 0 3375.84
0 0 -24683.8 0 0 24683.8 0 0 -10149.7 0 0 10149.7 0 0 -3603.87 0 0 3603.87 0 0 -25743.8 0 0 25743.8 0 0 -12184.2 0 0 12184.2 0 0 -3634.76 0 0 3634.76
0 0 -25781.4 0 0 25781.4 0 0 -9570.75 0 0 9570.75 0 0 -3841.47 0 0 3841.47 0 0 -26885.5 0 0 26885.5 0 0 -11573.4 0 0 11573.4 0 0 -3876.33 0 0 3876.33
0 0 -26804 0 0 26804 0 0 -9049.01 0 0 9049.01 0 0 -4054.44 0 0 4054.44 0 0 -27948.8 0 0 27948.8 0 0 -11022.8 0 0 11022.8 0 0 -4092.91 0 0 4092.91
0 0 -27739.5 0 0 27739.5 0 0 -8618.45 0 0 8618.45 0 0 -4236.14 0 0 4236.14 0 0 -28920.5 0 0 28920.5 0 0 -10568 0 0 10568 0 0 -4277.65 0 0 4277.65
0 0 -28581 0 0 28581 0 0 -8307.84 0 0 8307.84 0 0 -4380.98 0 0 4380.98 0 0 -29792.7 0 0 29792.7 0 0 -10239.2 0 0 10239.2 0 0 -4424.82 0 0 4424.82
0 0 -29312.6 0 0 29312.6 0 0 -8140.96 0 0 8140.96 0 0 -4484.63 0 0 4484.63 0 0 -30548.4 0 0 30548.4 0 0 -10061.4 0 0 10061.4 0 0 -4529.95 0 0 4529.95
0 0 -29897.3 0 0 29897.3 0 0 -8136.58 0 0 8136.58 0 0 -4544.19 0 0 4544.19 0 0 -31149.5 0 0 31149.5 0 0 -10054.3 0 0 10054.3 0 0 -4590.03 0 0 4590.03
0 0 -30280.1 0 0 30280.1 0 0 -8307.17 0 0 8307.17 0 0 -4558.36 0 0 4558.36 0 0 -31539 0 0 31539 0 0 -10231.2 0 0 10231.2 0 0 -4603.7 0 0 4603.7
0 0 -30402.3 0 0 30402.3 0 0 -8656.3 0 0 8656.3 0 0 -4527.6 0 0 4527.6 0 0 -31656.8 0 0 31656.8 0 0 -10595.7 0 0 10595.7 0 0 -4571.39 0 0 4571.39
0 0 -30280 0 0 30280 0 0 -9059.5 0 0 9059.5 0 0 -4472.16 0 0 4472.16 0 0 -31522.2 0 0 31522.2 0 0 -11017.7 0 0 11017.7 0 0 -4513.98 0 0 4513.98
0 0 -29828.8 0 0 29828.8 0 0 -9702.75 0 0 9702.75 0 0 -4367.66 0 0 4367.66 0 0 -31044.6 0 0 31044.6 0 0 -11691.9 0 0 11691.9 0 0 -4406.2 0 0 4406.2
0 0 -29045.4 0 0 29045.4 0 0 -10472.3 0 0 10472.3 0 0 -4229.35 0 0 4229.35 0 0 -30222.7 0 0 30222.7 0 0 -12499.4 0 0 12499.4 0 0 -4263.82 0 0 4263.82
0 0 -27954.7 0 0 27954.7 0 0 -11327.1 0 0 11327.1 0 0 -4064.24 0 0 4064.24 0 0 -29083.2 0 0 29083.2 0 0 -13396.9 0 0 13396.9 0 0 -4094.09 0 0 4094.09
0 0 -26598.5 0 0 26598.5 0 0 -12217.6 0 0 12217.6 0 0 -3880.49 0 0 3880.49 0 0 -27670.2 0 0 27670.2 0 0 -14332.8 0 0 14332.8 0 0 -3905.4 0 0 3905.4
0 0 -25025 0 0 25025 0 0 -13089.1 0 0 13089.1 0 0 -3686.88 0 0 3686.88 0 0 -26034.4 0 0 26034.4 0 0 -15249.8 0 0 15249.8 0 0 -3706.82 0 0 3706.82
0 0 -23286.5 0 0 23286.5 0 0 -13884.8 0 0 13884.8 0 0 -3492.35 0 0 3492.35 0 0 -24230.8 0 0 24230.8 0 0 -16088.1 0 0 16088.1 0 0 -3507.58 0 0 3507.58
0 0 -21435.6 0 0 21435.6 0 0 -14548.4 0 0 14548.4 0 0 -3305.56 0 0 3305.56 0 0 -22314.9 0 0 22314.9 0 0 -16788.8 0 0 16788.8 0 0 -3316.62 0 0 3316.62
0 0 -19520.7 0 0 19520.7 0 0 -15027.5 0 0 15027.5 0 0 -3134.33 0 0 3134.33 0 0 -20337.7 0 0 20337.7 0 0 -17297.1 0 0 17297.1 0 0 -3142.04 0 0 3142.04
0 0 -17585.4 0 0 17585.4 0 0 -15276.1 0 0 15276.1 0 0 -2985.29 0 0 2985.29 0 0 -18345.1 0 0 18345.1 0 0 -17564.6 0 0 17564.6 0 0 -2990.68 0 0 2990.68
0 0 -15667.2 0 0 15667.2 0 0 -15256.5 0 0 15256.5 0 0 -2863.46 0 0 2863.46 0 0 -16376.6 0 0 16376.6 0 0 -17552 0 0 17552 0 0 -2867.75 0 0 2867.75
0 0 -13794.7 0 0 13794.7 0 0 -14941.9 0 0 14941.9 0 0 -2771.96 0 0 2771.96 0 0 -14462.3 0 0 14462.3 0 0 -17230.9 0 0 17230.9 0 0 -2776.49 0 0 2776.49
0 0 -11990.5 0 0 11990.5 0 0 -14316.6 0 0 14316.6 0 0 -2711.82 0 0 2711.82 0 0 -12625.8 0 0 12625.8 0 0 -16585.2 0 0 16585.2 0 0 -2718.03 0 0 2718.03
0 0 -10280.5 0 0 10280.5 0 0 -13376.6 0 0 13376.6 0 0 -2681.94 0 0 2681.94 0 0 -10894 0 0 10894 0 0 -15610.5 0 0 15610.5 0 0 -2691.26 0 0 2691.26
0 0 -8704.43 0 0 8704.43 0 0 -12128.6 0 0 12128.6 0 0 -2679.03 0 0 2679.03 0 0 -9307.24 0 0 9307.24 0 0 -14313.8 0 0 14313.8 0 0 -2692.87 0 0 2692.87
0 0 -7308.48 0 0 7308.48 0 0 -10591.1 0 0 10591.1 0 0 -2697.7 0 0 2697.7 0 0 -7912.49 0 0 7912.49 0 0 -12714.3 0 0 12714.3 0 0 -2717.37 0 0 2717.37
0 0 -6123.96 0 0 6123.96 0 0 -8796 0 0 8796 0 0 -2730.55 0 0 2730.55 0 0 -6740.95 0 0 6740.95 0 0 -10845.7 0 0 10845.7 0 0 -2757.19 0 0 2757.19
0 0 -5158.49 0 0 5158.49 0 0 -6788.93 0 0 6788.93 0 0 -2768.37 0 0 2768.37 0 0 -5799.3 0 0 5799.3 0 0 -8755.68 0 0 8755.68 0 0 -2802.9 0 0 2802.9
0 0 -4401.65 0 0 4401.65 0 0 -4626.79 0 0 4626.79 0 0 -2800.61 0 0 2800.61 0 0 -5075.44 0 0 5075.44 0 0 -6503.8 0 0 6503.8 0 0 -2843.65 0 0 2843.65
0 0 -3829.88 0 0 3829.88 0 0 -2375.09 0 0 2375.09 0 0 -2815.8 0 0 2815.8 0 0 -4543.52 0 0 4543.52 0 0 -4158.72 0 0 4158.72 0 0 -2867.66 0 0 2867.66
0 0 -3408.06 0 0 3408.06 0 0 -105.158 0 0 105.158 0 0 -2802.14 0 0 2802.14 0 0 -4165.7 0 0 4165.7 0 0 -1795.13 0 0 1795.13 0 0 -2862.76 0 0 2862.76
0 0 -3088.08 0 0 3088.08 0 0 2108.78 0 0 -2108.78 0 0 -2748.07 0 0 2748.07 0 0 -3890.79 0 0 3890.79 0 0 509.201 0 0 -509.201 0 0 -2817.01 0 0 2817.01
0 0 -2814.17 0 0 2814.17 0 0 4188.71 0 0 -4188.71 0 0 -2642.51 0 0 2642.51 0 0 -3651.25 0 0 3651.25 0 0 2675.72 0 0 -2675.72 0 0 -2719.27 0 0 2719.27
0 0 -2496.12 0 0 2496.12 0 0 6054.46 0 0 -6054.46 0 0 -2477.13 0 0 2477.13 0 0 -3369.52 0 0 3369.52 0 0 4623.87 0 0 -4623.87 0 0 -2560.14 0 0 2560.14
0 0 -2039.67 0 0 2039.67 0 0 7651.11 0 0 -7651.11 0 0 -2245.72 0 0 2245.72 0 0 -2941.22 0 0 2941.22 0 0 6282.42 0 0 -6282.42 0 0 -2331.87 0 0 2331.87
0 0 -1363.73 0 0 1363.73 0 0 8936.02 0 0 -8936.02 0 0 -1941.35 0 0 1941.35 0 0 -2277.3 0 0 2277.3 0 0 7609.26 0 0 -7609.26 0 0 -2032.09 0 0 2032.09
0 0 -426.113 0 0 426.113 0 0 9878.11 0 0 -9878.11 0 0 -1563.37 0 0 1563.37 0 0 -1339.82 0 0 1339.82 0 0 8580.06 0 0 -8580.06 0 0 -1655.26 0 0 1655.26
0 0 765.872 0 0 -765.872 0 0 10467.1 0 0 -10467.1 0 0 -1113.02 0 0 1113.02 0 0 -131.919 0 0 131.919 0 0 9180.8 0 0 -9180.8 0 0 -1204.25 0 0 1204.25
0 0 2175.13 0 0 -2175.13 0 0 10710.6 0 0 -10710.6 0 0 -595.336 0 0 595.336 0 0 1306.99 0 0 -1306.99 0 0 9418.58 0 0 -9418.58 0 0 -684.517 0 0 684.517
0 0 3760.99 0 0 -3760.99 0 0 10631.8 0 0 -10631.8 0 0 -18.5443 0 0 18.5443 0 0 2934.52 0 0 -2934.52 0 0 9320.07 0 0 -9320.07 0 0 -103.891 0 0 103.891
0 0 5497.87 0 0 -5497.87 0 0 10267 0 0 -10267 0 0 595.327 0 0 -595.327 0 0 4723.73 0 0 -4723.73 0 0 8922.65 0 0 -8922.65 0 0 515.562 0 0 -515.562
0 0 7377.36 0 0 -7377.36 0 0 9660.62 0 0 -9660.62 0 0 1246.69 0 0 -1246.69 0 0 6664.96 0 0 -6664.96 0 0 8272.29 0 0 -8272.29 0 0 1172.49 0 0 -1172.49
0 0 9392.99 0 0 -9392.99 0 0 8867.52 0 0 -8867.52 0 0 1918.93 0 0 -1918.93 0 0 8749.96 0 0 -8749.96 0 0 7425.78 0 0 -7425.78 0 0 1852.03 0 0 -1852.03
0 0 11528.7 0 0 -11528.7 0 0 7951.25 0 0 -7951.25 0 0 2596.02 0 0 -2596.02 0 0 10960.5 0 0 -10960.5 0 0 6452.01 0 0 -6452.01 0 0 2536.05 0 0 -2536.05
0 0 13762.9 0 0 -13762.9 0 0 6981.82 0 0 -6981.82 0 0 3261.74 0 0 -3261.74 0 0 13273.1 0 0 -13273.1 0 0 5422.12 0 0 -5422.12 0 0 3210.17 0 0 -3210.17
0 0 16075.4 0 0 -16075.4 0 0 6031.3 0 0 -6031.3 0 0 3899.95 0 0 -3899.95 0 0 15664.8 0 0 -15664.8 0 0 4411.9 0 0 -4411.9 0 0 3855.27 0 0 -3855.27
0 0 18448.1 0 0 -18448.1 0 0 5170.81 0 0 -5170.81 0 0 4494.23 0 0 -4494.23 0 0 18115.5 0 0 -18115.5 0 0 3496.25 0 0 -3496.25 0 0 4456.03 0 0 -4456.03
0 0 20861.1 0 0 -20861.1 0 0 4468.72 0 0 -4468.72 0 0 5029.44 0 0 -5029.44 0 0 20602.7 0 0 -20602.7 0 0 2746.33 0 0 -2746.33 0 0 4997.03 0 0 -4997.03
0 0 23285.6 0 0 -23285.6 0 0 3988.46 0 0 -3988.46 0 0 5492.39 0 0 -5492.39 0 0 23095.3 0 0 -23095.3 0 0 2228.62 0 0 -2228.62 0 0 5464.56 0 0 -5464.56
0 0 25673.2 0 0 -25673.2 0 0 3786.71 0 0 -3786.71 0 0 5872.21 0 0 -5872.21 0 0 25542.4 0 0 -25542.4 0 0 2002.33 0 0 -2002.33 0 0 5847.44 0 0 -5847.44
0 0 27948.2 0 0 -27948.2 0 0 3911.46 0 0 -3911.46 0 0 6160.48 0 0 -6160.48 0 0 27865.2 0 0 -27865.2 0 0 2118.13 0 0 -2118.13 0 0 6136.85 0 0 -6136.85
0 0 30013.7 0 0 -30013.7 0 0 4399.05 0 0 -4399.05 0 0 6351.81 0 0 -6351.81 0 0 29963.9 0 0 -29963.9 0 0 2614.22 0 0 -2614.22 0 0 6327.52 0 0 -6327.52
0 0 31772.4 0 0 -31772.4 0 0 5269.6 0 0 -5269.6 0 0 6444.44 0 0 -6444.44 0 0 31738.4 0 0 -31738.4 0 0 3511.63 0 0 -3511.63 0 0 6417.63 0 0 -6417.63
0 0 33148.4 0 0 -33148.4 0 0 6522.94 0 0 -6522.94 0 0 6440.48 0 0 -6440.48 0 0 33111.5 0 0 -33111.5 0 0 4810.4 0 0 -4810.4 0 0 6409.13 0 0 -6409.13
0 0 34100.3 0 0 -34100.3 0 0 8136.72 0 0 -8136.72 0 0 6345.81 0 0 -6345.81 0 0 34041.5 0 0 -34041.5 0 0 6487.31 0 0 -6487.31 0 0 6307.99 0 0 -6307.99
0 0 34627 0 0 -34627 0 0 10066.4 0 0 -10066.4 0 0 6169.9 0 0 -6169.9 0 0 34528.5 0 0 -34528.5 0 0 8495.68 0 0 -8495.68 0 0 6123.92 0 0 -6123.92
0 0 34766.3 0 0 -34766.3 0 0 12247 0 0 -12247 0 0 5925.46 0 0 -5925.46 0 0 34612.8 0 0 -34612.8 0 0 10767.5 0 0 -10767.5 0 0 5870.01 0 0 -5870.01
0 0 34588.4 0 0 -34588.4 0 0 14596.8 0 0 -14596.8 0 0 5627.9 0 0 -5627.9 0 0 34368.6 0 0 -34368.6 0 0 13217.2 0 0 -13217.2 0 0 5562.02 0 0 -5562.02
0 0 34189.8 0 0 -34189.8 0 0 17021.9 0 0 -17021.9 0 0 5294.54 0 0 -5294.54 0 0 33896.8 0 0 -33896.8 0 0 15746.3 0 0 -15746.3 0 0 5217.67 0 0 -5217.67
0 0 33680.7 0 0 -33680.7 0 0 19421.8 0 0 -19421.8 0 0 4943.67 0 0 -4943.67 0 0 33312.6 0 0 -33312.6 0 0 18249.8 0 0 -18249.8 0 0 4855.76 0 0 -4855.76
0 0 33168.9 0 0 -33168.9 0 0 21696.3 0 0 -21696.3 0 0 4593.63 0 0 -4593.63 0 0 32728.9 0 0 -32728.9 0 0 20622.6 0 0 -20622.6 0 0 4495.16 0 0 -4495.16
0 0 32749.1 0 0 -32749.1 0 0 23751.1 0 0 -23751.1 0 0 4261.98 0 0 -4261.98 0 0 32244.8 0 0 -32244.8 0 0 22766.2 0 0 -22766.2 0 0 4153.88 0 0 -4153.88
0 0 32500.9 0 0 -32500.9 0 0 25502.8 0 0 -25502.8 0 0 3964.59 0 0 -3964.59 0 0 31943.9 0 0 -31943.9 0 0 24593.2 0 0 -24593.2 0 0 3848.22 0 0 -3848.22
0 0 32486.8 0 0 -32486.8 0 0 26882.6 0 0 -26882.6 0 0 3714.96 0 0 -3714.96 0 0 31891.8 0 0 -31891.8 0 0 26031.9 0 0 -26031.9 0 0 3592.03 0 0 -3592.03
0 0 32561.4 0 0 -32561.4 0 0 27772.7 0 0 -27772.7 0 0 3528.88 0 0 -3528.88 0 0 32085.9 0 0 -32085.9 0 0 27001.9 0 0 -27001.9 0 0 3398.07 0 0 -3398.07
0 0 32849.6 0 0 -32849.6 0 0 28147.4 0 0 -28147.4 0 0 3407.4 0 0 -3407.4 0 0 32586.2 0 0 -32586.2 0 0 27499.4 0 0 -27499.4 0 0 3271.45 0 0 -3271.45
0 0 33493.1 0 0 -33493.1 0 0 28127.1 0 0 -28127.1 0 0 3350.88 0 0 -3350.88 0 0 33376.7 0 0 -33376.7 0 0 27529.2 0 0 -27529.2 0 0 3215.6 0 0 -3215.6
0 0 34461.3 0 0 -34461.3 0 0 27715.6 0 0 -27715.6 0 0 3360.88 0 0 -3360.88 0 0 34439.2 0 0 -34439.2 0 0 27115.8 0 0 -27115.8 0 0 3225.44 0 0 -3225.44
0 0 35690 0 0 -35690 0 0 26895.2 0 0 -26895.2 0 0 3433.63 0 0 -3433.63 0 0 35769.9 0 0 -35769.9 0 0 26283.8 0 0 -26283.8 0 0 3300.84 0 0 -3300.84
0 0 36198.9 0 0 -36198.9 0 0 25834.3 0 0 -25834.3 0 0 3558.04 0 0 -3558.04 0 0 36207.6 0 0 -36207.6 0 0 25217.9 0 0 -25217.9 0 0 3426.36 0 0 -3426.36
0 0 36323.8 0 0 -36323.8 0 0 24542.8 0 0 -24542.8 0 0 3727.78 0 0 -3727.78 0 0 36337.7 0 0 -36337.7 0 0 23867.1 0 0 -23867.1 0 0 3605.98 0 0 -3605.98
0 0 36469 0 0 -36469 0 0 22989.2 0 0 -22989.2 0 0 3936.48 0 0 -3936.48 0 0 36488 0 0 -36488 0 0 22268.9 0 0 -22268.9 0 0 3818.16 0 0 -3818.16
0 0 36633.5 0 0 -36633.5 0 0 21248.2 0 0 -21248.2 0 0 4170.75 0 0 -4170.75 0 0 36658.6 0 0 -36658.6 0 0 20484.2 0 0 -20484.2 0 0 4060.6 0 0 -4060.6
0 0 36814.4 0 0 -36814.4 0 0 19393.5 0 0 -19393.5 0 0 4419.03 0 0 -4419.03 0 0 36845.7 0 0 -36845.7 0 0 18573.2 0 0 -18573.2 0 0 4316.12 0 0 -4316.12
0 0 37005.6 0 0 -37005.6 0 0 17489.7 0 0 -17489.7 0 0 4667.3 0 0 -4667.3 0 0 37043.7 0 0 -37043.7 0 0 16616.5 0 0 -16616.5 0 0 4571.33 0 0 -4571.33
0 0 37199.8 0 0 -37199.8 0 0 15612 0 0 -15612 0 0 4901.04 0 0 -4901.04 0 0 37244.7 0 0 -37244.7 0 0 14685.6 0 0 -14685.6 0 0 4813.01 0 0 -4813.01
0 0 37389.1 0 0 -37389.1 0 0 13832.4 0 0 -13832.4 0 0 5107.22 0 0 -5107.22 0 0 37440.6 0 0 -37440.6 0 0 12857.5 0 0 -12857.5 0 0 5026.22 0 0 -5026.22
0 0 37566.3 0 0 -37566.3 0 0 12217.3 0 0 -12217.3 0 0 5273.8 0 0 -5273.8 0 0 37623.9 0 0 -37623.9 0 0 11199.6 0 0 -11199.6 0 0 5198.65 0 0 -5198.65
0 0 37726.6 0 0 -37726.6 0 0 10828.4 0 0 -10828.4 0 0 5389.67 0 0 -5389.67 0 0 37789.7 0 0 -37789.7 0 0 9774.64 0 0 -9774.64 0 0 5319.42 0 0 -5319.42
0 0 37867.5 0 0 -37867.5 0 0 9717.18 0 0 -9717.18 0 0 5445.54 0 0 -5445.54 0 0 37935.2 0 0 -37935.2 0 0 8636.03 0 0 -8636.03 0 0 5379.27 0 0 -5379.27
0 0 37987.9 0 0 -37987.9 0 0 8923.03 0 0 -8923.03 0 0 5435.11 0 0 -5435.11 0 0 38059.2 0 0 -38059.2 0 0 7826.24 0 0 -7826.24 0 0 5371.56 0 0 -5371.56
0 0 38087 0 0 -38087 0 0 8474.95 0 0 -8474.95 0 0 5354.9 0 0 -5354.9 0 0 38160.9 0 0 -38160.9 0 0 7373.94 0 0 -7373.94 0 0 5292.22 0 0 -5292.22
0 0 38163.9 0 0 -38163.9 0 0 8388.35 0 0 -8388.35 0 0 5203.83 0 0 -5203.83 0 0 38239.2 0 0 -38239.2 0 0 7294.79 0 0 -7294.79 0 0 5140.36 0 0 -5140.36
0 0 38216.8 0 0 -38216.8 0 0 8664.24 0 0 -8664.24 0 0 4983.65 0 0 -4983.65 0 0 38292.5 0 0 -38292.5 0 0 7590.44 0 0 -7590.44 0 0 4918.05 0 0 -4918.05
0 0 38244.2 0 0 -38244.2 0 0 9290.68 0 0 -9290.68 0 0 4699.35 0 0 -4699.35 0 0 38319.1 0 0 -38319.1 0 0 8248.19 0 0 -8248.19 0 0 4630.2 0 0 -4630.2
0 0 38180 0 0 -38180 0 0 10249.8 0 0 -10249.8 0 0 4358.33 0 0 -4358.33 0 0 38227.5 0 0 -38227.5 0 0 9252.09 0 0 -9252.09 0 0 4283.87 0 0 -4283.87
0 0 37729.2 0 0 -37729.2 0 0 11526.9 0 0 -11526.9 0 0 3970.49 0 0 -3970.49 0 0 37735.9 0 0 -37735.9 0 0 10591.1 0 0 -10591.1 0 0 3889.14 0 0 -3889.14
0 0 36906.5 0 0 -36906.5 0 0 13069.9 0 0 -13069.9 0 0 3548.65 0 0 -3548.65 0 0 36852.2 0 0 -36852.2 0 0 12207.7 0 0 -12207.7 0 0 3458.79 0 0 -3458.79
0 0 35740 0 0 -35740 0 0 14805.2 0 0 -14805.2 0 0 3107.75 0 0 -3107.75 0 0 35613.5 0 0 -35613.5 0 0 14024.6 0 0 -14024.6 0 0 3009.05 0 0 -3009.05
0 0 34304 0 0 -34304 0 0 16645.5 0 0 -16645.5 0 0 2664.91 0 0 -2664.91 0 0 34096.4 0 0 -34096.4 0 0 15952.9 0 0 -15952.9 0 0 2556.5 0 0 -2556.5
0 0 33021.4 0 0 -33021.4 0 0 18130.6 0 0 -18130.6 0 0 2321.1 0 0 -2321.1 0 0 32745.9 0 0 -32745.9 0 0 17508.8 0 0 -17508.8 0 0 2204.87 0 0 -2204.87
0 0 31675.7 0 0 -31675.7 0 0 19573.2 0 0 -19573.2 0 0 1996.36 0 0 -1996.36 0 0 31332 0 0 -31332 0 0 19020.1 0 0 -19020.1 0 0 1872.45 0 0 -1872.45
0 0 30317.5 0 0 -30317.5 0 0 20924.1 0 0 -20924.1 0 0 1699.28 0 0 -1699.28 0 0 29908.1 0 0 -29908.1 0 0 20435.3 0 0 -20435.3 0 0 1568.24 0 0 -1568.24
0 0 28994.6 0 0 -28994.6 0 0 22137 0 0 -22137 0 0 1437.91 0 0 -1437.91 0 0 28523.9 0 0 -28523.9 0 0 21706.3 0 0 -21706.3 0 0 1300.51 0 0 -1300.51
0 0 27749.6 0 0 -27749.6 0 0 23169.7 0 0 -23169.7 0 0 1219.47 0 0 -1219.47 0 0 27224.1 0 0 -27224.1 0 0 22788.8 0 0 -22788.8 0 0 1076.63 0 0 -1076.63
0 0 26618.6 0 0 -26618.6 0 0 23985.8 0 0 -23985.8 0 0 1050.11 0 0 -1050.11 0 0 26046.8 0 0 -26046.8 0 0 23644.8 0 0 -23644.8 0 0 902.887 0 0 -902.887
0 0 25628.1 0 0 -25628.1 0 0 24556.1 0 0 -24556.1 0 0 934.593 0 0 -934.593 0 0 25019.6 0 0 -25019.6 0 0 24243.5 0 0 -24243.5 0 0 784.208 0 0 -784.208
0 0 24790.5 0 0 -24790.5 0 0 24859.3 0 0 -24859.3 0 0 876.169 0 0 -876.169 0 0 24155.8 0 0 -24155.8 0 0 24562.9 0 0 -24562.9 0 0 724.025 0 0 -724.025
0 0 24102.2 0 0 -24102.2 0 0 24883.3 0 0 -24883.3 0 0 876.552 0 0 -876.552 0 0 23452.1 0 0 -23452.1 0 0 24590.6 0 0 -24590.6 0 0 724.125 0 0 -724.125
0 0 23543.9 0 0 -23543.9 0 0 24625.1 0 0 -24625.1 0 0 935.879 0 0 -935.879 0 0 22888.9 0 0 -22888.9 0 0 24323.4 0 0 -24323.4 0 0 784.62 0 0 -784.62
0 0 23083.2 0 0 -23083.2 0 0 24090.7 0 0 -24090.7 0 0 1052.7 0 0 -1052.7 0 0 22433.1 0 0 -22433.1 0 0 23767.6 0 0 -23767.6 0 0 903.979 0 0 -903.979
0 0 22682.2 0 0 -22682.2 0 0 23293.3 0 0 -23293.3 0 0 1224.02 0 0 -1224.02 0 0 22045.6 0 0 -22045.6 0 0 22937.1 0 0 -22937.1 0 0 1079.13 0 0 -1079.13
0 0 22305.9 0 0 -22305.9 0 0 22252.4 0 0 -22252.4 0 0 1445.43 0 0 -1445.43 0 0 21690.3 0 0 -21690.3 0 0 21852.4 0 0 -21852.4 0 0 1305.6 0 0 -1305.6
0 0 21928.1 0 0 -21928.1 0 0 20992.1 0 0 -20992.1 0 0 1711.29 0 0 -1711.29 0 0 21339.8 0 0 -21339.8 0 0 20538.8 0 0 -20538.8 0 0 1577.62 0 0 -1577.62
0 0 21535 0 0 -21535 0 0 19540.6 0 0 -19540.6 0 0 2014.91 0 0 -2014.91 0 0 20978.9 0 0 -20978.9 0 0 19025.4 0 0 -19025.4 0 0 1888.33 0 0 -1888.33
0 0 21122.3 0 0 -21122.3 0 0 17928.7 0 0 -17928.7 0 0 2348.68 0 0 -2348.68 0 0 20602.5 0 0 -20602.5 0 0 17344.8 0 0 -17344.8 0 0 2229.95 0 0 -2229.95
0 0 20688.8 0 0 -20688.8 0 0 16190.8 0 0 -16190.8 0 0 2704.22 0 0 -2704.22 0 0 20208.4 0 0 -20208.4 0 0 15532.5 0 0 -15532.5 0 0 2593.88 0 0 -2593.88
0 0 20229.3 0 0 -20229.3 0 0 14363.8 0 0 -14363.8 0 0 3072.53 0 0 -3072.53 0 0 19790.1 0 0 -19790.1 0 0 13627.5 0 0 -13627.5 0 0 2970.97 0 0 -2970.97
0 0 19732 0 0 -19732 0 0 12487.1 0 0 -12487.1 0 0 3444.27 0 0 -3444.27 0 0 19334.6 0 0 -19334.6 0 0 11670.6 0 0 -11670.6 0 0 3351.65 0 0 -3351.65
0 0 19180.9 0 0 -19180.9 0 0 10600.8 0 0 -10600.8 0 0 3809.93 0 0 -3809.93 0 0 18824.3 0 0 -18824.3 0 0 9703.99 0 0 -9703.99 0 0 3726.22 0 0 -3726.22
0 0 18559.6 0 0 -18559.6 0 0 8744.88 0 0 -8744.88 0 0 4160.11 0 0 -4160.11 0 0 18241.4 0 0 -18241.4 0 0 7769.3 0 0 -7769.3 0 0 4085.09 0 0 -4085.09
0 0 17853.9 0 0 -17853.9 0 0 6957.29 0 0 -6957.29 0 0 4485.75 0 0 -4485.75 0 0 17570.3 0 0 -17570.3 0 0 5906.31 0 0 -5906.31 0 0 4418.99 0 0 -4418.99
0 0 17051.5 0 0 -17051.5 0 0 5273.33 0 0 -5273.33 0 0 4778.32 0 0 -4778.32 0 0 16797.4 0 0 -16797.4 0 0 4151.95 0 0 -4151.95 0 0 4719.22 0 0 -4719.22
0 0 16141.2 0 0 -16141.2 0 0 3724.76 0 0 -3724.76 0 0 5030.04 0 0 -5030.04 0 0 15910.4 0 0 -15910.4 0 0 2539.49 0 0 -2539.49 0 0 4977.84 0 0 -4977.84
0 0 15112.9 0 0 -15112.9 0 0 2339 0 0 -2339 0 0 5234.06 0 0 -5234.06 0 0 14898.3 0 0 -14898.3 0 0 1097.63 0 0 -1097.63 0 0 5187.89 0 0 -5187.89
0 0 13959.1 0 0 -13959.1 0 0 1138.28 0 0 -1138.28 0 0 5384.62 0 0 -5384.62 0 0 13752.4 0 0 -13752.4 0 0 -150.361 0 0 150.361 0 0 5343.48 0 0 -5343.48
0 0 12676.2 0 0 -12676.2 0 0 138.92 0 0 -138.92 0 0 5477.16 0 0 -5477.16 0 0 12468.9 0 0 -12468.9 0 0 -1187.37 0 0 1187.37 0 0 5439.99 0 0 -5439.99
0 0 11266 0 0 -11266 0 0 -649.122 0 0 649.122 0 0 5508.46 0 0 -5508.46 0 0 11049.1 0 0 -11049.1 0 0 -2002.96 0 0 2002.96 0 0 5474.15 0 0 -5474.15
0 0 9735.3 0 0 -9735.3 0 0 -1222.45 0 0 1222.45 0 0 5476.64 0 0 -5476.64 0 0 9499.98 0 0 -9499.98 0 0 -2593.55 0 0 2593.55 0 0 5444.05 0 0 -5444.05
0 0 8095.97 0 0 -8095.97 0 0 -1584.22 0 0 1584.22 0 0 5381.23 0 0 -5381.23 0 0 7833.65 0 0 -7833.65 0 0 -2962.45 0 0 2962.45 0 0 5349.25 0 0 -5349.25
0 0 6364.52 0 0 -6364.52 0 0 -1743.87 0 0 1743.87 0 0 5223.1 0 0 -5223.1 0 0 6067.26 0 0 -6067.26 0 0 -3119.55 0 0 3119.55 0 0 5190.64 0 0 -5190.64
0 0 4561.36 0 0 -4561.36 0 0 -1716.72 0 0 1716.72 0 0 5004.44 0 0 -5004.44 0 0 4222.09 0 0 -4222.09 0 0 -3080.87 0 0 3080.87 0 0 4970.49 0 0 -4970.49
0 0 2710.68 0 0 -2710.68 0 0 -1523.37 0 0 1523.37 0 0 4728.64 0 0 -4728.64 0 0 2323.43 0 0 -2323.43 0 0 -2868.03 0 0 2868.03 0 0 4692.29 0 0 -4692.29
0 0 839.591 0 0 -839.591 0 0 -1189.65 0 0 1189.65 0 0 4400.23 0 0 -4400.23 0 0 400.344 0 0 -400.344 0 0 -2507.45 0 0 2507.45 0 0 4360.65 0 0 -4360.65
0 0 -484.971 0 0 484.971 0 0 -794.939 0 0 794.939 0 0 4027.7 0 0 -4027.7 0 0 -760.748 0 0 760.748 0 0 -2122.61 0 0 2122.61 0 0 3987.73 0 0 -3987.73
0 0 -1519.56 0 0 1519.56 0 0 -327.367 0 0 327.367 0 0 3614.17 0 0 -3614.17 0 0 -1817.49 0 0 1817.49 0 0 -1631.27 0 0 1631.27 0 0 3563.24 0 0 -3563.24
0 0 -2527.79 0 0 2527.79 0 0 201.587 0 0 -201.587 0 0 3160.42 0 0 -3160.42 0 0 -2844.39 0 0 2844.39 0 0 -1095.32 0 0 1095.32 0 0 3113.41 0 0 -3113.41
0 0 -3497.25 0 0 3497.25 0 0 766.497 0 0 -766.497 0 0 2681.24 0 0 -2681.24 0 0 -3831.75 0 0 3831.75 0 0 -494.366 0 0 494.366 0 0 2627.06 0 0 -2627.06
0 0 -4423.94 0 0 4423.94 0 0 1353.94 0 0 -1353.94 0 0 2179.03 0 0 -2179.03 0 0 -4775.94 0 0 4775.94 0 0 114.96 0 0 -114.96 0 0 2121.97 0 0 -2121.97
0 0 -5311.87 0 0 5311.87 0 0 1929.91 0 0 -1929.91 0 0 1662.14 0 0 -1662.14 0 0 -5681.4 0 0 5681.4 0 0 715.33 0 0 -715.33 0 0 1599.43 0 0 -1599.43
0 0 -6168.98 0 0 6168.98 0 0 2470.77 0 0 -2470.77 0 0 1137.02 0 0 -1137.02 0 0 -6555.05 0 0 6555.05 0 0 1281.86 0 0 -1281.86 0 0 1070.18 0 0 -1070.18
0 0 -7004.19 0 0 7004.19 0 0 2957.32 0 0 -2957.32 0 0 611.207 0 0 -611.207 0 0 -7406.54 0 0 7406.54 0 0 1792.67 0 0 -1792.67 0 0 540.041 0 0 -540.041
0 0 -7827.81 0 0 7827.81 0 0 3369.25 0 0 -3369.25 0 0 91.5464 0 0 -91.5464 0 0 -8245.96 0 0 8245.96 0 0 2223.78 0 0 -2223.78 0 0 16.0038 0 0 -16.0038
0 0 -8649.51 0 0 8649.51 0 0 3686.93 0 0 -3686.93 0 0 -425.986 0 0 425.986 0 0 -9082.25 0 0 9082.25 0 0 2555.42 0 0 -2555.42 0 0 -502.594 0 0 502.594
0 0 -9475.25 0 0 9475.25 0 0 3890.72 0 0 -3890.72 0 0 -921.904 0 0 921.904 0 0 -9921.56 0 0 9921.56 0 0 2768.62 0 0 -2768.62 0 0 -1004.51 0 0 1004.51
0 0 -10307 0 0 10307 0 0 3966.1 0 0 -3966.1 0 0 -1393.81 0 0 1393.81 0 0 -10766.1 0 0 10766.1 0 0 2842.45 0 0 -2842.45 0 0 -1481.02 0 0 1481.02
0 0 -11143 0 0 11143 0 0 3899.77 0 0 -3899.77 0 0 -1836.65 0 0 1836.65 0 0 -11613.6 0 0 11613.6 0 0 2769.83 0 0 -2769.83 0 0 -1925.05 0 0 1925.05
0 0 -11978.1 0 0 11978.1 0 0 3675.7 0 0 -3675.7 0 0 -2246.33 0 0 2246.33 0 0 -12459.2 0 0 12459.2 0 0 2535.96 0 0 -2535.96 0 0 -2335.19 0 0 2335.19
0 0 -12806.9 0 0 12806.9 0 0 3295.46 0 0 -3295.46 0 0 -2619.26 0 0 2619.26 0 0 -13297.1 0 0 13297.1 0 0 2135.78 0 0 -2135.78 0 0 -2707.92 0 0 2707.92
0 0 -13624.2 0 0 13624.2 0 0 2754.93 0 0 -2754.93 0 0 -2952.3 0 0 2952.3 0 0 -14122.1 0 0 14122.1 0 0 1567.46 0 0 -1567.46 0 0 -3040.74 0 0 3040.74
0 0 -14427.3 0 0 14427.3 0 0 2055.47 0 0 -2055.47 0 0 -3244.34 0 0 3244.34 0 0 -14931.4 0 0 14931.4 0 0 833.148 0 0 -833.148 0 0 -3331.71 0 0 3331.71
0 0 -15216.2 0 0 15216.2 0 0 1202.84 0 0 -1202.84 0 0 -3494.78 0 0 3494.78 0 0 -15725.1 0 0 15725.1 0 0 -61.3778 0 0 61.3778 0 0 -3580.08 0 0 3580.08
0 0 -15993.2 0 0 15993.2 0 0 207.063 0 0 -207.063 0 0 -3703.86 0 0 3703.86 0 0 -16505.6 0 0 16505.6 0 0 -1106.64 0 0 1106.64 0 0 -3786.09 0 0 3786.09
0 0 -16761.1 0 0 16761.1 0 0 -918.82 0 0 918.82 0 0 -3872.68 0 0 3872.68 0 0 -17275.8 0 0 17275.8 0 0 -2289.23 0 0 2289.23 0 0 -3951.06 0 0 3951.06
0 0 -17521.3 0 0 17521.3 0 0 -2159.16 0 0 2159.16 0 0 -4003.21 0 0 4003.21 0 0 -18037.2 0 0 18037.2 0 0 -3592.31 0 0 3592.31 0 0 -4077.07 0 0 4077.07
0 0 -18272.3 0 0 18272.3 0 0 -3495.72 0 0 3495.72 0 0 -4098.15 0 0 4098.15 0 0 -18788.5 0 0 18788.5 0 0 -4996.42 0 0 4996.42 0 0 -4166.94 0 0 4166.94
0 0 -19009.6 0 0 19009.6 0 0 -4907.96 0 0 4907.96 0 0 -4160.78 0 0 4160.78 0 0 -19525.4 0 0 19525.4 0 0 -6480.2 0 0 6480.2 0 0 -4224.04 0 0 4224.04
0 0 -19726.7 0 0 19726.7 0 0 -6373.65 0 0 6373.65 0 0 -4194.94 0 0 4194.94 0 0 -20241.4 0 0 20241.4 0 0 -8020.53 0 0 8020.53 0 0 -4252.27 0 0 4252.27
0 0 -20416.1 0 0 20416.1 0 0 -7869.26 0 0 7869.26 0 0 -4204.95 0 0 4204.95 0 0 -20929.2 0 0 20929.2 0 0 -9592.69 0 0 9592.69 0 0 -4256.04 0 0 4256.04
0 0 -21070.7 0 0 21070.7 0 0 -9370.34 0 0 9370.34 0 0 -4195.42 0 0 4195.42 0 0 -21581.7 0 0 21581.7 0 0 -11170.8 0 0 11170.8 0 0 -4240.11 0 0 4240.11
0 0 -21683.2 0 0 21683.2 0 0 -10851.9 0 0 10851.9 0 0 -4171.14 0 0 4171.14 0 0 -22191.8 0 0 22191.8 0 0 -12728.4 0 0 12728.4 0 0 -4209.42 0 0 4209.42
0 0 -22247.2 0 0 22247.2 0 0 -12288.9 0 0 12288.9 0 0 -4136.95 0 0 4136.95 0 0 -22753.1 0 0 22753.1 0 0 -14239.1 0 0 14239.1 0 0 -4168.99 0 0 4168.99
0 0 -22758 0 0 22758 0 0 -13656.5 0 0 13656.5 0 0 -4097.67 0 0 4097.67 0 0 -23261 0 0 23261 0 0 -15676.9 0 0 15676.9 0 0 -4123.77 0 0 4123.77
0 0 -23213.4 0 0 23213.4 0 0 -14930.6 0 0 14930.6 0 0 -4057.96 0 0 4057.96 0 0 -23713.5 0 0 23713.5 0 0 -17016.5 0 0 17016.5 0 0 -4078.5 0 0 4078.5
0 0 -23613.8 0 0 23613.8 0 0 -16088.6 0 0 16088.6 0 0 -4022.21 0 0 4022.21 0 0 -24111.2 0 0 24111.2 0 0 -18234.1 0 0 18234.1 0 0 -4037.66 0 0 4037.66
0 0 -23962.8 0 0 23962.8 0 0 -17109.8 0 0 17109.8 0 0 -3994.35 0 0 3994.35 0 0 -24457.7 0 0 24457.7 0 0 -19307.7 0 0 19307.7 0 0 -4005.33 0 0 4005.33
0 0 -24266.9 0 0 24266.9 0 0 -17975.3 0 0 17975.3 0 0 -3977.79 0 0 3977.79 0 0 -24759.9 0 0 24759.9 0 0 -20217.8 0 0 20217.8 0 0 -3985.02 0 0 3985.02
0 0 -24536.1 0 0 24536.1 0 0 -18669.2 0 0 18669.2 0 0 -3975.33 0 0 3975.33 0 0 -25028 0 0 25028 0 0 -20947.7 0 0 20947.7 0 0 -3979.64 0 0 3979.64
0 0 -24783 0 0 24783 0 0 -19178.9 0 0 19178.9 0 0 -3989.11 0 0 3989.11 0 0 -25274.8 0 0 25274.8 0 0 -21484.2 0 0 21484.2 0 0 -3991.35 0 0 3991.35
0 0 -25021.7 0 0 25021.7 0 0 -19495.5 0 0 19495.5 0 0 -4020.49 0 0 4020.49 0 0 -25514.6 0 0 25514.6 0 0 -21818 0 0 21818 0 0 -4021.54 0 0 4021.54
0 0 -25265.5 0 0 25265.5 0 0 -19614 0 0 19614 0 0 -4070 0 0 4070 0 0 -25761.1 0 0 25761.1 0 0 -21944.3 0 0 21944.3 0 0 -4070.76 0 0 4070.76
0 0 -25526 0 0 25526 0 0 -19534.5 0 0 19534.5 0 0 -4137.3 0 0 4137.3 0 0 -26025.9 0 0 26025.9 0 0 -21863 0 0 21863 0 0 -4138.69 0 0 4138.69
0 0 -25813.1 0 0 25813.1 0 0 -19261.1 0 0 19261.1 0 0 -4221.24 0 0 4221.24 0 0 -26319.4 0 0 26319.4 0 0 -21578.9 0 0 21578.9 0 0 -4224.13 0 0 4224.13
0 0 -26135.4 0 0 26135.4 0 0 -18801.9 0 0 18801.9 0 0 -4319.85 0 0 4319.85 0 0 -26651 0 0 26651 0 0 -21101.1 0 0 21101.1 0 0 -4325.07 0 0 4325.07
0 0 -26502.4 0 0 26502.4 0 0 -18170.2 0 0 18170.2 0 0 -4430.38 0 0 4430.38 0 0 -27030.1 0 0 27030.1 0 0 -20443.9 0 0 20443.9 0 0 -4438.66 0 0 4438.66
0 0 -26921.8 0 0 26921.8 0 0 -17383.9 0 0 17383.9 0 0 -4549.33 0 0 4549.33 0 0 -27464.1 0 0 27464.1 0 0 -19625.7 0 0 19625.7 0 0 -4561.32 0 0 4561.32
0 0 -27398.2 0 0 27398.2 0 0 -16464.9 0 0 16464.9 0 0 -4672.58 0 0 4672.58 0 0 -27957.5 0 0 27957.5 0 0 -18669.5 0 0 18669.5 0 0 -4688.81 0 0 4688.81
0 0 -27932.3 0 0 27932.3 0 0 -15438.5 0 0 15438.5 0 0 -4795.5 0 0 4795.5 0 0 -28510.6 0 0 28510.6 0 0 -17601.7 0 0 17601.7 0 0 -4816.4 0 0 4816.4
0 0 -28519.5 0 0 28519.5 0 0 -14333.1 0 0 14333.1 0 0 -4913.09 0 0 4913.09 0 0 -29118.2 0 0 29118.2 0 0 -16452.3 0 0 16452.3 0 0 -4938.92 0 0 4938.92
0 0 -29150.2 0 0 29150.2 0 0 -13179.9 0 0 13179.9 0 0 -5020.09 0 0 5020.09 0 0 -29770.4 0 0 29770.4 0 0 -15253.5 0 0 15253.5 0 0 -5050.96 0 0 5050.96
0 0 -29811.1 0 0 29811.1 0 0 -12011.4 0 0 12011.4 0 0 -5111.19 0 0 5111.19 0 0 -30453.2 0 0 30453.2 0 0 -14039.2 0 0 14039.2 0 0 -5147.07 0 0 5147.07
0 0 -30487.5 0 0 30487.5 0 0 -10860.5 0 0 10860.5 0 0 -5181.17 0 0 5181.17 0 0 -31151.3 0 0 31151.3 0 0 -12843.8 0 0 12843.8 0 0 -5221.86 0 0 5221.86
0 0 -31165 0 0 31165 0 0 -9759.56 0 0 9759.56 0 0 -5225.1 0 0 5225.1 0 0 -31849.9 0 0 31849.9 0 0 -11700.9 0 0 11700.9 0 0 -5270.24 0 0 5270.24
0 0 -31830.3 0 0 31830.3 0 0 -8739.39 0 0 8739.39 0 0 -5238.49 0 0 5238.49 0 0 -32534.9 0 0 32534.9 0 0 -10642.6 0 0 10642.6 0 0 -5287.58 0 0 5287.58
0 0 -32470.7 0 0 32470.7 0 0 -7828.5 0 0 7828.5 0 0 -5217.43 0 0 5217.43 0 0 -33193.2 0 0 33193.2 0 0 -9698.53 0 0 9698.53 0 0 -5269.84 0 0 5269.84
0 0 -33074.5 0 0 33074.5 0 0 -7052.33 0 0 7052.33 0 0 -5158.77 0 0 5158.77 0 0 -33812.6 0 0 33812.6 0 0 -8895.21 0 0 8895.21 0 0 -5213.73 0 0 5213.73
0 0 -33630.7 0 0 33630.7 0 0 -6432.65 0 0 6432.65 0 0 -5060.17 0 0 5060.17 0 0 -34381.6 0 0 34381.6 0 0 -8255.22 0 0 8255.22 0 0 -5116.85 0 0 5116.85
0 0 -34129.9 0 0 34129.9 0 0 -5986.85 0 0 5986.85 0 0 -4920.29 0 0 4920.29 0 0 -34890.8 0 0 34890.8 0 0 -7796.64 0 0 7796.64 0 0 -4977.75 0 0 4977.75
0 0 -34565.8 0 0 34565.8 0 0 -5727.43 0 0 5727.43 0 0 -4738.79 0 0 4738.79 0 0 -35333.4 0 0 35333.4 0 0 -7532.41 0 0 7532.41 0 0 -4796.05 0 0 4796.05
0 0 -34936.4 0 0 34936.4 0 0 -5661.51 0 0 5661.51 0 0 -4516.39 0 0 4516.39 0 0 -35707.4 0 0 35707.4 0 0 -7469.92 0 0 7469.92 0 0 -4572.48 0 0 4572.48
0 0 -35244.8 0 0 35244.8 0 0 -5790.69 0 0 5790.69 0 0 -4254.94 0 0 4254.94 0 0 -36015.9 0 0 36015.9 0 0 -7610.83 0 0 7610.83 0 0 -4308.86 0 0 4308.86
0 0 -35497 0 0 35497 0 0 -6110.38 0 0 6110.38 0 0 -3957.47 0 0 3957.47 0 0 -36151.7 0 0 36151.7 0 0 -7965.72 0 0 7965.72 0 0 -4007.1 0 0 4007.1
0 0 -35695.7 0 0 35695.7 0 0 -6611.16 0 0 6611.16 0 0 -3627.49 0 0 3627.49 0 0 -36179 0 0 36179 0 0 -8517.17 0 0 8517.17 0 0 -3672.52 0 0 3672.52
0 0 -35861.1 0 0 35861.1 0 0 -7277.4 0 0 7277.4 0 0 -3270.47 0 0 3270.47 0 0 -36200.5 0 0 36200.5 0 0 -9239.64 0 0 9239.64 0 0 -3310.58 0 0 3310.58
0 0 -35995.2 0 0 35995.2 0 0 -8097.14 0 0 8097.14 0 0 -2891.82 0 0 2891.82 0 0 -36217.5 0 0 36217.5 0 0 -10114.8 0 0 10114.8 0 0 -2925.38 0 0 2925.38
0 0 -36098 0 0 36098 0 0 -9046.27 0 0 9046.27 0 0 -2497.81 0 0 2497.81 0 0 -36230 0 0 36230 0 0 -11121 0 0 11121 0 0 -2525.45 0 0 2525.45
0 0 -36141 0 0 36141 0 0 -10103.3 0 0 10103.3 0 0 -2095.66 0 0 2095.66 0 0 -36237.5 0 0 36237.5 0 0 -12233.4 0 0 12233.4 0 0 -2116.22 0 0 2116.22
0 0 -36145 0 0 36145 0 0 -11241.9 0 0 11241.9 0 0 -1692.76 0 0 1692.76 0 0 -36235.7 0 0 36235.7 0 0 -13424.4 0 0 13424.4 0 0 -1706.65 0 0 1706.65
0 0 -36104.7 0 0 36104.7 0 0 -12434.4 0 0 12434.4 0 0 -1296.47 0 0 1296.47 0 0 -36161.7 0 0 36161.7 0 0 -14674.9 0 0 14674.9 0 0 -1302.95 0 0 1302.95
0 0 -35956 0 0 35956 0 0 -13648.3 0 0 13648.3 0 0 -914.525 0 0 914.525 0 0 -35989.8 0 0 35989.8 0 0 -15951.4 0 0 15951.4 0 0 -914.451 0 0 914.451
0 0 -35706.5 0 0 35706.5 0 0 -14858.7 0 0 14858.7 0 0 -554.944 0 0 554.944 0 0 -35716.6 0 0 35716.6 0 0 -17228.1 0 0 17228.1 0 0 -547.506 0 0 547.506
0 0 -35348.5 0 0 35348.5 0 0 -16041.2 0 0 16041.2 0 0 -224.706 0 0 224.706 0 0 -35328.6 0 0 35328.6 0 0 -18471.3 0 0 18471.3 0 0 -210.893 0 0 210.893
0 0 -34870.4 0 0 34870.4 0 0 -17164.1 0 0 17164.1 0 0 67.6628 0 0 -67.6628 0 0 -34816.6 0 0 34816.6 0 0 -19650.9 0 0 19650.9 0 0 84.8568 0 0 -84.8568
0 0 -34260.8 0 0 34260.8 0 0 -18196.2 0 0 18196.2 0 0 312.655 0 0 -312.655 0 0 -34171.3 0 0 34171.3 0 0 -20736.1 0 0 20736.1 0 0 337.747 0 0 -337.747
0 0 -33511.7 0 0 33511.7 0 0 -19111.2 0 0 19111.2 0 0 510.597 0 0 -510.597 0 0 -33383.6 0 0 33383.6 0 0 -21698.3 0 0 21698.3 0 0 540.868 0 0 -540.868
0 0 -32622.4 0 0 32622.4 0 0 -19883.5 0 0 19883.5 0 0 655.047 0 0 -655.047 0 0 -32452.5 0 0 32452.5 0 0 -22509.4 0 0 22509.4 0 0 689.324 0 0 -689.324
0 0 -31601.1 0 0 31601.1 0 0 -20485.7 0 0 20485.7 0 0 741.348 0 0 -741.348 0 0 -31389.6 0 0 31389.6 0 0 -23141.7 0 0 23141.7 0 0 778.584 0 0 -778.584
0 0 -30470.5 0 0 30470.5 0 0 -20893 0 0 20893 0 0 766.232 0 0 -766.232 0 0 -30220.2 0 0 30220.2 0 0 -23570.6 0 0 23570.6 0 0 805.524 0 0 -805.524
0 0 -29261.4 0 0 29261.4 0 0 -21085.6 0 0 21085.6 0 0 727.816 0 0 -727.816 0 0 -28975.6 0 0 28975.6 0 0 -23774.7 0 0 23774.7 0 0 767.99 0 0 -767.99
0 0 -28006 0 0 28006 0 0 -21048.1 0 0 21048.1 0 0 625.394 0 0 -625.394 0 0 -27688.8 0 0 27688.8 0 0 -23737.5 0 0 23737.5 0 0 665.117 0 0 -665.117
0 0 -26735.8 0 0 26735.8 0 0 -20769.4 0 0 20769.4 0 0 459.458 0 0 -459.458 0 0 -26392.8 0 0 26392.8 0 0 -23447.7 0 0 23447.7 0 0 497.375 0 0 -497.375
0 0 -25480 0 0 25480 0 0 -20244.7 0 0 20244.7 0 0 231.82 0 0 -231.82 0 0 -25118 0 0 25118 0 0 -22900.1 0 0 22900.1 0 0 266.702 0 0 -266.702
0 0 -24266.3 0 0 24266.3 0 0 -19475.2 0 0 19475.2 0 0 -55.035 0 0 55.035 0 0 -23892.5 0 0 23892.5 0 0 -22096 0 0 22096 0 0 -25.6991 0 0 25.6991
0 0 -23120.7 0 0 23120.7 0 0 -18467.9 0 0 18467.9 0 0 -401.845 0 0 401.845 0 0 -22742.7 0 0 22742.7 0 0 -21042.6 0 0 21042.6 0 0 -376.76 0 0 376.76
0 0 -22067.7 0 0 22067.7 0 0 -17237 0 0 17237 0 0 -795.287 0 0 795.287 0 0 -21693.6 0 0 21693.6 0 0 -19755 0 0 19755 0 0 -777.37 0 0 777.37
0 0 -21129.8 0 0 21129.8 0 0 -15802.4 0 0 15802.4 0 0 -1229.55 0 0 1229.55 0 0 -20767.8 0 0 20767.8 0 0 -18254 0 0 18254 0 0 -1219.12 0 0 1219.12
0 0 -20323.8 0 0 20323.8 0 0 -14190.2 0 0 14190.2 0 0 -1696.34 0 0 1696.34 0 0 -19981.6 0 0 19981.6 0 0 -16566.7 0 0 16566.7 0 0 -1694.48 0 0 1694.48
0 0 -19655.4 0 0 19655.4 0 0 -12432.2 0 0 12432.2 0 0 -2186.16 0 0 2186.16 0 0 -19340.2 0 0 19340.2 0 0 -14726.7 0 0 14726.7 0 0 -2193.8 0 0 2193.8
0 0 -19117.7 0 0 19117.7 0 0 -10565.8 0 0 10565.8 0 0 -2688.59 0 0 2688.59 0 0 -18835.5 0 0 18835.5 0 0 -12773.2 0 0 12773.2 0 0 -2706.43 0 0 2706.43
0 0 -18694.2 0 0 18694.2 0 0 -8632.83 0 0 8632.83 0 0 -3192.69 0 0 3192.69 0 0 -18449.7 0 0 18449.7 0 0 -10750 0 0 10750 0 0 -3221.14 0 0 3221.14
0 0 -18361.5 0 0 18361.5 0 0 -6677.78 0 0 6677.78 0 0 -3687.38 0 0 3687.38 0 0 -18157.5 0 0 18157.5 0 0 -8703.72 0 0 8703.72 0 0 -3726.53 0 0 3726.53
0 0 -18089.5 0 0 18089.5 0 0 -4746.66 0 0 4746.66 0 0 -4161.64 0 0 4161.64 0 0 -17926.9 0 0 17926.9 0 0 -6682.69 0 0 6682.69 0 0 -4211.26 0 0 4211.26
0 0 -17843.2 0 0 17843.2 0 0 -2885.47 0 0 2885.47 0 0 -4604.65 0 0 4604.65 0 0 -17720.9 0 0 17720.9 0 0 -4735.25 0 0 4735.25 0 0 -4664.27 0 0 4664.27
0 0 -17585.9 0 0 17585.9 0 0 -1138.58 0 0 1138.58 0 0 -5006.12 0 0 5006.12 0 0 -17500.8 0 0 17500.8 0 0 -2907.94 0 0 2907.94 0 0 -5075.06 0 0 5075.06
0 0 -17283 0 0 17283 0 0 452.861 0 0 -452.861 0 0 -5356.52 0 0 5356.52 0 0 -17230 0 0 17230 0 0 -1243.8 0 0 1243.8 0 0 -5433.91 0 0 5433.91
0 0 -16904.8 0 0 16904.8 0 0 1852.56 0 0 -1852.56 0 0 -5647.49 0 0 5647.49 0 0 -16877.2 0 0 16877.2 0 0 219.186 0 0 -219.186 0 0 -5732.26 0 0 5732.26
0 0 -16427.1 0 0 16427.1 0 0 3030.18 0 0 -3030.18 0 0 -5871.97 0 0 5871.97 0 0 -16417 0 0 16417 0 0 1449.2 0 0 -1449.2 0 0 -5962.82 0 0 5962.82
0 0 -15830.6 0 0 15830.6 0 0 3962.09 0 0 -3962.09 0 0 -6024.4 0 0 6024.4 0 0 -15828.6 0 0 15828.6 0 0 2421.41 0 0 -2421.41 0 0 -6119.84 0 0 6119.84
0 0 -15098.7 0 0 15098.7 0 0 4631.93 0 0 -4631.93 0 0 -6100.8 0 0 6100.8 0 0 -15095 0 0 15095 0 0 3118.63 0 0 -3118.63 0 0 -6199.23 0 0 6199.23
0 0 -14219.2 0 0 14219.2 0 0 5031.07 0 0 -5031.07 0 0 -6098.85 0 0 6098.85 0 0 -14203.2 0 0 14203.2 0 0 3531.87 0 0 -3531.87 0 0 -6198.65 0 0 6198.65
0 0 -13184.8 0 0 13184.8 0 0 5159.1 0 0 -5159.1 0 0 -6018 0 0 6018 0 0 -13145.8 0 0 13145.8 0 0 3660.72 0 0 -3660.72 0 0 -6117.56 0 0 6117.56
0 0 -11994.4 0 0 11994.4 0 0 5023.93 0 0 -5023.93 0 0 -5859.44 0 0 5859.44 0 0 -11921.9 0 0 11921.9 0 0 3513.43 0 0 -3513.43 0 0 -5957.22 0 0 5957.22
0 0 -10652.8 0 0 10652.8 0 0 4641.56 0 0 -4641.56 0 0 -5626.14 0 0 5626.14 0 0 -10536.9 0 0 10536.9 0 0 3106.72 0 0 -3106.72 0 0 -5720.63 0 0 5720.63
0 0 -9170.7 0 0 9170.7 0 0 4035.56 0 0 -4035.56 0 0 -5322.63 0 0 5322.63 0 0 -9001.96 0 0 9001.96 0 0 2465.26 0 0 -2465.26 0 0 -5412.45 0 0 5412.45
0 0 -7562.94 0 0 7562.94 0 0 3236.34 0 0 -3236.34 0 0 -4954.93 0 0 4954.93 0 0 -7333.32 0 0 7333.32 0 0 1620.87 0 0 -1620.87 0 0 -5038.88 0 0 5038.88
0 0 -5847.33 0 0 5847.33 0 0 2280.09 0 0 -2280.09 0 0 -4530.34 0 0 4530.34 0 0 -5550.05 0 0 5550.05 0 0 611.451 0 0 -611.451 0 0 -4607.44 0 0 4607.44
0 0 -4042.78 0 0 4042.78 0 0 1207.65 0 0 -1207.65 0 0 -4057.24 0 0 4057.24 0 0 -3672.55 0 0 3672.55 0 0 -520.24 0 0 520.24 0 0 -4126.76 0 0 4126.76
0 0 -2167.97 0 0 2167.97 0 0 63.2821 0 0 -63.2821 0 0 -3544.89 0 0 3544.89 0 0 -1721.1 0 0 1721.1 0 0 -1727.9 0 0 1727.9 0 0 -3606.32 0 0 3606.32
0 0 -242.16 0 0 242.16 0 0 -1106.94 0 0 1106.94 0 0 -3003.06 0 0 3003.06 0 0 92.9856 0 0 -92.9856 0 0 -2947.6 0 0 2947.6 0 0 -3057 0 0 3057
0 0 895.847 0 0 -895.847 0 0 -2189.34 0 0 2189.34 0 0 -2443.58 0 0 2443.58 0 0 1219.44 0 0 -1219.44 0 0 -4043.41 0 0 4043.41 0 0 -2492.95 0 0 2492.95
0 0 2048.14 0 0 -2048.14 0 0 -3199.73 0 0 3199.73 0 0 -1876.34 0 0 1876.34 0 0 2373.07 0 0 -2373.07 0 0 -5108.32 0 0 5108.32 0 0 -1914.38 0 0 1914.38
0 0 3207.94 0 0 -3207.94 0 0 -4112.87 0 0 4112.87 0 0 -1306.13 0 0 1306.13 0 0 3537.17 0 0 -3537.17 0 0 -6067.84 0 0 6067.84 0 0 -1341.64 0 0 1341.64
0 0 4363.43 0 0 -4363.43 0 0 -4900.08 0 0 4900.08 0 0 -745.923 0 0 745.923 0 0 4694.68 0 0 -4694.68 0 0 -6887.94 0 0 6887.94 0 0 -771.786 0 0 771.786
0 0 5499.54 0 0 -5499.54 0 0 -5526.11 0 0 5526.11 0 0 -201.535 0 0 201.535 0 0 5833.08 0 0 -5833.08 0 0 -7533.53 0 0 7533.53 0 0 -224.359 0 0 224.359
0 0 6600.32 0 0 -6600.32 0 0 -5954.59 0 0 5954.59 0 0 309.356 0 0 -309.356 0 0 6932.78 0 0 -6932.78 0 0 -7981.22 0 0 7981.22 0 0 292.15 0 0 -292.15
0 0 7647.32 0 0 -7647.32 0 0 -6165.29 0 0 6165.29 0 0 791.114 0 0 -791.114 0 0 7974.71 0 0 -7974.71 0 0 -8204.12 0 0 8204.12 0 0 776.879 0 0 -776.879
0 0 8613.67 0 0 -8613.67 0 0 -6147.3 0 0 6147.3 0 0 1236.07 0 0 -1236.07 0 0 8940.82 0 0 -8940.82 0 0 -8183 0 0 8183 0 0 1223.74 0 0 -1223.74
0 0 9488.64 0 0 -9488.64 0 0 -5886.02 0 0 5886.02 0 0 1640.36 0 0 -1640.36 0 0 9812.09 0 0 -9812.09 0 0 -7905.52 0 0 7905.52 0 0 1628.31 0 0 -1628.31
0 0 10263.1 0 0 -10263.1 0 0 -5371.65 0 0 5371.65 0 0 2000.63 0 0 -2000.63 0 0 10580.5 0 0 -10580.5 0 0 -7366.07 0 0 7366.07 0 0 1987.79 0 0 -1987.79
0 0 10931 0 0 -10931 0 0 -4606.74 0 0 4606.74 0 0 2314.74 0 0 -2314.74 0 0 11239.7 0 0 -11239.7 0 0 -6563.82 0 0 6563.82 0 0 2300.86 0 0 -2300.86
0 0 11490.8 0 0 -11490.8 0 0 -3608.77 0 0 3608.77 0 0 2583.16 0 0 -2583.16 0 0 11788.4 0 0 -11788.4 0 0 -5510.72 0 0 5510.72 0 0 2566.04 0 0 -2566.04
0 0 11943.8 0 0 -11943.8 0 0 -2383.44 0 0 2383.44 0 0 2805.65 0 0 -2805.65 0 0 12229.6 0 0 -12229.6 0 0 -4231.74 0 0 4231.74 0 0 2784.4 0 0 -2784.4
0 0 12294.8 0 0 -12294.8 0 0 -952.753 0 0 952.753 0 0 2984.51 0 0 -2984.51 0 0 12566.5 0 0 -12566.5 0 0 -2736.57 0 0 2736.57 0 0 2958.24 0 0 -2958.24
0 0 12549.1 0 0 -12549.1 0 0 657.129 0 0 -657.129 0 0 3122.99 0 0 -3122.99 0 0 12805.3 0 0 -12805.3 0 0 -1055.29 0 0 1055.29 0 0 3091.33 0 0 -3091.33
0 0 12713.4 0 0 -12713.4 0 0 2415.08 0 0 -2415.08 0 0 3225.72 0 0 -3225.72 0 0 12952.7 0 0 -12952.7 0 0 779.58 0 0 -779.58 0 0 3187.26 0 0 -3187.26
0 0 12795.9 0 0 -12795.9 0 0 4285.6 0 0 -4285.6 0 0 3297.68 0 0 -3297.68 0 0 13017.7 0 0 -13017.7 0 0 2730.38 0 0 -2730.38 0 0 3252.03 0 0 -3252.03
0 0 12801.6 0 0 -12801.6 0 0 6229.47 0 0 -6229.47 0 0 3344.5 0 0 -3344.5 0 0 12997.5 0 0 -12997.5 0 0 4758.43 0 0 -4758.43 0 0 3291.07 0 0 -3291.07
0 0 12716.8 0 0 -12716.8 0 0 8207.6 0 0 -8207.6 0 0 3372.14 0 0 -3372.14 0 0 12877.6 0 0 -12877.6 0 0 6823.31 0 0 -6823.31 0 0 3310.82 0 0 -3310.82
0 0 12568.2 0 0 -12568.2 0 0 10175.2 0 0 -10175.2 0 0 3387.22 0 0 -3387.22 0 0 12692.1 0 0 -12692.1 0 0 8877.69 0 0 -8877.69 0 0 3318.16 0 0 -3318.16
0 0 12394.6 0 0 -12394.6 0 0 12086.9 0 0 -12086.9 0 0 3396.63 0 0 -3396.63 0 0 12482.2 0 0 -12482.2 0 0 10873 0 0 -10873 0 0 3319.79 0 0 -3319.79
0 0 12242.4 0 0 -12242.4 0 0 13896.9 0 0 -13896.9 0 0 3406.87 0 0 -3406.87 0 0 12295.8 0 0 -12295.8 0 0 12761.4 0 0 -12761.4 0 0 3322.7 0 0 -3322.7
0 0 12162.2 0 0 -12162.2 0 0 15561.4 0 0 -15561.4 0 0 3424.03 0 0 -3424.03 0 0 12185.9 0 0 -12185.9 0 0 14497.8 0 0 -14497.8 0 0 3333.12 0 0 -3333.12
0 0 12203.4 0 0 -12203.4 0 0 17041.1 0 0 -17041.1 0 0 3453.59 0 0 -3453.59 0 0 12203.9 0 0 -12203.9 0 0 16040.9 0 0 -16040.9 0 0 3356.85 0 0 -3356.85
0 0 12408.6 0 0 -12408.6 0 0 18302.5 0 0 -18302.5 0 0 3500.26 0 0 -3500.26 0 0 12394.1 0 0 -12394.1 0 0 17355.7 0 0 -17355.7 0 0 3398.66 0 0 -3398.66
0 0 12810.3 0 0 -12810.3 0 0 19319.4 0 0 -19319.4 0 0 3567.66 0 0 -3567.66 0 0 12790.7 0 0 -12790.7 0 0 18414.6 0 0 -18414.6 0 0 3462.31 0 0 -3462.31
0 0 13144.2 0 0 -13144.2 0 0 20100.4 0 0 -20100.4 0 0 3657.73 0 0 -3657.73 0 0 13202 0 0 -13202 0 0 19220.8 0 0 -19220.8 0 0 3549.35 0 0 -3549.35
0 0 13628.2 0 0 -13628.2 0 0 20620.4 0 0 -20620.4 0 0 3771.05 0 0 -3771.05 0 0 13683.3 0 0 -13683.3 0 0 19758.9 0 0 -19758.9 0 0 3661.06 0 0 -3661.06
0 0 14250.6 0 0 -14250.6 0 0 20864.7 0 0 -20864.7 0 0 3909.38 0 0 -3909.38 0 0 14295.5 0 0 -14295.5 0 0 20019.5 0 0 -20019.5 0 0 3799.77 0 0 -3799.77
0 0 15002.2 0 0 -15002.2 0 0 20843.7 0 0 -20843.7 0 0 4071.17 0 0 -4071.17 0 0 15042.2 0 0 -15042.2 0 0 20002.3 0 0 -20002.3 0 0 3961.47 0 0 -3961.47
0 0 15872.7 0 0 -15872.7 0 0 20567.8 0 0 -20567.8 0 0 4253.82 0 0 -4253.82 0 0 15908.3 0 0 -15908.3 0 0 19719.8 0 0 -19719.8 0 0 4146.38 0 0 -4146.38
0 0 16845.2 0 0 -16845.2 0 0 20053.7 0 0 -20053.7 0 0 4454.55 0 0 -4454.55 0 0 16878.2 0 0 -16878.2 0 0 19189.9 0 0 -19189.9 0 0 4349.28 0 0 -4349.28
0 0 17901.5 0 0 -17901.5 0 0 19325.6 0 0 -19325.6 0 0 4668.73 0 0 -4668.73 0 0 17934 0 0 -17934 0 0 18437.7 0 0 -18437.7 0 0 4567.18 0 0 -4567.18
0 0 19024.5 0 0 -19024.5 0 0 18413.3 0 0 -18413.3 0 0 4891.21 0 0 -4891.21 0 0 19057.8 0 0 -19057.8 0 0 17494 0 0 -17494 0 0 4793.82 0 0 -4793.82
0 0 20197.6 0 0 -20197.6 0 0 17349.4 0 0 -17349.4 0 0 5115.89 0 0 -5115.89 0 0 20233.6 0 0 -20233.6 0 0 16392.8 0 0 -16392.8 0 0 5023.47 0 0 -5023.47
0 0 21404.9 0 0 -21404.9 0 0 16170 0 0 -16170 0 0 5336.4 0 0 -5336.4 0 0 21445.4 0 0 -21445.4 0 0 15172.8 0 0 -15172.8 0 0 5249.33 0 0 -5249.33
0 0 22629.6 0 0 -22629.6 0 0 14914.8 0 0 -14914.8 0 0 5546.06 0 0 -5546.06 0 0 22675.9 0 0 -22675.9 0 0 13874.5 0 0 -13874.5 0 0 5464.52 0 0 -5464.52
0 0 23853.8 0 0 -23853.8 0 0 13625.6 0 0 -13625.6 0 0 5737.97 0 0 -5737.97 0 0 23906.5 0 0 -23906.5 0 0 12540.8 0 0 -12540.8 0 0 5661.93 0 0 -5661.93
0 0 25059.7 0 0 -25059.7 0 0 12343.4 0 0 -12343.4 0 0 5905.24 0 0 -5905.24 0 0 25119.2 0 0 -25119.2 0 0 11214.6 0 0 -11214.6 0 0 5834.56 0 0 -5834.56
0 0 26229.7 0 0 -26229.7 0 0 11108.6 0 0 -11108.6 0 0 6041.28 0 0 -6041.28 0 0 26295.9 0 0 -26295.9 0 0 9938.2 0 0 -9938.2 0 0 5975.73 0 0 -5975.73
0 0 27346.3 0 0 -27346.3 0 0 9960.36 0 0 -9960.36 0 0 6140.05 0 0 -6140.05 0 0 27418.6 0 0 -27418.6 0 0 8751.99 0 0 -8751.99 0 0 6079.21 0 0 -6079.21
0 0 28393 0 0 -28393 0 0 8934.64 0 0 -8934.64 0 0 6196.31 0 0 -6196.31 0 0 28470.6 0 0 -28470.6 0 0 7693.24 0 0 -7693.24 0 0 6139.51 0 0 -6139.51
0 0 29355.5 0 0 -29355.5 0 0 8063.49 0 0 -8063.49 0 0 6205.63 0 0 -6205.63 0 0 29436.8 0 0 -29436.8 0 0 6795.21 0 0 -6795.21 0 0 6152.03 0 0 -6152.03
0 0 30221.7 0 0 -30221.7 0 0 7374.1 0 0 -7374.1 0 0 6164.56 0 0 -6164.56 0 0 30305 0 0 -30305 0 0 6086.23 0 0 -6086.23 0 0 6113.27 0 0 -6113.27
0 0 30981.2 0 0 -30981.2 0 0 6888.34 0 0 -6888.34 0 0 6070.81 0 0 -6070.81 0 0 31064.7 0 0 -31064.7 0 0 5589 0 0 -5589 0 0 6020.87 0 0 -6020.87
0 0 31624.7 0 0 -31624.7 0 0 6622.22 0 0 -6622.22 0 0 5923.35 0 0 -5923.35 0 0 31706.1 0 0 -31706.1 0 0 5320.11 0 0 -5320.11 0 0 5873.76 0 0 -5873.76
0 0 32143.4 0 0 -32143.4 0 0 6585.47 0 0 -6585.47 0 0 5722.51 0 0 -5722.51 0 0 32220.3 0 0 -32220.3 0 0 5289.59 0 0 -5289.59 0 0 5672.17 0 0 -5672.17
0 0 32530.3 0 0 -32530.3 0 0 6781.24 0 0 -6781.24 0 0 5469.94 0 0 -5469.94 0 0 32600.5 0 0 -32600.5 0 0 5500.62 0 0 -5500.62 0 0 5417.73 0 0 -5417.73
0 0 32782.5 0 0 -32782.5 0 0 7205.74 0 0 -7205.74 0 0 5168.59 0 0 -5168.59 0 0 32843.8 0 0 -32843.8 0 0 5949.21 0 0 -5949.21 0 0 5113.43 0 0 -5113.43
0 0 32903.2 0 0 -32903.2 0 0 7848.24 0 0 -7848.24 0 0 4822.74 0 0 -4822.74 0 0 32953.5 0 0 -32953.5 0 0 6624.15 0 0 -6624.15 0 0 4763.6 0 0 -4763.6
0 0 32875.9 0 0 -32875.9 0 0 8690.62 0 0 -8690.62 0 0 4437.96 0 0 -4437.96 0 0 32909.3 0 0 -32909.3 0 0 7509.56 0 0 -7509.56 0 0 4373.68 0 0 -4373.68
0 0 32659.6 0 0 -32659.6 0 0 9714.87 0 0 -9714.87 0 0 4020.61 0 0 -4020.61 0 0 32667.6 0 0 -32667.6 0 0 8588.31 0 0 -8588.31 0 0 3950.15 0 0 -3950.15
0 0 32285 0 0 -32285 0 0 10893.5 0 0 -10893.5 0 0 3578.11 0 0 -3578.11 0 0 32259.5 0 0 -32259.5 0 0 9827.56 0 0 -9827.56 0 0 3501.11 0 0 -3501.11
0 0 31783 0 0 -31783 0 0 12191.3 0 0 -12191.3 0 0 3119.16 0 0 -3119.16 0 0 31717.5 0 0 -31717.5 0 0 11190.9 0 0 -11190.9 0 0 3034.58 0 0 -3034.58
0 0 31185.9 0 0 -31185.9 0 0 13567.9 0 0 -13567.9 0 0 2652.65 0 0 -2652.65 0 0 31076.6 0 0 -31076.6 0 0 12636.8 0 0 -12636.8 0 0 2560.3 0 0 -2560.3
0 0 30528.5 0 0 -30528.5 0 0 14981.6 0 0 -14981.6 0 0 2188.03 0 0 -2188.03 0 0 30373.3 0 0 -30373.3 0 0 14122.1 0 0 -14122.1 0 0 2087.58 0 0 -2087.58
0 0 29847.8 0 0 -29847.8 0 0 16390.5 0 0 -16390.5 0 0 1734.76 0 0 -1734.76 0 0 29645.9 0 0 -29645.9 0 0 15601.8 0 0 -15601.8 0 0 1626.28 0 0 -1626.28
0 0 29180.4 0 0 -29180.4 0 0 17752 0 0 -17752 0 0 1302.2 0 0 -1302.2 0 0 28932.8 0 0 -28932.8 0 0 17031.2 0 0 -17031.2 0 0 1185.93 0 0 -1185.93
0 0 28560.2 0 0 -28560.2 0 0 19024.9 0 0 -19024.9 0 0 899.253 0 0 -899.253 0 0 28270.2 0 0 -28270.2 0 0 18367.7 0 0 -18367.7 0 0 775.684 0 0 -775.684
0 0 28014.6 0 0 -28014.6 0 0 20172 0 0 -20172 0 0 534.184 0 0 -534.184 0 0 27686.5 0 0 -27686.5 0 0 19572.2 0 0 -19572.2 0 0 404.004 0 0 -404.004
0 0 27559.9 0 0 -27559.9 0 0 21160.9 0 0 -21160.9 0 0 214.386 0 0 -214.386 0 0 27199.3 0 0 -27199.3 0 0 20610.6 0 0 -20610.6 0 0 78.4384 0 0 -78.4384
0 0 27200.8 0 0 -27200.8 0 0 21964.8 0 0 -21964.8 0 0 -55.2475 0 0 55.2475 0 0 26813.7 0 0 -26813.7 0 0 21455.5 0 0 -21455.5 0 0 -197.362 0 0 197.362
0 0 26933.8 0 0 -26933.8 0 0 22563.4 0 0 -22563.4 0 0 -271.003 0 0 271.003 0 0 26526.9 0 0 -26526.9 0 0 22084.1 0 0 -22084.1 0 0 -415.305 0 0 415.305
0 0 26752.3 0 0 -26752.3 0 0 22941.1 0 0 -22941.1 0 0 -424.016 0 0 424.016 0 0 26332.3 0 0 -26332.3 0 0 22481.3 0 0 -22481.3 0 0 -571.324 0 0 571.324
0 0 26648 0 0 -26648 0 0 23089.2 0 0 -23089.2 0 0 -512.842 0 0 512.842 0 0 26221.5 0 0 -26221.5 0 0 22637.7 0 0 -22637.7 0 0 -662.171 0 0 662.171
0 0 26610.2 0 0 -26610.2 0 0 23004.3 0 0 -23004.3 0 0 -536.681 0 0 536.681 0 0 26184.8 0 0 -26184.8 0 0 22550.4 0 0 -22550.4 0 0 -686.037 0 0 686.037
0 0 26628 0 0 -26628 0 0 22689.5 0 0 -22689.5 0 0 -495.833 0 0 495.833 0 0 26211.4 0 0 -26211.4 0 0 22222.7 0 0 -22222.7 0 0 -643.392 0 0 643.392
0 0 26690.3 0 0 -26690.3 0 0 22154.2 0 0 -22154.2 0 0 -391.9 0 0 391.9 0 0 26289.8 0 0 -26289.8 0 0 21664.1 0 0 -21664.1 0 0 -536.425 0 0 536.425
0 0 26788.1 0 0 -26788.1 0 0 21413 0 0 -21413 0 0 -227.875 0 0 227.875 0 0 26410.3 0 0 -26410.3 0 0 20889.9 0 0 -20889.9 0 0 -368.552 0 0 368.552
0 0 26917.3 0 0 -26917.3 0 0 20485.1 0 0 -20485.1 0 0 -8.14322 0 0 8.14322 0 0 26567.9 0 0 -26567.9 0 0 19920.4 0 0 -19920.4 0 0 -144.152 0 0 144.152
0 0 27078 0 0 -27078 0 0 19394.4 0 0 -19394.4 0 0 257.039 0 0 -257.039 0 0 26762.4 0 0 -26762.4 0 0 18780.4 0 0 -18780.4 0 0 126.213 0 0 -126.213
0 0 27271.8 0 0 -27271.8 0 0 18167.4 0 0 -18167.4 0 0 565.6 0 0 -565.6 0 0 26994.5 0 0 -26994.5 0 0 17497.9 0 0 -17497.9 0 0 442.192 0 0 -442.192
0 0 27496.3 0 0 -27496.3 0 0 16835.4 0 0 -16835.4 0 0 909.955 0 0 -909.955 0 0 27260.9 0 0 -27260.9 0 0 16105.1 0 0 -16105.1 0 0 793.811 0 0 -793.811
0 0 27742.8 0 0 -27742.8 0 0 15432.4 0 0 -15432.4 0 0 1282.01 0 0 -1282.01 0 0 27551.8 0 0 -27551.8 0 0 14637.6 0 0 -14637.6 0 0 1173.8 0 0 -1173.8
0 0 27995.2 0 0 -27995.2 0 0 13995.1 0 0 -13995.1 0 0 1673.54 0 0 -1673.54 0 0 27849.8 0 0 -27849.8 0 0 13134.2 0 0 -13134.2 0 0 1573.17 0 0 -1573.17
0 0 28233.5 0 0 -28233.5 0 0 12561.4 0 0 -12561.4 0 0 2075.98 0 0 -2075.98 0 0 28133.4 0 0 -28133.4 0 0 11634.2 0 0 -11634.2 0 0 1983.23 0 0 -1983.23
0 0 28438.6 0 0 -28438.6 0 0 11168.7 0 0 -11168.7 0 0 2480.66 0 0 -2480.66 0 0 28382 0 0 -28382 0 0 10176.8 0 0 -10176.8 0 0 2395.19 0 0 -2395.19
0 0 28595.4 0 0 -28595.4 0 0 9852.61 0 0 -9852.61 0 0 2879 0 0 -2879 0 0 28579.3 0 0 -28579.3 0 0 8799.44 0 0 -8799.44 0 0 2800.47 0 0 -2800.47
0 0 28693.3 0 0 -28693.3 0 0 8646.21 0 0 -8646.21 0 0 3262.8 0 0 -3262.8 0 0 28713.4 0 0 -28713.4 0 0 7536.57 0 0 -7536.57 0 0 3190.82 0 0 -3190.82
0 0 28725.5 0 0 -28725.5 0 0 7579.1 0 0 -7579.1 0 0 3624.56 0 0 -3624.56 0 0 28776.7 0 0 -28776.7 0 0 6419.19 0 0 -6419.19 0 0 3558.55 0 0 -3558.55
0 0 28689.1 0 0 -28689.1 0 0 6676.74 0 0 -6676.74 0 0 3957.57 0 0 -3957.57 0 0 28765.2 0 0 -28765.2 0 0 5473.89 0 0 -5473.89 0 0 3896.69 0 0 -3896.69
0 0 28584.6 0 0 -28584.6 0 0 5959.82 0 0 -5959.82 0 0 4255.96 0 0 -4255.96 0 0 28679 0 0 -28679 0 0 4722.37 0 0 -4722.37 0 0 4199.23 0 0 -4199.23
0 0 28414.5 0 0 -28414.5 0 0 5444 0 0 -5444 0 0 4514.85 0 0 -4514.85 0 0 28520.3 0 0 -28520.3 0 0 4181.04 0 0 -4181.04 0 0 4461.22 0 0 -4461.22
0 0 28180.5 0 0 -28180.5 0 0 5139.85 0 0 -5139.85 0 0 4730.4 0 0 -4730.4 0 0 28290.3 0 0 -28290.3 0 0 3861 0 0 -3861 0 0 4678.83 0 0 -4678.83
0 0 27880.7 0 0 -27880.7 0 0 5052.88 0 0 -5052.88 0 0 4899.94 0 0 -4899.94 0 0 27987 0 0 -27987 0 0 3768.06 0 0 -3768.06 0 0 4849.4 0 0 -4849.4
0 0 27508.3 0 0 -27508.3 0 0 5183.55 0 0 -5183.55 0 0 5022.02 0 0 -5022.02 0 0 27603.3 0 0 -27603.3 0 0 3902.74 0 0 -3902.74 0 0 4971.45 0 0 -4971.45
0 0 27051.4 0 0 -27051.4 0 0 5527.14 0 0 -5527.14 0 0 5096.41 0 0 -5096.41 0 0 27127.4 0 0 -27127.4 0 0 4260.2 0 0 -4260.2 0 0 5044.71 0 0 -5044.71
0 0 26496.4 0 0 -26496.4 0 0 6073.55 0 0 -6073.55 0 0 5124.01 0 0 -5124.01 0 0 26545.7 0 0 -26545.7 0 0 4829.93 0 0 -4829.93 0 0 5070.14 0 0 -5070.14
0 0 25829.5 0 0 -25829.5 0 0 6807.2 0 0 -6807.2 0 0 5106.89 0 0 -5106.89 0 0 25844.5 0 0 -25844.5 0 0 5595.74 0 0 -5595.74 0 0 5049.89 0 0 -5049.89
0 0 25036.7 0 0 -25036.7 0 0 7707.33 0 0 -7707.33 0 0 5048.19 0 0 -5048.19 0 0 25010.1 0 0 -25010.1 0 0 6536.01 0 0 -6536.01 0 0 4987.21 0 0 -4987.21
0 0 24105.1 0 0 -24105.1 0 0 8748.24 0 0 -8748.24 0 0 4952.08 0 0 -4952.08 0 0 24030.1 0 0 -24030.1 0 0 7623.93 0 0 -7623.93 0 0 4886.39 0 0 -4886.39
0 0 23026.6 0 0 -23026.6 0 0 9899.43 0 0 -9899.43 0 0 4823.61 0 0 -4823.61 0 0 22897.1 0 0 -22897.1 0 0 8827.71 0 0 -8827.71 0 0 4752.59 0 0 -4752.59
0 0 21799.9 0 0 -21799.9 0 0 11126.1 0 0 -11126.1 0 0 4668.58 0 0 -4668.58 0 0 21610.6 0 0 -21610.6 0 0 10110.9 0 0 -10110.9 0 0 4591.76 0 0 -4591.76
0 0 20430.9 0 0 -20430.9 0 0 12389.7 0 0 -12389.7 0 0 4493.34 0 0 -4493.34 0 0 20177.9 0 0 -20177.9 0 0 11433.5 0 0 -11433.5 0 0 4410.43 0 0 -4410.43
0 0 18933.2 0 0 -18933.2 0 0 13649.1 0 0 -13649.1 0 0 4304.62 0 0 -4304.62 0 0 18613.9 0 0 -18613.9 0 0 12752.5 0 0 -12752.5 0 0 4215.55 0 0 -4215.55
0 0 17328.6 0 0 -17328.6 0 0 14861.7 0 0 -14861.7 0 0 4109.33 0 0 -4109.33 0 0 16942 0 0 -16942 0 0 14023.1 0 0 -14023.1 0 0 4014.22 0 0 -4014.22
0 0 15646.5 0 0 -15646.5 0 0 15984.1 0 0 -15984.1 0 0 3914.3 0 0 -3914.3 0 0 15193.4 0 0 -15193.4 0 0 15200.1 0 0 -15200.1 0 0 3813.49 0 0 -3813.49
0 0 13921.7 0 0 -13921.7 0 0 16974 0 0 -16974 0 0 3726.12 0 0 -3726.12 0 0 13404.7 0 0 -13404.7 0 0 16239.4 0 0 -16239.4 0 0 3620.12 0 0 -3620.12
0 0 12191.4 0 0 -12191.4 0 0 17791.6 0 0 -17791.6 0 0 3550.81 0 0 -3550.81 0 0 11614.9 0 0 -11614.9 0 0 17099.3 0 0 -17099.3 0 0 3440.35 0 0 -3440.35
0 0 10491.2 0 0 -10491.2 0 0 18401.2 0 0 -18401.2 0 0 3393.68 0 0 -3393.68 0 0 9861.4 0 0 -9861.4 0 0 17742.5 0 0 -17742.5 0 0 3279.65 0 0 -3279.65
0 0 8852.42 0 0 -8852.42 0 0 18772.5 0 0 -18772.5 0 0 3259.09 0 0 -3259.09 0 0 8176.85 0 0 -8176.85 0 0 18137.3 0 0 -18137.3 0 0 3142.55 0 0 -3142.55
0 0 7300.03 0 0 -7300.03 0 0 18881.7 0 0 -18881.7 0 0 3150.33 0 0 -3150.33 0 0 6587.45 0 0 -6587.45 0 0 18258.8 0 0 -18258.8 0 0 3032.44 0 0 -3032.44
0 0 5853.47 0 0 -5853.47 0 0 18712 0 0 -18712 0 0 3069.48 0 0 -3069.48 0 0 5113.45 0 0 -5113.45 0 0 18089.5 0 0 -18089.5 0 0 2951.49 0 0 -2951.49
0 0 4527.29 0 0 -4527.29 0 0 18254.3 0 0 -18254.3 0 0 3017.32 0 0 -3017.32 0 0 3769.97 0 0 -3769.97 0 0 17619.6 0 0 -17619.6 0 0 2900.52 0 0 -2900.52
0 0 3331.78 0 0 -3331.78 0 0 17507.1 0 0 -17507.1 0 0 2993.33 0 0 -2993.33 0 0 2567.55 0 0 -2567.55 0 0 16847.9 0 0 -16847.9 0 0 2879.02 0 0 -2879.02
0 0 2273.14 0 0 -2273.14 0 0 16477 0 0 -16477 0 0 2995.65 0 0 -2995.65 0 0 1512.34 0 0 -1512.34 0 0 15780.8 0 0 -15780.8 0 0 2885.1 0 0 -2885.1
0 0 1353.15 0 0 -1353.15 0 0 15177.9 0 0 -15177.9 0 0 3021.16 0 0 -3021.16 0 0 605.777 0 0 -605.777 0 0 14433.1 0 0 -14433.1 0 0 2915.57 0 0 -2915.57
0 0 569.101 0 0 -569.101 0 0 13631.7 0 0 -13631.7 0 0 3065.5 0 0 -3065.5 0 0 -54.4483 0 0 54.4483 0 0 12819 0 0 -12819 0 0 2966.42 0 0 -2966.42
0 0 -25.4982 0 0 25.4982 0 0 11865.1 0 0 -11865.1 0 0 3123.18 0 0 -3123.18 0 0 -444.335 0 0 444.335 0 0 10945.5 0 0 -10945.5 0 0 3033.55 0 0 -3033.55
0 0 -350.307 0 0 350.307 0 0 9899.46 0 0 -9899.46 0 0 3188.47 0 0 -3188.47 0 0 -743.986 0 0 743.986 0 0 8906.56 0 0 -8906.56 0 0 3104.52 0 0 -3104.52
0 0 -629.753 0 0 629.753 0 0 7792.61 0 0 -7792.61 0 0 3253.44 0 0 -3253.44 0 0 -986.399 0 0 986.399 0 0 6717.66 0 0 -6717.66 0 0 3180.39 0 0 -3180.39
0 0 -860.878 0 0 860.878 0 0 5594.55 0 0 -5594.55 0 0 3311.14 0 0 -3311.14 0 0 -1179.06 0 0 1179.06 0 0 4433.94 0 0 -4433.94 0 0 3244.01 0 0 -3244.01
0 0 -1051.52 0 0 1051.52 0 0 3353.15 0 0 -3353.15 0 0 3351.84 0 0 -3351.84 0 0 -1333.63 0 0 1333.63 0 0 2098.14 0 0 -2098.14 0 0 3295.39 0 0 -3295.39
0 0 -1211.57 0 0 1211.57 0 0 1108.93 0 0 -1108.93 0 0 3369.34 0 0 -3369.34 0 0 -1457.5 0 0 1457.5 0 0 -235.138 0 0 235.138 0 0 3321.11 0 0 -3321.11
0 0 -1346.55 0 0 1346.55 0 0 -1088.07 0 0 1088.07 0 0 3354.84 0 0 -3354.84 0 0 -1565.76 0 0 1565.76 0 0 -2523.39 0 0 2523.39 0 0 3316.01 0 0 -3316.01
0 0 -1467.1 0 0 1467.1 0 0 -3186.02 0 0 3186.02 0 0 3302.58 0 0 -3302.58 0 0 -1666.68 0 0 1666.68 0 0 -4719.8 0 0 4719.8 0 0 3271.6 0 0 -3271.6
0 0 -1588.2 0 0 1588.2 0 0 -5150.4 0 0 5150.4 0 0 3205.55 0 0 -3205.55 0 0 -1769.05 0 0 1769.05 0 0 -6776.79 0 0 6776.79 0 0 3180.36 0 0 -3180.36
0 0 -1725.57 0 0 1725.57 0 0 -6958.15 0 0 6958.15 0 0 3055.1 0 0 -3055.1 0 0 -1885.65 0 0 1885.65 0 0 -8659.94 0 0 8659.94 0 0 3039.21 0 0 -3039.21
0 0 -1892.83 0 0 1892.83 0 0 -8552.36 0 0 8552.36 0 0 2851.57 0 0 -2851.57 0 0 -2035.94 0 0 2035.94 0 0 -10326 0 0 10326 0 0 2839.5 0 0 -2839.5
0 0 -2105.65 0 0 2105.65 0 0 -9903.94 0 0 9903.94 0 0 2589.76 0 0 -2589.76 0 0 -2236.04 0 0 2236.04 0 0 -11737.5 0 0 11737.5 0 0 2582.22 0 0 -2582.22
0 0 -2379.31 0 0 2379.31 0 0 -10990.1 0 0 10990.1 0 0 2268.12 0 0 -2268.12 0 0 -2498.93 0 0 2498.93 0 0 -12869.5 0 0 12869.5 0 0 2263.4 0 0 -2263.4
0 0 -2726.36 0 0 2726.36 0 0 -11792.8 0 0 11792.8 0 0 1886.4 0 0 -1886.4 0 0 -2837.42 0 0 2837.42 0 0 -13703.8 0 0 13703.8 0 0 1883.1 0 0 -1883.1
0 0 -3158.06 0 0 3158.06 0 0 -12300.1 0 0 12300.1 0 0 1445.93 0 0 -1445.93 0 0 -3264.05 0 0 3264.05 0 0 -14230.4 0 0 14230.4 0 0 1442.45 0 0 -1442.45
0 0 -3685.29 0 0 3685.29 0 0 -12509.6 0 0 12509.6 0 0 949.652 0 0 -949.652 0 0 -3789.56 0 0 3789.56 0 0 -14447.1 0 0 14447.1 0 0 944.641 0 0 -944.641
0 0 -4317.14 0 0 4317.14 0 0 -12427.2 0 0 12427.2 0 0 402.02 0 0 -402.02 0 0 -4422.36 0 0 4422.36 0 0 -14358.9 0 0 14358.9 0 0 394.091 0 0 -394.091
0 0 -5059.89 0 0 5059.89 0 0 -12065.3 0 0 12065.3 0 0 -197.946 0 0 197.946 0 0 -5168.85 0 0 5168.85 0 0 -13977.9 0 0 13977.9 0 0 -212.979 0 0 212.979
0 0 -5917.74 0 0 5917.74 0 0 -11443.3 0 0 11443.3 0 0 -839.308 0 0 839.308 0 0 -6033.29 0 0 6033.29 0 0 -13326.3 0 0 13326.3 0 0 -857.515 0 0 857.515
0 0 -6893.25 0 0 6893.25 0 0 -10589.5 0 0 10589.5 0 0 -1510.67 0 0 1510.67 0 0 -7017.66 0 0 7017.66 0 0 -12433.6 0 0 12433.6 0 0 -1534.84 0 0 1534.84
0 0 -7987.33 0 0 7987.33 0 0 -9537.43 0 0 9537.43 0 0 -2202.01 0 0 2202.01 0 0 -8122.53 0 0 8122.53 0 0 -11334.7 0 0 11334.7 0 0 -2234.16 0 0 2234.16
0 0 -9198.89 0 0 9198.89 0 0 -8325.54 0 0 8325.54 0 0 -2903.07 0 0 2903.07 0 0 -9346.68 0 0 9346.68 0 0 -10069.5 0 0 10069.5 0 0 -2944.44 0 0 2944.44
0 0 -10525.1 0 0 10525.1 0 0 -6997.17 0 0 6997.17 0 0 -3602.36 0 0 3602.36 0 0 -10686.8 0 0 10686.8 0 0 -8683.92 0 0 8683.92 0 0 -3652.97 0 0 3652.97
0 0 -11959.7 0 0 11959.7 0 0 -5599.62 0 0 5599.62 0 0 -4287.74 0 0 4287.74 0 0 -12135.9 0 0 12135.9 0 0 -7227.3 0 0 7227.3 0 0 -4347.52 0 0 4347.52
0 0 -13490.9 0 0 13490.9 0 0 -4182.72 0 0 4182.72 0 0 -4947.12 0 0 4947.12 0 0 -13681.2 0 0 13681.2 0 0 -5751.75 0 0 5751.75 0 0 -5016.15 0 0 5016.15
0 0 -15100.6 0 0 15100.6 0 0 -2797.54 0 0 2797.54 0 0 -5568.87 0 0 5568.87 0 0 -15304.2 0 0 15304.2 0 0 -4310.58 0 0 4310.58 0 0 -5647.04 0 0 5647.04
0 0 -16764.8 0 0 16764.8 0 0 -1495.22 0 0 1495.22 0 0 -6141.81 0 0 6141.81 0 0 -16980.2 0 0 16980.2 0 0 -2956.99 0 0 2956.99 0 0 -6228.58 0 0 6228.58
0 0 -18454.2 0 0 18454.2 0 0 -324.114 0 0 324.114 0 0 -6655.47 0 0 6655.47 0 0 -18680.7 0 0 18680.7 0 0 -1742.03 0 0 1742.03 0 0 -6749.79 0 0 6749.79
0 0 -20139.7 0 0 20139.7 0 0 665.406 0 0 -665.406 0 0 -7071.07 0 0 7071.07 0 0 -20375.8 0 0 20375.8 0 0 -718.558 0 0 718.558 0 0 -7161.59 0 0 7161.59
0 0 -21791.1 0 0 21791.1 0 0 1390.11 0 0 -1390.11 0 0 -7095.61 0 0 7095.61 0 0 -22030.7 0 0 22030.7 0 0 -22.2102 0 0 22.2102 0 0 -6997.98 0 0 6997.98
0 0 -23383.9 0 0 23383.9 0 0 1877.04 0 0 -1877.04 0 0 -7102.99 0 0 7102.99 0 0 -23620.3 0 0 23620.3 0 0 450.202 0 0 -450.202 0 0 -6997.67 0 0 6997.67
0 0 -24882 0 0 24882 0 0 2078.33 0 0 -2078.33 0 0 -7074.11 0 0 7074.11 0 0 -25127.8 0 0 25127.8 0 0 687.617 0 0 -687.617 0 0 -7029.84 0 0 7029.84
0 0 -26267.8 0 0 26267.8 0 0 2014.56 0 0 -2014.56 0 0 -7064.22 0 0 7064.22 0 0 -26510.2 0 0 26510.2 0 0 587.986 0 0 -587.986 0 0 -7003.46 0 0 7003.46
0 0 -27515.6 0 0 27515.6 0 0 1654.99 0 0 -1654.99 0 0 -7082.53 0 0 7082.53 0 0 -27755.8 0 0 27755.8 0 0 200.776 0 0 -200.776 0 0 -7016.15 0 0 7016.15
0 0 -28612.5 0 0 28612.5 0 0 987.959 0 0 -987.959 0 0 -7040.64 0 0 7040.64 0 0 -28847 0 0 28847 0 0 -514.567 0 0 514.567 0 0 -6950.78 0 0 6950.78
0 0 -29555.7 0 0 29555.7 0 0 14.3412 0 0 -14.3412 0 0 -6906 0 0 6906 0 0 -29780.9 0 0 29780.9 0 0 -1551.89 0 0 1551.89 0 0 -6794.21 0 0 6794.21
0 0 -30353.1 0 0 30353.1 0 0 -1255.61 0 0 1255.61 0 0 -6672.97 0 0 6672.97 0 0 -30568.1 0 0 30568.1 0 0 -2883.6 0 0 2883.6 0 0 -6569.26 0 0 6569.26
0 0 -31022.4 0 0 31022.4 0 0 -2790.12 0 0 2790.12 0 0 -6362.78 0 0 6362.78 0 0 -31223.9 0 0 31223.9 0 0 -4495.9 0 0 4495.9 0 0 -6268.12 0 0 6268.12
0 0 -31583.9 0 0 31583.9 0 0 -4555.62 0 0 4555.62 0 0 -5995.95 0 0 5995.95 0 0 -31769.2 0 0 31769.2 0 0 -6354.09 0 0 6354.09 0 0 -5895.46 0 0 5895.46
0 0 -32059.2 0 0 32059.2 0 0 -6514.23 0 0 6514.23 0 0 -5582.67 0 0 5582.67 0 0 -32226 0 0 32226 0 0 -8418.18 0 0 8418.18 0 0 -5459.85 0 0 5459.85
0 0 -32470.9 0 0 32470.9 0 0 -8624.9 0 0 8624.9 0 0 -5123.42 0 0 5123.42 0 0 -32617.5 0 0 32617.5 0 0 -10639.6 0 0 10639.6 0 0 -4977.79 0 0 4977.79
0 0 -32840.9 0 0 32840.9 0 0 -10840.6 0 0 10840.6 0 0 -4622.05 0 0 4622.05 0 0 -32966.4 0 0 32966.4 0 0 -12967.8 0 0 12967.8 0 0 -4464.85 0 0 4464.85
0 0 -33190.1 0 0 33190.1 0 0 -13110.1 0 0 13110.1 0 0 -4092.8 0 0 4092.8 0 0 -33293.9 0 0 33293.9 0 0 -15351.7 0 0 15351.7 0 0 -3931.93 0 0 3931.93
0 0 -33536.4 0 0 33536.4 0 0 -15381.1 0 0 15381.1 0 0 -3555.45 0 0 3555.45 0 0 -33618.1 0 0 33618.1 0 0 -17739.1 0 0 17739.1 0 0 -3387.89 0 0 3387.89
0 0 -33893.8 0 0 33893.8 0 0 -17603.2 0 0 17603.2 0 0 -3026.12 0 0 3026.12 0 0 -33953.6 0 0 33953.6 0 0 -20077.3 0 0 20077.3 0 0 -2843.65 0 0 2843.65
0 0 -34272.4 0 0 34272.4 0 0 -19728.1 0 0 19728.1 0 0 -2514.03 0 0 2514.03 0 0 -34311 0 0 34311 0 0 -22314.2 0 0 22314.2 0 0 -2313.4 0 0 2313.4
0 0 -34678.4 0 0 34678.4 0 0 -21710.5 0 0 21710.5 0 0 -2025.93 0 0 2025.93 0 0 -34697.3 0 0 34697.3 0 0 -24401.1 0 0 24401.1 0 0 -1811.62 0 0 1811.62
0 0 -35115 0 0 35115 0 0 -23508.3 0 0 23508.3 0 0 -1571.47 0 0 1571.47 0 0 -35116 0 0 35116 0 0 -26294.1 0 0 26294.1 0 0 -1350 0 0 1350
0 0 -35565.1 0 0 35565.1 0 0 -25067.8 0 0 25067.8 0 0 -1164.85 0 0 1164.85 0 0 -35544 0 0 35544 0 0 -27911.6 0 0 27911.6 0 0 -939.777 0 0 939.777
0 0 -35989.4 0 0 35989.4 0 0 -26299.7 0 0 26299.7 0 0 -817.66 0 0 817.66 0 0 -35655.4 0 0 35655.4 0 0 -28942.6 0 0 28942.6 0 0 -609.787 0 0 609.787
0 0 -36177.5 0 0 36177.5 0 0 -27307.7 0 0 27307.7 0 0 -540.844 0 0 540.844 0 0 -35945.6 0 0 35945.6 0 0 -29932.8 0 0 29932.8 0 0 -301.565 0 0 301.565
0 0 -36237.8 0 0 36237.8 0 0 -28092.8 0 0 28092.8 0 0 -321.084 0 0 321.084 0 0 -36246.6 0 0 36246.6 0 0 -30561.3 0 0 30561.3 0 0 -110.987 0 0 110.987
0 0 -36304.1 0 0 36304.1 0 0 -28575.2 0 0 28575.2 0 0 -182.038 0 0 182.038 0 0 -36295.5 0 0 36295.5 0 0 -31038.9 0 0 31038.9 0 0 32.2055 0 0 -32.2055
0 0 -36374.9 0 0 36374.9 0 0 -28794.7 0 0 28794.7 0 0 -108.807 0 0 108.807 0 0 -36368.8 0 0 36368.8 0 0 -31249.3 0 0 31249.3 0 0 94.2486 0 0 -94.2486
0 0 -36453.4 0 0 36453.4 0 0 -28704.1 0 0 28704.1 0 0 -99.0648 0 0 99.0648 0 0 -36449 0 0 36449 0 0 -31169.8 0 0 31169.8 0 0 102.285 0 0 -102.285
0 0 -36539.9 0 0 36539.9 0 0 -28317 0 0 28317 0 0 -163.769 0 0 163.769 0 0 -36537.6 0 0 36537.6 0 0 -30778.3 0 0 30778.3 0 0 40.1145 0 0 -40.1145
0 0 -36635.2 0 0 36635.2 0 0 -27639.5 0 0 27639.5 0 0 -298.551 0 0 298.551 0 0 -36635.8 0 0 36635.8 0 0 -30081.3 0 0 30081.3 0 0 -99.2958 0 0 99.2958
0 0 -36739.5 0 0 36739.5 0 0 -26686.6 0 0 26686.6 0 0 -501.012 0 0 501.012 0 0 -36743.9 0 0 36743.9 0 0 -29104.7 0 0 29104.7 0 0 -301.664 0 0 301.664
0 0 -36852.8 0 0 36852.8 0 0 -25490.9 0 0 25490.9 0 0 -762.962 0 0 762.962 0 0 -36861.7 0 0 36861.7 0 0 -27868.1 0 0 27868.1 0 0 -569.458 0 0 569.458
0 0 -36974 0 0 36974 0 0 -24081.5 0 0 24081.5 0 0 -1078.47 0 0 1078.47 0 0 -36987.8 0 0 36987.8 0 0 -26409.8 0 0 26409.8 0 0 -891.669 0 0 891.669
0 0 -37101.1 0 0 37101.1 0 0 -22492.2 0 0 22492.2 0 0 -1440.1 0 0 1440.1 0 0 -37120.3 0 0 37120.3 0 0 -24766.4 0 0 24766.4 0 0 -1260.75 0 0 1260.75
0 0 -37231.6 0 0 37231.6 0 0 -20763.9 0 0 20763.9 0 0 -1839.66 0 0 1839.66 0 0 -37256.6 0 0 37256.6 0 0 -22979.8 0 0 22979.8 0 0 -1666.88 0 0 1666.88
0 0 -37362.5 0 0 37362.5 0 0 -18942.7 0 0 18942.7 0 0 -2267.02 0 0 2267.02 0 0 -37393.5 0 0 37393.5 0 0 -21094.3 0 0 21094.3 0 0 -2100.71 0 0 2100.71
0 0 -37490.6 0 0 37490.6 0 0 -17073.9 0 0 17073.9 0 0 -2711.07 0 0 2711.07 0 0 -37527.6 0 0 37527.6 0 0 -19157.5 0 0 19157.5 0 0 -2552.2 0 0 2552.2
0 0 -37612.6 0 0 37612.6 0 0 -15202.9 0 0 15202.9 0 0 -3160.92 0 0 3160.92 0 0 -37655.4 0 0 37655.4 0 0 -17218.5 0 0 17218.5 0 0 -3010.53 0 0 3010.53
0 0 -37725.5 0 0 37725.5 0 0 -13376.1 0 0 13376.1 0 0 -3606.43 0 0 3606.43 0 0 -37774 0 0 37774 0 0 -15325.1 0 0 15325.1 0 0 -3464.6 0 0 3464.6
0 0 -37827.1 0 0 37827.1 0 0 -11639.3 0 0 11639.3 0 0 -4037.76 0 0 4037.76 0 0 -37880.9 0 0 37880.9 0 0 -13523.9 0 0 13523.9 0 0 -3903.6 0 0 3903.6
0 0 -37915.7 0 0 37915.7 0 0 -10034.8 0 0 10034.8 0 0 -4445.07 0 0 4445.07 0 0 -37974.2 0 0 37974.2 0 0 -11858.6 0 0 11858.6 0 0 -4317.58 0 0 4317.58
0 0 -37990.5 0 0 37990.5 0 0 -8601.11 0 0 8601.11 0 0 -4818.81 0 0 4818.81 0 0 -38053.2 0 0 38053.2 0 0 -10370 0 0 10370 0 0 -4697.42 0 0 4697.42
0 0 -38051 0 0 38051 0 0 -7372.73 0 0 7372.73 0 0 -5150.51 0 0 5150.51 0 0 -38117.3 0 0 38117.3 0 0 -9094.08 0 0 9094.08 0 0 -5034.86 0 0 5034.86
0 0 -38097.1 0 0 38097.1 0 0 -6379 0 0 6379 0 0 -5433.26 0 0 5433.26 0 0 -38166.3 0 0 38166.3 0 0 -8061.28 0 0 8061.28 0 0 -5322.62 0 0 5322.62
0 0 -38128.8 0 0 38128.8 0 0 -5643.36 0 0 5643.36 0 0 -5661.58 0 0 5661.58 0 0 -38200.1 0 0 38200.1 0 0 -7295.98 0 0 7295.98 0 0 -5554.67 0 0 5554.67
0 0 -38146.3 0 0 38146.3 0 0 -5182.82 0 0 5182.82 0 0 -5831.18 0 0 5831.18 0 0 -38219 0 0 38219 0 0 -6815.96 0 0 6815.96 0 0 -5726.54 0 0 5726.54
0 0 -38139.6 0 0 38139.6 0 0 -5008.45 0 0 5008.45 0 0 -5939.02 0 0 5939.02 0 0 -38215 0 0 38215 0 0 -6632.74 0 0 6632.74 0 0 -5835.33 0 0 5835.33
0 0 -37975.2 0 0 37975.2 0 0 -5136.25 0 0 5136.25 0 0 -5983.34 0 0 5983.34 0 0 -38042.3 0 0 38042.3 0 0 -6767.27 0 0 6767.27 0 0 -5878.92 0 0 5878.92
0 0 -37637.8 0 0 37637.8 0 0 -5562.88 0 0 5562.88 0 0 -5964.08 0 0 5964.08 0 0 -37687.1 0 0 37687.1 0 0 -7212.42 0 0 7212.42 0 0 -5858.35 0 0 5858.35
0 0 -37141.8 0 0 37141.8 0 0 -6272.61 0 0 6272.61 0 0 -5883.97 0 0 5883.97 0 0 -37162.1 0 0 37162.1 0 0 -7955.35 0 0 7955.35 0 0 -5774.69 0 0 5774.69
0 0 -36503.7 0 0 36503.7 0 0 -7243.02 0 0 7243.02 0 0 -5746.52 0 0 5746.52 0 0 -36485.3 0 0 36485.3 0 0 -8970.91 0 0 8970.91 0 0 -5632.52 0 0 5632.52
0 0 -35743.1 0 0 35743.1 0 0 -8443.41 0 0 8443.41 0 0 -5557.01 0 0 5557.01 0 0 -35677.3 0 0 35677.3 0 0 -10228.3 0 0 10228.3 0 0 -5436.83 0 0 5436.83
0 0 -34882.9 0 0 34882.9 0 0 -9837.18 0 0 9837.18 0 0 -5321.98 0 0 5321.98 0 0 -34762.3 0 0 34762.3 0 0 -11688.7 0 0 11688.7 0 0 -5194.54 0 0 5194.54
0 0 -33948.6 0 0 33948.6 0 0 -11382.4 0 0 11382.4 0 0 -5049.11 0 0 5049.11 0 0 -33767.4 0 0 33767.4 0 0 -13307.8 0 0 13307.8 0 0 -4913.6 0 0 4913.6
0 0 -32966.6 0 0 32966.6 0 0 -13032.9 0 0 13032.9 0 0 -4746.95 0 0 4746.95 0 0 -32720.9 0 0 32720.9 0 0 -15037.4 0 0 15037.4 0 0 -4602.79 0 0 4602.79
0 0 -31963 0 0 31963 0 0 -14739.9 0 0 14739.9 0 0 -4424.63 0 0 4424.63 0 0 -31650.5 0 0 31650.5 0 0 -16826.4 0 0 16826.4 0 0 -4271.5 0 0 4271.5
0 0 -30961.5 0 0 30961.5 0 0 -16453.5 0 0 16453.5 0 0 -4091.63 0 0 4091.63 0 0 -30582 0 0 30582 0 0 -18622.8 0 0 18622.8 0 0 -3929.42 0 0 3929.42
0 0 -29984 0 0 29984 0 0 -18124.1 0 0 18124.1 0 0 -3757.5 0 0 3757.5 0 0 -29538.9 0 0 29538.9 0 0 -20374.5 0 0 20374.5 0 0 -3586.38 0 0 3586.38
0 0 -29050.5 0 0 29050.5 0 0 -19703.7 0 0 19703.7 0 0 -3431.58 0 0 3431.58 0 0 -28542.7 0 0 28542.7 0 0 -22031 0 0 22031 0 0 -3251.97 0 0 3251.97
0 0 -28178.7 0 0 28178.7 0 0 -21146.9 0 0 21146.9 0 0 -3122.71 0 0 3122.71 0 0 -27613 0 0 27613 0 0 -23544.9 0 0 23544.9 0 0 -2935.3 0 0 2935.3
0 0 -27384.7 0 0 27384.7 0 0 -22412.5 0 0 22412.5 0 0 -2839.05 0 0 2839.05 0 0 -26767.1 0 0 26767.1 0 0 -24872.8 0 0 24872.8 0 0 -2644.75 0 0 2644.75
0 0 -26682.7 0 0 26682.7 0 0 -23464.1 0 0 23464.1 0 0 -2587.83 0 0 2587.83 0 0 -26020.7 0 0 26020.7 0 0 -25976.6 0 0 25976.6 0 0 -2387.72 0 0 2387.72
0 0 -26085.8 0 0 26085.8 0 0 -24271.1 0 0 24271.1 0 0 -2375.19 0 0 2375.19 0 0 -25387.7 0 0 25387.7 0 0 -26824.4 0 0 26824.4 0 0 -2170.48 0 0 2170.48
0 0 -25605.7 0 0 25605.7 0 0 -24809.9 0 0 24809.9 0 0 -2205.96 0 0 2205.96 0 0 -24880.8 0 0 24880.8 0 0 -27391.1 0 0 27391.1 0 0 -1997.97 0 0 1997.97
0 0 -25252.5 0 0 25252.5 0 0 -25063.9 0 0 25063.9 0 0 -2083.56 0 0 2083.56 0 0 -24510.9 0 0 24510.9 0 0 -27659.4 0 0 27659.4 0 0 -1873.73 0 0 1873.73
0 0 -25033.4 0 0 25033.4 0 0 -25024.5 0 0 25024.5 0 0 -2009.9 0 0 2009.9 0 0 -24285.6 0 0 24285.6 0 0 -27620.2 0 0 27620.2 0 0 -1799.73 0 0 1799.73
0 0 -24950.5 0 0 24950.5 0 0 -24691.3 0 0 24691.3 0 0 -1985.38 0 0 1985.38 0 0 -24206.8 0 0 24206.8 0 0 -27273.1 0 0 27273.1 0 0 -1776.34 0 0 1776.34
0 0 -24998.6 0 0 24998.6 0 0 -24072.4 0 0 24072.4 0 0 -2008.85 0 0 2008.85 0 0 -24269.4 0 0 24269.4 0 0 -26626.7 0 0 26626.7 0 0 -1802.37 0 0 1802.37
0 0 -25164.1 0 0 25164.1 0 0 -23184.3 0 0 23184.3 0 0 -2077.64 0 0 2077.64 0 0 -24458.8 0 0 24458.8 0 0 -25698.2 0 0 25698.2 0 0 -1875.06 0 0 1875.06
0 0 -25424.1 0 0 25424.1 0 0 -22051.1 0 0 22051.1 0 0 -2187.68 0 0 2187.68 0 0 -24750.9 0 0 24750.9 0 0 -24513.1 0 0 24513.1 0 0 -1990.22 0 0 1990.22
0 0 -25748.7 0 0 25748.7 0 0 -20703.9 0 0 20703.9 0 0 -2333.62 0 0 2333.62 0 0 -25114.4 0 0 25114.4 0 0 -23104 0 0 23104 0 0 -2142.37 0 0 2142.37
0 0 -26105.3 0 0 26105.3 0 0 -19179.4 0 0 19179.4 0 0 -2509.07 0 0 2509.07 0 0 -25514.9 0 0 25514.9 0 0 -21509.3 0 0 21509.3 0 0 -2324.93 0 0 2324.93
0 0 -26461.5 0 0 26461.5 0 0 -17518.2 0 0 17518.2 0 0 -2706.78 0 0 2706.78 0 0 -25918.3 0 0 25918.3 0 0 -19771.6 0 0 19771.6 0 0 -2530.43 0 0 2530.43
0 0 -26786.3 0 0 26786.3 0 0 -15763.5 0 0 15763.5 0 0 -2918.88 0 0 2918.88 0 0 -26291.5 0 0 26291.5 0 0 -17936.4 0 0 17936.4 0 0 -2750.78 0 0 2750.78
0 0 -27050.5 0 0 27050.5 0 0 -13960.3 0 0 13960.3 0 0 -3137.09 0 0 3137.09 0 0 -26603.6 0 0 26603.6 0 0 -16050.7 0 0 16050.7 0 0 -2977.48 0 0 2977.48
0 0 -27226.7 0 0 27226.7 0 0 -12153.4 0 0 12153.4 0 0 -3353.03 0 0 3353.03 0 0 -26825.4 0 0 26825.4 0 0 -14161.7 0 0 14161.7 0 0 -3201.9 0 0 3201.9
0 0 -27289.4 0 0 27289.4 0 0 -10386.9 0 0 10386.9 0 0 -3558.39 0 0 3558.39 0 0 -26929.6 0 0 26929.6 0 0 -12315.3 0 0 12315.3 0 0 -3415.51 0 0 3415.51
0 0 -27213.9 0 0 27213.9 0 0 -8702.43 0 0 8702.43 0 0 -3745.24 0 0 3745.24 0 0 -26890.1 0 0 26890.1 0 0 -10555.4 0 0 10555.4 0 0 -3610.16 0 0 3610.16
0 0 -26977.6 0 0 26977.6 0 0 -7138.29 0 0 7138.29 0 0 -3906.2 0 0 3906.2 0 0 -26682.7 0 0 26682.7 0 0 -8922 0 0 8922 0 0 -3778.26 0 0 3778.26
0 0 -26561.8 0 0 26561.8 0 0 -5728.1 0 0 5728.1 0 0 -4034.7 0 0 4034.7 0 0 -26287.4 0 0 26287.4 0 0 -7450.32 0 0 7450.32 0 0 -3913.07 0 0 3913.07
0 0 -25955.1 0 0 25955.1 0 0 -4499.59 0 0 4499.59 0 0 -4125.15 0 0 4125.15 0 0 -25692.1 0 0 25692.1 0 0 -6169.34 0 0 6169.34 0 0 -4008.82 0 0 4008.82
0 0 -25158.2 0 0 25158.2 0 0 -3473.46 0 0 3473.46 0 0 -4173.06 0 0 4173.06 0 0 -24896.8 0 0 24896.8 0 0 -5100.69 0 0 5100.69 0 0 -4060.95 0 0 4060.95
0 0 -24185 0 0 24185 0 0 -2662.85 0 0 2662.85 0 0 -4175.24 0 0 4175.24 0 0 -23915.7 0 0 23915.7 0 0 -4258.03 0 0 4258.03 0 0 -4066.17 0 0 4066.17
0 0 -23061.4 0 0 23061.4 0 0 -2073.32 0 0 2073.32 0 0 -4129.77 0 0 4129.77 0 0 -22775.1 0 0 22775.1 0 0 -3647.1 0 0 3647.1 0 0 -4022.53 0 0 4022.53
0 0 -21819.9 0 0 21819.9 0 0 -1703.47 0 0 1703.47 0 0 -4036.01 0 0 4036.01 0 0 -21508.2 0 0 21508.2 0 0 -3266.4 0 0 3266.4 0 0 -3929.42 0 0 3929.42
0 0 -20494 0 0 20494 0 0 -1545.82 0 0 1545.82 0 0 -3894.62 0 0 3894.62 0 0 -20149.7 0 0 20149.7 0 0 -3108.01 0 0 3108.01 0 0 -3787.51 0 0 3787.51
0 0 -19113.9 0 0 19113.9 0 0 -1587.65 0 0 1587.65 0 0 -3707.4 0 0 3707.4 0 0 -18730.9 0 0 18730.9 0 0 -3158.56 0 0 3158.56 0 0 -3598.69 0 0 3598.69
0 0 -17704.5 0 0 17704.5 0 0 -1811.76 0 0 1811.76 0 0 -3477.3 0 0 3477.3 0 0 -17277.6 0 0 17277.6 0 0 -3400.03 0 0 3400.03 0 0 -3365.98 0 0 3365.98
0 0 -16284.6 0 0 16284.6 0 0 -2197.15 0 0 2197.15 0 0 -3208.22 0 0 3208.22 0 0 -15809.7 0 0 15809.7 0 0 -3810.37 0 0 3810.37 0 0 -3093.44 0 0 3093.44
0 0 -14868.2 0 0 14868.2 0 0 -2719.49 0 0 2719.49 0 0 -2904.98 0 0 2904.98 0 0 -14342.1 0 0 14342.1 0 0 -4364.12 0 0 4364.12 0 0 -2785.99 0 0 2785.99
0 0 -13466 0 0 13466 0 0 -3351.73 0 0 3351.73 0 0 -2573.11 0 0 2573.11 0 0 -12886.5 0 0 12886.5 0 0 -5032.95 0 0 5032.95 0 0 -2449.32 0 0 2449.32
0 0 -12085.6 0 0 12085.6 0 0 -4064.78 0 0 4064.78 0 0 -2218.76 0 0 2218.76 0 0 -11451.2 0 0 11451.2 0 0 -5786.41 0 0 5786.41 0 0 -2089.73 0 0 2089.73
0 0 -10731.7 0 0 10731.7 0 0 -4828.19 0 0 4828.19 0 0 -1848.49 0 0 1848.49 0 0 -10041.9 0 0 10041.9 0 0 -6592.63 0 0 6592.63 0 0 -1713.97 0 0 1713.97
0 0 -9407.81 0 0 9407.81 0 0 -5610.81 0 0 5610.81 0 0 -1469.14 0 0 1469.14 0 0 -8662.93 0 0 8662.93 0 0 -7419.01 0 0 7419.01 0 0 -1329.02 0 0 1329.02
0 0 -8117.34 0 0 8117.34 0 0 -6381.37 0 0 6381.37 0 0 -1087.65 0 0 1087.65 0 0 -7318.54 0 0 7318.54 0 0 -8232.81 0 0 8232.81 0 0 -942.001 0 0 942.001
0 0 -6863.82 0 0 6863.82 0 0 -7109.26 0 0 7109.26 0 0 -710.885 0 0 710.885 0 0 -6013.11 0 0 6013.11 0 0 -9001.98 0 0 9001.98 0 0 -559.934 0 0 559.934
0 0 -5648.41 0 0 5648.41 0 0 -7765.48 0 0 7765.48 0 0 -345.455 0 0 345.455 0 0 -4748.49 0 0 4748.49 0 0 -9696.18 0 0 9696.18 0 0 -189.582 0 0 189.582
0 0 -4467.9 0 0 4467.9 0 0 -8321.77 0 0 8321.77 0 0 -8.35896 0 0 8.35896 0 0 -3522.18 0 0 3522.18 0 0 -10285.2 0 0 10285.2 0 0 142.535 0 0 -142.535
0 0 -3314.26 0 0 3314.26 0 0 -8752.03 0 0 8752.03 0 0 268.582 0 0 -268.582 0 0 -2328.25 0 0 2328.25 0 0 -10734.6 0 0 10734.6 0 0 403.118 0 0 -403.118
0 0 -2177.1 0 0 2177.1 0 0 -9040.68 0 0 9040.68 0 0 523.808 0 0 -523.808 0 0 -1153.11 0 0 1153.11 0 0 -11046 0 0 11046 0 0 663.506 0 0 -663.506
0 0 -1046.04 0 0 1046.04 0 0 -9173.25 0 0 9173.25 0 0 752.151 0 0 -752.151 0 0 2.41562 0 0 -2.41562 0 0 -11190.4 0 0 11190.4 0 0 889.189 0 0 -889.189
0 0 9.27665 0 0 -9.27665 0 0 -9139.99 0 0 9139.99 0 0 953.325 0 0 -953.325 0 0 432.544 0 0 -432.544 0 0 -11057.9 0 0 11057.9 0 0 1080.11 0 0 -1080.11
0 0 435.867 0 0 -435.867 0 0 -8870.35 0 0 8870.35 0 0 1120.33 0 0 -1120.33 0 0 910.32 0 0 -910.32 0 0 -10787.6 0 0 10787.6 0 0 1251.52 0 0 -1251.52
0 0 914.352 0 0 -914.352 0 0 -8419.68 0 0 8419.68 0 0 1256.85 0 0 -1256.85 0 0 1383.09 0 0 -1383.09 0 0 -10306.6 0 0 10306.6 0 0 1371.28 0 0 -1371.28
0 0 1398.1 0 0 -1398.1 0 0 -7797.03 0 0 7797.03 0 0 1357.82 0 0 -1357.82 0 0 1859.3 0 0 -1859.3 0 0 -9674.4 0 0 9674.4 0 0 1477.11 0 0 -1477.11
0 0 1885.2 0 0 -1885.2 0 0 -7027.41 0 0 7027.41 0 0 1429.14 0 0 -1429.14 0 0 2340.09 0 0 -2340.09 0 0 -8856.81 0 0 8856.81 0 0 1541.41 0 0 -1541.41
0 0 2376.28 0 0 -2376.28 0 0 -6104.67 0 0 6104.67 0 0 1470.04 0 0 -1470.04 0 0 2824.39 0 0 -2824.39 0 0 -7889.66 0 0 7889.66 0 0 1581.11 0 0 -1581.11
0 0 2870.48 0 0 -2870.48 0 0 -5042.79 0 0 5042.79 0 0 1484 0 0 -1484 0 0 3307.81 0 0 -3307.81 0 0 -6782.56 0 0 6782.56 0 0 1590.03 0 0 -1590.03
0 0 3361.52 0 0 -3361.52 0 0 -3865.63 0 0 3865.63 0 0 1470 0 0 -1470 0 0 3786.75 0 0 -3786.75 0 0 -5555.02 0 0 5555.02 0 0 1570.48 0 0 -1570.48
0 0 3831.76 0 0 -3831.76 0 0 -2611.54 0 0 2611.54 0 0 1432.17 0 0 -1432.17 0 0 4231.63 0 0 -4231.63 0 0 -4261.74 0 0 4261.74 0 0 1529.13 0 0 -1529.13
0 0 4280.08 0 0 -4280.08 0 0 -1296.05 0 0 1296.05 0 0 1373.7 0 0 -1373.7 0 0 4663.1 0 0 -4663.1 0 0 -2880.53 0 0 2880.53 0 0 1463.74 0 0 -1463.74
0 0 4710.33 0 0 -4710.33 0 0 73.1721 0 0 -73.1721 0 0 1299.17 0 0 -1299.17 0 0 5074.09 0 0 -5074.09 0 0 -1456.05 0 0 1456.05 0 0 1386.38 0 0 -1386.38
0 0 5122.09 0 0 -5122.09 0 0 1467.75 0 0 -1467.75 0 0 1214.66 0 0 -1214.66 0 0 5465.44 0 0 -5465.44 0 0 -6.82574 0 0 6.82574 0 0 1295.57 0 0 -1295.57
0 0 5516.82 0 0 -5516.82 0 0 2864.56 0 0 -2864.56 0 0 1124.24 0 0 -1124.24 0 0 5839.82 0 0 -5839.82 0 0 1441.4 0 0 -1441.4 0 0 1199.07 0 0 -1199.07
0 0 5899.18 0 0 -5899.18 0 0 4235.33 0 0 -4235.33 0 0 1033.5 0 0 -1033.5 0 0 6202.77 0 0 -6202.77 0 0 2867.24 0 0 -2867.24 0 0 1102.39 0 0 -1102.39
0 0 6276.33 0 0 -6276.33 0 0 5556.92 0 0 -5556.92 0 0 947.498 0 0 -947.498 0 0 6560.96 0 0 -6560.96 0 0 4240.68 0 0 -4240.68 0 0 1010.95 0 0 -1010.95
0 0 6655.8 0 0 -6655.8 0 0 6805.19 0 0 -6805.19 0 0 871.294 0 0 -871.294 0 0 6922.11 0 0 -6922.11 0 0 5536.52 0 0 -5536.52 0 0 929.803 0 0 -929.803
0 0 7044.2 0 0 -7044.2 0 0 7956.39 0 0 -7956.39 0 0 809.443 0 0 -809.443 0 0 7293.48 0 0 -7293.48 0 0 6731.75 0 0 -6731.75 0 0 863.4 0 0 -863.4
0 0 7447.11 0 0 -7447.11 0 0 8989.75 0 0 -8989.75 0 0 765.912 0 0 -765.912 0 0 7681.04 0 0 -7681.04 0 0 7805.67 0 0 -7805.67 0 0 815.79 0 0 -815.79
0 0 7869.22 0 0 -7869.22 0 0 9888.16 0 0 -9888.16 0 0 744.172 0 0 -744.172 0 0 8089.53 0 0 -8089.53 0 0 8740.04 0 0 -8740.04 0 0 790.451 0 0 -790.451
0 0 8314.64 0 0 -8314.64 0 0 10637.6 0 0 -10637.6 0 0 747.046 0 0 -747.046 0 0 8523.27 0 0 -8523.27 0 0 9519.73 0 0 -9519.73 0 0 790.373 0 0 -790.373
0 0 8787.34 0 0 -8787.34 0 0 11227.5 0 0 -11227.5 0 0 776.578 0 0 -776.578 0 0 8986.51 0 0 -8986.51 0 0 10133.6 0 0 -10133.6 0 0 817.725 0 0 -817.725
0 0 9291.24 0 0 -9291.24 0 0 11650.7 0 0 -11650.7 0 0 833.973 0 0 -833.973 0 0 9483.23 0 0 -9483.23 0 0 10574.9 0 0 -10574.9 0 0 873.771 0 0 -873.771
0 0 9829.76 0 0 -9829.76 0 0 11904.4 0 0 -11904.4 0 0 919.637 0 0 -919.637 0 0 10016.8 0 0 -10016.8 0 0 10840.7 0 0 -10840.7 0 0 958.874 0 0 -958.874
0 0 10405.2 0 0 -10405.2 0 0 11990 0 0 -11990 0 0 1033.18 0 0 -1033.18 0 0 10589.6 0 0 -10589.6 0 0 10932.5 0 0 -10932.5 0 0 1072.56 0 0 -1072.56
0 0 11018.4 0 0 -11018.4 0 0 11913 0 0 -11913 0 0 1173.38 0 0 -1173.38 0 0 11202.4 0 0 -11202.4 0 0 10856 0 0 -10856 0 0 1213.57 0 0 -1213.57
0 0 11668.8 0 0 -11668.8 0 0 11683.1 0 0 -11683.1 0 0 1338.12 0 0 -1338.12 0 0 11854.6 0 0 -11854.6 0 0 10620.9 0 0 -10620.9 0 0 1379.8 0 0 -1379.8
0 0 12354.9 0 0 -12354.9 0 0 11313.4 0 0 -11313.4 0 0 1524.56 0 0 -1524.56 0 0 12544.4 0 0 -12544.4 0 0 10241.3 0 0 -10241.3 0 0 1568.38 0 0 -1568.38
0 0 13074.8 0 0 -13074.8 0 0 10822.9 0 0 -10822.9 0 0 1716.73 0 0 -1716.73 0 0 13269.8 0 0 -13269.8 0 0 9735.04 0 0 -9735.04 0 0 1770.78 0 0 -1770.78
0 0 13826.4 0 0 -13826.4 0 0 10230.8 0 0 -10230.8 0 0 1907.09 0 0 -1907.09 0 0 14027.8 0 0 -14027.8 0 0 9128.67 0 0 -9128.67 0 0 1949.33 0 0 -1949.33
0 0 14608 0 0 -14608 0 0 9557.18 0 0 -9557.18 0 0 2105.26 0 0 -2105.26 0 0 14816.1 0 0 -14816.1 0 0 8434.25 0 0 -8434.25 0 0 2151.6 0 0 -2151.6
0 0 15417.4 0 0 -15417.4 0 0 8825.23 0 0 -8825.23 0 0 2308.85 0 0 -2308.85 0 0 15633.5 0 0 -15633.5 0 0 7679.49 0 0 -7679.49 0 0 2353.74 0 0 -2353.74
0 0 16252.9 0 0 -16252.9 0 0 8059.59 0 0 -8059.59 0 0 2513.74 0 0 -2513.74 0 0 16476.9 0 0 -16476.9 0 0 6891.96 0 0 -6891.96 0 0 2556.69 0 0 -2556.69
0 0 17111.4 0 0 -17111.4 0 0 7287.56 0 0 -7287.56 0 0 2715.2 0 0 -2715.2 0 0 17343.7 0 0 -17343.7 0 0 6097.41 0 0 -6097.41 0 0 2755.22 0 0 -2755.22
0 0 17988.8 0 0 -17988.8 0 0 6535.68 0 0 -6535.68 0 0 2907.85 0 0 -2907.85 0 0 18229 0 0 -18229 0 0 5324.28 0 0 -5324.28 0 0 2945.39 0 0 -2945.39
0 0 18879.3 0 0 -18879.3 0 0 5830.48 0 0 -5830.48 0 0 3086.83 0 0 -3086.83 0 0 19127 0 0 -19127 0 0 4599.28 0 0 -4599.28 0 0 3123.44 0 0 -3123.44
0 0 19777.1 0 0 -19777.1 0 0 5197 0 0 -5197 0 0 3248.63 0 0 -3248.63 0 0 20031.6 0 0 -20031.6 0 0 3949.12 0 0 -3949.12 0 0 3284.92 0 0 -3284.92
0 0 20675.7 0 0 -20675.7 0 0 4657.63 0 0 -4657.63 0 0 3390.42 0 0 -3390.42 0 0 20936.7 0 0 -20936.7 0 0 3397.95 0 0 -3397.95 0 0 3425.85 0 0 -3425.85
0 0 21569.4 0 0 -21569.4 0 0 4233.42 0 0 -4233.42 0 0 3509.12 0 0 -3509.12 0 0 21836.5 0 0 -21836.5 0 0 2967.92 0 0 -2967.92 0 0 3542.96 0 0 -3542.96
0 0 22452.7 0 0 -22452.7 0 0 3943.41 0 0 -3943.41 0 0 3601.67 0 0 -3601.67 0 0 22725.2 0 0 -22725.2 0 0 2678.28 0 0 -2678.28 0 0 3633.85 0 0 -3633.85
0 0 23317.2 0 0 -23317.2 0 0 3802.24 0 0 -3802.24 0 0 3665.77 0 0 -3665.77 0 0 23591.9 0 0 -23591.9 0 0 2538.21 0 0 -2538.21 0 0 3697.26 0 0 -3697.26
0 0 24154.6 0 0 -24154.6 0 0 3821.61 0 0 -3821.61 0 0 3700.16 0 0 -3700.16 0 0 24425.8 0 0 -24425.8 0 0 2566.67 0 0 -2566.67 0 0 3730.81 0 0 -3730.81
0 0 24951.4 0 0 -24951.4 0 0 4011.85 0 0 -4011.85 0 0 3703.72 0 0 -3703.72 0 0 25218.4 0 0 -25218.4 0 0 2768.82 0 0 -2768.82 0 0 3734.59 0 0 -3734.59
0 0 25694.5 0 0 -25694.5 0 0 4376.88 0 0 -4376.88 0 0 3673.51 0 0 -3673.51 0 0 25954.5 0 0 -25954.5 0 0 3154.22 0 0 -3154.22 0 0 3702.2 0 0 -3702.2
0 0 26370.5 0 0 -26370.5 0 0 4917.9 0 0 -4917.9 0 0 3610.24 0 0 -3610.24 0 0 26620.9 0 0 -26620.9 0 0 3720.46 0 0 -3720.46 0 0 3635.99 0 0 -3635.99
0 0 26967.7 0 0 -26967.7 0 0 5630 0 0 -5630 0 0 3515.46 0 0 -3515.46 0 0 27206.1 0 0 -27206.1 0 0 4463.4 0 0 -4463.4 0 0 3538.05 0 0 -3538.05
0 0 27477.8 0 0 -27477.8 0 0 6503.48 0 0 -6503.48 0 0 3392.22 0 0 -3392.22 0 0 27702 0 0 -27702 0 0 5373.2 0 0 -5373.2 0 0 3411.31 0 0 -3411.31
0 0 27896.4 0 0 -27896.4 0 0 7524.23 0 0 -7524.23 0 0 3244.63 0 0 -3244.63 0 0 28104.3 0 0 -28104.3 0 0 6434.9 0 0 -6434.9 0 0 3259.55 0 0 -3259.55
0 0 28223.2 0 0 -28223.2 0 0 8673.58 0 0 -8673.58 0 0 3077.5 0 0 -3077.5 0 0 28413 0 0 -28413 0 0 7629.08 0 0 -7629.08 0 0 3087.3 0 0 -3087.3
0 0 28462.3 0 0 -28462.3 0 0 9928.78 0 0 -9928.78 0 0 2895.97 0 0 -2895.97 0 0 28632.6 0 0 -28632.6 0 0 8932.03 0 0 -8932.03 0 0 2900.01 0 0 -2900.01
0 0 28622.3 0 0 -28622.3 0 0 11263.5 0 0 -11263.5 0 0 2705.58 0 0 -2705.58 0 0 28772 0 0 -28772 0 0 10316.6 0 0 -10316.6 0 0 2703.67 0 0 -2703.67
0 0 28716.1 0 0 -28716.1 0 0 12648.8 0 0 -12648.8 0 0 2512.41 0 0 -2512.41 0 0 28844.6 0 0 -28844.6 0 0 11752.8 0 0 -11752.8 0 0 2504.62 0 0 -2504.62
0 0 28760 0 0 -28760 0 0 14053.7 0 0 -14053.7 0 0 2322.94 0 0 -2322.94 0 0 28866.9 0 0 -28866.9 0 0 13208.6 0 0 -13208.6 0 0 2309.29 0 0 -2309.29
0 0 28770.8 0 0 -28770.8 0 0 15446.2 0 0 -15446.2 0 0 2143.74 0 0 -2143.74 0 0 28835.6 0 0 -28835.6 0 0 14654 0 0 -14654 0 0 2123.95 0 0 -2123.95
0 0 28753.2 0 0 -28753.2 0 0 16796.1 0 0 -16796.1 0 0 1980.95 0 0 -1980.95 0 0 28772.3 0 0 -28772.3 0 0 16055.9 0 0 -16055.9 0 0 1955.29 0 0 -1955.29
0 0 28734.8 0 0 -28734.8 0 0 18071.3 0 0 -18071.3 0 0 1840.6 0 0 -1840.6 0 0 28709.3 0 0 -28709.3 0 0 17380.3 0 0 -17380.3 0 0 1809.32 0 0 -1809.32
0 0 28744.3 0 0 -28744.3 0 0 19242.4 0 0 -19242.4 0 0 1728.08 0 0 -1728.08 0 0 28678.1 0 0 -28678.1 0 0 18595.2 0 0 -18595.2 0 0 1691.84 0 0 -1691.84
0 0 28781.3 0 0 -28781.3 0 0 20284.8 0 0 -20284.8 0 0 1648.07 0 0 -1648.07 0 0 28703.2 0 0 -28703.2 0 0 19672.9 0 0 -19672.9 0 0 1607.9 0 0 -1607.9
0 0 28834.3 0 0 -28834.3 0 0 21178.6 0 0 -21178.6 0 0 1604.89 0 0 -1604.89 0 0 28799.4 0 0 -28799.4 0 0 20589.1 0 0 -20589.1 0 0 1561.66 0 0 -1561.66
0 0 28921.5 0 0 -28921.5 0 0 21905.5 0 0 -21905.5 0 0 1601.66 0 0 -1601.66 0 0 28903.4 0 0 -28903.4 0 0 21335.6 0 0 -21335.6 0 0 1555.38 0 0 -1555.38
0 0 29042.8 0 0 -29042.8 0 0 22451.2 0 0 -22451.2 0 0 1640.3 0 0 -1640.3 0 0 29018.1 0 0 -29018.1 0 0 21898.4 0 0 -21898.4 0 0 1592.25 0 0 -1592.25
0 0 29203.1 0 0 -29203.1 0 0 22805.1 0 0 -22805.1 0 0 1722.27 0 0 -1722.27 0 0 29171.2 0 0 -29171.2 0 0 22264.9 0 0 -22264.9 0 0 1673.51 0 0 -1673.51
0 0 29401.3 0 0 -29401.3 0 0 22966.5 0 0 -22966.5 0 0 1847.45 0 0 -1847.45 0 0 29365.9 0 0 -29365.9 0 0 22430.1 0 0 -22430.1 0 0 1798.56 0 0 -1798.56
0 0 29635.6 0 0 -29635.6 0 0 22934.8 0 0 -22934.8 0 0 2014.94 0 0 -2014.94 0 0 29599 0 0 -29599 0 0 22395.4 0 0 -22395.4 0 0 1967.32 0 0 -1967.32
0 0 29902.1 0 0 -29902.1 0 0 22714.6 0 0 -22714.6 0 0 2223.07 0 0 -2223.07 0 0 29867.4 0 0 -29867.4 0 0 22166 0 0 -22166 0 0 2176.92 0 0 -2176.92
0 0 30195.5 0 0 -30195.5 0 0 22315.6 0 0 -22315.6 0 0 2468.71 0 0 -2468.71 0 0 30164.9 0 0 -30164.9 0 0 21749.9 0 0 -21749.9 0 0 2425.3 0 0 -2425.3
0 0 30510.1 0 0 -30510.1 0 0 21752.2 0 0 -21752.2 0 0 2748 0 0 -2748 0 0 30485.3 0 0 -30485.3 0 0 21163 0 0 -21163 0 0 2707.8 0 0 -2707.8
0 0 30840 0 0 -30840 0 0 21042.7 0 0 -21042.7 0 0 3055.92 0 0 -3055.92 0 0 30822.8 0 0 -30822.8 0 0 20424.1 0 0 -20424.1 0 0 3019.97 0 0 -3019.97
0 0 31179 0 0 -31179 0 0 20208.9 0 0 -20208.9 0 0 3387.07 0 0 -3387.07 0 0 31171.1 0 0 -31171.1 0 0 19556.3 0 0 -19556.3 0 0 3355.83 0 0 -3355.83
0 0 31521 0 0 -31521 0 0 19275.8 0 0 -19275.8 0 0 3735.34 0 0 -3735.34 0 0 31523.6 0 0 -31523.6 0 0 18585 0 0 -18585 0 0 3709.21 0 0 -3709.21
0 0 31859.4 0 0 -31859.4 0 0 18277.4 0 0 -18277.4 0 0 4056.29 0 0 -4056.29 0 0 31873.7 0 0 -31873.7 0 0 17542.5 0 0 -17542.5 0 0 4042.88 0 0 -4042.88
0 0 32186.6 0 0 -32186.6 0 0 17232.2 0 0 -17232.2 0 0 4377.1 0 0 -4377.1 0 0 32212.2 0 0 -32212.2 0 0 16465.5 0 0 -16465.5 0 0 4342.76 0 0 -4342.76
0 0 32492.3 0 0 -32492.3 0 0 16176.4 0 0 -16176.4 0 0 4687.25 0 0 -4687.25 0 0 32530.4 0 0 -32530.4 0 0 15362.6 0 0 -15362.6 0 0 4660.16 0 0 -4660.16
0 0 32766.4 0 0 -32766.4 0 0 15131.4 0 0 -15131.4 0 0 4991.98 0 0 -4991.98 0 0 32816.8 0 0 -32816.8 0 0 14278.4 0 0 -14278.4 0 0 4962.04 0 0 -4962.04
0 0 32999.1 0 0 -32999.1 0 0 14127.8 0 0 -14127.8 0 0 5284.11 0 0 -5284.11 0 0 33061.4 0 0 -33061.4 0 0 13235.6 0 0 -13235.6 0 0 5251.53 0 0 -5251.53
0 0 33182.7 0 0 -33182.7 0 0 13191.7 0 0 -13191.7 0 0 5557.53 0 0 -5557.53 0 0 33256.4 0 0 -33256.4 0 0 12262.9 0 0 -12262.9 0 0 5520.36 0 0 -5520.36
0 0 33311.9 0 0 -33311.9 0 0 12347.2 0 0 -12347.2 0 0 5805.25 0 0 -5805.25 0 0 33395.8 0 0 -33395.8 0 0 11384.6 0 0 -11384.6 0 0 5765 0 0 -5765
0 0 33381.9 0 0 -33381.9 0 0 11615.5 0 0 -11615.5 0 0 6022.15 0 0 -6022.15 0 0 33475.2 0 0 -33475.2 0 0 10622.3 0 0 -10622.3 0 0 5981.31 0 0 -5981.31
0 0 33373.3 0 0 -33373.3 0 0 11015.1 0 0 -11015.1 0 0 6205.44 0 0 -6205.44 0 0 33480.1 0 0 -33480.1 0 0 9995.65 0 0 -9995.65 0 0 6164.58 0 0 -6164.58
0 0 33212.6 0 0 -33212.6 0 0 10566.9 0 0 -10566.9 0 0 6353.01 0 0 -6353.01 0 0 33327.1 0 0 -33327.1 0 0 9529.18 0 0 -9529.18 0 0 6310.79 0 0 -6310.79
0 0 32878.4 0 0 -32878.4 0 0 10281.4 0 0 -10281.4 0 0 6462.24 0 0 -6462.24 0 0 32994 0 0 -32994 0 0 9231.77 0 0 -9231.77 0 0 6418.02 0 0 -6418.02
0 0 32361.4 0 0 -32361.4 0 0 10162.3 0 0 -10162.3 0 0 6531.06 0 0 -6531.06 0 0 32469.7 0 0 -32469.7 0 0 9109.27 0 0 -9109.27 0 0 6484.81 0 0 -6484.81
0 0 31653.4 0 0 -31653.4 0 0 10208.6 0 0 -10208.6 0 0 6558.08 0 0 -6558.08 0 0 31746.1 0 0 -31746.1 0 0 9159.48 0 0 -9159.48 0 0 6511.33 0 0 -6511.33
0 0 30751.9 0 0 -30751.9 0 0 10413.3 0 0 -10413.3 0 0 6541.13 0 0 -6541.13 0 0 30820.8 0 0 -30820.8 0 0 9375.67 0 0 -9375.67 0 0 6494.79 0 0 -6494.79
0 0 29665.1 0 0 -29665.1 0 0 10762.8 0 0 -10762.8 0 0 6479.35 0 0 -6479.35 0 0 29702.1 0 0 -29702.1 0 0 9744.95 0 0 -9744.95 0 0 6430.61 0 0 -6430.61
0 0 28413.5 0 0 -28413.5 0 0 11237.8 0 0 -11237.8 0 0 6375.32 0 0 -6375.32 0 0 28411.6 0 0 -28411.6 0 0 10245.7 0 0 -10245.7 0 0 6323.85 0 0 -6323.85
0 0 27027.5 0 0 -27027.5 0 0 11813.2 0 0 -11813.2 0 0 6232.48 0 0 -6232.48 0 0 26981 0 0 -26981 0 0 10852 0 0 -10852 0 0 6177.52 0 0 -6177.52
0 0 25540.7 0 0 -25540.7 0 0 12460.5 0 0 -12460.5 0 0 6054.83 0 0 -6054.83 0 0 25445.4 0 0 -25445.4 0 0 11533.9 0 0 -11533.9 0 0 5996.29 0 0 -5996.29
0 0 23986.2 0 0 -23986.2 0 0 13148.3 0 0 -13148.3 0 0 5847.29 0 0 -5847.29 0 0 23839.2 0 0 -23839.2 0 0 12259 0 0 -12259 0 0 5785.07 0 0 -5785.07
0 0 22393.5 0 0 -22393.5 0 0 13844.5 0 0 -13844.5 0 0 5615.34 0 0 -5615.34 0 0 22193.7 0 0 -22193.7 0 0 12993.6 0 0 -12993.6 0 0 5549.14 0 0 -5549.14
0 0 20790.2 0 0 -20790.2 0 0 14516.7 0 0 -14516.7 0 0 5364.54 0 0 -5364.54 0 0 20537.8 0 0 -20537.8 0 0 13703.6 0 0 -13703.6 0 0 5294.14 0 0 -5294.14
0 0 19202.8 0 0 -19202.8 0 0 15132.8 0 0 -15132.8 0 0 5100.34 0 0 -5100.34 0 0 18899.5 0 0 -18899.5 0 0 14355.3 0 0 -14355.3 0 0 5025.81 0 0 -5025.81
0 0 17657.4 0 0 -17657.4 0 0 15662 0 0 -15662 0 0 4828.04 0 0 -4828.04 0 0 17306.4 0 0 -17306.4 0 0 14916.9 0 0 -14916.9 0 0 4749.82 0 0 -4749.82
0 0 16176.3 0 0 -16176.3 0 0 16076.5 0 0 -16076.5 0 0 4552.78 0 0 -4552.78 0 0 15781.7 0 0 -15781.7 0 0 15358.9 0 0 -15358.9 0 0 4471.44 0 0 -4471.44
0 0 14774.7 0 0 -14774.7 0 0 16351.9 0 0 -16351.9 0 0 4279.37 0 0 -4279.37 0 0 14341.9 0 0 -14341.9 0 0 15656.2 0 0 -15656.2 0 0 4195.46 0 0 -4195.46
0 0 13461.5 0 0 -13461.5 0 0 16468.3 0 0 -16468.3 0 0 4012 0 0 -4012 0 0 12996.4 0 0 -12996.4 0 0 15787.7 0 0 -15787.7 0 0 3926.08 0 0 -3926.08
0 0 12242.6 0 0 -12242.6 0 0 16410.3 0 0 -16410.3 0 0 3754.13 0 0 -3754.13 0 0 11751.8 0 0 -11751.8 0 0 15737.5 0 0 -15737.5 0 0 3666.86 0 0 -3666.86
0 0 11124.3 0 0 -11124.3 0 0 16167.1 0 0 -16167.1 0 0 3508.42 0 0 -3508.42 0 0 10614.8 0 0 -10614.8 0 0 15494 0 0 -15494 0 0 3420.61 0 0 -3420.61
0 0 10113.6 0 0 -10113.6 0 0 15732.6 0 0 -15732.6 0 0 3276.75 0 0 -3276.75 0 0 9592.87 0 0 -9592.87 0 0 15051 0 0 -15051 0 0 3189.31 0 0 -3189.31
0 0 9217.12 0 0 -9217.12 0 0 15106 0 0 -15106 0 0 3060.23 0 0 -3060.23 0 0 8692.48 0 0 -8692.48 0 0 14407.3 0 0 -14407.3 0 0 2974.04 0 0 -2974.04
0 0 8437.77 0 0 -8437.77 0 0 14291.7 0 0 -14291.7 0 0 2859.12 0 0 -2859.12 0 0 7916.67 0 0 -7916.67 0 0 13567.8 0 0 -13567.8 0 0 2774.98 0 0 -2774.98
0 0 7773.2 0 0 -7773.2 0 0 13299.9 0 0 -13299.9 0 0 2672.8 0 0 -2672.8 0 0 7262.75 0 0 -7262.75 0 0 12542.9 0 0 -12542.9 0 0 2591.44 0 0 -2591.44
0 0 7214.17 0 0 -7214.17 0 0 12146.2 0 0 -12146.2 0 0 2499.79 0 0 -2499.79 0 0 6720.89 0 0 -6720.89 0 0 11348.9 0 0 -11348.9 0 0 2421.92 0 0 -2421.92
0 0 6743.85 0 0 -6743.85 0 0 10851 0 0 -10851 0 0 2337.89 0 0 -2337.89 0 0 6273.38 0 0 -6273.38 0 0 10007.1 0 0 -10007.1 0 0 2264.16 0 0 -2264.16
0 0 6339.2 0 0 -6339.2 0 0 9439.35 0 0 -9439.35 0 0 2184.29 0 0 -2184.29 0 0 5896.05 0 0 -5896.05 0 0 8543.6 0 0 -8543.6 0 0 2115.23 0 0 -2115.23
0 0 5973.4 0 0 -5973.4 0 0 7939.3 0 0 -7939.3 0 0 2035.71 0 0 -2035.71 0 0 5560.74 0 0 -5560.74 0 0 6987.7 0 0 -6987.7 0 0 1971.69 0 0 -1971.69
0 0 5618.39 0 0 -5618.39 0 0 6381.18 0 0 -6381.18 0 0 1888.53 0 0 -1888.53 0 0 5237.99 0 0 -5237.99 0 0 5371.09 0 0 -5371.09 0 0 1829.76 0 0 -1829.76
0 0 5247.68 0 0 -5247.68 0 0 4796.31 0 0 -4796.31 0 0 1738.91 0 0 -1738.91 0 0 4899.87 0 0 -4899.87 0 0 3726.51 0 0 -3726.51 0 0 1685.47 0 0 -1685.47
0 0 4838.74 0 0 -4838.74 0 0 3215.87 0 0 -3215.87 0 0 1583.01 0 0 -1583.01 0 0 4522.49 0 0 -4522.49 0 0 2086.52 0 0 -2086.52 0 0 1534.84 0 0 -1534.84
0 0 4373.91 0 0 -4373.91 0 0 1669.96 0 0 -1669.96 0 0 1417.11 0 0 -1417.11 0 0 4086.96 0 0 -4086.96 0 0 482.557 0 0 -482.557 0 0 1374.03 0 0 -1374.03
0 0 3839.67 0 0 -3839.67 0 0 186.849 0 0 -186.849 0 0 1237.81 0 0 -1237.81 0 0 3578.65 0 0 -3578.65 0 0 -1055.82 0 0 1055.82 0 0 1199.48 0 0 -1199.48
0 0 3231.9 0 0 -3231.9 0 0 -1206.6 0 0 1206.6 0 0 1041.65 0 0 -1041.65 0 0 2997.87 0 0 -2997.87 0 0 -2507.45 0 0 2507.45 0 0 1005.37 0 0 -1005.37
0 0 2544.02 0 0 -2544.02 0 0 -2492.51 0 0 2492.51 0 0 824.199 0 0 -824.199 0 0 2356.61 0 0 -2356.61 0 0 -3828.15 0 0 3828.15 0 0 793.738 0 0 -793.738
0 0 1773.35 0 0 -1773.35 0 0 -3645.94 0 0 3645.94 0 0 587.392 0 0 -587.392 0 0 1607.81 0 0 -1607.81 0 0 -5014.87 0 0 5014.87 0 0 560.107 0 0 -560.107
0 0 912.539 0 0 -912.539 0 0 -4654.37 0 0 4654.37 0 0 329.095 0 0 -329.095 0 0 761.95 0 0 -761.95 0 0 -6054.2 0 0 6054.2 0 0 302.462 0 0 -302.462
0 0 -8.29498 0 0 8.29498 0 0 -5512.37 0 0 5512.37 0 0 48.4124 0 0 -48.4124 0 0 -40.2842 0 0 40.2842 0 0 -6943.64 0 0 6943.64 0 0 24.0175 0 0 -24.0175
0 0 -424.702 0 0 424.702 0 0 -6265.76 0 0 6265.76 0 0 -230.331 0 0 230.331 0 0 -483.218 0 0 483.218 0 0 -7738.85 0 0 7738.85 0 0 -242.344 0 0 242.344
0 0 -917.832 0 0 917.832 0 0 -6856.77 0 0 6856.77 0 0 -520.876 0 0 520.876 0 0 -963.868 0 0 963.868 0 0 -8343.14 0 0 8343.14 0 0 -524.652 0 0 524.652
0 0 -1441.21 0 0 1441.21 0 0 -7277.53 0 0 7277.53 0 0 -825.211 0 0 825.211 0 0 -1481.3 0 0 1481.3 0 0 -8773.33 0 0 8773.33 0 0 -826.432 0 0 826.432
0 0 -1994.09 0 0 1994.09 0 0 -7524.34 0 0 7524.34 0 0 -1146.49 0 0 1146.49 0 0 -2030.04 0 0 2030.04 0 0 -9030.29 0 0 9030.29 0 0 -1145.21 0 0 1145.21
0 0 -2575.46 0 0 2575.46 0 0 -7603.37 0 0 7603.37 0 0 -1483.28 0 0 1483.28 0 0 -2610.9 0 0 2610.9 0 0 -9116.67 0 0 9116.67 0 0 -1473.47 0 0 1473.47
0 0 -3185.83 0 0 3185.83 0 0 -7524.97 0 0 7524.97 0 0 -1831.04 0 0 1831.04 0 0 -3223.01 0 0 3223.01 0 0 -9035.94 0 0 9035.94 0 0 -1813.48 0 0 1813.48
0 0 -3825.89 0 0 3825.89 0 0 -7299.4 0 0 7299.4 0 0 -2184.88 0 0 2184.88 0 0 -3866.63 0 0 3866.63 0 0 -8801.97 0 0 8801.97 0 0 -2160.71 0 0 2160.71
0 0 -4496.49 0 0 4496.49 0 0 -6940.2 0 0 6940.2 0 0 -2539.84 0 0 2539.84 0 0 -4543.14 0 0 4543.14 0 0 -8430.29 0 0 8430.29 0 0 -2512.21 0 0 2512.21
0 0 -5199.25 0 0 5199.25 0 0 -6464.59 0 0 6464.59 0 0 -2892.42 0 0 2892.42 0 0 -5253.72 0 0 5253.72 0 0 -7939.37 0 0 7939.37 0 0 -2861.86 0 0 2861.86
0 0 -5936.01 0 0 5936.01 0 0 -5893.12 0 0 5893.12 0 0 -3238.84 0 0 3238.84 0 0 -5999.66 0 0 5999.66 0 0 -7349.26 0 0 7349.26 0 0 -3204.52 0 0 3204.52
0 0 -6708.28 0 0 6708.28 0 0 -5247.95 0 0 5247.95 0 0 -3574.11 0 0 3574.11 0 0 -6782.05 0 0 6782.05 0 0 -6682.52 0 0 6682.52 0 0 -3535.31 0 0 3535.31
0 0 -7517.21 0 0 7517.21 0 0 -4552.78 0 0 4552.78 0 0 -3892.21 0 0 3892.21 0 0 -7601.56 0 0 7601.56 0 0 -5964.3 0 0 5964.3 0 0 -3849.5 0 0 3849.5
0 0 -8362.83 0 0 8362.83 0 0 -3832.85 0 0 3832.85 0 0 -4187.27 0 0 4187.27 0 0 -8458.15 0 0 8458.15 0 0 -5221.04 0 0 5221.04 0 0 -4142.14 0 0 4142.14
0 0 -9243.52 0 0 9243.52 0 0 -3114.06 0 0 3114.06 0 0 -4454.39 0 0 4454.39 0 0 -9349.94 0 0 9349.94 0 0 -4479.92 0 0 4479.92 0 0 -4407.93 0 0 4407.93
0 0 -10156 0 0 10156 0 0 -2422.46 0 0 2422.46 0 0 -4689.35 0 0 4689.35 0 0 -10273.5 0 0 10273.5 0 0 -3768.04 0 0 3768.04 0 0 -4641.72 0 0 4641.72
0 0 -11096.2 0 0 11096.2 0 0 -1783.6 0 0 1783.6 0 0 -4887.9 0 0 4887.9 0 0 -11224.4 0 0 11224.4 0 0 -3112.06 0 0 3112.06 0 0 -4838.89 0 0 4838.89
0 0 -12058.9 0 0 12058.9 0 0 -1221.74 0 0 1221.74 0 0 -5045.76 0 0 5045.76 0 0 -12197.4 0 0 12197.4 0 0 -2537.38 0 0 2537.38 0 0 -4995.48 0 0 4995.48
0 0 -13038.2 0 0 13038.2 0 0 -758.794 0 0 758.794 0 0 -5159.11 0 0 5159.11 0 0 -13185.2 0 0 13185.2 0 0 -2064.34 0 0 2064.34 0 0 -5108.46 0 0 5108.46
0 0 -14027.9 0 0 14027.9 0 0 -414.725 0 0 414.725 0 0 -5225.2 0 0 5225.2 0 0 -14180.6 0 0 14180.6 0 0 -1716.76 0 0 1716.76 0 0 -5174.63 0 0 5174.63
0 0 -15019.2 0 0 15019.2 0 0 -207.788 0 0 207.788 0 0 -5242.08 0 0 5242.08 0 0 -15176.2 0 0 15176.2 0 0 -1510.6 0 0 1510.6 0 0 -5192.4 0 0 5192.4
0 0 -16002.3 0 0 16002.3 0 0 -152.675 0 0 152.675 0 0 -5203.86 0 0 5203.86 0 0 -16161.3 0 0 16161.3 0 0 -1463.18 0 0 1463.18 0 0 -5154.29 0 0 5154.29
0 0 -16965.3 0 0 16965.3 0 0 -260.321 0 0 260.321 0 0 -5108.72 0 0 5108.72 0 0 -17123.9 0 0 17123.9 0 0 -1585.85 0 0 1585.85 0 0 -5056.9 0 0 5056.9
0 0 -17896.1 0 0 17896.1 0 0 -537.688 0 0 537.688 0 0 -4956.72 0 0 4956.72 0 0 -18051.9 0 0 18051.9 0 0 -1884.8 0 0 1884.8 0 0 -4902.71 0 0 4902.71
0 0 -18783.2 0 0 18783.2 0 0 -986.745 0 0 986.745 0 0 -4749.99 0 0 4749.99 0 0 -18933.7 0 0 18933.7 0 0 -2362.53 0 0 2362.53 0 0 -4693.11 0 0 4693.11
0 0 -19617.3 0 0 19617.3 0 0 -1605.04 0 0 1605.04 0 0 -4491.86 0 0 4491.86 0 0 -19760 0 0 19760 0 0 -3016.21 0 0 3016.21 0 0 -4431.21 0 0 4431.21
0 0 -20391.9 0 0 20391.9 0 0 -2385.37 0 0 2385.37 0 0 -4186.72 0 0 4186.72 0 0 -20524.3 0 0 20524.3 0 0 -3838.32 0 0 3838.32 0 0 -4121.01 0 0 4121.01
0 0 -21103.9 0 0 21103.9 0 0 -3315.86 0 0 3315.86 0 0 -3839.62 0 0 3839.62 0 0 -21223.9 0 0 21223.9 0 0 -4816.43 0 0 4816.43 0 0 -3767.8 0 0 3767.8
0 0 -21754.1 0 0 21754.1 0 0 -4380.27 0 0 4380.27 0 0 -3456.37 0 0 3456.37 0 0 -21859.8 0 0 21859.8 0 0 -5933.52 0 0 5933.52 0 0 -3377.85 0 0 3377.85
0 0 -22347.5 0 0 22347.5 0 0 -5558.35 0 0 5558.35 0 0 -3043.72 0 0 3043.72 0 0 -22437 0 0 22437 0 0 -7168.51 0 0 7168.51 0 0 -2958.23 0 0 2958.23
0 0 -22892 0 0 22892 0 0 -6826.46 0 0 6826.46 0 0 -2609.32 0 0 2609.32 0 0 -22963.9 0 0 22963.9 0 0 -8496.84 0 0 8496.84 0 0 -2516.55 0 0 2516.55
0 0 -23397.5 0 0 23397.5 0 0 -8158.35 0 0 8158.35 0 0 -2161.39 0 0 2161.39 0 0 -23450.9 0 0 23450.9 0 0 -9891.31 0 0 9891.31 0 0 -2060.94 0 0 2060.94
0 0 -23874.9 0 0 23874.9 0 0 -9526.02 0 0 9526.02 0 0 -1708.34 0 0 1708.34 0 0 -23909.2 0 0 23909.2 0 0 -11322.8 0 0 11322.8 0 0 -1599.92 0 0 1599.92
0 0 -24334.6 0 0 24334.6 0 0 -10900.6 0 0 10900.6 0 0 -1258.62 0 0 1258.62 0 0 -24349.6 0 0 24349.6 0 0 -12761.5 0 0 12761.5 0 0 -1142.21 0 0 1142.21
0 0 -24786.2 0 0 24786.2 0 0 -12253.2 0 0 12253.2 0 0 -820.614 0 0 820.614 0 0 -24782.2 0 0 24782.2 0 0 -14177.1 0 0 14177.1 0 0 -696.522 0 0 696.522
0 0 -25237.8 0 0 25237.8 0 0 -13555.7 0 0 13555.7 0 0 -402.622 0 0 402.622 0 0 -25215.5 0 0 25215.5 0 0 -15540.4 0 0 15540.4 0 0 -271.289 0 0 271.289
0 0 -25696.4 0 0 25696.4 0 0 -14779.3 0 0 14779.3 0 0 -26.1485 0 0 26.1485 0 0 -25657 0 0 25657 0 0 -16821.1 0 0 16821.1 0 0 104.32 0 0 -104.32
0 0 -26167.8 0 0 26167.8 0 0 -15898.4 0 0 15898.4 0 0 286.112 0 0 -286.112 0 0 -26113.5 0 0 26113.5 0 0 -17985.5 0 0 17985.5 0 0 404.72 0 0 -404.72
0 0 -26656.6 0 0 26656.6 0 0 -16893.8 0 0 16893.8 0 0 562.399 0 0 -562.399 0 0 -26588.8 0 0 26588.8 0 0 -19031.4 0 0 19031.4 0 0 689.21 0 0 -689.21
0 0 -27166.5 0 0 27166.5 0 0 -17750.5 0 0 17750.5 0 0 798.28 0 0 -798.28 0 0 -27087 0 0 27087 0 0 -19929 0 0 19929 0 0 925.303 0 0 -925.303
0 0 -27700 0 0 27700 0 0 -18453 0 0 18453 0 0 989.189 0 0 -989.189 0 0 -27611.6 0 0 27611.6 0 0 -20666.2 0 0 20666.2 0 0 1116.8 0 0 -1116.8
0 0 -28259 0 0 28259 0 0 -18990.8 0 0 18990.8 0 0 1132.13 0 0 -1132.13 0 0 -28163.9 0 0 28163.9 0 0 -21231.7 0 0 21231.7 0 0 1258.12 0 0 -1258.12
0 0 -28844.2 0 0 28844.2 0 0 -19357.1 0 0 19357.1 0 0 1223.3 0 0 -1223.3 0 0 -28745.2 0 0 28745.2 0 0 -21618.9 0 0 21618.9 0 0 1348.11 0 0 -1348.11
0 0 -29455.8 0 0 29455.8 0 0 -19549.9 0 0 19549.9 0 0 1260.39 0 0 -1260.39 0 0 -29355.2 0 0 29355.2 0 0 -21826.5 0 0 21826.5 0 0 1386.12 0 0 -1386.12
0 0 -30092.6 0 0 30092.6 0 0 -19571.4 0 0 19571.4 0 0 1241.31 0 0 -1241.31 0 0 -29993.1 0 0 29993.1 0 0 -21856 0 0 21856 0 0 1369.16 0 0 -1369.16
0 0 -30752.8 0 0 30752.8 0 0 -19428.4 0 0 19428.4 0 0 1164.06 0 0 -1164.06 0 0 -30656.9 0 0 30656.9 0 0 -21713 0 0 21713 0 0 1290.88 0 0 -1290.88
0 0 -31433.2 0 0 31433.2 0 0 -19131.6 0 0 19131.6 0 0 1030.58 0 0 -1030.58 0 0 -31343.3 0 0 31343.3 0 0 -21409.7 0 0 21409.7 0 0 1155.34 0 0 -1155.34
0 0 -32128.8 0 0 32128.8 0 0 -18696 0 0 18696 0 0 843.275 0 0 -843.275 0 0 -32047.1 0 0 32047.1 0 0 -20961.7 0 0 20961.7 0 0 965.051 0 0 -965.051
0 0 -32832.8 0 0 32832.8 0 0 -18140.1 0 0 18140.1 0 0 605.438 0 0 -605.438 0 0 -32761 0 0 32761 0 0 -20388 0 0 20388 0 0 724.19 0 0 -724.19
0 0 -33536.7 0 0 33536.7 0 0 -17485.3 0 0 17485.3 0 0 321.783 0 0 -321.783 0 0 -33475.6 0 0 33475.6 0 0 -19710.2 0 0 19710.2 0 0 437.295 0 0 -437.295
0 0 -34232 0 0 34232 0 0 -16755.6 0 0 16755.6 0 0 -2.31137 0 0 2.31137 0 0 -34182.7 0 0 34182.7 0 0 -18953.6 0 0 18953.6 0 0 109.578 0 0 -109.578
0 0 -34911.8 0 0 34911.8 0 0 -15978.7 0 0 15978.7 0 0 -351.441 0 0 351.441 0 0 -34875 0 0 34875 0 0 -18145.4 0 0 18145.4 0 0 -247.212 0 0 247.212
0 0 -35570.7 0 0 35570.7 0 0 -15178.9 0 0 15178.9 0 0 -722.978 0 0 722.978 0 0 -35546.4 0 0 35546.4 0 0 -17319.3 0 0 17319.3 0 0 -611.052 0 0 611.052
0 0 -36203.9 0 0 36203.9 0 0 -14385.7 0 0 14385.7 0 0 -1112.25 0 0 1112.25 0 0 -36192.3 0 0 36192.3 0 0 -16493.2 0 0 16493.2 0 0 -1006.16 0 0 1006.16
0 0 -36806.7 0 0 36806.7 0 0 -13622.7 0 0 13622.7 0 0 -1517.41 0 0 1517.41 0 0 -36807.4 0 0 36807.4 0 0 -15700.7 0 0 15700.7 0 0 -1412.31 0 0 1412.31
0 0 -37374.2 0 0 37374.2 0 0 -12916.7 0 0 12916.7 0 0 -1931.18 0 0 1931.18 0 0 -37386.7 0 0 37386.7 0 0 -14966.4 0 0 14966.4 0 0 -1826.01 0 0 1826.01
0 0 -37902.1 0 0 37902.1 0 0 -12291.6 0 0 12291.6 0 0 -2346.75 0 0 2346.75 0 0 -37925.4 0 0 37925.4 0 0 -14316.2 0 0 14316.2 0 0 -2240.17 0 0 2240.17
0 0 -38182.7 0 0 38182.7 0 0 -11791.9 0 0 11791.9 0 0 -2755.72 0 0 2755.72 0 0 -38249.8 0 0 38249.8 0 0 -13789.5 0 0 13789.5 0 0 -2648.92 0 0 2648.92
0 0 -38252.8 0 0 38252.8 0 0 -11423 0 0 11423 0 0 -3155.63 0 0 3155.63 0 0 -38322.1 0 0 38322.1 0 0 -13413.6 0 0 13413.6 0 0 -3047.16 0 0 3047.16
0 0 -38315.7 0 0 38315.7 0 0 -11182.8 0 0 11182.8 0 0 -3540.5 0 0 3540.5 0 0 -38387 0 0 38387 0 0 -13162 0 0 13162 0 0 -3432.96 0 0 3432.96
0 0 -38371.2 0 0 38371.2 0 0 -11079.4 0 0 11079.4 0 0 -3907.48 0 0 3907.48 0 0 -38444.1 0 0 38444.1 0 0 -13058.4 0 0 13058.4 0 0 -3797.05 0 0 3797.05
0 0 -38419.4 0 0 38419.4 0 0 -11119.8 0 0 11119.8 0 0 -4252.09 0 0 4252.09 0 0 -38493.6 0 0 38493.6 0 0 -13101.8 0 0 13101.8 0 0 -4140.51 0 0 4140.51
0 0 -38460.3 0 0 38460.3 0 0 -11305.7 0 0 11305.7 0 0 -4572.03 0 0 4572.03 0 0 -38535.3 0 0 38535.3 0 0 -13297 0 0 13297 0 0 -4457 0 0 4457
0 0 -38494 0 0 38494 0 0 -11636.9 0 0 11636.9 0 0 -4864.46 0 0 4864.46 0 0 -38569.4 0 0 38569.4 0 0 -13641.2 0 0 13641.2 0 0 -4747.15 0 0 4747.15
0 0 -38520.2 0 0 38520.2 0 0 -12106.3 0 0 12106.3 0 0 -5128.44 0 0 5128.44 0 0 -38595.9 0 0 38595.9 0 0 -14130.8 0 0 14130.8 0 0 -5008.27 0 0 5008.27
0 0 -38538.6 0 0 38538.6 0 0 -12705.6 0 0 12705.6 0 0 -5363.06 0 0 5363.06 0 0 -38614.6 0 0 38614.6 0 0 -14757.6 0 0 14757.6 0 0 -5239.84 0 0 5239.84
0 0 -38549.5 0 0 38549.5 0 0 -13423.6 0 0 13423.6 0 0 -5568.37 0 0 5568.37 0 0 -38624.5 0 0 38624.5 0 0 -15497.4 0 0 15497.4 0 0 -5442.62 0 0 5442.62
0 0 -38553.4 0 0 38553.4 0 0 -14248.5 0 0 14248.5 0 0 -5745.6 0 0 5745.6 0 0 -38626.3 0 0 38626.3 0 0 -16354.7 0 0 16354.7 0 0 -5614.78 0 0 5614.78
0 0 -38504 0 0 38504 0 0 -15170.7 0 0 15170.7 0 0 -5894.43 0 0 5894.43 0 0 -38550.6 0 0 38550.6 0 0 -17311.7 0 0 17311.7 0 0 -5760.33 0 0 5760.33
0 0 -38385.4 0 0 38385.4 0 0 -16171.8 0 0 16171.8 0 0 -6017.22 0 0 6017.22 0 0 -38404 0 0 38404 0 0 -18352.7 0 0 18352.7 0 0 -5878.76 0 0 5878.76
0 0 -38216.7 0 0 38216.7 0 0 -17229.5 0 0 17229.5 0 0 -6115.95 0 0 6115.95 0 0 -38204.5 0 0 38204.5 0 0 -19452.8 0 0 19452.8 0 0 -5973.62 0 0 5973.62
0 0 -38014.2 0 0 38014.2 0 0 -18319.3 0 0 18319.3 0 0 -6193.47 0 0 6193.47 0 0 -37968.9 0 0 37968.9 0 0 -20586.6 0 0 20586.6 0 0 -6047.03 0 0 6047.03
0 0 -37787.9 0 0 37787.9 0 0 -19415.5 0 0 19415.5 0 0 -6252.81 0 0 6252.81 0 0 -37709 0 0 37709 0 0 -21728.4 0 0 21728.4 0 0 -6102.15 0 0 6102.15
0 0 -37541.6 0 0 37541.6 0 0 -20494 0 0 20494 0 0 -6297.05 0 0 6297.05 0 0 -37429.1 0 0 37429.1 0 0 -22852.2 0 0 22852.2 0 0 -6142.2 0 0 6142.2
0 0 -37275.1 0 0 37275.1 0 0 -21531.3 0 0 21531.3 0 0 -6329.29 0 0 6329.29 0 0 -37129.4 0 0 37129.4 0 0 -23933.1 0 0 23933.1 0 0 -6170.46 0 0 6170.46
0 0 -36990 0 0 36990 0 0 -22503.6 0 0 22503.6 0 0 -6352.58 0 0 6352.58 0 0 -36812.2 0 0 36812.2 0 0 -24946.6 0 0 24946.6 0 0 -6190.17 0 0 6190.17
0 0 -36693.4 0 0 36693.4 0 0 -23387.8 0 0 23387.8 0 0 -6370 0 0 6370 0 0 -36485.7 0 0 36485.7 0 0 -25868.8 0 0 25868.8 0 0 -6204.39 0 0 6204.39
0 0 -36396.8 0 0 36396.8 0 0 -24162.6 0 0 24162.6 0 0 -6384.42 0 0 6384.42 0 0 -36162 0 0 36162 0 0 -26677.2 0 0 26677.2 0 0 -6215.93 0 0 6215.93
0 0 -36113.7 0 0 36113.7 0 0 -24808.7 0 0 24808.7 0 0 -6398.33 0 0 6398.33 0 0 -35855.4 0 0 35855.4 0 0 -27351.5 0 0 27351.5 0 0 -6227.34 0 0 6227.34
0 0 -35857.6 0 0 35857.6 0 0 -25309.7 0 0 25309.7 0 0 -6413.74 0 0 6413.74 0 0 -35580.2 0 0 35580.2 0 0 -27874.4 0 0 27874.4 0 0 -6240.73 0 0 6240.73
0 0 -35641.4 0 0 35641.4 0 0 -25652.4 0 0 25652.4 0 0 -6432.11 0 0 6432.11 0 0 -35350.2 0 0 35350.2 0 0 -28232.3 0 0 28232.3 0 0 -6257.72 0 0 6257.72
0 0 -35476.8 0 0 35476.8 0 0 -25827.5 0 0 25827.5 0 0 -6454.42 0 0 6454.42 0 0 -35177.4 0 0 35177.4 0 0 -28415.4 0 0 28415.4 0 0 -6279.29 0 0 6279.29
0 0 -35372.4 0 0 35372.4 0 0 -25829.5 0 0 25829.5 0 0 -6481.12 0 0 6481.12 0 0 -35070.6 0 0 35070.6 0 0 -28417.4 0 0 28417.4 0 0 -6305.9 0 0 6305.9
0 0 -35336.4 0 0 35336.4 0 0 -25656.9 0 0 25656.9 0 0 -6512.02 0 0 6512.02 0 0 -35037.3 0 0 35037.3 0 0 -28237.1 0 0 28237.1 0 0 -6337.24 0 0 6337.24
0 0 -35376 0 0 35376 0 0 -25313.6 0 0 25313.6 0 0 -6546.17 0 0 6546.17 0 0 -35085.5 0 0 35085.5 0 0 -27878.1 0 0 27878.1 0 0 -6372.47 0 0 6372.47
0 0 -35496.5 0 0 35496.5 0 0 -24807.9 0 0 24807.9 0 0 -6582.03 0 0 6582.03 0 0 -35220 0 0 35220 0 0 -27349.2 0 0 27349.2 0 0 -6410.03 0 0 6410.03
0 0 -35699.3 0 0 35699.3 0 0 -24152.4 0 0 24152.4 0 0 -6617.47 0 0 6617.47 0 0 -35442.1 0 0 35442.1 0 0 -26663.6 0 0 26663.6 0 0 -6447.78 0 0 6447.78
0 0 -35979.7 0 0 35979.7 0 0 -23364.2 0 0 23364.2 0 0 -6649.87 0 0 6649.87 0 0 -35746.5 0 0 35746.5 0 0 -25839.3 0 0 25839.3 0 0 -6483.04 0 0 6483.04
0 0 -36324.2 0 0 36324.2 0 0 -22464.3 0 0 22464.3 0 0 -6676.18 0 0 6676.18 0 0 -36119.2 0 0 36119.2 0 0 -24898.4 0 0 24898.4 0 0 -6512.63 0 0 6512.63
0 0 -36709.8 0 0 36709.8 0 0 -21477.8 0 0 21477.8 0 0 -6692.96 0 0 6692.96 0 0 -36535.7 0 0 36535.7 0 0 -23867 0 0 23867 0 0 -6533.06 0 0 6533.06
0 0 -37105.5 0 0 37105.5 0 0 -20432 0 0 20432 0 0 -6696.57 0 0 6696.57 0 0 -36963.6 0 0 36963.6 0 0 -22774 0 0 22774 0 0 -6540.59 0 0 6540.59
0 0 -37476.7 0 0 37476.7 0 0 -19355.8 0 0 19355.8 0 0 -6683.03 0 0 6683.03 0 0 -37366.8 0 0 37366.8 0 0 -21649.7 0 0 21649.7 0 0 -6531.32 0 0 6531.32
0 0 -37789.7 0 0 37789.7 0 0 -18278.5 0 0 18278.5 0 0 -6647.82 0 0 6647.82 0 0 -37710 0 0 37710 0 0 -20524.6 0 0 20524.6 0 0 -6500.12 0 0 6500.12
0 0 -38015.3 0 0 38015.3 0 0 -17227.6 0 0 17227.6 0 0 -6587.41 0 0 6587.41 0 0 -37962.4 0 0 37962.4 0 0 -19427.9 0 0 19427.9 0 0 -6443.46 0 0 6443.46
0 0 -38130.7 0 0 38130.7 0 0 -16228.7 0 0 16228.7 0 0 -6498.62 0 0 6498.62 0 0 -38100.3 0 0 38100.3 0 0 -18386.2 0 0 18386.2 0 0 -6358.09 0 0 6358.09
0 0 -38120.3 0 0 38120.3 0 0 -15304.1 0 0 15304.1 0 0 -6378.91 0 0 6378.91 0 0 -38107 0 0 38107 0 0 -17423 0 0 17423 0 0 -6241.27 0 0 6241.27
0 0 -37973.4 0 0 37973.4 0 0 -14472.8 0 0 14472.8 0 0 -6226.37 0 0 6226.37 0 0 -37971.1 0 0 37971.1 0 0 -16558.1 0 0 16558.1 0 0 -6090.97 0 0 6090.97
0 0 -37682.6 0 0 37682.6 0 0 -13749.9 0 0 13749.9 0 0 -6039.76 0 0 6039.76 0 0 -37684.7 0 0 37684.7 0 0 -15807.4 0 0 15807.4 0 0 -5905.9 0 0 5905.9
0 0 -37243.3 0 0 37243.3 0 0 -13146.6 0 0 13146.6 0 0 -5818.63 0 0 5818.63 0 0 -37242.9 0 0 37242.9 0 0 -15182.4 0 0 15182.4 0 0 -5685.58 0 0 5685.58
0 0 -36653.2 0 0 36653.2 0 0 -12669.4 0 0 12669.4 0 0 -5563.35 0 0 5563.35 0 0 -36643.1 0 0 36643.1 0 0 -14690.1 0 0 14690.1 0 0 -5430.38 0 0 5430.38
0 0 -35911.9 0 0 35911.9 0 0 -12320.8 0 0 12320.8 0 0 -5275.14 0 0 5275.14 0 0 -35885 0 0 35885 0 0 -14332.9 0 0 14332.9 0 0 -5141.54 0 0 5141.54
0 0 -35020.7 0 0 35020.7 0 0 -12098.4 0 0 12098.4 0 0 -4956.08 0 0 4956.08 0 0 -34970 0 0 34970 0 0 -14108.4 0 0 14108.4 0 0 -4821.11 0 0 4821.11
0 0 -33983.2 0 0 33983.2 0 0 -11995.9 0 0 11995.9 0 0 -4609.02 0 0 4609.02 0 0 -33902 0 0 33902 0 0 -14009.9 0 0 14009.9 0 0 -4472.01 0 0 4472.01
0 0 -32805 0 0 32805 0 0 -12002.4 0 0 12002.4 0 0 -4237.55 0 0 4237.55 0 0 -32687 0 0 32687 0 0 -14025.9 0 0 14025.9 0 0 -4097.89 0 0 4097.89
0 0 -31494 0 0 31494 0 0 -12103.5 0 0 12103.5 0 0 -3845.94 0 0 3845.94 0 0 -31333.6 0 0 31333.6 0 0 -14141.4 0 0 14141.4 0 0 -3703.13 0 0 3703.13
0 0 -30060.2 0 0 30060.2 0 0 -12281.2 0 0 12281.2 0 0 -3438.99 0 0 3438.99 0 0 -29852.3 0 0 29852.3 0 0 -14337.4 0 0 14337.4 0 0 -3292.66 0 0 3292.66
0 0 -28515.6 0 0 28515.6 0 0 -12514.8 0 0 12514.8 0 0 -3022.02 0 0 3022.02 0 0 -28256.1 0 0 28256.1 0 0 -14592.1 0 0 14592.1 0 0 -2871.89 0 0 2871.89
0 0 -26873.9 0 0 26873.9 0 0 -12781 0 0 12781 0 0 -2600.65 0 0 2600.65 0 0 -26559.7 0 0 26559.7 0 0 -14881.3 0 0 14881.3 0 0 -2446.56 0 0 2446.56
0 0 -25151.3 0 0 25151.3 0 0 -13055.3 0 0 13055.3 0 0 -2180.66 0 0 2180.66 0 0 -24780 0 0 24780 0 0 -15179.2 0 0 15179.2 0 0 -2022.6 0 0 2022.6
0 0 -23365.8 0 0 23365.8 0 0 -13312.1 0 0 13312.1 0 0 -1767.91 0 0 1767.91 0 0 -22936.5 0 0 22936.5 0 0 -15458.8 0 0 15458.8 0 0 -1606.01 0 0 1606.01
0 0 -21538 0 0 21538 0 0 -13525.5 0 0 13525.5 0 0 -1368.1 0 0 1368.1 0 0 -21050.8 0 0 21050.8 0 0 -15693.2 0 0 15693.2 0 0 -1202.64 0 0 1202.64
0 0 -19691.2 0 0 19691.2 0 0 -13670.5 0 0 13670.5 0 0 -986.71 0 0 986.71 0 0 -19147.4 0 0 19147.4 0 0 -15856 0 0 15856 0 0 -818.089 0 0 818.089
0 0 -17394.4 0 0 17394.4 0 0 -13719.5 0 0 13719.5 0 0 -543.51 0 0 543.51 0 0 -16783.6 0 0 16783.6 0 0 -15920.9 0 0 15920.9 0 0 -371.689 0 0 371.689
0 0 -15157.2 0 0 15157.2 0 0 -13582.9 0 0 13582.9 0 0 -149.045 0 0 149.045 0 0 -14485.8 0 0 14485.8 0 0 -15791.4 0 0 15791.4 0 0 23.0367 0 0 -23.0367
0 0 -13022.9 0 0 13022.9 0 0 -13223.6 0 0 13223.6 0 0 155.329 0 0 -155.329 0 0 -12300.9 0 0 12300.9 0 0 -15420.4 0 0 15420.4 0 0 304.321 0 0 -304.321
0 0 -11018.7 0 0 11018.7 0 0 -12624.9 0 0 12624.9 0 0 406.975 0 0 -406.975 0 0 -10253.7 0 0 10253.7 0 0 -14808.7 0 0 14808.7 0 0 556.9 0 0 -556.9
0 0 -9147.95 0 0 9147.95 0 0 -11781.2 0 0 11781.2 0 0 608.334 0 0 -608.334 0 0 -8350.57 0 0 8350.57 0 0 -13936.6 0 0 13936.6 0 0 753.294 0 0 -753.294
0 0 -7396.04 0 0 7396.04 0 0 -10695.5 0 0 10695.5 0 0 761.494 0 0 -761.494 0 0 -6575.32 0 0 6575.32 0 0 -12811.6 0 0 12811.6 0 0 899.502 0 0 -899.502
0 0 -5739.65 0 0 5739.65 0 0 -9382.78 0 0 9382.78 0 0 866.767 0 0 -866.767 0 0 -4904.24 0 0 4904.24 0 0 -11448.7 0 0 11448.7 0 0 997.391 0 0 -997.391
0 0 -4156.5 0 0 4156.5 0 0 -7866.01 0 0 7866.01 0 0 926.052 0 0 -926.052 0 0 -3313.45 0 0 3313.45 0 0 -9873.63 0 0 9873.63 0 0 1051.12 0 0 -1051.12
0 0 -2627.2 0 0 2627.2 0 0 -6177.41 0 0 6177.41 0 0 944.59 0 0 -944.59 0 0 -1782.55 0 0 1782.55 0 0 -8119.17 0 0 8119.17 0 0 1065.57 0 0 -1065.57
0 0 -1128.77 0 0 1128.77 0 0 -4355.61 0 0 4355.61 0 0 927.081 0 0 -927.081 0 0 -287.189 0 0 287.189 0 0 -6224.54 0 0 6224.54 0 0 1040.74 0 0 -1040.74
0 0 75.4965 0 0 -75.4965 0 0 -2429.6 0 0 2429.6 0 0 881.788 0 0 -881.788 0 0 419.866 0 0 -419.866 0 0 -4131.28 0 0 4131.28 0 0 979.863 0 0 -979.863
0 0 683.853 0 0 -683.853 0 0 -411.616 0 0 411.616 0 0 811.805 0 0 -811.805 0 0 996.204 0 0 -996.204 0 0 -2063.43 0 0 2063.43 0 0 912.379 0 0 -912.379
0 0 1315.7 0 0 -1315.7 0 0 1540.11 0 0 -1540.11 0 0 740.078 0 0 -740.078 0 0 1601.99 0 0 -1601.99 0 0 -20.3386 0 0 20.3386 0 0 827.651 0 0 -827.651
0 0 2011.23 0 0 -2011.23 0 0 3403.49 0 0 -3403.49 0 0 669.867 0 0 -669.867 0 0 2274.66 0 0 -2274.66 0 0 1925.08 0 0 -1925.08 0 0 750.03 0 0 -750.03
0 0 2783.43 0 0 -2783.43 0 0 5139.07 0 0 -5139.07 0 0 612.187 0 0 -612.187 0 0 3025.19 0 0 -3025.19 0 0 3728.71 0 0 -3728.71 0 0 685.864 0 0 -685.864
0 0 3637.98 0 0 -3637.98 0 0 6702.57 0 0 -6702.57 0 0 576.454 0 0 -576.454 0 0 3858.01 0 0 -3858.01 0 0 5356.56 0 0 -5356.56 0 0 642.537 0 0 -642.537
0 0 4572.74 0 0 -4572.74 0 0 8051 0 0 -8051 0 0 569.45 0 0 -569.45 0 0 4775.36 0 0 -4775.36 0 0 6761.98 0 0 -6761.98 0 0 631.854 0 0 -631.854
0 0 5586.72 0 0 -5586.72 0 0 9160.82 0 0 -9160.82 0 0 598.156 0 0 -598.156 0 0 5774.55 0 0 -5774.55 0 0 7922.94 0 0 -7922.94 0 0 655.859 0 0 -655.859
0 0 6675.05 0 0 -6675.05 0 0 10016.4 0 0 -10016.4 0 0 666.411 0 0 -666.411 0 0 6850.46 0 0 -6850.46 0 0 8817.93 0 0 -8817.93 0 0 720.644 0 0 -720.644
0 0 7827.45 0 0 -7827.45 0 0 10607.9 0 0 -10607.9 0 0 775.876 0 0 -775.876 0 0 7994.35 0 0 -7994.35 0 0 9440.38 0 0 -9440.38 0 0 828.041 0 0 -828.041
0 0 9031.11 0 0 -9031.11 0 0 10939.8 0 0 -10939.8 0 0 926.329 0 0 -926.329 0 0 9192.72 0 0 -9192.72 0 0 9793.88 0 0 -9793.88 0 0 977.928 0 0 -977.928
0 0 10271.9 0 0 -10271.9 0 0 11025.4 0 0 -11025.4 0 0 1113.95 0 0 -1113.95 0 0 10431.1 0 0 -10431.1 0 0 9891.74 0 0 -9891.74 0 0 1167.95 0 0 -1167.95
0 0 11537.1 0 0 -11537.1 0 0 10890 0 0 -10890 0 0 1312.04 0 0 -1312.04 0 0 11697.1 0 0 -11697.1 0 0 9760.96 0 0 -9760.96 0 0 1363.95 0 0 -1363.95
0 0 12818.2 0 0 -12818.2 0 0 10558.2 0 0 -10558.2 0 0 1536.25 0 0 -1536.25 0 0 12981 0 0 -12981 0 0 9428.35 0 0 -9428.35 0 0 1587.1 0 0 -1587.1
0 0 14108.8 0 0 -14108.8 0 0 10066 0 0 -10066 0 0 1781.03 0 0 -1781.03 0 0 14277 0 0 -14277 0 0 8928.44 0 0 -8928.44 0 0 1828.92 0 0 -1828.92
0 0 15403.2 0 0 -15403.2 0 0 9452.69 0 0 -9452.69 0 0 2041.26 0 0 -2041.26 0 0 15578.1 0 0 -15578.1 0 0 8304.31 0 0 -8304.31 0 0 2085.36 0 0 -2085.36
0 0 16693.2 0 0 -16693.2 0 0 8763.53 0 0 -8763.53 0 0 2308.57 0 0 -2308.57 0 0 16875.9 0 0 -16875.9 0 0 7601.14 0 0 -7601.14 0 0 2348.55 0 0 -2348.55
0 0 17968.3 0 0 -17968.3 0 0 8045.59 0 0 -8045.59 0 0 2574.07 0 0 -2574.07 0 0 18159.2 0 0 -18159.2 0 0 6867.49 0 0 -6867.49 0 0 2611.12 0 0 -2611.12
0 0 19216.1 0 0 -19216.1 0 0 7345.95 0 0 -7345.95 0 0 2830.23 0 0 -2830.23 0 0 19415.2 0 0 -19415.2 0 0 6152.71 0 0 -6152.71 0 0 2865.33 0 0 -2865.33
0 0 20424.3 0 0 -20424.3 0 0 6710.76 0 0 -6710.76 0 0 3070.45 0 0 -3070.45 0 0 20630.8 0 0 -20630.8 0 0 5504.52 0 0 -5504.52 0 0 3102.86 0 0 -3102.86
0 0 21580.9 0 0 -21580.9 0 0 6183.07 0 0 -6183.07 0 0 3287.61 0 0 -3287.61 0 0 21793.4 0 0 -21793.4 0 0 4967.29 0 0 -4967.29 0 0 3316.82 0 0 -3316.82
0 0 22676.2 0 0 -22676.2 0 0 5800.85 0 0 -5800.85 0 0 3474.89 0 0 -3474.89 0 0 22892.8 0 0 -22892.8 0 0 4580.08 0 0 -4580.08 0 0 3501.48 0 0 -3501.48
0 0 23703.7 0 0 -23703.7 0 0 5595.51 0 0 -5595.51 0 0 3627.18 0 0 -3627.18 0 0 23922 0 0 -23922 0 0 4375.51 0 0 -4375.51 0 0 3651.8 0 0 -3651.8
0 0 24660.2 0 0 -24660.2 0 0 5590.83 0 0 -5590.83 0 0 3741.32 0 0 -3741.32 0 0 24877.5 0 0 -24877.5 0 0 4378.25 0 0 -4378.25 0 0 3763.97 0 0 -3763.97
0 0 25545.8 0 0 -25545.8 0 0 5802.14 0 0 -5802.14 0 0 3815.35 0 0 -3815.35 0 0 25759.1 0 0 -25759.1 0 0 4604.18 0 0 -4604.18 0 0 3835.69 0 0 -3835.69
0 0 26364.3 0 0 -26364.3 0 0 6235.9 0 0 -6235.9 0 0 3848.41 0 0 -3848.41 0 0 26570.5 0 0 -26570.5 0 0 5059.96 0 0 -5059.96 0 0 3866.56 0 0 -3866.56
0 0 27121.5 0 0 -27121.5 0 0 6890.04 0 0 -6890.04 0 0 3839 0 0 -3839 0 0 27317.5 0 0 -27317.5 0 0 5743.48 0 0 -5743.48 0 0 3854.97 0 0 -3854.97
0 0 27822 0 0 -27822 0 0 7754.03 0 0 -7754.03 0 0 3786.98 0 0 -3786.98 0 0 28004.6 0 0 -28004.6 0 0 6644.63 0 0 -6644.63 0 0 3799.06 0 0 -3799.06
