-7.62118e-06 -1.02726e-05 -2.39244e-06
-7.57019e-06 -1.02828e-05 -2.3896e-06
-7.45125e-06 -1.03074e-05 -2.38173e-06
-7.20612e-06 -1.0351e-05 -2.37139e-06
-6.92716e-06 -1.03939e-05 -2.36452e-06
-6.5675e-06 -1.04392e-05 -2.36334e-06
-6.12042e-06 -1.04819e-05 -2.3715e-06
-5.57863e-06 -1.05159e-05 -2.39362e-06
-4.9341e-06 -1.05342e-05 -2.43425e-06
-4.17818e-06 -1.05292e-05 -2.49786e-06
-3.30296e-06 -1.04926e-05 -2.58871e-06
-2.3034e-06 -1.04146e-05 -2.71062e-06
-1.18464e-06 -1.02843e-05 -2.86681e-06
3.17815e-08 -1.00933e-05 -3.05715e-06
1.34667e-06 -9.82125e-06 -3.28704e-06
2.72832e-06 -9.45533e-06 -3.55387e-06
4.14067e-06 -8.98065e-06 -3.85478e-06
5.54349e-06 -8.38462e-06 -4.18278e-06
6.89544e-06 -7.65883e-06 -4.52634e-06
8.15544e-06 -6.79973e-06 -4.86946e-06
9.28206e-06 -5.80892e-06 -5.1896e-06
1.02293e-05 -4.69274e-06 -5.45977e-06
1.09434e-05 -3.46179e-06 -5.6493e-06
1.13595e-05 -2.13061e-06 -5.72411e-06
1.14026e-05 -7.1799e-07 -5.64716e-06
1.09925e-05 7.40832e-07 -5.38283e-06
1.00651e-05 2.21347e-06 -4.8888e-06
8.59402e-06 3.6612e-06 -4.11535e-06
6.61361e-06 5.01324e-06 -3.01161e-06
4.20878e-06 6.19006e-06 -1.53473e-06
1.48963e-06 7.10737e-06 3.40082e-07
-1.47772e-06 7.6819e-06 2.66174e-06
-4.55629e-06 7.85774e-06 5.43273e-06
-7.67111e-06 7.58862e-06 8.63438e-06
-1.07569e-05 6.84797e-06 1.22319e-05
-1.3791e-05 5.63165e-06 1.61612e-05
-1.67476e-05 3.95371e-06 2.03398e-05
-1.96361e-05 1.85032e-06 2.4662e-05
-2.24517e-05 -6.38856e-07 2.90023e-05
-2.51962e-05 -3.46716e-06 3.32175e-05
-2.78655e-05 -6.53722e-06 3.71817e-05
-3.04456e-05 -9.78222e-06 4.07454e-05
-3.29047e-05 -1.31264e-05 4.37681e-05
-3.51876e-05 -1.65001e-05 4.61153e-05
-3.7229e-05 -1.98362e-05 4.76637e-05
-3.89782e-05 -2.30742e-05 4.83003e-05
-4.04277e-05 -2.61283e-05 4.7919e-05
-4.16186e-05 -2.89341e-05 4.64516e-05
-4.26454e-05 -3.14089e-05 4.3838e-05
-4.36508e-05 -3.34812e-05 4.00451e-05
-4.51641e-05 -3.54141e-05 3.36467e-05
-4.73546e-05 -3.65458e-05 2.54798e-05
-5.06231e-05 -3.687e-05 1.57152e-05
-5.52716e-05 -3.64773e-05 4.6252e-06
-6.14519e-05 -3.55701e-05 -7.56719e-06
-6.91393e-05 -3.44375e-05 -2.03288e-05
-7.81121e-05 -3.34655e-05 -3.30653e-05
-8.79764e-05 -3.30853e-05 -4.53159e-05
-9.82661e-05 -3.37298e-05 -5.65583e-05
-0.000108585 -3.57641e-05 -6.64152e-05
-0.000118691 -3.94412e-05 -7.45975e-05
-0.000128486 -4.48873e-05 -8.09761e-05
-0.000137965 -5.21039e-05 -8.55625e-05
-0.000147178 -6.09787e-05 -8.85143e-05
-0.000156171 -7.13037e-05 -9.0118e-05
-0.000164934 -8.28025e-05 -9.07628e-05
-0.000173398 -9.51452e-05 -9.09189e-05
-0.000181506 -0.000107952 -9.11113e-05
-0.000189278 -0.000120802 -9.18935e-05
-0.0001968 -0.000133258 -9.38077e-05
-0.000204175 -0.000144907 -9.73448e-05
-0.000211433 -0.000155405 -0.000102903
-0.000218488 -0.000164501 -0.00011076
-0.000225196 -0.000172039 -0.000121054
-0.000231426 -0.000177945 -0.00013379
-0.000237087 -0.000182222 -0.000148831
-0.000242132 -0.000184949 -0.000165907
-0.000246555 -0.000186269 -0.000184633
-0.000250396 -0.000186381 -0.000204517
-0.000253731 -0.000185526 -0.000224993
-0.000256649 -0.000183982 -0.000245439
-0.000259245 -0.000182044 -0.000265209
-0.00026164 -0.000180006 -0.000283667
-0.000263993 -0.000178139 -0.000300213
-0.000266499 -0.00017668 -0.000314316
-0.000269343 -0.000175829 -0.000325528
-0.000272621 -0.000175758 -0.000333502
-0.00027626 -0.00017662 -0.000337999
-0.000280027 -0.000178531 -0.000338906
-0.000283599 -0.000181549 -0.000336254
-0.000286085 -0.000184746 -0.000331685
-0.000288466 -0.000189623 -0.000323182
-0.00028981 -0.000195279 -0.000312001
-0.000289946 -0.000201407 -0.000298713
-0.000288734 -0.000207633 -0.000283981
-0.000286031 -0.000213538 -0.00026852
-0.000281702 -0.000218681 -0.00025306
-0.000275617 -0.000222626 -0.000238308
-0.000267651 -0.000224958 -0.000224906
-0.000257697 -0.000225312 -0.000213398
-0.000245684 -0.000223378 -0.000204199
-0.000231564 -0.000218928 -0.00019757
-0.000215346 -0.000211815 -0.000193605
-0.000197146 -0.000201972 -0.000192224
-0.000177249 -0.000189401 -0.000193176
-0.000156078 -0.000174187 -0.000196039
-0.000134072 -0.000156523 -0.000200229
-0.000111632 -0.000136716 -0.000205008
-8.91418e-05 -0.000115168 -0.000209526
-6.69774e-05 -9.23578e-05 -0.000212857
-4.54913e-05 -6.88216e-05 -0.000214043
-2.4984e-05 -4.51311e-05 -0.00021214
-5.67628e-06 -2.189e-05 -0.000206262
1.21796e-05 2.34371e-07 -0.000195685
2.87895e-05 2.05633e-05 -0.000179848
4.4324e-05 3.88971e-05 -0.00015822
5.87671e-05 5.49395e-05 -0.000130721
7.19921e-05 6.8565e-05 -9.74323e-05
8.38253e-05 7.9762e-05 -5.87323e-05
9.41898e-05 8.86475e-05 -1.52616e-05
0.000103203 9.53698e-05 3.13692e-05
0.000111149 0.000100204 8.0993e-05
0.000118415 0.000103452 0.000132428
0.00012539 0.000105504 0.000184331
0.00013248 0.000106783 0.000235485
0.000140115 0.000107741 0.000284508
0.00014874 0.000108833 0.00033014
0.000158766 0.000110499 0.000371191
0.000170512 0.000113163 0.000406587
0.000184136 0.000117223 0.000435448
0.000199562 0.00012304 0.000457084
0.000216498 0.000130918 0.00047106
0.000234517 0.000141054 0.00047722
0.000253168 0.0001535 0.000475713
0.000272031 0.000168141 0.000466999
0.000290751 0.00018469 0.000451841
0.000309049 0.000202699 0.000431265
0.000326706 0.000221589 0.000406514
0.000343566 0.000240679 0.000378987
0.000359505 0.000259241 0.000350169
0.000374388 0.000276544 0.000321545
0.000388046 0.000291911 0.000294533
0.000400306 0.000304745 0.000270414
0.000411008 0.000314564 0.000250272
0.000419441 0.000320706 0.000235122
0.00042575 0.000323198 0.000225367
0.000430401 0.000322353 0.000221024
0.000433264 0.000318216 0.000222199
0.000434467 0.000311088 0.000228426
0.000428307 0.000302587 0.000238809
0.000418281 0.000292422 0.000252714
0.000405958 0.00028032 0.00027
0.000392312 0.000266828 0.000289257
0.000377701 0.000252352 0.000309715
0.000362702 0.000237401 0.000330165
0.000347879 0.000222467 0.000349533
0.000333798 0.000208033 0.000366743
0.000320969 0.000194577 0.000380779
0.000309865 0.000182517 0.000390779
0.000300902 0.000172221 0.00039602
0.000294395 0.000163993 0.000395975
0.000290576 0.000158051 0.00039033
0.000289568 0.000154534 0.000379002
0.00029139 0.000153495 0.00036214
0.00029595 0.000154897 0.000340127
0.0003027 0.000158682 0.000313556
0.000309602 0.000165071 0.000283059
0.000316368 0.000173626 0.000249742
0.000322626 0.000183911 0.000214795
0.000328138 0.000195307 0.000179593
0.000331879 0.000204772 0.000152197
0.000334938 0.000214152 0.000126276
0.000337234 0.000223087 0.000102532
0.000338692 0.000231233 8.16191e-05
0.000339235 0.000238275 6.41215e-05
0.000338794 0.000243938 5.05341e-05
0.000337298 0.000247996 4.12462e-05
0.000334655 0.000250288 3.65279e-05
0.000330749 0.00025072 3.65206e-05
0.000325439 0.000249266 4.12343e-05
0.000318574 0.000245965 5.05492e-05
0.000310028 0.000240911 6.4224e-05
0.000299738 0.00023423 8.19076e-05
0.000287733 0.000226079 0.000103152
0.000274141 0.000216628 0.000127424
0.000259177 0.000206061 0.000154121
0.000243097 0.000194583 0.000182578
0.000226154 0.000182414 0.000212085
0.000208579 0.000169798 0.000241897
0.000190584 0.000156984 0.000271258
0.000172376 0.000144219 0.000299422
0.000154162 0.000131736 0.000325666
0.00013614 0.00011975 0.000349315
0.000118487 0.000108453 0.00036975
0.000101353 9.80083e-05 0.00038643
8.48597e-05 8.85453e-05 0.000398897
6.91119e-05 8.01528e-05 0.000406794
5.41939e-05 7.28763e-05 0.000409867
4.01699e-05 6.67175e-05 0.000407973
2.70843e-05 6.1634e-05 0.000401079
1.49598e-05 5.7542e-05 0.000389263
3.79721e-06 5.43197e-05 0.000372706
-6.42111e-06 5.18115e-05 0.000351684
-1.57297e-05 4.98317e-05 0.000326564
-2.01399e-05 4.7351e-05 0.000297996
-2.35681e-05 4.47006e-05 0.000266586
-2.6174e-05 4.24533e-05 0.000231981
-2.8241e-05 3.98862e-05 0.000195463
-2.9973e-05 3.71878e-05 0.000157082
-3.16146e-05 3.40903e-05 0.000117666
-3.33855e-05 3.05442e-05 7.76544e-05
-3.54868e-05 2.64131e-05 3.76476e-05
-3.81459e-05 2.16022e-05 -1.82927e-06
-4.15669e-05 1.60078e-05 -4.09065e-05
-4.59219e-05 9.60069e-06 -7.84144e-05
-5.1336e-05 2.23166e-06 -0.000113964
-5.78953e-05 -6.12398e-06 -0.000147154
-6.56508e-05 -1.54519e-05 -0.00017768
-7.45987e-05 -2.57859e-05 -0.00020527
-8.4728e-05 -3.70818e-05 -0.000229744
-9.60054e-05 -4.92989e-05 -0.000250981
-0.000108382 -6.23703e-05 -0.000268931
-0.000121793 -7.62036e-05 -0.000283628
-0.000136148 -9.06858e-05 -0.000295172
-0.000151326 -0.000105686 -0.000303728
-0.00016717 -0.000121061 -0.000309517
-0.000183491 -0.000136658 -0.000312806
-0.000200074 -0.000152318 -0.000313906
-0.00021669 -0.000167872 -0.000313162
-0.000233102 -0.000183148 -0.000310945
-0.00024907 -0.000197972 -0.000307639
-0.000264357 -0.000212171 -0.000303637
-0.00027874 -0.000225572 -0.000299324
-0.000292015 -0.000238009 -0.000295074
-0.000304005 -0.000249324 -0.000291235
-0.000314562 -0.000259369 -0.000288126
-0.000323577 -0.00026801 -0.000286022
-0.000330978 -0.000275132 -0.00028515
-0.000336736 -0.000280639 -0.000285681
-0.000340859 -0.00028446 -0.000287726
-0.000343385 -0.000286554 -0.000291329
-0.000344379 -0.000286912 -0.000296465
-0.00034393 -0.000285559 -0.000303042
-0.000342164 -0.000282545 -0.000310904
-0.000339236 -0.000277962 -0.000319826
-0.000335331 -0.000271928 -0.000329531
-0.000330649 -0.000264594 -0.000339688
-0.000325393 -0.000256139 -0.000349925
-0.000319765 -0.000246772 -0.000359836
-0.000313958 -0.00023672 -0.000368998
-0.000308153 -0.000226225 -0.000376979
-0.00030253 -0.000215538 -0.000383355
-0.000297265 -0.000204907 -0.000387725
-0.000292529 -0.000194572 -0.00038972
-0.000288479 -0.000184759 -0.000389021
-0.000285253 -0.000175679 -0.000385365
-0.000282965 -0.000167514 -0.000378556
-0.000281703 -0.000160424 -0.000368476
-0.000281534 -0.000154531 -0.000355086
-0.000282509 -0.000149924 -0.000338436
-0.000284663 -0.00014665 -0.00031866
-0.000287677 -0.00014477 -0.000295971
-0.000291112 -0.00014451 -0.000270528
-0.000296165 -0.000145267 -0.00024298
-0.000302302 -0.000147229 -0.000213677
-0.000309464 -0.000150212 -0.000183102
-0.000317403 -0.000154121 -0.00015184
-0.000325998 -0.000158784 -0.000120449
-0.000334653 -0.000164162 -8.95086e-05
-0.000342989 -0.000170086 -5.9603e-05
-0.00035076 -0.0001764 -3.13651e-05
-0.000357689 -0.000182937 -5.36092e-06
-0.000363475 -0.000189509 1.75734e-05
-0.000367827 -0.000195954 3.71729e-05
-0.000370479 -0.000202074 5.29982e-05
-0.000371206 -0.00020768 6.46364e-05
-0.000369866 -0.00021258 7.17458e-05
-0.000366412 -0.000216582 7.40593e-05
-0.000360863 -0.000219506 7.14015e-05
-0.000353281 -0.000221195 6.36937e-05
-0.000343766 -0.000221525 5.09671e-05
-0.000332449 -0.000220405 3.33616e-05
-0.000319496 -0.000217785 1.09851e-05
-0.000305111 -0.00021367 -1.59312e-05
-0.000289545 -0.000208069 -4.6681e-05
-0.000273077 -0.000201057 -8.06994e-05
-0.000256005 -0.000192748 -0.000117326
-0.000238606 -0.000183303 -0.000155828
-0.000221125 -0.000172931 -0.000195392
-0.000203782 -0.000161875 -0.000235154
-0.000186777 -0.000150404 -0.000274234
-0.000170285 -0.000138804 -0.00031175
-0.000154449 -0.000127369 -0.000346843
-0.000139392 -0.000116384 -0.000378698
-0.000125221 -0.000106115 -0.000406562
-0.000112039 -9.67963e-05 -0.000429771
-9.99341e-05 -8.86239e-05 -0.000447763
-8.89722e-05 -8.17484e-05 -0.000460094
-7.9181e-05 -7.62737e-05 -0.00046645
-7.0551e-05 -7.2252e-05 -0.000466649
-6.30405e-05 -6.96807e-05 -0.00046065
-5.65802e-05 -6.85009e-05 -0.000448553
-5.10742e-05 -6.85989e-05 -0.000430592
-4.64014e-05 -6.98097e-05 -0.000407133
-4.2415e-05 -7.19226e-05 -0.000378657
-3.89401e-05 -7.46892e-05 -0.000345751
-3.57728e-05 -7.78315e-05 -0.000309084
-3.26813e-05 -8.10518e-05 -0.000269396
-2.96166e-05 -8.40167e-05 -0.000227473
-3.1747e-05 -8.50481e-05 -0.000184631
-3.19137e-05 -8.58527e-05 -0.000140931
-3.17174e-05 -8.55075e-05 -9.71598e-05
-3.03517e-05 -8.39525e-05 -5.4335e-05
-2.77382e-05 -8.10281e-05 -1.28202e-05
-2.37876e-05 -7.65549e-05 2.60769e-05
-1.84075e-05 -7.04046e-05 6.247e-05
-1.15891e-05 -6.24887e-05 9.58865e-05
-3.40944e-06 -5.27781e-05 0.000126007
6.21035e-06 -4.12092e-05 0.000152581
1.72162e-05 -2.78903e-05 0.000175479
2.95228e-05 -1.28463e-05 0.00019463
4.29893e-05 3.54382e-06 0.000210078
5.75133e-05 2.12983e-05 0.000222086
7.28835e-05 4.02027e-05 0.000230867
8.89019e-05 6.00016e-05 0.000236817
0.000105315 8.0423e-05 0.000240327
0.000121831 0.000101169 0.000241876
0.000137973 0.000121985 0.000241942
0.000153621 0.00014249 0.00024108
0.000168626 0.000162329 0.000239843
0.000182904 0.000181139 0.000238767
0.000196413 0.00019857 0.000238366
0.00020914 0.000214306 0.000239094
0.000221074 0.000228073 0.000241337
0.000232202 0.000239658 0.000245394
0.0002416 0.000249062 0.000251428
0.000248731 0.000256473 0.000259432
0.000254736 0.000261338 0.000269596
0.000259244 0.000263951 0.000281785
0.000262342 0.000264274 0.000295805
0.00026406 0.00026246 0.000311426
0.000264485 0.000258687 0.000328254
0.000263758 0.000253148 0.000345896
0.000262049 0.000246088 0.00036386
0.000259557 0.000237771 0.000381627
0.0002565 0.000228485 0.000398647
0.000253103 0.000218528 0.00041436
0.000249592 0.000208208 0.00042821
0.000246193 0.000197829 0.000439666
0.000243116 0.000187684 0.000448236
0.000240556 0.000178051 0.000453483
0.000238688 0.000169181 0.00045504
0.000237663 0.000161294 0.000452625
0.000237603 0.000154578 0.000446046
0.000238584 0.000149178 0.00043521
0.000240642 0.000145201 0.000420131
0.000243767 0.000142711 0.000400929
0.000247919 0.000141721 0.000377831
0.000253037 0.000142197 0.000351171
0.000258923 0.00014406 0.000321384
0.000265062 0.000147309 0.000288935
0.000271488 0.000151726 0.000254445
0.000278085 0.000157091 0.0002186
0.000284751 0.000163165 0.000182103
0.000291375 0.000169675 0.000145711
0.000297845 0.000176342 0.000110181
0.000304052 0.000182885 7.6261e-05
0.000309885 0.000189036 4.46619e-05
0.000315219 0.000194551 1.60445e-05
0.000319903 0.00019922 -9.0026e-06
0.000323757 0.00020287 -3.02385e-05
0.000326597 0.000205387 -4.6912e-05
0.000328269 0.000206684 -5.87984e-05
0.000328653 0.00020672 -6.56458e-05
0.000327672 0.000205481 -6.7351e-05
0.000325286 0.000202997 -6.39445e-05
0.000321502 0.000199333 -5.55767e-05
0.000316377 0.000194586 -4.25011e-05
0.000310031 0.000188879 -2.50641e-05
0.000302648 0.000182347 -3.96335e-06
0.000294447 0.000175159 2.04537e-05
0.00028565 0.000167507 4.77004e-05
0.000276471 0.000159607 7.7105e-05
0.000267095 0.000151691 0.000108005
0.000257691 0.000143998 0.00013971
0.000248431 0.000136765 0.00017153
0.0002395 0.00013021 0.000202794
0.000231086 0.000124533 0.000232859
0.000223376 0.000119906 0.000261129
0.000216545 0.000116473 0.000287068
0.000210754 0.000114343 0.000310212
0.000206136 0.000113591 0.000330178
0.000202779 0.000114259 0.000346672
0.000200713 0.000116359 0.000359489
0.000199896 0.000119871 0.000368518
0.000200218 0.000124747 0.000373742
0.000201515 0.000130902 0.00037524
0.000203581 0.000138218 0.000373183
0.000206168 0.00014654 0.000367829
0.000208995 0.000155683 0.000359516
0.000211772 0.000165424 0.000348654
0.000214218 0.00017551 0.000335713
0.000216064 0.000185656 0.00032121
0.000217068 0.000195557 0.000305693
0.000217023 0.00020489 0.000289726
0.000215763 0.000213327 0.000273869
0.000213164 0.000220542 0.000258658
0.000209134 0.000226223 0.00024459
0.000203605 0.000230089 0.000232101
0.000196524 0.000231899 0.00022155
0.000187852 0.00023146 0.000213209
0.000177572 0.000228633 0.000207251
0.000165695 0.000223333 0.000203744
0.000152271 0.000215533 0.000202651
0.000137383 0.000205265 0.000203824
0.000121152 0.000192619 0.000207016
0.000103829 0.000177726 0.00021188
8.70042e-05 0.000160361 0.000218157
6.86753e-05 0.000141485 0.000225093
4.9783e-05 0.000121159 0.000231977
3.02585e-05 9.9704e-05 0.000238509
1.0513e-05 7.75011e-05 0.000243799
-9.12161e-06 5.48518e-05 0.000247366
-2.85939e-05 3.20908e-05 0.000248517
-4.72361e-05 9.60268e-06 0.000246691
-6.48916e-05 -1.23605e-05 0.000241351
-8.13159e-05 -3.36839e-05 0.00023186
-9.62844e-05 -5.37336e-05 0.000218077
-0.000109628 -7.23264e-05 0.000199686
-0.000121225 -8.92047e-05 0.000176543
-0.000130988 -0.0001042 0.000148599
-0.0001389 -0.000117191 0.000115958
-0.000144998 -0.000128095 7.88279e-05
-0.00014936 -0.000136883 3.75469e-05
-0.000152114 -0.000143592 -7.93779e-06
-0.000153432 -0.000148311 -5.67556e-05
-0.000153543 -0.000151152 -0.000107987
-0.000152705 -0.000152282 -0.000160972
-0.000151215 -0.000151914 -0.000214839
-0.000149394 -0.000150296 -0.000268666
-0.000147569 -0.00014771 -0.000321508
-0.000146061 -0.000144461 -0.000372419
-0.000145165 -0.00014087 -0.000420473
-0.000145146 -0.000137269 -0.00046477
-0.000146227 -0.000133979 -0.00050447
-0.000148619 -0.000131293 -0.000633247
-0.00015276 -0.00012796 -0.00123728
-0.000158454 -0.000126129 -0.00168965
-0.000165399 -0.000126712 -0.0019637
-0.000174178 -0.000128401 -0.00215568
-0.00018435 -0.000132502 -0.00220546
-0.000196092 -0.000138307 -0.00219987
-0.00020933 -0.000145701 -0.00218811
-0.000223936 -0.000154812 -0.00216993
-0.000239875 -0.000165342 -0.00214605
-0.000256995 -0.000177164 -0.00211693
-0.000275129 -0.000190009 -0.00208335
-0.000294053 -0.000203621 -0.00204618
-0.000313521 -0.000217714 -0.00200634
-0.000333264 -0.000231979 -0.00196479
-0.000352989 -0.000246102 -0.00192248
-0.000372382 -0.00025977 -0.00188039
-0.000391118 -0.000272696 -0.00183949
-0.000408876 -0.000284611 -0.00180072
-0.000425347 -0.000295275 -0.00176494
-0.000496156 -0.000304378 -0.001733
-0.000925516 -0.000308437 -0.00170697
-0.00123796 -0.000312 -0.00168602
-0.00145805 -0.000315647 -0.0016532
-0.00162458 -0.000316532 -0.00161269
-0.00165507 -0.000318144 -0.00158769
-0.00165699 -0.000317069 -0.00158384
-0.00165401 -0.000314323 -0.00158903
-0.0016488 -0.000309878 -0.00159969
-0.00164149 -0.000303749 -0.00161708
-0.00163225 -0.000296207 -0.00164051
-0.00162137 -0.000287373 -0.00166882
-0.00160911 -0.000277528 -0.0017012
-0.00159579 -0.000266912 -0.00173686
-0.00158174 -0.000255794 -0.00177494
-0.00156733 -0.000244463 -0.00181452
-0.00155292 -0.000233214 -0.00185464
-0.00153886 -0.000222336 -0.00189436
-0.0015255 -0.000212105 -0.00193276
-0.00151317 -0.000202782 -0.00196894
-0.00150216 -0.000194612 -0.0020021
-0.00149276 -0.000187804 -0.00203151
-0.00148519 -0.000182538 -0.00205654
-0.00147962 -0.000178954 -0.00207667
-0.00147619 -0.000177152 -0.00209151
-0.00147497 -0.000177193 -0.00210082
-0.00147518 -0.00017925 -0.00210442
-0.00147664 -0.000183349 -0.00210253
-0.00147935 -0.000189311 -0.0020958
-0.00148322 -0.000196998 -0.00208449
-0.00148814 -0.000206174 -0.00206904
-0.00149396 -0.000216574 -0.00204997
-0.0015005 -0.000227894 -0.00202792
-0.00150755 -0.000239801 -0.00200357
-0.00151489 -0.000251949 -0.00197764
-0.00152227 -0.000263985 -0.00195091
-0.00152944 -0.000275561 -0.00192414
-0.00153615 -0.000286339 -0.00189807
-0.00154213 -0.000296004 -0.00187343
-0.00154717 -0.000304269 -0.00185086
-0.00155106 -0.000310883 -0.00183093
-0.00155365 -0.000315636 -0.00181415
-0.00155482 -0.000318363 -0.0018009
-0.00155451 -0.000318952 -0.00179146
-0.00155268 -0.000317345 -0.00178596
-0.00154935 -0.000313544 -0.00178446
-0.00154455 -0.00030761 -0.00178684
-0.00153834 -0.000299668 -0.0017929
-0.00153076 -0.0002899 -0.0018023
-0.00152188 -0.000278538 -0.00181461
-0.00151179 -0.000265852 -0.0018293
-0.00150062 -0.00025214 -0.00184581
-0.00148852 -0.000237715 -0.00186348
-0.00147566 -0.000222901 -0.00188165
-0.00146224 -0.000208019 -0.00189965
-0.00144845 -0.000193383 -0.00191681
-0.00143446 -0.000179288 -0.0019325
-0.00142044 -0.000166007 -0.00194611
-0.00140654 -0.000153775 -0.00195713
-0.0013929 -0.000142784 -0.00196509
-0.00137969 -0.000133171 -0.00196966
-0.00136709 -0.000125014 -0.00197057
-0.0013553 -0.000118331 -0.00196768
-0.0013445 -0.000113094 -0.00196094
-0.00133483 -0.000109229 -0.00195042
-0.00132638 -0.000106633 -0.00193625
-0.00131917 -0.000105177 -0.00191869
-0.00131313 -0.000104709 -0.00189804
-0.00130816 -0.000105059 -0.00187469
-0.00130413 -0.000106046 -0.00184908
-0.00130084 -0.000107473 -0.0018217
-0.00129809 -0.000109142 -0.00179309
-0.00129566 -0.00011085 -0.00176377
-0.00129332 -0.000112395 -0.0017343
-0.00129087 -0.000113581 -0.00170524
-0.00128808 -0.000114223 -0.00167709
-0.00128472 -0.000114174 -0.00162078
-0.00128054 -0.000113512 -0.00153167
-0.00127537 -0.000111727 -0.00145203
-0.00126903 -0.000108906 -0.00138043
-0.00126497 -0.000104124 -0.00131974
-0.00125938 -9.78871e-05 -0.00127103
-0.00125276 -9.10337e-05 -0.00122978
-0.00124471 -8.26835e-05 -0.0012015
-0.00123535 -7.34561e-05 -0.00118214
-0.0012248 -6.31818e-05 -0.00117326
-0.00121318 -5.21149e-05 -0.00117243
-0.00119793 -4.03244e-05 -0.00117468
-0.00115048 -2.83261e-05 -0.00117871
-0.00110241 -1.59158e-05 -0.00118428
-0.001053 -3.20287e-06 -0.00119122
-0.0010034 9.38518e-06 -0.00119895
-0.00095404 2.19658e-05 -0.00120712
-0.000905643 3.42823e-05 -0.00121528
-0.000858803 4.61907e-05 -0.00122302
-0.000814093 5.75168e-05 -0.00122996
-0.000772018 6.81102e-05 -0.00123573
-0.000733037 7.78357e-05 -0.00124
-0.000697553 8.65722e-05 -0.00124251
-0.0006659 9.42233e-05 -0.00124302
-0.000638308 0.000100715 -0.00124137
-0.000614895 0.000106 -0.00123747
-0.000595673 0.000110053 -0.00123127
-0.00058056 0.000112881 -0.00122281
-0.000569389 0.000114518 -0.00121219
-0.000561901 0.000115022 -0.00119959
-0.000557748 0.000114481 -0.00118521
-0.000556487 0.000112994 -0.00116487
-0.000556789 0.000110567 -0.00110285
-0.000557585 0.000107491 -0.00103909
-0.00055872 0.000103913 -0.00097328
-0.000559975 9.99785e-05 -0.000907324
-0.000561182 9.59051e-05 -0.000842653
-0.000562141 9.18565e-05 -0.000780655
-0.000562681 8.80349e-05 -0.000722792
-0.000562632 8.46157e-05 -0.000670373
-0.000561842 8.17674e-05 -0.000624622
-0.00056017 7.96449e-05 -0.000586601
-0.0005575 7.8394e-05 -0.000557201
-0.000546879 7.80994e-05 -0.000537043
-0.000529326 7.88026e-05 -0.000526405
-0.000507807 8.07198e-05 -0.000525189
-0.000482297 8.37881e-05 -0.000527826
-0.000453093 8.80761e-05 -0.000533148
-0.00042054 9.3564e-05 -0.000540978
-0.000385053 0.00010021 -0.000551082
-0.000347123 0.000107939 -0.000563163
-0.000307278 0.00011664 -0.000576855
-0.000266083 0.000126176 -0.000591743
-0.000224114 0.000136379 -0.000607365
-0.000181941 0.000147062 -0.000623231
-0.000140122 0.000158019 -0.000638832
-9.94801e-05 0.000169054 -0.00065366
-6.08115e-05 0.000179991 -0.000667238
-2.41334e-05 0.000190546 -0.000679046
1.02619e-05 0.000200528 -0.000688651
4.20438e-05 0.000209742 -0.000695659
7.09135e-05 0.000218008 -0.000699732
9.57499e-05 0.000225246 -0.000700625
0.000114747 0.000231552 -0.000698278
0.000129725 0.000236575 -0.00069245
0.000139812 0.000240425 -0.00068318
0.000145202 0.00024303 -0.000670541
0.000146064 0.000244435 -0.000654671
0.000144991 0.000244666 -0.000635814
0.000142745 0.000243787 -0.000614254
0.000139433 0.000241921 -0.000590396
0.000135192 0.000239186 -0.000564664
0.000130179 0.000235731 -0.000537552
0.000124578 0.000231664 -0.000473448
0.000118596 0.000226978 -0.000370949
0.000112322 0.000222256 -0.000270819
0.000105979 0.000217415 -0.000172431
9.97083e-05 0.000212751 -7.88441e-05
9.36754e-05 0.000208388 8.48464e-06
8.80365e-05 0.000204478 8.78421e-05
8.29256e-05 0.000201157 0.000157713
7.8437e-05 0.000198527 0.000216856
7.41894e-05 0.000196768 0.000264097
7.01346e-05 0.000195972 0.000298579
6.62514e-05 0.000196123 0.000319938
6.2474e-05 0.000197219 0.000327955
5.87296e-05 0.000199184 0.000326408
5.49603e-05 0.000201878 0.000321371
5.11291e-05 0.000205154 0.000312994
4.72211e-05 0.000208809 0.000301594
4.32138e-05 0.000212617 0.000287519
3.90594e-05 0.00021634 0.000271165
3.46826e-05 0.000219732 0.000252961
2.99905e-05 0.000222552 0.000233353
2.4891e-05 0.000224562 0.000212792
1.93008e-05 0.000225538 0.00019172
1.31354e-05 0.00022528 0.000170552
6.29758e-06 0.000223616 0.000149668
-1.31539e-06 0.000220413 0.000129398
-9.78752e-06 0.000215572 0.000110018
-1.91651e-05 0.000209028 9.1743e-05
-2.94504e-05 0.00020075 7.47244e-05
-4.06094e-05 0.000190746 5.90444e-05
-5.2585e-05 0.000179064 4.47144e-05
-6.53087e-05 0.000165798 3.16762e-05
-7.87104e-05 0.000151082 1.98048e-05
-9.27258e-05 0.000135092 8.91457e-06
-0.000107294 0.000118038 -1.23187e-06
-0.000122352 0.000100156 -1.09123e-05
-0.000137826 8.16985e-05 -2.04325e-05
-0.000153624 6.29241e-05 -3.01123e-05
-0.000169633 4.40898e-05 -4.02725e-05
-0.000185718 2.54423e-05 -5.12218e-05
-0.000201733 7.21403e-06 -6.32462e-05
-0.000227158 -1.05019e-05 -7.66474e-05
-0.000275347 -2.72298e-05 -9.17882e-05
-0.000321209 -4.3115e-05 -0.000108571
-0.000365241 -5.78386e-05 -0.000127107
-0.000406645 -7.13565e-05 -0.000147477
-0.000434462 -8.4454e-05 -0.000209595
-0.000461351 -9.57857e-05 -0.000290956
-0.000483532 -0.000105875 -0.000377712
-0.000502265 -0.00011448 -0.000469328
-0.000517276 -0.000121638 -0.000565482
-0.000528726 -0.000127368 -0.00066495
-0.000536885 -0.0001317 -0.000766975
-0.000542122 -0.000134721 -0.000870172
-0.000544897 -0.000136511 -0.000973224
-0.000545696 -0.000137183 -0.00107462
-0.000545486 -0.000136863 -0.00117283
-0.00054501 -0.000135694 -0.0012663
-0.000544464 -0.000133841 -0.00135345
-0.000544043 -0.000131472 -0.00143271
-0.000543936 -0.000128764 -0.0015026
-0.00054432 -0.000125894 -0.00156173
-0.000545363 -0.000123037 -0.00160885
-0.000550247 -0.000120343 -0.00164292
-0.000558734 -0.00011795 -0.00166315
-0.000570345 -0.000116043 -0.00166877
-0.000585294 -0.000114704 -0.00166589
-0.00060367 -0.000114031 -0.00165859
-0.000625433 -0.00011412 -0.00164688
-0.000650468 -0.000115023 -0.00163093
-0.000678573 -0.000116771 -0.00161095
-0.000709485 -0.000119363 -0.00158727
-0.000742885 -0.000122766 -0.00156027
-0.000778417 -0.000126921 -0.00153044
-0.000815691 -0.000131739 -0.00149831
-0.000854296 -0.00013711 -0.00146446
-0.000893786 -0.000142903 -0.00142953
-0.000933688 -0.000148979 -0.00139417
-0.000973501 -0.000155189 -0.00135905
-0.00101271 -0.000161383 -0.00132484
-0.00105078 -0.000167419 -0.00129218
-0.0010872 -0.000173177 -0.00123364
-0.00112137 -0.000178736 -0.00114916
-0.00115309 -0.000183606 -0.00107576
-0.0011819 -0.000187892 -0.00101267
-0.0012075 -0.000191459 -0.000961902
-0.00122971 -0.000194266 -0.000924144
-0.00124838 -0.000196305 -0.000900012
-0.00126348 -0.000197568 -0.000889893
-0.00127505 -0.000198097 -0.000891077
-0.00128322 -0.000197973 -0.000897004
-0.0012882 -0.000197269 -0.00090736
-0.00129028 -0.00019609 -0.000921896
-0.00129018 -0.000194559 -0.000940314
-0.0012893 -0.000192803 -0.000962253
-0.00128785 -0.000190982 -0.000987323
-0.00128599 -0.000189254 -0.00102847
-0.00128392 -0.000187674 -0.00109309
-0.00128179 -0.000186583 -0.00116072
-0.0012798 -0.000186032 -0.00123094
-0.00127811 -0.000186212 -0.00130227
-0.00127688 -0.00018725 -0.00137367
-0.0012756 -0.00018938 -0.00144406
-0.00127336 -0.00019296 -0.00151218
-0.00127251 -0.000197497 -0.00157762
-0.00127268 -0.000203091 -0.00163981
-0.00127401 -0.000209769 -0.0016978
-0.00127649 -0.000217462 -0.00175137
-0.00128008 -0.000226158 -0.00179999
-0.00128476 -0.000235761 -0.00184353
-0.00129063 -0.000246178 -0.00188183
-0.001311 -0.00025721 -0.00191499
-0.00133377 -0.000268791 -0.00194316
-0.00135775 -0.000280924 -0.00196626
-0.00138222 -0.000293412 -0.00198483
-0.001407 -0.000306054 -0.00199921
-0.00143181 -0.000318649 -0.00200995
-0.00145622 -0.000330994 -0.00201759
-0.00147969 -0.000342893 -0.0020227
-0.00150163 -0.000354157 -0.00202587
-0.00152149 -0.000364603 -0.00202769
-0.00153883 -0.000374049 -0.00202872
-0.00155335 -0.000382324 -0.00202946
-0.00156481 -0.000389269 -0.00203039
-0.00157305 -0.00039475 -0.00203189
-0.001578 -0.000398657 -0.00203423
-0.00157965 -0.000400911 -0.00203762
-0.0015791 -0.000401456 -0.00204213
-0.00157753 -0.000400263 -0.00204773
-0.001575 -0.000397361 -0.00205426
-0.0015716 -0.000392802 -0.00206144
-0.00156745 -0.000386677 -0.00206888
-0.00156266 -0.000379114 -0.00207612
-0.00155731 -0.000370277 -0.00208257
-0.00155146 -0.000360364 -0.0020876
-0.00154514 -0.000349597 -0.00209054
-0.00153838 -0.000338214 -0.00209084
-0.00153121 -0.000326448 -0.00208926
-0.00152366 -0.000314529 -0.00208576
-0.00151581 -0.00030267 -0.00208007
-0.00150774 -0.000291059 -0.00207199
-0.00149955 -0.00027986 -0.00206133
-0.0014913 -0.00026921 -0.00204801
-0.00148307 -0.000259216 -0.00203197
-0.0014749 -0.000249955 -0.00201324
-0.0014668 -0.000241472 -0.0019919
-0.00145877 -0.000233783 -0.00196811
-0.00145079 -0.000226868 -0.0019421
-0.00144281 -0.00022068 -0.00191415
-0.00143476 -0.000215143 -0.00188458
-0.00142658 -0.000210154 -0.00185378
-0.00141816 -0.000205589 -0.00182216
-0.00140943 -0.000201305 -0.00179019
-0.00140028 -0.000197148 -0.0017583
-0.00139062 -0.000192952 -0.00172697
-0.00138038 -0.000188547 -0.00169666
-0.0013695 -0.000183764 -0.00166779
-0.00135495 -0.00017701 -0.00163436
-0.00133934 -0.00016913 -0.00159322
-0.00132263 -0.000160117 -0.00150075
-0.00130488 -0.000149472 -0.00142729
-0.00128603 -0.000137305 -0.00136923
-0.00126603 -0.000123564 -0.00132746
-0.00124484 -0.000108412 -0.00130097
-0.00122253 -9.20044e-05 -0.00128875
-0.00119923 -7.45781e-05 -0.00128792
-0.00117511 -5.64248e-05 -0.00129098
-0.0011544 -3.69676e-05 -0.00129655
-0.00109755 -1.76411e-05 -0.00130366
-0.00102962 1.11851e-06 -0.0013109
-0.000961737 1.87279e-05 -0.00131808
-0.000896567 3.53705e-05 -0.00132414
-0.000834651 5.05436e-05 -0.00132835
-0.000777226 6.41101e-05 -0.00133016
-0.000724935 7.58538e-05 -0.00132909
-0.00067841 8.56768e-05 -0.00132481
-0.000638015 9.35442e-05 -0.00131717
-0.000603905 9.94897e-05 -0.00130618
-0.000575979 0.000103606 -0.00129215
-0.000553851 0.000105974 -0.00124524
-0.000536866 0.000106815 -0.00117658
-0.000524274 0.000106438 -0.00110093
-0.000514998 0.0001051 -0.00102067
-0.000507984 0.000103109 -0.00093802
-0.000502138 0.000100799 -0.000855579
-0.000496363 9.85005e-05 -0.000775852
-0.000489619 9.65367e-05 -0.000701317
-0.000480938 9.52105e-05 -0.00063425
-0.00046945 9.47919e-05 -0.000576624
-0.000454401 9.5506e-05 -0.000530065
-0.000435183 9.75257e-05 -0.000495756
-0.000411363 0.000100967 -0.000474404
-0.000382683 0.000105885 -0.000466202
-0.000349086 0.000112272 -0.000467525
-0.000310756 0.000120046 -0.000472296
-0.000268197 0.000129116 -0.000480096
-0.000222138 0.000139326 -0.000490423
-0.000173507 0.000150487 -0.000502673
-0.000123353 0.000162368 -0.000516157
-7.28008e-05 0.000174708 -0.000530126
-2.29926e-05 0.000187225 -0.000543802
2.49856e-05 0.000199619 -0.000556402
7.01713e-05 0.000211587 -0.000567174
0.000111765 0.000222835 -0.000575426
0.000149141 0.000233089 -0.000580554
0.000181813 0.000242119 -0.000582074
0.000209432 0.000249745 -0.000579641
0.000231779 0.000255851 -0.000573068
0.000248757 0.00026039 -0.000562334
0.000260392 0.000263384 -0.000547586
0.000266873 0.000264922 -0.00052913
0.000268569 0.000265146 -0.000507421
0.000267801 0.00026424 -0.000483037
0.000265987 0.000262393 -0.000436052
0.000263364 0.000259698 -0.000337932
0.000260085 0.000256761 -0.000239313
0.000256004 0.000253767 -0.000141627
0.000249952 0.000251386 -4.84339e-05
0.000244694 0.000249138 3.87135e-05
0.000240035 0.00024741 0.000117359
0.000236275 0.000246224 0.000185759
0.000233329 0.000245782 0.000241961
0.000229874 0.000246456 0.000284476
0.000225981 0.000248197 0.000312578
0.000221611 0.000250916 0.000326192
0.000216755 0.000254402 0.000327048
0.000211381 0.000258363 0.000323116
0.000205462 0.000262468 0.000315839
0.000198979 0.000266332 0.000305706
0.000191929 0.000269548 0.000293268
0.000184314 0.000271707 0.000279102
0.00017611 0.00027243 0.00026378
0.000167258 0.000271395 0.000247829
0.000157638 0.000268353 0.000231698
0.000147076 0.000263144 0.000215743
0.000135374 0.000255695 0.000200213
0.000122372 0.000246008 0.000185246
0.000107993 0.000234144 0.000170874
9.2254e-05 0.000220219 0.000157027
7.52314e-05 0.000204408 0.000143537
5.70217e-05 0.000186942 0.000130153
3.77362e-05 0.000168096 0.00011655
1.75038e-05 0.000148182 0.000102361
-3.53863e-06 0.000127527 8.71935e-05
-2.52682e-05 0.00010647 7.06565e-05
-4.75954e-05 8.53458e-05 5.23845e-05
-7.0451e-05 6.4465e-05 3.20631e-05
-9.37358e-05 4.40896e-05 9.45656e-06
-0.000117281 2.44122e-05 -1.55723e-05
-0.000184956 5.84077e-06 -4.31882e-05
-0.000236311 -1.39176e-05 -7.26047e-05
-0.000286596 -3.23364e-05 -0.000104529
-0.000332294 -4.99673e-05 -0.000138537
-0.000374378 -6.60553e-05 -0.000230009
-0.000412691 -8.06576e-05 -0.000359654
-0.000446511 -9.39341e-05 -0.000493402
-0.000476121 -0.000105809 -0.000629911
-0.000501471 -0.000116333 -0.000767486
-0.000522827 -0.000125574 -0.000904072
-0.000540584 -0.000133609 -0.00103764
-0.000555279 -0.000140535 -0.0011659
-0.000567522 -0.000146448 -0.00128675
-0.000577929 -0.000151461 -0.00139799
-0.000587131 -0.000155682 -0.00149767
-0.000595733 -0.000159224 -0.00158391
-0.000604353 -0.000162184 -0.00165513
-0.000613585 -0.000164649 -0.00170998
-0.000623952 -0.000166698 -0.00174747
-0.000635847 -0.0001684 -0.00176691
-0.000649485 -0.000169814 -0.00176917
-0.000664908 -0.000170962 -0.00176397
-0.000682014 -0.000171882 -0.00175349
-0.000700657 -0.000172589 -0.00173798
-0.000720681 -0.000173075 -0.0017178
-0.000741902 -0.000173309 -0.00169344
-0.000764026 -0.000173256 -0.00166545
-0.000786609 -0.000172875 -0.00163446
-0.000809092 -0.000172129 -0.00160115
-0.000830868 -0.000170977 -0.00156625
-0.000851323 -0.000169379 -0.0015305
-0.000869853 -0.000167297 -0.00149464
-0.000885865 -0.000164701 -0.00145942
-0.0008988 -0.000161567 -0.00142552
-0.000908162 -0.000157882 -0.0013936
-0.000913547 -0.00015364 -0.00136424
-0.00091473 -0.000148884 -0.001311
-0.000913285 -0.000143795 -0.00123911
-0.000909931 -0.000138184 -0.00117956
-0.000904854 -0.000132141 -0.00113221
-0.000898341 -0.000125612 -0.00109768
-0.000890675 -0.000118624 -0.00107598
-0.000882125 -0.000111222 -0.00106683
-0.000872924 -0.000103498 -0.00106752
-0.000863255 -9.56082e-05 -0.00107192
-0.000853258 -8.77112e-05 -0.0010794
-0.000843033 -8.0007e-05 -0.00108948
-0.000832669 -7.26987e-05 -0.00110162
-0.000822273 -6.59837e-05 -0.00111529
-0.000811987 -6.0034e-05 -0.00112992
-0.000801978 -5.49905e-05 -0.00114495
-0.000792402 -5.09392e-05 -0.00117224
-0.000783369 -4.799e-05 -0.00120005
-0.000774952 -4.61803e-05 -0.0012261
-0.000767188 -4.55206e-05 -0.00124977
-0.000760052 -4.59719e-05 -0.00127057
-0.000753444 -4.74683e-05 -0.00128822
-0.000747197 -4.99022e-05 -0.00130256
-0.000741092 -5.31278e-05 -0.00131361
-0.000734892 -5.69542e-05 -0.00132154
-0.000728355 -6.1149e-05 -0.00132665
-0.000721252 -6.54401e-05 -0.00132937
-0.00071337 -6.95268e-05 -0.00133019
-0.00070535 -7.29675e-05 -0.00132993
-0.000701599 -7.41955e-05 -0.0013298
-0.000695866 -7.49439e-05 -0.00132897
-0.000689137 -7.43095e-05 -0.0013282
-0.000681274 -7.24058e-05 -0.00132722
-0.000661709 -6.91849e-05 -0.00132613
-0.000636885 -6.44459e-05 -0.00132494
-0.000609325 -5.81332e-05 -0.0013236
-0.000579454 -5.02285e-05 -0.00132197
-0.000547468 -4.07892e-05 -0.00131986
-0.000513594 -2.99067e-05 -0.001317
-0.000478087 -1.77183e-05 -0.00131311
-0.000441297 -4.42594e-06 -0.0013079
-0.000403662 9.68155e-06 -0.00130105
-0.000365557 2.44986e-05 -0.00129219
-0.000327442 3.98185e-05 -0.00128101
-0.00028976 5.54476e-05 -0.00126722
-0.000252871 7.11591e-05 -0.00125059
-0.0002171 8.67285e-05 -0.00121943
-0.000182678 0.000101845 -0.00115191
-0.000149976 0.000116552 -0.00107599
-0.000119131 0.000130607 -0.000991009
-9.03679e-05 0.000143972 -0.00089764
-6.3771e-05 0.000156563 -0.000796586
-3.94248e-05 0.000168366 -0.000688979
-1.73559e-05 0.000179384 -0.000576073
2.44877e-06 0.000189652 -0.000459414
2.00797e-05 0.00019922 -0.000340667
3.57264e-05 0.000208148 -0.000221604
4.96619e-05 0.000216499 -0.000104071
6.22039e-05 0.000224338 1.0083e-05
7.36835e-05 0.000231725 0.000119042
8.44101e-05 0.000238721 0.000221078
9.46378e-05 0.000245378 0.00031459
0.000104557 0.000251742 0.000398142
0.000114309 0.000257838 0.000470514
0.000124048 0.00026361 0.000521672
0.000133999 0.000268585 0.000713064
0.000144021 0.000273341 0.00090759
0.000153994 0.000277972 0.00103099
0.00016412 0.000282255 0.00109365
0.000174281 0.000286143 0.00109805
0.000184516 0.000289356 0.00109342
0.000194651 0.000291861 0.00108517
0.00020445 0.000293548 0.00107358
0.000213565 0.000294379 0.001059
0.000221619 0.000294305 0.00104182
0.00022819 0.000293296 0.00102242
0.000232869 0.000291321 0.0010012
0.000235066 0.000288383 0.000978561
0.00023468 0.000284516 0.000954913
0.000232951 0.000279663 0.000930698
0.00022995 0.000273803 0.000906295
0.000225761 0.000266909 0.000882081
0.000220479 0.000258984 0.00085838
0.000214199 0.000250059 0.00083547
0.000207003 0.000240197 0.000813562
0.000198953 0.000229497 0.000792799
0.000190075 0.000218098 0.000773266
0.000180365 0.000206168 0.000754989
0.000169787 0.000193898 0.000737943
0.000158276 0.000181489 0.000722064
0.000145754 0.000169144 0.000707262
0.000132178 0.000157036 0.000693443
0.000117593 0.000145296 0.000680521
0.000102118 0.000134006 0.000668422
8.59143e-05 0.000123207 0.000657091
6.91584e-05 0.000112903 0.000646487
5.20238e-05 0.000103074 0.000636583
3.46744e-05 9.36769e-05 0.000627359
1.72595e-05 8.4653e-05 0.000618805
-9.49896e-08 7.59378e-05 0.000610906
-1.72934e-05 6.74662e-05 0.000603648
-3.42868e-05 5.91814e-05 0.000597002
-5.10813e-05 5.10399e-05 0.000590928
-6.77197e-05 4.30089e-05 0.000585374
-8.42257e-05 3.50538e-05 0.000580279
-0.000100553 2.71285e-05 0.000575576
-0.000116567 1.91736e-05 0.000571187
-0.00013799 1.00047e-05 0.000567581
-0.000171671 1.33574e-06 0.000551428
-0.000202496 -7.6068e-06 0.000534124
-0.000231531 -1.60815e-05 0.000514413
-0.00025798 -2.42162e-05 0.000492414
-0.000281557 -3.18085e-05 0.000466933
-0.000301895 -3.87878e-05 0.000437622
-0.000318797 -4.50322e-05 0.00040402
-0.000332167 -5.04594e-05 0.000365891
-0.00034202 -5.4991e-05 0.000323288
-0.000348492 -5.85674e-05 0.000276378
-0.000351776 -6.11564e-05 0.000225687
-0.000352255 -6.27513e-05 0.000171913
-0.000351536 -6.33643e-05 0.000116002
-0.000350072 -6.30555e-05 5.91241e-05
-0.000347954 -6.19114e-05 2.6493e-06
-0.000345277 -6.00405e-05 -5.19352e-05
-0.000342148 -5.75658e-05 -0.000103068
-0.00033868 -5.46186e-05 -0.000149173
-0.000334993 -5.13309e-05 -0.000188726
-0.000331215 -4.78291e-05 -0.000220306
-0.000327368 -4.42483e-05 -0.000242637
-0.000323526 -4.07083e-05 -0.00025462
-0.000319963 -3.72414e-05 -0.000256265
-0.000316885 -3.38717e-05 -0.000253697
-0.000314409 -3.06387e-05 -0.00024836
-0.000312566 -2.75827e-05 -0.000240281
-0.000311307 -2.47435e-05 -0.00022954
-0.000310516 -2.21522e-05 -0.000216294
-0.000310053 -1.98228e-05 -0.000200765
-0.000309798 -1.7739e-05 -0.000183249
-0.000309673 -1.58524e-05 -0.000164104
-0.000309613 -1.40947e-05 -0.00014374
-0.00030955 -1.23841e-05 -0.000122598
-0.000309437 -1.06164e-05 -0.000101139
-0.000309248 -8.75517e-06 -5.96571e-05
-0.000309008 -6.63765e-06 -1.66556e-05
-0.000308759 -4.17162e-06 2.44593e-05
-0.000308551 -1.28885e-06 6.2615e-05
-0.000308463 1.99678e-06 9.72673e-05
-0.000308584 5.75241e-06 0.00012787
-0.000309005 9.92138e-06 0.00015412
-0.000309828 1.44264e-05 0.000175805
-0.000311157 1.91456e-05 0.000192889
-0.000313118 2.39213e-05 0.000205512
-0.00031541 2.84971e-05 0.000213923
-0.000314724 3.18491e-05 0.000219145
-0.000315127 3.49029e-05 0.000220545
-0.00031589 3.71233e-05 0.000219723
-0.000317182 3.85251e-05 0.000217455
-0.000318961 3.89199e-05 0.000213996
-0.000321273 3.82273e-05 0.000209429
-0.000324085 3.63626e-05 0.000203901
-0.000327378 3.32892e-05 0.000197488
-0.000331083 2.9002e-05 0.00019025
-0.000335129 2.35361e-05 0.000182204
-0.000339423 1.69678e-05 0.00017333
-0.000343483 9.33773e-06 0.000163602
-0.000346854 7.19905e-07 0.000152975
-0.000349554 -8.74799e-06 0.000141238
-0.000351554 -1.86577e-05 0.000128326
-0.000354036 -2.87551e-05 0.000114045
-0.000356077 -3.86915e-05 9.83178e-05
-0.000356229 -4.81715e-05 8.13409e-05
-0.000355633 -5.67558e-05 1.89273e-05
-0.000354469 -6.43325e-05 -5.59946e-05
-0.00035275 -7.0667e-05 -0.000136798
-0.000350475 -7.56569e-05 -0.000221969
-0.000347671 -7.91954e-05 -0.000310657
-0.0003444 -8.1273e-05 -0.000401435
-0.000340778 -8.1911e-05 -0.000492614
-0.00033693 -8.11947e-05 -0.000582266
-0.00033296 -7.92669e-05 -0.000668234
-0.000328949 -7.63197e-05 -0.00074828
-0.000324981 -7.25752e-05 -0.000820098
-0.00032115 -6.82688e-05 -0.000881464
-0.000317561 -6.3637e-05 -0.000930299
-0.000314328 -5.8905e-05 -0.000964788
-0.000311549 -5.42776e-05 -0.00098343
-0.000309296 -4.99318e-05 -0.000986066
-0.000307602 -4.59793e-05 -0.000981596
-0.000306457 -4.25231e-05 -0.000972246
-0.000305824 -3.96163e-05 -0.000958135
-0.000305658 -3.72593e-05 -0.000939502
-0.000305921 -3.5395e-05 -0.000916735
-0.000306563 -3.39215e-05 -0.000890343
-0.000307511 -3.27018e-05 -0.000860946
-0.000308645 -3.15789e-05 -0.000829237
-0.000309819 -3.03821e-05 -0.00079597
-0.000310892 -2.89321e-05 -0.000761932
-0.000311734 -2.70637e-05 -0.000708612
-0.000312184 -2.48678e-05 -0.000606819
-0.000312185 -2.18009e-05 -0.000511185
-0.000312122 -1.7839e-05 -0.00042147
-0.000311086 -1.3088e-05 -0.000339435
-0.000309106 -7.45027e-06 -0.000266424
-0.000306131 -1.07224e-06 -0.000203237
-0.000302188 6.06461e-06 -0.000150659
-0.000297392 1.38694e-05 -0.000108856
-0.000291946 2.22258e-05 -7.78332e-05
-0.000285641 3.09942e-05 -5.72124e-05
-0.000275629 3.99874e-05 -4.6352e-05
-0.000265633 4.9026e-05 -4.42473e-05
-0.000255869 5.78328e-05 -4.61747e-05
-0.000246599 6.61533e-05 -5.02234e-05
-0.000236517 7.34973e-05 -5.58378e-05
-0.000227544 7.99183e-05 -6.27029e-05
-0.00021982 8.51316e-05 -7.03454e-05
-0.000213627 8.90233e-05 -7.84158e-05
-0.000209214 9.14313e-05 -8.65303e-05
-0.000206744 9.2271e-05 -9.44308e-05
-0.000206298 9.14802e-05 -0.000101892
-0.000207304 8.90413e-05 -0.000108779
-0.000209365 8.49476e-05 -0.000115022
-0.000212268 7.92482e-05 -0.000120638
-0.000215861 7.20745e-05 -0.000125746
-0.000220047 6.36191e-05 -0.000130537
-0.000225429 5.42944e-05 -0.000135333
-0.000231079 4.41425e-05 -0.000140343
-0.000236964 3.3507e-05 -0.000145914
-0.00024292 2.26464e-05 -0.000152336
-0.00024879 1.18596e-05 -0.000159939
-0.000254428 1.4168e-06 -0.000168974
-0.000269344 -8.46022e-06 -0.000179755
-0.000283526 -1.75468e-05 -0.000192295
-0.000296354 -2.56366e-05 -0.000206714
-0.000308211 -3.25308e-05 -0.000222945
-0.000319359 -3.81177e-05 -0.000240808
-0.000330127 -4.22823e-05 -0.000293325
-0.000340885 -4.51166e-05 -0.000360291
-0.000347498 -4.70551e-05 -0.000429619
-0.000349248 -4.8511e-05 -0.000498888
-0.00035121 -4.88643e-05 -0.000568131
-0.000353445 -4.86447e-05 -0.000634519
-0.000356499 -4.78888e-05 -0.000697117
-0.000360782 -4.68703e-05 -0.000753794
-0.000366574 -4.58067e-05 -0.000803083
-0.00037409 -4.49465e-05 -0.000843452
-0.000383431 -4.45077e-05 -0.000873677
-0.000394619 -4.46812e-05 -0.000892798
-0.000407573 -4.56186e-05 -0.000900224
-0.000422217 -4.74078e-05 -0.000898808
-0.000438486 -5.00553e-05 -0.000893758
-0.000456248 -5.354e-05 -0.000885307
-0.000475291 -5.77719e-05 -0.00087379
-0.000495296 -6.26203e-05 -0.000859645
-0.000515818 -6.79134e-05 -0.000843411
-0.000535395 -7.35345e-05 -0.000825657
-0.000554009 -7.91948e-05 -0.000807069
-0.000571611 -8.46172e-05 -0.000788339
-0.000588226 -8.95127e-05 -0.00077016
-0.000603887 -9.36222e-05 -0.000753177
-0.000618635 -9.67256e-05 -0.000737967
-0.000632481 -9.8664e-05 -0.000725006
-0.000645362 -9.93844e-05 -0.000697929
-0.000655846 -9.89472e-05 -0.000675274
-0.000659448 -9.77647e-05 -0.000660853
-0.000661527 -9.53432e-05 -0.000655239
-0.000661377 -9.20899e-05 -0.000656105
-0.000660542 -8.80026e-05 -0.000659643
-0.000659151 -8.33462e-05 -0.000665419
-0.00065739 -7.83173e-05 -0.000672977
-0.000655418 -7.31615e-05 -0.000693776
-0.000653417 -6.81515e-05 -0.000720508
-0.000651569 -6.35578e-05 -0.000748634
-0.000650064 -5.96226e-05 -0.000776842
-0.000649084 -5.65703e-05 -0.000803941
-0.000648791 -5.45896e-05 -0.000828944
-0.000649327 -5.38296e-05 -0.000850955
-0.000650797 -5.43951e-05 -0.000869359
-0.000653267 -5.63441e-05 -0.000883739
-0.000656737 -5.96842e-05 -0.000893958
-0.000661228 -6.43585e-05 -0.000900123
-0.000676556 -7.02192e-05 -0.000902647
-0.00069503 -7.72111e-05 -0.000902486
-0.000715629 -8.51459e-05 -0.000901329
-0.000737427 -9.38787e-05 -0.000899588
-0.000758893 -0.000103262 -0.000897633
-0.000779248 -0.000113043 -0.000895896
-0.000797735 -0.000122965 -0.000894814
-0.000813828 -0.000132729 -0.000894836
-0.000827189 -0.000142029 -0.000896375
-0.000837517 -0.000150571 -0.000899795
-0.000844414 -0.00015809 -0.000909173
-0.000847386 -0.00016436 -0.000929833
-0.000846938 -0.000169249 -0.000956901
-0.000844853 -0.000172597 -0.000990291
-0.000841095 -0.000174353 -0.00102964
-0.000835598 -0.000174498 -0.00107425
-0.000828322 -0.00017307 -0.00112317
-0.000819292 -0.000170138 -0.00117517
-0.000808614 -0.000165794 -0.00122886
-0.000796471 -0.000160151 -0.00128265
-0.000783111 -0.000153332 -0.00133488
-0.000768797 -0.000145484 -0.00138379
-0.0007538 -0.000136763 -0.00142761
-0.000738411 -0.000127333 -0.00146464
-0.000722938 -0.000117351 -0.00149326
-0.000707696 -0.000106972 -0.00151198
-0.000692951 -9.63489e-05 -0.00151954
-0.0006789 -8.5629e-05 -0.00151771
-0.000665673 -7.49385e-05 -0.00151088
-0.000651359 -6.44151e-05 -0.00149889
-0.000623856 -5.43569e-05 -0.0014816
-0.000605652 -4.38149e-05 -0.00145953
-0.000589124 -3.3987e-05 -0.00143235
-0.000575556 -2.44022e-05 -0.00140071
-0.000564431 -1.53861e-05 -0.00136479
-0.000555581 -6.84654e-06 -0.00132534
-0.000548764 1.21282e-06 -0.00128288
-0.000543615 8.76323e-06 -0.00123827
-0.000539439 1.5717e-05 -0.00110483
-0.000535658 2.21765e-05 -0.00093443
-0.000531897 2.85134e-05 -0.000763753
-0.000527316 3.46936e-05 -0.0005971
-0.000521424 4.08337e-05 -0.000436459
-0.000513794 4.70667e-05 -0.000285142
-0.000504095 5.34966e-05 -0.000145471
-0.000492134 6.02365e-05 -1.98383e-05
-0.000477811 6.73748e-05 8.97276e-05
-0.000461102 7.49729e-05 0.000181754
-0.000442063 8.30614e-05 0.000255127
-0.000420837 9.16297e-05 0.000309275
-0.000397638 0.000100624 0.000344114
-0.000372702 0.000109947 0.000360062
-0.00034625 0.000119454 0.000360381
-0.000318493 0.000128932 0.000355305
-0.000289708 0.000138194 0.000346224
-0.000260234 0.00014703 0.000333712
-0.000230474 0.000155242 0.000318374
-0.000200836 0.000162638 0.000300862
-0.000171712 0.000169046 0.000281834
-0.000143501 0.000174325 0.000261934
-0.000116651 0.000178381 0.000241771
-9.16301e-05 0.000181164 0.0002219
-6.88754e-05 0.000182669 0.000202812
-4.87404e-05 0.000182928 0.000184924
-3.14418e-05 0.000182009 0.000168572
-1.70039e-05 0.000180003 0.000154015
-5.24072e-06 0.00017702 0.00014143
4.18777e-06 0.000173197 0.00013091
1.17073e-05 0.000168697 0.000122467
1.77781e-05 0.000163714 0.000116037
2.28419e-05 0.000158469 0.000111486
2.72879e-05 0.000153208 0.000108624
3.14585e-05 0.000148187 0.00010722
3.56703e-05 0.000143664 0.000107024
4.02166e-05 0.000139881 0.00010778
4.53503e-05 0.000137062 0.000109246
5.12629e-05 0.000135394 0.000111213
5.80673e-05 0.00013503 0.000113512
6.57934e-05 0.000136075 0.000116031
7.43986e-05 0.00013858 0.000118719
8.37684e-05 0.000142541 0.000121594
9.36048e-05 0.000147906 0.000124735
0.000101825 0.000154739 0.000128222
0.000108138 0.000162837 0.000132275
0.000112403 0.000171921 0.000137182
0.000114627 0.000181644 0.000143264
0.000114883 0.000191631 0.000150849
0.000114031 0.000201487 0.00016025
0.000112183 0.000210843 0.000171723
0.000109221 0.000219357 0.000185455
0.000104995 0.000226729 0.000201536
9.9315e-05 0.000232714 0.00021995
9.19709e-05 0.000237126 0.000240564
8.2767e-05 0.000239831 0.000263131
7.15399e-05 0.000240744 0.000287289
5.81658e-05 0.000239821 0.000312575
4.25905e-05 0.000237053 0.000338435
2.48625e-05 0.000232444 0.000368519
5.16888e-06 0.000225791 0.000463033
-1.63099e-05 0.000217493 0.000550496
-3.92421e-05 0.000207416 0.000631017
-6.335e-05 0.000195765 0.000700775
-8.83364e-05 0.000182603 0.000757385
-0.000113977 0.000168099 0.000798189
-0.000140076 0.000152415 0.000820687
-0.000165431 0.000135566 0.000823903
-0.000183633 0.000115963 0.000819051
-0.000223571 9.66622e-05 0.000806947
-0.000280797 7.70604e-05 0.00078798
-0.00033494 5.73502e-05 0.000761781
-0.000385907 3.78905e-05 0.000728246
-0.000433176 1.87931e-05 0.000687564
-0.000476587 1.74968e-07 0.000640089
-0.000516068 -1.80381e-05 0.000586207
-0.000551561 -3.57264e-05 0.000526653
-0.000583277 -5.28306e-05 0.000462326
-0.000611674 -6.93319e-05 0.000394169
-0.00063735 -8.5193e-05 0.00023348
-0.000661498 -9.9873e-05 -6.3029e-05
-0.000684063 -0.000114584 -0.000359968
-0.000706754 -0.000128807 -0.000654202
-0.000730091 -0.000142887 -0.000942169
-0.000755098 -0.000156864 -0.00121845
-0.000782551 -0.000170865 -0.00147964
-0.000813113 -0.000184986 -0.00172136
-0.000847296 -0.000199312 -0.00194038
-0.000885461 -0.00021391 -0.0021337
-0.000928099 -0.000228469 -0.00249725
-0.000976241 -0.000241609 -0.00320694
-0.00102717 -0.000256668 -0.0036807
-0.00108276 -0.0002714 -0.00407218
-0.00114116 -0.000286927 -0.00432284
-0.0012025 -0.000302506 -0.00445814
-0.00126578 -0.000318271 -0.00447921
-0.00133066 -0.000333693 -0.00447401
-0.00139638 -0.000348577 -0.00446382
-0.00146217 -0.000362731 -0.00444945
-0.00152613 -0.000376055 -0.00443166
-0.00156851 -0.000389784 -0.00441079
-0.0016108 -0.000401724 -0.00438838
-0.00164828 -0.000412068 -0.00436531
-0.00165071 -0.00039249 -0.00435761
-0.0212611 -0.000208981 -0.00441769
-0.0211252 -0.000308728 -0.00434188
-0.0214149 -0.000267295 -0.00434298
-0.0215315 -0.000296763 -0.00426513
-0.0227042 -0.00029643 -0.00422838
-0.0244457 -0.000302796 -0.00417292
-0.025931 -0.000313631 -0.00411419
-0.0275598 -0.000324545 -0.00405595
-0.0292253 -0.00033924 -0.00399585
-0.0309078 -0.000355121 -0.00391433
-0.0323435 -0.000354363 -0.0035935
-0.0335794 -0.000346214 -0.00337539
-0.0349075 -0.000343774 -0.00311795
-0.0361244 -0.00033938 -0.00293402
-0.0373449 -0.000338274 -0.00276265
-0.0385204 -0.000336711 -0.0026444
-0.0396675 -0.00033758 -0.00255647
-0.0407678 -0.000339443 -0.00251288
-0.0418326 -0.000342768 -0.00250774
-0.0428515 -0.000347483 -0.00251462
-0.0438183 -0.000353771 -0.00252814
-0.0447316 -0.000361535 -0.00254825
-0.0455887 -0.000370653 -0.00257492
-0.0463872 -0.000381051 -0.00260783
-0.0471291 -0.000392664 -0.00264676
-0.0478209 -0.000405095 -0.00275648
-0.0484683 -0.000418194 -0.0029073
-0.0490742 -0.00043216 -0.00307204
-0.0496418 -0.000552267 -0.00324691
-0.0501414 -0.00119649 -0.00339049
-0.0505405 -0.00183454 -0.0035475
-0.0510067 -0.00518299 -0.0037259
-0.0505795 -0.0219679 -0.0034572
-0.0507575 -0.0216434 -0.00369192
-0.0507488 -0.0221916 -0.00366909
-0.0507671 -0.0222382 -0.00388432
-0.0507698 -0.0224968 -0.00403011
-0.0508129 -0.0231587 -0.00420078
-0.0508158 -0.02433 -0.00430399
-0.0508273 -0.0253679 -0.00442753
-0.0508381 -0.0263408 -0.0049125
-0.0508422 -0.0273176 -0.00595893
-0.0508461 -0.0281913 -0.00699539
-0.0508152 -0.0280344 -0.00735391
-0.0508238 -0.0280384 -0.00741779
-0.0508216 -0.028076 -0.00836343
-0.0508273 -0.0281836 -0.0100833
-0.0508395 -0.0285426 -0.0114022
-0.0508458 -0.0294712 -0.0124842
-0.0508725 -0.0306828 -0.0132015
-0.0509368 -0.0316101 -0.0142543
-0.0509732 -0.0327149 -0.0150238
-0.0510502 -0.0335852 -0.0259087
-0.0521301 -0.0335815 -0.0290248
-0.0524379 -0.0345757 -0.0298901
-0.0524447 -0.0354726 -0.0313552
-0.0524931 -0.0362863 -0.0330611
-0.0525903 -0.037108 -0.034342
-0.0526643 -0.037847 -0.0358787
-0.0526759 -0.0385946 -0.0373497
-0.0526746 -0.0392858 -0.0388973
-0.0526723 -0.0398913 -0.0405434
-0.0526689 -0.0404762 -0.0422261
-0.0526648 -0.0410134 -0.0439419
-0.0526598 -0.0415029 -0.04566
-0.0526542 -0.0419494 -0.0473942
-0.0526512 -0.0421094 -0.0465816
-0.0526436 -0.0425354 -0.0468327
-0.0526343 -0.0431701 -0.0473815
-0.052629 -0.0434991 -0.0490362
-0.0526208 -0.0442432 -0.0504585
-0.0526128 -0.0449819 -0.0517444
-0.052606 -0.0454431 -0.0531878
-0.0525984 -0.0459493 -0.0546409
-0.0525904 -0.0465369 -0.0559502
-0.0523766 -0.0470229 -0.0571967
-0.0520321 -0.0475521 -0.0583158
-0.0517653 -0.0481319 -0.0593114
-0.051479 -0.0485729 -0.0603458
-0.0512545 -0.0489725 -0.0612878
-0.0509988 -0.0494034 -0.0620754
-0.050768 -0.0497986 -0.0627705
-0.0505538 -0.0501069 -0.0634238
-0.0503437 -0.05038 -0.06399
-0.0501342 -0.050633 -0.0644418
-0.0499317 -0.0508285 -0.0648054
-0.0497383 -0.0509651 -0.0650865
-0.0495406 -0.0510607 -0.0652748
-0.0493427 -0.0511051 -0.0653747
-0.0491461 -0.051105 -0.0653925
-0.0489404 -0.0511031 -0.0653863
-0.0487664 -0.0511005 -0.0653772
-0.0485916 -0.0510968 -0.0653647
-0.0484097 -0.0510923 -0.0653487
-0.0482188 -0.0510868 -0.0653296
-0.0480202 -0.0510804 -0.0653074
-0.0478117 -0.0510731 -0.0652492
-0.0475917 -0.0510661 -0.0647016
-0.0473541 -0.0510593 -0.064046
-0.0471068 -0.0510505 -0.0634611
-0.0468522 -0.0510422 -0.0628825
-0.0465821 -0.0510331 -0.0622851
-0.046312 -0.0510232 -0.0616593
-0.0460297 -0.0509489 -0.0609941
-0.0457569 -0.0505253 -0.060391
-0.0455298 -0.0499679 -0.0599016
-0.045234 -0.0495239 -0.0592669
-0.0449226 -0.049122 -0.0585858
-0.0446312 -0.0486688 -0.0579459
-0.0443241 -0.0481608 -0.0573234
-0.043997 -0.0477038 -0.0566307
-0.043647 -0.0472611 -0.0558987
-0.043292 -0.0467637 -0.0551871
-0.0429277 -0.0462413 -0.0544756
-0.0425442 -0.0457449 -0.0537223
-0.0421675 -0.0452458 -0.0529446
-0.0417867 -0.0447047 -0.0521779
-0.0413927 -0.0441527 -0.0514053
-0.040991 -0.0436163 -0.0506054
-0.040576 -0.0430699 -0.0497993
-0.0401605 -0.0424994 -0.048998
-0.0397427 -0.0419233 -0.048187
-0.0393141 -0.0413509 -0.0473618
-0.0388858 -0.0407695 -0.0465346
-0.0384723 -0.0401703 -0.0457139
-0.0380775 -0.0395596 -0.0448945
-0.0376997 -0.0389437 -0.0440712
-0.0373438 -0.0383192 -0.0432468
-0.0370117 -0.0376831 -0.042426
-0.0367047 -0.0370399 -0.0416071
-0.0364228 -0.0363945 -0.0407869
-0.0361658 -0.0357468 -0.0399652
-0.0359326 -0.0350986 -0.039141
-0.0357202 -0.0344549 -0.0383115
-0.0355263 -0.0338199 -0.0374751
-0.0353485 -0.0331953 -0.0366322
-0.0351851 -0.0325836 -0.0357817
-0.0350336 -0.0319893 -0.0349212
-0.0348926 -0.0314162 -0.0340493
-0.0347639 -0.0308778 -0.0331612
-0.0346424 -0.030381 -0.0322522
-0.0345301 -0.0299224 -0.0313294
-0.0344278 -0.0295022 -0.0303951
-0.0343331 -0.0291232 -0.0294501
-0.0342475 -0.0287832 -0.0284994
-0.034172 -0.0284791 -0.0275498
-0.0341063 -0.0282097 -0.0266063
-0.0340506 -0.0279724 -0.0256752
-0.0340054 -0.0277636 -0.0247637
-0.0339702 -0.0275802 -0.0238784
-0.0339438 -0.0274196 -0.0230259
-0.0339248 -0.0272785 -0.0222132
-0.0339119 -0.027154 -0.0214472
-0.0339041 -0.0270432 -0.0207341
-0.033901 -0.0269431 -0.0200799
-0.0339009 -0.0268508 -0.0194903
-0.0339011 -0.0267648 -0.0189699
-0.0339014 -0.0266836 -0.0185224
-0.0339017 -0.0266052 -0.0181518
-0.0339021 -0.0265287 -0.0178605
-0.0339026 -0.0264542 -0.0176499
-0.0339031 -0.0263817 -0.0175205
-0.0339036 -0.0263122 -0.0174722
-0.033904 -0.0262475 -0.0174751
-0.0339043 -0.0261951 -0.0174822
-0.0339044 -0.026158 -0.0174938
-0.0339042 -0.026134 -0.0175095
-0.0339039 -0.0261289 -0.017529
-0.0339033 -0.0261298 -0.0175522
-0.0339025 -0.0261315 -0.0175789
-0.0339015 -0.0261343 -0.0176085
-0.0338911 -0.0261382 -0.0176408
-0.0338386 -0.0261437 -0.0176751
-0.0337881 -0.0261503 -0.0177112
-0.0337356 -0.026158 -0.0177488
-0.0336758 -0.0261668 -0.0177875
-0.0336168 -0.0261766 -0.017827
-0.0335572 -0.0261873 -0.0179204
-0.0335045 -0.0261966 -0.0186556
-0.0334646 -0.0262063 -0.0194187
-0.0334051 -0.0262176 -0.0201172
-0.0333522 -0.0262283 -0.0208727
-0.0332994 -0.0262394 -0.0216202
-0.0332352 -0.0262506 -0.0223737
-0.0331728 -0.0262614 -0.023131
-0.0331029 -0.0262718 -0.023886
-0.0330633 -0.0262812 -0.0246462
-0.0330643 -0.0262885 -0.0254303
-0.0330642 -0.0262961 -0.0262047
-0.0330638 -0.0263025 -0.026973
-0.0330631 -0.0263084 -0.0277403
-0.0330453 -0.0263136 -0.0284901
-0.0329825 -0.0263185 -0.029226
-0.0329133 -0.0263227 -0.0299408
-0.0328362 -0.0263261 -0.0306408
-0.0327386 -0.0263291 -0.0313108
-0.0326312 -0.0263315 -0.0319495
-0.0325142 -0.0263332 -0.0325566
-0.0323872 -0.0263343 -0.0331252
-0.0322504 -0.026335 -0.0336505
-0.0321097 -0.0263352 -0.0341346
-0.0319672 -0.026335 -0.0345727
-0.0318238 -0.0263345 -0.0349581
-0.0316842 -0.0263335 -0.0352909
-0.0315511 -0.0263321 -0.0355702
-0.031425 -0.0263305 -0.0357905
-0.0313094 -0.0263284 -0.0359516
-0.0312053 -0.0263261 -0.0360505
-0.0311144 -0.0263235 -0.0360849
-0.0310388 -0.0263206 -0.0360826
-0.0309816 -0.0263172 -0.036077
-0.030945 -0.0263134 -0.0360677
-0.0309301 -0.0263093 -0.036055
-0.0309306 -0.0263049 -0.0359938
-0.0309317 -0.0263011 -0.0356255
-0.0309335 -0.0262972 -0.0352532
-0.0309363 -0.0262931 -0.0348653
-0.0309398 -0.0262893 -0.034425
-0.0309442 -0.0262854 -0.0339447
-0.0309494 -0.0262816 -0.0334179
-0.0309553 -0.0262779 -0.0328511
-0.0309619 -0.0262744 -0.0322489
-0.0309693 -0.0262709 -0.0316145
-0.0309772 -0.0262676 -0.0309523
-0.0309856 -0.0262645 -0.0302653
-0.0309945 -0.0262616 -0.0295579
-0.0310038 -0.0262588 -0.0288355
-0.0310134 -0.0262562 -0.0281038
-0.0310233 -0.0262537 -0.0273679
-0.0310335 -0.0262515 -0.0266327
-0.0310438 -0.0262493 -0.0259033
-0.0310542 -0.0262473 -0.0251849
-0.0310645 -0.0262455 -0.0244831
-0.0310749 -0.0262438 -0.0238031
-0.0310851 -0.0262423 -0.02315
-0.0310953 -0.0262409 -0.022528
-0.0311044 -0.0262397 -0.0219421
-0.0312246 -0.0262375 -0.0214041
-0.0316028 -0.0262332 -0.0209327
-0.0319057 -0.0262304 -0.0205074
-0.0321976 -0.0262282 -0.020102
-0.0325095 -0.0262255 -0.0197704
-0.0327943 -0.026224 -0.0194734
-0.033078 -0.0262227 -0.0192245
-0.0333595 -0.0262219 -0.0190319
-0.0336301 -0.0262218 -0.018883
-0.0338966 -0.0262224 -0.0187866
-0.0341591 -0.0262236 -0.0187421
-0.0344169 -0.0262257 -0.0187401
-0.03467 -0.0262287 -0.0187445
-0.0349177 -0.0262326 -0.0187523
-0.0351574 -0.0262369 -0.0187637
-0.035387 -0.026242 -0.0187785
-0.0356152 -0.0262481 -0.0187962
-0.0358356 -0.0262549 -0.018817
-0.0360513 -0.0262627 -0.0188405
-0.0362609 -0.0262712 -0.0188667
-0.0364646 -0.0262805 -0.0188953
-0.0366595 -0.0262889 -0.0189246
-0.0368317 -0.0262986 -0.0189541
-0.0370045 -0.0263078 -0.0189838
-0.037175 -0.026317 -0.0194064
-0.0373424 -0.026325 -0.0201236
-0.0375044 -0.0263349 -0.0207779
-0.0376454 -0.0263801 -0.0214874
-0.0377669 -0.026747 -0.0221746
-0.0377895 -0.0272705 -0.0227346
-0.0378523 -0.0276983 -0.0234148
-0.0379461 -0.0280818 -0.0241621
-0.0379746 -0.0285403 -0.02487
-0.0379874 -0.0290092 -0.0255928
-0.0380119 -0.0294318 -0.0263836
-0.0380171 -0.0298647 -0.0271923
-0.0380163 -0.0303152 -0.0279999
-0.0380152 -0.0307414 -0.0288438
-0.0380135 -0.0311561 -0.0297145
-0.0380111 -0.0315705 -0.0305963
-0.0380082 -0.0319705 -0.031502
-0.0380053 -0.0323871 -0.032415
-0.0380013 -0.0328716 -0.0332823
-0.0379972 -0.0333369 -0.0341569
-0.037993 -0.0337387 -0.0350873
-0.0379796 -0.0341367 -0.0360183
-0.0378239 -0.0345609 -0.0369235
-0.0376597 -0.0349933 -0.0378155
-0.0375297 -0.035377 -0.0387206
-0.0373825 -0.0357259 -0.039644
-0.037244 -0.0360817 -0.0405394
-0.0370917 -0.0364232 -0.0414225
-0.0369466 -0.0367288 -0.0423075
-0.0368012 -0.0370092 -0.0431792
-0.0366529 -0.0372806 -0.0440231
-0.0365057 -0.0375342 -0.0448413
-0.0363612 -0.0377588 -0.0456415
-0.0362205 -0.0379617 -0.0464139
-0.0360818 -0.0381506 -0.0471471
-0.0359477 -0.0383215 -0.0478404
-0.0358209 -0.0384693 -0.0484948
-0.0357019 -0.0385975 -0.0491053
-0.0355911 -0.03871 -0.0496656
-0.0354897 -0.0388054 -0.0501735
-0.0353986 -0.0388822 -0.050627
-0.0353179 -0.0389429 -0.0510219
-0.0352477 -0.0389897 -0.0513545
-0.0351876 -0.0390221 -0.0516237
-0.0351368 -0.03904 -0.0518283
-0.0350939 -0.0390456 -0.0519654
-0.0350567 -0.0390453 -0.0520321
-0.0350225 -0.0390449 -0.0520358
-0.034992 -0.0390441 -0.0520305
-0.034969 -0.0390432 -0.0520209
-0.03495 -0.0390421 -0.0520076
-0.034937 -0.0390407 -0.0519904
-0.0349294 -0.039039 -0.0519698
-0.0349265 -0.0390371 -0.0517464
-0.0349228 -0.039036 -0.0511723
-0.0349205 -0.0390338 -0.0506661
-0.0349207 -0.0390314 -0.0501627
-0.034921 -0.0390286 -0.0496268
-0.0349215 -0.039025 -0.0490666
-0.0349221 -0.0390209 -0.0484712
-0.0349228 -0.039016 -0.0478533
-0.0349236 -0.0390105 -0.0472166
-0.0349246 -0.0390043 -0.0465651
-0.0349258 -0.0389631 -0.0459027
-0.0349282 -0.038736 -0.0452687
-0.0349307 -0.0384808 -0.0446687
-0.0349328 -0.0382555 -0.0440084
-0.0349354 -0.0380028 -0.0433761
-0.0349383 -0.0377506 -0.0427644
-0.0349409 -0.0375035 -0.0421416
-0.0349436 -0.0372455 -0.0415253
-0.0349461 -0.0369738 -0.0409237
-0.0349484 -0.0367024 -0.0403261
-0.0349504 -0.0364285 -0.0397377
-0.0349522 -0.0361515 -0.0391619
-0.0349536 -0.0358774 -0.0385937
-0.0349547 -0.0356048 -0.0380363
-0.0349592 -0.035335 -0.0374928
-0.0349818 -0.0350721 -0.0369603
-0.0349937 -0.0348141 -0.0364437
-0.0349949 -0.0345719 -0.0359362
-0.0349945 -0.0343399 -0.0354405
-0.034986 -0.0341161 -0.0349639
-0.0349695 -0.0339078 -0.0345008
-0.0349508 -0.0337121 -0.0340547
-0.0349282 -0.0335282 -0.0336293
-0.0349011 -0.0333585 -0.0332225
-0.0348686 -0.0332027 -0.0328368
-0.0348309 -0.0330603 -0.0324744
-0.034787 -0.0329317 -0.0321364
-0.0347368 -0.0328166 -0.0318245
-0.0346804 -0.0327142 -0.0315403
-0.0346181 -0.0326238 -0.0312854
-0.03455 -0.0325446 -0.0310614
-0.0344765 -0.0324756 -0.0308703
-0.0343975 -0.032416 -0.0307134
-0.0343132 -0.032365 -0.0305917
-0.0342244 -0.0323215 -0.0305064
-0.0341322 -0.0322842 -0.0304585
-0.0340382 -0.032252 -0.0304479
-0.0339434 -0.0322247 -0.0304501
-0.0338479 -0.0322046 -0.0304546
-0.0337528 -0.0321901 -0.0304614
-0.0336596 -0.0321801 -0.0304704
-0.0335668 -0.0321767 -0.0304815
-0.033474 -0.032177 -0.0304944
-0.033382 -0.0321774 -0.0305093
-0.0332889 -0.0321783 -0.0305257
-0.0331942 -0.0321796 -0.0305435
-0.0330978 -0.0321813 -0.0305624
-0.0329987 -0.0321835 -0.0305822
-0.0328968 -0.0321861 -0.0306027
-0.032792 -0.0321891 -0.0306236
-0.0326854 -0.0321926 -0.0306448
-0.0325768 -0.0321964 -0.0306627
-0.0324702 -0.0321997 -0.0309663
-0.0323695 -0.0322027 -0.0313695
-0.0322641 -0.0322066 -0.0317227
-0.0321625 -0.0322102 -0.0320994
-0.0320661 -0.0322138 -0.0324688
-0.0319684 -0.0322176 -0.0328307
-0.0318758 -0.032221 -0.0331877
-0.0317845 -0.0322244 -0.033535
-0.0316967 -0.0322275 -0.0338755
-0.0316137 -0.0322302 -0.0342103
-0.0315356 -0.0322326 -0.0345369
-0.0314638 -0.0322345 -0.0348531
-0.0313986 -0.0322361 -0.0351571
-0.0313406 -0.0322372 -0.0354476
-0.0312903 -0.0322378 -0.0357243
-0.0312478 -0.0322381 -0.0359852
-0.0312133 -0.0322379 -0.0362278
-0.031187 -0.0322375 -0.0364495
-0.0311692 -0.0322368 -0.0366478
-0.0311602 -0.0322359 -0.0368211
-0.0311592 -0.0322348 -0.0369676
-0.0311595 -0.0322338 -0.0370849
-0.0311601 -0.0322328 -0.0371701
-0.0311609 -0.032232 -0.0372224
-0.0311619 -0.0322314 -0.0372402
-0.0311631 -0.032231 -0.0372388
-0.0311645 -0.0322307 -0.0372356
-0.0311661 -0.0322306 -0.0372305
-0.0311679 -0.0322306 -0.0372236
-0.0311699 -0.0322309 -0.0371582
-0.0311721 -0.0322317 -0.0369594
-0.0311744 -0.0322325 -0.0367879
-0.0311769 -0.0322334 -0.036596
-0.0311795 -0.0322345 -0.036386
-0.0311821 -0.0322355 -0.0361617
-0.0311847 -0.0322364 -0.0359221
-0.0311873 -0.0322373 -0.0356726
-0.0311898 -0.032238 -0.0354159
-0.0311921 -0.0322384 -0.0351547
-0.0311943 -0.0322386 -0.0348915
-0.0311962 -0.0322384 -0.0346283
-0.031198 -0.0322379 -0.0343677
-0.0311994 -0.032237 -0.0341122
-0.0312006 -0.0322356 -0.033864
-0.0312015 -0.0322338 -0.0336248
-0.031202 -0.0322315 -0.0333959
-0.0312022 -0.0322288 -0.0331784
-0.0312021 -0.0322256 -0.0329732
-0.0312018 -0.0322221 -0.0327812
-0.0312011 -0.0322183 -0.0326026
-0.0312001 -0.0322141 -0.0324374
-0.0311987 -0.0322098 -0.0322852
-0.031197 -0.0322052 -0.0321456
-0.0311949 -0.0322007 -0.032018
-0.0311925 -0.0321961 -0.0319019
-0.0311898 -0.0321915 -0.0317963
-0.0311867 -0.0321871 -0.0317006
-0.0311834 -0.0321829 -0.0316138
-0.0311798 -0.032179 -0.0315352
-0.031176 -0.0321603 -0.031464
-0.0311725 -0.0320671 -0.0314188
-0.0311688 -0.0319754 -0.0313979
-0.0311645 -0.0319177 -0.0313499
-0.0311601 -0.0318524 -0.0313204
-0.0310975 -0.0317914 -0.0312998
-0.0309371 -0.0317805 -0.0312557
-0.0308065 -0.0317698 -0.031214
-0.0306687 -0.0317346 -0.0312075
-0.0305204 -0.0317244 -0.0311873
-0.030364 -0.0317142 -0.0311738
-0.0302103 -0.0316915 -0.0311744
-0.0300484 -0.031673 -0.0311753
-0.0298804 -0.0316546 -0.0311768
-0.029712 -0.031626 -0.0311793
-0.0295385 -0.0315934 -0.0311825
-0.0293601 -0.0315564 -0.0311863
-0.0291792 -0.0315104 -0.0311909
-0.0289952 -0.0314566 -0.0311961
-0.028808 -0.0313956 -0.0312018
-0.028619 -0.0313255 -0.031208
-0.0284286 -0.0312471 -0.0312145
-0.0282369 -0.0311643 -0.0312209
-0.0280446 -0.0310721 -0.0312273
-0.0278516 -0.0309728 -0.0312338
-0.0276665 -0.0308865 -0.0312393
-0.0274811 -0.0308407 -0.031243
-0.0272882 -0.0307676 -0.0312474
-0.0271102 -0.0306682 -0.0312518
-0.0269243 -0.0305819 -0.0312547
-0.0267391 -0.0304961 -0.0312567
-0.0265609 -0.0303879 -0.0312704
-0.026386 -0.0302733 -0.0312988
-0.0262131 -0.030162 -0.0312983
-0.0260434 -0.0300469 -0.0312815
-0.0258786 -0.0299219 -0.0312526
-0.0257163 -0.0297953 -0.0312058
-0.0255545 -0.0296699 -0.031138
-0.0253939 -0.0295405 -0.0310526
-0.025234 -0.0294076 -0.0309493
-0.025074 -0.0292752 -0.0308252
-0.0249146 -0.0291419 -0.0306812
-0.0247571 -0.0290051 -0.0305194
-0.0246021 -0.028866 -0.0303388
-0.0244503 -0.0287253 -0.0301395
-0.0243035 -0.0285808 -0.0299235
-0.0241631 -0.0284315 -0.0296922
-0.0240304 -0.0282784 -0.0294457
-0.023906 -0.0281227 -0.029184
-0.023791 -0.0279625 -0.0289091
-0.0236867 -0.0277969 -0.0286228
-0.0235935 -0.0276258 -0.0283258
-0.0235126 -0.0274485 -0.0280197
-0.0234443 -0.0272649 -0.0277057
-0.0233888 -0.0270754 -0.0273845
-0.0233457 -0.0268807 -0.0270567
-0.0233145 -0.0266813 -0.0267231
-0.0232942 -0.0264788 -0.0263841
-0.0232833 -0.0262747 -0.0260396
-0.0232801 -0.0260706 -0.0256901
-0.0232803 -0.0258685 -0.0253354
-0.0232805 -0.0256715 -0.0249751
-0.023281 -0.0254801 -0.0246101
-0.0232815 -0.0252949 -0.0242418
-0.023282 -0.0251175 -0.0238703
-0.0232827 -0.0249483 -0.0234971
-0.0232833 -0.0247877 -0.0231236
-0.023284 -0.0246363 -0.0227511
-0.0232847 -0.0244942 -0.0223813
-0.0232854 -0.0243614 -0.0220162
-0.0232861 -0.0242378 -0.0216574
-0.0232867 -0.0241232 -0.021307
-0.0232874 -0.0240174 -0.0209672
-0.0232879 -0.02392 -0.0206398
-0.0232885 -0.0238305 -0.0203271
-0.023289 -0.023748 -0.0200312
-0.0232895 -0.0236719 -0.0197543
-0.02329 -0.0236018 -0.0194981
-0.0232904 -0.0235373 -0.0192643
-0.0232907 -0.0234781 -0.0190545
-0.0232908 -0.023424 -0.01887
-0.0232908 -0.0233748 -0.0187119
-0.0232907 -0.0233304 -0.0185811
-0.0232903 -0.0232905 -0.0184785
-0.0232897 -0.0232549 -0.0184045
-0.023289 -0.0232236 -0.0183596
-0.0232882 -0.0231963 -0.0183438
-0.0232872 -0.0231732 -0.0183451
-0.0232862 -0.0231564 -0.0183482
-0.0232851 -0.0231461 -0.0183531
-0.023284 -0.0231412 -0.0183599
-0.0232829 -0.0231414 -0.0183683
-0.023282 -0.0231418 -0.0183784
-0.0232811 -0.0231425 -0.0183901
-0.0232805 -0.0231436 -0.018403
-0.0232802 -0.0231451 -0.0184171
-0.0232787 -0.0231469 -0.0184322
-0.0232786 -0.0231491 -0.0184481
-0.023279 -0.0231518 -0.0184646
-0.0232797 -0.023155 -0.0184814
-0.0232807 -0.0231586 -0.0184986
-0.0232819 -0.0231626 -0.0185157
-0.0232834 -0.0231672 -0.0185328
-0.0232852 -0.0231721 -0.0185497
-0.0232872 -0.0231774 -0.0186527
-0.0232898 -0.023182 -0.0189786
-0.0232925 -0.0231874 -0.0192533
-0.0232954 -0.0231931 -0.0195207
-0.0232987 -0.0231989 -0.0197952
-0.0233022 -0.0232049 -0.0200561
-0.023306 -0.0232109 -0.0203151
-0.0233099 -0.023217 -0.0205662
-0.023314 -0.023223 -0.0208107
-0.0233182 -0.0232289 -0.0210527
-0.0233225 -0.0232347 -0.0212922
-0.023327 -0.0232402 -0.02153
-0.0233315 -0.0232454 -0.0217649
-0.023336 -0.0232504 -0.0219969
-0.0233405 -0.023255 -0.0222267
-0.0233451 -0.0232593 -0.022455
-0.0233497 -0.0232633 -0.0226817
-0.0233542 -0.0232669 -0.0229057
-0.0233586 -0.0232702 -0.0231261
-0.0233629 -0.0232733 -0.023342
-0.0233671 -0.023276 -0.023553
-0.0233711 -0.0232785 -0.0237583
-0.0233752 -0.0232808 -0.0239569
-0.0233792 -0.0232828 -0.0241476
-0.0233832 -0.0232847 -0.0243291
-0.0233873 -0.0232865 -0.0245003
-0.0233914 -0.0232882 -0.0246605
-0.0233958 -0.0232898 -0.0248085
-0.0234003 -0.0232914 -0.0249434
-0.023405 -0.0232931 -0.025064
-0.0234099 -0.0232948 -0.0251695
-0.0234151 -0.0232966 -0.0252592
-0.0234206 -0.0232986 -0.0253331
-0.0234914 -0.0233003 -0.0253921
-0.0237452 -0.0233001 -0.0254533
-0.0239579 -0.0233011 -0.0255034
-0.0241804 -0.0233025 -0.0255107
-0.02444 -0.0233034 -0.0255228
-0.0246971 -0.0233051 -0.0255216
-0.024972 -0.0233069 -0.0255196
-0.0252651 -0.023309 -0.0255166
-0.0255699 -0.0233114 -0.0255126
-0.0258907 -0.023314 -0.0255078
-0.0262229 -0.0233166 -0.0254357
-0.0265588 -0.0233501 -0.0253162
-0.0268921 -0.0234813 -0.0251958
-0.0272158 -0.0236361 -0.0250485
-0.0275628 -0.0237793 -0.0249155
-0.0279125 -0.0239346 -0.0247725
-0.0282513 -0.0241186 -0.024617
-0.028591 -0.0243098 -0.0244621
-0.0289265 -0.0244982 -0.0243153
-0.0292344 -0.0246301 -0.024199
-0.0295579 -0.0247501 -0.0241077
-0.0298595 -0.0249214 -0.0239956
-0.0301376 -0.0251155 -0.0238887
-0.0304191 -0.0252889 -0.0238082
-0.0306902 -0.0254594 -0.0237476
-0.0309439 -0.0256572 -0.0236917
-0.0311829 -0.0258657 -0.0236512
-0.0314137 -0.0260629 -0.0236399
-0.0316347 -0.0262601 -0.023641
-0.0318403 -0.0264718 -0.0236434
-0.0320335 -0.0266878 -0.0236475
-0.0322192 -0.0268976 -0.0236538
-0.0323962 -0.0271087 -0.023662
-0.0325638 -0.0273253 -0.0236718
-0.032724 -0.0275338 -0.0237092
-0.0328854 -0.02771 -0.0239653
-0.03305 -0.0278613 -0.0242675
-0.0331995 -0.0280187 -0.0245922
-0.0333389 -0.0281679 -0.024953
-0.0334788 -0.0282999 -0.0253532
-0.0336081 -0.0284294 -0.0257813
-0.0337251 -0.0285622 -0.0262279
-0.0338345 -0.0286926 -0.0266976
-0.0339361 -0.0288233 -0.027187
-0.0340275 -0.0289611 -0.0276885
-0.0341103 -0.0291064 -0.0281993
-0.0341863 -0.0292593 -0.0287171
-0.0342554 -0.0294231 -0.029237
-0.0343181 -0.0295998 -0.0297554
-0.0343763 -0.0297892 -0.0302707
-0.0344332 -0.0299954 -0.0307797
-0.0344949 -0.0302472 -0.0312633
-0.0345434 -0.0305188 -0.0317263
-0.0345997 -0.0307809 -0.0321996
-0.0346615 -0.0310479 -0.0326668
-0.0347166 -0.0313381 -0.0331139
-0.0347717 -0.0316404 -0.0335469
-0.0348295 -0.0319411 -0.0339768
-0.0348874 -0.0322482 -0.0343975
-0.0349418 -0.0325684 -0.0348021
-0.0349935 -0.0328942 -0.0351967
-0.0350442 -0.0332195 -0.0355856
-0.0350906 -0.0335481 -0.0359659
-0.03513 -0.0338816 -0.0363359
-0.0351624 -0.0342155 -0.0366995
-0.0351867 -0.0345474 -0.037059
-0.0352004 -0.0348768 -0.0374142
-0.0352026 -0.0352016 -0.0377669
-0.0352023 -0.0355167 -0.0381202
-0.0352015 -0.0358167 -0.0384781
-0.0352004 -0.0361055 -0.0388393
-0.0351989 -0.0363841 -0.0392007
-0.035197 -0.0366436 -0.0395688
-0.0351946 -0.0368822 -0.0399451
-0.0351918 -0.0371033 -0.0403256
-0.0351886 -0.0373045 -0.0407112
-0.0351849 -0.0374809 -0.0411043
-0.0351809 -0.0376329 -0.0415032
-0.0351764 -0.0377618 -0.0419048
-0.0351717 -0.037865 -0.042309
-0.0351591 -0.0379408 -0.0427152
-0.0350039 -0.0379988 -0.0431171
-0.0348305 -0.0380719 -0.0434907
-0.0346777 -0.0381078 -0.0438542
-0.0345215 -0.0381072 -0.0442379
-0.0343718 -0.0381068 -0.0445823
-0.034213 -0.0381054 -0.044905
-0.0340585 -0.0381035 -0.0452063
-0.0339038 -0.0381011 -0.0454724
-0.0337522 -0.0380981 -0.0457094
-0.0336049 -0.0380946 -0.0459101
-0.0334619 -0.0380908 -0.0460716
-0.0333259 -0.0380865 -0.0461923
-0.0331982 -0.038082 -0.046269
-0.0330812 -0.0380773 -0.0462985
-0.0329775 -0.0380724 -0.0462967
-0.0328897 -0.0380671 -0.0462923
-0.0328194 -0.0380617 -0.046285
-0.0327686 -0.0379601 -0.0462757
-0.0327573 -0.0377308 -0.046267
-0.0327573 -0.0375418 -0.0462535
-0.0327577 -0.0373896 -0.0461983
-0.0327591 -0.0372301 -0.0458234
-0.0327607 -0.0371338 -0.0454316
-0.0327631 -0.037047 -0.0450355
-0.032766 -0.0369753 -0.0446059
-0.0327692 -0.0369297 -0.0441236
-0.0327728 -0.0368954 -0.0436062
-0.0327767 -0.0368744 -0.0430577
-0.0327809 -0.0368688 -0.0424777
-0.0327848 -0.0368689 -0.0418797
-0.0328372 -0.0368674 -0.0412738
-0.0330255 -0.0368457 -0.0406685
-0.0332025 -0.036811 -0.0400758
-0.0333692 -0.0368055 -0.0394621
-0.0335431 -0.0367857 -0.0388607
-0.0337225 -0.0367518 -0.0382876
-0.0338933 -0.0367218 -0.0377206
-0.0340572 -0.0366845 -0.0371778
-0.0342201 -0.0366325 -0.0366675
-0.0343741 -0.036573 -0.0361872
-0.0345191 -0.0365046 -0.0357404
-0.0346478 -0.0363985 -0.035344
-0.0347729 -0.036248 -0.0350158
-0.0348971 -0.0361225 -0.0347045
-0.0349957 -0.0360119 -0.0344135
-0.0350952 -0.0358807 -0.0341774
-0.0351886 -0.0357433 -0.0339839
-0.035262 -0.0356207 -0.0338163
-0.0353226 -0.0354918 -0.0336893
-0.0353778 -0.0353564 -0.0336064
-0.0354178 -0.0352286 -0.0335528
-0.0354476 -0.0351079 -0.0335302
-0.0354795 -0.0350013 -0.0335302
-0.0355042 -0.0349165 -0.0335319
-0.0355258 -0.0348377 -0.0335356
-0.0355547 -0.0347685 -0.0335409
-0.0355834 -0.0347169 -0.0335472
-0.0356179 -0.0346808 -0.0335546
-0.0356611 -0.0346574 -0.0335631
-0.0357118 -0.0346518 -0.0335723
-0.0357715 -0.0346524 -0.0335822
-0.0358459 -0.0346536 -0.0335931
-0.0359332 -0.0346555 -0.0336046
-0.0360334 -0.0346582 -0.0336165
-0.0361507 -0.0346617 -0.0336287
-0.0362842 -0.0346663 -0.033641
-0.0364335 -0.0346717 -0.0336533
-0.0365978 -0.034678 -0.0336657
-0.0367755 -0.0346842 -0.0336903
-0.0369578 -0.0346936 -0.033892
-0.0371365 -0.0348692 -0.0340773
-0.0372659 -0.0351777 -0.0341845
-0.037406 -0.0354461 -0.0343277
-0.0375772 -0.035663 -0.034533
-0.0377281 -0.0359345 -0.0347078
-0.0378644 -0.0362643 -0.0348492
-0.0380018 -0.0365708 -0.0350239
-0.0381425 -0.0368567 -0.0352386
-0.0382682 -0.0371762 -0.0354468
-0.0383747 -0.0375207 -0.035653
-0.0384733 -0.0378498 -0.0358912
-0.0385609 -0.038169 -0.036161
-0.0386271 -0.0385034 -0.0364436
-0.0386708 -0.0388437 -0.0367451
-0.0386963 -0.0391695 -0.0370827
-0.0387014 -0.039486 -0.0374524
-0.0387006 -0.0398019 -0.037846
-0.0386991 -0.0400941 -0.0382778
-0.0386969 -0.0403514 -0.0387611
-0.0386938 -0.0405839 -0.0392823
-0.0386901 -0.0407872 -0.0398419
-0.0386858 -0.0409558 -0.0404437
-0.0386808 -0.0410928 -0.0410814
-0.038672 -0.0411983 -0.0417518
-0.0385147 -0.0412841 -0.0424478
-0.0383118 -0.0414444 -0.0431111
-0.0381299 -0.0416037 -0.0437473
-0.037937 -0.0416759 -0.0444646
-0.0377557 -0.0417316 -0.0451841
-0.0375455 -0.0418037 -0.0458742
-0.0373397 -0.0418489 -0.0465662
-0.0371371 -0.0418524 -0.0472709
-0.0369306 -0.0418524 -0.0479528
-0.0367213 -0.041852 -0.048603
-0.0365153 -0.0418511 -0.0492316
-0.0363098 -0.0418499 -0.0498195
-0.0361074 -0.0418485 -0.0503673
-0.0359096 -0.041847 -0.0508702
-0.0357171 -0.0418453 -0.0513224
-0.03553 -0.0418436 -0.051721
-0.0353498 -0.0418419 -0.0520616
-0.0351773 -0.0418402 -0.0523407
-0.0350141 -0.0418386 -0.052556
-0.0348613 -0.041837 -0.0527055
-0.03472 -0.0418356 -0.052788
-0.0345909 -0.0418342 -0.0528049
-0.0344744 -0.0418327 -0.0528011
-0.0343711 -0.041831 -0.0527937
-0.0342823 -0.0418295 -0.0527825
-0.0342077 -0.0418281 -0.0527677
-0.0341467 -0.0418266 -0.0527496
-0.0340979 -0.0418253 -0.0525688
-0.0340556 -0.0418249 -0.0520533
-0.0340212 -0.0418239 -0.0516002
-0.0340029 -0.0418228 -0.0511442
-0.0339872 -0.0418216 -0.0506565
-0.0339827 -0.0418197 -0.0501456
-0.0339827 -0.0418175 -0.0496049
-0.0339829 -0.0418146 -0.0490433
-0.0339835 -0.0417562 -0.0484695
-0.0339848 -0.0416209 -0.0479177
-0.033986 -0.0414844 -0.0473551
-0.0339874 -0.0413341 -0.0467761
-0.0339891 -0.0411481 -0.0462169
-0.0339911 -0.040969 -0.0456591
-0.0339932 -0.0407741 -0.045112
-0.0339956 -0.0405599 -0.0445784
-0.0339981 -0.0403306 -0.0440537
-0.0340007 -0.0400847 -0.0435433
-0.0340035 -0.0398251 -0.0430468
-0.0340063 -0.0395558 -0.0425624
-0.0340093 -0.039278 -0.0420906
-0.0340125 -0.0389949 -0.0416305
-0.0340157 -0.03871 -0.0411804
-0.0340192 -0.038426 -0.0407402
-0.0340228 -0.0381464 -0.0403085
-0.0340266 -0.037875 -0.0398831
-0.0340305 -0.0376147 -0.0394626
-0.0340342 -0.0373679 -0.0390468
-0.0341164 -0.0371259 -0.0386408
-0.0342987 -0.036874 -0.0382537
-0.0344598 -0.0366491 -0.0378722
-0.0346245 -0.0364716 -0.0374671
-0.0348026 -0.0363041 -0.0370764
-0.0349897 -0.0361645 -0.0366904
-0.0351738 -0.0360662 -0.0362933
-0.0353624 -0.035997 -0.035902
-0.035557 -0.0359562 -0.0355178
-0.0357504 -0.0359497 -0.0351369
-0.0359478 -0.0359509 -0.0347694
-0.036157 -0.035953 -0.0344309
-0.0363673 -0.0359563 -0.0341132
-0.036576 -0.0359599 -0.0338268
-0.0367468 -0.0359604 -0.0336133
-0.0369263 -0.0359635 -0.0334247
-0.0370984 -0.0359663 -0.0332644
-0.0372644 -0.0359697 -0.033164
-0.0374257 -0.0359738 -0.0330932
-0.0375758 -0.0359782 -0.0330767
-0.0377181 -0.0359831 -0.0330792
-0.0378468 -0.0359886 -0.0330847
-0.0379631 -0.0359944 -0.0330934
-0.0380676 -0.0360006 -0.0331053
-0.0381578 -0.0360063 -0.03312
-0.0382279 -0.0360445 -0.0331361
-0.03827 -0.0362814 -0.0331523
-0.0382703 -0.0365688 -0.0331703
-0.0382717 -0.0367751 -0.0331948
-0.0382723 -0.0369865 -0.0332212
-0.0382714 -0.0372088 -0.0332497
-0.0382705 -0.0373942 -0.033316
-0.0382696 -0.0375438 -0.0339274
-0.0382689 -0.037645 -0.0345998
-0.0382673 -0.0377781 -0.0352619
-0.0382658 -0.0378963 -0.0359649
-0.0382643 -0.0379887 -0.03671
-0.0382624 -0.0380928 -0.037463
-0.0382609 -0.0382352 -0.038203
-0.0382588 -0.0384222 -0.0389131
-0.038257 -0.0385843 -0.0396414
-0.0382553 -0.0387338 -0.0403889
-0.0382534 -0.0389119 -0.0411071
-0.0382205 -0.0391016 -0.0418069
-0.0381538 -0.0392948 -0.042497
-0.0381053 -0.0395028 -0.0431571
-0.0380504 -0.039715 -0.0437973
-0.0380032 -0.0399355 -0.0444141
-0.0379569 -0.0401657 -0.0449996
-0.0379128 -0.040405 -0.0455545
-0.0378753 -0.0406512 -0.0460762
-0.0378391 -0.0409054 -0.0465644
-0.0378055 -0.0411667 -0.047018
-0.0377725 -0.041431 -0.0474396
-0.0377401 -0.0416985 -0.0478284
-0.037707 -0.0419686 -0.0481833
-0.0376728 -0.0422412 -0.0485056
-0.0376355 -0.0425143 -0.0487962
-0.0375943 -0.0427844 -0.0490585
-0.0375477 -0.0430485 -0.0492951
-0.0374945 -0.0433037 -0.0495083
-0.0374339 -0.0435466 -0.0497009
-0.0373657 -0.0437733 -0.0498765
-0.0372902 -0.0439801 -0.0500384
-0.0372076 -0.0441634 -0.0501898
-0.0371184 -0.0443196 -0.0503333
-0.037023 -0.0444457 -0.0504713
-0.0369214 -0.0445395 -0.0506055
-0.0368136 -0.0445988 -0.0507372
-0.0367002 -0.0446222 -0.050867
-0.0365811 -0.0446215 -0.0509943
-0.0364501 -0.0446196 -0.0511052
-0.0363123 -0.044617 -0.0511966
-0.0361803 -0.0446145 -0.0512584
-0.0360386 -0.0446104 -0.0513055
-0.0358979 -0.0446058 -0.0513311
-0.0357531 -0.0446004 -0.0513318
-0.0356101 -0.0445941 -0.0513299
-0.0354679 -0.0445872 -0.0513264
-0.0353283 -0.0445797 -0.0513211
-0.0351938 -0.0445678 -0.0513139
-0.0350725 -0.0443602 -0.0513069
-0.0350017 -0.0439892 -0.0513027
-0.0349261 -0.0436931 -0.0512926
-0.034836 -0.0434523 -0.0512798
-0.0347943 -0.0431487 -0.0512317
-0.0347672 -0.0428559 -0.0509631
-0.0347313 -0.0426394 -0.0506053
-0.0347205 -0.0423912 -0.050286
-0.0347214 -0.0421234 -0.0499574
-0.0347225 -0.0419079 -0.0495542
-0.0347244 -0.0417084 -0.0491011
-0.0347272 -0.0415158 -0.0486188
-0.0347306 -0.0413557 -0.0480799
-0.0347347 -0.0412182 -0.0475001
-0.0347396 -0.0410965 -0.0468901
-0.034745 -0.0410001 -0.0462426
-0.034751 -0.0409255 -0.0455632
-0.0347572 -0.0408685 -0.0448611
-0.0348151 -0.0408253 -0.0441428
-0.0350866 -0.0407503 -0.0434362
-0.0353405 -0.0406644 -0.0427528
-0.0355718 -0.0406476 -0.0420231
-0.035812 -0.0406242 -0.0413032
-0.0360616 -0.0405917 -0.0406205
-0.0362955 -0.0405858 -0.0399327
-0.0365182 -0.0405858 -0.0392686
-0.0367406 -0.0405857 -0.0386426
-0.0369461 -0.0405858 -0.038046
-0.0371164 -0.0405465 -0.0375086
-0.0372757 -0.0404178 -0.03708
-0.0374401 -0.0403329 -0.0366717
-0.0375559 -0.0403008 -0.0362665
-0.0376719 -0.0402434 -0.0359349
-0.0377891 -0.0401592 -0.0356784
-0.0378864 -0.0401055 -0.0354568
-0.0379702 -0.0400714 -0.0352742
-0.038051 -0.0400179 -0.035164
-0.0381288 -0.0399609 -0.0351151
-0.0381907 -0.039914 -0.0351078
-0.0382455 -0.0398573 -0.0351122
-0.0382987 -0.0397981 -0.0351202
-0.0383419 -0.0397452 -0.0351312
-0.0383838 -0.0396952 -0.0351453
-0.0384262 -0.039649 -0.035162
-0.0384679 -0.0396158 -0.0351807
-0.0385227 -0.0396146 -0.0352003
-0.0385745 -0.0396155 -0.0352218
-0.0386353 -0.0396172 -0.0352449
-0.0387002 -0.0396195 -0.0352682
-0.0387709 -0.0396219 -0.0355422
-0.0388576 -0.0396237 -0.0360453
-0.0389487 -0.0396276 -0.0364841
-0.0390409 -0.0396318 -0.0369527
-0.039151 -0.039637 -0.0374289
-0.039265 -0.0396434 -0.0378969
-0.039388 -0.0396508 -0.0383655
-0.039518 -0.0396581 -0.0388269
-0.0396364 -0.039737 -0.0392612
-0.0397193 -0.0400551 -0.039632
-0.0397703 -0.040408 -0.0399499
-0.0398687 -0.0407217 -0.0403326
-0.0399542 -0.0410649 -0.0406949
-0.0400145 -0.0414547 -0.0410238
-0.0400762 -0.0418168 -0.0413799
-0.0401348 -0.0421379 -0.0417833
-0.0401858 -0.0424911 -0.0421756
-0.0402117 -0.0428756 -0.0425467
-0.0402311 -0.0432393 -0.0429462
-0.0402448 -0.0435832 -0.0433753
-0.0402447 -0.0439395 -0.0438075
-0.040244 -0.0442958 -0.0442488
-0.040243 -0.0446243 -0.0447235
-0.0402416 -0.0449343 -0.0452242
-0.0402396 -0.0452283 -0.0457419
-0.0402373 -0.0454861 -0.0462953
-0.0402345 -0.0457107 -0.0468811
-0.0402313 -0.0459061 -0.0474898
-0.0402278 -0.0460678 -0.0481249
-0.0402242 -0.0462272 -0.0487669
-0.04022 -0.0463738 -0.0494046
-0.0401685 -0.046475 -0.0500729
-0.0400043 -0.046571 -0.0507428
-0.0398605 -0.0466734 -0.0513805
-0.0397225 -0.046719 -0.0520415
-0.0395881 -0.0467418 -0.0527047
-0.039449 -0.0467627 -0.053331
-0.0393084 -0.0467647 -0.0539463
-0.0391749 -0.0467639 -0.0545369
-0.0390376 -0.0467628 -0.0550835
-0.0389074 -0.0467611 -0.0555951
-0.0387822 -0.0467593 -0.056061
-0.0386633 -0.0467573 -0.0564756
-0.038554 -0.0467551 -0.0568378
-0.038454 -0.0467528 -0.0571415
-0.0383652 -0.0467506 -0.0573834
-0.0382887 -0.0467485 -0.0575613
-0.0382249 -0.0467465 -0.0576724
-0.0381746 -0.0467447 -0.0577151
-0.0381381 -0.046743 -0.0577127
-0.0381164 -0.0467413 -0.0577066
-0.0381109 -0.0467399 -0.0576965
-0.0381114 -0.0467389 -0.0576825
-0.0381124 -0.0467384 -0.0576649
-0.0381139 -0.0467381 -0.057644
-0.0381158 -0.0467384 -0.0574089
-0.0381177 -0.0467401 -0.0568215
-0.03812 -0.0467412 -0.0562977
-0.0381224 -0.0467427 -0.0557952
-0.0381247 -0.0467441 -0.0552659
-0.0381271 -0.0467451 -0.0547224
-0.0381294 -0.0467459 -0.054153
-0.0381313 -0.046746 -0.0535732
-0.038133 -0.0467453 -0.0529884
-0.03815 -0.0467438 -0.0524043
-0.0381963 -0.0467412 -0.0518285
-0.0382173 -0.0467379 -0.0512618
-0.0382237 -0.0467338 -0.0507007
-0.0382234 -0.0467288 -0.0501583
-0.0382125 -0.0467228 -0.0496339
-0.0381752 -0.0467161 -0.0491296
-0.0381304 -0.0466943 -0.0486466
-0.0380928 -0.0464575 -0.0482183
-0.0380876 -0.0461345 -0.0478899
-0.0380354 -0.0458577 -0.0475266
-0.0379742 -0.0455959 -0.0471849
-0.0379313 -0.0452904 -0.0469153
-0.03787 -0.0449944 -0.0466552
-0.0377882 -0.0447124 -0.0463936
-0.0377089 -0.0444068 -0.0461696
-0.0376222 -0.0440994 -0.0459649
-0.037521 -0.0438076 -0.0457615
-0.0374162 -0.0435159 -0.0455718
-0.0373088 -0.0432272 -0.0453933
-0.0371954 -0.0429535 -0.0452144
-0.0370806 -0.0426914 -0.0450385
-0.0369681 -0.0424396 -0.0448671
-0.0368573 -0.0422038 -0.0446937
-0.0367494 -0.0419851 -0.0445158
-0.0366469 -0.0417824 -0.0443345
-0.0365498 -0.041598 -0.0441485
-0.0364585 -0.0414332 -0.0439571
-0.0363742 -0.0412873 -0.0437608
-0.0362969 -0.0411608 -0.043559
-0.0362263 -0.0410542 -0.0433515
-0.0361627 -0.0409667 -0.0431398
-0.0361056 -0.0408978 -0.0429257
-0.0360547 -0.0408469 -0.0427106
-0.0360093 -0.0408128 -0.0424963
-0.0359687 -0.0407945 -0.0422846
-0.035932 -0.0407903 -0.0420778
-0.0358988 -0.0407907 -0.0418797
-0.0358708 -0.0407915 -0.0416977
-0.0358444 -0.0407926 -0.0415304
-0.0358189 -0.040794 -0.0413807
-0.0357935 -0.0407955 -0.0412517
-0.0357662 -0.0407972 -0.0411448
-0.0357363 -0.040799 -0.0410623
-0.035702 -0.0408006 -0.0410059
-0.0356624 -0.0408022 -0.040977
-0.0356166 -0.0408037 -0.0409737
-0.0355631 -0.040805 -0.0409758
-0.0355009 -0.0408062 -0.0409798
-0.0354297 -0.0408071 -0.0409856
-0.0353488 -0.0408079 -0.0409932
-0.0352582 -0.0408085 -0.0410024
-0.0351579 -0.0408088 -0.0410133
-0.0350482 -0.0408089 -0.0410256
-0.0349298 -0.0408088 -0.0410392
-0.0348033 -0.0408085 -0.0410538
-0.0346698 -0.040808 -0.0410693
-0.0345305 -0.0408074 -0.0410855
-0.0343866 -0.0408067 -0.041102
-0.0342396 -0.0408059 -0.0411181
-0.0340916 -0.0408047 -0.0412078
-0.0339468 -0.0408029 -0.0415229
-0.033803 -0.0408014 -0.0417992
-0.0336564 -0.0408 -0.0420694
-0.0335171 -0.0407986 -0.0423373
-0.0333787 -0.0407975 -0.042585
-0.0332449 -0.0407965 -0.042817
-0.0331168 -0.0407958 -0.0430291
-0.0329945 -0.0407952 -0.0432207
-0.0328786 -0.0407949 -0.0433924
-0.0327683 -0.0407947 -0.0435412
-0.0326649 -0.0407947 -0.0436668
-0.0325674 -0.0407949 -0.0437671
-0.0324763 -0.0407952 -0.0438424
-0.0323916 -0.0407956 -0.0438938
-0.0323128 -0.040796 -0.0439213
-0.0322395 -0.0407965 -0.0439263
-0.0321717 -0.0407969 -0.043925
-0.032109 -0.0407973 -0.0439225
-0.0320505 -0.0407975 -0.0439188
-0.0319955 -0.0407975 -0.0439125
-0.0319432 -0.0407974 -0.0438182
-0.0318912 -0.0407973 -0.043694
-0.0318416 -0.0407967 -0.0435828
-0.0317928 -0.040796 -0.0434562
-0.0317434 -0.0407949 -0.0433206
-0.0316945 -0.0407935 -0.0431749
-0.0316442 -0.0407917 -0.0430202
-0.0315932 -0.0407842 -0.042858
-0.0315468 -0.0407125 -0.0426987
-0.0315128 -0.040623 -0.0425557
-0.0314687 -0.0405395 -0.0423955
-0.0314237 -0.0404484 -0.0422306
-0.0313834 -0.0403374 -0.042072
-0.0313404 -0.0402203 -0.0419091
-0.0312949 -0.0400978 -0.0417411
-0.031251 -0.0399629 -0.0415748
-0.031207 -0.0398199 -0.0414065
-0.0311616 -0.039672 -0.0412334
-0.0311171 -0.0395168 -0.0410582
-0.0310736 -0.0393555 -0.0408806
-0.0310305 -0.0391909 -0.0406983
-0.0309888 -0.039023 -0.0405114
-0.0309492 -0.0388524 -0.0403196
-0.0309114 -0.0386811 -0.0401215
-0.0308763 -0.03851 -0.0399169
-0.0308442 -0.0383399 -0.0397059
-0.0308154 -0.0381719 -0.0394875
-0.0307901 -0.0380073 -0.0392613
-0.0307689 -0.0378468 -0.0390272
-0.0307519 -0.0376912 -0.0387852
-0.0307391 -0.0375415 -0.0385354
-0.0307309 -0.0373982 -0.0382782
-0.0307273 -0.0372619 -0.038014
-0.0307272 -0.0371331 -0.0377432
-0.0307274 -0.037013 -0.0374663
-0.0307278 -0.0369022 -0.0371839
-0.0307283 -0.0368001 -0.0368979
-0.0307289 -0.0367068 -0.0366095
-0.0307297 -0.0366223 -0.0363199
-0.0307306 -0.0365461 -0.0360313
-0.0307316 -0.0364778 -0.0357453
-0.0307327 -0.0364169 -0.0354638
-0.0307338 -0.036363 -0.035189
-0.030735 -0.0363153 -0.0349228
-0.0307362 -0.0362732 -0.0346673
-0.0307374 -0.0362362 -0.0344243
-0.0307386 -0.0362035 -0.034196
-0.0307398 -0.0361746 -0.0339841
-0.0307409 -0.0361489 -0.0337904
-0.030742 -0.0361259 -0.0336163
-0.030743 -0.0361052 -0.0334634
-0.0307439 -0.0360864 -0.0333328
-0.0307447 -0.0360692 -0.0332254
-0.0307454 -0.0360536 -0.033142
-0.0307461 -0.0360395 -0.0330832
-0.0307466 -0.0360269 -0.0330491
-0.030747 -0.0360162 -0.0330397
-0.0307474 -0.0360077 -0.033041
-0.0307476 -0.0360041 -0.0330437
-0.0307477 -0.036004 -0.0330479
-0.0307478 -0.0360043 -0.0330535
-0.0307478 -0.0360047 -0.0330605
-0.0307478 -0.0360054 -0.0330688
-0.0307479 -0.0360064 -0.0330783
-0.0307479 -0.0360077 -0.0330887
-0.030748 -0.0360092 -0.0331001
-0.0307482 -0.0360111 -0.0331122
-0.0307485 -0.0360132 -0.0331249
-0.0307489 -0.0360157 -0.0331381
-0.0307494 -0.0360186 -0.0331516
-0.03075 -0.0360217 -0.0331654
-0.0307508 -0.036025 -0.0332891
-0.0307519 -0.0360278 -0.0335664
-0.0307531 -0.0360314 -0.0338
-0.0307544 -0.0360351 -0.0340459
-0.0307558 -0.036039 -0.0342953
-0.0307574 -0.0360431 -0.0345393
-0.030759 -0.0360473 -0.034785
-0.0307607 -0.0360516 -0.0350265
-0.0307624 -0.036056 -0.0352663
-0.0307642 -0.0360604 -0.035506
-0.030766 -0.0360647 -0.035745
-0.0307678 -0.036069 -0.0359831
-0.0307696 -0.0360731 -0.0362194
-0.0307713 -0.036077 -0.0364538
-0.030773 -0.0360808 -0.0366867
-0.0307746 -0.0360843 -0.0369183
-0.0307762 -0.0360876 -0.0371482
-0.0307777 -0.0360906 -0.0373754
-0.0307791 -0.0360933 -0.0375992
-0.0307804 -0.0360957 -0.0378188
-0.0307816 -0.0360978 -0.0380338
-0.0307826 -0.0360994 -0.038241
-0.0307836 -0.0361007 -0.0384386
-0.0307846 -0.0361018 -0.0386331
-0.0307856 -0.0361028 -0.038816
-0.0307865 -0.0361036 -0.038989
-0.0307875 -0.0361123 -0.0391504
-0.0307884 -0.0361354 -0.0392926
-0.0307894 -0.0361525 -0.0394215
-0.0307904 -0.0361637 -0.0395419
-0.0307916 -0.0361775 -0.0396419
-0.0307928 -0.0361914 -0.0397241
-0.0307941 -0.0362039 -0.0397903
-0.0307955 -0.0362187 -0.0398369
-0.0307971 -0.0362358 -0.0398638
-0.0307987 -0.0362545 -0.0398718
-0.0308005 -0.0362758 -0.0398708
-0.0308024 -0.0362982 -0.0398689
-0.0308044 -0.0363216 -0.039866
-0.0308066 -0.0363473 -0.0398621
-0.0308088 -0.0363742 -0.0398573
-0.0308111 -0.0364019 -0.0398518
-0.0308597 -0.0364288 -0.0397938
-0.0309629 -0.0364377 -0.0396676
-0.0310459 -0.0364475 -0.0395533
-0.0311297 -0.0364734 -0.0394339
-0.0312166 -0.0364907 -0.0393166
-0.0313073 -0.0365023 -0.0391998
-0.0313948 -0.0365196 -0.0390725
-0.0314802 -0.0365363 -0.0389429
-0.0315681 -0.0365472 -0.0388144
-0.0316538 -0.0365569 -0.0386858
-0.0317366 -0.0365662 -0.038557
-0.0318181 -0.0365714 -0.0384318
-0.0318976 -0.0365728 -0.0383104
-0.0319736 -0.0365727 -0.0381926
-0.0320457 -0.0365726 -0.0380792
-0.032114 -0.0365723 -0.0379715
-0.0321782 -0.0365719 -0.0378701
-0.0322379 -0.0365714 -0.0377753
-0.0322933 -0.0365708 -0.0376876
-0.0323444 -0.0365701 -0.0376074
-0.0323922 -0.0365544 -0.0375363
-0.0324415 -0.0365256 -0.0374806
-0.0324854 -0.0364999 -0.0374304
-0.0325228 -0.0364755 -0.0373858
-0.0325601 -0.0364481 -0.0373524
-0.0325947 -0.0364233 -0.0373275
-0.0326255 -0.0364002 -0.0373091
-0.032654 -0.0363779 -0.037298
-0.0326807 -0.0363565 -0.0372941
-0.0327053 -0.0363374 -0.0372942
-0.0327278 -0.0363214 -0.0372947
-0.032749 -0.0363086 -0.0372956
-0.0327689 -0.0362995 -0.0372967
-0.0327878 -0.0362945 -0.0372981
-0.0328061 -0.0362936 -0.0372997
-0.0328245 -0.0362938 -0.0373016
-0.0328442 -0.0362941 -0.0373037
-0.0328644 -0.0362947 -0.037306
-0.0328856 -0.0362955 -0.0373084
-0.0329076 -0.0362963 -0.0373109
-0.0329288 -0.036304 -0.0373135
-0.0329474 -0.0363441 -0.0373157
-0.0329597 -0.0363945 -0.0373177
-0.0329784 -0.036442 -0.0373202
-0.0329967 -0.0364949 -0.0373227
-0.0330112 -0.0365567 -0.0373245
-0.0330276 -0.0366187 -0.0373264
-0.0330447 -0.0366824 -0.0373414
-0.0330592 -0.0367503 -0.0373917
-0.033074 -0.036818 -0.0374429
-0.0330871 -0.0368884 -0.0374983
-0.0330975 -0.0369603 -0.0375572
-0.0331066 -0.037032 -0.0376209
-0.0331132 -0.0371032 -0.0376901
-0.033117 -0.037174 -0.0377646
-0.0331179 -0.037243 -0.0378457
-0.0331178 -0.0373095 -0.0379339
-0.0331177 -0.0373724 -0.0380296
-0.0331174 -0.0374315 -0.0381329
-0.033117 -0.0374864 -0.0382435
-0.0331166 -0.0375366 -0.0383618
-0.033116 -0.037582 -0.0384874
-0.0331154 -0.0376225 -0.0386199
-0.0331146 -0.037658 -0.0387586
-0.0331138 -0.0376886 -0.0389027
-0.0331129 -0.0377145 -0.0390515
-0.0331119 -0.0377357 -0.039204
-0.0331108 -0.0377527 -0.0393591
-0.0331097 -0.0377657 -0.0395157
-0.0331072 -0.0377753 -0.0396724
-0.0330742 -0.0377846 -0.0398267
-0.0330346 -0.037801 -0.0399721
-0.0329994 -0.0378086 -0.0401161
-0.0329669 -0.0378126 -0.0402605
-0.0329325 -0.037821 -0.0403919
-0.0328991 -0.0378266 -0.040518
-0.0328673 -0.0378289 -0.0406387
-0.0328353 -0.0378328 -0.0407482
-0.0328038 -0.0378368 -0.0408474
-0.0327741 -0.037839 -0.0409375
-0.0327453 -0.0378416 -0.0410163
-0.0327174 -0.037845 -0.0410825
-0.0326912 -0.0378478 -0.0411371
-0.0326664 -0.0378504 -0.0411795
-0.0326427 -0.0378533 -0.0412089
-0.0326205 -0.0378559 -0.0412257
-0.0325997 -0.0378577 -0.0412303
-0.0325801 -0.0378588 -0.0412297
-0.032562 -0.0378587 -0.0412285
-0.0325448 -0.0378586 -0.0412266
-0.0325283 -0.0378584 -0.0412241
-0.0325123 -0.037858 -0.041221
-0.0324965 -0.0378576 -0.0412174
-0.0324806 -0.0378571 -0.0411862
-0.0324634 -0.0378566 -0.0410924
-0.0324453 -0.0378559 -0.0410018
-0.0324274 -0.0378551 -0.040921
-0.0324073 -0.0378543 -0.0408343
-0.0323869 -0.0378532 -0.040745
-0.032365 -0.037852 -0.0406505
-0.0323415 -0.0378506 -0.0405523
-0.0323168 -0.0378466 -0.0404511
-0.0322939 -0.0378027 -0.0403527
-0.0322774 -0.0377431 -0.0402657
-0.0322526 -0.0376914 -0.0401663
-0.0322276 -0.0376417 -0.0400661
-0.0322062 -0.0375817 -0.0399737
-0.0321815 -0.0375231 -0.0398774
-0.0321543 -0.0374638 -0.0397781
-0.0321284 -0.0373975 -0.0396829
-0.0321012 -0.0373291 -0.0395874
-0.0320722 -0.0372603 -0.0394902
-0.0320432 -0.0371879 -0.0393941
-0.0320138 -0.0371133 -0.0392982
-0.0319833 -0.0370382 -0.0392014
-0.0319526 -0.0369616 -0.0391048
-0.031922 -0.0368839 -0.0390082
-0.0318909 -0.0368063 -0.0389106
-0.0318599 -0.0367287 -0.0388122
-0.0318291 -0.0366513 -0.0387132
-0.0317985 -0.0365748 -0.0386131
-0.0317683 -0.0364995 -0.0385121
-0.0317386 -0.0364256 -0.0384101
-0.0317094 -0.0363534 -0.0383068
-0.0316809 -0.0362834 -0.0382023
-0.0316531 -0.0362156 -0.0380968
-0.0316261 -0.0361503 -0.0379905
-0.0315998 -0.0360877 -0.0378835
-0.0315742 -0.0360278 -0.0377759
-0.0315494 -0.0359708 -0.037668
-0.0315252 -0.0359167 -0.0375603
-0.0315017 -0.0358654 -0.037453
-0.0314787 -0.035817 -0.0373467
-0.0314562 -0.0357714 -0.0372418
-0.031434 -0.0357284 -0.0371388
-0.031412 -0.035688 -0.0370382
-0.0313902 -0.0356498 -0.0369405
-0.0313683 -0.0356139 -0.0368464
-0.0313462 -0.03558 -0.0367564
-0.0313238 -0.0355478 -0.036671
-0.0313009 -0.0355173 -0.0365907
-0.0312775 -0.0354881 -0.036516
-0.0312535 -0.0354601 -0.0364475
-0.0312287 -0.035433 -0.0363855
-0.0312029 -0.0354068 -0.0363304
-0.0311761 -0.0353813 -0.0362824
-0.0311484 -0.0353562 -0.0362419
-0.0311194 -0.0353316 -0.036209
-0.0310894 -0.0353074 -0.0361838
-0.0310582 -0.0352835 -0.0361664
-0.0310259 -0.0352599 -0.0361566
-0.0309925 -0.0352366 -0.0361543
-0.0309581 -0.0352138 -0.0361547
-0.0309225 -0.0351922 -0.0361555
-0.0308859 -0.0351715 -0.0361568
-0.0308487 -0.0351518 -0.0361585
-0.0308107 -0.0351332 -0.0361605
-0.0307722 -0.0351161 -0.0361628
-0.0307335 -0.0351003 -0.0361654
-0.0306947 -0.0350861 -0.0361682
-0.0306561 -0.0350737 -0.0361712
-0.0306178 -0.0350631 -0.0361743
-0.0305802 -0.0350544 -0.0361774
-0.0305433 -0.0350478 -0.0361806
-0.0305074 -0.0350433 -0.0361838
-0.0304726 -0.035041 -0.0361868
-0.0304392 -0.0350407 -0.0361898
-0.0304075 -0.0350408 -0.0361927
-0.0303778 -0.035041 -0.0361954
-0.0303498 -0.0350413 -0.0361979
-0.0303239 -0.0350416 -0.0362003
-0.0302999 -0.035042 -0.0362024
-0.0302777 -0.0350424 -0.0362043
-0.0302573 -0.0350429 -0.036206
-0.0302386 -0.0350434 -0.0362074
-0.0302213 -0.035044 -0.0362085
-0.0302054 -0.0350445 -0.0362095
-0.0301907 -0.035045 -0.0362102
-0.0301769 -0.0350455 -0.0362106
-0.0301639 -0.035046 -0.0362109
-0.0301514 -0.0350463 -0.0362109
-0.0301392 -0.0350467 -0.0362108
-0.0301272 -0.0350469 -0.0362105
-0.0301152 -0.035047 -0.03621
-0.0301029 -0.0350471 -0.0362094
-0.0300904 -0.035047 -0.0362087
-0.0300774 -0.0350468 -0.0362079
-0.030064 -0.0350465 -0.036207
-0.03005 -0.035046 -0.0362059
-0.0300356 -0.0350454 -0.0362048
-0.0300206 -0.0350448 -0.0362036
-0.0300052 -0.035044 -0.0362023
-0.0299895 -0.0350431 -0.036201
-0.0299737 -0.0350421 -0.0361996
-0.0299577 -0.035041 -0.036198
-0.0299423 -0.0350289 -0.0361965
-0.0299334 -0.034993 -0.0361956
-0.0299247 -0.0349606 -0.0361944
-0.029912 -0.0349329 -0.0361929
-0.0299041 -0.0348988 -0.0361915
-0.0298968 -0.0348643 -0.0361899
-0.0298887 -0.0348329 -0.0361882
-0.0298829 -0.0347995 -0.0361864
-0.0298785 -0.034766 -0.0361845
-0.0298745 -0.0347345 -0.0361823
-0.0298723 -0.0347032 -0.0361801
-0.0298716 -0.0346726 -0.0361777
-0.0298717 -0.034644 -0.0361752
-0.0298718 -0.034617 -0.0361726
-0.0298719 -0.0345918 -0.0361699
-0.0298721 -0.0345688 -0.036167
-0.0298723 -0.0345478 -0.0361641
-0.0298726 -0.0345292 -0.0361611
-0.0298729 -0.0345128 -0.0361581
-0.0298733 -0.0344987 -0.0361551
-0.0298737 -0.0344872 -0.0361356
-0.029874 -0.0344817 -0.0360857
-0.0298745 -0.0344778 -0.0360428
-0.0298749 -0.0344734 -0.0360014
-0.0298754 -0.0344731 -0.0359603
-0.0298759 -0.0344732 -0.0359217
-0.0298765 -0.0344733 -0.0358871
-0.029877 -0.0344735 -0.0358554
-0.0298776 -0.0344738 -0.0358279
-0.0298782 -0.0344741 -0.0358042
-0.0298788 -0.0344744 -0.0357849
-0.0298794 -0.0344748 -0.0357703
-0.02988 -0.0344752 -0.0357608
-0.0298806 -0.0344757 -0.0357565
-0.0298812 -0.0344761 -0.0357564
-0.0298818 -0.0344766 -0.0357569
-0.0298824 -0.0344772 -0.0357578
-0.0298829 -0.0344777 -0.035759
-0.0298834 -0.0344783 -0.0357606
-0.0298839 -0.0344789 -0.0357625
-0.0298844 -0.0344795 -0.0357647
-0.0298849 -0.0344801 -0.0357672
-0.0298853 -0.0344808 -0.0357701
-0.0298858 -0.0344815 -0.0357731
-0.0298862 -0.0344822 -0.0357764
-0.0298867 -0.0344829 -0.0357798
-0.0298871 -0.0344837 -0.0357834
-0.0298876 -0.0344845 -0.0357871
-0.0298881 -0.0344853 -0.0357909
-0.0298886 -0.0344862 -0.0357947
-0.0298891 -0.0344871 -0.0357985
-0.0298896 -0.0344881 -0.0358022
-0.0298902 -0.0344891 -0.0358059
-0.0298908 -0.0344901 -0.0358094
-0.0298915 -0.0344912 -0.0358128
-0.0298922 -0.0344923 -0.0358161
-0.0298929 -0.0344935 -0.0358191
-0.0298937 -0.0344946 -0.0358219
-0.0298945 -0.0344958 -0.035824
-0.0298953 -0.0344969 -0.0358357
-0.0298962 -0.0344979 -0.0358757
-0.0298971 -0.034499 -0.0359107
-0.029898 -0.0345 -0.0359415
-0.0298989 -0.034501 -0.0359703
-0.0298998 -0.034502 -0.0359949
-0.0299007 -0.0345029 -0.0360163
-0.0299016 -0.0345038 -0.0360347
-0.0299025 -0.0345046 -0.0360505
-0.0299033 -0.0345054 -0.0360642
-0.0299041 -0.034506 -0.0360755
-0.0299049 -0.0345066 -0.0360847
-0.0299057 -0.0345071 -0.0360916
-0.0299064 -0.0345074 -0.0360967
-0.0299071 -0.0345077 -0.0361001
-0.0299077 -0.034508 -0.0361018
-0.0299084 -0.0345081 -0.0361019
-0.0299089 -0.0345081 -0.0361018
-0.0299095 -0.0345081 -0.0361016
-0.02991 -0.034508 -0.0361013
-0.0299105 -0.0345078 -0.0360997
-0.029911 -0.0345076 -0.0360897
-0.0299115 -0.0345073 -0.0360779
-0.0299119 -0.034507 -0.0360668
-0.0299124 -0.0345068 -0.0360536
-0.0299128 -0.0345064 -0.036039
-0.0299132 -0.0345061 -0.0360224
-0.0299135 -0.0345058 -0.036004
-0.0299193 -0.0345054 -0.0359834
-0.0299372 -0.034505 -0.035962
-0.0299526 -0.0345047 -0.035939
-0.0299682 -0.0345044 -0.0359127
-0.0299856 -0.0345042 -0.0358857
-0.0300029 -0.034504 -0.0358564
-0.030021 -0.0345038 -0.0358255
-0.0300398 -0.0345037 -0.0357934
-0.030059 -0.0345037 -0.03576
-0.0300787 -0.0345037 -0.0357258
-0.0300988 -0.0345038 -0.0356909
-0.0301189 -0.0345039 -0.0356557
-0.030139 -0.0345041 -0.0356206
-0.030159 -0.0345042 -0.0355858
-0.0301784 -0.0345044 -0.0355519
-0.0301973 -0.0345046 -0.035519
-0.0302152 -0.0345049 -0.0354876
-0.0302321 -0.0345051 -0.0354581
-0.0302477 -0.0345053 -0.0354308
-0.0302618 -0.0345055 -0.035406
-0.0302742 -0.0345057 -0.0353841
-0.0302847 -0.0345058 -0.0353651
-0.0302933 -0.0345059 -0.0353495
-0.0302998 -0.034506 -0.0353373
-0.0303041 -0.0345061 -0.0353287
-0.0303062 -0.0345061 -0.0353238
-0.0303064 -0.034506 -0.0353226
-0.0303063 -0.0345059 -0.0353228
-0.0303061 -0.0345058 -0.0353233
-0.0303059 -0.0345056 -0.035324
-0.0303057 -0.0345054 -0.0353249
-0.0303054 -0.0345051 -0.035326
-0.030305 -0.0345049 -0.0353273
-0.0302992 -0.0345046 -0.0353287
-0.0302852 -0.0345045 -0.0353302
-0.030274 -0.0345042 -0.0353318
-0.0302617 -0.0345041 -0.0353334
-0.0302496 -0.0345039 -0.0353503
-0.030238 -0.0345037 -0.0353846
-0.0302259 -0.0345035 -0.0354133
-0.0302138 -0.0345034 -0.0354436
-0.0302022 -0.0345033 -0.0354738
-0.0301905 -0.0345033 -0.0355025
-0.0301792 -0.0345033 -0.0355304
-0.0301682 -0.0345034 -0.0355568
-0.0301575 -0.0345035 -0.0355818
-0.0301473 -0.0345037 -0.0356055
-0.0301372 -0.0345039 -0.0356276
-0.0301274 -0.0345041 -0.0356482
-0.0301178 -0.0345044 -0.0356671
-0.0301083 -0.0345046 -0.0356843
-0.0300989 -0.0345049 -0.0357001
-0.0300894 -0.0345052 -0.0357145
-0.0300797 -0.0345055 -0.0357276
-0.0300697 -0.0345058 -0.0357394
-0.0300592 -0.0345061 -0.0357501
-0.0300483 -0.0345063 -0.0357597
-0.0300368 -0.0345065 -0.0357684
-0.0300245 -0.0345067 -0.0357764
-0.0300115 -0.0345068 -0.0357836
-0.0299975 -0.0345068 -0.0357902
-0.0299826 -0.0345068 -0.0357961
-0.0299668 -0.0345067 -0.0358014
-0.0299499 -0.0345066 -0.0358061
-0.029932 -0.0345063 -0.0358101
-0.0299132 -0.034506 -0.0358134
-0.0298933 -0.0345056 -0.0358159
-0.0298726 -0.0345052 -0.0358174
-0.029851 -0.0345046 -0.0358178
-0.0298287 -0.0345041 -0.0358178
-0.0298058 -0.0345034 -0.0358176
-0.0297823 -0.0345027 -0.0358174
-0.0297585 -0.0345019 -0.035817
-0.0297343 -0.0345012 -0.0358166
-0.02971 -0.0345003 -0.0358146
-0.0296856 -0.0344995 -0.0358012
-0.0296611 -0.0344987 -0.035788
-0.0296371 -0.0344978 -0.0357735
-0.0296132 -0.034497 -0.0357563
-0.0295898 -0.0344962 -0.0357369
-0.029567 -0.0344954 -0.0357148
-0.0295447 -0.0344946 -0.0356902
-0.0295231 -0.0344938 -0.035663
-0.0295022 -0.0344931 -0.0356333
-0.029482 -0.0344924 -0.0356012
-0.0294626 -0.0344918 -0.0355667
-0.0294439 -0.0344911 -0.03553
-0.0294259 -0.0344905 -0.0354913
-0.0294085 -0.03449 -0.0354507
-0.0293917 -0.0344894 -0.0354086
-0.0293754 -0.0344889 -0.0353652
-0.0293595 -0.0344884 -0.0353207
-0.029344 -0.0344879 -0.0352755
-0.0293286 -0.0344874 -0.0352298
-0.0293134 -0.034487 -0.0351841
-0.0292981 -0.0344865 -0.0351386
-0.0292827 -0.034486 -0.0350936
-0.0292671 -0.0344855 -0.0350494
-0.0292512 -0.034485 -0.0350064
-0.0292349 -0.0344845 -0.0349648
-0.0292181 -0.0344839 -0.0349249
-0.0292007 -0.0344833 -0.0348868
-0.0291828 -0.0344827 -0.0348509
-0.0291643 -0.034482 -0.0348171
-0.0291451 -0.0344814 -0.0347858
-0.0291255 -0.0344807 -0.0347569
-0.0291051 -0.0344799 -0.0347305
-0.0290843 -0.0344792 -0.0347067
-0.0290631 -0.0344784 -0.0346854
-0.0290414 -0.0344777 -0.0346667
-0.0290195 -0.0344769 -0.0346503
-0.0289973 -0.0344761 -0.0346364
-0.0289751 -0.0344754 -0.0346246
-0.0289529 -0.0344746 -0.0346149
-0.0289309 -0.0344739 -0.0346072
-0.0289092 -0.0344732 -0.0346013
-0.0288884 -0.0344649 -0.0345978
-0.0288716 -0.0344451 -0.0345981
-0.0288536 -0.0344308 -0.0345982
-0.0288343 -0.0344199 -0.0345983
-0.0288179 -0.0344067 -0.0345986
-0.0288011 -0.0343958 -0.0345989
-0.0287843 -0.0343876 -0.0345992
-0.0287688 -0.0343793 -0.0345995
-0.0287538 -0.0343726 -0.0345998
-0.0287391 -0.0343679 -0.0346001
-0.0287255 -0.0343639 -0.0346005
-0.0287125 -0.0343611 -0.0346008
-0.0287 -0.0343599 -0.0346011
-0.0286883 -0.0343596 -0.0346014
-0.0286773 -0.0343597 -0.0346017
-0.0286671 -0.0343597 -0.034602
-0.0286575 -0.0343598 -0.0346023
-0.0286487 -0.03436 -0.0346026
-0.0286404 -0.0343601 -0.034603
-0.0286326 -0.0343603 -0.0346033
-0.0286254 -0.0343605 -0.0346037
-0.0286184 -0.0343607 -0.0346041
-0.0286119 -0.0343608 -0.0346045
-0.0286056 -0.034361 -0.0346049
-0.0285994 -0.0343612 -0.0346053
-0.0285935 -0.0343613 -0.0346058
-0.0285877 -0.0343615 -0.0346063
-0.028582 -0.0343616 -0.0346068
-0.0285763 -0.0343617 -0.0346073
-0.0285708 -0.0343617 -0.0346078
-0.0285653 -0.0343618 -0.0346083
-0.0285598 -0.0343618 -0.0346088
-0.0285545 -0.0343617 -0.0346094
-0.0285493 -0.0343617 -0.0346099
-0.0285443 -0.0343616 -0.0346103
-0.0285395 -0.0343615 -0.0346108
-0.028535 -0.0343613 -0.0346112
-0.0285309 -0.0343612 -0.0346115
-0.0285273 -0.034361 -0.0346118
-0.0285241 -0.0343608 -0.034612
-0.0285215 -0.0343606 -0.0346122
-0.0285196 -0.0343605 -0.0346122
-0.0285184 -0.0343603 -0.0346122
-0.0285179 -0.0343601 -0.0346121
-0.028518 -0.0343599 -0.0346118
-0.028518 -0.0343597 -0.0346115
-0.0285181 -0.0343596 -0.0346111
-0.0285182 -0.0343572 -0.0346105
-0.0285184 -0.0343544 -0.03461
-0.0285186 -0.0343532 -0.0346093
-0.0285189 -0.0343524 -0.0346085
-0.0285191 -0.034352 -0.0346076
-0.0285194 -0.034352 -0.0346067
-0.0285198 -0.0343521 -0.0346057
-0.0285201 -0.0343521 -0.0346047
-0.0285205 -0.0343522 -0.0346037
-0.0285209 -0.0343523 -0.0346027
-0.0285213 -0.0343524 -0.0346017
-0.0285217 -0.0343526 -0.0346008
-0.0285222 -0.0343527 -0.0345999
-0.0285226 -0.0343529 -0.0345991
-0.0285231 -0.034353 -0.0345983
-0.0285235 -0.0343532 -0.0345975
-0.028524 -0.0343534 -0.0345897
-0.0285244 -0.0343535 -0.034583
-0.0285249 -0.0343537 -0.0345787
-0.0285253 -0.0343539 -0.0345757
-0.0285257 -0.034354 -0.034575
-0.0285262 -0.0343542 -0.0345751
-0.0285266 -0.0343544 -0.0345753
-0.028527 -0.0343546 -0.0345757
-0.0285275 -0.0343547 -0.0345762
-0.0285279 -0.0343549 -0.0345768
-0.0285283 -0.0343552 -0.0345775
-0.0285287 -0.0343554 -0.0345783
-0.0285291 -0.0343556 -0.0345792
-0.0285296 -0.0343559 -0.0345803
-0.02853 -0.0343562 -0.0345813
-0.0285305 -0.0343565 -0.0345825
-0.0285309 -0.0343569 -0.0345837
-0.0285314 -0.0343573 -0.0345849
-0.0285319 -0.0343577 -0.0345862
-0.0285324 -0.0343582 -0.0345875
-0.0285329 -0.0343587 -0.0345888
-0.0285335 -0.0343593 -0.03459
-0.028534 -0.0343598 -0.0345913
-0.0285346 -0.0343604 -0.0345925
-0.0285352 -0.0343611 -0.0346025
-0.0285358 -0.0343616 -0.0346267
-0.0285365 -0.0343623 -0.0346472
-0.0285371 -0.0343629 -0.0346685
-0.0285377 -0.0343636 -0.0346902
-0.0285384 -0.0343643 -0.0347114
-0.028539 -0.0343649 -0.0347329
-0.0285396 -0.0343656 -0.0347544
-0.0285403 -0.0343662 -0.0347761
-0.0285409 -0.0343669 -0.0347983
-0.0285415 -0.0343675 -0.034821
-0.0285421 -0.0343681 -0.0348442
-0.0285426 -0.0343687 -0.0348678
-0.0285432 -0.0343692 -0.034892
-0.0285524 -0.0343696 -0.034917
-0.0285739 -0.0343699 -0.0349444
-0.0285923 -0.0343703 -0.034978
-0.0286128 -0.0343706 -0.0350115
-0.0286312 -0.034371 -0.0350453
-0.0286491 -0.0343712 -0.035078
-0.0286667 -0.0343715 -0.0351105
-0.0286837 -0.0343718 -0.0351414
-0.0287005 -0.034372 -0.0351711
-0.0287172 -0.0343723 -0.0351988
-0.0287339 -0.0343726 -0.0352246
-0.0287507 -0.0343729 -0.0352481
-0.0287677 -0.0343731 -0.0352691
-0.028785 -0.0343734 -0.0352874
-0.0288026 -0.0343738 -0.035303
-0.0288204 -0.0343741 -0.0353158
-0.0288385 -0.0343744 -0.0353258
-0.0288568 -0.0343748 -0.035333
-0.0288752 -0.0343752 -0.0353376
-0.0288935 -0.0343755 -0.0353396
-0.0289117 -0.0343759 -0.0353398
-0.0289296 -0.0343762 -0.0353396
-0.0289471 -0.0343766 -0.0353394
-0.0289639 -0.0343768 -0.035339
-0.0289799 -0.0343771 -0.0353386
-0.028995 -0.0343773 -0.0353381
-0.0290089 -0.0343775 -0.0353376
-0.0290216 -0.0343776 -0.0353363
-0.0290328 -0.0343777 -0.035326
-0.0290424 -0.0343778 -0.0353164
-0.0290506 -0.0343778 -0.0353066
-0.0290572 -0.0343777 -0.0352984
-0.0290623 -0.0343776 -0.0352911
-0.0290659 -0.0343775 -0.0352843
-0.0290682 -0.0343773 -0.0352777
-0.0290691 -0.034377 -0.0352714
-0.0290691 -0.0343768 -0.0352652
-0.0290691 -0.0343765 -0.0352593
-0.029069 -0.0343762 -0.0352534
-0.029069 -0.0343759 -0.0352474
-0.0290688 -0.0343756 -0.0352412
-0.0290687 -0.0343752 -0.0352348
-0.0290686 -0.034375 -0.0352279
-0.0290685 -0.0343747 -0.0352206
-0.0290684 -0.0343744 -0.0352126
-0.0290682 -0.0343742 -0.0352042
-0.0290681 -0.0343741 -0.0351951
-0.029068 -0.0343739 -0.0351855
-0.0290679 -0.0343738 -0.0351755
-0.0290678 -0.0343737 -0.0351651
-0.0290676 -0.0343737 -0.0351546
-0.0290675 -0.0343737 -0.035144
-0.0290674 -0.0343737 -0.0351336
-0.0290669 -0.0343737 -0.0351235
-0.0290619 -0.0343737 -0.0351138
-0.0290569 -0.0343738 -0.0351046
-0.0290508 -0.0343738 -0.0350966
-0.0290442 -0.0343738 -0.0350896
-0.0290372 -0.0343738 -0.0350838
-0.0290294 -0.0343737 -0.0350793
-0.0290206 -0.0343737 -0.0350764
-0.0290107 -0.0343735 -0.0350749
-0.0289998 -0.0343734 -0.0350747
-0.0289878 -0.0343732 -0.0350749
-0.0289748 -0.0343729 -0.0350751
-0.0289609 -0.0343727 -0.0350753
-0.028946 -0.0343724 -0.0350757
-0.0289304 -0.0343721 -0.0350761
-0.0289142 -0.0343717 -0.0350765
-0.0288975 -0.0343713 -0.035077
-0.0288804 -0.034371 -0.0350774
-0.0288631 -0.0343706 -0.0350778
-0.0288457 -0.0343702 -0.0350782
-0.0288285 -0.0343698 -0.0350784
-0.0288114 -0.0343695 -0.0350785
-0.0287945 -0.0343691 -0.0350802
-0.0287781 -0.0343688 -0.035081
-0.028762 -0.0343685 -0.0350796
-0.0287464 -0.0343682 -0.0350767
-0.0287312 -0.034368 -0.035072
-0.0287165 -0.0343678 -0.0350657
-0.0287021 -0.0343676 -0.0350577
-0.0286881 -0.0343674 -0.035048
-0.0286743 -0.0343672 -0.035037
-0.0286607 -0.034367 -0.0350246
-0.0286472 -0.0343668 -0.0350111
-0.0286338 -0.0343667 -0.0349966
-0.0286202 -0.0343664 -0.0349814
-0.0286064 -0.0343662 -0.0349656
-0.0285924 -0.034366 -0.0349495
-0.028578 -0.0343657 -0.0349332
-0.0285632 -0.0343653 -0.0349168
-0.028548 -0.0343649 -0.0349006
-0.0285322 -0.0343645 -0.0348845
-0.028516 -0.0343641 -0.0348687
-0.0284994 -0.0343636 -0.0348532
-0.0284823 -0.034363 -0.034838
-0.028465 -0.0343625 -0.0348231
-0.0284473 -0.0343619 -0.0348085
-0.0284295 -0.0343613 -0.034794
-0.0284116 -0.0343606 -0.0347797
-0.0283938 -0.03436 -0.0347654
-0.0283762 -0.0343594 -0.034751
-0.0283589 -0.0343587 -0.0347364
-0.028342 -0.0343581 -0.0347215
-0.0283256 -0.0343575 -0.0347064
-0.0283098 -0.034357 -0.0346908
-0.0282946 -0.0343565 -0.0346748
-0.0282803 -0.034356 -0.0346584
-0.0282667 -0.0343556 -0.0346417
-0.0282539 -0.0343552 -0.0346246
-0.0282419 -0.0343549 -0.0346072
-0.0282306 -0.0343546 -0.0345898
-0.0282201 -0.0343543 -0.0345724
-0.0282103 -0.0343541 -0.0345552
-0.028201 -0.0343539 -0.0345384
-0.0281923 -0.0343537 -0.0345222
-0.028184 -0.0343536 -0.0345068
-0.028176 -0.0343535 -0.0344924
-0.0281683 -0.0343534 -0.0344793
-0.0281607 -0.0343533 -0.0344676
-0.0281531 -0.0343532 -0.0344574
-0.0281456 -0.0343531 -0.034449
-0.028138 -0.0343529 -0.0344424
-0.0281302 -0.0343528 -0.0344377
-0.0281224 -0.0343527 -0.0344349
-0.0281145 -0.0343525 -0.034434
-0.0281065 -0.0343523 -0.0344341
-0.0280984 -0.0343522 -0.0344343
-0.0280904 -0.034352 -0.0344346
-0.0280827 -0.0343485 -0.0344351
-0.028076 -0.0343435 -0.0344356
-0.0280686 -0.03434 -0.0344362
-0.0280622 -0.0343359 -0.0344369
-0.028056 -0.0343324 -0.0344376
-0.0280502 -0.0343294 -0.0344383
-0.0280452 -0.0343267 -0.0344389
-0.0280408 -0.0343249 -0.0344396
-0.0280372 -0.0343236 -0.0344401
-0.0280344 -0.0343231 -0.0344406
-0.0280325 -0.0343232 -0.034441
-0.0280317 -0.0343232 -0.0344413
-0.0280317 -0.0343233 -0.0344416
-0.0280318 -0.0343234 -0.0344418
-0.0280319 -0.0343236 -0.0344418
-0.028032 -0.0343238 -0.0344418
-0.0280322 -0.034324 -0.0344417
-0.0280324 -0.0343242 -0.0344416
-0.0280326 -0.0343245 -0.0344414
-0.0280329 -0.0343247 -0.0344412
-0.0280331 -0.034325 -0.0344409
-0.0280334 -0.0343252 -0.0344407
-0.0280337 -0.0343254 -0.0344404
-0.0280339 -0.0343256 -0.0344402
-0.0280342 -0.0343258 -0.03444
-0.0280345 -0.034326 -0.0344399
-0.0280348 -0.0343261 -0.0344399
-0.028035 -0.0343262 -0.0344399
-0.0280353 -0.0343262 -0.0344399
-0.0280355 -0.0343263 -0.03444
-0.0280357 -0.0343263 -0.0344402
-0.028036 -0.0343263 -0.0344404
-0.0280362 -0.0343263 -0.0344407
-0.0280365 -0.0343262 -0.0344409
-0.0280367 -0.0343262 -0.0344412
-0.028037 -0.0343262 -0.0344415
-0.0280373 -0.0343263 -0.0344418
-0.0280376 -0.0343263 -0.0344421
-0.0280379 -0.0343264 -0.0344424
-0.0280383 -0.0343265 -0.0344426
-0.0280387 -0.0343267 -0.0344428
-0.0280391 -0.0343269 -0.034443
-0.0280395 -0.0343272 -0.0344431
-0.02804 -0.0343275 -0.0344432
-0.0280405 -0.0343278 -0.0344433
-0.028041 -0.0343282 -0.0344434
-0.0280415 -0.0343286 -0.0344435
-0.0280421 -0.034329 -0.0344436
-0.0280426 -0.0343295 -0.0344454
-0.0280432 -0.0343299 -0.034448
-0.0280437 -0.0343304 -0.0344516
-0.0280443 -0.0343309 -0.0344564
-0.0280448 -0.0343313 -0.0344626
-0.0280453 -0.0343317 -0.0344704
-0.0280458 -0.0343321 -0.0344799
-0.0280462 -0.0343325 -0.0344914
-0.0280467 -0.0343328 -0.0345048
-0.0280475 -0.0343331 -0.0345202
-0.0280607 -0.0343333 -0.0345382
-0.0280731 -0.0343335 -0.0345586
-0.0280849 -0.0343336 -0.0345793
-0.0280963 -0.0343337 -0.034602
-0.028107 -0.0343339 -0.0346248
-0.0281177 -0.034334 -0.0346487
-0.0281282 -0.0343342 -0.0346726
-0.0281388 -0.0343343 -0.0346966
-0.0281495 -0.0343345 -0.0347203
-0.0281605 -0.0343347 -0.0347435
-0.0281718 -0.034335 -0.0347659
-0.0281836 -0.0343353 -0.0347874
-0.0281958 -0.0343356 -0.0348079
-0.0282084 -0.0343359 -0.0348273
-0.0282215 -0.0343363 -0.0348454
-0.0282349 -0.0343367 -0.0348623
-0.0282487 -0.0343371 -0.034878
-0.0282626 -0.0343375 -0.0348924
-0.0282766 -0.0343379 -0.0349058
-0.0282905 -0.0343384 -0.0349182
-0.0283042 -0.0343388 -0.0349297
-0.0283176 -0.0343392 -0.0349404
-0.0283304 -0.0343396 -0.0349504
-0.0283426 -0.03434 -0.03496
-0.0283541 -0.0343403 -0.0349691
-0.0283646 -0.0343406 -0.0349778
-0.0283742 -0.0343409 -0.0349863
-0.0283827 -0.0343411 -0.0349946
-0.0283901 -0.0343413 -0.0350027
-0.0283964 -0.0343414 -0.0350105
-0.0284017 -0.0343415 -0.035018
-0.0284059 -0.0343415 -0.0350252
-0.0284091 -0.0343415 -0.0350318
-0.0284114 -0.0343414 -0.0350379
-0.0284129 -0.0343413 -0.0350432
-0.0284138 -0.0343412 -0.0350476
-0.0284141 -0.034341 -0.035051
-0.0284141 -0.0343409 -0.035053
-0.0284141 -0.0343407 -0.0350536
-0.0284141 -0.0343405 -0.0350536
-0.0284141 -0.0343404 -0.0350534
-0.0284141 -0.0343402 -0.0350532
-0.0284141 -0.03434 -0.0350528
-0.0284141 -0.0343399 -0.0350523
-0.0284141 -0.0343398 -0.0350518
-0.0284141 -0.0343397 -0.0350459
-0.0284141 -0.0343396 -0.0350321
-0.0284147 -0.0343395 -0.0350199
-0.0284156 -0.0343395 -0.0350074
-0.0284165 -0.0343395 -0.0349946
-0.0284174 -0.0343394 -0.034981
-0.0284179 -0.0343394 -0.0349672
-0.0284182 -0.0343394 -0.0349533
-0.0284182 -0.0343394 -0.0349395
-0.0284182 -0.0343394 -0.0349261
-0.0284181 -0.0343393 -0.0349132
-0.028418 -0.0343393 -0.0349011
-0.0284179 -0.0343392 -0.0348898
-0.0284178 -0.034339 -0.0348796
-0.0284177 -0.0343389 -0.0348705
-0.0284175 -0.0343387 -0.0348626
-0.0284173 -0.0343385 -0.0348559
-0.028417 -0.0343383 -0.0348504
-0.0284154 -0.034338 -0.034846
-0.0284067 -0.0343378 -0.0348422
-0.0283992 -0.0343375 -0.0348394
-0.028391 -0.0343373 -0.0348375
-0.0283829 -0.034337 -0.0348365
-0.0283742 -0.0343368 -0.034836
-0.0283654 -0.0343365 -0.034836
-0.0283564 -0.0343363 -0.034836
-0.0283473 -0.0343361 -0.0348361
-0.0283381 -0.0343359 -0.0348361
-0.028329 -0.0343357 -0.0348362
-0.0283199 -0.0343355 -0.0348363
-0.0283109 -0.0343354 -0.0348364
-0.028302 -0.0343352 -0.0348365
-0.0282933 -0.0343351 -0.0348365
-0.0282848 -0.034335 -0.0348366
-0.0282763 -0.034335 -0.0348366
-0.028268 -0.0343349 -0.0348366
-0.0282598 -0.0343349 -0.0348366
-0.0282516 -0.0343348 -0.0348366
-0.0282434 -0.0343348 -0.0348365
-0.0282351 -0.0343348 -0.0348365
-0.0282267 -0.0343347 -0.0348365
-0.0282182 -0.0343347 -0.0348364
-0.0282095 -0.0343346 -0.0348364
-0.0282005 -0.0343346 -0.0348364
-0.0281913 -0.0343345 -0.0348364
-0.0281818 -0.0343344 -0.0348363
-0.028172 -0.0343342 -0.0348363
-0.0281619 -0.0343341 -0.0348363
-0.0281515 -0.0343339 -0.0348363
-0.0281408 -0.0343337 -0.0348363
-0.0281299 -0.0343334 -0.0348363
-0.0281188 -0.0343332 -0.0348363
-0.0281075 -0.0343329 -0.0348363
-0.0280963 -0.0343326 -0.0348362
-0.028085 -0.0343323 -0.0348361
-0.0280737 -0.034332 -0.034836
-0.0280626 -0.0343317 -0.034835
-0.0280517 -0.0343314 -0.0348316
-0.028041 -0.0343311 -0.0348276
-0.0280306 -0.0343308 -0.0348226
-0.0280206 -0.0343305 -0.0348166
-0.028011 -0.0343303 -0.0348097
-0.0280019 -0.03433 -0.0348018
-0.0279931 -0.0343298 -0.0347929
-0.0279849 -0.0343295 -0.034783
-0.027977 -0.0343293 -0.0347722
-0.0279697 -0.0343291 -0.0347606
-0.0279627 -0.0343289 -0.0347483
-0.0279561 -0.0343288 -0.0347354
-0.0279498 -0.0343286 -0.034722
-0.0279437 -0.0343284 -0.0347083
-0.0279379 -0.0343283 -0.0346943
-0.0279323 -0.0343281 -0.0346804
-0.0279268 -0.0343279 -0.0346666
-0.0279214 -0.0343278 -0.034653
-0.027916 -0.0343276 -0.0346398
-0.0279106 -0.0343274 -0.0346271
-0.0279052 -0.0343272 -0.0346151
-0.0278998 -0.034327 -0.0346037
-0.0278943 -0.0343268 -0.0345932
-0.0278887 -0.0343266 -0.0345835
-0.0278831 -0.0343263 -0.0345746
-0.0278776 -0.0343261 -0.0345667
-0.027872 -0.0343258 -0.0345596
-0.0278665 -0.0343256 -0.0345534
-0.0278612 -0.0343254 -0.034548
-0.0278561 -0.0343251 -0.0345434
-0.0278511 -0.0343249 -0.0345395
-0.0278465 -0.0343247 -0.0345363
-0.0278422 -0.0343245 -0.0345336
-0.0278384 -0.0343244 -0.0345316
-0.0278349 -0.0343242 -0.03453
-0.027832 -0.0343241 -0.0345289
-0.0278295 -0.0343241 -0.0345281
-0.0278275 -0.034324 -0.0345278
-0.0278261 -0.034324 -0.0345278
-0.0278252 -0.034324 -0.0345278
-0.0278249 -0.0343241 -0.0345279
-0.0278249 -0.0343241 -0.034528
-0.0278249 -0.0343243 -0.0345281
-0.0278249 -0.0343244 -0.0345282
-0.027825 -0.0343245 -0.0345284
-0.027825 -0.0343247 -0.0345286
-0.0278251 -0.0343249 -0.0345288
-0.0278252 -0.0343251 -0.0345291
-0.0278253 -0.0343253 -0.0345294
-0.0278254 -0.0343255 -0.0345298
-0.0278255 -0.0343257 -0.0345302
-0.0278256 -0.0343259 -0.0345307
-0.0278257 -0.0343261 -0.0345312
-0.0278258 -0.0343263 -0.0345317
-0.0278259 -0.0343265 -0.0345322
-0.0278261 -0.0343266 -0.0345328
-0.0278262 -0.0343268 -0.0345333
-0.0278263 -0.0343269 -0.0345339
-0.0278264 -0.034327 -0.0345345
-0.0278265 -0.0343271 -0.034535
-0.0278266 -0.0343272 -0.0345354
-0.0278268 -0.0343273 -0.0345409
-0.0278269 -0.0343274 -0.0345493
-0.0278271 -0.0343274 -0.0345565
-0.0278273 -0.0343275 -0.0345631
-0.0278275 -0.0343276 -0.0345686
-0.0278277 -0.0343277 -0.0345732
-0.0278279 -0.0343278 -0.0345769
-0.0278281 -0.0343279 -0.0345796
-0.0278284 -0.0343281 -0.0345813
-0.0278286 -0.0343282 -0.0345821
-0.0278289 -0.0343284 -0.0345822
-0.0278292 -0.0343285 -0.0345822
-0.0278295 -0.0343287 -0.0345821
-0.0278298 -0.0343288 -0.0345806
-0.0278301 -0.034329 -0.034578
-0.0278304 -0.0343292 -0.0345758
-0.0278307 -0.0343294 -0.0345734
-0.027831 -0.0343295 -0.034571
-0.0278314 -0.0343297 -0.0345688
-0.0278317 -0.0343299 -0.0345667
-0.027832 -0.03433 -0.034565
-0.0278323 -0.0343302 -0.0345637
-0.0278326 -0.0343303 -0.0345628
