0 1.58156e-05 8.00514e-06 0 -1.57617e-05 -8.05217e-06
0 1.57594e-05 8.01312e-06 0 -1.58164e-05 -8.04502e-06
0 1.56419e-05 8.02679e-06 0 -1.5932e-05 -8.02861e-06
0 1.54154e-05 8.04872e-06 0 -1.6153e-05 -8.00145e-06
0 1.51772e-05 8.06689e-06 0 -1.6384e-05 -7.97823e-06
0 1.48965e-05 8.08167e-06 0 -1.66545e-05 -7.95862e-06
0 1.45834e-05 8.08772e-06 0 -1.69538e-05 -7.94796e-06
0 1.42499e-05 8.07896e-06 0 -1.72686e-05 -7.95229e-06
0 1.39098e-05 8.04943e-06 0 -1.75846e-05 -7.97825e-06
0 1.35782e-05 7.99318e-06 0 -1.78858e-05 -8.03276e-06
0 1.32723e-05 7.90397e-06 0 -1.81539e-05 -8.12294e-06
0 1.30135e-05 7.77499e-06 0 -1.83664e-05 -8.25596e-06
0 1.28289e-05 7.59944e-06 0 -1.85055e-05 -8.43851e-06
0 1.27482e-05 7.37117e-06 0 -1.8541e-05 -8.67478e-06
0 1.28191e-05 7.08385e-06 0 -1.84125e-05 -8.97692e-06
0 1.30903e-05 6.7324e-06 0 -1.8075e-05 -9.35086e-06
0 1.36099e-05 6.31459e-06 0 -1.74818e-05 -9.79973e-06
0 1.44215e-05 5.83175e-06 0 -1.65866e-05 -1.0323e-05
0 1.55599e-05 5.28974e-06 0 -1.53551e-05 -1.09153e-05
0 1.70469e-05 4.69962e-06 0 -1.37676e-05 -1.15656e-05
0 1.88895e-05 4.07936e-06 0 -1.18184e-05 -1.22562e-05
0 2.10848e-05 3.45114e-06 0 -9.51237e-06 -1.29636e-05
0 2.36227e-05 2.8419e-06 0 -6.86233e-06 -1.36596e-05
0 2.64882e-05 2.28286e-06 0 -3.88675e-06 -1.43112e-05
0 2.96595e-05 1.80938e-06 0 -6.10916e-07 -1.48818e-05
0 3.30999e-05 1.46022e-06 0 2.9191e-06 -1.53485e-05
0 3.67408e-05 1.27785e-06 0 6.63941e-06 -1.56371e-05
0 4.04607e-05 1.32113e-06 0 1.04164e-05 -1.56993e-05
0 4.4066e-05 1.65193e-06 0 1.40526e-05 -1.54629e-05
0 4.73112e-05 2.33444e-06 0 1.72971e-05 -1.48566e-05
0 4.99377e-05 3.42446e-06 0 1.98864e-05 -1.38114e-05
0 5.16991e-05 4.96956e-06 0 2.15322e-05 -1.22639e-05
0 5.24078e-05 6.99686e-06 0 2.20765e-05 -1.01921e-05
0 5.193e-05 9.51134e-06 0 2.13854e-05 -7.58169e-06
0 5.01975e-05 1.24938e-05 0 1.94033e-05 -4.45262e-06
0 4.71887e-05 1.59015e-05 0 1.61309e-05 -8.53867e-07
0 4.29571e-05 1.9668e-05 0 1.16245e-05 3.14175e-06
0 3.76775e-05 2.36943e-05 0 6.02506e-06 7.44008e-06
0 3.14896e-05 2.7874e-05 0 -5.02692e-07 1.18989e-05
0 2.4592e-05 3.2079e-05 0 -7.75011e-06 1.64053e-05
0 1.72123e-05 3.6182e-05 0 -1.54984e-05 2.08175e-05
0 9.56756e-06 4.00497e-05 0 -2.35132e-05 2.49988e-05
0 1.86571e-06 4.35523e-05 0 -3.15745e-05 2.8803e-05
0 -5.70098e-06 4.65622e-05 0 -3.94849e-05 3.20977e-05
0 -1.29563e-05 4.89601e-05 0 -4.70612e-05 3.47584e-05
0 -1.97226e-05 5.06233e-05 0 -5.41159e-05 3.66686e-05
0 -2.58126e-05 5.14405e-05 0 -6.04436e-05 3.77136e-05
0 -3.09756e-05 5.13624e-05 0 -6.58045e-05 3.78087e-05
0 -3.49777e-05 5.03108e-05 0 -6.9951e-05 3.68742e-05
0 -3.75745e-05 4.82348e-05 0 -7.26372e-05 3.48573e-05
0 -3.85004e-05 4.41754e-05 0 -7.36008e-05 3.0774e-05
0 -3.65414e-05 3.85295e-05 0 -7.16009e-05 2.49817e-05
0 -3.15753e-05 3.14263e-05 0 -6.65287e-05 1.76137e-05
0 -2.3787e-05 2.31038e-05 0 -5.85913e-05 8.92472e-06
0 -1.37091e-05 1.38883e-05 0 -4.83489e-05 -7.29446e-07
0 -2.2268e-06 4.2477e-06 0 -3.67159e-05 -1.0876e-05
0 9.47746e-06 -5.31687e-06 0 -2.49143e-05 -2.0928e-05
0 2.00174e-05 -1.42726e-05 0 -1.43603e-05 -3.03189e-05
0 2.80019e-05 -2.21149e-05 0 -6.47534e-06 -3.84817e-05
0 3.22615e-05 -2.84247e-05 0 -2.45088e-06 -4.49656e-05
0 3.20007e-05 -3.29154e-05 0 -3.09476e-06 -4.94457e-05
0 2.68364e-05 -3.54465e-05 0 -8.79605e-06 -5.17736e-05
0 1.67726e-05 -3.60293e-05 0 -1.95472e-05 -5.19603e-05
0 2.15482e-06 -3.48216e-05 0 -3.49916e-05 -5.01812e-05
0 -1.6406e-05 -3.21103e-05 0 -5.44975e-05 -4.67464e-05
0 -3.81265e-05 -2.82827e-05 0 -7.72549e-05 -4.20775e-05
0 -6.20931e-05 -2.38051e-05 0 -0.000102317 -3.66787e-05
0 -8.72469e-05 -1.92039e-05 0 -0.000128587 -3.11187e-05
0 -0.000112392 -1.50375e-05 0 -0.000154828 -2.60039e-05
0 -0.000136274 -1.18586e-05 0 -0.000179746 -2.19385e-05
0 -0.000157709 -1.0172e-05 0 -0.000202122 -1.94752e-05
0 -0.000175742 -1.03911e-05 0 -0.000220972 -1.90658e-05
0 -0.000189734 -1.28077e-05 0 -0.000235633 -2.10272e-05
0 -0.000199341 -1.75818e-05 0 -0.000245747 -2.55323e-05
0 -0.000204455 -2.47411e-05 0 -0.000251197 -3.26128e-05
0 -0.000205187 -3.41823e-05 0 -0.000252094 -4.21609e-05
0 -0.000201851 -4.5678e-05 0 -0.000248761 -5.39361e-05
0 -0.000194935 -5.88902e-05 0 -0.000241705 -6.75781e-05
0 -0.000185077 -7.33865e-05 0 -0.000231585 -8.2626e-05
0 -0.00017303 -8.86604e-05 0 -0.000219186 -9.85398e-05
0 -0.000159638 -0.000104154 0 -0.000205386 -0.000114725
0 -0.000145796 -0.000119288 0 -0.000191112 -0.00013056
0 -0.000132374 -0.000133489 0 -0.000177274 -0.000145432
0 -0.000120159 -0.00014622 0 -0.000164692 -0.000158768
0 -0.000109818 -0.000157004 0 -0.000154063 -0.00017006
0 -0.000101905 -0.00016544 0 -0.00014597 -0.00017888
0 -9.69177e-05 -0.00017121 0 -0.00014093 -0.000184891
0 -9.53329e-05 -0.000174088 0 -0.000139437 -0.000187846
0 -9.75733e-05 -0.000173955 0 -0.000141916 -0.000187611
0 -0.000103906 -0.000170818 0 -0.00014863 -0.000184187
0 -0.000111941 -0.000166243 0 -0.000157062 -0.00017925
0 -0.000125485 -0.000158176 0 -0.000171196 -0.000170581
0 -0.000142391 -0.000147889 0 -0.000188765 -0.000159551
0 -0.000161806 -0.000135916 0 -0.000208879 -0.000146734
0 -0.000182668 -0.00012288 0 -0.000230429 -0.0001328
0 -0.000203795 -0.000109458 0 -0.000252189 -0.000118478
0 -0.00022395 -9.63472e-05 0 -0.000272872 -0.000104519
0 -0.000241905 -8.42246e-05 0 -0.000291204 -9.16519e-05
0 -0.000256516 -7.37091e-05 0 -0.000305997 -8.05441e-05
0 -0.000266772 -6.53315e-05 0 -0.000316204 -7.17688e-05
0 -0.000271841 -5.95055e-05 0 -0.00032096 -6.5774e-05
0 -0.000271114 -5.65033e-05 0 -0.000319637 -6.28564e-05
0 -0.000264218 -5.6443e-05 0 -0.000311852 -6.31477e-05
0 -0.000250973 -5.92871e-05 0 -0.000297427 -6.6613e-05
0 -0.000231356 -6.48446e-05 0 -0.000276353 -7.30561e-05
0 -0.000205543 -7.27668e-05 0 -0.00024883 -8.21158e-05
0 -0.000174018 -8.25431e-05 0 -0.000215381 -9.32565e-05
0 -0.000137598 -9.35168e-05 0 -0.000176872 -0.000105779
0 -9.73736e-05 -0.000104914 0 -0.000134449 -0.000118856
0 -5.46441e-05 -0.000115875 0 -8.94749e-05 -0.00013157
0 -1.08591e-05 -0.000125502 0 -4.3464e-05 -0.000142954
0 3.24292e-05 -0.000132891 0 1.96529e-06 -0.00015204
0 7.33684e-05 -0.000137144 0 4.51049e-05 -0.000157893
0 0.00011047 -0.000137781 0 8.40112e-05 -0.000159677
0 0.000142233 -0.000133948 0 0.000117278 -0.000156886
0 0.000167572 -0.000125136 0 0.000143854 -0.000148939
0 0.0001858 -0.000111172 0 0.000162959 -0.000135375
0 0.000196673 -9.2029e-05 0 0.000174426 -0.000116319
0 0.000200446 -6.80026e-05 0 0.000178474 -9.20859e-05
0 0.000197676 -3.96236e-05 0 0.000175681 -6.31615e-05
0 0.000189063 -7.67808e-06 0 0.000166787 -3.03959e-05
0 0.000175421 2.71621e-05 0 0.000152653 5.44824e-06
0 0.000157771 6.3882e-05 0 0.000134333 4.33523e-05
0 0.000137313 0.000101403 0 0.000113109 8.21777e-05
0 0.00011538 0.000138603 0 9.0372e-05 0.000120728
0 9.33492e-05 0.00017434 0 6.75628e-05 0.000157763
0 7.25767e-05 0.00020748 0 4.61104e-05 0.000192114
0 5.43791e-05 0.000236969 0 2.73908e-05 0.000222656
0 4.00158e-05 0.000261867 0 1.27214e-05 0.000248387
0 3.0699e-05 0.000281371 0 3.36334e-06 0.000268446
0 2.75838e-05 0.000294839 0 5.10938e-07 0.000282148
0 3.1684e-05 0.000301846 0 5.20397e-06 0.000289031
0 4.37122e-05 0.000302217 0 1.81646e-05 0.000288889
0 6.39316e-05 0.000296059 0 3.96479e-05 0.000281824
0 9.20775e-05 0.000283766 0 6.9363e-05 0.00026825
0 0.000127332 0.000266021 0 0.000106448 0.000248891
0 0.000168367 0.00024376 0 0.000149517 0.000224744
0 0.000213432 0.000218127 0 0.000196748 0.000197032
0 0.000260462 0.000190414 0 0.000245994 0.00016714
0 0.000307227 0.000161994 0 0.000294942 0.000136539
0 0.00035151 0.000134238 0 0.00034129 0.000106702
0 0.000391254 0.000108446 0 0.000382902 7.90206e-05
0 0.000424652 8.57855e-05 0 0.000417902 5.4746e-05
0 0.000450233 6.72344e-05 0 0.000444759 3.49248e-05
0 0.000462944 5.43295e-05 0 0.000461229 2.04804e-05
0 0.000463517 4.72769e-05 0 0.000468107 1.15415e-05
0 0.000457405 4.50783e-05 0 0.00046529 8.5418e-06
0 0.000444545 4.77255e-05 0 0.000453321 1.13719e-05
0 0.000423394 5.54091e-05 0 0.000433033 1.94369e-05
0 0.000401699 6.63894e-05 0 0.000411899 3.12617e-05
0 0.000376716 8.11223e-05 0 0.000386459 4.6754e-05
0 0.000346653 9.8848e-05 0 0.000356232 6.54091e-05
0 0.000313027 0.000118599 0 0.000322576 8.64067e-05
0 0.000277254 0.000139515 0 0.000286376 0.000108678
0 0.000240336 0.000160731 0 0.000249366 0.000131121
0 0.000203813 0.000181101 0 0.00021274 0.000152695
0 0.000169108 0.000199581 0 0.000177924 0.000172382
0 0.000137399 0.000215327 0 0.000146201 0.000189164
0 0.000109869 0.000227526 0 0.000118733 0.00020219
0 8.75196e-05 0.000235459 0 9.64908e-05 0.000210759
0 7.10785e-05 0.000238626 0 8.02801e-05 0.000214333
0 6.10963e-05 0.000236732 0 7.06419e-05 0.000212566
0 5.78829e-05 0.000229662 0 6.78783e-05 0.00020534
0 6.14835e-05 0.000217498 0 7.20394e-05 0.000192754
0 7.17085e-05 0.000200542 0 8.29108e-05 0.000175123
0 8.85223e-05 0.000179247 0 0.000100548 0.000152898
0 0.000112557 0.000154152 0 0.000125841 0.000126513
0 0.000142919 0.000126175 0 0.000157626 9.69754e-05
0 0.000178099 9.63941e-05 0 0.00019436 6.54408e-05
0 0.000216257 6.6032e-05 0 0.000234158 3.32307e-05
0 0.000247559 4.22098e-05 0 0.000266759 7.91863e-06
0 0.00027836 1.95427e-05 0 0.000298808 -1.62042e-05
0 0.000307577 -1.31682e-06 0 0.000329183 -3.84337e-05
0 0.000334194 -1.9763e-05 0 0.000356828 -5.81105e-05
0 0.000357285 -3.52477e-05 0 0.00038078 -7.46445e-05
0 0.00037605 -4.72997e-05 0 0.000400209 -8.75342e-05
0 0.000389853 -5.55484e-05 0 0.000414457 -9.63822e-05
0 0.00039826 -5.97389e-05 0 0.000423071 -0.00010091
0 0.000401061 -5.97362e-05 0 0.000425829 -0.000100969
0 0.000398263 -5.55244e-05 0 0.000422737 -9.65435e-05
0 0.00039008 -4.7206e-05 0 0.000414013 -8.77477e-05
0 0.000376883 -3.49939e-05 0 0.000400037 -7.48112e-05
0 0.000359142 -1.91979e-05 0 0.000381294 -5.80646e-05
0 0.00033738 -2.09904e-07 0 0.000358327 -3.79243e-05
0 0.000312147 2.15096e-05 0 0.00033171 -1.48789e-05
0 0.000284015 4.54409e-05 0 0.000302041 1.05218e-05
0 0.000253604 7.10116e-05 0 0.000269973 3.76737e-05
0 0.000221604 9.76069e-05 0 0.000236228 6.59273e-05
0 0.000188765 0.000124584 0 0.000201594 9.46013e-05
0 0.000155874 0.000151289 0 0.000166894 0.000123002
0 0.000123705 0.000177075 0 0.000132938 0.000150442
0 9.29948e-05 0.000201322 0 0.000100497 0.000176265
0 6.4423e-05 0.000223446 0 7.02829e-05 0.000199855
0 3.86012e-05 0.000242919 0 4.29356e-05 0.000220654
0 1.60576e-05 0.000259279 0 1.90087e-05 0.000238172
0 -2.78305e-06 0.000272142 0 -1.05264e-06 0.000252004
0 -1.76184e-05 0.000281212 0 -1.69309e-05 0.000261838
0 -2.82808e-05 0.000286286 0 -2.84487e-05 0.000267462
0 -3.47394e-05 0.000287259 0 -3.55712e-05 0.000268769
0 -3.71006e-05 0.000284126 0 -3.84063e-05 0.000265757
0 -3.56012e-05 0.000276978 0 -3.71979e-05 0.000258526
0 -3.05978e-05 0.000265997 0 -3.23144e-05 0.000247271
0 -2.25564e-05 0.000251449 0 -2.42383e-05 0.00023228
0 -1.2074e-05 0.000233679 0 -1.35518e-05 0.000213917
0 -2.58158e-06 0.00021342 0 -5.71963e-06 0.000193443
0 7.62439e-06 0.000190708 0 3.80015e-06 0.000170377
0 1.83501e-05 0.000166015 0 1.39799e-05 0.000145117
0 2.94333e-05 0.000139779 0 2.5136e-05 0.000118285
0 4.06839e-05 0.000112419 0 3.62436e-05 9.02202e-05
0 5.14587e-05 8.43746e-05 0 4.68816e-05 6.1457e-05
0 6.13584e-05 5.60858e-05 0 5.67073e-05 3.2507e-05
0 7.01365e-05 2.80115e-05 0 6.53606e-05 3.84298e-06
0 7.74592e-05 6.15682e-07 0 7.24465e-05 -2.41047e-05
0 8.29762e-05 -2.57974e-05 0 7.7632e-05 -5.09845e-05
0 8.64061e-05 -5.07391e-05 0 8.06092e-05 -7.63531e-05
0 8.75298e-05 -7.39257e-05 0 8.10742e-05 -9.98906e-05
0 8.61066e-05 -9.50513e-05 0 7.8841e-05 -0.000121157
0 8.19124e-05 -0.00011397 0 7.36753e-05 -0.000139999
0 7.48772e-05 -0.000130351 0 6.54618e-05 -0.00015619
0 6.49402e-05 -0.00014408 0 5.41633e-05 -0.000169587
0 5.21317e-05 -0.000155112 0 3.98177e-05 -0.00018011
0 3.6569e-05 -0.000163442 0 2.25424e-05 -0.000187757
0 1.84474e-05 -0.00016911 0 2.53602e-06 -0.000192599
0 -1.9809e-06 -0.000172225 0 -1.99326e-05 -0.00019477
0 -2.44152e-05 -0.000172966 0 -4.4543e-05 -0.000194448
0 -4.85171e-05 -0.000171555 0 -7.09369e-05 -0.000191864
0 -7.3926e-05 -0.000168244 0 -9.87264e-05 -0.000187291
0 -0.000100263 -0.000163312 0 -0.000127498 -0.000181041
0 -0.000127123 -0.000157072 0 -0.000156811 -0.000173452
0 -0.000154084 -0.000149864 0 -0.000186207 -0.000164882
0 -0.000180716 -0.000142035 0 -0.000215218 -0.000155701
0 -0.000206584 -0.000133934 0 -0.000243371 -0.000146285
0 -0.000231254 -0.000125903 0 -0.000270196 -0.000137005
0 -0.000254296 -0.000118277 0 -0.00029523 -0.000128217
0 -0.000275293 -0.000111372 0 -0.00031803 -0.000120258
0 -0.000293852 -0.000105473 0 -0.000338177 -0.000113431
0 -0.000309605 -0.000100832 0 -0.000355286 -0.000108006
0 -0.000322224 -9.76547e-05 0 -0.000369019 -0.000104204
0 -0.000331427 -9.61031e-05 0 -0.000379091 -0.000102196
0 -0.000336998 -9.62838e-05 0 -0.000385287 -0.000102094
0 -0.000338798 -9.82434e-05 0 -0.000387476 -0.000103947
0 -0.000336781 -0.000101966 0 -0.000385622 -0.000107737
0 -0.000330971 -0.000107375 0 -0.000379779 -0.000113382
0 -0.000321453 -0.000114344 0 -0.000370083 -0.000120732
0 -0.000308434 -0.000122676 0 -0.000356775 -0.000129577
0 -0.000292225 -0.000132118 0 -0.000340173 -0.000139651
0 -0.000273217 -0.000142367 0 -0.000320687 -0.000150634
0 -0.000251875 -0.000153085 0 -0.000298815 -0.000162162
0 -0.000228746 -0.000163895 0 -0.000275126 -0.000173835
0 -0.000204447 -0.000174401 0 -0.000250255 -0.00018523
0 -0.000179631 -0.000184193 0 -0.000224875 -0.000195911
0 -0.000154964 -0.000192868 0 -0.000199674 -0.000205447
0 -0.000131103 -0.000200039 0 -0.000175326 -0.000213424
0 -0.000108674 -0.000205346 0 -0.000152477 -0.000219457
0 -8.82594e-05 -0.00020847 0 -0.000131723 -0.000223204
0 -7.03808e-05 -0.000209143 0 -0.000113604 -0.000224375
0 -5.5492e-05 -0.000207153 0 -9.8583e-05 -0.000222742
0 -4.39604e-05 -0.000202356 0 -8.70377e-05 -0.000218146
0 -3.60527e-05 -0.00019468 0 -7.92416e-05 -0.000210507
0 -3.19218e-05 -0.000184132 0 -7.53524e-05 -0.000199825
0 -3.16009e-05 -0.000170794 0 -7.5407e-05 -0.000186184
0 -3.49437e-05 -0.000154845 0 -8.00328e-05 -0.000169653
0 -4.153e-05 -0.000136643 0 -8.9055e-05 -0.000150289
0 -5.1462e-05 -0.000116317 0 -0.000100964 -0.000128921
0 -6.44681e-05 -9.42232e-05 0 -0.000115795 -0.000105687
0 -8.01066e-05 -7.0765e-05 0 -0.000133058 -8.1098e-05
0 -9.80804e-05 -4.64031e-05 0 -0.000152328 -5.55803e-05
0 -0.00011787 -2.16096e-05 0 -0.000173058 -2.96928e-05
0 -0.000138911 3.08312e-06 0 -0.000195318 -3.80932e-06
0 -0.00016055 2.71244e-05 0 -0.000218449 2.15116e-05
0 -0.000182605 5.00702e-05 0 -0.000242091 4.57532e-05
0 -0.000204754 7.1458e-05 0 -0.000265606 6.83566e-05
0 -0.000226438 9.07884e-05 0 -0.000288495 8.8775e-05
0 -0.00024709 0.000107542 0 -0.000310252 0.000106604
0 -0.000266282 0.000121401 0 -0.000330355 0.000121374
0 -0.00028356 0.000131973 0 -0.000348273 0.000132688
0 -0.000298316 0.000138908 0 -0.00036345 0.000140201
0 -0.000309982 0.000141936 0 -0.000375351 0.000143633
0 -0.000318093 0.000140871 0 -0.000383461 0.000142765
0 -0.000322249 0.000135606 0 -0.000387351 0.000137467
0 -0.000322114 0.000126113 0 -0.0003867 0.000127712
0 -0.000317475 0.000112463 0 -0.000381304 0.000113572
0 -0.000308251 9.48311e-05 0 -0.000371077 9.51942e-05
0 -0.000294469 7.34066e-05 0 -0.000356056 7.28403e-05
0 -0.000276278 4.86528e-05 0 -0.000336415 4.69094e-05
0 -0.000253943 2.0988e-05 0 -0.000312446 1.78888e-05
0 -0.000227868 -9.05469e-06 0 -0.000284578 -1.36818e-05
0 -0.000198605 -4.08625e-05 0 -0.000253396 -4.71607e-05
0 -0.000166849 -7.37597e-05 0 -0.000219637 -8.18367e-05
0 -0.000133405 -0.00010703 0 -0.000184146 -0.000116948
0 -9.91595e-05 -0.000139931 0 -0.000147848 -0.000151708
0 -6.50453e-05 -0.000171715 0 -0.00011172 -0.000185322
0 -3.20154e-05 -0.000201641 0 -7.6758e-05 -0.000217007
0 -9.99758e-07 -0.000229008 0 -4.39305e-05 -0.000246017
0 2.71389e-05 -0.000253171 0 -1.41358e-05 -0.000271665
0 5.1643e-05 -0.000273561 0 1.18368e-05 -0.000293344
0 7.18822e-05 -0.000289699 0 3.33303e-05 -0.000310544
0 8.73619e-05 -0.000301206 0 4.98295e-05 -0.000322864
0 9.77311e-05 -0.000307816 0 6.09695e-05 -0.000330021
0 0.000102795 -0.000309382 0 6.65482e-05 -0.000331858
0 0.000102526 -0.00030588 0 6.65392e-05 -0.000328348
0 9.70681e-05 -0.000297408 0 6.10955e-05 -0.000319596
0 8.67352e-05 -0.000284183 0 5.05453e-05 -0.000305837
0 7.19971e-05 -0.000266536 0 3.53811e-05 -0.000287422
0 5.34639e-05 -0.0002449 0 1.62414e-05 -0.000264816
0 3.18603e-05 -0.000219798 0 -6.11543e-06 -0.000238574
0 7.99929e-06 -0.000191826 0 -3.08385e-05 -0.000209334
0 -1.72457e-05 -0.000161634 0 -5.70132e-05 -0.000177788
0 -4.29896e-05 -0.000129908 0 -8.29429e-05 -0.000144736
0 -6.46212e-05 -9.77579e-05 0 -0.00010286 -0.000111941
0 -8.45785e-05 -6.53869e-05 0 -0.000123378 -7.85048e-05
0 -0.000102643 -3.34439e-05 0 -0.00014164 -4.57128e-05
0 -0.000118275 -2.59335e-06 0 -0.000157143 -1.39242e-05
0 -0.000130778 2.66833e-05 0 -0.00016921 1.6081e-05
0 -0.000139402 5.38003e-05 0 -0.000177446 4.37617e-05
0 -0.000143732 7.84458e-05 0 -0.000181304 6.87496e-05
0 -0.000143832 0.00010028 0 -0.000180388 9.06644e-05
0 -0.000139163 0.000118963 0 -0.000174577 0.000109263
0 -0.000129487 0.000134324 0 -0.000163641 0.000124323
0 -0.000114801 0.000146237 0 -0.000147533 0.000135782
0 -9.53739e-05 0.000154637 0 -0.000126453 0.000143595
0 -7.14309e-05 0.000159758 0 -0.000100753 0.000147722
0 -4.33767e-05 0.00016176 0 -7.08283e-05 0.000148615
0 -1.17273e-05 0.000160936 0 -3.72124e-05 0.000146537
0 2.28981e-05 0.00015768 0 -5.46013e-07 0.00014187
0 5.97991e-05 0.000152419 0 3.84446e-05 0.000135067
0 9.82339e-05 0.000145597 0 7.90403e-05 0.000126622
0 0.000137536 0.00013768 0 0.000120563 0.00011704
0 0.000176768 0.000129213 0 0.000161981 0.000106918
0 0.000214943 0.000120754 0 0.000202265 9.68313e-05
0 0.000251045 0.000112837 0 0.000240359 8.73625e-05
0 0.000284083 0.000105957 0 0.00027524 7.90623e-05
0 0.000313153 0.000100564 0 0.00030597 7.2426e-05
0 0.000337482 9.70479e-05 0 0.000331749 6.78686e-05
0 0.000356467 9.57111e-05 0 0.000351954 6.57115e-05
0 0.000371455 9.64459e-05 0 0.000367106 6.61208e-05
0 0.000380671 9.97731e-05 0 0.000377338 6.88851e-05
0 0.000384185 0.000105566 0 0.000381644 7.45166e-05
0 0.000382173 0.000113768 0 0.000380337 8.26764e-05
0 0.000374922 0.000124167 0 0.000373528 9.33212e-05
0 0.000362748 0.000136553 0 0.000361637 0.000106132
0 0.000346148 0.000150609 0 0.000345202 0.000120773
0 0.000325749 0.000165929 0 0.000324831 0.000136825
0 0.000302189 0.000182059 0 0.000301202 0.00015381
0 0.000276182 0.000198513 0 0.000275078 0.000171203
0 0.000248529 0.000214773 0 0.00024727 0.000188449
0 0.000220069 0.00023031 0 0.000218624 0.000204983
0 0.000191631 0.000244591 0 0.000189999 0.00022024
0 0.00016403 0.000257104 0 0.000162239 0.000233675
0 0.000138058 0.000267368 0 0.00013615 0.000244778
0 0.000114453 0.000274956 0 0.000112481 0.000253092
0 9.38653e-05 0.000279504 0 9.19042e-05 0.000258221
0 7.6852e-05 0.000280715 0 7.49907e-05 0.000259849
0 6.38694e-05 0.000278377 0 6.22039e-05 0.000257751
0 5.52618e-05 0.000272366 0 5.38934e-05 0.00025179
0 5.12554e-05 0.000262654 0 5.02879e-05 0.000241931
0 5.19487e-05 0.000249309 0 5.14832e-05 0.000228239
0 5.72992e-05 0.000232497 0 5.743e-05 0.000210886
0 6.71132e-05 0.00021248 0 6.79275e-05 0.000190145
0 8.0997e-05 0.000189635 0 8.27474e-05 0.00016637
0 9.88429e-05 0.000164341 0 0.000101827 0.000139929
0 0.000120103 0.000137115 0 0.000124415 0.000111412
0 0.000144045 0.000108536 0 0.000149752 8.14285e-05
0 0.000169808 7.92334e-05 0 0.000176986 5.06445e-05
0 0.000196519 4.98626e-05 0 0.00020521 1.9757e-05
0 0.000223302 2.10872e-05 0 0.000233478 -1.05212e-05
0 0.000249258 -6.43222e-06 0 0.000260855 -3.94916e-05
0 0.00027352 -3.20665e-05 0 0.00028645 -6.64866e-05
0 0.000295322 -5.52412e-05 0 0.00030946 -9.08881e-05
0 0.000314032 -7.54468e-05 0 0.00032921 -0.00011215
0 0.000329153 -9.22605e-05 0 0.000345183 -0.000129841
0 0.000340328 -0.00010536 0 0.000356989 -0.000143576
0 0.000347311 -0.000114426 0 0.000364372 -0.000153077
0 0.000349978 -0.000119321 0 0.000367191 -0.000158168
0 0.00034828 -0.000119979 0 0.000365419 -0.000158772
0 0.000342299 -0.000116427 0 0.000359156 -0.000154936
0 0.000332248 -0.000108796 0 0.000348617 -0.000146805
0 0.000318426 -9.73073e-05 0 0.000334108 -0.000134615
0 0.000301194 -8.22649e-05 0 0.00031601 -0.000118686
0 0.000280973 -6.40885e-05 0 0.00029477 -9.94691e-05
0 0.000258248 -4.31804e-05 0 0.000270898 -7.7355e-05
0 0.000233591 -2.00391e-05 0 0.000244992 -5.29144e-05
0 0.000207655 4.78102e-06 0 0.000217734 -2.67155e-05
0 0.000181159 3.06977e-05 0 0.000189882 6.17601e-07
0 0.000154859 5.71117e-05 0 0.000162225 2.84481e-05
0 0.000129497 8.34236e-05 0 0.00013554 5.6139e-05
0 0.000105769 0.000109049 0 0.000110553 8.30735e-05
0 8.43062e-05 0.000133435 0 8.79282e-05 0.000108669
0 6.56643e-05 0.000156076 0 6.82461e-05 0.000132392
0 5.03079e-05 0.000176524 0 5.19957e-05 0.000153767
0 3.86026e-05 0.000194396 0 3.95627e-05 0.000172391
0 3.0816e-05 0.000209383 0 3.123e-05 0.000187939
0 2.71258e-05 0.000221249 0 2.71855e-05 0.000200171
0 2.76299e-05 0.000229842 0 2.75332e-05 0.000208925
0 3.23521e-05 0.00023509 0 3.22973e-05 0.000214128
0 4.12379e-05 0.000237004 0 4.1419e-05 0.000215794
0 5.41408e-05 0.000235679 0 5.47419e-05 0.000214022
0 7.08138e-05 0.00023129 0 7.20032e-05 0.000209004
0 9.0916e-05 0.000224091 0 9.28419e-05 0.000201009
0 0.000114011 0.000214409 0 0.000116797 0.000190384
0 0.000139557 0.000202635 0 0.000143298 0.000177549
0 0.000166909 0.000189218 0 0.000171665 0.000162981
0 0.000195327 0.00017465 0 0.000201126 0.000147209
0 0.000223999 0.000159455 0 0.00023083 0.000130795
0 0.000252051 0.000144174 0 0.000259863 0.000114317
0 0.000278574 0.000129344 0 0.00028728 9.83572e-05
0 0.000302658 0.000115486 0 0.000312135 8.34746e-05
0 0.000323434 0.000103081 0 0.000333523 7.01901e-05
0 0.00034011 9.25554e-05 0 0.000350623 5.89649e-05
0 0.000352014 8.42638e-05 0 0.000362737 5.0183e-05
0 0.000358613 7.84764e-05 0 0.000369313 4.41376e-05
0 0.000359527 7.53709e-05 0 0.000369956 4.10218e-05
0 0.000354529 7.50264e-05 0 0.000364435 4.09236e-05
0 0.000343556 7.74208e-05 0 0.000352682 4.38218e-05
0 0.000326698 8.24305e-05 0 0.000334797 4.9587e-05
0 0.000304209 8.98333e-05 0 0.000311046 5.79833e-05
0 0.00027651 9.9311e-05 0 0.000281448 6.87099e-05
0 0.000244367 0.0001103 0 0.000245111 8.1778e-05
0 0.000206891 0.000122756 0 0.000206167 9.57816e-05
0 0.000166445 0.000135857 0 0.000163957 0.000110561
0 0.000123993 0.000149006 0 0.000119647 0.000125372
0 8.0488e-05 0.000161542 0 7.40313e-05 0.000139691
0 3.66309e-05 0.000172902 0 2.81981e-05 0.000152813
0 -6.55528e-06 0.000182444 0 -1.72286e-05 0.000164149
0 -4.79547e-05 0.000189615 0 -6.12669e-05 0.000173095
0 -8.70573e-05 0.000193962 0 -0.0001027 0.000178943
0 -0.00012325 0.000194744 0 -0.000140774 0.000181125
0 -0.000155462 0.000191853 0 -0.000174858 0.000179359
0 -0.000183105 0.000184967 0 -0.000204233 0.000173467
0 -0.000205766 0.000173929 0 -0.000228298 0.000163151
0 -0.000223025 0.000158631 0 -0.000246663 0.000148319
0 -0.000234566 0.000139086 0 -0.000259113 0.000128985
0 -0.000240302 0.000115446 0 -0.000265544 0.000105282
0 -0.000240305 8.79597e-05 0 -0.000265988 7.74567e-05
0 -0.00023474 5.68915e-05 0 -0.000260647 4.57761e-05
0 -0.000223919 2.27346e-05 0 -0.00024989 1.08625e-05
0 -0.00020833 -1.39279e-05 0 -0.00023422 -2.67799e-05
0 -0.000188557 -5.24602e-05 0 -0.000214255 -6.6471e-05
0 -0.000165269 -9.21746e-05 0 -0.000190723 -0.000107465
0 -0.000139253 -0.000132317 0 -0.00016446 -0.000148952
0 -0.000111395 -0.000172088 0 -0.000136378 -0.000190101
0 -8.26429e-05 -0.000210679 0 -0.000107458 -0.000230065
0 -5.39873e-05 -0.000247286 0 -7.87313e-05 -0.000267993
0 -2.64464e-05 -0.000281124 0 -5.12449e-05 -0.000303054
0 -9.55208e-07 -0.000311466 0 -2.60087e-05 -0.000334461
0 2.14948e-05 -0.000337208 0 -4.04173e-06 -0.00036094
0 3.96738e-05 -0.000353829 0 1.30384e-05 -0.000376016
0 5.33856e-05 -0.000366524 0 2.56552e-05 -0.000388944
0 6.19661e-05 -0.000374872 0 3.3146e-05 -0.000397255
0 6.50987e-05 -0.000378674 0 3.46945e-05 -0.000400663
0 6.23145e-05 -0.000378075 0 3.02988e-05 -0.000399674
0 5.34947e-05 -0.000372068 0 1.96327e-05 -0.000392992
0 3.87522e-05 -0.000360634 0 2.75736e-06 -0.000380427
0 1.83297e-05 -0.000343995 0 -1.99235e-05 -0.000362415
0 -7.25773e-06 -0.000322516 0 -4.79588e-05 -0.000339396
0 -3.73551e-05 -0.000296751 0 -8.06893e-05 -0.000311887
0 -7.11871e-05 -0.000267394 0 -0.000117321 -0.000280543
0 -0.000107896 -0.000235169 0 -0.000156942 -0.000246139
0 -0.000146548 -0.000200811 0 -0.000198578 -0.000209525
0 -0.00018617 -0.000165109 0 -0.000241226 -0.000171569
0 -0.000225785 -0.000128917 0 -0.000283874 -0.000133133
0 -0.000264435 -9.3104e-05 0 -0.000325521 -9.50808e-05
0 -0.000301211 -5.84866e-05 0 -0.000365207 -5.82811e-05
0 -0.000335271 -2.58163e-05 0 -0.000402039 -2.35718e-05
0 -0.000365859 4.2047e-06 0 -0.000435211 8.28282e-06
0 -0.000391398 3.07949e-05 0 -0.000462235 3.63937e-05
0 -0.000409892 5.35715e-05 0 -0.00046743 5.67415e-05
0 -0.000426421 7.27894e-05 0 -0.000477724 7.43873e-05
0 -0.000439347 8.73614e-05 0 -0.00048291 8.7874e-05
0 -0.000447429 9.71248e-05 0 -0.000487169 9.62677e-05
0 -0.00045031 0.000101491 0 -0.000491545 0.000101757
0 -0.000448049 0.000101274 0 -0.000489794 0.000101597
0 -0.000440497 9.62633e-05 0 -0.000482507 9.63652e-05
0 -0.000427612 8.65199e-05 0 -0.0004697 8.60951e-05
0 -0.000409583 7.22016e-05 0 -0.000451825 7.12013e-05
0 -0.000387099 5.37723e-05 0 -0.000429263 5.20219e-05
0 -0.000360773 3.17861e-05 0 -0.000402625 2.90212e-05
0 -0.00033116 6.78111e-06 0 -0.000372653 2.82319e-06
0 -0.000299012 -2.0656e-05 0 -0.000340104 -2.59032e-05
0 -0.000265206 -4.98552e-05 0 -0.000305774 -5.64558e-05
0 -0.000230588 -8.00872e-05 0 -0.000270535 -8.80939e-05
0 -0.000195993 -0.000110604 0 -0.000235289 -0.000120053
0 -0.00016229 -0.000140676 0 -0.000200908 -0.000151566
0 -0.000130329 -0.000169606 0 -0.000168236 -0.000181884
0 -0.00010088 -0.000196733 0 -0.00013808 -0.000210298
0 -7.46476e-05 -0.000221428 0 -0.000111185 -0.000236153
0 -5.22654e-05 -0.000243126 0 -8.82042e-05 -0.000258872
0 -3.42703e-05 -0.000261354 0 -6.96939e-05 -0.00027795
0 -2.10822e-05 -0.000275735 0 -5.61004e-05 -0.000292978
0 -1.30059e-05 -0.000285986 0 -4.77485e-05 -0.000303651
0 -1.02712e-05 -0.000291914 0 -4.48636e-05 -0.000309774
0 -1.36788e-05 -0.000293336 0 -4.83552e-05 -0.000311154
0 -2.3108e-05 -0.000290336 0 -5.81502e-05 -0.000307788
0 -3.8238e-05 -0.000283093 0 -7.39162e-05 -0.000299902
0 -5.85963e-05 -0.000271889 0 -9.51546e-05 -0.000287795
0 -8.35562e-05 -0.000257109 0 -0.000121215 -0.000271901
0 -0.000112361 -0.000239244 0 -0.000151302 -0.00025274
0 -0.000144145 -0.00021887 0 -0.000184511 -0.000230919
0 -0.000177965 -0.000196616 0 -0.000219857 -0.000207108
0 -0.000212837 -0.000173144 0 -0.000256311 -0.000182021
0 -0.000247762 -0.000149138 0 -0.000292825 -0.000156395
0 -0.00028175 -0.000125289 0 -0.000328365 -0.000130965
0 -0.000313848 -0.000102274 0 -0.00036193 -0.000106446
0 -0.000343163 -8.07289e-05 0 -0.000392583 -8.35173e-05
0 -0.000368878 -6.12341e-05 0 -0.000419468 -6.28011e-05
0 -0.000390278 -4.43043e-05 0 -0.000441833 -4.48464e-05
0 -0.000406757 -3.03745e-05 0 -0.000459046 -3.01146e-05
0 -0.000417839 -1.97872e-05 0 -0.000470604 -1.89684e-05
0 -0.000423185 -1.27812e-05 0 -0.000476157 -1.16626e-05
0 -0.000422615 -9.48558e-06 0 -0.000475514 -8.33628e-06
0 -0.000416118 -9.91734e-06 0 -0.000468665 -9.00753e-06
0 -0.000403863 -1.39802e-05 0 -0.000455787 -1.35722e-05
0 -0.000386203 -2.14666e-05 0 -0.000437248 -2.18074e-05
0 -0.000363666 -3.20642e-05 0 -0.000413598 -3.33784e-05
0 -0.000336931 -4.53685e-05 0 -0.000385542 -4.7852e-05
0 -0.000306785 -6.08995e-05 0 -0.000353899 -6.47131e-05
0 -0.000274087 -7.81174e-05 0 -0.000319566 -8.33842e-05
0 -0.000239743 -9.64403e-05 0 -0.000283487 -0.000103243
0 -0.00020468 -0.000115261 0 -0.00024663 -0.00012364
0 -0.00016982 -0.000133965 0 -0.000209957 -0.00014392
0 -0.000136058 -0.000151951 0 -0.000174407 -0.000163439
0 -0.000104248 -0.000168643 0 -0.000140871 -0.000181582
0 -7.51706e-05 -0.000183509 0 -0.000110165 -0.00019778
0 -4.95074e-05 -0.000196079 0 -8.30028e-05 -0.00021153
0 -2.78038e-05 -0.000205956 0 -5.99564e-05 -0.000222409
0 -1.04356e-05 -0.000212834 0 -4.14228e-05 -0.00023009
0 2.40842e-06 -0.0002165 0 -2.76056e-05 -0.000234347
0 1.07174e-05 -0.000216839 0 -1.85251e-05 -0.000235062
0 1.46297e-05 -0.000213832 0 -1.40465e-05 -0.000232219
0 1.43985e-05 -0.000207545 0 -1.39143e-05 -0.000225893
0 1.03611e-05 -0.000198129 0 -1.77837e-05 -0.000216248
0 2.91665e-06 -0.000185807 0 -2.52425e-05 -0.000203523
0 -7.48557e-06 -0.000170867 0 -3.58235e-05 -0.000188026
0 -2.03522e-05 -0.000153655 0 -4.90113e-05 -0.000170126
0 -3.51521e-05 -0.000134565 0 -6.42488e-05 -0.000150243
0 -5.13276e-05 -0.000114027 0 -8.09504e-05 -0.000128836
0 -6.8306e-05 -9.25008e-05 0 -9.85128e-05 -0.000106391
0 -8.5507e-05 -7.04593e-05 0 -0.000116325 -8.34112e-05
0 -0.000102347 -4.83822e-05 0 -0.000133772 -6.04063e-05
0 -0.000118257 -2.67421e-05 0 -0.000150253 -3.78772e-05
0 -0.000132703 -5.99094e-06 0 -0.000165206 -1.63038e-05
0 -0.000145199 1.3301e-05 0 -0.000178113 3.6013e-06
0 -0.000155324 3.04085e-05 0 -0.000188472 2.11276e-05
0 -0.000162802 4.56583e-05 0 -0.000196115 3.68279e-05
0 -0.000167381 5.87132e-05 0 -0.000200637 5.01053e-05
0 -0.000169535 6.96486e-05 0 -0.000196591 5.98951e-05
0 -0.000164486 7.74921e-05 0 -0.000190952 6.73132e-05
0 -0.000156013 8.26808e-05 0 -0.000181754 7.21672e-05
0 -0.000144457 8.53074e-05 0 -0.000169699 7.43937e-05
0 -0.000130391 8.55609e-05 0 -0.000154199 7.40215e-05
0 -0.000113535 8.35346e-05 0 -0.000135886 7.12102e-05
0 -9.40426e-05 7.93758e-05 0 -0.000115111 6.61764e-05
0 -7.25055e-05 7.33104e-05 0 -9.21594e-05 5.91167e-05
0 -5.01566e-05 6.57129e-05 0 -6.91978e-05 5.07066e-05
0 -2.67834e-05 5.66889e-05 0 -4.43775e-05 4.07787e-05
0 -2.38609e-06 4.66783e-05 0 -1.88385e-05 2.9817e-05
0 2.25559e-05 3.60052e-05 0 7.2626e-06 1.80606e-05
0 4.7563e-05 2.50546e-05 0 3.34108e-05 5.98717e-06
0 7.21127e-05 1.41897e-05 0 5.91657e-05 -5.93632e-06
0 9.57733e-05 3.80321e-06 0 8.39524e-05 -1.73404e-05
0 0.000118072 -5.72869e-06 0 0.000107296 -2.78469e-05
0 0.000138545 -1.40817e-05 0 0.000128776 -3.71127e-05
0 0.000156804 -2.09838e-05 0 0.000148003 -4.48255e-05
0 0.000172534 -2.6189e-05 0 0.000164626 -5.0719e-05
0 0.000185456 -2.94796e-05 0 0.000178362 -5.45839e-05
0 0.000195353 -3.06979e-05 0 0.000189003 -5.6265e-05
0 0.000202087 -2.97597e-05 0 0.000196409 -5.5662e-05
0 0.000205598 -2.6642e-05 0 0.000200515 -5.27381e-05
0 0.000205896 -2.13714e-05 0 0.000201338 -4.7525e-05
0 0.000203075 -1.40311e-05 0 0.000198976 -4.01195e-05
0 0.000197307 -4.76774e-06 0 0.000193609 -3.06772e-05
0 0.000188838 6.21288e-06 0 0.000185486 -1.941e-05
0 0.000177991 1.84871e-05 0 0.000174928 -6.65199e-06
0 0.000165112 3.17256e-05 0 0.000162326 6.86417e-06
0 0.000150586 4.58244e-05 0 0.000147984 2.14864e-05
0 0.000134834 6.04487e-05 0 0.00013241 3.65834e-05
0 0.00011833 7.52224e-05 0 0.00011609 5.18896e-05
0 0.00010158 8.9793e-05 0 9.95401e-05 6.6976e-05
0 8.50922e-05 0.000103795 0 8.32839e-05 8.1476e-05
0 6.93715e-05 0.000116873 0 6.78478e-05 9.50074e-05
0 5.491e-05 0.000128685 0 5.37378e-05 0.000107217
0 4.21023e-05 0.000138936 0 4.14114e-05 0.000117776
0 3.13594e-05 0.000147362 0 3.13014e-05 0.000126394
0 2.30604e-05 0.000153729 0 2.37911e-05 0.000132826
0 1.74706e-05 0.000157865 0 1.88813e-05 0.00013694
0 1.4921e-05 0.0001596 0 1.70023e-05 0.000138617
0 1.55881e-05 0.000158893 0 1.84214e-05 0.000137682
0 1.96273e-05 0.000155674 0 2.32803e-05 0.00013411
0 2.71168e-05 0.000150002 0 3.16136e-05 0.00012794
0 3.80207e-05 0.000141996 0 4.33889e-05 0.000119311
0 5.22033e-05 0.000131845 0 5.84645e-05 0.000108421
0 6.94345e-05 0.000119804 0 7.65943e-05 9.5537e-05
0 8.93853e-05 0.000106192 0 9.74339e-05 8.09883e-05
0 0.000111632 9.13743e-05 0 0.000120552 6.51583e-05
0 0.000135669 7.57584e-05 0 0.00014544 4.84774e-05
0 0.000160926 5.97822e-05 0 0.000171518 3.14088e-05
0 0.000186785 4.3906e-05 0 0.000198164 1.44348e-05
0 0.00021259 2.86005e-05 0 0.000224876 -1.98036e-06
0 0.000237758 1.43253e-05 0 0.000251038 -1.73765e-05
0 0.000261642 1.5094e-06 0 0.000275842 -3.12337e-05
0 0.000283599 -9.43918e-06 0 0.000298618 -4.3126e-05
0 0.000303209 -1.8181e-05 0 0.000318772 -5.26548e-05
0 0.000320218 -2.44642e-05 0 0.000335721 -5.94551e-05
0 0.000334176 -2.80249e-05 0 0.000349648 -6.33712e-05
0 0.000344615 -2.85942e-05 0 0.000360553 -6.43829e-05
0 0.000351508 -2.61498e-05 0 0.000367727 -6.21388e-05
0 0.00035483 -2.06728e-05 0 0.000371256 -5.67344e-05
0 0.000354574 -1.22278e-05 0 0.000371087 -4.81642e-05
0 0.000350795 -9.14678e-07 0 0.00036735 -3.65931e-05
0 0.00034365 1.30782e-05 0 0.000360107 -2.21887e-05
0 0.000333413 2.94817e-05 0 0.000349655 -5.22366e-06
0 0.000320428 4.79697e-05 0 0.000336356 1.39533e-05
0 0.000305107 6.81651e-05 0 0.000320642 3.49487e-05
0 0.000287926 8.96515e-05 0 0.000302988 5.73201e-05
0 0.000269449 0.000111458 0 0.000283958 8.01716e-05
0 0.000250136 0.000133602 0 0.000264155 0.000102993
0 0.000230599 0.000155614 0 0.000244003 0.000125912
0 0.000211348 0.000177089 0 0.000224173 0.000148244
0 0.000192952 0.000197568 0 0.000205179 0.000169571
0 0.000175907 0.000216646 0 0.000187549 0.000189428
0 0.000160666 0.000233937 0 0.000171745 0.000207423
0 0.000147625 0.00024909 0 0.000158176 0.000223195
0 0.00013719 0.000261799 0 0.000147222 0.000236437
0 0.000130058 0.000271765 0 0.000139647 0.000246827
0 0.000126404 0.00027885 0 0.000135688 0.000254156
0 0.000126337 0.000282958 0 0.000135466 0.000258344
0 0.000129859 0.00028406 0 0.000138971 0.000259367
0 0.00013684 0.000282168 0 0.000146067 0.000257256
0 0.000146994 0.000277389 0 0.000156464 0.000252089
0 0.000159875 0.000269958 0 0.000169694 0.000244131
0 0.000174911 0.000260167 0 0.000185165 0.00023369
0 0.000191453 0.000248353 0 0.000202203 0.000221147
0 0.00020881 0.0002349 0 0.000220092 0.000206915
0 0.000226281 0.000220221 0 0.000238104 0.000191433
0 0.00024317 0.000204741 0 0.000255515 0.000175153
0 0.00025879 0.000188883 0 0.000271613 0.000158528
0 0.000272487 0.000173052 0 0.000285715 0.000142001
0 0.00028367 0.000157633 0 0.000297206 0.00012598
0 0.000291841 0.000142968 0 0.000305568 0.000110832
0 0.000296607 0.000129353 0 0.00031039 9.68692e-05
0 0.000297667 0.000117029 0 0.000311357 8.43464e-05
0 0.000294804 0.000106177 0 0.000308241 7.34573e-05
0 0.000287886 9.6918e-05 0 0.000300906 6.43295e-05
0 0.000276884 8.93068e-05 0 0.00028932 5.70197e-05
0 0.000261879 8.33308e-05 0 0.000273568 5.15117e-05
0 0.000243075 7.8909e-05 0 0.000253863 4.77156e-05
0 0.000220803 7.58951e-05 0 0.00023055 4.54716e-05
0 0.000195512 7.40832e-05 0 0.000204095 4.45547e-05
0 0.000167755 7.32175e-05 0 0.000175069 4.46851e-05
0 0.000138154 7.30026e-05 0 0.000144122 4.55404e-05
0 0.00010738 7.31166e-05 0 0.000111946 4.677e-05
0 7.6115e-05 7.32244e-05 0 7.92507e-05 4.80099e-05
0 4.50235e-05 7.29914e-05 0 4.67263e-05 4.88967e-05
0 1.47345e-05 7.20952e-05 0 1.5027e-05 4.90812e-05
0 -1.41715e-05 7.02361e-05 0 -1.52419e-05 4.82384e-05
0 -4.1059e-05 6.71114e-05 0 -4.33351e-05 4.57977e-05
0 -6.54792e-05 6.23134e-05 0 -6.82018e-05 4.16358e-05
0 -8.69469e-05 5.58135e-05 0 -9.04925e-05 3.58368e-05
0 -0.000105437 4.76097e-05 0 -0.000109726 2.80873e-05
0 -0.000120959 3.7634e-05 0 -0.000126207 1.84586e-05
0 -0.00013618 2.65242e-05 0 -0.000143015 8.02434e-06
0 -0.000148249 1.36736e-05 0 -0.000155329 -4.50093e-06
0 -0.00015689 -8.83374e-07 0 -0.000164524 -1.87997e-05
0 -0.000162159 -1.70247e-05 0 -0.000170351 -3.49177e-05
0 -0.000164137 -3.46412e-05 0 -0.000172903 -5.25623e-05
0 -0.000163005 -5.35525e-05 0 -0.000172175 -7.15922e-05
0 -0.000158925 -7.35108e-05 0 -0.000168411 -9.17556e-05
0 -0.000152123 -9.42002e-05 0 -0.000161909 -0.000112762
0 -0.000142915 -0.000115286 0 -0.000152972 -0.000134261
0 -0.000131658 -0.000136435 0 -0.00014194 -0.000155881
0 -0.000118727 -0.000157291 0 -0.0001292 -0.000177232
0 -0.000104541 -0.000177458 0 -0.0001152 -0.000197915
0 -8.95626e-05 -0.000196527 0 -0.000100429 -0.000217517
0 -7.42698e-05 -0.000214108 0 -8.53848e-05 -0.000235624
0 -5.91448e-05 -0.000229834 0 -7.05801e-05 -0.00025183
0 -4.46682e-05 -0.000243354 0 -5.65215e-05 -0.000265755
0 -3.13061e-05 -0.000254339 0 -4.36948e-05 -0.000277058
0 -1.94666e-05 -0.000262502 0 -3.24113e-05 -0.000285459
0 -9.56842e-06 -0.000267591 0 -2.3164e-05 -0.000290708
0 -1.96597e-06 -0.000269435 0 -1.63032e-05 -0.000292579
0 3.02721e-06 -0.000267837 0 -1.21579e-05 -0.000290876
0 5.15575e-06 -0.000262716 0 -1.09791e-05 -0.000285483
0 4.23633e-06 -0.000254078 0 -1.29424e-05 -0.000276425
0 1.72957e-07 -0.000242008 0 -1.81383e-05 -0.000263782
0 -7.04254e-06 -0.000226667 0 -2.65627e-05 -0.00024772
0 -1.73222e-05 -0.000208291 0 -3.81161e-05 -0.000228481
0 -3.04803e-05 -0.000187184 0 -5.26023e-05 -0.000206384
0 -4.62368e-05 -0.000163716 0 -6.97303e-05 -0.000181814
0 -6.42252e-05 -0.000138313 0 -8.91226e-05 -0.000155218
0 -8.4006e-05 -0.000111454 0 -0.000110329 -0.000127095
0 -0.000105085 -8.36494e-05 0 -0.000132848 -9.79788e-05
0 -0.000126935 -5.5437e-05 0 -0.000156139 -6.84291e-05
0 -0.00014901 -2.73635e-05 0 -0.000179647 -3.90189e-05
0 -0.00017077 2.59162e-08 0 -0.00020282 -1.03188e-05
0 -0.000191692 2.61997e-05 0 -0.000225121 1.71158e-05
0 -0.000211263 5.04598e-05 0 -0.000246023 4.24784e-05
0 -0.000229026 7.21585e-05 0 -0.000265009 6.50933e-05
0 -0.000244618 9.14025e-05 0 -0.000281817 8.52812e-05
0 -0.000257728 0.000107782 0 -0.000296029 0.000102417
0 -0.000268074 0.000120983 0 -0.000307405 0.000116293
0 -0.000275473 0.000130804 0 -0.00031574 0.000126643
0 -0.000279821 0.0001371 0 -0.000320926 0.000133325
0 -0.000281087 0.000139792 0 -0.000322932 0.000136255
0 -0.000279321 0.00013883 0 -0.00032181 0.000135404
0 -0.000274654 0.000134231 0 -0.000317683 0.000130753
0 -0.0002673 0.000126144 0 -0.000310776 0.000122478
0 -0.000257554 0.000114785 0 -0.000301386 0.000110788
0 -0.000245773 0.000100421 0 -0.000289869 9.59764e-05
0 -0.000232365 8.33753e-05 0 -0.000276603 7.83738e-05
0 -0.00021778 6.40214e-05 0 -0.000262084 5.83799e-05
0 -0.000202525 4.29119e-05 0 -0.000246825 3.65257e-05
0 -0.000187092 2.04135e-05 0 -0.000231387 1.3426e-05
0 -0.000172001 -3.07516e-06 0 -0.00021622 -1.07974e-05
0 -0.000157726 -2.71332e-05 0 -0.000201885 -3.55464e-05
0 -0.000144757 -5.13054e-05 0 -0.000188864 -6.03776e-05
0 -0.000133541 -7.51669e-05 0 -0.000177626 -8.48383e-05
0 -0.00012578 -9.81357e-05 0 -0.000169386 -0.000108443
0 -0.000120931 -0.000120027 0 -0.000165084 -0.000130609
0 -0.00011864 -0.000140599 0 -0.000162894 -0.00015147
0 -0.000118931 -0.000159606 0 -0.000163582 -0.000170625
0 -0.000121977 -0.000176796 0 -0.000167032 -0.000187908
0 -0.000127774 -0.000192044 0 -0.000173286 -0.000203137
0 -0.00013627 -0.000205273 0 -0.000182309 -0.000216213
0 -0.000147239 -0.000216442 0 -0.000193993 -0.000227093
0 -0.000160522 -0.000225541 0 -0.000208174 -0.000235779
0 -0.000175912 -0.000232597 0 -0.000223988 -0.000242446
0 -0.000193247 -0.000237678 0 -0.000241937 -0.000247079
0 -0.000212463 -0.00024092 0 -0.000261904 -0.000249746
0 -0.000233255 -0.000242507 0 -0.000283565 -0.000250638
0 -0.000255161 -0.000242635 0 -0.00030637 -0.000250022
0 -0.000277671 -0.000241542 0 -0.000329785 -0.00024816
0 -0.00030026 -0.000239499 0 -0.000353304 -0.000245335
0 -0.000322464 -0.00023678 0 -0.000376433 -0.000241835
0 -0.000343856 -0.000233658 0 -0.000398705 -0.000237948
0 -0.000363987 -0.000230396 0 -0.00041966 -0.000233961
0 -0.000382401 -0.000227249 0 -0.000438828 -0.000230151
0 -0.00039866 -0.000224456 0 -0.000455748 -0.000226775
0 -0.000412361 -0.000222231 0 -0.000469995 -0.000224063
0 -0.000423145 -0.000220755 0 -0.000481201 -0.000222205
0 -0.000430721 -0.000220162 0 -0.000489066 -0.000221351
0 -0.000434878 -0.00022054 0 -0.000493368 -0.000221599
0 -0.000435449 -0.000221936 0 -0.000493923 -0.000223001
0 -0.000432364 -0.000224342 0 -0.000490652 -0.000225557
0 -0.000425668 -0.000227693 0 -0.00048361 -0.000229194
0 -0.000415501 -0.000231871 0 -0.000472942 -0.000233791
0 -0.000402094 -0.00023671 0 -0.00045889 -0.00023917
0 -0.000385778 -0.000241998 0 -0.000441809 -0.000245105
0 -0.000366997 -0.00024748 0 -0.000422161 -0.00025132
0 -0.000346298 -0.000252866 0 -0.000400513 -0.000257506
0 -0.000324301 -0.000257844 0 -0.00037751 -0.000263325
0 -0.000301667 -0.000262091 0 -0.000353837 -0.000268427
0 -0.000279053 -0.00026528 0 -0.000330177 -0.000272453
0 -0.000257081 -0.000267111 0 -0.000307172 -0.000275079
0 -0.000236306 -0.000267318 0 -0.000285401 -0.000276014
0 -0.000217204 -0.000265672 0 -0.000265359 -0.000275012
0 -0.000200172 -0.000261994 0 -0.00024746 -0.000271876
0 -0.000185526 -0.000256157 0 -0.000232036 -0.000266465
0 -0.000173497 -0.000248091 0 -0.000219326 -0.000258702
0 -0.000164227 -0.000237786 0 -0.000209481 -0.000248569
0 -0.000157771 -0.000225292 0 -0.000202557 -0.000236118
0 -0.000154097 -0.000210721 0 -0.000198521 -0.000221462
0 -0.000153083 -0.000194243 0 -0.000197244 -0.000204778
0 -0.000154524 -0.000176083 0 -0.000198511 -0.000186303
0 -0.000158135 -0.000156515 0 -0.000202024 -0.000166326
0 -0.000163561 -0.000135858 0 -0.000207411 -0.000145184
0 -0.000170387 -0.000114465 0 -0.000214237 -0.00012325
0 -0.000178149 -9.27134e-05 0 -0.000222018 -0.000100924
0 -0.000186346 -7.09998e-05 0 -0.000230229 -7.86273e-05
0 -0.00019445 -4.97246e-05 0 -0.000238322 -5.67844e-05
0 -0.000201923 -2.9284e-05 0 -0.000245733 -3.58169e-05
0 -0.000208227 -1.00583e-05 0 -0.000251903 -1.61295e-05
0 -0.000213675 1.17302e-05 0 -0.000257052 6.10885e-06
0 -0.000215563 3.04121e-05 0 -0.000258465 2.50432e-05
0 -0.000213108 4.50537e-05 0 -0.000255273 3.94903e-05
0 -0.00020589 5.59797e-05 0 -0.000247164 5.01771e-05
0 -0.000193759 6.30299e-05 0 -0.000233892 5.67431e-05
0 -0.000176824 6.62386e-05 0 -0.00021561 5.92583e-05
0 -0.000155446 6.579e-05 0 -0.000192677 5.7917e-05
0 -0.000130142 6.20105e-05 0 -0.000165637 5.30491e-05
0 -0.00010156 5.53051e-05 0 -0.000135164 4.5114e-05
0 -7.04887e-05 4.61666e-05 0 -0.000102078 3.46054e-05
0 -3.75284e-05 3.54319e-05 0 -6.17583e-05 2.11947e-05
0 -6.33678e-08 2.29012e-05 0 -2.38543e-05 7.3387e-06
0 3.4908e-05 1.01808e-05 0 1.30148e-05 -6.6816e-06
0 6.79009e-05 -1.95714e-06 0 4.8099e-05 -2.03078e-05
0 9.82658e-05 -1.28383e-05 0 8.02565e-05 -3.25978e-05
0 0.000125202 -2.18027e-05 0 0.000108868 -4.27831e-05
0 0.000147774 -2.82869e-05 0 0.00013321 -5.04057e-05
0 0.000165698 -3.1942e-05 0 0.000152803 -5.49654e-05
0 0.000178702 -3.24581e-05 0 0.000167287 -5.6187e-05
0 0.000186584 -2.96794e-05 0 0.000176623 -5.39541e-05
0 0.000189528 -2.36678e-05 0 0.000180882 -4.82639e-05
0 0.000187834 -1.46196e-05 0 0.000180353 -3.92936e-05
0 0.00018193 -3.09315e-06 0 0.000175526 -2.77662e-05
0 0.000172362 1.07972e-05 0 0.000166928 -1.37275e-05
0 0.000159795 2.65495e-05 0 0.000155232 2.2611e-06
0 0.000144969 4.36168e-05 0 0.000141215 1.96755e-05
0 0.000128731 6.13958e-05 0 0.000125729 3.7847e-05
0 0.000111973 7.92385e-05 0 0.000109687 5.61019e-05
0 9.56002e-05 9.64853e-05 0 9.40162e-05 7.37602e-05
0 8.05025e-05 0.000112513 0 7.96188e-05 9.01528e-05
0 6.75059e-05 0.000126744 0 6.73352e-05 0.000104669
0 5.73375e-05 0.000138667 0 5.79058e-05 0.000116773
0 5.05974e-05 0.000147861 0 5.19407e-05 0.00012603
0 4.77334e-05 0.000154025 0 4.98983e-05 0.000132113
0 4.90276e-05 0.000156975 0 5.20697e-05 0.000134827
0 5.45882e-05 0.000156653 0 5.85687e-05 0.00013411
0 6.43574e-05 0.0001531 0 6.93408e-05 0.000130002
0 7.81327e-05 0.000146474 0 8.41868e-05 0.000122652
0 9.55877e-05 0.000137102 0 0.000102766 0.000112406
0 0.000116276 0.000125413 0 0.000124617 9.97172e-05
0 0.000139636 0.000111933 0 0.000149158 8.51376e-05
0 0.000165001 9.72669e-05 0 0.0001757 6.93023e-05
0 0.000191618 8.20737e-05 0 0.000203466 5.29048e-05
0 0.000218664 6.70432e-05 0 0.000231613 3.66726e-05
0 0.000245272 5.2873e-05 0 0.000259258 2.13402e-05
0 0.000270553 4.02416e-05 0 0.000285498 7.62109e-06
0 0.000293634 2.97787e-05 0 0.000309455 -3.82117e-06
0 0.000313708 2.20368e-05 0 0.000330321 -1.24036e-05
0 0.000330092 1.7465e-05 0 0.000347413 -1.76527e-05
0 0.000342271 1.63864e-05 0 0.000360217 -1.92277e-05
0 0.000349923 1.89824e-05 0 0.000368415 -1.69361e-05
0 0.000352947 2.52832e-05 0 0.000371903 -1.0744e-05
0 0.000351461 3.5167e-05 0 0.000370798 -7.77476e-07
0 0.000345775 4.83682e-05 0 0.000365411 1.26854e-05
0 0.000336378 6.44887e-05 0 0.000356231 2.92278e-05
0 0.000323874 8.30193e-05 0 0.000343812 4.83287e-05
0 0.00030901 0.000103011 0 0.000328909 6.91177e-05
0 0.00029259 0.000123941 0 0.000312445 9.05748e-05
0 0.000275509 0.000145312 0 0.000295179 0.000112639
0 0.000259867 0.000166242 0 0.000278486 0.000134463
0 0.000245738 0.000186268 0 0.00026449 0.000155018
0 0.000232843 0.000204956 0 0.000251394 0.000174281
0 0.000221744 0.000221685 0 0.000240075 0.000191469
0 0.000212909 0.000235983 0 0.000230945 0.000206268
0 0.000207023 0.000247501 0 0.000224696 0.000218151
0 0.000205412 0.000255818 0 0.000222886 0.000226648
0 0.000208179 0.000260808 0 0.000225568 0.00023164
0 0.00021502 0.000262496 0 0.000232473 0.000233153
0 0.000225461 0.000261032 0 0.000243105 0.00023136
0 0.000238791 0.000256652 0 0.000256723 0.000226497
0 0.000254084 0.000249775 0 0.000272376 0.000219031
0 0.000270272 0.0002409 0 0.000288955 0.000209508
0 0.000286195 0.000230588 0 0.000305258 0.000198536
0 0.000300675 0.000219424 0 0.00032007 0.000186744
0 0.000312626 0.000207967 0 0.000332264 0.000174742
0 0.000321123 0.000196725 0 0.00034088 0.00016308
0 0.000325472 0.000186122 0 0.000345199 0.000152212
0 0.00032525 0.000176482 0 0.000344777 0.000142481
0 0.000320281 0.000168014 0 0.000339425 0.000134107
0 0.000310587 0.000160822 0 0.000329159 0.000127195
0 0.000296331 0.000154902 0 0.000314144 0.000121737
0 0.000277806 0.000150158 0 0.00029468 0.000117624
0 0.000255442 0.000146395 0 0.000271213 0.000114645
0 0.000229829 0.000143337 0 0.000244356 0.000112497
0 0.000201684 0.000140638 0 0.000214849 0.000110806
0 0.000171806 0.000137909 0 0.000183525 0.000109146
0 0.000141049 0.000134732 0 0.000151268 0.000107063
0 0.000110291 0.000130691 0 0.00011899 0.000104105
0 8.04099e-05 0.000125389 0 8.7598e-05 9.98379e-05
0 5.22121e-05 0.000118478 0 5.79283e-05 9.38807e-05
0 2.63435e-05 0.000109688 0 3.06497e-05 8.59349e-05
0 3.21791e-06 9.8844e-05 0 6.19275e-06 7.58098e-05
0 -1.67462e-05 8.58844e-05 0 -1.36775e-05 6.30843e-05
0 -3.91362e-05 7.13419e-05 0 -4.0303e-05 4.96236e-05
0 -6.03945e-05 5.45804e-05 0 -6.16782e-05 3.32637e-05
0 -7.8254e-05 3.57692e-05 0 -8.09501e-05 1.50535e-05
0 -9.26858e-05 1.5547e-05 0 -9.67252e-05 -4.79588e-06
0 -0.000104011 -6.27996e-06 0 -0.000109367 -2.63075e-05
0 -0.000112304 -2.96034e-05 0 -0.000118749 -4.92731e-05
0 -0.000117673 -5.39991e-05 0 -0.000125265 -7.35353e-05
0 -0.000120551 -7.90697e-05 0 -0.000129134 -9.85954e-05
0 -0.000121263 -0.000104446 0 -0.000130715 -0.000124012
0 -0.000120149 -0.000129637 0 -0.000130414 -0.000149274
0 -0.000117652 -0.000154088 0 -0.000128621 -0.000173896
0 -0.000114163 -0.000177327 0 -0.000125765 -0.000197341
0 -0.000110069 -0.000198895 0 -0.000122258 -0.000219095
0 -0.000105784 -0.000218303 0 -0.000118519 -0.000238683
0 -0.000101681 -0.000235111 0 -0.000114936 -0.000255662
0 -9.80707e-05 -0.000248962 0 -0.00011185 -0.000269636
0 -9.52144e-05 -0.000259552 0 -0.000109537 -0.000280277
0 -9.3322e-05 -0.000266633 0 -0.000108227 -0.000287338
0 -9.25646e-05 -0.000270033 0 -0.000108107 -0.000290643
0 -9.30909e-05 -0.000269658 0 -0.000109331 -0.000290086
0 -9.50228e-05 -0.000265411 0 -0.000112024 -0.00028553
0 -9.84098e-05 -0.000257374 0 -0.000116223 -0.000277077
0 -0.000103202 -0.000245726 0 -0.000121874 -0.000264911
0 -0.000109244 -0.000230745 0 -0.000128818 -0.000249316
0 -0.000116297 -0.00021279 0 -0.000136813 -0.000230661
0 -0.000124083 -0.000192286 0 -0.000145575 -0.00020939
0 -0.00013232 -0.000169709 0 -0.000154808 -0.000185998
0 -0.000140722 -0.000145577 0 -0.000164207 -0.000161023
0 -0.000148996 -0.000120437 0 -0.000173454 -0.000135031
0 -0.000156839 -9.48495e-05 0 -0.000182225 -0.000108606
0 -0.000163952 -6.93757e-05 0 -0.000190195 -8.23336e-05
0 -0.000170057 -4.45626e-05 0 -0.000197064 -5.67805e-05
0 -0.000174903 -2.09299e-05 0 -0.000202559 -3.24857e-05
0 -0.000178269 1.04332e-06 0 -0.000206437 -9.94623e-06
0 -0.000179967 2.09293e-05 0 -0.000208496 1.03941e-05
0 -0.000179824 3.81766e-05 0 -0.000208542 2.78649e-05
0 -0.000178024 5.24286e-05 0 -0.000206744 4.22202e-05
0 -0.000174593 6.38751e-05 0 -0.000203198 5.36683e-05
0 -0.000169322 7.22966e-05 0 -0.000197645 6.20168e-05
0 -0.000162001 7.7625e-05 0 -0.00018989 6.71318e-05
0 -0.00015252 7.98591e-05 0 -0.000179834 6.90233e-05
0 -0.000140904 7.90825e-05 0 -0.000167515 6.77816e-05
0 -0.000127325 7.5441e-05 0 -0.000153121 6.3577e-05
0 -0.000112123 6.91764e-05 0 -0.000137009 5.66318e-05
0 -9.57858e-05 6.06527e-05 0 -0.000119694 4.73389e-05
0 -7.89095e-05 5.02866e-05 0 -0.000101798 3.61522e-05
0 -6.2136e-05 3.85377e-05 0 -8.39911e-05 2.35654e-05
0 -4.60894e-05 2.58926e-05 0 -6.69224e-05 1.00859e-05
0 -3.13247e-05 1.28273e-05 0 -5.11744e-05 -3.78418e-06
0 -1.83117e-05 -1.98054e-07 0 -3.72403e-05 -1.7566e-05
0 -7.44814e-06 -1.2717e-05 0 -2.55483e-05 -3.06961e-05
0 9.54115e-07 -2.44284e-05 0 -1.64109e-05 -4.29777e-05
0 6.67326e-06 -3.50367e-05 0 -1.00792e-05 -5.40163e-05
0 9.58046e-06 -4.43082e-05 0 -6.67689e-06 -6.3606e-05
0 9.64132e-06 -5.20788e-05 0 -6.24558e-06 -7.1569e-05
0 6.90149e-06 -5.82612e-05 0 -8.73381e-06 -7.78286e-05
0 1.49143e-06 -6.2842e-05 0 -1.40012e-05 -8.23691e-05
0 -6.35374e-06 -6.58874e-05 0 -2.17982e-05 -8.52695e-05
0 -1.62756e-05 -6.75353e-05 0 -3.17442e-05 -8.66792e-05
0 -2.779e-05 -6.79908e-05 0 -4.33298e-05 -8.68292e-05
0 -4.02969e-05 -6.75155e-05 0 -5.5925e-05 -8.60052e-05
0 -5.31053e-05 -6.6413e-05 0 -6.88079e-05 -8.45394e-05
0 -6.48498e-05 -6.50523e-05 0 -7.94598e-05 -8.29771e-05
0 -7.10463e-05 -6.41597e-05 0 -8.49558e-05 -8.23595e-05
0 -7.59293e-05 -6.34101e-05 0 -8.8884e-05 -8.15647e-05
0 -7.86447e-05 -6.29816e-05 0 -9.09405e-05 -8.12886e-05
0 -7.90723e-05 -6.30028e-05 0 -9.03282e-05 -8.1494e-05
0 -7.72351e-05 -6.34089e-05 0 -8.76089e-05 -8.21952e-05
0 -7.25625e-05 -6.43103e-05 0 -8.18474e-05 -8.35153e-05
0 -6.48199e-05 -6.57302e-05 0 -7.3022e-05 -8.53883e-05
0 -5.40129e-05 -6.75355e-05 0 -6.11014e-05 -8.77553e-05
0 -4.03206e-05 -6.9536e-05 0 -4.62126e-05 -9.04271e-05
0 -2.40007e-05 -7.15349e-05 0 -2.86655e-05 -9.31744e-05
0 -5.43575e-06 -7.32752e-05 0 -8.84814e-06 -9.57004e-05
0 1.48545e-05 -7.46368e-05 0 1.27511e-05 -9.77348e-05
0 3.6431e-05 -7.50904e-05 0 3.56018e-05 -9.9052e-05
0 5.87556e-05 -7.43745e-05 0 5.91998e-05 -9.91749e-05
0 8.13112e-05 -7.21657e-05 0 8.29998e-05 -9.77905e-05
0 0.000103558 -6.81351e-05 0 0.000106448 -9.45429e-05
0 0.000124973 -6.2039e-05 0 0.00012902 -8.91896e-05
0 0.000145099 -5.38976e-05 0 0.00015023 -8.16575e-05
0 0.000163519 -4.36225e-05 0 0.000169715 -7.20664e-05
0 0.000179903 -3.09197e-05 0 0.000187051 -5.98906e-05
0 0.000194023 -1.58213e-05 0 0.000202059 -4.52109e-05
0 0.000205777 1.57894e-06 0 0.000214617 -2.81197e-05
0 0.00021516 2.11235e-05 0 0.000224717 -8.78721e-06
0 0.000222281 4.25587e-05 0 0.000232469 1.25348e-05
0 0.000227353 6.55572e-05 0 0.000238083 3.55179e-05
0 0.000230661 8.97409e-05 0 0.000241853 5.97652e-05
0 0.000232539 0.000114691 0 0.000244114 8.4839e-05
0 0.000233332 0.000139952 0 0.000245218 0.00011027
0 0.00023338 0.000165051 0 0.000245521 0.000135575
0 0.000233022 0.000189518 0 0.000245372 0.000160263
0 0.000232581 0.000212895 0 0.00024511 0.000183854
0 0.000232366 0.00023474 0 0.000245057 0.000205896
0 0.00023267 0.000254646 0 0.000245517 0.000225968
0 0.00023375 0.000272253 0 0.000246755 0.000243695
0 0.00023581 0.00028726 0 0.000248982 0.000258764
0 0.000239096 0.000298196 0 0.000252359 0.000270577
0 0.000243612 0.000304704 0 0.000257132 0.000277176
0 0.000249112 0.000308963 0 0.000262835 0.000281609
0 0.000255389 0.00031107 0 0.000269363 0.000283598
0 0.000262203 0.000311131 0 0.000276497 0.000283412
0 0.000269359 0.000309002 0 0.000283943 0.000280977
0 0.000276614 0.000304274 0 0.000291536 0.000275876
0 0.000283728 0.000297133 0 0.000299005 0.000268399
0 0.000290468 0.000287862 0 0.000306118 0.000258727
0 0.000296617 0.00027675 0 0.000312652 0.000247161
0 0.000302 0.00026405 0 0.000318406 0.000234029
0 0.00030647 0.000250058 0 0.000323216 0.000219646
0 0.000309888 0.000235105 0 0.000326934 0.000204313
0 0.000312207 0.0002195 0 0.000329532 0.000188333
0 0.000313414 0.000203533 0 0.000330979 0.000172023
0 0.000313249 0.000187519 0 0.00033097 0.000155737
0 0.000311453 0.000171773 0 0.000329248 0.000139782
0 0.000307788 0.000156575 0 0.000325561 0.000124445
0 0.000302073 0.000142161 0 0.000319724 0.000109982
0 0.000294218 0.000128716 0 0.000311644 9.65883e-05
0 0.000284246 0.000116371 0 0.000301343 8.43931e-05
0 0.000272298 0.000105197 0 0.00028897 7.34575e-05
0 0.000258642 9.52004e-05 0 0.0002748 6.3782e-05
0 0.000243657 8.63349e-05 0 0.000259224 5.53098e-05
0 0.000227809 7.85098e-05 0 0.000242718 4.79336e-05
0 0.000211619 7.16032e-05 0 0.000225821 4.15097e-05
0 0.00019562 6.54761e-05 0 0.000209079 3.58787e-05
0 0.000180267 5.99942e-05 0 0.000192959 3.08899e-05
0 0.00016587 5.50447e-05 0 0.000177781 2.64188e-05
0 0.000152588 5.05424e-05 0 0.00016371 2.23731e-05
0 0.000140458 4.64291e-05 0 0.00015079 1.86916e-05
0 0.000129425 4.26711e-05 0 0.000138968 1.53409e-05
0 0.000119368 3.92546e-05 0 0.000128125 1.23106e-05
0 0.000110116 3.6181e-05 0 0.000118091 9.6065e-06
0 0.000101472 3.34613e-05 0 0.000108665 7.245e-06
0 9.32301e-05 3.11097e-05 0 9.96435e-05 5.24614e-06
0 8.52052e-05 2.91368e-05 0 9.08368e-05 3.62645e-06
0 7.72566e-05 2.75428e-05 0 8.21033e-05 2.39084e-06
0 6.9306e-05 2.63145e-05 0 7.33634e-05 1.52787e-06
0 6.13188e-05 2.54266e-05 0 6.45817e-05 1.01198e-06
0 5.32494e-05 2.48486e-05 0 5.57113e-05 8.12543e-07
0 4.49928e-05 2.45495e-05 0 4.66458e-05 9.00853e-07
0 3.63768e-05 2.44925e-05 0 3.72122e-05 1.24852e-06
0 2.37424e-05 2.51394e-05 0 2.19391e-05 2.72477e-06
0 9.8446e-06 2.58526e-05 0 7.7968e-06 3.94947e-06
0 -3.54108e-06 2.63262e-05 0 -6.45179e-06 4.90933e-06
0 -1.63195e-05 2.64182e-05 0 -2.01869e-05 5.45334e-06
0 -2.84841e-05 2.58271e-05 0 -3.30584e-05 5.29291e-06
0 -3.96018e-05 2.44488e-05 0 -4.48151e-05 4.36645e-06
0 -4.94379e-05 2.22154e-05 0 -5.52468e-05 2.4879e-06
0 -5.78227e-05 1.90211e-05 0 -6.40478e-05 -4.51849e-07
0 -6.44752e-05 1.47649e-05 0 -7.1047e-05 -4.51324e-06
0 -6.92151e-05 9.42841e-06 0 -7.60362e-05 -9.73384e-06
0 -7.19236e-05 3.04478e-06 0 -7.88957e-05 -1.61047e-05
0 -7.25104e-05 -4.33059e-06 0 -7.95595e-05 -2.35507e-05
0 -7.09827e-05 -1.2586e-05 0 -7.80507e-05 -3.19488e-05
0 -6.74197e-05 -2.15503e-05 0 -7.44121e-05 -4.11376e-05
0 -6.20107e-05 -3.10049e-05 0 -6.88695e-05 -5.0889e-05
0 -5.50492e-05 -4.06949e-05 0 -6.17124e-05 -6.09329e-05
0 -4.68848e-05 -5.03368e-05 0 -5.32948e-05 -7.09687e-05
0 -3.78956e-05 -5.96261e-05 0 -4.40074e-05 -8.06782e-05
0 -2.84807e-05 -6.82535e-05 0 -3.42557e-05 -8.97393e-05
0 -1.90325e-05 -7.5921e-05 0 -2.444e-05 -9.78359e-05
0 -9.91006e-06 -8.23513e-05 0 -1.49332e-05 -0.000104673
0 -1.58787e-06 -8.72722e-05 0 -6.1701e-06 -0.000109979
0 5.72482e-06 -9.04926e-05 0 1.52795e-06 -0.000113515
0 1.19754e-05 -9.18638e-05 0 8.10194e-06 -0.00011514
0 1.71072e-05 -9.12094e-05 0 1.3488e-05 -0.000114657
0 2.10612e-05 -8.84768e-05 0 1.762e-05 -0.000112023
0 2.37689e-05 -8.36671e-05 0 2.04226e-05 -0.000107225
0 2.51509e-05 -7.68283e-05 0 2.1817e-05 -0.000100313
0 2.5146e-05 -6.80634e-05 0 2.17454e-05 -9.13908e-05
0 2.37553e-05 -5.7536e-05 0 2.02147e-05 -8.06253e-05
0 2.10837e-05 -4.54702e-05 0 1.73407e-05 -6.82483e-05
0 1.73533e-05 -3.21462e-05 0 1.33589e-05 -5.45539e-05
0 1.28549e-05 -1.79144e-05 0 8.58008e-06 -3.98878e-05
0 7.94346e-06 -3.10595e-06 0 3.36675e-06 -2.46217e-05
0 3.0067e-06 1.19034e-05 0 -1.86996e-06 -9.14911e-06
0 -1.50331e-06 2.64703e-05 0 -6.65397e-06 5.82464e-06
0 -5.19723e-06 4.05001e-05 0 -1.05907e-05 2.02662e-05
0 -7.68654e-06 5.36661e-05 0 -1.32776e-05 3.37653e-05
0 -8.64322e-06 6.56754e-05 0 -1.43804e-05 4.60433e-05
0 -7.82939e-06 7.62921e-05 0 -1.36528e-05 5.68289e-05
0 -5.0929e-06 8.53586e-05 0 -1.09369e-05 6.59772e-05
0 -4.09165e-07 9.27684e-05 0 -6.21278e-06 7.33722e-05
0 6.1161e-06 9.84863e-05 0 4.07999e-07 7.89925e-05
0 1.4256e-05 0.000102555 0 8.69123e-06 8.28859e-05
0 2.3686e-05 0.00010508 0 1.82934e-05 8.51687e-05
0 3.31902e-05 0.000106305 0 2.80507e-05 8.60853e-05
0 4.03886e-05 0.000106682 0 3.48669e-05 8.64545e-05
0 4.75202e-05 0.000105954 0 4.1657e-05 8.55359e-05
0 5.38046e-05 0.00010438 0 4.76989e-05 8.39366e-05
0 5.89303e-05 0.000102167 0 5.23897e-05 8.16016e-05
0 6.24961e-05 9.9407e-05 0 5.55963e-05 7.88184e-05
0 6.4225e-05 9.62542e-05 0 5.68768e-05 7.57005e-05
0 6.3864e-05 9.28641e-05 0 5.60904e-05 7.23732e-05
0 6.12577e-05 8.93076e-05 0 5.30347e-05 6.89181e-05
0 5.63401e-05 8.5604e-05 0 4.76853e-05 6.53873e-05
0 4.91405e-05 8.17619e-05 0 4.00678e-05 6.17718e-05
0 3.97978e-05 7.77505e-05 0 3.03417e-05 5.80155e-05
0 2.82105e-05 7.35244e-05 0 1.83136e-05 5.40907e-05
0 1.44824e-05 6.89622e-05 0 4.11379e-06 4.99168e-05
0 -7.52782e-07 6.38482e-05 0 -1.16717e-05 4.51245e-05
0 -1.68298e-05 5.80067e-05 0 -2.83159e-05 3.9636e-05
0 -3.30985e-05 5.10908e-05 0 -4.50173e-05 3.31535e-05
0 -4.87398e-05 4.30792e-05 0 -6.10252e-05 2.54642e-05
0 -6.29812e-05 3.37834e-05 0 -7.55661e-05 1.64032e-05
0 -7.51591e-05 2.3505e-05 0 -8.79646e-05 6.38248e-06
0 -8.46559e-05 1.17249e-05 0 -9.75498e-05 -5.34483e-06
0 -9.1056e-05 -1.51142e-06 0 -0.000103933 -1.86192e-05
0 -9.41352e-05 -1.61288e-05 0 -0.000106857 -3.33957e-05
0 -9.38192e-05 -3.19401e-05 0 -0.000106259 -4.9501e-05
0 -9.01718e-05 -4.86802e-05 0 -0.000102202 -6.66607e-05
0 -8.33875e-05 -6.60037e-05 0 -9.49007e-05 -8.45313e-05
0 -7.38147e-05 -8.35174e-05 0 -8.47196e-05 -0.000102679
0 -6.19622e-05 -0.000100755 0 -7.21931e-05 -0.000120614
0 -4.84724e-05 -0.000117204 0 -5.7989e-05 -0.000137807
0 -3.4059e-05 -0.000132343 0 -4.28504e-05 -0.000153701
0 -1.94543e-05 -0.000145662 0 -2.75409e-05 -0.000167747
0 -5.36784e-06 -0.000156678 0 -1.27991e-05 -0.000179429
0 7.54643e-06 -0.000164958 0 6.94409e-07 -0.00018829
0 1.87092e-05 -0.000170139 0 1.23365e-05 -0.000193944
0 2.76287e-05 -0.000171933 0 2.16164e-05 -0.000196082
0 3.3911e-05 -0.000170052 0 2.81195e-05 -0.000194378
0 3.7303e-05 -0.000164427 0 3.15879e-05 -0.000188766
0 3.77106e-05 -0.000155114 0 3.19258e-05 -0.000179294
0 3.52203e-05 -0.000142295 0 2.92263e-05 -0.000166155
0 3.01018e-05 -0.000126278 0 2.37717e-05 -0.000149667
0 2.27789e-05 -0.000107476 0 1.60054e-05 -0.000130267
0 1.37816e-05 -8.63905e-05 0 6.48159e-06 -0.000108486
0 3.69911e-06 -6.35888e-05 0 -4.18367e-06 -8.49224e-05
0 -6.83606e-06 -3.96881e-05 0 -1.53282e-05 -6.02242e-05
0 -1.71563e-05 -1.5331e-05 0 -2.62526e-05 -3.50677e-05
0 -2.65729e-05 8.67034e-06 0 -3.62362e-05 -1.03356e-05
0 -3.44241e-05 3.12158e-05 0 -4.45303e-05 1.28015e-05
0 -4.02578e-05 5.25506e-05 0 -5.0787e-05 3.46907e-05
0 -4.35319e-05 7.20595e-05 0 -5.37523e-05 5.45555e-05
0 -4.40759e-05 8.93826e-05 0 -5.44274e-05 7.22585e-05
0 -4.18983e-05 0.000104295 0 -5.22239e-05 8.7371e-05
0 -3.70656e-05 0.000116556 0 -4.72206e-05 9.96633e-05
0 -2.95096e-05 0.000126035 0 -3.93813e-05 0.000109052
0 -1.93365e-05 0.00013272 0 -2.88355e-05 0.000115494
0 -6.8922e-06 0.000136692 0 -1.58765e-05 0.00011909
0 7.60299e-06 0.000138075 0 -7.47448e-07 0.000119969
0 2.38276e-05 0.000137068 0 1.6115e-05 0.000118408
0 4.12848e-05 0.000133987 0 3.42788e-05 0.000114671
0 5.93427e-05 0.000129148 0 5.30842e-05 0.000109121
0 7.73105e-05 0.000122948 0 7.17799e-05 0.000102193
0 9.37144e-05 0.000115893 0 8.85096e-05 9.45415e-05
0 0.000108652 0.000108341 0 0.00010405 8.63599e-05
0 0.000121631 0.000100653 0 0.000117415 7.81352e-05
0 0.000132146 9.32053e-05 0 0.00012829 7.02147e-05
0 0.000139808 8.62885e-05 0 0.0001362 6.29312e-05
0 0.000144326 8.01487e-05 0 0.000140892 5.65488e-05
0 0.000145516 7.49749e-05 0 0.00014214 5.12477e-05
0 0.000143269 7.08746e-05 0 0.000139843 4.71444e-05
0 0.00013745 6.78873e-05 0 0.00013382 4.42976e-05
0 0.000128122 6.59658e-05 0 0.000124147 4.26641e-05
0 0.00011554 6.49787e-05 0 0.000111087 4.20924e-05
0 0.000100254 6.47016e-05 0 9.52102e-05 4.23384e-05
0 8.33137e-05 6.479e-05 0 7.77868e-05 4.29558e-05
0 6.47819e-05 6.50143e-05 0 5.86823e-05 4.38005e-05
0 4.54543e-05 6.50206e-05 0 3.87682e-05 4.4412e-05
0 2.60329e-05 6.44483e-05 0 1.87628e-05 4.44653e-05
0 7.24038e-06 6.29774e-05 0 -5.95848e-07 4.35718e-05
0 -1.02469e-05 6.03016e-05 0 -1.86131e-05 4.1411e-05
0 -2.57738e-05 5.61414e-05 0 -3.4289e-05 3.75318e-05
0 -3.88171e-05 5.03087e-05 0 -4.76077e-05 3.18659e-05
0 -4.89685e-05 4.26056e-05 0 -5.80713e-05 2.43834e-05
0 -5.57909e-05 3.31123e-05 0 -6.50454e-05 1.49376e-05
0 -5.90683e-05 2.1914e-05 0 -6.83471e-05 3.62939e-06
0 -5.87946e-05 9.55749e-06 0 -6.80149e-05 -8.91738e-06
0 -5.51049e-05 -4.10517e-06 0 -6.41395e-05 -2.29666e-05
0 -5.05299e-05 -1.83227e-05 0 -5.8774e-05 -3.78149e-05
0 -4.40115e-05 -3.32684e-05 0 -5.25935e-05 -5.29318e-05
0 -3.56628e-05 -4.83198e-05 0 -4.44289e-05 -6.83096e-05
0 -2.5965e-05 -6.30555e-05 0 -3.49346e-05 -8.34871e-05
0 -1.54648e-05 -7.70575e-05 0 -2.46352e-05 -9.79045e-05
0 -4.79444e-06 -8.99102e-05 0 -1.43178e-05 -0.000111121
0 5.28106e-06 -0.000101138 0 -4.60337e-06 -0.000122643
0 1.40593e-05 -0.000110299 0 3.73445e-06 -0.000132053
0 2.08903e-05 -0.000117057 0 1.00752e-05 -0.000138967
0 2.51886e-05 -0.000121144 0 1.38386e-05 -0.000143083
0 2.65094e-05 -0.000122365 0 1.45981e-05 -0.000144211
0 2.4594e-05 -0.0001206 0 1.20945e-05 -0.000142233
0 1.93876e-05 -0.000115856 0 6.28157e-06 -0.00013714
0 1.10304e-05 -0.000108308 0 -2.69469e-06 -0.000129111
0 -1.73143e-07 -9.82276e-05 0 -1.45291e-05 -0.000118437
0 -1.37818e-05 -8.59883e-05 0 -2.87716e-05 -0.000105515
0 -2.92357e-05 -7.20555e-05 0 -4.48997e-05 -9.08225e-05
0 -4.6121e-05 -5.69303e-05 0 -6.25905e-05 -7.48403e-05
0 -6.36123e-05 -4.11965e-05 0 -8.08962e-05 -5.82245e-05
0 -8.07721e-05 -2.54668e-05 0 -9.884e-05 -4.16229e-05
0 -9.66577e-05 -1.03453e-05 0 -0.000115467 -2.56866e-05
0 -0.00011041 3.59898e-06 0 -0.000129876 -1.10197e-05
0 -0.000121287 1.58662e-05 0 -0.000141301 1.84719e-06
0 -0.000128729 2.60543e-05 0 -0.000149166 1.24848e-05
0 -0.000132398 3.38091e-05 0 -0.000153103 2.04056e-05
0 -0.00013363 3.91866e-05 0 -0.000153418 2.56395e-05
0 -0.00013163 4.19793e-05 0 -0.000151911 2.86153e-05
0 -0.000126379 4.23147e-05 0 -0.000146966 2.88615e-05
0 -0.00011824 4.02906e-05 0 -0.000138909 2.66788e-05
0 -0.000107533 3.61033e-05 0 -0.00012828 2.21515e-05
0 -9.47137e-05 2.99929e-05 0 -0.000115505 1.56533e-05
0 -8.04746e-05 2.24236e-05 0 -0.000101262 7.59118e-06
0 -6.54943e-05 1.38196e-05 0 -8.62381e-05 -1.51055e-06
0 -5.04714e-05 4.58629e-06 0 -7.11859e-05 -1.12663e-05
0 -3.61388e-05 -4.84234e-06 0 -5.68225e-05 -2.11886e-05
0 -2.31676e-05 -1.40341e-05 0 -4.38372e-05 -3.08265e-05
0 -1.21579e-05 -2.2581e-05 0 -3.28593e-05 -3.97592e-05
0 -3.63281e-06 -3.01315e-05 0 -2.44177e-05 -4.76118e-05
0 2.00105e-06 -3.64033e-05 0 -1.89362e-05 -5.4077e-05
0 4.45816e-06 -4.11861e-05 0 -1.6715e-05 -5.89307e-05
0 3.57474e-06 -4.4347e-05 0 -1.79223e-05 -6.20372e-05
0 -6.45454e-07 -4.58484e-05 0 -2.25859e-05 -6.33554e-05
0 -7.94574e-06 -4.57745e-05 0 -3.05663e-05 -6.29323e-05
0 -1.81875e-05 -4.42156e-05 0 -4.12412e-05 -6.09889e-05
0 -3.10964e-05 -4.13673e-05 0 -5.46823e-05 -5.76533e-05
0 -4.6254e-05 -3.74897e-05 0 -7.0418e-05 -5.32181e-05
0 -6.32464e-05 -3.29085e-05 0 -8.80736e-05 -4.79914e-05
0 -8.18012e-05 -2.79533e-05 0 -0.000107401 -4.23216e-05
0 -0.000101369 -2.30248e-05 0 -0.000127755 -3.66504e-05
0 -0.000121282 -1.85481e-05 0 -0.000148445 -3.14287e-05
0 -0.000140768 -1.49563e-05 0 -0.000168669 -2.71252e-05
0 -0.000159013 -1.26663e-05 0 -0.000187579 -2.41927e-05
0 -0.000175255 -1.20497e-05 0 -0.000204385 -2.30342e-05
0 -0.000188879 -1.33151e-05 0 -0.000218445 -2.39113e-05
0 -0.000199421 -1.67195e-05 0 -0.000229293 -2.70229e-05
0 -0.000206524 -2.23921e-05 0 -0.000236527 -3.25698e-05
0 -0.000209923 -3.03614e-05 0 -0.000239866 -4.05871e-05
0 -0.000209572 -4.05478e-05 0 -0.000239254 -5.09919e-05
0 -0.000205586 -5.27647e-05 0 -0.000234805 -6.35934e-05
0 -0.000198209 -6.67357e-05 0 -0.000226777 -7.81033e-05
0 -0.000187773 -8.21031e-05 0 -0.000215515 -9.41447e-05
0 -0.00017466 -9.84459e-05 0 -0.000201418 -0.000111278
0 -0.000159271 -0.000115293 0 -0.000184915 -0.000129009
0 -0.00014204 -0.000132138 0 -0.000166464 -0.000146807
0 -0.000123439 -0.000148447 0 -0.000146569 -0.000164114
0 -0.000103969 -0.000163681 0 -0.000125764 -0.000180362
0 -8.41269e-05 -0.000177311 0 -0.000104577 -0.000194993
0 -6.43738e-05 -0.000188836 0 -8.35004e-05 -0.000207482
0 -4.51397e-05 -0.000197797 0 -6.29945e-05 -0.000217344
0 -2.68467e-05 -0.000203786 0 -4.35089e-05 -0.00022415
0 -9.91898e-06 -0.000206417 0 -2.54916e-05 -0.000227496
0 5.24746e-06 -0.000205383 0 -9.36445e-06 -0.000227039
0 1.82975e-05 -0.000200507 0 4.48982e-06 -0.00022259
0 2.8502e-05 -0.000191652 0 1.50558e-05 -0.000213904
0 3.80294e-05 -0.000179114 0 2.66495e-05 -0.000201869
0 4.59328e-05 -0.000162886 0 3.46245e-05 -0.000185632
0 5.13497e-05 -0.000143144 0 4.04478e-05 -0.00016582
0 5.43078e-05 -0.000120166 0 4.37181e-05 -0.000142612
0 5.51561e-05 -9.44716e-05 0 4.47926e-05 -0.000116457
0 5.41442e-05 -6.64159e-05 0 4.38409e-05 -8.78743e-05
0 5.15207e-05 -3.65906e-05 0 4.12955e-05 -5.75045e-05
0 4.78262e-05 -6.77419e-06 0 3.75678e-05 -2.72073e-05
0 4.32544e-05 2.34964e-05 0 3.3001e-05 3.6693e-06
0 3.81811e-05 5.37221e-05 0 2.79364e-05 3.43295e-05
0 3.30144e-05 8.32471e-05 0 2.28062e-05 6.44362e-05
0 2.81834e-05 0.000111559 0 1.80724e-05 9.32625e-05
0 2.41485e-05 0.00013809 0 1.42196e-05 0.000120199
0 2.14142e-05 0.000162279 0 1.17547e-05 0.000144726
0 2.04561e-05 0.000183612 0 1.11573e-05 0.00016631
0 2.16758e-05 0.000201718 0 1.28442e-05 0.000184527
0 2.53877e-05 0.00021628 0 1.71176e-05 0.000199048
0 3.17921e-05 0.000227069 0 2.41737e-05 0.000209661
0 4.09633e-05 0.000233973 0 3.4084e-05 0.000216261
0 5.28343e-05 0.000237019 0 4.67724e-05 0.00021885
0 6.7176e-05 0.000236334 0 6.20016e-05 0.000217567
0 8.35989e-05 0.000232117 0 7.93745e-05 0.000212642
0 0.000101588 0.000224606 0 9.83779e-05 0.000204312
0 0.000120536 0.00021424 0 0.000118392 0.000193044
0 0.000139797 0.000201509 0 0.000138765 0.000179348
0 0.000158726 0.000186941 0 0.000158838 0.000163789
0 0.000176688 0.000171091 0 0.000177962 0.000146949
0 0.000193082 0.000154519 0 0.000195524 0.000129409
0 0.000207397 0.000137753 0 0.000210998 0.000111726
0 0.000219253 0.000121279 0 0.000223984 9.4408e-05
0 0.000228406 0.000105526 0 0.00023422 7.79021e-05
0 0.000234736 9.08591e-05 0 0.000241568 6.2585e-05
0 0.000238229 7.7571e-05 0 0.000245993 4.87596e-05
0 0.000238945 6.58838e-05 0 0.000247546 3.66541e-05
0 0.00023699 5.59523e-05 0 0.000246329 2.64228e-05
0 0.000232508 4.78623e-05 0 0.000242488 1.81482e-05
0 0.000225697 4.16276e-05 0 0.000236235 1.1838e-05
0 0.000216841 3.71912e-05 0 0.000227867 7.42369e-06
0 0.000206318 3.44283e-05 0 0.000217775 4.76519e-06
0 0.000194605 3.31522e-05 0 0.000206454 3.65729e-06
0 0.000182276 3.31249e-05 0 0.000194485 3.84166e-06
0 0.000169958 3.40745e-05 0 0.000182507 5.02407e-06
0 0.000158296 3.57142e-05 0 0.000171169 6.89485e-06
0 0.000147908 3.77597e-05 0 0.000161095 9.1485e-06
0 0.000139363 3.99462e-05 0 0.00015286 1.15011e-05
0 0.000133157 4.2044e-05 0 0.000146962 1.37062e-05
0 0.000129695 4.38712e-05 0 0.000143808 1.55686e-05
0 0.000129267 4.53049e-05 0 0.000143684 1.69566e-05
0 0.000132025 4.62895e-05 0 0.000146742 1.78108e-05
0 0.000137978 4.68411e-05 0 0.000152984 1.81484e-05
0 0.000147061 4.70401e-05 0 0.000162366 1.80524e-05
0 0.000159645 4.69531e-05 0 0.000175375 1.75508e-05
0 0.000175271 4.68427e-05 0 0.000191496 1.69229e-05
0 0.000193196 4.70208e-05 0 0.000209953 1.65036e-05
0 0.000212489 4.7844e-05 0 0.000229802 1.67106e-05
0 0.000232156 4.97019e-05 0 0.000250005 1.79649e-05
0 0.000251193 5.29759e-05 0 0.000269513 2.06838e-05
0 0.000268686 5.79924e-05 0 0.000287384 2.5233e-05
0 0.00028384 6.50116e-05 0 0.000302788 3.19122e-05
0 0.000296005 7.42167e-05 0 0.000315053 4.09253e-05
0 0.000304723 8.56891e-05 0 0.000323703 5.23687e-05
0 0.000309729 9.93988e-05 0 0.000328459 6.62247e-05
0 0.000310915 0.000115212 0 0.000329206 8.23626e-05
0 0.000308315 0.000132896 0 0.000325977 0.000100543
0 0.000302086 0.000152123 0 0.000318933 0.000120428
0 0.000292461 0.000172488 0 0.000308317 0.000141598
0 0.000279719 0.000193324 0 0.000294405 0.000163499
0 0.000264142 0.000213795 0 0.00027758 0.000184834
0 0.000245952 0.000233995 0 0.000257941 0.000206167
0 0.000225409 0.000253344 0 0.000235883 0.000226697
0 0.000202882 0.000271289 0 0.000211742 0.000245853
0 0.000178791 0.000287276 0 0.00018598 0.000263077
0 0.00015365 0.000300735 0 0.00015913 0.000277774
0 0.000128013 0.000311124 0 0.000131778 0.000289382
0 0.000101766 0.000317988 0 0.000102163 0.000297634
0 6.97811e-05 0.000321363 0 6.7729e-05 0.000302864
0 3.97545e-05 0.000320048 0 3.62651e-05 0.000302492
0 1.2155e-05 0.000313575 0 7.16826e-06 0.000296951
0 -1.25395e-05 0.000301682 0 -1.92806e-05 0.000285884
0 -3.44706e-05 0.000284301 0 -4.26016e-05 0.000269133
0 -5.29833e-05 0.00026143 0 -6.24726e-05 0.000246748
0 -6.79671e-05 0.000233334 0 -7.88862e-05 0.000218929
0 -7.97046e-05 0.000200342 0 -9.18347e-05 0.00018581
0 -8.83129e-05 0.000162649 0 -0.000101581 0.000148054
0 -9.40584e-05 0.000121167 0 -0.000108421 0.000106337
0 -9.74165e-05 7.67021e-05 0 -0.000112728 6.14598e-05
0 -9.89524e-05 3.12986e-05 0 -0.000115101 1.52741e-05
0 -9.90246e-05 -1.47734e-05 0 -0.000116218 -3.08935e-05
0 -9.82084e-05 -6.13013e-05 0 -0.000116228 -7.78134e-05
0 -9.69101e-05 -0.000107484 0 -0.000115846 -0.000124537
0 -9.5687e-05 -0.000152568 0 -0.000115599 -0.000170037
0 -9.50771e-05 -0.000195715 0 -0.00011604 -0.000213511
0 -9.5609e-05 -0.000236118 0 -0.000117741 -0.000254216
0 -9.78024e-05 -0.000273059 0 -0.000121233 -0.000291334
0 -0.000102123 -0.000305946 0 -0.000127012 -0.000324248
0 -0.000108951 -0.000334241 0 -0.000135455 -0.00035237
0 -0.000118899 -0.000354203 0 -0.000147067 -0.000372694
0 -0.000131737 -0.000367349 0 -0.000162304 -0.000383707
0 -0.000147435 -0.000376563 0 -0.000179971 -0.000392294
0 -0.000165599 -0.000381638 0 -0.000200566 -0.000396209
0 -0.000186192 -0.000383034 0 -0.000223602 -0.000396398
0 -0.00020884 -0.000380708 0 -0.00024882 -0.000392755
0 -0.000233181 -0.000374911 0 -0.000275789 -0.00038577
0 -0.000258813 -0.000365328 0 -0.000304135 -0.000374819
0 -0.000285176 -0.000352352 0 -0.000333282 -0.000360367
0 -0.000311615 -0.000336623 0 -0.000362552 -0.000343015
0 -0.000338678 -0.000318585 0 -0.000391947 -0.000323475
0 -0.000369954 -0.000298334 0 -0.000426634 -0.000301349
0 -0.000398442 -0.000277666 0 -0.000457926 -0.00027907
0 -0.000422941 -0.000257421 0 -0.0004863 -0.000256776
0 1.12234e-05 -0.000313578 0 -0.000393584 -0.000248451
0 0.00027562 -0.000340209 0 0.000320066 -0.000391071
0 0.000207058 -0.000293348 0 0.000203357 -0.000296878
0 0.000159438 -0.000248587 0 0.000181039 -0.000291533
0 0.00022877 -0.00023732 0 0.000164608 -0.000236759
0 0.000237581 -0.000194097 0 0.00016751 -0.00019614
0 0.000209251 -0.000139089 0 0.00017824 -0.000158548
0 0.000229609 -0.000100433 0 0.000171661 -0.000106611
0 0.000235912 -5.656e-05 0 0.000164427 -5.48645e-05
0 0.000210484 -1.36757e-06 0 0.000152403 -4.68776e-06
0 0.000199224 4.88228e-05 0 0.00013612 4.65854e-05
0 0.000193231 9.41301e-05 0 0.000126526 6.99458e-05
0 0.000182105 0.000122327 0 0.00011312 9.25355e-05
0 0.000163885 0.000144442 0 0.000102089 0.000115338
0 0.000153677 0.000161849 0 8.51447e-05 0.000134825
0 0.000140274 0.000177279 0 6.80753e-05 0.000151584
0 0.000119699 0.000191211 0 4.87426e-05 0.000163393
0 0.000100522 0.000199847 0 2.84364e-05 0.000172473
0 8.22334e-05 0.000203991 0 6.58781e-06 0.000178053
0 6.05617e-05 0.000205139 0 -1.57165e-05 0.00017913
0 3.80248e-05 0.000202257 0 -3.87298e-05 0.000175492
0 1.64843e-05 0.000194277 0 -6.22264e-05 0.000167879
0 -5.83013e-06 0.000181831 0 -8.5843e-05 0.000155771
0 -2.87861e-05 0.000165494 0 -0.00010931 0.000139133
0 -5.07968e-05 0.000145047 0 -0.000132359 0.000118328
0 -7.1759e-05 0.000120408 0 -0.000154428 9.3574e-05
0 -9.15771e-05 9.28712e-05 0 -0.000174857 6.59538e-05
0 -0.000109143 6.2216e-05 0 -0.000193089 3.4784e-05
0 -0.00012393 2.85733e-05 0 -0.000208711 8.39759e-07
0 -0.000135763 -6.05399e-06 0 -0.000221114 -3.2623e-05
0 -0.000144407 -3.70128e-05 0 -0.000227721 -4.39874e-05
0 -0.000150233 -6.90001e-05 0 -0.000235444 -6.24484e-05
0 -0.00012472 -7.3041e-05 0 -0.000213357 -5.22752e-05
0 -0.000105371 -3.18264e-05 0 1.81435e-05 0.000425294
0 -0.000117568 -6.34979e-05 0 -5.04861e-05 0.000281964
0 -0.000156781 -0.000105043 0 -6.35457e-05 0.000275124
0 -0.000160368 -0.000151067 0 -9.7928e-05 0.000229721
0 -0.000172965 -0.000187119 0 -0.000121239 0.000201001
0 -0.000199735 -0.00020766 0 -0.000143677 0.000178535
0 -0.0002198 -0.00023173 0 -0.0001593 0.00017486
0 -0.000235761 -0.00025721 0 -0.000179084 0.000163461
0 -0.000253586 -0.000278868 0 -0.000198583 0.000154433
0 -0.000264274 -0.000301735 0 -0.000218492 0.000149722
0 -0.000269791 -0.000328085 0 -0.000238127 0.000142077
0 -7.51793e-05 -1.07671e-05 0 -0.000167022 0.00024862
0 -9.77854e-05 0.000191274 0 -0.000217917 0.000153857
0 -9.86899e-05 0.000137124 0 -0.000256681 0.000152954
0 -0.00013354 3.12926e-05 0 -0.000294466 0.000154997
0 -0.000181925 3.05675e-05 0 -0.0003313 0.00012698
0 -0.000192484 9.31747e-05 0 -0.00035959 0.00012962
0 -0.000223341 8.6729e-05 0 -0.00038231 0.000136286
0 -0.000262261 4.43776e-05 0 -0.000413356 0.000140665
0 -0.000288915 4.41938e-05 0 -0.000440363 0.000146357
0 -0.000319348 0.000112534 0 -0.000474605 0.000249063
0 -0.000340867 0.000102529 0 -0.000463649 0.000178274
0 -0.000361039 6.98487e-05 0 -0.000486162 0.000197058
0 -0.000381834 5.08351e-05 0 -0.000503959 0.000177746
0 -0.000397945 4.9528e-05 0 -0.000518704 0.000169658
0 -0.000411097 4.03339e-05 0 -0.000528853 0.000151314
0 -0.00042347 1.3238e-05 0 -0.000539317 0.000133391
0 -0.000434164 -1.423e-05 0 -0.00054761 0.000112764
0 -0.000440015 -3.47486e-05 0 -0.000552945 8.69906e-05
0 -0.000442921 -5.84813e-05 0 -0.000555792 5.88504e-05
0 -0.000444523 -9.16384e-05 0 -0.0005563 2.8178e-05
0 -0.000444246 -0.000128204 0 -0.000554706 -4.08123e-06
0 -0.000441616 -0.000162062 0 -0.000551121 -3.91925e-05
0 -0.000437172 -0.000195689 0 -0.00054565 -7.53462e-05
0 -0.000445777 -0.000146061 0 -0.000548882 -8.73044e-05
0 -0.000442789 -0.000193601 0 -0.000535199 -0.000143395
0 -0.000435266 -0.000244016 0 -0.000523772 -0.000186452
0 -0.000422212 -0.000279233 0 -0.000515625 -0.000218684
0 -0.000413592 -0.000310411 0 -0.000503694 -0.000240084
0 -0.000405021 -0.000341954 0 -0.000493233 -0.000260894
0 -0.000396906 -0.000371268 0 -0.00048437 -0.000291368
0 -0.000388159 -0.000392608 0 -0.000474189 -0.000315997
0 -0.000378208 -0.000409918 0 -0.000463709 -0.000336397
0 -0.000371914 -0.000430156 0 -0.000463507 -0.000359576
0 -0.000367435 -0.000455602 0 -0.000466929 -0.000376032
0 -0.000363059 -0.000478698 0 -0.000466979 -0.000390086
0 -0.000365578 -0.000491985 0 -0.000471653 -0.000406613
0 -0.000373559 -0.000498874 0 -0.000473821 -0.000421468
0 -0.00037991 -0.000509161 0 -0.00047853 -0.000432317
0 -0.000384476 -0.000524254 0 -0.000482698 -0.000441933
0 -0.000391563 -0.000536015 0 -0.000487402 -0.000451791
0 -0.000399237 -0.00054049 0 -0.000492044 -0.000459794
0 -0.00040561 -0.000542734 0 -0.000497011 -0.00046571
0 -0.00041236 -0.000548003 0 -0.000502069 -0.000470841
0 -0.000419705 -0.000554659 0 -0.000506976 -0.000474923
0 -0.000426391 -0.000557897 0 -0.000511897 -0.000477458
0 -0.000432602 -0.000557036 0 -0.000516386 -0.000479153
0 -0.000438578 -0.000555492 0 -0.000520243 -0.000479563
0 -0.000443167 -0.000552401 0 -0.000523274 -0.0004754
0 -0.000445925 -0.000547142 0 -0.000525089 -0.000469557
0 -0.000448088 -0.00053883 0 -0.000525889 -0.000461732
0 -0.00044936 -0.000528197 0 -0.000525986 -0.000451789
0 -0.000449479 -0.00051605 0 -0.00052526 -0.000439573
0 -0.000448567 -0.000502325 0 -0.000523587 -0.000425314
0 -0.000446802 -0.000486813 0 -0.000521083 -0.000409452
0 -0.00044414 -0.000470967 0 -0.000517518 -0.000396654
0 -0.000440585 -0.000453814 0 -0.000513328 -0.000381449
0 -0.000435957 -0.000437106 0 -0.000508414 -0.00036555
0 -0.000430687 -0.000421004 0 -0.000502384 -0.000349201
0 -0.000424448 -0.000403559 0 -0.000495812 -0.000331795
0 -0.000417112 -0.00038515 0 -0.00048796 -0.000313649
0 -0.0004093 -0.000366921 0 -0.000479862 -0.000295856
0 -0.000401214 -0.000348895 0 -0.000473976 -0.000291066
0 -0.000392708 -0.000329817 0 -0.000466269 -0.000286571
0 -0.000384258 -0.000310215 0 -0.000459113 -0.000277727
0 -0.000375832 -0.000291522 0 -0.000451322 -0.00026675
0 -0.000369221 -0.000282467 0 -0.000443721 -0.000260067
0 -0.000362158 -0.000276601 0 -0.00043695 -0.000253231
0 -0.000355492 -0.000270711 0 -0.000429755 -0.000243165
0 -0.000349176 -0.0002614 0 -0.000422698 -0.000232598
0 -0.000342946 -0.000249011 0 -0.000415992 -0.00022419
0 -0.000336827 -0.000236792 0 -0.000409528 -0.000215634
0 -0.000330984 -0.000226797 0 -0.000402733 -0.000205036
0 -0.000325358 -0.000218114 0 -0.000394542 -0.000194392
0 -0.000319826 -0.000208469 0 -0.000386681 -0.000185128
0 -0.000314063 -0.000196909 0 -0.000378809 -0.000175602
0 -0.000306785 -0.000184894 0 -0.000370456 -0.000165134
0 -0.000299097 -0.000173791 0 -0.000362298 -0.000154863
0 -0.000291292 -0.000163894 0 -0.000353646 -0.00014513
0 -0.000283344 -0.000154138 0 -0.00034451 -0.0001352
0 -0.000274819 -0.000143694 0 -0.000335176 -0.000124951
0 -0.000265307 -0.000132774 0 -0.000325121 -0.000115078
0 -0.000254393 -0.00012226 0 -0.000313643 -0.000105819
0 -0.000241975 -0.000112646 0 -0.000300626 -9.68287e-05
0 -0.00022798 -0.000103734 0 -0.000286146 -8.79287e-05
0 -0.00021244 -9.49942e-05 0 -0.000270122 -7.9392e-05
0 -0.000195454 -8.61449e-05 0 -0.00025271 -7.13236e-05
0 -0.000177138 -7.73188e-05 0 -0.000234001 -6.34517e-05
0 -0.000157681 -6.87438e-05 0 -0.000214204 -5.55812e-05
0 -0.000137396 -6.03856e-05 0 -0.000193649 -4.77007e-05
0 -0.000116704 -5.19269e-05 0 -0.000172721 -3.97103e-05
0 -9.60372e-05 -4.30269e-05 0 -0.000151843 -3.13686e-05
0 -7.5817e-05 -3.35181e-05 0 -0.00013145 -2.2504e-05
0 -5.64607e-05 -2.33698e-05 0 -0.000111964 -1.30308e-05
0 -3.83711e-05 -1.25361e-05 0 -9.3776e-05 -2.79933e-06
0 -2.19083e-05 -8.86603e-07 0 -7.72282e-05 8.36953e-06
0 -7.42716e-06 1.18985e-05 0 -6.27443e-05 2.07222e-05
0 4.78286e-06 2.63778e-05 0 -5.04453e-05 3.49301e-05
0 1.45849e-05 4.26709e-05 0 -4.06843e-05 5.10668e-05
0 2.18756e-05 6.07473e-05 0 -3.34637e-05 6.89883e-05
0 2.66258e-05 8.0463e-05 0 -2.87696e-05 8.86e-05
0 2.89654e-05 0.000101629 0 -2.65143e-05 0.000109877
0 2.91032e-05 0.000124069 0 -2.65008e-05 0.000132545
0 2.72582e-05 0.000147595 0 -2.84999e-05 0.000156329
0 2.36958e-05 0.000171949 0 -3.22209e-05 0.000180979
0 1.87375e-05 0.00019679 0 -3.73573e-05 0.000206172
0 1.27266e-05 0.000221759 0 -4.35681e-05 0.000231549
0 5.97357e-06 0.000246526 0 -5.0539e-05 0.000256776
0 -1.24294e-06 0.000270787 0 -5.79752e-05 0.000281516
0 -8.64639e-06 0.000294234 0 -6.55974e-05 0.000305425
0 -1.5961e-05 0.000316546 0 -7.31325e-05 0.000328178
0 -2.28958e-05 0.000337396 0 -8.02768e-05 0.000349455
0 -2.91628e-05 0.000356484 0 -8.67421e-05 0.000368943
0 -3.45057e-05 0.000373546 0 -9.23035e-05 0.000386367
0 -3.87321e-05 0.000388363 0 -9.68138e-05 0.000401527
0 -4.17631e-05 0.000400779 0 -0.000100083 0.000414222
0 -4.34769e-05 0.00041065 0 -0.00010196 0.000424275
0 -4.37652e-05 0.000417862 0 -0.000102364 0.000431583
0 -4.25972e-05 0.000422356 0 -0.00010127 0.000436102
0 -4.00211e-05 0.00042413 0 -9.87048e-05 0.000437821
0 -3.61261e-05 0.000423236 0 -9.47636e-05 0.000436792
0 -3.09772e-05 0.000419393 0 -8.95374e-05 0.000432784
0 -2.46522e-05 0.000412481 0 -8.3006e-05 0.000425518
0 -1.73973e-05 0.00040279 0 -7.54785e-05 0.000415469
0 -9.53833e-06 0.000390611 0 -6.73402e-05 0.000402682
0 -1.48672e-06 0.00037616 0 -5.88842e-05 0.000387688
0 6.12057e-06 0.000359305 0 -5.08428e-05 0.000370206
0 1.29023e-05 0.000340245 0 -4.36487e-05 0.000350564
0 1.84567e-05 0.000319302 0 -3.76747e-05 0.000329112
0 2.23367e-05 0.000296883 0 -3.35425e-05 0.000306196
0 2.36827e-05 0.000273373 0 -3.30846e-05 0.000282514
0 2.20066e-05 0.000249164 0 -3.42766e-05 0.000257816
0 1.79094e-05 0.000224359 0 -3.77496e-05 0.000232493
0 1.19087e-05 0.000199064 0 -4.35519e-05 0.000206905
0 4.0439e-06 0.000173549 0 -5.12734e-05 0.00018111
0 -5.96942e-06 0.000149571 0 -6.09328e-05 0.000155903
0 -1.80213e-05 0.000132098 0 -7.29921e-05 0.00013973
0 -3.10242e-05 0.000113737 0 -8.57601e-05 0.000121121
0 -4.53565e-05 9.55006e-05 0 -0.000100154 0.000103038
0 -6.02517e-05 7.73506e-05 0 -0.000114977 8.5183e-05
0 -7.55862e-05 5.89078e-05 0 -0.000130066 6.68856e-05
0 -9.08507e-05 4.0233e-05 0 -0.00014542 4.86791e-05
0 -0.000105594 2.14436e-05 0 -0.000159957 3.01325e-05
0 -0.00011952 2.50966e-06 0 -0.000173804 1.13407e-05
0 -0.000131315 -1.67232e-05 0 -0.000181794 -8.58797e-06
0 -0.000136674 -3.69016e-05 0 -0.000186408 -2.92631e-05
0 -0.000140188 -5.77836e-05 0 -0.000190214 -4.97094e-05
0 -0.000143018 -7.86076e-05 0 -0.000192534 -7.07203e-05
0 -0.000145981 -9.91434e-05 0 -0.000193601 -9.16674e-05
0 -0.000147871 -0.000119544 0 -0.000193894 -0.000112683
0 -0.000148366 -0.000139936 0 -0.000194949 -0.000133003
0 -0.000148052 -0.000160097 0 -0.000194433 -0.000153284
0 -0.000147526 -0.000179723 0 -0.000193216 -0.000173138
0 -0.000146535 -0.000198766 0 -0.00019186 -0.000192371
0 -0.000144783 -0.000217124 0 -0.000189858 -0.00021097
0 -0.000142628 -0.000234655 0 -0.000187448 -0.000228737
0 -0.000140075 -0.000250789 0 -0.000184672 -0.00024547
0 -0.000137427 -0.000265567 0 -0.000181676 -0.000261081
0 -0.000134646 -0.000279267 0 -0.000178518 -0.000275673
0 -0.00013168 -0.000292244 0 -0.000175214 -0.000289015
0 -0.000128567 -0.000304217 0 -0.000171722 -0.000300916
0 -0.000125501 -0.000315112 0 -0.000168076 -0.000311527
0 -0.000122229 -0.000324563 0 -0.000164206 -0.000320581
0 -0.000118787 -0.000332528 0 -0.000160226 -0.000328067
0 -0.000115267 -0.000339034 0 -0.000156088 -0.000333862
0 -0.000111696 -0.000344045 0 -0.000151861 -0.000337897
0 -0.00010805 -0.000347428 0 -0.000147577 -0.000340115
0 -0.000104372 -0.000348787 0 -0.000143265 -0.000340189
0 -0.000100702 -0.000347792 0 -0.000138966 -0.000337625
0 -9.69873e-05 -0.000344567 0 -0.000134593 -0.000332577
0 -9.32137e-05 -0.000339204 0 -0.000130159 -0.000325014
0 -8.99947e-05 -0.000331634 0 -0.000126039 -0.000315186
0 -8.73608e-05 -0.000322399 0 -0.000122291 -0.00030586
0 -8.52436e-05 -0.000312229 0 -0.000119273 -0.000293701
0 -8.36182e-05 -0.000300467 0 -0.00011702 -0.000280132
0 -8.26612e-05 -0.00028686 0 -0.00011546 -0.000264491
0 -8.24407e-05 -0.000271483 0 -0.000114731 -0.000247034
0 -8.29516e-05 -0.00025446 0 -0.000114752 -0.000227843
0 -8.41733e-05 -0.0002358 0 -0.000115553 -0.000207029
0 -8.60654e-05 -0.000215583 0 -0.000117126 -0.000184714
0 -8.86063e-05 -0.000193965 0 -0.000119447 -0.000161048
0 -9.17915e-05 -0.000171135 0 -0.000122507 -0.000136167
0 -9.5612e-05 -0.00014726 0 -0.000126268 -0.000110252
0 -0.000100018 -0.000122487 0 -0.000130669 -8.34849e-05
0 -0.000104924 -9.69823e-05 0 -0.000135643 -5.60604e-05
0 -0.000110228 -7.09492e-05 0 -0.000141086 -2.81813e-05
0 -0.000115834 -4.46143e-05 0 -0.000146899 -5.56889e-08
0 -0.00012166 -1.81973e-05 0 -0.000152983 2.81004e-05
0 -0.000127621 8.0973e-06 0 -0.000159231 5.60676e-05
0 -0.000133626 3.40708e-05 0 -0.000165556 8.36319e-05
0 -0.000139583 5.95186e-05 0 -0.000171861 0.000110583
0 -0.000145399 8.4232e-05 0 -0.000178048 0.000136716
0 -0.000150995 0.000108011 0 -0.000184125 0.000161839
0 -0.000156333 0.000130681 0 -0.00019002 0.000185784
0 -0.0001595 0.000151757 0 -0.000195128 0.000208284
0 -0.000153031 0.000168555 0 -0.000193683 0.000228243
0 -0.00014357 0.000181931 0 -0.000183197 0.000244468
0 -0.000136921 0.000194227 0 -0.000177821 0.000260792
0 -0.000131984 0.000205639 0 -0.000170916 0.000274734
0 -0.00012549 0.000215923 0 -0.000163788 0.00028699
0 -0.00011812 0.000224617 0 -0.000157841 0.000297831
0 -0.000111925 0.000231886 0 -0.000151716 0.000306836
0 -0.000106888 0.000237842 0 -0.00014597 0.000314189
0 -0.000101815 0.000242497 0 -0.000140962 0.000319884
0 -9.68044e-05 0.000245874 0 -0.000136556 0.000323901
0 -9.28797e-05 0.000247609 0 -0.000132888 0.000326133
0 -9.00394e-05 0.000247334 0 -0.00012998 0.000326614
0 -8.78069e-05 0.000244643 0 -0.000127876 0.000324826
0 -8.62511e-05 0.000239815 0 -0.000126699 0.000320934
0 -8.56892e-05 0.000233115 0 -0.000126002 0.000314123
0 -8.62061e-05 0.000224479 0 -0.000126512 0.000305172
0 -8.76816e-05 0.000213794 0 -0.000127732 0.000294283
0 -9.00763e-05 0.000201154 0 -0.000130161 0.000281542
0 -9.35541e-05 0.000186779 0 -0.000133514 0.000267035
0 -9.81234e-05 0.000170852 0 -0.000137933 0.000250849
0 -0.000103675 0.000153433 0 -0.000143333 0.000233155
0 -0.000107544 0.000141447 0 -0.000149169 0.000216073
0 -0.000112879 0.000132976 0 -0.000156024 0.000198606
0 -0.000118949 0.000126639 0 -0.000163489 0.000179409
0 -0.000126144 0.000122865 0 -0.000172107 0.000164692
0 -0.000133636 0.000115329 0 -0.000182015 0.000150416
0 -0.000142112 0.000106734 0 -0.000191946 0.000134761
0 -0.000151137 9.94885e-05 0 -0.000202934 0.000119377
0 -0.000160033 9.37268e-05 0 -0.000210274 0.000113382
0 -0.000169077 8.69953e-05 0 -0.000219735 0.000108816
0 -0.00017824 7.81473e-05 0 -0.00022878 0.000100441
0 -0.00018778 6.8025e-05 0 -0.000237544 9.04098e-05
0 -0.000197501 5.79163e-05 0 -0.000247152 8.23456e-05
0 -0.00020712 4.79278e-05 0 -0.00025654 7.30599e-05
0 -0.000216834 3.73583e-05 0 -0.000265982 6.16958e-05
0 -0.000226502 2.55195e-05 0 -0.000275411 5.03412e-05
0 -0.000235652 1.2294e-05 0 -0.000283904 3.84951e-05
0 -0.000244276 -1.78663e-06 0 -0.000292367 2.51262e-05
0 -0.000252364 -1.63621e-05 0 -0.000300132 1.08691e-05
0 -0.000259785 -3.16496e-05 0 -0.000307052 -4.14564e-06
0 -0.00026653 -4.79851e-05 0 -0.000313511 -2.01431e-05
0 -0.000272754 -6.53467e-05 0 -0.000320391 -3.42383e-05
0 -0.000278705 -8.27771e-05 0 -0.000325409 -4.62203e-05
0 -0.00028364 -9.83257e-05 0 -0.000329921 -6.02376e-05
0 -0.000287788 -0.000113656 0 -0.000334123 -7.65976e-05
0 -0.000291034 -0.000129419 0 -0.000337091 -9.27887e-05
0 -0.000293942 -0.000146183 0 -0.000343907 -0.000107643
0 -0.000295558 -0.000164272 0 -0.000348201 -0.000122283
0 -0.000299338 -0.000182178 0 -0.000351686 -0.00013923
0 -0.000303399 -0.000199432 0 -0.000354911 -0.000156631
0 -0.000305972 -0.000216459 0 -0.000356008 -0.000173593
0 -0.000306606 -0.000234231 0 -0.000356922 -0.000190797
0 -0.000306522 -0.000252807 0 -0.000356566 -0.000208837
0 -0.000306205 -0.000271601 0 -0.000355429 -0.000227059
0 -0.00030495 -0.000290112 0 -0.000353411 -0.000244823
0 -0.00030255 -0.00030819 0 -0.000350683 -0.000262571
0 -0.000299581 -0.000325925 0 -0.000347429 -0.000280427
0 -0.000296354 -0.000343432 0 -0.000343605 -0.000297911
0 -0.000292675 -0.000360641 0 -0.000339366 -0.000314664
0 -0.000288486 -0.000377256 0 -0.000334808 -0.00033082
0 -0.000284039 -0.000392964 0 -0.000330024 -0.000346422
0 -0.000279514 -0.000407646 0 -0.000325077 -0.000361173
0 -0.000274901 -0.000421338 0 -0.000320062 -0.000374844
0 -0.000270254 -0.000434014 0 -0.000315131 -0.000387416
0 -0.000265772 -0.000445505 0 -0.000310401 -0.000398829
0 -0.00026162 -0.000455602 0 -0.000305981 -0.000408892
0 -0.000257877 -0.000464175 0 -0.000302004 -0.000417461
0 -0.000254649 -0.000471167 0 -0.000298613 -0.000424502
0 -0.000252115 -0.000476528 0 -0.000295963 -0.000429935
0 -0.00025047 -0.000480182 0 -0.000294207 -0.000433628
0 -0.000249784 -0.000481839 0 -0.000293456 -0.000435308
0 -0.000250169 -0.000481196 0 -0.000293777 -0.000434639
0 -0.000251804 -0.00047744 0 -0.000295433 -0.000430825
0 -0.000254618 -0.000470697 0 -0.000298201 -0.000423976
0 -0.000258444 -0.000461148 0 -0.000302166 -0.000414144
0 -0.000263102 -0.000448921 0 -0.000306956 -0.000401575
0 -0.000268364 -0.000434225 0 -0.000312375 -0.000386473
0 -0.000273856 -0.000418113 0 -0.000318003 -0.000370682
0 -0.000279442 -0.000400868 0 -0.000323312 -0.000356337
0 -0.000284498 -0.000383692 0 -0.000328752 -0.00033903
0 -0.000289127 -0.000366488 0 -0.00033362 -0.000321694
0 -0.000293194 -0.00034818 0 -0.000337907 -0.000302934
0 -0.000296362 -0.000328979 0 -0.000341413 -0.000283378
0 -0.000298516 -0.000309082 0 -0.0003438 -0.000263126
0 -0.000299499 -0.00028853 0 -0.000344976 -0.000242313
0 -0.000299183 -0.000267543 0 -0.000344826 -0.00022121
0 -0.000297459 -0.000246317 0 -0.000343294 -0.000199889
0 -0.000294611 -0.000225341 0 -0.000340674 -0.000178992
0 -0.000291021 -0.000204874 0 -0.000339809 -0.000163692
0 -0.000286229 -0.000184427 0 -0.000337283 -0.000147157
0 -0.000280094 -0.000164329 0 -0.000332722 -0.000130618
0 -0.000273705 -0.000145558 0 -0.000327969 -0.000115326
0 -0.000268222 -0.000130436 0 -0.000322899 -0.000100964
0 -0.000261818 -0.000117444 0 -0.000316588 -8.64027e-05
0 -0.000254845 -0.000104776 0 -0.000309724 -7.25625e-05
0 -0.000247241 -9.12901e-05 0 -0.00030238 -5.95006e-05
0 -0.000239079 -7.75586e-05 0 -0.000294491 -4.68121e-05
0 -0.000230714 -6.47562e-05 0 -0.000286398 -3.45274e-05
0 -0.000222438 -5.3134e-05 0 -0.000278254 -2.25654e-05
0 -0.000214087 -4.19792e-05 0 -0.000270069 -1.08647e-05
0 -0.000204595 -3.09603e-05 0 -0.0002617 3.7107e-07
0 -0.000195377 -1.98281e-05 0 -0.000253779 1.13255e-05
0 -0.000187204 -8.86651e-06 0 -0.000245403 2.19193e-05
0 -0.000180029 1.73195e-06 0 -0.000238196 3.23657e-05
0 -0.00017332 1.20464e-05 0 -0.000231589 4.29452e-05
0 -0.0001671 2.23303e-05 0 -0.000225548 5.32213e-05
0 -0.000161547 3.26012e-05 0 -0.000220337 6.3278e-05
0 -0.00015657 4.25957e-05 0 -0.000215765 7.32735e-05
0 -0.000152494 5.22612e-05 0 -0.0002119 8.30278e-05
0 -0.000149274 6.16686e-05 0 -0.000208736 9.25178e-05
0 -0.000146793 7.08831e-05 0 -0.000206212 0.00010171
0 -0.000144913 7.9801e-05 0 -0.000204401 0.00011057
0 -0.0001437 8.82852e-05 0 -0.000203266 0.000119029
0 -0.000143222 9.62558e-05 0 -0.000202781 0.000127053
0 -0.000143378 0.000103681 0 -0.000202887 0.000134559
0 -0.000144033 0.00011053 0 -0.000203516 0.000141448
0 -0.000145112 0.000116721 0 -0.000204557 0.000147638
0 -0.000146549 0.000122128 0 -0.00020591 0.000153041
0 -0.000148231 0.000126638 0 -0.000207477 0.000157571
0 -0.000150043 0.000130189 0 -0.000209169 0.000161153
0 -0.000151898 0.000132744 0 -0.000210888 0.000163708
0 -0.000153681 0.000134238 0 -0.000212497 0.000165152
0 -0.00015524 0.000134576 0 -0.00021386 0.000165415
0 -0.00015642 0.000133663 0 -0.000214831 0.000164428
0 -0.000157058 0.000131178 0 -0.000215252 0.000161834
0 -0.000157095 0.000127154 0 -0.000215019 0.000157677
0 -0.000156495 0.00012164 0 -0.000214145 0.000151937
0 -0.000155295 0.000114689 0 -0.000212645 0.000144662
0 -0.000153624 0.00010639 0 -0.000210664 0.000136055
0 -0.000151732 9.67632e-05 0 -0.000208427 0.000126134
0 -0.000149816 8.59289e-05 0 -0.000206159 0.000114949
0 -0.000148102 7.40474e-05 0 -0.000204094 0.000102735
0 -0.000146789 6.13092e-05 0 -0.000202423 8.96582e-05
0 -0.000146067 4.79048e-05 0 -0.000201332 7.59014e-05
0 -0.000146092 3.40078e-05 0 -0.000200991 6.16576e-05
0 -0.00014699 1.97836e-05 0 -0.000201525 4.7103e-05
0 -0.000148835 5.39183e-06 0 -0.000203027 3.24079e-05
0 -0.000151635 -9.01817e-06 0 -0.000205455 1.77116e-05
0 -0.000155418 -2.22686e-05 0 -0.000208825 3.40392e-06
0 -0.000160133 -3.24382e-05 0 -0.000213288 -6.78649e-06
0 -0.000165284 -4.27262e-05 0 -0.000218259 -1.69693e-05
0 -0.000171018 -5.28827e-05 0 -0.000223654 -2.73397e-05
0 -0.000176823 -6.28524e-05 0 -0.000229283 -3.72118e-05
0 -0.000182631 -7.27962e-05 0 -0.000234812 -4.71467e-05
0 -0.000188335 -8.26384e-05 0 -0.000240377 -5.68345e-05
0 -0.000193756 -9.22702e-05 0 -0.000245526 -6.64293e-05
0 -0.000198754 -0.000101708 0 -0.000250322 -7.5899e-05
0 -0.000203134 -0.000111019 0 -0.000254485 -8.52661e-05
0 -0.00020674 -0.00012026 0 -0.000257878 -9.4518e-05
0 -0.000209436 -0.000129414 0 -0.000260367 -0.000103646
0 -0.000211112 -0.000138396 0 -0.000261837 -0.000112639
0 -0.000211723 -0.000147138 0 -0.000262251 -0.000121463
0 -0.000211267 -0.00015562 0 -0.000261594 -0.000130077
0 -0.000209783 -0.000163827 0 -0.000259923 -0.00013841
0 -0.000207359 -0.000171701 0 -0.000257321 -0.00014639
0 -0.000204114 -0.000179137 0 -0.000253917 -0.000153936
0 -0.000200188 -0.000186021 0 -0.000249844 -0.000160962
0 -0.000195728 -0.00019227 0 -0.000245249 -0.000167378
0 -0.000190908 -0.000197811 0 -0.00024032 -0.000173084
0 -0.000186063 -0.000202544 0 -0.000235316 -0.000177975
0 -0.000181622 -0.000206346 0 -0.000230771 -0.000181904
0 -0.000177821 -0.000209122 0 -0.000226842 -0.000184803
0 -0.000174797 -0.000210811 0 -0.000223749 -0.000186584
0 -0.000172695 -0.000211369 0 -0.000221634 -0.0001872
0 -0.000171652 -0.000210553 0 -0.000220607 -0.000186429
0 -0.00017171 -0.000208239 0 -0.000220748 -0.000184046
0 -0.000172853 -0.000204466 0 -0.000222026 -0.000180157
0 -0.000175029 -0.000199293 0 -0.00022439 -0.000174801
0 -0.000178138 -0.000193039 0 -0.000227725 -0.000168491
0 -0.000182094 -0.000185982 0 -0.000231745 -0.000162318
0 -0.000186632 -0.000178945 0 -0.000236619 -0.000154768
0 -0.000191835 -0.000170985 0 -0.000242105 -0.000146644
0 -0.000197497 -0.00016239 0 -0.000248087 -0.000137716
0 -0.000203465 -0.000153191 0 -0.000254459 -0.000128174
0 -0.000209606 -0.000143512 0 -0.00026096 -0.000118162
0 -0.000215732 -0.000133473 0 -0.000267452 -0.000107809
0 -0.000221653 -0.000123233 0 -0.000273753 -9.72573e-05
0 -0.000227197 -0.000112937 0 -0.000279664 -8.66334e-05
0 -0.000232206 -0.000102695 0 -0.000285011 -7.60652e-05
0 -0.000236532 -9.26006e-05 0 -0.000289639 -6.56822e-05
0 -0.000240041 -8.27547e-05 0 -0.000293411 -5.55996e-05
0 -0.000242625 -7.3271e-05 0 -0.00029622 -4.59189e-05
0 -0.000244199 -6.42529e-05 0 -0.000297971 -3.67272e-05
0 -0.000244703 -5.57717e-05 0 -0.000298605 -2.80969e-05
0 -0.000244102 -4.7868e-05 0 -0.000298086 -2.00885e-05
0 -0.000242391 -4.05723e-05 0 -0.000296398 -1.27468e-05
0 -0.000239592 -3.3916e-05 0 -0.000293574 -6.09511e-06
0 -0.000235765 -2.79191e-05 0 -0.000289672 -1.39474e-07
0 -0.000231013 -2.2577e-05 0 -0.000284797 5.13241e-06
0 -0.000225479 -1.78593e-05 0 -0.000279104 9.74826e-06
0 -0.000219337 -1.37225e-05 0 -0.000272758 1.37478e-05
0 -0.000212763 -1.01227e-05 0 -0.000265949 1.71829e-05
0 -0.000205932 -7.01452e-06 0 -0.000258853 2.01091e-05
0 -0.000199014 -4.3472e-06 0 -0.000251644 2.25867e-05
0 -0.000192179 -2.06324e-06 0 -0.000244506 2.46779e-05
0 -0.000185591 -1.03391e-07 0 -0.000237597 2.64428e-05
0 -0.00017939 1.58622e-06 0 -0.000231071 2.79402e-05
0 -0.000173704 3.05264e-06 0 -0.000225118 2.92302e-05
0 -0.000168847 4.10646e-06 0 -0.000219917 3.00775e-05
0 -0.000165826 3.33757e-06 0 -0.000217058 2.7991e-05
0 -0.000163312 1.95031e-06 0 -0.000214553 2.68843e-05
0 -0.000161272 5.28198e-07 0 -0.000212005 2.62452e-05
0 -0.00015969 -3.44069e-07 0 -0.000210359 2.51441e-05
0 -0.000161291 -9.34191e-08 0 -0.000211821 2.44804e-05
0 -0.000165442 8.09456e-07 0 -0.00021645 2.60629e-05
0 -0.000170029 1.42078e-06 0 -0.000219263 2.62395e-05
0 -0.000173945 1.38737e-06 0 -0.000223744 2.60223e-05
0 -0.000178018 1.13555e-06 0 -0.000227734 2.63088e-05
0 -0.000182705 8.95924e-07 0 -0.000231963 2.60227e-05
0 -0.000187261 3.01418e-07 0 -0.000235895 2.49013e-05
0 -0.000191182 -1.00074e-06 0 -0.000239623 2.35183e-05
0 -0.000194653 -3.10028e-06 0 -0.000242913 2.1557e-05
0 -0.000197831 -5.89115e-06 0 -0.000245625 1.85822e-05
0 -0.000200461 -9.30718e-06 0 -0.000247758 1.49608e-05
0 -0.000202322 -1.34219e-05 0 -0.000249257 1.06263e-05
0 -0.000203485 -1.83077e-05 0 -0.000250057 5.42217e-06
0 -0.000204021 -2.39455e-05 0 -0.000250119 -5.0173e-07
0 -0.000203842 -3.02709e-05 0 -0.000249444 -7.09608e-06
0 -0.000202888 -3.7187e-05 0 -0.000248034 -1.43699e-05
0 -0.000201616 -4.40472e-05 0 -0.000245936 -2.21899e-05
0 -0.000199614 -4.93506e-05 0 -0.000243218 -3.03827e-05
0 -0.000197048 -5.46332e-05 0 -0.000239961 -3.90441e-05
0 -0.000194123 -6.00951e-05 0 -0.000236177 -4.78853e-05
0 -0.000190894 -6.58932e-05 0 -0.000232717 -5.46898e-05
0 -0.000187323 -7.19217e-05 0 -0.000228215 -5.92778e-05
0 -0.000183362 -7.79452e-05 0 -0.000224201 -6.53037e-05
0 -0.000179196 -8.347e-05 0 -0.00021951 -7.18797e-05
0 -0.000174961 -8.84003e-05 0 -0.000214898 -7.70214e-05
0 -0.000170546 -9.31572e-05 0 -0.000209997 -8.17878e-05
0 -0.000165974 -9.78061e-05 0 -0.000205105 -8.69129e-05
0 -0.000161398 -0.000101952 0 -0.000200197 -9.11089e-05
0 -0.000156824 -0.000105574 0 -0.000195206 -9.48189e-05
0 -0.000152297 -0.000108587 0 -0.000190319 -9.80448e-05
0 -0.000147922 -0.000111047 0 -0.000185644 -0.000101009
0 -0.000143857 -0.000112981 0 -0.000181255 -0.000103197
0 -0.000140222 -0.000114326 0 -0.00017729 -0.00010458
0 -0.000137095 -0.000114954 0 -0.000173856 -0.000105363
0 -0.000134539 -0.000114775 0 -0.000171017 -0.000105453
0 -0.000132573 -0.000113808 0 -0.000168754 -0.000104686
0 -0.000131148 -0.000112132 0 -0.000167039 -0.000103166
0 -0.000130196 -0.00010979 0 -0.000165823 -0.00010099
0 -0.000129634 -0.000106783 0 -0.000165004 -9.81066e-05
0 -0.000129348 -0.000103121 0 -0.000164465 -9.45428e-05
0 -0.000129194 -9.88666e-05 0 -0.000164076 -9.04326e-05
0 -0.000129025 -9.41058e-05 0 -0.000163693 -8.58373e-05
0 -0.000128728 -8.88812e-05 0 -0.000163216 -8.07047e-05
0 -0.000128193 -8.32006e-05 0 -0.000162496 -7.50644e-05
0 -0.000127296 -7.71182e-05 0 -0.000161462 -6.90461e-05
0 -0.000125933 -7.07092e-05 0 -0.000159975 -6.27283e-05
0 -0.000123995 -6.40654e-05 0 -0.000157935 -5.61684e-05
0 -0.000121396 -5.72629e-05 0 -0.000155262 -4.94368e-05
0 -0.000118099 -5.03387e-05 0 -0.00015192 -4.25849e-05
0 -0.000114105 -4.3303e-05 0 -0.000147906 -3.5628e-05
0 -0.000109456 -3.61598e-05 0 -0.00014326 -2.8579e-05
0 -0.000104225 -2.89093e-05 0 -0.000138056 -2.14307e-05
0 -9.85359e-05 -2.15317e-05 0 -0.000132422 -1.41457e-05
0 -9.25478e-05 -1.39845e-05 0 -0.000126508 -6.6806e-06
0 -8.64431e-05 -6.21253e-06 0 -0.000120488 1.01252e-06
0 -8.05471e-05 1.87826e-06 0 -0.000114675 9.01542e-06
0 -7.50165e-05 1.03315e-05 0 -0.000109209 1.74171e-05
0 -6.99232e-05 1.91512e-05 0 -0.000104196 2.61855e-05
0 -6.53183e-05 2.83234e-05 0 -9.97109e-05 3.5334e-05
0 -6.12601e-05 3.7834e-05 0 -9.57773e-05 4.48589e-05
0 -5.77896e-05 4.76639e-05 0 -9.24396e-05 5.47256e-05
0 -5.49137e-05 5.77776e-05 0 -8.97088e-05 6.48936e-05
0 -5.26231e-05 6.81241e-05 0 -8.7579e-05 7.5321e-05
0 -5.09007e-05 7.8639e-05 0 -8.60276e-05 8.59377e-05
0 -4.97061e-05 8.92456e-05 0 -8.50065e-05 9.66651e-05
0 -4.89899e-05 9.98631e-05 0 -8.44729e-05 0.000107423
0 -4.87044e-05 0.000110407 0 -8.43723e-05 0.00011812
0 -4.87976e-05 0.000120789 0 -8.46513e-05 0.000128663
0 -4.92e-05 0.000130911 0 -8.52378e-05 0.000138953
0 -4.98146e-05 0.000140664 0 -8.60288e-05 0.000148877
0 -5.05374e-05 0.000149944 0 -8.69248e-05 0.000158323
0 -5.12772e-05 0.000158648 0 -8.78246e-05 0.000167184
0 -5.19652e-05 0.000166686 0 -8.86609e-05 0.000175368
0 -5.25587e-05 0.000173984 0 -8.93912e-05 0.000182797
0 -5.30249e-05 0.000180472 0 -8.99728e-05 0.000189399
0 -5.33362e-05 0.000186093 0 -9.03843e-05 0.000195115
0 -5.34675e-05 0.000190794 0 -9.05935e-05 0.00019989
0 -5.33903e-05 0.000194532 0 -9.05695e-05 0.000203679
0 -5.30801e-05 0.000197271 0 -9.02924e-05 0.000206445
0 -5.251e-05 0.000198985 0 -8.97272e-05 0.000208161
0 -5.16511e-05 0.000199658 0 -8.88505e-05 0.000208809
0 -5.04794e-05 0.000199282 0 -8.76368e-05 0.000208381
0 -4.89533e-05 0.000197709 0 -8.60511e-05 0.000206743
0 -4.70476e-05 0.000194887 0 -8.40335e-05 0.000203795
0 -4.47874e-05 0.000190891 0 -8.16348e-05 0.000199655
0 -4.22246e-05 0.0001858 0 -7.8928e-05 0.000194332
0 -3.94973e-05 0.000179587 0 -7.59917e-05 0.000187916
0 -3.66953e-05 0.000172266 0 -7.30004e-05 0.000180327
0 -3.39087e-05 0.000163926 0 -7.00148e-05 0.000171761
0 -3.12363e-05 0.000154727 0 -6.71372e-05 0.000162324
0 -2.87904e-05 0.00014483 0 -6.44937e-05 0.000152161
0 -2.67139e-05 0.000134376 0 -6.22777e-05 0.000141438
0 -2.51214e-05 0.000123489 0 -6.05079e-05 0.000130302
0 -2.41547e-05 0.000112327 0 -5.94128e-05 0.000118909
0 -2.39396e-05 0.000101043 0 -5.90797e-05 0.000107419
0 -2.45663e-05 8.97822e-05 0 -5.96272e-05 9.59679e-05
0 -2.6107e-05 7.86642e-05 0 -6.11279e-05 8.46919e-05
0 -2.8603e-05 6.7796e-05 0 -6.36187e-05 7.37073e-05
0 -3.20624e-05 5.72765e-05 0 -6.71153e-05 6.30974e-05
0 -3.66206e-05 4.86695e-05 0 -7.16817e-05 5.39874e-05
0 -4.21501e-05 4.21244e-05 0 -7.76134e-05 4.84288e-05
0 -4.84597e-05 3.56723e-05 0 -8.40464e-05 4.17539e-05
0 -5.53657e-05 2.95692e-05 0 -9.1171e-05 3.58986e-05
0 -6.27086e-05 2.37594e-05 0 -9.88507e-05 3.02908e-05
0 -7.03939e-05 1.81047e-05 0 -0.000106818 2.48761e-05
0 -7.82312e-05 1.26625e-05 0 -0.000114986 1.97505e-05
0 -8.60848e-05 7.41766e-06 0 -0.000123163 1.47679e-05
0 -9.38138e-05 2.33682e-06 0 -0.000131204 9.88481e-06
0 -0.000101278 -2.67374e-06 0 -0.000138988 5.06854e-06
0 -0.000108349 -7.70201e-06 0 -0.000146383 2.67828e-07
0 -0.000114918 -1.27647e-05 0 -0.000153268 -4.54076e-06
0 -0.000120896 -1.78433e-05 0 -0.000159545 -9.39852e-06
0 -0.000126207 -2.29367e-05 0 -0.000165129 -1.43344e-05
0 -0.000130795 -2.80805e-05 0 -0.00016997 -1.93587e-05
0 -0.000134636 -3.33104e-05 0 -0.00017405 -2.44703e-05
0 -0.000137744 -3.86229e-05 0 -0.000177376 -2.96604e-05
0 -0.000140162 -4.39785e-05 0 -0.000179996 -3.49119e-05
0 -0.000141953 -4.93325e-05 0 -0.000181964 -4.0201e-05
0 -0.000143186 -5.46568e-05 0 -0.000183351 -4.54931e-05
0 -0.000143927 -5.99326e-05 0 -0.000184235 -5.07477e-05
0 -0.000144243 -6.51307e-05 0 -0.000184675 -5.59247e-05
0 -0.000144192 -7.02057e-05 0 -0.000184743 -6.09813e-05
0 -0.000143839 -7.51037e-05 0 -0.000184501 -6.58743e-05
0 -0.00014325 -7.97762e-05 0 -0.000184013 -7.05565e-05
0 -0.000142499 -8.41817e-05 0 -0.000183367 -7.49772e-05
0 -0.000141669 -8.82791e-05 0 -0.000182643 -7.90868e-05
0 -0.000140853 -9.20227e-05 0 -0.000181943 -8.28338e-05
0 -0.00014015 -9.53632e-05 0 -0.00018137 -8.61697e-05
0 -0.00013966 -9.82537e-05 0 -0.000181041 -8.90472e-05
0 -0.000139504 -0.000100654 0 -0.000181131 -9.14094e-05
0 -0.00013975 -0.000102535 0 -0.000181649 -9.32384e-05
0 -0.000140505 -0.000103871 0 -0.000182659 -9.45004e-05
0 -0.000138236 -0.000105257 0 -0.000181185 -9.55989e-05
0 -0.000131736 -0.00010656 0 -0.000172595 -9.76679e-05
0 -0.000125425 -0.000107382 0 -0.000168705 -9.78578e-05
0 -0.000121058 -0.000107337 0 -0.000164013 -9.80177e-05
0 -0.00011739 -0.000106487 0 -0.00015929 -9.74632e-05
0 -0.000113516 -0.000105054 0 -0.000155976 -9.58126e-05
0 -0.00010997 -0.000102765 0 -0.000153017 -9.3302e-05
0 -0.000107658 -9.94633e-05 0 -0.000150677 -9.00015e-05
0 -0.000106221 -9.53311e-05 0 -0.000149125 -8.58012e-05
0 -0.00010501 -9.05072e-05 0 -0.000148157 -8.08045e-05
0 -0.000103453 -8.34578e-05 0 -0.000147607 -7.50316e-05
0 -0.00010297 -7.45857e-05 0 -0.000147571 -6.83535e-05
0 -0.000103038 -6.48887e-05 0 -0.000147121 -5.81537e-05
0 -0.000103552 -5.4827e-05 0 -0.000148108 -4.75712e-05
0 -0.000104695 -4.47392e-05 0 -0.000149381 -3.6838e-05
0 -0.000106818 -3.40612e-05 0 -0.000151541 -2.54218e-05
0 -0.000109786 -2.24386e-05 0 -0.000154538 -1.28939e-05
0 -0.000113402 -1.01448e-05 0 -0.000158262 -2.91818e-07
0 -0.000117753 2.31996e-06 0 -0.000161857 1.11863e-05
0 -0.00012245 1.23825e-05 0 -0.000167628 1.96668e-05
0 -0.000128001 2.15595e-05 0 -0.000172792 2.83547e-05
0 -0.000134277 3.00274e-05 0 -0.000178786 3.85857e-05
0 -0.000140688 3.86654e-05 0 -0.000185455 4.88844e-05
0 -0.00014736 4.75455e-05 0 -0.000192186 5.74797e-05
0 -0.000154442 5.62224e-05 0 -0.000199284 6.55749e-05
0 -0.000161627 6.40367e-05 0 -0.000206293 7.40427e-05
0 -0.000168563 7.07043e-05 0 -0.000213225 8.18467e-05
0 -0.000175182 7.64547e-05 0 -0.000219929 8.82156e-05
0 -0.000181455 8.14443e-05 0 -0.00022614 9.35268e-05
0 -0.000187178 8.55906e-05 0 -0.000231734 9.81634e-05
0 -0.000192082 8.84389e-05 0 -0.000236583 0.000101479
0 -0.000196056 8.96885e-05 0 -0.000240526 0.000103076
0 -0.000199052 8.94037e-05 0 -0.000243429 0.000103367
0 -0.000200961 8.77977e-05 0 -0.000245175 0.000102417
0 -0.000201888 8.6398e-05 0 -0.000245836 0.000100429
0 -0.000201579 8.3357e-05 0 -0.000245637 9.78746e-05
0 -0.000200215 7.85963e-05 0 -0.000244125 9.29457e-05
0 -0.000197889 7.24084e-05 0 -0.000241652 8.73665e-05
0 -0.000194675 6.50847e-05 0 -0.000238442 8.03349e-05
0 -0.000190776 5.67573e-05 0 -0.000234415 7.17657e-05
0 -0.000186472 4.74578e-05 0 -0.000230023 6.23875e-05
0 -0.000181942 3.72473e-05 0 -0.000225381 5.23322e-05
0 -0.00017734 2.63503e-05 0 -0.000220676 4.15605e-05
0 -0.000172875 1.50804e-05 0 -0.000216105 3.03248e-05
0 -0.000168741 3.66523e-06 0 -0.000211844 1.89266e-05
0 -0.000165074 -7.79742e-06 0 -0.000208048 7.46604e-06
0 -0.000162007 -1.9229e-05 0 -0.000204846 -3.92385e-06
0 -0.000159665 -3.04818e-05 0 -0.000202365 -1.50238e-05
0 -0.000158151 -4.13649e-05 0 -0.000200706 -2.56942e-05
0 -0.000157521 -5.17258e-05 0 -0.000199917 -3.58652e-05
0 -0.000157794 -6.14874e-05 0 -0.000200409 -4.48675e-05
0 -0.000159143 -6.98838e-05 0 -0.000201128 -5.18085e-05
0 -0.000161282 -7.74635e-05 0 -0.000203338 -5.83742e-05
0 -0.000164202 -8.42332e-05 0 -0.000206199 -6.50172e-05
0 -0.00016808 -9.0485e-05 0 -0.000209833 -7.11312e-05
0 -0.000172809 -9.63307e-05 0 -0.000214374 -7.60326e-05
0 -0.000178251 -0.000101733 0 -0.000219634 -8.03796e-05
0 -0.000184437 -0.000106527 0 -0.000225718 -8.45289e-05
0 -0.000191413 -0.000110645 0 -0.000232505 -8.8078e-05
0 -0.000199088 -0.000114227 0 -0.000239955 -9.08828e-05
0 -0.000207333 -0.000117459 0 -0.000248029 -9.32853e-05
0 -0.000216126 -0.000120348 0 -0.000256653 -9.54491e-05
0 -0.000225441 -0.000122838 0 -0.000265768 -9.72209e-05
0 -0.000235202 -0.000124952 0 -0.000275319 -9.8617e-05
0 -0.000245322 -0.000126819 0 -0.000285243 -9.98305e-05
0 -0.000255725 -0.000128602 0 -0.000295438 -0.000100958
0 -0.000266331 -0.000130425 0 -0.000305837 -0.000102056
0 -0.000276918 -0.000132394 0 -0.00031629 -0.00010327
0 -0.000287064 -0.000134701 0 -0.000326247 -0.000104879
0 -0.000296584 -0.000137502 0 -0.000335714 -0.000107052
0 -0.000305386 -0.000140921 0 -0.000344426 -0.000109543
0 -0.000313329 -0.000145076 0 -0.00035222 -0.000112514
0 -0.000320276 -0.000150043 0 -0.000359066 -0.000116281
0 -0.000326288 -0.000155202 0 -0.000364872 -0.000120869
0 -0.000331088 -0.000161013 0 -0.000369451 -0.000126167
0 -0.000334622 -0.000167493 0 -0.000372741 -0.000132294
0 -0.000336872 -0.000174836 0 -0.000374729 -0.000139368
0 -0.000337763 -0.000183108 0 -0.000375333 -0.000147308
0 -0.000337229 -0.000192209 0 -0.000374469 -0.000156064
0 -0.000335232 -0.000202015 0 -0.000372129 -0.000165694
0 -0.000331853 -0.000212473 0 -0.000368456 -0.000176183
0 -0.000327821 -0.000223344 0 -0.000368724 -0.000186503
0 -0.000322249 -0.000234881 0 -0.000366157 -0.000195799
0 -0.000316557 -0.000246859 0 -0.000362262 -0.000206939
0 -0.000312657 -0.000257987 0 -0.000358276 -0.000218395
0 -0.000308088 -0.000268724 0 -0.000351868 -0.000229433
0 -0.000301107 -0.000279039 0 -0.00034483 -0.000239996
0 -0.000292432 -0.000288862 0 -0.000336291 -0.000249853
0 -0.00028334 -0.000297926 0 -0.000326757 -0.000259117
0 -0.00027364 -0.000306113 0 -0.000316245 -0.000267541
0 -0.000262863 -0.000313407 0 -0.000305099 -0.00027505
0 -0.000251447 -0.000319671 0 -0.000293572 -0.000281479
0 -0.00024003 -0.00032474 0 -0.000281761 -0.000286776
0 -0.000228664 -0.000328543 0 -0.000269894 -0.000290801
0 -0.000217213 -0.000331015 0 -0.000258139 -0.000293448
0 -0.000205909 -0.000331764 0 -0.000246649 -0.000294413
0 -0.000195078 -0.000330476 0 -0.000235603 -0.000293357
0 -0.000184869 -0.000327134 0 -0.000225147 -0.000290204
0 -0.000175671 -0.000322671 0 -0.000216304 -0.000287952
0 -0.000167232 -0.000316217 0 -0.000209363 -0.000288251
0 -0.000160149 -0.000307505 0 -0.000202968 -0.000283419
0 -0.000154556 -0.000296825 0 -0.00019832 -0.000275451
0 -0.000150837 -0.00028506 0 -0.000195957 -0.000268954
0 -0.000150155 -0.000273881 0 -0.000195022 -0.000257966
0 -0.0001514 -0.000262028 0 -0.000196789 -0.000246025
0 -0.00015464 -0.000248288 0 -0.000200524 -0.000231267
0 -0.000159724 -0.000232026 0 -0.000205916 -0.00021437
0 -0.000166447 -0.000213442 0 -0.000213198 -0.000195735
0 -0.000174634 -0.000193322 0 -0.000222023 -0.000175396
0 -0.000184162 -0.000172248 0 -0.000232051 -0.000153547
0 -0.000192153 -0.000150973 0 -0.00024247 -0.0001308
0 -0.000197964 -0.000129805 0 -0.000251763 -0.000107805
0 -0.00020347 -0.000108399 0 -0.000256682 -8.61123e-05
0 -0.000210279 -8.63518e-05 0 -0.000263861 -6.41716e-05
0 -0.000216997 -6.43781e-05 0 -0.000269983 -4.14428e-05
0 -0.000222472 -4.31555e-05 0 -0.000275938 -1.98625e-05
0 -0.000227201 -2.27531e-05 0 -0.00028117 9.89354e-07
0 -0.000231673 -3.13659e-06 0 -0.000285635 2.11306e-05
0 -0.00023532 1.54399e-05 0 -0.000289226 4.00719e-05
0 -0.000237595 3.2632e-05 0 -0.000291671 5.74012e-05
0 -0.000238612 4.82487e-05 0 -0.000292968 7.33168e-05
0 -0.00023848 6.21766e-05 0 -0.000292808 8.74708e-05
0 -0.000236934 7.42651e-05 0 -0.000290931 9.75886e-05
0 -0.000233642 8.30084e-05 0 -0.000288142 0.00010515
0 -0.000229274 9.0317e-05 0 -0.00028336 0.000112739
0 -0.000223798 9.60522e-05 0 -0.000278038 0.000119286
0 -0.000217137 0.000100543 0 -0.000271451 0.000123469
0 -0.000209653 0.000103952 0 -0.000264088 0.000126201
0 -0.000201604 0.000105862 0 -0.000255935 0.000128031
0 -0.000193012 0.000106121 0 -0.00024741 0.000128061
0 -0.000183987 0.000104888 0 -0.000238341 0.000126606
0 -0.000174788 0.000102562 0 -0.000229134 0.000124132
0 -0.000165571 0.000100105 0 -0.00021988 0.000120634
0 -0.000156228 9.68959e-05 0 -0.000210499 0.000116937
0 -0.000146921 9.26942e-05 0 -0.000201151 0.000112644
0 -0.00013772 8.74449e-05 0 -0.00019202 0.000107224
0 -0.000128667 8.1451e-05 0 -0.000182816 0.000101022
0 -0.000119878 7.50835e-05 0 -0.00017405 9.45454e-05
0 -0.000111517 6.85003e-05 0 -0.00016564 8.76886e-05
0 -0.000103763 6.17307e-05 0 -0.00015782 8.05189e-05
0 -9.67859e-05 5.48505e-05 0 -0.000150767 7.34639e-05
0 -9.08584e-05 4.76287e-05 0 -0.000144777 6.60936e-05
0 -8.60794e-05 4.01258e-05 0 -0.000139914 5.83463e-05
0 -8.26348e-05 3.2407e-05 0 -0.000136401 5.04867e-05
0 -8.06625e-05 2.46529e-05 0 -0.000134389 4.26041e-05
0 -8.03089e-05 1.71151e-05 0 -0.000133926 3.49467e-05
0 -8.15876e-05 9.86317e-06 0 -0.000135168 2.76127e-05
0 -8.4533e-05 2.93847e-06 0 -0.000138104 2.06693e-05
0 -8.91686e-05 -3.62365e-06 0 -0.000142717 1.41434e-05
0 -9.48283e-05 -7.00088e-06 0 -0.000148901 8.99602e-06
0 -0.000100832 -6.16632e-06 0 -0.000156324 7.41968e-06
0 -0.000108488 -2.51393e-06 0 -0.000163096 9.16937e-06
0 -0.000117101 1.81195e-06 0 -0.000171369 1.42004e-05
0 -0.000126121 4.97297e-06 0 -0.00018068 1.67891e-05
0 -0.000136517 5.93985e-06 0 -0.000190719 1.8064e-05
0 -0.000148143 7.42866e-06 0 -0.000201934 2.18034e-05
0 -0.000160322 9.96528e-06 0 -0.000213568 2.69121e-05
0 -0.000172821 1.29998e-05 0 -0.000226124 3.02242e-05
0 -0.000185989 1.57376e-05 0 -0.000239168 3.27657e-05
0 -0.000199771 1.7694e-05 0 -0.000252479 3.63945e-05
0 -0.00021369 1.89679e-05 0 -0.000266065 4.01575e-05
0 -0.000227547 1.99328e-05 0 -0.000279773 4.24859e-05
0 -0.000241431 2.06829e-05 0 -0.000293443 4.38954e-05
0 -0.00025524 2.08142e-05 0 -0.000306882 4.52461e-05
0 -0.000268677 1.9833e-05 0 -0.000320008 4.58606e-05
0 -0.000281579 1.76269e-05 0 -0.000332711 4.5032e-05
0 -0.000293801 1.43733e-05 0 -0.000344797 4.30703e-05
0 -0.000304586 9.97087e-06 0 -0.000355109 3.99974e-05
0 -0.000313531 3.89805e-06 0 -0.000363794 3.46754e-05
0 -0.000320629 -4.25875e-06 0 -0.000370687 2.70675e-05
0 -0.000325789 -1.4626e-05 0 -0.000375384 1.73779e-05
0 -0.000328836 -2.71327e-05 0 -0.000377933 5.45283e-06
0 -0.000329695 -4.16253e-05 0 -0.00037836 -8.76488e-06
0 -0.000328393 -5.802e-05 0 -0.000376542 -2.51022e-05
0 -0.000325016 -7.6295e-05 0 -0.000372615 -4.34549e-05
0 -0.00032059 -9.6042e-05 0 -0.000372975 -6.19269e-05
0 -0.000315168 -0.000115109 0 -0.000370616 -7.67347e-05
0 -0.000312487 -0.000133764 0 -0.000366936 -9.40938e-05
0 -0.000309305 -0.000152197 0 -0.000362813 -0.00011428
0 -0.000304113 -0.000171558 0 -0.000356274 -0.000134921
0 -0.000296846 -0.000192361 0 -0.00034928 -0.000154735
0 -0.00028884 -0.00021398 0 -0.000340748 -0.00017569
0 -0.000280524 -0.000235431 0 -0.000331599 -0.000197709
0 -0.000271319 -0.000256377 0 -0.000321587 -0.000218978
0 -0.000261153 -0.000276792 0 -0.000311118 -0.00023983
0 -0.000250689 -0.00029649 0 -0.000300177 -0.000259684
0 -0.000240413 -0.000315218 0 -0.000289203 -0.000278564
0 -0.000230289 -0.00033266 0 -0.000278433 -0.000296219
0 -0.000220496 -0.00034864 0 -0.00026821 -0.000312503
0 -0.000211493 -0.000363075 0 -0.000258733 -0.000327223
0 -0.000203563 -0.000375865 0 -0.000250264 -0.000340213
0 -0.000196774 -0.000386865 0 -0.000242982 -0.000351342
0 -0.000191227 -0.0003959 0 -0.000237051 -0.000360514
0 -0.000187083 -0.000402862 0 -0.000232539 -0.000367648
0 -0.000184408 -0.000407734 0 -0.00022949 -0.000372669
0 -0.000183162 -0.000410508 0 -0.000227919 -0.000375522
0 -0.000183322 -0.000411108 0 -0.000227825 -0.000376176
0 -0.00018493 -0.000408947 0 -0.000229223 -0.000374027
0 -0.000187954 -0.000404007 0 -0.000232101 -0.000369046
0 -0.000192381 -0.000396226 0 -0.000236403 -0.0003611
0 -0.000198009 -0.000385762 0 -0.000242031 -0.000350381
0 -0.00020464 -0.000372822 0 -0.000248736 -0.000337068
0 -0.000212014 -0.00035826 0 -0.000256176 -0.000322631
0 -0.000219946 -0.000342534 0 -0.00026378 -0.000309517
0 -0.000227752 -0.000326911 0 -0.000271914 -0.000293527
0 -0.000235437 -0.00031079 0 -0.000279552 -0.000277383
0 -0.000242795 -0.000293696 0 -0.000287127 -0.000259821
0 -0.000249336 -0.00027575 0 -0.000293809 -0.000241522
0 -0.000254937 -0.000257156 0 -0.000299663 -0.000222557
0 -0.000259508 -0.000237999 0 -0.000304526 -0.000203091
0 -0.000263252 -0.000218907 0 -0.000308984 -0.000184776
0 -0.000265805 -0.000199775 0 -0.000313229 -0.000168239
0 -0.000266869 -0.000180881 0 -0.000315545 -0.00015113
0 -0.00026629 -0.000162289 0 -0.000316344 -0.000134855
0 -0.000264047 -0.000143917 0 -0.000315932 -0.000119594
0 -0.000262022 -0.000128568 0 -0.000313989 -0.000105257
0 -0.000258439 -0.000115569 0 -0.000310756 -9.18856e-05
0 -0.000253492 -0.000104235 0 -0.000306002 -7.94001e-05
0 -0.000247116 -9.32197e-05 0 -0.000299648 -6.79699e-05
0 -0.000239252 -8.22304e-05 0 -0.000291958 -5.7651e-05
0 -0.000230124 -7.20384e-05 0 -0.000283076 -4.8257e-05
0 -0.000220082 -6.32456e-05 0 -0.000273131 -3.95917e-05
0 -0.00020931 -5.55675e-05 0 -0.000262396 -3.16063e-05
0 -0.000197899 -4.82503e-05 0 -0.000251076 -2.42006e-05
0 -0.000186027 -4.09027e-05 0 -0.000239335 -1.72713e-05
0 -0.000173994 -3.36905e-05 0 -0.000227457 -1.06471e-05
0 -0.000162093 -2.6851e-05 0 -0.00021569 -4.10915e-06
0 -0.000150566 -2.02311e-05 0 -0.000204288 2.51717e-06
0 -0.000139661 -1.33845e-05 0 -0.000193499 9.3484e-06
0 -0.000126878 -6.69095e-06 0 -0.000182823 1.63923e-05
0 -0.000112437 -4.34887e-07 0 -0.000170363 2.30938e-05
0 -9.88252e-05 5.95255e-06 0 -0.000156486 2.88882e-05
0 -8.77987e-05 1.34142e-05 0 -0.000145672 3.63369e-05
0 -7.8345e-05 2.19234e-05 0 -0.000135511 4.49521e-05
0 -6.98552e-05 3.12529e-05 0 -0.00012747 5.38857e-05
0 -6.32243e-05 4.14221e-05 0 -0.000121176 6.39637e-05
0 -5.91077e-05 5.25252e-05 0 -0.000117001 7.53388e-05
0 -5.71136e-05 6.4559e-05 0 -0.000114886 8.75871e-05
0 -5.69151e-05 7.75004e-05 0 -0.000114832 0.000100639
0 -5.87602e-05 9.12208e-05 0 -0.000116861 0.000114652
0 -6.29708e-05 0.000104875 0 -0.000121143 0.000128392
0 -6.91029e-05 0.000118072 0 -0.000127195 0.000141896
0 -7.6915e-05 0.000130593 0 -0.000135243 0.000154931
0 -8.62286e-05 0.000142527 0 -0.000143274 0.000165687
0 -9.53365e-05 0.000152171 0 -0.000153725 0.000173513
0 -0.00010597 0.000160185 0 -0.000163438 0.000181937
0 -0.000117448 0.000166723 0 -0.000174612 0.000188221
0 -0.000128937 0.000171701 0 -0.000186304 0.000193799
0 -0.000140794 0.000175396 0 -0.000198307 0.000197547
0 -0.000153225 0.0001778 0 -0.000210651 0.000199842
0 -0.000165692 0.00017817 0 -0.000222815 0.0002001
0 -0.000177672 0.00017619 0 -0.000234799 0.000198268
0 -0.000189067 0.000171981 0 -0.000246246 0.000194173
0 -0.00019987 0.000165638 0 -0.00025691 0.000187751
0 -0.000208951 0.000160053 0 -0.000266542 0.000179628
0 -0.000216475 0.000156126 0 -0.000274752 0.000171122
0 -0.000222638 0.000152201 0 -0.000279819 0.000166915
0 -0.000227309 0.000144951 0 -0.000284099 0.000160692
0 -0.000230429 0.000133132 0 -0.000287432 0.000148847
0 -0.00023205 0.000118439 0 -0.000288408 0.000135575
0 -0.00023178 0.000102201 0 -0.000287182 0.000120238
0 -0.000230056 8.66266e-05 0 -0.000285002 0.0001022
0 -0.000227912 7.24149e-05 0 -0.000282545 8.87827e-05
0 -0.000224774 5.51781e-05 0 -0.000279377 7.07143e-05
0 -0.000220543 3.6385e-05 0 -0.000274086 5.34684e-05
0 -0.000215291 1.70406e-05 0 -0.000268369 3.43881e-05
0 -0.000209384 -2.47474e-06 0 -0.000262316 1.40017e-05
0 -0.000203285 -2.24108e-05 0 -0.000255663 -6.35173e-06
0 -0.000197596 -4.08626e-05 0 -0.000249679 -2.44186e-05
0 -0.000191834 -5.96114e-05 0 -0.000243125 -4.14213e-05
0 -0.000186421 -7.80667e-05 0 -0.000237312 -5.97782e-05
0 -0.000181543 -9.60669e-05 0 -0.000232156 -7.80151e-05
0 -0.00017717 -0.000113736 0 -0.000227194 -9.49377e-05
0 -0.000173788 -0.000130906 0 -0.000224134 -0.000111175
0 -0.000171372 -0.000147311 0 -0.000223225 -0.000126445
0 -0.000170027 -0.00016273 0 -0.000222106 -0.000140779
0 -0.000169727 -0.000177103 0 -0.000222814 -0.000154192
0 -0.00017057 -0.000190408 0 -0.00022425 -0.000166456
0 -0.000172658 -0.000202601 0 -0.000227028 -0.000177521
0 -0.000175999 -0.000213611 0 -0.000230966 -0.000187292
0 -0.00018119 -0.000223262 0 -0.000236156 -0.000195884
0 -0.000188073 -0.000231477 0 -0.000242628 -0.000203147
0 -0.000196108 -0.000238422 0 -0.000250105 -0.000209184
0 -0.000204913 -0.000244313 0 -0.000258732 -0.000214067
0 -0.000214672 -0.000249114 0 -0.000268283 -0.000217804
0 -0.000225458 -0.000252711 0 -0.000278694 -0.000220445
0 -0.000236983 -0.000255193 0 -0.00028982 -0.000221986
0 -0.000249013 -0.000256736 0 -0.000301577 -0.000222578
0 -0.000261492 -0.000257519 0 -0.000313785 -0.000222384
0 -0.000274317 -0.000257708 0 -0.000326272 -0.000221595
0 -0.000287221 -0.000257465 0 -0.000338831 -0.000220382
0 -0.000299932 -0.000256958 0 -0.000351238 -0.00021896
0 -0.000312225 -0.000256378 0 -0.000363227 -0.00021755
0 -0.000323845 -0.000255942 0 -0.000374514 -0.000216367
0 -0.000334491 -0.00025586 0 -0.000384831 -0.000215615
0 -0.000343888 -0.0002563 0 -0.000393919 -0.000215487
0 -0.000351837 -0.000257391 0 -0.000401568 -0.000216144
0 -0.000358182 -0.000259241 0 -0.000407609 -0.00021771
0 -0.000362776 -0.000261946 0 -0.000411905 -0.000220277
0 -0.000365508 -0.000265567 0 -0.000414358 -0.000223904
0 -0.000366048 -0.000269735 0 -0.000414672 -0.000228222
0 -0.000364331 -0.000274004 0 -0.000412611 -0.000232422
0 -0.000360402 -0.000278176 0 -0.00040887 -0.000236003
0 -0.000354879 -0.000281461 0 -0.000402504 -0.000239094
0 -0.000347149 -0.000284402 0 -0.000394795 -0.000242222
0 -0.000337505 -0.000286931 0 -0.000384815 -0.000244774
0 -0.000326419 -0.00028881 0 -0.000373359 -0.000246956
0 -0.00031393 -0.000289848 0 -0.000360355 -0.000248229
0 -0.000300125 -0.000289974 0 -0.00034624 -0.000248604
0 -0.000285402 -0.000289051 0 -0.000331238 -0.00024793
0 -0.000270174 -0.000286943 0 -0.000315642 -0.000246155
0 -0.00025513 -0.000285111 0 -0.000301509 -0.000249588
0 -0.000239662 -0.00028211 0 -0.000287777 -0.000256947
0 -0.000224682 -0.000277469 0 -0.000273591 -0.00025794
0 -0.000210968 -0.000274032 0 -0.000260321 -0.000256798
0 -0.000198238 -0.000273795 0 -0.000247575 -0.000258758
0 -0.00018592 -0.000274509 0 -0.000235428 -0.000259373
0 -0.000174722 -0.000272801 0 -0.000223781 -0.000255258
0 -0.00016419 -0.000268833 0 -0.000213285 -0.000252353
0 -0.000155153 -0.000261861 0 -0.000204881 -0.000247808
0 -0.000147863 -0.000253646 0 -0.000197463 -0.000239704
0 -0.000142706 -0.000244221 0 -0.000192336 -0.00022957
0 -0.000139586 -0.00023259 0 -0.000189508 -0.000217227
0 -0.000138285 -0.000217974 0 -0.000188442 -0.000202322
0 -0.000138803 -0.000200674 0 -0.000189424 -0.000185278
0 -0.000141221 -0.00018157 0 -0.000192508 -0.000166244
0 -0.0001455 -0.000161143 0 -0.00019736 -0.000145069
0 -0.000151504 -0.000139221 0 -0.000203978 -0.000122139
0 -0.000158975 -0.000115558 0 -0.000212243 -9.77846e-05
0 -0.000161871 -9.21644e-05 0 -0.000218813 -7.2767e-05
