0 0 0 0 0 0 0 0 -824.078 0 0 824.078 0 0 -273.003 0 0 273.003 0 0 0 0 0 0 0 0 821.27 0 0 -821.27 0 0 274.607 0 0 -274.607
0 0 0 0 0 0 0 0 -821.148 0 0 821.148 0 0 -273.275 0 0 273.275 0 0 0 0 0 0 0 0 824.119 0 0 -824.119 0 0 274.363 0 0 -274.363
0 0 0 0 0 0 0 0 -815.029 0 0 815.029 0 0 -273.741 0 0 273.741 0 0 0 0 0 0 0 0 830.144 0 0 -830.144 0 0 273.803 0 0 -273.803
0 0 0 0 0 0 0 0 -803.225 0 0 803.225 0 0 -274.489 0 0 274.489 0 0 0 0 0 0 0 0 841.661 0 0 -841.661 0 0 272.877 0 0 -272.877
0 0 0 0 0 0 0 0 -790.815 0 0 790.815 0 0 -275.109 0 0 275.109 0 0 0 0 0 0 0 0 853.693 0 0 -853.693 0 0 272.085 0 0 -272.085
0 0 0 0 0 0 0 0 -776.19 0 0 776.19 0 0 -275.613 0 0 275.613 0 0 0 0 0 0 0 0 867.791 0 0 -867.791 0 0 271.416 0 0 -271.416
0 0 0 0 0 0 0 0 -759.872 0 0 759.872 0 0 -275.819 0 0 275.819 0 0 0 0 0 0 0 0 883.383 0 0 -883.383 0 0 271.053 0 0 -271.053
0 0 0 0 0 0 0 0 -742.498 0 0 742.498 0 0 -275.52 0 0 275.52 0 0 0 0 0 0 0 0 899.789 0 0 -899.789 0 0 271.2 0 0 -271.2
0 0 0 0 0 0 0 0 -724.777 0 0 724.777 0 0 -274.513 0 0 274.513 0 0 0 0 0 0 0 0 916.254 0 0 -916.254 0 0 272.086 0 0 -272.086
0 0 0 0 0 0 0 0 -707.498 0 0 707.498 0 0 -272.595 0 0 272.595 0 0 0 0 0 0 0 0 931.945 0 0 -931.945 0 0 273.945 0 0 -273.945
0 0 0 0 0 0 0 0 -691.557 0 0 691.557 0 0 -269.553 0 0 269.553 0 0 0 0 0 0 0 0 945.915 0 0 -945.915 0 0 277.02 0 0 -277.02
0 0 0 0 0 0 0 0 -678.073 0 0 678.073 0 0 -265.154 0 0 265.154 0 0 0 0 0 0 0 0 956.991 0 0 -956.991 0 0 281.557 0 0 -281.557
0 0 0 0 0 0 0 0 -668.457 0 0 668.457 0 0 -259.167 0 0 259.167 0 0 0 0 0 0 0 0 964.237 0 0 -964.237 0 0 287.782 0 0 -287.782
0 0 0 0 0 0 0 0 -664.251 0 0 664.251 0 0 -251.382 0 0 251.382 0 0 0 0 0 0 0 0 966.089 0 0 -966.089 0 0 295.84 0 0 -295.84
0 0 0 0 0 0 0 0 -667.945 0 0 667.945 0 0 -241.584 0 0 241.584 0 0 0 0 0 0 0 0 959.39 0 0 -959.39 0 0 306.144 0 0 -306.144
0 0 0 0 0 0 0 0 -682.074 0 0 682.074 0 0 -229.598 0 0 229.598 0 0 0 0 0 0 0 0 941.805 0 0 -941.805 0 0 318.897 0 0 -318.897
0 0 0 0 0 0 0 0 -709.148 0 0 709.148 0 0 -215.349 0 0 215.349 0 0 0 0 0 0 0 0 910.896 0 0 -910.896 0 0 334.204 0 0 -334.204
0 0 0 0 0 0 0 0 -751.436 0 0 751.436 0 0 -198.883 0 0 198.883 0 0 0 0 0 0 0 0 864.253 0 0 -864.253 0 0 352.05 0 0 -352.05
0 0 0 0 0 0 0 0 -810.755 0 0 810.755 0 0 -180.398 0 0 180.398 0 0 0 0 0 0 0 0 800.084 0 0 -800.084 0 0 372.25 0 0 -372.25
0 0 0 0 0 0 0 0 -888.238 0 0 888.238 0 0 -160.273 0 0 160.273 0 0 0 0 0 0 0 0 717.367 0 0 -717.367 0 0 394.427 0 0 -394.427
0 0 0 0 0 0 0 0 -984.245 0 0 984.245 0 0 -139.12 0 0 139.12 0 0 0 0 0 0 0 0 615.804 0 0 -615.804 0 0 417.978 0 0 -417.978
0 0 0 0 0 0 0 0 -1098.63 0 0 1098.63 0 0 -117.696 0 0 117.696 0 0 0 0 0 0 0 0 495.646 0 0 -495.646 0 0 442.105 0 0 -442.105
0 0 0 0 0 0 0 0 -1230.87 0 0 1230.87 0 0 -96.9187 0 0 96.9187 0 0 0 0 0 0 0 0 357.565 0 0 -357.565 0 0 465.838 0 0 -465.838
0 0 0 0 0 0 0 0 -1380.18 0 0 1380.18 0 0 -77.8533 0 0 77.8533 0 0 0 0 0 0 0 0 202.521 0 0 -202.521 0 0 488.062 0 0 -488.062
0 0 0 0 0 0 0 0 -1545.42 0 0 1545.42 0 0 -61.706 0 0 61.706 0 0 0 0 0 0 0 0 31.832 0 0 -31.832 0 0 507.519 0 0 -507.519
0 0 0 0 0 0 0 0 -1724.68 0 0 1724.68 0 0 -49.7985 0 0 49.7985 0 0 0 0 0 0 0 0 -152.101 0 0 152.101 0 0 523.435 0 0 -523.435
0 0 0 0 0 0 0 0 -1914.4 0 0 1914.4 0 0 -43.5792 0 0 43.5792 0 0 0 0 0 0 0 0 -345.949 0 0 345.949 0 0 533.279 0 0 -533.279
0 0 0 0 0 0 0 0 -2108.22 0 0 2108.22 0 0 -45.0549 0 0 45.0549 0 0 0 0 0 0 0 0 -542.751 0 0 542.751 0 0 535.401 0 0 -535.401
0 0 0 0 0 0 0 0 -2296.08 0 0 2296.08 0 0 -56.3366 0 0 56.3366 0 0 0 0 0 0 0 0 -732.218 0 0 732.218 0 0 527.337 0 0 -527.337
0 0 0 0 0 0 0 0 -2465.17 0 0 2465.17 0 0 -79.6125 0 0 79.6125 0 0 0 0 0 0 0 0 -901.274 0 0 901.274 0 0 506.66 0 0 -506.66
0 0 0 0 0 0 0 0 -2602.03 0 0 2602.03 0 0 -116.786 0 0 116.786 0 0 0 0 0 0 0 0 -1036.19 0 0 1036.19 0 0 471.016 0 0 -471.016
0 0 0 0 0 0 0 0 -2693.81 0 0 2693.81 0 0 -169.479 0 0 169.479 0 0 0 0 0 0 0 0 -1121.95 0 0 1121.95 0 0 418.242 0 0 -418.242
0 0 0 0 0 0 0 0 -2730.73 0 0 2730.73 0 0 -238.617 0 0 238.617 0 0 0 0 0 0 0 0 -1150.31 0 0 1150.31 0 0 347.584 0 0 -347.584
0 0 0 0 0 0 0 0 -2705.84 0 0 2705.84 0 0 -324.369 0 0 324.369 0 0 0 0 0 0 0 0 -1114.29 0 0 1114.29 0 0 258.562 0 0 -258.562
0 0 0 0 0 0 0 0 -2615.57 0 0 2615.57 0 0 -426.082 0 0 426.082 0 0 0 0 0 0 0 0 -1011.02 0 0 1011.02 0 0 151.85 0 0 -151.85
0 0 0 0 0 0 0 0 -2458.79 0 0 2458.79 0 0 -542.295 0 0 542.295 0 0 0 0 0 0 0 0 -840.507 0 0 840.507 0 0 29.1198 0 0 -29.1198
0 0 0 0 0 0 0 0 -2238.3 0 0 2238.3 0 0 -670.747 0 0 670.747 0 0 0 0 0 0 0 0 -605.701 0 0 605.701 0 0 -107.144 0 0 107.144
0 0 0 0 0 0 0 0 -1963.2 0 0 1963.2 0 0 -808.057 0 0 808.057 0 0 0 0 0 0 0 0 -313.939 0 0 313.939 0 0 -253.733 0 0 253.733
0 0 0 0 0 0 0 0 -1640.78 0 0 1640.78 0 0 -950.6 0 0 950.6 0 0 0 0 0 0 0 0 26.193 0 0 -26.193 0 0 -405.792 0 0 405.792
0 0 0 0 0 0 0 0 -1281.38 0 0 1281.38 0 0 -1094 0 0 1094 0 0 0 0 0 0 0 0 403.823 0 0 -403.823 0 0 -559.476 0 0 559.476
0 0 0 0 0 0 0 0 -896.853 0 0 896.853 0 0 -1233.93 0 0 1233.93 0 0 0 0 0 0 0 0 807.552 0 0 -807.552 0 0 -709.947 0 0 709.947
0 0 0 0 0 0 0 0 -498.522 0 0 498.522 0 0 -1365.83 0 0 1365.83 0 0 0 0 0 0 0 0 1225.16 0 0 -1225.16 0 0 -852.545 0 0 852.545
0 0 0 0 0 0 0 0 -97.2139 0 0 97.2139 0 0 -1485.28 0 0 1485.28 0 0 0 0 0 0 0 0 1645.2 0 0 -1645.2 0 0 -982.283 0 0 982.283
0 0 0 0 0 0 0 0 297.052 0 0 -297.052 0 0 -1587.93 0 0 1587.93 0 0 0 0 0 0 0 0 2057.38 0 0 -2057.38 0 0 -1094.64 0 0 1094.64
0 0 0 0 0 0 0 0 675.092 0 0 -675.092 0 0 -1669.71 0 0 1669.71 0 0 0 0 0 0 0 0 2452.15 0 0 -2452.15 0 0 -1185.38 0 0 1185.38
0 0 0 0 0 0 0 0 1027.65 0 0 -1027.65 0 0 -1726.43 0 0 1726.43 0 0 0 0 0 0 0 0 2819.73 0 0 -2819.73 0 0 -1250.53 0 0 1250.53
0 0 0 0 0 0 0 0 1344.98 0 0 -1344.98 0 0 -1754.3 0 0 1754.3 0 0 0 0 0 0 0 0 3149.44 0 0 -3149.44 0 0 -1286.16 0 0 1286.16
0 0 0 0 0 0 0 0 1614 0 0 -1614 0 0 -1751.63 0 0 1751.63 0 0 0 0 0 0 0 0 3428.77 0 0 -3428.77 0 0 -1289.41 0 0 1289.41
0 0 0 0 0 0 0 0 1822.53 0 0 -1822.53 0 0 -1715.77 0 0 1715.77 0 0 0 0 0 0 0 0 3644.83 0 0 -3644.83 0 0 -1257.54 0 0 1257.54
0 0 0 0 0 0 0 0 1957.83 0 0 -1957.83 0 0 -1644.97 0 0 1644.97 0 0 0 0 0 0 0 0 3784.79 0 0 -3784.79 0 0 -1188.75 0 0 1188.75
0 0 0 0 0 0 0 0 2006.08 0 0 -2006.08 0 0 -1506.53 0 0 1506.53 0 0 0 0 0 0 0 0 3835 0 0 -3835 0 0 -1049.5 0 0 1049.5
0 0 0 0 0 0 0 0 1904.01 0 0 -1904.01 0 0 -1313.99 0 0 1313.99 0 0 0 0 0 0 0 0 3730.8 0 0 -3730.8 0 0 -851.961 0 0 851.961
0 0 0 0 0 0 0 0 1645.24 0 0 -1645.24 0 0 -1071.75 0 0 1071.75 0 0 0 0 0 0 0 0 3466.51 0 0 -3466.51 0 0 -600.689 0 0 600.689
0 0 0 0 0 0 0 0 1239.43 0 0 -1239.43 0 0 -787.918 0 0 787.918 0 0 0 0 0 0 0 0 3052.93 0 0 -3052.93 0 0 -304.364 0 0 304.364
0 0 0 0 0 0 0 0 714.321 0 0 -714.321 0 0 -473.639 0 0 473.639 0 0 0 0 0 0 0 0 2519.24 0 0 -2519.24 0 0 24.8766 0 0 -24.8766
0 0 0 0 0 0 0 0 116.028 0 0 -116.028 0 0 -144.861 0 0 144.861 0 0 0 0 0 0 0 0 1913.1 0 0 -1913.1 0 0 370.91 0 0 -370.91
0 0 0 0 0 0 0 0 -493.827 0 0 493.827 0 0 181.324 0 0 -181.324 0 0 0 0 0 0 0 0 1298.17 0 0 -1298.17 0 0 713.716 0 0 -713.716
0 0 0 0 0 0 0 0 -1043.01 0 0 1043.01 0 0 486.746 0 0 -486.746 0 0 0 0 0 0 0 0 748.249 0 0 -748.249 0 0 1033.98 0 0 -1033.98
0 0 0 0 0 0 0 0 -1459.05 0 0 1459.05 0 0 754.196 0 0 -754.196 0 0 0 0 0 0 0 0 337.401 0 0 -337.401 0 0 1312.36 0 0 -1312.36
0 0 0 0 0 0 0 0 -1681 0 0 1681 0 0 969.38 0 0 -969.38 0 0 0 0 0 0 0 0 127.704 0 0 -127.704 0 0 1533.48 0 0 -1533.48
0 0 0 0 0 0 0 0 -1667.41 0 0 1667.41 0 0 1122.53 0 0 -1122.53 0 0 0 0 0 0 0 0 161.254 0 0 -161.254 0 0 1686.27 0 0 -1686.27
0 0 0 0 0 0 0 0 -1398.32 0 0 1398.32 0 0 1208.85 0 0 -1208.85 0 0 0 0 0 0 0 0 458.322 0 0 -458.322 0 0 1765.66 0 0 -1765.66
0 0 0 0 0 0 0 0 -873.945 0 0 873.945 0 0 1228.72 0 0 -1228.72 0 0 0 0 0 0 0 0 1018.52 0 0 -1018.52 0 0 1772.03 0 0 -1772.03
0 0 0 0 0 0 0 0 -112.278 0 0 112.278 0 0 1187.54 0 0 -1187.54 0 0 0 0 0 0 0 0 1823.25 0 0 -1823.25 0 0 1711.35 0 0 -1711.35
0 0 0 0 0 0 0 0 854.84 0 0 -854.84 0 0 1095.07 0 0 -1095.07 0 0 0 0 0 0 0 0 2839.61 0 0 -2839.61 0 0 1594.21 0 0 -1594.21
0 0 0 0 0 0 0 0 1986.6 0 0 -1986.6 0 0 964.536 0 0 -964.536 0 0 0 0 0 0 0 0 4025.4 0 0 -4025.4 0 0 1434.99 0 0 -1434.99
0 0 0 0 0 0 0 0 3235.39 0 0 -3235.39 0 0 811.837 0 0 -811.837 0 0 0 0 0 0 0 0 5331.27 0 0 -5331.27 0 0 1250.87 0 0 -1250.87
0 0 0 0 0 0 0 0 4546.04 0 0 -4546.04 0 0 654.919 0 0 -654.919 0 0 0 0 0 0 0 0 6700.07 0 0 -6700.07 0 0 1061.25 0 0 -1061.25
0 0 0 0 0 0 0 0 5856.25 0 0 -5856.25 0 0 512.83 0 0 -512.83 0 0 0 0 0 0 0 0 8067.38 0 0 -8067.38 0 0 886.824 0 0 -886.824
0 0 0 0 0 0 0 0 7100.6 0 0 -7100.6 0 0 404.419 0 0 -404.419 0 0 0 0 0 0 0 0 9365.73 0 0 -9365.73 0 0 748.179 0 0 -748.179
0 0 0 0 0 0 0 0 8217.51 0 0 -8217.51 0 0 346.899 0 0 -346.899 0 0 0 0 0 0 0 0 10531.7 0 0 -10531.7 0 0 664.17 0 0 -664.17
0 0 0 0 0 0 0 0 9157.11 0 0 -9157.11 0 0 354.374 0 0 -354.374 0 0 0 0 0 0 0 0 11513.8 0 0 -11513.8 0 0 650.211 0 0 -650.211
0 0 0 0 0 0 0 0 9886.19 0 0 -9886.19 0 0 436.786 0 0 -436.786 0 0 0 0 0 0 0 0 12277.8 0 0 -12277.8 0 0 717.101 0 0 -717.101
0 0 0 0 0 0 0 0 10386.7 0 0 -10386.7 0 0 599.599 0 0 -599.599 0 0 0 0 0 0 0 0 12804.7 0 0 -12804.7 0 0 870.739 0 0 -870.739
0 0 0 0 0 0 0 0 10653.2 0 0 -10653.2 0 0 843.758 0 0 -843.758 0 0 0 0 0 0 0 0 13088.7 0 0 -13088.7 0 0 1112.21 0 0 -1112.21
0 0 0 0 0 0 0 0 10691.4 0 0 -10691.4 0 0 1165.73 0 0 -1165.73 0 0 0 0 0 0 0 0 13135.5 0 0 -13135.5 0 0 1437.83 0 0 -1437.83
0 0 0 0 0 0 0 0 10517.5 0 0 -10517.5 0 0 1557.78 0 0 -1557.78 0 0 0 0 0 0 0 0 12961.8 0 0 -12961.8 0 0 1839.41 0 0 -1839.41
0 0 0 0 0 0 0 0 10157.2 0 0 -10157.2 0 0 2008.36 0 0 -2008.36 0 0 0 0 0 0 0 0 12594.1 0 0 -12594.1 0 0 2304.65 0 0 -2304.65
0 0 0 0 0 0 0 0 9643.53 0 0 -9643.53 0 0 2502.73 0 0 -2502.73 0 0 0 0 0 0 0 0 12066.8 0 0 -12066.8 0 0 2817.83 0 0 -2817.83
0 0 0 0 0 0 0 0 9015.78 0 0 -9015.78 0 0 3023.62 0 0 -3023.62 0 0 0 0 0 0 0 0 11420.8 0 0 -11420.8 0 0 3360.55 0 0 -3360.55
0 0 0 0 0 0 0 0 8318.03 0 0 -8318.03 0 0 3552.03 0 0 -3552.03 0 0 0 0 0 0 0 0 10701.7 0 0 -10701.7 0 0 3912.51 0 0 -3912.51
0 0 0 0 0 0 0 0 7596.75 0 0 -7596.75 0 0 4068.15 0 0 -4068.15 0 0 0 0 0 0 0 0 9957.99 0 0 -9957.99 0 0 4452.54 0 0 -4452.54
0 0 0 0 0 0 0 0 6897.39 0 0 -6897.39 0 0 4552.44 0 0 -4552.44 0 0 0 0 0 0 0 0 9236.94 0 0 -9236.94 0 0 4959.73 0 0 -4959.73
0 0 0 0 0 0 0 0 6260.95 0 0 -6260.95 0 0 4986.6 0 0 -4986.6 0 0 0 0 0 0 0 0 8581.35 0 0 -8581.35 0 0 5414.54 0 0 -5414.54
0 0 0 0 0 0 0 0 5722.11 0 0 -5722.11 0 0 5354.37 0 0 -5354.37 0 0 0 0 0 0 0 0 8027.52 0 0 -8027.52 0 0 5799.62 0 0 -5799.62
0 0 0 0 0 0 0 0 5309.81 0 0 -5309.81 0 0 5642.08 0 0 -5642.08 0 0 0 0 0 0 0 0 7605.81 0 0 -7605.81 0 0 6100.44 0 0 -6100.44
0 0 0 0 0 0 0 0 5049.94 0 0 -5049.94 0 0 5838.86 0 0 -5838.86 0 0 0 0 0 0 0 0 7343.23 0 0 -7343.23 0 0 6305.42 0 0 -6305.42
0 0 0 0 0 0 0 0 4967.36 0 0 -4967.36 0 0 5937.01 0 0 -5937.01 0 0 0 0 0 0 0 0 7265.4 0 0 -7265.4 0 0 6406.19 0 0 -6406.19
0 0 0 0 0 0 0 0 5084.1 0 0 -5084.1 0 0 5932.46 0 0 -5932.46 0 0 0 0 0 0 0 0 7394.6 0 0 -7394.6 0 0 6398.18 0 0 -6398.18
0 0 0 0 0 0 0 0 5414.05 0 0 -5414.05 0 0 5825.5 0 0 -5825.5 0 0 0 0 0 0 0 0 7744.42 0 0 -7744.42 0 0 6281.41 0 0 -6281.41
0 0 0 0 0 0 0 0 5832.73 0 0 -5832.73 0 0 5669.45 0 0 -5669.45 0 0 0 0 0 0 0 0 8183.78 0 0 -8183.78 0 0 6113.03 0 0 -6113.03
0 0 0 0 0 0 0 0 6538.45 0 0 -6538.45 0 0 5394.34 0 0 -5394.34 0 0 0 0 0 0 0 0 8920.24 0 0 -8920.24 0 0 5817.39 0 0 -5817.39
0 0 0 0 0 0 0 0 7419.32 0 0 -7419.32 0 0 5043.53 0 0 -5043.53 0 0 0 0 0 0 0 0 9835.7 0 0 -9835.7 0 0 5441.25 0 0 -5441.25
0 0 0 0 0 0 0 0 8430.97 0 0 -8430.97 0 0 4635.21 0 0 -4635.21 0 0 0 0 0 0 0 0 10883.7 0 0 -10883.7 0 0 5004.13 0 0 -5004.13
0 0 0 0 0 0 0 0 9517.98 0 0 -9517.98 0 0 4190.62 0 0 -4190.62 0 0 0 0 0 0 0 0 12006.6 0 0 -12006.6 0 0 4528.93 0 0 -4528.93
0 0 0 0 0 0 0 0 10618.8 0 0 -10618.8 0 0 3732.89 0 0 -3732.89 0 0 0 0 0 0 0 0 13140.4 0 0 -13140.4 0 0 4040.52 0 0 -4040.52
0 0 0 0 0 0 0 0 11669 0 0 -11669 0 0 3285.77 0 0 -3285.77 0 0 0 0 0 0 0 0 14218.1 0 0 -14218.1 0 0 3564.47 0 0 -3564.47
0 0 0 0 0 0 0 0 12604.5 0 0 -12604.5 0 0 2872.35 0 0 -2872.35 0 0 0 0 0 0 0 0 15173.3 0 0 -15173.3 0 0 3125.65 0 0 -3125.65
0 0 0 0 0 0 0 0 13365.9 0 0 -13365.9 0 0 2513.73 0 0 -2513.73 0 0 0 0 0 0 0 0 15944.1 0 0 -15944.1 0 0 2746.83 0 0 -2746.83
0 0 0 0 0 0 0 0 13900.3 0 0 -13900.3 0 0 2228.03 0 0 -2228.03 0 0 0 0 0 0 0 0 16475.9 0 0 -16475.9 0 0 2447.56 0 0 -2447.56
0 0 0 0 0 0 0 0 14164.4 0 0 -14164.4 0 0 2029.34 0 0 -2029.34 0 0 0 0 0 0 0 0 16723.8 0 0 -16723.8 0 0 2243.12 0 0 -2243.12
0 0 0 0 0 0 0 0 14126.5 0 0 -14126.5 0 0 1926.96 0 0 -1926.96 0 0 0 0 0 0 0 0 16654.8 0 0 -16654.8 0 0 2143.62 0 0 -2143.62
0 0 0 0 0 0 0 0 13767.2 0 0 -13767.2 0 0 1924.9 0 0 -1924.9 0 0 0 0 0 0 0 0 16249.2 0 0 -16249.2 0 0 2153.55 0 0 -2153.55
0 0 0 0 0 0 0 0 13077 0 0 -13077 0 0 2021.89 0 0 -2021.89 0 0 0 0 0 0 0 0 15497.6 0 0 -15497.6 0 0 2271.73 0 0 -2271.73
0 0 0 0 0 0 0 0 12054.9 0 0 -12054.9 0 0 2211.42 0 0 -2211.42 0 0 0 0 0 0 0 0 14399.5 0 0 -14399.5 0 0 2491.46 0 0 -2491.46
0 0 0 0 0 0 0 0 10709.9 0 0 -10709.9 0 0 2481.6 0 0 -2481.6 0 0 0 0 0 0 0 0 12965.4 0 0 -12965.4 0 0 2800.43 0 0 -2800.43
0 0 0 0 0 0 0 0 9067.29 0 0 -9067.29 0 0 2815.01 0 0 -2815.01 0 0 0 0 0 0 0 0 11222.5 0 0 -11222.5 0 0 3180.37 0 0 -3180.37
0 0 0 0 0 0 0 0 7169.6 0 0 -7169.6 0 0 3189.25 0 0 -3189.25 0 0 0 0 0 0 0 0 9215.97 0 0 -9215.97 0 0 3607.44 0 0 -3607.44
0 0 0 0 0 0 0 0 5073.69 0 0 -5073.69 0 0 3577.91 0 0 -3577.91 0 0 0 0 0 0 0 0 7005.54 0 0 -7005.54 0 0 4053.41 0 0 -4053.41
0 0 0 0 0 0 0 0 2847.25 0 0 -2847.25 0 0 3951.75 0 0 -3951.75 0 0 0 0 0 0 0 0 4662.13 0 0 -4662.13 0 0 4486.98 0 0 -4486.98
0 0 0 0 0 0 0 0 565.816 0 0 -565.816 0 0 4280.04 0 0 -4280.04 0 0 0 0 0 0 0 0 2264.71 0 0 -2264.71 0 0 4875.23 0 0 -4875.23
0 0 0 0 0 0 0 0 -1689.74 0 0 1689.74 0 0 4532.02 0 0 -4532.02 0 0 0 0 0 0 0 0 -102.402 0 0 102.402 0 0 5185.07 0 0 -5185.07
0 0 0 0 0 0 0 0 -3822.89 0 0 3822.89 0 0 4677.09 0 0 -4677.09 0 0 0 0 0 0 0 0 -2350.21 0 0 2350.21 0 0 5384.71 0 0 -5384.71
0 0 0 0 0 0 0 0 -5756.06 0 0 5756.06 0 0 4698.82 0 0 -4698.82 0 0 0 0 0 0 0 0 -4377.44 0 0 4377.44 0 0 5445.54 0 0 -5445.54
0 0 0 0 0 0 0 0 -7411.1 0 0 7411.1 0 0 4568.09 0 0 -4568.09 0 0 0 0 0 0 0 0 -6110.81 0 0 6110.81 0 0 5350.35 0 0 -5350.35
0 0 0 0 0 0 0 0 -8731.43 0 0 8731.43 0 0 4267.56 0 0 -4267.56 0 0 0 0 0 0 0 0 -7495.57 0 0 7495.57 0 0 5079.35 0 0 -5079.35
0 0 0 0 0 0 0 0 -9681.18 0 0 9681.18 0 0 3791.34 0 0 -3791.34 0 0 0 0 0 0 0 0 -8491.07 0 0 8491.07 0 0 4616.77 0 0 -4616.77
0 0 0 0 0 0 0 0 -10247.7 0 0 10247.7 0 0 3138.5 0 0 -3138.5 0 0 0 0 0 0 0 0 -9088.53 0 0 9088.53 0 0 3966.89 0 0 -3966.89
0 0 0 0 0 0 0 0 -10444.3 0 0 10444.3 0 0 2319.12 0 0 -2319.12 0 0 0 0 0 0 0 0 -9299.46 0 0 9299.46 0 0 3140.45 0 0 -3140.45
0 0 0 0 0 0 0 0 -10300 0 0 10300 0 0 1351.3 0 0 -1351.3 0 0 0 0 0 0 0 0 -9153.93 0 0 9153.93 0 0 2154.03 0 0 -2154.03
0 0 0 0 0 0 0 0 -9851.19 0 0 9851.19 0 0 261.849 0 0 -261.849 0 0 0 0 0 0 0 0 -8690.5 0 0 8690.5 0 0 1036.61 0 0 -1036.61
0 0 0 0 0 0 0 0 -9140.4 0 0 9140.4 0 0 -926.321 0 0 926.321 0 0 0 0 0 0 0 0 -7954.06 0 0 7954.06 0 0 -185.804 0 0 185.804
0 0 0 0 0 0 0 0 -8220.71 0 0 8220.71 0 0 -2178.6 0 0 2178.6 0 0 0 0 0 0 0 0 -6999.49 0 0 6999.49 0 0 -1478.46 0 0 1478.46
0 0 0 0 0 0 0 0 -7154.75 0 0 7154.75 0 0 -3458.18 0 0 3458.18 0 0 0 0 0 0 0 0 -5893.61 0 0 5893.61 0 0 -2802.54 0 0 2802.54
0 0 0 0 0 0 0 0 -6011.95 0 0 6011.95 0 0 -4726.85 0 0 4726.85 0 0 0 0 0 0 0 0 -4708.88 0 0 4708.88 0 0 -4117.23 0 0 4117.23
0 0 0 0 0 0 0 0 -4864 0 0 4864 0 0 -5945.61 0 0 5945.61 0 0 0 0 0 0 0 0 -3520.39 0 0 3520.39 0 0 -5380.27 0 0 5380.27
0 0 0 0 0 0 0 0 -3781.64 0 0 3781.64 0 0 -7075.78 0 0 7075.78 0 0 0 0 0 0 0 0 -2402.6 0 0 2402.6 0 0 -6551.74 0 0 6551.74
0 0 0 0 0 0 0 0 -2833.45 0 0 2833.45 0 0 -8081.45 0 0 8081.45 0 0 0 0 0 0 0 0 -1427.21 0 0 1427.21 0 0 -7593.33 0 0 7593.33
0 0 0 0 0 0 0 0 -2085.04 0 0 2085.04 0 0 -8930.57 0 0 8930.57 0 0 0 0 0 0 0 0 -662.853 0 0 662.853 0 0 -8470.84 0 0 8470.84
0 0 0 0 0 0 0 0 -1599.59 0 0 1599.59 0 0 -9595.72 0 0 9595.72 0 0 0 0 0 0 0 0 -175.248 0 0 175.248 0 0 -9154.92 0 0 9154.92
0 0 0 0 0 0 0 0 -1437.27 0 0 1437.27 0 0 -10055 0 0 10055 0 0 0 0 0 0 0 0 -26.6227 0 0 26.6227 0 0 -9622.23 0 0 9622.23
0 0 0 0 0 0 0 0 -1650.91 0 0 1650.91 0 0 -10294 0 0 10294 0 0 0 0 0 0 0 0 -271.155 0 0 271.155 0 0 -9856.94 0 0 9856.94
0 0 0 0 0 0 0 0 -2277.64 0 0 2277.64 0 0 -10306.7 0 0 10306.7 0 0 0 0 0 0 0 0 -946.477 0 0 946.477 0 0 -9852.11 0 0 9852.11
0 0 0 0 0 0 0 0 -3331.19 0 0 3331.19 0 0 -10096.6 0 0 10096.6 0 0 0 0 0 0 0 0 -2065.87 0 0 2065.87 0 0 -9611.16 0 0 9611.16
0 0 0 0 0 0 0 0 -4797.74 0 0 4797.74 0 0 -9677.41 0 0 9677.41 0 0 0 0 0 0 0 0 -3614.19 0 0 3614.19 0 0 -9148.26 0 0 9148.26
0 0 0 0 0 0 0 0 -6634.67 0 0 6634.67 0 0 -9072.23 0 0 9072.23 0 0 0 0 0 0 0 0 -5546.52 0 0 5546.52 0 0 -8488.05 0 0 8488.05
0 0 0 0 0 0 0 0 -8772.81 0 0 8772.81 0 0 -8313.04 0 0 8313.04 0 0 0 0 0 0 0 0 -7790.63 0 0 7790.63 0 0 -7664.55 0 0 7664.55
0 0 0 0 0 0 0 0 -11121 0 0 11121 0 0 -7438.87 0 0 7438.87 0 0 0 0 0 0 0 0 -10251.6 0 0 10251.6 0 0 -6719.46 0 0 6719.46
0 0 0 0 0 0 0 0 -13571.5 0 0 13571.5 0 0 -6493.78 0 0 6493.78 0 0 0 0 0 0 0 0 -12817.6 0 0 12817.6 0 0 -5700.04 0 0 5700.04
0 0 0 0 0 0 0 0 -16008.2 0 0 16008.2 0 0 -5524.56 0 0 5524.56 0 0 0 0 0 0 0 0 -15368.1 0 0 15368.1 0 0 -4656.46 0 0 4656.46
0 0 0 0 0 0 0 0 -18315.6 0 0 18315.6 0 0 -4577.98 0 0 4577.98 0 0 0 0 0 0 0 0 -17783.1 0 0 17783.1 0 0 -3638.89 0 0 3638.89
0 0 0 0 0 0 0 0 -20386.4 0 0 20386.4 0 0 -3698.39 0 0 3698.39 0 0 0 0 0 0 0 0 -19951.3 0 0 19951.3 0 0 -2694.88 0 0 2694.88
0 0 0 0 0 0 0 0 -22126.7 0 0 22126.7 0 0 -2925.58 0 0 2925.58 0 0 0 0 0 0 0 0 -21775 0 0 21775 0 0 -1867.03 0 0 1867.03
0 0 0 0 0 0 0 0 -23459.6 0 0 23459.6 0 0 -2292.92 0 0 2292.92 0 0 0 0 0 0 0 0 -23174.4 0 0 23174.4 0 0 -1191.06 0 0 1191.06
0 0 0 0 0 0 0 0 -24121.9 0 0 24121.9 0 0 -1852.82 0 0 1852.82 0 0 0 0 0 0 0 0 -24032.6 0 0 24032.6 0 0 -698.451 0 0 698.451
0 0 0 0 0 0 0 0 -24151.7 0 0 24151.7 0 0 -1612.3 0 0 1612.3 0 0 0 0 0 0 0 0 -24390.9 0 0 24390.9 0 0 -393.606 0 0 393.606
0 0 0 0 0 0 0 0 -23833.3 0 0 23833.3 0 0 -1537.32 0 0 1537.32 0 0 0 0 0 0 0 0 -24244.1 0 0 24244.1 0 0 -291.305 0 0 291.305
0 0 0 0 0 0 0 0 -23163.2 0 0 23163.2 0 0 -1627.6 0 0 1627.6 0 0 0 0 0 0 0 0 -23620.5 0 0 23620.5 0 0 -387.82 0 0 387.82
0 0 0 0 0 0 0 0 -22061.1 0 0 22061.1 0 0 -1889.64 0 0 1889.64 0 0 0 0 0 0 0 0 -22563.4 0 0 22563.4 0 0 -662.865 0 0 662.865
0 0 0 0 0 0 0 0 -20930.7 0 0 20930.7 0 0 -2264.11 0 0 2264.11 0 0 0 0 0 0 0 0 -21462.2 0 0 21462.2 0 0 -1066.13 0 0 1066.13
0 0 0 0 0 0 0 0 -19629 0 0 19629 0 0 -2766.55 0 0 2766.55 0 0 0 0 0 0 0 0 -20136.6 0 0 20136.6 0 0 -1594.47 0 0 1594.47
0 0 0 0 0 0 0 0 -18062.5 0 0 18062.5 0 0 -3371.06 0 0 3371.06 0 0 0 0 0 0 0 0 -18561.6 0 0 18561.6 0 0 -2230.68 0 0 2230.68
0 0 0 0 0 0 0 0 -16310.4 0 0 16310.4 0 0 -4044.64 0 0 4044.64 0 0 0 0 0 0 0 0 -16808 0 0 16808 0 0 -2946.76 0 0 2946.76
0 0 0 0 0 0 0 0 -14446.4 0 0 14446.4 0 0 -4757.95 0 0 4757.95 0 0 0 0 0 0 0 0 -14921.8 0 0 14921.8 0 0 -3706.31 0 0 3706.31
0 0 0 0 0 0 0 0 -12522.8 0 0 12522.8 0 0 -5481.48 0 0 5481.48 0 0 0 0 0 0 0 0 -12993.3 0 0 12993.3 0 0 -4471.67 0 0 4471.67
0 0 0 0 0 0 0 0 -10619.7 0 0 10619.7 0 0 -6176.15 0 0 6176.15 0 0 0 0 0 0 0 0 -11084.9 0 0 11084.9 0 0 -5207.43 0 0 5207.43
0 0 0 0 0 0 0 0 -8811.46 0 0 8811.46 0 0 -6806.38 0 0 6806.38 0 0 0 0 0 0 0 0 -9270.8 0 0 9270.8 0 0 -5878.81 0 0 5878.81
0 0 0 0 0 0 0 0 -7159.22 0 0 7159.22 0 0 -7343.4 0 0 7343.4 0 0 0 0 0 0 0 0 -7617.85 0 0 7617.85 0 0 -6451.15 0 0 6451.15
0 0 0 0 0 0 0 0 -5724.79 0 0 5724.79 0 0 -7759.41 0 0 7759.41 0 0 0 0 0 0 0 0 -6186.65 0 0 6186.65 0 0 -6895.36 0 0 6895.36
0 0 0 0 0 0 0 0 -4560.24 0 0 4560.24 0 0 -8029.97 0 0 8029.97 0 0 0 0 0 0 0 0 -5027.7 0 0 5027.7 0 0 -7187.61 0 0 7187.61
0 0 0 0 0 0 0 0 -3703.58 0 0 3703.58 0 0 -8137.97 0 0 8137.97 0 0 0 0 0 0 0 0 -4183.03 0 0 4183.03 0 0 -7309.48 0 0 7309.48
0 0 0 0 0 0 0 0 -3183.45 0 0 3183.45 0 0 -8073.36 0 0 8073.36 0 0 0 0 0 0 0 0 -3680.83 0 0 3680.83 0 0 -7249.25 0 0 7249.25
0 0 0 0 0 0 0 0 -3016.01 0 0 3016.01 0 0 -7832.25 0 0 7832.25 0 0 0 0 0 0 0 0 -3536.83 0 0 3536.83 0 0 -7002.81 0 0 7002.81
0 0 0 0 0 0 0 0 -3203.63 0 0 3203.63 0 0 -7417.43 0 0 7417.43 0 0 0 0 0 0 0 0 -3753.64 0 0 3753.64 0 0 -6573.58 0 0 6573.58
0 0 0 0 0 0 0 0 -3736.4 0 0 3736.4 0 0 -6839.16 0 0 6839.16 0 0 0 0 0 0 0 0 -4320.1 0 0 4320.1 0 0 -5972.31 0 0 5972.31
0 0 0 0 0 0 0 0 -4612.49 0 0 4612.49 0 0 -6112.94 0 0 6112.94 0 0 0 0 0 0 0 0 -5239.08 0 0 5239.08 0 0 -5214.36 0 0 5214.36
0 0 0 0 0 0 0 0 -5864.82 0 0 5864.82 0 0 -5257.11 0 0 5257.11 0 0 0 0 0 0 0 0 -6557.03 0 0 6557.03 0 0 -4314.54 0 0 4314.54
0 0 0 0 0 0 0 0 -7446.85 0 0 7446.85 0 0 -4303.02 0 0 4303.02 0 0 0 0 0 0 0 0 -8213.16 0 0 8213.16 0 0 -3307.19 0 0 3307.19
0 0 0 0 0 0 0 0 -9279.94 0 0 9279.94 0 0 -3287.37 0 0 3287.37 0 0 0 0 0 0 0 0 -10127.2 0 0 10127.2 0 0 -2231.76 0 0 2231.76
0 0 0 0 0 0 0 0 -11268.2 0 0 11268.2 0 0 -2251.92 0 0 2251.92 0 0 0 0 0 0 0 0 -12200.9 0 0 12200.9 0 0 -1133.28 0 0 1133.28
0 0 0 0 0 0 0 0 -12899.1 0 0 12899.1 0 0 -1439.5 0 0 1439.5 0 0 0 0 0 0 0 0 -13899.6 0 0 13899.6 0 0 -270.053 0 0 270.053
0 0 0 0 0 0 0 0 -14504.1 0 0 14504.1 0 0 -666.473 0 0 666.473 0 0 0 0 0 0 0 0 -15569.5 0 0 15569.5 0 0 552.618 0 0 -552.618
0 0 0 0 0 0 0 0 -16026.5 0 0 16026.5 0 0 44.9082 0 0 -44.9082 0 0 0 0 0 0 0 0 -17152.2 0 0 17152.2 0 0 1310.72 0 0 -1310.72
0 0 0 0 0 0 0 0 -17413.3 0 0 17413.3 0 0 673.985 0 0 -673.985 0 0 0 0 0 0 0 0 -18592.7 0 0 18592.7 0 0 1981.77 0 0 -1981.77
0 0 0 0 0 0 0 0 -18616.5 0 0 18616.5 0 0 1202.07 0 0 -1202.07 0 0 0 0 0 0 0 0 -19840.7 0 0 19840.7 0 0 2545.64 0 0 -2545.64
0 0 0 0 0 0 0 0 -19594.2 0 0 19594.2 0 0 1613.08 0 0 -1613.08 0 0 0 0 0 0 0 0 -20853.1 0 0 20853.1 0 0 2985.22 0 0 -2985.22
0 0 0 0 0 0 0 0 -20313.5 0 0 20313.5 0 0 1894.39 0 0 -1894.39 0 0 0 0 0 0 0 0 -21595.5 0 0 21595.5 0 0 3286.96 0 0 -3286.96
0 0 0 0 0 0 0 0 -20751.5 0 0 20751.5 0 0 2037.3 0 0 -2037.3 0 0 0 0 0 0 0 0 -22044.3 0 0 22044.3 0 0 3441.37 0 0 -3441.37
0 0 0 0 0 0 0 0 -20897.4 0 0 20897.4 0 0 2037.21 0 0 -2037.21 0 0 0 0 0 0 0 0 -22188 0 0 22188 0 0 3443.38 0 0 -3443.38
0 0 0 0 0 0 0 0 -20751.6 0 0 20751.6 0 0 1893.57 0 0 -1893.57 0 0 0 0 0 0 0 0 -22026.9 0 0 22026.9 0 0 3292.46 0 0 -3292.46
0 0 0 0 0 0 0 0 -20325.3 0 0 20325.3 0 0 1609.89 0 0 -1609.89 0 0 0 0 0 0 0 0 -21572.3 0 0 21572.3 0 0 2992.5 0 0 -2992.5
0 0 0 0 0 0 0 0 -19637.7 0 0 19637.7 0 0 1193.41 0 0 -1193.41 0 0 0 0 0 0 0 0 -20844.1 0 0 20844.1 0 0 2551.32 0 0 -2551.32
0 0 0 0 0 0 0 0 -18713.3 0 0 18713.3 0 0 654.715 0 0 -654.715 0 0 0 0 0 0 0 0 -19867.5 0 0 19867.5 0 0 1980.2 0 0 -1980.2
0 0 0 0 0 0 0 0 -17579.4 0 0 17579.4 0 0 7.15844 0 0 -7.15844 0 0 0 0 0 0 0 0 -18670.8 0 0 18670.8 0 0 1293.35 0 0 -1293.35
0 0 0 0 0 0 0 0 -16264.6 0 0 16264.6 0 0 -733.552 0 0 733.552 0 0 0 0 0 0 0 0 -17283.9 0 0 17283.9 0 0 507.421 0 0 -507.421
0 0 0 0 0 0 0 0 -14798.7 0 0 14798.7 0 0 -1549.69 0 0 1549.69 0 0 0 0 0 0 0 0 -15738 0 0 15738 0 0 -358.828 0 0 358.828
0 0 0 0 0 0 0 0 -13214.2 0 0 13214.2 0 0 -2421.74 0 0 2421.74 0 0 0 0 0 0 0 0 -14067.1 0 0 14067.1 0 0 -1284.8 0 0 1284.8
0 0 0 0 0 0 0 0 -11546.8 0 0 11546.8 0 0 -3328.73 0 0 3328.73 0 0 0 0 0 0 0 0 -12308.8 0 0 12308.8 0 0 -2248.35 0 0 2248.35
0 0 0 0 0 0 0 0 -9835.69 0 0 9835.69 0 0 -4248.74 0 0 4248.74 0 0 0 0 0 0 0 0 -10504.2 0 0 10504.2 0 0 -3226.23 0 0 3226.23
0 0 0 0 0 0 0 0 -8121.87 0 0 8121.87 0 0 -5159.46 0 0 5159.46 0 0 0 0 0 0 0 0 -8696.08 0 0 8696.08 0 0 -4194.78 0 0 4194.78
0 0 0 0 0 0 0 0 -6445.7 0 0 6445.7 0 0 -6038.87 0 0 6038.87 0 0 0 0 0 0 0 0 -6926.79 0 0 6926.79 0 0 -5130.6 0 0 5130.6
0 0 0 0 0 0 0 0 -4845.54 0 0 4845.54 0 0 -6865.77 0 0 6865.77 0 0 0 0 0 0 0 0 -5236.45 0 0 5236.45 0 0 -6011.26 0 0 6011.26
0 0 0 0 0 0 0 0 -3356.79 0 0 3356.79 0 0 -7620.28 0 0 7620.28 0 0 0 0 0 0 0 0 -3662.12 0 0 3662.12 0 0 -6815.76 0 0 6815.76
0 0 0 0 0 0 0 0 -2011.33 0 0 2011.33 0 0 -8284.38 0 0 8284.38 0 0 0 0 0 0 0 0 -2237.18 0 0 2237.18 0 0 -7525.05 0 0 7525.05
0 0 0 0 0 0 0 0 -836.687 0 0 836.687 0 0 -8842.32 0 0 8842.32 0 0 0 0 0 0 0 0 -990.454 0 0 990.454 0 0 -8122.47 0 0 8122.47
0 0 0 0 0 0 0 0 145.012 0 0 -145.012 0 0 -9280.99 0 0 9280.99 0 0 0 0 0 0 0 0 54.848 0 0 -54.848 0 0 -8594.19 0 0 8594.19
0 0 0 0 0 0 0 0 918.015 0 0 -918.015 0 0 -9590.3 0 0 9590.3 0 0 0 0 0 0 0 0 882.19 0 0 -882.19 0 0 -8929.56 0 0 8929.56
0 0 0 0 0 0 0 0 1473.58 0 0 -1473.58 0 0 -9763.33 0 0 9763.33 0 0 0 0 0 0 0 0 1482.33 0 0 -1482.33 0 0 -9121.37 0 0 9121.37
0 0 0 0 0 0 0 0 1810.11 0 0 -1810.11 0 0 -9796.52 0 0 9796.52 0 0 0 0 0 0 0 0 1853.45 0 0 -1853.45 0 0 -9165.96 0 0 9165.96
0 0 0 0 0 0 0 0 1933.14 0 0 -1933.14 0 0 -9689.69 0 0 9689.69 0 0 0 0 0 0 0 0 2001.18 0 0 -2001.18 0 0 -9063.24 0 0 9063.24
0 0 0 0 0 0 0 0 1855.02 0 0 -1855.02 0 0 -9445.92 0 0 9445.92 0 0 0 0 0 0 0 0 1938.21 0 0 -1938.21 0 0 -8816.61 0 0 8816.61
0 0 0 0 0 0 0 0 1594.31 0 0 -1594.31 0 0 -9071.43 0 0 9071.43 0 0 0 0 0 0 0 0 1683.76 0 0 -1683.76 0 0 -8432.79 0 0 8432.79
0 0 0 0 0 0 0 0 1175.31 0 0 -1175.31 0 0 -8575.29 0 0 8575.29 0 0 0 0 0 0 0 0 1262.95 0 0 -1262.95 0 0 -7921.53 0 0 7921.53
0 0 0 0 0 0 0 0 629.121 0 0 -629.121 0 0 -7969.27 0 0 7969.27 0 0 0 0 0 0 0 0 706.121 0 0 -706.121 0 0 -7295.29 0 0 7295.29
0 0 0 0 0 0 0 0 134.514 0 0 -134.514 0 0 -7278.36 0 0 7278.36 0 0 0 0 0 0 0 0 298.024 0 0 -298.024 0 0 -6597.08 0 0 6597.08
0 0 0 0 0 0 0 0 -397.272 0 0 397.272 0 0 -6503.8 0 0 6503.8 0 0 0 0 0 0 0 0 -198.008 0 0 198.008 0 0 -5810.45 0 0 5810.45
0 0 0 0 0 0 0 0 -956.138 0 0 956.138 0 0 -5661.68 0 0 5661.68 0 0 0 0 0 0 0 0 -728.429 0 0 728.429 0 0 -4949.01 0 0 4949.01
0 0 0 0 0 0 0 0 -1533.63 0 0 1533.63 0 0 -4766.93 0 0 4766.93 0 0 0 0 0 0 0 0 -1309.72 0 0 1309.72 0 0 -4033.92 0 0 4033.92
0 0 0 0 0 0 0 0 -2119.85 0 0 2119.85 0 0 -3833.89 0 0 3833.89 0 0 0 0 0 0 0 0 -1888.49 0 0 1888.49 0 0 -3076.82 0 0 3076.82
0 0 0 0 0 0 0 0 -2681.28 0 0 2681.28 0 0 -2877.46 0 0 2877.46 0 0 0 0 0 0 0 0 -2442.79 0 0 2442.79 0 0 -2095.9 0 0 2095.9
0 0 0 0 0 0 0 0 -3197.11 0 0 3197.11 0 0 -1912.72 0 0 1912.72 0 0 0 0 0 0 0 0 -2954.76 0 0 2954.76 0 0 -1108.6 0 0 1108.6
0 0 0 0 0 0 0 0 -3654.49 0 0 3654.49 0 0 -955.289 0 0 955.289 0 0 0 0 0 0 0 0 -3405.64 0 0 3405.64 0 0 -131.059 0 0 131.059
0 0 0 0 0 0 0 0 -4036.04 0 0 4036.04 0 0 -20.9969 0 0 20.9969 0 0 0 0 0 0 0 0 -3774.86 0 0 3774.86 0 0 822.054 0 0 -822.054
0 0 0 0 0 0 0 0 -4323.51 0 0 4323.51 0 0 879.782 0 0 -879.782 0 0 0 0 0 0 0 0 -4045.05 0 0 4045.05 0 0 1738.75 0 0 -1738.75
0 0 0 0 0 0 0 0 -4502.23 0 0 4502.23 0 0 1730.38 0 0 -1730.38 0 0 0 0 0 0 0 0 -4200.18 0 0 4200.18 0 0 2603.9 0 0 -2603.9
0 0 0 0 0 0 0 0 -4560.78 0 0 4560.78 0 0 2521.12 0 0 -2521.12 0 0 0 0 0 0 0 0 -4224.41 0 0 4224.41 0 0 3406.61 0 0 -3406.61
0 0 0 0 0 0 0 0 -4486.62 0 0 4486.62 0 0 3241.58 0 0 -3241.58 0 0 0 0 0 0 0 0 -4108.04 0 0 4108.04 0 0 4131.86 0 0 -4131.86
0 0 0 0 0 0 0 0 -4268.08 0 0 4268.08 0 0 3886.78 0 0 -3886.78 0 0 0 0 0 0 0 0 -3838.89 0 0 3838.89 0 0 4774.43 0 0 -4774.43
0 0 0 0 0 0 0 0 -3901.51 0 0 3901.51 0 0 4445.4 0 0 -4445.4 0 0 0 0 0 0 0 0 -3410.91 0 0 3410.91 0 0 5326.61 0 0 -5326.61
0 0 0 0 0 0 0 0 -3383.74 0 0 3383.74 0 0 4913.61 0 0 -4913.61 0 0 0 0 0 0 0 0 -2822.2 0 0 2822.2 0 0 5783.52 0 0 -5783.52
0 0 0 0 0 0 0 0 -2716.34 0 0 2716.34 0 0 5289.86 0 0 -5289.86 0 0 0 0 0 0 0 0 -2074.72 0 0 2074.72 0 0 6142.39 0 0 -6142.39
0 0 0 0 0 0 0 0 -1905.44 0 0 1905.44 0 0 5573.94 0 0 -5573.94 0 0 0 0 0 0 0 0 -1174.58 0 0 1174.58 0 0 6403.16 0 0 -6403.16
0 0 0 0 0 0 0 0 -961.212 0 0 961.212 0 0 5767.23 0 0 -5767.23 0 0 0 0 0 0 0 0 -132.14 0 0 132.14 0 0 6568.3 0 0 -6568.3
0 0 0 0 0 0 0 0 103.216 0 0 -103.216 0 0 5873.46 0 0 -5873.46 0 0 0 0 0 0 0 0 1038.6 0 0 -1038.6 0 0 6642.31 0 0 -6642.31
0 0 0 0 0 0 0 0 1272.16 0 0 -1272.16 0 0 5898.72 0 0 -5898.72 0 0 0 0 0 0 0 0 2320.93 0 0 -2320.93 0 0 6631.36 0 0 -6631.36
0 0 0 0 0 0 0 0 2528 0 0 -2528 0 0 5850.62 0 0 -5850.62 0 0 0 0 0 0 0 0 3696.2 0 0 -3696.2 0 0 6543.23 0 0 -6543.23
0 0 0 0 0 0 0 0 3851.95 0 0 -3851.95 0 0 5737.71 0 0 -5737.71 0 0 0 0 0 0 0 0 5144.18 0 0 -5144.18 0 0 6387.28 0 0 -6387.28
0 0 0 0 0 0 0 0 5224.22 0 0 -5224.22 0 0 5569.5 0 0 -5569.5 0 0 0 0 0 0 0 0 6643.32 0 0 -6643.32 0 0 6174.13 0 0 -6174.13
0 0 0 0 0 0 0 0 6623.8 0 0 -6623.8 0 0 5356.69 0 0 -5356.69 0 0 0 0 0 0 0 0 8170.71 0 0 -8170.71 0 0 5915.32 0 0 -5915.32
0 0 0 0 0 0 0 0 8028.63 0 0 -8028.63 0 0 5110.86 0 0 -5110.86 0 0 0 0 0 0 0 0 9702.42 0 0 -9702.42 0 0 5623.05 0 0 -5623.05
0 0 0 0 0 0 0 0 9416.27 0 0 -9416.27 0 0 4843.89 0 0 -4843.89 0 0 0 0 0 0 0 0 11214 0 0 -11214 0 0 5309.95 0 0 -5309.95
0 0 0 0 0 0 0 0 10764.1 0 0 -10764.1 0 0 4567.61 0 0 -4567.61 0 0 0 0 0 0 0 0 12680.9 0 0 -12680.9 0 0 4988.82 0 0 -4988.82
0 0 0 0 0 0 0 0 12049.6 0 0 -12049.6 0 0 4293.73 0 0 -4293.73 0 0 0 0 0 0 0 0 14078.7 0 0 -14078.7 0 0 4672.33 0 0 -4672.33
0 0 0 0 0 0 0 0 13250.2 0 0 -13250.2 0 0 4033.66 0 0 -4033.66 0 0 0 0 0 0 0 0 15383.1 0 0 -15383.1 0 0 4372.65 0 0 -4372.65
0 0 0 0 0 0 0 0 14344.3 0 0 -14344.3 0 0 3798.16 0 0 -3798.16 0 0 0 0 0 0 0 0 16571.1 0 0 -16571.1 0 0 4101.2 0 0 -4101.2
0 0 0 0 0 0 0 0 15311.3 0 0 -15311.3 0 0 3597.01 0 0 -3597.01 0 0 0 0 0 0 0 0 17620.8 0 0 -17620.8 0 0 3868.39 0 0 -3868.39
0 0 0 0 0 0 0 0 16132.1 0 0 -16132.1 0 0 3438.71 0 0 -3438.71 0 0 0 0 0 0 0 0 18512.3 0 0 -18512.3 0 0 3683.37 0 0 -3683.37
0 0 0 0 0 0 0 0 16789.6 0 0 -16789.6 0 0 3330.36 0 0 -3330.36 0 0 0 0 0 0 0 0 19227.9 0 0 -19227.9 0 0 3553.71 0 0 -3553.71
0 0 0 0 0 0 0 0 17269.2 0 0 -17269.2 0 0 3277.45 0 0 -3277.45 0 0 0 0 0 0 0 0 19752.7 0 0 -19752.7 0 0 3485.23 0 0 -3485.23
0 0 0 0 0 0 0 0 17559.4 0 0 -17559.4 0 0 3283.61 0 0 -3283.61 0 0 0 0 0 0 0 0 20075.5 0 0 -20075.5 0 0 3481.75 0 0 -3481.75
0 0 0 0 0 0 0 0 17653.2 0 0 -17653.2 0 0 3350.44 0 0 -3350.44 0 0 0 0 0 0 0 0 20189.6 0 0 -20189.6 0 0 3544.94 0 0 -3544.94
0 0 0 0 0 0 0 0 17548.1 0 0 -17548.1 0 0 3477.38 0 0 -3477.38 0 0 0 0 0 0 0 0 20093 0 0 -20093 0 0 3674.2 0 0 -3674.2
0 0 0 0 0 0 0 0 17245.4 0 0 -17245.4 0 0 3661.87 0 0 -3661.87 0 0 0 0 0 0 0 0 19788.6 0 0 -19788.6 0 0 3866.7 0 0 -3866.7
0 0 0 0 0 0 0 0 16749.4 0 0 -16749.4 0 0 3899.52 0 0 -3899.52 0 0 0 0 0 0 0 0 19283.4 0 0 -19283.4 0 0 4117.39 0 0 -4117.39
0 0 0 0 0 0 0 0 16071.1 0 0 -16071.1 0 0 4183.68 0 0 -4183.68 0 0 0 0 0 0 0 0 18589.9 0 0 -18589.9 0 0 4419.03 0 0 -4419.03
0 0 0 0 0 0 0 0 15226.5 0 0 -15226.5 0 0 4505.66 0 0 -4505.66 0 0 0 0 0 0 0 0 17724.9 0 0 -17724.9 0 0 4762.57 0 0 -4762.57
0 0 0 0 0 0 0 0 14236.1 0 0 -14236.1 0 0 4855.22 0 0 -4855.22 0 0 0 0 0 0 0 0 16709.6 0 0 -16709.6 0 0 5137.13 0 0 -5137.13
0 0 0 0 0 0 0 0 13124.1 0 0 -13124.1 0 0 5220.72 0 0 -5220.72 0 0 0 0 0 0 0 0 15569.9 0 0 -15569.9 0 0 5530.28 0 0 -5530.28
0 0 0 0 0 0 0 0 11918.9 0 0 -11918.9 0 0 5589.4 0 0 -5589.4 0 0 0 0 0 0 0 0 14335.6 0 0 -14335.6 0 0 5928.37 0 0 -5928.37
0 0 0 0 0 0 0 0 10652.8 0 0 -10652.8 0 0 5947.67 0 0 -5947.67 0 0 0 0 0 0 0 0 13039.6 0 0 -13039.6 0 0 6316.97 0 0 -6316.97
0 0 0 0 0 0 0 0 9359.75 0 0 -9359.75 0 0 6281.62 0 0 -6281.62 0 0 0 0 0 0 0 0 11717.2 0 0 -11717.2 0 0 6681.24 0 0 -6681.24
0 0 0 0 0 0 0 0 8074.47 0 0 -8074.47 0 0 6577.47 0 0 -6577.47 0 0 0 0 0 0 0 0 10404.1 0 0 -10404.1 0 0 7006.46 0 0 -7006.46
0 0 0 0 0 0 0 0 6831.18 0 0 -6831.18 0 0 6822.01 0 0 -6822.01 0 0 0 0 0 0 0 0 9135.46 0 0 -9135.46 0 0 7278.49 0 0 -7278.49
0 0 0 0 0 0 0 0 5662.53 0 0 -5662.53 0 0 7003 0 0 -7003 0 0 0 0 0 0 0 0 7944.88 0 0 -7944.88 0 0 7484.24 0 0 -7484.24
0 0 0 0 0 0 0 0 4598.79 0 0 -4598.79 0 0 7109.55 0 0 -7109.55 0 0 0 0 0 0 0 0 6863.49 0 0 -6863.49 0 0 7612.02 0 0 -7612.02
0 0 0 0 0 0 0 0 3667.22 0 0 -3667.22 0 0 7132.49 0 0 -7132.49 0 0 0 0 0 0 0 0 5919.37 0 0 -5919.37 0 0 7651.96 0 0 -7651.96
0 0 0 0 0 0 0 0 2891.44 0 0 -2891.44 0 0 7064.62 0 0 -7064.62 0 0 0 0 0 0 0 0 5136.71 0 0 -5136.71 0 0 7596.26 0 0 -7596.26
0 0 0 0 0 0 0 0 2290.58 0 0 -2290.58 0 0 6901.03 0 0 -6901.03 0 0 0 0 0 0 0 0 4535.14 0 0 -4535.14 0 0 7439.54 0 0 -7439.54
0 0 0 0 0 0 0 0 1878.54 0 0 -1878.54 0 0 6639.27 0 0 -6639.27 0 0 0 0 0 0 0 0 4128.92 0 0 -4128.92 0 0 7179.02 0 0 -7179.02
0 0 0 0 0 0 0 0 1663.3 0 0 -1663.3 0 0 6279.53 0 0 -6279.53 0 0 0 0 0 0 0 0 3926.27 0 0 -3926.27 0 0 6814.73 0 0 -6814.73
0 0 0 0 0 0 0 0 1646.58 0 0 -1646.58 0 0 5824.67 0 0 -5824.67 0 0 0 0 0 0 0 0 3929.11 0 0 -3929.11 0 0 6349.52 0 0 -6349.52
0 0 0 0 0 0 0 0 1820.76 0 0 -1820.76 0 0 5280.73 0 0 -5280.73 0 0 0 0 0 0 0 0 4170.14 0 0 -4170.14 0 0 5785.74 0 0 -5785.74
0 0 0 0 0 0 0 0 2163.94 0 0 -2163.94 0 0 4660.01 0 0 -4660.01 0 0 0 0 0 0 0 0 4640.25 0 0 -4640.25 0 0 5125.37 0 0 -5125.37
0 0 0 0 0 0 0 0 2681.45 0 0 -2681.45 0 0 3966.8 0 0 -3966.8 0 0 0 0 0 0 0 0 5260.78 0 0 -5260.78 0 0 4396.64 0 0 -4396.64
0 0 0 0 0 0 0 0 3359.14 0 0 -3359.14 0 0 3213.33 0 0 -3213.33 0 0 0 0 0 0 0 0 6033.55 0 0 -6033.55 0 0 3604.27 0 0 -3604.27
0 0 0 0 0 0 0 0 4173.99 0 0 -4173.99 0 0 2413.33 0 0 -2413.33 0 0 0 0 0 0 0 0 6933.03 0 0 -6933.03 0 0 2765.72 0 0 -2765.72
0 0 0 0 0 0 0 0 5110.52 0 0 -5110.52 0 0 1582.5 0 0 -1582.5 0 0 0 0 0 0 0 0 7937.13 0 0 -7937.13 0 0 1895.48 0 0 -1895.48
0 0 0 0 0 0 0 0 6141.65 0 0 -6141.65 0 0 736.961 0 0 -736.961 0 0 0 0 0 0 0 0 9017.25 0 0 -9017.25 0 0 1012.63 0 0 -1012.63
0 0 0 0 0 0 0 0 7238.04 0 0 -7238.04 0 0 -105.145 0 0 105.145 0 0 0 0 0 0 0 0 10177.1 0 0 -10177.1 0 0 129.911 0 0 -129.911
0 0 0 0 0 0 0 0 8365.54 0 0 -8365.54 0 0 -925.036 0 0 925.036 0 0 0 0 0 0 0 0 11382.4 0 0 -11382.4 0 0 -733.621 0 0 733.621
0 0 0 0 0 0 0 0 9514.69 0 0 -9514.69 0 0 -1707.57 0 0 1707.57 0 0 0 0 0 0 0 0 12614.2 0 0 -12614.2 0 0 -1560.34 0 0 1560.34
0 0 0 0 0 0 0 0 10668.8 0 0 -10668.8 0 0 -2436.97 0 0 2436.97 0 0 0 0 0 0 0 0 13839.5 0 0 -13839.5 0 0 -2331.2 0 0 2331.2
0 0 0 0 0 0 0 0 11798.6 0 0 -11798.6 0 0 -3096.2 0 0 3096.2 0 0 0 0 0 0 0 0 15032.2 0 0 -15032.2 0 0 -3027.53 0 0 3027.53
0 0 0 0 0 0 0 0 12874.7 0 0 -12874.7 0 0 -3667.56 0 0 3667.56 0 0 0 0 0 0 0 0 16165.8 0 0 -16165.8 0 0 -3635.55 0 0 3635.55
0 0 0 0 0 0 0 0 13874.7 0 0 -13874.7 0 0 -4140.18 0 0 4140.18 0 0 0 0 0 0 0 0 17213.3 0 0 -17213.3 0 0 -4139.26 0 0 4139.26
0 0 0 0 0 0 0 0 14775 0 0 -14775 0 0 -4500.72 0 0 4500.72 0 0 0 0 0 0 0 0 18146.9 0 0 -18146.9 0 0 -4525.11 0 0 4525.11
0 0 0 0 0 0 0 0 15543.9 0 0 -15543.9 0 0 -4737.26 0 0 4737.26 0 0 0 0 0 0 0 0 18937.7 0 0 -18937.7 0 0 -4781.35 0 0 4781.35
0 0 0 0 0 0 0 0 16151.8 0 0 -16151.8 0 0 -4840.49 0 0 4840.49 0 0 0 0 0 0 0 0 19557.8 0 0 -19557.8 0 0 -4898.38 0 0 4898.38
0 0 0 0 0 0 0 0 16574.4 0 0 -16574.4 0 0 -4804.18 0 0 4804.18 0 0 0 0 0 0 0 0 19980.4 0 0 -19980.4 0 0 -4868.77 0 0 4868.77
0 0 0 0 0 0 0 0 16790.9 0 0 -16790.9 0 0 -4624.63 0 0 4624.63 0 0 0 0 0 0 0 0 20183.1 0 0 -20183.1 0 0 -4688.1 0 0 4688.1
0 0 0 0 0 0 0 0 16783.9 0 0 -16783.9 0 0 -4300.89 0 0 4300.89 0 0 0 0 0 0 0 0 20149.1 0 0 -20149.1 0 0 -4355.43 0 0 4355.43
0 0 0 0 0 0 0 0 16542.2 0 0 -16542.2 0 0 -3835.38 0 0 3835.38 0 0 0 0 0 0 0 0 19868 0 0 -19868 0 0 -3873.21 0 0 3873.21
0 0 0 0 0 0 0 0 16061.6 0 0 -16061.6 0 0 -3234.07 0 0 3234.07 0 0 0 0 0 0 0 0 19335.1 0 0 -19335.1 0 0 -3246.45 0 0 3246.45
0 0 0 0 0 0 0 0 15343.4 0 0 -15343.4 0 0 -2503.42 0 0 2503.42 0 0 0 0 0 0 0 0 18552.5 0 0 -18552.5 0 0 -2484.1 0 0 2484.1
0 0 0 0 0 0 0 0 14395.6 0 0 -14395.6 0 0 -1659.23 0 0 1659.23 0 0 0 0 0 0 0 0 17529.1 0 0 -17529.1 0 0 -1599.77 0 0 1599.77
0 0 0 0 0 0 0 0 13231.8 0 0 -13231.8 0 0 -715.762 0 0 715.762 0 0 0 0 0 0 0 0 16280.1 0 0 -16280.1 0 0 -610.069 0 0 610.069
0 0 0 0 0 0 0 0 11873.2 0 0 -11873.2 0 0 308.796 0 0 -308.796 0 0 0 0 0 0 0 0 14828 0 0 -14828 0 0 466.598 0 0 -466.598
0 0 0 0 0 0 0 0 10348.4 0 0 -10348.4 0 0 1393.55 0 0 -1393.55 0 0 0 0 0 0 0 0 13203.3 0 0 -13203.3 0 0 1608.34 0 0 -1608.34
0 0 0 0 0 0 0 0 8693.72 0 0 -8693.72 0 0 2515.46 0 0 -2515.46 0 0 0 0 0 0 0 0 11444.3 0 0 -11444.3 0 0 2790.91 0 0 -2790.91
0 0 0 0 0 0 0 0 6951.14 0 0 -6951.14 0 0 3650.08 0 0 -3650.08 0 0 0 0 0 0 0 0 9594.98 0 0 -9594.98 0 0 3988.34 0 0 -3988.34
0 0 0 0 0 0 0 0 5166.75 0 0 -5166.75 0 0 4772.14 0 0 -4772.14 0 0 0 0 0 0 0 0 7703.66 0 0 -7703.66 0 0 5173.77 0 0 -5173.77
0 0 0 0 0 0 0 0 3389.21 0 0 -3389.21 0 0 5856.06 0 0 -5856.06 0 0 0 0 0 0 0 0 5821.22 0 0 -5821.22 0 0 6320.11 0 0 -6320.11
0 0 0 0 0 0 0 0 1668.17 0 0 -1668.17 0 0 6876.66 0 0 -6876.66 0 0 0 0 0 0 0 0 3999.51 0 0 -3999.51 0 0 7400.67 0 0 -7400.67
0 0 0 0 0 0 0 0 52.0928 0 0 -52.0928 0 0 7809.97 0 0 -7809.97 0 0 0 0 0 0 0 0 2289.02 0 0 -2289.02 0 0 8390.03 0 0 -8390.03
0 0 0 0 0 0 0 0 -1414.08 0 0 1414.08 0 0 8634 0 0 -8634 0 0 0 0 0 0 0 0 736.552 0 0 -736.552 0 0 9264.72 0 0 -9264.72
0 0 0 0 0 0 0 0 -2690.88 0 0 2690.88 0 0 9329.37 0 0 -9329.37 0 0 0 0 0 0 0 0 -616.763 0 0 616.763 0 0 10004 0 0 -10004
0 0 0 0 0 0 0 0 -3745.45 0 0 3745.45 0 0 9879.72 0 0 -9879.72 0 0 0 0 0 0 0 0 -1736.69 0 0 1736.69 0 0 10590.6 0 0 -10590.6
0 0 0 0 0 0 0 0 -4552.03 0 0 4552.03 0 0 10272.2 0 0 -10272.2 0 0 0 0 0 0 0 0 -2596.39 0 0 2596.39 0 0 11010.8 0 0 -11010.8
0 0 0 0 0 0 0 0 -5092.32 0 0 5092.32 0 0 10497.6 0 0 -10497.6 0 0 0 0 0 0 0 0 -3176.84 0 0 3176.84 0 0 11254.8 0 0 -11254.8
0 0 0 0 0 0 0 0 -5356.17 0 0 5356.17 0 0 10551 0 0 -10551 0 0 0 0 0 0 0 0 -3467.52 0 0 3467.52 0 0 11317.5 0 0 -11317.5
0 0 0 0 0 0 0 0 -5342.14 0 0 5342.14 0 0 10431.6 0 0 -10431.6 0 0 0 0 0 0 0 0 -3467.05 0 0 3467.05 0 0 11197.8 0 0 -11197.8
0 0 0 0 0 0 0 0 -5057.78 0 0 5057.78 0 0 10142.6 0 0 -10142.6 0 0 0 0 0 0 0 0 -3183.41 0 0 3183.41 0 0 10899.3 0 0 -10899.3
0 0 0 0 0 0 0 0 -4519.37 0 0 4519.37 0 0 9691.61 0 0 -9691.61 0 0 0 0 0 0 0 0 -2633.68 0 0 2633.68 0 0 10430.1 0 0 -10430.1
0 0 0 0 0 0 0 0 -3751.44 0 0 3751.44 0 0 9089.79 0 0 -9089.79 0 0 0 0 0 0 0 0 -1843.55 0 0 1843.55 0 0 9802.09 0 0 -9802.09
0 0 0 0 0 0 0 0 -2785.76 0 0 2785.76 0 0 8351.94 0 0 -8351.94 0 0 0 0 0 0 0 0 -846.266 0 0 846.266 0 0 9031.12 0 0 -9031.12
0 0 0 0 0 0 0 0 -1660.1 0 0 1660.1 0 0 7495.88 0 0 -7495.88 0 0 0 0 0 0 0 0 318.647 0 0 -318.647 0 0 8136.21 0 0 -8136.21
0 0 0 0 0 0 0 0 -416.807 0 0 416.807 0 0 6541.91 0 0 -6541.91 0 0 0 0 0 0 0 0 1606.85 0 0 -1606.85 0 0 7139 0 0 -7139
0 0 0 0 0 0 0 0 898.593 0 0 -898.593 0 0 5512.27 0 0 -5512.27 0 0 0 0 0 0 0 0 2970.7 0 0 -2970.7 0 0 6063.19 0 0 -6063.19
0 0 0 0 0 0 0 0 2239.99 0 0 -2239.99 0 0 4430.32 0 0 -4430.32 0 0 0 0 0 0 0 0 4321.77 0 0 -4321.77 0 0 4935.98 0 0 -4935.98
0 0 0 0 0 0 0 0 3367.12 0 0 -3367.12 0 0 3333.88 0 0 -3333.88 0 0 0 0 0 0 0 0 5359.57 0 0 -5359.57 0 0 3817.58 0 0 -3817.58
0 0 0 0 0 0 0 0 4407 0 0 -4407 0 0 2229.92 0 0 -2229.92 0 0 0 0 0 0 0 0 6428.67 0 0 -6428.67 0 0 2677.28 0 0 -2677.28
0 0 0 0 0 0 0 0 5348.25 0 0 -5348.25 0 0 1140.55 0 0 -1140.55 0 0 0 0 0 0 0 0 7380.21 0 0 -7380.21 0 0 1558.96 0 0 -1558.96
0 0 0 0 0 0 0 0 6162.75 0 0 -6162.75 0 0 88.4421 0 0 -88.4421 0 0 0 0 0 0 0 0 8188.02 0 0 -8188.02 0 0 474.862 0 0 -474.862
0 0 0 0 0 0 0 0 6814.23 0 0 -6814.23 0 0 -909.993 0 0 909.993 0 0 0 0 0 0 0 0 8816.77 0 0 -8816.77 0 0 -548.416 0 0 548.416
0 0 0 0 0 0 0 0 7263.61 0 0 -7263.61 0 0 -1834.78 0 0 1834.78 0 0 0 0 0 0 0 0 9245.9 0 0 -9245.9 0 0 -1492.42 0 0 1492.42
0 0 0 0 0 0 0 0 7489.24 0 0 -7489.24 0 0 -2675.27 0 0 2675.27 0 0 0 0 0 0 0 0 9446.92 0 0 -9446.92 0 0 -2344.6 0 0 2344.6
0 0 0 0 0 0 0 0 7494.44 0 0 -7494.44 0 0 -3419.88 0 0 3419.88 0 0 0 0 0 0 0 0 9399.2 0 0 -9399.2 0 0 -3091.97 0 0 3091.97
0 0 0 0 0 0 0 0 7251.13 0 0 -7251.13 0 0 -4057.03 0 0 4057.03 0 0 0 0 0 0 0 0 9096.42 0 0 -9096.42 0 0 -3726.24 0 0 3726.24
0 0 0 0 0 0 0 0 6746.96 0 0 -6746.96 0 0 -4580.91 0 0 4580.91 0 0 0 0 0 0 0 0 8526.56 0 0 -8526.56 0 0 -4239.84 0 0 4239.84
0 0 0 0 0 0 0 0 5981.77 0 0 -5981.77 0 0 -4987.18 0 0 4987.18 0 0 0 0 0 0 0 0 7687.29 0 0 -7687.29 0 0 -4630.63 0 0 4630.63
0 0 0 0 0 0 0 0 4969.5 0 0 -4969.5 0 0 -5273.65 0 0 5273.65 0 0 0 0 0 0 0 0 6588.87 0 0 -6588.87 0 0 -4897.09 0 0 4897.09
0 0 0 0 0 0 0 0 3721.94 0 0 -3721.94 0 0 -5448.31 0 0 5448.31 0 0 0 0 0 0 0 0 5249.76 0 0 -5249.76 0 0 -5037.84 0 0 5037.84
0 0 0 0 0 0 0 0 2260.16 0 0 -2260.16 0 0 -5516.59 0 0 5516.59 0 0 0 0 0 0 0 0 3690.54 0 0 -3690.54 0 0 -5068.27 0 0 5068.27
0 0 0 0 0 0 0 0 611.054 0 0 -611.054 0 0 -5488.47 0 0 5488.47 0 0 0 0 0 0 0 0 1938.97 0 0 -1938.97 0 0 -4997.43 0 0 4997.43
0 0 0 0 0 0 0 0 -1193.11 0 0 1193.11 0 0 -5377.43 0 0 5377.43 0 0 0 0 0 0 0 0 28.4502 0 0 -28.4502 0 0 -4838.26 0 0 4838.26
0 0 0 0 0 0 0 0 -3115.86 0 0 3115.86 0 0 -5198.02 0 0 5198.02 0 0 0 0 0 0 0 0 -2003.17 0 0 2003.17 0 0 -4606.23 0 0 4606.23
0 0 0 0 0 0 0 0 -5118.52 0 0 5118.52 0 0 -4965.34 0 0 4965.34 0 0 0 0 0 0 0 0 -4118.43 0 0 4118.43 0 0 -4318.26 0 0 4318.26
0 0 0 0 0 0 0 0 -7166.37 0 0 7166.37 0 0 -4695.37 0 0 4695.37 0 0 0 0 0 0 0 0 -6281.97 0 0 6281.97 0 0 -3991.45 0 0 3991.45
0 0 0 0 0 0 0 0 -9210.6 0 0 9210.6 0 0 -4406.61 0 0 4406.61 0 0 0 0 0 0 0 0 -8440.1 0 0 8440.1 0 0 -3646.27 0 0 3646.27
0 0 0 0 0 0 0 0 -11199.7 0 0 11199.7 0 0 -4118.14 0 0 4118.14 0 0 0 0 0 0 0 0 -10539.1 0 0 10539.1 0 0 -3302.28 0 0 3302.28
0 0 0 0 0 0 0 0 -13080.8 0 0 13080.8 0 0 -3848.14 0 0 3848.14 0 0 0 0 0 0 0 0 -12524 0 0 12524 0 0 -2979.36 0 0 2979.36
0 0 0 0 0 0 0 0 -14802.3 0 0 14802.3 0 0 -3613.5 0 0 3613.5 0 0 0 0 0 0 0 0 -14341.5 0 0 14341.5 0 0 -2696.3 0 0 2696.3
0 0 0 0 0 0 0 0 -16317 0 0 16317 0 0 -3429.58 0 0 3429.58 0 0 0 0 0 0 0 0 -15942.7 0 0 15942.7 0 0 -2469.98 0 0 2469.98
0 0 0 0 0 0 0 0 -17584.7 0 0 17584.7 0 0 -3309.67 0 0 3309.67 0 0 0 0 0 0 0 0 -17285.9 0 0 17285.9 0 0 -2314.55 0 0 2314.55
0 0 0 0 0 0 0 0 -18573.9 0 0 18573.9 0 0 -3264.08 0 0 3264.08 0 0 0 0 0 0 0 0 -18338.7 0 0 18338.7 0 0 -2240.99 0 0 2240.99
0 0 0 0 0 0 0 0 -19354.8 0 0 19354.8 0 0 -3289.14 0 0 3289.14 0 0 0 0 0 0 0 0 -19128.2 0 0 19128.2 0 0 -2254.95 0 0 2254.95
0 0 0 0 0 0 0 0 -19835 0 0 19835 0 0 -3402.6 0 0 3402.6 0 0 0 0 0 0 0 0 -19661.3 0 0 19661.3 0 0 -2349.22 0 0 2349.22
0 0 0 0 0 0 0 0 -20018.1 0 0 20018.1 0 0 -3600.17 0 0 3600.17 0 0 0 0 0 0 0 0 -19885.8 0 0 19885.8 0 0 -2541.27 0 0 2541.27
0 0 0 0 0 0 0 0 -19913.3 0 0 19913.3 0 0 -3879.87 0 0 3879.87 0 0 0 0 0 0 0 0 -19817.6 0 0 19817.6 0 0 -2819.55 0 0 2819.55
0 0 0 0 0 0 0 0 -19535.5 0 0 19535.5 0 0 -4234.52 0 0 4234.52 0 0 0 0 0 0 0 0 -19462.8 0 0 19462.8 0 0 -3182.57 0 0 3182.57
0 0 0 0 0 0 0 0 -18901.1 0 0 18901.1 0 0 -4656.94 0 0 4656.94 0 0 0 0 0 0 0 0 -18843.2 0 0 18843.2 0 0 -3619.46 0 0 3619.46
0 0 0 0 0 0 0 0 -18036.2 0 0 18036.2 0 0 -5136.3 0 0 5136.3 0 0 0 0 0 0 0 0 -17986.9 0 0 17986.9 0 0 -4118.78 0 0 4118.78
0 0 0 0 0 0 0 0 -16973.3 0 0 16973.3 0 0 -5658.75 0 0 5658.75 0 0 0 0 0 0 0 0 -16925.5 0 0 16925.5 0 0 -4666.21 0 0 4666.21
0 0 0 0 0 0 0 0 -15745.7 0 0 15745.7 0 0 -6208.85 0 0 6208.85 0 0 0 0 0 0 0 0 -15694.3 0 0 15694.3 0 0 -5245.47 0 0 5245.47
0 0 0 0 0 0 0 0 -14390.6 0 0 14390.6 0 0 -6769.97 0 0 6769.97 0 0 0 0 0 0 0 0 -14333.1 0 0 14333.1 0 0 -5838.6 0 0 5838.6
0 0 0 0 0 0 0 0 -12949.7 0 0 12949.7 0 0 -7324.51 0 0 7324.51 0 0 0 0 0 0 0 0 -12884.1 0 0 12884.1 0 0 -6426.75 0 0 6426.75
0 0 0 0 0 0 0 0 -11466.8 0 0 11466.8 0 0 -7854.35 0 0 7854.35 0 0 0 0 0 0 0 0 -11391.5 0 0 11391.5 0 0 -6990.63 0 0 6990.63
0 0 0 0 0 0 0 0 -9985.01 0 0 9985.01 0 0 -8341.4 0 0 8341.4 0 0 0 0 0 0 0 0 -9899.99 0 0 9899.99 0 0 -7510.95 0 0 7510.95
0 0 0 0 0 0 0 0 -8546.83 0 0 8546.83 0 0 -8768.12 0 0 8768.12 0 0 0 0 0 0 0 0 -8453.54 0 0 8453.54 0 0 -7969.12 0 0 7969.12
0 0 0 0 0 0 0 0 -7193.6 0 0 7193.6 0 0 -9118.16 0 0 9118.16 0 0 0 0 0 0 0 0 -7094.16 0 0 7094.16 0 0 -8347.79 0 0 8347.79
0 0 0 0 0 0 0 0 -5963.64 0 0 5963.64 0 0 -9376.95 0 0 9376.95 0 0 0 0 0 0 0 0 -5860.89 0 0 5860.89 0 0 -8631.3 0 0 8631.3
0 0 0 0 0 0 0 0 -4890.89 0 0 4890.89 0 0 -9532.03 0 0 9532.03 0 0 0 0 0 0 0 0 -4788.71 0 0 4788.71 0 0 -8806.21 0 0 8806.21
0 0 0 0 0 0 0 0 -4004.41 0 0 4004.41 0 0 -9573.36 0 0 9573.36 0 0 0 0 0 0 0 0 -3907.42 0 0 3907.42 0 0 -8861.76 0 0 8861.76
0 0 0 0 0 0 0 0 -3327.94 0 0 3327.94 0 0 -9493.61 0 0 9493.61 0 0 0 0 0 0 0 0 -3241.16 0 0 3241.16 0 0 -8790.2 0 0 8790.2
0 0 0 0 0 0 0 0 -2879.44 0 0 2879.44 0 0 -9288.61 0 0 9288.61 0 0 0 0 0 0 0 0 -2808.14 0 0 2808.14 0 0 -8586.92 0 0 8586.92
0 0 0 0 0 0 0 0 -2670.68 0 0 2670.68 0 0 -8957.4 0 0 8957.4 0 0 0 0 0 0 0 0 -2620.27 0 0 2620.27 0 0 -8250.67 0 0 8250.67
0 0 0 0 0 0 0 0 -2706.81 0 0 2706.81 0 0 -8502.3 0 0 8502.3 0 0 0 0 0 0 0 0 -2682.55 0 0 2682.55 0 0 -7783.74 0 0 7783.74
0 0 0 0 0 0 0 0 -2985.6 0 0 2985.6 0 0 -7928.95 0 0 7928.95 0 0 0 0 0 0 0 0 -2992.42 0 0 2992.42 0 0 -7191.94 0 0 7191.94
0 0 0 0 0 0 0 0 -3496.96 0 0 3496.96 0 0 -7246.3 0 0 7246.3 0 0 0 0 0 0 0 0 -3539.39 0 0 3539.39 0 0 -6484.6 0 0 6484.6
0 0 0 0 0 0 0 0 -4220.39 0 0 4220.39 0 0 -6467.2 0 0 6467.2 0 0 0 0 0 0 0 0 -4311.59 0 0 4311.59 0 0 -5673.78 0 0 5673.78
0 0 0 0 0 0 0 0 -5150.25 0 0 5150.25 0 0 -5604.59 0 0 5604.59 0 0 0 0 0 0 0 0 -5305.73 0 0 5305.73 0 0 -4772.07 0 0 4772.07
0 0 0 0 0 0 0 0 -6258.02 0 0 6258.02 0 0 -4676.11 0 0 4676.11 0 0 0 0 0 0 0 0 -6482.68 0 0 6482.68 0 0 -3799.52 0 0 3799.52
0 0 0 0 0 0 0 0 -7505.54 0 0 7505.54 0 0 -3701.45 0 0 3701.45 0 0 0 0 0 0 0 0 -7802.89 0 0 7802.89 0 0 -2776.99 0 0 2776.99
0 0 0 0 0 0 0 0 -8847.93 0 0 8847.93 0 0 -2702.13 0 0 2702.13 0 0 0 0 0 0 0 0 -9221.91 0 0 9221.91 0 0 -1727.15 0 0 1727.15
0 0 0 0 0 0 0 0 -10239.7 0 0 10239.7 0 0 -1700.49 0 0 1700.49 0 0 0 0 0 0 0 0 -10692.6 0 0 10692.6 0 0 -673.782 0 0 673.782
0 0 0 0 0 0 0 0 -11635.3 0 0 11635.3 0 0 -719.146 0 0 719.146 0 0 0 0 0 0 0 0 -12165.5 0 0 12165.5 0 0 358.808 0 0 -358.808
0 0 0 0 0 0 0 0 -12987.7 0 0 12987.7 0 0 219.361 0 0 -219.361 0 0 0 0 0 0 0 0 -13591.9 0 0 13591.9 0 0 1346.8 0 0 -1346.8
0 0 0 0 0 0 0 0 -14251.9 0 0 14251.9 0 0 1093.58 0 0 -1093.58 0 0 0 0 0 0 0 0 -14925.6 0 0 14925.6 0 0 2267.42 0 0 -2267.42
0 0 0 0 0 0 0 0 -15387.9 0 0 15387.9 0 0 1883.91 0 0 -1883.91 0 0 0 0 0 0 0 0 -16124.6 0 0 16124.6 0 0 3099.6 0 0 -3099.6
0 0 0 0 0 0 0 0 -16362.8 0 0 16362.8 0 0 2573 0 0 -2573 0 0 0 0 0 0 0 0 -17153.6 0 0 17153.6 0 0 3824.71 0 0 -3824.71
0 0 0 0 0 0 0 0 -17150.7 0 0 17150.7 0 0 3146.4 0 0 -3146.4 0 0 0 0 0 0 0 0 -17985.9 0 0 17985.9 0 0 4428.03 0 0 -4428.03
0 0 0 0 0 0 0 0 -17732.9 0 0 17732.9 0 0 3593.15 0 0 -3593.15 0 0 0 0 0 0 0 0 -18601.1 0 0 18601.1 0 0 4896.43 0 0 -4896.43
0 0 0 0 0 0 0 0 -18096.8 0 0 18096.8 0 0 3902.33 0 0 -3902.33 0 0 0 0 0 0 0 0 -18985.8 0 0 18985.8 0 0 5220.45 0 0 -5220.45
0 0 0 0 0 0 0 0 -18235.7 0 0 18235.7 0 0 4069.26 0 0 -4069.26 0 0 0 0 0 0 0 0 -19132.7 0 0 19132.7 0 0 5394.08 0 0 -5394.08
0 0 0 0 0 0 0 0 -18147.3 0 0 18147.3 0 0 4091.69 0 0 -4091.69 0 0 0 0 0 0 0 0 -19040.3 0 0 19040.3 0 0 5414.68 0 0 -5414.68
0 0 0 0 0 0 0 0 -17835.7 0 0 17835.7 0 0 3970.58 0 0 -3970.58 0 0 0 0 0 0 0 0 -18714 0 0 18714 0 0 5283.84 0 0 -5283.84
0 0 0 0 0 0 0 0 -17311.9 0 0 17311.9 0 0 3710.31 0 0 -3710.31 0 0 0 0 0 0 0 0 -18164.8 0 0 18164.8 0 0 5006.56 0 0 -5006.56
0 0 0 0 0 0 0 0 -16591.7 0 0 16591.7 0 0 3318.51 0 0 -3318.51 0 0 0 0 0 0 0 0 -17408.8 0 0 17408.8 0 0 4590.85 0 0 -4590.85
0 0 0 0 0 0 0 0 -15693.8 0 0 15693.8 0 0 2805.52 0 0 -2805.52 0 0 0 0 0 0 0 0 -16465.8 0 0 16465.8 0 0 4047.59 0 0 -4047.59
0 0 0 0 0 0 0 0 -14640.2 0 0 14640.2 0 0 2185.64 0 0 -2185.64 0 0 0 0 0 0 0 0 -15359.1 0 0 15359.1 0 0 3392.24 0 0 -3392.24
0 0 0 0 0 0 0 0 -13456.1 0 0 13456.1 0 0 1472.6 0 0 -1472.6 0 0 0 0 0 0 0 0 -14115.3 0 0 14115.3 0 0 2638.07 0 0 -2638.07
0 0 0 0 0 0 0 0 -12171.4 0 0 12171.4 0 0 683.402 0 0 -683.402 0 0 0 0 0 0 0 0 -12765.4 0 0 12765.4 0 0 1804.56 0 0 -1804.56
0 0 0 0 0 0 0 0 -10820 0 0 10820 0 0 -163.049 0 0 163.049 0 0 0 0 0 0 0 0 -11345.1 0 0 11345.1 0 0 911.092 0 0 -911.092
0 0 0 0 0 0 0 0 -9439.37 0 0 9439.37 0 0 -1046.9 0 0 1046.9 0 0 0 0 0 0 0 0 -9893.89 0 0 9893.89 0 0 -21.0623 0 0 21.0623
0 0 0 0 0 0 0 0 -8068.98 0 0 8068.98 0 0 -1947.7 0 0 1947.7 0 0 0 0 0 0 0 0 -8452.83 0 0 8452.83 0 0 -970.18 0 0 970.18
0 0 0 0 0 0 0 0 -6747.48 0 0 6747.48 0 0 -2845.03 0 0 2845.03 0 0 0 0 0 0 0 0 -7062.36 0 0 7062.36 0 0 -1914.53 0 0 1914.53
0 0 0 0 0 0 0 0 -5511.12 0 0 5511.12 0 0 -3718.94 0 0 3718.94 0 0 0 0 0 0 0 0 -5760.43 0 0 5760.43 0 0 -2833.09 0 0 2833.09
0 0 0 0 0 0 0 0 -4392.81 0 0 4392.81 0 0 -4550.59 0 0 4550.59 0 0 0 0 0 0 0 0 -4581.54 0 0 4581.54 0 0 -3706 0 0 3706
0 0 0 0 0 0 0 0 -3421.47 0 0 3421.47 0 0 -5322.72 0 0 5322.72 0 0 0 0 0 0 0 0 -3555.99 0 0 3555.99 0 0 -4515.02 0 0 4515.02
0 0 0 0 0 0 0 0 -2621.31 0 0 2621.31 0 0 -6020.07 0 0 6020.07 0 0 0 0 0 0 0 0 -2709.26 0 0 2709.26 0 0 -5243.97 0 0 5243.97
0 0 0 0 0 0 0 0 -2011.41 0 0 2011.41 0 0 -6629.58 0 0 6629.58 0 0 0 0 0 0 0 0 -2061.43 0 0 2061.43 0 0 -5879.11 0 0 5879.11
0 0 0 0 0 0 0 0 -1605.68 0 0 1605.68 0 0 -7140.67 0 0 7140.67 0 0 0 0 0 0 0 0 -1627.25 0 0 1627.25 0 0 -6409.38 0 0 6409.38
0 0 0 0 0 0 0 0 -1413.4 0 0 1413.4 0 0 -7545.35 0 0 7545.35 0 0 0 0 0 0 0 0 -1416.51 0 0 1416.51 0 0 -6826.51 0 0 6826.51
0 0 0 0 0 0 0 0 -1439.67 0 0 1439.67 0 0 -7838.4 0 0 7838.4 0 0 0 0 0 0 0 0 -1434.63 0 0 1434.63 0 0 -7125.06 0 0 7125.06
0 0 0 0 0 0 0 0 -1685.72 0 0 1685.72 0 0 -8017.38 0 0 8017.38 0 0 0 0 0 0 0 0 -1682.86 0 0 1682.86 0 0 -7302.51 0 0 7302.51
0 0 0 0 0 0 0 0 -2148.72 0 0 2148.72 0 0 -8082.66 0 0 8082.66 0 0 0 0 0 0 0 0 -2158.16 0 0 2158.16 0 0 -7359.31 0 0 7359.31
0 0 0 0 0 0 0 0 -2821.03 0 0 2821.03 0 0 -8037.46 0 0 8037.46 0 0 0 0 0 0 0 0 -2852.35 0 0 2852.35 0 0 -7298.9 0 0 7298.9
0 0 0 0 0 0 0 0 -3689.78 0 0 3689.78 0 0 -7887.78 0 0 7887.78 0 0 0 0 0 0 0 0 -3751.76 0 0 3751.76 0 0 -7127.75 0 0 7127.75
0 0 0 0 0 0 0 0 -4737.22 0 0 4737.22 0 0 -7642.29 0 0 7642.29 0 0 0 0 0 0 0 0 -4837.57 0 0 4837.57 0 0 -6855.09 0 0 6855.09
0 0 0 0 0 0 0 0 -5940.6 0 0 5940.6 0 0 -7312.09 0 0 7312.09 0 0 0 0 0 0 0 0 -6085.75 0 0 6085.75 0 0 -6492.76 0 0 6492.76
0 0 0 0 0 0 0 0 -7271.7 0 0 7271.7 0 0 -6910.55 0 0 6910.55 0 0 0 0 0 0 0 0 -7466.59 0 0 7466.59 0 0 -6055.02 0 0 6055.02
0 0 0 0 0 0 0 0 -8696.85 0 0 8696.85 0 0 -6452.97 0 0 6452.97 0 0 0 0 0 0 0 0 -8944.69 0 0 8944.69 0 0 -5558.21 0 0 5558.21
0 0 0 0 0 0 0 0 -10177.6 0 0 10177.6 0 0 -5956.16 0 0 5956.16 0 0 0 0 0 0 0 0 -10479.8 0 0 10479.8 0 0 -5020.33 0 0 5020.33
0 0 0 0 0 0 0 0 -11671.6 0 0 11671.6 0 0 -5437.97 0 0 5437.97 0 0 0 0 0 0 0 0 -12027.5 0 0 12027.5 0 0 -4460.54 0 0 4460.54
0 0 0 0 0 0 0 0 -13133.2 0 0 13133.2 0 0 -4916.81 0 0 4916.81 0 0 0 0 0 0 0 0 -13540.3 0 0 13540.3 0 0 -3898.61 0 0 3898.61
0 0 0 0 0 0 0 0 -14515.2 0 0 14515.2 0 0 -4411.07 0 0 4411.07 0 0 0 0 0 0 0 0 -14968.9 0 0 14968.9 0 0 -3354.32 0 0 3354.32
0 0 0 0 0 0 0 0 -15770.1 0 0 15770.1 0 0 -3938.46 0 0 3938.46 0 0 0 0 0 0 0 0 -16263.9 0 0 16263.9 0 0 -2846.77 0 0 2846.77
0 0 0 0 0 0 0 0 -16852.7 0 0 16852.7 0 0 -3515.41 0 0 3515.41 0 0 0 0 0 0 0 0 -17378.3 0 0 17378.3 0 0 -2393.72 0 0 2393.72
0 0 0 0 0 0 0 0 -17721.6 0 0 17721.6 0 0 -3156.46 0 0 3156.46 0 0 0 0 0 0 0 0 -18269.3 0 0 18269.3 0 0 -2010.91 0 0 2010.91
0 0 0 0 0 0 0 0 -18341.8 0 0 18341.8 0 0 -2873.68 0 0 2873.68 0 0 0 0 0 0 0 0 -18900.6 0 0 18900.6 0 0 -1711.41 0 0 1711.41
0 0 0 0 0 0 0 0 -18685.7 0 0 18685.7 0 0 -2676.31 0 0 2676.31 0 0 0 0 0 0 0 0 -19243.2 0 0 19243.2 0 0 -1505.24 0 0 1505.24
0 0 0 0 0 0 0 0 -18733.3 0 0 18733.3 0 0 -2570.41 0 0 2570.41 0 0 0 0 0 0 0 0 -19276.7 0 0 19276.7 0 0 -1398.99 0 0 1398.99
0 0 0 0 0 0 0 0 -18472.9 0 0 18472.9 0 0 -2558.66 0 0 2558.66 0 0 0 0 0 0 0 0 -18989.1 0 0 18989.1 0 0 -1395.63 0 0 1395.63
0 0 0 0 0 0 0 0 -17901.1 0 0 17901.1 0 0 -2640.32 0 0 2640.32 0 0 0 0 0 0 0 0 -18376.7 0 0 18376.7 0 0 -1494.48 0 0 1494.48
0 0 0 0 0 0 0 0 -17022.8 0 0 17022.8 0 0 -2811.16 0 0 2811.16 0 0 0 0 0 0 0 0 -17444.8 0 0 17444.8 0 0 -1691.09 0 0 1691.09
0 0 0 0 0 0 0 0 -15851 0 0 15851 0 0 -3063.63 0 0 3063.63 0 0 0 0 0 0 0 0 -16207.2 0 0 16207.2 0 0 -1977.43 0 0 1977.43
0 0 0 0 0 0 0 0 -14407.7 0 0 14407.7 0 0 -3386.85 0 0 3386.85 0 0 0 0 0 0 0 0 -14665 0 0 14665 0 0 -2343.24 0 0 2343.24
0 0 0 0 0 0 0 0 -12732.9 0 0 12732.9 0 0 -3761.62 0 0 3761.62 0 0 0 0 0 0 0 0 -12771.6 0 0 12771.6 0 0 -2788.91 0 0 2788.91
0 0 0 0 0 0 0 0 -10780.1 0 0 10780.1 0 0 -4186.41 0 0 4186.41 0 0 0 0 0 0 0 0 -10742.4 0 0 10742.4 0 0 -3266.48 0 0 3266.48
0 0 0 0 0 0 0 0 -8672.7 0 0 8672.7 0 0 -4633.21 0 0 4633.21 0 0 0 0 0 0 0 0 -8543.08 0 0 8543.08 0 0 -3770.51 0 0 3770.51
0 0 0 0 0 0 0 0 -6460.72 0 0 6460.72 0 0 -5081.62 0 0 5081.62 0 0 0 0 0 0 0 0 -6234.24 0 0 6234.24 0 0 -4275.63 0 0 4275.63
0 0 0 0 0 0 0 0 -4193.86 0 0 4193.86 0 0 -5509.13 0 0 5509.13 0 0 0 0 0 0 0 0 -3857.43 0 0 3857.43 0 0 -4763.93 0 0 4763.93
0 0 0 0 0 0 0 0 -1908.67 0 0 1908.67 0 0 -5896.55 0 0 5896.55 0 0 0 0 0 0 0 0 -1469.27 0 0 1469.27 0 0 -5211.45 0 0 5211.45
0 0 0 0 0 0 0 0 341.566 0 0 -341.566 0 0 -6221.95 0 0 6221.95 0 0 0 0 0 0 0 0 897.706 0 0 -897.706 0 0 -5598.03 0 0 5598.03
0 0 0 0 0 0 0 0 2498.7 0 0 -2498.7 0 0 -6466.51 0 0 6466.51 0 0 0 0 0 0 0 0 3192.34 0 0 -3192.34 0 0 -5903.13 0 0 5903.13
0 0 0 0 0 0 0 0 4536.16 0 0 -4536.16 0 0 -6614.75 0 0 6614.75 0 0 0 0 0 0 0 0 5351.25 0 0 -5351.25 0 0 -6102.58 0 0 6102.58
0 0 0 0 0 0 0 0 6422.01 0 0 -6422.01 0 0 -6641.44 0 0 6641.44 0 0 0 0 0 0 0 0 7335.09 0 0 -7335.09 0 0 -6177 0 0 6177
0 0 0 0 0 0 0 0 8100.4 0 0 -8100.4 0 0 -6542.84 0 0 6542.84 0 0 0 0 0 0 0 0 9111.03 0 0 -9111.03 0 0 -6116.77 0 0 6116.77
0 0 0 0 0 0 0 0 9540.78 0 0 -9540.78 0 0 -6308.01 0 0 6308.01 0 0 0 0 0 0 0 0 10641.7 0 0 -10641.7 0 0 -5915.81 0 0 5915.81
0 0 0 0 0 0 0 0 10721.5 0 0 -10721.5 0 0 -5931.58 0 0 5931.58 0 0 0 0 0 0 0 0 11895.6 0 0 -11895.6 0 0 -5564.02 0 0 5564.02
0 0 0 0 0 0 0 0 11620.8 0 0 -11620.8 0 0 -5409.86 0 0 5409.86 0 0 0 0 0 0 0 0 12852.5 0 0 -12852.5 0 0 -5058.17 0 0 5058.17
0 0 0 0 0 0 0 0 12222.2 0 0 -12222.2 0 0 -4743.31 0 0 4743.31 0 0 0 0 0 0 0 0 13501.2 0 0 -13501.2 0 0 -4398.84 0 0 4398.84
0 0 0 0 0 0 0 0 12521.1 0 0 -12521.1 0 0 -3937.1 0 0 3937.1 0 0 0 0 0 0 0 0 13836.3 0 0 -13836.3 0 0 -3590.47 0 0 3590.47
0 0 0 0 0 0 0 0 12521.2 0 0 -12521.2 0 0 -2999.73 0 0 2999.73 0 0 0 0 0 0 0 0 13859.4 0 0 -13859.4 0 0 -2641.54 0 0 2641.54
0 0 0 0 0 0 0 0 12231.2 0 0 -12231.2 0 0 -1940.2 0 0 1940.2 0 0 0 0 0 0 0 0 13581.1 0 0 -13581.1 0 0 -1561.12 0 0 1561.12
0 0 0 0 0 0 0 0 11667.4 0 0 -11667.4 0 0 -775.329 0 0 775.329 0 0 0 0 0 0 0 0 13020.7 0 0 -13020.7 0 0 -370.449 0 0 370.449
0 0 0 0 0 0 0 0 10855.1 0 0 -10855.1 0 0 474.989 0 0 -474.989 0 0 0 0 0 0 0 0 12204.1 0 0 -12204.1 0 0 913.286 0 0 -913.286
0 0 0 0 0 0 0 0 9824.86 0 0 -9824.86 0 0 1789.07 0 0 -1789.07 0 0 0 0 0 0 0 0 11163.9 0 0 -11163.9 0 0 2266.89 0 0 -2266.89
0 0 0 0 0 0 0 0 8611.41 0 0 -8611.41 0 0 3143.47 0 0 -3143.47 0 0 0 0 0 0 0 0 9937.69 0 0 -9937.69 0 0 3664.92 0 0 -3664.92
0 0 0 0 0 0 0 0 7255.86 0 0 -7255.86 0 0 4512.45 0 0 -4512.45 0 0 0 0 0 0 0 0 8569.27 0 0 -8569.27 0 0 5079.77 0 0 -5079.77
0 0 0 0 0 0 0 0 5804.3 0 0 -5804.3 0 0 5868.8 0 0 -5868.8 0 0 0 0 0 0 0 0 7106.06 0 0 -7106.06 0 0 6483.09 0 0 -6483.09
0 0 0 0 0 0 0 0 4306.15 0 0 -4306.15 0 0 7184.88 0 0 -7184.88 0 0 0 0 0 0 0 0 5599.17 0 0 -5599.17 0 0 7846 0 0 -7846
0 0 0 0 0 0 0 0 2813.03 0 0 -2813.03 0 0 8433.29 0 0 -8433.29 0 0 0 0 0 0 0 0 4102.33 0 0 -4102.33 0 0 9139.49 0 0 -9139.49
0 0 0 0 0 0 0 0 1378 0 0 -1378 0 0 9587.31 0 0 -9587.31 0 0 0 0 0 0 0 0 2670.14 0 0 -2670.14 0 0 10335.2 0 0 -10335.2
0 0 0 0 0 0 0 0 49.7715 0 0 -49.7715 0 0 10622.1 0 0 -10622.1 0 0 0 0 0 0 0 0 1355.2 0 0 -1355.2 0 0 11406.3 0 0 -11406.3
0 0 0 0 0 0 0 0 -1120 0 0 1120 0 0 11499.9 0 0 -11499.9 0 0 0 0 0 0 0 0 210.596 0 0 -210.596 0 0 12309.3 0 0 -12309.3
0 0 0 0 0 0 0 0 -2067.22 0 0 2067.22 0 0 12066.8 0 0 -12066.8 0 0 0 0 0 0 0 0 -679.372 0 0 679.372 0 0 12823.4 0 0 -12823.4
0 0 0 0 0 0 0 0 -2781.68 0 0 2781.68 0 0 12499.7 0 0 -12499.7 0 0 0 0 0 0 0 0 -1336.77 0 0 1336.77 0 0 13264.3 0 0 -13264.3
0 0 0 0 0 0 0 0 -3228.77 0 0 3228.77 0 0 12784.4 0 0 -12784.4 0 0 0 0 0 0 0 0 -1727.09 0 0 1727.09 0 0 13547.8 0 0 -13547.8
0 0 0 0 0 0 0 0 -3392 0 0 3392 0 0 12914.1 0 0 -12914.1 0 0 0 0 0 0 0 0 -1807.77 0 0 1807.77 0 0 13664 0 0 -13664
0 0 0 0 0 0 0 0 -3246.92 0 0 3246.92 0 0 12893.7 0 0 -12893.7 0 0 0 0 0 0 0 0 -1578.73 0 0 1578.73 0 0 13630.2 0 0 -13630.2
0 0 0 0 0 0 0 0 -2787.36 0 0 2787.36 0 0 12688.8 0 0 -12688.8 0 0 0 0 0 0 0 0 -1022.97 0 0 1022.97 0 0 13402.4 0 0 -13402.4
0 0 0 0 0 0 0 0 -2019.2 0 0 2019.2 0 0 12298.9 0 0 -12298.9 0 0 0 0 0 0 0 0 -143.673 0 0 143.673 0 0 12973.9 0 0 -12973.9
0 0 0 0 0 0 0 0 -955.079 0 0 955.079 0 0 11731.4 0 0 -11731.4 0 0 0 0 0 0 0 0 1038.12 0 0 -1038.12 0 0 12359.6 0 0 -12359.6
0 0 0 0 0 0 0 0 378.167 0 0 -378.167 0 0 10998.9 0 0 -10998.9 0 0 0 0 0 0 0 0 2498.91 0 0 -2498.91 0 0 11574.6 0 0 -11574.6
0 0 0 0 0 0 0 0 1946.4 0 0 -1946.4 0 0 10120.2 0 0 -10120.2 0 0 0 0 0 0 0 0 4204.35 0 0 -4204.35 0 0 10636.4 0 0 -10636.4
0 0 0 0 0 0 0 0 3709.23 0 0 -3709.23 0 0 9119.06 0 0 -9119.06 0 0 0 0 0 0 0 0 6113.07 0 0 -6113.07 0 0 9567.49 0 0 -9567.49
0 0 0 0 0 0 0 0 5621.95 0 0 -5621.95 0 0 8020.08 0 0 -8020.08 0 0 0 0 0 0 0 0 8177.51 0 0 -8177.51 0 0 8394.18 0 0 -8394.18
0 0 0 0 0 0 0 0 7635.96 0 0 -7635.96 0 0 6848.35 0 0 -6848.35 0 0 0 0 0 0 0 0 10347 0 0 -10347 0 0 7145.52 0 0 -7145.52
0 0 0 0 0 0 0 0 9700.49 0 0 -9700.49 0 0 5630.78 0 0 -5630.78 0 0 0 0 0 0 0 0 12569.2 0 0 -12569.2 0 0 5851.1 0 0 -5851.1
0 0 0 0 0 0 0 0 11764.6 0 0 -11764.6 0 0 4396.52 0 0 -4396.52 0 0 0 0 0 0 0 0 14791.4 0 0 -14791.4 0 0 4540.28 0 0 -4540.28
0 0 0 0 0 0 0 0 13778.5 0 0 -13778.5 0 0 3175.17 0 0 -3175.17 0 0 0 0 0 0 0 0 16961.4 0 0 -16961.4 0 0 3242.58 0 0 -3242.58
0 0 0 0 0 0 0 0 15694.7 0 0 -15694.7 0 0 1994.59 0 0 -1994.59 0 0 0 0 0 0 0 0 19029.3 0 0 -19029.3 0 0 1987.59 0 0 -1987.59
0 0 0 0 0 0 0 0 17469.4 0 0 -17469.4 0 0 880.426 0 0 -880.426 0 0 0 0 0 0 0 0 20948.4 0 0 -20948.4 0 0 803.879 0 0 -803.879
0 0 0 0 0 0 0 0 19063.2 0 0 -19063.2 0 0 -143.395 0 0 143.395 0 0 0 0 0 0 0 0 22676.9 0 0 -22676.9 0 0 -282.473 0 0 282.473
0 0 0 0 0 0 0 0 20394 0 0 -20394 0 0 -1050.21 0 0 1050.21 0 0 0 0 0 0 0 0 24085 0 0 -24085 0 0 -1241.15 0 0 1241.15
0 0 0 0 0 0 0 0 21357.6 0 0 -21357.6 0 0 -1826.97 0 0 1826.97 0 0 0 0 0 0 0 0 24355.6 0 0 -24355.6 0 0 -1935.08 0 0 1935.08
0 0 0 0 0 0 0 0 22218.9 0 0 -22218.9 0 0 -2482.37 0 0 2482.37 0 0 0 0 0 0 0 0 24892 0 0 -24892 0 0 -2536.86 0 0 2536.86
0 0 0 0 0 0 0 0 22892.4 0 0 -22892.4 0 0 -2979.32 0 0 2979.32 0 0 0 0 0 0 0 0 25162.2 0 0 -25162.2 0 0 -2996.81 0 0 2996.81
0 0 0 0 0 0 0 0 23313.5 0 0 -23313.5 0 0 -3312.29 0 0 3312.29 0 0 0 0 0 0 0 0 25384.2 0 0 -25384.2 0 0 -3283.06 0 0 3283.06
0 0 0 0 0 0 0 0 23463.6 0 0 -23463.6 0 0 -3461.2 0 0 3461.2 0 0 0 0 0 0 0 0 25612.1 0 0 -25612.1 0 0 -3470.26 0 0 3470.26
0 0 0 0 0 0 0 0 23345.8 0 0 -23345.8 0 0 -3453.79 0 0 3453.79 0 0 0 0 0 0 0 0 25520.9 0 0 -25520.9 0 0 -3464.82 0 0 3464.82
0 0 0 0 0 0 0 0 22952.3 0 0 -22952.3 0 0 -3282.91 0 0 3282.91 0 0 0 0 0 0 0 0 25141.3 0 0 -25141.3 0 0 -3286.39 0 0 3286.39
0 0 0 0 0 0 0 0 22280.9 0 0 -22280.9 0 0 -2950.63 0 0 2950.63 0 0 0 0 0 0 0 0 24473.9 0 0 -24473.9 0 0 -2936.14 0 0 2936.14
0 0 0 0 0 0 0 0 21341.5 0 0 -21341.5 0 0 -2462.32 0 0 2462.32 0 0 0 0 0 0 0 0 23542.5 0 0 -23542.5 0 0 -2428.21 0 0 2428.21
0 0 0 0 0 0 0 0 20170 0 0 -20170 0 0 -1833.82 0 0 1833.82 0 0 0 0 0 0 0 0 22366.9 0 0 -22366.9 0 0 -1774.13 0 0 1774.13
0 0 0 0 0 0 0 0 18798.2 0 0 -18798.2 0 0 -1084.02 0 0 1084.02 0 0 0 0 0 0 0 0 20978.9 0 0 -20978.9 0 0 -989.722 0 0 989.722
0 0 0 0 0 0 0 0 17255.2 0 0 -17255.2 0 0 -231.259 0 0 231.259 0 0 0 0 0 0 0 0 19417.2 0 0 -19417.2 0 0 -96.2804 0 0 96.2804
0 0 0 0 0 0 0 0 15580.1 0 0 -15580.1 0 0 704.442 0 0 -704.442 0 0 0 0 0 0 0 0 17721.3 0 0 -17721.3 0 0 883.387 0 0 -883.387
0 0 0 0 0 0 0 0 13818.7 0 0 -13818.7 0 0 1700.23 0 0 -1700.23 0 0 0 0 0 0 0 0 15932.5 0 0 -15932.5 0 0 1925.34 0 0 -1925.34
0 0 0 0 0 0 0 0 12014.9 0 0 -12014.9 0 0 2731.25 0 0 -2731.25 0 0 0 0 0 0 0 0 14096.4 0 0 -14096.4 0 0 3004.31 0 0 -3004.31
0 0 0 0 0 0 0 0 10212.3 0 0 -10212.3 0 0 3771.98 0 0 -3771.98 0 0 0 0 0 0 0 0 12259.8 0 0 -12259.8 0 0 4094.21 0 0 -4094.21
0 0 0 0 0 0 0 0 8456.21 0 0 -8456.21 0 0 4797.52 0 0 -4797.52 0 0 0 0 0 0 0 0 10468.4 0 0 -10468.4 0 0 5168.91 0 0 -5168.91
0 0 0 0 0 0 0 0 6790.85 0 0 -6790.85 0 0 5784.15 0 0 -5784.15 0 0 0 0 0 0 0 0 8766.02 0 0 -8766.02 0 0 6202.88 0 0 -6202.88
0 0 0 0 0 0 0 0 5256.42 0 0 -5256.42 0 0 6709.26 0 0 -6709.26 0 0 0 0 0 0 0 0 7194.73 0 0 -7194.73 0 0 7171.87 0 0 -7171.87
0 0 0 0 0 0 0 0 3889.54 0 0 -3889.54 0 0 7551.45 0 0 -7551.45 0 0 0 0 0 0 0 0 5793.32 0 0 -5793.32 0 0 8053.64 0 0 -8053.64
0 0 0 0 0 0 0 0 2723.31 0 0 -2723.31 0 0 8291.42 0 0 -8291.42 0 0 0 0 0 0 0 0 4595.92 0 0 -4595.92 0 0 8828.41 0 0 -8828.41
0 0 0 0 0 0 0 0 1785.67 0 0 -1785.67 0 0 8913.06 0 0 -8913.06 0 0 0 0 0 0 0 0 3631.43 0 0 -3631.43 0 0 9479.06 0 0 -9479.06
0 0 0 0 0 0 0 0 1098.5 0 0 -1098.5 0 0 9403.52 0 0 -9403.52 0 0 0 0 0 0 0 0 2923.14 0 0 -2923.14 0 0 9991.56 0 0 -9991.56
0 0 0 0 0 0 0 0 677.68 0 0 -677.68 0 0 9753.12 0 0 -9753.12 0 0 0 0 0 0 0 0 2487.96 0 0 -2487.96 0 0 10355.5 0 0 -10355.5
0 0 0 0 0 0 0 0 535.187 0 0 -535.187 0 0 9955.28 0 0 -9955.28 0 0 0 0 0 0 0 0 2337.64 0 0 -2337.64 0 0 10564.4 0 0 -10564.4
0 0 0 0 0 0 0 0 712.739 0 0 -712.739 0 0 10003.8 0 0 -10003.8 0 0 0 0 0 0 0 0 2519.57 0 0 -2519.57 0 0 10611.4 0 0 -10611.4
0 0 0 0 0 0 0 0 1204.05 0 0 -1204.05 0 0 9901.46 0 0 -9901.46 0 0 0 0 0 0 0 0 3029.94 0 0 -3029.94 0 0 10496.6 0 0 -10496.6
0 0 0 0 0 0 0 0 1992.41 0 0 -1992.41 0 0 9654.44 0 0 -9654.44 0 0 0 0 0 0 0 0 3851.44 0 0 -3851.44 0 0 10227.7 0 0 -10227.7
0 0 0 0 0 0 0 0 3053.18 0 0 -3053.18 0 0 9272.37 0 0 -9272.37 0 0 0 0 0 0 0 0 4958.07 0 0 -4958.07 0 0 9814.81 0 0 -9814.81
0 0 0 0 0 0 0 0 4353.73 0 0 -4353.73 0 0 8768.3 0 0 -8768.3 0 0 0 0 0 0 0 0 6315.98 0 0 -6315.98 0 0 9272.75 0 0 -9272.75
0 0 0 0 0 0 0 0 5854.62 0 0 -5854.62 0 0 8159.04 0 0 -8159.04 0 0 0 0 0 0 0 0 7883.65 0 0 -7883.65 0 0 8619.31 0 0 -8619.31
0 0 0 0 0 0 0 0 7510.72 0 0 -7510.72 0 0 7464.23 0 0 -7464.23 0 0 0 0 0 0 0 0 9614.01 0 0 -9614.01 0 0 7875.13 0 0 -7875.13
0 0 0 0 0 0 0 0 9272.96 0 0 -9272.96 0 0 6705.29 0 0 -6705.29 0 0 0 0 0 0 0 0 11455.8 0 0 -11455.8 0 0 7063.08 0 0 -7063.08
0 0 0 0 0 0 0 0 11090 0 0 -11090 0 0 5904.81 0 0 -5904.81 0 0 0 0 0 0 0 0 13355.2 0 0 -13355.2 0 0 6207.54 0 0 -6207.54
0 0 0 0 0 0 0 0 12909.7 0 0 -12909.7 0 0 5086.12 0 0 -5086.12 0 0 0 0 0 0 0 0 15257.8 0 0 -15257.8 0 0 5333.6 0 0 -5333.6
0 0 0 0 0 0 0 0 14680.7 0 0 -14680.7 0 0 4272.8 0 0 -4272.8 0 0 0 0 0 0 0 0 17109.6 0 0 -17109.6 0 0 4466.34 0 0 -4466.34
0 0 0 0 0 0 0 0 16353.2 0 0 -16353.2 0 0 3487.91 0 0 -3487.91 0 0 0 0 0 0 0 0 18858.5 0 0 -18858.5 0 0 3630.17 0 0 -3630.17
0 0 0 0 0 0 0 0 17880.6 0 0 -17880.6 0 0 2753.13 0 0 -2753.13 0 0 0 0 0 0 0 0 20455.7 0 0 -20455.7 0 0 2848.23 0 0 -2848.23
0 0 0 0 0 0 0 0 19220.6 0 0 -19220.6 0 0 2088.29 0 0 -2088.29 0 0 0 0 0 0 0 0 21856.6 0 0 -21856.6 0 0 2141.73 0 0 -2141.73
0 0 0 0 0 0 0 0 20335.6 0 0 -20335.6 0 0 1510.93 0 0 -1510.93 0 0 0 0 0 0 0 0 23021.9 0 0 -23021.9 0 0 1529.42 0 0 -1529.42
0 0 0 0 0 0 0 0 21194.3 0 0 -21194.3 0 0 1035.88 0 0 -1035.88 0 0 0 0 0 0 0 0 23918.8 0 0 -23918.8 0 0 1027.01 0 0 -1027.01
0 0 0 0 0 0 0 0 21771.7 0 0 -21771.7 0 0 674.813 0 0 -674.813 0 0 0 0 0 0 0 0 24521 0 0 -24521 0 0 646.888 0 0 -646.888
0 0 0 0 0 0 0 0 22050.2 0 0 -22050.2 0 0 435.882 0 0 -435.882 0 0 0 0 0 0 0 0 24810.4 0 0 -24810.4 0 0 397.735 0 0 -397.735
0 0 0 0 0 0 0 0 22020.5 0 0 -22020.5 0 0 323.491 0 0 -323.491 0 0 0 0 0 0 0 0 24776.9 0 0 -24776.9 0 0 284.296 0 0 -284.296
0 0 0 0 0 0 0 0 21682 0 0 -21682 0 0 338.215 0 0 -338.215 0 0 0 0 0 0 0 0 24420 0 0 -24420 0 0 307.188 0 0 -307.188
0 0 0 0 0 0 0 0 21043.4 0 0 -21043.4 0 0 476.772 0 0 -476.772 0 0 0 0 0 0 0 0 23749 0 0 -23749 0 0 462.86 0 0 -462.86
0 0 0 0 0 0 0 0 20123.3 0 0 -20123.3 0 0 732.083 0 0 -732.083 0 0 0 0 0 0 0 0 22783 0 0 -22783 0 0 743.707 0 0 -743.707
0 0 0 0 0 0 0 0 18949 0 0 -18949 0 0 1093.5 0 0 -1093.5 0 0 0 0 0 0 0 0 21550.7 0 0 -21550.7 0 0 1138.32 0 0 -1138.32
0 0 0 0 0 0 0 0 17555.9 0 0 -17555.9 0 0 1547.22 0 0 -1547.22 0 0 0 0 0 0 0 0 20088.8 0 0 -20088.8 0 0 1631.92 0 0 -1631.92
0 0 0 0 0 0 0 0 15985.2 0 0 -15985.2 0 0 2076.88 0 0 -2076.88 0 0 0 0 0 0 0 0 18440.1 0 0 -18440.1 0 0 2206.94 0 0 -2206.94
0 0 0 0 0 0 0 0 14281.4 0 0 -14281.4 0 0 2664.07 0 0 -2664.07 0 0 0 0 0 0 0 0 16651.1 0 0 -16651.1 0 0 2843.69 0 0 -2843.69
0 0 0 0 0 0 0 0 12491.9 0 0 -12491.9 0 0 3288.95 0 0 -3288.95 0 0 0 0 0 0 0 0 14771.2 0 0 -14771.2 0 0 3520.93 0 0 -3520.93
0 0 0 0 0 0 0 0 10664.9 0 0 -10664.9 0 0 3930.79 0 0 -3930.79 0 0 0 0 0 0 0 0 12850.8 0 0 -12850.8 0 0 4216.54 0 0 -4216.54
0 0 0 0 0 0 0 0 8848.52 0 0 -8848.52 0 0 4568.68 0 0 -4568.68 0 0 0 0 0 0 0 0 10939.9 0 0 -10939.9 0 0 4908.17 0 0 -4908.17
0 0 0 0 0 0 0 0 7089.37 0 0 -7089.37 0 0 5182.06 0 0 -5182.06 0 0 0 0 0 0 0 0 9087.58 0 0 -9087.58 0 0 5573.84 0 0 -5573.84
0 0 0 0 0 0 0 0 5431.88 0 0 -5431.88 0 0 5751.31 0 0 -5751.31 0 0 0 0 0 0 0 0 7340.13 0 0 -7340.13 0 0 6192.57 0 0 -6192.57
0 0 0 0 0 0 0 0 3916.8 0 0 -3916.8 0 0 6258.29 0 0 -6258.29 0 0 0 0 0 0 0 0 5740.19 0 0 -5740.19 0 0 6744.98 0 0 -6744.98
0 0 0 0 0 0 0 0 2579.61 0 0 -2579.61 0 0 6686.96 0 0 -6686.96 0 0 0 0 0 0 0 0 4324.9 0 0 -4324.9 0 0 7213.91 0 0 -7213.91
0 0 0 0 0 0 0 0 1448.73 0 0 -1448.73 0 0 7023.82 0 0 -7023.82 0 0 0 0 0 0 0 0 3124.05 0 0 -3124.05 0 0 7584.93 0 0 -7584.93
0 0 0 0 0 0 0 0 543.753 0 0 -543.753 0 0 7258.38 0 0 -7258.38 0 0 0 0 0 0 0 0 2158.35 0 0 -2158.35 0 0 7846.85 0 0 -7846.85
0 0 0 0 0 0 0 0 -125.492 0 0 125.492 0 0 7383.4 0 0 -7383.4 0 0 0 0 0 0 0 0 1438.4 0 0 -1438.4 0 0 7992.04 0 0 -7992.04
0 0 0 0 0 0 0 0 -558.437 0 0 558.437 0 0 7394.97 0 0 -7394.97 0 0 0 0 0 0 0 0 965.257 0 0 -965.257 0 0 8016.44 0 0 -8016.44
0 0 0 0 0 0 0 0 -762.284 0 0 762.284 0 0 7292.39 0 0 -7292.39 0 0 0 0 0 0 0 0 731.898 0 0 -731.898 0 0 7919.46 0 0 -7919.46
0 0 0 0 0 0 0 0 -750.238 0 0 750.238 0 0 7078 0 0 -7078 0 0 0 0 0 0 0 0 725.012 0 0 -725.012 0 0 7703.73 0 0 -7703.73
0 0 0 0 0 0 0 0 -539.867 0 0 539.867 0 0 6756.88 0 0 -6756.88 0 0 0 0 0 0 0 0 926.628 0 0 -926.628 0 0 7374.79 0 0 -7374.79
0 0 0 0 0 0 0 0 -151.973 0 0 151.973 0 0 6336.66 0 0 -6336.66 0 0 0 0 0 0 0 0 1315.27 0 0 -1315.27 0 0 6940.82 0 0 -6940.82
0 0 0 0 0 0 0 0 390.039 0 0 -390.039 0 0 5827.16 0 0 -5827.16 0 0 0 0 0 0 0 0 1866.6 0 0 -1866.6 0 0 6412.33 0 0 -6412.33
0 0 0 0 0 0 0 0 1060.46 0 0 -1060.46 0 0 5240.17 0 0 -5240.17 0 0 0 0 0 0 0 0 2553.75 0 0 -2553.75 0 0 5801.89 0 0 -5801.89
0 0 0 0 0 0 0 0 1831.61 0 0 -1831.61 0 0 4589.13 0 0 -4589.13 0 0 0 0 0 0 0 0 3347.71 0 0 -3347.71 0 0 5123.81 0 0 -5123.81
0 0 0 0 0 0 0 0 2674.45 0 0 -2674.45 0 0 3888.72 0 0 -3888.72 0 0 0 0 0 0 0 0 4217.95 0 0 -4217.95 0 0 4393.74 0 0 -4393.74
0 0 0 0 0 0 0 0 3559.12 0 0 -3559.12 0 0 3154.59 0 0 -3154.59 0 0 0 0 0 0 0 0 5133.05 0 0 -5133.05 0 0 3628.29 0 0 -3628.29
0 0 0 0 0 0 0 0 4455.38 0 0 -4455.38 0 0 2402.9 0 0 -2402.9 0 0 0 0 0 0 0 0 6061.16 0 0 -6061.16 0 0 2844.61 0 0 -2844.61
0 0 0 0 0 0 0 0 5332.85 0 0 -5332.85 0 0 1650 0 0 -1650 0 0 0 0 0 0 0 0 6970.25 0 0 -6970.25 0 0 2060.06 0 0 -2060.06
0 0 0 0 0 0 0 0 6161.81 0 0 -6161.81 0 0 911.996 0 0 -911.996 0 0 0 0 0 0 0 0 7828.99 0 0 -7828.99 0 0 1291.74 0 0 -1291.74
0 0 0 0 0 0 0 0 6914.54 0 0 -6914.54 0 0 204.312 0 0 -204.312 0 0 0 0 0 0 0 0 8608.14 0 0 -8608.14 0 0 556.017 0 0 -556.017
0 0 0 0 0 0 0 0 7565.65 0 0 -7565.65 0 0 -453.609 0 0 453.609 0 0 0 0 0 0 0 0 9280.64 0 0 -9280.64 0 0 -122.817 0 0 122.817
0 0 0 0 0 0 0 0 8093.24 0 0 -8093.24 0 0 -1037.03 0 0 1037.03 0 0 0 0 0 0 0 0 9820.4 0 0 -9820.4 0 0 -720.523 0 0 720.523
0 0 0 0 0 0 0 0 8482.89 0 0 -8482.89 0 0 -1557.1 0 0 1557.1 0 0 0 0 0 0 0 0 10218.7 0 0 -10218.7 0 0 -1255.96 0 0 1255.96
0 0 0 0 0 0 0 0 8721.47 0 0 -8721.47 0 0 -2002.32 0 0 2002.32 0 0 0 0 0 0 0 0 10454.3 0 0 -10454.3 0 0 -1708.76 0 0 1708.76
0 0 0 0 0 0 0 0 8833.68 0 0 -8833.68 0 0 -2375.26 0 0 2375.26 0 0 0 0 0 0 0 0 10243.4 0 0 -10243.4 0 0 -2042.63 0 0 2042.63
0 0 0 0 0 0 0 0 8570.6 0 0 -8570.6 0 0 -2642.75 0 0 2642.75 0 0 0 0 0 0 0 0 9949.64 0 0 -9949.64 0 0 -2295.61 0 0 2295.61
0 0 0 0 0 0 0 0 8129.14 0 0 -8129.14 0 0 -2819.7 0 0 2819.7 0 0 0 0 0 0 0 0 9470.39 0 0 -9470.39 0 0 -2461.15 0 0 2461.15
0 0 0 0 0 0 0 0 7527 0 0 -7527 0 0 -2909.28 0 0 2909.28 0 0 0 0 0 0 0 0 8842.26 0 0 -8842.26 0 0 -2537.08 0 0 2537.08
0 0 0 0 0 0 0 0 6794.08 0 0 -6794.08 0 0 -2917.92 0 0 2917.92 0 0 0 0 0 0 0 0 8034.59 0 0 -8034.59 0 0 -2524.39 0 0 2524.39
0 0 0 0 0 0 0 0 5915.78 0 0 -5915.78 0 0 -2848.82 0 0 2848.82 0 0 0 0 0 0 0 0 7080.42 0 0 -7080.42 0 0 -2428.51 0 0 2428.51
0 0 0 0 0 0 0 0 4900.13 0 0 -4900.13 0 0 -2706.99 0 0 2706.99 0 0 0 0 0 0 0 0 5997.92 0 0 -5997.92 0 0 -2256.84 0 0 2256.84
0 0 0 0 0 0 0 0 3777.93 0 0 -3777.93 0 0 -2500.14 0 0 2500.14 0 0 0 0 0 0 0 0 4802.01 0 0 -4802.01 0 0 -2016.08 0 0 2016.08
0 0 0 0 0 0 0 0 2613.43 0 0 -2613.43 0 0 -2241.03 0 0 2241.03 0 0 0 0 0 0 0 0 3605.58 0 0 -3605.58 0 0 -1729.27 0 0 1729.27
0 0 0 0 0 0 0 0 1395.56 0 0 -1395.56 0 0 -1933.29 0 0 1933.29 0 0 0 0 0 0 0 0 2312.31 0 0 -2312.31 0 0 -1390.7 0 0 1390.7
0 0 0 0 0 0 0 0 124.328 0 0 -124.328 0 0 -1591.89 0 0 1591.89 0 0 0 0 0 0 0 0 981.588 0 0 -981.588 0 0 -1016.86 0 0 1016.86
0 0 0 0 0 0 0 0 -1175.28 0 0 1175.28 0 0 -1227.9 0 0 1227.9 0 0 0 0 0 0 0 0 -378.421 0 0 378.421 0 0 -615.929 0 0 615.929
0 0 0 0 0 0 0 0 -2478.29 0 0 2478.29 0 0 -854.449 0 0 854.449 0 0 0 0 0 0 0 0 -1740.89 0 0 1740.89 0 0 -204.183 0 0 204.183
0 0 0 0 0 0 0 0 -3757.47 0 0 3757.47 0 0 -483.916 0 0 483.916 0 0 0 0 0 0 0 0 -3082.85 0 0 3082.85 0 0 202.449 0 0 -202.449
0 0 0 0 0 0 0 0 -4990.31 0 0 4990.31 0 0 -129.703 0 0 129.703 0 0 0 0 0 0 0 0 -4374.38 0 0 4374.38 0 0 591.366 0 0 -591.366
0 0 0 0 0 0 0 0 -6152.21 0 0 6152.21 0 0 195.368 0 0 -195.368 0 0 0 0 0 0 0 0 -5590.71 0 0 5590.71 0 0 949.674 0 0 -949.674
0 0 0 0 0 0 0 0 -7218.93 0 0 7218.93 0 0 480.233 0 0 -480.233 0 0 0 0 0 0 0 0 -6709.95 0 0 6709.95 0 0 1265.67 0 0 -1265.67
0 0 0 0 0 0 0 0 -8170.35 0 0 8170.35 0 0 715.619 0 0 -715.619 0 0 0 0 0 0 0 0 -7711.75 0 0 7711.75 0 0 1528.7 0 0 -1528.7
0 0 0 0 0 0 0 0 -8989.94 0 0 8989.94 0 0 893.134 0 0 -893.134 0 0 0 0 0 0 0 0 -8577.89 0 0 8577.89 0 0 1729.69 0 0 -1729.69
0 0 0 0 0 0 0 0 -9663.27 0 0 9663.27 0 0 1005.36 0 0 -1005.36 0 0 0 0 0 0 0 0 -9293.65 0 0 9293.65 0 0 1861.5 0 0 -1861.5
0 0 0 0 0 0 0 0 -10178.9 0 0 10178.9 0 0 1046.9 0 0 -1046.9 0 0 0 0 0 0 0 0 -9848.1 0 0 9848.1 0 0 1918.83 0 0 -1918.83
0 0 0 0 0 0 0 0 -10529.8 0 0 10529.8 0 0 1014.91 0 0 -1014.91 0 0 0 0 0 0 0 0 -10234 0 0 10234 0 0 1898.26 0 0 -1898.26
0 0 0 0 0 0 0 0 -10712.8 0 0 10712.8 0 0 908.583 0 0 -908.583 0 0 0 0 0 0 0 0 -10447.9 0 0 10447.9 0 0 1798.55 0 0 -1798.55
0 0 0 0 0 0 0 0 -10728.3 0 0 10728.3 0 0 728.84 0 0 -728.84 0 0 0 0 0 0 0 0 -10490.8 0 0 10490.8 0 0 1620.77 0 0 -1620.77
0 0 0 0 0 0 0 0 -10581.3 0 0 10581.3 0 0 478.509 0 0 -478.509 0 0 0 0 0 0 0 0 -10367.8 0 0 10367.8 0 0 1368.21 0 0 -1368.21
0 0 0 0 0 0 0 0 -10280.8 0 0 10280.8 0 0 162.596 0 0 -162.596 0 0 0 0 0 0 0 0 -10088.1 0 0 10088.1 0 0 1046.2 0 0 -1046.2
0 0 0 0 0 0 0 0 -9839.5 0 0 9839.5 0 0 -211.881 0 0 211.881 0 0 0 0 0 0 0 0 -9664.8 0 0 9664.8 0 0 661.946 0 0 -661.946
0 0 0 0 0 0 0 0 -9274.32 0 0 9274.32 0 0 -630.473 0 0 630.473 0 0 0 0 0 0 0 0 -9114.7 0 0 9114.7 0 0 226.856 0 0 -226.856
0 0 0 0 0 0 0 0 -8603.23 0 0 8603.23 0 0 -1081.95 0 0 1081.95 0 0 0 0 0 0 0 0 -8458.06 0 0 8458.06 0 0 -234.092 0 0 234.092
0 0 0 0 0 0 0 0 -7846.37 0 0 7846.37 0 0 -1562.77 0 0 1562.77 0 0 0 0 0 0 0 0 -7710.76 0 0 7710.76 0 0 -732.762 0 0 732.762
0 0 0 0 0 0 0 0 -7025.56 0 0 7025.56 0 0 -2061.51 0 0 2061.51 0 0 0 0 0 0 0 0 -6899.29 0 0 6899.29 0 0 -1247.62 0 0 1247.62
0 0 0 0 0 0 0 0 -6165.63 0 0 6165.63 0 0 -2565.34 0 0 2565.34 0 0 0 0 0 0 0 0 -6048.93 0 0 6048.93 0 0 -1769.62 0 0 1769.62
0 0 0 0 0 0 0 0 -5292.88 0 0 5292.88 0 0 -3062.25 0 0 3062.25 0 0 0 0 0 0 0 0 -5186.58 0 0 5186.58 0 0 -2284.11 0 0 2284.11
0 0 0 0 0 0 0 0 -4433.77 0 0 4433.77 0 0 -3539.78 0 0 3539.78 0 0 0 0 0 0 0 0 -4339.55 0 0 4339.55 0 0 -2778.61 0 0 2778.61
0 0 0 0 0 0 0 0 -3614.63 0 0 3614.63 0 0 -3985.78 0 0 3985.78 0 0 0 0 0 0 0 0 -3535.24 0 0 3535.24 0 0 -3240.08 0 0 3240.08
0 0 0 0 0 0 0 0 -2861.11 0 0 2861.11 0 0 -4388.61 0 0 4388.61 0 0 0 0 0 0 0 0 -2800.03 0 0 2800.03 0 0 -3656.45 0 0 3656.45
0 0 0 0 0 0 0 0 -2193.76 0 0 2193.76 0 0 -4738.21 0 0 4738.21 0 0 0 0 0 0 0 0 -2157.76 0 0 2157.76 0 0 -4016.58 0 0 4016.58
0 0 0 0 0 0 0 0 -1633.99 0 0 1633.99 0 0 -5025.54 0 0 5025.54 0 0 0 0 0 0 0 0 -1630.98 0 0 1630.98 0 0 -4310.47 0 0 4310.47
0 0 0 0 0 0 0 0 -1201.57 0 0 1201.57 0 0 -5242.69 0 0 5242.69 0 0 0 0 0 0 0 0 -1239.65 0 0 1239.65 0 0 -4529.84 0 0 4529.84
0 0 0 0 0 0 0 0 -910.311 0 0 910.311 0 0 -5383.73 0 0 5383.73 0 0 0 0 0 0 0 0 -983.819 0 0 983.819 0 0 -4670.12 0 0 4670.12
0 0 0 0 0 0 0 0 -777.464 0 0 777.464 0 0 -5442.91 0 0 5442.91 0 0 0 0 0 0 0 0 -885.913 0 0 885.913 0 0 -4727.3 0 0 4727.3
0 0 0 0 0 0 0 0 -812.223 0 0 812.223 0 0 -5418.8 0 0 5418.8 0 0 0 0 0 0 0 0 -959.853 0 0 959.853 0 0 -4695.42 0 0 4695.42
0 0 0 0 0 0 0 0 -1022.69 0 0 1022.69 0 0 -5309 0 0 5309 0 0 0 0 0 0 0 0 -1213.03 0 0 1213.03 0 0 -4573.62 0 0 4573.62
0 0 0 0 0 0 0 0 -1412.93 0 0 1412.93 0 0 -5115.6 0 0 5115.6 0 0 0 0 0 0 0 0 -1647.24 0 0 1647.24 0 0 -4363.2 0 0 4363.2
0 0 0 0 0 0 0 0 -1981.08 0 0 1981.08 0 0 -4842.57 0 0 4842.57 0 0 0 0 0 0 0 0 -2260.8 0 0 2260.8 0 0 -4068.9 0 0 4068.9
0 0 0 0 0 0 0 0 -2720.07 0 0 2720.07 0 0 -4496.36 0 0 4496.36 0 0 0 0 0 0 0 0 -3046.32 0 0 3046.32 0 0 -3697.53 0 0 3697.53
0 0 0 0 0 0 0 0 -3617.92 0 0 3617.92 0 0 -4085.73 0 0 4085.73 0 0 0 0 0 0 0 0 -3990.98 0 0 3990.98 0 0 -3258.14 0 0 3258.14
0 0 0 0 0 0 0 0 -4657.46 0 0 4657.46 0 0 -3621.5 0 0 3621.5 0 0 0 0 0 0 0 0 -5076.83 0 0 5076.83 0 0 -2761.98 0 0 2761.98
0 0 0 0 0 0 0 0 -5816.61 0 0 5816.61 0 0 -3116.18 0 0 3116.18 0 0 0 0 0 0 0 0 -6281.44 0 0 6281.44 0 0 -2222.12 0 0 2222.12
0 0 0 0 0 0 0 0 -7069.08 0 0 7069.08 0 0 -2583.62 0 0 2583.62 0 0 0 0 0 0 0 0 -7578.21 0 0 7578.21 0 0 -1653.25 0 0 1653.25
0 0 0 0 0 0 0 0 -8385.13 0 0 8385.13 0 0 -2038.78 0 0 2038.78 0 0 0 0 0 0 0 0 -8937.05 0 0 8937.05 0 0 -1071.15 0 0 1071.15
0 0 0 0 0 0 0 0 -9732.5 0 0 9732.5 0 0 -1497.35 0 0 1497.35 0 0 0 0 0 0 0 0 -10325.4 0 0 10325.4 0 0 -492.276 0 0 492.276
0 0 0 0 0 0 0 0 -11077.1 0 0 11077.1 0 0 -975.375 0 0 975.375 0 0 0 0 0 0 0 0 -11717.3 0 0 11717.3 0 0 67.5372 0 0 -67.5372
0 0 0 0 0 0 0 0 -12388.5 0 0 12388.5 0 0 -488.542 0 0 488.542 0 0 0 0 0 0 0 0 -13080.5 0 0 13080.5 0 0 592.599 0 0 -592.599
0 0 0 0 0 0 0 0 -13632.9 0 0 13632.9 0 0 -51.4758 0 0 51.4758 0 0 0 0 0 0 0 0 -14372.9 0 0 14372.9 0 0 1065.18 0 0 -1065.18
0 0 0 0 0 0 0 0 -14777.1 0 0 14777.1 0 0 321.908 0 0 -321.908 0 0 0 0 0 0 0 0 -15559.6 0 0 15559.6 0 0 1470.74 0 0 -1470.74
0 0 0 0 0 0 0 0 -15798.8 0 0 15798.8 0 0 620.035 0 0 -620.035 0 0 0 0 0 0 0 0 -16609.8 0 0 16609.8 0 0 1795.71 0 0 -1795.71
0 0 0 0 0 0 0 0 -16685.1 0 0 16685.1 0 0 834.315 0 0 -834.315 0 0 0 0 0 0 0 0 -17492.9 0 0 17492.9 0 0 2027.62 0 0 -2027.62
0 0 0 0 0 0 0 0 -17412.4 0 0 17412.4 0 0 955.747 0 0 -955.747 0 0 0 0 0 0 0 0 -18218.6 0 0 18218.6 0 0 2161.18 0 0 -2161.18
0 0 0 0 0 0 0 0 -17956.3 0 0 17956.3 0 0 975.161 0 0 -975.161 0 0 0 0 0 0 0 0 -18786.8 0 0 18786.8 0 0 2195.68 0 0 -2195.68
0 0 0 0 0 0 0 0 -18315.5 0 0 18315.5 0 0 891.797 0 0 -891.797 0 0 0 0 0 0 0 0 -19160.6 0 0 19160.6 0 0 2119.15 0 0 -2119.15
0 0 0 0 0 0 0 0 -18488.6 0 0 18488.6 0 0 705.013 0 0 -705.013 0 0 0 0 0 0 0 0 -19344.4 0 0 19344.4 0 0 1934.84 0 0 -1934.84
0 0 0 0 0 0 0 0 -18475.3 0 0 18475.3 0 0 417.009 0 0 -417.009 0 0 0 0 0 0 0 0 -19335.7 0 0 19335.7 0 0 1642.56 0 0 -1642.56
0 0 0 0 0 0 0 0 -18278.3 0 0 18278.3 0 0 31.1937 0 0 -31.1937 0 0 0 0 0 0 0 0 -19140.9 0 0 19140.9 0 0 1247.95 0 0 -1247.95
0 0 0 0 0 0 0 0 -17906 0 0 17906 0 0 -446.013 0 0 446.013 0 0 0 0 0 0 0 0 -18763.6 0 0 18763.6 0 0 756.711 0 0 -756.711
0 0 0 0 0 0 0 0 -17372.6 0 0 17372.6 0 0 -1005.43 0 0 1005.43 0 0 0 0 0 0 0 0 -18218.9 0 0 18218.9 0 0 178.145 0 0 -178.145
0 0 0 0 0 0 0 0 -16696 0 0 16696 0 0 -1635.93 0 0 1635.93 0 0 0 0 0 0 0 0 -17526 0 0 17526 0 0 -475.857 0 0 475.857
0 0 0 0 0 0 0 0 -15897.7 0 0 15897.7 0 0 -2324.67 0 0 2324.67 0 0 0 0 0 0 0 0 -16707.2 0 0 16707.2 0 0 -1191.87 0 0 1191.87
0 0 0 0 0 0 0 0 -15002.5 0 0 15002.5 0 0 -3057.43 0 0 3057.43 0 0 0 0 0 0 0 0 -15787.3 0 0 15787.3 0 0 -1954.81 0 0 1954.81
0 0 0 0 0 0 0 0 -14039.8 0 0 14039.8 0 0 -3801.12 0 0 3801.12 0 0 0 0 0 0 0 0 -14795.8 0 0 14795.8 0 0 -2734.13 0 0 2734.13
0 0 0 0 0 0 0 0 -13033.5 0 0 13033.5 0 0 -4556.29 0 0 4556.29 0 0 0 0 0 0 0 0 -13763.9 0 0 13763.9 0 0 -3512.43 0 0 3512.43
0 0 0 0 0 0 0 0 -12015.4 0 0 12015.4 0 0 -5306.97 0 0 5306.97 0 0 0 0 0 0 0 0 -12713.9 0 0 12713.9 0 0 -4294.05 0 0 4294.05
0 0 0 0 0 0 0 0 -11012.4 0 0 11012.4 0 0 -6039.34 0 0 6039.34 0 0 0 0 0 0 0 0 -11680.6 0 0 11680.6 0 0 -5055.62 0 0 5055.62
0 0 0 0 0 0 0 0 -10053.8 0 0 10053.8 0 0 -6737.74 0 0 6737.74 0 0 0 0 0 0 0 0 -10690.9 0 0 10690.9 0 0 -5782.94 0 0 5782.94
0 0 0 0 0 0 0 0 -9165.73 0 0 9165.73 0 0 -7388.36 0 0 7388.36 0 0 0 0 0 0 0 0 -9772.35 0 0 9772.35 0 0 -6460.16 0 0 6460.16
0 0 0 0 0 0 0 0 -8371.59 0 0 8371.59 0 0 -7978.05 0 0 7978.05 0 0 0 0 0 0 0 0 -8948.87 0 0 8948.87 0 0 -7073.83 0 0 7073.83
0 0 0 0 0 0 0 0 -7692.07 0 0 7692.07 0 0 -8494.82 0 0 8494.82 0 0 0 0 0 0 0 0 -8241.82 0 0 8241.82 0 0 -7611.72 0 0 7611.72
0 0 0 0 0 0 0 0 -7148.34 0 0 7148.34 0 0 -8928.24 0 0 8928.24 0 0 0 0 0 0 0 0 -7671.07 0 0 7671.07 0 0 -8063.32 0 0 8063.32
0 0 0 0 0 0 0 0 -6776.74 0 0 6776.74 0 0 -9268.11 0 0 9268.11 0 0 0 0 0 0 0 0 -7276.37 0 0 7276.37 0 0 -8417.65 0 0 8417.65
0 0 0 0 0 0 0 0 -6586.35 0 0 6586.35 0 0 -9509.74 0 0 9509.74 0 0 0 0 0 0 0 0 -7070.08 0 0 7070.08 0 0 -8667.59 0 0 8667.59
0 0 0 0 0 0 0 0 -6582.85 0 0 6582.85 0 0 -9649.86 0 0 9649.86 0 0 0 0 0 0 0 0 -7058.49 0 0 7058.49 0 0 -8810.41 0 0 8810.41
0 0 0 0 0 0 0 0 -6766.35 0 0 6766.35 0 0 -9687.43 0 0 9687.43 0 0 0 0 0 0 0 0 -7241.13 0 0 7241.13 0 0 -8845.31 0 0 8845.31
0 0 0 0 0 0 0 0 -7130.13 0 0 7130.13 0 0 -9622.89 0 0 9622.89 0 0 0 0 0 0 0 0 -7610.86 0 0 7610.86 0 0 -8773.33 0 0 8773.33
0 0 0 0 0 0 0 0 -7659.19 0 0 7659.19 0 0 -9459.93 0 0 9459.93 0 0 0 0 0 0 0 0 -8152.61 0 0 8152.61 0 0 -8597.11 0 0 8597.11
0 0 0 0 0 0 0 0 -8330.37 0 0 8330.37 0 0 -9206.51 0 0 9206.51 0 0 0 0 0 0 0 0 -8841.97 0 0 8841.97 0 0 -8325.7 0 0 8325.7
0 0 0 0 0 0 0 0 -9113.84 0 0 9113.84 0 0 -8872.59 0 0 8872.59 0 0 0 0 0 0 0 0 -9648.11 0 0 9648.11 0 0 -7969.65 0 0 7969.65
0 0 0 0 0 0 0 0 -9975.76 0 0 9975.76 0 0 -8469.7 0 0 8469.7 0 0 0 0 0 0 0 0 -10535.9 0 0 10535.9 0 0 -7541.87 0 0 7541.87
0 0 0 0 0 0 0 0 -10880.2 0 0 10880.2 0 0 -8010.9 0 0 8010.9 0 0 0 0 0 0 0 0 -11468 0 0 11468 0 0 -7056.51 0 0 7056.51
0 0 0 0 0 0 0 0 -11790.5 0 0 11790.5 0 0 -7510.29 0 0 7510.29 0 0 0 0 0 0 0 0 -12406.5 0 0 12406.5 0 0 -6528.52 0 0 6528.52
0 0 0 0 0 0 0 0 -12670.5 0 0 12670.5 0 0 -6982.38 0 0 6982.38 0 0 0 0 0 0 0 0 -13313.7 0 0 13313.7 0 0 -5973.31 0 0 5973.31
0 0 0 0 0 0 0 0 -13484.4 0 0 13484.4 0 0 -6441.54 0 0 6441.54 0 0 0 0 0 0 0 0 -14152.5 0 0 14152.5 0 0 -5406.36 0 0 5406.36
0 0 0 0 0 0 0 0 -14198.1 0 0 14198.1 0 0 -5901.68 0 0 5901.68 0 0 0 0 0 0 0 0 -14887.3 0 0 14887.3 0 0 -4842.71 0 0 4842.71
0 0 0 0 0 0 0 0 -14780.7 0 0 14780.7 0 0 -5375.82 0 0 5375.82 0 0 0 0 0 0 0 0 -15486 0 0 15486 0 0 -4296.35 0 0 4296.35
0 0 0 0 0 0 0 0 -15206.5 0 0 15206.5 0 0 -4875.69 0 0 4875.69 0 0 0 0 0 0 0 0 -15921.8 0 0 15921.8 0 0 -3779.76 0 0 3779.76
0 0 0 0 0 0 0 0 -15454.8 0 0 15454.8 0 0 -4411.39 0 0 4411.39 0 0 0 0 0 0 0 0 -16173 0 0 16173 0 0 -3303.57 0 0 3303.57
0 0 0 0 0 0 0 0 -15510.1 0 0 15510.1 0 0 -3991.1 0 0 3991.1 0 0 0 0 0 0 0 0 -16223.4 0 0 16223.4 0 0 -2876.5 0 0 2876.5
0 0 0 0 0 0 0 0 -15360.9 0 0 15360.9 0 0 -3621.01 0 0 3621.01 0 0 0 0 0 0 0 0 -16061 0 0 16061 0 0 -2505.15 0 0 2505.15
0 0 0 0 0 0 0 0 -15000.4 0 0 15000.4 0 0 -3305.24 0 0 3305.24 0 0 0 0 0 0 0 0 -15678.9 0 0 15678.9 0 0 -2193.86 0 0 2193.86
0 0 0 0 0 0 0 0 -14427.2 0 0 14427.2 0 0 -3045.67 0 0 3045.67 0 0 0 0 0 0 0 0 -15075.1 0 0 15075.1 0 0 -1944.57 0 0 1944.57
0 0 0 0 0 0 0 0 -13645.3 0 0 13645.3 0 0 -2841.87 0 0 2841.87 0 0 0 0 0 0 0 0 -14254.4 0 0 14254.4 0 0 -1756.72 0 0 1756.72
0 0 0 0 0 0 0 0 -12665.5 0 0 12665.5 0 0 -2691.07 0 0 2691.07 0 0 0 0 0 0 0 0 -13227.7 0 0 13227.7 0 0 -1627.27 0 0 1627.27
0 0 0 0 0 0 0 0 -11505 0 0 11505 0 0 -2588.28 0 0 2588.28 0 0 0 0 0 0 0 0 -12012.9 0 0 12012.9 0 0 -1550.74 0 0 1550.74
0 0 0 0 0 0 0 0 -10187.3 0 0 10187.3 0 0 -2526.49 0 0 2526.49 0 0 0 0 0 0 0 0 -10634.4 0 0 10634.4 0 0 -1519.47 0 0 1519.47
0 0 0 0 0 0 0 0 -8740.93 0 0 8740.93 0 0 -2496.97 0 0 2496.97 0 0 0 0 0 0 0 0 -9122.07 0 0 9122.07 0 0 -1523.91 0 0 1523.91
0 0 0 0 0 0 0 0 -7198.59 0 0 7198.59 0 0 -2489.64 0 0 2489.64 0 0 0 0 0 0 0 0 -7509.54 0 0 7509.54 0 0 -1553.08 0 0 1553.08
0 0 0 0 0 0 0 0 -5595.1 0 0 5595.1 0 0 -2493.53 0 0 2493.53 0 0 0 0 0 0 0 0 -5833.02 0 0 5833.02 0 0 -1595.02 0 0 1595.02
0 0 0 0 0 0 0 0 -3966.01 0 0 3966.01 0 0 -2497.2 0 0 2497.2 0 0 0 0 0 0 0 0 -4129.39 0 0 4129.39 0 0 -1637.3 0 0 1637.3
0 0 0 0 0 0 0 0 -2345.97 0 0 2345.97 0 0 -2489.26 0 0 2489.26 0 0 0 0 0 0 0 0 -2434.69 0 0 2434.69 0 0 -1667.55 0 0 1667.55
0 0 0 0 0 0 0 0 -767.745 0 0 767.745 0 0 -2458.7 0 0 2458.7 0 0 0 0 0 0 0 0 -782.989 0 0 782.989 0 0 -1673.84 0 0 1673.84
0 0 0 0 0 0 0 0 738.411 0 0 -738.411 0 0 -2395.29 0 0 2395.29 0 0 0 0 0 0 0 0 794.185 0 0 -794.185 0 0 -1645.09 0 0 1645.09
0 0 0 0 0 0 0 0 2139.4 0 0 -2139.4 0 0 -2288.73 0 0 2288.73 0 0 0 0 0 0 0 0 2257.99 0 0 -2257.99 0 0 -1561.86 0 0 1561.86
0 0 0 0 0 0 0 0 3411.83 0 0 -3411.83 0 0 -2125.1 0 0 2125.1 0 0 0 0 0 0 0 0 3553.68 0 0 -3553.68 0 0 -1419.92 0 0 1419.92
0 0 0 0 0 0 0 0 4530.41 0 0 -4530.41 0 0 -1903.43 0 0 1903.43 0 0 0 0 0 0 0 0 4715.15 0 0 -4715.15 0 0 -1222.16 0 0 1222.16
0 0 0 0 0 0 0 0 5493.85 0 0 -5493.85 0 0 -1623.65 0 0 1623.65 0 0 0 0 0 0 0 0 5717.3 0 0 -5717.3 0 0 -957.873 0 0 957.873
0 0 0 0 0 0 0 0 6302.61 0 0 -6302.61 0 0 -1283.45 0 0 1283.45 0 0 0 0 0 0 0 0 6576.05 0 0 -6576.05 0 0 -629.502 0 0 629.502
0 0 0 0 0 0 0 0 7095.72 0 0 -7095.72 0 0 -904.567 0 0 904.567 0 0 0 0 0 0 0 0 7451.85 0 0 -7451.85 0 0 -273.658 0 0 273.658
0 0 0 0 0 0 0 0 7724.6 0 0 -7724.6 0 0 -466.317 0 0 466.317 0 0 0 0 0 0 0 0 8093.48 0 0 -8093.48 0 0 153.497 0 0 -153.497
0 0 0 0 0 0 0 0 8174.83 0 0 -8174.83 0 0 30.1261 0 0 -30.1261 0 0 0 0 0 0 0 0 8572.6 0 0 -8572.6 0 0 641.135 0 0 -641.135
0 0 0 0 0 0 0 0 8449.36 0 0 -8449.36 0 0 580.6 0 0 -580.6 0 0 0 0 0 0 0 0 8876.23 0 0 -8876.23 0 0 1190.81 0 0 -1190.81
0 0 0 0 0 0 0 0 8552.42 0 0 -8552.42 0 0 1181.38 0 0 -1181.38 0 0 0 0 0 0 0 0 9009.17 0 0 -9009.17 0 0 1792.56 0 0 -1792.56
0 0 0 0 0 0 0 0 8493.47 0 0 -8493.47 0 0 1826.33 0 0 -1826.33 0 0 0 0 0 0 0 0 8971.24 0 0 -8971.24 0 0 2441.54 0 0 -2441.54
0 0 0 0 0 0 0 0 8280.86 0 0 -8280.86 0 0 2506.97 0 0 -2506.97 0 0 0 0 0 0 0 0 8775.11 0 0 -8775.11 0 0 3129.18 0 0 -3129.18
0 0 0 0 0 0 0 0 7926.45 0 0 -7926.45 0 0 3212.55 0 0 -3212.55 0 0 0 0 0 0 0 0 8436.34 0 0 -8436.34 0 0 3845.56 0 0 -3845.56
0 0 0 0 0 0 0 0 7446.66 0 0 -7446.66 0 0 3931.66 0 0 -3931.66 0 0 0 0 0 0 0 0 7970.69 0 0 -7970.69 0 0 4578.77 0 0 -4578.77
0 0 0 0 0 0 0 0 6860.11 0 0 -6860.11 0 0 4652.91 0 0 -4652.91 0 0 0 0 0 0 0 0 7395.82 0 0 -7395.82 0 0 5316.08 0 0 -5316.08
0 0 0 0 0 0 0 0 6186.31 0 0 -6186.31 0 0 5364.16 0 0 -5364.16 0 0 0 0 0 0 0 0 6732.01 0 0 -6732.01 0 0 6044.21 0 0 -6044.21
0 0 0 0 0 0 0 0 5447.15 0 0 -5447.15 0 0 6051.92 0 0 -6051.92 0 0 0 0 0 0 0 0 6002.57 0 0 -6002.57 0 0 6749.59 0 0 -6749.59
0 0 0 0 0 0 0 0 4666.7 0 0 -4666.7 0 0 6702.26 0 0 -6702.26 0 0 0 0 0 0 0 0 5232.89 0 0 -5232.89 0 0 7418.08 0 0 -7418.08
0 0 0 0 0 0 0 0 3869.86 0 0 -3869.86 0 0 7301.83 0 0 -7301.83 0 0 0 0 0 0 0 0 4449.01 0 0 -4449.01 0 0 8035.58 0 0 -8035.58
0 0 0 0 0 0 0 0 3081.77 0 0 -3081.77 0 0 7838.14 0 0 -7838.14 0 0 0 0 0 0 0 0 3677.61 0 0 -3677.61 0 0 8588.26 0 0 -8588.26
0 0 0 0 0 0 0 0 2327.46 0 0 -2327.46 0 0 8299.22 0 0 -8299.22 0 0 0 0 0 0 0 0 2945.08 0 0 -2945.08 0 0 9063.17 0 0 -9063.17
0 0 0 0 0 0 0 0 1631.22 0 0 -1631.22 0 0 8673.82 0 0 -8673.82 0 0 0 0 0 0 0 0 2276.74 0 0 -2276.74 0 0 9448.62 0 0 -9448.62
0 0 0 0 0 0 0 0 1014.31 0 0 -1014.31 0 0 8952.21 0 0 -8952.21 0 0 0 0 0 0 0 0 1688.81 0 0 -1688.81 0 0 9735.12 0 0 -9735.12
0 0 0 0 0 0 0 0 498.566 0 0 -498.566 0 0 9125.77 0 0 -9125.77 0 0 0 0 0 0 0 0 1206.97 0 0 -1206.97 0 0 9914.14 0 0 -9914.14
0 0 0 0 0 0 0 0 102.438 0 0 -102.438 0 0 9188.66 0 0 -9188.66 0 0 0 0 0 0 0 0 849.484 0 0 -849.484 0 0 9977.96 0 0 -9977.96
0 0 0 0 0 0 0 0 -157.734 0 0 157.734 0 0 9134.16 0 0 -9134.16 0 0 0 0 0 0 0 0 633.493 0 0 -633.493 0 0 9919.87 0 0 -9919.87
0 0 0 0 0 0 0 0 -268.643 0 0 268.643 0 0 8959.5 0 0 -8959.5 0 0 0 0 0 0 0 0 572.073 0 0 -572.073 0 0 9735.97 0 0 -9735.97
0 0 0 0 0 0 0 0 -220.736 0 0 220.736 0 0 8664.92 0 0 -8664.92 0 0 0 0 0 0 0 0 674.367 0 0 -674.367 0 0 9427.03 0 0 -9427.03
0 0 0 0 0 0 0 0 -9.012 0 0 9.012 0 0 8253.31 0 0 -8253.31 0 0 0 0 0 0 0 0 945.103 0 0 -945.103 0 0 8995.87 0 0 -8995.87
0 0 0 0 0 0 0 0 366.955 0 0 -366.955 0 0 7730.14 0 0 -7730.14 0 0 0 0 0 0 0 0 1384.06 0 0 -1384.06 0 0 8448.1 0 0 -8448.1
0 0 0 0 0 0 0 0 902.582 0 0 -902.582 0 0 7103.43 0 0 -7103.43 0 0 0 0 0 0 0 0 1986.06 0 0 -1986.06 0 0 7792 0 0 -7792
0 0 0 0 0 0 0 0 1588.19 0 0 -1588.19 0 0 6383.61 0 0 -6383.61 0 0 0 0 0 0 0 0 2740.87 0 0 -2740.87 0 0 7038.39 0 0 -7038.39
0 0 0 0 0 0 0 0 2409.19 0 0 -2409.19 0 0 5583.27 0 0 -5583.27 0 0 0 0 0 0 0 0 3633.33 0 0 -3633.33 0 0 6200.47 0 0 -6200.47
0 0 0 0 0 0 0 0 3346.48 0 0 -3346.48 0 0 4716.97 0 0 -4716.97 0 0 0 0 0 0 0 0 4643.77 0 0 -4643.77 0 0 5293.49 0 0 -5293.49
0 0 0 0 0 0 0 0 4377.17 0 0 -4377.17 0 0 3800.96 0 0 -3800.96 0 0 0 0 0 0 0 0 5748.76 0 0 -5748.76 0 0 4334.39 0 0 -4334.39
0 0 0 0 0 0 0 0 5475.52 0 0 -5475.52 0 0 2852.73 0 0 -2852.73 0 0 0 0 0 0 0 0 6922.09 0 0 -6922.09 0 0 3341.41 0 0 -3341.41
0 0 0 0 0 0 0 0 6613.99 0 0 -6613.99 0 0 1890.59 0 0 -1890.59 0 0 0 0 0 0 0 0 8135.67 0 0 -8135.67 0 0 2333.67 0 0 -2333.67
0 0 0 0 0 0 0 0 7764.23 0 0 -7764.23 0 0 933.189 0 0 -933.189 0 0 0 0 0 0 0 0 9360.59 0 0 -9360.59 0 0 1330.68 0 0 -1330.68
0 0 0 0 0 0 0 0 8898.05 0 0 -8898.05 0 0 -0.883832 0 0 0.883832 0 0 0 0 0 0 0 0 10568 0 0 -10568 0 0 351.906 0 0 -351.906
0 0 0 0 0 0 0 0 9988.17 0 0 -9988.17 0 0 -893.499 0 0 893.499 0 0 0 0 0 0 0 0 11730 0 0 -11730 0 0 -583.707 0 0 583.707
0 0 0 0 0 0 0 0 11007.9 0 0 -11007.9 0 0 -1720.85 0 0 1720.85 0 0 0 0 0 0 0 0 12819.1 0 0 -12819.1 0 0 -1448.66 0 0 1448.66
0 0 0 0 0 0 0 0 11933.5 0 0 -11933.5 0 0 -2460.85 0 0 2460.85 0 0 0 0 0 0 0 0 13808.4 0 0 -13808.4 0 0 -2219.91 0 0 2219.91
0 0 0 0 0 0 0 0 12745.9 0 0 -12745.9 0 0 -3117.14 0 0 3117.14 0 0 0 0 0 0 0 0 14684.2 0 0 -14684.2 0 0 -2908.38 0 0 2908.38
0 0 0 0 0 0 0 0 13429 0 0 -13429 0 0 -3675.75 0 0 3675.75 0 0 0 0 0 0 0 0 15424.7 0 0 -15424.7 0 0 -3492.77 0 0 3492.77
0 0 0 0 0 0 0 0 13968.1 0 0 -13968.1 0 0 -4125.95 0 0 4125.95 0 0 0 0 0 0 0 0 16017.5 0 0 -16017.5 0 0 -3965.98 0 0 3965.98
0 0 0 0 0 0 0 0 14353.7 0 0 -14353.7 0 0 -4460.85 0 0 4460.85 0 0 0 0 0 0 0 0 16451.8 0 0 -16451.8 0 0 -4318.95 0 0 4318.95
0 0 0 0 0 0 0 0 14580.2 0 0 -14580.2 0 0 -4675.59 0 0 4675.59 0 0 0 0 0 0 0 0 16722 0 0 -16722 0 0 -4546.85 0 0 4546.85
0 0 0 0 0 0 0 0 14646.2 0 0 -14646.2 0 0 -4767.4 0 0 4767.4 0 0 0 0 0 0 0 0 16826.5 0 0 -16826.5 0 0 -4646.78 0 0 4646.78
0 0 0 0 0 0 0 0 14554.2 0 0 -14554.2 0 0 -4734.59 0 0 4734.59 0 0 0 0 0 0 0 0 16768 0 0 -16768 0 0 -4617.73 0 0 4617.73
0 0 0 0 0 0 0 0 14311 0 0 -14311 0 0 -4577.72 0 0 4577.72 0 0 0 0 0 0 0 0 16553 0 0 -16553 0 0 -4459.14 0 0 4459.14
0 0 0 0 0 0 0 0 13927.8 0 0 -13927.8 0 0 -4301.94 0 0 4301.94 0 0 0 0 0 0 0 0 16193.1 0 0 -16193.1 0 0 -4176.91 0 0 4176.91
0 0 0 0 0 0 0 0 13420 0 0 -13420 0 0 -3914.56 0 0 3914.56 0 0 0 0 0 0 0 0 15703.9 0 0 -15703.9 0 0 -3778.26 0 0 3778.26
0 0 0 0 0 0 0 0 12806.1 0 0 -12806.1 0 0 -3424.69 0 0 3424.69 0 0 0 0 0 0 0 0 15103.7 0 0 -15103.7 0 0 -3273.13 0 0 3273.13
0 0 0 0 0 0 0 0 12107.5 0 0 -12107.5 0 0 -2843.38 0 0 2843.38 0 0 0 0 0 0 0 0 14412.5 0 0 -14412.5 0 0 -2672.82 0 0 2672.82
0 0 0 0 0 0 0 0 11347.5 0 0 -11347.5 0 0 -2183.35 0 0 2183.35 0 0 0 0 0 0 0 0 13656 0 0 -13656 0 0 -1990.96 0 0 1990.96
0 0 0 0 0 0 0 0 10552.7 0 0 -10552.7 0 0 -1463.44 0 0 1463.44 0 0 0 0 0 0 0 0 12860.9 0 0 -12860.9 0 0 -1245.65 0 0 1245.65
0 0 0 0 0 0 0 0 9748.5 0 0 -9748.5 0 0 -696.172 0 0 696.172 0 0 0 0 0 0 0 0 12056.5 0 0 -12056.5 0 0 -457.874 0 0 457.874
0 0 0 0 0 0 0 0 8962.18 0 0 -8962.18 0 0 104.873 0 0 -104.873 0 0 0 0 0 0 0 0 11266.2 0 0 -11266.2 0 0 368.228 0 0 -368.228
0 0 0 0 0 0 0 0 8218.38 0 0 -8218.38 0 0 925.335 0 0 -925.335 0 0 0 0 0 0 0 0 10519.3 0 0 -10519.3 0 0 1212.25 0 0 -1212.25
0 0 0 0 0 0 0 0 7542.61 0 0 -7542.61 0 0 1749.69 0 0 -1749.69 0 0 0 0 0 0 0 0 9840.84 0 0 -9840.84 0 0 2059.08 0 0 -2059.08
0 0 0 0 0 0 0 0 6958.19 0 0 -6958.19 0 0 2563.45 0 0 -2563.45 0 0 0 0 0 0 0 0 9255.3 0 0 -9255.3 0 0 2893.28 0 0 -2893.28
0 0 0 0 0 0 0 0 6553.83 0 0 -6553.83 0 0 3346.76 0 0 -3346.76 0 0 0 0 0 0 0 0 8825.93 0 0 -8825.93 0 0 3698.27 0 0 -3698.27
0 0 0 0 0 0 0 0 6301.16 0 0 -6301.16 0 0 4093.34 0 0 -4093.34 0 0 0 0 0 0 0 0 8601.8 0 0 -8601.8 0 0 4454.21 0 0 -4454.21
0 0 0 0 0 0 0 0 6181.79 0 0 -6181.79 0 0 4794.9 0 0 -4794.9 0 0 0 0 0 0 0 0 8487.67 0 0 -8487.67 0 0 5165.66 0 0 -5165.66
0 0 0 0 0 0 0 0 6196.95 0 0 -6196.95 0 0 5443.11 0 0 -5443.11 0 0 0 0 0 0 0 0 8523.51 0 0 -8523.51 0 0 5818.89 0 0 -5818.89
0 0 0 0 0 0 0 0 6355.64 0 0 -6355.64 0 0 6029.36 0 0 -6029.36 0 0 0 0 0 0 0 0 8703.29 0 0 -8703.29 0 0 6408.3 0 0 -6408.3
0 0 0 0 0 0 0 0 6657.71 0 0 -6657.71 0 0 6549.38 0 0 -6549.38 0 0 0 0 0 0 0 0 9029.15 0 0 -9029.15 0 0 6927.66 0 0 -6927.66
0 0 0 0 0 0 0 0 7100.39 0 0 -7100.39 0 0 7000.52 0 0 -7000.52 0 0 0 0 0 0 0 0 9499.27 0 0 -9499.27 0 0 7373.61 0 0 -7373.61
0 0 0 0 0 0 0 0 7671.96 0 0 -7671.96 0 0 7381.41 0 0 -7381.41 0 0 0 0 0 0 0 0 10108.1 0 0 -10108.1 0 0 7744.66 0 0 -7744.66
0 0 0 0 0 0 0 0 8364.08 0 0 -8364.08 0 0 7691.74 0 0 -7691.74 0 0 0 0 0 0 0 0 10847 0 0 -10847 0 0 8040.87 0 0 -8040.87
0 0 0 0 0 0 0 0 9165.97 0 0 -9165.97 0 0 7932.34 0 0 -7932.34 0 0 0 0 0 0 0 0 11671 0 0 -11671 0 0 8268.23 0 0 -8268.23
0 0 0 0 0 0 0 0 10069.2 0 0 -10069.2 0 0 8105.65 0 0 -8105.65 0 0 0 0 0 0 0 0 12606.3 0 0 -12606.3 0 0 8426.24 0 0 -8426.24
0 0 0 0 0 0 0 0 11070.5 0 0 -11070.5 0 0 8216.21 0 0 -8216.21 0 0 0 0 0 0 0 0 13646.6 0 0 -13646.6 0 0 8517.19 0 0 -8517.19
0 0 0 0 0 0 0 0 12153.8 0 0 -12153.8 0 0 8270.32 0 0 -8270.32 0 0 0 0 0 0 0 0 14775.3 0 0 -14775.3 0 0 8547.63 0 0 -8547.63
0 0 0 0 0 0 0 0 13295.3 0 0 -13295.3 0 0 8274.68 0 0 -8274.68 0 0 0 0 0 0 0 0 15963.5 0 0 -15963.5 0 0 8526.62 0 0 -8526.62
0 0 0 0 0 0 0 0 14468.2 0 0 -14468.2 0 0 8237.42 0 0 -8237.42 0 0 0 0 0 0 0 0 17183.6 0 0 -17183.6 0 0 8463.11 0 0 -8463.11
0 0 0 0 0 0 0 0 15645.2 0 0 -15645.2 0 0 8167.72 0 0 -8167.72 0 0 0 0 0 0 0 0 18409 0 0 -18409 0 0 8366.78 0 0 -8366.78
0 0 0 0 0 0 0 0 16802.2 0 0 -16802.2 0 0 8075.03 0 0 -8075.03 0 0 0 0 0 0 0 0 19614.2 0 0 -19614.2 0 0 8247.39 0 0 -8247.39
0 0 0 0 0 0 0 0 17916.8 0 0 -17916.8 0 0 7968.55 0 0 -7968.55 0 0 0 0 0 0 0 0 20774.7 0 0 -20774.7 0 0 8114.85 0 0 -8114.85
0 0 0 0 0 0 0 0 18965.7 0 0 -18965.7 0 0 7857.3 0 0 -7857.3 0 0 0 0 0 0 0 0 21866.6 0 0 -21866.6 0 0 7978.89 0 0 -7978.89
0 0 0 0 0 0 0 0 19925.2 0 0 -19925.2 0 0 7749.97 0 0 -7749.97 0 0 0 0 0 0 0 0 22865.3 0 0 -22865.3 0 0 7848.94 0 0 -7848.94
0 0 0 0 0 0 0 0 20772.4 0 0 -20772.4 0 0 7654.71 0 0 -7654.71 0 0 0 0 0 0 0 0 23746.9 0 0 -23746.9 0 0 7733.81 0 0 -7733.81
0 0 0 0 0 0 0 0 21486.2 0 0 -21486.2 0 0 7578.85 0 0 -7578.85 0 0 0 0 0 0 0 0 24489.3 0 0 -24489.3 0 0 7641.31 0 0 -7641.31
0 0 0 0 0 0 0 0 22048.1 0 0 -22048.1 0 0 7528.5 0 0 -7528.5 0 0 0 0 0 0 0 0 25073.2 0 0 -25073.2 0 0 7577.96 0 0 -7577.96
0 0 0 0 0 0 0 0 22442.9 0 0 -22442.9 0 0 7508.27 0 0 -7508.27 0 0 0 0 0 0 0 0 25483 0 0 -25483 0 0 7548.82 0 0 -7548.82
0 0 0 0 0 0 0 0 22659.5 0 0 -22659.5 0 0 7521.16 0 0 -7521.16 0 0 0 0 0 0 0 0 25707.2 0 0 -25707.2 0 0 7557.27 0 0 -7557.27
0 0 0 0 0 0 0 0 22689.3 0 0 -22689.3 0 0 7568.78 0 0 -7568.78 0 0 0 0 0 0 0 0 25736.1 0 0 -25736.1 0 0 7605.1 0 0 -7605.1
0 0 0 0 0 0 0 0 22528.5 0 0 -22528.5 0 0 7650.82 0 0 -7650.82 0 0 0 0 0 0 0 0 25565.6 0 0 -25565.6 0 0 7692.29 0 0 -7692.29
0 0 0 0 0 0 0 0 22179.6 0 0 -22179.6 0 0 7765.12 0 0 -7765.12 0 0 0 0 0 0 0 0 25198.7 0 0 -25198.7 0 0 7816.29 0 0 -7816.29
0 0 0 0 0 0 0 0 21649.9 0 0 -21649.9 0 0 7907.6 0 0 -7907.6 0 0 0 0 0 0 0 0 24642.8 0 0 -24642.8 0 0 7973.07 0 0 -7973.07
0 0 0 0 0 0 0 0 20951.3 0 0 -20951.3 0 0 8072.63 0 0 -8072.63 0 0 0 0 0 0 0 0 23910.7 0 0 -23910.7 0 0 8156.54 0 0 -8156.54
0 0 0 0 0 0 0 0 20101.1 0 0 -20101.1 0 0 8252.97 0 0 -8252.97 0 0 0 0 0 0 0 0 23020.7 0 0 -23020.7 0 0 8358.92 0 0 -8358.92
0 0 0 0 0 0 0 0 19122.5 0 0 -19122.5 0 0 8439.92 0 0 -8439.92 0 0 0 0 0 0 0 0 21996.9 0 0 -21996.9 0 0 8570.89 0 0 -8570.89
0 0 0 0 0 0 0 0 18044 0 0 -18044 0 0 8623.59 0 0 -8623.59 0 0 0 0 0 0 0 0 20868.9 0 0 -20868.9 0 0 8781.85 0 0 -8781.85
0 0 0 0 0 0 0 0 16897.9 0 0 -16897.9 0 0 8793.37 0 0 -8793.37 0 0 0 0 0 0 0 0 19670.3 0 0 -19670.3 0 0 8980.28 0 0 -8980.28
0 0 0 0 0 0 0 0 15718.5 0 0 -15718.5 0 0 8938.22 0 0 -8938.22 0 0 0 0 0 0 0 0 18436.9 0 0 -18436.9 0 0 9154.29 0 0 -9154.29
0 0 0 0 0 0 0 0 14540.2 0 0 -14540.2 0 0 9046.95 0 0 -9046.95 0 0 0 0 0 0 0 0 17204 0 0 -17204 0 0 9291.58 0 0 -9291.58
0 0 0 0 0 0 0 0 13395.3 0 0 -13395.3 0 0 9109.41 0 0 -9109.41 0 0 0 0 0 0 0 0 16005.3 0 0 -16005.3 0 0 9381.14 0 0 -9381.14
0 0 0 0 0 0 0 0 12312.8 0 0 -12312.8 0 0 9116.45 0 0 -9116.45 0 0 0 0 0 0 0 0 14870.9 0 0 -14870.9 0 0 9413.03 0 0 -9413.03
0 0 0 0 0 0 0 0 11317.5 0 0 -11317.5 0 0 9060.32 0 0 -9060.32 0 0 0 0 0 0 0 0 13826.6 0 0 -13826.6 0 0 9378.85 0 0 -9378.85
0 0 0 0 0 0 0 0 10430 0 0 -10430 0 0 8934.9 0 0 -8934.9 0 0 0 0 0 0 0 0 12894 0 0 -12894 0 0 9271.9 0 0 -9271.9
0 0 0 0 0 0 0 0 9666.92 0 0 -9666.92 0 0 8735.84 0 0 -8735.84 0 0 0 0 0 0 0 0 12090.3 0 0 -12090.3 0 0 9087.39 0 0 -9087.39
0 0 0 0 0 0 0 0 9040.12 0 0 -9040.12 0 0 8460.76 0 0 -8460.76 0 0 0 0 0 0 0 0 11428.1 0 0 -11428.1 0 0 8822.62 0 0 -8822.62
0 0 0 0 0 0 0 0 8557.1 0 0 -8557.1 0 0 8109.33 0 0 -8109.33 0 0 0 0 0 0 0 0 10915.1 0 0 -10915.1 0 0 8477.07 0 0 -8477.07
0 0 0 0 0 0 0 0 8220.73 0 0 -8220.73 0 0 7683.25 0 0 -7683.25 0 0 0 0 0 0 0 0 10554.3 0 0 -10554.3 0 0 8052.43 0 0 -8052.43
0 0 0 0 0 0 0 0 8029.3 0 0 -8029.3 0 0 7186.33 0 0 -7186.33 0 0 0 0 0 0 0 0 10344 0 0 -10344 0 0 7552.6 0 0 -7552.6
0 0 0 0 0 0 0 0 7976.48 0 0 -7976.48 0 0 6624.36 0 0 -6624.36 0 0 0 0 0 0 0 0 10277.5 0 0 -10277.5 0 0 6983.63 0 0 -6983.63
0 0 0 0 0 0 0 0 8051.56 0 0 -8051.56 0 0 6005.03 0 0 -6005.03 0 0 0 0 0 0 0 0 10343.5 0 0 -10343.5 0 0 6353.57 0 0 -6353.57
0 0 0 0 0 0 0 0 8239.7 0 0 -8239.7 0 0 5337.71 0 0 -5337.71 0 0 0 0 0 0 0 0 10526.6 0 0 -10526.6 0 0 5672.3 0 0 -5672.3
0 0 0 0 0 0 0 0 8522.42 0 0 -8522.42 0 0 4633.23 0 0 -4633.23 0 0 0 0 0 0 0 0 10807.2 0 0 -10807.2 0 0 4951.28 0 0 -4951.28
0 0 0 0 0 0 0 0 8878.09 0 0 -8878.09 0 0 3903.63 0 0 -3903.63 0 0 0 0 0 0 0 0 11162.9 0 0 -11162.9 0 0 4203.23 0 0 -4203.23
0 0 0 0 0 0 0 0 9282.53 0 0 -9282.53 0 0 3161.85 0 0 -3161.85 0 0 0 0 0 0 0 0 11568.4 0 0 -11568.4 0 0 3441.86 0 0 -3441.86
0 0 0 0 0 0 0 0 9709.61 0 0 -9709.61 0 0 2421.34 0 0 -2421.34 0 0 0 0 0 0 0 0 11996.2 0 0 -11996.2 0 0 2681.46 0 0 -2681.46
0 0 0 0 0 0 0 0 10131.9 0 0 -10131.9 0 0 1695.78 0 0 -1695.78 0 0 0 0 0 0 0 0 12417.9 0 0 -12417.9 0 0 1936.54 0 0 -1936.54
0 0 0 0 0 0 0 0 10521.3 0 0 -10521.3 0 0 998.684 0 0 -998.684 0 0 0 0 0 0 0 0 12804 0 0 -12804 0 0 1221.48 0 0 -1221.48
0 0 0 0 0 0 0 0 10849.8 0 0 -10849.8 0 0 343.021 0 0 -343.021 0 0 0 0 0 0 0 0 13125.5 0 0 -13125.5 0 0 550.073 0 0 -550.073
0 0 0 0 0 0 0 0 11133.6 0 0 -11133.6 0 0 -400.041 0 0 400.041 0 0 0 0 0 0 0 0 13393.8 0 0 -13393.8 0 0 -208.333 0 0 208.333
0 0 0 0 0 0 0 0 11232 0 0 -11232 0 0 -1037.16 0 0 1037.16 0 0 0 0 0 0 0 0 13467.4 0 0 -13467.4 0 0 -854.058 0 0 854.058
0 0 0 0 0 0 0 0 11104.1 0 0 -11104.1 0 0 -1536.49 0 0 1536.49 0 0 0 0 0 0 0 0 13301.1 0 0 -13301.1 0 0 -1346.76 0 0 1346.76
0 0 0 0 0 0 0 0 10728 0 0 -10728 0 0 -1909.1 0 0 1909.1 0 0 0 0 0 0 0 0 12878.6 0 0 -12878.6 0 0 -1711.21 0 0 1711.21
0 0 0 0 0 0 0 0 10095.9 0 0 -10095.9 0 0 -2149.54 0 0 2149.54 0 0 0 0 0 0 0 0 12187.1 0 0 -12187.1 0 0 -1935.14 0 0 1935.14
0 0 0 0 0 0 0 0 9213.47 0 0 -9213.47 0 0 -2258.96 0 0 2258.96 0 0 0 0 0 0 0 0 11234.4 0 0 -11234.4 0 0 -2020.91 0 0 2020.91
0 0 0 0 0 0 0 0 8099.58 0 0 -8099.58 0 0 -2243.67 0 0 2243.67 0 0 0 0 0 0 0 0 10039.5 0 0 -10039.5 0 0 -1975.17 0 0 1975.17
0 0 0 0 0 0 0 0 6781.12 0 0 -6781.12 0 0 -2114.77 0 0 2114.77 0 0 0 0 0 0 0 0 8630.57 0 0 -8630.57 0 0 -1809.16 0 0 1809.16
0 0 0 0 0 0 0 0 5291.8 0 0 -5291.8 0 0 -1886.09 0 0 1886.09 0 0 0 0 0 0 0 0 7042.79 0 0 -7042.79 0 0 -1538.54 0 0 1538.54
0 0 0 0 0 0 0 0 3672.85 0 0 -3672.85 0 0 -1574.44 0 0 1574.44 0 0 0 0 0 0 0 0 5318.82 0 0 -5318.82 0 0 -1180.16 0 0 1180.16
0 0 0 0 0 0 0 0 1955.43 0 0 -1955.43 0 0 -1208.35 0 0 1208.35 0 0 0 0 0 0 0 0 3217.94 0 0 -3217.94 0 0 -722.813 0 0 722.813
0 0 0 0 0 0 0 0 3.30181 0 0 -3.30181 0 0 -781.011 0 0 781.011 0 0 0 0 0 0 0 0 1242.94 0 0 -1242.94 0 0 -250.275 0 0 250.275
0 0 0 0 0 0 0 0 -1818.9 0 0 1818.9 0 0 -347.2 0 0 347.2 0 0 0 0 0 0 0 0 -678.142 0 0 678.142 0 0 227.866 0 0 -227.866
0 0 0 0 0 0 0 0 -3538.01 0 0 3538.01 0 0 66.7453 0 0 -66.7453 0 0 0 0 0 0 0 0 -2506.22 0 0 2506.22 0 0 692.567 0 0 -692.567
0 0 0 0 0 0 0 0 -5120.18 0 0 5120.18 0 0 437.832 0 0 -437.832 0 0 0 0 0 0 0 0 -4181.8 0 0 4181.8 0 0 1111.7 0 0 -1111.7
0 0 0 0 0 0 0 0 -6523.72 0 0 6523.72 0 0 743.546 0 0 -743.546 0 0 0 0 0 0 0 0 -5672.62 0 0 5672.62 0 0 1459.05 0 0 -1459.05
0 0 0 0 0 0 0 0 -7699.84 0 0 7699.84 0 0 964.681 0 0 -964.681 0 0 0 0 0 0 0 0 -6940.97 0 0 6940.97 0 0 1719.01 0 0 -1719.01
0 0 0 0 0 0 0 0 -8633.79 0 0 8633.79 0 0 1089.33 0 0 -1089.33 0 0 0 0 0 0 0 0 -7961.85 0 0 7961.85 0 0 1874.51 0 0 -1874.51
0 0 0 0 0 0 0 0 -9311.34 0 0 9311.34 0 0 1106.93 0 0 -1106.93 0 0 0 0 0 0 0 0 -8716.58 0 0 8716.58 0 0 1916.17 0 0 -1916.17
0 0 0 0 0 0 0 0 -9722.06 0 0 9722.06 0 0 1012.17 0 0 -1012.17 0 0 0 0 0 0 0 0 -9203.04 0 0 9203.04 0 0 1840.02 0 0 -1840.02
0 0 0 0 0 0 0 0 -9875.45 0 0 9875.45 0 0 807.152 0 0 -807.152 0 0 0 0 0 0 0 0 -9424.92 0 0 9424.92 0 0 1645.96 0 0 -1645.96
0 0 0 0 0 0 0 0 -9787.17 0 0 9787.17 0 0 498.58 0 0 -498.58 0 0 0 0 0 0 0 0 -9397.36 0 0 9397.36 0 0 1340.05 0 0 -1340.05
0 0 0 0 0 0 0 0 -9479.56 0 0 9479.56 0 0 105.487 0 0 -105.487 0 0 0 0 0 0 0 0 -9145.87 0 0 9145.87 0 0 946.923 0 0 -946.923
0 0 0 0 0 0 0 0 -8980.98 0 0 8980.98 0 0 -368.223 0 0 368.223 0 0 0 0 0 0 0 0 -8697.85 0 0 8697.85 0 0 468.154 0 0 -468.154
0 0 0 0 0 0 0 0 -8326.18 0 0 8326.18 0 0 -905.43 0 0 905.43 0 0 0 0 0 0 0 0 -8088.43 0 0 8088.43 0 0 -77.1114 0 0 77.1114
0 0 0 0 0 0 0 0 -7553.7 0 0 7553.7 0 0 -1487.48 0 0 1487.48 0 0 0 0 0 0 0 0 -7358.04 0 0 7358.04 0 0 -671.002 0 0 671.002
0 0 0 0 0 0 0 0 -6707.61 0 0 6707.61 0 0 -2093.81 0 0 2093.81 0 0 0 0 0 0 0 0 -6551.16 0 0 6551.16 0 0 -1290.71 0 0 1290.71
0 0 0 0 0 0 0 0 -5834.41 0 0 5834.41 0 0 -2702.31 0 0 2702.31 0 0 0 0 0 0 0 0 -5715.27 0 0 5715.27 0 0 -1913.27 0 0 1913.27
0 0 0 0 0 0 0 0 -4981.29 0 0 4981.29 0 0 -3290.48 0 0 3290.48 0 0 0 0 0 0 0 0 -4898.75 0 0 4898.75 0 0 -2515.48 0 0 2515.48
0 0 0 0 0 0 0 0 -4194.62 0 0 4194.62 0 0 -3837.07 0 0 3837.07 0 0 0 0 0 0 0 0 -4148.57 0 0 4148.57 0 0 -3074.52 0 0 3074.52
0 0 0 0 0 0 0 0 -3517.43 0 0 3517.43 0 0 -4322.4 0 0 4322.4 0 0 0 0 0 0 0 0 -3508.53 0 0 3508.53 0 0 -3569.56 0 0 3569.56
0 0 0 0 0 0 0 0 -2987.6 0 0 2987.6 0 0 -4729.01 0 0 4729.01 0 0 0 0 0 0 0 0 -3017.21 0 0 3017.21 0 0 -3982.37 0 0 3982.37
0 0 0 0 0 0 0 0 -2636.4 0 0 2636.4 0 0 -5042.57 0 0 5042.57 0 0 0 0 0 0 0 0 -2706.39 0 0 2706.39 0 0 -4298.05 0 0 4298.05
0 0 0 0 0 0 0 0 -2487.17 0 0 2487.17 0 0 -5252.77 0 0 5252.77 0 0 0 0 0 0 0 0 -2599.97 0 0 2599.97 0 0 -4505.53 0 0 4505.53
0 0 0 0 0 0 0 0 -2554.61 0 0 2554.61 0 0 -5353.37 0 0 5353.37 0 0 0 0 0 0 0 0 -2713.11 0 0 2713.11 0 0 -4598.06 0 0 4598.06
0 0 0 0 0 0 0 0 -2844.34 0 0 2844.34 0 0 -5342.42 0 0 5342.42 0 0 0 0 0 0 0 0 -3051.75 0 0 3051.75 0 0 -4573.63 0 0 4573.63
0 0 0 0 0 0 0 0 -3353.37 0 0 3353.37 0 0 -5221.22 0 0 5221.22 0 0 0 0 0 0 0 0 -3613.03 0 0 3613.03 0 0 -4433.53 0 0 4433.53
0 0 0 0 0 0 0 0 -4071.14 0 0 4071.14 0 0 -4995.26 0 0 4995.26 0 0 0 0 0 0 0 0 -4386.59 0 0 4386.59 0 0 -4182.87 0 0 4182.87
0 0 0 0 0 0 0 0 -4980.64 0 0 4980.64 0 0 -4675.63 0 0 4675.63 0 0 0 0 0 0 0 0 -5354.67 0 0 5354.67 0 0 -3833.43 0 0 3833.43
0 0 0 0 0 0 0 0 -6058.59 0 0 6058.59 0 0 -4277.01 0 0 4277.01 0 0 0 0 0 0 0 0 -6493.22 0 0 6493.22 0 0 -3400.7 0 0 3400.7
0 0 0 0 0 0 0 0 -7275.79 0 0 7275.79 0 0 -3817.3 0 0 3817.3 0 0 0 0 0 0 0 0 -7771.95 0 0 7771.95 0 0 -2903.49 0 0 2903.49
0 0 0 0 0 0 0 0 -8597.47 0 0 8597.47 0 0 -3317.14 0 0 3317.14 0 0 0 0 0 0 0 0 -9154.93 0 0 9154.93 0 0 -2363.45 0 0 2363.45
0 0 0 0 0 0 0 0 -9984.32 0 0 9984.32 0 0 -2798.99 0 0 2798.99 0 0 0 0 0 0 0 0 -10601.7 0 0 10601.7 0 0 -1804.24 0 0 1804.24
0 0 0 0 0 0 0 0 -11393.6 0 0 11393.6 0 0 -2286.4 0 0 2286.4 0 0 0 0 0 0 0 0 -12068.3 0 0 12068.3 0 0 -1250.66 0 0 1250.66
0 0 0 0 0 0 0 0 -12780 0 0 12780 0 0 -1803.15 0 0 1803.15 0 0 0 0 0 0 0 0 -13508.7 0 0 13508.7 0 0 -727.774 0 0 727.774
0 0 0 0 0 0 0 0 -14097.3 0 0 14097.3 0 0 -1372.38 0 0 1372.38 0 0 0 0 0 0 0 0 -14876 0 0 14876 0 0 -259.905 0 0 259.905
0 0 0 0 0 0 0 0 -15299.9 0 0 15299.9 0 0 -1015.56 0 0 1015.56 0 0 0 0 0 0 0 0 -16124.3 0 0 16124.3 0 0 130.315 0 0 -130.315
0 0 0 0 0 0 0 0 -16345.9 0 0 16345.9 0 0 -751.532 0 0 751.532 0 0 0 0 0 0 0 0 -17211.5 0 0 17211.5 0 0 423.004 0 0 -423.004
0 0 0 0 0 0 0 0 -17199.6 0 0 17199.6 0 0 -595.616 0 0 595.616 0 0 0 0 0 0 0 0 -18102.1 0 0 18102.1 0 0 602.019 0 0 -602.019
0 0 0 0 0 0 0 0 -17834.2 0 0 17834.2 0 0 -558.831 0 0 558.831 0 0 0 0 0 0 0 0 -18769.3 0 0 18769.3 0 0 655.732 0 0 -655.732
0 0 0 0 0 0 0 0 -18232.9 0 0 18232.9 0 0 -647.366 0 0 647.366 0 0 0 0 0 0 0 0 -19196.4 0 0 19196.4 0 0 577.579 0 0 -577.579
0 0 0 0 0 0 0 0 -18390.5 0 0 18390.5 0 0 -862.243 0 0 862.243 0 0 0 0 0 0 0 0 -19378.2 0 0 19378.2 0 0 366.406 0 0 -366.406
0 0 0 0 0 0 0 0 -18313 0 0 18313 0 0 -1199.32 0 0 1199.32 0 0 0 0 0 0 0 0 -19320.6 0 0 19320.6 0 0 26.5146 0 0 -26.5146
0 0 0 0 0 0 0 0 -18016.8 0 0 18016.8 0 0 -1649.52 0 0 1649.52 0 0 0 0 0 0 0 0 -19039.9 0 0 19039.9 0 0 -432.615 0 0 432.615
0 0 0 0 0 0 0 0 -17527.1 0 0 17527.1 0 0 -2199.29 0 0 2199.29 0 0 0 0 0 0 0 0 -18561.6 0 0 18561.6 0 0 -996.77 0 0 996.77
0 0 0 0 0 0 0 0 -16875.6 0 0 16875.6 0 0 -2831.25 0 0 2831.25 0 0 0 0 0 0 0 0 -17914.5 0 0 17914.5 0 0 -1648.18 0 0 1648.18
0 0 0 0 0 0 0 0 -16101.1 0 0 16101.1 0 0 -3513.04 0 0 3513.04 0 0 0 0 0 0 0 0 -17138 0 0 17138 0 0 -2357.15 0 0 2357.15
0 0 0 0 0 0 0 0 -15245.5 0 0 15245.5 0 0 -4226.81 0 0 4226.81 0 0 0 0 0 0 0 0 -16280.1 0 0 16280.1 0 0 -3088.91 0 0 3088.91
0 0 0 0 0 0 0 0 -14355.5 0 0 14355.5 0 0 -4955.62 0 0 4955.62 0 0 0 0 0 0 0 0 -15380.4 0 0 15380.4 0 0 -3841.37 0 0 3841.37
0 0 0 0 0 0 0 0 -13540.5 0 0 13540.5 0 0 -5669.43 0 0 5669.43 0 0 0 0 0 0 0 0 -14510.6 0 0 14510.6 0 0 -4585.64 0 0 4585.64
0 0 0 0 0 0 0 0 -12804.3 0 0 12804.3 0 0 -6352.39 0 0 6352.39 0 0 0 0 0 0 0 0 -13781.4 0 0 13781.4 0 0 -5286.63 0 0 5286.63
0 0 0 0 0 0 0 0 -12132.4 0 0 12132.4 0 0 -6989.71 0 0 6989.71 0 0 0 0 0 0 0 0 -13099 0 0 13099 0 0 -5943.59 0 0 5943.59
0 0 0 0 0 0 0 0 -11554.1 0 0 11554.1 0 0 -7560.22 0 0 7560.22 0 0 0 0 0 0 0 0 -12509.2 0 0 12509.2 0 0 -6529.76 0 0 6529.76
0 0 0 0 0 0 0 0 -11093.7 0 0 11093.7 0 0 -8047.85 0 0 8047.85 0 0 0 0 0 0 0 0 -12033.5 0 0 12033.5 0 0 -7034.46 0 0 7034.46
0 0 0 0 0 0 0 0 -10787 0 0 10787 0 0 -8440.65 0 0 8440.65 0 0 0 0 0 0 0 0 -11707.9 0 0 11707.9 0 0 -7439.69 0 0 7439.69
0 0 0 0 0 0 0 0 -10703.1 0 0 10703.1 0 0 -8724.27 0 0 8724.27 0 0 0 0 0 0 0 0 -11613.6 0 0 11613.6 0 0 -7729.46 0 0 7729.46
0 0 0 0 0 0 0 0 -10847.2 0 0 10847.2 0 0 -8894.46 0 0 8894.46 0 0 0 0 0 0 0 0 -11753.3 0 0 11753.3 0 0 -7899.73 0 0 7899.73
0 0 0 0 0 0 0 0 -11203.7 0 0 11203.7 0 0 -8952.02 0 0 8952.02 0 0 0 0 0 0 0 0 -12113.1 0 0 12113.1 0 0 -7951.32 0 0 7951.32
0 0 0 0 0 0 0 0 -11747.7 0 0 11747.7 0 0 -8902.09 0 0 8902.09 0 0 0 0 0 0 0 0 -12667.1 0 0 12667.1 0 0 -7890.19 0 0 7890.19
0 0 0 0 0 0 0 0 -12442.3 0 0 12442.3 0 0 -8752.72 0 0 8752.72 0 0 0 0 0 0 0 0 -13376.7 0 0 13376.7 0 0 -7724.33 0 0 7724.33
0 0 0 0 0 0 0 0 -13239.1 0 0 13239.1 0 0 -8518.18 0 0 8518.18 0 0 0 0 0 0 0 0 -14192.3 0 0 14192.3 0 0 -7469.7 0 0 7469.7
0 0 0 0 0 0 0 0 -14082.6 0 0 14082.6 0 0 -8215.5 0 0 8215.5 0 0 0 0 0 0 0 0 -15056.1 0 0 15056.1 0 0 -7144.93 0 0 7144.93
0 0 0 0 0 0 0 0 -14912.3 0 0 14912.3 0 0 -7863.84 0 0 7863.84 0 0 0 0 0 0 0 0 -15905.6 0 0 15905.6 0 0 -6770.75 0 0 6770.75
0 0 0 0 0 0 0 0 -15666.8 0 0 15666.8 0 0 -7483.1 0 0 7483.1 0 0 0 0 0 0 0 0 -16677.4 0 0 16677.4 0 0 -6368.61 0 0 6368.61
0 0 0 0 0 0 0 0 -16289.5 0 0 16289.5 0 0 -7092.4 0 0 7092.4 0 0 0 0 0 0 0 0 -17312.8 0 0 17312.8 0 0 -5959.31 0 0 5959.31
0 0 0 0 0 0 0 0 -16732.2 0 0 16732.2 0 0 -6709 0 0 6709 0 0 0 0 0 0 0 0 -17761.7 0 0 17761.7 0 0 -5561.59 0 0 5561.59
0 0 0 0 0 0 0 0 -16958.8 0 0 16958.8 0 0 -6347.4 0 0 6347.4 0 0 0 0 0 0 0 0 -17986.8 0 0 17986.8 0 0 -5190.97 0 0 5190.97
0 0 0 0 0 0 0 0 -16947.3 0 0 16947.3 0 0 -6018.63 0 0 6018.63 0 0 0 0 0 0 0 0 -17964.7 0 0 17964.7 0 0 -4859.09 0 0 4859.09
0 0 0 0 0 0 0 0 -16688.4 0 0 16688.4 0 0 -5729.87 0 0 5729.87 0 0 0 0 0 0 0 0 -17685.9 0 0 17685.9 0 0 -4573.51 0 0 4573.51
0 0 0 0 0 0 0 0 -16183.2 0 0 16183.2 0 0 -5484.57 0 0 5484.57 0 0 0 0 0 0 0 0 -17151 0 0 17151 0 0 -4337.78 0 0 4337.78
0 0 0 0 0 0 0 0 -15440.5 0 0 15440.5 0 0 -5282.7 0 0 5282.7 0 0 0 0 0 0 0 0 -16368.6 0 0 16368.6 0 0 -4151.66 0 0 4151.66
0 0 0 0 0 0 0 0 -14475.2 0 0 14475.2 0 0 -5120.89 0 0 5120.89 0 0 0 0 0 0 0 0 -15354.4 0 0 15354.4 0 0 -4011.38 0 0 4011.38
0 0 0 0 0 0 0 0 -13309.9 0 0 13309.9 0 0 -4992.57 0 0 4992.57 0 0 0 0 0 0 0 0 -14131.7 0 0 14131.7 0 0 -3909.78 0 0 3909.78
0 0 0 0 0 0 0 0 -11975.4 0 0 11975.4 0 0 -4888.27 0 0 4888.27 0 0 0 0 0 0 0 0 -12732.3 0 0 12732.3 0 0 -3836.55 0 0 3836.55
0 0 0 0 0 0 0 0 -10508.8 0 0 10508.8 0 0 -4796.25 0 0 4796.25 0 0 0 0 0 0 0 0 -11194.8 0 0 11194.8 0 0 -3778.88 0 0 3778.88
0 0 0 0 0 0 0 0 -8952.03 0 0 8952.03 0 0 -4703.16 0 0 4703.16 0 0 0 0 0 0 0 0 -9562.66 0 0 9562.66 0 0 -3722.24 0 0 3722.24
0 0 0 0 0 0 0 0 -7349.41 0 0 7349.41 0 0 -4594.84 0 0 4594.84 0 0 0 0 0 0 0 0 -7881.9 0 0 7881.9 0 0 -3651.23 0 0 3651.23
0 0 0 0 0 0 0 0 -5746.79 0 0 5746.79 0 0 -4457.02 0 0 4457.02 0 0 0 0 0 0 0 0 -6200.03 0 0 6200.03 0 0 -3550.34 0 0 3550.34
0 0 0 0 0 0 0 0 -4189.79 0 0 4189.79 0 0 -4276.2 0 0 4276.2 0 0 0 0 0 0 0 0 -4564.33 0 0 4564.33 0 0 -3404.82 0 0 3404.82
0 0 0 0 0 0 0 0 -2720.53 0 0 2720.53 0 0 -4040.51 0 0 4040.51 0 0 0 0 0 0 0 0 -3018.38 0 0 3018.38 0 0 -3201.66 0 0 3201.66
0 0 0 0 0 0 0 0 -1372.64 0 0 1372.64 0 0 -3740.72 0 0 3740.72 0 0 0 0 0 0 0 0 -1597.01 0 0 1597.01 0 0 -2930.68 0 0 2930.68
0 0 0 0 0 0 0 0 -167.671 0 0 167.671 0 0 -3370.92 0 0 3370.92 0 0 0 0 0 0 0 0 -322.676 0 0 322.676 0 0 -2585.38 0 0 2585.38
0 0 0 0 0 0 0 0 872.569 0 0 -872.569 0 0 -2928.95 0 0 2928.95 0 0 0 0 0 0 0 0 712.67 0 0 -712.67 0 0 -2151.39 0 0 2151.39
0 0 0 0 0 0 0 0 2039.21 0 0 -2039.21 0 0 -2433 0 0 2433 0 0 0 0 0 0 0 0 2100.01 0 0 -2100.01 0 0 -1692.33 0 0 1692.33
0 0 0 0 0 0 0 0 3146.88 0 0 -3146.88 0 0 -1861.38 0 0 1861.38 0 0 0 0 0 0 0 0 3213.77 0 0 -3213.77 0 0 -1134.41 0 0 1134.41
0 0 0 0 0 0 0 0 4077.46 0 0 -4077.46 0 0 -1219.85 0 0 1219.85 0 0 0 0 0 0 0 0 4217.94 0 0 -4217.94 0 0 -513.375 0 0 513.375
0 0 0 0 0 0 0 0 4829.43 0 0 -4829.43 0 0 -530.207 0 0 530.207 0 0 0 0 0 0 0 0 5039.91 0 0 -5039.91 0 0 163.556 0 0 -163.556
0 0 0 0 0 0 0 0 5419.56 0 0 -5419.56 0 0 214.168 0 0 -214.168 0 0 0 0 0 0 0 0 5698.64 0 0 -5698.64 0 0 897.175 0 0 -897.175
0 0 0 0 0 0 0 0 5851.63 0 0 -5851.63 0 0 1009.58 0 0 -1009.58 0 0 0 0 0 0 0 0 6187.48 0 0 -6187.48 0 0 1680.38 0 0 -1680.38
0 0 0 0 0 0 0 0 6131.39 0 0 -6131.39 0 0 1841.55 0 0 -1841.55 0 0 0 0 0 0 0 0 6527 0 0 -6527 0 0 2507.81 0 0 -2507.81
0 0 0 0 0 0 0 0 6281.37 0 0 -6281.37 0 0 2696.55 0 0 -2696.55 0 0 0 0 0 0 0 0 6728.57 0 0 -6728.57 0 0 3362.44 0 0 -3362.44
0 0 0 0 0 0 0 0 6318.47 0 0 -6318.47 0 0 3561.97 0 0 -3561.97 0 0 0 0 0 0 0 0 6810.98 0 0 -6810.98 0 0 4229.22 0 0 -4229.22
0 0 0 0 0 0 0 0 6260.42 0 0 -6260.42 0 0 4421.06 0 0 -4421.06 0 0 0 0 0 0 0 0 6795.28 0 0 -6795.28 0 0 5090.77 0 0 -5090.77
0 0 0 0 0 0 0 0 6130.29 0 0 -6130.29 0 0 5254.94 0 0 -5254.94 0 0 0 0 0 0 0 0 6701.88 0 0 -6701.88 0 0 5930.45 0 0 -5930.45
0 0 0 0 0 0 0 0 5948.49 0 0 -5948.49 0 0 6047.47 0 0 -6047.47 0 0 0 0 0 0 0 0 6553.02 0 0 -6553.02 0 0 6730.01 0 0 -6730.01
0 0 0 0 0 0 0 0 5735.18 0 0 -5735.18 0 0 6782.99 0 0 -6782.99 0 0 0 0 0 0 0 0 6370.3 0 0 -6370.3 0 0 7471.88 0 0 -7471.88
0 0 0 0 0 0 0 0 5511.94 0 0 -5511.94 0 0 7444.9 0 0 -7444.9 0 0 0 0 0 0 0 0 6175.48 0 0 -6175.48 0 0 8139.9 0 0 -8139.9
0 0 0 0 0 0 0 0 5298.16 0 0 -5298.16 0 0 8018.1 0 0 -8018.1 0 0 0 0 0 0 0 0 5988.76 0 0 -5988.76 0 0 8718.95 0 0 -8718.95
0 0 0 0 0 0 0 0 5110.02 0 0 -5110.02 0 0 8490.45 0 0 -8490.45 0 0 0 0 0 0 0 0 5827.99 0 0 -5827.99 0 0 9195.52 0 0 -9195.52
0 0 0 0 0 0 0 0 4961.19 0 0 -4961.19 0 0 8851.63 0 0 -8851.63 0 0 0 0 0 0 0 0 5707.46 0 0 -5707.46 0 0 9558.4 0 0 -9558.4
0 0 0 0 0 0 0 0 4862.58 0 0 -4862.58 0 0 9093.11 0 0 -9093.11 0 0 0 0 0 0 0 0 5639.21 0 0 -5639.21 0 0 9799.2 0 0 -9799.2
0 0 0 0 0 0 0 0 4823.12 0 0 -4823.12 0 0 9209.07 0 0 -9209.07 0 0 0 0 0 0 0 0 5632.98 0 0 -5632.98 0 0 9911.93 0 0 -9911.93
0 0 0 0 0 0 0 0 4850.54 0 0 -4850.54 0 0 9196.25 0 0 -9196.25 0 0 0 0 0 0 0 0 5696.75 0 0 -5696.75 0 0 9892.91 0 0 -9892.91
0 0 0 0 0 0 0 0 4951.2 0 0 -4951.2 0 0 9051.43 0 0 -9051.43 0 0 0 0 0 0 0 0 5837.04 0 0 -5837.04 0 0 9737.54 0 0 -9737.54
0 0 0 0 0 0 0 0 5127.69 0 0 -5127.69 0 0 8777.33 0 0 -8777.33 0 0 0 0 0 0 0 0 6055.86 0 0 -6055.86 0 0 9449.29 0 0 -9449.29
0 0 0 0 0 0 0 0 5377.39 0 0 -5377.39 0 0 8380.11 0 0 -8380.11 0 0 0 0 0 0 0 0 6350.31 0 0 -6350.31 0 0 9034.38 0 0 -9034.38
0 0 0 0 0 0 0 0 5692.23 0 0 -5692.23 0 0 7869.19 0 0 -7869.19 0 0 0 0 0 0 0 0 6712.11 0 0 -6712.11 0 0 8502.54 0 0 -8502.54
0 0 0 0 0 0 0 0 6059.73 0 0 -6059.73 0 0 7256.87 0 0 -7256.87 0 0 0 0 0 0 0 0 7128.69 0 0 -7128.69 0 0 7866.35 0 0 -7866.35
0 0 0 0 0 0 0 0 6465.42 0 0 -6465.42 0 0 6557.61 0 0 -6557.61 0 0 0 0 0 0 0 0 7585.25 0 0 -7585.25 0 0 7140.91 0 0 -7140.91
0 0 0 0 0 0 0 0 6894.57 0 0 -6894.57 0 0 5787.65 0 0 -5787.65 0 0 0 0 0 0 0 0 8066.34 0 0 -8066.34 0 0 6343.17 0 0 -6343.17
0 0 0 0 0 0 0 0 7332.37 0 0 -7332.37 0 0 4964.67 0 0 -4964.67 0 0 0 0 0 0 0 0 8556.06 0 0 -8556.06 0 0 5491.43 0 0 -5491.43
0 0 0 0 0 0 0 0 7763.48 0 0 -7763.48 0 0 4107.31 0 0 -4107.31 0 0 0 0 0 0 0 0 9037.92 0 0 -9037.92 0 0 4605.03 0 0 -4605.03
0 0 0 0 0 0 0 0 8172.15 0 0 -8172.15 0 0 3234.69 0 0 -3234.69 0 0 0 0 0 0 0 0 9494.89 0 0 -9494.89 0 0 3703.86 0 0 -3703.86
0 0 0 0 0 0 0 0 8542.79 0 0 -8542.79 0 0 2365.95 0 0 -2365.95 0 0 0 0 0 0 0 0 9910.19 0 0 -9910.19 0 0 2807.86 0 0 -2807.86
0 0 0 0 0 0 0 0 8860.89 0 0 -8860.89 0 0 1519.74 0 0 -1519.74 0 0 0 0 0 0 0 0 10268.1 0 0 -10268.1 0 0 1936.41 0 0 -1936.41
0 0 0 0 0 0 0 0 9113.4 0 0 -9113.4 0 0 713.783 0 0 -713.783 0 0 0 0 0 0 0 0 10554.4 0 0 -10554.4 0 0 1107.87 0 0 -1107.87
0 0 0 0 0 0 0 0 9288.79 0 0 -9288.79 0 0 -35.5807 0 0 35.5807 0 0 0 0 0 0 0 0 10756.5 0 0 -10756.5 0 0 339.201 0 0 -339.201
0 0 0 0 0 0 0 0 9377.27 0 0 -9377.27 0 0 -713.761 0 0 713.761 0 0 0 0 0 0 0 0 10863.8 0 0 -10863.8 0 0 -354.474 0 0 354.474
0 0 0 0 0 0 0 0 9369.81 0 0 -9369.81 0 0 -1301.95 0 0 1301.95 0 0 0 0 0 0 0 0 10866.2 0 0 -10866.2 0 0 -950.291 0 0 950.291
0 0 0 0 0 0 0 0 9276.01 0 0 -9276.01 0 0 -1788 0 0 1788 0 0 0 0 0 0 0 0 10772.5 0 0 -10772.5 0 0 -1439.86 0 0 1439.86
0 0 0 0 0 0 0 0 9097.23 0 0 -9097.23 0 0 -2178.36 0 0 2178.36 0 0 0 0 0 0 0 0 10587.7 0 0 -10587.7 0 0 -1830.27 0 0 1830.27
0 0 0 0 0 0 0 0 8822.58 0 0 -8822.58 0 0 -2465.56 0 0 2465.56 0 0 0 0 0 0 0 0 10298.4 0 0 -10298.4 0 0 -2114.99 0 0 2114.99
0 0 0 0 0 0 0 0 8441.11 0 0 -8441.11 0 0 -2647.28 0 0 2647.28 0 0 0 0 0 0 0 0 9894.29 0 0 -9894.29 0 0 -2289.42 0 0 2289.42
0 0 0 0 0 0 0 0 7947.14 0 0 -7947.14 0 0 -2723.47 0 0 2723.47 0 0 0 0 0 0 0 0 9370.35 0 0 -9370.35 0 0 -2353.93 0 0 2353.93
0 0 0 0 0 0 0 0 7341.84 0 0 -7341.84 0 0 -2696.99 0 0 2696.99 0 0 0 0 0 0 0 0 8728.42 0 0 -8728.42 0 0 -2311.59 0 0 2311.59
0 0 0 0 0 0 0 0 6634.31 0 0 -6634.31 0 0 -2572.8 0 0 2572.8 0 0 0 0 0 0 0 0 7978.46 0 0 -7978.46 0 0 -2168.2 0 0 2168.2
0 0 0 0 0 0 0 0 5842.2 0 0 -5842.2 0 0 -2359.15 0 0 2359.15 0 0 0 0 0 0 0 0 7138.89 0 0 -7138.89 0 0 -1931.34 0 0 1931.34
0 0 0 0 0 0 0 0 4990.96 0 0 -4990.96 0 0 -2068.46 0 0 2068.46 0 0 0 0 0 0 0 0 6236.71 0 0 -6236.71 0 0 -1614.42 0 0 1614.42
0 0 0 0 0 0 0 0 4111.62 0 0 -4111.62 0 0 -1714.95 0 0 1714.95 0 0 0 0 0 0 0 0 5304.24 0 0 -5304.24 0 0 -1232.92 0 0 1232.92
0 0 0 0 0 0 0 0 3237.62 0 0 -3237.62 0 0 -1314.27 0 0 1314.27 0 0 0 0 0 0 0 0 4376.39 0 0 -4376.39 0 0 -803.662 0 0 803.662
0 0 0 0 0 0 0 0 2401.51 0 0 -2401.51 0 0 -883.028 0 0 883.028 0 0 0 0 0 0 0 0 3487.02 0 0 -3487.02 0 0 -343.964 0 0 343.964
0 0 0 0 0 0 0 0 1632.19 0 0 -1632.19 0 0 -437.455 0 0 437.455 0 0 0 0 0 0 0 0 2666.47 0 0 -2666.47 0 0 129.054 0 0 -129.054
0 0 0 0 0 0 0 0 954.14 0 0 -954.14 0 0 6.75433 0 0 -6.75433 0 0 0 0 0 0 0 0 1940.42 0 0 -1940.42 0 0 599.063 0 0 -599.063
0 0 0 0 0 0 0 0 388.089 0 0 -388.089 0 0 433.694 0 0 -433.694 0 0 0 0 0 0 0 0 1331.2 0 0 -1331.2 0 0 1046.84 0 0 -1046.84
0 0 0 0 0 0 0 0 -49.7146 0 0 49.7146 0 0 833.092 0 0 -833.092 0 0 0 0 0 0 0 0 855.1 0 0 -855.1 0 0 1465.69 0 0 -1465.69
0 0 0 0 0 0 0 0 -347.713 0 0 347.713 0 0 1194.87 0 0 -1194.87 0 0 0 0 0 0 0 0 525.179 0 0 -525.179 0 0 1842.14 0 0 -1842.14
0 0 0 0 0 0 0 0 -499.194 0 0 499.194 0 0 1511.06 0 0 -1511.06 0 0 0 0 0 0 0 0 347.902 0 0 -347.902 0 0 2169.18 0 0 -2169.18
0 0 0 0 0 0 0 0 -502.365 0 0 502.365 0 0 1776.07 0 0 -1776.07 0 0 0 0 0 0 0 0 325.429 0 0 -325.429 0 0 2440.75 0 0 -2440.75
0 0 0 0 0 0 0 0 -359.605 0 0 359.605 0 0 1986.91 0 0 -1986.91 0 0 0 0 0 0 0 0 455.079 0 0 -455.079 0 0 2654.22 0 0 -2654.22
0 0 0 0 0 0 0 0 -77.7116 0 0 77.7116 0 0 2143.13 0 0 -2143.13 0 0 0 0 0 0 0 0 729.541 0 0 -729.541 0 0 2809.07 0 0 -2809.07
0 0 0 0 0 0 0 0 331.064 0 0 -331.064 0 0 2246.99 0 0 -2246.99 0 0 0 0 0 0 0 0 1135.8 0 0 -1135.8 0 0 2907.98 0 0 -2907.98
0 0 0 0 0 0 0 0 848.046 0 0 -848.046 0 0 2303.19 0 0 -2303.19 0 0 0 0 0 0 0 0 1654.05 0 0 -1654.05 0 0 2956.06 0 0 -2956.06
0 0 0 0 0 0 0 0 1448.01 0 0 -1448.01 0 0 2318.72 0 0 -2318.72 0 0 0 0 0 0 0 0 2257.72 0 0 -2257.72 0 0 2961.18 0 0 -2961.18
0 0 0 0 0 0 0 0 2099.69 0 0 -2099.69 0 0 2302.51 0 0 -2302.51 0 0 0 0 0 0 0 0 2914 0 0 -2914 0 0 2933.07 0 0 -2933.07
0 0 0 0 0 0 0 0 2767.07 0 0 -2767.07 0 0 2264.91 0 0 -2264.91 0 0 0 0 0 0 0 0 3585.27 0 0 -3585.27 0 0 2883.08 0 0 -2883.08
0 0 0 0 0 0 0 0 3379.03 0 0 -3379.03 0 0 2218.51 0 0 -2218.51 0 0 0 0 0 0 0 0 4140.29 0 0 -4140.29 0 0 2829.8 0 0 -2829.8
0 0 0 0 0 0 0 0 3701.9 0 0 -3701.9 0 0 2188.07 0 0 -2188.07 0 0 0 0 0 0 0 0 4426.66 0 0 -4426.66 0 0 2808.74 0 0 -2808.74
0 0 0 0 0 0 0 0 3956.33 0 0 -3956.33 0 0 2162.5 0 0 -2162.5 0 0 0 0 0 0 0 0 4631.34 0 0 -4631.34 0 0 2781.64 0 0 -2781.64
0 0 0 0 0 0 0 0 4097.82 0 0 -4097.82 0 0 2147.89 0 0 -2147.89 0 0 0 0 0 0 0 0 4738.49 0 0 -4738.49 0 0 2772.22 0 0 -2772.22
0 0 0 0 0 0 0 0 4120.1 0 0 -4120.1 0 0 2148.61 0 0 -2148.61 0 0 0 0 0 0 0 0 4706.59 0 0 -4706.59 0 0 2779.23 0 0 -2779.23
0 0 0 0 0 0 0 0 4024.37 0 0 -4024.37 0 0 2162.46 0 0 -2162.46 0 0 0 0 0 0 0 0 4564.9 0 0 -4564.9 0 0 2803.14 0 0 -2803.14
0 0 0 0 0 0 0 0 3780.9 0 0 -3780.9 0 0 2193.2 0 0 -2193.2 0 0 0 0 0 0 0 0 4264.7 0 0 -4264.7 0 0 2848.16 0 0 -2848.16
0 0 0 0 0 0 0 0 3377.47 0 0 -3377.47 0 0 2241.63 0 0 -2241.63 0 0 0 0 0 0 0 0 3804.84 0 0 -3804.84 0 0 2912.04 0 0 -2912.04
0 0 0 0 0 0 0 0 2814.37 0 0 -2814.37 0 0 2303.19 0 0 -2303.19 0 0 0 0 0 0 0 0 3183.72 0 0 -3183.72 0 0 2992.76 0 0 -2992.76
0 0 0 0 0 0 0 0 2100.92 0 0 -2100.92 0 0 2371.42 0 0 -2371.42 0 0 0 0 0 0 0 0 2407.93 0 0 -2407.93 0 0 3083.87 0 0 -3083.87
0 0 0 0 0 0 0 0 1250.57 0 0 -1250.57 0 0 2439.59 0 0 -2439.59 0 0 0 0 0 0 0 0 1493.63 0 0 -1493.63 0 0 3177.57 0 0 -3177.57
0 0 0 0 0 0 0 0 283.232 0 0 -283.232 0 0 2498.94 0 0 -2498.94 0 0 0 0 0 0 0 0 461.036 0 0 -461.036 0 0 3263.71 0 0 -3263.71
0 0 0 0 0 0 0 0 -774.002 0 0 774.002 0 0 2545.37 0 0 -2545.37 0 0 0 0 0 0 0 0 -664.401 0 0 664.401 0 0 3333.09 0 0 -3333.09
0 0 0 0 0 0 0 0 -1898.25 0 0 1898.25 0 0 2560.84 0 0 -2560.84 0 0 0 0 0 0 0 0 -1855.05 0 0 1855.05 0 0 3378.02 0 0 -3378.02
0 0 0 0 0 0 0 0 -3061.49 0 0 3061.49 0 0 2536.43 0 0 -2536.43 0 0 0 0 0 0 0 0 -3084.63 0 0 3084.63 0 0 3382.21 0 0 -3382.21
0 0 0 0 0 0 0 0 -4236.75 0 0 4236.75 0 0 2461.1 0 0 -2461.1 0 0 0 0 0 0 0 0 -4324.74 0 0 4324.74 0 0 3334.99 0 0 -3334.99
0 0 0 0 0 0 0 0 -5395.93 0 0 5395.93 0 0 2323.64 0 0 -2323.64 0 0 0 0 0 0 0 0 -5546.51 0 0 5546.51 0 0 3224.24 0 0 -3224.24
0 0 0 0 0 0 0 0 -6511.76 0 0 6511.76 0 0 2115.74 0 0 -2115.74 0 0 0 0 0 0 0 0 -6722.63 0 0 6722.63 0 0 3041.67 0 0 -3041.67
0 0 0 0 0 0 0 0 -7560.47 0 0 7560.47 0 0 1838.09 0 0 -1838.09 0 0 0 0 0 0 0 0 -7827.81 0 0 7827.81 0 0 2784.8 0 0 -2784.8
0 0 0 0 0 0 0 0 -8520.2 0 0 8520.2 0 0 1487.68 0 0 -1487.68 0 0 0 0 0 0 0 0 -8843.06 0 0 8843.06 0 0 2457.71 0 0 -2457.71
0 0 0 0 0 0 0 0 -9373.93 0 0 9373.93 0 0 1054.47 0 0 -1054.47 0 0 0 0 0 0 0 0 -9746.38 0 0 9746.38 0 0 2042.47 0 0 -2042.47
0 0 0 0 0 0 0 0 -10109.7 0 0 10109.7 0 0 539.561 0 0 -539.561 0 0 0 0 0 0 0 0 -10528.4 0 0 10528.4 0 0 1541.85 0 0 -1541.85
0 0 0 0 0 0 0 0 -10722.1 0 0 10722.1 0 0 -53.8473 0 0 53.8473 0 0 0 0 0 0 0 0 -11182.7 0 0 11182.7 0 0 958.978 0 0 -958.978
0 0 0 0 0 0 0 0 -11211 0 0 11211 0 0 -720.383 0 0 720.383 0 0 0 0 0 0 0 0 -11709 0 0 11709 0 0 299.674 0 0 -299.674
0 0 0 0 0 0 0 0 -11582.1 0 0 11582.1 0 0 -1451.4 0 0 1451.4 0 0 0 0 0 0 0 0 -12112.9 0 0 12112.9 0 0 -427.481 0 0 427.481
0 0 0 0 0 0 0 0 -11846.3 0 0 11846.3 0 0 -2235.73 0 0 2235.73 0 0 0 0 0 0 0 0 -12405.4 0 0 12405.4 0 0 -1211.28 0 0 1211.28
0 0 0 0 0 0 0 0 -12018.7 0 0 12018.7 0 0 -3060.47 0 0 3060.47 0 0 0 0 0 0 0 0 -12601.8 0 0 12601.8 0 0 -2038.2 0 0 2038.2
0 0 0 0 0 0 0 0 -12116.6 0 0 12116.6 0 0 -3911.37 0 0 3911.37 0 0 0 0 0 0 0 0 -12719.6 0 0 12719.6 0 0 -2893.3 0 0 2893.3
0 0 0 0 0 0 0 0 -12157.8 0 0 12157.8 0 0 -4772.84 0 0 4772.84 0 0 0 0 0 0 0 0 -12777.2 0 0 12777.2 0 0 -3760.59 0 0 3760.59
0 0 0 0 0 0 0 0 -12160.4 0 0 12160.4 0 0 -5628.79 0 0 5628.79 0 0 0 0 0 0 0 0 -12793 0 0 12793 0 0 -4623.57 0 0 4623.57
0 0 0 0 0 0 0 0 -12141.7 0 0 12141.7 0 0 -6463.2 0 0 6463.2 0 0 0 0 0 0 0 0 -12785.2 0 0 12785.2 0 0 -5465.51 0 0 5465.51
0 0 0 0 0 0 0 0 -12118.7 0 0 12118.7 0 0 -7260.44 0 0 7260.44 0 0 0 0 0 0 0 0 -12771.6 0 0 12771.6 0 0 -6270.07 0 0 6270.07
0 0 0 0 0 0 0 0 -12107.5 0 0 12107.5 0 0 -8005.43 0 0 8005.43 0 0 0 0 0 0 0 0 -12768.8 0 0 12768.8 0 0 -7021.77 0 0 7021.77
0 0 0 0 0 0 0 0 -12123.4 0 0 12123.4 0 0 -8684.3 0 0 8684.3 0 0 0 0 0 0 0 0 -12792.8 0 0 12792.8 0 0 -7706.28 0 0 7706.28
0 0 0 0 0 0 0 0 -12179.7 0 0 12179.7 0 0 -9284.78 0 0 9284.78 0 0 0 0 0 0 0 0 -12857.3 0 0 12857.3 0 0 -8310.84 0 0 8310.84
0 0 0 0 0 0 0 0 -12287 0 0 12287 0 0 -9796.56 0 0 9796.56 0 0 0 0 0 0 0 0 -12973.3 0 0 12973.3 0 0 -8824.74 0 0 8824.74
0 0 0 0 0 0 0 0 -12458.2 0 0 12458.2 0 0 -10169.5 0 0 10169.5 0 0 0 0 0 0 0 0 -13149.3 0 0 13149.3 0 0 -9227.61 0 0 9227.61
0 0 0 0 0 0 0 0 -12693.5 0 0 12693.5 0 0 -10391.4 0 0 10391.4 0 0 0 0 0 0 0 0 -13398 0 0 13398 0 0 -9452.65 0 0 9452.65
0 0 0 0 0 0 0 0 -12980.1 0 0 12980.1 0 0 -10536.7 0 0 10536.7 0 0 0 0 0 0 0 0 -13695.1 0 0 13695.1 0 0 -9603.84 0 0 9603.84
0 0 0 0 0 0 0 0 -13307.2 0 0 13307.2 0 0 -10608.6 0 0 10608.6 0 0 0 0 0 0 0 0 -14035.3 0 0 14035.3 0 0 -9671.66 0 0 9671.66
0 0 0 0 0 0 0 0 -13662.2 0 0 13662.2 0 0 -10610.6 0 0 10610.6 0 0 0 0 0 0 0 0 -14407 0 0 14407 0 0 -9665.31 0 0 9665.31
0 0 0 0 0 0 0 0 -14035.1 0 0 14035.1 0 0 -10538 0 0 10538 0 0 0 0 0 0 0 0 -14795 0 0 14795 0 0 -9582.29 0 0 9582.29
0 0 0 0 0 0 0 0 -14413.1 0 0 14413.1 0 0 -10376.8 0 0 10376.8 0 0 0 0 0 0 0 0 -15190.6 0 0 15190.6 0 0 -9408.33 0 0 9408.33
0 0 0 0 0 0 0 0 -14783.8 0 0 14783.8 0 0 -10133.2 0 0 10133.2 0 0 0 0 0 0 0 0 -15579.8 0 0 15579.8 0 0 -9153.32 0 0 9153.32
0 0 0 0 0 0 0 0 -15134.9 0 0 15134.9 0 0 -9817.09 0 0 9817.09 0 0 0 0 0 0 0 0 -15950.4 0 0 15950.4 0 0 -8823.48 0 0 8823.48
0 0 0 0 0 0 0 0 -15455.3 0 0 15455.3 0 0 -9438.11 0 0 9438.11 0 0 0 0 0 0 0 0 -16290.9 0 0 16290.9 0 0 -8429.03 0 0 8429.03
0 0 0 0 0 0 0 0 -15735.8 0 0 15735.8 0 0 -9005.03 0 0 9005.03 0 0 0 0 0 0 0 0 -16590.7 0 0 16590.7 0 0 -7981.2 0 0 7981.2
0 0 0 0 0 0 0 0 -15968.8 0 0 15968.8 0 0 -8527.83 0 0 8527.83 0 0 0 0 0 0 0 0 -16841.3 0 0 16841.3 0 0 -7490.69 0 0 7490.69
0 0 0 0 0 0 0 0 -16146.8 0 0 16146.8 0 0 -8017.9 0 0 8017.9 0 0 0 0 0 0 0 0 -17035.1 0 0 17035.1 0 0 -6967.78 0 0 6967.78
0 0 0 0 0 0 0 0 -16267.7 0 0 16267.7 0 0 -7485.71 0 0 7485.71 0 0 0 0 0 0 0 0 -17170.4 0 0 17170.4 0 0 -6422.81 0 0 6422.81
