0 0 1060.32 0 0 -1060.32 0 0 1034.74 0 0 -1034.74 0 0 34.9382 0 0 -34.9382
0 0 1053.22 0 0 -1053.22 0 0 1035.76 0 0 -1035.76 0 0 34.8968 0 0 -34.8968
0 0 1036.67 0 0 -1036.67 0 0 1038.24 0 0 -1038.24 0 0 34.7818 0 0 -34.7818
0 0 1002.57 0 0 -1002.57 0 0 1042.64 0 0 -1042.64 0 0 34.6308 0 0 -34.6308
0 0 963.758 0 0 -963.758 0 0 1046.96 0 0 -1046.96 0 0 34.5305 0 0 -34.5305
0 0 913.72 0 0 -913.72 0 0 1051.52 0 0 -1051.52 0 0 34.5133 0 0 -34.5133
0 0 851.519 0 0 -851.519 0 0 1055.82 0 0 -1055.82 0 0 34.6325 0 0 -34.6325
0 0 776.142 0 0 -776.142 0 0 1059.25 0 0 -1059.25 0 0 34.9555 0 0 -34.9555
0 0 686.469 0 0 -686.469 0 0 1061.09 0 0 -1061.09 0 0 35.5489 0 0 -35.5489
0 0 581.299 0 0 -581.299 0 0 1060.59 0 0 -1060.59 0 0 36.4777 0 0 -36.4777
0 0 459.532 0 0 -459.532 0 0 1056.9 0 0 -1056.9 0 0 37.8045 0 0 -37.8045
0 0 320.466 0 0 -320.466 0 0 1049.04 0 0 -1049.04 0 0 39.5848 0 0 -39.5848
0 0 164.816 0 0 -164.816 0 0 1035.92 0 0 -1035.92 0 0 41.8657 0 0 -41.8657
0 0 -4.42168 0 0 4.42168 0 0 1016.68 0 0 -1016.68 0 0 44.6454 0 0 -44.6454
0 0 -187.359 0 0 187.359 0 0 989.277 0 0 -989.277 0 0 48.0027 0 0 -48.0027
0 0 -379.585 0 0 379.585 0 0 952.419 0 0 -952.419 0 0 51.8994 0 0 -51.8994
0 0 -576.081 0 0 576.081 0 0 904.605 0 0 -904.605 0 0 56.2937 0 0 -56.2937
0 0 -771.252 0 0 771.252 0 0 844.568 0 0 -844.568 0 0 61.0837 0 0 -61.0837
0 0 -959.346 0 0 959.346 0 0 771.46 0 0 -771.46 0 0 66.1009 0 0 -66.1009
0 0 -1134.65 0 0 1134.65 0 0 684.924 0 0 -684.924 0 0 71.1117 0 0 -71.1117
0 0 -1291.39 0 0 1291.39 0 0 585.122 0 0 -585.122 0 0 75.7869 0 0 -75.7869
0 0 -1423.18 0 0 1423.18 0 0 472.691 0 0 -472.691 0 0 79.7323 0 0 -79.7323
0 0 -1522.53 0 0 1522.53 0 0 348.7 0 0 -348.7 0 0 82.5002 0 0 -82.5002
0 0 -1580.42 0 0 1580.42 0 0 214.612 0 0 -214.612 0 0 83.5927 0 0 -83.5927
0 0 -1586.42 0 0 1586.42 0 0 72.3219 0 0 -72.3219 0 0 82.4689 0 0 -82.4689
0 0 -1529.35 0 0 1529.35 0 0 -74.6226 0 0 74.6226 0 0 78.6087 0 0 -78.6087
0 0 -1400.33 0 0 1400.33 0 0 -222.959 0 0 222.959 0 0 71.3941 0 0 -71.3941
0 0 -1195.67 0 0 1195.67 0 0 -368.786 0 0 368.786 0 0 60.099 0 0 -60.099
0 0 -920.135 0 0 920.135 0 0 -504.975 0 0 504.975 0 0 43.9804 0 0 -43.9804
0 0 -585.557 0 0 585.557 0 0 -623.513 0 0 623.513 0 0 22.4126 0 0 -22.4126
0 0 -207.248 0 0 207.248 0 0 -715.912 0 0 715.912 0 0 -4.96642 0 0 4.96642
0 0 205.592 0 0 -205.592 0 0 -773.783 0 0 773.783 0 0 -38.8711 0 0 38.8711
0 0 633.905 0 0 -633.905 0 0 -791.496 0 0 791.496 0 0 -79.3375 0 0 79.3375
0 0 1067.26 0 0 -1067.26 0 0 -764.388 0 0 764.388 0 0 -126.093 0 0 126.093
0 0 1496.58 0 0 -1496.58 0 0 -689.784 0 0 689.784 0 0 -178.63 0 0 178.63
0 0 1918.71 0 0 -1918.71 0 0 -567.265 0 0 567.265 0 0 -236.012 0 0 236.012
0 0 2330.06 0 0 -2330.06 0 0 -398.25 0 0 398.25 0 0 -297.034 0 0 297.034
0 0 2731.92 0 0 -2731.92 0 0 -186.379 0 0 186.379 0 0 -360.154 0 0 360.154
0 0 3123.64 0 0 -3123.64 0 0 64.3508 0 0 -64.3508 0 0 -423.538 0 0 423.538
0 0 3505.49 0 0 -3505.49 0 0 349.24 0 0 -349.24 0 0 -485.096 0 0 485.096
0 0 3876.85 0 0 -3876.85 0 0 658.483 0 0 -658.483 0 0 -542.987 0 0 542.987
0 0 4235.82 0 0 -4235.82 0 0 985.346 0 0 -985.346 0 0 -595.03 0 0 595.03
0 0 4577.95 0 0 -4577.95 0 0 1322.2 0 0 -1322.2 0 0 -639.173 0 0 639.173
0 0 4895.56 0 0 -4895.56 0 0 1662.03 0 0 -1662.03 0 0 -673.45 0 0 673.45
0 0 5179.58 0 0 -5179.58 0 0 1998.06 0 0 -1998.06 0 0 -696.062 0 0 696.062
0 0 5422.94 0 0 -5422.94 0 0 2324.22 0 0 -2324.22 0 0 -705.359 0 0 705.359
0 0 5624.6 0 0 -5624.6 0 0 2631.85 0 0 -2631.85 0 0 -699.791 0 0 699.791
0 0 5790.3 0 0 -5790.3 0 0 2914.48 0 0 -2914.48 0 0 -678.362 0 0 678.362
0 0 5933.15 0 0 -5933.15 0 0 3163.76 0 0 -3163.76 0 0 -640.194 0 0 640.194
0 0 6073.03 0 0 -6073.03 0 0 3372.5 0 0 -3372.5 0 0 -584.803 0 0 584.803
0 0 6283.57 0 0 -6283.57 0 0 3567.2 0 0 -3567.2 0 0 -491.363 0 0 491.363
0 0 6588.33 0 0 -6588.33 0 0 3681.19 0 0 -3681.19 0 0 -372.097 0 0 372.097
0 0 7043.06 0 0 -7043.06 0 0 3713.85 0 0 -3713.85 0 0 -229.499 0 0 229.499
0 0 7689.8 0 0 -7689.8 0 0 3674.29 0 0 -3674.29 0 0 -67.5446 0 0 67.5446
0 0 8549.65 0 0 -8549.65 0 0 3582.91 0 0 -3582.91 0 0 110.508 0 0 -110.508
0 0 9619.19 0 0 -9619.19 0 0 3468.83 0 0 -3468.83 0 0 296.874 0 0 -296.874
0 0 10867.5 0 0 -10867.5 0 0 3370.92 0 0 -3370.92 0 0 482.872 0 0 -482.872
0 0 12239.9 0 0 -12239.9 0 0 3332.62 0 0 -3332.62 0 0 661.776 0 0 -661.776
0 0 13671.5 0 0 -13671.5 0 0 3397.54 0 0 -3397.54 0 0 825.955 0 0 -825.955
0 0 15107.2 0 0 -15107.2 0 0 3602.46 0 0 -3602.46 0 0 969.902 0 0 -969.902
0 0 16513.2 0 0 -16513.2 0 0 3972.84 0 0 -3972.84 0 0 1089.39 0 0 -1089.39
0 0 17875.9 0 0 -17875.9 0 0 4521.42 0 0 -4521.42 0 0 1182.54 0 0 -1182.54
0 0 19194.8 0 0 -19194.8 0 0 5248.33 0 0 -5248.33 0 0 1249.52 0 0 -1249.52
0 0 20476.5 0 0 -20476.5 0 0 6142.28 0 0 -6142.28 0 0 1292.63 0 0 -1292.63
0 0 21727.7 0 0 -21727.7 0 0 7182.29 0 0 -7182.29 0 0 1316.05 0 0 -1316.05
0 0 22946.9 0 0 -22946.9 0 0 8340.54 0 0 -8340.54 0 0 1325.46 0 0 -1325.46
0 0 24124.4 0 0 -24124.4 0 0 9583.8 0 0 -9583.8 0 0 1327.74 0 0 -1327.74
0 0 25252.5 0 0 -25252.5 0 0 10873.8 0 0 -10873.8 0 0 1330.55 0 0 -1330.55
0 0 26333.8 0 0 -26333.8 0 0 12168.1 0 0 -12168.1 0 0 1341.98 0 0 -1341.98
0 0 27380.3 0 0 -27380.3 0 0 13422.8 0 0 -13422.8 0 0 1369.93 0 0 -1369.93
0 0 28406.4 0 0 -28406.4 0 0 14596.3 0 0 -14596.3 0 0 1421.59 0 0 -1421.59
0 0 29416.2 0 0 -29416.2 0 0 15653.7 0 0 -15653.7 0 0 1502.76 0 0 -1502.76
0 0 30397.8 0 0 -30397.8 0 0 16569.9 0 0 -16569.9 0 0 1617.49 0 0 -1617.49
0 0 31330.9 0 0 -31330.9 0 0 17329.2 0 0 -17329.2 0 0 1767.83 0 0 -1767.83
0 0 32197.7 0 0 -32197.7 0 0 17924.1 0 0 -17924.1 0 0 1953.82 0 0 -1953.82
0 0 32985.4 0 0 -32985.4 0 0 18354.9 0 0 -18354.9 0 0 2173.46 0 0 -2173.46
0 0 33687.2 0 0 -33687.2 0 0 18629.6 0 0 -18629.6 0 0 2422.85 0 0 -2422.85
0 0 34302.5 0 0 -34302.5 0 0 18762.6 0 0 -18762.6 0 0 2696.3 0 0 -2696.3
0 0 34837 0 0 -34837 0 0 18773.8 0 0 -18773.8 0 0 2986.69 0 0 -2986.69
0 0 35301 0 0 -35301 0 0 18687.7 0 0 -18687.7 0 0 3285.71 0 0 -3285.71
0 0 35706.9 0 0 -35706.9 0 0 18532.2 0 0 -18532.2 0 0 3584.29 0 0 -3584.29
0 0 36068.1 0 0 -36068.1 0 0 18337 0 0 -18337 0 0 3873.01 0 0 -3873.01
0 0 36401.3 0 0 -36401.3 0 0 18131.7 0 0 -18131.7 0 0 4142.56 0 0 -4142.56
0 0 36728.6 0 0 -36728.6 0 0 17943.6 0 0 -17943.6 0 0 4384.19 0 0 -4384.19
0 0 37077.3 0 0 -37077.3 0 0 17796.6 0 0 -17796.6 0 0 4590.15 0 0 -4590.15
0 0 37473.1 0 0 -37473.1 0 0 17710.9 0 0 -17710.9 0 0 4753.88 0 0 -4753.88
0 0 37929 0 0 -37929 0 0 17703.8 0 0 -17703.8 0 0 4870.33 0 0 -4870.33
0 0 38435.3 0 0 -38435.3 0 0 17790.6 0 0 -17790.6 0 0 4936 0 0 -4936
0 0 38959.5 0 0 -38959.5 0 0 17983.1 0 0 -17983.1 0 0 4949.25 0 0 -4949.25
0 0 39456.4 0 0 -39456.4 0 0 18287.1 0 0 -18287.1 0 0 4910.52 0 0 -4910.52
0 0 39802.3 0 0 -39802.3 0 0 18609.2 0 0 -18609.2 0 0 4843.79 0 0 -4843.79
0 0 40133.5 0 0 -40133.5 0 0 19100.4 0 0 -19100.4 0 0 4719.62 0 0 -4719.62
0 0 40320.6 0 0 -40320.6 0 0 19670.1 0 0 -19670.1 0 0 4556.34 0 0 -4556.34
0 0 40339.4 0 0 -40339.4 0 0 20287.4 0 0 -20287.4 0 0 4362.29 0 0 -4362.29
0 0 40170.8 0 0 -40170.8 0 0 20914.5 0 0 -20914.5 0 0 4147.15 0 0 -4147.15
0 0 39794.8 0 0 -39794.8 0 0 21509.3 0 0 -21509.3 0 0 3921.36 0 0 -3921.36
0 0 39192.5 0 0 -39192.5 0 0 22027.4 0 0 -22027.4 0 0 3695.59 0 0 -3695.59
0 0 38345.9 0 0 -38345.9 0 0 22424.7 0 0 -22424.7 0 0 3480.16 0 0 -3480.16
0 0 37237.6 0 0 -37237.6 0 0 22659.6 0 0 -22659.6 0 0 3284.45 0 0 -3284.45
0 0 35852.8 0 0 -35852.8 0 0 22695.2 0 0 -22695.2 0 0 3116.38 0 0 -3116.38
0 0 34181.4 0 0 -34181.4 0 0 22500.5 0 0 -22500.5 0 0 2982.04 0 0 -2982.04
0 0 32217 0 0 -32217 0 0 22052.2 0 0 -22052.2 0 0 2885.24 0 0 -2885.24
0 0 29960.5 0 0 -29960.5 0 0 21335.8 0 0 -21335.8 0 0 2827.34 0 0 -2827.34
0 0 27428.4 0 0 -27428.4 0 0 20344.3 0 0 -20344.3 0 0 2807.17 0 0 -2807.17
0 0 24660.2 0 0 -24660.2 0 0 19078 0 0 -19078 0 0 2821.06 0 0 -2821.06
0 0 21714.7 0 0 -21714.7 0 0 17545.6 0 0 -17545.6 0 0 2862.88 0 0 -2862.88
0 0 18653.1 0 0 -18653.1 0 0 15766.3 0 0 -15766.3 0 0 2924.06 0 0 -2924.06
0 0 15531 0 0 -15531 0 0 13771.1 0 0 -13771.1 0 0 2993.86 0 0 -2993.86
0 0 12402.1 0 0 -12402.1 0 0 11600.6 0 0 -11600.6 0 0 3059.84 0 0 -3059.84
0 0 9318.39 0 0 -9318.39 0 0 9303.04 0 0 -9303.04 0 0 3108.48 0 0 -3108.48
0 0 6329.1 0 0 -6329.1 0 0 6932.27 0 0 -6932.27 0 0 3125.8 0 0 -3125.8
0 0 3475.97 0 0 -3475.97 0 0 4545.98 0 0 -4545.98 0 0 3098.01 0 0 -3098.01
0 0 789.727 0 0 -789.727 0 0 2204.94 0 0 -2204.94 0 0 3012.16 0 0 -3012.16
0 0 -1694.52 0 0 1694.52 0 0 -23.6078 0 0 23.6078 0 0 2857.7 0 0 -2857.7
0 0 -4005.41 0 0 4005.41 0 0 -2071.3 0 0 2071.3 0 0 2626.43 0 0 -2626.43
0 0 -6166.69 0 0 6166.69 0 0 -3918.03 0 0 3918.03 0 0 2310.58 0 0 -2310.58
0 0 -8176.13 0 0 8176.13 0 0 -5533.95 0 0 5533.95 0 0 1909 0 0 -1909
0 0 -10016.1 0 0 10016.1 0 0 -6906.43 0 0 6906.43 0 0 1422.86 0 0 -1422.86
0 0 -11662.4 0 0 11662.4 0 0 -8034.28 0 0 8034.28 0 0 857.704 0 0 -857.704
0 0 -13104.4 0 0 13104.4 0 0 -8929.3 0 0 8929.3 0 0 222.875 0 0 -222.875
0 0 -14358.4 0 0 14358.4 0 0 -9606.43 0 0 9606.43 0 0 -458.104 0 0 458.104
0 0 -15463.9 0 0 15463.9 0 0 -10093.3 0 0 10093.3 0 0 -1182.79 0 0 1182.79
0 0 -16474.8 0 0 16474.8 0 0 -10420.5 0 0 10420.5 0 0 -1933.93 0 0 1933.93
0 0 -17445.1 0 0 17445.1 0 0 -10627.2 0 0 10627.2 0 0 -2691.9 0 0 2691.9
0 0 -18431.6 0 0 18431.6 0 0 -10756 0 0 10756 0 0 -3438.93 0 0 3438.93
0 0 -19493.9 0 0 19493.9 0 0 -10852.6 0 0 10852.6 0 0 -4154.85 0 0 4154.85
0 0 -20693.9 0 0 20693.9 0 0 -10962.5 0 0 10962.5 0 0 -4821.24 0 0 4821.24
0 0 -22088.7 0 0 22088.7 0 0 -11130.3 0 0 11130.3 0 0 -5420.73 0 0 5420.73
0 0 -23723 0 0 23723 0 0 -11398.8 0 0 11398.8 0 0 -5937.64 0 0 5937.64
0 0 -25618.3 0 0 25618.3 0 0 -11807.6 0 0 11807.6 0 0 -6359.11 0 0 6359.11
0 0 -27764.6 0 0 27764.6 0 0 -12393.6 0 0 12393.6 0 0 -6675.07 0 0 6675.07
0 0 -30120.8 0 0 30120.8 0 0 -13187.2 0 0 13187.2 0 0 -6879.18 0 0 6879.18
0 0 -32627.7 0 0 32627.7 0 0 -14208.1 0 0 14208.1 0 0 -6969.14 0 0 6969.14
0 0 -35222.7 0 0 35222.7 0 0 -15461.8 0 0 15461.8 0 0 -6947.12 0 0 6947.12
0 0 -37846.9 0 0 37846.9 0 0 -16936.6 0 0 16936.6 0 0 -6819.88 0 0 6819.88
0 0 -40451.5 0 0 40451.5 0 0 -18603.5 0 0 18603.5 0 0 -6598.51 0 0 6598.51
0 0 -42997.2 0 0 42997.2 0 0 -20417.5 0 0 20417.5 0 0 -6298.02 0 0 6298.02
0 0 -45453.8 0 0 45453.8 0 0 -22320.2 0 0 22320.2 0 0 -5936.57 0 0 5936.57
0 0 -47799.5 0 0 47799.5 0 0 -24243.2 0 0 24243.2 0 0 -5534.58 0 0 5534.58
0 0 -50017.1 0 0 50017.1 0 0 -26112.8 0 0 26112.8 0 0 -5113.73 0 0 5113.73
0 0 -52087.7 0 0 52087.7 0 0 -27855.8 0 0 27855.8 0 0 -4695.72 0 0 4695.72
0 0 -53987.9 0 0 53987.9 0 0 -29403.6 0 0 29403.6 0 0 -4301.25 0 0 4301.25
0 0 -55693.5 0 0 55693.5 0 0 -30696.4 0 0 30696.4 0 0 -3949.02 0 0 3949.02
0 0 -57182.6 0 0 57182.6 0 0 -31685.5 0 0 31685.5 0 0 -3654.87 0 0 3654.87
0 0 -58355.8 0 0 58355.8 0 0 -32304.1 0 0 32304.1 0 0 -3433.63 0 0 3433.63
0 0 -59233.5 0 0 59233.5 0 0 -32555.1 0 0 32555.1 0 0 -3291.17 0 0 3291.17
0 0 -59880.7 0 0 59880.7 0 0 -32470 0 0 32470 0 0 -3227.75 0 0 3227.75
0 0 -60279 0 0 60279 0 0 -32053.3 0 0 32053.3 0 0 -3244.91 0 0 3244.91
0 0 -60446.3 0 0 60446.3 0 0 -31335.3 0 0 31335.3 0 0 -3335.84 0 0 3335.84
0 0 -59589.3 0 0 59589.3 0 0 -30479 0 0 30479 0 0 -3487.47 0 0 3487.47
0 0 -58194.4 0 0 58194.4 0 0 -29455.2 0 0 29455.2 0 0 -3690.54 0 0 3690.54
0 0 -56480 0 0 56480 0 0 -28236.1 0 0 28236.1 0 0 -3942.98 0 0 3942.98
0 0 -54581.3 0 0 54581.3 0 0 -26877.1 0 0 26877.1 0 0 -4224.19 0 0 4224.19
0 0 -52548.6 0 0 52548.6 0 0 -25419 0 0 25419 0 0 -4522.96 0 0 4522.96
0 0 -50461.9 0 0 50461.9 0 0 -23913 0 0 23913 0 0 -4821.61 0 0 4821.61
0 0 -48399.6 0 0 48399.6 0 0 -22408.7 0 0 22408.7 0 0 -5104.45 0 0 5104.45
0 0 -46440.4 0 0 46440.4 0 0 -20954.8 0 0 20954.8 0 0 -5355.78 0 0 5355.78
0 0 -44655.6 0 0 44655.6 0 0 -19599.4 0 0 19599.4 0 0 -5560.75 0 0 5560.75
0 0 -43110.8 0 0 43110.8 0 0 -18384.6 0 0 18384.6 0 0 -5706.78 0 0 5706.78
0 0 -41863.7 0 0 41863.7 0 0 -17347.5 0 0 17347.5 0 0 -5783.32 0 0 5783.32
0 0 -40958.4 0 0 40958.4 0 0 -16518.7 0 0 16518.7 0 0 -5782.67 0 0 5782.67
0 0 -40427.2 0 0 40427.2 0 0 -15920.2 0 0 15920.2 0 0 -5700.23 0 0 5700.23
0 0 -40286.9 0 0 40286.9 0 0 -15565.9 0 0 15565.9 0 0 -5534.79 0 0 5534.79
0 0 -40540.4 0 0 40540.4 0 0 -15461.3 0 0 15461.3 0 0 -5288.55 0 0 5288.55
0 0 -41174.8 0 0 41174.8 0 0 -15602.5 0 0 15602.5 0 0 -4967.09 0 0 4967.09
0 0 -42113.9 0 0 42113.9 0 0 -15983.8 0 0 15983.8 0 0 -4579.05 0 0 4579.05
0 0 -43074.1 0 0 43074.1 0 0 -16627.3 0 0 16627.3 0 0 -4133.68 0 0 4133.68
0 0 -44015.5 0 0 44015.5 0 0 -17489.1 0 0 17489.1 0 0 -3647.13 0 0 3647.13
0 0 -44886.2 0 0 44886.2 0 0 -18525 0 0 18525 0 0 -3136.78 0 0 3136.78
0 0 -45653.1 0 0 45653.1 0 0 -19672.9 0 0 19672.9 0 0 -2622.7 0 0 2622.7
0 0 -46173.6 0 0 46173.6 0 0 -20626.3 0 0 20626.3 0 0 -2222.62 0 0 2222.62
0 0 -46599.1 0 0 46599.1 0 0 -21571.1 0 0 21571.1 0 0 -1844.09 0 0 1844.09
0 0 -46918.6 0 0 46918.6 0 0 -22471.2 0 0 22471.2 0 0 -1497.34 0 0 1497.34
0 0 -47121.3 0 0 47121.3 0 0 -23291.7 0 0 23291.7 0 0 -1191.93 0 0 1191.93
0 0 -47196.9 0 0 47196.9 0 0 -24001 0 0 24001 0 0 -936.405 0 0 936.405
0 0 -47135.6 0 0 47135.6 0 0 -24571.4 0 0 24571.4 0 0 -737.98 0 0 737.98
0 0 -46927.4 0 0 46927.4 0 0 -24980.2 0 0 24980.2 0 0 -602.344 0 0 602.344
0 0 -46559.7 0 0 46559.7 0 0 -25211.1 0 0 25211.1 0 0 -533.439 0 0 533.439
0 0 -46016.2 0 0 46016.2 0 0 -25254.5 0 0 25254.5 0 0 -533.333 0 0 533.333
0 0 -45277.5 0 0 45277.5 0 0 -25108.1 0 0 25108.1 0 0 -602.169 0 0 602.169
0 0 -44322.5 0 0 44322.5 0 0 -24775.7 0 0 24775.7 0 0 -738.201 0 0 738.201
0 0 -43133.4 0 0 43133.4 0 0 -24266.5 0 0 24266.5 0 0 -937.902 0 0 937.902
0 0 -41701.8 0 0 41701.8 0 0 -23593.6 0 0 23593.6 0 0 -1196.15 0 0 1196.15
0 0 -40031.6 0 0 40031.6 0 0 -22772.5 0 0 22772.5 0 0 -1506.39 0 0 1506.39
0 0 -38140.6 0 0 38140.6 0 0 -21820.5 0 0 21820.5 0 0 -1860.85 0 0 1860.85
0 0 -36058.7 0 0 36058.7 0 0 -20756.2 0 0 20756.2 0 0 -2250.72 0 0 2250.72
0 0 -33821.5 0 0 33821.5 0 0 -19599.9 0 0 19599.9 0 0 -2666.3 0 0 2666.3
0 0 -31464.2 0 0 31464.2 0 0 -18374.3 0 0 18374.3 0 0 -3097.2 0 0 3097.2
0 0 -29019 0 0 29019 0 0 -17103.5 0 0 17103.5 0 0 -3532.56 0 0 3532.56
0 0 -26515.5 0 0 26515.5 0 0 -15812.7 0 0 15812.7 0 0 -3961.35 0 0 3961.35
0 0 -23982.3 0 0 23982.3 0 0 -14526.9 0 0 14526.9 0 0 -4372.64 0 0 4372.64
0 0 -21448.2 0 0 21448.2 0 0 -13269.5 0 0 13269.5 0 0 -4755.9 0 0 4755.9
0 0 -18940.9 0 0 18940.9 0 0 -12062.2 0 0 12062.2 0 0 -5101.25 0 0 5101.25
0 0 -16484.8 0 0 16484.8 0 0 -10924.2 0 0 10924.2 0 0 -5399.69 0 0 5399.69
0 0 -14100.9 0 0 14100.9 0 0 -9872.2 0 0 9872.2 0 0 -5643.27 0 0 5643.27
0 0 -11806.3 0 0 11806.3 0 0 -8919.01 0 0 8919.01 0 0 -5825.34 0 0 5825.34
0 0 -9615.36 0 0 9615.36 0 0 -8073.65 0 0 8073.65 0 0 -5940.66 0 0 5940.66
0 0 -7539.86 0 0 7539.86 0 0 -7340.7 0 0 7340.7 0 0 -5985.53 0 0 5985.53
0 0 -5588.75 0 0 5588.75 0 0 -6720.33 0 0 6720.33 0 0 -5957.87 0 0 5957.87
0 0 -3768.17 0 0 3768.17 0 0 -6208.28 0 0 6208.28 0 0 -5857.21 0 0 5857.21
0 0 -2081.32 0 0 2081.32 0 0 -5796.1 0 0 5796.1 0 0 -5684.65 0 0 5684.65
0 0 -528.296 0 0 528.296 0 0 -5471.53 0 0 5471.53 0 0 -5442.85 0 0 5442.85
0 0 893.353 0 0 -893.353 0 0 -5218.88 0 0 5218.88 0 0 -5135.86 0 0 5135.86
0 0 2188.44 0 0 -2188.44 0 0 -5019.45 0 0 5019.45 0 0 -4769.01 0 0 4769.01
0 0 2802.02 0 0 -2802.02 0 0 -4769.58 0 0 4769.58 0 0 -4351.82 0 0 4351.82
0 0 3278.97 0 0 -3278.97 0 0 -4502.61 0 0 4502.61 0 0 -3893.12 0 0 3893.12
0 0 3641.52 0 0 -3641.52 0 0 -4276.24 0 0 4276.24 0 0 -3387.76 0 0 3387.76
0 0 3929.11 0 0 -3929.11 0 0 -4017.66 0 0 4017.66 0 0 -2854.46 0 0 2854.46
0 0 4170.07 0 0 -4170.07 0 0 -3745.86 0 0 3745.86 0 0 -2293.96 0 0 2293.96
0 0 4398.46 0 0 -4398.46 0 0 -3433.86 0 0 3433.86 0 0 -1718.34 0 0 1718.34
0 0 4644.84 0 0 -4644.84 0 0 -3076.66 0 0 3076.66 0 0 -1134.03 0 0 1134.03
0 0 4937.19 0 0 -4937.19 0 0 -2660.54 0 0 2660.54 0 0 -549.791 0 0 549.791
0 0 5307.15 0 0 -5307.15 0 0 -2175.95 0 0 2175.95 0 0 26.714 0 0 -26.714
0 0 5783.11 0 0 -5783.11 0 0 -1612.43 0 0 1612.43 0 0 597.383 0 0 -597.383
0 0 6389.01 0 0 -6389.01 0 0 -967.06 0 0 967.06 0 0 1145.13 0 0 -1145.13
0 0 7142.25 0 0 -7142.25 0 0 -224.791 0 0 224.791 0 0 1664.29 0 0 -1664.29
0 0 8054.83 0 0 -8054.83 0 0 616.857 0 0 -616.857 0 0 2148.97 0 0 -2148.97
0 0 9133.83 0 0 -9133.83 0 0 1556.44 0 0 -1556.44 0 0 2594.77 0 0 -2594.77
0 0 10378.7 0 0 -10378.7 0 0 2597.37 0 0 -2597.37 0 0 2997.68 0 0 -2997.68
0 0 11788 0 0 -11788 0 0 3735.18 0 0 -3735.18 0 0 3355.09 0 0 -3355.09
0 0 13357 0 0 -13357 0 0 4965.79 0 0 -4965.79 0 0 3665.22 0 0 -3665.22
0 0 15078.9 0 0 -15078.9 0 0 6282.45 0 0 -6282.45 0 0 3927.37 0 0 -3927.37
0 0 16944.8 0 0 -16944.8 0 0 7675.85 0 0 -7675.85 0 0 4141.99 0 0 -4141.99
0 0 18942 0 0 -18942 0 0 9134.62 0 0 -9134.62 0 0 4310.57 0 0 -4310.57
0 0 21053.6 0 0 -21053.6 0 0 10645.6 0 0 -10645.6 0 0 4435.53 0 0 -4435.53
0 0 23257.9 0 0 -23257.9 0 0 12194.2 0 0 -12194.2 0 0 4520.07 0 0 -4520.07
0 0 25528.6 0 0 -25528.6 0 0 13765.3 0 0 -13765.3 0 0 4568.1 0 0 -4568.1
0 0 27835.8 0 0 -27835.8 0 0 15342.7 0 0 -15342.7 0 0 4584.16 0 0 -4584.16
0 0 30147.5 0 0 -30147.5 0 0 16909.4 0 0 -16909.4 0 0 4573.3 0 0 -4573.3
0 0 32430.9 0 0 -32430.9 0 0 18448.2 0 0 -18448.2 0 0 4540.92 0 0 -4540.92
0 0 34652.5 0 0 -34652.5 0 0 19941.4 0 0 -19941.4 0 0 4492.64 0 0 -4492.64
0 0 36779.4 0 0 -36779.4 0 0 21371.6 0 0 -21371.6 0 0 4434.19 0 0 -4434.19
0 0 38780.4 0 0 -38780.4 0 0 22721.4 0 0 -22721.4 0 0 4371.21 0 0 -4371.21
0 0 40627.3 0 0 -40627.3 0 0 23974.2 0 0 -23974.2 0 0 4309.14 0 0 -4309.14
0 0 42295.5 0 0 -42295.5 0 0 25113.9 0 0 -25113.9 0 0 4253.08 0 0 -4253.08
0 0 43764.3 0 0 -43764.3 0 0 26125.7 0 0 -26125.7 0 0 4207.68 0 0 -4207.68
0 0 45018.5 0 0 -45018.5 0 0 26996.2 0 0 -26996.2 0 0 4176.95 0 0 -4176.95
0 0 46048.1 0 0 -46048.1 0 0 27713.6 0 0 -27713.6 0 0 4164.21 0 0 -4164.21
0 0 46849.2 0 0 -46849.2 0 0 28268.3 0 0 -28268.3 0 0 4171.98 0 0 -4171.98
0 0 47422.8 0 0 -47422.8 0 0 28653.1 0 0 -28653.1 0 0 4201.84 0 0 -4201.84
0 0 47774.3 0 0 -47774.3 0 0 28864.1 0 0 -28864.1 0 0 4254.46 0 0 -4254.46
0 0 47912.6 0 0 -47912.6 0 0 28900.2 0 0 -28900.2 0 0 4329.46 0 0 -4329.46
0 0 47850.1 0 0 -47850.1 0 0 28763.8 0 0 -28763.8 0 0 4425.51 0 0 -4425.51
0 0 47604.4 0 0 -47604.4 0 0 28460.3 0 0 -28460.3 0 0 4540.32 0 0 -4540.32
0 0 47197 0 0 -47197 0 0 27998.6 0 0 -27998.6 0 0 4670.62 0 0 -4670.62
0 0 46653.8 0 0 -46653.8 0 0 27390.8 0 0 -27390.8 0 0 4812.34 0 0 -4812.34
0 0 46002.4 0 0 -46002.4 0 0 26652 0 0 -26652 0 0 4960.67 0 0 -4960.67
0 0 45271.2 0 0 -45271.2 0 0 25800.5 0 0 -25800.5 0 0 5110.16 0 0 -5110.16
0 0 44488.2 0 0 -44488.2 0 0 24856.9 0 0 -24856.9 0 0 5254.9 0 0 -5254.9
0 0 43680.2 0 0 -43680.2 0 0 23844.3 0 0 -23844.3 0 0 5388.7 0 0 -5388.7
0 0 42872.5 0 0 -42872.5 0 0 22787.2 0 0 -22787.2 0 0 5505.25 0 0 -5505.25
0 0 42090.2 0 0 -42090.2 0 0 21710.8 0 0 -21710.8 0 0 5598.37 0 0 -5598.37
0 0 41357.7 0 0 -41357.7 0 0 20639.9 0 0 -20639.9 0 0 5662.18 0 0 -5662.18
0 0 40698.8 0 0 -40698.8 0 0 19598.8 0 0 -19598.8 0 0 5691.32 0 0 -5691.32
0 0 40135.4 0 0 -40135.4 0 0 18610.5 0 0 -18610.5 0 0 5681.11 0 0 -5681.11
0 0 39686.5 0 0 -39686.5 0 0 17695.8 0 0 -17695.8 0 0 5627.72 0 0 -5627.72
0 0 39368.2 0 0 -39368.2 0 0 16873.4 0 0 -16873.4 0 0 5528.29 0 0 -5528.29
0 0 39192.6 0 0 -39192.6 0 0 16159.2 0 0 -16159.2 0 0 5381.08 0 0 -5381.08
0 0 39169.1 0 0 -39169.1 0 0 15565.7 0 0 -15565.7 0 0 5185.54 0 0 -5185.54
0 0 39304.8 0 0 -39304.8 0 0 15101.5 0 0 -15101.5 0 0 4942.38 0 0 -4942.38
0 0 39604.5 0 0 -39604.5 0 0 14771.7 0 0 -14771.7 0 0 4653.59 0 0 -4653.59
0 0 40023.8 0 0 -40023.8 0 0 14582.4 0 0 -14582.4 0 0 4322.25 0 0 -4322.25
0 0 40501.6 0 0 -40501.6 0 0 14556.2 0 0 -14556.2 0 0 3950.69 0 0 -3950.69
0 0 41204.7 0 0 -41204.7 0 0 14632.5 0 0 -14632.5 0 0 3548.38 0 0 -3548.38
0 0 42058.5 0 0 -42058.5 0 0 14830.1 0 0 -14830.1 0 0 3120.46 0 0 -3120.46
0 0 43055 0 0 -43055 0 0 15130.5 0 0 -15130.5 0 0 2673.95 0 0 -2673.95
0 0 44159.6 0 0 -44159.6 0 0 15524.3 0 0 -15524.3 0 0 2217.41 0 0 -2217.41
0 0 45355.3 0 0 -45355.3 0 0 15994.1 0 0 -15994.1 0 0 1758.99 0 0 -1758.99
0 0 46559.4 0 0 -46559.4 0 0 16535.8 0 0 -16535.8 0 0 1307.15 0 0 -1307.15
0 0 47719.3 0 0 -47719.3 0 0 17132.4 0 0 -17132.4 0 0 870.418 0 0 -870.418
0 0 48800.3 0 0 -48800.3 0 0 17768.5 0 0 -17768.5 0 0 458.043 0 0 -458.043
0 0 49764.4 0 0 -49764.4 0 0 18427 0 0 -18427 0 0 78.2888 0 0 -78.2888
0 0 50569.4 0 0 -50569.4 0 0 19088.9 0 0 -19088.9 0 0 -256.635 0 0 256.635
0 0 51174.9 0 0 -51174.9 0 0 19738.1 0 0 -19738.1 0 0 -542.858 0 0 542.858
0 0 51543.9 0 0 -51543.9 0 0 20354.5 0 0 -20354.5 0 0 -773.965 0 0 773.965
0 0 51644.9 0 0 -51644.9 0 0 20919.3 0 0 -20919.3 0 0 -943.924 0 0 943.924
0 0 51458.6 0 0 -51458.6 0 0 21412.8 0 0 -21412.8 0 0 -1047.75 0 0 1047.75
0 0 50978 0 0 -50978 0 0 21815.9 0 0 -21815.9 0 0 -1081.53 0 0 1081.53
0 0 50206 0 0 -50206 0 0 22110.4 0 0 -22110.4 0 0 -1042.72 0 0 1042.72
0 0 49151.1 0 0 -49151.1 0 0 22280.6 0 0 -22280.6 0 0 -930.157 0 0 930.157
0 0 47827.3 0 0 -47827.3 0 0 22313.8 0 0 -22313.8 0 0 -744.303 0 0 744.303
0 0 46252.8 0 0 -46252.8 0 0 22201 0 0 -22201 0 0 -487.2 0 0 487.2
0 0 44450.7 0 0 -44450.7 0 0 21937.1 0 0 -21937.1 0 0 -160.422 0 0 160.422
0 0 42449.4 0 0 -42449.4 0 0 21522.6 0 0 -21522.6 0 0 232.653 0 0 -232.653
0 0 40283.7 0 0 -40283.7 0 0 20958.4 0 0 -20958.4 0 0 681.712 0 0 -681.712
0 0 37992.5 0 0 -37992.5 0 0 20252.1 0 0 -20252.1 0 0 1178.5 0 0 -1178.5
0 0 35617.3 0 0 -35617.3 0 0 19415.1 0 0 -19415.1 0 0 1713.38 0 0 -1713.38
0 0 33196.7 0 0 -33196.7 0 0 18463.8 0 0 -18463.8 0 0 2275.66 0 0 -2275.66
0 0 30764.6 0 0 -30764.6 0 0 17419 0 0 -17419 0 0 2853.43 0 0 -2853.43
0 0 28351.7 0 0 -28351.7 0 0 16305.3 0 0 -16305.3 0 0 3434.1 0 0 -3434.1
0 0 25985.9 0 0 -25985.9 0 0 15149.9 0 0 -15149.9 0 0 4004.8 0 0 -4004.8
0 0 23691.3 0 0 -23691.3 0 0 13981.5 0 0 -13981.5 0 0 4552.67 0 0 -4552.67
0 0 21488.1 0 0 -21488.1 0 0 12829.7 0 0 -12829.7 0 0 5065.16 0 0 -5065.16
0 0 19393.3 0 0 -19393.3 0 0 11723.1 0 0 -11723.1 0 0 5530.35 0 0 -5530.35
0 0 17421.8 0 0 -17421.8 0 0 10688.7 0 0 -10688.7 0 0 5937.27 0 0 -5937.27
0 0 15587.7 0 0 -15587.7 0 0 9750.12 0 0 -9750.12 0 0 6276.2 0 0 -6276.2
0 0 13903.6 0 0 -13903.6 0 0 8926.93 0 0 -8926.93 0 0 6538.95 0 0 -6538.95
0 0 12378.5 0 0 -12378.5 0 0 8234.37 0 0 -8234.37 0 0 6719.04 0 0 -6719.04
0 0 11016.3 0 0 -11016.3 0 0 7682.91 0 0 -7682.91 0 0 6811.85 0 0 -6811.85
0 0 9815.58 0 0 -9815.58 0 0 7277.81 0 0 -7277.81 0 0 6814.76 0 0 -6814.76
0 0 8770.67 0 0 -8770.67 0 0 7018.81 0 0 -7018.81 0 0 6727.15 0 0 -6727.15
0 0 7871.87 0 0 -7871.87 0 0 6899.97 0 0 -6899.97 0 0 6550.49 0 0 -6550.49
0 0 7105.83 0 0 -7105.83 0 0 6909.84 0 0 -6909.84 0 0 6288.2 0 0 -6288.2
0 0 6455.71 0 0 -6455.71 0 0 7031.8 0 0 -7031.8 0 0 5945.61 0 0 -5945.61
0 0 5901.09 0 0 -5901.09 0 0 7244.63 0 0 -7244.63 0 0 5529.77 0 0 -5529.77
0 0 5417.64 0 0 -5417.64 0 0 7523.3 0 0 -7523.3 0 0 5049.21 0 0 -5049.21
0 0 4976.98 0 0 -4976.98 0 0 7839.83 0 0 -7839.83 0 0 4513.74 0 0 -4513.74
0 0 4546.87 0 0 -4546.87 0 0 8164.2 0 0 -8164.2 0 0 3934.15 0 0 -3934.15
0 0 4120.48 0 0 -4120.48 0 0 8462.85 0 0 -8462.85 0 0 3321.93 0 0 -3321.93
0 0 4416.88 0 0 -4416.88 0 0 8566.74 0 0 -8566.74 0 0 2696.28 0 0 -2696.28
0 0 4440.07 0 0 -4440.07 0 0 8647.79 0 0 -8647.79 0 0 2058.1 0 0 -2058.1
0 0 4412.76 0 0 -4412.76 0 0 8613.02 0 0 -8613.02 0 0 1418.88 0 0 -1418.88
0 0 4222.75 0 0 -4222.75 0 0 8456.38 0 0 -8456.38 0 0 793.487 0 0 -793.487
0 0 3859.15 0 0 -3859.15 0 0 8161.81 0 0 -8161.81 0 0 187.222 0 0 -187.222
0 0 3309.51 0 0 -3309.51 0 0 7711.24 0 0 -7711.24 0 0 -380.817 0 0 380.817
0 0 2560.99 0 0 -2560.99 0 0 7091.72 0 0 -7091.72 0 0 -912.287 0 0 912.287
0 0 1612.36 0 0 -1612.36 0 0 6294.37 0 0 -6294.37 0 0 -1400.29 0 0 1400.29
0 0 474.347 0 0 -474.347 0 0 5316.25 0 0 -5316.25 0 0 -1840.16 0 0 1840.16
0 0 -864.031 0 0 864.031 0 0 4150.92 0 0 -4150.92 0 0 -2228.23 0 0 2228.23
0 0 -2395.25 0 0 2395.25 0 0 2809.34 0 0 -2809.34 0 0 -2562.63 0 0 2562.63
0 0 -4107.44 0 0 4107.44 0 0 1293.98 0 0 -1293.98 0 0 -2842.3 0 0 2842.3
0 0 -5980.99 0 0 5980.99 0 0 -356.962 0 0 356.962 0 0 -3067.9 0 0 3067.9
0 0 -8001.68 0 0 8001.68 0 0 -2145.34 0 0 2145.34 0 0 -3243.25 0 0 3243.25
0 0 -10140.1 0 0 10140.1 0 0 -4049.55 0 0 4049.55 0 0 -3371.49 0 0 3371.49
0 0 -12368.7 0 0 12368.7 0 0 -6043.86 0 0 6043.86 0 0 -3458.39 0 0 3458.39
0 0 -14652.2 0 0 14652.2 0 0 -8100.86 0 0 8100.86 0 0 -3509.65 0 0 3509.65
0 0 -16950 0 0 16950 0 0 -10190.6 0 0 10190.6 0 0 -3532.27 0 0 3532.27
0 0 -19195.8 0 0 19195.8 0 0 -12287.3 0 0 12287.3 0 0 -3533.23 0 0 3533.23
0 0 -21372.9 0 0 21372.9 0 0 -14352.8 0 0 14352.8 0 0 -3520.64 0 0 3520.64
0 0 -23460.6 0 0 23460.6 0 0 -16351.1 0 0 16351.1 0 0 -3502.58 0 0 3502.58
0 0 -25446.9 0 0 25446.9 0 0 -18245.8 0 0 18245.8 0 0 -3486.86 0 0 3486.86
0 0 -27326.5 0 0 27326.5 0 0 -20001.6 0 0 20001.6 0 0 -3481 0 0 3481
0 0 -29097.2 0 0 29097.2 0 0 -21586.6 0 0 21586.6 0 0 -3491.63 0 0 3491.63
0 0 -30757.5 0 0 30757.5 0 0 -22973.4 0 0 22973.4 0 0 -3524.39 0 0 3524.39
0 0 -32305.7 0 0 32305.7 0 0 -24140.3 0 0 24140.3 0 0 -3583.64 0 0 3583.64
0 0 -33613.2 0 0 33613.2 0 0 -25087.6 0 0 25087.6 0 0 -3671.76 0 0 3671.76
0 0 -34605.3 0 0 34605.3 0 0 -25834.1 0 0 25834.1 0 0 -3788.64 0 0 3788.64
0 0 -35440.8 0 0 35440.8 0 0 -26324.1 0 0 26324.1 0 0 -3937.08 0 0 3937.08
0 0 -36068 0 0 36068 0 0 -26587.3 0 0 26587.3 0 0 -4115.07 0 0 4115.07
0 0 -36499 0 0 36499 0 0 -26619.8 0 0 26619.8 0 0 -4319.82 0 0 4319.82
0 0 -36738 0 0 36738 0 0 -26437.1 0 0 26437.1 0 0 -4547.94 0 0 4547.94
0 0 -36797.2 0 0 36797.2 0 0 -26057.1 0 0 26057.1 0 0 -4793.7 0 0 4793.7
0 0 -36696 0 0 36696 0 0 -25499.2 0 0 25499.2 0 0 -5051.33 0 0 5051.33
0 0 -36458.2 0 0 36458.2 0 0 -24788 0 0 24788 0 0 -5313.66 0 0 5313.66
0 0 -36111.6 0 0 36111.6 0 0 -23950.3 0 0 23950.3 0 0 -5573.13 0 0 5573.13
0 0 -35686.3 0 0 35686.3 0 0 -23014.9 0 0 23014.9 0 0 -5821.68 0 0 5821.68
0 0 -35213.6 0 0 35213.6 0 0 -22011.9 0 0 22011.9 0 0 -6051.15 0 0 6051.15
0 0 -34725.2 0 0 34725.2 0 0 -20972.4 0 0 20972.4 0 0 -6253.42 0 0 6253.42
0 0 -34252.2 0 0 34252.2 0 0 -19926.9 0 0 19926.9 0 0 -6420.71 0 0 6420.71
0 0 -33824.2 0 0 33824.2 0 0 -18905.1 0 0 18905.1 0 0 -6545.86 0 0 6545.86
0 0 -33468 0 0 33468 0 0 -17934.7 0 0 17934.7 0 0 -6622.49 0 0 6622.49
0 0 -33208.1 0 0 33208.1 0 0 -17041.2 0 0 17041.2 0 0 -6645.23 0 0 6645.23
0 0 -33065.5 0 0 33065.5 0 0 -16246.9 0 0 16246.9 0 0 -6609.96 0 0 6609.96
0 0 -33057.1 0 0 33057.1 0 0 -15570.3 0 0 15570.3 0 0 -6513.88 0 0 6513.88
0 0 -33193.7 0 0 33193.7 0 0 -15026.4 0 0 15026.4 0 0 -6355.64 0 0 6355.64
0 0 -33479.9 0 0 33479.9 0 0 -14625.9 0 0 14625.9 0 0 -6135.43 0 0 6135.43
0 0 -33914.6 0 0 33914.6 0 0 -14375 0 0 14375 0 0 -5855.01 0 0 5855.01
0 0 -34492.3 0 0 34492.3 0 0 -14275.3 0 0 14275.3 0 0 -5517.7 0 0 5517.7
0 0 -35204.4 0 0 35204.4 0 0 -14323.2 0 0 14323.2 0 0 -5128.36 0 0 5128.36
0 0 -36023.3 0 0 36023.3 0 0 -14510.9 0 0 14510.9 0 0 -4693.37 0 0 4693.37
0 0 -36877.4 0 0 36877.4 0 0 -14838.1 0 0 14838.1 0 0 -4219.5 0 0 4219.5
0 0 -37771.4 0 0 37771.4 0 0 -15283.1 0 0 15283.1 0 0 -3715.81 0 0 3715.81
0 0 -38689.3 0 0 38689.3 0 0 -15823.5 0 0 15823.5 0 0 -3192.35 0 0 3192.35
0 0 -39616.7 0 0 39616.7 0 0 -16435.3 0 0 16435.3 0 0 -2659.36 0 0 2659.36
0 0 -40538.3 0 0 40538.3 0 0 -17091 0 0 17091 0 0 -2127.91 0 0 2127.91
0 0 -41438.5 0 0 41438.5 0 0 -17762.6 0 0 17762.6 0 0 -1609.05 0 0 1609.05
0 0 -42302 0 0 42302 0 0 -18421.6 0 0 18421.6 0 0 -1113.69 0 0 1113.69
0 0 -43113.5 0 0 43113.5 0 0 -19041.3 0 0 19041.3 0 0 -652.225 0 0 652.225
0 0 -43855.7 0 0 43855.7 0 0 -19596.8 0 0 19596.8 0 0 -234.308 0 0 234.308
0 0 -44507.3 0 0 44507.3 0 0 -20067.1 0 0 20067.1 0 0 131.47 0 0 -131.47
0 0 -45043.5 0 0 45043.5 0 0 -20434.8 0 0 20434.8 0 0 441.591 0 0 -441.591
0 0 -45438.7 0 0 45438.7 0 0 -20688.3 0 0 20688.3 0 0 685.085 0 0 -685.085
0 0 -45671.3 0 0 45671.3 0 0 -20818.9 0 0 20818.9 0 0 858.669 0 0 -858.669
0 0 -45724.7 0 0 45724.7 0 0 -20822.5 0 0 20822.5 0 0 958.665 0 0 -958.665
0 0 -45588.2 0 0 45588.2 0 0 -20697.7 0 0 20697.7 0 0 983.568 0 0 -983.568
0 0 -45256.3 0 0 45256.3 0 0 -20447.5 0 0 20447.5 0 0 933.82 0 0 -933.82
0 0 -44729.8 0 0 44729.8 0 0 -20078.5 0 0 20078.5 0 0 811.621 0 0 -811.621
0 0 -44016.7 0 0 44016.7 0 0 -19600.3 0 0 19600.3 0 0 620.67 0 0 -620.67
0 0 -43133.8 0 0 43133.8 0 0 -19025.5 0 0 19025.5 0 0 366.027 0 0 -366.027
0 0 -42106.7 0 0 42106.7 0 0 -18367.5 0 0 18367.5 0 0 57.8793 0 0 -57.8793
0 0 -40965.7 0 0 40965.7 0 0 -17643.5 0 0 17643.5 0 0 -298.698 0 0 298.698
0 0 -39741.8 0 0 39741.8 0 0 -16872.7 0 0 16872.7 0 0 -696.598 0 0 696.598
0 0 -38464.8 0 0 38464.8 0 0 -16077 0 0 16077 0 0 -1126.01 0 0 1126.01
0 0 -37160.3 0 0 37160.3 0 0 -15279.6 0 0 15279.6 0 0 -1577.26 0 0 1577.26
0 0 -35851.9 0 0 35851.9 0 0 -14504.7 0 0 14504.7 0 0 -2040.27 0 0 2040.27
0 0 -34563.6 0 0 34563.6 0 0 -13776.1 0 0 13776.1 0 0 -2504.96 0 0 2504.96
0 0 -33321 0 0 33321 0 0 -13115.8 0 0 13115.8 0 0 -2961.53 0 0 2961.53
0 0 -32150.4 0 0 32150.4 0 0 -12544 0 0 12544 0 0 -3400.58 0 0 3400.58
0 0 -31077.8 0 0 31077.8 0 0 -12077.9 0 0 12077.9 0 0 -3813.43 0 0 3813.43
0 0 -30127.4 0 0 30127.4 0 0 -11732.1 0 0 11732.1 0 0 -4192.22 0 0 4192.22
0 0 -29321.7 0 0 29321.7 0 0 -11517.6 0 0 11517.6 0 0 -4530.21 0 0 4530.21
0 0 -28679.2 0 0 28679.2 0 0 -11441.8 0 0 11441.8 0 0 -4821.79 0 0 4821.79
0 0 -28212.2 0 0 28212.2 0 0 -11509.1 0 0 11509.1 0 0 -5062.66 0 0 5062.66
0 0 -27924.7 0 0 27924.7 0 0 -11720.6 0 0 11720.6 0 0 -5249.84 0 0 5249.84
0 0 -27811.1 0 0 27811.1 0 0 -12074.4 0 0 12074.4 0 0 -5381.69 0 0 5381.69
0 0 -27855.9 0 0 27855.9 0 0 -12565.5 0 0 12565.5 0 0 -5457.98 0 0 5457.98
0 0 -28036.3 0 0 28036.3 0 0 -13185.5 0 0 13185.5 0 0 -5479.86 0 0 5479.86
0 0 -28323.7 0 0 28323.7 0 0 -13922.4 0 0 13922.4 0 0 -5449.82 0 0 5449.82
0 0 -28683.6 0 0 28683.6 0 0 -14760.7 0 0 14760.7 0 0 -5371.63 0 0 5371.63
0 0 -29076.9 0 0 29076.9 0 0 -15681.7 0 0 15681.7 0 0 -5250.23 0 0 5250.23
0 0 -29463.4 0 0 29463.4 0 0 -16662.9 0 0 16662.9 0 0 -5091.6 0 0 5091.6
0 0 -29803.6 0 0 29803.6 0 0 -17678.8 0 0 17678.8 0 0 -4902.61 0 0 4902.61
0 0 -30060.5 0 0 30060.5 0 0 -18700.8 0 0 18700.8 0 0 -4690.82 0 0 4690.82
0 0 -30200.2 0 0 30200.2 0 0 -19698.1 0 0 19698.1 0 0 -4464.22 0 0 4464.22
0 0 -30193.9 0 0 30193.9 0 0 -20638.2 0 0 20638.2 0 0 -4231.05 0 0 4231.05
0 0 -30018.6 0 0 30018.6 0 0 -21488.1 0 0 21488.1 0 0 -3999.48 0 0 3999.48
0 0 -29657 0 0 29657 0 0 -22214.7 0 0 22214.7 0 0 -3777.35 0 0 3777.35
0 0 -29096.3 0 0 29096.3 0 0 -22787 0 0 22787 0 0 -3571.9 0 0 3571.9
0 0 -28327.1 0 0 28327.1 0 0 -23176.4 0 0 23176.4 0 0 -3389.51 0 0 3389.51
0 0 -27341.9 0 0 27341.9 0 0 -23358.8 0 0 23358.8 0 0 -3235.43 0 0 3235.43
0 0 -26135.4 0 0 26135.4 0 0 -23314.6 0 0 23314.6 0 0 -3113.62 0 0 3113.62
0 0 -24705.1 0 0 24705.1 0 0 -23029.8 0 0 23029.8 0 0 -3026.61 0 0 3026.61
0 0 -23052.8 0 0 23052.8 0 0 -22495.9 0 0 22495.9 0 0 -2975.4 0 0 2975.4
0 0 -21185 0 0 21185 0 0 -21710.3 0 0 21710.3 0 0 -2959.43 0 0 2959.43
0 0 -19113.8 0 0 19113.8 0 0 -20676 0 0 20676 0 0 -2976.57 0 0 2976.57
0 0 -16855.6 0 0 16855.6 0 0 -19402.1 0 0 19402.1 0 0 -3023.18 0 0 3023.18
0 0 -14445.5 0 0 14445.5 0 0 -17902 0 0 17902 0 0 -3094.21 0 0 3094.21
0 0 -12104.7 0 0 12104.7 0 0 -16152.9 0 0 16152.9 0 0 -3185.89 0 0 3185.89
0 0 -9554.63 0 0 9554.63 0 0 -14251.5 0 0 14251.5 0 0 -3287.17 0 0 3287.17
0 0 -6926.18 0 0 6926.18 0 0 -12204.1 0 0 12204.1 0 0 -3387.71 0 0 3387.71
0 0 -4209.78 0 0 4209.78 0 0 -10043 0 0 10043 0 0 -3483.09 0 0 3483.09
0 0 -1462.65 0 0 1462.65 0 0 -7806.55 0 0 7806.55 0 0 -3560.35 0 0 3560.35
0 0 1269.07 0 0 -1269.07 0 0 -5525.12 0 0 5525.12 0 0 -3612.43 0 0 3612.43
0 0 3978.2 0 0 -3978.2 0 0 -3232.45 0 0 3232.45 0 0 -3629.25 0 0 3629.25
0 0 6571.84 0 0 -6571.84 0 0 -967.26 0 0 967.26 0 0 -3602.58 0 0 3602.58
0 0 9028.21 0 0 -9028.21 0 0 1245.05 0 0 -1245.05 0 0 -3524.6 0 0 3524.6
0 0 11313.3 0 0 -11313.3 0 0 3392.92 0 0 -3392.92 0 0 -3385.99 0 0 3385.99
0 0 13395.8 0 0 -13395.8 0 0 5412.49 0 0 -5412.49 0 0 -3184.71 0 0 3184.71
0 0 15252.3 0 0 -15252.3 0 0 7285.31 0 0 -7285.31 0 0 -2916.13 0 0 2916.13
0 0 16865.7 0 0 -16865.7 0 0 8985.43 0 0 -8985.43 0 0 -2578.17 0 0 2578.17
0 0 18224 0 0 -18224 0 0 10495.9 0 0 -10495.9 0 0 -2170.09 0 0 2170.09
0 0 19324.9 0 0 -19324.9 0 0 11804.5 0 0 -11804.5 0 0 -1693.4 0 0 1693.4
0 0 20173.1 0 0 -20173.1 0 0 12902.7 0 0 -12902.7 0 0 -1151.17 0 0 1151.17
0 0 20780.1 0 0 -20780.1 0 0 13787.9 0 0 -13787.9 0 0 -548.32 0 0 548.32
0 0 21163.2 0 0 -21163.2 0 0 14463.7 0 0 -14463.7 0 0 115.92 0 0 -115.92
0 0 21346.6 0 0 -21346.6 0 0 14939.1 0 0 -14939.1 0 0 828.837 0 0 -828.837
0 0 21362 0 0 -21362 0 0 15225.3 0 0 -15225.3 0 0 1577.01 0 0 -1577.01
0 0 21245.4 0 0 -21245.4 0 0 15339.1 0 0 -15339.1 0 0 2350.77 0 0 -2350.77
0 0 21038.2 0 0 -21038.2 0 0 15302 0 0 -15302 0 0 3137.42 0 0 -3137.42
0 0 20784.8 0 0 -20784.8 0 0 15139.1 0 0 -15139.1 0 0 3923.5 0 0 -3923.5
0 0 20530.9 0 0 -20530.9 0 0 14878.6 0 0 -14878.6 0 0 4695.17 0 0 -4695.17
0 0 20321 0 0 -20321 0 0 14551.3 0 0 -14551.3 0 0 5438.66 0 0 -5438.66
0 0 20196.4 0 0 -20196.4 0 0 14189.6 0 0 -14189.6 0 0 6140.42 0 0 -6140.42
0 0 20193.7 0 0 -20193.7 0 0 13826.8 0 0 -13826.8 0 0 6787.33 0 0 -6787.33
0 0 20344.1 0 0 -20344.1 0 0 13495.5 0 0 -13495.5 0 0 7367.08 0 0 -7367.08
0 0 20677 0 0 -20677 0 0 13224.9 0 0 -13224.9 0 0 7716.53 0 0 -7716.53
0 0 21253.1 0 0 -21253.1 0 0 12889.2 0 0 -12889.2 0 0 7732.21 0 0 -7732.21
0 0 22045.4 0 0 -22045.4 0 0 12704.8 0 0 -12704.8 0 0 7743.96 0 0 -7743.96
0 0 23011.6 0 0 -23011.6 0 0 12763.5 0 0 -12763.5 0 0 7751.07 0 0 -7751.07
0 0 24232.9 0 0 -24232.9 0 0 12933.6 0 0 -12933.6 0 0 7756.06 0 0 -7756.06
0 0 25648.1 0 0 -25648.1 0 0 13346.7 0 0 -13346.7 0 0 7755.3 0 0 -7755.3
0 0 27281.7 0 0 -27281.7 0 0 13931.4 0 0 -13931.4 0 0 7673.69 0 0 -7673.69
0 0 29123.6 0 0 -29123.6 0 0 14676.2 0 0 -14676.2 0 0 7501.86 0 0 -7501.86
0 0 31155.6 0 0 -31155.6 0 0 15593.9 0 0 -15593.9 0 0 7236.39 0 0 -7236.39
0 0 33373.2 0 0 -33373.2 0 0 16654.6 0 0 -16654.6 0 0 6887.64 0 0 -6887.64
0 0 35755.1 0 0 -35755.1 0 0 17845.5 0 0 -17845.5 0 0 6462.35 0 0 -6462.35
0 0 38278 0 0 -38278 0 0 19139.3 0 0 -19139.3 0 0 5972.04 0 0 -5972.04
0 0 40910.9 0 0 -40910.9 0 0 20510.3 0 0 -20510.3 0 0 5429.2 0 0 -5429.2
0 0 43619.4 0 0 -43619.4 0 0 21929.9 0 0 -21929.9 0 0 4847.42 0 0 -4847.42
0 0 46366.2 0 0 -46366.2 0 0 23366.9 0 0 -23366.9 0 0 4240.61 0 0 -4240.61
0 0 49110.4 0 0 -49110.4 0 0 24789.4 0 0 -24789.4 0 0 3622.73 0 0 -3622.73
0 0 51808.5 0 0 -51808.5 0 0 26166.2 0 0 -26166.2 0 0 3008.04 0 0 -3008.04
0 0 54415.3 0 0 -54415.3 0 0 27468.1 0 0 -27468.1 0 0 2410.75 0 0 -2410.75
0 0 56885.9 0 0 -56885.9 0 0 28668.3 0 0 -28668.3 0 0 1844.57 0 0 -1844.57
0 0 59177.5 0 0 -59177.5 0 0 29742.5 0 0 -29742.5 0 0 1322.1 0 0 -1322.1
0 0 60684.6 0 0 -60684.6 0 0 30659.4 0 0 -30659.4 0 0 855.702 0 0 -855.702
0 0 61674.3 0 0 -61674.3 0 0 31068.3 0 0 -31068.3 0 0 475.508 0 0 -475.508
0 0 62394.5 0 0 -62394.5 0 0 31427.2 0 0 -31427.2 0 0 169.513 0 0 -169.513
0 0 62901.8 0 0 -62901.8 0 0 31794.5 0 0 -31794.5 0 0 -74.2829 0 0 74.2829
0 0 63285.7 0 0 -63285.7 0 0 31883.7 0 0 -31883.7 0 0 -216.152 0 0 216.152
0 0 63355.9 0 0 -63355.9 0 0 32046 0 0 -32046 0 0 -303.683 0 0 303.683
0 0 63289.5 0 0 -63289.5 0 0 31937.8 0 0 -31937.8 0 0 -309.065 0 0 309.065
0 0 62875.1 0 0 -62875.1 0 0 31661.2 0 0 -31661.2 0 0 -233.32 0 0 233.32
0 0 62149.7 0 0 -62149.7 0 0 31213.5 0 0 -31213.5 0 0 -77.59 0 0 77.59
0 0 61132.8 0 0 -61132.8 0 0 30596.1 0 0 -30596.1 0 0 156.023 0 0 -156.023
0 0 59846.9 0 0 -59846.9 0 0 29836.4 0 0 -29836.4 0 0 458.586 0 0 -458.586
0 0 58333.2 0 0 -58333.2 0 0 28946.5 0 0 -28946.5 0 0 824.261 0 0 -824.261
0 0 56627.5 0 0 -56627.5 0 0 27954.8 0 0 -27954.8 0 0 1242.5 0 0 -1242.5
0 0 54774.1 0 0 -54774.1 0 0 26885.5 0 0 -26885.5 0 0 1703.12 0 0 -1703.12
0 0 52820.4 0 0 -52820.4 0 0 25765.6 0 0 -25765.6 0 0 2194.94 0 0 -2194.94
0 0 50815.6 0 0 -50815.6 0 0 24624.3 0 0 -24624.3 0 0 2706.1 0 0 -2706.1
0 0 48810 0 0 -48810 0 0 23491.3 0 0 -23491.3 0 0 3224.35 0 0 -3224.35
0 0 46853.6 0 0 -46853.6 0 0 22395.5 0 0 -22395.5 0 0 3737.39 0 0 -3737.39
0 0 44994.8 0 0 -44994.8 0 0 21364.9 0 0 -21364.9 0 0 4233.29 0 0 -4233.29
0 0 43279.2 0 0 -43279.2 0 0 20425.9 0 0 -20425.9 0 0 4700.65 0 0 -4700.65
0 0 41748.7 0 0 -41748.7 0 0 19602.9 0 0 -19602.9 0 0 5128.95 0 0 -5128.95
0 0 40440.7 0 0 -40440.7 0 0 18917.2 0 0 -18917.2 0 0 5508.8 0 0 -5508.8
0 0 39386.8 0 0 -39386.8 0 0 18386.7 0 0 -18386.7 0 0 5832.04 0 0 -5832.04
0 0 38612.3 0 0 -38612.3 0 0 18025.7 0 0 -18025.7 0 0 6092.03 0 0 -6092.03
0 0 38135.6 0 0 -38135.6 0 0 17844.2 0 0 -17844.2 0 0 6283.75 0 0 -6283.75
0 0 37965.2 0 0 -37965.2 0 0 17848.3 0 0 -17848.3 0 0 6403.93 0 0 -6403.93
0 0 37994.2 0 0 -37994.2 0 0 18055.5 0 0 -18055.5 0 0 6450.46 0 0 -6450.46
0 0 38197.3 0 0 -38197.3 0 0 18468.4 0 0 -18468.4 0 0 6422.92 0 0 -6422.92
0 0 38574.3 0 0 -38574.3 0 0 19069 0 0 -19069 0 0 6324.57 0 0 -6324.57
0 0 39113.3 0 0 -39113.3 0 0 19843.3 0 0 -19843.3 0 0 6159.35 0 0 -6159.35
0 0 39798 0 0 -39798 0 0 20767.5 0 0 -20767.5 0 0 5933.72 0 0 -5933.72
0 0 40607.3 0 0 -40607.3 0 0 21815.1 0 0 -21815.1 0 0 5655.36 0 0 -5655.36
0 0 41516.5 0 0 -41516.5 0 0 22955.3 0 0 -22955.3 0 0 5333.32 0 0 -5333.32
0 0 42497.4 0 0 -42497.4 0 0 24154.7 0 0 -24154.7 0 0 4977.64 0 0 -4977.64
0 0 43518.8 0 0 -43518.8 0 0 25378.4 0 0 -25378.4 0 0 4599.06 0 0 -4599.06
0 0 44546.3 0 0 -44546.3 0 0 26590.8 0 0 -26590.8 0 0 4208.69 0 0 -4208.69
0 0 45544.1 0 0 -45544.1 0 0 27756.7 0 0 -27756.7 0 0 3817.71 0 0 -3817.71
0 0 46476.5 0 0 -46476.5 0 0 28842.4 0 0 -28842.4 0 0 3437.08 0 0 -3437.08
0 0 47309 0 0 -47309 0 0 29815.9 0 0 -29815.9 0 0 3077.16 0 0 -3077.16
0 0 48010 0 0 -48010 0 0 30648.4 0 0 -30648.4 0 0 2747.51 0 0 -2747.51
0 0 48551.9 0 0 -48551.9 0 0 31314.7 0 0 -31314.7 0 0 2456.59 0 0 -2456.59
0 0 48912.3 0 0 -48912.3 0 0 31793.4 0 0 -31793.4 0 0 2211.55 0 0 -2211.55
0 0 49075.1 0 0 -49075.1 0 0 32068.1 0 0 -32068.1 0 0 2018.04 0 0 -2018.04
0 0 49030.9 0 0 -49030.9 0 0 32127.5 0 0 -32127.5 0 0 1880.06 0 0 -1880.06
0 0 48776.4 0 0 -48776.4 0 0 31965.6 0 0 -31965.6 0 0 1799.86 0 0 -1799.86
0 0 48313.1 0 0 -48313.1 0 0 31582.7 0 0 -31582.7 0 0 1777.87 0 0 -1777.87
0 0 47645.8 0 0 -47645.8 0 0 30985 0 0 -30985 0 0 1812.69 0 0 -1812.69
0 0 46781.1 0 0 -46781.1 0 0 30185 0 0 -30185 0 0 1901.14 0 0 -1901.14
0 0 45726.6 0 0 -45726.6 0 0 29201.1 0 0 -29201.1 0 0 2038.4 0 0 -2038.4
0 0 44491.2 0 0 -44491.2 0 0 28056.6 0 0 -28056.6 0 0 2218.14 0 0 -2218.14
0 0 43087.7 0 0 -43087.7 0 0 26778.8 0 0 -26778.8 0 0 2432.79 0 0 -2432.79
0 0 41533.5 0 0 -41533.5 0 0 25397.6 0 0 -25397.6 0 0 2673.79 0 0 -2673.79
0 0 39850 0 0 -39850 0 0 23944.6 0 0 -23944.6 0 0 2931.86 0 0 -2931.86
0 0 38061.6 0 0 -38061.6 0 0 22452.4 0 0 -22452.4 0 0 3197.26 0 0 -3197.26
0 0 36194.7 0 0 -36194.7 0 0 20953.4 0 0 -20953.4 0 0 3460.14 0 0 -3460.14
0 0 34275.8 0 0 -34275.8 0 0 19479.1 0 0 -19479.1 0 0 3710.76 0 0 -3710.76
0 0 32329.7 0 0 -32329.7 0 0 18059.4 0 0 -18059.4 0 0 3939.78 0 0 -3939.78
0 0 30379.2 0 0 -30379.2 0 0 16721.6 0 0 -16721.6 0 0 4138.58 0 0 -4138.58
0 0 28444.9 0 0 -28444.9 0 0 15489.5 0 0 -15489.5 0 0 4299.43 0 0 -4299.43
0 0 26547.3 0 0 -26547.3 0 0 14382.4 0 0 -14382.4 0 0 4415.8 0 0 -4415.8
0 0 24709 0 0 -24709 0 0 13414.1 0 0 -13414.1 0 0 4482.49 0 0 -4482.49
0 0 22955.9 0 0 -22955.9 0 0 12592.4 0 0 -12592.4 0 0 4495.8 0 0 -4495.8
0 0 21315.3 0 0 -21315.3 0 0 11919.3 0 0 -11919.3 0 0 4453.59 0 0 -4453.59
0 0 19812.8 0 0 -19812.8 0 0 11391.7 0 0 -11391.7 0 0 4355.2 0 0 -4355.2
0 0 18468.1 0 0 -18468.1 0 0 11002.4 0 0 -11002.4 0 0 4201.48 0 0 -4201.48
0 0 17292.7 0 0 -17292.7 0 0 10741 0 0 -10741 0 0 3994.62 0 0 -3994.62
0 0 16288.6 0 0 -16288.6 0 0 10594.3 0 0 -10594.3 0 0 3738.1 0 0 -3738.1
0 0 15448.5 0 0 -15448.5 0 0 10547.1 0 0 -10547.1 0 0 3436.53 0 0 -3436.53
0 0 14757.9 0 0 -14757.9 0 0 10582.4 0 0 -10582.4 0 0 3095.53 0 0 -3095.53
0 0 14196.4 0 0 -14196.4 0 0 10681.8 0 0 -10681.8 0 0 2721.57 0 0 -2721.57
0 0 13738.7 0 0 -13738.7 0 0 10825.6 0 0 -10825.6 0 0 2321.8 0 0 -2321.8
0 0 13356.2 0 0 -13356.2 0 0 10993.7 0 0 -10993.7 0 0 1903.88 0 0 -1903.88
0 0 13017.8 0 0 -13017.8 0 0 11165.7 0 0 -11165.7 0 0 1475.73 0 0 -1475.73
0 0 12692.9 0 0 -12692.9 0 0 11321.4 0 0 -11321.4 0 0 1045.43 0 0 -1045.43
0 0 12351.4 0 0 -12351.4 0 0 11440.8 0 0 -11440.8 0 0 620.945 0 0 -620.945
0 0 11963.2 0 0 -11963.2 0 0 11505.4 0 0 -11505.4 0 0 209.958 0 0 -209.958
0 0 11496.3 0 0 -11496.3 0 0 11500.5 0 0 -11500.5 0 0 -147.642 0 0 147.642
0 0 10913.9 0 0 -10913.9 0 0 11433.8 0 0 -11433.8 0 0 -461.391 0 0 461.391
0 0 10195.7 0 0 -10195.7 0 0 11254 0 0 -11254 0 0 -741.793 0 0 741.793
0 0 9312.94 0 0 -9312.94 0 0 10969.9 0 0 -10969.9 0 0 -993.876 0 0 993.876
0 0 8748.93 0 0 -8748.93 0 0 10488.2 0 0 -10488.2 0 0 -1207.54 0 0 1207.54
0 0 7970.61 0 0 -7970.61 0 0 9859.99 0 0 -9859.99 0 0 -1379.06 0 0 1379.06
0 0 7049.08 0 0 -7049.08 0 0 9169.66 0 0 -9169.66 0 0 -1524.29 0 0 1524.29
0 0 5929.73 0 0 -5929.73 0 0 8328.56 0 0 -8328.56 0 0 -1623.85 0 0 1623.85
0 0 4627.04 0 0 -4627.04 0 0 7399.09 0 0 -7399.09 0 0 -1692.02 0 0 1692.02
0 0 3159.05 0 0 -3159.05 0 0 6364.19 0 0 -6364.19 0 0 -1723.28 0 0 1723.28
0 0 1542.44 0 0 -1542.44 0 0 5249.44 0 0 -5249.44 0 0 -1722.91 0 0 1722.91
0 0 -153.773 0 0 153.773 0 0 4061.81 0 0 -4061.81 0 0 -1690.04 0 0 1690.04
0 0 -1908.47 0 0 1908.47 0 0 2853.24 0 0 -2853.24 0 0 -1631.09 0 0 1631.09
0 0 -3685.86 0 0 3685.86 0 0 1603.17 0 0 -1603.17 0 0 -1549.84 0 0 1549.84
0 0 -5513.33 0 0 5513.33 0 0 322.62 0 0 -322.62 0 0 -1448.51 0 0 1448.51
0 0 -7347.48 0 0 7347.48 0 0 -945.352 0 0 945.352 0 0 -1335.58 0 0 1335.58
0 0 -9172.59 0 0 9172.59 0 0 -2212.58 0 0 2212.58 0 0 -1216.22 0 0 1216.22
0 0 -10962.3 0 0 10962.3 0 0 -3453.2 0 0 3453.2 0 0 -1097.09 0 0 1097.09
0 0 -12694.4 0 0 12694.4 0 0 -4652.71 0 0 4652.71 0 0 -984.001 0 0 984.001
0 0 -14347.7 0 0 14347.7 0 0 -5793.57 0 0 5793.57 0 0 -882.727 0 0 882.727
0 0 -15903.6 0 0 15903.6 0 0 -6860.62 0 0 6860.62 0 0 -798.522 0 0 798.522
0 0 -17345 0 0 17345 0 0 -7840.25 0 0 7840.25 0 0 -736.07 0 0 736.07
0 0 -18657.2 0 0 18657.2 0 0 -8720.26 0 0 8720.26 0 0 -699.477 0 0 699.477
0 0 -19827.7 0 0 19827.7 0 0 -9490.95 0 0 9490.95 0 0 -692.007 0 0 692.007
0 0 -20848 0 0 20848 0 0 -10144.9 0 0 10144.9 0 0 -716.061 0 0 716.061
0 0 -21713.8 0 0 21713.8 0 0 -10677.1 0 0 10677.1 0 0 -773.106 0 0 773.106
0 0 -22424.6 0 0 22424.6 0 0 -11085.4 0 0 11085.4 0 0 -863.636 0 0 863.636
0 0 -22983.5 0 0 22983.5 0 0 -11370.3 0 0 11370.3 0 0 -987.147 0 0 987.147
0 0 -23396.6 0 0 23396.6 0 0 -11535.2 0 0 11535.2 0 0 -1142.16 0 0 1142.16
0 0 -23673.5 0 0 23673.5 0 0 -11586 0 0 11586 0 0 -1326.28 0 0 1326.28
0 0 -23827 0 0 23827 0 0 -11531.5 0 0 11531.5 0 0 -1536.23 0 0 1536.23
0 0 -23873.7 0 0 23873.7 0 0 -11381.7 0 0 11381.7 0 0 -1752.8 0 0 1752.8
0 0 -23831.6 0 0 23831.6 0 0 -11137.2 0 0 11137.2 0 0 -1971.17 0 0 1971.17
0 0 -23720.9 0 0 23720.9 0 0 -10827.4 0 0 10827.4 0 0 -2195.65 0 0 2195.65
0 0 -23563 0 0 23563 0 0 -10467 0 0 10467 0 0 -2427.36 0 0 2427.36
0 0 -23388.4 0 0 23388.4 0 0 -10070.7 0 0 10070.7 0 0 -2659.58 0 0 2659.58
0 0 -23220.5 0 0 23220.5 0 0 -9660.34 0 0 9660.34 0 0 -2887.27 0 0 2887.27
0 0 -23087.1 0 0 23087.1 0 0 -9252.54 0 0 9252.54 0 0 -3105.55 0 0 3105.55
0 0 -23011.9 0 0 23011.9 0 0 -8867.6 0 0 8867.6 0 0 -3309.28 0 0 3309.28
0 0 -23018.8 0 0 23018.8 0 0 -8523.18 0 0 8523.18 0 0 -3493.83 0 0 3493.83
0 0 -23128.7 0 0 23128.7 0 0 -8236.28 0 0 8236.28 0 0 -3654.91 0 0 3654.91
0 0 -23361.3 0 0 23361.3 0 0 -8022.48 0 0 8022.48 0 0 -3788.78 0 0 3788.78
0 0 -23732.7 0 0 23732.7 0 0 -7896.49 0 0 7896.49 0 0 -3892.29 0 0 3892.29
0 0 -24229 0 0 24229 0 0 -7866.81 0 0 7866.81 0 0 -3963.26 0 0 3963.26
0 0 -24878 0 0 24878 0 0 -7937.64 0 0 7937.64 0 0 -4000.72 0 0 4000.72
0 0 -25673.8 0 0 25673.8 0 0 -8130.76 0 0 8130.76 0 0 -4001.31 0 0 4001.31
0 0 -26617.1 0 0 26617.1 0 0 -8439.82 0 0 8439.82 0 0 -3962.81 0 0 3962.81
0 0 -27697.1 0 0 27697.1 0 0 -8871.74 0 0 8871.74 0 0 -3885.08 0 0 3885.08
0 0 -28900.8 0 0 28900.8 0 0 -9424.53 0 0 9424.53 0 0 -3770.73 0 0 3770.73
0 0 -30213.1 0 0 30213.1 0 0 -10094 0 0 10094 0 0 -3623.18 0 0 3623.18
0 0 -31615.7 0 0 31615.7 0 0 -10872.5 0 0 10872.5 0 0 -3446.75 0 0 3446.75
0 0 -33089.1 0 0 33089.1 0 0 -11749 0 0 11749 0 0 -3246.8 0 0 3246.8
0 0 -34612.5 0 0 34612.5 0 0 -12709.4 0 0 12709.4 0 0 -3029.39 0 0 3029.39
0 0 -36164.4 0 0 36164.4 0 0 -13737.2 0 0 13737.2 0 0 -2801.25 0 0 2801.25
0 0 -37724 0 0 37724 0 0 -14813.3 0 0 14813.3 0 0 -2569.55 0 0 2569.55
0 0 -39270.4 0 0 39270.4 0 0 -15917 0 0 15917 0 0 -2341.72 0 0 2341.72
0 0 -40773.3 0 0 40773.3 0 0 -17028.5 0 0 17028.5 0 0 -2125.18 0 0 2125.18
0 0 -42203.2 0 0 42203.2 0 0 -18130.1 0 0 18130.1 0 0 -1926.89 0 0 1926.89
0 0 -43559.5 0 0 43559.5 0 0 -19193.4 0 0 19193.4 0 0 -1754.45 0 0 1754.45
0 0 -44831.4 0 0 44831.4 0 0 -20198.9 0 0 20198.9 0 0 -1614.18 0 0 1614.18
0 0 -46006.7 0 0 46006.7 0 0 -21127 0 0 21127 0 0 -1511.84 0 0 1511.84
0 0 -47074.2 0 0 47074.2 0 0 -21959.5 0 0 21959.5 0 0 -1452.35 0 0 1452.35
0 0 -47992.7 0 0 47992.7 0 0 -22688.6 0 0 22688.6 0 0 -1439.31 0 0 1439.31
0 0 -48695.1 0 0 48695.1 0 0 -23323.8 0 0 23323.8 0 0 -1473.59 0 0 1473.59
0 0 -49249 0 0 49249 0 0 -23829.8 0 0 23829.8 0 0 -1558.7 0 0 1558.7
0 0 -49622 0 0 49622 0 0 -24217.5 0 0 24217.5 0 0 -1694.07 0 0 1694.07
0 0 -49821.3 0 0 49821.3 0 0 -24480 0 0 24480 0 0 -1878.65 0 0 1878.65
0 0 -49844.4 0 0 49844.4 0 0 -24621.4 0 0 24621.4 0 0 -2110.42 0 0 2110.42
0 0 -49695.1 0 0 49695.1 0 0 -24644.7 0 0 24644.7 0 0 -2385.8 0 0 2385.8
0 0 -49382.6 0 0 49382.6 0 0 -24556.2 0 0 24556.2 0 0 -2700.64 0 0 2700.64
0 0 -48921.8 0 0 48921.8 0 0 -24368.2 0 0 24368.2 0 0 -3049.06 0 0 3049.06
0 0 -48331.8 0 0 48331.8 0 0 -24092.8 0 0 24092.8 0 0 -3424.83 0 0 3424.83
0 0 -47634.3 0 0 47634.3 0 0 -23744.8 0 0 23744.8 0 0 -3820.77 0 0 3820.77
0 0 -46855 0 0 46855 0 0 -23335.1 0 0 23335.1 0 0 -4187.17 0 0 4187.17
0 0 -46022.8 0 0 46022.8 0 0 -22863 0 0 22863 0 0 -4548.04 0 0 4548.04
0 0 -45149.9 0 0 45149.9 0 0 -22387.4 0 0 22387.4 0 0 -4900.58 0 0 4900.58
0 0 -44267.5 0 0 44267.5 0 0 -21899.8 0 0 21899.8 0 0 -5246.99 0 0 5246.99
0 0 -43395 0 0 43395 0 0 -21430 0 0 21430 0 0 -5576.48 0 0 5576.48
0 0 -42555.7 0 0 42555.7 0 0 -20990.6 0 0 20990.6 0 0 -5883.95 0 0 5883.95
0 0 -41771.2 0 0 41771.2 0 0 -20596.7 0 0 20596.7 0 0 -6163.35 0 0 6163.35
0 0 -41060.1 0 0 41060.1 0 0 -20262.1 0 0 20262.1 0 0 -6409.35 0 0 6409.35
0 0 -40435.6 0 0 40435.6 0 0 -19997.2 0 0 19997.2 0 0 -6617.58 0 0 6617.58
0 0 -39844.6 0 0 39844.6 0 0 -19820.1 0 0 19820.1 0 0 -6783.91 0 0 6783.91
0 0 -39280.5 0 0 39280.5 0 0 -19739.9 0 0 19739.9 0 0 -6905.31 0 0 6905.31
0 0 -38740.2 0 0 38740.2 0 0 -19755.1 0 0 19755.1 0 0 -6980.51 0 0 6980.51
0 0 -38214.7 0 0 38214.7 0 0 -19865.5 0 0 19865.5 0 0 -7008.74 0 0 7008.74
0 0 -37693.8 0 0 37693.8 0 0 -20063.4 0 0 20063.4 0 0 -6986.15 0 0 6986.15
0 0 -37169.3 0 0 37169.3 0 0 -20334.8 0 0 20334.8 0 0 -6912.58 0 0 6912.58
0 0 -36636.3 0 0 36636.3 0 0 -20664.8 0 0 20664.8 0 0 -6790.25 0 0 6790.25
0 0 -36092.6 0 0 36092.6 0 0 -21032.9 0 0 21032.9 0 0 -6623.78 0 0 6623.78
0 0 -35535.1 0 0 35535.1 0 0 -21416.5 0 0 21416.5 0 0 -6418.22 0 0 6418.22
0 0 -34957.1 0 0 34957.1 0 0 -21791.5 0 0 21791.5 0 0 -6179.39 0 0 6179.39
0 0 -34348.2 0 0 34348.2 0 0 -22133.2 0 0 22133.2 0 0 -5913.55 0 0 5913.55
0 0 -33695.4 0 0 33695.4 0 0 -22417.2 0 0 22417.2 0 0 -5627.2 0 0 5627.2
0 0 -32985.9 0 0 32985.9 0 0 -22619.7 0 0 22619.7 0 0 -5326.94 0 0 5326.94
0 0 -32208.1 0 0 32208.1 0 0 -22718.1 0 0 22718.1 0 0 -5019.21 0 0 5019.21
0 0 -31350.3 0 0 31350.3 0 0 -22692 0 0 22692 0 0 -4710.09 0 0 4710.09
0 0 -30399 0 0 30399 0 0 -22524.4 0 0 22524.4 0 0 -4405.11 0 0 4405.11
0 0 -29339.8 0 0 29339.8 0 0 -22201.8 0 0 22201.8 0 0 -4109.09 0 0 4109.09
0 0 -28161.1 0 0 28161.1 0 0 -21714.2 0 0 21714.2 0 0 -3826.07 0 0 3826.07
0 0 -26856.5 0 0 26856.5 0 0 -21055 0 0 21055 0 0 -3559.19 0 0 3559.19
0 0 -25425.5 0 0 25425.5 0 0 -20221.2 0 0 20221.2 0 0 -3310.65 0 0 3310.65
0 0 -23873 0 0 23873 0 0 -19213.5 0 0 19213.5 0 0 -3081.67 0 0 3081.67
0 0 -22206.8 0 0 22206.8 0 0 -18036.8 0 0 18036.8 0 0 -2872.4 0 0 2872.4
0 0 -20436.6 0 0 20436.6 0 0 -16700.5 0 0 16700.5 0 0 -2682 0 0 2682
0 0 -18572.1 0 0 18572.1 0 0 -15218.2 0 0 15218.2 0 0 -2508.63 0 0 2508.63
0 0 -16622.1 0 0 16622.1 0 0 -13607.6 0 0 13607.6 0 0 -2349.59 0 0 2349.59
0 0 -14595.2 0 0 14595.2 0 0 -11889.8 0 0 11889.8 0 0 -2201.42 0 0 2201.42
0 0 -12500.3 0 0 12500.3 0 0 -10088.6 0 0 10088.6 0 0 -2060.05 0 0 2060.05
0 0 -10347.5 0 0 10347.5 0 0 -8229.35 0 0 8229.35 0 0 -1921.02 0 0 1921.02
0 0 -8149.55 0 0 8149.55 0 0 -6338.23 0 0 6338.23 0 0 -1779.66 0 0 1779.66
0 0 -5922.25 0 0 5922.25 0 0 -4441.09 0 0 4441.09 0 0 -1631.28 0 0 1631.28
0 0 -3684.39 0 0 3684.39 0 0 -2562.76 0 0 2562.76 0 0 -1471.38 0 0 1471.38
0 0 -1456.18 0 0 1456.18 0 0 -726.656 0 0 726.656 0 0 -1295.78 0 0 1295.78
0 0 655.763 0 0 -655.763 0 0 1057.84 0 0 -1057.84 0 0 -1100.08 0 0 1100.08
0 0 2768.35 0 0 -2768.35 0 0 2742.81 0 0 -2742.81 0 0 -878.97 0 0 878.97
0 0 4778.87 0 0 -4778.87 0 0 4342.9 0 0 -4342.9 0 0 -633.881 0 0 633.881
0 0 6709.22 0 0 -6709.22 0 0 5825.98 0 0 -5825.98 0 0 -363.187 0 0 363.187
0 0 8524.36 0 0 -8524.36 0 0 7187.61 0 0 -7187.61 0 0 -65.7065 0 0 65.7065
0 0 9743.85 0 0 -9743.85 0 0 8506.9 0 0 -8506.9 0 0 217.647 0 0 -217.647
0 0 10922.6 0 0 -10922.6 0 0 9648.32 0 0 -9648.32 0 0 524.981 0 0 -524.981
0 0 11895.1 0 0 -11895.1 0 0 10664.6 0 0 -10664.6 0 0 852.691 0 0 -852.691
0 0 12716.3 0 0 -12716.3 0 0 11531.3 0 0 -11531.3 0 0 1198.76 0 0 -1198.76
0 0 13374.4 0 0 -13374.4 0 0 12252.3 0 0 -12252.3 0 0 1561.97 0 0 -1561.97
0 0 13876.3 0 0 -13876.3 0 0 12829.6 0 0 -12829.6 0 0 1937.7 0 0 -1937.7
0 0 14234 0 0 -14234 0 0 13265.9 0 0 -13265.9 0 0 2323.09 0 0 -2323.09
0 0 14463.6 0 0 -14463.6 0 0 13570.2 0 0 -13570.2 0 0 2712.91 0 0 -2712.91
0 0 14585.2 0 0 -14585.2 0 0 13750.5 0 0 -13750.5 0 0 3102.17 0 0 -3102.17
0 0 14620.3 0 0 -14620.3 0 0 13818.2 0 0 -13818.2 0 0 3485.19 0 0 -3485.19
0 0 14591.1 0 0 -14591.1 0 0 13786 0 0 -13786 0 0 3856.17 0 0 -3856.17
0 0 14524.9 0 0 -14524.9 0 0 13668.2 0 0 -13668.2 0 0 4209.24 0 0 -4209.24
0 0 14448.8 0 0 -14448.8 0 0 13481.5 0 0 -13481.5 0 0 4538.42 0 0 -4538.42
0 0 14390.3 0 0 -14390.3 0 0 13242.9 0 0 -13242.9 0 0 4837.84 0 0 -4837.84
0 0 14375.3 0 0 -14375.3 0 0 12970.1 0 0 -12970.1 0 0 5101.84 0 0 -5101.84
0 0 14428.8 0 0 -14428.8 0 0 12681.1 0 0 -12681.1 0 0 5325.19 0 0 -5325.19
0 0 14573.9 0 0 -14573.9 0 0 12393.3 0 0 -12393.3 0 0 5503.19 0 0 -5503.19
0 0 14819.8 0 0 -14819.8 0 0 12122 0 0 -12122 0 0 5631.9 0 0 -5631.9
0 0 15191.8 0 0 -15191.8 0 0 11880.9 0 0 -11880.9 0 0 5708.31 0 0 -5708.31
0 0 15700.9 0 0 -15700.9 0 0 11688.8 0 0 -11688.8 0 0 5729.54 0 0 -5729.54
0 0 16356.2 0 0 -16356.2 0 0 11553.9 0 0 -11553.9 0 0 5687.35 0 0 -5687.35
0 0 17161.8 0 0 -17161.8 0 0 11486.1 0 0 -11486.1 0 0 5580.76 0 0 -5580.76
0 0 18115.9 0 0 -18115.9 0 0 11495.1 0 0 -11495.1 0 0 5409.82 0 0 -5409.82
0 0 19213.4 0 0 -19213.4 0 0 11586.1 0 0 -11586.1 0 0 5176.84 0 0 -5176.84
0 0 20445.5 0 0 -20445.5 0 0 11762.2 0 0 -11762.2 0 0 4885.11 0 0 -4885.11
0 0 21800.7 0 0 -21800.7 0 0 12023.2 0 0 -12023.2 0 0 4539.24 0 0 -4539.24
0 0 23264.9 0 0 -23264.9 0 0 12366 0 0 -12366 0 0 4145.05 0 0 -4145.05
0 0 24822.6 0 0 -24822.6 0 0 12784.5 0 0 -12784.5 0 0 3709.4 0 0 -3709.4
0 0 26456.7 0 0 -26456.7 0 0 13269.8 0 0 -13269.8 0 0 3240.13 0 0 -3240.13
0 0 28149.1 0 0 -28149.1 0 0 13810.8 0 0 -13810.8 0 0 2745.83 0 0 -2745.83
0 0 29880.3 0 0 -29880.3 0 0 14394.4 0 0 -14394.4 0 0 2235.69 0 0 -2235.69
0 0 31629.6 0 0 -31629.6 0 0 15006.4 0 0 -15006.4 0 0 1719.31 0 0 -1719.31
0 0 33375 0 0 -33375 0 0 15631.9 0 0 -15631.9 0 0 1206.44 0 0 -1206.44
0 0 35093.8 0 0 -35093.8 0 0 16255.9 0 0 -16255.9 0 0 706.833 0 0 -706.833
0 0 36763 0 0 -36763 0 0 16863.8 0 0 -16863.8 0 0 229.961 0 0 -229.961
0 0 38359.5 0 0 -38359.5 0 0 17443.8 0 0 -17443.8 0 0 -182.914 0 0 182.914
0 0 39857.3 0 0 -39857.3 0 0 18003.7 0 0 -18003.7 0 0 -544.038 0 0 544.038
0 0 41248 0 0 -41248 0 0 18494.3 0 0 -18494.3 0 0 -857.775 0 0 857.775
0 0 42511.1 0 0 -42511.1 0 0 18926 0 0 -18926 0 0 -1127.44 0 0 1127.44
0 0 43633.4 0 0 -43633.4 0 0 19285.3 0 0 -19285.3 0 0 -1344.45 0 0 1344.45
0 0 44607.2 0 0 -44607.2 0 0 19568.1 0 0 -19568.1 0 0 -1505.84 0 0 1505.84
0 0 45425.4 0 0 -45425.4 0 0 19773.5 0 0 -19773.5 0 0 -1608.99 0 0 1608.99
0 0 46087.6 0 0 -46087.6 0 0 19900.6 0 0 -19900.6 0 0 -1652.25 0 0 1652.25
0 0 46594.8 0 0 -46594.8 0 0 19953.9 0 0 -19953.9 0 0 -1631.66 0 0 1631.66
0 0 46952.8 0 0 -46952.8 0 0 19941.4 0 0 -19941.4 0 0 -1545.1 0 0 1545.1
0 0 47171 0 0 -47171 0 0 19870.6 0 0 -19870.6 0 0 -1393.86 0 0 1393.86
0 0 47262.2 0 0 -47262.2 0 0 19751.8 0 0 -19751.8 0 0 -1181.58 0 0 1181.58
0 0 47238.6 0 0 -47238.6 0 0 19597.6 0 0 -19597.6 0 0 -912.616 0 0 912.616
0 0 47116.7 0 0 -47116.7 0 0 19420.7 0 0 -19420.7 0 0 -592.226 0 0 592.226
0 0 46914.8 0 0 -46914.8 0 0 19237.2 0 0 -19237.2 0 0 -226.118 0 0 226.118
0 0 46656.2 0 0 -46656.2 0 0 19063.2 0 0 -19063.2 0 0 165.528 0 0 -165.528
0 0 46368.4 0 0 -46368.4 0 0 18904.1 0 0 -18904.1 0 0 582.308 0 0 -582.308
0 0 46071.9 0 0 -46071.9 0 0 18794.2 0 0 -18794.2 0 0 1018.47 0 0 -1018.47
0 0 45794.5 0 0 -45794.5 0 0 18738.7 0 0 -18738.7 0 0 1471.31 0 0 -1471.31
0 0 45559.4 0 0 -45559.4 0 0 18756.8 0 0 -18756.8 0 0 1931.39 0 0 -1931.39
0 0 45388.4 0 0 -45388.4 0 0 18861.3 0 0 -18861.3 0 0 2391.86 0 0 -2391.86
0 0 45209.9 0 0 -45209.9 0 0 19075.9 0 0 -19075.9 0 0 2845.81 0 0 -2845.81
0 0 44899.1 0 0 -44899.1 0 0 19436.6 0 0 -19436.6 0 0 3285.18 0 0 -3285.18
0 0 44781.1 0 0 -44781.1 0 0 19893.5 0 0 -19893.5 0 0 3707.2 0 0 -3707.2
0 0 44804.6 0 0 -44804.6 0 0 20457 0 0 -20457 0 0 4108.34 0 0 -4108.34
0 0 44989.2 0 0 -44989.2 0 0 21129.7 0 0 -21129.7 0 0 4482.29 0 0 -4482.29
0 0 45333.7 0 0 -45333.7 0 0 21904.5 0 0 -21904.5 0 0 4827.81 0 0 -4827.81
0 0 45834.2 0 0 -45834.2 0 0 22780.5 0 0 -22780.5 0 0 5141.4 0 0 -5141.4
0 0 46485.2 0 0 -46485.2 0 0 23747.8 0 0 -23747.8 0 0 5422.17 0 0 -5422.17
0 0 47278 0 0 -47278 0 0 24797.1 0 0 -24797.1 0 0 5669.19 0 0 -5669.19
0 0 48170.6 0 0 -48170.6 0 0 25908.3 0 0 -25908.3 0 0 5883.04 0 0 -5883.04
0 0 49169 0 0 -49169 0 0 27074.8 0 0 -27074.8 0 0 6064.71 0 0 -6064.71
0 0 50220.4 0 0 -50220.4 0 0 28297 0 0 -28297 0 0 6213.74 0 0 -6213.74
0 0 51293 0 0 -51293 0 0 29554.8 0 0 -29554.8 0 0 6333.47 0 0 -6333.47
0 0 52379.4 0 0 -52379.4 0 0 30828.3 0 0 -30828.3 0 0 6426.23 0 0 -6426.23
0 0 53466.8 0 0 -53466.8 0 0 32097 0 0 -32097 0 0 6495.5 0 0 -6495.5
0 0 54536.9 0 0 -54536.9 0 0 33340.4 0 0 -33340.4 0 0 6544.75 0 0 -6544.75
0 0 55566.1 0 0 -55566.1 0 0 34539 0 0 -34539 0 0 6577.71 0 0 -6577.71
0 0 56528 0 0 -56528 0 0 35673.6 0 0 -35673.6 0 0 6598.2 0 0 -6598.2
0 0 57398.5 0 0 -57398.5 0 0 36725.8 0 0 -36725.8 0 0 6609.93 0 0 -6609.93
0 0 58158.8 0 0 -58158.8 0 0 37677.3 0 0 -37677.3 0 0 6616.53 0 0 -6616.53
0 0 58795.1 0 0 -58795.1 0 0 38510.8 0 0 -38510.8 0 0 6621.34 0 0 -6621.34
0 0 59297.4 0 0 -59297.4 0 0 39210.4 0 0 -39210.4 0 0 6627.33 0 0 -6627.33
0 0 59659 0 0 -59659 0 0 39762.4 0 0 -39762.4 0 0 6636.97 0 0 -6636.97
0 0 59876 0 0 -59876 0 0 40156 0 0 -40156 0 0 6652.12 0 0 -6652.12
0 0 59948.1 0 0 -59948.1 0 0 40383 0 0 -40383 0 0 6673.97 0 0 -6673.97
0 0 59871.7 0 0 -59871.7 0 0 40438 0 0 -40438 0 0 6703.04 0 0 -6703.04
0 0 59653.1 0 0 -59653.1 0 0 40317.8 0 0 -40317.8 0 0 6739.18 0 0 -6739.18
0 0 59300.9 0 0 -59300.9 0 0 40025.5 0 0 -40025.5 0 0 6781.27 0 0 -6781.27
0 0 58828.7 0 0 -58828.7 0 0 39566.2 0 0 -39566.2 0 0 6827.56 0 0 -6827.56
0 0 58251.7 0 0 -58251.7 0 0 38949.2 0 0 -38949.2 0 0 6875.59 0 0 -6875.59
0 0 57584.8 0 0 -57584.8 0 0 38187.5 0 0 -38187.5 0 0 6922.23 0 0 -6922.23
0 0 56840.4 0 0 -56840.4 0 0 37297.3 0 0 -37297.3 0 0 6963.83 0 0 -6963.83
0 0 56026.5 0 0 -56026.5 0 0 36298.8 0 0 -36298.8 0 0 6996.3 0 0 -6996.3
0 0 55147.7 0 0 -55147.7 0 0 35214.3 0 0 -35214.3 0 0 7015.25 0 0 -7015.25
0 0 54207.1 0 0 -54207.1 0 0 34067.6 0 0 -34067.6 0 0 7015.85 0 0 -7015.85
0 0 53208.7 0 0 -53208.7 0 0 32882.5 0 0 -32882.5 0 0 6992.81 0 0 -6992.81
0 0 52158.8 0 0 -52158.8 0 0 31681.9 0 0 -31681.9 0 0 6941.67 0 0 -6941.67
0 0 51066.7 0 0 -51066.7 0 0 30487.4 0 0 -30487.4 0 0 6858.63 0 0 -6858.63
0 0 49944.4 0 0 -49944.4 0 0 29317.9 0 0 -29317.9 0 0 6740.54 0 0 -6740.54
0 0 48804.2 0 0 -48804.2 0 0 28189.8 0 0 -28189.8 0 0 6584.98 0 0 -6584.98
0 0 47657.2 0 0 -47657.2 0 0 27117 0 0 -27117 0 0 6390.4 0 0 -6390.4
0 0 46512 0 0 -46512 0 0 26110.3 0 0 -26110.3 0 0 6156.16 0 0 -6156.16
0 0 45374.6 0 0 -45374.6 0 0 25177.5 0 0 -25177.5 0 0 5882.59 0 0 -5882.59
0 0 44247.9 0 0 -44247.9 0 0 24323.1 0 0 -24323.1 0 0 5570.99 0 0 -5570.99
0 0 43131 0 0 -43131 0 0 23548.5 0 0 -23548.5 0 0 5223.65 0 0 -5223.65
0 0 42020.6 0 0 -42020.6 0 0 22852 0 0 -22852 0 0 4843.79 0 0 -4843.79
0 0 40910 0 0 -40910 0 0 22228.7 0 0 -22228.7 0 0 4435.5 0 0 -4435.5
0 0 39790.7 0 0 -39790.7 0 0 21670.9 0 0 -21670.9 0 0 4003.68 0 0 -4003.68
0 0 38651.9 0 0 -38651.9 0 0 21168.4 0 0 -21168.4 0 0 3553.9 0 0 -3553.9
0 0 37481.4 0 0 -37481.4 0 0 20708.6 0 0 -20708.6 0 0 3092.25 0 0 -3092.25
0 0 36266.1 0 0 -36266.1 0 0 20277.1 0 0 -20277.1 0 0 2625.24 0 0 -2625.24
0 0 34992.8 0 0 -34992.8 0 0 19858.4 0 0 -19858.4 0 0 2159.59 0 0 -2159.59
0 0 33649 0 0 -33649 0 0 19435.7 0 0 -19435.7 0 0 1702.09 0 0 -1702.09
0 0 32224.2 0 0 -32224.2 0 0 18992 0 0 -18992 0 0 1259.39 0 0 -1259.39
0 0 30710.7 0 0 -30710.7 0 0 18510.3 0 0 -18510.3 0 0 837.87 0 0 -837.87
0 0 28687 0 0 -28687 0 0 17829.9 0 0 -17829.9 0 0 349.672 0 0 -349.672
0 0 26514.6 0 0 -26514.6 0 0 17036.2 0 0 -17036.2 0 0 -62.0531 0 0 62.0531
0 0 24189.4 0 0 -24189.4 0 0 16128.3 0 0 -16128.3 0 0 -395.568 0 0 395.568
0 0 21720.5 0 0 -21720.5 0 0 15056 0 0 -15056 0 0 -660.511 0 0 660.511
0 0 19097.4 0 0 -19097.4 0 0 13830.5 0 0 -13830.5 0 0 -869.958 0 0 869.958
0 0 16314.7 0 0 -16314.7 0 0 12446.4 0 0 -12446.4 0 0 -1020.59 0 0 1020.59
0 0 13367.3 0 0 -13367.3 0 0 10920.1 0 0 -10920.1 0 0 -1116.14 0 0 1116.14
0 0 10263.8 0 0 -10263.8 0 0 9267.43 0 0 -9267.43 0 0 -1160.24 0 0 1160.24
0 0 7022.1 0 0 -7022.1 0 0 7512.11 0 0 -7512.11 0 0 -1157.97 0 0 1157.97
0 0 3665.23 0 0 -3665.23 0 0 5683.57 0 0 -5683.57 0 0 -1113.29 0 0 1113.29
0 0 784.844 0 0 -784.844 0 0 3723.68 0 0 -3723.68 0 0 -1031.91 0 0 1031.91
0 0 -1957.63 0 0 1957.63 0 0 1776.96 0 0 -1776.96 0 0 -928.181 0 0 928.181
0 0 -4553.98 0 0 4553.98 0 0 -112.666 0 0 112.666 0 0 -822.434 0 0 822.434
0 0 -7148.78 0 0 7148.78 0 0 -1886.42 0 0 1886.42 0 0 -717.519 0 0 717.519
0 0 -9639.83 0 0 9639.83 0 0 -3562.8 0 0 3562.8 0 0 -629.012 0 0 629.012
0 0 -12006.5 0 0 12006.5 0 0 -5091.17 0 0 5091.17 0 0 -567.565 0 0 567.565
0 0 -14201.5 0 0 14201.5 0 0 -6457.69 0 0 6457.69 0 0 -541.144 0 0 541.144
0 0 -16200.3 0 0 16200.3 0 0 -7640.61 0 0 7640.61 0 0 -556.78 0 0 556.78
0 0 -17978.7 0 0 17978.7 0 0 -8630.07 0 0 8630.07 0 0 -619.21 0 0 619.21
0 0 -19522.7 0 0 19522.7 0 0 -9422.54 0 0 9422.54 0 0 -730.789 0 0 730.789
0 0 -20826.5 0 0 20826.5 0 0 -10021.4 0 0 10021.4 0 0 -891.32 0 0 891.32
0 0 -21894 0 0 21894 0 0 -10436.1 0 0 10436.1 0 0 -1096.21 0 0 1096.21
0 0 -22739.8 0 0 22739.8 0 0 -10674.5 0 0 10674.5 0 0 -1317.15 0 0 1317.15
0 0 -23389 0 0 23389 0 0 -10759.3 0 0 10759.3 0 0 -1564.8 0 0 1564.8
0 0 -23870.3 0 0 23870.3 0 0 -10721.3 0 0 10721.3 0 0 -1837.65 0 0 1837.65
0 0 -24224.9 0 0 24224.9 0 0 -10586.5 0 0 10586.5 0 0 -2127.15 0 0 2127.15
0 0 -24493 0 0 24493 0 0 -10386 0 0 10386 0 0 -2425.27 0 0 2425.27
0 0 -24716.5 0 0 24716.5 0 0 -10153.3 0 0 10153.3 0 0 -2722.62 0 0 2722.62
0 0 -24937.2 0 0 24937.2 0 0 -9921.77 0 0 9921.77 0 0 -3010.19 0 0 3010.19
0 0 -25195 0 0 25195 0 0 -9723.97 0 0 9723.97 0 0 -3279.03 0 0 3279.03
0 0 -25526.8 0 0 25526.8 0 0 -9590.39 0 0 9590.39 0 0 -3520.93 0 0 3520.93
0 0 -25965.9 0 0 25965.9 0 0 -9548.22 0 0 9548.22 0 0 -3728.78 0 0 3728.78
0 0 -26541.2 0 0 26541.2 0 0 -9620.15 0 0 9620.15 0 0 -3896.72 0 0 3896.72
0 0 -27275.7 0 0 27275.7 0 0 -9823.58 0 0 9823.58 0 0 -4020.46 0 0 4020.46
0 0 -28186.2 0 0 28186.2 0 0 -10170.2 0 0 10170.2 0 0 -4097.48 0 0 4097.48
0 0 -29282.5 0 0 29282.5 0 0 -10665.6 0 0 10665.6 0 0 -4127.06 0 0 4127.06
0 0 -30566.7 0 0 30566.7 0 0 -11308.9 0 0 11308.9 0 0 -4106.84 0 0 4106.84
0 0 -32031.8 0 0 32031.8 0 0 -12092.1 0 0 12092.1 0 0 -4037.16 0 0 4037.16
0 0 -33658.6 0 0 33658.6 0 0 -13005.6 0 0 13005.6 0 0 -3923.25 0 0 3923.25
0 0 -35419.1 0 0 35419.1 0 0 -14034.1 0 0 14034.1 0 0 -3772.43 0 0 3772.43
0 0 -37278 0 0 37278 0 0 -15158.3 0 0 15158.3 0 0 -3593.54 0 0 3593.54
0 0 -39195.1 0 0 39195.1 0 0 -16355 0 0 16355 0 0 -3396.63 0 0 3396.63
0 0 -41127.4 0 0 41127.4 0 0 -17598.1 0 0 17598.1 0 0 -3192.63 0 0 3192.63
0 0 -43031.3 0 0 43031.3 0 0 -18858.8 0 0 18858.8 0 0 -2992.92 0 0 2992.92
0 0 -44865.2 0 0 44865.2 0 0 -20107.3 0 0 20107.3 0 0 -2808.91 0 0 2808.91
0 0 -46592.4 0 0 46592.4 0 0 -21312.8 0 0 21312.8 0 0 -2651.6 0 0 2651.6
0 0 -48182.2 0 0 48182.2 0 0 -22445.7 0 0 22445.7 0 0 -2531.09 0 0 2531.09
0 0 -49610.9 0 0 49610.9 0 0 -23478.7 0 0 23478.7 0 0 -2456.2 0 0 2456.2
0 0 -50859.8 0 0 50859.8 0 0 -24388.2 0 0 24388.2 0 0 -2434.01 0 0 2434.01
0 0 -51915.5 0 0 51915.5 0 0 -25156.3 0 0 25156.3 0 0 -2469.53 0 0 2469.53
0 0 -52769.6 0 0 52769.6 0 0 -25771.4 0 0 25771.4 0 0 -2565.52 0 0 2565.52
0 0 -53418.6 0 0 53418.6 0 0 -26228.6 0 0 26228.6 0 0 -2722.27 0 0 2722.27
0 0 -53863.3 0 0 53863.3 0 0 -26530.2 0 0 26530.2 0 0 -2937.65 0 0 2937.65
0 0 -54111.1 0 0 54111.1 0 0 -26685.1 0 0 26685.1 0 0 -3207.17 0 0 3207.17
0 0 -54175 0 0 54175 0 0 -26707.7 0 0 26707.7 0 0 -3524.2 0 0 3524.2
0 0 -54068.1 0 0 54068.1 0 0 -26616.4 0 0 26616.4 0 0 -3880.3 0 0 3880.3
0 0 -53815.7 0 0 53815.7 0 0 -26430.4 0 0 26430.4 0 0 -4235.81 0 0 4235.81
0 0 -53450.9 0 0 53450.9 0 0 -26158.9 0 0 26158.9 0 0 -4589.72 0 0 4589.72
0 0 -52994.6 0 0 52994.6 0 0 -25863 0 0 25863 0 0 -4945.42 0 0 4945.42
0 0 -52426.9 0 0 52426.9 0 0 -25561.5 0 0 25561.5 0 0 -5297.77 0 0 5297.77
0 0 -51584.8 0 0 51584.8 0 0 -25321.6 0 0 25321.6 0 0 -5633.9 0 0 5633.9
0 0 -50853.3 0 0 50853.3 0 0 -25095.2 0 0 25095.2 0 0 -5948.24 0 0 5948.24
0 0 -50205.1 0 0 50205.1 0 0 -24921.2 0 0 24921.2 0 0 -6231.9 0 0 6231.9
0 0 -49681.9 0 0 49681.9 0 0 -24801.7 0 0 24801.7 0 0 -6478.61 0 0 6478.61
0 0 -49272.1 0 0 49272.1 0 0 -24757.2 0 0 24757.2 0 0 -6681.33 0 0 6681.33
0 0 -48791.5 0 0 48791.5 0 0 -24825 0 0 24825 0 0 -6834.68 0 0 6834.68
0 0 -48249.8 0 0 48249.8 0 0 -25000.5 0 0 25000.5 0 0 -6936.04 0 0 6936.04
0 0 -47641.9 0 0 47641.9 0 0 -25274.3 0 0 25274.3 0 0 -6985.14 0 0 6985.14
0 0 -46966.2 0 0 46966.2 0 0 -25625.5 0 0 25625.5 0 0 -6981.63 0 0 6981.63
0 0 -46218.6 0 0 46218.6 0 0 -26024.4 0 0 26024.4 0 0 -6924.21 0 0 6924.21
0 0 -45395 0 0 45395 0 0 -26437.9 0 0 26437.9 0 0 -6817.93 0 0 6817.93
0 0 -44493 0 0 44493 0 0 -26827.1 0 0 26827.1 0 0 -6669.96 0 0 6669.96
0 0 -43512.2 0 0 43512.2 0 0 -27151.1 0 0 27151.1 0 0 -6488.32 0 0 6488.32
0 0 -42452.7 0 0 42452.7 0 0 -27368.5 0 0 27368.5 0 0 -6281.45 0 0 6281.45
0 0 -41311.4 0 0 41311.4 0 0 -27441.4 0 0 27441.4 0 0 -6057.69 0 0 6057.69
0 0 -40079.8 0 0 40079.8 0 0 -27337.1 0 0 27337.1 0 0 -5824.75 0 0 5824.75
0 0 -38741.4 0 0 38741.4 0 0 -27030.7 0 0 27030.7 0 0 -5589.18 0 0 5589.18
0 0 -37271.9 0 0 37271.9 0 0 -26506 0 0 26506 0 0 -5356.18 0 0 5356.18
0 0 -35643.9 0 0 35643.9 0 0 -25755.7 0 0 25755.7 0 0 -5129.38 0 0 5129.38
0 0 -33835 0 0 33835 0 0 -24779.9 0 0 24779.9 0 0 -4910.81 0 0 4910.81
0 0 -31834.5 0 0 31834.5 0 0 -23584.9 0 0 23584.9 0 0 -4700.93 0 0 4700.93
0 0 -29644.7 0 0 29644.7 0 0 -22182.3 0 0 22182.3 0 0 -4498.71 0 0 4498.71
0 0 -27276.4 0 0 27276.4 0 0 -20589.7 0 0 20589.7 0 0 -4301.72 0 0 4301.72
0 0 -24742.9 0 0 24742.9 0 0 -18830.3 0 0 18830.3 0 0 -4106.25 0 0 4106.25
0 0 -22059.8 0 0 22059.8 0 0 -16932 0 0 16932 0 0 -3907.6 0 0 3907.6
0 0 -19244.9 0 0 19244.9 0 0 -14926.1 0 0 14926.1 0 0 -3700.39 0 0 3700.39
0 0 -16317.3 0 0 16317.3 0 0 -12845.6 0 0 12845.6 0 0 -3478.89 0 0 3478.89
0 0 -13294.1 0 0 13294.1 0 0 -10724.6 0 0 10724.6 0 0 -3237.39 0 0 3237.39
0 0 -10187.8 0 0 10187.8 0 0 -8596.73 0 0 8596.73 0 0 -2970.55 0 0 2970.55
0 0 -7007.95 0 0 7007.95 0 0 -6493.44 0 0 6493.44 0 0 -2673.79 0 0 2673.79
0 0 -3768.39 0 0 3768.39 0 0 -4441.07 0 0 4441.07 0 0 -2343.65 0 0 2343.65
0 0 -492.587 0 0 492.587 0 0 -2459 0 0 2459 0 0 -1978.14 0 0 1978.14
0 0 2644.43 0 0 -2644.43 0 0 -588.33 0 0 588.33 0 0 -1574.85 0 0 1574.85
0 0 4761.93 0 0 -4761.93 0 0 1401.9 0 0 -1401.9 0 0 -1145.26 0 0 1145.26
0 0 6835.3 0 0 -6835.3 0 0 3257.19 0 0 -3257.19 0 0 -679.058 0 0 679.058
0 0 8719.53 0 0 -8719.53 0 0 5033.11 0 0 -5033.11 0 0 -182.415 0 0 182.415
0 0 10454.8 0 0 -10454.8 0 0 6653.63 0 0 -6653.63 0 0 298.205 0 0 -298.205
0 0 12034.5 0 0 -12034.5 0 0 8124.49 0 0 -8124.49 0 0 787.699 0 0 -787.699
0 0 13429 0 0 -13429 0 0 9461.81 0 0 -9461.81 0 0 1292.69 0 0 -1292.69
0 0 14649.9 0 0 -14649.9 0 0 10658 0 0 -10658 0 0 1808.09 0 0 -1808.09
0 0 15695.2 0 0 -15695.2 0 0 11718 0 0 -11718 0 0 2327.53 0 0 -2327.53
0 0 16575.7 0 0 -16575.7 0 0 12648.8 0 0 -12648.8 0 0 2843.23 0 0 -2843.23
0 0 17307.9 0 0 -17307.9 0 0 13458.2 0 0 -13458.2 0 0 3347.53 0 0 -3347.53
0 0 17913.8 0 0 -17913.8 0 0 14155.8 0 0 -14155.8 0 0 3831.82 0 0 -3831.82
0 0 18418.6 0 0 -18418.6 0 0 14751.5 0 0 -14751.5 0 0 4288.1 0 0 -4288.1
0 0 18847.7 0 0 -18847.7 0 0 15256.3 0 0 -15256.3 0 0 4708.08 0 0 -4708.08
0 0 19227.1 0 0 -19227.1 0 0 15681.6 0 0 -15681.6 0 0 5084.43 0 0 -5084.43
0 0 19581.8 0 0 -19581.8 0 0 16038.4 0 0 -16038.4 0 0 5410.06 0 0 -5410.06
0 0 19937.2 0 0 -19937.2 0 0 16336.5 0 0 -16336.5 0 0 5678.95 0 0 -5678.95
0 0 20317.9 0 0 -20317.9 0 0 16584.8 0 0 -16584.8 0 0 5886.05 0 0 -5886.05
0 0 20745.3 0 0 -20745.3 0 0 16791.2 0 0 -16791.2 0 0 6027.59 0 0 -6027.59
0 0 21235.8 0 0 -21235.8 0 0 16962.6 0 0 -16962.6 0 0 6101 0 0 -6101
0 0 21798.1 0 0 -21798.1 0 0 17105.1 0 0 -17105.1 0 0 6103.09 0 0 -6103.09
0 0 22434.1 0 0 -22434.1 0 0 17220.7 0 0 -17220.7 0 0 6027.2 0 0 -6027.2
0 0 23139.4 0 0 -23139.4 0 0 17313.4 0 0 -17313.4 0 0 5874.07 0 0 -5874.07
0 0 23908.1 0 0 -23908.1 0 0 17384.6 0 0 -17384.6 0 0 5647.56 0 0 -5647.56
0 0 24733.7 0 0 -24733.7 0 0 17433.5 0 0 -17433.5 0 0 5353 0 0 -5353
0 0 25608.7 0 0 -25608.7 0 0 17457.1 0 0 -17457.1 0 0 4997.24 0 0 -4997.24
0 0 26520.9 0 0 -26520.9 0 0 17451.7 0 0 -17451.7 0 0 4588.45 0 0 -4588.45
0 0 27452.1 0 0 -27452.1 0 0 17413.4 0 0 -17413.4 0 0 4135.86 0 0 -4135.86
0 0 28379.1 0 0 -28379.1 0 0 17338.3 0 0 -17338.3 0 0 3649.43 0 0 -3649.43
0 0 29277 0 0 -29277 0 0 17222.2 0 0 -17222.2 0 0 3139.73 0 0 -3139.73
0 0 30120.4 0 0 -30120.4 0 0 17061.3 0 0 -17061.3 0 0 2617.62 0 0 -2617.62
0 0 30884.4 0 0 -30884.4 0 0 16851.6 0 0 -16851.6 0 0 2094.03 0 0 -2094.03
0 0 31544.7 0 0 -31544.7 0 0 16590.1 0 0 -16590.1 0 0 1579.64 0 0 -1579.64
0 0 32078 0 0 -32078 0 0 16274.4 0 0 -16274.4 0 0 1084.63 0 0 -1084.63
0 0 32464 0 0 -32464 0 0 15903.2 0 0 -15903.2 0 0 618.454 0 0 -618.454
0 0 32686.1 0 0 -32686.1 0 0 15475.9 0 0 -15475.9 0 0 189.646 0 0 -189.646
0 0 32729.6 0 0 -32729.6 0 0 14996.9 0 0 -14996.9 0 0 -165.186 0 0 165.186
0 0 32528.6 0 0 -32528.6 0 0 14484.2 0 0 -14484.2 0 0 -460.256 0 0 460.256
0 0 32061.9 0 0 -32061.9 0 0 13919 0 0 -13919 0 0 -704.677 0 0 704.677
0 0 31355.6 0 0 -31355.6 0 0 13310.3 0 0 -13310.3 0 0 -899.013 0 0 899.013
0 0 30449.5 0 0 -30449.5 0 0 12652.7 0 0 -12652.7 0 0 -1040.74 0 0 1040.74
0 0 29382.8 0 0 -29382.8 0 0 11948.8 0 0 -11948.8 0 0 -1129.77 0 0 1129.77
0 0 28193.3 0 0 -28193.3 0 0 11203.2 0 0 -11203.2 0 0 -1167.34 0 0 1167.34
0 0 26913.2 0 0 -26913.2 0 0 10425.2 0 0 -10425.2 0 0 -1153.38 0 0 1153.38
0 0 25568 0 0 -25568 0 0 9630.44 0 0 -9630.44 0 0 -1089.18 0 0 1089.18
0 0 24177.2 0 0 -24177.2 0 0 8834.99 0 0 -8834.99 0 0 -979.91 0 0 979.91
0 0 22754.6 0 0 -22754.6 0 0 8058.96 0 0 -8058.96 0 0 -832.794 0 0 832.794
0 0 21312.6 0 0 -21312.6 0 0 7322.81 0 0 -7322.81 0 0 -655.418 0 0 655.418
0 0 19866.2 0 0 -19866.2 0 0 6646.42 0 0 -6646.42 0 0 -455.844 0 0 455.844
0 0 18435.2 0 0 -18435.2 0 0 6047.12 0 0 -6047.12 0 0 -242.194 0 0 242.194
0 0 17042.7 0 0 -17042.7 0 0 5539.09 0 0 -5539.09 0 0 -22.7133 0 0 22.7133
0 0 15710.4 0 0 -15710.4 0 0 5131.01 0 0 -5131.01 0 0 188.505 0 0 -188.505
0 0 14453.6 0 0 -14453.6 0 0 4833.95 0 0 -4833.95 0 0 392.188 0 0 -392.188
0 0 13282.7 0 0 -13282.7 0 0 4651.66 0 0 -4651.66 0 0 582.984 0 0 -582.984
0 0 12202.5 0 0 -12202.5 0 0 4585.21 0 0 -4585.21 0 0 756.412 0 0 -756.412
0 0 11209.6 0 0 -11209.6 0 0 4630.66 0 0 -4630.66 0 0 908.718 0 0 -908.718
0 0 10290.3 0 0 -10290.3 0 0 4781.39 0 0 -4781.39 0 0 1038.02 0 0 -1038.02
0 0 9421.13 0 0 -9421.13 0 0 5026.55 0 0 -5026.55 0 0 1143.03 0 0 -1143.03
0 0 8571.8 0 0 -8571.8 0 0 5351.47 0 0 -5351.47 0 0 1223.97 0 0 -1223.97
0 0 7709.15 0 0 -7709.15 0 0 5736.9 0 0 -5736.9 0 0 1282.04 0 0 -1282.04
0 0 6799.68 0 0 -6799.68 0 0 6159.43 0 0 -6159.43 0 0 1319.49 0 0 -1319.49
0 0 5811.51 0 0 -5811.51 0 0 6591.67 0 0 -6591.67 0 0 1339.42 0 0 -1339.42
0 0 4714.92 0 0 -4714.92 0 0 7003.31 0 0 -7003.31 0 0 1345.45 0 0 -1345.45
0 0 3599.15 0 0 -3599.15 0 0 7349.89 0 0 -7349.89 0 0 1341.56 0 0 -1341.56
0 0 3077.25 0 0 -3077.25 0 0 7473.58 0 0 -7473.58 0 0 1339.64 0 0 -1339.64
0 0 2279.63 0 0 -2279.63 0 0 7548.96 0 0 -7548.96 0 0 1327.62 0 0 -1327.62
0 0 1343.36 0 0 -1343.36 0 0 7485.06 0 0 -7485.06 0 0 1316.32 0 0 -1316.32
0 0 249.478 0 0 -249.478 0 0 7293.3 0 0 -7293.3 0 0 1302.02 0 0 -1302.02
0 0 -965.337 0 0 965.337 0 0 6968.87 0 0 -6968.87 0 0 1286.06 0 0 -1286.06
0 0 -2313.68 0 0 2313.68 0 0 6491.51 0 0 -6491.51 0 0 1268.67 0 0 -1268.67
0 0 -3810.63 0 0 3810.63 0 0 5855.65 0 0 -5855.65 0 0 1249.17 0 0 -1249.17
0 0 -5433.11 0 0 5433.11 0 0 5059.42 0 0 -5059.42 0 0 1225.41 0 0 -1225.41
0 0 -7170.48 0 0 7170.48 0 0 4108.62 0 0 -4108.62 0 0 1194.46 0 0 -1194.46
0 0 -9010.4 0 0 9010.4 0 0 3012.45 0 0 -3012.45 0 0 1152.73 0 0 -1152.73
0 0 -10939 0 0 10939 0 0 1784.74 0 0 -1784.74 0 0 1095.89 0 0 -1095.89
0 0 -12937.3 0 0 12937.3 0 0 445.817 0 0 -445.817 0 0 1019.81 0 0 -1019.81
0 0 -14981.6 0 0 14981.6 0 0 -975.205 0 0 975.205 0 0 919.846 0 0 -919.846
0 0 -17051.3 0 0 17051.3 0 0 -2467.7 0 0 2467.7 0 0 790.504 0 0 -790.504
0 0 -19121.6 0 0 19121.6 0 0 -4010.84 0 0 4010.84 0 0 627.143 0 0 -627.143
0 0 -21168.3 0 0 21168.3 0 0 -5585.14 0 0 5585.14 0 0 425.85 0 0 -425.85
0 0 -23172 0 0 23172 0 0 -7167.73 0 0 7167.73 0 0 182.971 0 0 -182.971
0 0 -25115 0 0 25115 0 0 -8736 0 0 8736 0 0 -81.3946 0 0 81.3946
0 0 -26984.7 0 0 26984.7 0 0 -10258.7 0 0 10258.7 0 0 -376.268 0 0 376.268
0 0 -28760.9 0 0 28760.9 0 0 -11740.1 0 0 11740.1 0 0 -707.81 0 0 707.81
0 0 -30436.3 0 0 30436.3 0 0 -13155.8 0 0 13155.8 0 0 -1078.95 0 0 1078.95
0 0 -31998.6 0 0 31998.6 0 0 -14502 0 0 14502 0 0 -1486.72 0 0 1486.72
0 0 -33443.3 0 0 33443.3 0 0 -15770.3 0 0 15770.3 0 0 -1928.05 0 0 1928.05
0 0 -34765.7 0 0 34765.7 0 0 -16959.2 0 0 16959.2 0 0 -2398 0 0 2398
0 0 -35964.4 0 0 35964.4 0 0 -18069 0 0 18069 0 0 -2891.09 0 0 2891.09
0 0 -37040.1 0 0 37040.1 0 0 -19103.3 0 0 19103.3 0 0 -3400.57 0 0 3400.57
0 0 -37997.8 0 0 37997.8 0 0 -20067.1 0 0 20067.1 0 0 -3919.17 0 0 3919.17
0 0 -38847.6 0 0 38847.6 0 0 -20966.4 0 0 20966.4 0 0 -4439.15 0 0 4439.15
0 0 -39604.6 0 0 39604.6 0 0 -21807.6 0 0 21807.6 0 0 -4952.45 0 0 4952.45
0 0 -40285.8 0 0 40285.8 0 0 -22597.1 0 0 22597.1 0 0 -5450.99 0 0 5450.99
0 0 -40909.3 0 0 40909.3 0 0 -23341.2 0 0 23341.2 0 0 -5926.85 0 0 5926.85
0 0 -41492 0 0 41492 0 0 -24045.9 0 0 24045.9 0 0 -6372.47 0 0 6372.47
0 0 -42047.5 0 0 42047.5 0 0 -24716.5 0 0 24716.5 0 0 -6780.86 0 0 6780.86
0 0 -42586.3 0 0 42586.3 0 0 -25357.5 0 0 25357.5 0 0 -7145.75 0 0 7145.75
0 0 -43116 0 0 43116 0 0 -25971.6 0 0 25971.6 0 0 -7461.82 0 0 7461.82
0 0 -43644.9 0 0 43644.9 0 0 -26552.9 0 0 26552.9 0 0 -7685.24 0 0 7685.24
0 0 -44185.5 0 0 44185.5 0 0 -27054.1 0 0 27054.1 0 0 -7730.4 0 0 7730.4
0 0 -44729.9 0 0 44729.9 0 0 -27533.1 0 0 27533.1 0 0 -7747.87 0 0 7747.87
0 0 -45271.5 0 0 45271.5 0 0 -27999.6 0 0 27999.6 0 0 -7758.96 0 0 7758.96
0 0 -45821.5 0 0 45821.5 0 0 -28431 0 0 28431 0 0 -7764.58 0 0 7764.58
0 0 -46373.5 0 0 46373.5 0 0 -28822.7 0 0 28822.7 0 0 -7749.09 0 0 7749.09
0 0 -46929.4 0 0 46929.4 0 0 -29146.3 0 0 29146.3 0 0 -7681.45 0 0 7681.45
0 0 -47479.9 0 0 47479.9 0 0 -29398.6 0 0 29398.6 0 0 -7560.87 0 0 7560.87
0 0 -48012.1 0 0 48012.1 0 0 -29568.6 0 0 29568.6 0 0 -7391.66 0 0 7391.66
0 0 -48507.2 0 0 48507.2 0 0 -29652.3 0 0 29652.3 0 0 -7178.73 0 0 7178.73
0 0 -48944.7 0 0 48944.7 0 0 -29644.8 0 0 29644.8 0 0 -6927.84 0 0 6927.84
0 0 -49301.6 0 0 49301.6 0 0 -29543.2 0 0 29543.2 0 0 -6644.54 0 0 6644.54
0 0 -49555.8 0 0 49555.8 0 0 -29344.3 0 0 29344.3 0 0 -6334.64 0 0 6334.64
0 0 -49675.1 0 0 49675.1 0 0 -29048.3 0 0 29048.3 0 0 -6004.07 0 0 6004.07
0 0 -49616.7 0 0 49616.7 0 0 -28658.8 0 0 28658.8 0 0 -5658.72 0 0 5658.72
0 0 -49376.2 0 0 49376.2 0 0 -28169.9 0 0 28169.9 0 0 -5305.09 0 0 5305.09
0 0 -48958.6 0 0 48958.6 0 0 -27579.7 0 0 27579.7 0 0 -4948.72 0 0 4948.72
0 0 -48375.8 0 0 48375.8 0 0 -26885.2 0 0 26885.2 0 0 -4595.11 0 0 4595.11
0 0 -47641 0 0 47641 0 0 -26087 0 0 26087 0 0 -4248.99 0 0 4248.99
0 0 -46767.3 0 0 46767.3 0 0 -25188 0 0 25188 0 0 -3914.42 0 0 3914.42
0 0 -45766.1 0 0 45766.1 0 0 -24194.6 0 0 24194.6 0 0 -3594.48 0 0 3594.48
0 0 -44646.1 0 0 44646.1 0 0 -23116.8 0 0 23116.8 0 0 -3291.28 0 0 3291.28
0 0 -43411 0 0 43411 0 0 -21968.6 0 0 21968.6 0 0 -3006.02 0 0 3006.02
0 0 -42060 0 0 42060 0 0 -20766.9 0 0 20766.9 0 0 -2739.1 0 0 2739.1
0 0 -40588.3 0 0 40588.3 0 0 -19531 0 0 19531 0 0 -2490.18 0 0 2490.18
0 0 -38986.8 0 0 38986.8 0 0 -18281.1 0 0 18281.1 0 0 -2258.28 0 0 2258.28
0 0 -37244.6 0 0 37244.6 0 0 -17037.5 0 0 17037.5 0 0 -2042.12 0 0 2042.12
0 0 -35355.9 0 0 35355.9 0 0 -15817.9 0 0 15817.9 0 0 -1840.31 0 0 1840.31
0 0 -33326.7 0 0 33326.7 0 0 -14635.4 0 0 14635.4 0 0 -1651.6 0 0 1651.6
0 0 -31173.7 0 0 31173.7 0 0 -13498.2 0 0 13498.2 0 0 -1474.92 0 0 1474.92
0 0 -28919.3 0 0 28919.3 0 0 -12410.4 0 0 12410.4 0 0 -1309.45 0 0 1309.45
0 0 -26588.1 0 0 26588.1 0 0 -11372.6 0 0 11372.6 0 0 -1154.59 0 0 1154.59
0 0 -24204.2 0 0 24204.2 0 0 -10382.5 0 0 10382.5 0 0 -1009.95 0 0 1009.95
0 0 -21790.4 0 0 21790.4 0 0 -9435.91 0 0 9435.91 0 0 -875.254 0 0 875.254
0 0 -19367.6 0 0 19367.6 0 0 -8526.95 0 0 8526.95 0 0 -750.324 0 0 750.324
0 0 -16953.1 0 0 16953.1 0 0 -7649.08 0 0 7649.08 0 0 -634.98 0 0 634.98
0 0 -14560.3 0 0 14560.3 0 0 -6795.75 0 0 6795.75 0 0 -528.976 0 0 528.976
0 0 -12196 0 0 12196 0 0 -5961.23 0 0 5961.23 0 0 -431.921 0 0 431.921
0 0 -9859.46 0 0 9859.46 0 0 -5141.16 0 0 5141.16 0 0 -343.226 0 0 343.226
0 0 -7544.6 0 0 7544.6 0 0 -4332.21 0 0 4332.21 0 0 -262.118 0 0 262.118
0 0 -5248.17 0 0 5248.17 0 0 -3530.91 0 0 3530.91 0 0 -187.706 0 0 187.706
0 0 -2976.58 0 0 2976.58 0 0 -2732.6 0 0 2732.6 0 0 -119.037 0 0 119.037
0 0 -748.59 0 0 748.59 0 0 -1931.33 0 0 1931.33 0 0 -54.9386 0 0 54.9386
0 0 661.938 0 0 -661.938 0 0 -1007.76 0 0 1007.76 0 0 -2.27445 0 0 2.27445
0 0 2051.73 0 0 -2051.73 0 0 -134.547 0 0 134.547 0 0 44.75 0 0 -44.75
0 0 3323.65 0 0 -3323.65 0 0 766.219 0 0 -766.219 0 0 93.157 0 0 -93.157
0 0 4521.72 0 0 -4521.72 0 0 1619.86 0 0 -1619.86 0 0 148.298 0 0 -148.298
0 0 5613.08 0 0 -5613.08 0 0 2439.26 0 0 -2439.26 0 0 209.84 0 0 -209.84
0 0 6585.94 0 0 -6585.94 0 0 3204.01 0 0 -3204.01 0 0 281.12 0 0 -281.12
0 0 7425.12 0 0 -7425.12 0 0 3907.03 0 0 -3907.03 0 0 363.117 0 0 -363.117
0 0 8122.53 0 0 -8122.53 0 0 4536.01 0 0 -4536.01 0 0 457.116 0 0 -457.116
0 0 8674.23 0 0 -8674.23 0 0 5082.68 0 0 -5082.68 0 0 563.779 0 0 -563.779
0 0 9080.78 0 0 -9080.78 0 0 5539.15 0 0 -5539.15 0 0 682.957 0 0 -682.957
0 0 9347.84 0 0 -9347.84 0 0 5899.39 0 0 -5899.39 0 0 814.184 0 0 -814.184
0 0 9483.33 0 0 -9483.33 0 0 6160.18 0 0 -6160.18 0 0 955.991 0 0 -955.991
0 0 9496.61 0 0 -9496.61 0 0 6320.83 0 0 -6320.83 0 0 1106.42 0 0 -1106.42
0 0 9396.53 0 0 -9396.53 0 0 6382.57 0 0 -6382.57 0 0 1262.82 0 0 -1262.82
0 0 9192.84 0 0 -9192.84 0 0 6351.47 0 0 -6351.47 0 0 1421.94 0 0 -1421.94
0 0 8898.18 0 0 -8898.18 0 0 6236.23 0 0 -6236.23 0 0 1579.92 0 0 -1579.92
0 0 8525.78 0 0 -8525.78 0 0 6047.77 0 0 -6047.77 0 0 1732.62 0 0 -1732.62
0 0 8090.41 0 0 -8090.41 0 0 5798.5 0 0 -5798.5 0 0 1875.66 0 0 -1875.66
0 0 7607.89 0 0 -7607.89 0 0 5501.63 0 0 -5501.63 0 0 2004.63 0 0 -2004.63
0 0 7094.92 0 0 -7094.92 0 0 5170.47 0 0 -5170.47 0 0 2115.28 0 0 -2115.28
0 0 6569.35 0 0 -6569.35 0 0 4817.74 0 0 -4817.74 0 0 2203.62 0 0 -2203.62
0 0 6034.12 0 0 -6034.12 0 0 4457.05 0 0 -4457.05 0 0 2266.09 0 0 -2266.09
0 0 5499.54 0 0 -5499.54 0 0 4100.47 0 0 -4100.47 0 0 2299.62 0 0 -2299.62
0 0 5003.86 0 0 -5003.86 0 0 3751.26 0 0 -3751.26 0 0 2300.86 0 0 -2300.86
0 0 4575.61 0 0 -4575.61 0 0 3411.83 0 0 -3411.83 0 0 2263.35 0 0 -2263.35
0 0 4231.09 0 0 -4231.09 0 0 3086.18 0 0 -3086.18 0 0 2185.41 0 0 -2185.41
0 0 3974.73 0 0 -3974.73 0 0 2778.35 0 0 -2778.35 0 0 2067.43 0 0 -2067.43
0 0 3799.5 0 0 -3799.5 0 0 2492.37 0 0 -2492.37 0 0 1910.58 0 0 -1910.58
0 0 3689.45 0 0 -3689.45 0 0 2231.36 0 0 -2231.36 0 0 1717.13 0 0 -1717.13
0 0 3625.07 0 0 -3625.07 0 0 1996.71 0 0 -1996.71 0 0 1490.36 0 0 -1490.36
0 0 3589.66 0 0 -3589.66 0 0 1786.82 0 0 -1786.82 0 0 1234.56 0 0 -1234.56
0 0 3572.24 0 0 -3572.24 0 0 1596.78 0 0 -1596.78 0 0 954.968 0 0 -954.968
0 0 3563.82 0 0 -3563.82 0 0 1419.74 0 0 -1419.74 0 0 657.591 0 0 -657.591
0 0 3555.05 0 0 -3555.05 0 0 1247.43 0 0 -1247.43 0 0 348.831 0 0 -348.831
0 0 3539.35 0 0 -3539.35 0 0 1069.37 0 0 -1069.37 0 0 35.4533 0 0 -35.4533
0 0 3513.05 0 0 -3513.05 0 0 881.892 0 0 -881.892 0 0 -253.165 0 0 253.165
0 0 3479.73 0 0 -3479.73 0 0 668.598 0 0 -668.598 0 0 -531.921 0 0 531.921
0 0 3445 0 0 -3445 0 0 420.2 0 0 -420.2 0 0 -798.447 0 0 798.447
0 0 3416.14 0 0 -3416.14 0 0 129.824 0 0 -129.824 0 0 -1045.79 0 0 1045.79
0 0 3403.87 0 0 -3403.87 0 0 -201.132 0 0 201.132 0 0 -1270.42 0 0 1270.42
0 0 3420.66 0 0 -3420.66 0 0 -579.43 0 0 579.43 0 0 -1468.8 0 0 1468.8
0 0 3479.3 0 0 -3479.3 0 0 -999.362 0 0 999.362 0 0 -1638.97 0 0 1638.97
0 0 3593.83 0 0 -3593.83 0 0 -1453.15 0 0 1453.15 0 0 -1779.54 0 0 1779.54
0 0 3778.73 0 0 -3778.73 0 0 -1928.5 0 0 1928.5 0 0 -1890.29 0 0 1890.29
0 0 4051.49 0 0 -4051.49 0 0 -2409.55 0 0 2409.55 0 0 -1972.11 0 0 1972.11
0 0 4370.37 0 0 -4370.37 0 0 -2870.46 0 0 2870.46 0 0 -2026.64 0 0 2026.64
0 0 4274.92 0 0 -4274.92 0 0 -3208.1 0 0 3208.1 0 0 -2060.49 0 0 2060.49
0 0 4331.04 0 0 -4331.04 0 0 -3515.7 0 0 3515.7 0 0 -2069.47 0 0 2069.47
0 0 4437.24 0 0 -4437.24 0 0 -3739.36 0 0 3739.36 0 0 -2057.47 0 0 2057.47
0 0 4616.92 0 0 -4616.92 0 0 -3880.56 0 0 3880.56 0 0 -2024.34 0 0 2024.34
0 0 4864.44 0 0 -4864.44 0 0 -3920.33 0 0 3920.33 0 0 -1973.83 0 0 1973.83
0 0 5186.07 0 0 -5186.07 0 0 -3850.56 0 0 3850.56 0 0 -1907.14 0 0 1907.14
0 0 5577.33 0 0 -5577.33 0 0 -3662.74 0 0 3662.74 0 0 -1826.41 0 0 1826.41
0 0 6035.48 0 0 -6035.48 0 0 -3353.16 0 0 3353.16 0 0 -1732.75 0 0 1732.75
0 0 6550.97 0 0 -6550.97 0 0 -2921.31 0 0 2921.31 0 0 -1627.05 0 0 1627.05
0 0 7113.81 0 0 -7113.81 0 0 -2370.75 0 0 2370.75 0 0 -1509.55 0 0 1509.55
0 0 7711.33 0 0 -7711.33 0 0 -1709.13 0 0 1709.13 0 0 -1379.97 0 0 1379.97
0 0 8276.19 0 0 -8276.19 0 0 -940.572 0 0 940.572 0 0 -1237.9 0 0 1237.9
0 0 8745.06 0 0 -8745.06 0 0 -72.5147 0 0 72.5147 0 0 -1082.71 0 0 1082.71
0 0 9120.78 0 0 -9120.78 0 0 881.169 0 0 -881.169 0 0 -911.294 0 0 911.294
0 0 9398.97 0 0 -9398.97 0 0 1879.36 0 0 -1879.36 0 0 -722.743 0 0 722.743
0 0 9576.61 0 0 -9576.61 0 0 2896.45 0 0 -2896.45 0 0 -514.179 0 0 514.179
0 0 9660.82 0 0 -9660.82 0 0 3897.33 0 0 -3897.33 0 0 -284.511 0 0 284.511
0 0 9659.01 0 0 -9659.01 0 0 4852.23 0 0 -4852.23 0 0 -36.5865 0 0 36.5865
0 0 9576.12 0 0 -9576.12 0 0 5716.9 0 0 -5716.9 0 0 203.433 0 0 -203.433
0 0 9414.18 0 0 -9414.18 0 0 6480.1 0 0 -6480.1 0 0 457.848 0 0 -457.848
0 0 9174.91 0 0 -9174.91 0 0 7118.16 0 0 -7118.16 0 0 732.235 0 0 -732.235
0 0 8858.47 0 0 -8858.47 0 0 7620.78 0 0 -7620.78 0 0 1021.45 0 0 -1021.45
0 0 8468.34 0 0 -8468.34 0 0 7977.21 0 0 -7977.21 0 0 1322.61 0 0 -1322.61
0 0 8013.25 0 0 -8013.25 0 0 8186.49 0 0 -8186.49 0 0 1630.87 0 0 -1630.87
0 0 7509.32 0 0 -7509.32 0 0 8250.75 0 0 -8250.75 0 0 1940.49 0 0 -1940.49
0 0 6973.94 0 0 -6973.94 0 0 8178.6 0 0 -8178.6 0 0 2244.93 0 0 -2244.93
0 0 6421.57 0 0 -6421.57 0 0 7984.41 0 0 -7984.41 0 0 2536.85 0 0 -2536.85
0 0 5863.65 0 0 -5863.65 0 0 7687.55 0 0 -7687.55 0 0 2808.67 0 0 -2808.67
0 0 5311.59 0 0 -5311.59 0 0 7310.37 0 0 -7310.37 0 0 3052.54 0 0 -3052.54
0 0 4778.51 0 0 -4778.51 0 0 6876.6 0 0 -6876.6 0 0 3260.93 0 0 -3260.93
0 0 4279.25 0 0 -4279.25 0 0 6410.04 0 0 -6410.04 0 0 3426.76 0 0 -3426.76
0 0 3829.39 0 0 -3829.39 0 0 5933.39 0 0 -5933.39 0 0 3543.87 0 0 -3543.87
0 0 3442.82 0 0 -3442.82 0 0 5467.28 0 0 -5467.28 0 0 3607.18 0 0 -3607.18
0 0 3129.28 0 0 -3129.28 0 0 5029.54 0 0 -5029.54 0 0 3610.95 0 0 -3610.95
0 0 2893.6 0 0 -2893.6 0 0 4631.41 0 0 -4631.41 0 0 3545.68 0 0 -3545.68
0 0 2734.32 0 0 -2734.32 0 0 4283.27 0 0 -4283.27 0 0 3409.14 0 0 -3409.14
0 0 2646.2 0 0 -2646.2 0 0 3990.47 0 0 -3990.47 0 0 3203.07 0 0 -3203.07
0 0 2623.18 0 0 -2623.18 0 0 3753.06 0 0 -3753.06 0 0 2930.96 0 0 -2930.96
0 0 2659.7 0 0 -2659.7 0 0 3565.27 0 0 -3565.27 0 0 2598.47 0 0 -2598.47
0 0 2749.11 0 0 -2749.11 0 0 3416.85 0 0 -3416.85 0 0 2213.06 0 0 -2213.06
0 0 2881.02 0 0 -2881.02 0 0 3293.99 0 0 -3293.99 0 0 1783.75 0 0 -1783.75
0 0 3038.77 0 0 -3038.77 0 0 3180.89 0 0 -3180.89 0 0 1320.69 0 0 -1320.69
0 0 3202.07 0 0 -3202.07 0 0 3060.33 0 0 -3060.33 0 0 834.877 0 0 -834.877
0 0 3351.29 0 0 -3351.29 0 0 2914.28 0 0 -2914.28 0 0 337.795 0 0 -337.795
0 0 3468.44 0 0 -3468.44 0 0 2726.08 0 0 -2726.08 0 0 -127.544 0 0 127.544
0 0 3531.13 0 0 -3531.13 0 0 2504.89 0 0 -2504.89 0 0 -557.604 0 0 557.604
0 0 3531.21 0 0 -3531.21 0 0 2195.96 0 0 -2195.96 0 0 -961.644 0 0 961.644
0 0 3522.42 0 0 -3522.42 0 0 1796.89 0 0 -1796.89 0 0 -1340.68 0 0 1340.68
0 0 3378.33 0 0 -3378.33 0 0 1318.33 0 0 -1318.33 0 0 -1687.27 0 0 1687.27
0 0 3102.87 0 0 -3102.87 0 0 750.452 0 0 -750.452 0 0 -1995.73 0 0 1995.73
0 0 2688.97 0 0 -2688.97 0 0 108.005 0 0 -108.005 0 0 -2262.68 0 0 2262.68
0 0 2140.41 0 0 -2140.41 0 0 -610.877 0 0 610.877 0 0 -2484.82 0 0 2484.82
0 0 1473.2 0 0 -1473.2 0 0 -1397.04 0 0 1397.04 0 0 -2661.43 0 0 2661.43
0 0 715.394 0 0 -715.394 0 0 -2238.76 0 0 2238.76 0 0 -2792.5 0 0 2792.5
0 0 -97.5181 0 0 97.5181 0 0 -3121.99 0 0 3121.99 0 0 -2879.62 0 0 2879.62
0 0 -937.084 0 0 937.084 0 0 -4027.86 0 0 4027.86 0 0 -2925.5 0 0 2925.5
0 0 -1775.38 0 0 1775.38 0 0 -4938.3 0 0 4938.3 0 0 -2933.26 0 0 2933.26
0 0 -2594.17 0 0 2594.17 0 0 -5825.39 0 0 5825.39 0 0 -2905.12 0 0 2905.12
0 0 -3371.5 0 0 3371.5 0 0 -6663.5 0 0 6663.5 0 0 -2845.99 0 0 2845.99
0 0 -4216.98 0 0 4216.98 0 0 -7403.25 0 0 7403.25 0 0 -2764 0 0 2764
0 0 -4969.47 0 0 4969.47 0 0 -8050.03 0 0 8050.03 0 0 -2663.74 0 0 2663.74
0 0 -5617.22 0 0 5617.22 0 0 -8575.15 0 0 8575.15 0 0 -2552.14 0 0 2552.14
0 0 -6136.51 0 0 6136.51 0 0 -8967.15 0 0 8967.15 0 0 -2434.28 0 0 2434.28
0 0 -6506.58 0 0 6506.58 0 0 -9209.71 0 0 9209.71 0 0 -2315.78 0 0 2315.78
0 0 -6713.7 0 0 6713.7 0 0 -9294.29 0 0 9294.29 0 0 -2200.4 0 0 2200.4
0 0 -6748.17 0 0 6748.17 0 0 -9214.64 0 0 9214.64 0 0 -2091.44 0 0 2091.44
0 0 -6608.12 0 0 6608.12 0 0 -8968.97 0 0 8968.97 0 0 -1990.87 0 0 1990.87
0 0 -6321.39 0 0 6321.39 0 0 -8556.62 0 0 8556.62 0 0 -1899.69 0 0 1899.69
0 0 -5917.48 0 0 5917.48 0 0 -7982.53 0 0 7982.53 0 0 -1817.69 0 0 1817.69
0 0 -5417.71 0 0 5417.71 0 0 -7259.93 0 0 7259.93 0 0 -1743.09 0 0 1743.09
0 0 -4835.26 0 0 4835.26 0 0 -6408.24 0 0 6408.24 0 0 -1673.13 0 0 1673.13
0 0 -4086.5 0 0 4086.5 0 0 -5468.97 0 0 5468.97 0 0 -1603.08 0 0 1603.08
0 0 -3300.43 0 0 3300.43 0 0 -4446.4 0 0 4446.4 0 0 -1529.91 0 0 1529.91
0 0 -2481.68 0 0 2481.68 0 0 -3375.1 0 0 3375.1 0 0 -1448.57 0 0 1448.57
0 0 -1652.99 0 0 1652.99 0 0 -2281.13 0 0 2281.13 0 0 -1354.77 0 0 1354.77
0 0 -836.351 0 0 836.351 0 0 -1194.6 0 0 1194.6 0 0 -1243.74 0 0 1243.74
0 0 -51.9199 0 0 51.9199 0 0 -142.712 0 0 142.712 0 0 -1111.8 0 0 1111.8
0 0 656.899 0 0 -656.899 0 0 852.183 0 0 -852.183 0 0 -954.363 0 0 954.363
0 0 1297.54 0 0 -1297.54 0 0 1767.46 0 0 -1767.46 0 0 -771.233 0 0 771.233
0 0 1876.98 0 0 -1876.98 0 0 2582.33 0 0 -2582.33 0 0 -560.657 0 0 560.657
0 0 2412.58 0 0 -2412.58 0 0 3276.77 0 0 -3276.77 0 0 -323.633 0 0 323.633
0 0 2916.11 0 0 -2916.11 0 0 3839.52 0 0 -3839.52 0 0 -62.7597 0 0 62.7597
0 0 3402.54 0 0 -3402.54 0 0 4259.02 0 0 -4259.02 0 0 190.795 0 0 -190.795
0 0 3888.47 0 0 -3888.47 0 0 4544.51 0 0 -4544.51 0 0 455.766 0 0 -455.766
0 0 4187.19 0 0 -4187.19 0 0 4739.77 0 0 -4739.77 0 0 730.085 0 0 -730.085
0 0 4266.23 0 0 -4266.23 0 0 4886.42 0 0 -4886.42 0 0 1004.17 0 0 -1004.17
0 0 4354.86 0 0 -4354.86 0 0 4922.02 0 0 -4922.02 0 0 1278.15 0 0 -1278.15
0 0 4455.81 0 0 -4455.81 0 0 4899.89 0 0 -4899.89 0 0 1540.84 0 0 -1540.84
0 0 4593.75 0 0 -4593.75 0 0 4823.75 0 0 -4823.75 0 0 1788.53 0 0 -1788.53
0 0 4787.23 0 0 -4787.23 0 0 4721.16 0 0 -4721.16 0 0 2012.79 0 0 -2012.79
0 0 5048.88 0 0 -5048.88 0 0 4614.03 0 0 -4614.03 0 0 2207.82 0 0 -2207.82
0 0 5388.39 0 0 -5388.39 0 0 4527.38 0 0 -4527.38 0 0 2367.55 0 0 -2367.55
0 0 5810.3 0 0 -5810.3 0 0 4483.18 0 0 -4483.18 0 0 2487.15 0 0 -2487.15
0 0 6315.7 0 0 -6315.7 0 0 4500.66 0 0 -4500.66 0 0 2562.81 0 0 -2562.81
0 0 6900.84 0 0 -6900.84 0 0 4595.08 0 0 -4595.08 0 0 2592.19 0 0 -2592.19
0 0 7562.29 0 0 -7562.29 0 0 4775.3 0 0 -4775.3 0 0 2570.9 0 0 -2570.9
0 0 8297.2 0 0 -8297.2 0 0 5041.98 0 0 -5041.98 0 0 2497.16 0 0 -2497.16
0 0 9099.51 0 0 -9099.51 0 0 5392.99 0 0 -5392.99 0 0 2373.74 0 0 -2373.74
0 0 9959.71 0 0 -9959.71 0 0 5819.25 0 0 -5819.25 0 0 2205.54 0 0 -2205.54
0 0 10863.4 0 0 -10863.4 0 0 6307.63 0 0 -6307.63 0 0 1998.99 0 0 -1998.99
0 0 11790.4 0 0 -11790.4 0 0 6840.8 0 0 -6840.8 0 0 1761.9 0 0 -1761.9
0 0 12674.7 0 0 -12674.7 0 0 7407 0 0 -7407 0 0 1502.63 0 0 -1502.63
0 0 13515.5 0 0 -13515.5 0 0 7977.14 0 0 -7977.14 0 0 1231.18 0 0 -1231.18
0 0 14310.6 0 0 -14310.6 0 0 8523.33 0 0 -8523.33 0 0 957.657 0 0 -957.657
0 0 15061.1 0 0 -15061.1 0 0 9016.45 0 0 -9016.45 0 0 692.18 0 0 -692.18
0 0 15768.5 0 0 -15768.5 0 0 9430.4 0 0 -9430.4 0 0 444.167 0 0 -444.167
0 0 16434.7 0 0 -16434.7 0 0 9742.99 0 0 -9742.99 0 0 222.046 0 0 -222.046
0 0 17060.1 0 0 -17060.1 0 0 9938.25 0 0 -9938.25 0 0 32.769 0 0 -32.769
0 0 17642 0 0 -17642 0 0 10010.8 0 0 -10010.8 0 0 -105.844 0 0 105.844
0 0 18115.5 0 0 -18115.5 0 0 9966.77 0 0 -9966.77 0 0 -202.399 0 0 202.399
0 0 18278.2 0 0 -18278.2 0 0 9847.66 0 0 -9847.66 0 0 -263.861 0 0 263.861
0 0 18372.1 0 0 -18372.1 0 0 9603.74 0 0 -9603.74 0 0 -287.79 0 0 287.79
0 0 18346.2 0 0 -18346.2 0 0 9276.05 0 0 -9276.05 0 0 -274.375 0 0 274.375
0 0 18230.1 0 0 -18230.1 0 0 8864.35 0 0 -8864.35 0 0 -222.705 0 0 222.705
0 0 18036.6 0 0 -18036.6 0 0 8395.32 0 0 -8395.32 0 0 -138.356 0 0 138.356
0 0 17791.5 0 0 -17791.5 0 0 7888.75 0 0 -7888.75 0 0 -27.9783 0 0 27.9783
0 0 17517.1 0 0 -17517.1 0 0 7369.43 0 0 -7369.43 0 0 95.6975 0 0 -95.6975
0 0 17238.8 0 0 -17238.8 0 0 6864.78 0 0 -6864.78 0 0 231.169 0 0 -231.169
0 0 16981.6 0 0 -16981.6 0 0 6402.06 0 0 -6402.06 0 0 373.705 0 0 -373.705
0 0 16772.3 0 0 -16772.3 0 0 6005.68 0 0 -6005.68 0 0 516.661 0 0 -516.661
0 0 16635.9 0 0 -16635.9 0 0 5698.22 0 0 -5698.22 0 0 653.993 0 0 -653.993
0 0 16595.2 0 0 -16595.2 0 0 5498.71 0 0 -5498.71 0 0 780.701 0 0 -780.701
0 0 16669.7 0 0 -16669.7 0 0 5422.15 0 0 -5422.15 0 0 892.251 0 0 -892.251
0 0 16874.3 0 0 -16874.3 0 0 5479.12 0 0 -5479.12 0 0 985.52 0 0 -985.52
0 0 17217.9 0 0 -17217.9 0 0 5675.44 0 0 -5675.44 0 0 1058.39 0 0 -1058.39
0 0 17700.7 0 0 -17700.7 0 0 6011.88 0 0 -6011.88 0 0 1110.18 0 0 -1110.18
0 0 18325.5 0 0 -18325.5 0 0 6482.72 0 0 -6482.72 0 0 1141.42 0 0 -1141.42
0 0 19051 0 0 -19051 0 0 7073.05 0 0 -7073.05 0 0 1154.21 0 0 -1154.21
0 0 19885.5 0 0 -19885.5 0 0 7777.34 0 0 -7777.34 0 0 1150.63 0 0 -1150.63
0 0 20816 0 0 -20816 0 0 8576.59 0 0 -8576.59 0 0 1133.74 0 0 -1133.74
0 0 21800.6 0 0 -21800.6 0 0 9456.23 0 0 -9456.23 0 0 1108.31 0 0 -1108.31
0 0 22770.3 0 0 -22770.3 0 0 10401.4 0 0 -10401.4 0 0 1079.76 0 0 -1079.76
0 0 23689.7 0 0 -23689.7 0 0 11386.6 0 0 -11386.6 0 0 1054.4 0 0 -1054.4
0 0 24524.8 0 0 -24524.8 0 0 12386 0 0 -12386 0 0 1038.59 0 0 -1038.59
0 0 25251.7 0 0 -25251.7 0 0 13369.6 0 0 -13369.6 0 0 1038.91 0 0 -1038.91
0 0 25855.3 0 0 -25855.3 0 0 14306.4 0 0 -14306.4 0 0 1061.39 0 0 -1061.39
0 0 26321.8 0 0 -26321.8 0 0 15166.7 0 0 -15166.7 0 0 1111.34 0 0 -1111.34
0 0 26633.3 0 0 -26633.3 0 0 15924.1 0 0 -15924.1 0 0 1187.29 0 0 -1187.29
0 0 26767.6 0 0 -26767.6 0 0 16555.6 0 0 -16555.6 0 0 1291.99 0 0 -1291.99
0 0 26697.9 0 0 -26697.9 0 0 17048.1 0 0 -17048.1 0 0 1429.17 0 0 -1429.17
0 0 26407.8 0 0 -26407.8 0 0 17385.4 0 0 -17385.4 0 0 1598.38 0 0 -1598.38
0 0 25885 0 0 -25885 0 0 17562.2 0 0 -17562.2 0 0 1797.78 0 0 -1797.78
0 0 25120.2 0 0 -25120.2 0 0 17576.8 0 0 -17576.8 0 0 2023.87 0 0 -2023.87
0 0 24107.9 0 0 -24107.9 0 0 17433 0 0 -17433 0 0 2271.77 0 0 -2271.77
0 0 22851.6 0 0 -22851.6 0 0 17137.7 0 0 -17137.7 0 0 2535.32 0 0 -2535.32
0 0 21365.9 0 0 -21365.9 0 0 16700.2 0 0 -16700.2 0 0 2807.39 0 0 -2807.39
0 0 19676.6 0 0 -19676.6 0 0 16131.7 0 0 -16131.7 0 0 3080.01 0 0 -3080.01
0 0 17817.7 0 0 -17817.7 0 0 15444.9 0 0 -15444.9 0 0 3344.67 0 0 -3344.67
0 0 15826.3 0 0 -15826.3 0 0 14654.3 0 0 -14654.3 0 0 3592.53 0 0 -3592.53
0 0 13739.9 0 0 -13739.9 0 0 13775.9 0 0 -13775.9 0 0 3814.65 0 0 -3814.65
0 0 11598.7 0 0 -11598.7 0 0 12826 0 0 -12826 0 0 4002.31 0 0 -4002.31
0 0 9446.1 0 0 -9446.1 0 0 11820.6 0 0 -11820.6 0 0 4147.32 0 0 -4147.32
0 0 7325.45 0 0 -7325.45 0 0 10775.1 0 0 -10775.1 0 0 4242.22 0 0 -4242.22
0 0 5274 0 0 -5274 0 0 9705.05 0 0 -9705.05 0 0 4280.51 0 0 -4280.51
0 0 3319.17 0 0 -3319.17 0 0 8625.26 0 0 -8625.26 0 0 4253.22 0 0 -4253.22
0 0 1478.91 0 0 -1478.91 0 0 7548.42 0 0 -7548.42 0 0 4153.46 0 0 -4153.46
0 0 -204.602 0 0 204.602 0 0 6488.41 0 0 -6488.41 0 0 3978.38 0 0 -3978.38
0 0 -1731.97 0 0 1731.97 0 0 5475.27 0 0 -5475.27 0 0 3725.84 0 0 -3725.84
0 0 -2742.87 0 0 2742.87 0 0 4413.39 0 0 -4413.39 0 0 3403.49 0 0 -3403.49
0 0 -3660.76 0 0 3660.76 0 0 3423.45 0 0 -3423.45 0 0 3006.69 0 0 -3006.69
0 0 -4414.26 0 0 4414.26 0 0 2457.99 0 0 -2457.99 0 0 2544.58 0 0 -2544.58
0 0 -5032.06 0 0 5032.06 0 0 1549.82 0 0 -1549.82 0 0 2019.97 0 0 -2019.97
0 0 -5523.56 0 0 5523.56 0 0 689.639 0 0 -689.639 0 0 1443.94 0 0 -1443.94
0 0 -5902.1 0 0 5902.1 0 0 -122.165 0 0 122.165 0 0 823.854 0 0 -823.854
0 0 -6188.06 0 0 6188.06 0 0 -882.704 0 0 882.704 0 0 172.349 0 0 -172.349
0 0 -6420 0 0 6420 0 0 -1583.15 0 0 1583.15 0 0 -406.157 0 0 406.157
0 0 -6629.94 0 0 6629.94 0 0 -2233.8 0 0 2233.8 0 0 -975.094 0 0 975.094
0 0 -6838.81 0 0 6838.81 0 0 -2872.11 0 0 2872.11 0 0 -1544.98 0 0 1544.98
0 0 -7093.19 0 0 7093.19 0 0 -3494.62 0 0 3494.62 0 0 -2101.42 0 0 2101.42
0 0 -7420.43 0 0 7420.43 0 0 -4113.11 0 0 4113.11 0 0 -2637.79 0 0 2637.79
0 0 -7844.12 0 0 7844.12 0 0 -4740.94 0 0 4740.94 0 0 -3143.02 0 0 3143.02
0 0 -8382.79 0 0 8382.79 0 0 -5388.62 0 0 5388.62 0 0 -3609.38 0 0 3609.38
0 0 -9047.01 0 0 9047.01 0 0 -6067.51 0 0 6067.51 0 0 -4028.86 0 0 4028.86
0 0 -9842.43 0 0 9842.43 0 0 -6786.54 0 0 6786.54 0 0 -4394.69 0 0 4394.69
0 0 -10770.4 0 0 10770.4 0 0 -7551.89 0 0 7551.89 0 0 -4701.96 0 0 4701.96
0 0 -11827.7 0 0 11827.7 0 0 -8366.62 0 0 8366.62 0 0 -4946.95 0 0 4946.95
0 0 -13006.4 0 0 13006.4 0 0 -9229.7 0 0 9229.7 0 0 -5127.74 0 0 5127.74
0 0 -14294.8 0 0 14294.8 0 0 -10135.7 0 0 10135.7 0 0 -5244.07 0 0 5244.07
0 0 -15679.6 0 0 15679.6 0 0 -11074.7 0 0 11074.7 0 0 -5297.32 0 0 5297.32
0 0 -17148.6 0 0 17148.6 0 0 -12032.4 0 0 12032.4 0 0 -5287.46 0 0 5287.46
0 0 -18690 0 0 18690 0 0 -12987.1 0 0 12987.1 0 0 -5213.34 0 0 5213.34
0 0 -20288.6 0 0 20288.6 0 0 -13920.1 0 0 13920.1 0 0 -5080.72 0 0 5080.72
0 0 -21925.4 0 0 21925.4 0 0 -14810.1 0 0 14810.1 0 0 -4898 0 0 4898
0 0 -23578.1 0 0 23578.1 0 0 -15637.3 0 0 15637.3 0 0 -4674.01 0 0 4674.01
0 0 -25224 0 0 25224 0 0 -16382.2 0 0 16382.2 0 0 -4418.28 0 0 4418.28
0 0 -26841.4 0 0 26841.4 0 0 -17027.7 0 0 17027.7 0 0 -4140.39 0 0 4140.39
0 0 -28408 0 0 28408 0 0 -17559.5 0 0 17559.5 0 0 -3849.78 0 0 3849.78
0 0 -29899.1 0 0 29899.1 0 0 -17968 0 0 17968 0 0 -3555.33 0 0 3555.33
0 0 -31288.7 0 0 31288.7 0 0 -18248.3 0 0 18248.3 0 0 -3265.15 0 0 3265.15
0 0 -32552.3 0 0 32552.3 0 0 -18399.9 0 0 18399.9 0 0 -2986.39 0 0 2986.39
0 0 -33670.5 0 0 33670.5 0 0 -18426 0 0 18426 0 0 -2725.15 0 0 2725.15
0 0 -34631.2 0 0 34631.2 0 0 -18333.5 0 0 18333.5 0 0 -2486.36 0 0 2486.36
0 0 -35433 0 0 35433 0 0 -18131.4 0 0 18131.4 0 0 -2273.78 0 0 2273.78
0 0 -36086.2 0 0 36086.2 0 0 -17830.9 0 0 17830.9 0 0 -2089.99 0 0 2089.99
0 0 -36609.8 0 0 36609.8 0 0 -17445.8 0 0 17445.8 0 0 -1936.36 0 0 1936.36
0 0 -37027.4 0 0 37027.4 0 0 -16992.5 0 0 16992.5 0 0 -1813.06 0 0 1813.06
0 0 -37364.6 0 0 37364.6 0 0 -16490.6 0 0 16490.6 0 0 -1719.16 0 0 1719.16
0 0 -37645.8 0 0 37645.8 0 0 -15962.3 0 0 15962.3 0 0 -1652.7 0 0 1652.7
0 0 -37892.7 0 0 37892.7 0 0 -15432.3 0 0 15432.3 0 0 -1610.9 0 0 1610.9
0 0 -38124.3 0 0 38124.3 0 0 -14926.6 0 0 14926.6 0 0 -1590.41 0 0 1590.41
0 0 -38358.2 0 0 38358.2 0 0 -14471 0 0 14471 0 0 -1587.54 0 0 1587.54
0 0 -38610.7 0 0 38610.7 0 0 -14090 0 0 14090 0 0 -1598.57 0 0 1598.57
0 0 -38895.7 0 0 38895.7 0 0 -13806 0 0 13806 0 0 -1619.99 0 0 1619.99
0 0 -39224.1 0 0 39224.1 0 0 -13638 0 0 13638 0 0 -1648.71 0 0 1648.71
0 0 -39602 0 0 39602 0 0 -13601.3 0 0 13601.3 0 0 -1682.29 0 0 1682.29
0 0 -40031 0 0 40031 0 0 -13706.5 0 0 13706.5 0 0 -1719.08 0 0 1719.08
0 0 -40508.9 0 0 40508.9 0 0 -13958.9 0 0 13958.9 0 0 -1758.33 0 0 1758.33
0 0 -41029.3 0 0 41029.3 0 0 -14357.9 0 0 14357.9 0 0 -1800.31 0 0 1800.31
0 0 -41575.5 0 0 41575.5 0 0 -14898.3 0 0 14898.3 0 0 -1846.18 0 0 1846.18
0 0 -42032 0 0 42032 0 0 -15586.6 0 0 15586.6 0 0 -1897.11 0 0 1897.11
0 0 -42382.6 0 0 42382.6 0 0 -16402.3 0 0 16402.3 0 0 -1956.29 0 0 1956.29
0 0 -42619.4 0 0 42619.4 0 0 -17317.3 0 0 17317.3 0 0 -2027.95 0 0 2027.95
0 0 -42742.9 0 0 42742.9 0 0 -18296.7 0 0 18296.7 0 0 -2116.78 0 0 2116.78
0 0 -42750 0 0 42750 0 0 -19302.6 0 0 19302.6 0 0 -2227.54 0 0 2227.54
0 0 -42631.5 0 0 42631.5 0 0 -20295.4 0 0 20295.4 0 0 -2364.83 0 0 2364.83
0 0 -42374.4 0 0 42374.4 0 0 -21237.9 0 0 21237.9 0 0 -2532.38 0 0 2532.38
0 0 -41962.4 0 0 41962.4 0 0 -22095.4 0 0 22095.4 0 0 -2732.91 0 0 2732.91
0 0 -41374.4 0 0 41374.4 0 0 -22838 0 0 22838 0 0 -2967.75 0 0 2967.75
0 0 -40584.1 0 0 40584.1 0 0 -23440.8 0 0 23440.8 0 0 -3236.66 0 0 3236.66
0 0 -39562.4 0 0 39562.4 0 0 -23885.3 0 0 23885.3 0 0 -3537.71 0 0 3537.71
0 0 -38281.9 0 0 38281.9 0 0 -24157.8 0 0 24157.8 0 0 -3867.26 0 0 3867.26
0 0 -36719.9 0 0 36719.9 0 0 -24249.7 0 0 24249.7 0 0 -4220.06 0 0 4220.06
0 0 -34859.2 0 0 34859.2 0 0 -24156.7 0 0 24156.7 0 0 -4589.32 0 0 4589.32
0 0 -32692.2 0 0 32692.2 0 0 -23877.9 0 0 23877.9 0 0 -4966.97 0 0 4966.97
0 0 -30225.7 0 0 30225.7 0 0 -23413.7 0 0 23413.7 0 0 -5325.55 0 0 5325.55
0 0 -27485.8 0 0 27485.8 0 0 -22743.5 0 0 22743.5 0 0 -5641.13 0 0 5641.13
0 0 -24497.5 0 0 24497.5 0 0 -21907.6 0 0 21907.6 0 0 -5933.16 0 0 5933.16
0 0 -21307 0 0 21307 0 0 -20892.7 0 0 20892.7 0 0 -6202.02 0 0 6202.02
0 0 -17953 0 0 17953 0 0 -19719 0 0 19719 0 0 -6434.94 0 0 6434.94
0 0 -14476.7 0 0 14476.7 0 0 -18393.2 0 0 18393.2 0 0 -6623.95 0 0 6623.95
0 0 -10909.3 0 0 10909.3 0 0 -16932.3 0 0 16932.3 0 0 -6760.19 0 0 6760.19
0 0 -7278.31 0 0 7278.31 0 0 -15352.4 0 0 15352.4 0 0 -6835.31 0 0 6835.31
0 0 -3750.64 0 0 3750.64 0 0 -13655.3 0 0 13655.3 0 0 -6839.7 0 0 6839.7
0 0 -1218.34 0 0 1218.34 0 0 -11680.7 0 0 11680.7 0 0 -6768.85 0 0 6768.85
0 0 1348.5 0 0 -1348.5 0 0 -9736.61 0 0 9736.61 0 0 -6592.08 0 0 6592.08
0 0 3823.32 0 0 -3823.32 0 0 -7762.15 0 0 7762.15 0 0 -6315.1 0 0 6315.1
0 0 6164.81 0 0 -6164.81 0 0 -5776.78 0 0 5776.78 0 0 -5932.5 0 0 5932.5
0 0 8368.96 0 0 -8368.96 0 0 -3816.65 0 0 3816.65 0 0 -5442.77 0 0 5442.77
0 0 10413.2 0 0 -10413.2 0 0 -1893 0 0 1893 0 0 -4848.66 0 0 4848.66
0 0 12290.6 0 0 -12290.6 0 0 -17.6242 0 0 17.6242 0 0 -4155.36 0 0 4155.36
0 0 13998 0 0 -13998 0 0 1816.94 0 0 -1816.94 0 0 -3368.49 0 0 3368.49
0 0 15533 0 0 -15533 0 0 3598.65 0 0 -3598.65 0 0 -2498.77 0 0 2498.77
0 0 16904.6 0 0 -16904.6 0 0 5321.53 0 0 -5321.53 0 0 -1559.38 0 0 1559.38
0 0 18132.6 0 0 -18132.6 0 0 6983.68 0 0 -6983.68 0 0 -564.039 0 0 564.039
0 0 19243 0 0 -19243 0 0 8581.34 0 0 -8581.34 0 0 369.72 0 0 -369.72
0 0 20287.3 0 0 -20287.3 0 0 10060 0 0 -10060 0 0 1267.8 0 0 -1267.8
0 0 21263.2 0 0 -21263.2 0 0 11541.9 0 0 -11541.9 0 0 2167.19 0 0 -2167.19
0 0 22244.5 0 0 -22244.5 0 0 12974.5 0 0 -12974.5 0 0 3058.38 0 0 -3058.38
0 0 23253.8 0 0 -23253.8 0 0 14392.7 0 0 -14392.7 0 0 3930.6 0 0 -3930.6
0 0 24335.3 0 0 -24335.3 0 0 15800.6 0 0 -15800.6 0 0 4767.42 0 0 -4767.42
0 0 25522.5 0 0 -25522.5 0 0 17210.9 0 0 -17210.9 0 0 5558.53 0 0 -5558.53
0 0 26844.2 0 0 -26844.2 0 0 18633.3 0 0 -18633.3 0 0 6290.66 0 0 -6290.66
0 0 28322.5 0 0 -28322.5 0 0 20076.3 0 0 -20076.3 0 0 6954.04 0 0 -6954.04
0 0 29973 0 0 -29973 0 0 21546.8 0 0 -21546.8 0 0 7539.57 0 0 -7539.57
0 0 31817 0 0 -31817 0 0 23013.3 0 0 -23013.3 0 0 7764.93 0 0 -7764.93
0 0 33898.9 0 0 -33898.9 0 0 24336.8 0 0 -24336.8 0 0 7783.36 0 0 -7783.36
0 0 36101.2 0 0 -36101.2 0 0 25853.7 0 0 -25853.7 0 0 7795.66 0 0 -7795.66
0 0 38505.7 0 0 -38505.7 0 0 27337.6 0 0 -27337.6 0 0 7805.82 0 0 -7805.82
0 0 41031 0 0 -41031 0 0 28901.6 0 0 -28901.6 0 0 7812.33 0 0 -7812.33
0 0 43683.8 0 0 -43683.8 0 0 30470.9 0 0 -30470.9 0 0 7815.84 0 0 -7815.84
0 0 46420.5 0 0 -46420.5 0 0 32058.9 0 0 -32058.9 0 0 7806.76 0 0 -7806.76
0 0 49226.2 0 0 -49226.2 0 0 33612.3 0 0 -33612.3 0 0 7730.79 0 0 -7730.79
0 0 52068.6 0 0 -52068.6 0 0 35111.5 0 0 -35111.5 0 0 7581.9 0 0 -7581.9
0 0 54913.9 0 0 -54913.9 0 0 36537.3 0 0 -36537.3 0 0 7372.1 0 0 -7372.1
0 0 57679.6 0 0 -57679.6 0 0 37879.3 0 0 -37879.3 0 0 7112.33 0 0 -7112.33
0 0 59512.5 0 0 -59512.5 0 0 39262.3 0 0 -39262.3 0 0 6807.47 0 0 -6807.47
0 0 61341.6 0 0 -61341.6 0 0 40464.9 0 0 -40464.9 0 0 6480.25 0 0 -6480.25
0 0 62962.2 0 0 -62962.2 0 0 41506.9 0 0 -41506.9 0 0 6143.39 0 0 -6143.39
0 0 61772.2 0 0 -61772.2 0 0 42239.4 0 0 -42239.4 0 0 5819.39 0 0 -5819.39
0 0 12108.8 0 0 -12108.8 0 0 33208.2 0 0 -33208.2 0 0 6109.42 0 0 -6109.42
0 0 -267.402 0 0 267.402 0 0 27481.1 0 0 -27481.1 0 0 6646.82 0 0 -6646.82
0 0 6657.03 0 0 -6657.03 0 0 29642 0 0 -29642 0 0 5538.34 0 0 -5538.34
0 0 9308.77 0 0 -9308.77 0 0 30368.9 0 0 -30368.9 0 0 5303.39 0 0 -5303.39
0 0 12108.8 0 0 -12108.8 0 0 30636.2 0 0 -30636.2 0 0 4781.06 0 0 -4781.06
0 0 12108.8 0 0 -12108.8 0 0 30608.2 0 0 -30608.2 0 0 4249.74 0 0 -4249.74
0 0 12108.8 0 0 -12108.8 0 0 30678.6 0 0 -30678.6 0 0 3775.37 0 0 -3775.37
0 0 12108.8 0 0 -12108.8 0 0 30910.6 0 0 -30910.6 0 0 3240.08 0 0 -3240.08
0 0 12108.8 0 0 -12108.8 0 0 31181.7 0 0 -31181.7 0 0 2752.34 0 0 -2752.34
0 0 12108.8 0 0 -12108.8 0 0 31347.1 0 0 -31347.1 0 0 2285.14 0 0 -2285.14
0 0 1438.33 0 0 -1438.33 0 0 29515.8 0 0 -29515.8 0 0 2035.04 0 0 -2035.04
0 0 4978.81 0 0 -4978.81 0 0 28315.8 0 0 -28315.8 0 0 1628.38 0 0 -1628.38
0 0 10346 0 0 -10346 0 0 30313.3 0 0 -30313.3 0 0 1030.03 0 0 -1030.03
0 0 12108.8 0 0 -12108.8 0 0 31964.2 0 0 -31964.2 0 0 619.299 0 0 -619.299
0 0 12108.8 0 0 -12108.8 0 0 33294.1 0 0 -33294.1 0 0 96.5866 0 0 -96.5866
0 0 12108.8 0 0 -12108.8 0 0 35211.3 0 0 -35211.3 0 0 -242.832 0 0 242.832
0 0 12108.8 0 0 -12108.8 0 0 35109.8 0 0 -35109.8 0 0 -410.873 0 0 410.873
0 0 12108.8 0 0 -12108.8 0 0 35168.2 0 0 -35168.2 0 0 -558.881 0 0 558.881
0 0 12108.8 0 0 -12108.8 0 0 35267.2 0 0 -35267.2 0 0 -664.226 0 0 664.226
0 0 12108.8 0 0 -12108.8 0 0 35396.1 0 0 -35396.1 0 0 -713.136 0 0 713.136
0 0 12108.8 0 0 -12108.8 0 0 35716.1 0 0 -35716.1 0 0 -727.202 0 0 727.202
0 0 12108.8 0 0 -12108.8 0 0 36129.6 0 0 -36129.6 0 0 -674.675 0 0 674.675
0 0 12108.8 0 0 -12108.8 0 0 36652.1 0 0 -36652.1 0 0 -555.693 0 0 555.693
0 0 12108.8 0 0 -12108.8 0 0 37276.7 0 0 -37276.7 0 0 -364.506 0 0 364.506
0 0 12108.8 0 0 -12108.8 0 0 38046.6 0 0 -38046.6 0 0 -107.312 0 0 107.312
0 0 12108.8 0 0 -12108.8 0 0 38898.4 0 0 -38898.4 0 0 211.991 0 0 -211.991
0 0 12108.8 0 0 -12108.8 0 0 39824.9 0 0 -39824.9 0 0 595.312 0 0 -595.312
0 0 12108.8 0 0 -12108.8 0 0 40845.9 0 0 -40845.9 0 0 1037.49 0 0 -1037.49
0 0 12108.8 0 0 -12108.8 0 0 41937.9 0 0 -41937.9 0 0 1537.4 0 0 -1537.4
0 0 12108.8 0 0 -12108.8 0 0 43066.2 0 0 -43066.2 0 0 2091.74 0 0 -2091.74
0 0 12108.8 0 0 -12108.8 0 0 44215.8 0 0 -44215.8 0 0 2688.15 0 0 -2688.15
0 0 12108.8 0 0 -12108.8 0 0 44640.6 0 0 -44640.6 0 0 3252.53 0 0 -3252.53
0 0 12108.8 0 0 -12108.8 0 0 45399 0 0 -45399 0 0 3708.65 0 0 -3708.65
0 0 12108.8 0 0 -12108.8 0 0 45951.5 0 0 -45951.5 0 0 4307.5 0 0 -4307.5
0 0 12108.8 0 0 -12108.8 0 0 46427.6 0 0 -46427.6 0 0 4941.61 0 0 -4941.61
0 0 11300.4 0 0 -11300.4 0 0 32813.7 0 0 -32813.7 0 0 5271.33 0 0 -5271.33
0 0 -36.6278 0 0 36.6278 0 0 8854.56 0 0 -8854.56 0 0 2401.89 0 0 -2401.89
0 0 4370.75 0 0 -4370.75 0 0 -248.18 0 0 248.18 0 0 4213.5 0 0 -4213.5
0 0 2953.86 0 0 -2953.86 0 0 5392.38 0 0 -5392.38 0 0 4389.85 0 0 -4389.85
0 0 4521.35 0 0 -4521.35 0 0 5729.8 0 0 -5729.8 0 0 5489.12 0 0 -5489.12
0 0 4536.4 0 0 -4536.4 0 0 8523.35 0 0 -8523.35 0 0 6092.89 0 0 -6092.89
0 0 4787.88 0 0 -4787.88 0 0 8854.56 0 0 -8854.56 0 0 6679.58 0 0 -6679.58
0 0 4244.44 0 0 -4244.44 0 0 8854.56 0 0 -8854.56 0 0 7011 0 0 -7011
0 0 3990.5 0 0 -3990.5 0 0 8854.56 0 0 -8854.56 0 0 7473.06 0 0 -7473.06
0 0 3633.18 0 0 -3633.18 0 0 8854.56 0 0 -8854.56 0 0 7818.45 0 0 -7818.45
0 0 3154.47 0 0 -3154.47 0 0 8854.56 0 0 -8854.56 0 0 7838.37 0 0 -7838.37
0 0 2770.96 0 0 -2770.96 0 0 8854.56 0 0 -8854.56 0 0 7860.13 0 0 -7860.13
0 0 2180.04 0 0 -2180.04 0 0 8854.56 0 0 -8854.56 0 0 7880.57 0 0 -7880.57
0 0 1574.9 0 0 -1574.9 0 0 8854.56 0 0 -8854.56 0 0 7901.31 0 0 -7901.31
0 0 881.426 0 0 -881.426 0 0 8854.56 0 0 -8854.56 0 0 7922.42 0 0 -7922.42
0 0 59.0194 0 0 -59.0194 0 0 8854.56 0 0 -8854.56 0 0 7942.67 0 0 -7942.67
0 0 -216.851 0 0 216.851 0 0 8854.56 0 0 -8854.56 0 0 7962.83 0 0 -7962.83
0 0 -680.826 0 0 680.826 0 0 6937.63 0 0 -6937.63 0 0 7979.24 0 0 -7979.24
0 0 -1874.31 0 0 1874.31 0 0 2746.73 0 0 -2746.73 0 0 7282.02 0 0 -7282.02
0 0 -1565.61 0 0 1565.61 0 0 989.548 0 0 -989.548 0 0 7605.98 0 0 -7605.98
0 0 -2080.41 0 0 2080.41 0 0 1941.27 0 0 -1941.27 0 0 7985.18 0 0 -7985.18
0 0 -2098.31 0 0 2098.31 0 0 2472.69 0 0 -2472.69 0 0 8007.7 0 0 -8007.7
0 0 -1579.59 0 0 1579.59 0 0 3705.51 0 0 -3705.51 0 0 8030.63 0 0 -8030.63
0 0 -829.767 0 0 829.767 0 0 4895.76 0 0 -4895.76 0 0 8047.87 0 0 -8047.87
0 0 -429.897 0 0 429.897 0 0 6218.87 0 0 -6218.87 0 0 8061.79 0 0 -8061.79
0 0 104.958 0 0 -104.958 0 0 7417.38 0 0 -7417.38 0 0 8078.93 0 0 -8078.93
0 0 672.337 0 0 -672.337 0 0 8447.34 0 0 -8447.34 0 0 8088.9 0 0 -8088.9
0 0 1011.71 0 0 -1011.71 0 0 8854.56 0 0 -8854.56 0 0 8096.6 0 0 -8096.6
0 0 1185.3 0 0 -1185.3 0 0 8854.56 0 0 -8854.56 0 0 7468.12 0 0 -7468.12
0 0 1972.67 0 0 -1972.67 0 0 6977.47 0 0 -6977.47 0 0 1542.76 0 0 -1542.76
0 0 2286.5 0 0 -2286.5 0 0 8854.56 0 0 -8854.56 0 0 718.637 0 0 -718.637
0 0 2403.07 0 0 -2403.07 0 0 8854.56 0 0 -8854.56 0 0 1242.83 0 0 -1242.83
0 0 2486.25 0 0 -2486.25 0 0 8854.56 0 0 -8854.56 0 0 1502.3 0 0 -1502.3
0 0 2111.13 0 0 -2111.13 0 0 8854.56 0 0 -8854.56 0 0 1542.76 0 0 -1542.76
0 0 2035.25 0 0 -2035.25 0 0 8854.56 0 0 -8854.56 0 0 1542.76 0 0 -1542.76
0 0 1568.17 0 0 -1568.17 0 0 8854.56 0 0 -8854.56 0 0 1542.76 0 0 -1542.76
0 0 985.336 0 0 -985.336 0 0 8854.56 0 0 -8854.56 0 0 1542.76 0 0 -1542.76
0 0 335.047 0 0 -335.047 0 0 8854.56 0 0 -8854.56 0 0 1542.76 0 0 -1542.76
0 0 -110.568 0 0 110.568 0 0 8854.56 0 0 -8854.56 0 0 1542.76 0 0 -1542.76
0 0 -535.958 0 0 535.958 0 0 8854.56 0 0 -8854.56 0 0 1542.76 0 0 -1542.76
0 0 -927.157 0 0 927.157 0 0 8852.46 0 0 -8852.46 0 0 1542.76 0 0 -1542.76
0 0 -1366.42 0 0 1366.42 0 0 8730.55 0 0 -8730.55 0 0 1542.76 0 0 -1542.76
0 0 -1852.18 0 0 1852.18 0 0 8659.88 0 0 -8659.88 0 0 1542.76 0 0 -1542.76
0 0 -2363.04 0 0 2363.04 0 0 8429.29 0 0 -8429.29 0 0 1542.76 0 0 -1542.76
0 0 -2917.97 0 0 2917.97 0 0 8091.59 0 0 -8091.59 0 0 1542.76 0 0 -1542.76
0 0 -3525.21 0 0 3525.21 0 0 7648.72 0 0 -7648.72 0 0 1542.76 0 0 -1542.76
0 0 -4157.26 0 0 4157.26 0 0 7080.41 0 0 -7080.41 0 0 1542.76 0 0 -1542.76
0 0 -4819.78 0 0 4819.78 0 0 6499.68 0 0 -6499.68 0 0 1542.76 0 0 -1542.76
0 0 -5485.86 0 0 5485.86 0 0 5810.08 0 0 -5810.08 0 0 1542.76 0 0 -1542.76
0 0 -6119.84 0 0 6119.84 0 0 5518.28 0 0 -5518.28 0 0 1542.76 0 0 -1542.76
0 0 -6732.44 0 0 6732.44 0 0 5128.94 0 0 -5128.94 0 0 1542.76 0 0 -1542.76
0 0 -7386.73 0 0 7386.73 0 0 4695.68 0 0 -4695.68 0 0 1542.76 0 0 -1542.76
0 0 -8029.17 0 0 8029.17 0 0 4174.55 0 0 -4174.55 0 0 1542.76 0 0 -1542.76
0 0 -8690.95 0 0 8690.95 0 0 3582.69 0 0 -3582.69 0 0 1542.76 0 0 -1542.76
0 0 -9345.41 0 0 9345.41 0 0 2913.61 0 0 -2913.61 0 0 1513.39 0 0 -1513.39
0 0 -10002.8 0 0 10002.8 0 0 2138.1 0 0 -2138.1 0 0 1422.97 0 0 -1422.97
0 0 -10519.5 0 0 10519.5 0 0 1453.45 0 0 -1453.45 0 0 1302.42 0 0 -1302.42
0 0 -11029.9 0 0 11029.9 0 0 710.164 0 0 -710.164 0 0 1141.54 0 0 -1141.54
0 0 -11532.5 0 0 11532.5 0 0 -9.33445 0 0 9.33445 0 0 938.424 0 0 -938.424
0 0 -12015.7 0 0 12015.7 0 0 -296.942 0 0 296.942 0 0 730.188 0 0 -730.188
0 0 -12430.2 0 0 12430.2 0 0 -798.488 0 0 798.488 0 0 554.763 0 0 -554.763
0 0 -12836.3 0 0 12836.3 0 0 -1212.95 0 0 1212.95 0 0 288.667 0 0 -288.667
0 0 -13295.9 0 0 13295.9 0 0 -1576.57 0 0 1576.57 0 0 -2.87848 0 0 2.87848
0 0 -13700.4 0 0 13700.4 0 0 -2033.44 0 0 2033.44 0 0 -74.0922 0 0 74.0922
0 0 -14079.3 0 0 14079.3 0 0 -2465.78 0 0 2465.78 0 0 -165.175 0 0 165.175
0 0 -14495.6 0 0 14495.6 0 0 -2831.46 0 0 2831.46 0 0 -263.134 0 0 263.134
0 0 -14866.8 0 0 14866.8 0 0 -3259.52 0 0 3259.52 0 0 -363.492 0 0 363.492
0 0 -15215.7 0 0 15215.7 0 0 -3705.33 0 0 3705.33 0 0 -467.577 0 0 467.577
0 0 -15587.6 0 0 15587.6 0 0 -4119.86 0 0 4119.86 0 0 -585.161 0 0 585.161
0 0 -15943.2 0 0 15943.2 0 0 -4541.82 0 0 4541.82 0 0 -710.528 0 0 710.528
0 0 -16280 0 0 16280 0 0 -5003.65 0 0 5003.65 0 0 -838.883 0 0 838.883
0 0 -16617 0 0 16617 0 0 -5461.03 0 0 5461.03 0 0 -973.17 0 0 973.17
0 0 -16957.6 0 0 16957.6 0 0 -5898.58 0 0 5898.58 0 0 -1115.53 0 0 1115.53
0 0 -17293.8 0 0 17293.8 0 0 -6352.01 0 0 6352.01 0 0 -1261.5 0 0 1261.5
0 0 -17619.1 0 0 17619.1 0 0 -6817.67 0 0 6817.67 0 0 -1410.71 0 0 1410.71
0 0 -17950.3 0 0 17950.3 0 0 -7271.81 0 0 7271.81 0 0 -1565.4 0 0 1565.4
0 0 -18289.3 0 0 18289.3 0 0 -7723.49 0 0 7723.49 0 0 -1723.01 0 0 1723.01
0 0 -18625 0 0 18625 0 0 -8181.96 0 0 8181.96 0 0 -1881.55 0 0 1881.55
0 0 -18969.1 0 0 18969.1 0 0 -8640.92 0 0 8640.92 0 0 -2041.11 0 0 2041.11
0 0 -19325.8 0 0 19325.8 0 0 -9097.25 0 0 9097.25 0 0 -2201.5 0 0 2201.5
0 0 -19690.5 0 0 19690.5 0 0 -9559.01 0 0 9559.01 0 0 -2360.94 0 0 2360.94
0 0 -20066.6 0 0 20066.6 0 0 -10026.4 0 0 10026.4 0 0 -2518.24 0 0 2518.24
0 0 -20459.7 0 0 20459.7 0 0 -10495.8 0 0 10495.8 0 0 -2661.22 0 0 2661.22
0 0 -20871.4 0 0 20871.4 0 0 -10964.6 0 0 10964.6 0 0 -2789.37 0 0 2789.37
0 0 -21300.1 0 0 21300.1 0 0 -11440.4 0 0 11440.4 0 0 -2912.38 0 0 2912.38
0 0 -21741.2 0 0 21741.2 0 0 -11929.9 0 0 11929.9 0 0 -3031.22 0 0 3031.22
0 0 -22199.3 0 0 22199.3 0 0 -12425.8 0 0 12425.8 0 0 -3146.02 0 0 3146.02
0 0 -22672.3 0 0 22672.3 0 0 -12922.7 0 0 12922.7 0 0 -3256.67 0 0 3256.67
0 0 -23142.1 0 0 23142.1 0 0 -13389.9 0 0 13389.9 0 0 -3365.35 0 0 3365.35
0 0 -23636.9 0 0 23636.9 0 0 -13862.8 0 0 13862.8 0 0 -3469.69 0 0 3469.69
0 0 -24132.8 0 0 24132.8 0 0 -14353.2 0 0 14353.2 0 0 -3566.58 0 0 3566.58
0 0 -24628.6 0 0 24628.6 0 0 -14840.7 0 0 14840.7 0 0 -3659.44 0 0 3659.44
0 0 -25144.3 0 0 25144.3 0 0 -15320.9 0 0 15320.9 0 0 -3747.93 0 0 3747.93
0 0 -25660.3 0 0 25660.3 0 0 -15805.3 0 0 15805.3 0 0 -3830.94 0 0 3830.94
0 0 -26166.8 0 0 26166.8 0 0 -16298.8 0 0 16298.8 0 0 -3907.81 0 0 3907.81
0 0 -26644.2 0 0 26644.2 0 0 -16797.4 0 0 16797.4 0 0 -3979.14 0 0 3979.14
0 0 -27099.8 0 0 27099.8 0 0 -17302.5 0 0 17302.5 0 0 -4044.97 0 0 4044.97
0 0 -27534.3 0 0 27534.3 0 0 -17810.5 0 0 17810.5 0 0 -4105.59 0 0 4105.59
0 0 -27949.4 0 0 27949.4 0 0 -18316.1 0 0 18316.1 0 0 -4161.89 0 0 4161.89
0 0 -28350 0 0 28350 0 0 -18816.6 0 0 18816.6 0 0 -4214.18 0 0 4214.18
0 0 -28736.5 0 0 28736.5 0 0 -19309 0 0 19309 0 0 -4263.03 0 0 4263.03
0 0 -29111.8 0 0 29111.8 0 0 -19789.6 0 0 19789.6 0 0 -4309.04 0 0 4309.04
0 0 -29477.4 0 0 29477.4 0 0 -20254.4 0 0 20254.4 0 0 -4352.87 0 0 4352.87
0 0 -29834.5 0 0 29834.5 0 0 -20700.6 0 0 20700.6 0 0 -4395.07 0 0 4395.07
0 0 -30184.3 0 0 30184.3 0 0 -21124.9 0 0 21124.9 0 0 -4436.18 0 0 4436.18
0 0 -30527.3 0 0 30527.3 0 0 -21524.3 0 0 21524.3 0 0 -4476.72 0 0 4476.72
0 0 -30862.9 0 0 30862.9 0 0 -21897 0 0 21897 0 0 -4517.08 0 0 4517.08
0 0 -31189.8 0 0 31189.8 0 0 -22241.8 0 0 22241.8 0 0 -4557.51 0 0 4557.51
0 0 -31506 0 0 31506 0 0 -22557.4 0 0 22557.4 0 0 -4598.28 0 0 4598.28
0 0 -31809.3 0 0 31809.3 0 0 -22843 0 0 22843 0 0 -4639.54 0 0 4639.54
0 0 -32097 0 0 32097 0 0 -23098.7 0 0 23098.7 0 0 -4681.32 0 0 4681.32
0 0 -32366.8 0 0 32366.8 0 0 -23324.7 0 0 23324.7 0 0 -4723.59 0 0 4723.59
0 0 -32616 0 0 32616 0 0 -23521.5 0 0 23521.5 0 0 -4766.23 0 0 4766.23
0 0 -32842.6 0 0 32842.6 0 0 -23689.8 0 0 23689.8 0 0 -4809.05 0 0 4809.05
0 0 -33044.3 0 0 33044.3 0 0 -23829.1 0 0 23829.1 0 0 -4851.9 0 0 4851.9
0 0 -33217.9 0 0 33217.9 0 0 -23928.4 0 0 23928.4 0 0 -4895.44 0 0 4895.44
0 0 -33367.2 0 0 33367.2 0 0 -23988.7 0 0 23988.7 0 0 -4939.64 0 0 4939.64
0 0 -33489 0 0 33489 0 0 -24016.9 0 0 24016.9 0 0 -4983.2 0 0 4983.2
0 0 -33584.2 0 0 33584.2 0 0 -23986.2 0 0 23986.2 0 0 -5025.8 0 0 5025.8
0 0 -33650.4 0 0 33650.4 0 0 -23884 0 0 23884 0 0 -5066 0 0 5066
0 0 -33684.1 0 0 33684.1 0 0 -23713.4 0 0 23713.4 0 0 -5102.42 0 0 5102.42
0 0 -33685.8 0 0 33685.8 0 0 -23475.4 0 0 23475.4 0 0 -5135.52 0 0 5135.52
0 0 -33596.4 0 0 33596.4 0 0 -23179.2 0 0 23179.2 0 0 -5164.17 0 0 5164.17
0 0 -33420.7 0 0 33420.7 0 0 -22820.8 0 0 22820.8 0 0 -5188.26 0 0 5188.26
0 0 -33159.7 0 0 33159.7 0 0 -22420.9 0 0 22420.9 0 0 -5207.06 0 0 5207.06
0 0 -32825.3 0 0 32825.3 0 0 -21986.6 0 0 21986.6 0 0 -5220.01 0 0 5220.01
0 0 -32430 0 0 32430 0 0 -21527.9 0 0 21527.9 0 0 -5226.74 0 0 5226.74
0 0 -31986 0 0 31986 0 0 -21053.7 0 0 21053.7 0 0 -5218.9 0 0 5218.9
0 0 -31508.2 0 0 31508.2 0 0 -20562.8 0 0 20562.8 0 0 -5179.85 0 0 5179.85
0 0 -31009.3 0 0 31009.3 0 0 -20061 0 0 20061 0 0 -5105.55 0 0 5105.55
0 0 -30501.2 0 0 30501.2 0 0 -19555.5 0 0 19555.5 0 0 -4995.93 0 0 4995.93
0 0 -30000.4 0 0 30000.4 0 0 -19047.3 0 0 19047.3 0 0 -4851.14 0 0 4851.14
0 0 -29523.1 0 0 29523.1 0 0 -18539.1 0 0 18539.1 0 0 -4671.61 0 0 4671.61
0 0 -29084.6 0 0 29084.6 0 0 -18031 0 0 18031 0 0 -4458.62 0 0 4458.62
0 0 -28698.2 0 0 28698.2 0 0 -17523.6 0 0 17523.6 0 0 -4213.85 0 0 4213.85
0 0 -28375.8 0 0 28375.8 0 0 -17016.7 0 0 17016.7 0 0 -3939.49 0 0 3939.49
0 0 -28126.3 0 0 28126.3 0 0 -16510 0 0 16510 0 0 -3638.12 0 0 3638.12
0 0 -27955 0 0 27955 0 0 -16003.3 0 0 16003.3 0 0 -3312.62 0 0 3312.62
0 0 -27861.9 0 0 27861.9 0 0 -15497.5 0 0 15497.5 0 0 -2966.18 0 0 2966.18
0 0 -27841.6 0 0 27841.6 0 0 -14994.2 0 0 14994.2 0 0 -2602.26 0 0 2602.26
0 0 -27885.5 0 0 27885.5 0 0 -14495.3 0 0 14495.3 0 0 -2224.53 0 0 2224.53
0 0 -27983.9 0 0 27983.9 0 0 -14003 0 0 14003 0 0 -1836.83 0 0 1836.83
0 0 -28126.9 0 0 28126.9 0 0 -13519.5 0 0 13519.5 0 0 -1442.51 0 0 1442.51
0 0 -28303.5 0 0 28303.5 0 0 -13055.4 0 0 13055.4 0 0 -1088.63 0 0 1088.63
0 0 -28505.2 0 0 28505.2 0 0 -12625.6 0 0 12625.6 0 0 -741.302 0 0 741.302
0 0 -28733.4 0 0 28733.4 0 0 -12195.2 0 0 12195.2 0 0 -405.407 0 0 405.407
0 0 -28974.3 0 0 28974.3 0 0 -11787.4 0 0 11787.4 0 0 -74.1373 0 0 74.1373
0 0 -29216.5 0 0 29216.5 0 0 -11413.5 0 0 11413.5 0 0 16.4844 0 0 -16.4844
0 0 -29423.6 0 0 29423.6 0 0 -11176.3 0 0 11176.3 0 0 48.6099 0 0 -48.6099
0 0 -29628.9 0 0 29628.9 0 0 -10866.4 0 0 10866.4 0 0 75.5003 0 0 -75.5003
0 0 -29713.6 0 0 29713.6 0 0 -10631.7 0 0 10631.7 0 0 102.066 0 0 -102.066
0 0 -29810.5 0 0 29810.5 0 0 -10400.3 0 0 10400.3 0 0 127.175 0 0 -127.175
0 0 -29887.7 0 0 29887.7 0 0 -10177.3 0 0 10177.3 0 0 149.918 0 0 -149.918
0 0 -29935.3 0 0 29935.3 0 0 -9981.02 0 0 9981.02 0 0 171.111 0 0 -171.111
0 0 -29928.1 0 0 29928.1 0 0 -9797.49 0 0 9797.49 0 0 190.002 0 0 -190.002
0 0 -29855.2 0 0 29855.2 0 0 -9635.32 0 0 9635.32 0 0 206.702 0 0 -206.702
0 0 -29723.4 0 0 29723.4 0 0 -9488.31 0 0 9488.31 0 0 221.083 0 0 -221.083
0 0 -29541.4 0 0 29541.4 0 0 -9352.68 0 0 9352.68 0 0 232.984 0 0 -232.984
0 0 -29318.3 0 0 29318.3 0 0 -9226.12 0 0 9226.12 0 0 242.379 0 0 -242.379
0 0 -29064.8 0 0 29064.8 0 0 -9104.16 0 0 9104.16 0 0 249.158 0 0 -249.158
0 0 -28791.3 0 0 28791.3 0 0 -8984.36 0 0 8984.36 0 0 253.282 0 0 -253.282
0 0 -28507.3 0 0 28507.3 0 0 -8864.68 0 0 8864.68 0 0 254.736 0 0 -254.736
0 0 -28219.9 0 0 28219.9 0 0 -8746.97 0 0 8746.97 0 0 232.258 0 0 -232.258
0 0 -27930.9 0 0 27930.9 0 0 -8642.43 0 0 8642.43 0 0 181.035 0 0 -181.035
0 0 -27642.9 0 0 27642.9 0 0 -8547.29 0 0 8547.29 0 0 98.2595 0 0 -98.2595
0 0 -27353.3 0 0 27353.3 0 0 -8467.38 0 0 8467.38 0 0 -2.49075 0 0 2.49075
0 0 -27063 0 0 27063 0 0 -8387.13 0 0 8387.13 0 0 -58.0295 0 0 58.0295
0 0 -26769.2 0 0 26769.2 0 0 -8315.37 0 0 8315.37 0 0 -128.913 0 0 128.913
0 0 -26456.2 0 0 26456.2 0 0 -8286.41 0 0 8286.41 0 0 -207.314 0 0 207.314
0 0 -26134.5 0 0 26134.5 0 0 -8273.95 0 0 8273.95 0 0 -296.275 0 0 296.275
0 0 -25794.3 0 0 25794.3 0 0 -8303.14 0 0 8303.14 0 0 -391.951 0 0 391.951
0 0 -25439 0 0 25439 0 0 -8366.91 0 0 8366.91 0 0 -494.477 0 0 494.477
0 0 -25067.1 0 0 25067.1 0 0 -8471.62 0 0 8471.62 0 0 -602.372 0 0 602.372
0 0 -24677.3 0 0 24677.3 0 0 -8618.68 0 0 8618.68 0 0 -714.492 0 0 714.492
0 0 -24267.6 0 0 24267.6 0 0 -8808.13 0 0 8808.13 0 0 -829.912 0 0 829.912
0 0 -23833.6 0 0 23833.6 0 0 -9040.57 0 0 9040.57 0 0 -947.485 0 0 947.485
0 0 -23369.2 0 0 23369.2 0 0 -9314.24 0 0 9314.24 0 0 -1066.31 0 0 1066.31
0 0 -22868.7 0 0 22868.7 0 0 -9621.8 0 0 9621.8 0 0 -1173.36 0 0 1173.36
0 0 -22324.8 0 0 22324.8 0 0 -9956.17 0 0 9956.17 0 0 -1276.9 0 0 1276.9
0 0 -21730.5 0 0 21730.5 0 0 -10322.9 0 0 10322.9 0 0 -1377.65 0 0 1377.65
0 0 -21081.5 0 0 21081.5 0 0 -10709.2 0 0 10709.2 0 0 -1478.04 0 0 1478.04
0 0 -20374.4 0 0 20374.4 0 0 -11108 0 0 11108 0 0 -1577.06 0 0 1577.06
0 0 -19602.7 0 0 19602.7 0 0 -11509.6 0 0 11509.6 0 0 -1674.42 0 0 1674.42
0 0 -18761.9 0 0 18761.9 0 0 -11902.2 0 0 11902.2 0 0 -1769.87 0 0 1769.87
0 0 -17847.6 0 0 17847.6 0 0 -12275.6 0 0 12275.6 0 0 -1863.11 0 0 1863.11
0 0 -16857.1 0 0 16857.1 0 0 -12617.4 0 0 12617.4 0 0 -1954.14 0 0 1954.14
0 0 -15788.5 0 0 15788.5 0 0 -12915.8 0 0 12915.8 0 0 -2042.85 0 0 2042.85
0 0 -14641.5 0 0 14641.5 0 0 -13158.7 0 0 13158.7 0 0 -2129.05 0 0 2129.05
0 0 -13417.1 0 0 13417.1 0 0 -13334.8 0 0 13334.8 0 0 -2212.43 0 0 2212.43
0 0 -12117.2 0 0 12117.2 0 0 -13433.7 0 0 13433.7 0 0 -2292.67 0 0 2292.67
0 0 -10744.2 0 0 10744.2 0 0 -13446.3 0 0 13446.3 0 0 -2369.41 0 0 2369.41
0 0 -9299.75 0 0 9299.75 0 0 -13365 0 0 13365 0 0 -2442.25 0 0 2442.25
0 0 -7785.26 0 0 7785.26 0 0 -13184.2 0 0 13184.2 0 0 -2510.65 0 0 2510.65
0 0 -6203.43 0 0 6203.43 0 0 -12899.9 0 0 12899.9 0 0 -2573.92 0 0 2573.92
0 0 -4558.99 0 0 4558.99 0 0 -12509.9 0 0 12509.9 0 0 -2631.29 0 0 2631.29
0 0 -2858.6 0 0 2858.6 0 0 -12013.8 0 0 12013.8 0 0 -2681.89 0 0 2681.89
0 0 -1083.47 0 0 1083.47 0 0 -11407.9 0 0 11407.9 0 0 -2724.91 0 0 2724.91
0 0 4.18619 0 0 -4.18619 0 0 -10675.8 0 0 10675.8 0 0 -2759.58 0 0 2759.58
0 0 158.813 0 0 -158.813 0 0 -10124.6 0 0 10124.6 0 0 -2781.14 0 0 2781.14
0 0 396.845 0 0 -396.845 0 0 -9804.27 0 0 9804.27 0 0 -2763.71 0 0 2763.71
0 0 565.382 0 0 -565.382 0 0 -8981.95 0 0 8981.95 0 0 -2761.47 0 0 2761.47
0 0 761.571 0 0 -761.571 0 0 -8245.47 0 0 8245.47 0 0 -2713.26 0 0 2713.26
0 0 984.43 0 0 -984.43 0 0 -7518.62 0 0 7518.62 0 0 -2623.21 0 0 2623.21
0 0 1169.69 0 0 -1169.69 0 0 -6777.69 0 0 6777.69 0 0 -2502.69 0 0 2502.69
0 0 1364.35 0 0 -1364.35 0 0 -5979.34 0 0 5979.34 0 0 -2345.52 0 0 2345.52
0 0 1571.51 0 0 -1571.51 0 0 -5144.82 0 0 5144.82 0 0 -2158.84 0 0 2158.84
0 0 1765.55 0 0 -1765.55 0 0 -4220.42 0 0 4220.42 0 0 -1939.01 0 0 1939.01
0 0 1964.55 0 0 -1964.55 0 0 -3246.62 0 0 3246.62 0 0 -1691.74 0 0 1691.74
0 0 2161.31 0 0 -2161.31 0 0 -2224.33 0 0 2224.33 0 0 -1412.33 0 0 1412.33
0 0 2355.63 0 0 -2355.63 0 0 -1138.84 0 0 1138.84 0 0 -1106.85 0 0 1106.85
0 0 2548.62 0 0 -2548.62 0 0 -52.8774 0 0 52.8774 0 0 -799.843 0 0 799.843
0 0 2733.86 0 0 -2733.86 0 0 114.858 0 0 -114.858 0 0 -523.476 0 0 523.476
0 0 2879.77 0 0 -2879.77 0 0 385.111 0 0 -385.111 0 0 -357.368 0 0 357.368
0 0 3017.25 0 0 -3017.25 0 0 618.995 0 0 -618.995 0 0 -109.449 0 0 109.449
0 0 3198.8 0 0 -3198.8 0 0 804.276 0 0 -804.276 0 0 11.2018 0 0 -11.2018
0 0 3357.6 0 0 -3357.6 0 0 1001.68 0 0 -1001.68 0 0 40.4014 0 0 -40.4014
0 0 3502.2 0 0 -3502.2 0 0 1224.94 0 0 -1224.94 0 0 67.1211 0 0 -67.1211
0 0 3651.83 0 0 -3651.83 0 0 1448.45 0 0 -1448.45 0 0 96.1253 0 0 -96.1253
0 0 3797.83 0 0 -3797.83 0 0 1654.51 0 0 -1654.51 0 0 128.51 0 0 -128.51
0 0 3941.33 0 0 -3941.33 0 0 1872.12 0 0 -1872.12 0 0 161.875 0 0 -161.875
0 0 4072.8 0 0 -4072.8 0 0 2102.06 0 0 -2102.06 0 0 196.024 0 0 -196.024
0 0 4200.55 0 0 -4200.55 0 0 2328.21 0 0 -2328.21 0 0 232.388 0 0 -232.388
0 0 4327.9 0 0 -4327.9 0 0 2550.52 0 0 -2550.52 0 0 270.707 0 0 -270.707
0 0 4446.25 0 0 -4446.25 0 0 2777.63 0 0 -2777.63 0 0 310.155 0 0 -310.155
0 0 4557.14 0 0 -4557.14 0 0 3007.02 0 0 -3007.02 0 0 350.83 0 0 -350.83
0 0 4664.85 0 0 -4664.85 0 0 3232.52 0 0 -3232.52 0 0 393.273 0 0 -393.273
0 0 4766.96 0 0 -4766.96 0 0 3456.73 0 0 -3456.73 0 0 437.152 0 0 -437.152
0 0 4861.34 0 0 -4861.34 0 0 3682.39 0 0 -3682.39 0 0 481.991 0 0 -481.991
0 0 4950.05 0 0 -4950.05 0 0 3906.54 0 0 -3906.54 0 0 527.887 0 0 -527.887
0 0 5034.27 0 0 -5034.27 0 0 4127.56 0 0 -4127.56 0 0 574.873 0 0 -574.873
0 0 5112.87 0 0 -5112.87 0 0 4347.06 0 0 -4347.06 0 0 622.671 0 0 -622.671
0 0 5185.92 0 0 -5185.92 0 0 4565.05 0 0 -4565.05 0 0 671.098 0 0 -671.098
0 0 5254.55 0 0 -5254.55 0 0 4780 0 0 -4780 0 0 720.101 0 0 -720.101
0 0 5318.69 0 0 -5318.69 0 0 4991.89 0 0 -4991.89 0 0 769.493 0 0 -769.493
0 0 5377.69 0 0 -5377.69 0 0 5201.42 0 0 -5201.42 0 0 819.025 0 0 -819.025
0 0 5431.64 0 0 -5431.64 0 0 5408.3 0 0 -5408.3 0 0 868.551 0 0 -868.551
0 0 5480.74 0 0 -5480.74 0 0 5612.05 0 0 -5612.05 0 0 917.931 0 0 -917.931
0 0 5524.68 0 0 -5524.68 0 0 5812.86 0 0 -5812.86 0 0 966.951 0 0 -966.951
0 0 5563.3 0 0 -5563.3 0 0 6010.75 0 0 -6010.75 0 0 1015.41 0 0 -1015.41
0 0 5596.7 0 0 -5596.7 0 0 6205.29 0 0 -6205.29 0 0 1063.16 0 0 -1063.16
0 0 5624.83 0 0 -5624.83 0 0 6396.2 0 0 -6396.2 0 0 1110.05 0 0 -1110.05
0 0 5647.41 0 0 -5647.41 0 0 6583.36 0 0 -6583.36 0 0 1155.91 0 0 -1155.91
0 0 5664.25 0 0 -5664.25 0 0 6766.45 0 0 -6766.45 0 0 1200.59 0 0 -1200.59
0 0 5674.77 0 0 -5674.77 0 0 6944.8 0 0 -6944.8 0 0 1243.99 0 0 -1243.99
0 0 5679.61 0 0 -5679.61 0 0 7117.51 0 0 -7117.51 0 0 1286.01 0 0 -1286.01
0 0 5668.76 0 0 -5668.76 0 0 7283.77 0 0 -7283.77 0 0 1326.57 0 0 -1326.57
0 0 5639.53 0 0 -5639.53 0 0 7441.93 0 0 -7441.93 0 0 1365.61 0 0 -1365.61
0 0 5591.79 0 0 -5591.79 0 0 7590.13 0 0 -7590.13 0 0 1403.14 0 0 -1403.14
0 0 5530.28 0 0 -5530.28 0 0 7728.84 0 0 -7728.84 0 0 1438.99 0 0 -1438.99
0 0 5458.03 0 0 -5458.03 0 0 7857.54 0 0 -7857.54 0 0 1473.02 0 0 -1473.02
0 0 5378.7 0 0 -5378.7 0 0 7975.24 0 0 -7975.24 0 0 1505.21 0 0 -1505.21
0 0 5292.21 0 0 -5292.21 0 0 8081.9 0 0 -8081.9 0 0 1535.41 0 0 -1535.41
0 0 5197.29 0 0 -5197.29 0 0 8178.44 0 0 -8178.44 0 0 1542.76 0 0 -1542.76
0 0 5110.92 0 0 -5110.92 0 0 8261.97 0 0 -8261.97 0 0 1542.76 0 0 -1542.76
0 0 5029.09 0 0 -5029.09 0 0 8343.76 0 0 -8343.76 0 0 1542.76 0 0 -1542.76
0 0 4909.74 0 0 -4909.74 0 0 8422.3 0 0 -8422.3 0 0 1542.76 0 0 -1542.76
0 0 4802.21 0 0 -4802.21 0 0 8478.09 0 0 -8478.09 0 0 1542.76 0 0 -1542.76
0 0 4691.45 0 0 -4691.45 0 0 8516.64 0 0 -8516.64 0 0 1542.76 0 0 -1542.76
0 0 4559.82 0 0 -4559.82 0 0 8549.32 0 0 -8549.32 0 0 1542.76 0 0 -1542.76
0 0 4423.64 0 0 -4423.64 0 0 8571.15 0 0 -8571.15 0 0 1542.76 0 0 -1542.76
0 0 4294.55 0 0 -4294.55 0 0 8577.11 0 0 -8577.11 0 0 1542.76 0 0 -1542.76
0 0 4162.43 0 0 -4162.43 0 0 8525.86 0 0 -8525.86 0 0 1542.76 0 0 -1542.76
0 0 4026.52 0 0 -4026.52 0 0 8442.89 0 0 -8442.89 0 0 1542.76 0 0 -1542.76
0 0 3900.71 0 0 -3900.71 0 0 8278.03 0 0 -8278.03 0 0 1523.8 0 0 -1523.8
