0.0025 -9.1302e-06
0.0125 -9.1132e-06
0.0225 -9.08112e-06
0.035 -9.13489e-06
0.045 -9.37934e-06
0.055 -9.95533e-06
0.065 -1.10359e-05
0.075 -1.28232e-05
0.085 -1.55455e-05
0.095 -1.94524e-05
0.105 -2.48122e-05
0.115 -3.19061e-05
0.125 -4.10264e-05
0.135 -5.24817e-05
0.145 -6.65289e-05
0.155 -8.34089e-05
0.165 -0.000103304
0.175 -0.000126313
0.185 -0.000152416
0.195 -0.000181459
0.205 -0.000213138
0.215 -0.000246987
0.225 -0.000282377
0.235 -0.000318509
0.245 -0.000354412
0.255 -0.000388928
0.265 -0.000420704
0.275 -0.000448231
0.285 -0.000469811
0.295 -0.000483673
0.305 -0.000488087
0.315 -0.000481556
0.325 -0.000462829
0.335 -0.000431079
0.345 -0.000385958
0.355 -0.000327649
0.365 -0.000256835
0.375 -0.000174714
0.385 -8.29177e-05
0.395 1.65987e-05
0.405 0.00012154
0.415 0.000229451
0.425 0.000337775
0.435 0.000443956
0.445 0.000545494
0.455 0.00063998
0.465 0.000725141
0.475 0.00079894
0.485 0.000859644
0.495 0.000905956
0.5075 0.000942534
0.52 0.000955588
0.5325 0.000947264
0.545 0.000922004
0.5575 0.000886544
0.57 0.000849633
0.5825 0.00082151
0.595 0.000813065
0.6075 0.000834806
0.62 0.000895769
0.6325 0.0010026
0.645 0.00115897
0.6575 0.00136535
0.67 0.00161899
0.6825 0.00191422
0.695 0.00224289
0.7075 0.00259482
0.72 0.00295836
0.7325 0.00332102
0.745 0.00367015
0.7575 0.00399387
0.77 0.00428182
0.7825 0.00452587
0.795 0.00472042
0.8075 0.00486256
0.82 0.00495207
0.8325 0.0049913
0.845 0.00498496
0.8575 0.0049398
0.87 0.00486422
0.8825 0.00476778
0.895 0.00466074
0.9075 0.00455346
0.92 0.00445588
0.9325 0.00437706
0.945 0.00432482
0.9575 0.00430547
0.97 0.0043236
0.9825 0.00438173
0.995 0.00447996
1.005 0.00458576
1.0175 0.00474763
1.03 0.00493506
1.0425 0.00513774
1.055 0.0053433
1.0675 0.00553797
1.08 0.00570732
1.0925 0.00583697
1.105 0.00591334
1.1175 0.00592436
1.13 0.00586003
1.1425 0.00571296
1.155 0.0054787
1.1675 0.00515595
1.18 0.00474671
1.1925 0.00425627
1.205 0.00369337
1.2175 0.00306999
1.23 0.00240098
1.2425 0.00170343
1.255 0.000995963
1.2675 0.000297944
1.28 -0.000371381
1.2925 -0.000994043
1.305 -0.00155386
1.3175 -0.00203808
1.33 -0.00243774
1.3425 -0.00274845
1.355 -0.00297015
1.3675 -0.00310685
1.38 -0.00316628
1.3925 -0.00315947
1.405 -0.00310013
1.4175 -0.00300431
1.43 -0.00288971
1.4425 -0.00277483
1.455 -0.00267827
1.4675 -0.00261796
1.48 -0.00261048
1.4925 -0.00267036
1.505 -0.00280938
1.5175 -0.00303584
1.53 -0.00335381
1.5425 -0.00376242
1.555 -0.00425562
1.5675 -0.00482216
1.58 -0.00544601
1.5925 -0.00610716
1.605 -0.00678265
1.6175 -0.00744789
1.63 -0.00807806
1.6425 -0.00864952
1.655 -0.00914106
1.6675 -0.00953503
1.68 -0.00981724
1.6925 -0.0099818
1.705 -0.0100263
1.7175 -0.00995295
1.73 -0.00977154
1.7425 -0.00949739
1.755 -0.00914284
1.7675 -0.00871801
1.78 -0.00823936
1.7925 -0.00772424
1.805 -0.00719236
1.8175 -0.00666312
1.83 -0.00615569
1.8425 -0.00568866
1.855 -0.00527877
1.8675 -0.00494041
1.88 -0.00468527
1.8925 -0.00452182
1.905 -0.00445505
1.9175 -0.0044863
1.93 -0.00461325
1.9425 -0.00483018
1.955 -0.00512914
1.9675 -0.00549606
1.98 -0.00591295
1.9925 -0.00635855
2.0025 -0.00672008
2.0125 -0.00707271
2.0225 -0.00740419
2.0325 -0.0077028
2.0425 -0.00795776
2.0525 -0.00815961
2.0625 -0.00830054
2.0725 -0.00837458
2.0825 -0.00837783
2.0925 -0.00830852
2.1025 -0.00816693
2.1125 -0.00795533
2.1225 -0.00767768
2.1325 -0.0073395
2.1425 -0.00694756
2.1525 -0.00650974
2.1625 -0.00603483
2.1725 -0.00553232
2.1825 -0.00501222
2.1925 -0.00448474
2.2025 -0.00396001
2.2125 -0.0034478
2.2225 -0.00295723
2.2325 -0.00249655
2.2425 -0.00207288
2.2525 -0.00169208
2.2625 -0.00135851
2.2725 -0.00107499
2.2825 -0.000842702
2.2925 -0.000661177
2.3025 -0.000528376
2.3125 -0.000440769
2.3225 -0.000393481
2.3325 -0.000380478
2.3425 -0.000392139
2.3525 -0.000423045
2.3625 -0.000470876
2.3725 -0.000527661
2.3825 -0.000587421
2.3925 -0.000643711
2.4025 -0.00069042
2.4125 -0.000721494
2.4225 -0.000731367
2.4325 -0.000715013
2.4425 -0.000667911
2.4525 -0.000586078
2.4625 -0.000466364
2.4725 -0.000306686
2.4825 -0.000105677
2.4925 0.000137059
2.5025 0.000420891
2.5125 0.000744174
2.5225 0.00110426
2.5325 0.00149759
2.5425 0.00191981
2.5525 0.00236585
2.5625 0.00282999
2.5725 0.00330603
2.5825 0.00378735
2.5925 0.00426708
2.6025 0.00473823
2.6125 0.00519375
2.6225 0.00562672
2.6325 0.0060305
2.6425 0.00639882
2.6525 0.00672595
2.6625 0.00700681
2.6725 0.00723714
2.6825 0.00741358
2.6925 0.0075338
2.7025 0.00759659
2.7125 0.00760196
2.7225 0.00755111
2.7325 0.00744647
2.7425 0.00729169
2.7525 0.00709154
2.7625 0.00685186
2.7725 0.00657942
2.7825 0.00628182
2.7925 0.00596722
2.8025 0.0056442
2.8125 0.00532151
2.8225 0.00500779
2.8325 0.00471138
2.8425 0.00444008
2.8525 0.00420095
2.8625 0.00400012
2.8725 0.00384263
2.8825 0.0037323
2.8925 0.00367166
2.9025 0.00366186
2.9125 0.00370296
2.9225 0.00379473
2.9325 0.00393182
2.9425 0.00411058
2.9525 0.00432603
2.9625 0.00457245
2.9725 0.00484317
2.9825 0.00513166
2.9925 0.00543059
3.0025 0.00573219
3.0125 0.00602832
3.0225 0.00631086
3.0325 0.00657195
3.0425 0.00680377
3.0525 0.00699892
3.0625 0.00715052
3.0725 0.00725242
3.0825 0.00729934
3.0925 0.0072871
3.1025 0.00721288
3.1125 0.0070753
3.1225 0.00687451
3.1325 0.00661229
3.1425 0.00629201
3.1525 0.00591866
3.1625 0.00549875
3.1725 0.00504022
3.1825 0.00455228
3.1925 0.00404513
3.2025 0.00352966
3.2125 0.00301715
3.2225 0.00251886
3.2325 0.00204569
3.2425 0.00160779
3.2525 0.00121424
3.2625 0.000872707
3.2725 0.00058924
3.2825 0.000368072
3.2925 0.000211478
3.3025 0.000119688
3.3125 9.08622e-05
3.3225 0.000121136
3.3325 0.000204731
3.3425 0.000334124
3.3525 0.000500277
3.3625 0.000692906
3.3725 0.000900777
3.3825 0.00111192
3.3925 0.00130944
3.4025 0.0014897
3.4125 0.001642
3.4225 0.00175727
3.4325 0.00182745
3.4425 0.00184529
3.4525 0.00180489
3.4625 0.00170175
3.4725 0.00153285
3.4825 0.00129702
3.4925 0.000994873
3.5025 0.000628661
3.5125 0.000202709
3.5225 -0.000277224
3.5325 -0.000803993
3.5425 -0.00136898
3.5525 -0.00196248
3.5625 -0.00257384
3.5725 -0.00319194
3.5825 -0.00380489
3.5925 -0.0044007
3.6025 -0.00496763
3.6125 -0.00549456
3.6225 -0.00597138
3.6325 -0.00638943
3.6425 -0.00674177
3.6525 -0.00702331
3.6625 -0.00723278
3.6725 -0.00736657
3.6825 -0.00742553
3.6925 -0.00741174
3.7025 -0.00732941
3.7125 -0.00718444
3.7225 -0.00698408
3.7325 -0.00673686
3.7425 -0.00645239
3.7525 -0.00614105
3.7625 -0.00581364
3.7725 -0.00548118
3.7825 -0.00515459
3.7925 -0.00484436
3.8025 -0.00456029
3.8125 -0.00431126
3.8225 -0.00410497
3.8325 -0.00394772
3.8425 -0.00384431
3.8525 -0.00379787
3.8625 -0.00380984
3.8725 -0.00387985
3.8825 -0.0040058
3.8925 -0.00418392
3.9025 -0.00440931
3.9125 -0.00467489
3.9225 -0.00497226
3.9325 -0.00529211
3.9425 -0.00562434
3.9525 -0.00595847
3.9625 -0.00628401
3.9725 -0.00659083
3.9825 -0.00686946
3.9925 -0.00711141
4.0025 -0.00730942
4.0125 -0.00745768
4.0225 -0.00755183
4.0325 -0.00758908
4.0425 -0.00756824
4.0525 -0.00748973
4.0625 -0.00735555
4.0725 -0.00716909
4.0825 -0.00693514
4.0925 -0.00665968
4.1025 -0.00634976
4.1125 -0.00601337
4.1225 -0.00565923
4.1325 -0.00529661
4.1425 -0.004935
4.1525 -0.00458387
4.1625 -0.00425235
4.1725 -0.00394896
4.1825 -0.00368142
4.1925 -0.00345645
4.2025 -0.00327957
4.2125 -0.00315501
4.2225 -0.00308562
4.2325 -0.00307281
4.2425 -0.00311654
4.2525 -0.00321528
4.2625 -0.00336598
4.2725 -0.00356414
4.2825 -0.00380385
4.2925 -0.00407783
4.3025 -0.00437763
4.3125 -0.00469372
4.3225 -0.00501572
4.3325 -0.00533262
4.3425 -0.00563311
4.3525 -0.00590584
4.3625 -0.00613979
4.3725 -0.00632461
4.3825 -0.00645096
4.3925 -0.00651082
4.4025 -0.00649777
4.4125 -0.0064072
4.4225 -0.00623642
4.4325 -0.00598478
4.4425 -0.00565369
4.4525 -0.00524659
4.4625 -0.00476885
4.4725 -0.00422556
4.4825 -0.00362956
4.4925 -0.00299092
4.5025 -0.00232092
4.5125 -0.00163192
4.5225 -0.000936664
4.5325 -0.000248368
4.5425 0.000421035
4.5525 0.00105942
4.5625 0.00165567
4.5725 0.00219954
4.5825 0.00268242
4.5925 0.00309707
4.6025 0.00343814
4.6125 0.00370228
4.6225 0.00388804
4.6325 0.00399599
4.6425 0.00402882
4.6525 0.00399122
4.6625 0.00388963
4.6725 0.00373228
4.6825 0.00352885
4.6925 0.00329032
4.7025 0.00302861
4.7125 0.00275635
4.7225 0.00248653
4.7325 0.00223213
4.7425 0.00200572
4.7525 0.00181914
4.7625 0.00168172
4.7725 0.00160283
4.7825 0.00159244
4.7925 0.00165239
4.8025 0.00178749
4.8125 0.00199858
4.8225 0.00228443
4.8325 0.00264209
4.8425 0.0030656
4.8525 0.00354736
4.8625 0.00407816
4.8725 0.00464741
4.8825 0.00524339
4.8925 0.00585354
4.9025 0.00646491
4.9125 0.00706454
4.9225 0.00763988
4.9325 0.00817899
4.9425 0.00867085
4.9525 0.00910407
4.9625 0.00944892
4.9725 0.00972834
4.9825 0.00994277
4.9925 0.0100796
5.0025 0.0101504
5.0125 0.010141
5.0225 0.0100519
5.0325 0.00988675
5.0425 0.00965027
5.0525 0.00934897
5.0625 0.00899049
5.0725 0.00858433
5.0825 0.00814101
5.0925 0.00767179
5.1025 0.00718854
5.1125 0.00670344
5.1225 0.00622864
5.1325 0.00577594
5.1425 0.00535659
5.1525 0.00498096
5.1625 0.00465827
5.1725 0.00439641
5.1825 0.0042018
5.1925 0.00407917
5.2025 0.0040315
5.2125 0.00406035
5.2225 0.00416514
5.2325 0.00434231
5.2425 0.00458639
5.2525 0.0048899
5.2625 0.00524365
5.2725 0.00563705
5.2825 0.00605838
5.2925 0.00649515
5.3025 0.00693445
5.3125 0.00736338
5.3225 0.00776932
5.3325 0.00814032
5.3425 0.00846542
5.3525 0.0087349
5.3625 0.00894058
5.3725 0.00907601
5.3825 0.00913664
5.3925 0.00911999
5.4025 0.00902566
5.4125 0.00885541
5.4225 0.00861304
5.4325 0.00830433
5.4425 0.00793679
5.4525 0.00751938
5.4625 0.00706222
5.4725 0.00657625
5.4825 0.0060729
5.4925 0.00556373
5.5025 0.00506008
5.5125 0.00457281
5.5225 0.00411188
5.5325 0.00368617
5.5425 0.00330312
5.5525 0.00296858
5.5625 0.00268666
5.5725 0.00245968
5.5825 0.00228823
5.5925 0.00217125
5.6025 0.00210619
5.6125 0.00208917
5.6225 0.00211515
5.6325 0.00217807
5.6425 0.00227107
5.6525 0.00238666
5.6625 0.0025169
5.6725 0.00265363
5.6825 0.00278862
5.6925 0.00291381
5.7025 0.00302148
5.7125 0.00310446
5.7225 0.00315654
5.7325 0.00317177
5.7425 0.00314551
5.7525 0.00307008
5.7625 0.00294735
5.7725 0.00278026
5.7825 0.00256701
5.7925 0.00231036
5.8025 0.00201323
5.8125 0.00168002
5.8225 0.00131533
5.8325 0.000926457
5.8425 0.00051749
5.8525 9.4451e-05
5.8625 -0.000335441
5.8725 -0.000765653
5.8825 -0.0011892
5.8925 -0.00159924
5.9025 -0.00198921
5.9125 -0.00235301
5.9225 -0.00268509
5.9325 -0.00298063
5.9425 -0.00323569
5.9525 -0.00344732
5.9625 -0.00361351
5.9725 -0.00373337
5.9825 -0.0038071
5.9925 -0.003836
6.0025 -0.00382247
6.0125 -0.00376989
6.0225 -0.00368257
6.0325 -0.00356552
6.0425 -0.00342451
6.0525 -0.00326609
6.0625 -0.00309691
6.0725 -0.00292417
6.0825 -0.00275501
6.0925 -0.00259659
6.1025 -0.00245577
6.1125 -0.00233899
6.1225 -0.00225215
6.1325 -0.00220047
6.1425 -0.00218794
6.1525 -0.00221778
6.1625 -0.00229293
6.1725 -0.00241443
6.1825 -0.00258242
6.1925 -0.00279575
6.2025 -0.00305201
6.2125 -0.00334758
6.2225 -0.0036777
6.2325 -0.00403658
6.2425 -0.00441754
6.2525 -0.00481319
6.2625 -0.00521565
6.2725 -0.00561687
6.2825 -0.00600884
6.2925 -0.00638328
6.3025 -0.00673254
6.3125 -0.00704969
6.3225 -0.00732849
6.3325 -0.0075642
6.3425 -0.00775412
6.3525 -0.00789439
6.3625 -0.00798377
6.3725 -0.00802194
6.3825 -0.00801001
6.3925 -0.0079501
6.4025 -0.00784552
6.4125 -0.0077008
6.4225 -0.00752133
6.4325 -0.00731328
6.4425 -0.00708344
6.4525 -0.00683871
6.4625 -0.00658688
6.4725 -0.00633511
6.4825 -0.0060906
6.4925 -0.00586025
6.5025 -0.00565031
6.5125 -0.00546637
6.5225 -0.00531309
6.5325 -0.00519442
6.5425 -0.00511303
6.5525 -0.00506988
6.5625 -0.00506449
6.5725 -0.00509489
6.5825 -0.00515759
6.5925 -0.00524778
6.6025 -0.0053594
6.6125 -0.00548541
6.6225 -0.00561809
6.6325 -0.00574927
6.6425 -0.00587065
6.6525 -0.005974
6.6625 -0.00605149
6.6725 -0.00609585
6.6825 -0.0061007
6.6925 -0.0060607
6.7025 -0.00597164
6.7125 -0.00583062
6.7225 -0.00563606
6.7325 -0.0053878
6.7425 -0.00508709
6.7525 -0.00473662
6.7625 -0.00434044
6.7725 -0.00390383
6.7825 -0.00343319
6.7925 -0.00293574
6.8025 -0.00241936
6.8125 -0.00189229
6.8225 -0.00136287
6.8325 -0.0008393
6.8425 -0.000329413
6.8525 0.000159341
6.8625 0.000618884
6.8725 0.00104571
6.8825 0.00143502
6.8925 0.00178325
6.9025 0.00209134
6.9125 0.00235263
6.9225 0.00256631
6.9325 0.00273156
6.9425 0.00284881
6.9525 0.00291967
6.9625 0.00294666
6.9725 0.00293328
6.9825 0.00288381
6.9925 0.00280334
7.0025 0.00269762
7.0125 0.00257289
7.0225 0.00243581
7.0325 0.00229325
7.0425 0.00215217
7.0525 0.00201943
7.0625 0.00190163
7.0725 0.00180477
7.0825 0.00173439
7.0925 0.00169552
7.1025 0.00169217
7.1125 0.00172741
7.1225 0.00180332
7.1325 0.00192082
7.1425 0.00207968
7.1525 0.00227845
7.1625 0.00251455
7.1725 0.00278432
7.1825 0.00308308
7.1925 0.00340532
7.2025 0.00374483
7.2125 0.00409491
7.2225 0.00444856
7.2325 0.00479872
7.2425 0.00513842
7.2525 0.00546103
7.2625 0.00576063
7.2725 0.00603144
7.2825 0.00626891
7.2925 0.00646942
7.3025 0.00663014
7.3125 0.00674946
7.3225 0.0068268
7.3325 0.00686277
7.3425 0.00685913
7.3525 0.00681866
7.3625 0.00674513
7.3725 0.00664321
7.3825 0.00651829
7.3925 0.00637648
7.4025 0.00622435
7.4125 0.00606859
7.4225 0.00591625
7.4325 0.0057741
7.4425 0.00564867
7.4525 0.00554614
7.4625 0.00547216
7.4725 0.00543271
7.4825 0.0054288
7.4925 0.00546261
7.5025 0.00553551
7.5125 0.00564783
7.5225 0.00579919
7.5325 0.00598809
7.5425 0.00621218
7.5525 0.0064676
7.5625 0.00675093
7.5725 0.00705821
7.5825 0.00738421
7.5925 0.0077228
7.6025 0.00806743
7.6125 0.00841134
7.6225 0.00874768
7.6325 0.00906961
7.6425 0.00937048
7.6525 0.00964397
7.6625 0.00988417
7.6725 0.0100858
7.6825 0.0102445
7.6925 0.0103565
7.7025 0.0104194
7.7125 0.0104316
7.7225 0.0103929
7.7325 0.0103041
7.7425 0.0101675
7.7525 0.00998617
7.7625 0.00976468
7.7725 0.00950839
7.7825 0.00922352
7.7925 0.00891693
7.8025 0.00859587
7.8125 0.00826767
7.8225 0.0079395
7.8325 0.00761812
7.8425 0.00730967
7.8525 0.00701948
7.8625 0.00675198
7.8725 0.00651054
7.8825 0.00629745
7.8925 0.00611383
7.9025 0.00595964
7.9125 0.0058337
7.9225 0.00573374
7.9325 0.00565644
7.9425 0.00559762
7.9525 0.0055523
7.9625 0.00551488
7.9725 0.00547933
7.9825 0.00543938
7.9925 0.00538869
8.0025 0.00532108
8.015 0.00520398
8.0275 0.00504139
8.04 0.00482554
8.0525 0.00455068
8.065 0.0042144
8.0775 0.00381703
8.09 0.00336171
8.1025 0.00285406
8.115 0.00230197
8.1275 0.00171519
8.14 0.0011006
8.1525 0.000478159
8.165 -0.000136304
8.1775 -0.000730093
8.19 -0.00128946
8.2025 -0.00180205
8.215 -0.00225822
8.2275 -0.00264997
8.24 -0.00297209
8.2525 -0.00322225
8.265 -0.00340061
8.2775 -0.00351
8.29 -0.00355575
8.3025 -0.00354521
8.315 -0.0034878
8.3275 -0.00339422
8.34 -0.00327645
8.3525 -0.00314709
8.365 -0.00301891
8.3775 -0.0029044
8.39 -0.00281524
8.4025 -0.00276192
8.415 -0.00275323
8.4275 -0.00279605
8.44 -0.00289504
8.4525 -0.00305255
8.465 -0.00326855
8.4775 -0.00354065
8.49 -0.00386431
8.5025 -0.00423295
8.515 -0.00463817
8.5275 -0.00507007
8.54 -0.00551758
8.5525 -0.00596885
8.565 -0.00641168
8.5775 -0.00683399
8.59 -0.00722436
8.6025 -0.00757246
8.615 -0.00786962
8.6275 -0.00810916
8.64 -0.00828677
8.6525 -0.00840066
8.665 -0.00845163
8.6775 -0.00844298
8.69 -0.00838034
8.7025 -0.00827122
8.715 -0.0081248
8.7275 -0.00795133
8.74 -0.00776226
8.7525 -0.00756853
8.765 -0.0073824
8.7775 -0.00721049
8.79 -0.00706069
8.8025 -0.00693951
8.815 -0.00685254
8.8275 -0.00680441
8.84 -0.0067959
8.8525 -0.0068247
8.865 -0.00688558
8.8775 -0.00697077
8.89 -0.00707039
8.9025 -0.00717296
8.915 -0.00726607
8.9275 -0.00733714
8.94 -0.00737418
8.9525 -0.00736643
8.965 -0.007305
8.9775 -0.00718328
8.99 -0.00699709
9.0025 -0.00674478
9.015 -0.00642712
9.0275 -0.00604714
9.04 -0.00561001
9.0525 -0.00512281
9.065 -0.00459418
9.0775 -0.00403394
9.09 -0.00345257
9.1025 -0.0028608
9.115 -0.00226906
9.1275 -0.00168697
9.14 -0.00112284
9.1525 -0.000583257
9.165 -7.52513e-05
9.1775 0.000406839
9.19 0.000851515
9.2025 0.00125396
9.215 0.00161069
9.2275 0.00192
9.24 0.00218244
9.2525 0.00239921
9.265 0.00257315
9.2775 0.00270825
9.29 0.00280939
9.3025 0.00288184
9.315 0.00293137
9.3275 0.00296405
9.34 0.00298581
9.3525 0.00300232
9.365 0.00301885
9.3775 0.0030401
9.39 0.00307004
9.4025 0.00311186
9.415 0.0031679
9.4275 0.00323956
9.44 0.00332725
9.4525 0.00343033
9.465 0.00354712
9.4775 0.00367504
9.49 0.00381071
9.5025 0.00395022
9.515 0.00408921
9.5275 0.00422306
9.54 0.00434706
9.5525 0.00445655
9.565 0.00454706
9.5775 0.00461451
9.59 0.00465532
9.6025 0.0046665
9.615 0.00464583
9.6275 0.00459214
9.64 0.00450459
9.6525 0.00438313
9.665 0.00422816
9.6775 0.00404121
9.69 0.00382494
9.7025 0.00358337
9.715 0.00332171
9.7275 0.00304622
9.74 0.00276399
9.7525 0.00248255
9.765 0.00220945
9.7775 0.00195186
9.79 0.00171626
9.8025 0.00150821
9.815 0.00133212
9.8275 0.00119108
9.84 0.00108672
9.8525 0.00101913
9.865 0.000986859
9.8775 0.00098686
9.89 0.00101452
9.9025 0.00106371
9.915 0.00112695
9.9275 0.00119556
9.94 0.00126003
9.9525 0.00130993
9.965 0.00133134
9.9775 0.00132508
9.99 0.00128411
10.0025 0.00120452
10.015 0.00108356
10.0275 0.000918633
10.04 0.00070877
10.0525 0.000454622
10.065 0.000158268
10.0775 -0.000176637
10.09 -0.000545144
10.1025 -0.000941347
10.115 -0.00135832
10.1275 -0.00178873
10.14 -0.0022251
10.1525 -0.00265991
10.165 -0.00308593
10.1775 -0.00349643
10.19 -0.0038854
10.2025 -0.00424821
10.215 -0.00458103
10.2275 -0.00488158
10.24 -0.00514881
10.2525 -0.00538304
10.265 -0.00558574
10.2775 -0.00575943
10.29 -0.00590751
10.3025 -0.00603392
10.315 -0.006143
10.3275 -0.00623924
10.34 -0.0063271
10.3525 -0.00641085
10.365 -0.00649434
10.3775 -0.00658085
10.39 -0.00667295
10.4025 -0.00677232
10.415 -0.00687936
10.4275 -0.00699339
10.44 -0.0071133
10.4525 -0.00723645
10.465 -0.00736075
10.4775 -0.00748299
10.49 -0.00759985
10.5025 -0.00770781
10.515 -0.00780351
10.5275 -0.00788359
10.54 -0.00794481
10.5525 -0.00798415
10.565 -0.00799888
10.5775 -0.00798666
10.59 -0.00794498
10.6025 -0.00787179
10.615 -0.00776553
10.6275 -0.00762542
10.64 -0.00745159
10.6525 -0.00724519
10.665 -0.00700842
10.6775 -0.00674448
10.69 -0.00645747
10.7025 -0.0061521
10.715 -0.00583344
10.7275 -0.00550654
10.74 -0.00517612
10.7525 -0.00484617
10.765 -0.00451983
10.7775 -0.0041993
10.79 -0.00388591
10.8025 -0.00358019
10.815 -0.00328205
10.8275 -0.00299086
10.84 -0.00270569
10.8525 -0.00242542
10.865 -0.00214894
10.8775 -0.00187521
10.89 -0.00160333
10.9025 -0.00133251
10.915 -0.00106202
10.9275 -0.000791304
10.94 -0.000516723
10.9525 -0.00024656
10.965 1.64865e-05
10.9775 0.000267417
10.99 0.0005021
11.0025 0.000716576
11.015 0.00090717
11.0275 0.00107049
11.04 0.00120391
11.0525 0.00130542
11.065 0.00137379
11.0775 0.00140879
11.09 0.00141116
11.1025 0.00138254
11.115 0.00132568
11.1275 0.00124419
11.14 0.0011424
11.1525 0.00102514
11.165 0.000897521
11.1775 0.000764725
11.19 0.000631756
11.2025 0.000503293
11.215 0.000383518
11.2275 0.000275607
11.24 0.000182049
11.2525 0.000104688
11.265 4.47413e-05
11.2775 2.72451e-06
11.29 -2.1586e-05
11.3025 -2.92335e-05
11.315 -2.21456e-05
11.3275 -3.10916e-06
11.34 2.43707e-05
11.3525 5.62759e-05
11.365 8.82859e-05
11.3775 0.000116062
11.39 0.000135434
11.4025 0.000142713
11.415 0.000135107
11.4275 0.000110801
11.44 6.90449e-05
11.4525 1.05218e-05
11.465 -6.26977e-05
11.4775 -0.000147185
11.49 -0.000238262
11.5025 -0.00033005
11.515 -0.000413389
11.5275 -0.000487076
11.54 -0.000545936
11.5525 -0.000585853
11.565 -0.000602714
11.5775 -0.000593261
11.59 -0.000555136
11.6025 -0.000486999
11.615 -0.000388632
11.6275 -0.000261098
11.64 -0.000106728
11.6525 7.11888e-05
11.665 0.000268199
11.6775 0.00047794
11.69 0.000692841
11.7025 0.000904608
11.715 0.00110485
11.7275 0.00128561
11.74 0.00143927
11.7525 0.00155949
11.765 0.00164151
11.7775 0.00168224
11.79 0.00168056
11.8025 0.00163721
11.815 0.00155477
11.8275 0.00143762
11.84 0.00129169
11.8525 0.00112424
11.865 0.000943371
11.8775 0.000757607
11.89 0.000575462
11.9025 0.000405
11.915 0.000253461
11.9275 0.000126925
11.94 3.00053e-05
11.9525 -3.43607e-05
11.965 -6.50825e-05
11.9775 -6.30255e-05
11.99 -3.09376e-05
12.0025 2.67275e-05
12.015 0.000104085
12.0275 0.000194166
12.04 0.000289277
12.0525 0.000381364
12.065 0.000462418
12.0775 0.000525175
12.09 0.000562645
12.1025 0.000569063
12.115 0.000541597
12.1275 0.000477715
12.14 0.000376633
12.1525 0.000239004
12.165 6.69146e-05
12.1775 -0.000136109
12.19 -0.000365049
12.2025 -0.000613462
12.215 -0.000874083
12.2275 -0.00113846
12.24 -0.00139759
12.2525 -0.00164159
12.265 -0.00186296
12.2775 -0.00205399
12.29 -0.002208
12.3025 -0.00231935
12.315 -0.00238378
12.3275 -0.00239855
12.34 -0.00236249
12.3525 -0.00227605
12.365 -0.00214145
12.3775 -0.00196292
12.39 -0.00174643
12.4025 -0.00150005
12.415 -0.00123133
12.4275 -0.000949263
12.44 -0.000663129
12.4525 -0.000382236
12.465 -0.000115444
12.4775 0.000128763
12.49 0.000344015
12.5025 0.000524761
12.515 0.000667057
12.5275 0.000768957
12.54 0.000830795
12.5525 0.000854865
12.565 0.00084629
12.5775 0.00081261
12.59 0.000756202
12.6025 0.00068461
12.615 0.000605098
12.6275 0.00052602
12.64 0.000455575
12.6525 0.000401757
12.665 0.000371839
12.6775 0.000371904
12.69 0.000406475
12.7025 0.000478221
12.715 0.000587742
12.7275 0.000733592
12.74 0.000912289
12.7525 0.00111855
12.765 0.00134555
12.7775 0.0015856
12.79 0.00182943
12.8025 0.00206724
12.815 0.00228933
12.8275 0.00248665
12.84 0.00265143
12.8525 0.00277765
12.865 0.00286143
12.8775 0.00290107
12.89 0.00289912
12.9025 0.00285514
12.915 0.00277284
12.9275 0.00265696
12.94 0.00251434
12.9525 0.00235276
12.965 0.00218092
12.9775 0.00200802
12.99 0.00184336
13.0025 0.00169583
13.015 0.00157366
13.0275 0.00148399
13.04 0.00143265
13.0525 0.0014239
13.065 0.00146029
13.0775 0.0015426
13.09 0.00166976
13.1025 0.00183854
13.115 0.00204499
13.1275 0.00228351
13.14 0.0025473
13.1525 0.00282871
13.165 0.00311886
13.1775 0.00340817
13.19 0.00368665
13.2025 0.00394436
13.215 0.00417189
13.2275 0.00436088
13.24 0.00450431
13.2525 0.00459676
13.265 0.00463439
13.2775 0.00461538
13.29 0.00453974
13.3025 0.00440926
13.315 0.00422724
13.3275 0.0039983
13.34 0.00372817
13.3525 0.0034234
13.365 0.00309123
13.3775 0.00273934
13.39 0.00237556
13.4025 0.00200767
13.415 0.00164312
13.4275 0.00128893
13.44 0.000951461
13.4525 0.000636202
13.465 0.000347621
13.4775 8.96554e-05
13.49 -0.000139902
13.5025 -0.00033564
13.515 -0.000497934
13.5275 -0.000627239
13.54 -0.000725817
13.5525 -0.000796996
13.565 -0.000845166
13.5775 -0.0008754
13.59 -0.000893343
13.6025 -0.000905889
13.615 -0.000918864
13.6275 -0.00093909
13.64 -0.000973148
13.6525 -0.00102717
13.665 -0.00110655
13.6775 -0.00121581
13.69 -0.00135824
13.7025 -0.0015356
13.715 -0.00174806
13.7275 -0.0019941
13.74 -0.0022705
13.7525 -0.00257246
13.765 -0.00289378
13.7775 -0.00322723
13.79 -0.00356487
13.8025 -0.00389847
13.815 -0.00421985
13.8275 -0.00452129
13.84 -0.00479584
13.8525 -0.00503769
13.865 -0.00524231
13.8775 -0.00540661
13.89 -0.00552897
13.9025 -0.00560918
13.915 -0.0056484
13.9275 -0.00564912
13.94 -0.00561508
13.9525 -0.00555123
13.965 -0.00546364
13.9775 -0.00535933
13.99 -0.00524604
14.0025 -0.0051319
14.015 -0.00502511
14.0275 -0.00493355
14.04 -0.00486443
14.0525 -0.00482394
14.065 -0.004817
14.0775 -0.00484699
14.09 -0.00491555
14.1025 -0.00502251
14.115 -0.00516586
14.1275 -0.00534233
14.14 -0.00554593
14.1525 -0.00576842
14.165 -0.00599996
14.1775 -0.00622973
14.19 -0.00644648
14.2025 -0.00663923
14.215 -0.00679776
14.2275 -0.00691309
14.24 -0.0069778
14.2525 -0.00698625
14.265 -0.00693464
14.2775 -0.00682098
14.29 -0.00664502
14.3025 -0.00640802
14.315 -0.00611259
14.3275 -0.00576224
14.34 -0.00536182
14.3525 -0.00491662
14.365 -0.00443297
14.3775 -0.00391778
14.39 -0.00337847
14.4025 -0.00282254
14.415 -0.00225689
14.4275 -0.00168337
14.44 -0.00112354
14.4525 -0.000585989
14.465 -7.7141e-05
14.4775 0.000395204
14.49 0.000826564
14.5025 0.00121418
14.515 0.00155734
14.5275 0.00185748
14.54 0.00211763
14.5525 0.00234238
14.565 0.00253788
14.5775 0.00271025
14.59 0.00286837
14.6025 0.00301892
14.615 0.00317067
14.6275 0.00333159
14.64 0.00350952
14.6525 0.00371147
14.665 0.00394362
14.6775 0.00421102
14.69 0.00451706
14.7025 0.00486113
14.715 0.00524657
14.7275 0.00566785
14.74 0.006123
14.7525 0.00660666
14.765 0.00711316
14.7775 0.00763465
14.79 0.00816297
14.8025 0.0086896
14.815 0.00920546
14.8275 0.00970584
14.84 0.010172
14.8525 0.0105918
14.865 0.0109431
14.8775 0.0104566
14.89 0.0102691
14.9025 0.0106975
14.915 0.0110921
14.9275 0.0115319
14.94 0.0119291
14.9525 0.0123706
14.965 0.0128499
14.9775 0.0133444
14.99 0.0138635
15.0025 0.0143657
15.015 0.0150728
15.0275 0.015841
15.04 0.0166001
15.0525 0.0175045
15.065 0.0184343
15.0775 0.0193617
15.09 0.0203643
15.1025 0.0213915
15.115 0.0224252
15.1275 0.0234806
15.14 0.0245529
15.1525 0.025618
15.165 0.0266723
15.1775 0.0277147
15.19 0.0287275
15.2025 0.0296994
15.215 0.0306259
15.2275 0.0314979
15.24 0.0323061
15.2525 0.0330492
15.265 0.0337367
15.2775 0.0343794
15.29 0.0349338
15.3025 0.0354051
15.315 0.0359057
15.3275 0.0370744
15.34 0.0374243
15.3525 0.0378071
15.365 0.0381825
15.3775 0.0385745
15.39 0.0389519
15.4025 0.0393611
15.415 0.0397387
15.4275 0.0400879
15.44 0.040416
15.4525 0.0407038
15.465 0.040964
15.4775 0.0411811
15.49 0.0413545
15.5025 0.0414862
15.515 0.0415782
15.5275 0.0416455
15.54 0.0417848
15.5525 0.0417848
15.565 0.0418945
15.5775 0.0421298
15.59 0.0423146
15.6025 0.0425241
15.615 0.0428254
15.6275 0.0431614
15.64 0.0434881
15.6525 0.0438242
15.665 0.0441974
15.6775 0.0445292
15.69 0.0448272
15.7025 0.0451356
15.715 0.0453805
15.7275 0.04561
15.74 0.0457714
15.7525 0.0458805
15.765 0.0459351
15.7775 0.0459315
15.79 0.045882
15.8025 0.0457982
15.815 0.0456581
15.8275 0.0454679
15.84 0.0452389
15.8525 0.0449641
15.865 0.0446508
15.8775 0.0443049
15.89 0.0439253
15.9025 0.0435176
15.915 0.0430844
15.9275 0.0426327
15.94 0.0421624
15.9525 0.0416789
15.965 0.0411812
15.9775 0.0406733
15.99 0.0401575
16.0025 0.0396367
16.0125 0.0392172
16.0225 0.038797
16.0325 0.0383774
16.0425 0.0379511
16.0525 0.0375112
16.0625 0.0370804
16.0725 0.0366631
16.0825 0.0362435
16.0925 0.0358304
16.1025 0.0354298
16.1125 0.0350329
16.1225 0.0346432
16.1325 0.034265
16.1425 0.033893
16.1525 0.0335253
16.1625 0.0331663
16.1725 0.0328166
16.1825 0.0324714
16.1925 0.0321286
16.2025 0.0317899
16.2125 0.0314537
16.2225 0.0311171
16.2325 0.0307789
16.2425 0.0304372
16.2525 0.0300893
16.2625 0.0297334
16.2725 0.0293684
16.2825 0.0289921
16.2925 0.0286022
16.3025 0.028197
16.3125 0.0277766
16.3225 0.0273404
16.3325 0.0268882
16.3425 0.0264193
16.3525 0.0259309
16.3625 0.0254246
16.3725 0.0249028
16.3825 0.0243647
16.3925 0.0238109
16.4025 0.0232425
16.4125 0.0226624
16.4225 0.0220744
16.4325 0.0214827
16.4425 0.0208924
16.4525 0.0203083
16.4625 0.0197352
16.4725 0.0191781
16.4825 0.0186421
16.4925 0.0181317
16.5025 0.017651
16.5125 0.0172035
16.5225 0.0167922
16.5325 0.0164194
16.5425 0.0160868
16.5525 0.0157954
16.5625 0.0155457
16.5725 0.0153375
16.5825 0.0151702
16.5925 0.0150426
16.6025 0.014954
16.6125 0.0149025
16.6225 0.0148851
16.6325 0.014899
16.6425 0.0149402
16.6525 0.015005
16.6625 0.0150903
16.6725 0.0151929
16.6825 0.0153096
16.6925 0.0154363
16.7025 0.0155698
16.7125 0.0157065
16.7225 0.0158433
16.7325 0.0159773
16.7425 0.0161063
16.7525 0.0162284
16.7625 0.0163422
16.7725 0.0164466
16.7825 0.0165412
16.7925 0.0166258
16.8025 0.0167005
16.8125 0.0167656
16.8225 0.0168216
16.8325 0.0168692
16.8425 0.016909
16.8525 0.0169417
16.8625 0.0169681
16.8725 0.016989
16.8825 0.0170052
16.8925 0.0170174
16.9025 0.0170268
16.9125 0.0170334
16.9225 0.0170379
16.9325 0.0170393
16.9425 0.0170402
16.9525 0.0170398
16.9625 0.0170395
16.9725 0.0170402
16.9825 0.0170421
16.9925 0.0170461
17.0025 0.0170526
17.0125 0.0170627
17.0225 0.017077
17.0325 0.0170963
17.0425 0.0171214
17.0525 0.0171527
17.0625 0.0171903
17.0725 0.0172343
17.0825 0.0172839
17.0925 0.0173384
17.1025 0.0173967
17.1125 0.0174573
17.1225 0.017519
17.1325 0.0175795
17.1425 0.0176375
17.1525 0.0176913
17.1625 0.0177395
17.1725 0.0177809
17.1825 0.0178143
17.1925 0.0178392
17.2025 0.0178552
17.2125 0.0178622
17.2225 0.0178608
17.2325 0.0178517
17.2425 0.0178364
17.2525 0.0178168
17.2625 0.0177952
17.2725 0.017774
17.2825 0.0177559
17.2925 0.0177439
17.3025 0.017741
17.3125 0.0177503
17.3225 0.0177747
17.3325 0.0178171
17.3425 0.0178798
17.3525 0.017965
17.3625 0.0180744
17.3725 0.0182091
17.3825 0.0183698
17.3925 0.0185566
17.4025 0.018769
17.4125 0.0190057
17.4225 0.0192671
17.4325 0.0195324
17.4425 0.0198001
17.4525 0.0201021
17.4625 0.0204165
17.4725 0.0207419
17.4825 0.021089
17.4925 0.0214475
17.5025 0.0218151
17.5125 0.0221962
17.5225 0.0225857
17.5325 0.0229818
17.5425 0.0233831
17.5525 0.0237873
17.5625 0.0242034
17.5725 0.0246454
17.5825 0.0250812
17.5925 0.0255
17.6025 0.0259232
17.6125 0.0263497
17.6225 0.0267702
17.6325 0.0271826
17.6425 0.0275911
17.6525 0.0279976
17.6625 0.0283973
17.6725 0.0287884
17.6825 0.0291731
17.6925 0.0295504
17.7025 0.0299189
17.7125 0.030279
17.7225 0.0306311
17.7325 0.0309741
17.7425 0.0313075
17.7525 0.031632
17.7625 0.0319477
17.7725 0.0322544
17.7825 0.0325519
17.7925 0.032841
17.8025 0.0331217
17.8125 0.0333943
17.8225 0.033659
17.8325 0.033916
17.8425 0.0341651
17.8525 0.0344063
17.8625 0.0346395
17.8725 0.0348642
17.8825 0.03508
17.8925 0.035286
17.9025 0.0354815
17.9125 0.0356648
17.9225 0.0358351
17.9325 0.0359918
17.9425 0.0361344
17.9525 0.0362623
17.9625 0.0363752
17.9725 0.036473
17.9825 0.0365549
17.9925 0.0366225
18.0025 0.036676
18.0125 0.0367121
18.0225 0.0367313
18.0325 0.0367355
18.0425 0.0367248
18.0525 0.0366989
18.0625 0.0366598
18.0725 0.0366089
18.0825 0.036546
18.0925 0.0364727
18.1025 0.0363905
18.1125 0.036301
18.1225 0.0362051
18.1325 0.0361043
18.1425 0.0360001
18.1525 0.0358942
18.1625 0.0357879
18.1725 0.0356832
18.1825 0.0355819
18.1925 0.0354824
18.2025 0.0353879
18.2125 0.0352976
18.2225 0.0352122
18.2325 0.0351315
18.2425 0.0350485
18.2525 0.0349636
18.2625 0.0348862
18.2725 0.0348083
18.2825 0.0347283
18.2925 0.0346481
18.3025 0.0345646
18.3125 0.0344762
18.3225 0.034384
18.3325 0.0342853
18.3425 0.0341783
18.3525 0.0340629
18.3625 0.0339406
18.3725 0.0338132
18.3825 0.0336801
18.3925 0.0335421
18.4025 0.0334013
18.4125 0.0332591
18.4225 0.0331174
18.4325 0.0329782
18.4425 0.0328432
18.4525 0.0327146
18.4625 0.0325947
18.4725 0.0324845
18.4825 0.0323839
18.4925 0.0322945
18.5025 0.0322173
18.5125 0.032152
18.5225 0.0320986
18.5325 0.0320587
18.5425 0.0320349
18.5525 0.0320185
18.5625 0.0320114
18.5725 0.0320125
18.5825 0.0320187
18.5925 0.0320287
18.6025 0.0320409
18.6125 0.0320533
18.6225 0.032063
18.6325 0.0320679
18.6425 0.0320662
18.6525 0.0320524
18.6625 0.032027
18.6725 0.0319934
18.6825 0.0319467
18.6925 0.0318861
18.7025 0.0318133
18.7125 0.031727
18.7225 0.0316274
18.7325 0.0315154
18.7425 0.0313924
18.7525 0.0312583
18.7625 0.0311121
18.7725 0.0309571
18.7825 0.030796
18.7925 0.0306285
18.8025 0.0304575
18.8125 0.0302849
18.8225 0.030111
18.8325 0.0299364
18.8425 0.0297646
18.8525 0.0295965
18.8625 0.0294315
18.8725 0.0292709
18.8825 0.0291157
18.8925 0.0289653
18.9025 0.0288194
18.9125 0.0286782
18.9225 0.0285421
18.9325 0.0284106
18.9425 0.0282824
18.9525 0.0281569
18.9625 0.0280357
18.9725 0.0279186
18.9825 0.0278011
18.9925 0.0276858
19.0025 0.0275721
19.0125 0.0274583
19.0225 0.0273457
19.0325 0.0272347
19.0425 0.0271255
19.0525 0.0270183
19.0625 0.0269135
19.0725 0.0268114
19.0825 0.0267123
19.0925 0.0266164
19.1025 0.0265238
19.1125 0.0264345
19.1225 0.0263485
19.1325 0.0262657
19.1425 0.0261859
19.1525 0.0261087
19.1625 0.0260347
19.1725 0.0259639
19.1825 0.0258957
19.1925 0.0258301
19.2025 0.0257667
19.2125 0.0257057
19.2225 0.0256469
19.2325 0.0255903
19.2425 0.0255356
19.2525 0.0254827
19.2625 0.0254316
19.2725 0.0253824
19.2825 0.0253352
19.2925 0.02529
19.3025 0.025247
19.3125 0.0252062
19.3225 0.0251681
19.3325 0.0251327
19.3425 0.0251006
19.3525 0.0250722
19.3625 0.0250478
19.3725 0.0250274
19.3825 0.0250113
19.3925 0.025
19.4025 0.0249933
19.4125 0.0249911
19.4225 0.0249931
19.4325 0.024999
19.4425 0.0250095
19.4525 0.025028
19.4625 0.0250443
19.4725 0.0250602
19.4825 0.025074
19.4925 0.0250823
19.5025 0.0250837
19.5125 0.0250729
19.5225 0.0250469
19.5325 0.0250134
19.5425 0.0249647
19.5525 0.0249018
19.5625 0.024825
19.5725 0.0247318
19.5825 0.0246234
19.5925 0.0244997
19.6025 0.0243609
19.6125 0.0242081
19.6225 0.0240423
19.6325 0.0238651
19.6425 0.0236779
19.6525 0.0234818
19.6625 0.0232766
19.6725 0.0230656
19.6825 0.0228492
19.6925 0.0226293
19.7025 0.0224079
19.7125 0.0221858
19.7225 0.0219645
19.7325 0.0217458
19.7425 0.0215311
19.7525 0.0213215
19.7625 0.0211179
19.7725 0.020922
19.7825 0.020735
19.7925 0.0205547
19.8025 0.020374
19.8125 0.0202012
19.8225 0.0200445
19.8325 0.0198951
19.8425 0.0197506
19.8525 0.0196149
19.8625 0.0194847
19.8725 0.0193574
19.8825 0.0192332
19.8925 0.0191091
19.9025 0.0189825
19.9125 0.0188528
19.9225 0.0187189
19.9325 0.0185797
19.9425 0.0184339
19.9525 0.0182804
19.9625 0.0181186
19.9725 0.0179483
19.9825 0.0177699
19.9925 0.0175844
20.0025 0.0173928
20.0125 0.0171968
20.0225 0.0169985
20.0325 0.0168006
20.0425 0.0166059
20.0525 0.0164172
20.0625 0.0162372
20.0725 0.0160686
20.0825 0.0159138
20.0925 0.0157751
20.1025 0.0156543
20.1125 0.0155531
20.1225 0.0154726
20.1325 0.0154138
20.1425 0.0153769
20.1525 0.0153622
20.1625 0.0153692
20.1725 0.0153971
20.1825 0.0154447
20.1925 0.0155095
20.2025 0.01559
20.2125 0.015684
20.2225 0.0157888
20.2325 0.015902
20.2425 0.0160207
20.2525 0.0161425
20.2625 0.0162644
20.2725 0.0163839
20.2825 0.0164986
20.2925 0.0166062
20.3025 0.0167049
20.3125 0.016793
20.3225 0.0168693
20.3325 0.0169332
20.3425 0.0169844
20.3525 0.0170231
20.3625 0.0170501
20.3725 0.0170663
20.3825 0.0170734
20.3925 0.0170732
20.4025 0.0170678
20.4125 0.0170579
20.4225 0.0170461
20.4325 0.0170365
20.4425 0.0170295
20.4525 0.0170286
20.4625 0.0170351
20.4725 0.0170509
20.4825 0.0170777
20.4925 0.0171167
20.5025 0.0171689
20.5125 0.0172348
20.5225 0.0173146
20.5325 0.0174081
20.5425 0.0175148
20.5525 0.0176339
20.5625 0.0177642
20.5725 0.0179042
20.5825 0.0180525
20.5925 0.018207
20.6025 0.0183659
20.6125 0.0185271
20.6225 0.0186887
20.6325 0.0188495
20.6425 0.019009
20.6525 0.0191681
20.6625 0.0193191
20.6725 0.019464
20.6825 0.0196023
20.6925 0.0197301
20.7025 0.0198489
20.7125 0.0199584
20.7225 0.0200573
20.7325 0.0201439
20.7425 0.0202062
20.7525 0.0202601
20.7625 0.02031
20.7725 0.0203499
20.7825 0.020385
20.7925 0.0204168
20.8025 0.0204521
20.8125 0.0204938
20.8225 0.0205323
20.8325 0.0205722
20.8425 0.0206189
20.8525 0.0206708
20.8625 0.0207283
20.8725 0.0207953
20.8825 0.0208727
20.8925 0.0209602
20.9025 0.0210595
20.9125 0.0211723
20.9225 0.0212988
20.9325 0.02144
20.9425 0.0215967
20.9525 0.0217719
20.9625 0.0219685
20.9725 0.0221815
20.9825 0.0224084
20.9925 0.0226531
21.0025 0.0229166
21.0125 0.0231958
21.0225 0.0234902
21.0325 0.0237993
21.0425 0.024121
21.0525 0.0244525
21.0625 0.0247917
21.0725 0.0251364
21.0825 0.0254834
21.0925 0.0258295
21.1025 0.0261726
21.1125 0.0265097
21.1225 0.0268381
21.1325 0.0271532
21.1425 0.0274537
21.1525 0.0277409
21.1625 0.028009
21.1725 0.0282586
21.1825 0.0284936
21.1925 0.0287103
21.2025 0.028907
21.2125 0.0290868
21.2225 0.0292509
21.2325 0.029399
21.2425 0.0295333
21.2525 0.0296556
21.2625 0.0297676
21.2725 0.0298711
21.2825 0.0299686
21.2925 0.0300616
21.3025 0.030152
21.3125 0.0302414
21.3225 0.0303318
21.3325 0.0304249
21.3425 0.0305206
21.3525 0.0306198
21.3625 0.0307242
21.3725 0.0308341
21.3825 0.0309499
21.3925 0.0310721
21.4025 0.0312009
21.4125 0.0313357
21.4225 0.0314761
21.4325 0.0316216
21.4425 0.031771
21.4525 0.0319233
21.4625 0.0320769
21.4725 0.0322303
21.4825 0.0323815
21.4925 0.0325284
21.5025 0.032669
21.5125 0.0328007
21.5225 0.0329212
21.5325 0.0330273
21.5425 0.0331163
21.5525 0.0331861
21.5625 0.0332343
21.5725 0.0332588
21.5825 0.033258
21.5925 0.0332317
21.6025 0.0331792
21.6125 0.0330996
21.6225 0.0329933
21.6325 0.0328611
21.6425 0.0327044
21.6525 0.0325268
21.6625 0.0323388
21.6725 0.0321281
21.6825 0.0318992
21.6925 0.0316561
21.7025 0.0313999
21.7125 0.031133
21.7225 0.0308542
21.7325 0.0305566
21.7425 0.0302604
21.7525 0.0299729
21.7625 0.0296831
21.7725 0.029398
21.7825 0.0291268
21.7925 0.0288683
21.8025 0.0286222
21.8125 0.028393
21.8225 0.0281831
21.8325 0.027994
21.8425 0.0278283
21.8525 0.0276872
21.8625 0.0275712
21.8725 0.0274809
21.8825 0.0274165
21.8925 0.0273771
21.9025 0.0273611
21.9125 0.0273663
21.9225 0.0273905
21.9325 0.0274314
21.9425 0.027486
21.9525 0.0275512
21.9625 0.0276241
21.9725 0.0277013
21.9825 0.0277807
21.9925 0.0278586
22.0025 0.0279316
22.0125 0.028001
22.0225 0.0280646
22.0325 0.0281167
22.0425 0.0281612
22.0525 0.0281991
22.0625 0.0282277
22.0725 0.0282479
22.0825 0.0282601
22.0925 0.0282649
22.1025 0.0282637
22.1125 0.0282574
22.1225 0.0282471
22.1325 0.0282339
22.1425 0.0282197
22.1525 0.0282063
22.1625 0.0281961
22.1725 0.0281889
22.1825 0.0281864
22.1925 0.02819
22.2025 0.0281998
22.2125 0.0282167
22.2225 0.0282434
22.2325 0.0282787
22.2425 0.0283255
22.2525 0.0283844
22.2625 0.028454
22.2725 0.0285376
22.2825 0.0286434
22.2925 0.0287662
22.3025 0.0288971
22.3125 0.0290423
22.3225 0.0292051
22.3325 0.0293799
22.3425 0.0295665
22.3525 0.0297659
22.3625 0.0299749
22.3725 0.0301911
22.3825 0.0304139
22.3925 0.0306404
22.4025 0.0308672
22.4125 0.0310908
22.4225 0.0313112
22.4325 0.0315267
22.4425 0.0317321
22.4525 0.0319255
22.4625 0.0321056
22.4725 0.0322691
22.4825 0.0324129
22.4925 0.0325347
22.5025 0.0326316
22.5125 0.0327011
22.5225 0.0327417
22.5325 0.0327512
22.5425 0.0327284
22.5525 0.0326791
22.5625 0.0326042
22.5725 0.0324975
22.5825 0.0323636
22.5925 0.0322037
22.6025 0.0320193
22.6125 0.0318127
22.6225 0.0315861
22.6325 0.0313423
22.6425 0.0310844
22.6525 0.0308155
22.6625 0.0305394
22.6725 0.0302582
22.6825 0.0299648
22.6925 0.029672
22.7025 0.0293933
22.7125 0.0291195
22.7225 0.0288542
22.7325 0.0286058
22.7425 0.028374
22.7525 0.028159
22.7625 0.0279597
22.7725 0.027778
22.7825 0.0276143
22.7925 0.0274684
22.8025 0.0273398
22.8125 0.0272264
22.8225 0.0271265
22.8325 0.0270388
22.8425 0.0269613
22.8525 0.0268914
22.8625 0.0268265
22.8725 0.0267641
22.8825 0.0267019
22.8925 0.0266378
22.9025 0.0265698
22.9125 0.0264962
22.9225 0.0264154
22.9325 0.0263266
22.9425 0.0262295
22.9525 0.0261238
22.9625 0.0260104
22.9725 0.0258906
22.9825 0.0257657
22.9925 0.0256376
23.0025 0.0255084
23.0125 0.0253805
23.0225 0.0252569
23.0325 0.0251403
23.0425 0.0250334
23.0525 0.0249392
23.0625 0.0248605
23.0725 0.0248
23.0825 0.0247602
23.0925 0.0247433
23.1025 0.0247526
23.1125 0.024789
23.1225 0.0248491
23.1325 0.0249343
23.1425 0.0250435
23.1525 0.0251756
23.1625 0.0253291
23.1725 0.0255015
23.1825 0.0256895
23.1925 0.0258901
23.2025 0.026093
23.2125 0.0263101
23.2225 0.0265364
23.2325 0.0267669
23.2425 0.0270004
23.2525 0.0272355
23.2625 0.027472
23.2725 0.0277155
23.2825 0.0279647
23.2925 0.0282005
23.3025 0.0284235
23.3125 0.0286406
23.3225 0.0288498
23.3325 0.0290435
23.3425 0.0292219
23.3525 0.0293885
23.3625 0.0295397
23.3725 0.0296725
23.3825 0.0297893
23.3925 0.0298907
23.4025 0.0299756
23.4125 0.0300449
23.4225 0.0301001
23.4325 0.0301418
23.4425 0.0301721
23.4525 0.0301931
23.4625 0.0302068
23.4725 0.0302159
23.4825 0.0302237
23.4925 0.0302291
23.5025 0.0302338
23.5125 0.0302423
23.5225 0.0302551
23.5325 0.0302723
23.5425 0.030296
23.5525 0.0303276
23.5625 0.0303672
23.5725 0.030415
23.5825 0.0304717
23.5925 0.0305371
23.6025 0.0306105
23.6125 0.0306908
23.6225 0.0307766
23.6325 0.0308663
23.6425 0.0309581
23.6525 0.0310495
23.6625 0.031138
23.6725 0.0312204
23.6825 0.0312952
23.6925 0.0313601
23.7025 0.0314144
23.7125 0.0314555
23.7225 0.0314811
23.7325 0.0314893
23.7425 0.0314784
23.7525 0.0314472
23.7625 0.0313948
23.7725 0.0313204
23.7825 0.0312243
23.7925 0.0311119
23.8025 0.0309813
23.8125 0.0308281
23.8225 0.0306586
23.8325 0.030467
23.8425 0.0302503
23.8525 0.0300247
23.8625 0.0297909
23.8725 0.0295424
23.8825 0.0292873
23.8925 0.0290313
23.9025 0.0287734
23.9125 0.0285155
23.9225 0.0282623
23.9325 0.0280166
23.9425 0.0277811
23.9525 0.0275589
23.9625 0.0273522
23.9725 0.0271626
23.9825 0.0269929
23.9925 0.0268456
24.0025 0.0267219
24.0125 0.0266231
24.0225 0.0265515
24.0325 0.0265092
24.0425 0.0264942
24.0525 0.0265063
24.0625 0.0265453
24.0725 0.0266092
24.0825 0.0266957
24.0925 0.0268032
24.1025 0.0269293
24.1125 0.0270709
24.1225 0.0272235
24.1325 0.0273794
24.1425 0.027542
24.1525 0.0277133
24.1625 0.0278853
24.1725 0.0280597
24.1825 0.0282349
24.1925 0.0284061
24.2025 0.0285733
24.2125 0.0287344
24.2225 0.0288866
24.2325 0.0290296
24.2425 0.0291602
24.2525 0.0292797
24.2625 0.0293942
24.2725 0.0294925
24.2825 0.029571
24.2925 0.029638
24.3025 0.0296914
24.3125 0.0297297
24.3225 0.029758
24.3325 0.0297756
24.3425 0.0297819
24.3525 0.0297871
24.3625 0.0297905
24.3725 0.0297927
24.3825 0.0298002
24.3925 0.0298167
24.4025 0.0298496
24.4125 0.029894
24.4225 0.0299469
24.4325 0.0300149
24.4425 0.0301007
24.4525 0.0302019
24.4625 0.0303184
24.4725 0.0304532
24.4825 0.0306069
24.4925 0.0307772
24.5025 0.0309628
24.5125 0.0311622
24.5225 0.0313704
24.5325 0.0315858
24.5425 0.0318076
24.5525 0.0320344
24.5625 0.0322609
24.5725 0.0324838
24.5825 0.032702
24.5925 0.0329115
24.6025 0.0331081
24.6125 0.0332893
24.6225 0.0334524
24.6325 0.0335938
24.6425 0.0337109
24.6525 0.0338015
24.6625 0.0338629
24.6725 0.0338927
24.6825 0.0338901
24.6925 0.0338556
24.7025 0.0337895
24.7125 0.0336928
24.7225 0.0335676
24.7325 0.0334164
24.7425 0.0332432
24.7525 0.0330577
24.7625 0.0328579
24.7725 0.0326469
24.7825 0.0324292
24.7925 0.0322079
24.8025 0.0319877
24.8125 0.0317677
24.8225 0.0315455
24.8325 0.0313377
24.8425 0.0311478
24.8525 0.0309692
24.8625 0.0308097
24.8725 0.0306752
24.8825 0.0305616
24.8925 0.0304691
24.9025 0.0304036
24.9125 0.0303628
24.9225 0.0303437
24.9325 0.0303476
24.9425 0.0303727
24.9525 0.0304162
24.9625 0.0304757
24.9725 0.0305475
24.9825 0.0306277
24.9925 0.0307135
25.0025 0.030801
25.0125 0.0308861
25.0225 0.0309653
25.0325 0.0310369
25.0425 0.0310981
25.0525 0.0311463
25.0625 0.0311793
25.0725 0.0311948
25.0825 0.0311909
25.0925 0.0311676
25.1025 0.0311249
25.1125 0.0310641
25.1225 0.0309838
25.1325 0.0308834
25.1425 0.0307656
25.1525 0.0306319
25.1625 0.0304842
25.1725 0.0303275
25.1825 0.0301638
25.1925 0.0299918
25.2025 0.0298176
25.2125 0.0296448
25.2225 0.0294736
25.2325 0.0293065
25.2425 0.0291447
25.2525 0.0289942
25.2625 0.0288552
25.2725 0.0287266
25.2825 0.0286117
25.2925 0.0285113
25.3025 0.0284244
25.3125 0.0283519
25.3225 0.0282935
25.3325 0.0282486
25.3425 0.0282168
25.3525 0.0281973
25.3625 0.0281888
25.3725 0.02819
25.3825 0.0281978
25.3925 0.028212
25.4025 0.0282321
25.4125 0.0282549
25.4225 0.0282794
25.4325 0.0283036
25.4425 0.0283255
25.4525 0.0283437
25.4625 0.0283564
25.4725 0.028362
25.4825 0.0283595
25.4925 0.0283478
25.5025 0.0283255
25.5125 0.0282926
25.5225 0.0282484
25.5325 0.0281931
25.5425 0.0281268
25.5525 0.0280498
25.5625 0.0279622
25.5725 0.0278602
25.5825 0.027749
25.5925 0.0276332
25.6025 0.027509
25.6125 0.0273776
25.6225 0.0272424
25.6325 0.0271043
25.6425 0.0269641
25.6525 0.0268218
25.6625 0.026679
25.6725 0.026537
25.6825 0.0263966
25.6925 0.0262589
25.7025 0.0261248
25.7125 0.0259947
25.7225 0.0258695
25.7325 0.0257499
25.7425 0.0256365
25.7525 0.0255295
25.7625 0.0254292
25.7725 0.0253357
25.7825 0.0252491
25.7925 0.0251695
25.8025 0.0250966
25.8125 0.0250301
25.8225 0.0249697
25.8325 0.0249149
25.8425 0.0248652
25.8525 0.02482
25.8625 0.0247787
25.8725 0.0247408
25.8825 0.0247057
25.8925 0.0246727
25.9025 0.0246416
25.9125 0.024612
25.9225 0.0245831
25.9325 0.0245547
25.9425 0.0245264
25.9525 0.0244981
25.9625 0.0244697
25.9725 0.024441
25.9825 0.0244119
25.9925 0.0243826
26.0025 0.0243532
26.0125 0.0243239
26.0225 0.0242949
26.0325 0.0242667
26.0425 0.0242395
26.0525 0.0242138
26.0625 0.0241901
26.0725 0.0241687
26.0825 0.02415
26.0925 0.0241345
26.1025 0.0241227
26.1125 0.0241146
26.1225 0.0241105
26.1325 0.0241108
26.1425 0.0241154
26.1525 0.0241245
26.1625 0.0241382
26.1725 0.0241563
26.1825 0.0241789
26.1925 0.0242058
26.2025 0.0242368
26.2125 0.0242713
26.2225 0.024309
26.2325 0.0243493
26.2425 0.0243917
26.2525 0.0244353
26.2625 0.0244794
26.2725 0.0245239
26.2825 0.0245675
26.2925 0.02461
26.3025 0.0246505
26.3125 0.0246887
26.3225 0.024724
26.3325 0.0247562
26.3425 0.0247849
26.3525 0.02481
26.3625 0.0248315
26.3725 0.0248495
26.3825 0.024864
26.3925 0.0248754
26.4025 0.024884
26.4125 0.0248903
26.4225 0.0248947
26.4325 0.0248977
26.4425 0.0249001
26.4525 0.0249022
26.4625 0.0249049
26.4725 0.0249085
26.4825 0.0249137
26.4925 0.024921
26.5025 0.0249309
26.5125 0.0249437
26.5225 0.0249597
26.5325 0.0249791
26.5425 0.0250022
26.5525 0.0250288
26.5625 0.0250591
26.5725 0.0250928
26.5825 0.0251296
26.5925 0.0251694
26.6025 0.0252117
26.6125 0.025256
26.6225 0.025302
26.6325 0.025349
26.6425 0.0253966
26.6525 0.0254443
26.6625 0.0254915
26.6725 0.0255377
26.6825 0.0255826
26.6925 0.0256257
26.7025 0.0256667
26.7125 0.0257054
26.7225 0.0257417
26.7325 0.0257754
26.7425 0.0258067
26.7525 0.0258354
26.7625 0.0258584
26.7725 0.0258795
26.7825 0.025901
26.7925 0.0259211
26.8025 0.0259419
26.8125 0.0259638
26.8225 0.0259862
26.8325 0.0260108
26.8425 0.0260381
26.8525 0.0260681
26.8625 0.0261014
26.8725 0.0261382
26.8825 0.026179
26.8925 0.0262237
26.9025 0.026272
26.9125 0.0263246
26.9225 0.0263811
26.9325 0.0264412
26.9425 0.0265045
26.9525 0.0265736
26.9625 0.026648
26.9725 0.0267227
26.9825 0.0267989
26.9925 0.026878
27.0025 0.0269576
27.0125 0.027037
27.0225 0.0271168
27.0325 0.0271958
27.0425 0.0272729
27.0525 0.0273482
27.0625 0.0274209
27.0725 0.0274903
27.0825 0.0275561
27.0925 0.0276178
27.1025 0.0276752
27.1125 0.0277277
27.1225 0.0277752
27.1325 0.0278177
27.1425 0.0278549
27.1525 0.0278868
27.1625 0.0279136
27.1725 0.0279353
27.1825 0.0279522
27.1925 0.0279645
27.2025 0.0279725
27.2125 0.0279767
27.2225 0.0279773
27.2325 0.0279749
27.2425 0.0279698
27.2525 0.0279627
27.2625 0.027954
27.2725 0.0279442
27.2825 0.0279338
27.2925 0.0279231
27.3025 0.0279127
27.3125 0.0279028
27.3225 0.0278939
27.3325 0.027886
27.3425 0.0278795
27.3525 0.0278745
27.3625 0.027871
27.3725 0.0278691
27.3825 0.0278687
27.3925 0.0278695
27.4025 0.0278715
27.4125 0.0278744
27.4225 0.0278778
27.4325 0.0278818
27.4425 0.0278855
27.4525 0.0278887
27.4625 0.0278912
27.4725 0.0278923
27.4825 0.0278918
27.4925 0.0278894
27.5025 0.0278846
27.5125 0.0278774
27.5225 0.0278675
27.5325 0.0278547
27.5425 0.0278391
27.5525 0.0278204
27.5625 0.0277974
27.5725 0.0277718
27.5825 0.0277438
27.5925 0.0277127
27.6025 0.0276792
27.6125 0.0276437
27.6225 0.0276061
27.6325 0.0275671
27.6425 0.0275287
27.6525 0.0274896
27.6625 0.0274494
27.6725 0.0274092
27.6825 0.0273692
27.6925 0.0273294
27.7025 0.0272904
27.7125 0.0272522
27.7225 0.0272151
27.7325 0.0271795
27.7425 0.0271454
27.7525 0.027113
27.7625 0.0270824
27.7725 0.0270536
27.7825 0.0270266
27.7925 0.0270015
27.8025 0.0269782
27.8125 0.0269565
27.8225 0.0269364
27.8325 0.0269176
27.8425 0.0268999
27.8525 0.0268832
27.8625 0.0268671
27.8725 0.0268514
27.8825 0.0268357
27.8925 0.0268197
27.9025 0.0268033
27.9125 0.026786
27.9225 0.0267675
27.9325 0.0267475
27.9425 0.0267259
27.9525 0.0267024
27.9625 0.0266767
27.9725 0.0266488
27.9825 0.0266185
27.9925 0.0265856
28.0025 0.0265501
28.0125 0.0265121
28.0225 0.0264715
28.0325 0.0264283
28.0425 0.0263828
28.0525 0.026335
28.0625 0.0262851
28.0725 0.0262333
28.0825 0.0261798
28.0925 0.0261249
28.1025 0.0260688
28.1125 0.0260117
28.1225 0.0259541
28.1325 0.025896
28.1425 0.0258379
28.1525 0.0257799
28.1625 0.0257222
28.1725 0.0256652
28.1825 0.025609
28.1925 0.0255537
28.2025 0.0254996
28.2125 0.025447
28.2225 0.0253961
28.2325 0.0253461
28.2425 0.0252981
28.2525 0.0252517
28.2625 0.0252067
28.2725 0.0251635
28.2825 0.0251218
28.2925 0.0250816
28.3025 0.0250428
28.3125 0.0250053
28.3225 0.0249689
28.3325 0.0249334
28.3425 0.0248988
28.3525 0.0248649
28.3625 0.0248315
28.3725 0.0247984
28.3825 0.0247656
28.3925 0.0247328
28.4025 0.0247001
28.4125 0.0246673
28.4225 0.0246344
28.4325 0.0246013
28.4425 0.0245681
28.4525 0.0245347
28.4625 0.0245014
28.4725 0.024468
28.4825 0.0244349
28.4925 0.024402
28.5025 0.0243697
28.5125 0.024338
28.5225 0.0243072
28.5325 0.0242774
28.5425 0.024249
28.5525 0.024222
28.5625 0.0241967
28.5725 0.0241733
28.5825 0.024152
28.5925 0.0241331
28.6025 0.0241166
28.6125 0.0241027
28.6225 0.0240916
28.6325 0.0240832
28.6425 0.0240776
28.6525 0.0240748
28.6625 0.0240747
28.6725 0.0240773
28.6825 0.0240825
28.6925 0.0240901
28.7025 0.0240999
28.7125 0.0241117
28.7225 0.0241252
28.7325 0.0241402
28.7425 0.0241564
28.7525 0.0241734
28.7625 0.024191
28.7725 0.0242087
28.7825 0.0242262
28.7925 0.0242433
28.8025 0.0242596
28.8125 0.024275
28.8225 0.024289
28.8325 0.0243017
28.8425 0.0243129
28.8525 0.0243225
28.8625 0.0243304
28.8725 0.0243367
28.8825 0.0243415
28.8925 0.0243448
28.9025 0.0243469
28.9125 0.0243479
28.9225 0.024348
28.9325 0.0243476
28.9425 0.0243467
28.9525 0.0243458
28.9625 0.0243451
28.9725 0.0243448
28.9825 0.0243453
28.9925 0.0243466
29.0025 0.0243491
29.0125 0.0243528
29.0225 0.024358
29.0325 0.0243647
29.0425 0.024373
29.0525 0.0243829
29.0625 0.0243943
29.0725 0.0244072
29.0825 0.0244215
29.0925 0.024437
29.1025 0.0244536
29.1125 0.0244711
29.1225 0.0244893
29.1325 0.024508
29.1425 0.0245269
29.1525 0.0245459
29.1625 0.0245648
29.1725 0.0245834
29.1825 0.0246016
29.1925 0.0246191
29.2025 0.024636
29.2125 0.0246521
29.2225 0.0246674
29.2325 0.024682
29.2425 0.0246958
29.2525 0.024709
29.2625 0.0247217
29.2725 0.024734
29.2825 0.024746
29.2925 0.0247579
29.3025 0.02477
29.3125 0.0247824
29.3225 0.0247953
29.3325 0.0248089
29.3425 0.0248234
29.3525 0.0248389
29.3625 0.0248555
29.3725 0.0248733
29.3825 0.0248925
29.3925 0.0249129
29.4025 0.0249346
29.4125 0.0249576
29.4225 0.024982
29.4325 0.0250064
29.4425 0.0250302
29.4525 0.0250561
29.4625 0.0250828
29.4725 0.02511
29.4825 0.0251381
29.4925 0.0251665
29.5025 0.0251952
29.5125 0.0252241
29.5225 0.0252539
29.5325 0.0252847
29.5425 0.0253144
29.5525 0.0253431
29.5625 0.0253717
29.5725 0.0253993
29.5825 0.0254255
29.5925 0.0254507
29.6025 0.0254746
29.6125 0.0254968
29.6225 0.0255173
29.6325 0.0255361
29.6425 0.0255531
29.6525 0.0255681
29.6625 0.0255811
29.6725 0.0255921
29.6825 0.025601
29.6925 0.0256079
29.7025 0.0256129
29.7125 0.0256159
29.7225 0.0256171
29.7325 0.0256167
29.7425 0.0256148
29.7525 0.0256114
29.7625 0.0256068
29.7725 0.0256012
29.7825 0.0255946
29.7925 0.0255873
29.8025 0.0255794
29.8125 0.0255712
29.8225 0.0255627
29.8325 0.0255543
29.8425 0.0255456
29.8525 0.0255368
29.8625 0.0255288
29.8725 0.0255209
29.8825 0.0255136
29.8925 0.0255067
29.9025 0.0255003
29.9125 0.0254943
29.9225 0.0254888
29.9325 0.0254835
29.9425 0.0254785
29.9525 0.0254737
29.9625 0.0254689
29.9725 0.025464
29.9825 0.0254589
29.9925 0.0254534
30.0025 0.0254477
30.0125 0.0254417
30.0225 0.0254348
30.0325 0.0254271
30.0425 0.0254185
30.0525 0.0254087
30.0625 0.0253978
30.0725 0.0253857
30.0825 0.0253722
30.0925 0.0253574
30.1025 0.0253413
30.1125 0.0253238
30.1225 0.0253051
30.1325 0.0252852
30.1425 0.0252642
30.1525 0.0252422
30.1625 0.0252194
30.1725 0.0251959
30.1825 0.0251719
30.1925 0.0251476
30.2025 0.0251231
30.2125 0.0250986
30.2225 0.0250743
30.2325 0.0250503
30.2425 0.0250269
30.2525 0.025004
30.2625 0.0249819
30.2725 0.0249606
30.2825 0.0249402
30.2925 0.0249208
30.3025 0.0249022
30.3125 0.0248846
30.3225 0.0248678
30.3325 0.0248517
30.3425 0.0248364
30.3525 0.0248216
30.3625 0.0248072
30.3725 0.024793
30.3825 0.0247789
30.3925 0.0247647
30.4025 0.0247502
30.4125 0.0247353
30.4225 0.0247196
30.4325 0.0247031
30.4425 0.0246856
30.4525 0.024667
30.4625 0.0246472
30.4725 0.024626
30.4825 0.0246034
30.4925 0.0245794
30.5025 0.024554
30.5125 0.0245271
30.5225 0.0244988
30.5325 0.0244692
30.5425 0.0244384
30.5525 0.0244065
30.5625 0.0243737
30.5725 0.0243401
30.5825 0.0243058
30.5925 0.0242711
30.6025 0.0242362
30.6125 0.0242012
30.6225 0.0241664
30.6325 0.0241319
30.6425 0.0240979
30.6525 0.0240646
30.6625 0.0240321
30.6725 0.0240006
30.6825 0.0239701
30.6925 0.0239408
30.7025 0.0239128
30.7125 0.023886
30.7225 0.0238605
30.7325 0.0238363
30.7425 0.0238133
30.7525 0.0237916
30.7625 0.0237709
30.7725 0.0237513
30.7825 0.0237327
30.7925 0.0237148
30.8025 0.0236977
30.8125 0.0236811
30.8225 0.0236649
30.8325 0.023649
30.8425 0.0236333
30.8525 0.0236176
30.8625 0.0236018
30.8725 0.0235859
30.8825 0.0235698
30.8925 0.0235534
30.9025 0.0235367
30.9125 0.0235197
30.9225 0.0235024
30.9325 0.0234848
30.9425 0.023467
30.9525 0.023449
30.9625 0.0234311
30.9725 0.0234131
30.9825 0.0233954
30.9925 0.0233781
31.0025 0.0233612
31.0125 0.023345
31.0225 0.0233296
31.0325 0.0233152
31.0425 0.0233019
31.0525 0.0232899
31.0625 0.0232793
31.0725 0.0232703
31.0825 0.0232629
31.0925 0.0232571
31.1025 0.0232532
31.1125 0.0232509
31.1225 0.0232504
31.1325 0.0232516
31.1425 0.0232544
31.1525 0.0232588
31.1625 0.0232646
31.1725 0.0232717
31.1825 0.0232799
31.1925 0.0232891
31.2025 0.0232991
31.2125 0.0233095
31.2225 0.0233202
31.2325 0.023331
31.2425 0.0233417
31.2525 0.023352
31.2625 0.0233617
31.2725 0.0233708
31.2825 0.023379
31.2925 0.0233863
31.3025 0.0233926
31.3125 0.0233978
31.3225 0.0234021
31.3325 0.0234053
31.3425 0.0234075
31.3525 0.023409
31.3625 0.0234097
31.3725 0.0234098
31.3825 0.0234096
31.3925 0.0234091
31.4025 0.0234086
31.4125 0.0234082
31.4225 0.0234082
31.4325 0.0234087
31.4425 0.0234099
31.4525 0.023412
31.4625 0.023415
31.4725 0.0234191
31.4825 0.0234243
31.4925 0.0234308
31.5025 0.0234384
31.5125 0.0234472
31.5225 0.0234572
31.5325 0.0234683
31.5425 0.0234803
31.5525 0.0234932
31.5625 0.0235068
31.5725 0.0235209
31.5825 0.0235354
31.5925 0.0235501
31.6025 0.0235649
31.6125 0.0235795
31.6225 0.0235939
31.6325 0.0236078
31.6425 0.0236212
31.6525 0.0236339
31.6625 0.0236459
31.6725 0.0236572
31.6825 0.0236676
31.6925 0.0236772
31.7025 0.0236861
31.7125 0.0236943
31.7225 0.0237019
31.7325 0.0237089
31.7425 0.0237156
31.7525 0.023722
31.7625 0.0237283
31.7725 0.0237347
31.7825 0.0237412
31.7925 0.0237481
31.8025 0.0237555
31.8125 0.0237635
31.8225 0.0237721
31.8325 0.0237816
31.8425 0.0237918
31.8525 0.023803
31.8625 0.0238149
31.8725 0.0238278
31.8825 0.0238414
31.8925 0.0238554
31.9025 0.0238689
31.9125 0.0238832
31.9225 0.0238981
31.9325 0.023913
31.9425 0.0239283
31.9525 0.0239436
31.9625 0.0239588
31.9725 0.0239737
31.9825 0.0239884
31.9925 0.0240026
32.0025 0.0240162
32.015 0.0240323
32.0275 0.0240472
32.04 0.0240607
32.0525 0.0240726
32.065 0.024083
32.0775 0.0240916
32.09 0.0240984
32.1025 0.0241035
32.115 0.0241067
32.1275 0.0241084
32.14 0.0241084
32.1525 0.0241069
32.165 0.0241042
32.1775 0.0241003
32.19 0.0240955
32.2025 0.0240899
32.215 0.0240838
32.2275 0.0240774
32.24 0.0240708
32.2525 0.0240643
32.265 0.0240579
32.2775 0.0240518
32.29 0.024046
32.3025 0.0240407
32.315 0.0240357
32.3275 0.0240311
32.34 0.0240268
32.3525 0.0240229
32.365 0.0240192
32.3775 0.0240154
32.39 0.0240114
32.4025 0.024007
32.415 0.024002
32.4275 0.0239963
32.44 0.0239897
32.4525 0.023982
32.465 0.0239732
32.4775 0.0239633
32.49 0.023952
32.5025 0.0239396
32.515 0.0239259
32.5275 0.0239111
32.54 0.0238952
32.5525 0.0238784
32.565 0.0238609
32.5775 0.0238428
32.59 0.0238243
32.6025 0.0238056
32.615 0.0237869
32.6275 0.0237684
32.64 0.0237502
32.6525 0.0237324
32.665 0.0237153
32.6775 0.0236987
32.69 0.0236829
32.7025 0.0236678
32.715 0.0236534
32.7275 0.0236396
32.74 0.0236262
32.7525 0.0236133
32.765 0.0236006
32.7775 0.0235879
32.79 0.023575
32.8025 0.0235619
32.815 0.0235483
32.8275 0.0235341
32.84 0.0235191
32.8525 0.0235032
32.865 0.0234863
32.8775 0.0234684
32.89 0.0234494
32.9025 0.0234294
32.915 0.0234084
32.9275 0.0233864
32.94 0.0233637
32.9525 0.0233404
32.965 0.0233165
32.9775 0.0232924
32.99 0.0232682
33.0025 0.023244
33.015 0.0232202
33.0275 0.0231969
33.04 0.0231742
33.0525 0.0231523
33.065 0.0231313
33.0775 0.0231115
33.09 0.0230927
33.1025 0.0230751
33.115 0.0230586
33.1275 0.0230434
33.14 0.0230291
33.1525 0.0230152
33.165 0.0230023
33.1775 0.0229902
33.19 0.0229785
33.2025 0.0229672
33.215 0.0229561
33.2275 0.022945
33.24 0.0229339
33.2525 0.0229225
33.265 0.0229109
33.2775 0.022899
33.29 0.0228868
33.3025 0.0228743
33.315 0.0228616
33.3275 0.0228488
33.34 0.022836
33.3525 0.0228234
33.365 0.022811
33.3775 0.0227992
33.39 0.0227881
33.4025 0.0227779
33.415 0.0227687
33.4275 0.0227608
33.44 0.0227542
33.4525 0.0227492
33.465 0.0227459
33.4775 0.0227441
33.49 0.0227441
33.5025 0.0227456
33.515 0.0227488
33.5275 0.0227534
33.54 0.0227594
33.5525 0.0227665
33.565 0.0227745
33.5775 0.0227831
33.59 0.0227921
33.6025 0.0228012
33.615 0.0228102
33.6275 0.0228188
33.64 0.0228269
33.6525 0.0228342
33.665 0.0228407
33.6775 0.0228464
33.69 0.0228512
33.7025 0.0228551
33.715 0.0228584
33.7275 0.022861
33.74 0.0228632
33.7525 0.0228653
33.765 0.0228673
33.7775 0.0228695
33.79 0.0228722
33.8025 0.0228755
33.815 0.0228797
33.8275 0.0228849
33.84 0.0228912
33.8525 0.0228987
33.865 0.0229074
33.8775 0.0229173
33.89 0.0229283
33.9025 0.0229403
33.915 0.0229532
33.9275 0.0229667
33.94 0.0229807
33.9525 0.022995
33.965 0.0230093
33.9775 0.0230234
33.99 0.0230371
34.0025 0.0230502
34.015 0.0230625
34.0275 0.023074
34.04 0.0230846
34.0525 0.0230943
34.065 0.023103
34.0775 0.0231108
34.09 0.0231178
34.1025 0.0231242
34.115 0.0231301
34.1275 0.0231357
34.14 0.0231411
34.1525 0.0231466
34.165 0.0231523
34.1775 0.0231584
34.19 0.0231649
34.2025 0.0231711
34.215 0.0231785
34.2275 0.0231867
34.24 0.0231959
34.2525 0.0232061
34.265 0.0232173
34.2775 0.0232294
34.29 0.0232423
34.3025 0.0232558
34.315 0.0232696
34.3275 0.0232836
34.34 0.0232976
34.3525 0.0233112
34.365 0.0233242
34.3775 0.0233364
34.39 0.0233476
34.4025 0.0233577
34.415 0.0233664
34.4275 0.0233736
34.44 0.0233792
34.4525 0.0233833
34.465 0.0233857
34.4775 0.0233866
34.49 0.023386
34.5025 0.0233839
34.515 0.0233806
34.5275 0.0233762
34.54 0.0233709
34.5525 0.023365
34.565 0.0233586
34.5775 0.0233521
34.59 0.0233457
34.6025 0.0233396
34.615 0.0233339
34.6275 0.0233287
34.64 0.0233243
34.6525 0.0233208
34.665 0.0233181
34.6775 0.023316
34.69 0.0233146
34.7025 0.0233137
34.715 0.0233132
34.7275 0.0233128
34.74 0.0233124
34.7525 0.0233117
34.765 0.0233106
34.7775 0.0233089
34.79 0.0233063
34.8025 0.0233027
34.815 0.0232979
34.8275 0.0232919
34.84 0.0232846
34.8525 0.0232759
34.865 0.0232658
34.8775 0.0232545
34.89 0.023242
34.9025 0.0232284
34.915 0.0232139
34.9275 0.0231987
34.94 0.023183
34.9525 0.0231669
34.965 0.0231508
34.9775 0.0231348
34.99 0.0231191
35.0025 0.0231039
35.015 0.0230893
35.0275 0.0230755
35.04 0.0230626
35.0525 0.0230506
35.065 0.0230394
35.0775 0.0230292
35.09 0.0230197
35.1025 0.0230109
35.115 0.0230027
35.1275 0.0229948
35.14 0.0229872
35.1525 0.0229796
35.165 0.0229719
35.1775 0.0229638
35.19 0.0229552
35.2025 0.0229459
35.215 0.0229358
35.2275 0.0229248
35.24 0.0229129
35.2525 0.0228999
35.265 0.022886
35.2775 0.0228711
35.29 0.0228553
35.3025 0.0228388
35.315 0.0228218
35.3275 0.0228043
35.34 0.0227866
35.3525 0.0227688
35.365 0.0227513
35.3775 0.0227341
35.39 0.0227175
35.4025 0.0227017
35.415 0.0226867
35.4275 0.0226729
35.44 0.0226601
35.4525 0.0226485
35.465 0.0226382
35.4775 0.022629
35.49 0.022621
35.5025 0.022614
35.515 0.0226076
35.5275 0.0226022
35.54 0.0225974
35.5525 0.022593
35.565 0.0225889
35.5775 0.0225849
35.59 0.0225808
35.6025 0.0225764
35.615 0.0225717
35.6275 0.0225665
35.64 0.0225607
35.6525 0.0225544
35.665 0.0225475
35.6775 0.02254
35.69 0.0225321
35.7025 0.0225239
35.715 0.0225154
35.7275 0.0225068
35.74 0.0224984
35.7525 0.0224902
35.765 0.0224825
35.7775 0.0224754
35.79 0.0224692
35.8025 0.022464
35.815 0.02246
35.8275 0.0224571
35.84 0.0224557
35.8525 0.0224556
35.865 0.0224569
35.8775 0.0224596
35.89 0.0224636
35.9025 0.0224686
35.915 0.0224747
35.9275 0.0224815
35.94 0.0224889
35.9525 0.0224966
35.965 0.0225044
35.9775 0.022512
35.99 0.0225194
36.0025 0.0225262
36.015 0.0225324
36.0275 0.0225379
36.04 0.0225425
36.0525 0.0225464
36.065 0.0225494
36.0775 0.0225518
36.09 0.0225537
36.1025 0.0225551
36.115 0.0225563
36.1275 0.0225574
36.14 0.0225587
36.1525 0.0225604
36.165 0.0225627
36.1775 0.0225656
36.19 0.0225695
36.2025 0.0225743
36.215 0.0225802
36.2275 0.0225871
36.24 0.0225951
36.2525 0.0226041
36.265 0.022614
36.2775 0.0226246
36.29 0.0226358
36.3025 0.0226474
36.315 0.0226592
36.3275 0.0226709
36.34 0.0226824
36.3525 0.0226934
36.365 0.0227038
36.3775 0.0227134
36.39 0.0227221
36.4025 0.0227299
36.415 0.0227366
36.4275 0.0227424
36.44 0.0227471
36.4525 0.022751
36.465 0.0227542
36.4775 0.0227567
36.49 0.0227588
36.5025 0.0227606
36.515 0.0227618
36.5275 0.0227633
36.54 0.0227651
36.5525 0.0227675
36.565 0.0227706
36.5775 0.0227746
36.59 0.0227795
36.6025 0.0227854
36.615 0.0227923
36.6275 0.0228001
36.64 0.0228087
36.6525 0.022818
