0.0025 -8.50009e-06
0.0125 -1.19466e-05
0.0225 -2.09068e-05
0.035 -3.99477e-05
0.045 -6.16301e-05
0.055 -8.93123e-05
0.065 -0.000123219
0.075 -0.000163558
0.085 -0.000210542
0.095 -0.000264407
0.105 -0.000325311
0.115 -0.00039318
0.125 -0.000467481
0.135 -0.000547013
0.145 -0.000629858
0.155 -0.000713348
0.165 -0.000794248
0.175 -0.000869037
0.185 -0.000934261
0.195 -0.000986763
0.205 -0.00102366
0.215 -0.00104208
0.225 -0.00103884
0.235 -0.0010102
0.245 -0.000951899
0.255 -0.000859542
0.265 -0.000730051
0.275 -0.000563594
0.285 -0.000365329
0.295 -0.000145157
0.305 8.46285e-05
0.315 0.000311977
0.325 0.000526208
0.335 0.000718692
0.345 0.00088368
0.355 0.00101858
0.365 0.00112351
0.375 0.00120059
0.385 0.00125312
0.395 0.00128521
0.405 0.00130126
0.415 0.00130533
0.425 0.00130017
0.435 0.0012867
0.445 0.00126465
0.455 0.00123437
0.465 0.00119889
0.475 0.00116506
0.485 0.00114342
0.495 0.00114767
0.5075 0.00121433
0.52 0.00138076
0.5325 0.00167638
0.545 0.00211879
0.5575 0.00270918
0.57 0.00343014
0.5825 0.0042453
0.595 0.0051021
0.6075 0.00594137
0.62 0.00671092
0.6325 0.00737518
0.645 0.00791682
0.6575 0.00833344
0.67 0.00863385
0.6825 0.00883336
0.695 0.00894807
0.7075 0.00899312
0.72 0.00898675
0.7325 0.00895434
0.745 0.0089276
0.7575 0.00893867
0.77 0.00901179
0.7825 0.0091574
0.795 0.00937501
0.8075 0.00965925
0.82 0.0100022
0.8325 0.0103944
0.845 0.0108252
0.8575 0.0112835
0.87 0.011758
0.8825 0.0122365
0.895 0.012706
0.9075 0.013155
0.92 0.0135762
0.9325 0.0139669
0.945 0.0143269
0.9575 0.0146525
0.97 0.0149307
0.9825 0.0151387
0.995 0.0152502
1.005 0.0152542
1.0175 0.0151389
1.03 0.014885
1.0425 0.0144977
1.055 0.0139902
1.0675 0.0133783
1.08 0.0126795
1.0925 0.0119119
1.105 0.0110923
1.1175 0.0102359
1.13 0.00935622
1.1425 0.00846387
1.155 0.00756751
1.1675 0.00667787
1.18 0.00581241
1.1925 0.00499392
1.205 0.00424125
1.2175 0.00356405
1.23 0.00296452
1.2425 0.00243957
1.255 0.0019815
1.2675 0.00157722
1.28 0.0012063
1.2925 0.000839745
1.305 0.000442445
1.3175 -1.81047e-05
1.33 -0.000560075
1.3425 -0.00118215
1.355 -0.00186926
1.3675 -0.00260457
1.38 -0.00337861
1.3925 -0.00419112
1.405 -0.00504503
1.4175 -0.00594032
1.43 -0.00687461
1.4425 -0.00784602
1.455 -0.00885378
1.4675 -0.00989633
1.48 -0.0109682
1.4925 -0.0120549
1.505 -0.0131293
1.5175 -0.0141522
1.53 -0.015081
1.5425 -0.0158795
1.555 -0.016524
1.5675 -0.0170067
1.58 -0.0173356
1.5925 -0.017532
1.605 -0.0176283
1.6175 -0.0176637
1.63 -0.0176772
1.6425 -0.0177027
1.655 -0.0177687
1.6675 -0.0178975
1.68 -0.0181043
1.6925 -0.0183909
1.705 -0.018752
1.7175 -0.0191801
1.73 -0.0196708
1.7425 -0.020227
1.755 -0.0208634
1.7675 -0.0215959
1.78 -0.0224279
1.7925 -0.0233473
1.805 -0.0243257
1.8175 -0.0253247
1.83 -0.0263028
1.8425 -0.027223
1.855 -0.0280618
1.8675 -0.0288088
1.88 -0.0294618
1.8925 -0.0300194
1.905 -0.0304769
1.9175 -0.030825
1.93 -0.031052
1.9425 -0.0311459
1.955 -0.031097
1.9675 -0.0309027
1.98 -0.0305712
1.9925 -0.0301238
2.0025 -0.0297027
2.0125 -0.0292449
2.0225 -0.0287683
2.0325 -0.0282901
2.0425 -0.0278257
2.0525 -0.027388
2.0625 -0.0269869
2.0725 -0.026627
2.0825 -0.0263065
2.0925 -0.0260176
2.1025 -0.025747
2.1125 -0.0254789
2.1225 -0.0251987
2.1325 -0.0248962
2.1425 -0.0245668
2.1525 -0.0242109
2.1625 -0.0238316
2.1725 -0.0234308
2.1825 -0.0230076
2.1925 -0.0225594
2.2025 -0.0220826
2.2125 -0.0215747
2.2225 -0.0210336
2.2325 -0.0204574
2.2425 -0.0198444
2.2525 -0.0191932
2.2625 -0.0185036
2.2725 -0.0177769
2.2825 -0.0170164
2.2925 -0.0162266
2.3025 -0.0154137
2.3125 -0.0145852
2.3225 -0.0137497
2.3325 -0.0129168
2.3425 -0.0120991
2.3525 -0.0113048
2.3625 -0.0105395
2.3725 -0.00980844
2.3825 -0.00911187
2.3925 -0.00844524
2.4025 -0.00780039
2.4125 -0.00716731
2.4225 -0.00653555
2.4325 -0.00589566
2.4425 -0.00524063
2.4525 -0.00456671
2.4625 -0.00387369
2.4725 -0.00316419
2.4825 -0.00244219
2.4925 -0.00171154
2.5025 -0.000974907
2.5125 -0.000233122
2.5225 0.000514438
2.5325 0.00126855
2.5425 0.00202864
2.5525 0.00279183
2.5625 0.00355259
2.5725 0.0043033
2.5825 0.00503553
2.5925 0.0057408
2.6025 0.0064106
2.6125 0.00703681
2.6225 0.00761278
2.6325 0.00813385
2.6425 0.0085976
2.6525 0.0090041
2.6625 0.00935627
2.6725 0.00965992
2.6825 0.0099234
2.6925 0.0101568
2.7025 0.0103702
2.7125 0.0105729
2.7225 0.0107736
2.7325 0.010981
2.7425 0.0112038
2.7525 0.0114502
2.7625 0.0117263
2.7725 0.0120356
2.7825 0.012378
2.7925 0.0127494
2.8025 0.013143
2.8125 0.0135507
2.8225 0.0139646
2.8325 0.0143772
2.8425 0.0147816
2.8525 0.0151711
2.8625 0.0155393
2.8725 0.0158807
2.8825 0.0161914
2.8925 0.0164703
2.9025 0.0167199
2.9125 0.016945
2.9225 0.0171511
2.9325 0.0173455
2.9425 0.0175304
2.9525 0.017704
2.9625 0.0178613
2.9725 0.0179957
2.9825 0.0181004
2.9925 0.0181684
3.0025 0.0181923
3.0125 0.0181646
3.0225 0.0180772
3.0325 0.0179221
3.0425 0.017692
3.0525 0.0173828
3.0625 0.0169955
3.0725 0.0165374
3.0825 0.0160197
3.0925 0.0154551
3.1025 0.0148567
3.1125 0.0142374
3.1225 0.0136099
3.1325 0.0129866
3.1425 0.01238
3.1525 0.0118025
3.1625 0.0112648
3.1725 0.0107736
3.1825 0.0103307
3.1925 0.00993343
3.2025 0.00957619
3.2125 0.00925052
3.2225 0.00894562
3.2325 0.0086494
3.2425 0.00835009
3.2525 0.00803746
3.2625 0.0077033
3.2725 0.00734087
3.2825 0.00694423
3.2925 0.00650833
3.3025 0.00602954
3.3125 0.00550611
3.3225 0.00493816
3.3325 0.00432764
3.3425 0.00367794
3.3525 0.00299328
3.3625 0.00227802
3.3725 0.00153619
3.3825 0.000771302
3.3925 -1.01849e-05
3.4025 -0.000811718
3.4125 -0.00162964
3.4225 -0.00245936
3.4325 -0.00329316
3.4425 -0.00412099
3.4525 -0.0049312
3.4625 -0.0057118
3.4725 -0.00645175
3.4825 -0.0071426
3.4925 -0.00777881
3.5025 -0.00835763
3.5125 -0.00887861
3.5225 -0.00934272
3.5325 -0.00975117
3.5425 -0.0101054
3.5525 -0.0104076
3.5625 -0.0106616
3.5725 -0.0108732
3.5825 -0.0110511
3.5925 -0.0112074
3.6025 -0.0113576
3.6125 -0.0115196
3.6225 -0.011712
3.6325 -0.0119511
3.6425 -0.0122499
3.6525 -0.0126171
3.6625 -0.0130567
3.6725 -0.0135709
3.6825 -0.0141558
3.6925 -0.0148039
3.7025 -0.0155049
3.7125 -0.0162472
3.7225 -0.0170204
3.7325 -0.0178159
3.7425 -0.0186253
3.7525 -0.01944
3.7625 -0.0202505
3.7725 -0.0210474
3.7825 -0.0218215
3.7925 -0.0225635
3.8025 -0.0232644
3.8125 -0.0239164
3.8225 -0.024513
3.8325 -0.0250486
3.8425 -0.0255177
3.8525 -0.0259145
3.8625 -0.0262341
3.8725 -0.0264736
3.8825 -0.0266338
3.8925 -0.0267197
3.9025 -0.0267382
3.9125 -0.0266989
3.9225 -0.0266119
3.9325 -0.026488
3.9425 -0.0263384
3.9525 -0.0261754
3.9625 -0.026011
3.9725 -0.0258568
3.9825 -0.0257218
3.9925 -0.0256111
4.0025 -0.0255246
4.0125 -0.0254591
4.0225 -0.0254098
4.0325 -0.0253722
4.0425 -0.0253417
4.0525 -0.0253138
4.0625 -0.0252845
4.0725 -0.0252507
4.0825 -0.0252121
4.0925 -0.0251709
4.1025 -0.0251305
4.1125 -0.0250935
4.1225 -0.0250601
4.1325 -0.0250274
4.1425 -0.0249905
4.1525 -0.0249442
4.1625 -0.0248852
4.1725 -0.0248117
4.1825 -0.0247234
4.1925 -0.0246213
4.2025 -0.0245076
4.2125 -0.0243849
4.2225 -0.0242553
4.2325 -0.024119
4.2425 -0.0239732
4.2525 -0.0238125
4.2625 -0.0236297
4.2725 -0.0234168
4.2825 -0.0231654
4.2925 -0.0228665
4.3025 -0.0225129
4.3125 -0.0220994
4.3225 -0.0216242
4.3325 -0.0210882
4.3425 -0.0204961
4.3525 -0.019856
4.3625 -0.0191789
4.3725 -0.018477
4.3825 -0.0177631
4.3925 -0.0170484
4.4025 -0.0163422
4.4125 -0.015652
4.4225 -0.0149835
4.4325 -0.0143417
4.4425 -0.0137301
4.4525 -0.0131514
4.4625 -0.0126068
4.4725 -0.0120972
4.4825 -0.0116174
4.4925 -0.0111652
4.5025 -0.0107377
4.5125 -0.0103335
4.5225 -0.0099511
4.5325 -0.00958868
4.5425 -0.00924418
4.5525 -0.00891329
4.5625 -0.0085898
4.5725 -0.00826637
4.5825 -0.00793505
4.5925 -0.00758804
4.6025 -0.00721782
4.6125 -0.00681683
4.6225 -0.00637746
4.6325 -0.00589261
4.6425 -0.00535614
4.6525 -0.0047627
4.6625 -0.00410756
4.6725 -0.00338646
4.6825 -0.00259577
4.6925 -0.00173296
4.7025 -0.000797703
4.7125 0.000206796
4.7225 0.0012728
4.7325 0.00238813
4.7425 0.00353753
4.7525 0.00470422
4.7625 0.00587088
4.7725 0.00701967
4.7825 0.00813171
4.7925 0.00919006
4.8025 0.0101792
4.8125 0.0110888
4.8225 0.0119153
4.8325 0.0126628
4.8425 0.0133409
4.8525 0.0139613
4.8625 0.0145361
4.8725 0.0150776
4.8825 0.0155974
4.8925 0.0161059
4.9025 0.0166112
4.9125 0.0171189
4.9225 0.0176315
4.9325 0.0181493
4.9425 0.0186703
4.9525 0.0191921
4.9625 0.0197272
4.9725 0.0202464
4.9825 0.0207476
4.9925 0.0212373
5.0025 0.0217146
5.0125 0.0221983
5.0225 0.0226987
5.0325 0.0232238
5.0425 0.0237782
5.0525 0.0243627
5.0625 0.0249738
5.0725 0.0256035
5.0825 0.0262402
5.0925 0.0268696
5.1025 0.027476
5.1125 0.0280443
5.1225 0.0285608
5.1325 0.0290155
5.1425 0.0294028
5.1525 0.0297215
5.1625 0.0299723
5.1725 0.0301573
5.1825 0.0302791
5.1925 0.0303411
5.2025 0.0303468
5.2125 0.0303001
5.2225 0.0302048
5.2325 0.0300655
5.2425 0.0298873
5.2525 0.0296756
5.2625 0.0294369
5.2725 0.0291783
5.2825 0.0289068
5.2925 0.0286295
5.3025 0.028352
5.3125 0.0280794
5.3225 0.0278158
5.3325 0.0275647
5.3425 0.0273293
5.3525 0.0271122
5.3625 0.0269163
5.3725 0.0267444
5.3825 0.0265995
5.3925 0.0264842
5.4025 0.0263997
5.4125 0.0263452
5.4225 0.0263168
5.4325 0.0263075
5.4425 0.0263072
5.4525 0.026305
5.4625 0.0262903
5.4725 0.0262535
5.4825 0.0261857
5.4925 0.026079
5.5025 0.0259262
5.5125 0.0257206
5.5225 0.0254557
5.5325 0.025126
5.5425 0.0247287
5.5525 0.024265
5.5625 0.0237418
5.5725 0.0231705
5.5825 0.0225653
5.5925 0.0219407
5.6025 0.0213098
5.6125 0.0206825
5.6225 0.0200657
5.6325 0.0194637
5.6425 0.018879
5.6525 0.0183121
5.6625 0.0177624
5.6725 0.0172282
5.6825 0.016708
5.6925 0.0162001
5.7025 0.0157024
5.7125 0.0152111
5.7225 0.0147204
5.7325 0.0142236
5.7425 0.0137144
5.7525 0.0131909
5.7625 0.0126467
5.7725 0.0120789
5.7825 0.0114881
5.7925 0.0108753
5.8025 0.0102424
5.8125 0.00959316
5.8225 0.00893402
5.8325 0.0082719
5.8425 0.00761696
5.8525 0.00697573
5.8625 0.00635193
5.8725 0.00574651
5.8825 0.00515755
5.8925 0.00458077
5.9025 0.00401099
5.9125 0.0034435
5.9225 0.00287455
5.9325 0.00230117
5.9425 0.00172058
5.9525 0.00112973
5.9625 0.000525224
5.9725 -9.62994e-05
5.9825 -0.000737525
5.9925 -0.00140011
6.0025 -0.00208467
6.0125 -0.00279117
6.0225 -0.00351945
6.0325 -0.00426971
6.0425 -0.00504258
6.0525 -0.00583883
6.0625 -0.00665913
6.0725 -0.00750322
6.0825 -0.00836945
6.0925 -0.00925477
6.1025 -0.0101555
6.1125 -0.0110683
6.1225 -0.0119895
6.1325 -0.0129151
6.1425 -0.0138392
6.1525 -0.0147531
6.1625 -0.0156446
6.1725 -0.0164996
6.1825 -0.0173035
6.1925 -0.0180432
6.2025 -0.0187082
6.2125 -0.0192918
6.2225 -0.0197914
6.2325 -0.0202083
6.2425 -0.0205486
6.2525 -0.0208224
6.2625 -0.0210436
6.2725 -0.021227
6.2825 -0.0213865
6.2925 -0.0215347
6.3025 -0.0216819
6.3125 -0.0218363
6.3225 -0.022004
6.3325 -0.0221888
6.3425 -0.0223919
6.3525 -0.0226147
6.3625 -0.0228563
6.3725 -0.0231144
6.3825 -0.0233861
6.3925 -0.0236677
6.4025 -0.023955
6.4125 -0.0242433
6.4225 -0.0245285
6.4325 -0.0248065
6.4425 -0.0250731
6.4525 -0.0253228
6.4625 -0.0255483
6.4725 -0.0257413
6.4825 -0.0258941
6.4925 -0.0260012
6.5025 -0.026059
6.5125 -0.0260647
6.5225 -0.026016
6.5325 -0.0259098
6.5425 -0.0257426
6.5525 -0.02551
6.5625 -0.0252079
6.5725 -0.0248338
6.5825 -0.0243889
6.5925 -0.0238795
6.6025 -0.023316
6.6125 -0.0227106
6.6225 -0.0220752
6.6325 -0.0214201
6.6425 -0.0207546
6.6525 -0.0200873
6.6625 -0.0194269
6.6725 -0.018781
6.6825 -0.0181545
6.6925 -0.0175499
6.7025 -0.0169682
6.7125 -0.016411
6.7225 -0.015881
6.7325 -0.0153809
6.7425 -0.014913
6.7525 -0.0144778
6.7625 -0.0140734
6.7725 -0.013695
6.7825 -0.0133351
6.7925 -0.012985
6.8025 -0.0126351
6.8125 -0.0122765
6.8225 -0.0119021
6.8325 -0.0115066
6.8425 -0.0110866
6.8525 -0.0106399
6.8625 -0.0101642
6.8725 -0.00966159
6.8825 -0.00913368
6.8925 -0.00858353
6.9025 -0.00801766
6.9125 -0.00743645
6.9225 -0.00684367
6.9325 -0.00624107
6.9425 -0.00562918
6.9525 -0.0050072
6.9625 -0.00437334
6.9725 -0.00372505
6.9825 -0.00305901
6.9925 -0.00237135
7.0025 -0.00165797
7.0125 -0.000915046
7.0225 -0.000139708
7.0325 0.000669378
7.0425 0.00151196
7.0525 0.00238665
7.0625 0.00329126
7.0725 0.00422288
7.0825 0.00517723
7.0925 0.00614806
7.1025 0.00712715
7.1125 0.00810426
7.1225 0.00906792
7.1325 0.010007
7.1425 0.0109119
7.1525 0.011775
7.1625 0.0125919
7.1725 0.0133615
7.1825 0.0140862
7.1925 0.0147712
7.2025 0.0154238
7.2125 0.0160516
7.2225 0.0166621
7.2325 0.017262
7.2425 0.0178565
7.2525 0.0184498
7.2625 0.019045
7.2725 0.0196448
7.2825 0.0202507
7.2925 0.020864
7.3025 0.0214853
7.3125 0.0221148
7.3225 0.0227523
7.3325 0.0233971
7.3425 0.0240483
7.3525 0.0247039
7.3625 0.0253606
7.3725 0.026014
7.3825 0.0266582
7.3925 0.0272876
7.4025 0.0278977
7.4125 0.0284858
7.4225 0.0290497
7.4325 0.0295874
7.4425 0.0300969
7.4525 0.0305759
7.4625 0.031023
7.4725 0.0314362
7.4825 0.0318176
7.4925 0.0321675
7.5025 0.0324869
7.5125 0.0327764
7.5225 0.0330359
7.5325 0.0332651
7.5425 0.0334629
7.5525 0.0336287
7.5625 0.0337625
7.5725 0.0338669
7.5825 0.0339466
7.5925 0.0340076
7.6025 0.0340547
7.6125 0.0340906
7.6225 0.0341144
7.6325 0.0341236
7.6425 0.0341157
7.6525 0.0340909
7.6625 0.0340516
7.6725 0.0340017
7.6825 0.0339454
7.6925 0.0338873
7.7025 0.0338317
7.7125 0.0337827
7.7225 0.0337446
7.7325 0.033721
7.7425 0.0337152
7.7525 0.0337297
7.7625 0.0337646
7.7725 0.0338169
7.7825 0.0338795
7.7925 0.0339418
7.8025 0.0339913
7.8125 0.0340156
7.8225 0.034004
7.8325 0.0339481
7.8425 0.0338429
7.8525 0.0336852
7.8625 0.033473
7.8725 0.0332053
7.8825 0.0328818
7.8925 0.0325025
7.9025 0.0320677
7.9125 0.0315784
7.9225 0.0310359
7.9325 0.0304422
7.9425 0.0297999
7.9525 0.0291123
7.9625 0.0283831
7.9725 0.0276169
7.9825 0.0268191
7.9925 0.0259964
8.0025 0.0251563
8.015 0.0240954
8.0275 0.0230397
8.04 0.0220063
8.0525 0.0210064
8.065 0.0200424
8.0775 0.019109
8.09 0.0181974
8.1025 0.0172996
8.115 0.0164099
8.1275 0.0155224
8.14 0.0146295
8.1525 0.0137084
8.165 0.0127394
8.1775 0.0117076
8.19 0.0106048
8.2025 0.00942992
8.215 0.00818732
8.2275 0.00688244
8.24 0.00552298
8.2525 0.00412062
8.265 0.00268985
8.2775 0.00124553
8.29 -0.000200443
8.3025 -0.00164106
8.315 -0.0030732
8.3275 -0.00449488
8.34 -0.0059023
8.3525 -0.00728896
8.365 -0.00864665
8.3775 -0.00996649
8.39 -0.0112399
8.4025 -0.0124601
8.415 -0.0136232
8.4275 -0.0147283
8.44 -0.0157771
8.4525 -0.0167745
8.465 -0.0177271
8.4775 -0.0186391
8.49 -0.0195093
8.5025 -0.0203326
8.515 -0.0211026
8.5275 -0.0218135
8.54 -0.0224619
8.5525 -0.0230477
8.565 -0.0235763
8.5775 -0.0240603
8.59 -0.0245188
8.6025 -0.0249747
8.615 -0.0254502
8.6275 -0.0259626
8.64 -0.0265229
8.6525 -0.0271337
8.665 -0.0277891
8.6775 -0.0284777
8.69 -0.0291845
8.7025 -0.0298915
8.715 -0.0305793
8.7275 -0.0312281
8.74 -0.0318183
8.7525 -0.0323321
8.765 -0.0327528
8.7775 -0.0330696
8.79 -0.0332731
8.8025 -0.0333576
8.815 -0.0333196
8.8275 -0.0331568
8.84 -0.0328704
8.8525 -0.0324649
8.865 -0.0319488
8.8775 -0.0313347
8.89 -0.0306395
8.9025 -0.0298842
8.915 -0.0290929
8.9275 -0.0282909
8.94 -0.0275004
8.9525 -0.0267385
8.965 -0.0260136
8.9775 -0.0253252
8.99 -0.0246654
9.0025 -0.0240235
9.015 -0.0233908
9.0275 -0.0227618
9.04 -0.0221321
9.0525 -0.0214959
9.065 -0.0208454
9.0775 -0.0201719
9.09 -0.0194662
9.1025 -0.0187176
9.115 -0.0179135
9.1275 -0.0170411
9.14 -0.0160917
9.1525 -0.015066
9.165 -0.0139704
9.1775 -0.0128235
9.19 -0.0116298
9.2025 -0.0103987
9.215 -0.00914215
9.2275 -0.00787696
9.24 -0.00662423
9.2525 -0.00540456
9.265 -0.00423452
9.2775 -0.00312581
9.29 -0.00208441
9.3025 -0.00111038
9.315 -0.000200025
9.3275 0.000651964
9.34 0.00145067
9.3525 0.00220221
9.365 0.00291668
9.3775 0.00360742
9.39 0.00428746
9.4025 0.00496584
9.415 0.00564425
9.4275 0.00631676
9.44 0.00697494
9.4525 0.00761443
9.465 0.00823756
9.4775 0.00885083
9.49 0.0094584
9.5025 0.0100572
9.515 0.0106381
9.5275 0.0111898
9.54 0.0117013
9.5525 0.0121619
9.565 0.0125598
9.5775 0.0128835
9.59 0.0131223
9.6025 0.0132682
9.615 0.0133165
9.6275 0.013268
9.64 0.0131313
9.6525 0.0129225
9.665 0.0126626
9.6775 0.0123729
9.69 0.0120706
9.7025 0.0117681
9.715 0.0114709
9.7275 0.0111785
9.74 0.0108851
9.7525 0.0105827
9.765 0.0102646
9.7775 0.00992722
9.79 0.0095706
9.8025 0.00919591
9.815 0.00880372
9.8275 0.00839395
9.84 0.00796612
9.8525 0.00751813
9.865 0.00704505
9.8775 0.00653919
9.89 0.0059916
9.9025 0.00539433
9.915 0.00474185
9.9275 0.00403171
9.94 0.00326452
9.9525 0.00244312
9.965 0.00157415
9.9775 0.00065648
9.99 -0.00030184
10.0025 -0.00129077
10.015 -0.00229811
10.0275 -0.00330819
10.04 -0.00430536
10.0525 -0.00527752
10.065 -0.00621947
10.0775 -0.00713283
10.09 -0.00802271
10.1025 -0.00889439
10.115 -0.00975163
10.1275 -0.0105972
10.14 -0.0114339
10.1525 -0.0122658
10.165 -0.0130981
10.1775 -0.0139368
10.19 -0.0147873
10.2025 -0.0156517
10.215 -0.0165295
10.2275 -0.0174175
10.24 -0.0183103
10.2525 -0.0191994
10.265 -0.0200734
10.2775 -0.0209194
10.29 -0.0217261
10.3025 -0.0224861
10.315 -0.0231963
10.3275 -0.0238561
10.34 -0.0244663
10.3525 -0.0250276
10.365 -0.0255387
10.3775 -0.0259969
10.39 -0.0263996
10.4025 -0.026746
10.415 -0.0270385
10.4275 -0.0272839
10.44 -0.0274918
10.4525 -0.0276744
10.465 -0.0278431
10.4775 -0.0280069
10.49 -0.0281701
10.5025 -0.0283314
10.515 -0.0284851
10.5275 -0.0286214
10.54 -0.0287272
10.5525 -0.0287887
10.565 -0.0287956
10.5775 -0.0287438
10.59 -0.0286355
10.6025 -0.0284782
10.615 -0.0282822
10.6275 -0.0280577
10.64 -0.0278133
10.6525 -0.0275543
10.665 -0.0272825
10.6775 -0.0269948
10.69 -0.0266835
10.7025 -0.0263372
10.715 -0.025941
10.7275 -0.0254786
10.74 -0.0249368
10.7525 -0.0243104
10.765 -0.0236024
10.7775 -0.0228217
10.79 -0.0219803
10.8025 -0.0210918
10.815 -0.0201702
10.8275 -0.0192295
10.84 -0.0182823
10.8525 -0.0173392
10.865 -0.0164069
10.8775 -0.0154876
10.89 -0.0145795
10.9025 -0.0136817
10.915 -0.0127984
10.9275 -0.0119408
10.94 -0.011127
10.9525 -0.0103665
10.965 -0.00967013
10.9775 -0.00904442
10.99 -0.00849388
11.0025 -0.00802199
11.015 -0.00762951
11.0275 -0.00731221
11.04 -0.00706071
11.0525 -0.00686225
11.065 -0.00670218
11.0775 -0.00656589
11.09 -0.00644148
11.1025 -0.00632222
11.115 -0.00620738
11.1275 -0.00610091
11.14 -0.0060093
11.1525 -0.00593967
11.165 -0.00589897
11.1775 -0.00589276
11.19 -0.00592343
11.2025 -0.00598748
11.215 -0.00607436
11.2275 -0.00616923
11.24 -0.00625943
11.2525 -0.00633782
11.265 -0.00640293
11.2775 -0.0064588
11.29 -0.00651353
11.3025 -0.00657609
11.315 -0.0066525
11.3275 -0.00674382
11.34 -0.00684807
11.3525 -0.0069622
11.365 -0.00708117
11.3775 -0.00719719
11.39 -0.00730047
11.4025 -0.00738046
11.415 -0.00742656
11.4275 -0.00742859
11.44 -0.00737745
11.4525 -0.00726593
11.465 -0.0070895
11.4775 -0.00684592
11.49 -0.00653391
11.5025 -0.00615386
11.515 -0.00571289
11.5275 -0.0052204
11.54 -0.0046968
11.5525 -0.00416459
11.565 -0.00364436
11.5775 -0.0031541
11.59 -0.00271053
11.6025 -0.00232943
11.615 -0.00202482
11.6275 -0.00180755
11.64 -0.00168364
11.6525 -0.00165308
11.665 -0.00171019
11.6775 -0.0018449
11.69 -0.00204468
11.7025 -0.00229416
11.715 -0.00257585
11.7275 -0.00287145
11.74 -0.00316333
11.7525 -0.00343666
11.765 -0.00368108
11.7775 -0.00389077
11.79 -0.00406268
11.8025 -0.00419399
11.815 -0.00428168
11.8275 -0.00432475
11.84 -0.00432669
11.8525 -0.0042954
11.865 -0.0042408
11.8775 -0.00417268
11.89 -0.00409968
11.9025 -0.00402888
11.915 -0.00396643
11.9275 -0.00391835
11.94 -0.00389095
11.9525 -0.0038904
11.965 -0.00392142
11.9775 -0.00398549
11.99 -0.00408006
12.0025 -0.00419941
12.015 -0.00433692
12.0275 -0.00448724
12.04 -0.00464602
12.0525 -0.00480808
12.065 -0.00496697
12.0775 -0.00511673
12.09 -0.0052545
12.1025 -0.00538205
12.115 -0.00550595
12.1275 -0.00563088
12.14 -0.00575732
12.1525 -0.00588099
12.165 -0.00599539
12.1775 -0.00609427
12.19 -0.00617247
12.2025 -0.00622639
12.215 -0.00625463
12.2275 -0.00625905
12.24 -0.00624401
12.2525 -0.00621571
12.265 -0.00617929
12.2775 -0.00613984
12.29 -0.00610037
12.3025 -0.00606203
12.315 -0.00602539
12.3275 -0.00599193
12.34 -0.00596497
12.3525 -0.00594993
12.365 -0.00595369
12.3775 -0.00598158
12.39 -0.00603462
12.4025 -0.00610966
12.415 -0.00620111
12.4275 -0.00629987
12.44 -0.00639578
12.4525 -0.00647876
12.465 -0.00653923
12.4775 -0.00656817
12.49 -0.00655867
12.5025 -0.00650405
12.515 -0.00639735
12.5275 -0.00623119
12.54 -0.00599887
12.5525 -0.00569512
12.565 -0.00531607
12.5775 -0.00485813
12.59 -0.00431399
12.6025 -0.00368262
12.615 -0.00297005
12.6275 -0.00219264
12.64 -0.00137551
12.6525 -0.000547787
12.665 0.000260527
12.6775 0.00101902
12.69 0.0016999
12.7025 0.00228456
12.715 0.00276619
12.7275 0.00314606
12.74 0.00343018
12.7525 0.0036276
12.765 0.00375111
12.7775 0.00381719
12.79 0.0038451
12.8025 0.00385505
12.815 0.00386737
12.8275 0.00390161
12.84 0.00397506
12.8525 0.00410077
12.865 0.00428598
12.8775 0.00453232
12.89 0.00483618
12.9025 0.00519593
12.915 0.00560704
12.9275 0.00606385
12.94 0.00655804
12.9525 0.00707856
12.965 0.00761194
12.9775 0.00814397
12.99 0.00866205
13.0025 0.00915608
13.015 0.00961839
13.0275 0.0100439
13.04 0.0104301
13.0525 0.0107761
13.065 0.0110823
13.0775 0.0113499
13.09 0.0115818
13.1025 0.0117828
13.115 0.0119569
13.1275 0.0121039
13.14 0.0122188
13.1525 0.0122943
13.165 0.0123246
13.1775 0.0123074
13.19 0.0122468
13.2025 0.0121523
13.215 0.0120339
13.2275 0.0118973
13.24 0.011742
13.2525 0.0115659
13.265 0.0113671
13.2775 0.0111422
13.29 0.0108849
13.3025 0.0105872
13.315 0.0102433
13.3275 0.00985095
13.34 0.00941251
13.3525 0.00893394
13.365 0.00842198
13.3775 0.00788313
13.39 0.00732492
13.4025 0.00675696
13.415 0.0061899
13.4275 0.00563229
13.44 0.00508836
13.4525 0.00455827
13.465 0.00403997
13.4775 0.00353111
13.49 0.00303424
13.5025 0.00254633
13.515 0.00206852
13.5275 0.00160213
13.54 0.00114886
13.5525 0.00070862
13.565 0.000276938
13.5775 -0.000156064
13.59 -0.000603793
13.6025 -0.00108083
13.615 -0.00160044
13.6275 -0.00217091
13.64 -0.00279286
13.6525 -0.00345865
13.665 -0.00415522
13.6775 -0.00486773
13.69 -0.00558201
13.7025 -0.00628517
13.715 -0.00696568
13.7275 -0.00761523
13.74 -0.00823217
13.7525 -0.00882344
13.765 -0.00940238
13.7775 -0.00998463
13.79 -0.0105842
13.8025 -0.0112123
13.815 -0.0118787
13.8275 -0.0125927
13.84 -0.0133591
13.8525 -0.0141742
13.865 -0.015026
13.8775 -0.0158982
13.89 -0.0167733
13.9025 -0.0176368
13.915 -0.0184819
13.9275 -0.0193107
13.94 -0.020131
13.9525 -0.0209514
13.965 -0.021778
13.9775 -0.022611
13.99 -0.0234435
14.0025 -0.024263
14.015 -0.0250547
14.0275 -0.0258038
14.04 -0.0264955
14.0525 -0.0271155
14.065 -0.02765
14.0775 -0.0280862
14.09 -0.028414
14.1025 -0.0286269
14.115 -0.0287206
14.1275 -0.0286929
14.14 -0.0285484
14.1525 -0.0282992
14.165 -0.0279642
14.1775 -0.0275635
14.19 -0.0271153
14.2025 -0.0266341
14.215 -0.02613
14.2275 -0.0256077
14.24 -0.025066
14.2525 -0.0244975
14.265 -0.0238924
14.2775 -0.0232393
14.29 -0.0225268
14.3025 -0.0217456
14.315 -0.0208921
14.3275 -0.0199692
14.34 -0.018986
14.3525 -0.0179546
14.365 -0.0168875
14.3775 -0.015794
14.39 -0.0146789
14.4025 -0.0135432
14.415 -0.0123867
14.4275 -0.0112128
14.44 -0.0100113
14.4525 -0.00878063
14.465 -0.00752055
14.4775 -0.00622887
14.49 -0.00490725
14.5025 -0.00356219
14.515 -0.00220504
14.5275 -0.000848776
14.54 0.000496587
14.5525 0.0018256
14.565 0.00313759
14.5775 0.00443878
14.59 0.00574175
14.6025 0.00706284
14.615 0.00841693
14.6275 0.0098157
14.64 0.0112661
14.6525 0.0127694
14.665 0.0143215
14.6775 0.015917
14.69 0.017552
14.7025 0.0192245
14.715 0.0209305
14.7275 0.0226644
14.74 0.0244166
14.7525 0.0261767
14.765 0.0279361
14.7775 0.0296894
14.79 0.031435
14.8025 0.0331759
14.815 0.0349179
14.8275 0.036665
14.84 0.0384313
14.8525 0.0402234
14.865 0.0420542
14.8775 0.0445558
14.89 0.0467045
14.9025 0.0485018
14.915 0.0502666
14.9275 0.051989
14.94 0.0537131
14.9525 0.0553726
14.965 0.056969
14.9775 0.0585025
14.99 0.059966
15.0025 0.0613954
15.015 0.0626216
15.0275 0.0637668
15.04 0.0648533
15.0525 0.0657901
15.065 0.0666538
15.0775 0.0674524
15.09 0.0681276
15.1025 0.0687238
15.115 0.0692465
15.1275 0.069682
15.14 0.0700254
15.1525 0.0702931
15.165 0.0704887
15.1775 0.0706195
15.19 0.070709
15.2025 0.0707782
15.215 0.0708401
15.2275 0.0709058
15.24 0.0709819
15.2525 0.0710653
15.265 0.0711514
15.2775 0.0712298
15.29 0.0712911
15.3025 0.0713273
15.315 0.0713227
15.3275 0.0711883
15.34 0.0710389
15.3525 0.0708362
15.365 0.0705519
15.3775 0.0702021
15.39 0.0698085
15.4025 0.0693689
15.415 0.0688994
15.4275 0.068409
15.44 0.0679038
15.4525 0.0673924
15.465 0.0668752
15.4775 0.0663544
15.49 0.0658292
15.5025 0.0652998
15.515 0.0647648
15.5275 0.0642313
15.54 0.0636856
15.5525 0.0631294
15.565 0.0625486
15.5775 0.0619271
15.59 0.0612938
15.6025 0.060631
15.615 0.0599399
15.6275 0.0592208
15.64 0.0584744
15.6525 0.057696
15.665 0.0568788
15.6775 0.0560353
15.69 0.0551798
15.7025 0.0542885
15.715 0.0533958
15.7275 0.0524957
15.74 0.0515982
15.7525 0.0507011
15.765 0.0497993
15.7775 0.04889
15.79 0.0479699
15.8025 0.0470312
15.815 0.0460916
15.8275 0.045147
15.84 0.044195
15.8525 0.0432426
15.865 0.0422915
15.8775 0.0413456
15.89 0.0404116
15.9025 0.0394889
15.915 0.0385752
15.9275 0.0376705
15.94 0.0367725
15.9525 0.0358753
15.965 0.0349853
15.9775 0.0341079
15.99 0.0332533
16.0025 0.032431
16.0125 0.0318037
16.0225 0.0312074
16.0325 0.0306436
16.0425 0.0301122
16.0525 0.0296135
16.0625 0.0291404
16.0725 0.0286836
16.0825 0.0282433
16.0925 0.0278118
16.1025 0.0273786
16.1125 0.026942
16.1225 0.0264958
16.1325 0.0260328
16.1425 0.025551
16.1525 0.025047
16.1625 0.0245167
16.1725 0.0239578
16.1825 0.0233692
16.1925 0.0227499
16.2025 0.0220977
16.2125 0.0214116
16.2225 0.0206922
16.2325 0.01994
16.2425 0.0191573
16.2525 0.0183475
16.2625 0.0175138
16.2725 0.0166606
16.2825 0.0157935
16.2925 0.0149202
16.3025 0.0140508
16.3125 0.0131965
16.3225 0.0123705
16.3325 0.0115863
16.3425 0.0108522
16.3525 0.0101775
16.3625 0.00956783
16.3725 0.00902623
16.3825 0.0085568
16.3925 0.00816112
16.4025 0.00783845
16.4125 0.00758297
16.4225 0.0073858
16.4325 0.00723591
16.4425 0.00712115
16.4525 0.00702976
16.4625 0.00695044
16.4725 0.00687279
16.4825 0.00678728
16.4925 0.00668548
16.5025 0.00656073
16.5125 0.00640891
16.5225 0.0062285
16.5325 0.0060202
16.5425 0.00578647
16.5525 0.005531
16.5625 0.00525848
16.5725 0.00497416
16.5825 0.00468344
16.5925 0.00439108
16.6025 0.0041007
16.6125 0.0038148
16.6225 0.00353664
16.6325 0.00327032
16.6425 0.00302087
16.6525 0.00279351
16.6625 0.00259252
16.6725 0.00242155
16.6825 0.00228379
16.6925 0.00218189
16.7025 0.00211669
16.7125 0.00208757
16.7225 0.00209294
16.7325 0.00213076
16.7425 0.00219825
16.7525 0.00229118
16.7625 0.00240316
16.7725 0.002526
16.7825 0.00265106
16.7925 0.00277009
16.8025 0.00287529
16.8125 0.00295974
16.8225 0.00301838
16.8325 0.00304904
16.8425 0.00305254
16.8525 0.00303178
16.8625 0.00299061
16.8725 0.00293275
16.8825 0.00286126
16.8925 0.00277861
16.9025 0.00268711
16.9125 0.00258931
16.9225 0.00248827
16.9325 0.00238816
16.9425 0.00229375
16.9525 0.00221113
16.9625 0.00214563
16.9725 0.0021034
16.9825 0.00208957
16.9925 0.00210696
17.0025 0.00215509
17.0125 0.00222991
17.0225 0.0023249
17.0325 0.00243263
17.0425 0.00254555
17.0525 0.00265643
17.0625 0.0027589
17.0725 0.00284826
17.0825 0.00292231
17.0925 0.00298179
17.1025 0.0030302
17.1125 0.00307275
17.1225 0.00311515
17.1325 0.00316311
17.1425 0.00322162
17.1525 0.00329495
17.1625 0.0033866
17.1725 0.00349961
17.1825 0.00363681
17.1925 0.00380113
17.2025 0.003996
17.2125 0.00422522
17.2225 0.00449239
17.2325 0.00480007
17.2425 0.00514923
17.2525 0.00553963
17.2625 0.00597021
17.2725 0.00643929
17.2825 0.00694462
17.2925 0.0074833
17.3025 0.00805168
17.3125 0.00864536
17.3225 0.00925922
17.3325 0.00988752
17.3425 0.0105244
17.3525 0.0111648
17.3625 0.0118044
17.3725 0.0124405
17.3825 0.0130704
17.3925 0.0136918
17.4025 0.0143017
17.4125 0.0148977
17.4225 0.0154758
17.4325 0.0160506
17.4425 0.0166173
17.4525 0.0171527
17.4625 0.0176713
17.4725 0.0181717
17.4825 0.0186444
17.4925 0.019099
17.5025 0.0195379
17.5125 0.0199578
17.5225 0.0203625
17.5325 0.020752
17.5425 0.0211268
17.5525 0.0214877
17.5625 0.0218345
17.5725 0.0221631
17.5825 0.0224785
17.5925 0.0227893
17.6025 0.0230849
17.6125 0.0233667
17.6225 0.0236377
17.6325 0.0238958
17.6425 0.0241407
17.6525 0.0243704
17.6625 0.0245857
17.6725 0.0247875
17.6825 0.0249746
17.6925 0.0251474
17.7025 0.0253062
17.7125 0.0254502
17.7225 0.0255789
17.7325 0.025693
17.7425 0.0257939
17.7525 0.0258833
17.7625 0.0259622
17.7725 0.0260309
17.7825 0.0260879
17.7925 0.0261313
17.8025 0.0261587
17.8125 0.0261682
17.8225 0.0261576
17.8325 0.0261255
17.8425 0.0260703
17.8525 0.0259906
17.8625 0.025885
17.8725 0.025753
17.8825 0.025596
17.8925 0.0254182
17.9025 0.0252264
17.9125 0.0250287
17.9225 0.0248321
17.9325 0.0246425
17.9425 0.0244638
17.9525 0.0242982
17.9625 0.0241459
17.9725 0.0240065
17.9825 0.0238804
17.9925 0.0237681
18.0025 0.0236696
18.0125 0.0235855
18.0225 0.0235159
18.0325 0.0234606
18.0425 0.0234193
18.0525 0.0233925
18.0625 0.0233811
18.0725 0.0233863
18.0825 0.0234091
18.0925 0.0234494
18.1025 0.0235063
18.1125 0.0235783
18.1225 0.0236633
18.1325 0.0237588
18.1425 0.023861
18.1525 0.0239651
18.1625 0.0240646
18.1725 0.024153
18.1825 0.0242242
18.1925 0.0242751
18.2025 0.0243044
18.2125 0.0243132
18.2225 0.0243044
18.2325 0.0242816
18.2425 0.0242495
18.2525 0.0242129
18.2625 0.0241742
18.2725 0.024138
18.2825 0.0241085
18.2925 0.0240889
18.3025 0.0240834
18.3125 0.0240953
18.3225 0.0241274
18.3325 0.0241816
18.3425 0.0242584
18.3525 0.0243568
18.3625 0.0244749
18.3725 0.0246097
18.3825 0.0247573
18.3925 0.0249127
18.4025 0.02507
18.4125 0.0252226
18.4225 0.0253644
18.4325 0.0254897
18.4425 0.0255932
18.4525 0.0256696
18.4625 0.0257143
18.4725 0.0257241
18.4825 0.0256977
18.4925 0.0256354
18.5025 0.0255384
18.5125 0.0254087
18.5225 0.0252486
18.5325 0.0250591
18.5425 0.0248394
18.5525 0.0245975
18.5625 0.0243323
18.5725 0.0240451
18.5825 0.023737
18.5925 0.0234086
18.6025 0.0230605
18.6125 0.0226951
18.6225 0.0223156
18.6325 0.0219257
18.6425 0.0215289
18.6525 0.0211314
18.6625 0.0207344
18.6725 0.0203385
18.6825 0.0199503
18.6925 0.0195737
18.7025 0.0192145
18.7125 0.0188775
18.7225 0.018567
18.7325 0.0182846
18.7425 0.018031
18.7525 0.0178033
18.7625 0.0175977
18.7725 0.0174077
18.7825 0.017227
18.7925 0.0170505
18.8025 0.0168729
18.8125 0.0166888
18.8225 0.0164948
18.8325 0.0162883
18.8425 0.0160683
18.8525 0.0158358
18.8625 0.0155942
18.8725 0.0153473
18.8825 0.0150997
18.8925 0.0148558
18.9025 0.0146191
18.9125 0.0143913
18.9225 0.0141743
18.9325 0.0139709
18.9425 0.013785
18.9525 0.0136211
18.9625 0.0134829
18.9725 0.013373
18.9825 0.0132952
18.9925 0.0132498
19.0025 0.0132368
19.0125 0.0132557
19.0225 0.0133042
19.0325 0.0133803
19.0425 0.0134816
19.0525 0.0136055
19.0625 0.0137478
19.0725 0.0139028
19.0825 0.0140639
19.0925 0.0142251
19.1025 0.014382
19.1125 0.0145318
19.1225 0.0146736
19.1325 0.0148078
19.1425 0.0149355
19.1525 0.0150577
19.1625 0.0151747
19.1725 0.0152862
19.1825 0.0153915
19.1925 0.0154898
19.2025 0.0155801
19.2125 0.015662
19.2225 0.0157351
19.2325 0.0157991
19.2425 0.0158541
19.2525 0.0159003
19.2625 0.0159376
19.2725 0.0159656
19.2825 0.0159842
19.2925 0.0159931
19.3025 0.0159922
19.3125 0.0159816
19.3225 0.0159616
19.3325 0.0159326
19.3425 0.0158942
19.3525 0.0158451
19.3625 0.0157822
19.3725 0.0157017
19.3825 0.0156002
19.3925 0.0154753
19.4025 0.0153254
19.4125 0.0151493
19.4225 0.0149455
19.4325 0.0147137
19.4425 0.0144527
19.4525 0.0141603
19.4625 0.0138444
19.4725 0.0135042
19.4825 0.0131422
19.4925 0.0127625
19.5025 0.0123683
19.5125 0.0119656
19.5225 0.0115588
19.5325 0.0111447
19.5425 0.01073
19.5525 0.0103159
19.5625 0.00990526
19.5725 0.00950321
19.5825 0.00911166
19.5925 0.00873258
19.6025 0.00836684
19.6125 0.00801476
19.6225 0.00767713
19.6325 0.00735534
19.6425 0.00705011
19.6525 0.00675954
19.6625 0.00648487
19.6725 0.00622409
19.6825 0.00597662
19.6925 0.00574099
19.7025 0.00551506
19.7125 0.0052977
19.7225 0.0050874
19.7325 0.00488324
19.7425 0.00468483
19.7525 0.00449238
19.7625 0.00430649
19.7725 0.00412726
19.7825 0.00395395
19.7925 0.00378554
19.8025 0.00362061
19.8125 0.00345587
19.8225 0.00328383
19.8325 0.00310466
19.8425 0.00291711
19.8525 0.00271946
19.8625 0.00251448
19.8725 0.00230535
19.8825 0.00209499
19.8925 0.00188827
19.9025 0.00169084
19.9125 0.00150763
19.9225 0.00134321
19.9325 0.00120176
19.9425 0.00108703
19.9525 0.00100294
19.9625 0.000953284
19.9725 0.000941218
19.9825 0.000967949
19.9925 0.00103334
20.0025 0.00113591
20.0125 0.00127254
20.0225 0.00143831
20.0325 0.00162693
20.0425 0.00183106
20.0525 0.0020433
20.0625 0.00225698
20.0725 0.0024664
20.0825 0.00266711
20.0925 0.00285563
20.1025 0.00302915
20.1125 0.00318534
20.1225 0.00332266
20.1325 0.00344049
20.1425 0.00353909
20.1525 0.00361875
20.1625 0.00367931
20.1725 0.00372035
20.1825 0.00374247
20.1925 0.00374835
20.2025 0.00374189
20.2125 0.0037267
20.2225 0.00370466
20.2325 0.00367596
20.2425 0.00364006
20.2525 0.00359653
20.2625 0.00354539
20.2725 0.0034874
20.2825 0.00342392
20.2925 0.00335695
20.3025 0.00328943
20.3125 0.00322495
20.3225 0.00316719
20.3325 0.00311921
20.3425 0.00308328
20.3525 0.00306118
20.3625 0.00305452
20.3725 0.00306504
20.3825 0.00309441
20.3925 0.00314377
20.4025 0.003213
20.4125 0.00330053
20.4225 0.00340344
20.4325 0.00351789
20.4425 0.00364106
20.4525 0.00376982
20.4625 0.00390186
20.4725 0.00403536
20.4825 0.00416924
20.4925 0.00430317
20.5025 0.00443743
20.5125 0.00457304
20.5225 0.0047114
20.5325 0.00485398
20.5425 0.0050022
20.5525 0.00515736
20.5625 0.00532061
20.5725 0.00549297
20.5825 0.0056752
20.5925 0.00586796
20.6025 0.00607198
20.6125 0.00628821
20.6225 0.00651762
20.6325 0.00676083
20.6425 0.00701726
20.6525 0.00728445
20.6625 0.0075608
20.6725 0.00784332
20.6825 0.00812928
20.6925 0.00841768
20.7025 0.00870821
20.7125 0.00900186
20.7225 0.00930056
20.7325 0.0096076
20.7425 0.00993352
20.7525 0.0102676
20.7625 0.0106098
20.7725 0.0109639
20.7825 0.0113258
20.7925 0.0116962
20.8025 0.0120694
20.8125 0.0124455
20.8225 0.0128308
20.8325 0.0132229
20.8425 0.0136208
20.8525 0.0140255
20.8625 0.0144356
20.8725 0.0148491
20.8825 0.0152643
20.8925 0.0156812
20.9025 0.0160992
20.9125 0.0165173
20.9225 0.0169342
20.9325 0.0173474
20.9425 0.0177533
20.9525 0.0181485
20.9625 0.0185278
20.9725 0.0188887
20.9825 0.0192292
20.9925 0.0195444
21.0025 0.0198309
21.0125 0.0200874
21.0225 0.0203123
21.0325 0.0205055
21.0425 0.0206682
21.0525 0.0208029
21.0625 0.0209119
21.0725 0.0209982
21.0825 0.0210651
21.0925 0.0211164
21.1025 0.021156
21.1125 0.0211884
21.1225 0.0212183
21.1325 0.0212522
21.1425 0.0212938
21.1525 0.0213456
21.1625 0.021413
21.1725 0.0214979
21.1825 0.0215988
21.1925 0.0217145
21.2025 0.0218434
21.2125 0.0219803
21.2225 0.0221213
21.2325 0.0222628
21.2425 0.0224009
21.2525 0.0225325
21.2625 0.0226551
21.2725 0.0227663
21.2825 0.0228644
21.2925 0.0229479
21.3025 0.0230161
21.3125 0.023069
21.3225 0.0231071
21.3325 0.0231315
21.3425 0.0231448
21.3525 0.023148
21.3625 0.0231416
21.3725 0.0231255
21.3825 0.0230993
21.3925 0.0230622
21.4025 0.0230139
21.4125 0.0229542
21.4225 0.0228831
21.4325 0.0228
21.4425 0.0227039
21.4525 0.022594
21.4625 0.0224693
21.4725 0.0223291
21.4825 0.0221734
21.4925 0.0220021
21.5025 0.0218161
21.5125 0.0216164
21.5225 0.0214047
21.5325 0.0211831
21.5425 0.020953
21.5525 0.0207161
21.5625 0.0204738
21.5725 0.0202274
21.5825 0.0199788
21.5925 0.0197307
21.6025 0.0194863
21.6125 0.01925
21.6225 0.0190256
21.6325 0.0188165
21.6425 0.0186247
21.6525 0.0184496
21.6625 0.0182867
21.6725 0.0181469
21.6825 0.0180285
21.6925 0.0179322
21.7025 0.0178577
21.7125 0.0178041
21.7225 0.017769
21.7325 0.017752
21.7425 0.0177493
21.7525 0.0177585
21.7625 0.0177845
21.7725 0.0178276
21.7825 0.017887
21.7925 0.0179629
21.8025 0.0180535
21.8125 0.0181552
21.8225 0.0182643
21.8325 0.0183777
21.8425 0.0184913
21.8525 0.0186006
21.8625 0.0187008
21.8725 0.0187881
21.8825 0.01886
21.8925 0.0189157
21.9025 0.018956
21.9125 0.0189827
21.9225 0.0189981
21.9325 0.0190048
21.9425 0.0190058
21.9525 0.0190039
21.9625 0.0190015
21.9725 0.0190005
21.9825 0.0190017
21.9925 0.0190056
22.0025 0.0190131
22.0125 0.0190256
22.0225 0.0190453
22.0325 0.0190764
22.0425 0.019117
22.0525 0.0191671
22.0625 0.0192253
22.0725 0.019289
22.0825 0.019355
22.0925 0.0194197
22.1025 0.0194796
22.1125 0.0195319
22.1225 0.0195754
22.1325 0.0196099
22.1425 0.0196366
22.1525 0.0196579
22.1625 0.0196766
22.1725 0.0196965
22.1825 0.0197202
22.1925 0.0197498
22.2025 0.0197859
22.2125 0.0198283
22.2225 0.0198768
22.2325 0.0199304
22.2425 0.0199878
22.2525 0.0200478
22.2625 0.0201099
22.2725 0.0201727
22.2825 0.0202334
22.2925 0.0202907
22.3025 0.0203457
22.3125 0.0203955
22.3225 0.0204366
22.3325 0.0204695
22.3425 0.0204925
22.3525 0.0205042
22.3625 0.0205046
22.3725 0.0204937
22.3825 0.0204709
22.3925 0.0204361
22.4025 0.0203891
22.4125 0.0203296
22.4225 0.0202578
22.4325 0.0201721
22.4425 0.0200732
22.4525 0.0199605
22.4625 0.0198333
22.4725 0.0196917
22.4825 0.0195357
22.4925 0.0193661
22.5025 0.0191849
22.5125 0.0189946
22.5225 0.0187989
22.5325 0.0186023
22.5425 0.0184079
22.5525 0.018216
22.5625 0.0180301
22.5725 0.0178573
22.5825 0.0176976
22.5925 0.0175529
22.6025 0.0174246
22.6125 0.0173133
22.6225 0.017217
22.6325 0.0171354
22.6425 0.0170671
22.6525 0.0170109
22.6625 0.0169649
22.6725 0.0169265
22.6825 0.0168934
22.6925 0.0168617
22.7025 0.0168233
22.7125 0.0167774
22.7225 0.0167211
22.7325 0.0166503
22.7425 0.0165648
22.7525 0.0164648
22.7625 0.0163521
22.7725 0.0162278
22.7825 0.0160927
22.7925 0.0159478
22.8025 0.0157935
22.8125 0.0156312
22.8225 0.0154628
22.8325 0.0152907
22.8425 0.0151181
22.8525 0.014949
22.8625 0.0147874
22.8725 0.0146378
22.8825 0.014504
22.8925 0.0143892
22.9025 0.014296
22.9125 0.0142271
22.9225 0.0141852
22.9325 0.0141725
22.9425 0.0141906
22.9525 0.0142404
22.9625 0.014322
22.9725 0.0144349
22.9825 0.0145781
22.9925 0.0147501
23.0025 0.0149482
23.0125 0.0151691
23.0225 0.0154092
23.0325 0.0156644
23.0425 0.015931
23.0525 0.0162052
23.0625 0.0164841
23.0725 0.0167649
23.0825 0.0170446
23.0925 0.0173204
23.1025 0.0175878
23.1125 0.0178439
23.1225 0.0180883
23.1325 0.0183186
23.1425 0.0185328
23.1525 0.0187289
23.1625 0.0189043
23.1725 0.0190569
23.1825 0.0191856
23.1925 0.0192903
23.2025 0.0193771
23.2125 0.0194355
23.2225 0.0194729
23.2325 0.0194924
23.2425 0.0194959
23.2525 0.019485
23.2625 0.0194624
23.2725 0.0194297
23.2825 0.0193864
23.2925 0.019339
23.3025 0.019288
23.3125 0.0192309
23.3225 0.0191704
23.3325 0.0191094
23.3425 0.0190512
23.3525 0.0189965
23.3625 0.0189481
23.3725 0.0189091
23.3825 0.0188805
23.3925 0.0188644
23.4025 0.0188628
23.4125 0.0188763
23.4225 0.0189049
23.4325 0.018948
23.4425 0.0190044
23.4525 0.0190722
23.4625 0.0191494
23.4725 0.0192338
23.4825 0.0193216
23.4925 0.0194104
23.5025 0.0194984
23.5125 0.0195822
23.5225 0.0196605
23.5325 0.0197324
23.5425 0.0197971
23.5525 0.0198538
23.5625 0.019902
23.5725 0.0199409
23.5825 0.0199694
23.5925 0.0199866
23.6025 0.0199917
23.6125 0.019984
23.6225 0.0199631
23.6325 0.019929
23.6425 0.0198821
23.6525 0.0198229
23.6625 0.019752
23.6725 0.0196688
23.6825 0.0195745
23.6925 0.0194692
23.7025 0.0193511
23.7125 0.0192206
23.7225 0.0190792
23.7325 0.0189287
23.7425 0.0187721
23.7525 0.0186135
23.7625 0.0184574
23.7725 0.0183077
23.7825 0.0181676
23.7925 0.0180347
23.8025 0.0179132
23.8125 0.0178074
23.8225 0.017716
23.8325 0.0176422
23.8425 0.0175878
23.8525 0.0175514
23.8625 0.0175317
23.8725 0.0175306
23.8825 0.0175446
23.8925 0.0175714
23.9025 0.0176095
23.9125 0.017657
23.9225 0.0177116
23.9325 0.0177718
23.9425 0.0178367
23.9525 0.0179058
23.9625 0.0179791
23.9725 0.0180569
23.9825 0.0181392
23.9925 0.0182264
24.0025 0.0183189
24.0125 0.0184155
24.0225 0.0185147
24.0325 0.0186157
24.0425 0.0187198
24.0525 0.0188271
24.0625 0.0189378
24.0725 0.0190516
24.0825 0.0191671
24.0925 0.0192816
24.1025 0.0193919
24.1125 0.019495
24.1225 0.0195892
24.1325 0.0196762
24.1425 0.0197481
24.1525 0.0198027
24.1625 0.0198451
24.1725 0.0198726
24.1825 0.0198868
24.1925 0.01989
24.2025 0.0198817
24.2125 0.019863
24.2225 0.0198355
24.2325 0.0198014
24.2425 0.0197646
24.2525 0.0197307
24.2625 0.0197028
24.2725 0.0196874
24.2825 0.0196914
24.2925 0.0197125
24.3025 0.0197538
24.3125 0.0198174
24.3225 0.019903
24.3325 0.0200123
24.3425 0.0201467
24.3525 0.0203023
24.3625 0.0204769
24.3725 0.0206675
24.3825 0.0208671
24.3925 0.0210701
24.4025 0.021267
24.4125 0.0214573
24.4225 0.0216397
24.4325 0.0218077
24.4425 0.0219586
24.4525 0.022091
24.4625 0.0222033
24.4725 0.0222929
24.4825 0.0223575
24.4925 0.0223969
24.5025 0.0224105
24.5125 0.0223989
24.5225 0.022365
24.5325 0.0223091
24.5425 0.0222358
24.5525 0.0221462
24.5625 0.0220419
24.5725 0.0219241
24.5825 0.0217923
24.5925 0.0216479
24.6025 0.0214936
24.6125 0.0213316
24.6225 0.0211655
24.6325 0.0209992
24.6425 0.0208365
24.6525 0.0206811
24.6625 0.0205373
24.6725 0.0204088
24.6825 0.0202983
24.6925 0.0202073
24.7025 0.0201364
24.7125 0.0200857
24.7225 0.0200547
24.7325 0.0200429
24.7425 0.0200493
24.7525 0.0200682
24.7625 0.0201039
24.7725 0.0201561
24.7825 0.0202197
24.7925 0.0202941
24.8025 0.0203757
24.8125 0.0204631
24.8225 0.0205543
24.8325 0.0206444
24.8425 0.0207295
24.8525 0.0208097
24.8625 0.0208811
24.8725 0.0209406
24.8825 0.020987
24.8925 0.0210193
24.9025 0.0210349
24.9125 0.0210333
24.9225 0.0210149
24.9325 0.0209791
24.9425 0.0209263
24.9525 0.0208573
24.9625 0.0207731
24.9725 0.0206749
24.9825 0.020564
24.9925 0.0204419
25.0025 0.020311
25.0125 0.0201732
25.0225 0.0200315
25.0325 0.0198882
25.0425 0.0197456
25.0525 0.0196059
25.0625 0.0194709
25.0725 0.0193422
25.0825 0.0192211
25.0925 0.0191091
25.1025 0.0190068
25.1125 0.0189139
25.1225 0.0188338
25.1325 0.0187669
25.1425 0.0187127
25.1525 0.0186696
25.1625 0.0186348
25.1725 0.0186053
25.1825 0.0185748
25.1925 0.0185405
25.2025 0.0184974
25.2125 0.018441
25.2225 0.0183691
25.2325 0.0182792
25.2425 0.0181706
25.2525 0.0180427
25.2625 0.0178967
25.2725 0.0177358
25.2825 0.0175622
25.2925 0.0173782
25.3025 0.0171859
25.3125 0.0169867
25.3225 0.016782
25.3325 0.0165736
25.3425 0.0163628
25.3525 0.0161509
25.3625 0.0159393
25.3725 0.0157292
25.3825 0.015523
25.3925 0.0153207
25.4025 0.0151228
25.4125 0.0149309
25.4225 0.014745
25.4325 0.014566
25.4425 0.0143948
25.4525 0.0142319
25.4625 0.0140783
25.4725 0.0139346
25.4825 0.0138014
25.4925 0.0136791
25.5025 0.0135683
25.5125 0.0134688
25.5225 0.0133806
25.5325 0.0133031
25.5425 0.0132353
25.5525 0.0131759
25.5625 0.0131237
25.5725 0.0130783
25.5825 0.013038
25.5925 0.013
25.6025 0.0129652
25.6125 0.0129322
25.6225 0.0128997
25.6325 0.0128677
25.6425 0.0128352
25.6525 0.0128022
25.6625 0.012768
25.6725 0.0127322
25.6825 0.0126946
25.6925 0.0126547
25.7025 0.0126123
25.7125 0.0125672
25.7225 0.0125195
25.7325 0.012469
25.7425 0.0124158
25.7525 0.01236
25.7625 0.0123018
25.7725 0.0122415
25.7825 0.0121793
25.7925 0.0121156
25.8025 0.0120508
25.8125 0.0119852
25.8225 0.0119194
25.8325 0.0118539
25.8425 0.0117893
25.8525 0.0117259
25.8625 0.0116643
25.8725 0.0116048
25.8825 0.0115476
25.8925 0.0114931
25.9025 0.0114414
25.9125 0.0113926
25.9225 0.0113471
25.9325 0.0113048
25.9425 0.0112658
25.9525 0.0112301
25.9625 0.0111974
25.9725 0.0111674
25.9825 0.0111396
25.9925 0.0111139
26.0025 0.0110897
26.0125 0.011067
26.0225 0.0110454
26.0325 0.0110246
26.0425 0.0110045
26.0525 0.0109849
26.0625 0.0109655
26.0725 0.0109462
26.0825 0.010927
26.0925 0.0109077
26.1025 0.0108885
26.1125 0.0108691
26.1225 0.0108497
26.1325 0.0108303
26.1425 0.0108112
26.1525 0.0107924
26.1625 0.0107741
26.1725 0.0107565
26.1825 0.0107399
26.1925 0.0107245
26.2025 0.0107107
26.2125 0.0106989
26.2225 0.0106895
26.2325 0.0106828
26.2425 0.0106794
26.2525 0.0106797
26.2625 0.0106842
26.2725 0.0106933
26.2825 0.0107073
26.2925 0.0107266
26.3025 0.0107514
26.3125 0.0107819
26.3225 0.0108185
26.3325 0.0108611
26.3425 0.0109098
26.3525 0.0109647
26.3625 0.0110256
26.3725 0.0110926
26.3825 0.0111653
26.3925 0.0112435
26.4025 0.0113269
26.4125 0.0114152
26.4225 0.011508
26.4325 0.0116049
26.4425 0.0117053
26.4525 0.0118089
26.4625 0.0119151
26.4725 0.0120236
26.4825 0.0121339
26.4925 0.0122454
26.5025 0.0123578
26.5125 0.0124707
26.5225 0.0125838
26.5325 0.0126967
26.5425 0.0128092
26.5525 0.0129211
26.5625 0.0130322
26.5725 0.0131423
26.5825 0.0132515
26.5925 0.0133597
26.6025 0.0134668
26.6125 0.013573
26.6225 0.0136783
26.6325 0.0137828
26.6425 0.0138867
26.6525 0.01399
26.6625 0.0140933
26.6725 0.0141966
26.6825 0.0142998
26.6925 0.0144031
26.7025 0.0145065
26.7125 0.0146098
26.7225 0.0147131
26.7325 0.0148162
26.7425 0.0149189
26.7525 0.0150212
26.7625 0.0151257
26.7725 0.0152289
26.7825 0.0153298
26.7925 0.0154294
26.8025 0.0155264
26.8125 0.0156205
26.8225 0.015712
26.8325 0.0158002
26.8425 0.0158846
26.8525 0.0159652
26.8625 0.0160417
26.8725 0.0161141
26.8825 0.0161821
26.8925 0.0162457
26.9025 0.0163051
26.9125 0.0163599
26.9225 0.0164103
26.9325 0.0164567
26.9425 0.0164991
26.9525 0.0165373
26.9625 0.0165709
26.9725 0.016602
26.9825 0.0166301
26.9925 0.0166548
27.0025 0.0166773
27.0125 0.0166977
27.0225 0.0167162
27.0325 0.0167331
27.0425 0.0167491
27.0525 0.0167643
27.0625 0.0167791
27.0725 0.0167938
27.0825 0.0168088
27.0925 0.0168243
27.1025 0.0168405
27.1125 0.0168576
27.1225 0.0168757
27.1325 0.016895
27.1425 0.0169156
27.1525 0.0169375
27.1625 0.0169606
27.1725 0.016985
27.1825 0.0170105
27.1925 0.017037
27.2025 0.0170644
27.2125 0.0170924
27.2225 0.0171209
27.2325 0.0171496
27.2425 0.0171783
27.2525 0.0172068
27.2625 0.0172347
27.2725 0.0172618
27.2825 0.0172878
27.2925 0.0173125
27.3025 0.0173357
27.3125 0.0173571
27.3225 0.0173765
27.3325 0.0173939
27.3425 0.0174089
27.3525 0.0174215
27.3625 0.0174316
27.3725 0.0174392
27.3825 0.0174443
27.3925 0.0174468
27.4025 0.0174469
27.4125 0.0174447
27.4225 0.0174401
27.4325 0.0174334
27.4425 0.0174247
27.4525 0.0174142
27.4625 0.0174019
27.4725 0.0173883
27.4825 0.0173733
27.4925 0.0173572
27.5025 0.0173402
27.5125 0.0173221
27.5225 0.0173032
27.5325 0.0172835
27.5425 0.0172631
27.5525 0.0172418
27.5625 0.0172199
27.5725 0.0171971
27.5825 0.0171734
27.5925 0.0171488
27.6025 0.0171232
27.6125 0.0170965
27.6225 0.0170685
27.6325 0.017039
27.6425 0.0170065
27.6525 0.0169725
27.6625 0.0169367
27.6725 0.0168989
27.6825 0.0168588
27.6925 0.0168164
27.7025 0.0167717
27.7125 0.0167245
27.7225 0.0166747
27.7325 0.0166223
27.7425 0.0165673
27.7525 0.0165096
27.7625 0.0164492
27.7725 0.0163863
27.7825 0.0163208
27.7925 0.016253
27.8025 0.0161827
27.8125 0.0161104
27.8225 0.016036
27.8325 0.0159598
27.8425 0.0158819
27.8525 0.0158027
27.8625 0.0157223
27.8725 0.015641
27.8825 0.015559
27.8925 0.0154767
27.9025 0.0153942
27.9125 0.0153118
27.9225 0.0152298
27.9325 0.0151485
27.9425 0.0150679
27.9525 0.0149884
27.9625 0.0149102
27.9725 0.0148334
27.9825 0.0147581
27.9925 0.0146846
28.0025 0.0146129
28.0125 0.0145431
28.0225 0.0144753
28.0325 0.0144095
28.0425 0.0143457
28.0525 0.0142838
28.0625 0.014224
28.0725 0.014166
28.0825 0.0141099
28.0925 0.0140555
28.1025 0.0140027
28.1125 0.0139515
28.1225 0.0139017
28.1325 0.0138532
28.1425 0.0138059
28.1525 0.0137596
28.1625 0.0137143
28.1725 0.0136699
28.1825 0.0136261
28.1925 0.013583
28.2025 0.0135405
28.2125 0.0134984
28.2225 0.0134566
28.2325 0.0134154
28.2425 0.0133743
28.2525 0.0133336
28.2625 0.0132932
28.2725 0.013253
28.2825 0.0132131
28.2925 0.0131736
28.3025 0.0131345
28.3125 0.0130957
28.3225 0.0130575
28.3325 0.0130198
28.3425 0.0129827
28.3525 0.0129463
28.3625 0.0129107
28.3725 0.012876
28.3825 0.0128421
28.3925 0.0128091
28.4025 0.0127772
28.4125 0.0127462
28.4225 0.0127163
28.4325 0.0126874
28.4425 0.0126596
28.4525 0.0126328
28.4625 0.012607
28.4725 0.012582
28.4825 0.012558
28.4925 0.0125347
28.5025 0.0125121
28.5125 0.0124902
28.5225 0.0124687
28.5325 0.0124477
28.5425 0.012427
28.5525 0.0124065
28.5625 0.0123862
28.5725 0.0123659
28.5825 0.0123456
28.5925 0.0123252
28.6025 0.0123046
28.6125 0.0122838
28.6225 0.0122628
28.6325 0.0122415
28.6425 0.0122201
28.6525 0.0121984
28.6625 0.0121766
28.6725 0.0121548
28.6825 0.0121331
28.6925 0.0121116
28.7025 0.0120905
28.7125 0.0120699
28.7225 0.0120502
28.7325 0.0120313
28.7425 0.0120137
28.7525 0.0119974
28.7625 0.0119828
28.7725 0.01197
28.7825 0.0119594
28.7925 0.0119511
28.8025 0.0119452
28.8125 0.0119421
28.8225 0.0119418
28.8325 0.0119445
28.8425 0.0119502
28.8525 0.011959
28.8625 0.011971
28.8725 0.0119861
28.8825 0.0120042
28.8925 0.0120254
28.9025 0.0120495
28.9125 0.0120764
28.9225 0.012106
28.9325 0.012138
28.9425 0.0121724
28.9525 0.0122088
28.9625 0.0122472
28.9725 0.0122872
28.9825 0.0123288
28.9925 0.0123717
29.0025 0.0124158
29.0125 0.0124607
29.0225 0.0125065
29.0325 0.012553
29.0425 0.0126
29.0525 0.0126474
29.0625 0.0126952
29.0725 0.0127433
29.0825 0.0127916
29.0925 0.0128402
29.1025 0.0128889
29.1125 0.0129378
29.1225 0.0129869
29.1325 0.0130362
29.1425 0.0130857
29.1525 0.0131354
29.1625 0.0131853
29.1725 0.0132355
29.1825 0.0132858
29.1925 0.0133363
29.2025 0.0133869
29.2125 0.0134377
29.2225 0.0134884
29.2325 0.0135391
29.2425 0.0135897
29.2525 0.01364
29.2625 0.0136899
29.2725 0.0137393
29.2825 0.013788
29.2925 0.013836
29.3025 0.013883
29.3125 0.013929
29.3225 0.0139737
29.3325 0.0140171
29.3425 0.014059
29.3525 0.0140994
29.3625 0.0141382
29.3725 0.0141752
29.3825 0.0142106
29.3925 0.0142441
29.4025 0.014276
29.4125 0.0143061
29.4225 0.0143345
29.4325 0.014362
29.4425 0.014389
29.4525 0.0144136
29.4625 0.014437
29.4725 0.0144589
29.4825 0.0144793
29.4925 0.0144985
29.5025 0.0145166
29.5125 0.0145336
29.5225 0.0145496
29.5325 0.0145642
29.5425 0.0145784
29.5525 0.0145921
29.5625 0.014605
29.5725 0.0146175
29.5825 0.0146297
29.5925 0.0146416
29.6025 0.0146532
29.6125 0.0146648
29.6225 0.0146764
29.6325 0.014688
29.6425 0.0146996
29.6525 0.0147114
29.6625 0.0147233
29.6725 0.0147354
29.6825 0.0147476
29.6925 0.0147599
29.7025 0.0147724
29.7125 0.0147849
29.7225 0.0147975
29.7325 0.01481
29.7425 0.0148223
29.7525 0.0148345
29.7625 0.0148463
29.7725 0.0148577
29.7825 0.0148686
29.7925 0.0148788
29.8025 0.0148883
29.8125 0.0148969
29.8225 0.0149045
29.8325 0.0149109
29.8425 0.0149162
29.8525 0.0149202
29.8625 0.0149228
29.8725 0.014924
29.8825 0.0149238
29.8925 0.014922
29.9025 0.0149187
29.9125 0.014914
29.9225 0.0149077
29.9325 0.0149
29.9425 0.0148908
29.9525 0.0148803
29.9625 0.0148684
29.9725 0.0148553
29.9825 0.014841
29.9925 0.0148256
30.0025 0.014809
30.0125 0.0147912
30.0225 0.0147725
30.0325 0.014753
30.0425 0.0147327
30.0525 0.0147116
30.0625 0.0146899
30.0725 0.0146676
30.0825 0.0146448
30.0925 0.0146214
30.1025 0.0145975
30.1125 0.014573
30.1225 0.0145481
30.1325 0.0145227
30.1425 0.0144967
30.1525 0.0144701
30.1625 0.0144429
30.1725 0.014415
30.1825 0.0143864
30.1925 0.0143569
30.2025 0.0143267
30.2125 0.0142955
30.2225 0.0142633
30.2325 0.0142302
30.2425 0.014196
30.2525 0.0141607
30.2625 0.0141243
30.2725 0.0140869
30.2825 0.0140484
30.2925 0.0140088
30.3025 0.0139682
30.3125 0.0139267
30.3225 0.0138842
30.3325 0.013841
30.3425 0.0137971
30.3525 0.0137525
30.3625 0.0137075
30.3725 0.0136622
30.3825 0.0136166
30.3925 0.0135709
30.4025 0.0135254
30.4125 0.01348
30.4225 0.0134349
30.4325 0.0133903
30.4425 0.0133463
30.4525 0.013303
30.4625 0.0132604
30.4725 0.0132187
30.4825 0.013178
30.4925 0.0131382
30.5025 0.0130994
30.5125 0.0130617
30.5225 0.0130251
30.5325 0.0129894
30.5425 0.0129548
30.5525 0.0129212
30.5625 0.0128885
30.5725 0.0128566
30.5825 0.0128256
30.5925 0.0127952
30.6025 0.0127655
30.6125 0.0127363
30.6225 0.0127076
30.6325 0.0126792
30.6425 0.0126512
30.6525 0.0126233
30.6625 0.0125956
30.6725 0.0125679
30.6825 0.0125403
30.6925 0.0125127
30.7025 0.0124851
30.7125 0.0124574
30.7225 0.0124297
30.7325 0.0124019
30.7425 0.0123741
30.7525 0.0123462
30.7625 0.0123185
30.7725 0.0122908
30.7825 0.0122634
30.7925 0.0122361
30.8025 0.0122092
30.8125 0.0121826
30.8225 0.0121565
30.8325 0.0121309
30.8425 0.0121059
30.8525 0.0120815
30.8625 0.0120579
30.8725 0.012035
30.8825 0.012013
30.8925 0.0119918
30.9025 0.0119715
30.9125 0.0119521
30.9225 0.0119335
30.9325 0.0119159
30.9425 0.0118991
30.9525 0.0118831
30.9625 0.0118679
30.9725 0.0118534
30.9825 0.0118396
30.9925 0.0118264
31.0025 0.0118137
31.0125 0.0118015
31.0225 0.0117898
31.0325 0.0117783
31.0425 0.0117671
31.0525 0.0117561
31.0625 0.0117453
31.0725 0.0117346
31.0825 0.0117239
31.0925 0.0117133
31.1025 0.0117028
31.1125 0.0116923
31.1225 0.0116818
31.1325 0.0116715
31.1425 0.0116614
31.1525 0.0116515
31.1625 0.0116419
31.1725 0.0116327
31.1825 0.0116241
31.1925 0.0116161
31.2025 0.0116089
31.2125 0.0116026
31.2225 0.0115974
31.2325 0.0115934
31.2425 0.0115907
31.2525 0.0115894
31.2625 0.0115898
31.2725 0.0115917
31.2825 0.0115955
31.2925 0.011601
31.3025 0.0116083
31.3125 0.0116175
31.3225 0.0116286
31.3325 0.0116415
31.3425 0.0116561
31.3525 0.0116725
31.3625 0.0116905
31.3725 0.0117101
31.3825 0.011731
31.3925 0.0117533
31.4025 0.0117767
31.4125 0.0118012
31.4225 0.0118266
31.4325 0.0118528
31.4425 0.0118796
31.4525 0.011907
31.4625 0.0119347
31.4725 0.0119628
31.4825 0.0119911
31.4925 0.0120195
31.5025 0.0120481
31.5125 0.0120767
31.5225 0.0121054
31.5325 0.012134
31.5425 0.0121627
31.5525 0.0121914
31.5625 0.0122202
31.5725 0.012249
31.5825 0.0122779
31.5925 0.012307
31.6025 0.0123363
31.6125 0.0123658
31.6225 0.0123956
31.6325 0.0124257
31.6425 0.012456
31.6525 0.0124867
31.6625 0.0125177
31.6725 0.0125489
31.6825 0.0125804
31.6925 0.012612
31.7025 0.0126438
31.7125 0.0126757
31.7225 0.0127076
31.7325 0.0127393
31.7425 0.0127709
31.7525 0.0128021
31.7625 0.0128329
31.7725 0.0128632
31.7825 0.0128929
31.7925 0.0129218
31.8025 0.0129499
31.8125 0.0129771
31.8225 0.0130033
31.8325 0.0130284
31.8425 0.0130525
31.8525 0.0130755
31.8625 0.0130973
31.8725 0.013118
31.8825 0.0131376
31.8925 0.0131563
31.9025 0.0131749
31.9125 0.0131922
31.9225 0.0132085
31.9325 0.0132241
31.9425 0.0132388
31.9525 0.0132528
31.9625 0.013266
31.9725 0.0132788
31.9825 0.013291
31.9925 0.0133027
32.0025 0.0133141
32.015 0.0133278
32.0275 0.013341
32.04 0.0133539
32.0525 0.0133665
32.065 0.0133788
32.0775 0.0133909
32.09 0.0134029
32.1025 0.0134146
32.115 0.0134261
32.1275 0.0134373
32.14 0.0134481
32.1525 0.0134586
32.165 0.0134684
32.1775 0.0134776
32.19 0.013486
32.2025 0.0134935
32.215 0.0135
32.2275 0.0135052
32.24 0.0135092
32.2525 0.0135117
32.265 0.0135127
32.2775 0.0135121
32.29 0.0135099
32.3025 0.013506
32.315 0.0135004
32.3275 0.0134931
32.34 0.0134843
32.3525 0.0134736
32.365 0.0134615
32.3775 0.0134478
32.39 0.0134329
32.4025 0.0134167
32.415 0.0133993
32.4275 0.0133809
32.44 0.0133616
32.4525 0.0133414
32.465 0.0133204
32.4775 0.0132987
32.49 0.0132764
32.5025 0.0132534
32.515 0.0132297
32.5275 0.0132055
32.54 0.0131806
32.5525 0.013155
32.565 0.0131287
32.5775 0.0131016
32.59 0.0130737
32.6025 0.0130449
32.615 0.0130152
32.6275 0.0129844
32.64 0.0129527
32.6525 0.01292
32.665 0.0128862
32.6775 0.0128514
32.69 0.0128157
32.7025 0.012779
32.715 0.0127414
32.7275 0.0127032
32.74 0.0126642
32.7525 0.0126248
32.765 0.012585
32.7775 0.012545
32.79 0.012505
32.8025 0.012465
32.815 0.0124252
32.8275 0.0123859
32.84 0.012347
32.8525 0.0123087
32.865 0.0122712
32.8775 0.0122345
32.89 0.0121986
32.9025 0.0121636
32.915 0.0121295
32.9275 0.0120964
32.94 0.012064
32.9525 0.0120326
32.965 0.0120018
32.9775 0.0119718
32.99 0.0119425
33.0025 0.0119136
33.015 0.0118853
33.0275 0.0118573
33.04 0.0118296
33.0525 0.0118022
33.065 0.011775
33.0775 0.011748
33.09 0.0117211
33.1025 0.0116944
33.115 0.0116678
33.1275 0.0116414
33.14 0.0116152
33.1525 0.0115895
33.165 0.0115642
33.1775 0.0115393
33.19 0.011515
33.2025 0.0114915
33.215 0.0114688
33.2275 0.011447
33.24 0.0114263
33.2525 0.0114066
33.265 0.0113881
33.2775 0.0113707
33.29 0.0113546
33.3025 0.0113396
33.315 0.0113259
33.3275 0.0113132
33.34 0.0113017
33.3525 0.0112913
33.365 0.0112817
33.3775 0.0112731
33.39 0.0112653
33.4025 0.0112582
33.415 0.0112517
33.4275 0.0112458
33.44 0.0112404
33.4525 0.0112354
33.465 0.0112309
33.4775 0.0112267
33.49 0.0112229
33.5025 0.0112196
33.515 0.0112166
33.5275 0.0112142
33.54 0.0112124
33.5525 0.0112114
33.565 0.0112111
33.5775 0.0112119
33.59 0.0112138
33.6025 0.011217
33.615 0.0112216
33.6275 0.0112278
33.64 0.0112356
33.6525 0.011245
33.665 0.0112562
33.6775 0.0112692
33.69 0.0112839
33.7025 0.0113002
33.715 0.0113182
33.7275 0.0113377
33.74 0.0113585
33.7525 0.0113806
33.765 0.0114038
33.7775 0.0114279
33.79 0.0114527
33.8025 0.0114781
33.815 0.0115039
33.8275 0.01153
33.84 0.0115563
33.8525 0.0115827
33.865 0.0116091
33.8775 0.0116355
33.89 0.0116618
33.9025 0.011688
33.915 0.0117142
33.9275 0.0117404
33.94 0.0117666
33.9525 0.0117929
33.965 0.0118193
33.9775 0.011846
33.99 0.0118728
34.0025 0.0119
34.015 0.0119274
34.0275 0.0119551
34.04 0.0119831
34.0525 0.0120113
34.065 0.0120397
34.0775 0.0120682
34.09 0.0120967
34.1025 0.012125
34.115 0.012153
34.1275 0.0121806
34.14 0.0122077
34.1525 0.012234
34.165 0.0122595
34.1775 0.012284
34.19 0.0123076
34.2025 0.0123308
34.215 0.0123523
34.2275 0.0123727
34.24 0.0123916
34.2525 0.0124091
34.265 0.0124252
34.2775 0.0124399
34.29 0.0124533
34.3025 0.0124656
34.315 0.0124767
34.3275 0.0124868
34.34 0.0124961
34.3525 0.0125047
34.365 0.0125128
34.3775 0.0125204
34.39 0.0125276
34.4025 0.0125345
34.415 0.0125413
34.4275 0.0125479
34.44 0.0125545
34.4525 0.012561
34.465 0.0125674
34.4775 0.0125738
34.49 0.01258
34.5025 0.012586
34.515 0.0125918
34.5275 0.0125972
34.54 0.0126021
34.5525 0.0126064
34.565 0.0126099
34.5775 0.0126125
34.59 0.0126141
34.6025 0.0126145
34.615 0.0126137
34.6275 0.0126116
34.64 0.0126081
34.6525 0.0126031
34.665 0.0125968
34.6775 0.012589
34.69 0.01258
34.7025 0.0125697
34.715 0.0125583
34.7275 0.0125459
34.74 0.0125325
34.7525 0.0125184
34.765 0.0125036
34.7775 0.0124882
34.79 0.0124724
34.8025 0.0124563
34.815 0.01244
34.8275 0.0124235
34.84 0.012407
34.8525 0.0123904
34.865 0.0123738
34.8775 0.0123571
34.89 0.0123403
34.9025 0.0123235
34.915 0.0123064
34.9275 0.0122891
34.94 0.0122715
34.9525 0.0122534
34.965 0.0122348
34.9775 0.0122156
34.99 0.0121958
35.0025 0.0121752
35.015 0.0121538
35.0275 0.0121316
35.04 0.0121085
35.0525 0.0120846
35.065 0.0120599
35.0775 0.0120345
35.09 0.0120083
35.1025 0.0119816
35.115 0.0119544
35.1275 0.0119269
35.14 0.0118991
35.1525 0.0118712
35.165 0.0118434
35.1775 0.0118158
35.19 0.0117884
35.2025 0.0117615
35.215 0.0117351
35.2275 0.0117094
35.24 0.0116843
35.2525 0.0116599
35.265 0.0116363
35.2775 0.0116134
35.29 0.0115913
35.3025 0.0115698
35.315 0.011549
35.3275 0.0115288
35.34 0.0115091
35.3525 0.0114897
35.365 0.0114707
35.3775 0.0114519
35.39 0.0114333
35.4025 0.0114147
35.415 0.0113962
35.4275 0.0113775
35.44 0.0113589
35.4525 0.0113401
35.465 0.0113213
35.4775 0.0113024
35.49 0.0112835
35.5025 0.0112646
35.515 0.011246
35.5275 0.0112276
35.54 0.0112095
35.5525 0.011192
35.565 0.011175
35.5775 0.0111587
35.59 0.0111432
35.6025 0.0111286
35.615 0.011115
35.6275 0.0111025
35.64 0.0110911
35.6525 0.0110808
35.665 0.0110717
35.6775 0.0110637
35.69 0.0110568
35.7025 0.011051
35.715 0.0110463
35.7275 0.0110424
35.74 0.0110395
35.7525 0.0110372
35.765 0.0110357
35.7775 0.0110347
35.79 0.0110343
35.8025 0.0110342
35.815 0.0110345
35.8275 0.0110351
35.84 0.0110359
35.8525 0.0110369
35.865 0.0110381
35.8775 0.0110395
35.89 0.0110411
35.9025 0.011043
35.915 0.0110454
35.9275 0.0110482
35.94 0.0110516
35.9525 0.0110557
35.965 0.0110606
35.9775 0.0110664
35.99 0.0110733
36.0025 0.0110812
36.015 0.0110903
36.0275 0.0111006
36.04 0.0111121
36.0525 0.0111247
36.065 0.0111385
36.0775 0.0111533
36.09 0.0111691
36.1025 0.0111858
36.115 0.0112032
36.1275 0.0112212
36.14 0.0112396
36.1525 0.0112584
36.165 0.0112774
36.1775 0.0112965
36.19 0.0113155
36.2025 0.0113344
36.215 0.0113531
36.2275 0.0113716
36.24 0.0113897
36.2525 0.0114076
36.265 0.0114252
36.2775 0.0114426
36.29 0.0114598
36.3025 0.0114769
36.315 0.011494
36.3275 0.0115111
36.34 0.0115284
36.3525 0.0115458
36.365 0.0115635
36.3775 0.0115815
36.39 0.0115997
36.4025 0.0116183
36.415 0.0116372
36.4275 0.0116564
36.44 0.0116757
36.4525 0.0116952
36.465 0.0117147
36.4775 0.0117341
36.49 0.0117532
36.5025 0.0117721
36.515 0.0117908
36.5275 0.0118089
36.54 0.0118262
36.5525 0.0118426
36.565 0.011858
36.5775 0.0118724
36.59 0.0118855
36.6025 0.0118976
36.615 0.0119084
36.6275 0.0119181
36.64 0.0119267
36.6525 0.0119343
