-2.75044e-06 -1.45727e-06 -4.54536e-07 -1.73e-05 -2.12558e-06 -4.20954e-07 -4.41937e-06 -4.23826e-07 -6.36534e-11
-2.82569e-06 -1.46837e-06 -4.55121e-07 -1.72769e-05 -2.12318e-06 -4.20867e-07 -4.42448e-06 -4.24358e-07 -6.72967e-11
-2.99434e-06 -1.49377e-06 -4.56473e-07 -1.72253e-05 -2.11811e-06 -4.20672e-07 -4.43254e-06 -4.25302e-07 -7.57562e-11
-3.33752e-06 -1.54621e-06 -4.59264e-07 -1.71218e-05 -2.10886e-06 -4.20323e-07 -4.44392e-06 -4.26553e-07 -8.67431e-11
-3.72099e-06 -1.60579e-06 -4.6244e-07 -1.70193e-05 -2.09976e-06 -4.19981e-07 -4.45074e-06 -4.27245e-07 -9.34577e-11
-4.20695e-06 -1.68243e-06 -4.66533e-07 -1.69094e-05 -2.09002e-06 -4.19616e-07 -4.4514e-06 -4.27162e-07 -9.36837e-11
-4.79905e-06 -1.77744e-06 -4.71617e-07 -1.68005e-05 -2.0807e-06 -4.19271e-07 -4.44032e-06 -4.2571e-07 -8.30475e-11
-5.50067e-06 -1.89223e-06 -4.77774e-07 -1.67018e-05 -2.07308e-06 -4.18995e-07 -4.41179e-06 -4.22217e-07 -5.61913e-11
-6.31604e-06 -2.02837e-06 -4.85094e-07 -1.66264e-05 -2.06856e-06 -4.18843e-07 -4.36066e-06 -4.16053e-07 -7.86181e-12
-7.24954e-06 -2.18752e-06 -4.93671e-07 -1.65901e-05 -2.06867e-06 -4.18874e-07 -4.28205e-06 -4.06628e-07 6.69532e-11
-8.30383e-06 -2.37119e-06 -5.03594e-07 -1.6609e-05 -2.07511e-06 -4.19156e-07 -4.17079e-06 -3.93357e-07 1.73031e-10
-9.47671e-06 -2.58024e-06 -5.14918e-07 -1.67001e-05 -2.08989e-06 -4.19765e-07 -4.02164e-06 -3.75683e-07 3.14735e-10
-1.07589e-05 -2.81414e-06 -5.27601e-07 -1.68837e-05 -2.11528e-06 -4.2079e-07 -3.83045e-06 -3.53149e-07 4.9573e-10
-1.21254e-05 -3.07029e-06 -5.41456e-07 -1.71818e-05 -2.15351e-06 -4.22308e-07 -3.59531e-06 -3.25593e-07 7.16521e-10
-1.35396e-05 -3.34524e-06 -5.56395e-07 -1.76239e-05 -2.20798e-06 -4.24465e-07 -3.31415e-06 -2.92669e-07 9.8185e-10
-1.4964e-05 -3.63258e-06 -5.72068e-07 -1.82418e-05 -2.28172e-06 -4.27372e-07 -2.98729e-06 -2.54566e-07 1.28921e-09
-1.63385e-05 -3.92449e-06 -5.88067e-07 -1.90632e-05 -2.37766e-06 -4.31144e-07 -2.61887e-06 -2.11833e-07 1.63479e-09
-1.76008e-05 -4.21225e-06 -6.03932e-07 -2.01109e-05 -2.49831e-06 -4.35881e-07 -2.21733e-06 -1.65538e-07 2.01008e-09
-1.86964e-05 -4.48683e-06 -6.19186e-07 -2.14012e-05 -2.64546e-06 -4.41652e-07 -1.79652e-06 -1.17365e-07 2.40167e-09
-1.95746e-05 -4.73943e-06 -6.33358e-07 -2.29409e-05 -2.81987e-06 -4.48486e-07 -1.42973e-06 -6.25141e-08 2.79167e-09
-2.01859e-05 -4.96136e-06 -6.45979e-07 -2.47256e-05 -3.02118e-06 -4.5637e-07 -1.0864e-06 -1.20215e-08 3.15335e-09
-2.04804e-05 -5.143e-06 -6.56526e-07 -2.67409e-05 -3.2481e-06 -4.65256e-07 -7.92845e-07 2.9639e-08 3.45524e-09
-2.04041e-05 -5.27314e-06 -6.64388e-07 -2.89648e-05 -3.4985e-06 -4.75061e-07 -5.78441e-07 5.74226e-08 3.6617e-09
-1.98913e-05 -5.33835e-06 -6.68832e-07 -3.13674e-05 -3.76939e-06 -4.85666e-07 -4.77655e-07 6.56797e-08 3.73314e-09
-1.8867e-05 -5.3231e-06 -6.69006e-07 -3.3914e-05 -4.05695e-06 -4.9693e-07 -5.2946e-07 4.82844e-08 3.62717e-09
-1.72571e-05 -5.2111e-06 -6.6401e-07 -3.6558e-05 -4.35555e-06 -5.08594e-07 -7.75512e-07 -1.27261e-09 3.29922e-09
-1.50146e-05 -4.9894e-06 -6.53121e-07 -3.92254e-05 -4.65815e-06 -5.20401e-07 -1.27752e-06 -8.47187e-08 2.70748e-09
-1.21548e-05 -4.65357e-06 -6.36055e-07 -4.18197e-05 -4.95509e-06 -5.32011e-07 -2.1824e-06 -2.00676e-07 1.78999e-09
-8.77748e-06 -4.21197e-06 -6.13214e-07 -4.42123e-05 -5.2321e-06 -5.42864e-07 -3.49123e-06 -3.63128e-07 4.89762e-10
-5.06004e-06 -3.68428e-06 -5.85587e-07 -4.624e-05 -5.47258e-06 -5.52324e-07 -5.25085e-06 -5.79301e-07 -1.24364e-09
-1.20912e-06 -3.09535e-06 -5.54443e-07 -4.77276e-05 -5.65936e-06 -5.59725e-07 -7.49968e-06 -8.53651e-07 -3.44206e-09
2.57274e-06 -2.46782e-06 -5.20745e-07 -4.85153e-05 -5.77616e-06 -5.64421e-07 -1.02709e-05 -1.19055e-06 -6.15292e-09
6.13571e-06 -1.82546e-06 -4.85911e-07 -4.84768e-05 -5.81022e-06 -5.65947e-07 -1.35781e-05 -1.59076e-06 -9.37946e-09
9.32348e-06 -1.18543e-06 -4.50805e-07 -4.7533e-05 -5.75205e-06 -5.63928e-07 -1.7407e-05 -2.05206e-06 -1.31014e-08
1.20464e-05 -5.60471e-07 -4.16135e-07 -4.56442e-05 -5.59635e-06 -5.58152e-07 -2.17103e-05 -2.569e-06 -1.72774e-08
1.43278e-05 4.74213e-08 -3.82097e-07 -4.28021e-05 -5.3418e-06 -5.48575e-07 -2.64121e-05 -3.13262e-06 -2.18346e-08
1.60924e-05 6.31911e-07 -3.4899e-07 -3.90391e-05 -4.99086e-06 -5.35296e-07 -3.14171e-05 -3.73142e-06 -2.66789e-08
1.64665e-05 1.26051e-06 -3.1675e-07 -3.44672e-05 -4.55299e-06 -5.18635e-07 -3.65905e-05 -4.34941e-06 -3.16848e-08
1.64873e-05 1.86556e-06 -2.85457e-07 -2.91952e-05 -4.03734e-06 -4.98937e-07 -4.17978e-05 -4.96993e-06 -3.67127e-08
1.62122e-05 2.44917e-06 -2.55042e-07 -2.33581e-05 -3.45544e-06 -4.7654e-07 -4.68708e-05 -5.57283e-06 -4.15947e-08
1.56912e-05 3.01249e-06 -2.25522e-07 -1.71143e-05 -2.824e-06 -4.52203e-07 -5.16447e-05 -6.13909e-06 -4.61863e-08
1.50075e-05 3.55385e-06 -1.97026e-07 -1.06346e-05 -2.15783e-06 -4.26456e-07 -5.59469e-05 -6.64789e-06 -5.03148e-08
1.42215e-05 4.067e-06 -1.69905e-07 -4.08227e-06 -1.47212e-06 -3.99892e-07 -5.96119e-05 -7.07929e-06 -5.3818e-08
1.335e-05 4.54093e-06 -1.44757e-07 2.39007e-06 -7.81553e-07 -3.73063e-07 -6.24785e-05 -7.41404e-06 -5.65399e-08
1.23998e-05 4.96209e-06 -1.22295e-07 8.64141e-06 -1.00259e-07 -3.46509e-07 -6.43964e-05 -7.63429e-06 -5.83375e-08
1.14009e-05 5.32001e-06 -1.03079e-07 1.45499e-05 5.59428e-07 -3.20726e-07 -6.52291e-05 -7.72387e-06 -5.90805e-08
1.0418e-05 5.61465e-06 -8.71657e-08 1.90519e-05 1.24987e-06 -2.96228e-07 -6.48317e-05 -7.66606e-06 -5.86405e-08
9.55971e-06 5.85668e-06 -7.40724e-08 2.28974e-05 1.88248e-06 -2.73708e-07 -6.31571e-05 -7.45417e-06 -5.6948e-08
9.00219e-06 6.06936e-06 -6.27056e-08 2.59874e-05 2.43934e-06 -2.53801e-07 -6.01144e-05 -7.07817e-06 -5.39282e-08
8.94418e-06 6.28725e-06 -5.14194e-08 2.82145e-05 2.90352e-06 -2.37093e-07 -5.56601e-05 -6.53322e-06 -4.95424e-08
9.91618e-06 6.63535e-06 -3.41306e-08 2.95965e-05 3.33289e-06 -2.21433e-07 -4.81149e-05 -5.61522e-06 -4.21416e-08
1.24779e-05 7.15969e-06 -8.83124e-09 2.92635e-05 3.57951e-06 -2.12124e-07 -3.84679e-05 -4.44543e-06 -3.2695e-08
1.69954e-05 7.95333e-06 2.90399e-08 2.72287e-05 3.64157e-06 -2.09229e-07 -2.69166e-05 -3.04808e-06 -2.13987e-08
2.36394e-05 9.08479e-06 8.28991e-08 2.36865e-05 3.53904e-06 -2.12051e-07 -1.37787e-05 -1.46145e-06 -8.56406e-09
3.23433e-05 1.05857e-05 1.54419e-07 1.90031e-05 3.31721e-06 -2.18998e-07 -2.81176e-07 3.86925e-07 5.5321e-09
4.27741e-05 1.24439e-05 2.43213e-07 1.37172e-05 3.04412e-06 -2.27713e-07 1.25077e-05 2.49344e-06 2.03087e-08
5.43296e-05 1.46009e-05 3.46648e-07 8.55767e-06 2.80559e-06 -2.35175e-07 2.52396e-05 4.60077e-06 3.51013e-08
6.61982e-05 1.69563e-05 4.60099e-07 4.35973e-06 2.69978e-06 -2.37949e-07 3.75032e-05 6.63028e-06 4.93444e-08
7.75107e-05 1.93931e-05 5.78118e-07 1.92217e-06 2.82518e-06 -2.32585e-07 4.87998e-05 8.50148e-06 6.24572e-08
8.75275e-05 2.18119e-05 6.96074e-07 1.91953e-06 3.26509e-06 -2.16168e-07 5.86999e-05 1.01505e-05 7.40001e-08
9.57635e-05 2.41506e-05 8.11106e-07 4.83395e-06 4.07709e-06 -1.8668e-07 6.6896e-05 1.15319e-05 8.36493e-08
0.000101997 2.63832e-05 9.22044e-07 1.0901e-05 5.29033e-06 -1.43103e-07 7.32783e-05 1.26238e-05 9.12488e-08
0.000106221 2.85086e-05 1.02885e-06 2.01122e-05 6.90589e-06 -8.54048e-08 7.7871e-05 1.34279e-05 9.68076e-08
0.000108594 3.05403e-05 1.1321e-06 3.22562e-05 8.89872e-06 -1.44636e-08 8.08214e-05 1.39692e-05 1.00503e-07
0.000109371 3.24933e-05 1.23242e-06 4.69544e-05 1.12219e-05 6.80775e-08 8.23981e-05 1.42936e-05 1.02664e-07
0.000108822 3.43707e-05 1.32977e-06 6.36973e-05 1.3813e-05 1.60033e-07 8.29968e-05 1.44641e-05 1.03732e-07
0.000107218 3.61637e-05 1.4235e-06 8.18769e-05 1.65975e-05 2.5879e-07 8.31007e-05 1.45568e-05 1.04244e-07
0.000104898 3.78671e-05 1.51311e-06 0.000100801 1.94891e-05 3.61332e-07 8.32413e-05 1.4657e-05 1.048e-07
0.000102305 3.94936e-05 1.59894e-06 0.000119703 2.23921e-05 4.64309e-07 8.3967e-05 1.48545e-05 1.06035e-07
9.99664e-05 4.10725e-05 1.68213e-06 0.000137779 2.52077e-05 5.64254e-07 8.58222e-05 1.52368e-05 1.08569e-07
9.83915e-05 4.26356e-05 1.76399e-06 0.000154271 2.78422e-05 6.57885e-07 8.93067e-05 1.58836e-05 1.12964e-07
9.79551e-05 4.41973e-05 1.84497e-06 0.000168554 3.0217e-05 7.42448e-07 9.48277e-05 1.68593e-05 1.19676e-07
9.88224e-05 4.57426e-05 1.92419e-06 0.000180186 3.22751e-05 8.15939e-07 0.000102664 1.82092e-05 1.29023e-07
0.000101005 4.72408e-05 2.00003e-06 0.000188908 3.39804e-05 8.77095e-07 0.000112958 1.99565e-05 1.41172e-07
0.000104439 4.86628e-05 2.07103e-06 0.000194614 3.53158e-05 9.25306e-07 0.00012572 2.21019e-05 1.56126e-07
0.000109011 4.99864e-05 2.13612e-06 0.000197342 3.62819e-05 9.60589e-07 0.000140818 2.46235e-05 1.73731e-07
0.000114567 5.11977e-05 2.1947e-06 0.000197272 3.68961e-05 9.83541e-07 0.000157987 2.74777e-05 1.93683e-07
0.000120924 5.22918e-05 2.24664e-06 0.000194712 3.71907e-05 9.95278e-07 0.000176839 3.06015e-05 2.15539e-07
0.00012788 5.32729e-05 2.2923e-06 0.000190072 3.72104e-05 9.97355e-07 0.000196882 3.39153e-05 2.38737e-07
0.000135221 5.41523e-05 2.33243e-06 0.000183845 3.70104e-05 9.91682e-07 0.00021755 3.73263e-05 2.62628e-07
0.000142708 5.4944e-05 2.36791e-06 0.000176587 3.66532e-05 9.8044e-07 0.000238218 4.0733e-05 2.86497e-07
0.000150091 5.56635e-05 2.39974e-06 0.000168891 3.62059e-05 9.6596e-07 0.000258238 4.403e-05 3.09603e-07
0.000157147 5.63318e-05 2.42914e-06 0.000161345 3.5735e-05 9.50559e-07 0.000276964 4.71129e-05 3.31211e-07
0.000163719 5.69797e-05 2.45785e-06 0.00015449 3.53023e-05 9.36387e-07 0.000293795 4.98835e-05 3.50631e-07
0.000169719 5.76473e-05 2.48799e-06 0.000148795 3.49617e-05 9.25322e-07 0.000308189 5.22539e-05 3.67246e-07
0.000175094 5.83732e-05 2.5216e-06 0.000144656 3.47592e-05 9.18961e-07 0.000319691 5.41502e-05 3.80537e-07
0.000179738 5.91756e-05 2.55971e-06 0.000142411 3.47345e-05 9.18687e-07 0.000327943 5.55145e-05 3.90095e-07
0.000183417 6.00349e-05 2.60146e-06 0.000142354 3.49224e-05 9.25713e-07 0.000332701 5.63071e-05 3.95642e-07
0.000185786 6.08946e-05 2.64417e-06 0.000144716 3.535e-05 9.4099e-07 0.000333844 5.65089e-05 3.97041e-07
0.000186484 6.16784e-05 2.68414e-06 0.000149613 3.60308e-05 9.64994e-07 0.000331398 5.61241e-05 3.94319e-07
0.000185639 6.21974e-05 2.71154e-06 0.000155327 3.67547e-05 9.90378e-07 0.000326968 5.54124e-05 3.89304e-07
0.00018269 6.26522e-05 2.7371e-06 0.000164531 3.78624e-05 1.02909e-06 0.000318605 5.4061e-05 3.7979e-07
0.000177639 6.28425e-05 2.75049e-06 0.000175641 3.91504e-05 1.07398e-06 0.000307524 5.22648e-05 3.67149e-07
0.000170655 6.27346e-05 2.74985e-06 0.000188077 4.05498e-05 1.12266e-06 0.000294296 5.01163e-05 3.52034e-07
0.000162011 6.23044e-05 2.73376e-06 0.000201121 4.19758e-05 1.17214e-06 0.000279583 4.77227e-05 3.35198e-07
0.000152023 6.1528e-05 2.70074e-06 0.000213978 4.33335e-05 1.21913e-06 0.000264105 4.52001e-05 3.1746e-07
0.000141033 6.0383e-05 2.64939e-06 0.000225818 4.4523e-05 1.26014e-06 0.000248596 4.26674e-05 2.99658e-07
0.000129389 5.88491e-05 2.57842e-06 0.000235818 4.54446e-05 1.29166e-06 0.000233771 4.02399e-05 2.82602e-07
0.000117411 5.69058e-05 2.48652e-06 0.000243202 4.60043e-05 1.31043e-06 0.000220277 3.80222e-05 2.67032e-07
0.000105387 5.45363e-05 2.37263e-06 0.000247287 4.61181e-05 1.31351e-06 0.000208667 3.61036e-05 2.53574e-07
9.3569e-05 5.17297e-05 2.236e-06 0.000247509 4.57158e-05 1.29843e-06 0.000199366 3.45524e-05 2.42712e-07
8.21472e-05 4.848e-05 2.07616e-06 0.000243455 4.47444e-05 1.26333e-06 0.000192645 3.3412e-05 2.34751e-07
7.12697e-05 4.47913e-05 1.89323e-06 0.000234872 4.31702e-05 1.20703e-06 0.000188605 3.26985e-05 2.29807e-07
6.1102e-05 4.06918e-05 1.68853e-06 0.000221665 4.09767e-05 1.12895e-06 0.000187175 3.23997e-05 2.27795e-07
5.18859e-05 3.6247e-05 1.46528e-06 0.000203872 3.81641e-05 1.02907e-06 0.000188112 3.24755e-05 2.28435e-07
4.38989e-05 3.1552e-05 1.22822e-06 0.000181681 3.4751e-05 9.0804e-07 0.000190998 3.28576e-05 2.3125e-07
3.73169e-05 2.67041e-05 9.82249e-07 0.000155478 3.07811e-05 7.67357e-07 0.000195248 3.34506e-05 2.35572e-07
3.2163e-05 2.17895e-05 7.31808e-07 0.000125873 2.63234e-05 6.09427e-07 0.000200129 3.4135e-05 2.40562e-07
2.83453e-05 1.68883e-05 4.81107e-07 9.36532e-05 2.14687e-05 4.3742e-07 0.000204788 3.47728e-05 2.45249e-07
2.56883e-05 1.2077e-05 2.34234e-07 5.97362e-05 1.63257e-05 2.55124e-07 0.000208294 3.52129e-05 2.4857e-07
2.39438e-05 7.42623e-06 -4.98685e-09 2.51303e-05 1.10159e-05 6.67857e-08 0.000209683 3.52991e-05 2.49427e-07
2.27856e-05 2.99362e-06 -2.33333e-07 -9.09453e-06 5.66928e-06 -1.2305e-07 0.000208002 3.48776e-05 2.46736e-07
1.81671e-05 -9.01391e-07 -4.48067e-07 -4.17778e-05 4.27156e-07 -3.09515e-07 0.000202347 3.38028e-05 2.39474e-07
1.09058e-05 -4.35073e-06 -6.47008e-07 -7.43251e-05 -4.35603e-06 -4.8715e-07 0.000192084 3.19656e-05 2.26823e-07
3.16968e-06 -7.60099e-06 -8.33013e-07 -0.000107205 -8.49049e-06 -6.50894e-07 0.000176408 2.92522e-05 2.08069e-07
-5.51293e-06 -1.06786e-05 -1.0076e-06 -0.000135278 -1.22106e-05 -7.99069e-07 0.000155004 2.56002e-05 1.82711e-07
-1.55903e-05 -1.35862e-05 -1.17067e-06 -0.000157844 -1.54548e-05 -9.2922e-07 0.000127711 2.09836e-05 1.50551e-07
-2.68399e-05 -1.6299e-05 -1.32077e-06 -0.000174896 -1.81901e-05 -1.04024e-06 9.4562e-05 1.54176e-05 1.11732e-07
-3.89814e-05 -1.87791e-05 -1.45593e-06 -0.000186572 -2.04149e-05 -1.13194e-06 5.5913e-05 8.95921e-06 6.66391e-08
-5.18102e-05 -2.10037e-05 -1.5751e-06 -0.000193066 -2.21552e-05 -1.20526e-06 1.24475e-05 1.71504e-06 1.60166e-08
-6.5161e-05 -2.29914e-05 -1.67952e-06 -0.000194828 -2.34446e-05 -1.2614e-06 -4.15231e-05 -5.17948e-06 -3.84134e-08
-7.90547e-05 -2.47946e-05 -1.77231e-06 -0.000192636 -2.43362e-05 -1.30235e-06 -0.000100659 -1.23333e-05 -9.61497e-08
-9.35811e-05 -2.64843e-05 -1.85765e-06 -0.000187209 -2.48956e-05 -1.33051e-06 -0.000161929 -1.97477e-05 -1.56057e-07
-0.000108733 -2.81326e-05 -1.93984e-06 -0.000179408 -2.52042e-05 -1.34895e-06 -0.00022379 -2.72385e-05 -2.16615e-07
-0.000124485 -2.98127e-05 -2.02331e-06 -0.000170307 -2.53516e-05 -1.36103e-06 -0.000284743 -3.4621e-05 -2.7631e-07
-0.000140838 -3.16034e-05 -2.11279e-06 -0.000161017 -2.54316e-05 -1.37024e-06 -0.000343362 -4.17119e-05 -3.33636e-07
-0.000157793 -3.35862e-05 -2.21314e-06 -0.000152571 -2.55407e-05 -1.38022e-06 -0.000398024 -4.83242e-05 -3.87083e-07
-0.000175337 -3.58361e-05 -2.32888e-06 -0.000145986 -2.57726e-05 -1.39451e-06 -0.000447253 -5.42865e-05 -4.35298e-07
-0.000193379 -3.841e-05 -2.46354e-06 -0.000142266 -2.62165e-05 -1.41644e-06 -0.000489789 -5.94467e-05 -4.77037e-07
-0.000211662 -4.13309e-05 -2.61877e-06 -0.000142333 -2.69567e-05 -1.44922e-06 -0.000524626 -6.36779e-05 -5.11253e-07
-0.000229705 -4.45749e-05 -2.79364e-06 -0.00014699 -2.80705e-05 -1.49577e-06 -0.000550928 -6.68811e-05 -5.37148e-07
-0.000246846 -4.80734e-05 -2.98476e-06 -0.000156914 -2.96223e-05 -1.55855e-06 -0.000568127 -6.89915e-05 -5.54201e-07
-0.000262383 -5.17333e-05 -3.1873e-06 -0.000172558 -3.16542e-05 -1.63916e-06 -0.000576012 -6.99855e-05 -5.6222e-07
-0.000275746 -5.54595e-05 -3.39616e-06 -0.000194032 -3.41779e-05 -1.73808e-06 -0.000574772 -6.98828e-05 -5.61356e-07
-0.000286582 -5.91675e-05 -3.60665e-06 -0.00022106 -3.71709e-05 -1.85447e-06 -0.000564943 -6.87471e-05 -5.52118e-07
-0.000294801 -6.27913e-05 -3.81492e-06 -0.000252987 -4.05739e-05 -1.98608e-06 -0.000547397 -6.6684e-05 -5.35365e-07
-0.000300563 -6.62839e-05 -4.01799e-06 -0.000288816 -4.4294e-05 -2.12942e-06 -0.000523326 -6.38374e-05 -5.12264e-07
-0.000304239 -6.96146e-05 -4.21361e-06 -0.000327245 -4.82105e-05 -2.27992e-06 -0.000494198 -6.03822e-05 -4.84231e-07
-0.000306372 -7.27678e-05 -4.40028e-06 -0.000366749 -5.21821e-05 -2.43222e-06 -0.000461672 -5.65157e-05 -4.52865e-07
-0.000307591 -7.57355e-05 -4.57683e-06 -0.000405694 -5.60561e-05 -2.58053e-06 -0.000427499 -5.24475e-05 -4.19865e-07
-0.000308504 -7.85071e-05 -4.74199e-06 -0.000442449 -5.96801e-05 -2.71909e-06 -0.000393434 -4.83882e-05 -3.86942e-07
-0.000309631 -8.10638e-05 -4.89406e-06 -0.000475488 -6.29119e-05 -2.84249e-06 -0.000361164 -4.45394e-05 -3.55733e-07
-0.000311399 -8.33832e-05 -5.03125e-06 -0.000503463 -6.56259e-05 -2.94599e-06 -0.000332221 -4.10841e-05 -3.27718e-07
-0.000314137 -8.54433e-05 -5.15188e-06 -0.000525269 -6.77201e-05 -3.02571e-06 -0.000307909 -3.81779e-05 -3.04163e-07
-0.000318505 -8.67577e-05 -5.23665e-06 -0.00053957 -6.90768e-05 -3.07779e-06 -0.000289355 -3.5955e-05 -2.86132e-07
-0.000317314 -8.68468e-05 -5.27575e-06 -0.000541864 -6.92981e-05 -3.09112e-06 -0.000278503 -3.46251e-05 -2.74955e-07
-0.000315268 -8.69115e-05 -5.30249e-06 -0.000537198 -6.88503e-05 -3.07964e-06 -0.000273833 -3.40423e-05 -2.69808e-07
-0.000322833 -8.70543e-05 -5.31994e-06 -0.000528858 -6.79652e-05 -3.04644e-06 -0.000274638 -3.41404e-05 -2.70643e-07
-0.000330533 -8.71771e-05 -5.32818e-06 -0.000514272 -6.64899e-05 -2.99058e-06 -0.000281612 -3.49469e-05 -2.77132e-07
-0.000335684 -8.70637e-05 -5.30847e-06 -0.000494051 -6.44961e-05 -2.91641e-06 -0.000294055 -3.63959e-05 -2.88724e-07
-0.000332948 -8.51492e-05 -5.19243e-06 -0.000473869 -6.24708e-05 -2.84091e-06 -0.000309909 -3.82718e-05 -3.03683e-07
-0.00033141 -8.30176e-05 -5.0647e-06 -0.000450455 -6.0028e-05 -2.74639e-06 -0.000329366 -4.06081e-05 -3.2282e-07
-0.000327597 -8.06815e-05 -4.92311e-06 -0.000422769 -5.72746e-05 -2.64223e-06 -0.000351637 -4.32417e-05 -3.44005e-07
-0.000324407 -7.8167e-05 -4.77125e-06 -0.000393261 -5.43301e-05 -2.53015e-06 -0.00037529 -4.60415e-05 -3.66658e-07
-0.000321684 -7.55717e-05 -4.61445e-06 -0.000363347 -5.12853e-05 -2.41401e-06 -0.000399031 -4.88576e-05 -3.89433e-07
-0.00031826 -7.303e-05 -4.4603e-06 -0.000333461 -4.82295e-05 -2.29769e-06 -0.00042157 -5.15353e-05 -4.11078e-07
-0.000315311 -7.06055e-05 -4.31329e-06 -0.000304662 -4.52846e-05 -2.18535e-06 -0.00044167 -5.39188e-05 -4.30373e-07
-0.000312814 -6.83936e-05 -4.17911e-06 -0.000278195 -4.25417e-05 -2.08043e-06 -0.000458278 -5.58747e-05 -4.46191e-07
-0.000310456 -6.64851e-05 -4.06302e-06 -0.000255012 -4.0079e-05 -1.98606e-06 -0.000470337 -5.72848e-05 -4.57574e-07
-0.000308629 -6.49448e-05 -3.96909e-06 -0.000235826 -3.79802e-05 -1.90526e-06 -0.000476883 -5.80426e-05 -4.63713e-07
-0.000307414 -6.38303e-05 -3.90075e-06 -0.000221188 -3.63088e-05 -1.84047e-06 -0.000477339 -5.80732e-05 -4.63988e-07
-0.000306694 -6.31874e-05 -3.86064e-06 -0.000211619 -3.51061e-05 -1.79332e-06 -0.00047143 -5.73361e-05 -4.58036e-07
-0.0003066 -6.30355e-05 -3.85e-06 -0.000207457 -3.44019e-05 -1.7649e-06 -0.000459004 -5.58175e-05 -4.45754e-07
-0.000307131 -6.33775e-05 -3.86905e-06 -0.000208709 -3.42088e-05 -1.75572e-06 -0.000440142 -5.35335e-05 -4.27298e-07
-0.00030821 -6.41981e-05 -3.91691e-06 -0.000215218 -3.45198e-05 -1.76555e-06 -0.00041528 -5.05349e-05 -4.03074e-07
-0.000309475 -6.5415e-05 -3.98902e-06 -0.000226811 -3.53191e-05 -1.79381e-06 -0.000385135 -4.69037e-05 -3.73729e-07
-0.000308618 -6.66338e-05 -4.06289e-06 -0.000243673 -3.6639e-05 -1.84214e-06 -0.000350481 -4.27328e-05 -3.39982e-07
-0.000305471 -6.77682e-05 -4.13436e-06 -0.000265209 -3.8407e-05 -1.90751e-06 -0.000312486 -3.8167e-05 -3.03027e-07
-0.000300187 -6.87593e-05 -4.1995e-06 -0.000290258 -4.05294e-05 -1.98653e-06 -0.000272526 -3.33717e-05 -2.64198e-07
-0.00029307 -6.95741e-05 -4.25603e-06 -0.000317411 -4.28842e-05 -2.07456e-06 -0.000232168 -2.85316e-05 -2.25e-07
-0.000286419 -7.00841e-05 -4.29378e-06 -0.000339691 -4.48426e-05 -2.14796e-06 -0.000200713 -2.47595e-05 -1.94436e-07
-0.000279226 -7.04599e-05 -4.32408e-06 -0.000361643 -4.67863e-05 -2.22091e-06 -0.000170905 -2.11856e-05 -1.6547e-07
-0.00027176 -7.06951e-05 -4.34623e-06 -0.000382466 -4.86416e-05 -2.29065e-06 -0.00014354 -1.79066e-05 -1.38888e-07
-0.000264287 -7.07821e-05 -4.3595e-06 -0.00040139 -5.03384e-05 -2.3545e-06 -0.000119371 -1.50123e-05 -1.15425e-07
-0.000257048 -7.07132e-05 -4.36318e-06 -0.000417733 -5.18123e-05 -2.41001e-06 -9.90861e-05 -1.2584e-05 -9.57346e-08
-0.000250237 -7.04807e-05 -4.35659e-06 -0.000430917 -5.30061e-05 -2.455e-06 -8.32778e-05 -1.06912e-05 -8.03787e-08
-0.000243987 -7.0075e-05 -4.33901e-06 -0.00044047 -5.38732e-05 -2.48771e-06 -7.24027e-05 -9.38862e-06 -6.98012e-08
-0.00023835 -6.94805e-05 -4.30945e-06 -0.000446038 -5.43802e-05 -2.50685e-06 -6.67707e-05 -8.71414e-06 -6.43135e-08
-0.000233274 -6.86744e-05 -4.26659e-06 -0.000447416 -5.45072e-05 -2.51166e-06 -6.65497e-05 -8.68815e-06 -6.40832e-08
-0.000228608 -6.76271e-05 -4.20883e-06 -0.00044456 -5.42484e-05 -2.50191e-06 -7.17671e-05 -9.31343e-06 -6.91312e-08
-0.000224117 -6.63052e-05 -4.13439e-06 -0.000437573 -5.36107e-05 -2.47786e-06 -8.23042e-05 -1.05751e-05 -7.93339e-08
-0.000219544 -6.46786e-05 -4.04174e-06 -0.000426673 -5.26121e-05 -2.44017e-06 -9.78954e-05 -1.24414e-05 -9.44317e-08
-0.000214665 -6.27297e-05 -3.93009e-06 -0.000412154 -5.12782e-05 -2.3898e-06 -0.000118141 -1.48648e-05 -1.14042e-07
-0.000209332 -6.04591e-05 -3.7996e-06 -0.000394367 -4.96395e-05 -2.3279e-06 -0.000142531 -1.77845e-05 -1.37672e-07
-0.000203494 -5.78878e-05 -3.65162e-06 -0.000373706 -4.77303e-05 -2.25575e-06 -0.000170459 -2.11279e-05 -1.64734e-07
-0.000197183 -5.50543e-05 -3.48842e-06 -0.000350598 -4.55874e-05 -2.17472e-06 -0.00020124 -2.48124e-05 -1.94558e-07
-0.000190458 -5.20052e-05 -3.31273e-06 -0.000325512 -4.32516e-05 -2.08633e-06 -0.000234112 -2.87466e-05 -2.26405e-07
-0.000183351 -4.87863e-05 -3.12729e-06 -0.00029896 -4.0768e-05 -1.99228e-06 -0.000268258 -3.28324e-05 -2.59481e-07
-0.000175851 -4.54387e-05 -2.93455e-06 -0.000271501 -3.81856e-05 -1.89438e-06 -0.000302818 -3.69671e-05 -2.92955e-07
-0.000167915 -4.19988e-05 -2.73675e-06 -0.000243719 -3.55551e-05 -1.79456e-06 -0.00033692 -4.10461e-05 -3.25979e-07
-0.000159498 -3.85025e-05 -2.5361e-06 -0.000216193 -3.2927e-05 -1.69469e-06 -0.000369702 -4.49656e-05 -3.57713e-07
-0.000150565 -3.49859e-05 -2.33479e-06 -0.000189474 -3.03495e-05 -1.59658e-06 -0.000400326 -4.86253e-05 -3.87345e-07
-0.000141092 -3.1484e-05 -2.13496e-06 -0.000164071 -2.78671e-05 -1.5019e-06 -0.000428004 -5.19304e-05 -4.14107e-07
-0.000131056 -2.8028e-05 -1.93851e-06 -0.000140445 -2.552e-05 -1.41214e-06 -0.000452014 -5.47943e-05 -4.37299e-07
-0.000120433 -2.46444e-05 -1.74706e-06 -0.000118997 -2.33425e-05 -1.32858e-06 -0.000471718 -5.71403e-05 -4.56299e-07
-0.000109204 -2.13555e-05 -1.56195e-06 -0.000100054 -2.13622e-05 -1.25226e-06 -0.000486575 -5.89035e-05 -4.70584e-07
-9.73726e-05 -1.81802e-05 -1.38433e-06 -8.38544e-05 -1.95988e-05 -1.18388e-06 -0.000496158 -6.00323e-05 -4.79734e-07
-8.49691e-05 -1.51352e-05 -1.21516e-06 -7.05372e-05 -1.8063e-05 -1.12386e-06 -0.000500158 -6.04896e-05 -4.83451e-07
-7.20482e-05 -1.22342e-05 -1.05521e-06 -6.01438e-05 -1.67567e-05 -1.07224e-06 -0.000498393 -6.02532e-05 -4.81555e-07
-5.86903e-05 -9.48778e-06 -9.05027e-07 -5.26177e-05 -1.56731e-05 -1.02876e-06 -0.000490806 -5.93163e-05 -4.73991e-07
-4.49989e-05 -6.90369e-06 -7.64965e-07 -4.78074e-05 -1.47965e-05 -9.92807e-07 -0.000477468 -5.76871e-05 -4.60828e-07
-3.10954e-05 -4.48601e-06 -6.35136e-07 -4.54732e-05 -1.41036e-05 -9.63495e-07 -0.000458571 -5.53885e-05 -4.4225e-07
-1.71185e-05 -2.23601e-06 -5.15463e-07 -4.52955e-05 -1.3564e-05 -9.39672e-07 -0.000434417 -5.24566e-05 -4.1855e-07
-3.22496e-06 -1.52851e-07 -4.05715e-07 -4.68858e-05 -1.31413e-05 -9.19953e-07 -0.000405413 -4.894e-05 -3.90124e-07
6.66868e-06 1.58804e-06 -3.25127e-07 -4.95941e-05 -1.27607e-05 -9.00955e-07 -0.000372036 -4.48969e-05 -3.57471e-07
1.19613e-05 2.45606e-06 -2.87703e-07 -5.17373e-05 -1.22604e-05 -8.75508e-07 -0.000335178 -4.04396e-05 -3.21656e-07
1.83657e-05 3.22975e-06 -2.52632e-07 -5.39017e-05 -1.18035e-05 -8.54099e-07 -0.00029499 -3.55614e-05 -2.82185e-07
2.48938e-05 3.90866e-06 -2.2291e-07 -5.67039e-05 -1.13189e-05 -8.30205e-07 -0.000252061 -3.03625e-05 -2.40262e-07
3.04829e-05 4.5331e-06 -1.96253e-07 -5.98515e-05 -1.08069e-05 -8.0525e-07 -0.000207069 -2.49133e-05 -1.96262e-07
3.59253e-05 5.1185e-06 -1.71529e-07 -6.26173e-05 -1.02289e-05 -7.77473e-07 -0.000160606 -1.92883e-05 -1.50863e-07
4.1575e-05 5.70417e-06 -1.46368e-07 -6.44507e-05 -9.56142e-06 -7.46312e-07 -0.000113341 -1.35637e-05 -1.04664e-07
4.70096e-05 6.35206e-06 -1.17795e-07 -6.53039e-05 -8.78693e-06 -7.1095e-07 -6.59318e-05 -7.81739e-06 -5.82868e-08
5.21633e-05 7.11044e-06 -8.34516e-08 -6.51252e-05 -7.88443e-06 -6.70508e-07 -1.9018e-05 -2.12782e-06 -1.23722e-08
5.73538e-05 8.01238e-06 -4.14667e-08 -6.35817e-05 -6.83053e-06 -6.24226e-07 2.20754e-05 4.16538e-06 3.3113e-08
6.26473e-05 9.0931e-06 1.0019e-08 -6.03873e-05 -5.61541e-06 -5.71812e-07 5.98758e-05 1.04567e-05 7.70529e-08
6.78754e-05 1.0384e-05 7.25633e-08 -5.53082e-05 -4.22735e-06 -5.12697e-07 9.57742e-05 1.645e-05 1.18916e-07
7.30229e-05 1.19036e-05 1.47206e-07 -4.8202e-05 -2.6519e-06 -4.46086e-07 0.000129506 2.20865e-05 1.58276e-07
7.81513e-05 1.36571e-05 2.34235e-07 -4.13156e-05 -6.9638e-07 -3.71977e-07 0.000160784 2.73075e-05 1.94679e-07
8.31819e-05 1.56491e-05 3.33921e-07 -3.33452e-05 1.54045e-06 -2.90186e-07 0.000189266 3.20677e-05 2.27843e-07
8.80561e-05 1.78755e-05 4.4608e-07 -2.3467e-05 3.99018e-06 -2.00987e-07 0.000214663 3.63284e-05 2.57508e-07
9.27876e-05 2.03291e-05 5.70359e-07 -1.15087e-05 6.6411e-06 -1.04805e-07 0.000236857 4.00706e-05 2.83537e-07
9.7382e-05 2.30013e-05 7.06309e-07 2.47605e-06 9.47961e-06 -2.12111e-09 0.000255827 4.32849e-05 3.05853e-07
0.000101835 2.58816e-05 8.53348e-07 1.82445e-05 1.24895e-05 1.06466e-07 0.000271587 4.597e-05 3.24453e-07
0.000106171 2.89536e-05 1.0106e-06 3.55629e-05 1.56492e-05 2.20176e-07 0.000284204 4.81369e-05 3.39418e-07
0.000110414 3.21942e-05 1.17684e-06 5.42794e-05 1.89301e-05 3.38014e-07 0.000293811 4.98088e-05 3.50914e-07
0.000114559 3.55731e-05 1.35044e-06 7.42274e-05 2.23006e-05 4.58877e-07 0.000300601 5.1019e-05 3.59172e-07
0.000118578 3.90523e-05 1.52945e-06 9.51438e-05 2.57286e-05 5.81633e-07 0.000304819 5.18076e-05 3.64476e-07
0.000122444 4.2588e-05 1.71156e-06 0.000116703 2.91815e-05 7.05123e-07 0.000306759 5.22209e-05 3.67153e-07
0.000126126 4.61327e-05 1.89434e-06 0.000138592 3.26241e-05 8.28101e-07 0.000306757 5.23116e-05 3.67574e-07
0.000129585 4.96376e-05 2.07524e-06 0.000160524 3.60185e-05 9.49242e-07 0.000305173 5.21379e-05 3.66148e-07
0.000132785 5.30529e-05 2.25167e-06 0.000182203 3.93262e-05 1.0672e-06 0.000302376 5.17612e-05 3.63305e-07
0.000135695 5.63292e-05 2.42106e-06 0.000203297 4.25093e-05 1.18063e-06 0.000298738 5.12434e-05 3.59485e-07
0.000138297 5.94198e-05 2.58098e-06 0.000223462 4.55302e-05 1.28823e-06 0.00029464 5.06465e-05 3.55122e-07
0.000140588 6.22825e-05 2.72921e-06 0.000242372 4.83516e-05 1.38867e-06 0.000290463 5.00309e-05 3.50643e-07
0.000142575 6.48806e-05 2.86382e-06 0.000259729 5.0937e-05 1.48069e-06 0.000286569 4.94545e-05 3.46451e-07
0.00014429 6.71838e-05 2.98318e-06 0.000275248 5.3252e-05 1.56309e-06 0.000283279 4.89702e-05 3.4292e-07
0.000145781 6.917e-05 3.08608e-06 0.000288654 5.52653e-05 1.63478e-06 0.000280876 4.86248e-05 3.40378e-07
0.000147117 7.08253e-05 3.17172e-06 0.000299698 5.69488e-05 1.69477e-06 0.000279598 4.84573e-05 3.39103e-07
0.000148381 7.21451e-05 3.23977e-06 0.000308179 5.82787e-05 1.74224e-06 0.000279639 4.84986e-05 3.39309e-07
0.000149667 7.31322e-05 3.29028e-06 0.000313943 5.92364e-05 1.77656e-06 0.000281137 4.877e-05 3.41146e-07
0.000151061 7.37957e-05 3.32366e-06 0.000316892 5.98098e-05 1.7973e-06 0.000284158 4.92823e-05 3.44689e-07
0.000152637 7.41493e-05 3.34053e-06 0.000316985 5.99941e-05 1.8043e-06 0.000288697 5.00352e-05 3.49936e-07
0.000154465 7.421e-05 3.34178e-06 0.000314245 5.9792e-05 1.79767e-06 0.000294683 5.10174e-05 3.5681e-07
0.000156606 7.39963e-05 3.32852e-06 0.00030873 5.92099e-05 1.77767e-06 0.000301992 5.22081e-05 3.65159e-07
0.000159043 7.35416e-05 3.3024e-06 0.000300581 5.82643e-05 1.74489e-06 0.000310429 5.35749e-05 3.74757e-07
0.000161854 7.28839e-05 3.26538e-06 0.000290017 5.69805e-05 1.70021e-06 0.000319732 5.50756e-05 3.85305e-07
0.000165097 7.20639e-05 3.21957e-06 0.00027732 5.53912e-05 1.64476e-06 0.000329584 5.66591e-05 3.96448e-07
0.000168743 7.11244e-05 3.16716e-06 0.000262814 5.35354e-05 1.57991e-06 0.000339628 5.82671e-05 4.07775e-07
0.000172737 7.01064e-05 3.11032e-06 0.000246883 5.14586e-05 1.50725e-06 0.000349469 5.98359e-05 4.18837e-07
0.000177022 6.90473e-05 3.05106e-06 0.000229958 4.92119e-05 1.42854e-06 0.000358689 6.12975e-05 4.29157e-07
0.00018151 6.79822e-05 2.99131e-06 0.000212497 4.68502e-05 1.3457e-06 0.000366857 6.25825e-05 4.38248e-07
0.000186088 6.6946e-05 2.93298e-06 0.000194967 4.44303e-05 1.26072e-06 0.000373547 6.3622e-05 4.45624e-07
0.000190652 6.59733e-05 2.87794e-06 0.000177831 4.20088e-05 1.17555e-06 0.00037835 6.435e-05 4.50822e-07
0.000195113 6.50976e-05 2.82805e-06 0.000161538 3.96412e-05 1.09215e-06 0.000380888 6.47055e-05 4.53412e-07
0.000199385 6.43504e-05 2.78503e-06 0.000146508 3.73801e-05 1.01234e-06 0.000380826 6.46347e-05 4.53015e-07
0.000203382 6.37595e-05 2.7504e-06 0.000133123 3.52742e-05 9.3783e-07 0.000377884 6.40928e-05 4.49315e-07
0.000207028 6.33484e-05 2.72545e-06 0.000121718 3.33674e-05 8.70156e-07 0.000371848 6.30451e-05 4.42069e-07
0.000210261 6.31353e-05 2.71118e-06 0.000112571 3.16971e-05 8.10634e-07 0.000362577 6.14695e-05 4.31119e-07
0.000213038 6.31351e-05 2.70842e-06 0.000105895 3.02935e-05 7.60327e-07 0.000350008 5.93565e-05 4.16398e-07
0.000215342 6.336e-05 2.71781e-06 0.000101827 2.91786e-05 7.20014e-07 0.000334166 5.67107e-05 3.97935e-07
0.000217193 6.38203e-05 2.73987e-06 0.000100427 2.83655e-05 6.90169e-07 0.000315164 5.35507e-05 3.75862e-07
0.000218688 6.4514e-05 2.7737e-06 0.000101665 2.78596e-05 6.71082e-07 0.0002932 4.99093e-05 3.50404e-07
0.000219937 6.54122e-05 2.81347e-06 0.000105252 2.76594e-05 6.63972e-07 0.000268636 4.58353e-05 3.21801e-07
0.00022035 6.65744e-05 2.86956e-06 0.000111433 2.7737e-05 6.66008e-07 0.000241716 4.13879e-05 2.90593e-07
0.000220976 6.79434e-05 2.9371e-06 0.000119839 2.80939e-05 6.77585e-07 0.000212864 3.66361e-05 2.57301e-07
0.000220972 6.94402e-05 3.01359e-06 0.000130246 2.87229e-05 6.98342e-07 0.00018258 3.16491e-05 2.22345e-07
0.000220492 7.10656e-05 3.09877e-06 0.00014241 2.95809e-05 7.26592e-07 0.000151415 2.65222e-05 1.86465e-07
0.000220069 7.28321e-05 3.19103e-06 0.000155874 3.06275e-05 7.61708e-07 0.000120007 2.1352e-05 1.50239e-07
0.000219428 7.46809e-05 3.28743e-06 0.000170328 3.18257e-05 8.02195e-07 8.88866e-05 1.6238e-05 1.14405e-07
0.000218087 7.63705e-05 3.37783e-06 0.000185268 3.31407e-05 8.47275e-07 5.8678e-05 1.12805e-05 7.96345e-08
0.000215814 7.79658e-05 3.46321e-06 0.000200569 3.45558e-05 8.95989e-07 2.99302e-05 6.5696e-06 4.65881e-08
0.000213177 7.93752e-05 3.53946e-06 0.000215965 3.60393e-05 9.47139e-07 3.27497e-06 2.20291e-06 1.59474e-08
0.000209952 8.05412e-05 3.60344e-06 0.000231059 3.75484e-05 9.99243e-07 -2.23927e-05 -1.5191e-06 -1.16124e-08
0.000205742 8.14114e-05 3.65225e-06 0.000245401 3.90406e-05 1.05097e-06 -4.6543e-05 -4.42042e-06 -3.51214e-08
0.000200668 8.19252e-05 3.68282e-06 0.000258618 4.04722e-05 1.10069e-06 -6.64962e-05 -6.80856e-06 -5.44617e-08
0.000194912 8.20314e-05 3.69253e-06 0.000270411 4.18037e-05 1.14701e-06 -8.1671e-05 -8.61803e-06 -6.91057e-08
0.000188465 8.16865e-05 3.67939e-06 0.000280367 4.29845e-05 1.1882e-06 -9.15399e-05 -9.7932e-06 -7.86403e-08
0.000181294 8.0885e-05 3.64299e-06 0.000288057 4.39656e-05 1.22263e-06 -9.57397e-05 -1.02913e-05 -8.27237e-08
0.000173689 7.96301e-05 3.58341e-06 0.000293137 4.47056e-05 1.24883e-06 -9.4081e-05 -1.00849e-05 -8.11142e-08
0.000165961 7.79352e-05 3.50124e-06 0.000295344 4.51683e-05 1.26546e-06 -8.6474e-05 -9.16e-06 -7.3681e-08
0.00015825 7.58259e-05 3.39762e-06 0.00029446 4.53215e-05 1.27144e-06 -7.2897e-05 -7.5159e-06 -6.04235e-08
0.000150699 7.33338e-05 3.27402e-06 0.000290341 4.51414e-05 1.26592e-06 -5.34415e-05 -5.16742e-06 -4.14723e-08
0.000143527 7.04952e-05 3.13223e-06 0.000282932 4.46147e-05 1.2484e-06 -2.83487e-05 -2.14552e-06 -1.70823e-08
0.000136914 6.73546e-05 2.97444e-06 0.000272267 4.37406e-05 1.21886e-06 -1.14636e-06 1.99269e-06 1.28238e-08
0.000130987 6.39681e-05 2.80342e-06 0.000258417 4.25196e-05 1.17726e-06 2.88532e-05 6.9176e-06 4.73216e-08
0.00012587 6.03973e-05 2.62227e-06 0.000241617 4.0967e-05 1.12414e-06 6.2255e-05 1.24063e-05 8.57968e-08
0.000121672 5.6706e-05 2.43423e-06 0.000222178 3.91069e-05 1.0603e-06 9.8498e-05 1.83522e-05 1.27477e-07
0.000118419 5.2953e-05 2.24233e-06 0.000200474 3.6976e-05 9.86993e-07 0.000136888 2.46357e-05 1.71525e-07
0.000116043 4.91892e-05 2.04925e-06 0.000176964 3.46214e-05 9.05842e-07 0.000176589 3.11256e-05 2.1703e-07
0.000114424 4.54591e-05 1.85736e-06 0.0001522 3.20983e-05 8.1875e-07 0.000216696 3.76823e-05 2.63021e-07
0.0001134 4.18021e-05 1.66882e-06 0.000126802 2.94679e-05 7.27833e-07 0.000256317 4.41615e-05 3.08486e-07
0.000112766 3.82515e-05 1.48552e-06 0.000101406 2.67961e-05 6.35369e-07 0.000294588 5.04177e-05 3.52395e-07
0.000112281 3.48342e-05 1.309e-06 7.66473e-05 2.4151e-05 5.43712e-07 0.000330662 5.63078e-05 3.9374e-07
0.000111699 3.1572e-05 1.14058e-06 5.31468e-05 2.15995e-05 4.55181e-07 0.0003637 6.1695e-05 4.31559e-07
0.000110788 2.84844e-05 9.81427e-07 3.14973e-05 1.9204e-05 3.7194e-07 0.000392905 6.64531e-05 4.6497e-07
0.000109345 2.55905e-05 8.32677e-07 1.223e-05 1.70201e-05 2.95914e-07 0.000417567 7.04691e-05 4.9318e-07
0.000107206 2.29076e-05 6.95349e-07 -4.21303e-06 1.50945e-05 2.28728e-07 0.0004371 7.36466e-05 5.15511e-07
0.000104235 2.04486e-05 5.70204e-07 -1.74871e-05 1.34647e-05 1.7167e-07 0.00045104 7.59078e-05 5.31414e-07
0.000100321 1.82189e-05 4.57608e-07 -2.73433e-05 1.21571e-05 1.25662e-07 0.000459045 7.71955e-05 5.40485e-07
9.5377e-05 1.62165e-05 3.57522e-07 -3.36323e-05 1.11865e-05 9.12113e-08 0.000460895 7.74745e-05 5.42478e-07
8.93531e-05 1.44335e-05 2.69563e-07 -3.6317e-05 1.05549e-05 6.83887e-08 0.000456505 7.67327e-05 5.37309e-07
8.2239e-05 1.28564e-05 1.9305e-07 -3.54807e-05 1.02517e-05 5.68187e-08 0.00044594 7.4981e-05 5.25054e-07
7.40652e-05 1.14669e-05 1.27015e-07 -3.13253e-05 1.02535e-05 5.5688e-08 0.000429412 7.22527e-05 5.05948e-07
6.48993e-05 1.02419e-05 7.02139e-08 -2.41604e-05 1.0525e-05 6.37671e-08 0.000407267 6.86027e-05 4.80376e-07
5.48406e-05 9.15309e-06 2.11189e-08 -1.43899e-05 1.10202e-05 7.94502e-08 0.000379967 6.41058e-05 4.48862e-07
4.40084e-05 8.16653e-06 -2.21165e-08 -2.50038e-06 1.16838e-05 1.00818e-07 0.000348075 5.88542e-05 4.12057e-07
3.25324e-05 7.24189e-06 -6.16701e-08 1.0954e-05 1.24536e-05 1.25703e-07 0.000312247 5.29548e-05 3.70713e-07
2.05444e-05 6.33269e-06 -1.00042e-07 2.53695e-05 1.32623e-05 1.51761e-07 0.000273215 4.65265e-05 3.25664e-07
8.17362e-06 5.38745e-06 -1.3999e-07 4.01117e-05 1.40391e-05 1.76539e-07 0.000231764 3.96966e-05 2.77806e-07
-9.49417e-07 5.11361e-06 -1.40267e-07 5.36997e-05 1.4561e-05 1.91207e-07 0.000188841 3.26201e-05 2.28284e-07
-8.22058e-06 4.95966e-06 -1.40599e-07 6.55111e-05 1.48674e-05 1.97884e-07 0.000145141 2.54214e-05 1.78072e-07
-1.63446e-05 4.66983e-06 -1.47356e-07 7.54752e-05 1.49664e-05 1.98606e-07 0.000101482 1.81865e-05 1.2735e-07
-2.41256e-05 4.16619e-06 -1.65191e-07 8.40595e-05 1.47839e-05 1.88636e-07 5.83828e-05 1.10613e-05 7.75796e-08
-3.12829e-05 3.40524e-06 -1.96346e-07 9.06041e-05 1.42978e-05 1.68265e-07 1.65904e-05 4.13597e-06 2.912e-08
-3.83472e-05 2.37468e-06 -2.41954e-07 9.43093e-05 1.34597e-05 1.35421e-07 -2.65251e-05 -1.99403e-06 -1.67907e-08
-4.51727e-05 1.05874e-06 -3.0297e-07 9.46843e-05 1.2246e-05 8.95726e-08 -7.0271e-05 -7.29616e-06 -5.95306e-08
-5.13545e-05 -5.22952e-07 -3.78821e-07 9.17896e-05 1.06301e-05 2.95371e-08 -0.000110705 -1.22008e-05 -9.90541e-08
-5.69362e-05 -2.32641e-06 -4.68797e-07 8.58018e-05 8.61177e-06 -4.47338e-08 -0.000147304 -1.66527e-05 -1.34916e-07
-6.43005e-05 -4.22208e-06 -5.73953e-07 7.6392e-05 6.16949e-06 -1.33766e-07 -0.000179676 -2.06083e-05 -1.66806e-07
-7.15261e-05 -6.34665e-06 -6.938e-07 6.33328e-05 3.30759e-06 -2.37398e-07 -0.000207715 -2.40466e-05 -1.94496e-07
-7.84571e-05 -8.68425e-06 -8.2734e-07 4.22924e-05 4.17802e-07 -3.53981e-07 -0.000231263 -2.69474e-05 -2.17865e-07
-8.49519e-05 -1.12244e-05 -9.73742e-07 1.74542e-05 -2.80537e-06 -4.82753e-07 -0.00025061 -2.9338e-05 -2.37039e-07
-9.10128e-05 -1.39397e-05 -1.13148e-06 -1.05515e-05 -6.32645e-06 -6.22457e-07 -0.000265728 -3.12246e-05 -2.52135e-07
-9.6753e-05 -1.67976e-05 -1.29854e-06 -4.12783e-05 -1.01117e-05 -7.72166e-07 -0.000276919 -3.26456e-05 -2.63486e-07
-0.000102099 -1.97623e-05 -1.47282e-06 -7.43955e-05 -1.41042e-05 -9.29555e-07 -0.000284647 -3.36526e-05 -2.71496e-07
-0.000107003 -2.27931e-05 -1.65173e-06 -0.000109404 -1.82453e-05 -1.09246e-06 -0.000289453 -3.43054e-05 -2.76621e-07
-0.000111427 -2.58361e-05 -1.83199e-06 -0.00014563 -2.24768e-05 -1.25864e-06 -0.00029186 -3.46676e-05 -2.79387e-07
-0.000115171 -2.88101e-05 -2.00864e-06 -0.00018239 -2.67435e-05 -1.42606e-06 -0.000292406 -3.48057e-05 -2.80343e-07
-0.000118385 -3.16906e-05 -2.18026e-06 -0.000218972 -3.09696e-05 -1.59174e-06 -0.000291733 -3.47972e-05 -2.80123e-07
-0.000121265 -3.44575e-05 -2.34533e-06 -0.000254659 -3.50782e-05 -1.75277e-06 -0.000290521 -3.47219e-05 -2.79366e-07
-0.000124059 -3.71012e-05 -2.50301e-06 -0.000288678 -3.89927e-05 -1.90622e-06 -0.000289432 -3.4657e-05 -2.78692e-07
-0.00012707 -3.96202e-05 -2.65289e-06 -0.000320236 -4.264e-05 -2.04929e-06 -0.000289075 -3.46752e-05 -2.78697e-07
-0.000130592 -4.20175e-05 -2.79484e-06 -0.000348616 -4.59525e-05 -2.17941e-06 -0.000289994 -3.48419e-05 -2.79916e-07
-0.000134875 -4.42963e-05 -2.92877e-06 -0.000373237 -4.88713e-05 -2.2943e-06 -0.000292665 -3.52141e-05 -2.82812e-07
-0.000140109 -4.64573e-05 -3.05454e-06 -0.00039365 -5.13488e-05 -2.39215e-06 -0.000297468 -3.58367e-05 -2.8775e-07
-0.000145341 -4.8391e-05 -3.16786e-06 -0.000409813 -5.33781e-05 -2.47239e-06 -0.000304619 -3.67368e-05 -2.94964e-07
-0.000150414 -4.99129e-05 -3.2538e-06 -0.0004218 -5.49782e-05 -2.53629e-06 -0.000314145 -3.79167e-05 -3.0447e-07
-0.00015568 -5.1222e-05 -3.32684e-06 -0.000429229 -5.6092e-05 -2.5818e-06 -0.0003263 -3.94003e-05 -3.16345e-07
-0.000161254 -5.22933e-05 -3.38418e-06 -0.000432061 -5.67136e-05 -2.60807e-06 -0.000340932 -4.11818e-05 -3.30723e-07
-0.00016729 -5.31229e-05 -3.42631e-06 -0.000430377 -5.68721e-05 -2.61665e-06 -0.000357806 -4.32248e-05 -3.47185e-07
-0.000173615 -5.37168e-05 -3.45368e-06 -0.000424468 -5.65853e-05 -2.60789e-06 -0.000376651 -4.55003e-05 -3.65577e-07
-0.000180029 -5.40884e-05 -3.46709e-06 -0.000414732 -5.58852e-05 -2.58321e-06 -0.000397106 -4.79602e-05 -3.85443e-07
-0.000186518 -5.4255e-05 -3.46777e-06 -0.000401656 -5.48128e-05 -2.54406e-06 -0.00041867 -5.05476e-05 -4.06352e-07
-0.000193108 -5.42377e-05 -3.45721e-06 -0.000385695 -5.34168e-05 -2.49231e-06 -0.000440758 -5.31945e-05 -4.27755e-07
-0.000199675 -5.40709e-05 -3.43759e-06 -0.000367354 -5.17502e-05 -2.42999e-06 -0.000462755 -5.58274e-05 -4.4906e-07
-0.000206153 -5.37917e-05 -3.41122e-06 -0.000347257 -4.98711e-05 -2.35933e-06 -0.000484031 -5.83693e-05 -4.69635e-07
-0.000212552 -5.34369e-05 -3.3804e-06 -0.000326098 -4.78419e-05 -2.28266e-06 -0.000503929 -6.07408e-05 -4.88832e-07
-0.000218833 -5.30453e-05 -3.34756e-06 -0.000304544 -4.57261e-05 -2.20238e-06 -0.000521776 -6.28623e-05 -5.0601e-07
-0.00022492 -5.26562e-05 -3.31512e-06 -0.000283222 -4.35873e-05 -2.12093e-06 -0.000536913 -6.46562e-05 -5.20543e-07
-0.000230764 -5.23061e-05 -3.28538e-06 -0.000262754 -4.14876e-05 -2.04066e-06 -0.000548732 -6.60505e-05 -5.31851e-07
-0.000236335 -5.20283e-05 -3.26044e-06 -0.00024375 -3.94855e-05 -1.96381e-06 -0.000556701 -6.69809e-05 -5.39411e-07
-0.000241587 -5.18536e-05 -3.24223e-06 -0.000226765 -3.76345e-05 -1.89239e-06 -0.000560367 -6.73928e-05 -5.42778e-07
-0.000246477 -5.18094e-05 -3.23245e-06 -0.000212268 -3.59819e-05 -1.82822e-06 -0.000559362 -6.72427e-05 -5.41597e-07
-0.000250976 -5.19173e-05 -3.23246e-06 -0.000200642 -3.45682e-05 -1.77286e-06 -0.000553417 -6.64991e-05 -5.35618e-07
-0.00025505 -5.21915e-05 -3.2432e-06 -0.000192194 -3.3426e-05 -1.72755e-06 -0.000542381 -6.5145e-05 -5.24703e-07
-0.000258652 -5.26382e-05 -3.26508e-06 -0.000187142 -3.25792e-05 -1.69323e-06 -0.000526237 -6.31781e-05 -5.08833e-07
-0.000261733 -5.3256e-05 -3.29811e-06 -0.000185609 -3.20427e-05 -1.67047e-06 -0.000505093 -6.06116e-05 -4.88111e-07
-0.000264267 -5.40388e-05 -3.34195e-06 -0.000187601 -3.18212e-05 -1.65949e-06 -0.000479183 -5.74738e-05 -4.62766e-07
-0.00026626 -5.49775e-05 -3.39603e-06 -0.000193009 -3.19094e-05 -1.66012e-06 -0.000448863 -5.38079e-05 -4.33147e-07
-0.000267783 -5.60184e-05 -3.45811e-06 -0.000201509 -3.22819e-05 -1.67153e-06 -0.000414641 -4.96748e-05 -3.9974e-07
-0.000267875 -5.71e-05 -3.5237e-06 -0.000213006 -3.29379e-05 -1.69379e-06 -0.000377046 -4.51385e-05 -3.6306e-07
-0.000267181 -5.82153e-05 -3.59234e-06 -0.000227171 -3.38443e-05 -1.7256e-06 -0.000336775 -4.02825e-05 -3.23774e-07
-0.000265918 -5.93488e-05 -3.66292e-06 -0.000243525 -3.49579e-05 -1.76521e-06 -0.000294583 -3.51989e-05 -2.82653e-07
-0.000264028 -6.04916e-05 -3.73466e-06 -0.000261403 -3.62266e-05 -1.81081e-06 -0.000251321 -2.99878e-05 -2.40487e-07
-0.000261677 -6.16291e-05 -3.80649e-06 -0.000280164 -3.75948e-05 -1.8603e-06 -0.000207864 -2.47548e-05 -1.98138e-07
-0.000259185 -6.27437e-05 -3.87714e-06 -0.000299204 -3.90067e-05 -1.91155e-06 -0.000165101 -1.96065e-05 -1.56473e-07
-0.000256739 -6.38212e-05 -3.94553e-06 -0.000317882 -4.04035e-05 -1.96233e-06 -0.000123921 -1.46497e-05 -1.16356e-07
-0.000254447 -6.48473e-05 -4.01059e-06 -0.000335544 -4.17281e-05 -2.01054e-06 -8.51826e-05 -9.98729e-06 -7.86178e-08
-0.000252458 -6.58024e-05 -4.07097e-06 -0.000351598 -4.29293e-05 -2.05424e-06 -4.9684e-05 -5.71465e-06 -4.40345e-08
-0.000250874 -6.66596e-05 -4.12497e-06 -0.000365549 -4.39633e-05 -2.09176e-06 -1.81453e-05 -1.91808e-06 -1.33063e-08
-0.000249668 -6.73865e-05 -4.17061e-06 -0.000376994 -4.47937e-05 -2.12175e-06 8.83001e-06 1.33122e-06 1.30285e-08
-0.000248762 -6.79487e-05 -4.20588e-06 -0.000385616 -4.53915e-05 -2.1431e-06 2.75616e-05 4.40832e-06 3.46363e-08
-0.000248089 -6.83152e-05 -4.22896e-06 -0.000391214 -4.57391e-05 -2.15518e-06 4.15471e-05 6.71414e-06 5.08014e-08
-0.00024759 -6.84621e-05 -4.23846e-06 -0.000393625 -4.58245e-05 -2.15753e-06 5.0518e-05 8.20496e-06 6.12524e-08
-0.000247192 -6.83667e-05 -4.23324e-06 -0.00039277 -4.56433e-05 -2.14999e-06 5.44234e-05 8.86238e-06 6.58475e-08
-0.000246767 -6.80155e-05 -4.21268e-06 -0.000388664 -4.51964e-05 -2.13265e-06 5.32659e-05 8.68402e-06 6.45748e-08
-0.000246242 -6.74063e-05 -4.17669e-06 -0.000381439 -4.4495e-05 -2.10592e-06 4.71161e-05 7.68545e-06 5.75479e-08
-0.000245622 -6.65461e-05 -4.12576e-06 -0.0003713 -4.35572e-05 -2.07047e-06 3.61469e-05 5.89982e-06 4.50017e-08
-0.000244914 -6.54556e-05 -4.06111e-06 -0.000358493 -4.24065e-05 -2.0272e-06 2.06599e-05 3.37708e-06 2.72865e-08
-0.000244151 -6.41684e-05 -3.9847e-06 -0.000343316 -4.10693e-05 -1.9771e-06 -4.64085e-07 4.43901e-07 5.07062e-09
-0.000243396 -6.27242e-05 -3.89885e-06 -0.000326168 -3.95793e-05 -1.9214e-06 -2.7481e-05 -2.79217e-06 -2.10979e-08
-0.00024271 -6.11636e-05 -3.80596e-06 -0.000307479 -3.79756e-05 -1.86161e-06 -5.8065e-05 -6.45966e-06 -5.07749e-08
-0.000242091 -5.95247e-05 -3.70828e-06 -0.000287732 -3.63023e-05 -1.79936e-06 -9.14752e-05 -1.04705e-05 -8.32345e-08
-0.000241482 -5.78397e-05 -3.60783e-06 -0.000267464 -3.46075e-05 -1.73646e-06 -0.000126948 -1.47326e-05 -1.17736e-07
-0.000240807 -5.61375e-05 -3.50639e-06 -0.000247256 -3.29414e-05 -1.67482e-06 -0.000163706 -1.91502e-05 -1.53489e-07
-0.000239996 -5.44475e-05 -3.40584e-06 -0.000227677 -3.13541e-05 -1.61629e-06 -0.000200948 -2.36261e-05 -1.89704e-07
-0.000239001 -5.28026e-05 -3.30817e-06 -0.000209265 -2.98928e-05 -1.56264e-06 -0.000237861 -2.8064e-05 -2.25603e-07
-0.0002378 -5.12374e-05 -3.2155e-06 -0.000192512 -2.8601e-05 -1.51551e-06 -0.00027366 -3.23713e-05 -2.60444e-07
-0.000236398 -4.97867e-05 -3.12991e-06 -0.000177866 -2.75172e-05 -1.47633e-06 -0.000307622 -3.64615e-05 -2.93529e-07
-0.000234816 -4.84841e-05 -3.0534e-06 -0.000165713 -2.66739e-05 -1.44631e-06 -0.000339104 -4.02564e-05 -3.2422e-07
-0.000233094 -4.73609e-05 -2.9878e-06 -0.000156369 -2.6097e-05 -1.42641e-06 -0.000367542 -4.36871e-05 -3.51958e-07
-0.000231275 -4.64441e-05 -2.93469e-06 -0.000150068 -2.58056e-05 -1.41733e-06 -0.000392451 -4.66955e-05 -3.76274e-07
-0.000229386 -4.57521e-05 -2.89515e-06 -0.000146973 -2.5812e-05 -1.4195e-06 -0.00041344 -4.9235e-05 -3.96791e-07
-0.000227419 -4.52917e-05 -2.86958e-06 -0.000147179 -2.61222e-05 -1.43315e-06 -0.000430222 -5.12716e-05 -4.13239e-07
-0.000225316 -4.50557e-05 -2.85763e-06 -0.000150712 -2.67356e-05 -1.45823e-06 -0.000442632 -5.27849e-05 -4.2545e-07
-0.000222973 -4.50234e-05 -2.85816e-06 -0.000157528 -2.76455e-05 -1.49446e-06 -0.000450616 -5.37675e-05 -4.33363e-07
-0.00022026 -4.51636e-05 -2.86943e-06 -0.000167499 -2.88375e-05 -1.54129e-06 -0.000454229 -5.42259e-05 -4.37029e-07
-0.00021704 -4.54368e-05 -2.88924e-06 -0.000180416 -3.02896e-05 -1.59788e-06 -0.000453635 -5.41794e-05 -4.36606e-07
-0.000213162 -4.57958e-05 -2.9149e-06 -0.000195987 -3.19724e-05 -1.6631e-06 -0.0004491 -5.36603e-05 -4.32355e-07
-0.000208473 -4.61869e-05 -2.94336e-06 -0.00021384 -3.3849e-05 -1.73554e-06 -0.000440995 -5.27125e-05 -4.24633e-07
-0.000202849 -4.65552e-05 -2.97147e-06 -0.000233525 -3.58749e-05 -1.81349e-06 -0.000429778 -5.13907e-05 -4.1388e-07
-0.000196209 -4.6848e-05 -2.99613e-06 -0.000254509 -3.7998e-05 -1.89497e-06 -0.000415986 -4.97586e-05 -4.00613e-07
-0.000188521 -4.70161e-05 -3.01445e-06 -0.000276193 -4.01599e-05 -1.97776e-06 -0.000400215 -4.78873e-05 -3.85407e-07
-0.000179802 -4.70154e-05 -3.02376e-06 -0.000297919 -4.22968e-05 -2.05941e-06 -0.0003831 -4.58528e-05 -3.6888e-07
-0.000170131 -4.68097e-05 -3.0218e-06 -0.000318992 -4.4341e-05 -2.13736e-06 -0.000365302 -4.3734e-05 -3.5167e-07
-0.000159641 -4.63715e-05 -3.00679e-06 -0.000338695 -4.62227e-05 -2.20893e-06 -0.000347485 -4.16098e-05 -3.34419e-07
-0.00014851 -4.56812e-05 -2.97736e-06 -0.000356313 -4.78723e-05 -2.27148e-06 -0.000330291 -3.95568e-05 -3.17748e-07
-0.000136935 -4.47254e-05 -2.9325e-06 -0.000371161 -4.92231e-05 -2.32244e-06 -0.000314319 -3.76462e-05 -3.02235e-07
-0.000125115 -4.34952e-05 -2.87147e-06 -0.000382612 -5.02137e-05 -2.35948e-06 -0.000300101 -3.59413e-05 -2.88394e-07
-0.000113221 -4.19834e-05 -2.79364e-06 -0.000390124 -5.0791e-05 -2.38057e-06 -0.000288081 -3.44952e-05 -2.76658e-07
-0.000101394 -4.01842e-05 -2.69854e-06 -0.000393259 -5.09113e-05 -2.38403e-06 -0.000278605 -3.33489e-05 -2.67359e-07
-8.97462e-05 -3.80955e-05 -2.5859e-06 -0.000391693 -5.05421e-05 -2.36862e-06 -0.000271903 -3.25296e-05 -2.60719e-07
-7.83707e-05 -3.57198e-05 -2.45578e-06 -0.000385219 -4.9662e-05 -2.33352e-06 -0.000268084 -3.20503e-05 -2.56842e-07
-6.7344e-05 -3.30658e-05 -2.30862e-06 -0.000373755 -4.82617e-05 -2.27836e-06 -0.000267128 -3.19084e-05 -2.5571e-07
-5.67288e-05 -3.01487e-05 -2.14528e-06 -0.000357345 -4.63441e-05 -2.20324e-06 -0.00026889 -3.20863e-05 -2.5718e-07
-4.6571e-05 -2.69898e-05 -1.96696e-06 -0.000336157 -4.39241e-05 -2.10873e-06 -0.000273096 -3.25513e-05 -2.60988e-07
-3.68932e-05 -2.36148e-05 -1.7752e-06 -0.000310485 -4.10287e-05 -1.99585e-06 -0.000279357 -3.32569e-05 -2.66756e-07
-2.75587e-05 -2.00953e-05 -1.57815e-06 -0.000280811 -3.76922e-05 -1.86527e-06 -0.000287154 -3.41426e-05 -2.74026e-07
-2.05272e-05 -1.65665e-05 -1.37705e-06 -0.000247267 -3.39351e-05 -1.71778e-06 -0.000295914 -3.51427e-05 -2.82349e-07
-1.34921e-05 -1.2932e-05 -1.1665e-06 -0.00021048 -2.98599e-05 -1.55975e-06 -0.00030506 -3.61687e-05 -2.90665e-07
-6.20805e-06 -9.20423e-06 -9.50529e-07 -0.00017166 -2.55124e-05 -1.39037e-06 -0.000313721 -3.71415e-05 -2.98665e-07
4.01745e-07 -5.41691e-06 -7.30789e-07 -0.00013158 -2.09922e-05 -1.21434e-06 -0.000321096 -3.79565e-05 -3.05357e-07
6.71472e-06 -1.63694e-06 -5.11259e-07 -9.08126e-05 -1.63615e-05 -1.03364e-06 -0.00032644 -3.85257e-05 -3.10097e-07
1.02512e-05 2.23124e-06 -2.9684e-07 -5.00516e-05 -1.16953e-05 -8.51298e-07 -0.00032905 -3.87602e-05 -3.12121e-07
9.55302e-06 6.17935e-06 -8.92749e-08 -1.04317e-05 -7.0914e-06 -6.70542e-07 -0.000328077 -3.85637e-05 -3.10715e-07
8.81838e-06 9.93031e-06 1.07724e-07 2.7608e-05 -2.5902e-06 -4.93231e-07 -0.000322994 -3.78712e-05 -3.05302e-07
9.01793e-06 1.34262e-05 2.9186e-07 6.35996e-05 1.76383e-06 -3.20879e-07 -0.000313231 -3.66127e-05 -2.95231e-07
9.46487e-06 1.66492e-05 4.6104e-07 9.40504e-05 6.13778e-06 -1.56463e-07 -0.000298047 -3.4713e-05 -2.80068e-07
9.76519e-06 1.95704e-05 6.13694e-07 0.000118015 1.04325e-05 -2.58503e-09 -0.000277389 -3.21537e-05 -2.59537e-07
1.06937e-05 2.21487e-05 7.47805e-07 0.000138405 1.4358e-05 1.38482e-07 -0.000251016 -2.89067e-05 -2.3344e-07
1.24804e-05 2.4366e-05 8.625e-07 0.000155163 1.78714e-05 2.65137e-07 -0.00021883 -2.49613e-05 -2.01677e-07
1.48369e-05 2.62271e-05 9.57675e-07 0.000168027 2.09336e-05 3.76154e-07 -0.000180833 -2.03228e-05 -1.64323e-07
1.77983e-05 2.7738e-05 1.03357e-06 0.000176767 2.3525e-05 4.70817e-07 -0.000137251 -1.50181e-05 -1.21584e-07
2.16362e-05 2.89084e-05 1.09077e-06 0.000181349 2.56405e-05 5.48851e-07 -8.84827e-05 -9.09356e-06 -7.38154e-08
2.63778e-05 2.97637e-05 1.13058e-06 0.000181918 2.72813e-05 6.10294e-07 -3.50346e-05 -2.60987e-06 -2.15103e-08
3.19182e-05 3.03408e-05 1.15482e-06 0.000178741 2.84643e-05 6.55812e-07 1.65559e-05 5.29146e-06 3.55768e-08
3.82884e-05 3.06835e-05 1.16586e-06 0.000172047 2.92083e-05 6.85967e-07 6.85783e-05 1.39152e-05 9.58651e-08
4.55354e-05 3.08417e-05 1.16632e-06 0.000162253 2.95541e-05 7.02172e-07 0.000122544 2.28642e-05 1.58473e-07
5.36185e-05 3.08733e-05 1.15934e-06 0.000149836 2.95452e-05 7.05921e-07 0.000177778 3.20019e-05 2.22392e-07
6.24489e-05 3.08427e-05 1.14832e-06 0.000135337 2.92353e-05 6.99097e-07 0.000233439 4.11829e-05 2.86605e-07
7.1976e-05 3.08172e-05 1.13682e-06 0.000119365 2.86872e-05 6.83855e-07 0.000288511 5.02535e-05 3.50054e-07
8.21383e-05 3.08609e-05 1.12828e-06 0.000102578 2.79706e-05 6.62583e-07 0.000341936 5.9056e-05 4.11649e-07
9.2788e-05 3.10332e-05 1.12593e-06 8.56726e-05 2.7159e-05 6.37824e-07 0.000392741 6.74327e-05 4.70283e-07
0.000103768 3.13771e-05 1.1323e-06 6.93541e-05 2.63279e-05 6.12194e-07 0.000440049 7.52312e-05 5.24871e-07
0.000114817 3.19378e-05 1.15005e-06 5.42809e-05 2.55488e-05 5.88214e-07 0.000483039 8.23091e-05 5.744e-07
0.000125726 3.27511e-05 1.18115e-06 4.11274e-05 2.48976e-05 5.68502e-07 0.000520669 8.84865e-05 6.17263e-07
0.000136389 3.38726e-05 1.22904e-06 3.00477e-05 2.4295e-05 5.49124e-07 0.000536544 9.0367e-05 6.23483e-07
0.000146357 3.5307e-05 1.29514e-06 2.32053e-05 2.37972e-05 5.30736e-07 0.000539662 9.0653e-05 6.24608e-07
0.000155927 3.7029e-05 1.3747e-06 2.03382e-05 2.3734e-05 5.32575e-07 0.000537202 9.0721e-05 6.25423e-07
0.000164251 3.90561e-05 1.47231e-06 2.10543e-05 2.404e-05 5.44407e-07 0.000533971 9.07199e-05 6.25999e-07
0.000171957 4.13602e-05 1.58533e-06 2.44923e-05 2.48482e-05 5.74179e-07 0.000535071 9.0801e-05 6.2626e-07
0.00017871 4.39398e-05 1.71381e-06 3.15084e-05 2.61255e-05 6.20297e-07 0.000536822 9.0502e-05 6.23376e-07
0.000184201 4.68024e-05 1.8584e-06 4.30246e-05 2.7767e-05 6.78553e-07 0.000531432 8.91422e-05 6.13308e-07
0.000188656 4.99318e-05 2.01793e-06 5.91535e-05 2.9767e-05 7.49535e-07 0.000515789 8.6696e-05 5.96063e-07
0.000192241 5.33137e-05 2.19166e-06 7.90241e-05 3.21087e-05 8.32258e-07 0.000491755 8.32514e-05 5.72233e-07
0.000195043 5.69285e-05 2.37851e-06 0.000101666 3.47662e-05 9.25652e-07 0.000463379 7.89047e-05 5.41916e-07
0.0001972 6.07467e-05 2.57672e-06 0.000126684 3.76866e-05 1.02793e-06 0.000432826 7.37808e-05 5.05746e-07
0.000198882 6.47305e-05 2.78417e-06 0.000153931 4.07972e-05 1.13666e-06 0.000399323 6.80136e-05 4.64896e-07
0.000200242 6.88361e-05 2.99832e-06 0.000182926 4.40267e-05 1.2495e-06 0.000361493 6.17397e-05 4.20675e-07
0.000201403 7.30136e-05 3.2164e-06 0.000212826 4.73094e-05 1.36415e-06 0.00031984 5.51069e-05 3.74211e-07
0.000202513 7.72059e-05 3.43529e-06 0.000242768 5.05803e-05 1.4783e-06 0.000276759 4.82772e-05 3.26424e-07
0.000203698 8.13505e-05 3.65163e-06 0.000272092 5.37705e-05 1.5895e-06 0.000234597 4.14186e-05 2.78274e-07
0.00020504 8.53825e-05 3.86191e-06 0.000300251 5.68093e-05 1.69534e-06 0.000194228 3.46926e-05 2.309e-07
0.000206587 8.92369e-05 4.06261e-06 0.000326683 5.96309e-05 1.79359e-06 0.000155485 2.82487e-05 1.85523e-07
0.000208381 9.28492e-05 4.25031e-06 0.000350797 6.21779e-05 1.88229e-06 0.00011853 2.22266e-05 1.43246e-07
0.000210499 9.61437e-05 4.41936e-06 0.000372048 6.44e-05 1.95968e-06 8.44913e-05 1.67593e-05 1.04954e-07
0.000217556 9.70573e-05 4.44532e-06 0.000385189 6.56047e-05 2.00128e-06 5.63151e-05 1.21908e-05 7.29001e-08
0.000208234 9.75731e-05 4.46665e-06 0.000391128 6.5889e-05 2.00123e-06 3.3823e-05 8.55655e-06 4.84337e-08
0.000203799 9.8032e-05 4.48276e-06 0.000392453 6.63101e-05 2.02184e-06 1.64525e-05 5.5083e-06 2.65201e-08
0.000208105 9.8406e-05 4.49471e-06 0.00039633 6.65283e-05 2.02635e-06 2.76105e-06 3.2242e-06 1.06207e-08
0.000211429 9.86676e-05 4.50358e-06 0.000399362 6.64962e-05 2.02067e-06 -6.23265e-06 1.84834e-06 1.90403e-09
0.000209273 9.87574e-05 4.5076e-06 0.000399401 6.64212e-05 2.01717e-06 -1.07315e-05 1.15188e-06 -2.77675e-09
0.000209846 9.85972e-05 4.49152e-06 0.000396603 6.62083e-05 2.01163e-06 -1.01093e-05 1.23413e-06 -2.28776e-09
0.000211951 9.80493e-05 4.46349e-06 0.000391795 6.56205e-05 1.99064e-06 -4.07332e-06 2.17891e-06 4.28477e-09
0.000212924 9.71264e-05 4.41209e-06 0.000383666 6.46615e-05 1.95781e-06 7.07287e-06 3.97388e-06 1.68767e-08
0.000212973 9.5866e-05 4.34255e-06 0.000371938 6.33911e-05 1.91491e-06 2.27329e-05 6.52155e-06 3.459e-08
0.000214117 9.42396e-05 4.25453e-06 0.000357362 6.18611e-05 1.86235e-06 4.24564e-05 9.77323e-06 5.74306e-08
0.000215825 9.23108e-05 4.15073e-06 0.000340535 6.01045e-05 1.80206e-06 6.61166e-05 1.36436e-05 8.45354e-08
0.000216958 9.01642e-05 4.03506e-06 0.000321945 5.81418e-05 1.73489e-06 9.3261e-05 1.80557e-05 1.15397e-07
0.000217963 8.78408e-05 3.91001e-06 0.000301973 5.60378e-05 1.66302e-06 0.000123034 2.28936e-05 1.49213e-07
0.000219341 8.5384e-05 3.77835e-06 0.000281015 5.38621e-05 1.58852e-06 0.000154519 2.80356e-05 1.85208e-07
0.000220742 8.28662e-05 3.64371e-06 0.000259554 5.16677e-05 1.51336e-06 0.000187037 3.33627e-05 2.22526e-07
0.000221878 8.03589e-05 3.50969e-06 0.000238249 4.95045e-05 1.43937e-06 0.000220004 3.87573e-05 2.60302e-07
0.00022293 7.79188e-05 3.37949e-06 0.000217746 4.74305e-05 1.3685e-06 0.000252718 4.40981e-05 2.97681e-07
0.000223999 7.56047e-05 3.25627e-06 0.000198491 4.55049e-05 1.30271e-06 0.00028437 4.92633e-05 3.33829e-07
0.000224944 7.34796e-05 3.14325e-06 0.000180846 4.37789e-05 1.2438e-06 0.000314188 5.41383e-05 3.67958e-07
0.000225706 7.1599e-05 3.0433e-06 0.000165262 4.2297e-05 1.19333e-06 0.000341533 5.86194e-05 3.99337e-07
0.000226354 7.00084e-05 2.95883e-06 0.000152213 4.10984e-05 1.15266e-06 0.000365887 6.26148e-05 4.27311e-07
0.000226899 6.87477e-05 2.89195e-06 0.000142037 4.02164e-05 1.1229e-06 0.000386799 6.60448e-05 4.51317e-07
0.000227291 6.78505e-05 2.84435e-06 0.000134926 3.96773e-05 1.10499e-06 0.000403854 6.88434e-05 4.70894e-07
0.000227527 6.73396e-05 2.81723e-06 0.000131029 3.94993e-05 1.09955e-06 0.000416715 7.09609e-05 4.85701e-07
0.000227433 6.71964e-05 2.80989e-06 0.000130522 3.96974e-05 1.10705e-06 0.000425169 7.23649e-05 4.95516e-07
0.000226322 6.72697e-05 2.81434e-06 0.000133679 4.0304e-05 1.12873e-06 0.000429094 7.30339e-05 5.00177e-07
0.000224232 6.75657e-05 2.83104e-06 0.000140449 4.13008e-05 1.16402e-06 0.000428588 7.29779e-05 4.99729e-07
0.000221224 6.80754e-05 2.85943e-06 0.000150614 4.26609e-05 1.21188e-06 0.000423797 7.22234e-05 4.94378e-07
0.000217408 6.8784e-05 2.89869e-06 0.000163802 4.43507e-05 1.27119e-06 0.000414976 7.08118e-05 4.84408e-07
0.000212904 6.96703e-05 2.94764e-06 0.000179612 4.63235e-05 1.34027e-06 0.000402494 6.88047e-05 4.70263e-07
0.000207843 7.07085e-05 3.00485e-06 0.000197611 4.85234e-05 1.41721e-06 0.00038683 6.62782e-05 4.5247e-07
0.000202367 7.18669e-05 3.06857e-06 0.000217299 5.08877e-05 1.49981e-06 0.000368538 6.33207e-05 4.3165e-07
0.000196625 7.3108e-05 3.13678e-06 0.00023809 5.33506e-05 1.58577e-06 0.000348213 6.00292e-05 4.08487e-07
0.000190753 7.43893e-05 3.20717e-06 0.000259366 5.58438e-05 1.67272e-06 0.000326485 5.65067e-05 3.83708e-07
0.000184879 7.56642e-05 3.27725e-06 0.000280521 5.82973e-05 1.75821e-06 0.000304013 5.28604e-05 3.58066e-07
0.000179121 7.68855e-05 3.34449e-06 0.000300974 6.06416e-05 1.83982e-06 0.000281466 4.91982e-05 3.32318e-07
0.000173593 7.80059e-05 3.40636e-06 0.000320156 6.28101e-05 1.91525e-06 0.000259493 4.56253e-05 3.07203e-07
0.0001684 7.89812e-05 3.46051e-06 0.000337513 6.47406e-05 1.98231e-06 0.000238703 4.2241e-05 2.8342e-07
0.00016364 7.97717e-05 3.50481e-06 0.000352542 6.63768e-05 2.03905e-06 0.000219655 3.91364e-05 2.61609e-07
0.000159408 8.03438e-05 3.53746e-06 0.000364807 6.76686e-05 2.08374e-06 0.000202845 3.63921e-05 2.42337e-07
0.000155795 8.06726e-05 3.55709e-06 0.00037395 6.85744e-05 2.11491e-06 0.000188692 3.40762e-05 2.26081e-07
0.000152884 8.07411e-05 3.56278e-06 0.000379685 6.90615e-05 2.13144e-06 0.000177523 3.22418e-05 2.13216e-07
0.000150743 8.05408e-05 3.55404e-06 0.000381815 6.91084e-05 2.13258e-06 0.000169563 3.09259e-05 2.04e-07
0.000149409 8.00684e-05 3.53066e-06 0.000380239 6.87048e-05 2.11797e-06 0.000164934 3.01482e-05 1.98573e-07
0.000148876 7.93239e-05 3.49266e-06 0.000374972 6.7853e-05 2.08768e-06 0.000163647 2.99109e-05 1.9695e-07
0.000149082 7.83084e-05 3.44013e-06 0.000366142 6.65679e-05 2.04225e-06 0.000165607 3.01985e-05 1.99021e-07
0.00014991 7.70223e-05 3.37317e-06 0.000353979 6.48769e-05 1.98263e-06 0.000170611 3.09783e-05 2.04557e-07
0.000151195 7.54676e-05 3.292e-06 0.00033881 6.28184e-05 1.91015e-06 0.000178359 3.2202e-05 2.13218e-07
0.000152757 7.36511e-05 3.1971e-06 0.000321038 6.04396e-05 1.82646e-06 0.000188471 3.38076e-05 2.24567e-07
0.000154412 7.15871e-05 3.08934e-06 0.000301125 5.77939e-05 1.73343e-06 0.00020049 3.57217e-05 2.38087e-07
0.000155986 6.92969e-05 2.96995e-06 0.000279574 5.49399e-05 1.63309e-06 0.00021391 3.78615e-05 2.53198e-07
0.000157309 6.68073e-05 2.84042e-06 0.000256914 5.19391e-05 1.52758e-06 0.000228178 4.01378e-05 2.69271e-07
0.000158224 6.41489e-05 2.70246e-06 0.000233688 4.88545e-05 1.4191e-06 0.000242721 4.24573e-05 2.85651e-07
0.00015858 6.13541e-05 2.55784e-06 0.000210437 4.57485e-05 1.30984e-06 0.000256959 4.4726e-05 3.01676e-07
0.000158228 5.84541e-05 2.40829e-06 0.000187691 4.26824e-05 1.2019e-06 0.00027032 4.6851e-05 3.16693e-07
0.000157027 5.54781e-05 2.25541e-06 0.000165949 3.97134e-05 1.0973e-06 0.00028226 4.87439e-05 3.30082e-07
0.000154858 5.24545e-05 2.10075e-06 0.000145664 3.68935e-05 9.97843e-07 0.000292278 5.03233e-05 3.41267e-07
0.000151644 4.94134e-05 1.94592e-06 0.000127223 3.4267e-05 9.05071e-07 0.000299929 5.15169e-05 3.49742e-07
0.000147375 4.6391e-05 1.7928e-06 0.000110927 3.18679e-05 8.20175e-07 0.000304841 5.2264e-05 3.5508e-07
0.000142125 4.34316e-05 1.64364e-06 9.69838e-05 2.97193e-05 7.43958e-07 0.000306721 5.25171e-05 3.56947e-07
0.000136035 4.05846e-05 1.50088e-06 8.5501e-05 2.78335e-05 6.76843e-07 0.000305364 5.22423e-05 3.55105e-07
0.000129284 3.78984e-05 1.36691e-06 7.65049e-05 2.62134e-05 6.1893e-07 0.00030065 5.142e-05 3.49418e-07
0.000122056 3.54137e-05 1.24371e-06 6.99541e-05 2.4854e-05 5.70047e-07 0.000292544 5.00444e-05 3.39845e-07
0.00011451 3.3159e-05 1.13262e-06 6.57541e-05 2.37445e-05 5.29813e-07 0.000281094 4.8123e-05 3.2644e-07
0.000106773 3.11477e-05 1.03428e-06 6.37664e-05 2.28691e-05 4.97682e-07 0.000266428 4.56762e-05 3.09347e-07
9.89341e-05 2.93792e-05 9.48558e-07 6.38126e-05 2.22079e-05 4.72962e-07 0.000248743 4.27363e-05 2.88793e-07
9.10546e-05 2.78407e-05 8.74771e-07 6.56772e-05 2.1737e-05 4.54828e-07 0.000228306 3.93465e-05 2.6508e-07
8.31762e-05 2.65103e-05 8.11742e-07 6.91105e-05 2.14292e-05 4.42334e-07 0.000205443 3.556e-05 2.38584e-07
7.5324e-05 2.53577e-05 7.57893e-07 7.38343e-05 2.12544e-05 4.34432e-07 0.000180533 3.14384e-05 2.09736e-07
6.75099e-05 2.43463e-05 7.11323e-07 7.95469e-05 2.11798e-05 4.29994e-07 0.000153998 2.70504e-05 1.79018e-07
5.974e-05 2.34354e-05 6.69918e-07 8.59284e-05 2.11712e-05 4.27826e-07 0.000126292 2.24701e-05 1.46951e-07
5.20258e-05 2.25836e-05 6.31528e-07 9.26441e-05 2.11925e-05 4.2668e-07 9.78916e-05 1.77753e-05 1.14082e-07
4.43834e-05 2.17495e-05 5.94003e-07 9.93513e-05 2.12069e-05 4.25283e-07 6.92849e-05 1.30457e-05 8.09684e-08
3.68186e-05 2.08901e-05 5.55113e-07 0.000105712 2.11785e-05 4.22388e-07 4.0959e-05 8.36077e-06 4.817e-08
2.93153e-05 1.9959e-05 5.12468e-07 0.000111406 2.10735e-05 4.16822e-07 1.33876e-05 3.79795e-06 1.62296e-08
2.18326e-05 1.8905e-05 4.63432e-07 0.000116183 2.08706e-05 4.07917e-07 -1.32563e-05 5.01096e-08 -1.09943e-08
1.43426e-05 1.76775e-05 4.05294e-07 0.000119658 2.0563e-05 3.95775e-07 -3.92163e-05 -3.07132e-06 -3.58965e-08
6.75172e-06 1.62392e-05 3.36474e-07 0.000121562 2.00838e-05 3.77138e-07 -6.23764e-05 -5.89469e-06 -5.84326e-08
-9.06772e-07 1.45537e-05 2.54853e-07 0.000121787 1.942e-05 3.52344e-07 -8.31757e-05 -8.44567e-06 -7.89167e-08
-8.95261e-06 1.26567e-05 1.66579e-07 0.000120381 1.85359e-05 3.19328e-07 -0.000101751 -1.06948e-05 -9.68387e-08
-1.27172e-05 1.11652e-05 1.03513e-07 0.000116428 1.72799e-05 2.70249e-07 -0.000117847 -1.26091e-05 -1.11715e-07
-1.56852e-05 9.52989e-06 2.12306e-08 0.000108916 1.58085e-05 2.18233e-07 -0.000130649 -1.41661e-05 -1.24129e-07
-2.01866e-05 7.70219e-06 -6.93381e-08 9.96007e-05 1.40655e-05 1.55288e-07 -0.000140386 -1.53725e-05 -1.33742e-07
-2.34308e-05 5.59298e-06 -1.74602e-07 8.88224e-05 1.21311e-05 8.60927e-08 -0.00014719 -1.62345e-05 -1.40605e-07
-2.61143e-05 3.2454e-06 -2.91844e-07 7.64079e-05 1.00085e-05 1.00623e-08 -0.000151417 -1.67799e-05 -1.44938e-07
-2.93725e-05 7.18986e-07 -4.18811e-07 6.20209e-05 7.70603e-06 -7.20608e-08 -0.000153204 -1.70203e-05 -1.4676e-07
-3.54165e-05 -1.55093e-06 -5.39954e-07 4.69493e-05 5.36376e-06 -1.55916e-07 -0.00015287 -1.70027e-05 -1.46468e-07
-4.03302e-05 -3.77966e-06 -6.67076e-07 3.11818e-05 2.94956e-06 -2.41204e-07 -0.000150142 -1.67131e-05 -1.44144e-07
-4.56496e-05 -6.08887e-06 -7.98008e-07 1.31634e-05 5.34574e-07 -3.32314e-07 -0.000145375 -1.61719e-05 -1.39583e-07
-5.19762e-05 -8.41963e-06 -9.31328e-07 -7.6469e-06 -1.80078e-06 -4.23577e-07 -0.000138685 -1.54167e-05 -1.33532e-07
-5.80763e-05 -1.07732e-05 -1.06591e-06 -2.91648e-05 -4.17338e-06 -5.16527e-07 -0.000130923 -1.45173e-05 -1.2617e-07
-6.33252e-05 -1.31318e-05 -1.20076e-06 -5.06703e-05 -6.53254e-06 -6.08566e-07 -0.00012235 -1.3515e-05 -1.17946e-07
-6.86059e-05 -1.54573e-05 -1.33394e-06 -7.18362e-05 -8.87369e-06 -6.99944e-07 -0.000113307 -1.24602e-05 -1.09339e-07
-7.41391e-05 -1.77228e-05 -1.4638e-06 -9.2529e-05 -1.11634e-05 -7.89126e-07 -0.000104235 -1.14057e-05 -1.00763e-07
-7.94174e-05 -1.99172e-05 -1.58946e-06 -0.000112462 -1.33593e-05 -8.74729e-07 -9.56801e-05 -1.04113e-05 -9.26615e-08
-8.4387e-05 -2.20201e-05 -1.70962e-06 -0.000131277 -1.54321e-05 -9.557e-07 -8.80757e-05 -9.52634e-06 -8.54186e-08
-8.93545e-05 -2.40054e-05 -1.82282e-06 -0.000148632 -1.73623e-05 -1.03116e-06 -8.1741e-05 -8.79195e-06 -7.94027e-08
-9.4335e-05 -2.58557e-05 -1.92799e-06 -0.000164225 -1.91274e-05 -1.10029e-06 -7.69894e-05 -8.24711e-06 -7.49358e-08
-9.91639e-05 -2.75607e-05 -2.02441e-06 -0.000177863 -2.07027e-05 -1.16221e-06 -7.41338e-05 -7.92859e-06 -7.23022e-08
-0.000103873 -2.91102e-05 -2.11143e-06 -0.000189436 -2.20705e-05 -1.21626e-06 -7.34215e-05 -7.86531e-06 -7.17287e-08
-0.000108581 -3.04961e-05 -2.18856e-06 -0.000198812 -2.32206e-05 -1.262e-06 -7.50102e-05 -8.07637e-06 -7.33753e-08
-0.00011329 -3.17166e-05 -2.25566e-06 -0.000205852 -2.41465e-05 -1.2992e-06 -7.89894e-05 -8.57259e-06 -7.7334e-08
-0.000117962 -3.27737e-05 -2.3128e-06 -0.000210506 -2.48451e-05 -1.32777e-06 -8.53906e-05 -9.35751e-06 -8.36316e-08
-0.000122625 -3.36714e-05 -2.36022e-06 -0.000212846 -2.5319e-05 -1.34781e-06 -9.41784e-05 -1.04268e-05 -9.22305e-08
-0.000127322 -3.44171e-05 -2.39835e-06 -0.000212987 -2.55761e-05 -1.3596e-06 -0.000105242 -1.17675e-05 -1.03026e-07
-0.000132052 -3.50234e-05 -2.42794e-06 -0.000211047 -2.56291e-05 -1.36362e-06 -0.000118399 -1.33581e-05 -1.15846e-07
-0.000136822 -3.55068e-05 -2.44994e-06 -0.000207183 -2.54952e-05 -1.36053e-06 -0.00013341 -1.51699e-05 -1.30458e-07
-0.000141666 -3.58875e-05 -2.46557e-06 -0.000201617 -2.5195e-05 -1.35112e-06 -0.000149491 -1.70896e-05 -1.46088e-07
-0.000146622 -3.61914e-05 -2.47633e-06 -0.000194575 -2.47381e-05 -1.33571e-06 -0.000165529 -1.89935e-05 -1.61187e-07
-0.000151679 -3.64413e-05 -2.48374e-06 -0.000186542 -2.41634e-05 -1.3155e-06 -0.000181725 -2.09505e-05 -1.76886e-07
-0.00015692 -3.6664e-05 -2.4891e-06 -0.000177672 -2.35076e-05 -1.29248e-06 -0.000198324 -2.29582e-05 -1.92928e-07
-0.000162295 -3.68868e-05 -2.49432e-06 -0.000168304 -2.28e-05 -1.26729e-06 -0.000215149 -2.49772e-05 -2.09046e-07
-0.000167846 -3.71349e-05 -2.50078e-06 -0.000158799 -2.20786e-05 -1.24162e-06 -0.000231861 -2.69617e-05 -2.24815e-07
-0.000173558 -3.74338e-05 -2.51011e-06 -0.000149589 -2.13758e-05 -1.21661e-06 -0.000247907 -2.88657e-05 -2.39941e-07
-0.000179424 -3.78085e-05 -2.52381e-06 -0.000141044 -2.07266e-05 -1.19361e-06 -0.000262778 -3.06434e-05 -2.541e-07
-0.000185437 -3.82826e-05 -2.54334e-06 -0.000133484 -2.01653e-05 -1.17392e-06 -0.000276164 -3.22553e-05 -2.66968e-07
-0.000191587 -3.88767e-05 -2.56999e-06 -0.000127214 -1.97244e-05 -1.15878e-06 -0.000287897 -3.36681e-05 -2.78244e-07
-0.000197844 -3.96071e-05 -2.60478e-06 -0.000122547 -1.94341e-05 -1.14934e-06 -0.000297797 -3.48525e-05 -2.87664e-07
-0.000204154 -4.04841e-05 -2.64844e-06 -0.000119778 -1.93211e-05 -1.1466e-06 -0.0003056 -3.57819e-05 -2.95031e-07
-0.000210439 -4.15111e-05 -2.70129e-06 -0.000119156 -1.94097e-05 -1.15149e-06 -0.000311041 -3.64343e-05 -3.00198e-07
-0.000216607 -4.26851e-05 -2.76328e-06 -0.000120874 -1.97202e-05 -1.16478e-06 -0.000313977 -3.67964e-05 -3.0307e-07
-0.000222559 -4.3998e-05 -2.83409e-06 -0.000125068 -2.02676e-05 -1.18704e-06 -0.000314387 -3.68603e-05 -3.03556e-07
-0.000228205 -4.54386e-05 -2.91317e-06 -0.000131807 -2.10587e-05 -1.2185e-06 -0.000312137 -3.65996e-05 -3.014e-07
-0.000233466 -4.69928e-05 -2.99979e-06 -0.000141115 -2.20943e-05 -1.25918e-06 -0.000307259 -3.6022e-05 -2.96673e-07
-0.000238293 -4.86448e-05 -3.09306e-06 -0.000152918 -2.3369e-05 -1.30892e-06 -0.000299878 -3.51491e-05 -2.89562e-07
-0.000242651 -5.03777e-05 -3.192e-06 -0.000167061 -2.48699e-05 -1.3672e-06 -0.000290244 -3.40132e-05 -2.80341e-07
-0.000246539 -5.21737e-05 -3.29553e-06 -0.00018331 -2.65776e-05 -1.43332e-06 -0.000278741 -3.2656e-05 -2.69333e-07
-0.000249978 -5.40149e-05 -3.40253e-06 -0.000201371 -2.84656e-05 -1.50628e-06 -0.000265821 -3.11274e-05 -2.56928e-07
-0.00025302 -5.58843e-05 -3.51187e-06 -0.000220895 -3.05015e-05 -1.58487e-06 -0.000251947 -2.94826e-05 -2.43572e-07
-0.000255733 -5.77652e-05 -3.62242e-06 -0.000241478 -3.26482e-05 -1.66769e-06 -0.000237585 -2.77809e-05 -2.29754e-07
-0.000258176 -5.9637e-05 -3.73276e-06 -0.000262689 -3.48665e-05 -1.7533e-06 -0.000223235 -2.60842e-05 -2.15982e-07
-0.000260213 -6.14519e-05 -3.83978e-06 -0.000284148 -3.71236e-05 -1.84058e-06 -0.000209423 -2.44545e-05 -2.02746e-07
-0.00026204 -6.32057e-05 -3.94346e-06 -0.000305392 -3.93707e-05 -1.92751e-06 -0.000196718 -2.2958e-05 -1.90583e-07
-0.000263835 -6.48908e-05 -4.04305e-06 -0.00032592 -4.15627e-05 -2.01244e-06 -0.000185649 -2.16568e-05 -1.79997e-07
-0.000265694 -6.64988e-05 -4.13792e-06 -0.000345249 -4.36565e-05 -2.09374e-06 -0.000176691 -2.06081e-05 -1.71449e-07
-0.000267718 -6.80181e-05 -4.22727e-06 -0.000362975 -4.56136e-05 -2.16992e-06 -0.000170261 -1.98633e-05 -1.65365e-07
-0.000269995 -6.94354e-05 -4.31022e-06 -0.000378765 -4.74006e-05 -2.23974e-06 -0.000166723 -1.94662e-05 -1.62099e-07
-0.000272564 -7.07379e-05 -4.38596e-06 -0.000392343 -4.89898e-05 -2.30211e-06 -0.000166378 -1.94521e-05 -1.61936e-07
-0.000274338 -7.1808e-05 -4.45035e-06 -0.000403892 -5.03949e-05 -2.35706e-06 -0.000169341 -1.98365e-05 -1.65036e-07
-0.000276567 -7.26662e-05 -4.49957e-06 -0.000412978 -5.15851e-05 -2.40424e-06 -0.000175837 -2.0642e-05 -1.71537e-07
-0.000278397 -7.33363e-05 -4.53761e-06 -0.000419493 -5.2542e-05 -2.44313e-06 -0.00018593 -2.18732e-05 -1.81391e-07
-0.000280039 -7.38076e-05 -4.56352e-06 -0.000423471 -5.32541e-05 -2.47241e-06 -0.000199518 -2.35303e-05 -1.94779e-07
-0.000281811 -7.40751e-05 -4.57714e-06 -0.000424867 -5.37373e-05 -2.49326e-06 -0.000216471 -2.55888e-05 -2.11371e-07
-0.000283523 -7.41423e-05 -4.57861e-06 -0.000423764 -5.39888e-05 -2.50518e-06 -0.000236601 -2.80289e-05 -2.3109e-07
-0.000285007 -7.40049e-05 -4.5679e-06 -0.000420215 -5.40103e-05 -2.50849e-06 -0.000259678 -3.08179e-05 -2.53605e-07
-0.000286223 -7.36724e-05 -4.54556e-06 -0.000414432 -5.38151e-05 -2.50356e-06 -0.000285316 -3.39128e-05 -2.78603e-07
-0.000287284 -7.31618e-05 -4.51268e-06 -0.00040665 -5.34266e-05 -2.4913e-06 -0.000312219 -3.71277e-05 -3.0481e-07
-0.000288207 -7.25016e-05 -4.47095e-06 -0.000397064 -5.2843e-05 -2.47142e-06 -0.000338435 -4.02467e-05 -3.29479e-07
-0.000288889 -7.17096e-05 -4.42169e-06 -0.000386304 -5.21194e-05 -2.44588e-06 -0.000364843 -4.3442e-05 -3.55048e-07
-0.000289382 -7.08113e-05 -4.36603e-06 -0.000374502 -5.12898e-05 -2.4166e-06 -0.000391691 -4.66989e-05 -3.81137e-07
-0.000289615 -6.98312e-05 -4.30594e-06 -0.000362027 -5.03846e-05 -2.38409e-06 -0.000418828 -4.99597e-05 -4.07194e-07
-0.000289629 -6.87934e-05 -4.24266e-06 -0.000349257 -4.94433e-05 -2.35021e-06 -0.000445758 -5.31617e-05 -4.32667e-07
-0.00028937 -6.7726e-05 -4.17804e-06 -0.000336658 -4.84945e-05 -2.31584e-06 -0.000471658 -5.62403e-05 -4.57164e-07
-0.00028885 -6.66569e-05 -4.11369e-06 -0.000324602 -4.75706e-05 -2.28228e-06 -0.000495799 -5.91318e-05 -4.80239e-07
-0.000288082 -6.56123e-05 -4.05124e-06 -0.000313394 -4.67016e-05 -2.25064e-06 -0.000517779 -6.17826e-05 -5.01452e-07
-0.000287074 -6.4616e-05 -3.99213e-06 -0.000303299 -4.59155e-05 -2.22193e-06 -0.000537416 -6.41476e-05 -5.20374e-07
-0.000285614 -6.3663e-05 -3.93649e-06 -0.000294641 -4.52407e-05 -2.1972e-06 -0.000554459 -6.61847e-05 -5.3663e-07
-0.000283239 -6.26892e-05 -3.88057e-06 -0.00028782 -4.47127e-05 -2.17784e-06 -0.000568473 -6.78509e-05 -5.49903e-07
-0.00027986 -6.16965e-05 -3.82463e-06 -0.000283034 -4.43438e-05 -2.16437e-06 -0.000579078 -6.91155e-05 -5.59977e-07
-0.000275372 -6.06778e-05 -3.76829e-06 -0.000280376 -4.41402e-05 -2.15696e-06 -0.000586048 -6.99574e-05 -5.66715e-07
-0.000269741 -5.96246e-05 -3.71111e-06 -0.000279819 -4.41028e-05 -2.15567e-06 -0.000589376 -7.03671e-05 -5.70008e-07
-0.000262987 -5.85332e-05 -3.65285e-06 -0.00028126 -4.42211e-05 -2.16007e-06 -0.000589046 -7.03295e-05 -5.69682e-07
-0.000255198 -5.74075e-05 -3.59367e-06 -0.000284509 -4.44709e-05 -2.1692e-06 -0.000584868 -6.98166e-05 -5.65482e-07
-0.000246527 -5.62557e-05 -3.53387e-06 -0.000289316 -4.48232e-05 -2.18193e-06 -0.000576844 -6.88426e-05 -5.57554e-07
-0.000237159 -5.50844e-05 -3.47368e-06 -0.000295324 -4.52435e-05 -2.19698e-06 -0.000565163 -6.74382e-05 -5.46175e-07
-0.000227261 -5.38954e-05 -3.41301e-06 -0.000302115 -4.56936e-05 -2.21287e-06 -0.0005502 -6.56433e-05 -5.31659e-07
-0.000216977 -5.2684e-05 -3.35143e-06 -0.000309252 -4.6133e-05 -2.22806e-06 -0.000532438 -6.35052e-05 -5.14357e-07
-0.000206433 -5.14412e-05 -3.28826e-06 -0.000316308 -4.65194e-05 -2.24094e-06 -0.000512337 -6.10754e-05 -4.94677e-07
-0.000195756 -5.01569e-05 -3.22276e-06 -0.000322849 -4.68098e-05 -2.24987e-06 -0.000490299 -5.84072e-05 -4.73063e-07
-0.000185073 -4.88214e-05 -3.15422e-06 -0.000328428 -4.69621e-05 -2.25326e-06 -0.000466723 -5.55545e-05 -4.49974e-07
-0.000174491 -4.74233e-05 -3.08184e-06 -0.000332616 -4.69368e-05 -2.24961e-06 -0.000442059 -5.25719e-05 -4.25856e-07
-0.000164075 -4.59467e-05 -3.00459e-06 -0.000335031 -4.66991e-05 -2.23761e-06 -0.000416793 -4.95133e-05 -4.01133e-07
-0.000153853 -4.43725e-05 -2.9213e-06 -0.000335352 -4.62191e-05 -2.21612e-06 -0.000391376 -4.64288e-05 -3.76198e-07
-0.000143844 -4.26838e-05 -2.83092e-06 -0.000333309 -4.54719e-05 -2.18421e-06 -0.000366175 -4.33632e-05 -3.51416e-07
-0.000134081 -4.08695e-05 -2.73276e-06 -0.000328679 -4.44377e-05 -2.14113e-06 -0.000341483 -4.0355e-05 -3.27109e-07
-0.000124618 -3.89261e-05 -2.62656e-06 -0.00032129 -4.31023e-05 -2.08636e-06 -0.000317554 -3.74364e-05 -3.03544e-07
-0.000115515 -3.68559e-05 -2.51239e-06 -0.000311034 -4.14576e-05 -2.01961e-06 -0.000294607 -3.46328e-05 -2.80924e-07
-0.000106822 -3.46647e-05 -2.39054e-06 -0.00029788 -3.95031e-05 -1.94087e-06 -0.000272808 -3.1962e-05 -2.59384e-07
-9.8559e-05 -3.23589e-05 -2.26137e-06 -0.000281877 -3.7246e-05 -1.85042e-06 -0.000252235 -2.94328e-05 -2.38996e-07
-9.07086e-05 -2.9944e-05 -2.12523e-06 -0.000263161 -3.47017e-05 -1.74888e-06 -0.00023288 -2.70454e-05 -2.19763e-07
-8.32054e-05 -2.74231e-05 -1.98238e-06 -0.000241951 -3.18938e-05 -1.63716e-06 -0.000214659 -2.47919e-05 -2.01624e-07
-7.59461e-05 -2.4798e-05 -1.83303e-06 -0.00021854 -2.88532e-05 -1.51644e-06 -0.000197444 -2.26572e-05 -1.84457e-07
-6.88044e-05 -2.20704e-05 -1.67742e-06 -0.000193281 -2.56163e-05 -1.38815e-06 -0.000181061 -2.062e-05 -1.68086e-07
-6.1648e-05 -1.92443e-05 -1.51594e-06 -0.000166571 -2.22239e-05 -1.25384e-06 -0.000165296 -1.86542e-05 -1.52295e-07
-5.43563e-05 -1.63277e-05 -1.34918e-06 -0.000138832 -1.87193e-05 -1.11518e-06 -0.000149891 -1.67297e-05 -1.36839e-07
-4.68362e-05 -1.3334e-05 -1.17805e-06 -0.000110498 -1.51467e-05 -9.73872e-07 -0.000134567 -1.48141e-05 -1.21457e-07
-3.90274e-05 -1.02822e-05 -1.00376e-06 -8.19942e-05 -1.15499e-05 -8.31595e-07 -0.000119042 -1.28743e-05 -1.05883e-07
-3.08944e-05 -7.19501e-06 -8.27711e-07 -5.37369e-05 -7.97124e-06 -6.89985e-07 -0.000103043 -1.08781e-05 -8.98536e-08
-2.24185e-05 -4.09643e-06 -6.51362e-07 -2.61207e-05 -4.45159e-06 -5.50607e-07 -8.63172e-05 -8.79493e-06 -7.31188e-08
-1.35493e-05 -1.03492e-06 -4.80261e-07 4.8286e-07 -1.02403e-06 -4.1424e-07 -6.86137e-05 -6.59419e-06 -5.54149e-08
-7.70421e-06 1.99335e-06 -3.21089e-07 2.28697e-05 2.40073e-06 -2.85587e-07 -4.94453e-05 -4.2192e-06 -3.6265e-08
-4.82595e-06 5.00881e-06 -1.67692e-07 4.05208e-05 5.80735e-06 -1.63149e-07 -2.87931e-05 -1.67279e-06 -1.57667e-08
-1.13296e-06 7.9306e-06 -1.90726e-08 5.65155e-05 9.02299e-06 -4.72231e-08 -7.52879e-06 9.16483e-07 4.58926e-09
1.50798e-06 1.02151e-05 9.4964e-08 7.21978e-05 1.21518e-05 6.52568e-08 1.01376e-05 3.87948e-06 2.5094e-08
4.28491e-06 1.23326e-05 2.03479e-07 8.65937e-05 1.50297e-05 1.69155e-07 2.84292e-05 6.98198e-06 4.63086e-08
6.71837e-06 1.42505e-05 2.99842e-07 9.90324e-05 1.76369e-05 2.63245e-07 4.76289e-05 1.02708e-05 6.90633e-08
9.22969e-06 1.59736e-05 3.86171e-07 0.000109037 1.99861e-05 3.48564e-07 6.81846e-05 1.37115e-05 9.27102e-08
1.23251e-05 1.74854e-05 4.61409e-07 0.000116909 2.2054e-05 4.23587e-07 8.99539e-05 1.73062e-05 1.17486e-07
1.56936e-05 1.87993e-05 5.26111e-07 0.000122849 2.38256e-05 4.88289e-07 0.000112592 2.10278e-05 1.43097e-07
1.91187e-05 1.99282e-05 5.80747e-07 0.000126874 2.52924e-05 5.42329e-07 0.000135671 2.48516e-05 1.69459e-07
2.28314e-05 2.08794e-05 6.25817e-07 0.000128873 2.64678e-05 5.86079e-07 0.000158988 2.8737e-05 1.96287e-07
2.69502e-05 2.16686e-05 6.62206e-07 0.000128861 2.73649e-05 6.19923e-07 0.000182516 3.26432e-05 2.23279e-07
3.13499e-05 2.23224e-05 6.91236e-07 0.000127049 2.79923e-05 6.44204e-07 0.000206142 3.65284e-05 2.50109e-07
3.59937e-05 2.28691e-05 7.14305e-07 0.000123727 2.83636e-05 6.59452e-07 0.000229496 4.03449e-05 2.76449e-07
4.09635e-05 2.3336e-05 7.3289e-07 0.000119119 2.85023e-05 6.66441e-07 0.000252066 4.40383e-05 3.01955e-07
4.62711e-05 2.37542e-05 7.48615e-07 0.000113386 2.8437e-05 6.66151e-07 0.000273442 4.75516e-05 3.26247e-07
5.18508e-05 2.41561e-05 7.63181e-07 0.000106758 2.81979e-05 6.59636e-07 0.000293371 5.08293e-05 3.48926e-07
5.7669e-05 2.45728e-05 7.78225e-07 9.95701e-05 2.78167e-05 6.48009e-07 0.000311631 5.38172e-05 3.69594e-07
6.37142e-05 2.50337e-05 7.95335e-07 9.21707e-05 2.73279e-05 6.32467e-07 0.000327899 5.64623e-05 3.87879e-07
6.99411e-05 2.55681e-05 8.1608e-07 8.4856e-05 2.67681e-05 6.14281e-07 0.000341773 5.87126e-05 4.03434e-07
7.62866e-05 2.62035e-05 8.41945e-07 7.78975e-05 2.61745e-05 5.94754e-07 0.000352892 6.05203e-05 4.15941e-07
8.26974e-05 2.69642e-05 8.74246e-07 7.15896e-05 2.55837e-05 5.7516e-07 0.000361016 6.18443e-05 4.25109e-07
8.9116e-05 2.78692e-05 9.14062e-07 6.62365e-05 2.5031e-05 5.56728e-07 0.000365991 6.26508e-05 4.30693e-07
9.54636e-05 2.89327e-05 9.62199e-07 6.21105e-05 2.45499e-05 5.40636e-07 0.000367683 6.29136e-05 4.32505e-07
0.000101651 3.01628e-05 1.01918e-06 5.94289e-05 2.417e-05 5.27911e-07 0.000365688 6.25574e-05 4.2997e-07
0.000107586 3.15618e-05 1.08524e-06 5.84035e-05 2.39159e-05 5.19359e-07 0.000359751 6.15575e-05 4.22946e-07
0.000113195 3.3127e-05 1.16032e-06 5.91984e-05 2.38111e-05 5.15862e-07 0.000349808 5.99135e-05 4.11415e-07
0.000118406 3.48524e-05 1.24417e-06 6.19173e-05 2.38726e-05 5.17994e-07 0.000335987 5.76427e-05 3.95502e-07
0.00012317 3.67288e-05 1.33639e-06 6.65856e-05 2.4112e-05 5.26174e-07 0.000318545 5.4774e-05 3.75394e-07
0.000127464 3.8745e-05 1.43641e-06 7.31728e-05 2.45341e-05 5.40576e-07 0.000297769 5.13496e-05 3.51382e-07
0.00013129 4.08884e-05 1.54357e-06 8.15999e-05 2.51362e-05 5.61128e-07 0.000273952 4.74236e-05 3.2385e-07
0.000134674 4.31451e-05 1.65712e-06 9.17313e-05 2.59091e-05 5.87534e-07 0.000247441 4.30614e-05 2.93264e-07
0.000137666 4.55001e-05 1.77623e-06 0.000103371 2.68378e-05 6.19289e-07 0.000218686 3.83386e-05 2.60155e-07
0.000140331 4.79364e-05 1.89993e-06 0.00011627 2.79023e-05 6.55731e-07 0.000188231 3.33392e-05 2.25108e-07
0.000142741 5.04341e-05 2.02711e-06 0.000130148 2.90792e-05 6.96056e-07 0.00015666 2.81541e-05 1.88753e-07
0.000144969 5.29708e-05 2.15652e-06 0.000144706 3.03417e-05 7.39362e-07 0.000124555 2.28785e-05 1.51759e-07
0.000147083 5.55212e-05 2.28677e-06 0.000159635 3.16614e-05 7.84687e-07 9.24887e-05 1.76106e-05 1.14818e-07
0.000149145 5.8058e-05 2.41635e-06 0.000174618 3.30094e-05 8.31044e-07 6.10461e-05 1.24491e-05 7.86228e-08
0.000151212 6.05529e-05 2.54375e-06 0.00018934 3.43569e-05 8.77455e-07 3.08268e-05 7.49106e-06 4.38544e-08
0.000153334 6.29775e-05 2.66742e-06 0.000203496 3.5676e-05 9.22972e-07 2.42003e-06 2.83052e-06 1.1168e-08
0.000155553 6.53026e-05 2.78578e-06 0.000216853 3.69538e-05 9.67236e-07 -2.48217e-05 -7.78476e-07 -1.59175e-08
0.000157943 6.75037e-05 2.89739e-06 0.000228979 3.81688e-05 1.00971e-06 -4.95725e-05 -3.7469e-06 -3.98171e-08
0.000160466 6.95616e-05 3.00156e-06 0.000239741 3.92784e-05 1.04823e-06 -7.06146e-05 -6.28884e-06 -6.02353e-08
0.00016322 7.14568e-05 3.09691e-06 0.000249006 4.02703e-05 1.08303e-06 -8.78701e-05 -8.37269e-06 -7.70234e-08
0.000166164 7.31755e-05 3.18288e-06 0.00025673 4.11255e-05 1.11314e-06 -0.000101224 -9.96133e-06 -8.97492e-08
0.000169338 7.47069e-05 3.25882e-06 0.00026271 4.184e-05 1.13856e-06 -0.000110302 -1.10251e-05 -9.82435e-08
0.000172754 7.60453e-05 3.32446e-06 0.000266825 4.24124e-05 1.15917e-06 -0.000114716 -1.154e-05 -1.02376e-07
0.000176408 7.71894e-05 3.37974e-06 0.000269092 4.28438e-05 1.17502e-06 -0.000114198 -1.14779e-05 -1.01918e-07
0.000180286 7.81419e-05 3.42478e-06 0.000269615 4.31433e-05 1.18648e-06 -0.000108593 -1.08049e-05 -9.65435e-08
0.000184368 7.89096e-05 3.45996e-06 0.000268484 4.33222e-05 1.19396e-06 -9.80487e-05 -9.52967e-06 -8.62816e-08
0.000188616 7.95021e-05 3.48584e-06 0.000265816 4.33978e-05 1.19801e-06 -8.27592e-05 -7.67652e-06 -7.13311e-08
0.000192985 7.99318e-05 3.50311e-06 0.000261782 4.33917e-05 1.19941e-06 -6.29331e-05 -5.27729e-06 -5.197e-08
0.000197422 8.02153e-05 3.51269e-06 0.000256624 4.33275e-05 1.19895e-06 -3.88759e-05 -2.37287e-06 -2.85425e-08
0.000201884 8.03733e-05 3.51563e-06 0.000250605 4.32317e-05 1.19756e-06 -1.09796e-05 9.7916e-07 -1.49524e-09
0.000206328 8.04337e-05 3.51337e-06 0.000243945 4.31189e-05 1.19571e-06 1.45175e-05 5.14585e-06 2.74267e-08
0.000210709 8.04161e-05 3.50723e-06 0.000237043 4.30255e-05 1.19447e-06 4.17606e-05 9.66409e-06 5.89253e-08
0.000214991 8.03535e-05 3.49872e-06 0.000230064 4.2986e-05 1.19546e-06 7.07885e-05 1.4486e-05 9.24863e-08
0.000219108 8.02779e-05 3.48975e-06 0.000223336 4.30288e-05 1.19931e-06 0.000101359 1.95335e-05 1.27595e-07
0.000222913 8.01974e-05 3.4811e-06 0.000217182 4.31916e-05 1.20744e-06 0.000133017 2.47273e-05 1.63676e-07
0.000223632 7.96142e-05 3.45071e-06 0.000212946 4.36204e-05 1.22402e-06 0.000164792 2.9958e-05 2.00098e-07
0.000224896 7.91321e-05 3.42175e-06 0.000209534 4.41889e-05 1.24721e-06 0.000196664 3.52074e-05 2.3649e-07
0.000225471 7.87996e-05 3.40196e-06 0.000207517 4.49023e-05 1.27462e-06 0.000227902 4.03923e-05 2.72536e-07
0.00022624 7.86097e-05 3.3893e-06 0.000206642 4.58031e-05 1.30897e-06 0.000258342 4.54462e-05 3.07641e-07
0.000227115 7.85809e-05 3.38544e-06 0.000207125 4.68902e-05 1.34956e-06 0.000287714 5.03119e-05 3.41436e-07
0.000227835 7.87347e-05 3.39117e-06 0.000209145 4.81607e-05 1.39658e-06 0.000315731 5.4944e-05 3.73585e-07
0.000228403 7.90789e-05 3.40691e-06 0.000212841 4.96115e-05 1.44993e-06 0.000342012 5.92973e-05 4.03773e-07
0.000228965 7.96113e-05 3.43269e-06 0.000218193 5.12415e-05 1.50943e-06 0.000366238 6.33337e-05 4.31773e-07
0.0002295 8.03307e-05 3.46842e-06 0.000225077 5.30445e-05 1.57488e-06 0.000388272 6.7022e-05 4.57357e-07
0.00023026 8.11673e-05 3.51197e-06 0.000233218 5.4983e-05 1.64519e-06 0.000408141 7.0349e-05 4.80408e-07
0.000230268 8.21497e-05 3.56185e-06 0.000242598 5.70413e-05 1.71986e-06 0.000425809 7.33041e-05 5.00832e-07
0.000230098 8.32925e-05 3.62178e-06 0.000253271 5.91964e-05 1.79726e-06 0.000441151 7.58813e-05 5.18647e-07
0.000230472 8.45404e-05 3.68605e-06 0.000265033 6.14544e-05 1.87818e-06 0.000454079 7.80719e-05 5.33806e-07
0.000230491 8.58924e-05 3.75629e-06 0.000277705 6.37807e-05 1.96136e-06 0.0004647 7.98841e-05 5.46303e-07
0.000229899 8.72743e-05 3.82795e-06 0.000291212 6.61567e-05 2.04628e-06 0.000473126 8.13374e-05 5.56316e-07
0.000210339 8.59764e-05 3.81659e-06 0.0575703 0.00338494 9.97727e-07 0.000456259 7.99975e-05 5.54342e-07
0.000279269 7.39712e-05 3.43586e-06 0.190204 0.0110247 9.52095e-07 0.000342369 6.41887e-05 4.67366e-07
0.000316004 7.34369e-05 3.44191e-06 0.204963 0.0118532 7.12064e-07 0.000383178 6.8663e-05 4.89813e-07
0.000237251 7.69176e-05 3.58163e-06 0.214003 0.0123809 8.25128e-07 0.000378873 6.86079e-05 4.87589e-07
0.000221062 7.88282e-05 3.68768e-06 0.216885 0.0125635 9.82046e-07 0.000344116 6.58155e-05 4.79488e-07
0.000263399 7.8547e-05 3.71089e-06 0.228397 0.0132315 1.04477e-06 0.000327345 6.35921e-05 4.69482e-07
0.000264261 7.90763e-05 3.75539e-06 0.244932 0.014175 1.0075e-06 0.000336649 6.32211e-05 4.61801e-07
0.000237567 8.0269e-05 3.82184e-06 0.26138 0.0151147 9.82122e-07 0.000338197 6.28325e-05 4.55524e-07
0.000236439 8.09567e-05 3.87452e-06 0.274305 0.0158629 1.04377e-06 0.000316967 6.10792e-05 4.47194e-07
0.000245168 8.14748e-05 3.92236e-06 0.284495 0.0164583 1.14111e-06 0.000293487 5.90101e-05 4.39145e-07
0.000237647 8.22086e-05 3.97294e-06 0.295315 0.0170844 1.19906e-06 0.000287935 5.79223e-05 4.33078e-07
0.000227322 8.26869e-05 4.01052e-06 0.308423 0.0178359 1.20553e-06 0.000293944 5.78029e-05 4.30256e-07
0.000227617 8.27562e-05 4.03191e-06 0.321685 0.0185971 1.21485e-06 0.000294847 5.78825e-05 4.30429e-07
0.000228152 8.2865e-05 4.05315e-06 0.332412 0.019217 1.25743e-06 0.000287957 5.79309e-05 4.3349e-07
0.000222554 8.31291e-05 4.07692e-06 0.340618 0.0196933 1.31307e-06 0.000284622 5.84105e-05 4.39825e-07
0.000218001 8.32244e-05 4.09095e-06 0.347865 0.0201126 1.35049e-06 0.000293234 5.97733e-05 4.5015e-07
0.000217679 8.30113e-05 4.0901e-06 0.355058 0.0205265 1.36592e-06 0.000310036 6.19494e-05 4.64677e-07
0.000217477 8.26723e-05 4.07935e-06 0.360558 0.0208429 1.36051e-06 0.000327304 6.46446e-05 4.83044e-07
0.000215254 8.22632e-05 4.05618e-06 0.363597 0.0210196 1.36852e-06 0.00034232 6.75371e-05 5.02742e-07
0.000212731 8.17474e-05 4.02947e-06 0.36498 0.0211014 1.38173e-06 0.000359911 7.10493e-05 5.28149e-07
0.000212477 8.09543e-05 3.99008e-06 0.365738 0.021146 1.38776e-06 0.000384685 7.51877e-05 5.568e-07
0.000212553 7.99015e-05 3.93526e-06 0.36598 0.0211599 1.38729e-06 0.000415878 7.98681e-05 5.87886e-07
0.000211148 7.86623e-05 3.87085e-06 0.365733 0.0211453 1.37963e-06 0.000442755 8.38061e-05 6.0822e-07
0.000210129 7.71779e-05 3.79485e-06 0.36514 0.0211105 1.359e-06 0.000462895 8.72067e-05 6.20531e-07
0.000210225 7.5422e-05 3.70461e-06 0.364338 0.0210635 1.33361e-06 0.000476484 8.91469e-05 6.27405e-07
0.00020986 7.356e-05 3.60599e-06 0.362199 0.0209383 1.30491e-06 0.000483129 8.95939e-05 6.28756e-07
0.000207509 7.16743e-05 3.50376e-06 0.357803 0.020683 1.27673e-06 0.000486222 8.99482e-05 6.30209e-07
0.000204711 6.96438e-05 3.39298e-06 0.352584 0.0203807 1.25125e-06 0.000487852 9.02576e-05 6.3166e-07
0.0002028 6.7459e-05 3.2748e-06 0.346784 0.0200449 1.22485e-06 0.000491735 9.06293e-05 6.33071e-07
0.000200548 6.51517e-05 3.15012e-06 0.340664 0.0196905 1.19532e-06 0.000498875 9.10933e-05 6.34431e-07
0.00019732 6.2767e-05 3.02081e-06 0.334162 0.0193141 1.1636e-06 0.000506677 9.157e-05 6.35743e-07
0.000193474 6.03147e-05 2.88789e-06 0.327268 0.0189152 1.13105e-06 0.000511923 9.19574e-05 6.37002e-07
0.000189433 5.78019e-05 2.75202e-06 0.320079 0.0185001 1.10109e-06 0.000514563 9.22472e-05 6.38169e-07
0.000184778 5.52372e-05 2.61395e-06 0.312842 0.0180823 1.07196e-06 0.000516997 9.25095e-05 6.39216e-07
0.000179456 5.26282e-05 2.47413e-06 0.305769 0.0176739 1.0421e-06 0.000521126 9.28002e-05 6.40125e-07
0.000173627 4.99792e-05 2.33304e-06 0.298988 0.0172821 1.01132e-06 0.000526157 9.30924e-05 6.40883e-07
0.000167281 4.73087e-05 2.19166e-06 0.292514 0.0169079 9.80944e-07 0.000530046 9.33204e-05 6.41482e-07
0.000160285 4.46379e-05 2.05104e-06 0.286336 0.0165509 9.52048e-07 0.000531853 9.34531e-05 6.41907e-07
0.000152678 4.19797e-05 1.91187e-06 0.280495 0.0162133 9.24348e-07 0.000532437 9.35155e-05 6.42147e-07
0.000144606 3.9345e-05 1.7748e-06 0.275048 0.0158984 8.9707e-07 0.000532722 9.34566e-05 6.41256e-07
0.000133973 3.61281e-05 1.60848e-06 0.268708 0.0155316 8.62086e-07 0.000528931 9.24147e-05 6.33015e-07
0.000122699 3.30416e-05 1.44981e-06 0.262752 0.0151868 8.26382e-07 0.000516975 9.01176e-05 6.16096e-07
0.000111066 3.01122e-05 1.29987e-06 0.257083 0.0148584 7.89851e-07 0.00049574 8.66001e-05 5.90992e-07
9.92715e-05 2.73453e-05 1.15877e-06 0.251614 0.0145414 7.51661e-07 0.000467566 8.19353e-05 5.57868e-07
8.73154e-05 2.4724e-05 1.02541e-06 0.246229 0.014229 7.11336e-07 0.000434285 7.6225e-05 5.17229e-07
7.52013e-05 2.22098e-05 8.97638e-07 0.240781 0.0139129 6.68793e-07 0.00039564 6.95747e-05 4.69959e-07
6.29231e-05 1.97567e-05 7.7288e-07 0.235121 0.0135844 6.23565e-07 0.000351332 6.21164e-05 4.17144e-07
5.04937e-05 1.73233e-05 6.4877e-07 0.229102 0.013235 5.74961e-07 0.00030278 5.40067e-05 3.59784e-07
3.79994e-05 1.48769e-05 5.2337e-07 0.222555 0.012855 5.22518e-07 0.000251866 4.54142e-05 2.98903e-07
2.47542e-05 1.26241e-05 4.28489e-07 0.215314 0.0124347 4.60386e-07 0.000199307 3.64977e-05 2.35923e-07
2.02243e-05 1.10831e-05 3.49204e-07 0.20684 0.0119433 3.95076e-07 0.000146491 2.74984e-05 1.72197e-07
1.17392e-05 9.81751e-06 2.74826e-07 0.196968 0.0113712 3.2814e-07 9.3792e-05 1.85145e-05 1.08108e-07
5.20666e-06 8.34678e-06 1.89278e-07 0.186219 0.0107484 2.56033e-07 4.15947e-05 9.63958e-06 4.48366e-08
9.58397e-08 6.5981e-06 8.93846e-08 0.174781 0.0100857 1.79996e-07 -4.53893e-06 1.86424e-06 -4.16378e-09
-6.96874e-06 4.63686e-06 -2.4817e-08 0.162728 0.00938772 1.07177e-07 -3.97942e-05 -2.31835e-06 -3.7138e-08
-1.35381e-05 2.4532e-06 -1.49992e-07 0.149692 0.00863311 2.79966e-08 -6.80674e-05 -5.99698e-06 -6.71803e-08
-2.04068e-05 1.11069e-07 -2.87914e-07 0.135832 0.0078309 -5.30454e-08 -9.40918e-05 -9.49447e-06 -9.62355e-08
-3.04025e-05 -1.98111e-06 -4.28918e-07 0.121395 0.00699525 -1.38872e-07 -0.000122115 -1.29097e-05 -1.2356e-07
-3.92831e-05 -4.26151e-06 -5.8031e-07 0.106304 0.0061218 -2.28318e-07 -0.00014914 -1.61395e-05 -1.4934e-07
-4.90129e-05 -6.59974e-06 -7.30971e-07 0.0905796 0.00521193 -3.16396e-07 -0.000172383 -1.91149e-05 -1.73861e-07
-5.89927e-05 -9.02001e-06 -8.85336e-07 0.0742694 0.00426823 -4.07875e-07 -0.000192567 -2.18566e-05 -1.97091e-07
-6.81841e-05 -1.15204e-05 -1.04651e-06 0.0575314 0.00329981 -5.00351e-07 -0.000212266 -2.4444e-05 -2.1881e-07
-7.76796e-05 -1.4048e-05 -1.20994e-06 0.0404489 0.00231183 -5.94916e-07 -0.00023169 -2.68958e-05 -2.39177e-07
-8.7614e-05 -1.68631e-05 -1.38424e-06 0.0271938 0.00156529 -7.17519e-07 -0.000252386 -2.94412e-05 -2.59473e-07
-9.45207e-05 -1.97189e-05 -1.56092e-06 0.0145835 0.000854587 -8.43525e-07 -0.000269492 -3.1753e-05 -2.78814e-07
-0.000103548 -2.24731e-05 -1.73271e-06 0.00180926 0.000133025 -9.6448e-07 -0.000286054 -3.39815e-05 -2.97486e-07
-0.000113959 -2.58564e-05 -1.92626e-06 -9.02078e-05 2.10559e-05 -1.16012e-06 -0.000311315 -3.68607e-05 -3.18414e-07
-0.000116502 -2.92449e-05 -2.11953e-06 -0.000195866 8.78527e-06 -1.35925e-06 -0.000331881 -3.94384e-05 -3.3868e-07
-0.000125487 -3.23413e-05 -2.29697e-06 -0.000250971 -1.03834e-07 -1.54584e-06 -0.000352538 -4.20244e-05 -3.58938e-07
-0.000133624 -3.52213e-05 -2.46086e-06 -0.000294688 -6.9873e-06 -1.71223e-06 -0.000375752 -4.47737e-05 -3.79595e-07
-0.000138607 -3.78985e-05 -2.61191e-06 -0.000322256 -1.2752e-05 -1.86333e-06 -0.000398901 -4.75321e-05 -4.00395e-07
-0.000145701 -4.02356e-05 -2.74385e-06 -0.000335672 -1.78658e-05 -2.00056e-06 -0.000420884 -5.02237e-05 -4.21247e-07
-0.000152623 -4.22594e-05 -2.85706e-06 -0.00034567 -2.20738e-05 -2.11689e-06 -0.000443803 -5.29717e-05 -4.42334e-07
-0.000158128 -4.39867e-05 -2.952e-06 -0.000355035 -2.53238e-05 -2.21008e-06 -0.000467808 -5.57954e-05 -4.63674e-07
-0.000164218 -4.5383e-05 -3.02753e-06 -0.000359013 -2.78742e-05 -2.28339e-06 -0.000491214 -5.85886e-05 -4.85017e-07
-0.000170363 -4.6477e-05 -3.08509e-06 -0.000357164 -2.97663e-05 -2.33733e-06 -0.000513989 -6.13229e-05 -5.06097e-07
-0.000175997 -4.73052e-05 -3.12645e-06 -0.00035358 -3.08965e-05 -2.37027e-06 -0.000536864 -6.40199e-05 -5.2671e-07
-0.000181782 -4.78854e-05 -3.15291e-06 -0.000349007 -3.13199e-05 -2.38342e-06 -0.000559195 -6.66308e-05 -5.46571e-07
-0.000187604 -4.82547e-05 -3.16673e-06 -0.000341434 -3.11771e-05 -2.37973e-06 -0.000579863 -6.90707e-05 -5.65269e-07
-0.000193216 -4.84517e-05 -3.17005e-06 -0.000330636 -3.05799e-05 -2.36119e-06 -0.000598644 -7.12928e-05 -5.82361e-07
-0.000198743 -4.85068e-05 -3.16481e-06 -0.00031764 -2.96299e-05 -2.32918e-06 -0.000615542 -7.32662e-05 -5.97462e-07
-0.000204075 -4.84578e-05 -3.15352e-06 -0.000302967 -2.83996e-05 -2.28665e-06 -0.000629933 -7.49314e-05 -6.10154e-07
-0.000209094 -4.8356e-05 -3.13936e-06 -0.000286707 -2.69753e-05 -2.23704e-06 -0.000640999 -7.62182e-05 -6.20021e-07
-0.000213943 -4.82559e-05 -3.12555e-06 -0.000269619 -2.53999e-05 -2.18224e-06 -0.000643652 -7.63984e-05 -6.22813e-07
-0.000218484 -4.82011e-05 -3.11503e-06 -0.00025352 -2.3771e-05 -2.1249e-06 -0.000642846 -7.63739e-05 -6.23046e-07
-0.000222936 -4.82424e-05 -3.11048e-06 -0.000238283 -2.21909e-05 -2.06985e-06 -0.0006405 -7.61099e-05 -6.20956e-07
-0.000227287 -4.84429e-05 -3.11591e-06 -0.000224098 -2.06728e-05 -2.01651e-06 -0.000632649 -7.50108e-05 -6.11806e-07
-0.000231719 -4.88493e-05 -3.13371e-06 -0.000212308 -1.92655e-05 -1.96686e-06 -0.000616457 -7.29594e-05 -5.95022e-07
-0.000236271 -4.94433e-05 -3.1643e-06 -0.000203309 -1.79851e-05 -1.92122e-06 -0.000591289 -6.99639e-05 -5.71021e-07
-0.000240696 -5.02791e-05 -3.20913e-06 -0.000196993 -1.68843e-05 -1.88147e-06 -0.000558705 -6.60743e-05 -5.3978e-07
-0.000245416 -5.13609e-05 -3.26826e-06 -0.000193618 -1.59856e-05 -1.8472e-06 -0.000520203 -6.13701e-05 -5.01707e-07
-0.000250527 -5.26821e-05 -3.34085e-06 -0.000193552 -1.53194e-05 -1.82022e-06 -0.000475711 -5.59192e-05 -4.57499e-07
-0.000255544 -5.4234e-05 -3.42751e-06 -0.000196933 -1.48795e-05 -1.79976e-06 -0.000425214 -4.98113e-05 -4.0818e-07
-0.000260756 -5.59781e-05 -3.52566e-06 -0.000203465 -1.46751e-05 -1.7865e-06 -0.000369973 -4.31692e-05 -3.54634e-07
-0.000266007 -5.78757e-05 -3.63319e-06 -0.000212691 -1.46898e-05 -1.77992e-06 -0.000311879 -3.61468e-05 -2.97919e-07
-0.000271111 -5.98815e-05 -3.74739e-06 -0.000224188 -1.4896e-05 -1.77948e-06 -0.000252178 -2.88985e-05 -2.3926e-07
-0.000276056 -6.19408e-05 -3.86513e-06 -0.000237469 -1.52613e-05 -1.78431e-06 -0.000191692 -2.15771e-05 -1.80061e-07
-0.000280737 -6.3998e-05 -3.98315e-06 -0.000251833 -1.57486e-05 -1.79352e-06 -0.000131692 -1.43469e-05 -1.21687e-07
-0.000285028 -6.59967e-05 -4.09818e-06 -0.000266581 -1.63174e-05 -1.806e-06 -7.39365e-05 -7.38312e-06 -6.54465e-08
-0.000288883 -6.78805e-05 -4.20689e-06 -0.000281113 -1.6927e-05 -1.82056e-06 -1.99496e-05 -8.53979e-07 -1.2648e-08
-0.000292153 -6.95777e-05 -4.30512e-06 -0.000295622 -1.76495e-05 -1.84038e-06 1.52122e-05 3.27032e-06 1.67436e-08
-0.000295006 -7.10586e-05 -4.39026e-06 -0.000307758 -1.83799e-05 -1.8631e-06 3.50699e-05 6.66497e-06 3.98736e-08
-0.000297154 -7.22911e-05 -4.46236e-06 -0.000318065 -1.90104e-05 -1.8816e-06 5.07423e-05 9.53794e-06 5.94631e-08
-0.000298734 -7.32428e-05 -4.51762e-06 -0.000326786 -1.95057e-05 -1.89666e-06 6.54342e-05 1.18625e-05 7.49944e-08
-0.0002996 -7.38928e-05 -4.55569e-06 -0.00033318 -1.98418e-05 -1.90672e-06 7.83583e-05 1.35919e-05 8.6184e-08
-0.000299628 -7.41889e-05 -4.57344e-06 -0.000336577 -2.00286e-05 -1.91224e-06 8.54134e-05 1.46381e-05 9.31017e-08
-0.000298561 -7.40577e-05 -4.56673e-06 -0.000337185 -2.00556e-05 -1.91284e-06 8.62757e-05 1.49814e-05 9.56565e-08
-0.000296121 -7.34746e-05 -4.53445e-06 -0.000335179 -1.98973e-05 -1.9075e-06 8.18194e-05 1.43102e-05 9.09758e-08
-0.000292428 -7.24519e-05 -4.4769e-06 -0.000330273 -1.9576e-05 -1.89763e-06 7.14417e-05 1.24304e-05 7.76768e-08
-0.000287731 -7.10162e-05 -4.39581e-06 -0.000322316 -1.90987e-05 -1.88312e-06 5.34325e-05 9.38456e-06 5.62505e-08
-0.000282111 -6.92124e-05 -4.2936e-06 -0.000311607 -1.8472e-05 -1.86437e-06 2.77078e-05 5.24948e-06 2.73861e-08
-0.000275738 -6.71e-05 -4.17364e-06 -0.000298479 -1.77004e-05 -1.84157e-06 -5.4877e-06 8.23642e-07 -5.70497e-09
-0.000268885 -6.47512e-05 -4.04011e-06 -0.000283101 -1.67691e-05 -1.81374e-06 -4.31993e-05 -3.73112e-06 -4.24346e-08
-0.000261803 -6.22348e-05 -3.89666e-06 -0.000265931 -1.57472e-05 -1.78436e-06 -8.45684e-05 -8.75739e-06 -8.2748e-08
-0.000254601 -5.96229e-05 -3.7477e-06 -0.000247298 -1.46618e-05 -1.75361e-06 -0.000129726 -1.42012e-05 -1.26381e-07
-0.000247439 -5.69741e-05 -3.59645e-06 -0.000227801 -1.35626e-05 -1.72365e-06 -0.000177879 -1.99277e-05 -1.72016e-07
-0.000240243 -5.43325e-05 -3.4457e-06 -0.000208336 -1.24982e-05 -1.69575e-06 -0.000226752 -2.5776e-05 -2.18729e-07
-0.000232846 -5.17202e-05 -3.29689e-06 -0.000189797 -1.15326e-05 -1.67183e-06 -0.000274971 -3.15983e-05 -2.65386e-07
-0.000225014 -4.91437e-05 -3.1507e-06 -0.000173116 -1.07352e-05 -1.6537e-06 -0.000321904 -3.72661e-05 -3.10797e-07
-0.000216502 -4.66048e-05 -3.00749e-06 -0.000159271 -1.01697e-05 -1.64283e-06 -0.000366852 -4.26573e-05 -3.53867e-07
-0.000207137 -4.41087e-05 -2.86778e-06 -0.000149134 -9.8848e-06 -1.64017e-06 -0.000408475 -4.76469e-05 -3.93699e-07
-0.000196846 -4.16661e-05 -2.73227e-06 -0.000143255 -9.90747e-06 -1.64616e-06 -0.000445611 -5.21267e-05 -4.29529e-07
-0.000185607 -3.9285e-05 -2.60147e-06 -0.000141786 -1.02404e-05 -1.66064e-06 -0.000477729 -5.60177e-05 -4.60678e-07
-0.000173403 -3.6963e-05 -2.47528e-06 -0.000144527 -1.08612e-05 -1.68295e-06 -0.000504601 -5.92639e-05 -4.86613e-07
-0.000160224 -3.46875e-05 -2.35294e-06 -0.000150966 -1.17232e-05 -1.71187e-06 -0.000525846 -6.18236e-05 -5.07016e-07
-0.000146072 -3.24379e-05 -2.23322e-06 -0.000160338 -1.276e-05 -1.74565e-06 -0.000541104 -6.36728e-05 -5.21756e-07
-0.000130968 -3.01856e-05 -2.11439e-06 -0.000171705 -1.38925e-05 -1.78208e-06 -0.000550366 -6.48117e-05 -5.30844e-07
-0.000114922 -2.7892e-05 -1.99411e-06 -0.000184067 -1.50343e-05 -1.81858e-06 -0.000553947 -6.52625e-05 -5.34415e-07
-9.79188e-05 -2.55077e-05 -1.86946e-06 -0.000196418 -1.60943e-05 -1.85222e-06 -0.000551948 -6.50252e-05 -5.32401e-07
-7.99415e-05 -2.29784e-05 -1.7372e-06 -0.000207788 -1.69773e-05 -1.87971e-06 -0.000544369 -6.41107e-05 -5.24926e-07
-6.10583e-05 -2.02577e-05 -1.59447e-06 -0.000217197 -1.75897e-05 -1.89783e-06 -0.000531656 -6.25838e-05 -5.1254e-07
-4.14708e-05 -1.73196e-05 -1.43951e-06 -0.000223582 -1.78337e-05 -1.9031e-06 -0.000514559 -6.05239e-05 -4.95867e-07
-2.31862e-05 -1.44538e-05 -1.2922e-06 -0.000225345 -1.75544e-05 -1.88976e-06 -0.000493895 -5.80172e-05 -4.7559e-07
-1.63202e-05 -1.29339e-05 -1.21426e-06 -0.000217393 -1.63199e-05 -1.84255e-06 -0.000470774 -5.52089e-05 -4.53177e-07
-6.71782e-06 -1.0989e-05 -1.1092e-06 -0.00020299 -1.45442e-05 -1.78122e-06 -0.000444935 -5.20393e-05 -4.27446e-07
2.4119e-06 -8.78743e-06 -9.89682e-07 -0.000182816 -1.2122e-05 -1.69869e-06 -0.000416627 -4.85861e-05 -3.99678e-07
1.1324e-05 -6.32732e-06 -8.54286e-07 -0.000154415 -8.97619e-06 -1.59676e-06 -0.000386214 -4.48671e-05 -3.69697e-07
2.06898e-05 -3.66342e-06 -7.06496e-07 -0.000114023 -4.95331e-06 -1.47595e-06 -0.000353895 -4.09052e-05 -3.37777e-07
2.96455e-05 -8.06884e-07 -5.46716e-07 -5.63219e-05 2.31382e-07 -1.33701e-06 -0.000319852 -3.6723e-05 -3.04096e-07
3.86037e-05 2.02124e-06 -3.87998e-07 3.13591e-05 7.21839e-06 -1.18259e-06 -0.000284024 -3.232e-05 -2.68638e-07
4.2239e-05 5.07447e-06 -2.24367e-07 0.000194859 1.83145e-05 -1.01805e-06 -0.000246256 -2.7678e-05 -2.31187e-07
4.38185e-05 8.25279e-06 -6.04024e-08 0.000868728 5.61115e-05 -8.43305e-07 -0.000207092 -2.2864e-05 -1.92429e-07
4.61917e-05 1.13023e-05 9.98158e-08 0.00314645 0.000177337 -6.6829e-07 -0.000167324 -1.79427e-05 -1.52418e-07
4.74473e-05 1.43298e-05 2.59352e-07 0.00571242 0.000316718 -4.90846e-07 -0.000125275 -1.27603e-05 -1.10521e-07
4.71326e-05 1.69296e-05 4.03263e-07 0.013138 0.000754619 -3.51297e-07 -8.63264e-05 -7.84154e-06 -6.94513e-08
5.17022e-05 1.88109e-05 5.21274e-07 0.0282023 0.00162845 -2.59444e-07 -5.00096e-05 -3.19722e-06 -2.96335e-08
5.66552e-05 2.04727e-05 6.28508e-07 0.0453223 0.00261762 -1.83895e-07 -1.55412e-05 1.00882e-06 4.26003e-09
5.77338e-05 2.21914e-05 7.3538e-07 0.0615216 0.00355415 -1.08354e-07 4.23834e-06 4.47307e-06 2.88452e-08
6.01673e-05 2.3744e-05 8.33185e-07 0.0771672 0.00445953 -2.518e-08 2.07812e-05 7.89172e-06 5.3411e-08
6.34355e-05 2.51362e-05 9.23273e-07 0.0924439 0.00534312 5.03371e-08 4.03741e-05 1.15799e-05 7.96861e-08
6.56313e-05 2.64342e-05 1.00717e-06 0.107188 0.00619558 1.21251e-07 6.50413e-05 1.55615e-05 1.06982e-07
6.82468e-05 2.76249e-05 1.08565e-06 0.121017 0.00699552 1.90781e-07 8.997e-05 1.97078e-05 1.35638e-07
7.13776e-05 2.87039e-05 1.15814e-06 0.133824 0.00773678 2.59014e-07 0.000113907 2.39836e-05 1.65531e-07
7.42068e-05 2.96717e-05 1.22434e-06 0.145693 0.00842358 3.21567e-07 0.000139311 2.84489e-05 1.96537e-07
7.72605e-05 3.05027e-05 1.28296e-06 0.156641 0.00905713 3.78742e-07 0.000167263 3.30854e-05 2.28297e-07
8.07424e-05 3.11698e-05 1.3275e-06 0.166539 0.00963014 4.34329e-07 0.000196176 3.78142e-05 2.60558e-07
8.35913e-05 3.17439e-05 1.36625e-06 0.175332 0.0101394 4.86245e-07 0.000224699 4.25808e-05 2.9313e-07
8.69505e-05 3.22015e-05 1.39723e-06 0.183153 0.0105925 5.33473e-07 0.00025308 4.73556e-05 3.25729e-07
9.04471e-05 3.25738e-05 1.42243e-06 0.190039 0.0109914 5.7589e-07 0.000281838 5.20939e-05 3.57897e-07
9.37622e-05 3.28851e-05 1.443e-06 0.195975 0.0113355 6.14814e-07 0.000310437 5.67293e-05 3.89244e-07
9.71187e-05 3.31322e-05 1.45914e-06 0.201058 0.0116303 6.50052e-07 0.000337847 6.11888e-05 4.19409e-07
0.000100399 3.33188e-05 1.47128e-06 0.205425 0.0118837 6.81164e-07 0.000363632 6.54156e-05 4.47999e-07
0.000103387 3.34549e-05 1.48011e-06 0.209152 0.0121 7.08482e-07 0.000387743 6.93534e-05 4.7459e-07
0.000106082 3.35454e-05 1.48614e-06 0.212316 0.0122837 7.32644e-07 0.000409927 7.29402e-05 4.98768e-07
0.000108397 3.3593e-05 1.48976e-06 0.21501 0.0124401 7.53741e-07 0.000429645 7.61191e-05 5.2019e-07
0.000110206 3.35976e-05 1.49118e-06 0.217328 0.0125748 7.71666e-07 0.00044642 7.88417e-05 5.38559e-07
0.000111445 3.35571e-05 1.49053e-06 0.219338 0.0126914 7.86613e-07 0.000460043 8.10682e-05 5.53605e-07
0.000112048 3.34692e-05 1.48777e-06 0.221077 0.0127923 7.98869e-07 0.000470445 8.27666e-05 5.65101e-07
0.000111331 3.32039e-05 1.47629e-06 0.222636 0.0128826 8.08851e-07 0.000477431 8.39085e-05 5.72864e-07
0.000109262 3.27307e-05 1.45495e-06 0.224062 0.0129651 8.16183e-07 0.000480845 8.44814e-05 5.76813e-07
0.000105967 3.20769e-05 1.42492e-06 0.225294 0.0130363 8.20612e-07 0.000480282 8.44032e-05 5.7632e-07
0.000101638 3.12986e-05 1.38876e-06 0.22617 0.0130867 8.21392e-07 0.000474323 8.33883e-05 5.69255e-07
9.66228e-05 3.04509e-05 1.34891e-06 0.226549 0.0131082 8.18027e-07 0.000462528 8.1441e-05 5.55647e-07
9.1263e-05 2.9572e-05 1.30714e-06 0.22648 0.0131036 8.07985e-07 0.000445277 7.86178e-05 5.35916e-07
8.60889e-05 2.86714e-05 1.26403e-06 0.226238 0.0130883 7.88182e-07 0.000423201 7.49692e-05 5.10385e-07
8.13604e-05 2.77681e-05 1.22035e-06 0.225803 0.0130613 7.57261e-07 0.000396988 7.05869e-05 4.79665e-07
7.71625e-05 2.68882e-05 1.17688e-06 0.224864 0.0130047 7.18365e-07 0.000367124 6.55847e-05 4.44529e-07
7.31445e-05 2.61363e-05 1.13705e-06 0.221797 0.0128252 6.8099e-07 0.000335186 6.02042e-05 4.06447e-07
6.88209e-05 2.54256e-05 1.09744e-06 0.217411 0.0125697 6.39518e-07 0.000300563 5.4385e-05 3.6532e-07
6.56305e-05 2.46783e-05 1.05483e-06 0.212082 0.0122592 5.90065e-07 0.000264407 4.82507e-05 3.21839e-07
6.28222e-05 2.39091e-05 1.00925e-06 0.205613 0.011883 5.34284e-07 0.000227483 4.19257e-05 2.7676e-07
5.98896e-05 2.31369e-05 9.61394e-07 0.197727 0.0114255 4.74919e-07 0.000189805 3.5474e-05 2.30699e-07
5.75542e-05 2.23319e-05 9.10279e-07 0.188664 0.0109002 4.11238e-07 0.000151605 2.89318e-05 1.83981e-07
5.58396e-05 2.14916e-05 8.55864e-07 0.178633 0.0103189 3.41542e-07 0.000113744 2.23865e-05 1.37076e-07
5.44401e-05 2.0627e-05 7.98666e-07 0.167722 0.00968662 2.662e-07 7.6479e-05 1.58951e-05 9.03781e-08
5.35091e-05 1.97395e-05 7.38998e-07 0.155989 0.0090068 1.87069e-07 3.96326e-05 9.47563e-06 4.41447e-08
5.29876e-05 1.8826e-05 6.76915e-07 0.143568 0.00828726 1.05235e-07 6.06545e-06 3.70212e-06 5.85946e-09
5.27623e-05 1.78562e-05 6.10578e-07 0.130848 0.00755057 2.54591e-08 -2.3079e-05 -2.09026e-07 -2.25663e-08
5.27426e-05 1.68351e-05 5.42144e-07 0.117886 0.00679986 -5.81328e-08 -4.60363e-05 -3.1321e-06 -4.64538e-08
5.26582e-05 1.57582e-05 4.70294e-07 0.104755 0.00603951 -1.40215e-07 -6.69337e-05 -5.97774e-06 -7.04439e-08
5.20166e-05 1.46087e-05 3.95134e-07 0.09166 0.00528121 -2.22737e-07 -8.95571e-05 -8.85195e-06 -9.40078e-08
5.09023e-05 1.33484e-05 3.14959e-07 0.0788516 0.0045394 -3.03983e-07 -0.000113774 -1.17659e-05 -1.17432e-07
4.89803e-05 1.19632e-05 2.29509e-07 0.0664831 0.00382303 -3.82859e-07 -0.000137265 -1.46633e-05 -1.40912e-07
4.6053e-05 1.044e-05 1.38319e-07 0.054697 0.0031404 -4.58121e-07 -0.000159547 -1.75393e-05 -1.6459e-07
4.20877e-05 8.76632e-06 4.10402e-08 0.0436346 0.00249961 -5.29574e-07 -0.000182321 -2.04428e-05 -1.88336e-07
3.6828e-05 6.86502e-06 -6.50038e-08 0.0343219 0.00196565 -6.04362e-07 -0.000207112 -2.34487e-05 -2.12249e-07
3.15174e-05 4.75079e-06 -1.78866e-07 0.0266253 0.00152653 -6.7795e-07 -0.000232121 -2.64744e-05 -2.362e-07
2.4034e-05 2.52072e-06 -2.98682e-07 0.0197076 0.00113174 -7.44732e-07 -0.000256238 -2.9457e-05 -2.60021e-07
1.23955e-05 3.98056e-07 -4.21806e-07 0.0134787 0.000776312 -8.04626e-07 -0.000280146 -3.24081e-05 -2.83489e-07
5.26002e-07 -1.754e-06 -5.45086e-07 0.00809043 0.000468763 -8.58108e-07 -0.000304305 -3.53301e-05 -3.06468e-07
-1.1972e-05 -3.99686e-06 -6.70348e-07 0.00342962 0.000202448 -9.06006e-07 -0.000327718 -3.81482e-05 -3.28645e-07
-2.11474e-05 -5.77712e-06 -7.82062e-07 0.000485254 3.30739e-05 -9.65764e-07 -0.00035001 -4.08295e-05 -3.49704e-07
-3.00101e-05 -7.66111e-06 -8.92671e-07 0.000282859 1.92177e-05 -1.03125e-06 -0.000371945 -4.34713e-05 -3.70353e-07
-3.76246e-05 -9.49387e-06 -9.89445e-07 0.000202269 1.21574e-05 -1.09877e-06 -0.000391909 -4.58638e-05 -3.88743e-07
-4.67249e-05 -1.12935e-05 -1.08742e-06 0.000150254 7.30523e-06 -1.15539e-06 -0.000410135 -4.80398e-05 -4.05608e-07
-5.59499e-05 -1.30864e-05 -1.1844e-06 0.000114359 3.58811e-06 -1.20775e-06 -0.00042637 -4.99582e-05 -4.20246e-07
-6.43633e-05 -1.49126e-05 -1.2833e-06 9.12034e-05 5.99598e-07 -1.25565e-06 -0.000439748 -5.15688e-05 -4.32748e-07
-7.3489e-05 -1.675e-05 -1.38289e-06 7.35292e-05 -1.941e-06 -1.29957e-06 -0.000450512 -5.28681e-05 -4.42841e-07
-8.2707e-05 -1.86242e-05 -1.48463e-06 5.75786e-05 -4.0952e-06 -1.33874e-06 -0.000458917 -5.38698e-05 -4.50547e-07
-9.16703e-05 -2.05482e-05 -1.58915e-06 4.39039e-05 -5.97358e-06 -1.37461e-06 -0.000464562 -5.45472e-05 -4.55743e-07
-0.000100896 -2.25175e-05 -1.69647e-06 3.24647e-05 -7.67912e-06 -1.40825e-06 -0.000467191 -5.4882e-05 -4.58386e-07
-0.000110194 -2.45409e-05 -1.807e-06 2.17315e-05 -9.227e-06 -1.43962e-06 -0.00046678 -5.48441e-05 -4.58061e-07
-0.000119415 -2.6629e-05 -1.92134e-06 1.08423e-05 -1.0606e-05 -1.46816e-06 -0.000462244 -5.42833e-05 -4.53427e-07
-0.000128769 -2.87818e-05 -2.03954e-06 8.29639e-08 -1.18619e-05 -1.49457e-06 -0.000453033 -5.31782e-05 -4.44464e-07
-0.00013822 -3.10013e-05 -2.1617e-06 -1.03352e-05 -1.30203e-05 -1.51923e-06 -0.000439415 -5.15614e-05 -4.31455e-07
-0.000147699 -3.32831e-05 -2.28752e-06 -2.08476e-05 -1.40857e-05 -1.54223e-06 -0.000422114 -4.94874e-05 -4.14718e-07
-0.000157229 -3.56147e-05 -2.41633e-06 -3.16653e-05 -1.50672e-05 -1.56367e-06 -0.000401658 -4.70132e-05 -3.94684e-07
-0.00016675 -3.79809e-05 -2.54725e-06 -4.24986e-05 -1.59816e-05 -1.58386e-06 -0.000378301 -4.41925e-05 -3.71867e-07
-0.000176177 -4.03624e-05 -2.6792e-06 -5.32138e-05 -1.68382e-05 -1.603e-06 -0.000352515 -4.10907e-05 -3.46827e-07
-0.000185442 -4.27338e-05 -2.81076e-06 -6.39129e-05 -1.76395e-05 -1.62111e-06 -0.000325062 -3.77865e-05 -3.20147e-07
-0.000194429 -4.50658e-05 -2.9403e-06 -7.45347e-05 -1.83906e-05 -1.6383e-06 -0.000296674 -3.43596e-05 -2.92444e-07
-0.00020302 -4.73273e-05 -3.06607e-06 -8.48637e-05 -1.90988e-05 -1.65471e-06 -0.000267924 -3.08872e-05 -2.64371e-07
-0.000211127 -4.9489e-05 -3.18642e-06 -9.47644e-05 -1.97654e-05 -1.67035e-06 -0.000239409 -2.74489e-05 -2.36593e-07
-0.000218699 -5.15283e-05 -3.30005e-06 -0.00010416 -2.03858e-05 -1.68509e-06 -0.00021184 -2.41267e-05 -2.09757e-07
-0.000225726 -5.34291e-05 -3.40601e-06 -0.000112878 -2.09548e-05 -1.69876e-06 -0.000185917 -2.09996e-05 -1.84486e-07
-0.000386676 -4.74812e-05 -2.49602e-06 -9.39298e-05 -1.83055e-05 -1.56391e-06 -0.000169502 -1.90991e-05 -1.70816e-07
-9.23308e-05 -4.86942e-05 -1.87078e-06 9.66372e-05 -3.14602e-06 -1.09523e-06 -0.000177226 -2.0252e-05 -1.92006e-07
-0.000107474 -4.96345e-05 -1.82684e-06 0.000102414 -3.90278e-06 -1.16686e-06 -0.000154985 -1.67293e-05 -1.52893e-07
-0.000326714 -4.81463e-05 -1.91596e-06 -5.25815e-05 -1.34584e-05 -1.31898e-06 -0.000109883 -1.21719e-05 -1.25218e-07
-0.000276302 -5.1204e-05 -2.0038e-06 -6.09761e-05 -1.40048e-05 -1.35257e-06 -8.71407e-05 -9.33675e-06 -9.92528e-08
-0.000169555 -5.46747e-05 -2.07038e-06 -3.4032e-05 -1.24894e-05 -1.32318e-06 -6.9218e-05 -7.08898e-06 -8.11325e-08
-0.00023962 -5.52788e-05 -2.10823e-06 -8.59666e-05 -1.67506e-05 -1.43458e-06 -4.0811e-05 -3.64066e-06 -5.37743e-08
-0.000276831 -5.67415e-05 -2.20026e-06 -0.000136044 -2.02502e-05 -1.52341e-06 -1.69811e-05 -8.5236e-07 -3.23911e-08
-0.000236479 -5.89083e-05 -2.24289e-06 -0.000150948 -2.1754e-05 -1.58998e-06 -1.164e-06 1.07471e-06 -1.50716e-08
-0.000229006 -6.0323e-05 -2.26739e-06 -0.000170922 -2.36341e-05 -1.63709e-06 1.21584e-05 2.40063e-06 -6.10276e-09
-0.000246009 -6.15091e-05 -2.31142e-06 -0.000188575 -2.74556e-05 -1.74186e-06 1.90358e-05 3.32597e-06 3.33552e-09
-0.000254459 -6.26646e-05 -2.34432e-06 -0.000207311 -3.04141e-05 -1.81739e-06 2.08702e-05 3.6353e-06 5.94497e-09
-0.000242404 -6.38728e-05 -2.35324e-06 -0.000215007 -3.25063e-05 -1.87457e-06 1.86785e-05 3.20901e-06 2.82805e-09
-0.000239078 -6.48935e-05 -2.36851e-06 -0.000219382 -3.47656e-05 -1.93352e-06 1.20964e-05 2.21423e-06 -6.05537e-09
-0.000249152 -6.5724e-05 -2.39686e-06 -0.00022606 -3.72977e-05 -2.00194e-06 3.41992e-08 7.75181e-07 -1.82404e-08
-0.00025452 -6.64678e-05 -2.41817e-06 -0.000231399 -3.93202e-05 -2.05766e-06 -1.85842e-05 -1.38206e-06 -3.62631e-08
-0.000250891 -6.71208e-05 -2.42825e-06 -0.000230801 -4.07985e-05 -2.09883e-06 -4.16286e-05 -4.19583e-06 -6.02526e-08
-0.000251232 -6.75525e-05 -2.43871e-06 -0.000227632 -4.22663e-05 -2.13979e-06 -6.84065e-05 -7.51986e-06 -8.88052e-08
-0.00025842 -6.76809e-05 -2.44404e-06 -0.000225358 -4.37315e-05 -2.18106e-06 -9.99825e-05 -1.13441e-05 -1.21292e-07
-0.000259447 -6.7573e-05 -2.43862e-06 -0.000221551 -4.48237e-05 -2.21199e-06 -0.000136415 -1.56864e-05 -1.57953e-07
-0.000257145 -6.72334e-05 -2.41956e-06 -0.00021447 -4.56739e-05 -2.2373e-06 -0.000175699 -2.04078e-05 -1.97849e-07
-0.000258535 -6.65632e-05 -2.38413e-06 -0.000206642 -4.64154e-05 -2.258e-06 -0.000216626 -2.53889e-05 -2.4031e-07
-0.000258225 -6.57289e-05 -2.33884e-06 -0.000198162 -4.69386e-05 -2.2733e-06 -0.000259614 -3.05847e-05 -2.84395e-07
-0.000255565 -6.47886e-05 -2.28875e-06 -0.000188913 -4.72808e-05 -2.28404e-06 -0.000303844 -3.58877e-05 -3.29203e-07
-0.000253291 -6.37891e-05 -2.24447e-06 -0.000179406 -4.76351e-05 -2.29538e-06 -0.000347515 -4.1135e-05 -3.73562e-07
-0.000252438 -6.27763e-05 -2.20979e-06 -0.000170639 -4.80753e-05 -2.30984e-06 -0.000389509 -4.62061e-05 -4.16425e-07
-0.000252235 -6.17459e-05 -2.17719e-06 -0.000162822 -4.84747e-05 -2.32312e-06 -0.00042638 -5.06171e-05 -4.49254e-07
-0.00024967 -6.07306e-05 -2.1434e-06 -0.000155557 -4.86971e-05 -2.32927e-06 -0.000459493 -5.45775e-05 -4.77452e-07
-0.000245789 -5.97299e-05 -2.10899e-06 -0.00014819 -4.89443e-05 -2.33798e-06 -0.000489755 -5.81792e-05 -5.02715e-07
-0.000243255 -5.87045e-05 -2.07523e-06 -0.000142542 -4.92454e-05 -2.34721e-06 -0.000516406 -6.13657e-05 -5.25189e-07
-0.00024004 -5.76702e-05 -2.04056e-06 -0.000138197 -4.95939e-05 -2.35831e-06 -0.000539217 -6.40926e-05 -5.44387e-07
-0.000234831 -5.66155e-05 -2.00392e-06 -0.000134966 -4.99543e-05 -2.36974e-06 -0.000557971 -6.63291e-05 -5.60119e-07
-0.000228538 -5.54988e-05 -1.96475e-06 -0.000133079 -5.03809e-05 -2.3833e-06 -0.000572237 -6.80304e-05 -5.72062e-07
-0.000221803 -5.42872e-05 -1.92251e-06 -0.000132926 -5.08782e-05 -2.39897e-06 -0.000581795 -6.91754e-05 -5.80097e-07
-0.000213676 -5.29812e-05 -1.87638e-06 -0.000134204 -5.13846e-05 -2.4152e-06 -0.000586724 -6.97678e-05 -5.84214e-07
-0.00020398 -5.15848e-05 -1.82639e-06 -0.000136495 -5.18405e-05 -2.43026e-06 -0.00058692 -6.97871e-05 -5.84111e-07
-0.000193436 -5.01085e-05 -1.77435e-06 -0.000139694 -5.21927e-05 -2.44242e-06 -0.000581628 -6.91343e-05 -5.78596e-07
-0.000182946 -4.85499e-05 -1.72007e-06 -0.000143547 -5.23863e-05 -2.44996e-06 -0.000570843 -6.78229e-05 -5.67772e-07
-0.000171902 -4.69283e-05 -1.66344e-06 -0.000146585 -5.2374e-05 -2.44966e-06 -0.000555139 -6.59241e-05 -5.52245e-07
-0.000162028 -4.52492e-05 -1.60738e-06 -0.000148007 -5.20805e-05 -2.4365e-06 -0.000535185 -6.35069e-05 -5.32614e-07
-0.000150473 -4.35531e-05 -1.55178e-06 -0.000146276 -5.13437e-05 -2.40065e-06 -0.000511678 -6.06703e-05 -5.10189e-07
-0.000137529 -4.1843e-05 -1.49299e-06 -0.000141235 -5.03299e-05 -2.35999e-06 -0.000485133 -5.74051e-05 -4.83603e-07
-0.000129555 -4.00493e-05 -1.43614e-06 -0.000135609 -4.90454e-05 -2.3062e-06 -0.000455257 -5.37785e-05 -4.54491e-07
-0.000121514 -3.82416e-05 -1.37794e-06 -0.000126808 -4.74159e-05 -2.24191e-06 -0.000422978 -4.98517e-05 -4.22681e-07
-0.000112335 -3.64141e-05 -1.31789e-06 -0.000113877 -4.53562e-05 -2.16177e-06 -0.000389002 -4.57111e-05 -3.8922e-07
-0.000103891 -3.45331e-05 -1.25636e-06 -9.75098e-05 -4.29415e-05 -2.0702e-06 -0.000353712 -4.13835e-05 -3.54083e-07
-9.76997e-05 -3.25744e-05 -1.19384e-06 -7.84149e-05 -4.0206e-05 -1.9683e-06 -0.000317236 -3.69094e-05 -3.17702e-07
-9.2079e-05 -3.05682e-05 -1.12987e-06 -5.54866e-05 -3.70937e-05 -1.85483e-06 -0.00027995 -3.23447e-05 -2.80577e-07
-8.62997e-05 -2.85509e-05 -1.06534e-06 -2.75525e-05 -3.35503e-05 -1.72845e-06 -0.000242333 -2.77379e-05 -2.43151e-07
-8.14797e-05 -2.65513e-05 -1.00198e-06 5.82986e-06 -2.95821e-05 -1.59165e-06 -0.000204722 -2.31135e-05 -2.05539e-07
-7.85854e-05 -2.46024e-05 -9.41603e-07 4.54597e-05 -2.51599e-05 -1.44595e-06 -0.000167182 -1.84909e-05 -1.67946e-07
-7.67992e-05 -2.27545e-05 -8.84926e-07 9.41439e-05 -2.01625e-05 -1.29263e-06 -0.00012976 -1.38877e-05 -1.30538e-07
-7.5322e-05 -2.10476e-05 -8.32185e-07 0.000156986 -1.43683e-05 -1.13432e-06 -9.25333e-05 -9.31028e-06 -9.33558e-08
-7.56716e-05 -1.94985e-05 -7.84621e-07 0.000243325 -7.36258e-06 -9.77716e-07 -5.55218e-05 -4.74402e-06 -5.60454e-08
-7.83934e-05 -1.81347e-05 -7.44648e-07 0.000383437 2.45297e-06 -8.20023e-07 -1.86574e-05 -2.08815e-07 -1.91783e-08
-8.07641e-05 -1.70129e-05 -7.11108e-07 0.000747606 2.38122e-05 -6.68731e-07 8.83449e-06 3.11687e-06 7.98261e-09
-8.4099e-05 -1.62037e-05 -6.87278e-07 0.00252891 0.000127915 -5.3937e-07 2.42225e-05 5.95347e-06 2.80983e-08
-8.79666e-05 -1.56532e-05 -6.7157e-07 0.00495067 0.000274336 -4.21324e-07 3.93613e-05 8.76348e-06 4.72852e-08
-9.21545e-05 -1.53724e-05 -6.64089e-07 0.00796761 0.000454781 -3.21708e-07 5.62101e-05 1.15992e-05 6.67178e-08
-9.65779e-05 -1.54457e-05 -6.6687e-07 0.0136934 0.000790353 -2.53106e-07 7.33236e-05 1.43102e-05 8.52916e-08
-9.89666e-05 -1.57921e-05 -6.76124e-07 0.0209033 0.00120886 -2.09313e-07 8.96182e-05 1.69985e-05 1.0381e-07
-0.000100165 -1.62892e-05 -6.92095e-07 0.0273979 0.00158496 -1.76664e-07 0.000105265 1.97422e-05 1.22743e-07
-0.000103123 -1.68351e-05 -7.13613e-07 0.0319624 0.00184943 -1.50139e-07 0.000121654 2.25625e-05 1.42143e-07
-0.000105917 -1.74733e-05 -7.43554e-07 0.0345306 0.00199875 -1.2942e-07 0.000139891 2.54597e-05 1.61698e-07
-0.00010718 -1.82438e-05 -7.83114e-07 0.0354098 0.00205021 -1.18581e-07 0.000158909 2.8395e-05 1.81263e-07
-0.000108898 -1.91346e-05 -8.31544e-07 0.0351052 0.00203274 -1.20732e-07 0.000176935 3.12705e-05 2.00459e-07
-0.000110379 -2.01346e-05 -8.87514e-07 0.0335464 0.00194262 -1.32925e-07 0.000194128 3.40313e-05 2.18845e-07
-0.000111462 -2.12616e-05 -9.51382e-07 0.0310537 0.00179831 -1.56074e-07 0.000210796 3.66064e-05 2.35873e-07
-0.000112657 -2.24912e-05 -1.02152e-06 0.0277956 0.00160932 -1.90267e-07 0.000226556 3.89419e-05 2.5112e-07
-0.000114745 -2.37524e-05 -1.09066e-06 0.0238927 0.00138271 -2.33587e-07 0.000240063 4.0948e-05 2.64154e-07
-0.000116626 -2.49801e-05 -1.14916e-06 0.019585 0.00113252 -2.81504e-07 0.000250527 4.25227e-05 2.74318e-07
-0.000116749 -2.61223e-05 -1.19097e-06 0.015118 0.000872946 -3.32248e-07 0.000258045 4.35997e-05 2.81081e-07
-0.000115243 -2.71546e-05 -1.2208e-06 0.0105168 0.000605355 -3.86781e-07 0.000262637 4.41471e-05 2.84169e-07
-0.000114201 -2.8038e-05 -1.24516e-06 0.00562749 0.000320873 -4.46846e-07 0.000263165 4.40064e-05 2.82377e-07
-0.000114208 -2.87599e-05 -1.26574e-06 0.000792705 3.91519e-05 -5.19051e-07 0.000257222 4.28198e-05 2.73417e-07
-0.000113455 -2.95626e-05 -1.28703e-06 0.00034793 1.02318e-05 -6.21311e-07 0.000240702 4.006e-05 2.54349e-07
-0.000108932 -3.02245e-05 -1.30101e-06 0.000243829 3.13456e-07 -7.27515e-07 0.00021849 3.62616e-05 2.27559e-07
-0.000105916 -3.06967e-05 -1.31137e-06 0.000185573 -6.81623e-06 -8.33809e-07 0.000189012 3.12957e-05 1.92776e-07
-0.00010535 -3.09913e-05 -1.31918e-06 0.00014585 -1.2583e-05 -9.37847e-07 0.000152333 2.51757e-05 1.50189e-07
-0.00010381 -3.11544e-05 -1.32233e-06 0.000124058 -1.74591e-05 -1.03759e-06 0.000109576 1.80132e-05 1.00185e-07
-0.000101566 -3.11849e-05 -1.32128e-06 0.000114898 -2.17104e-05 -1.1313e-06 6.10769e-05 9.89804e-06 4.3391e-08
-0.000100731 -3.10641e-05 -1.31743e-06 0.000110488 -2.53569e-05 -1.21469e-06 7.10321e-06 1.95441e-06 -1.12064e-08
-0.000100962 -3.07625e-05 -1.30171e-06 0.000109479 -2.83153e-05 -1.28526e-06 -4.39421e-05 -3.95475e-06 -5.79224e-08
-0.000100114 -3.03271e-05 -1.27835e-06 0.00011241 -3.0825e-05 -1.34765e-06 -9.49325e-05 -1.02562e-05 -1.08152e-07
-9.82925e-05 -2.98183e-05 -1.25779e-06 0.00011928 -3.30409e-05 -1.40371e-06 -0.000148893 -1.68499e-05 -1.60529e-07
-9.93687e-05 -2.91544e-05 -1.23506e-06 0.000127472 -3.51307e-05 -1.45793e-06 -0.000206275 -2.36409e-05 -2.13758e-07
-0.000100395 -2.83636e-05 -1.20773e-06 0.000136112 -3.69451e-05 -1.50563e-06 -0.000264942 -3.05191e-05 -2.67454e-07
-9.8398e-05 -2.74903e-05 -1.1763e-06 0.00014625 -3.84832e-05 -1.54725e-06 -0.000321531 -3.73104e-05 -3.20944e-07
-9.65996e-05 -2.64866e-05 -1.14109e-06 0.000156804 -3.9923e-05 -1.5864e-06 -0.000375863 -4.39061e-05 -3.73158e-07
-9.53901e-05 -2.535e-05 -1.10208e-06 0.000166539 -4.13144e-05 -1.62425e-06 -0.000428794 -5.02419e-05 -4.2302e-07
-9.23491e-05 -2.41132e-05 -1.0586e-06 0.000175487 -4.26029e-05 -1.6596e-06 -0.000479439 -5.62241e-05 -4.69822e-07
-8.73215e-05 -2.27807e-05 -1.0108e-06 0.000183682 -4.38291e-05 -1.69349e-06 -0.000525567 -6.17176e-05 -5.12936e-07
-8.18441e-05 -2.13373e-05 -9.5929e-07 0.000190397 -4.50678e-05 -1.7278e-06 -0.000566181 -6.66212e-05 -5.51607e-07
-7.54409e-05 -1.97905e-05 -9.03899e-07 0.000195272 -4.62951e-05 -1.76189e-06 -0.000601645 -7.0892e-05 -5.85228e-07
-6.80102e-05 -1.81516e-05 -8.46126e-07 0.000198422 -4.74445e-05 -1.79318e-06 -0.00063186 -7.44854e-05 -6.13363e-07
-5.82725e-05 -1.64558e-05 -7.88008e-07 0.000200275 -4.83186e-05 -1.81311e-06 -0.000648013 -7.62382e-05 -6.23704e-07
-4.65383e-05 -1.47157e-05 -7.27127e-07 0.000200555 -4.89379e-05 -1.82731e-06 -0.000649868 -7.63498e-05 -6.24609e-07
-3.5934e-05 -1.29187e-05 -6.65924e-07 0.00019786 -4.95057e-05 -1.84109e-06 -0.000647154 -7.62591e-05 -6.25144e-07
-2.50598e-05 -1.11213e-05 -6.04766e-07 0.000194967 -4.99334e-05 -1.84994e-06 -0.000646078 -7.62247e-05 -6.25413e-07
-1.73113e-05 -9.8515e-06 -5.6045e-07 0.000194696 -5.00025e-05 -1.84967e-06 -0.00064585 -7.59607e-05 -6.2257e-07
-1.14272e-05 -9.02541e-06 -5.28453e-07 0.000196514 -4.96884e-05 -1.83989e-06 -0.000637518 -7.47305e-05 -6.11784e-07
-6.81795e-06 -8.22443e-06 -4.99236e-07 0.000198287 -4.90956e-05 -1.81695e-06 -0.000617805 -7.24565e-05 -5.93712e-07
-2.45762e-06 -7.47312e-06 -4.7127e-07 0.000202003 -4.82268e-05 -1.7846e-06 -0.000589707 -6.92174e-05 -5.67932e-07
1.51724e-06 -6.75465e-06 -4.44856e-07 0.000208178 -4.704e-05 -1.7398e-06 -0.000556538 -6.51384e-05 -5.34813e-07
5.36119e-06 -6.07332e-06 -4.19593e-07 0.000216804 -4.55047e-05 -1.68271e-06 -0.000517747 -6.02787e-05 -4.95057e-07
8.46968e-06 -5.41176e-06 -3.95498e-07 0.000225817 -4.34542e-05 -1.61315e-06 -0.000471734 -5.46733e-05 -4.49672e-07
1.10345e-05 -4.76343e-06 -3.72047e-07 0.000226797 -4.01777e-05 -1.5314e-06 -0.000419508 -4.84143e-05 -3.99318e-07
1.32443e-05 -4.11656e-06 -3.48714e-07 0.000230417 -3.63472e-05 -1.43772e-06 -0.000363561 -4.16268e-05 -3.44489e-07
1.48571e-05 -3.45418e-06 -3.25341e-07 0.000237652 -3.19155e-05 -1.33256e-06 -0.000304845 -3.44124e-05 -2.85947e-07
1.55119e-05 -2.82347e-06 -3.03972e-07 0.000250607 -2.67498e-05 -1.21498e-06 -0.000243058 -2.68538e-05 -2.24786e-07
1.55844e-05 -2.25979e-06 -2.84891e-07 0.000273482 -2.06732e-05 -1.08713e-06 -0.000178626 -1.90375e-05 -1.61722e-07
1.48334e-05 -1.72551e-06 -2.6729e-07 0.000313322 -1.33305e-05 -9.50692e-07 -0.000112954 -1.10659e-05 -9.74236e-08
1.33786e-05 -1.19438e-06 -2.50156e-07 0.000388763 -3.71365e-06 -8.08544e-07 -4.71941e-05 -3.03207e-06 -3.24597e-08
1.18339e-05 -6.38924e-07 -2.3222e-07 0.000573024 1.23156e-05 -6.65559e-07 3.26348e-06 3.03677e-06 1.29744e-08
1.01839e-05 -8.29399e-08 -2.13693e-07 0.00159619 7.70285e-05 -5.41224e-07 3.31183e-05 8.00178e-06 4.67958e-08
8.75599e-06 4.62688e-07 -1.95419e-07 0.00385383 0.00021418 -4.18848e-07 5.84322e-05 1.26926e-05 7.85517e-08
8.45346e-06 9.53438e-07 -1.77505e-07 0.00654072 0.000376024 -3.07233e-07 8.61896e-05 1.73554e-05 1.09905e-07
7.08216e-06 1.28925e-06 -1.64381e-07 0.013196 0.000765762 -2.26712e-07 0.000114357 2.17068e-05 1.39167e-07
8.78283e-06 1.50056e-06 -1.52373e-07 0.0231866 0.00134418 -1.71864e-07 0.000140085 2.57811e-05 1.66788e-07
1.26894e-05 1.74848e-06 -1.37105e-07 0.0333036 0.00192908 -1.25057e-07 0.000162248 2.96783e-05 1.93635e-07
1.36202e-05 2.127e-06 -1.20471e-07 0.042383 0.00245467 -7.62483e-08 0.000182804 3.33911e-05 2.1941e-07
1.39278e-05 2.64027e-06 -1.01049e-07 0.0506433 0.00293319 -2.83606e-08 0.000204013 3.69128e-05 2.43608e-07
