0 0 0
0 0 0
0 0 0
0 0 0
0 0 0
0 0 0
0 0 0
0 0 0
0 0 0
0 0 0
0 0 0
0 0 0
0 0 0
0 0 0
0 0 0
0 0 0
0 0 0
0 0 0
0 0 0
0 0 0
0 0 0
0 0 0
0 0 0
0 0 0
0 0 0
0 0 0
0 0 0
0 0 0
0 0 0
0 0 0
0 0 0
0 0 0
0 0 0
0 0 0
0 0 0
0 0 0
0 0 0
0 0 0
0 0 0
0 0 0
0 0 0
0 0 0
0 0 0
0 0 0
0 0 0
0 0 0
0 0 0
0 0 0
0 0 0
0 0 0
0 0 0
0 0 0
0 0 0
0 0 0
0 0 0
0 0 0
0 0 0
0 0 0
0 0 0
0 0 0
0 0 0
0 0 0
0 0 0
0 0 0
0 0 0
0 0 0
0 0 0
0 0 0
0 0 0
0 0 0
0 0 0
0 0 0
0 0 0
0 0 0
0 0 0
0 0 0
0 0 0
0 0 0
0 0 0
0 0 0
0 0 0
0 0 0
0 0 0
0 0 0
0 0 0
0 0 0
0 0 0
0 0 0
0 0 0
0 0 0
0 0 0
0 0 0
0 0 0
0 0 0
0 0 0
0 0 0
0 0 0
0 0 0
0 0 0
0 0 0
0 0 0
0 0 0
0 0 0
0 0 0
0 0 0
0 0 0
0 0 0
0 0 0
0 0 0
0 0 0
0 0 0
0 0 0
0 0 0
0 0 0
0 0 0
0 0 0
0 0 0
0 0 0
0 0 0
0 0 0
0 0 0
0 0 0
0 0 0
0 0 0
0 0 0
0 0 0.0348713
0.00448714 0 0.0673802
0.0176375 0 0.096737
0.0340877 0 0.122177
0.0542712 0 0.143034
0.0782482 0 0.15883
0.105703 0 0.169257
0.136066 0.0154206 0.1742
0.168661 0.0333443 0.174195
0.202782 0.0536597 0.171414
0.23775 0.0760374 0.166347
0.27293 0.0999473 0.15935
0.307725 0.124698 0.150852
0.341588 0.149477 0.141338
0.374006 0.173403 0.131325
0.404441 0.195592 0.121335
0.43233 0.215222 0.111864
0.457128 0.231571 0.103362
0.478368 0.244051 0.0962124
0.49333 0.252259 0.0907307
0.504928 0.255686 0.0907307
0.513272 0.255787 0.0907307
0.514865 0.253102 0.0907307
0.514305 0.248635 0.0907307
0.510801 0.242972 0.0937748
0.500373 0.237124 0.102647
0.488714 0.229168 0.114425
0.476076 0.220935 0.127117
0.46239 0.211967 0.140789
0.448152 0.202535 0.154539
0.434256 0.193099 0.167611
0.420948 0.183954 0.179276
0.408763 0.175312 0.188801
0.398238 0.167416 0.195622
0.389693 0.160509 0.199302
0.383436 0.154801 0.199638
0.379726 0.150413 0.197808
0.378661 0.147419 0.194056
0.381867 0.145884 0.188443
0.390276 0.145957 0.181089
0.403208 0.14865 0.172181
0.41742 0.154604 0.161928
0.432305 0.163221 0.150703
0.447036 0.17408 0.14603
0.461034 0.186501 0.14603
0.471298 0.197019 0.14603
0.480431 0.207563 0.14603
0.48817 0.217712 0.14603
0.494253 0.227069 0.14603
0.498431 0.235251 0.14603
0.500484 0.241913 0.14603
0.50043 0.24677 0.14603
0.499026 0.249623 0.14603
0.496244 0.250363 0.14603
0.491969 0.249642 0.14603
0.486092 0.24785 0.14603
0.478532 0.245032 0.14603
0.469266 0.241256 0.14603
0.458349 0.236603 0.14603
0.445917 0.231164 0.14603
0.432175 0.225034 0.14603
0.417366 0.218322 0.14603
0.401736 0.211148 0.14603
0.385518 0.203643 0.151101
0.368933 0.195942 0.171133
0.352197 0.18818 0.190383
0.335524 0.182395 0.208356
0.323186 0.182395 0.224588
0.323186 0.182395 0.23865
0.323186 0.182395 0.250167
0.323186 0.182395 0.258817
0.323186 0.182395 0.264348
0.323186 0.182395 0.266576
0.323186 0.182395 0.265997
0.323186 0.182395 0.263682
0.323186 0.182395 0.259666
0.323186 0.182395 0.254003
0.323186 0.182395 0.246785
0.323186 0.182395 0.23813
0.323186 0.182395 0.228202
0.323186 0.182395 0.217384
0.323186 0.182395 0.208452
0.323186 0.182395 0.208452
0.323186 0.182395 0.208452
0.323186 0.182395 0.208452
0.323186 0.182395 0.208452
0.323186 0.182395 0.208452
0.323186 0.182395 0.208452
0.323186 0.182395 0.208452
0.323186 0.182395 0.208452
0.323186 0.182395 0.208452
0.323186 0.182395 0.208452
0.323186 0.182395 0.208452
0.323186 0.182395 0.208452
0.323186 0.182395 0.208452
0.323186 0.182395 0.208452
0.323186 0.182395 0.203448
0.323186 0.182395 0.202188
0.323186 0.182395 0.202188
0.323186 0.182395 0.202188
0.319725 0.182395 0.202188
0.319725 0.182395 0.202188
0.319725 0.182395 0.202188
0.319725 0.182395 0.202175
0.319725 0.182395 0.202175
0.319725 0.182395 0.202175
0.319725 0.182395 0.202175
0.319725 0.182395 0.202175
0.319725 0.182395 0.202175
0.319725 0.180476 0.202175
0.319725 0.180476 0.202175
0.319725 0.180476 0.202175
0.319725 0.180476 0.202175
0.318483 0.180476 0.202174
0.318483 0.180476 0.202174
0.318483 0.180476 0.202174
0.318483 0.180476 0.202174
0.318483 0.180434 0.202174
0.318483 0.180434 0.202174
0.318483 0.180434 0.202174
0.318483 0.180434 0.202174
0.318483 0.180434 0.202174
0.318483 0.180434 0.202174
0.318483 0.180434 0.202174
0.318483 0.180434 0.202174
0.318483 0.180434 0.202174
0.318483 0.180434 0.202174
0.318483 0.180434 0.202174
0.318483 0.180434 0.202174
0.318483 0.180434 0.20217
0.318483 0.180434 0.20217
0.318483 0.180434 0.20217
0.318483 0.180434 0.20217
0.318483 0.180434 0.20217
0.318464 0.180434 0.20217
0.318464 0.180434 0.20217
0.318464 0.180434 0.20217
0.318464 0.180434 0.20217
0.318464 0.180434 0.20217
0.318464 0.180434 0.20217
0.318464 0.180434 0.20217
0.318464 0.180434 0.20217
0.318464 0.180434 0.20217
0.318464 0.180434 0.20217
0.318464 0.180434 0.20217
0.318464 0.180434 0.20217
0.318464 0.180434 0.20217
0.318464 0.180434 0.20217
0.318464 0.180434 0.20217
0.318464 0.180434 0.20217
0.318464 0.180434 0.20217
0.318464 0.180434 0.20217
0.318464 0.180434 0.20217
0.318464 0.180434 0.20217
0.318464 0.180434 0.20217
0.318464 0.180434 0.20217
0.318464 0.180434 0.20217
0.318464 0.180434 0.20217
0.318464 0.180434 0.20217
0.318464 0.180434 0.20217
0.318464 0.180434 0.20217
0.318464 0.180434 0.20217
0.318464 0.180434 0.20217
0.318464 0.180434 0.20217
0.318464 0.180434 0.20217
0.318464 0.180434 0.20217
0.318464 0.180434 0.20217
0.318464 0.180434 0.20217
0.318464 0.180434 0.20217
0.318464 0.180434 0.20217
0.318464 0.180434 0.20217
0.318464 0.180434 0.20217
0.318464 0.180434 0.20217
0.318464 0.180434 0.20217
0.318464 0.180434 0.20217
0.318464 0.180434 0.20217
0.318464 0.180434 0.20217
0.318464 0.180434 0.20217
0.318464 0.180434 0.20217
0.318464 0.180434 0.20217
0.318464 0.180434 0.20217
0.318464 0.180434 0.20217
0.318464 0.180434 0.20217
0.318464 0.180434 0.20217
0.318464 0.180434 0.20217
0.318464 0.180434 0.20217
0.318464 0.180434 0.20217
0.318464 0.180434 0.20217
0.318464 0.180434 0.20217
0.318464 0.180434 0.20217
0.318464 0.180434 0.20217
0.318464 0.180434 0.20217
0.318464 0.180434 0.20217
0.318464 0.180434 0.20217
0.318464 0.180434 0.20217
0.318464 0.180434 0.20217
0.318464 0.180434 0.20217
0.318464 0.180434 0.20217
0.318464 0.180434 0.20217
0.318464 0.180434 0.20217
0.318464 0.180434 0.20217
0.318464 0.180434 0.20217
0.318464 0.180434 0.20217
0.341494 0.180434 0.20217
0.371238 0.194759 0.20217
0.399626 0.222326 0.20217
0.426442 0.248101 0.20217
0.451517 0.271683 0.20217
0.474716 0.292701 0.20217
0.495917 0.310854 0.203845
0.514929 0.325949 0.208256
0.52857 0.33839 0.214068
0.53971 0.347806 0.221234
0.547641 0.353893 0.229984
0.55248 0.357085 0.239962
0.554381 0.357433 0.251137
0.554001 0.356194 0.263179
0.552365 0.353689 0.27585
0.54965 0.350074 0.288825
0.546086 0.345521 0.301745
0.541906 0.340201 0.314218
0.537329 0.334283 0.325847
0.532594 0.327954 0.336245
0.527947 0.321411 0.345039
0.523617 0.314843 0.351877
0.519811 0.308421 0.35644
0.516722 0.302306 0.358454
0.514521 0.296643 0.358119
0.513346 0.291563 0.356288
0.513409 0.287171 0.35296
0.515649 0.283547 0.348129
0.520261 0.280745 0.341825
0.527194 0.278792 0.334119
0.536343 0.277688 0.325117
0.547366 0.277404 0.314962
0.559684 0.278526 0.303814
0.57297 0.281127 0.29187
0.586921 0.284913 0.282538
0.601383 0.289693 0.282538
0.616071 0.295164 0.282538
0.630613 0.300996 0.282538
0.644711 0.306859 0.282538
0.658101 0.312457 0.282538
0.670458 0.317512 0.282538
0.68142 0.32178 0.282538
0.690623 0.325059 0.282538
0.69772 0.327187 0.282538
0.702399 0.328077 0.282538
0.704434 0.327882 0.282538
0.704084 0.327027 0.282538
0.702266 0.325528 0.282538
0.699028 0.323419 0.282538
0.694415 0.320745 0.282538
0.688541 0.317574 0.282538
0.681579 0.31398 0.282538
0.673732 0.310045 0.282538
0.665208 0.305881 0.282538
0.656223 0.30161 0.282538
0.646973 0.297366 0.282538
0.637647 0.296323 0.282538
0.628436 0.296323 0.282538
0.619538 0.296323 0.282538
0.611157 0.296323 0.282538
0.603486 0.296323 0.28744
0.596706 0.296323 0.306093
0.590982 0.296323 0.322951
0.586449 0.296323 0.337731
0.583202 0.296323 0.350207
0.581281 0.296323 0.360215
0.580667 0.296323 0.367652
0.58189 0.296323 0.372478
0.585301 0.296323 0.374722
0.590553 0.301477 0.374692
0.597218 0.312676 0.373409
0.604799 0.324868 0.37107
0.612763 0.337784 0.36781
0.620574 0.351106 0.363784
0.627704 0.364484 0.359167
0.633647 0.377532 0.354147
0.637943 0.389843 0.348918
0.640193 0.400993 0.343675
0.64025 0.410563 0.338605
0.638848 0.418146 0.333885
0.635993 0.423371 0.329671
0.631588 0.425912 0.329671
0.625552 0.425797 0.329671
0.617834 0.424012 0.329671
0.608418 0.42058 0.329671
0.597325 0.41547 0.329671
0.58462 0.408686 0.329671
0.570407 0.400268 0.329671
0.566633 0.390293 0.329671
0.566633 0.378707 0.329671
0.566633 0.365586 0.329671
0.566633 0.362247 0.332094
0.566633 0.362247 0.336911
0.566633 0.362247 0.340907
0.566633 0.362247 0.343738
0.566633 0.362247 0.344905
0.566633 0.362247 0.344465
0.566633 0.362247 0.342809
0.566633 0.362247 0.339707
0.566633 0.362247 0.3376
0.566633 0.362247 0.3376
0.566633 0.362247 0.3376
0.566633 0.362247 0.3376
0.564907 0.362247 0.3376
0.562028 0.362247 0.3376
0.562028 0.362247 0.3376
0.562028 0.362247 0.3376
0.561996 0.362247 0.3376
0.561996 0.362247 0.3376
0.561996 0.362247 0.3376
0.561996 0.362247 0.3376
0.561996 0.360672 0.3376
0.561996 0.359516 0.3376
0.561996 0.359248 0.3376
0.561996 0.359248 0.3376
0.561996 0.359248 0.3376
0.561996 0.359248 0.3376
0.561996 0.359248 0.334252
0.561996 0.359248 0.334252
0.561996 0.359248 0.33421
0.561996 0.359248 0.33421
0.561996 0.359248 0.33421
0.561996 0.359248 0.334145
0.561996 0.359248 0.334145
0.561996 0.359248 0.334145
0.561996 0.359248 0.334145
0.561996 0.359248 0.334145
0.561996 0.359248 0.334145
0.561996 0.359248 0.334145
0.561996 0.359248 0.334145
0.561996 0.359248 0.334145
0.561996 0.359248 0.334145
0.561996 0.359248 0.334145
0.561996 0.359248 0.334145
0.561996 0.359248 0.334145
0.561996 0.359248 0.334145
0.561996 0.359248 0.334145
0.561996 0.359248 0.334145
0.561996 0.359248 0.334145
0.561996 0.359248 0.334145
0.561996 0.359248 0.334145
0.561996 0.359245 0.334145
0.561996 0.359245 0.334145
0.561996 0.359245 0.334145
0.561996 0.359232 0.334145
0.561996 0.359232 0.334145
0.561996 0.359232 0.334145
0.561996 0.359232 0.334145
0.561996 0.359232 0.334145
0.561996 0.359232 0.334145
0.561996 0.359232 0.334145
0.561996 0.359232 0.334145
0.561996 0.359232 0.334145
0.561996 0.359232 0.334145
0.561996 0.359232 0.334145
0.561996 0.359232 0.334145
0.561996 0.359232 0.334145
0.561996 0.359232 0.334145
0.561996 0.359232 0.334145
0.561996 0.359232 0.334145
0.561996 0.359232 0.334145
0.561996 0.359232 0.334145
0.561996 0.359227 0.334145
0.561985 0.359227 0.334145
0.561985 0.359227 0.334145
0.561985 0.359227 0.334145
0.561985 0.359227 0.334145
0.561985 0.359227 0.334145
0.561985 0.359227 0.334145
0.561985 0.359227 0.334145
0.561985 0.359227 0.334145
0.561985 0.359227 0.334145
0.561985 0.359227 0.334145
0.561985 0.359227 0.334145
0.561985 0.359227 0.334145
0.561985 0.359227 0.334145
0.561985 0.359227 0.334145
0.561985 0.359227 0.334145
0.561985 0.359227 0.334145
0.561985 0.359227 0.334145
0.561985 0.359227 0.334145
0.561985 0.359227 0.334145
0.561985 0.359227 0.334145
0.561985 0.359227 0.334145
0.561985 0.359227 0.334145
0.561985 0.359227 0.334145
0.561985 0.359227 0.334145
0.561985 0.359227 0.334145
0.561985 0.359227 0.334145
0.561985 0.359227 0.334145
0.561985 0.359227 0.334145
0.561985 0.359227 0.334145
0.561985 0.359227 0.334145
0.561985 0.359227 0.334145
0.561985 0.359227 0.334145
0.561985 0.359227 0.334145
0.561985 0.359227 0.334145
0.561985 0.359227 0.334145
0.561985 0.359227 0.334145
0.561985 0.359227 0.334145
0.561985 0.359227 0.334145
0.561985 0.359227 0.334145
0.561985 0.359227 0.334145
0.561985 0.359227 0.334145
0.561985 0.359227 0.334145
0.561985 0.359227 0.334145
0.561985 0.359227 0.334145
0.561985 0.359227 0.334145
0.561985 0.359227 0.334145
0.561985 0.359227 0.334145
0.561985 0.359227 0.334145
0.561985 0.359227 0.334145
0.561985 0.359227 0.334145
0.561985 0.359227 0.334145
0.561985 0.359227 0.334145
0.561985 0.359227 0.334145
0.561985 0.359227 0.334145
0.561985 0.359227 0.334145
0.561985 0.359227 0.334145
0.561985 0.359227 0.334145
0.561985 0.359227 0.334145
0.561985 0.359227 0.334145
0.561985 0.359227 0.334145
0.561985 0.359227 0.334145
0.561985 0.359227 0.334145
0.561985 0.359227 0.334145
0.561985 0.359227 0.334145
0.561985 0.359227 0.334145
0.561985 0.359227 0.334145
0.561985 0.359227 0.334145
0.561985 0.359227 0.334145
0.561985 0.359227 0.334145
0.561985 0.359227 0.334145
0.561985 0.359227 0.334145
0.561985 0.359227 0.334145
0.561985 0.359227 0.334145
0.561985 0.359227 0.334145
0.573557 0.359227 0.334145
0.587466 0.359227 0.334145
0.599517 0.359227 0.334145
0.609678 0.359227 0.334145
0.617971 0.359227 0.334145
0.624429 0.359227 0.334145
0.629118 0.359227 0.334145
0.632174 0.359227 0.334145
0.633776 0.359227 0.334145
0.63414 0.359227 0.334145
0.633828 0.359227 0.334145
0.633177 0.359227 0.334145
0.632278 0.359227 0.334145
0.631334 0.359227 0.334145
0.630458 0.359227 0.334145
0.629812 0.359227 0.334145
0.629538 0.359227 0.334145
0.630009 0.359227 0.334145
0.631754 0.359227 0.334145
0.634983 0.359227 0.339742
0.639859 0.359227 0.344093
0.646485 0.359227 0.34715
0.654903 0.359227 0.348872
0.665103 0.359227 0.349216
0.67703 0.359227 0.348555
0.69059 0.359227 0.347109
0.70564 0.359227 0.344947
0.722011 0.359227 0.342158
0.739502 0.359227 0.342158
0.757888 0.359227 0.342158
0.776931 0.359227 0.342158
0.796378 0.359227 0.342158
0.815916 0.373596 0.342158
0.834991 0.388333 0.342158
0.853554 0.403066 0.342158
0.871366 0.417559 0.342158
0.888263 0.431574 0.342158
0.904042 0.444879 0.342158
0.918502 0.45727 0.342158
0.931471 0.468575 0.342158
0.942901 0.478642 0.342158
0.951045 0.487685 0.342158
0.957256 0.495641 0.342158
0.961244 0.502008 0.342158
0.962878 0.507203 0.342158
0.962589 0.511004 0.342158
0.961182 0.513509 0.342158
0.958738 0.514718 0.342158
0.955343 0.514839 0.358166
0.951154 0.514211 0.372687
0.946324 0.513045 0.38806
0.940929 0.511617 0.40378
0.935195 0.509867 0.419377
0.929216 0.507998 0.434478
0.923185 0.506019 0.449005
0.917248 0.504036 0.46278
0.911558 0.50213 0.475523
0.906249 0.500383 0.48688
0.901394 0.498862 0.496579
0.896734 0.497678 0.504464
0.892315 0.496866 0.510457
0.888123 0.496427 0.514509
0.88413 0.496394 0.516515
0.880307 0.496981 0.51652
0.876647 0.498081 0.515217
0.873143 0.499495 0.512783
0.869771 0.501024 0.509321
0.866483 0.50244 0.504918
0.863205 0.50351 0.49966
0.859842 0.503974 0.493662
0.856295 0.503774 0.48707
0.852465 0.503019 0.480037
0.848253 0.501596 0.4727
0.843547 0.499406 0.46518
0.83823 0.496364 0.457587
0.8322 0.492398 0.450034
0.825384 0.487457 0.442625
0.817744 0.481505 0.435446
0.809274 0.474525 0.430248
0.799987 0.466522 0.430248
0.789913 0.457526 0.430248
0.77909 0.447591 0.430248
0.767555 0.444969 0.430248
0.767555 0.444969 0.430248
0.767555 0.444969 0.430248
0.767555 0.444969 0.430248
0.767555 0.444969 0.430248
0.767555 0.444969 0.430248
0.767555 0.444969 0.430248
0.767555 0.444969 0.430248
0.767555 0.444969 0.430248
0.767555 0.444969 0.430248
0.767555 0.444969 0.430248
0.767555 0.444969 0.430248
0.767555 0.444969 0.430248
0.767555 0.444969 0.430248
0.767555 0.444969 0.430248
0.767555 0.444969 0.430248
0.767555 0.444969 0.430248
0.767555 0.444969 0.430248
0.767555 0.444969 0.430248
0.767555 0.444969 0.430248
0.767555 0.444969 0.430248
0.767555 0.444969 0.430248
0.767555 0.444969 0.430248
0.767555 0.444969 0.430248
0.767555 0.444969 0.430248
0.767555 0.444131 0.430248
0.767555 0.443528 0.430248
0.767555 0.443398 0.430248
0.767555 0.443035 0.429011
0.767555 0.442327 0.429011
0.767555 0.442108 0.429011
0.767555 0.442108 0.429011
0.767555 0.442108 0.429011
0.767555 0.442108 0.428989
0.767555 0.442108 0.428989
0.767555 0.442108 0.428989
0.767555 0.442108 0.428989
0.767555 0.442108 0.428989
0.765869 0.442108 0.428989
0.765869 0.442108 0.428989
0.765869 0.442108 0.428989
0.765869 0.442108 0.428989
0.765869 0.442108 0.428989
0.765869 0.442108 0.428989
0.765869 0.441038 0.428989
0.765869 0.441038 0.428989
0.765869 0.441038 0.428989
0.765869 0.441038 0.428989
0.765869 0.441038 0.428989
0.765869 0.441038 0.428989
0.765869 0.441038 0.428989
0.765869 0.441038 0.428989
0.765869 0.441038 0.428989
0.765869 0.441038 0.428989
0.765869 0.441038 0.428989
0.765869 0.441038 0.428989
0.764779 0.441038 0.428989
0.764779 0.441038 0.428989
0.764779 0.441038 0.428989
0.764779 0.441038 0.428989
0.764779 0.441038 0.428989
0.764763 0.441038 0.428989
0.764763 0.441038 0.428989
0.764763 0.441038 0.428989
0.764763 0.441038 0.428989
0.764763 0.441038 0.428989
0.764763 0.441038 0.428989
0.764763 0.441038 0.428989
0.764763 0.441038 0.428989
0.764763 0.441038 0.428989
0.764763 0.441038 0.428989
0.764763 0.441038 0.428989
0.764763 0.441038 0.428989
0.764763 0.441038 0.428989
0.764763 0.441038 0.428989
0.764763 0.441038 0.428989
0.764763 0.441038 0.428989
0.764763 0.441038 0.428989
0.764763 0.441038 0.428989
0.764763 0.441038 0.428989
0.764763 0.441038 0.428989
0.764763 0.441038 0.428989
0.764763 0.441038 0.428989
0.764763 0.441038 0.428989
0.764763 0.441038 0.428989
0.764763 0.441038 0.428989
0.764763 0.441038 0.428989
0.764763 0.441038 0.428989
0.764763 0.441038 0.428989
0.764763 0.441038 0.428989
0.764763 0.441038 0.428989
0.764763 0.441038 0.428989
0.764763 0.441038 0.428989
0.764763 0.441038 0.428989
0.764763 0.441038 0.428989
0.764763 0.440958 0.428989
0.764763 0.440953 0.428989
0.764763 0.440953 0.428989
0.764763 0.440953 0.428989
0.764763 0.440953 0.428989
0.764763 0.440953 0.428989
0.764763 0.440897 0.428989
0.764763 0.440897 0.428989
0.764763 0.440897 0.428989
0.764763 0.440897 0.428989
0.764763 0.44088 0.428989
0.764763 0.44088 0.428989
0.764763 0.44088 0.428989
0.764763 0.44088 0.428989
0.764763 0.44088 0.428989
0.764763 0.44088 0.428989
0.764763 0.44088 0.428989
0.764763 0.44088 0.428989
0.764763 0.44088 0.428989
0.764763 0.44088 0.428989
0.764763 0.44088 0.428989
0.764763 0.44088 0.428989
0.764763 0.44088 0.428989
0.764763 0.44088 0.428989
0.764763 0.44088 0.428989
0.764763 0.44088 0.428989
0.764763 0.44088 0.428989
0.764763 0.44088 0.428989
0.764763 0.44088 0.428989
0.764763 0.44088 0.428989
0.764763 0.44088 0.428989
0.764763 0.44088 0.428989
0.764763 0.44088 0.428989
0.764763 0.44088 0.428989
0.764763 0.44088 0.428989
0.764763 0.44088 0.428989
0.764763 0.44088 0.428989
0.764763 0.44088 0.428989
0.764763 0.44088 0.428989
0.764763 0.44088 0.428989
0.764763 0.44088 0.428989
0.764763 0.44088 0.428989
0.764763 0.44088 0.428989
0.764763 0.44088 0.428989
0.764763 0.44088 0.428989
0.764763 0.44088 0.428989
0.764763 0.44088 0.428989
0.764763 0.44088 0.428989
0.764763 0.44088 0.428989
0.764763 0.44088 0.428989
0.764763 0.44088 0.428989
0.764763 0.44088 0.428989
0.764763 0.44088 0.428989
0.764763 0.44088 0.441683
0.764763 0.44088 0.45394
0.764763 0.44088 0.464692
0.784871 0.44088 0.476797
0.813889 0.44088 0.488842
0.840614 0.452595 0.500204
0.865991 0.481379 0.511735
0.887179 0.509395 0.523855
0.904932 0.53313 0.535855
0.919725 0.551794 0.54765
0.930723 0.56734 0.559706
0.938357 0.580173 0.571786
0.943119 0.588955 0.58337
0.945033 0.593697 0.594421
0.944841 0.595569 0.604976
0.943656 0.595261 0.614684
0.941683 0.593464 0.623152
0.939191 0.590508 0.630204
0.936503 0.586814 0.635743
0.933894 0.582503 0.638095
0.931679 0.577539 0.638682
0.930051 0.572668 0.638179
0.9294 0.567702 0.635158
0.930384 0.56275 0.629892
0.933895 0.557803 0.622712
0.940086 0.553179 0.613328
0.948791 0.548726 0.601684
0.959774 0.544736 0.588119
0.973449 0.541066 0.573136
0.989199 0.537886 0.556941
1.00671 0.535188 0.539715
1.02554 0.532966 0.536174
1.04512 0.531174 0.536174
1.0649 0.529794 0.536174
1.08432 0.52879 0.536174
1.10278 0.528096 0.536174
1.11957 0.52847 0.536174
1.13405 0.530393 0.536174
1.14655 0.531558 0.536174
1.15611 0.532466 0.536174
1.16281 0.532848 0.536174
1.16612 0.533066 0.536174
1.16587 0.533038 0.536174
1.16344 0.532668 0.536174
1.15894 0.532253 0.536174
1.15249 0.531753 0.536174
1.14428 0.531176 0.536174
1.13459 0.530471 0.536174
1.12376 0.529419 0.536174
1.11204 0.528462 0.536174
1.09985 0.52749 0.536174
1.08742 0.526714 0.536174
1.07506 0.526145 0.536174
1.06292 0.525916 0.536174
1.05113 0.526378 0.557934
1.03979 0.527931 0.583689
1.02897 0.530644 0.607485
1.01878 0.534519 0.628994
1.00925 0.539481 0.647748
1.00039 0.545374 0.66331
0.992122 0.551949 0.675507
0.984338 0.558876 0.684341
0.976867 0.565764 0.689826
0.975393 0.572168 0.691984
0.975393 0.577588 0.691364
0.975393 0.58144 0.689065
0.975393 0.583201 0.685294
0.975393 0.582778 0.680223
0.975393 0.580448 0.674043
0.975393 0.574847 0.667315
0.975393 0.568463 0.659408
0.975393 0.559743 0.650985
0.975393 0.551442 0.641856
0.975393 0.551442 0.632134
0.975393 0.551442 0.621872
0.975393 0.551442 0.61546
0.975393 0.551442 0.61546
0.975393 0.551442 0.61546
0.975393 0.551442 0.61546
0.975393 0.551442 0.61546
0.975393 0.551442 0.61546
0.975393 0.551442 0.61546
0.975393 0.551442 0.61546
0.975393 0.551442 0.61546
0.975393 0.551442 0.61546
0.975393 0.551442 0.61546
0.975393 0.551442 0.61546
0.973914 0.551442 0.61546
0.973914 0.551442 0.61546
0.973914 0.551442 0.61546
0.973914 0.551442 0.61546
0.973914 0.551442 0.61546
0.973914 0.551442 0.613585
0.97343 0.549544 0.613585
0.97343 0.549544 0.613585
0.97343 0.549544 0.611868
0.97343 0.549544 0.611868
0.97343 0.549544 0.611868
0.97343 0.549544 0.611868
0.973418 0.549544 0.611868
0.973417 0.549544 0.611868
0.973417 0.549544 0.611868
0.973417 0.549544 0.611868
0.973417 0.549544 0.611868
0.973417 0.549544 0.611868
0.973417 0.549544 0.611868
0.973417 0.549544 0.611868
0.973417 0.549544 0.611868
0.973417 0.549544 0.611868
0.973417 0.549544 0.611868
0.973417 0.549544 0.611868
0.973417 0.549544 0.611868
0.973417 0.549544 0.611868
0.973417 0.549544 0.611868
0.973417 0.549544 0.611868
0.973417 0.549544 0.611868
0.973417 0.549544 0.611868
0.973417 0.549544 0.611868
0.973417 0.549544 0.611868
0.973417 0.549544 0.611868
0.973417 0.549544 0.611868
0.973417 0.549544 0.611868
0.973417 0.549544 0.611868
0.973417 0.549544 0.611868
0.973417 0.549544 0.611868
0.973417 0.549544 0.611868
0.973417 0.549544 0.611868
0.973417 0.549544 0.611868
0.973417 0.549544 0.611868
0.973417 0.549544 0.611868
0.973417 0.549544 0.611868
0.973417 0.549544 0.611868
0.973417 0.549544 0.611868
0.973417 0.549544 0.611868
0.973417 0.549544 0.625989
0.973417 0.549544 0.639519
0.973417 0.549544 0.652562
0.973417 0.549544 0.664915
0.973417 0.549544 0.676964
0.973417 0.549544 0.687451
0.973417 0.549544 0.697154
0.973417 0.549544 0.705368
0.973417 0.549544 0.712601
0.973417 0.549544 0.718453
0.973417 0.549544 0.722841
0.973417 0.549544 0.725797
0.973417 0.549544 0.727393
0.973417 0.549544 0.727427
0.973417 0.549544 0.72597
0.973417 0.549544 0.723242
0.988034 0.549544 0.719336
1.0069 0.549544 0.714273
1.02631 0.549544 0.708169
1.04612 0.549544 0.70123
1.06617 0.549544 0.693644
1.08623 0.549544 0.685558
1.10605 0.55063 0.677142
1.12536 0.551547 0.672022
1.14389 0.552347 0.672022
1.16143 0.553039 0.672022
1.17781 0.553645 0.672022
3.08618 0.554736 0.672022
3.08618 0.554736 0.672022
3.08618 0.554736 0.672022
3.08618 0.554736 0.672022
3.08618 0.554736 0.672022
3.08618 0.554736 0.672022
3.08618 0.554736 0.672022
3.08618 0.554736 0.672022
3.08618 0.554736 0.672022
3.08618 0.554736 0.672022
3.08618 0.554736 0.672022
3.08618 0.554736 0.672022
3.08618 0.554736 0.672022
3.08618 0.554736 0.672022
3.08618 0.567292 0.672022
3.08618 0.577628 0.672022
3.08618 0.586851 0.672022
3.08618 0.596891 0.672022
3.08618 0.606733 0.672022
3.08618 0.614864 0.672022
3.08618 0.62315 0.672022
3.08618 0.630373 0.672022
3.08618 0.636812 0.700256
3.08618 0.64265 0.728746
3.08618 0.648766 0.756991
3.08618 0.655447 0.784332
3.08618 0.661524 0.802251
3.08618 0.665409 0.816683
3.08618 0.670274 0.829279
3.08618 0.674435 0.840614
3.08618 0.678653 0.85027
3.08618 0.68255 0.858162
3.08618 0.68648 0.864134
3.08618 0.690276 0.868161
3.08618 0.693749 0.870196
3.08618 0.696652 0.870212
3.08618 0.698619 0.86844
3.08618 0.699333 0.865064
3.08618 0.698804 0.86028
3.08618 0.696702 0.854275
3.08618 0.691704 0.847635
3.08618 0.687118 0.839429
3.08618 0.680676 0.830633
3.08618 0.67359 0.820914
3.08618 0.665107 0.810711
3.08618 0.65576 0.799914
3.08618 0.645478 0.788716
3.08618 0.634224 0.777295
3.08618 0.629401 0.774998
3.08618 0.629401 0.774998
3.08618 0.629401 0.774998
3.08618 0.629401 0.774998
3.08618 0.629401 0.774998
3.08618 0.629401 0.774998
3.08618 0.629401 0.774998
3.08618 0.629401 0.774998
3.08618 0.629401 0.774998
3.08618 0.629401 0.774998
3.08618 0.629401 0.774998
3.08618 0.629401 0.774998
3.08618 0.629401 0.774998
3.08618 0.629401 0.774998
3.08618 0.629401 0.774998
3.08618 0.629401 0.774998
3.08618 0.629401 0.774998
3.08618 0.629401 0.774998
3.08618 0.629401 0.774998
3.08618 0.629401 0.774998
3.08618 0.629401 0.774998
3.08618 0.629401 0.774998
3.08618 0.629401 0.774998
3.08618 0.629401 0.774998
3.08618 0.629401 0.774998
3.08618 0.629401 0.774998
3.08618 0.629401 0.774998
3.08618 0.629401 0.774998
3.08618 0.629401 0.774998
3.08618 0.629401 0.774998
3.08618 0.629401 0.774998
3.08618 0.629401 0.774998
3.08618 0.629401 0.774998
3.08618 0.629401 0.774998
3.08618 0.629401 0.774998
3.08618 0.629401 0.774998
3.08618 0.629401 0.774998
3.08618 0.629401 0.774998
3.08618 0.629401 0.781216
3.08618 0.629401 0.812666
3.08618 0.629401 0.84371
3.08618 0.629401 0.872978
3.08618 0.6316 0.900096
3.08618 0.642344 0.925272
3.08618 0.652706 0.948123
3.08618 0.662415 0.967929
3.08618 0.670746 0.984307
3.08618 0.675218 0.987746
3.08618 0.678076 0.988179
3.08618 0.680048 0.989853
3.08618 0.680582 0.990595
3.08618 0.680315 0.989255
3.08618 0.679439 0.985467
3.08618 0.676559 0.980183
3.08618 0.672763 0.972633
3.08618 0.667573 0.96244
3.08618 0.66106 0.950018
3.08618 0.656471 0.936146
3.08618 0.656471 0.920967
3.08618 0.656471 0.904282
3.08618 0.656471 0.886288
3.08618 0.656471 0.886288
3.08618 0.656471 0.886288
3.08618 0.656471 0.886288
3.08618 0.656471 0.886288
3.08618 0.656471 0.886288
3.08618 0.656471 0.886288
3.08618 0.656471 0.886288
3.08618 0.656471 0.886288
3.08618 0.656471 0.886288
3.08618 0.656471 0.886288
3.08618 0.656471 0.886288
3.08618 0.656471 0.886288
3.08618 0.656471 0.886288
3.08618 0.656471 0.886288
3.08618 0.656471 0.886288
3.08618 0.656471 0.885197
3.08618 0.656471 0.880251
3.08618 0.655338 0.87694
3.08618 0.650203 0.87694
3.08618 0.650203 0.87694
3.08618 0.650203 0.87694
3.08618 0.650203 0.87694
3.08618 0.650203 0.87694
3.08618 0.650203 0.876908
3.08618 0.650046 0.876908
3.08618 0.650046 0.876908
3.08618 0.650046 0.876908
3.08618 0.650046 0.876908
3.08618 0.650046 0.876908
3.08618 0.650046 0.876908
3.08618 0.650046 0.876908
3.08618 0.650046 0.876908
3.08618 0.650046 0.876908
3.08618 0.650046 0.876908
3.08618 0.650046 0.876908
3.08618 0.650046 0.876908
3.08618 0.650046 0.876908
3.08618 0.650046 0.876908
3.08618 0.650046 0.876908
3.08618 0.650046 0.876908
3.08618 0.650046 0.876908
3.08618 0.650046 0.876908
3.08618 0.650046 0.876908
3.08618 0.650046 0.876908
3.08618 0.650046 0.876908
3.08618 0.650046 0.876908
3.08618 0.650046 0.876908
3.08618 0.650046 0.876908
3.08618 0.650046 0.876908
3.08618 0.650046 0.876908
3.08618 0.650046 0.876908
3.08618 0.650046 0.876908
3.08618 0.650046 0.876908
3.08618 0.650046 0.876908
3.08618 0.650046 0.876908
3.08618 0.650046 0.876908
3.08618 0.650046 0.876908
3.08618 0.650046 0.876908
3.08618 0.650046 0.876908
3.08618 0.650046 0.876908
3.08618 0.650046 0.876908
3.08618 0.650046 0.876908
3.08618 0.650046 0.876908
3.08618 0.650046 0.876908
3.08618 0.650046 0.876908
3.08618 0.650046 0.876908
3.08618 0.650046 0.876908
3.08618 0.650046 0.876908
3.08618 0.650046 0.876908
3.08618 0.650046 0.876908
3.08618 0.650046 0.876908
3.08618 0.650046 0.876908
3.08618 0.650046 0.876908
3.08618 0.650046 0.876908
3.08618 0.650046 0.876908
3.08618 0.650046 0.876908
3.08618 0.650046 0.876908
3.08618 0.650046 0.876908
3.08618 0.650046 0.876908
3.08618 0.650046 0.876908
3.08618 0.650046 0.876908
3.08618 0.650046 0.876908
3.08618 0.650046 0.876908
3.08618 0.650046 0.876908
3.08618 0.650046 0.876908
3.08618 0.650046 0.876908
3.08618 0.650046 0.876908
3.08618 0.650046 0.876908
3.08618 0.650046 0.876908
3.08618 0.650046 0.876908
3.08618 0.650046 0.876908
3.08618 0.650046 0.876908
3.08618 0.650046 0.876908
3.08618 0.650046 0.876908
3.08618 0.650046 0.876908
3.08618 0.650046 0.876908
3.08618 0.650046 0.876908
3.08618 0.650043 0.876908
3.08618 0.650043 0.876908
3.08618 0.650043 0.876908
3.08618 0.650043 0.876907
3.08618 0.650043 0.876907
3.08618 0.650043 0.876907
3.08618 0.650043 0.876907
3.08618 0.650043 0.876907
3.08618 0.650043 0.876907
3.08618 0.650043 0.876907
3.08618 0.650043 0.876907
3.08618 0.650043 0.876907
3.08618 0.650043 0.876907
3.08618 0.650043 0.876907
3.08618 0.650043 0.876907
3.08618 0.650043 0.876907
3.08618 0.650043 0.876907
3.08618 0.650043 0.876907
3.08618 0.650043 0.876907
3.08618 0.650043 0.876907
3.08618 0.650043 0.876907
3.08618 0.650043 0.876907
3.08618 0.650043 0.876907
3.08618 0.650043 0.876907
3.08618 0.650043 0.876907
3.08618 0.650043 0.876907
3.08618 0.650043 0.876907
3.08618 0.650043 0.876907
3.08618 0.650043 0.876907
3.08618 0.650043 0.876907
3.08618 0.650043 0.876907
3.08618 0.650043 0.876907
3.08618 0.650043 0.876907
3.08618 0.650043 0.876907
3.08618 0.650043 0.876907
3.08618 0.650043 0.876907
3.08618 0.650043 0.876907
3.08618 0.650043 0.876907
3.08618 0.650043 0.876907
3.08618 0.650043 0.876907
3.08618 0.650043 0.876907
3.08618 0.650043 0.876907
3.08618 0.650043 0.876907
3.08618 0.650043 0.876907
3.08618 0.650043 0.876907
3.08618 0.650043 0.876907
3.08618 0.650043 0.876907
3.08618 0.650043 0.876907
3.08618 0.650043 0.876907
3.08618 0.650043 0.876907
3.08618 0.650043 0.876907
3.08618 0.650043 0.876907
3.08618 0.650043 0.876907
3.08618 0.650043 0.876907
3.08618 0.650043 0.876907
3.08618 0.650043 0.876907
3.08618 0.650043 0.876907
3.08618 0.650043 0.876907
3.08618 0.650043 0.876907
3.08618 0.650043 0.876907
3.08618 0.650043 0.876907
3.08618 0.650043 0.876907
3.08618 0.650043 0.876907
3.08618 0.650043 0.876907
3.08618 0.650043 0.876907
3.08618 0.650043 0.876907
3.08618 0.650043 0.876907
3.08618 0.650043 0.876907
3.08618 0.650043 0.882636
3.08618 0.650043 0.896573
3.08618 0.650043 0.909812
3.08618 0.650043 0.922371
3.08618 0.653734 0.934285
3.08618 0.671987 0.945476
3.08618 0.689859 0.955835
3.08618 0.707251 0.965323
3.08618 0.724015 0.973954
3.08618 0.740109 0.981729
3.08618 0.755175 0.988665
3.08618 0.76922 0.994785
3.08618 0.782813 0.99991
3.08618 0.795715 1.00419
3.08618 0.807805 1.00762
3.08618 0.818572 1.01033
3.08618 0.828032 1.01237
3.08618 0.836606 1.01365
3.08618 0.844003 1.01433
3.08618 0.85017 1.01432
3.08618 0.855184 1.01384
3.08618 0.859315 1.0129
3.08618 0.862268 1.01162
3.08618 0.864163 1.01001
3.08618 0.865111 1.00811
3.08618 0.865376 1.00594
3.08618 0.865655 1.00351
3.08618 0.86536 1.0009
3.08618 0.864562 0.998231
3.08618 0.863931 0.995232
3.08618 0.862881 0.992199
3.08618 0.861624 0.989131
3.08618 0.86019 0.986088
3.08618 0.858658 0.983049
3.08618 0.856625 0.980196
3.08618 0.854383 0.977492
3.08618 0.85174 0.975059
3.08618 0.848762 0.972843
3.08618 0.845474 0.970867
3.08618 0.842126 0.969085
3.08618 0.839127 0.96738
3.08618 0.836347 0.965789
3.08618 0.833501 0.964395
3.08618 0.830608 0.96319
3.08618 0.827789 0.96214
3.08618 0.824992 0.961247
3.08618 0.82209 0.960539
3.08618 0.818988 0.960025
3.08618 0.81562 0.959694
3.08618 0.811874 0.959545
3.08618 0.807636 0.959601
3.08618 0.802771 0.959974
3.08618 0.797262 0.960531
3.08618 0.791052 0.961166
3.08618 0.784107 0.96173
3.08618 0.776399 0.962055
3.08618 0.767927 0.962004
3.08618 0.758693 0.961614
3.08618 0.758693 0.960783
3.08618 0.758693 0.959387
3.08618 0.758693 0.957144
3.08618 0.758693 0.954484
3.08618 0.758693 0.950571
3.08618 0.758693 0.947788
3.08618 0.758693 0.947788
3.08618 0.758693 0.947788
3.08618 0.758693 0.947788
3.08618 0.758693 0.947788
3.08618 0.758693 0.947788
3.08618 0.758693 0.947788
3.08618 0.758693 0.947788
3.08618 0.758693 0.947788
3.08618 0.758693 0.947788
3.08618 0.758693 0.947788
3.08618 0.758693 0.947788
3.08618 0.758693 0.947788
3.08618 0.758693 0.947788
3.08618 0.758693 0.947788
3.08618 0.758693 0.947788
3.08618 0.758693 0.947788
3.08618 0.758693 0.947788
3.08618 0.758693 0.947788
3.08618 0.758693 0.947788
3.08618 0.758458 0.947544
3.08618 0.758458 0.947544
3.08618 0.758458 0.947052
3.08618 0.758458 0.947052
3.08618 0.758458 0.947052
3.08618 0.758458 0.947052
3.08618 0.758458 0.947052
3.08618 0.758458 0.947052
3.08618 0.758458 0.947052
3.08618 0.758458 0.946983
3.08618 0.758458 0.946953
3.08618 0.758132 0.946953
3.08618 0.757954 0.946953
3.08618 0.757944 0.946953
3.08618 0.757934 0.946953
3.08618 0.757934 0.946953
3.08618 0.757934 0.946953
3.08618 0.757934 0.946953
3.08618 0.757934 0.946953
3.08618 0.757934 0.946953
3.08618 0.757934 0.946953
3.08618 0.757934 0.946953
3.08618 0.757934 0.946953
3.08618 0.757934 0.946953
3.08618 0.757934 0.946953
3.08618 0.757934 0.946953
3.08618 0.757934 0.946953
3.08618 0.757934 0.946953
3.08618 0.757934 0.946953
3.08618 0.757929 0.946953
3.08618 0.757929 0.946953
3.08618 0.757929 0.946953
3.08618 0.757929 0.946953
3.08618 0.757929 0.946953
3.08618 0.757929 0.946953
3.08618 0.757929 0.946953
3.08618 0.757929 0.946953
3.08618 0.757929 0.946953
3.08618 0.757929 0.946953
3.08618 0.757929 0.946953
3.08618 0.757929 0.946953
3.08618 0.757929 0.946953
3.08618 0.757929 0.946953
3.08618 0.757929 0.946953
3.08618 0.757929 0.946953
3.08618 0.757929 0.946953
3.08618 0.757929 0.946953
3.08618 0.757929 0.946953
3.08618 0.757929 0.946953
3.08618 0.757929 0.946953
3.08618 0.757929 0.946953
3.08618 0.757929 0.946953
3.08618 0.757929 0.946953
3.08618 0.757929 0.946953
3.08618 0.757929 0.946953
3.08618 0.757929 0.946953
3.08618 0.757929 0.946953
3.08618 0.757929 0.946953
3.08618 0.757929 0.946953
3.08618 0.757929 0.946953
3.08618 0.757929 0.946953
3.08618 0.757929 0.946953
3.08618 0.757929 0.946953
3.08618 0.757929 0.946953
3.08618 0.757929 0.946953
3.08618 0.757929 0.946953
3.08618 0.757929 0.946953
