0 0 0
0 0 0
0 0 0
0 0 0
0 0 0
0 0 0
0 0 0
0 0 0
0 0 0
0 0 0
0 0 0
0 0 0
0 0 0
0 0 0
0 0 0
0 0 0
0 0 0
0 0 0
0 0 0
0 0 0
0 0 0
0 0 0
0 0 0
0 0 0
0 0 0
0 0 0
0 0 0
0 0 0
0 0 0
0 0 0
0 0 0
0 0 0
0 0 0
0 0 0
0 0 0
0 0 0
0 0 0
0 0 0
0 0 0
0 0 0
0 0 0
0 0 0
0 0 0
0 0 0
0 0 0
0 0 0
0 0 0
0 0 0
0 0 0
0 0 0
0 0 0
0 0 0
0 0 0
0 0 0
0 0 0
0 0 0
0 0 0
0 0 0
0 0 0
0 0 0
0 0 0
0 0 0
0 0 0
0 0 0
0 0 0
0 0 0
0 0 0
0 0 0
0 0 0
0 0 0
0 0 0
0 0 0
0 0 0
0 0 0
0 0 0
0 0 0
0 0 0
0 0 0
0.00121611 0 0
0.00412018 0 0
0.00683406 0 0
0.00936582 0 0
0.0117392 0 0
0.0140093 0 0
0.0162607 0 0
0.0185791 0 0
0.020995 0 0
0.0234355 0 0
0.0257268 0 0
0.0276466 0 0
0.0287666 0 0
0.0294923 0 0
0.029392 0 0
0.0285427 0 0
0.0269352 0 0
0.0245532 0 0
0.0213861 0 0
0.0174274 0 0
0.0126676 0 0
0.00710109 0 0
0.00710109 0 0
0.00710109 0 0
0.00710109 0 0
0.00710109 0 0
0.00710109 0 0
0.00710109 0 0
0.00710109 0 0
0.00710109 0 0
0.00710109 0 0
0.00710109 0 0
0.00710109 0 0
0.00710109 0 0
0.00710109 0 0
0.00710109 0 0
0.00710109 0 0
0.00710109 0 0
0.00710109 0 0
0.00710109 0 0
0.00710109 0 0
0.00710109 0 0
0.00710109 0 0
0.00710109 0 0
0.00710109 0 0
0.00710109 0 0
0.00710109 0 0
0.00710109 0 0
0.00710109 0 0
0.00710109 0 0
0.00710109 0 0
0.00710109 0 0
0.00710109 0 0
0.00710109 0 0
0.00710109 0 0
0.00710109 0 0
0.00710109 0 0
0.00710109 0 0
0.00710109 0 0
0.00710109 0 0
0.00710109 0 0
0.00710109 0 0
0.00710109 0 0
0.00710109 0 0
0.00591892 0 0
0.00591892 0 0
0.00591892 0 0
0.00591892 0 0
0.00591892 0 0
0.00591892 0 0
0.00591892 0 0
0.00591892 0 0
0.00591892 0 0
0.00591892 0 0
0.00591892 0 0
0.00591892 0 0
0.00591892 0 0
0.00591892 0 0
0.00591892 0 0
0.00591892 0 0
0.00591892 0 0
0.00591892 0 0
0.00591892 0 0
0.00591892 0 0
0.00591752 0 0
0.00591752 0 0
0.00591752 0 0
0.00591752 0 0
0.00591752 0 0
0.00591752 0 0
0.00591752 0 0
0.00591752 0 0
0.00591752 0 0
0.00591752 0 0
0.0059128 0 0
0.0059128 0 0
0.0059128 0 0
0.0059128 0 0
0.0059128 0 0
0.0059128 0 0
0.0059128 0 0
0.0059128 0 0
0.0059128 0 0
0.0059128 0 0
0.0059128 0 0
0.0059128 0 0
0.0059128 0 0
0.0059128 0 0
0.0059128 0 0
0.0059128 0 0
0.0059128 0 0
0.0059128 0 0
0.0059128 0 0
0.0059128 0 0
0.0059128 0 0
0.0059128 0 0
0.0059128 0 0
0.0059128 0 0
0.0059128 0 0
0.0059128 0 0
0.0059128 0 0
0.0059128 0 0
0.0059128 0 0
0.0059128 0 0
0.0059128 0 0
0.0059128 0 0
0.0059128 0 0
0.0059128 0 0
0.0059128 0 0
0.0059128 0 0
0.0059128 0 0
0.0059128 0 0
0.0059128 0 0
0.0059128 0 0
0.0059128 0 0
0.0059128 0 0
0.0059128 0 0
0.0059128 0 0
0.0059128 0 0
0.0059128 0 0
0.0059128 0 0
0.0059128 0 0
0.0059128 0 0
0.0059128 0 0
0.0059128 0 0
0.0059128 0 0
0.0059128 0 0
0.0059128 0 0
0.0059128 0 0
0.0059128 0 0
0.0059128 0 0
0.0059128 0 0
0.0059128 0 0
0.012077 0 0
0.019866 0 0
0.0270693 0 0
0.0335974 0 0
0.0393788 0 0
0.0443631 0.00544073 0
0.0485227 0.00996766 0
0.0518525 0.0135114 0
0.0543677 0.0160191 0
0.0560972 0.0174569 0
0.0570809 0.0178141 0
0.0573713 0.0172382 0
0.0571064 0.0158222 0
0.0563998 0.013607 0
0.055333 0.0106522 0
0.0539918 0.00703328 0
0.0524519 0.0039378 0
0.0507852 0.0039378 0
0.0490607 0.0039378 0
0.0473403 0.0039378 0
0.0456811 0.0039378 0
0.0441413 0.0039378 0
0.0427797 0.0039378 0
0.0416499 0.0039378 0
0.040799 0.0039378 0
0.0402656 0.0039378 0
0.040081 0.0039378 0
0.040317 0.0039378 0
0.0410473 0.0039378 0
0.0422978 0.0039378 0
0.0439992 0.0039378 0
0.0456357 0.0039378 0
0.0480213 0.0039378 0
0.0510153 0.0039378 0
0.0544418 0.0039378 0
0.0582994 0.0039378 0
0.062476 0.0039378 0
0.0667939 0.0039378 0
0.0708417 0.0039378 0
0.0744744 0.0039378 0
0.0776514 0.0039378 0
0.0801759 0.0039378 0
0.0818289 0.0039378 0
0.0824974 0.0039378 0
0.0821792 0.0039378 0
0.0809452 0.0039378 0
0.0787696 0.0039378 0
0.0756955 0.0039378 0
0.0717875 0.0039378 0
0.0670994 0.0039378 0
0.061699 0.0039378 0
0.0556797 0.0039378 0
0.0491435 0.0039378 0
0.0422058 0.0039378 0
0.034993 0.0039378 0
0.0276379 0.0039378 0
0.0257908 0.0039378 0
0.0257908 0.0039378 0
0.0257908 0.0039378 0
0.0257908 0.0039378 0
0.0257908 0.0039378 0
0.0257908 0.0039378 0
0.0257908 0.0039378 0
0.0257908 0.0039378 0
0.0257908 0.0039378 0
0.0257908 0.0039378 0
0.0257908 0.0039378 0
0.0257908 0.0039378 0
0.0257908 0.0039378 0
0.0257908 0.0039378 0
0.0257908 0.0039378 0
0.0257908 0.0039378 0
0.0257908 0.0039378 0
0.0257908 0.0039378 0
0.0257908 0.0039378 0
0.0257908 0.0039378 0
0.0257908 0.0039378 0
0.0257908 0.0039378 0
0.0257908 0.0039378 0
0.0257908 0.0039378 0
0.0257908 0.0039378 0
0.0257908 0.0039378 0
0.0257908 0.0039378 0
0.0257908 0.0039378 0
0.0257908 0.0039378 0
0.0257908 0.0039378 0
0.0257908 0.0039378 0
0.0257908 0.0039378 0
0.0257908 0.0039378 0
0.0257908 0.0039378 0
0.0257908 0.0039378 0
0.0257908 0.0039378 0
0.0257908 0.0039378 0
0.0257908 0.0039378 0
0.0257908 0.0039378 0
0.0257908 0.0039378 0
0.0257908 0.0039378 0
0.0257908 0.0039378 0
0.0257908 0.0039378 0
0.0257908 0.0039378 0
0.0257908 0.0039378 0
0.0257908 0.0039378 0
0.0257908 0.0039378 0
0.0257908 0.0039378 0
0.0257908 0.0039378 0
0.0247443 0.0039378 0
0.0247443 0.0039378 0
0.0247443 0.00357442 0
0.0247443 0.00357442 0
0.0247443 0.00357442 0
0.0247443 0.00357442 0
0.0247443 0.00357442 0
0.0246941 0.00357442 0
0.0246913 0.00357442 0
0.0246913 0.00357442 0
0.0246913 0.00357442 0
0.0246913 0.00357442 0
0.0246913 0.00357442 0
0.0246913 0.00357442 0
0.0246913 0.00357442 0
0.0246913 0.00357442 0
0.0246913 0.00357442 0
0.0246913 0.00357442 0
0.0246913 0.00357442 0
0.0246913 0.00357442 0
0.0246913 0.00357442 0
0.0246913 0.00357442 0
0.0246913 0.00357442 0
0.0246913 0.00357442 0
0.0246913 0.00357442 0
0.0246913 0.00357442 0
0.0246913 0.00357442 0
0.0246913 0.00357442 0
0.0246913 0.00357442 0
0.0246913 0.00357442 0
0.0246913 0.00357442 0
0.0246913 0.00357442 0
0.0246913 0.00357442 0
0.0246913 0.00357442 0
0.0246913 0.00357442 0
0.0246913 0.00357442 0
0.0246913 0.00357442 0
0.0246913 0.00357442 0
0.0246913 0.00357442 0
0.0246913 0.00357442 0
0.0246913 0.00357442 0
0.0246913 0.00357442 0
0.0246913 0.00357442 0
0.0246913 0.00357442 0
0.0246913 0.00357442 0
0.0246913 0.00357442 0
0.0246913 0.00357442 0
0.0246913 0.00357442 0
0.0246913 0.00357442 0
0.0246913 0.00357442 0
0.0246913 0.00357442 0
0.0246913 0.00357442 0
0.0246913 0.00357442 0
0.0246913 0.00357442 0
0.0246913 0.00357442 0
0.0246913 0.00357442 0
0.0246913 0.00357442 0
0.0246913 0.00357442 0
0.0246913 0.00357442 0
0.0246913 0.00357442 0
0.0246913 0.00357442 0
0.0246913 0.00357442 0
0.0246913 0.00357442 0
0.0246913 0.00357442 0
0.0246913 0.00357442 0
0.0246857 0.00357442 0
0.0246857 0.00357442 0
0.0246857 0.00357442 0
0.0246857 0.00357442 0
0.0246857 0.00357442 0
0.0246857 0.00357442 0
0.0246857 0.00357442 0
0.0246857 0.00357442 0
0.0246857 0.00357442 0
0.0246857 0.00357442 0
0.0246857 0.00357442 0
0.0246857 0.00357442 0
0.0246857 0.00357442 0
0.0246857 0.00357442 0
0.0246857 0.00357442 0
0.0246857 0.00357442 0
0.0246857 0.00357442 0
0.0246857 0.00357442 0
0.0246857 0.00357442 0
0.0246857 0.00357442 0
0.0246857 0.00357442 0
0.0246857 0.00357442 0
0.0246857 0.00357442 0
0.0246857 0.00357442 0
0.0246857 0.00357442 0
0.0246857 0.00357442 0
0.0246857 0.00357442 0
0.0246857 0.00357442 0
0.0246857 0.00357442 0
0.0246857 0.00357442 0
0.0246857 0.00357442 0
0.0246857 0.00357442 0
0.0246857 0.00357442 0
0.0246857 0.00357442 0
0.0246857 0.00357442 0
0.0246857 0.00357442 0
0.0246857 0.00357442 0
0.0246857 0.00357442 0
0.0246857 0.00357442 0
0.0246857 0.00357442 0
0.0246857 0.00357442 0
0.0246857 0.00357442 0
0.0246857 0.00357442 0
0.0246857 0.00357442 0
0.0246857 0.00357442 0
0.0246857 0.00357442 0
0.0246857 0.00357442 0
0.0246857 0.00357442 0
0.0246857 0.00357442 0
0.0246857 0.00357442 0
0.0246857 0.00357442 0
0.0246857 0.00357442 0
0.0246857 0.00357442 0
0.0268688 0.00357442 0
0.0359101 0.00357442 0
0.0453976 0.00357442 0
0.0552566 0.00357442 0
0.0653844 0.00357442 0
0.0756667 0.00357442 0
0.0859797 0.00357442 0
0.0961861 0.00597557 0
0.106132 0.0152807 0
0.115658 0.0239674 0
0.124609 0.031854 0
0.132635 0.0387733 0
0.133853 0.0427615 0
0.13294 0.0429881 0
0.132477 0.0445571 0
0.133391 0.045169 0
0.134145 0.0451085 0
0.133932 0.0449457 0
0.133047 0.0444927 0
0.132362 0.0430923 0
0.130455 0.0409041 0
0.127712 0.0379313 0
0.124484 0.0341993 0
0.12076 0.0299077 0
0.116485 0.0251612 0
0.111837 0.020079 0
0.10702 0.0147643 0
0.102107 0.0134145 0
0.0971791 0.0134145 0
0.0923944 0.0134145 0
0.0878907 0.0134145 0
0.083761 0.0134145 0
0.0801006 0.0134145 0
0.077012 0.0134145 0
0.074574 0.0134145 0
0.07284 0.0134145 0
0.0718527 0.0134145 0
0.0715738 0.0134145 0
0.071612 0.0134145 0
0.0720589 0.0134145 0
0.0729023 0.0134145 0
0.0741219 0.0134145 0
0.0756832 0.0134145 0
0.0775388 0.0134145 0
0.0796308 0.0134145 0
0.0818888 0.0134145 0
0.0842283 0.0170806 0
0.0865544 0.0243214 0
0.0887689 0.0312731 0
0.090774 0.0377402 0
0.0924776 0.0435365 0
0.0937969 0.0484925 0
0.0946643 0.0524605 0
0.0950307 0.055318 0
0.0949012 0.0569688 0
0.0943348 0.0573521 0
0.0933309 0.0566107 0
0.0918886 0.0548303 0
0.0900044 0.052046 0
0.0876681 0.048322 0
0.0848678 0.0437481 0
0.0815997 0.0384355 0
0.0778742 0.0325104 0
0.0737152 0.0261107 0
0.0691576 0.0244535 0
0.0642446 0.0244535 0
0.0590232 0.0244535 0
0.0535387 0.0244535 0
0.0521314 0.0244535 0
0.0521314 0.0244535 0
0.0521314 0.0244535 0
0.0521314 0.0244535 0
0.0521314 0.0244535 0
0.0521314 0.0244535 0
0.0521314 0.0244535 0
0.0521314 0.0244535 0
0.0521314 0.0244535 0
0.0521314 0.0244535 0
0.0521314 0.0244535 0
0.0521314 0.0244535 0
0.0521314 0.0244535 0
0.0521314 0.0244535 0
0.0521314 0.0244535 0
0.0521314 0.0244535 0
0.0521314 0.0244535 0
0.0521314 0.0244535 0
0.0521314 0.0244535 0
0.0521314 0.0244535 0
0.0521314 0.0244535 0
0.0521314 0.0244535 0
0.0521314 0.0244535 0
0.0521314 0.0244535 0
0.0521314 0.0244535 0
0.0521314 0.0244535 0
0.0521314 0.0244535 0
0.0521314 0.0244535 0
0.0521314 0.0244535 0
0.0521314 0.0244535 0
0.0521314 0.0244535 0
0.0521314 0.0244535 0
0.0521314 0.0244535 0
0.0521314 0.0244535 0
0.0521314 0.0244535 0
0.0521314 0.0244535 0
0.0521314 0.0244535 0
0.0521314 0.0244535 0
0.0521314 0.0244535 0
0.0521314 0.0244535 0
0.0521314 0.0244535 0
0.0521314 0.0244535 0
0.0521314 0.0244535 0
0.0521314 0.0244535 0
0.0521314 0.0244535 0
0.0521314 0.0244535 0
0.0521314 0.0244535 0
0.0521314 0.0244535 0
0.0521314 0.0244535 0
0.0521314 0.0244535 0
0.0521314 0.0244535 0
0.0521314 0.0244535 0
0.0521314 0.0244535 0
0.0521314 0.0244535 0
0.0521314 0.0244535 0
0.0521314 0.0244535 0
0.0521314 0.0244535 0
0.0521314 0.0244535 0
0.0521314 0.0244535 0
0.0521314 0.0244535 0
0.0521314 0.0244535 0
0.0521314 0.0244535 0
0.0521314 0.0244535 0
0.0521314 0.0244535 0
0.0521314 0.0244535 0
0.0521314 0.0244535 0
0.0521314 0.0244535 0
0.0521314 0.0244535 0
0.0521314 0.0244535 0
0.0521314 0.0244535 0
0.0521314 0.0244535 0
0.0521314 0.0244535 0
0.0521314 0.0244535 0
0.0521314 0.0244535 0
0.0521314 0.0244535 0
0.0521314 0.0244535 0
0.0521314 0.0244535 0
0.0521314 0.0244535 0
0.0521314 0.0209336 0
0.0521314 0.0209336 0
0.0521314 0.0209336 0
0.0521314 0.0209336 0
0.0521314 0.0209336 0
0.0521314 0.0209336 0
0.0515898 0.0209336 0
0.0515898 0.0209336 0
0.0515898 0.0209336 0
0.0515898 0.0207233 0
0.0515864 0.0207075 0
0.0515677 0.0207075 0
0.0515677 0.0207075 0
0.0515677 0.0207075 0
0.0515677 0.0207075 0
0.0515677 0.0207075 0
0.0515677 0.0207075 0
0.0515677 0.0207075 0
0.0515677 0.0207075 0
0.0515677 0.0207075 0
0.0515677 0.0207075 0
0.0515677 0.0207075 0
0.0515677 0.0207075 0
0.0515677 0.0207075 0
0.0515677 0.0207075 0
0.0515677 0.0207075 0
0.0515677 0.0207075 0
0.0515677 0.0206905 0
0.0515677 0.0206905 0
0.0515677 0.0206905 0
0.0515677 0.0206905 0
0.0515677 0.0206905 0
0.0515677 0.0206905 0
0.0515677 0.0206905 0
0.0515677 0.0206905 0
0.0515677 0.0206905 0
0.0515677 0.0206905 0
0.0515677 0.0206905 0
0.0515677 0.0206905 0
0.0515677 0.0206905 0
0.0515677 0.0206905 0
0.0515677 0.0206905 0
0.0515677 0.0206905 0
0.0515677 0.0206905 0
0.0515677 0.0206905 0
0.0515677 0.0206905 0
0.0515677 0.0206905 0
0.0515677 0.0206905 0
0.0515677 0.0206905 0
0.0515677 0.0206905 0
0.0515677 0.0206905 0
0.0515677 0.0206905 0
0.0515677 0.0206905 0
0.0515677 0.0206905 0
0.0515677 0.0206905 0
0.0515677 0.0206905 0
0.0515677 0.0206905 0
0.0515677 0.0206905 0
0.0515677 0.0206905 0
0.0515677 0.0206905 0
0.0515677 0.0206905 0
0.0515677 0.0206905 0
0.0515677 0.0206905 0
0.0515677 0.0206905 0
0.0515677 0.0206905 0
0.0515677 0.0206905 0
0.0515677 0.0206905 0
0.0515677 0.0206905 0
0.0515677 0.0206905 0
0.0515677 0.0206905 0
0.0515677 0.0206905 0
0.0515677 0.0206905 0
0.0515677 0.0206905 0
0.0515677 0.0206905 0
0.0515677 0.0206905 0
0.0515677 0.0206905 0
0.0515677 0.0206905 0
0.0515677 0.0206905 0
0.0515677 0.0206905 0
0.0515677 0.0206905 0
0.0515677 0.0206905 0
0.0515677 0.0206905 0
0.0515677 0.0206905 0
0.0515677 0.0206905 0
0.0515677 0.0206905 0
0.0515677 0.0206905 0
0.0515677 0.0206905 0
0.0515677 0.0206905 0
0.0515677 0.0206905 0
0.0515677 0.0206905 0
0.0515677 0.0206905 0
0.0515677 0.0206905 0
0.0515677 0.0206905 0
0.0515677 0.0206905 0
0.054659 0.0206905 0
0.0607581 0.0206905 0
0.0666929 0.0206905 0
0.0723943 0.0206905 0
0.0778001 0.0206905 0
0.0828899 0.0206905 0
0.0875976 0.0206905 0
0.0918983 0.0206905 0
0.0957653 0.0206905 0
0.0991892 0.0206905 0
0.102167 0.0206905 0
0.104701 0.0206905 0
0.106805 0.0206905 0
0.108503 0.0206905 0
0.109819 0.0206905 0
0.11079 0.0206905 0
0.111454 0.0206905 0
0.111869 0.0206905 0
0.112103 0.0206905 0
0.112208 0.0206905 0
0.112275 0.0206905 0
0.112333 0.0206905 0
0.111324 0.0206905 0
0.110262 0.0206905 0
0.1095 0.0206905 0
0.109016 0.0206905 0
0.108892 0.0206905 0
0.109153 0.0206905 0
0.109852 0.0206905 0
0.111025 0.0206905 0
0.112664 0.0206905 0
0.114812 0.0206905 0
0.117029 0.0232288 0
0.119779 0.0284936 0
0.122762 0.0340903 0
0.125986 0.039929 0
0.12915 0.045985 0
0.128977 0.0506211 0
0.141935 0.0506211 0
0.151287 0.065731 0
0.142326 0.0690693 0
0.144869 0.0604005 0
0.156367 0.0628992 0
0.159643 0.0801583 0
0.158215 0.0955954 0
0.161464 0.10011 0
0.166616 0.100329 0
0.168263 0.106119 0
0.168796 0.117127 0
0.170931 0.126677 0
0.172966 0.131138 0
0.173604 0.133401 0
0.173936 0.137373 0
0.174467 0.14285 0
0.174405 0.144942 0
0.173119 0.14424 0
0.171758 0.142769 0
0.170365 0.142093 0
0.168359 0.142215 0
0.16578 0.141499 0
0.162891 0.138875 0
0.159644 0.135673 0
0.155878 0.132842 0
0.151558 0.130088 0
0.146806 0.126727 0
0.141949 0.12265 0
0.136793 0.118483 0
0.131289 0.114586 0
0.125554 0.110673 0
0.11969 0.10662 0
0.113675 0.102478 0
0.107521 0.0985146 0
0.101284 0.0948268 0
0.0949968 0.0913292 0
0.088676 0.0879589 0
0.0823548 0.0847706 0
0.0823548 0.0818505 0
0.0823548 0.078505 0
0.0823548 0.0753978 0
0.0823548 0.0730443 0
0.0823548 0.0730443 0
0.0823548 0.0730443 0
0.0823548 0.0730443 0
0.0823548 0.0730443 0
0.0823548 0.0730443 0
0.0823548 0.0730443 0
0.0823548 0.0730443 0
0.0823548 0.0730443 0
0.0823548 0.0730443 0
0.0823548 0.0730443 0
0.0823548 0.0730443 0
0.0823548 0.0730443 0
0.0823548 0.0730443 0
0.0823548 0.0730443 0
0.0823548 0.0730443 0
0.0823548 0.0730443 0
0.0823548 0.0730443 0
0.0823548 0.0730443 0
0.0823548 0.0730443 0
0.0823548 0.0730443 0
0.0823548 0.0730443 0
0.0823548 0.0730443 0
0.0823548 0.0730443 0
0.0823548 0.0730443 0
0.0823548 0.0730443 0
0.0823548 0.0730443 0
0.0823548 0.0730443 0
0.0823548 0.0730443 0
0.0823548 0.0695958 0
0.0823548 0.061738 0
0.0823548 0.0550061 0
0.08154 0.050131 0
0.08154 0.0481691 0
0.08154 0.0479116 0
0.08154 0.04791 0
0.08154 0.04791 0
0.08154 0.04791 0
0.08154 0.04791 0
0.0815243 0.04791 0
0.0815239 0.04791 0
0.0815239 0.04791 0
0.0815239 0.04791 0
0.0815239 0.04791 0
0.0815239 0.04791 0
0.0815239 0.04791 0
0.0815239 0.04791 0
0.0815239 0.04791 0
0.0815239 0.04791 0
0.0815239 0.04791 0
0.0815239 0.04791 0
0.0815239 0.04791 0
0.0815239 0.04791 0
0.0815239 0.04791 0
0.0815239 0.04791 0
0.0815239 0.04791 0
0.0815239 0.04791 0
0.0815239 0.04791 0
0.0815239 0.04791 0
0.0815239 0.04791 0
0.0815239 0.04791 0
0.0815239 0.04791 0
0.0815239 0.04791 0
0.0815239 0.04791 0
0.0815239 0.0478846 0
0.0815239 0.0478846 0
0.0815239 0.0478846 0
0.0815239 0.0478846 0
0.0815239 0.0478846 0
0.0815239 0.0478846 0
0.0815239 0.0478846 0
0.0815239 0.0478846 0
0.0815239 0.0478846 0
0.0815239 0.0478846 0
0.0815239 0.0478846 0
0.0815239 0.0478846 0
0.0815239 0.0478846 0
0.0815239 0.0478846 0
0.0815239 0.0478846 0
0.0815239 0.0478846 0
0.0815239 0.0478846 0
0.0815239 0.0478846 0
0.0815239 0.0478846 0
0.0815239 0.0478846 0
0.0815239 0.0478846 0
0.0815239 0.0478846 0
0.0815239 0.0478846 0
0.0815239 0.0478846 0
0.0815239 0.0478846 0
0.0815239 0.0478846 0
0.0815239 0.0478846 0
0.0815239 0.0478846 0
0.0815239 0.0478846 0
0.0815239 0.0478846 0
0.0815239 0.0478846 0
0.0815239 0.0478846 0
0.0815239 0.0478846 0
0.0815239 0.0478846 0
0.0815239 0.0478846 0
0.0815239 0.0478846 0
0.0815239 0.0478846 0
0.0815239 0.0478846 0
0.0815239 0.0478846 0
0.0815239 0.0478846 0
0.0815239 0.0478846 0
0.0815239 0.0478846 0
0.0815239 0.0478846 0
0.0815239 0.0478846 0
0.0815239 0.0478846 0
0.0815239 0.0478846 0
0.0815239 0.0478846 0
0.0815239 0.0478846 0
0.0815239 0.0478846 0
0.0815239 0.0478846 0
0.0815239 0.0478846 0
0.0815239 0.0478846 0
0.0815239 0.0478846 0
0.0815239 0.0478846 0
0.0815239 0.0478846 0
0.0815239 0.0478846 0
0.0815239 0.0478846 0
0.0815239 0.0478846 0
0.0815239 0.0478846 0
0.0815239 0.0478846 0
0.0815239 0.0478846 0
0.0815239 0.0478846 0
0.0815239 0.0478846 0
0.0815239 0.0478846 0
0.0815239 0.0478846 0
0.0815239 0.0478846 0
0.0815239 0.0478846 0
0.0815239 0.0478846 0
0.0815239 0.0478846 0
0.0815239 0.0478846 0
0.0815239 0.0478846 0
0.0815239 0.0478846 0
0.0815239 0.0478846 0
0.0815239 0.0478846 0
0.0815239 0.0478846 0
0.0815239 0.0478846 0
0.0815239 0.0478846 0
0.0815239 0.0478846 0
0.0815239 0.0478846 0
0.0815239 0.0478846 0
0.0815239 0.0478846 0
0.0815239 0.0478846 0
0.0815239 0.0478846 0
0.0815239 0.0478846 0
0.0815239 0.0478846 0
0.0815239 0.0478846 0
0.0815239 0.0478846 0
0.0815239 0.0478846 0
0.0815239 0.0478846 0
0.0815239 0.0478846 0
0.0815239 0.0478846 0
0.0815239 0.0478846 0
0.0815239 0.0478846 0
0.0815239 0.0478846 0
0.0815239 0.0478846 0
0.0815239 0.0478846 0
0.0815239 0.0478846 0
0.0815239 0.0478846 0
0.0815239 0.0478846 0
0.0815239 0.0478846 0
0.0815239 0.0478846 0
0.0815239 0.0478846 0
0.0815239 0.0478846 0
0.0815239 0.0478846 0
0.0815239 0.0478846 0
0.0815239 0.0478846 0
0.0815239 0.0478846 0
0.0815239 0.0478846 0
0.0815239 0.0478846 0
0.0815239 0.0478846 0
0.0815239 0.0478846 0
0.0815239 0.0478846 0
0.0815239 0.0478846 0
0.0815239 0.0478846 0
0.0815239 0.0478846 0
0.0815239 0.0478846 0
0.0815239 0.0478846 0
0.0815239 0.0478846 0
0.0815239 0.0478846 0
0.0815239 0.0478846 0
0.0815239 0.0478846 0
0.0815239 0.0478846 0
0.0815239 0.0478846 0
0.0815239 0.0478846 0
0.0815239 0.0478846 0
0.0815239 0.0478846 0
0.0815239 0.0478846 0
0.0815239 0.0478846 0
0.0815239 0.0478846 0
0.0815239 0.0478846 0
0.0815239 0.0478846 0
0.0815239 0.0478846 0
0.0815239 0.0478846 0
0.0815239 0.0478846 0
0.0815239 0.0478846 0
0.0815239 0.0478846 0
0.0815239 0.0478846 0
0.0815239 0.0478846 0
0.0815239 0.0478846 0
0.0815239 0.0478846 0
0.0815239 0.0478846 0
0.0815239 0.0478838 0
0.0815239 0.0478838 0
0.0815239 0.0478838 0
0.0815239 0.0478835 0
0.0815239 0.0478835 0
0.0815239 0.0478835 0
0.0815239 0.0478835 0
0.0815239 0.0478816 0
0.0815239 0.0478816 0
0.0815239 0.0478816 0
0.0815239 0.0478816 0
0.0815239 0.0478816 0
0.0815239 0.0478816 0
0.0815239 0.0478816 0
0.0815239 0.0478816 0
0.0815239 0.0478816 0
0.0815239 0.0478816 0
0.0815239 0.0478816 0
0.0815239 0.0478816 0
0.0815239 0.0478816 0
0.0815239 0.0478816 0
0.0815239 0.0478816 0
0.0815239 0.0478816 0
0.0815239 0.0478816 0
0.0815239 0.0478816 0
0.0815239 0.0478816 0
0.0815239 0.0478816 0
0.0815239 0.0478816 0
0.0815239 0.0478816 0
0.0815239 0.0478816 0
0.0815239 0.0478816 0
0.0815239 0.0478816 0
0.0815239 0.0478816 0
0.0815239 0.0478816 0
0.0815239 0.0478816 0
0.0815239 0.0478816 0
0.0815239 0.0478816 0
0.0815239 0.0478816 0
0.0815239 0.0478816 0
0.0815239 0.0478816 0
0.0815239 0.0478816 0
0.0815239 0.0478816 0
0.0815239 0.0478816 0
0.0815239 0.0478816 0
0.0815239 0.0478816 0
0.0815239 0.0478816 0
0.0815239 0.0478816 0
0.0815239 0.0478816 0
0.0815239 0.0478816 0
0.0815239 0.0478816 0
0.0815239 0.0478816 0
0.0815239 0.0478816 0
0.0815239 0.0478816 0
0.0815239 0.0478816 0
0.0815239 0.0478816 0
0.0815239 0.0478816 0
0.0815239 0.0478816 0
0.0815239 0.0478816 0
0.0815239 0.0478816 0
0.0815239 0.0478816 0
0.0815239 0.0478816 0
0.0815239 0.0478816 0
0.0815239 0.0478816 0
0.0815239 0.0478816 0
0.0815239 0.0478816 0
0.0815239 0.0478816 0
0.0815239 0.0478816 0
0.0815239 0.0478816 0
0.0815239 0.0478816 0
0.0815239 0.0478816 0
0.0815239 0.0478816 0
0.0815239 0.0478816 0
0.0815239 0.0478816 0
0.0815239 0.0478816 0
0.0815239 0.0478816 0
0.0815239 0.0478816 0
0.0815239 0.0478816 0
0.0815239 0.0478816 0
0.0815239 0.0478816 0
0.0815239 0.0478816 0
0.0815239 0.0478816 0
0.0815239 0.0478816 0
0.0815239 0.0478816 0
0.0815239 0.0478816 0
0.0815239 0.0478816 0
0.0815239 0.0478816 0
0.0815239 0.0478816 0
0.0815239 0.0478816 0
0.0815239 0.0478816 0
0.0815239 0.0478816 0
0.0815239 0.0478816 0
0.0815239 0.0478816 0
0.0815239 0.0478816 0
0.0815239 0.0478816 0
0.0815239 0.0478816 0
0.0815239 0.0478816 0
0.0815239 0.0478816 0
0.0815239 0.0478816 0
0.0815239 0.0478816 0
0.0815239 0.0478816 0
0.0815239 0.0478816 0
0.0815239 0.0478816 0
0.0815239 0.0478816 0
0.0815239 0.0478816 0
0.0815239 0.0478816 0
0.0815239 0.0478816 0
0.0815239 0.0478816 0
0.0815239 0.0478816 0
0.0815239 0.0478816 0
0.0815239 0.0478816 0
0.0815239 0.0478816 0
0.0815239 0.0478816 0
0.0815239 0.0478816 0
0.0815239 0.0478816 0
0.0815239 0.0478816 0
0.0815239 0.0478816 0
0.0815239 0.0478816 0
0.0831018 0.0478816 0
0.085843 0.0478816 0
0.0870986 0.0478816 0
0.0886572 0.0478816 0
0.0897265 0.0478816 0
0.0897528 0.0478816 0
0.0896769 0.0478816 0
0.089583 0.0478816 0
0.08933 0.0478816 0
0.0876255 0.0478816 0
0.085343 0.0478816 0
0.0837638 0.0478816 0
0.0837638 0.0478816 0
0.0837638 0.0478816 0
0.0837638 0.0478816 0
0.0837638 0.0478816 0
0.0837638 0.0478816 0
0.0837638 0.0478816 0
0.0837638 0.0478816 0
0.0837638 0.0478816 0
0.0837638 0.0478816 0
0.0837638 0.0478816 0
0.0837638 0.0478816 0
0.0837638 0.0478816 0
0.0837638 0.0478816 0
0.0837638 0.0478816 0
0.0837638 0.0478816 0
0.0837638 0.0478816 0
0.0837638 0.0478816 0
0.0837638 0.0478816 0
0.0900136 0.0478816 0
0.0956496 0.0478816 0
0.100801 0.0478816 0
0.105411 0.0478816 0
0.110006 0.0478816 0
0.11477 0.0478816 0
0.119522 0.0478816 0
0.124281 0.0478816 0
0.129254 0.0478816 0
0.134125 0.0478816 0
0.139345 0.0478816 0
0.144808 0.0478816 0
0.149198 0.0478816 0
0.154017 0.0478816 0
0.15925 0.0478816 0
0.164562 0.0478816 0
0.17018 0.0478816 0
0.175854 0.0478816 0
0.181586 0.0478816 0
0.187226 0.0478816 0
0.192719 0.0478816 0
0.197982 0.0478816 0
0.203002 0.0478816 0
0.20747 0.0478816 0
0.210875 0.0478816 0
0.213418 0.0478816 0
0.215139 0.0478816 0
0.216132 0.0478816 0
0.216566 0.0478816 0
0.216598 0.0478816 0
0.216405 0.0478816 0
0.21612 0.0478816 0
0.21585 0.0478816 0
0.215667 0.0478816 0
0.215606 0.0478816 0
0.215684 0.0478816 0
0.215897 0.0478816 0
0.216192 0.0478816 0
0.216662 0.0478816 0
0.217287 0.0478816 0
0.218101 0.0478816 0
0.218816 0.0478816 0
0.21977 0.0478816 0
0.220758 0.0478816 0
0.221624 0.0478816 0
0.222489 0.0478816 0
0.222904 0.0478816 0
0.223251 0.0478816 0
0.222298 0.0478816 0
0.221445 0.0478816 0
0.221081 0.0478816 0
0.220953 0.0478816 0
0.220968 0.0478816 0
0.221333 0.0478816 0
0.221935 0.0478816 0
0.222552 0.0478816 0
0.223157 0.0478816 0
0.223396 0.0478816 0
0.223428 0.0478816 0
0.222738 0.0478816 0
0.221386 0.0478816 0
0.219353 0.0478816 0
0.216682 0.0478816 0
0.213327 0.0478816 0
0.209204 0.0478816 0
0.204224 0.0478816 0
0.198332 0.0478816 0
0.191462 0.0478816 0
0.183527 0.0478816 0
0.174435 0.0478816 0
0.164153 0.0478816 0
0.152696 0.0478816 0
0.140143 0.0478816 0
0.126604 0.0478816 0
0.11508 0.0478816 0
0.11508 0.0478816 0
0.11508 0.0478816 0
0.11508 0.0478816 0
0.11508 0.0478816 0
0.11508 0.0478816 0
0.11508 0.0478816 0
0.11508 0.0478816 0
0.11508 0.0478816 0
0.11508 0.0478816 0
0.11508 0.0478816 0
0.11508 0.0478816 0
0.11508 0.0478816 0
0.11508 0.0478816 0
0.11508 0.0478816 0
0.11508 0.0478816 0
0.11508 0.0478816 0
0.11508 0.0478816 0
0.11508 0.0478816 0
0.11508 0.0478816 0
0.11508 0.0478816 0
0.11508 0.0478816 0
0.11508 0.0478816 0
0.11508 0.0478816 0
0.11508 0.0478816 0
0.11508 0.0478816 0
0.11508 0.0478816 0
0.11508 0.0478816 0
0.11508 0.0478816 0
0.11508 0.0478816 0
0.11508 0.0478816 0
0.11508 0.0478816 0
0.11508 0.0478816 0
0.11508 0.0478816 0
0.11508 0.0478816 0
0.11508 0.0478816 0
0.11508 0.0478816 0
0.11508 0.0478816 0
0.11508 0.0478816 0
0.11508 0.0478816 0
0.11508 0.0478816 0
0.11508 0.0478816 0
0.11508 0.0478816 0
0.11508 0.0478816 0
0.11508 0.0478816 0
0.11508 0.0478816 0
0.11508 0.0478816 0
0.11508 0.0478816 0
0.11508 0.0478816 0
0.11508 0.0478816 0
0.11508 0.0478816 0
0.11508 0.0478816 0
0.11508 0.0478816 0
0.11508 0.0478816 0
0.11508 0.0478816 0
0.11508 0.0478816 0
0.11508 0.0478816 0
0.11508 0.0478816 0
0.11508 0.0478816 0
0.11508 0.0478816 0
0.11508 0.0478816 0
0.11508 0.0478816 0
0.11508 0.0478816 0
0.11508 0.0478816 0
0.11508 0.0478816 0
0.11508 0.0478816 0
0.11508 0.0478816 0
0.11508 0.0478816 0
0.11508 0.0478816 0
0.11508 0.0478816 0
0.11508 0.0478816 0
0.11508 0.0478816 0
0.11508 0.0478816 0
0.11508 0.0478816 0
0.11508 0.0478816 0
0.11508 0.0478816 0
0.11508 0.0478816 0
0.11508 0.0478816 0
0.11508 0.0478816 0
0.11508 0.0478816 0
0.11508 0.0478816 0
0.11508 0.0478816 0
0.11508 0.0478816 0
0.11508 0.0478816 0
0.11508 0.0478816 0
0.11508 0.0478816 0
0.11508 0.0478816 0
0.11508 0.0478816 0
0.11508 0.0478816 0
0.11508 0.0478816 0
0.11508 0.0478816 0
0.11508 0.0478816 0
0.11508 0.0478816 0
0.11508 0.0478816 0
0.11508 0.0478816 0
0.11508 0.0478816 0
0.11508 0.0478816 0
0.11508 0.0478816 0
0.11508 0.0478816 0
0.11508 0.0478816 0
0.117243 0.0478816 0
0.123737 0.0478816 0
0.133326 0.0478816 0
0.148474 0.0478816 0
0.175197 0.0478816 0
0.191682 0.0478816 0
0.210553 0.0478816 0
0.232214 0.0478816 0
0.251339 0.0478816 0
0.270706 0.0478816 0
0.29166 0.0478816 0
0.311972 0.0478816 0
0.332423 0.0478816 0
0.353791 0.0478816 0
0.353801 0.0478816 0
0.405344 0.0478816 0
0.388728 0.0478816 0
0.415058 0.0478816 0
0.462878 0.0478816 0
0.476226 0.0529751 0
0.500707 0.064015 0
0.53891 0.0775231 0
0.56505 0.0907302 0
0.564292 0.100501 0
0.569678 0.10853 0
0.572404 0.112877 0
0.572362 0.114538 0
0.574169 0.115822 0
0.576499 0.11758 0
0.576915 0.119641 0
0.264533 0.12059 0
0.242657 0.0720449 0
0.242657 0.124545 0
0.26827 0.137058 0
0.266957 0.148582 0
0.269155 0.144398 0
0.265779 0.145056 0
0.261771 0.152747 0
0.260704 0.157204 0
0.258243 0.157227 0
0.256892 0.158521 0
0.256892 0.162609 0
0.256892 0.165855 0
0.256892 0.16712 0
0.256892 0.168185 0
0.256892 0.170016 0
0.256892 0.172004 0
0.256892 0.170402 0
0.256892 0.11962 0
0.256892 0.11962 0
0.256892 0.11962 0
0.256892 0.11962 0
0.256892 0.11962 0
0.256892 0.11962 0
0.256892 0.11962 0
0.256892 0.11962 0
0.256892 0.11962 0
0.256892 0.11962 0
0.256892 0.11962 0
0.256892 0.11962 0
0.256892 0.11962 0
0.256892 0.11962 0
0.256892 0.11962 0
0.256892 0.11962 0
0.256892 0.11962 0
0.256892 0.11962 0
0.256892 0.11962 0
0.256892 0.11962 0
0.256892 0.11962 0
0.256892 0.11962 0
0.256892 0.11962 0
0.256892 0.11962 0
0.256892 0.11962 0
0.256892 0.11962 0
0.256892 0.11962 0
0.256892 0.11962 0
0.256892 0.11962 0
0.256892 0.11962 0
0.256892 0.11962 0
0.256892 0.11962 0
0.256892 0.11962 0
