0 0 1055.84 0 0 -1055.84 0 0 1030.03 0 0 -1030.03 0 0 34.6858 0 0 -34.6858
0 0 1048.78 0 0 -1048.78 0 0 1031.05 0 0 -1031.05 0 0 34.6439 0 0 -34.6439
0 0 1032.32 0 0 -1032.32 0 0 1033.53 0 0 -1033.53 0 0 34.5266 0 0 -34.5266
0 0 998.391 0 0 -998.391 0 0 1037.94 0 0 -1037.94 0 0 34.3721 0 0 -34.3721
0 0 959.776 0 0 -959.776 0 0 1042.28 0 0 -1042.28 0 0 34.2675 0 0 -34.2675
0 0 909.99 0 0 -909.99 0 0 1046.88 0 0 -1046.88 0 0 34.2452 0 0 -34.2452
0 0 848.101 0 0 -848.101 0 0 1051.22 0 0 -1051.22 0 0 34.3583 0 0 -34.3583
0 0 773.102 0 0 -773.102 0 0 1054.71 0 0 -1054.71 0 0 34.6744 0 0 -34.6744
0 0 683.88 0 0 -683.88 0 0 1056.63 0 0 -1056.63 0 0 35.2603 0 0 -35.2603
0 0 579.238 0 0 -579.238 0 0 1056.24 0 0 -1056.24 0 0 36.1814 0 0 -36.1814
0 0 458.08 0 0 -458.08 0 0 1052.69 0 0 -1052.69 0 0 37.5004 0 0 -37.5004
0 0 319.708 0 0 -319.708 0 0 1045 0 0 -1045 0 0 39.274 0 0 -39.274
0 0 164.82 0 0 -164.82 0 0 1032.09 0 0 -1032.09 0 0 41.5498 0 0 -41.5498
0 0 -3.58561 0 0 3.58561 0 0 1013.09 0 0 -1013.09 0 0 44.3278 0 0 -44.3278
0 0 -185.55 0 0 185.55 0 0 985.995 0 0 -985.995 0 0 47.6864 0 0 -47.6864
0 0 -376.741 0 0 376.741 0 0 949.487 0 0 -949.487 0 0 51.59 0 0 -51.59
0 0 -572.207 0 0 572.207 0 0 902.064 0 0 -902.064 0 0 56.001 0 0 -56.001
0 0 -766.366 0 0 766.366 0 0 842.459 0 0 -842.459 0 0 60.8178 0 0 -60.8178
0 0 -953.499 0 0 953.499 0 0 769.816 0 0 -769.816 0 0 65.8754 0 0 -65.8754
0 0 -1127.93 0 0 1127.93 0 0 683.772 0 0 -683.772 0 0 70.9406 0 0 -70.9406
0 0 -1283.92 0 0 1283.92 0 0 584.477 0 0 -584.477 0 0 75.6889 0 0 -75.6889
0 0 -1415.12 0 0 1415.12 0 0 472.558 0 0 -472.558 0 0 79.7282 0 0 -79.7282
0 0 -1514.07 0 0 1514.07 0 0 349.066 0 0 -349.066 0 0 82.6132 0 0 -82.6132
0 0 -1571.83 0 0 1571.83 0 0 215.553 0 0 -215.553 0 0 83.848 0 0 -83.848
0 0 -1577.97 0 0 1577.97 0 0 73.7205 0 0 -73.7205 0 0 82.9028 0 0 -82.9028
0 0 -1521.44 0 0 1521.44 0 0 -72.7938 0 0 72.7938 0 0 79.2252 0 0 -79.2252
0 0 -1393.36 0 0 1393.36 0 0 -220.807 0 0 220.807 0 0 72.2527 0 0 -72.2527
0 0 -1190.08 0 0 1190.08 0 0 -366.451 0 0 366.451 0 0 61.2105 0 0 -61.2105
0 0 -916.336 0 0 916.336 0 0 -502.615 0 0 502.615 0 0 45.3637 0 0 -45.3637
0 0 -583.881 0 0 583.881 0 0 -621.315 0 0 621.315 0 0 24.082 0 0 -24.082
0 0 -207.861 0 0 207.861 0 0 -714.072 0 0 714.072 0 0 -2.9907 0 0 2.9907
0 0 202.591 0 0 -202.591 0 0 -772.479 0 0 772.479 0 0 -36.5759 0 0 36.5759
0 0 628.383 0 0 -628.383 0 0 -790.986 0 0 790.986 0 0 -76.7249 0 0 76.7249
0 0 1059.19 0 0 -1059.19 0 0 -764.887 0 0 764.887 0 0 -123.182 0 0 123.182
0 0 1485.97 0 0 -1485.97 0 0 -691.52 0 0 691.52 0 0 -175.45 0 0 175.45
0 0 1905.59 0 0 -1905.59 0 0 -570.442 0 0 570.442 0 0 -232.605 0 0 232.605
0 0 2314.56 0 0 -2314.56 0 0 -403.047 0 0 403.047 0 0 -293.455 0 0 293.455
0 0 2714.06 0 0 -2714.06 0 0 -192.966 0 0 192.966 0 0 -356.468 0 0 356.468
0 0 3103.45 0 0 -3103.45 0 0 55.3184 0 0 -55.3184 0 0 -419.855 0 0 419.855
0 0 3483.31 0 0 -3483.31 0 0 338.668 0 0 -338.668 0 0 -481.456 0 0 481.456
0 0 3852.78 0 0 -3852.78 0 0 646.177 0 0 -646.177 0 0 -539.527 0 0 539.527
0 0 4210.08 0 0 -4210.08 0 0 971.378 0 0 -971.378 0 0 -591.858 0 0 591.858
0 0 4550.81 0 0 -4550.81 0 0 1306.62 0 0 -1306.62 0 0 -636.408 0 0 636.408
0 0 4867.29 0 0 -4867.29 0 0 1644.98 0 0 -1644.98 0 0 -671.214 0 0 671.214
0 0 5150.5 0 0 -5150.5 0 0 1979.72 0 0 -1979.72 0 0 -694.486 0 0 694.486
0 0 5393.41 0 0 -5393.41 0 0 2304.31 0 0 -2304.31 0 0 -704.583 0 0 704.583
0 0 5594.92 0 0 -5594.92 0 0 2611.5 0 0 -2611.5 0 0 -699.947 0 0 699.947
0 0 5760.75 0 0 -5760.75 0 0 2893.45 0 0 -2893.45 0 0 -679.571 0 0 679.571
0 0 5903.98 0 0 -5903.98 0 0 3142.33 0 0 -3142.33 0 0 -642.548 0 0 642.548
0 0 6044.31 0 0 -6044.31 0 0 3350.92 0 0 -3350.92 0 0 -588.38 0 0 588.38
0 0 6255.28 0 0 -6255.28 0 0 3545.73 0 0 -3545.73 0 0 -496.545 0 0 496.545
0 0 6559.99 0 0 -6559.99 0 0 3660.06 0 0 -3660.06 0 0 -378.92 0 0 378.92
0 0 7013.84 0 0 -7013.84 0 0 3693.19 0 0 -3693.19 0 0 -237.94 0 0 237.94
0 0 7658.57 0 0 -7658.57 0 0 3654.07 0 0 -3654.07 0 0 -77.5233 0 0 77.5233
0 0 8515.13 0 0 -8515.13 0 0 3562.83 0 0 -3562.83 0 0 99.1809 0 0 -99.1809
0 0 9580.02 0 0 -9580.02 0 0 3448.71 0 0 -3448.71 0 0 284.254 0 0 -284.254
0 0 10822.5 0 0 -10822.5 0 0 3350.19 0 0 -3350.19 0 0 469.436 0 0 -469.436
0 0 12188 0 0 -12188 0 0 3310.63 0 0 -3310.63 0 0 647.706 0 0 -647.706
0 0 13611.9 0 0 -13611.9 0 0 3373.49 0 0 -3373.49 0 0 811.552 0 0 -811.552
0 0 15039.5 0 0 -15039.5 0 0 3575.53 0 0 -3575.53 0 0 955.437 0 0 -955.437
0 0 16437.3 0 0 -16437.3 0 0 3942.22 0 0 -3942.22 0 0 1075.13 0 0 -1075.13
0 0 17791.5 0 0 -17791.5 0 0 4486.35 0 0 -4486.35 0 0 1168.73 0 0 -1168.73
0 0 19102 0 0 -19102 0 0 5208.18 0 0 -5208.18 0 0 1236.35 0 0 -1236.35
0 0 20375.6 0 0 -20375.6 0 0 6096.61 0 0 -6096.61 0 0 1280.25 0 0 -1280.25
0 0 21618.9 0 0 -21618.9 0 0 7130.93 0 0 -7130.93 0 0 1304.55 0 0 -1304.55
0 0 22830.6 0 0 -22830.6 0 0 8283.58 0 0 -8283.58 0 0 1314.88 0 0 -1314.88
0 0 24001.3 0 0 -24001.3 0 0 9521.65 0 0 -9521.65 0 0 1318.02 0 0 -1318.02
0 0 25123.7 0 0 -25123.7 0 0 10807.2 0 0 -10807.2 0 0 1321.58 0 0 -1321.58
0 0 26200.1 0 0 -26200.1 0 0 12098.1 0 0 -12098.1 0 0 1333.58 0 0 -1333.58
0 0 27242.9 0 0 -27242.9 0 0 13350.5 0 0 -13350.5 0 0 1361.9 0 0 -1361.9
0 0 28266.2 0 0 -28266.2 0 0 14523.3 0 0 -14523.3 0 0 1413.68 0 0 -1413.68
0 0 29274.5 0 0 -29274.5 0 0 15581.6 0 0 -15581.6 0 0 1494.73 0 0 -1494.73
0 0 30255.6 0 0 -30255.6 0 0 16500.3 0 0 -16500.3 0 0 1609.09 0 0 -1609.09
0 0 31189.4 0 0 -31189.4 0 0 17263.6 0 0 -17263.6 0 0 1758.84 0 0 -1758.84
0 0 32057.9 0 0 -32057.9 0 0 17864.1 0 0 -17864.1 0 0 1944.06 0 0 -1944.06
0 0 32848.3 0 0 -32848.3 0 0 18301.8 0 0 -18301.8 0 0 2162.84 0 0 -2162.84
0 0 33553.7 0 0 -33553.7 0 0 18584.3 0 0 -18584.3 0 0 2411.33 0 0 -2411.33
0 0 34173.1 0 0 -34173.1 0 0 18725.9 0 0 -18725.9 0 0 2683.95 0 0 -2683.95
0 0 34712 0 0 -34712 0 0 18746 0 0 -18746 0 0 2973.66 0 0 -2973.66
0 0 35180.5 0 0 -35180.5 0 0 18668.8 0 0 -18668.8 0 0 3272.26 0 0 -3272.26
0 0 35590.6 0 0 -35590.6 0 0 18521.9 0 0 -18521.9 0 0 3570.77 0 0 -3570.77
0 0 35955.5 0 0 -35955.5 0 0 18334.5 0 0 -18334.5 0 0 3859.85 0 0 -3859.85
0 0 36291.7 0 0 -36291.7 0 0 18136 0 0 -18136 0 0 4130.25 0 0 -4130.25
0 0 36621 0 0 -36621 0 0 17953.5 0 0 -17953.5 0 0 4373.27 0 0 -4373.27
0 0 36970.6 0 0 -36970.6 0 0 17810.6 0 0 -17810.6 0 0 4581.16 0 0 -4581.16
0 0 37366.1 0 0 -37366.1 0 0 17727.4 0 0 -17727.4 0 0 4747.38 0 0 -4747.38
0 0 37820.6 0 0 -37820.6 0 0 17721.4 0 0 -17721.4 0 0 4866.81 0 0 -4866.81
0 0 38324.5 0 0 -38324.5 0 0 17807.8 0 0 -17807.8 0 0 4935.92 0 0 -4935.92
0 0 38845.6 0 0 -38845.6 0 0 17998.6 0 0 -17998.6 0 0 4952.96 0 0 -4952.96
0 0 39339.4 0 0 -39339.4 0 0 18300 0 0 -18300 0 0 4918.24 0 0 -4918.24
0 0 39683 0 0 -39683 0 0 18619.4 0 0 -18619.4 0 0 4854.81 0 0 -4854.81
0 0 40012.1 0 0 -40012.1 0 0 19107 0 0 -19107 0 0 4734.73 0 0 -4734.73
0 0 40198.3 0 0 -40198.3 0 0 19673.1 0 0 -19673.1 0 0 4575.37 0 0 -4575.37
0 0 40218 0 0 -40218 0 0 20287.3 0 0 -20287.3 0 0 4384.94 0 0 -4384.94
0 0 40052.2 0 0 -40052.2 0 0 20912.2 0 0 -20912.2 0 0 4172.97 0 0 -4172.97
0 0 39681.5 0 0 -39681.5 0 0 21506.1 0 0 -21506.1 0 0 3949.78 0 0 -3949.78
0 0 39087 0 0 -39087 0 0 22024.9 0 0 -22024.9 0 0 3725.96 0 0 -3725.96
0 0 38251.1 0 0 -38251.1 0 0 22424.9 0 0 -22424.9 0 0 3511.74 0 0 -3511.74
0 0 37156.5 0 0 -37156.5 0 0 22664.6 0 0 -22664.6 0 0 3316.45 0 0 -3316.45
0 0 35788.4 0 0 -35788.4 0 0 22707.2 0 0 -22707.2 0 0 3148.05 0 0 -3148.05
0 0 34136.5 0 0 -34136.5 0 0 22521.7 0 0 -22521.7 0 0 3012.64 0 0 -3012.64
0 0 32194.4 0 0 -32194.4 0 0 22084.6 0 0 -22084.6 0 0 2914.1 0 0 -2914.1
0 0 29962.5 0 0 -29962.5 0 0 21381.2 0 0 -21381.2 0 0 2853.92 0 0 -2853.92
0 0 27457 0 0 -27457 0 0 20404.1 0 0 -20404.1 0 0 2831.05 0 0 -2831.05
0 0 24716.7 0 0 -24716.7 0 0 19153.3 0 0 -19153.3 0 0 2841.99 0 0 -2841.99
0 0 21799.7 0 0 -21799.7 0 0 17636.8 0 0 -17636.8 0 0 2880.81 0 0 -2880.81
0 0 18766.3 0 0 -18766.3 0 0 15873.4 0 0 -15873.4 0 0 2939.12 0 0 -2939.12
0 0 15671.8 0 0 -15671.8 0 0 13893.4 0 0 -13893.4 0 0 3006.36 0 0 -3006.36
0 0 12568.8 0 0 -12568.8 0 0 11736.8 0 0 -11736.8 0 0 3070.3 0 0 -3070.3
0 0 9508.9 0 0 -9508.9 0 0 9451.4 0 0 -9451.4 0 0 3117.55 0 0 -3117.55
0 0 6540.8 0 0 -6540.8 0 0 7090.52 0 0 -7090.52 0 0 3134.27 0 0 -3134.27
0 0 3705.85 0 0 -3705.85 0 0 4711.45 0 0 -4711.45 0 0 3106.78 0 0 -3106.78
0 0 1034.51 0 0 -1034.51 0 0 2374.58 0 0 -2374.58 0 0 3022.15 0 0 -3022.15
0 0 -1438.5 0 0 1438.5 0 0 144.947 0 0 -144.947 0 0 2869.64 0 0 -2869.64
0 0 -3740.8 0 0 3740.8 0 0 -1905.64 0 0 1905.64 0 0 2640.94 0 0 -2640.94
0 0 -5895.11 0 0 5895.11 0 0 -3758.01 0 0 3758.01 0 0 2329.23 0 0 -2329.23
0 0 -7900.97 0 0 7900.97 0 0 -5379.33 0 0 5379.33 0 0 1931.8 0 0 -1931.8
0 0 -9738.42 0 0 9738.42 0 0 -6760.46 0 0 6760.46 0 0 1450.69 0 0 -1450.69
0 0 -11384.3 0 0 11384.3 0 0 -7898.76 0 0 7898.76 0 0 890.565 0 0 -890.565
0 0 -12827.1 0 0 12827.1 0 0 -8804.89 0 0 8804.89 0 0 260.81 0 0 -260.81
0 0 -14082.3 0 0 14082.3 0 0 -9493.76 0 0 9493.76 0 0 -417.331 0 0 417.331
0 0 -15189.1 0 0 15189.1 0 0 -9992.46 0 0 9992.46 0 0 -1136.6 0 0 1136.6
0 0 -16200.3 0 0 16200.3 0 0 -10330.1 0 0 10330.1 0 0 -1883.68 0 0 1883.68
0 0 -17169.7 0 0 17169.7 0 0 -10545.2 0 0 10545.2 0 0 -2639.08 0 0 2639.08
0 0 -18152.7 0 0 18152.7 0 0 -10680.9 0 0 10680.9 0 0 -3383.86 0 0 3383.86
0 0 -19209.2 0 0 19209.2 0 0 -10781.2 0 0 10781.2 0 0 -4099.47 0 0 4099.47
0 0 -20400.3 0 0 20400.3 0 0 -10892.1 0 0 10892.1 0 0 -4766.61 0 0 4766.61
0 0 -21783 0 0 21783 0 0 -11057.9 0 0 11057.9 0 0 -5368.35 0 0 5368.35
0 0 -23401.9 0 0 23401.9 0 0 -11321.1 0 0 11321.1 0 0 -5888.97 0 0 5888.97
0 0 -25278.8 0 0 25278.8 0 0 -11721.8 0 0 11721.8 0 0 -6315.38 0 0 6315.38
0 0 -27404.2 0 0 27404.2 0 0 -12297.1 0 0 12297.1 0 0 -6637.51 0 0 6637.51
0 0 -29737.8 0 0 29737.8 0 0 -13077.7 0 0 13077.7 0 0 -6848.7 0 0 6848.7
0 0 -32221.4 0 0 32221.4 0 0 -14084.3 0 0 14084.3 0 0 -6946.43 0 0 6946.43
0 0 -34793.3 0 0 34793.3 0 0 -15322.9 0 0 15322.9 0 0 -6932.6 0 0 6932.6
0 0 -37395.9 0 0 37395.9 0 0 -16782.7 0 0 16782.7 0 0 -6813.59 0 0 6813.59
0 0 -39981 0 0 39981 0 0 -18435.6 0 0 18435.6 0 0 -6600.21 0 0 6600.21
0 0 -42510.4 0 0 42510.4 0 0 -20237.4 0 0 20237.4 0 0 -6307.12 0 0 6307.12
0 0 -44954.5 0 0 44954.5 0 0 -22130.6 0 0 22130.6 0 0 -5952.17 0 0 5952.17
0 0 -47292.2 0 0 47292.2 0 0 -24047.5 0 0 24047.5 0 0 -5555.54 0 0 5555.54
0 0 -49506.7 0 0 49506.7 0 0 -25915 0 0 25915 0 0 -5138.66 0 0 5138.66
0 0 -51579.3 0 0 51579.3 0 0 -27660.3 0 0 27660.3 0 0 -4723.09 0 0 4723.09
0 0 -53486.9 0 0 53486.9 0 0 -29215.3 0 0 29215.3 0 0 -4329.43 0 0 4329.43
0 0 -55205 0 0 55205 0 0 -30519.8 0 0 30519.8 0 0 -3976.36 0 0 3976.36
0 0 -56711.5 0 0 56711.5 0 0 -31525.1 0 0 31525.1 0 0 -3679.77 0 0 3679.77
0 0 -57890.1 0 0 57890.1 0 0 -32188.4 0 0 32188.4 0 0 -3452.87 0 0 3452.87
0 0 -58782.3 0 0 58782.3 0 0 -32416.1 0 0 32416.1 0 0 -3309.06 0 0 3309.06
0 0 -59378.1 0 0 59378.1 0 0 -32339.2 0 0 32339.2 0 0 -3240.42 0 0 3240.42
0 0 -59775.1 0 0 59775.1 0 0 -31934.2 0 0 31934.2 0 0 -3251.33 0 0 3251.33
0 0 -59960.3 0 0 59960.3 0 0 -31240.4 0 0 31240.4 0 0 -3333.87 0 0 3333.87
0 0 -59602.5 0 0 59602.5 0 0 -30331.1 0 0 30331.1 0 0 -3480 0 0 3480
0 0 -58103.2 0 0 58103.2 0 0 -29406.7 0 0 29406.7 0 0 -3666.37 0 0 3666.37
0 0 -56484.3 0 0 56484.3 0 0 -28214.5 0 0 28214.5 0 0 -3909.23 0 0 3909.23
0 0 -54650.6 0 0 54650.6 0 0 -26918.2 0 0 26918.2 0 0 -4175.54 0 0 4175.54
0 0 -52698.5 0 0 52698.5 0 0 -25515.7 0 0 25515.7 0 0 -4461.82 0 0 4461.82
0 0 -50687.4 0 0 50687.4 0 0 -24064.7 0 0 24064.7 0 0 -4749.2 0 0 4749.2
0 0 -48696.4 0 0 48696.4 0 0 -22615.7 0 0 22615.7 0 0 -5022.01 0 0 5022.01
0 0 -46800.9 0 0 46800.9 0 0 -21213.5 0 0 21213.5 0 0 -5265.81 0 0 5265.81
0 0 -45071.7 0 0 45071.7 0 0 -19903.4 0 0 19903.4 0 0 -5466.22 0 0 5466.22
0 0 -43570 0 0 43570 0 0 -18728.2 0 0 18728.2 0 0 -5610.79 0 0 5610.79
0 0 -42352.7 0 0 42352.7 0 0 -17722.8 0 0 17722.8 0 0 -5689.44 0 0 5689.44
0 0 -41463.8 0 0 41463.8 0 0 -16916.7 0 0 16916.7 0 0 -5694.58 0 0 5694.58
0 0 -40933.7 0 0 40933.7 0 0 -16332.1 0 0 16332.1 0 0 -5621.55 0 0 5621.55
0 0 -40780.5 0 0 40780.5 0 0 -15982.6 0 0 15982.6 0 0 -5469 0 0 5469
0 0 -41007.2 0 0 41007.2 0 0 -15873.8 0 0 15873.8 0 0 -5238.83 0 0 5238.83
0 0 -41602.6 0 0 41602.6 0 0 -16002.7 0 0 16002.7 0 0 -4936.14 0 0 4936.14
0 0 -42510.7 0 0 42510.7 0 0 -16361.7 0 0 16361.7 0 0 -4569.11 0 0 4569.11
0 0 -43441.5 0 0 43441.5 0 0 -16975.4 0 0 16975.4 0 0 -4146.37 0 0 4146.37
0 0 -44353.2 0 0 44353.2 0 0 -17803.8 0 0 17803.8 0 0 -3682.9 0 0 3682.9
0 0 -45193.5 0 0 45193.5 0 0 -18804.9 0 0 18804.9 0 0 -3195.45 0 0 3195.45
0 0 -45932.3 0 0 45932.3 0 0 -19918.5 0 0 19918.5 0 0 -2703.15 0 0 2703.15
0 0 -46433.1 0 0 46433.1 0 0 -20846.7 0 0 20846.7 0 0 -2319.15 0 0 2319.15
0 0 -46842.6 0 0 46842.6 0 0 -21769.4 0 0 21769.4 0 0 -1955.08 0 0 1955.08
0 0 -47150.5 0 0 47150.5 0 0 -22651.3 0 0 22651.3 0 0 -1620.85 0 0 1620.85
0 0 -47346.8 0 0 47346.8 0 0 -23458.5 0 0 23458.5 0 0 -1325.73 0 0 1325.73
0 0 -47421.7 0 0 47421.7 0 0 -24160.2 0 0 24160.2 0 0 -1078 0 0 1078
0 0 -47365.9 0 0 47365.9 0 0 -24728.9 0 0 24728.9 0 0 -884.733 0 0 884.733
0 0 -47169.6 0 0 47169.6 0 0 -25142.5 0 0 25142.5 0 0 -751.516 0 0 751.516
0 0 -46820.3 0 0 46820.3 0 0 -25384.5 0 0 25384.5 0 0 -682.27 0 0 682.27
0 0 -46301.6 0 0 46301.6 0 0 -25445.5 0 0 25445.5 0 0 -679.114 0 0 679.114
0 0 -45593.7 0 0 45593.7 0 0 -25322.4 0 0 25322.4 0 0 -742.318 0 0 742.318
0 0 -44675.3 0 0 44675.3 0 0 -25018.8 0 0 25018.8 0 0 -870.324 0 0 870.324
0 0 -43528.1 0 0 43528.1 0 0 -24543 0 0 24543 0 0 -1059.86 0 0 1059.86
0 0 -42142.8 0 0 42142.8 0 0 -23907.4 0 0 23907.4 0 0 -1306.12 0 0 1306.12
0 0 -40522.2 0 0 40522.2 0 0 -23126.4 0 0 23126.4 0 0 -1602.91 0 0 1602.91
0 0 -38683.4 0 0 38683.4 0 0 -22216.1 0 0 22216.1 0 0 -1942.85 0 0 1942.85
0 0 -36654.9 0 0 36654.9 0 0 -21193.9 0 0 21193.9 0 0 -2317.56 0 0 2317.56
0 0 -34471.1 0 0 34471.1 0 0 -20079.2 0 0 20079.2 0 0 -2717.76 0 0 2717.76
0 0 -32165.9 0 0 32165.9 0 0 -18893.1 0 0 18893.1 0 0 -3133.51 0 0 3133.51
0 0 -29770.6 0 0 29770.6 0 0 -17658.9 0 0 17658.9 0 0 -3554.37 0 0 3554.37
0 0 -27313.5 0 0 27313.5 0 0 -16400.8 0 0 16400.8 0 0 -3969.69 0 0 3969.69
0 0 -24822.3 0 0 24822.3 0 0 -15142.5 0 0 15142.5 0 0 -4368.92 0 0 4368.92
0 0 -22325 0 0 22325 0 0 -13906.9 0 0 13906.9 0 0 -4741.86 0 0 4741.86
0 0 -19848.6 0 0 19848.6 0 0 -12715 0 0 12715 0 0 -5078.87 0 0 5078.87
0 0 -17417.1 0 0 17417.1 0 0 -11585.7 0 0 11585.7 0 0 -5371.16 0 0 5371.16
0 0 -15050.9 0 0 15050.9 0 0 -10535.3 0 0 10535.3 0 0 -5610.92 0 0 5610.92
0 0 -12767.3 0 0 12767.3 0 0 -9576.61 0 0 9576.61 0 0 -5791.56 0 0 5791.56
0 0 -10580.4 0 0 10580.4 0 0 -8718.94 0 0 8718.94 0 0 -5907.85 0 0 5907.85
0 0 -8502.55 0 0 8502.55 0 0 -7967.24 0 0 7967.24 0 0 -5956 0 0 5956
0 0 -6543 0 0 6543 0 0 -7322.26 0 0 7322.26 0 0 -5933.81 0 0 5933.81
0 0 -4708.51 0 0 4708.51 0 0 -6780.52 0 0 6780.52 0 0 -5840.58 0 0 5840.58
0 0 -3003.04 0 0 3003.04 0 0 -6334.49 0 0 6334.49 0 0 -5677.18 0 0 5677.18
0 0 -1427.55 0 0 1427.55 0 0 -5972.96 0 0 5972.96 0 0 -5445.96 0 0 5445.96
0 0 19.547 0 0 -19.547 0 0 -5681.39 0 0 5681.39 0 0 -5150.64 0 0 5150.64
0 0 1341.94 0 0 -1341.94 0 0 -5442.29 0 0 5442.29 0 0 -4796.18 0 0 4796.18
0 0 2275.92 0 0 -2275.92 0 0 -5207.69 0 0 5207.69 0 0 -4389.18 0 0 4389.18
0 0 2675.01 0 0 -2675.01 0 0 -4874.93 0 0 4874.93 0 0 -3944.65 0 0 3944.65
0 0 3081.4 0 0 -3081.4 0 0 -4618.21 0 0 4618.21 0 0 -3452.31 0 0 3452.31
0 0 3416.33 0 0 -3416.33 0 0 -4321.05 0 0 4321.05 0 0 -2930.57 0 0 2930.57
0 0 3705.51 0 0 -3705.51 0 0 -4015.95 0 0 4015.95 0 0 -2382.31 0 0 2382.31
0 0 3971.01 0 0 -3971.01 0 0 -3674.31 0 0 3674.31 0 0 -1816.76 0 0 1816.76
0 0 4248.15 0 0 -4248.15 0 0 -3290.24 0 0 3290.24 0 0 -1241.46 0 0 1241.46
0 0 4569.11 0 0 -4569.11 0 0 -2852.87 0 0 2852.87 0 0 -664.187 0 0 664.187
0 0 4961.16 0 0 -4961.16 0 0 -2351.63 0 0 2351.63 0 0 -92.9325 0 0 92.9325
0 0 5451.12 0 0 -5451.12 0 0 -1777.74 0 0 1777.74 0 0 473.407 0 0 -473.407
0 0 6062.89 0 0 -6062.89 0 0 -1126.85 0 0 1126.85 0 0 1019.98 0 0 -1019.98
0 0 6814.21 0 0 -6814.21 0 0 -389.303 0 0 389.303 0 0 1540.36 0 0 -1540.36
0 0 7718.97 0 0 -7718.97 0 0 447.858 0 0 -447.858 0 0 2029.37 0 0 -2029.37
0 0 8781.28 0 0 -8781.28 0 0 1377.15 0 0 -1377.15 0 0 2481.06 0 0 -2481.06
0 0 10004.5 0 0 -10004.5 0 0 2400.86 0 0 -2400.86 0 0 2892.12 0 0 -2892.12
0 0 11386.4 0 0 -11386.4 0 0 3518.21 0 0 -3518.21 0 0 3259.22 0 0 -3259.22
0 0 12923 0 0 -12923 0 0 4724.89 0 0 -4724.89 0 0 3580.63 0 0 -3580.63
0 0 14608.5 0 0 -14608.5 0 0 6015.06 0 0 -6015.06 0 0 3855.36 0 0 -3855.36
0 0 16435.4 0 0 -16435.4 0 0 7380.26 0 0 -7380.26 0 0 4083.53 0 0 -4083.53
0 0 18392.4 0 0 -18392.4 0 0 8810.14 0 0 -8810.14 0 0 4266.22 0 0 -4266.22
0 0 20464 0 0 -20464 0 0 10292.5 0 0 -10292.5 0 0 4405.49 0 0 -4405.49
0 0 22629.6 0 0 -22629.6 0 0 11814.1 0 0 -11814.1 0 0 4504.2 0 0 -4504.2
0 0 24864.3 0 0 -24864.3 0 0 13360.4 0 0 -13360.4 0 0 4565.92 0 0 -4565.92
0 0 27139.5 0 0 -27139.5 0 0 14916.4 0 0 -14916.4 0 0 4594.83 0 0 -4594.83
0 0 29424.3 0 0 -29424.3 0 0 16466 0 0 -16466 0 0 4595.65 0 0 -4595.65
0 0 31687 0 0 -31687 0 0 17992.8 0 0 -17992.8 0 0 4573.49 0 0 -4573.49
0 0 33894.9 0 0 -33894.9 0 0 19479.7 0 0 -19479.7 0 0 4533.76 0 0 -4533.76
0 0 36015.7 0 0 -36015.7 0 0 20909.9 0 0 -20909.9 0 0 4481.96 0 0 -4481.96
0 0 38019 0 0 -38019 0 0 22266.3 0 0 -22266.3 0 0 4423.61 0 0 -4423.61
0 0 39876.7 0 0 -39876.7 0 0 23532.4 0 0 -23532.4 0 0 4364.08 0 0 -4364.08
0 0 41564 0 0 -41564 0 0 24692.2 0 0 -24692.2 0 0 4308.47 0 0 -4308.47
0 0 43060.4 0 0 -43060.4 0 0 25730.7 0 0 -25730.7 0 0 4261.43 0 0 -4261.43
0 0 44350.1 0 0 -44350.1 0 0 26634 0 0 -26634 0 0 4227.13 0 0 -4227.13
0 0 45422.5 0 0 -45422.5 0 0 27389.7 0 0 -27389.7 0 0 4209.05 0 0 -4209.05
0 0 46272.8 0 0 -46272.8 0 0 27987.6 0 0 -27987.6 0 0 4209.91 0 0 -4209.91
0 0 46901 0 0 -46901 0 0 28419.7 0 0 -28419.7 0 0 4231.59 0 0 -4231.59
0 0 47311.4 0 0 -47311.4 0 0 28680.9 0 0 -28680.9 0 0 4275.04 0 0 -4275.04
0 0 47511.6 0 0 -47511.6 0 0 28769.1 0 0 -28769.1 0 0 4340.23 0 0 -4340.23
0 0 47512.6 0 0 -47512.6 0 0 28685.8 0 0 -28685.8 0 0 4426.19 0 0 -4426.19
0 0 47330.4 0 0 -47330.4 0 0 28434.7 0 0 -28434.7 0 0 4530.99 0 0 -4530.99
0 0 46985.1 0 0 -46985.1 0 0 28023.7 0 0 -28023.7 0 0 4651.77 0 0 -4651.77
0 0 46500.9 0 0 -46500.9 0 0 27463.8 0 0 -27463.8 0 0 4784.76 0 0 -4784.76
0 0 45904.3 0 0 -45904.3 0 0 26769 0 0 -26769 0 0 4925.52 0 0 -4925.52
0 0 45222.6 0 0 -45222.6 0 0 25956.5 0 0 -25956.5 0 0 5068.86 0 0 -5068.86
0 0 44482.8 0 0 -44482.8 0 0 25046.4 0 0 -25046.4 0 0 5209.13 0 0 -5209.13
0 0 43710.7 0 0 -43710.7 0 0 24060.9 0 0 -24060.9 0 0 5340.34 0 0 -5340.34
0 0 42931.2 0 0 -42931.2 0 0 23024.1 0 0 -23024.1 0 0 5456.32 0 0 -5456.32
0 0 42168.6 0 0 -42168.6 0 0 21960.6 0 0 -21960.6 0 0 5550.96 0 0 -5550.96
0 0 41447.5 0 0 -41447.5 0 0 20895.5 0 0 -20895.5 0 0 5618.42 0 0 -5618.42
0 0 40791.4 0 0 -40791.4 0 0 19852.8 0 0 -19852.8 0 0 5653.28 0 0 -5653.28
0 0 40222.5 0 0 -40222.5 0 0 18855.7 0 0 -18855.7 0 0 5650.76 0 0 -5650.76
0 0 39760.5 0 0 -39760.5 0 0 17925.5 0 0 -17925.5 0 0 5606.84 0 0 -5606.84
0 0 39421.8 0 0 -39421.8 0 0 17081.6 0 0 -17081.6 0 0 5518.47 0 0 -5518.47
0 0 39219.8 0 0 -39219.8 0 0 16340.3 0 0 -16340.3 0 0 5383.61 0 0 -5383.61
0 0 39164.8 0 0 -39164.8 0 0 15715 0 0 -15715 0 0 5201.4 0 0 -5201.4
0 0 39264.9 0 0 -39264.9 0 0 15215.5 0 0 -15215.5 0 0 4972.2 0 0 -4972.2
0 0 39526.5 0 0 -39526.5 0 0 14847.8 0 0 -14847.8 0 0 4697.6 0 0 -4697.6
0 0 39929.4 0 0 -39929.4 0 0 14616.2 0 0 -14616.2 0 0 4380.38 0 0 -4380.38
0 0 40347.6 0 0 -40347.6 0 0 14550.4 0 0 -14550.4 0 0 4022.54 0 0 -4022.54
0 0 40997.9 0 0 -40997.9 0 0 14594.4 0 0 -14594.4 0 0 3631.91 0 0 -3631.91
0 0 41800.9 0 0 -41800.9 0 0 14755.4 0 0 -14755.4 0 0 3215.49 0 0 -3215.49
0 0 42741.2 0 0 -42741.2 0 0 15026.9 0 0 -15026.9 0 0 2778.05 0 0 -2778.05
0 0 43812.5 0 0 -43812.5 0 0 15385.8 0 0 -15385.8 0 0 2329.61 0 0 -2329.61
0 0 44969.4 0 0 -44969.4 0 0 15833.3 0 0 -15833.3 0 0 1876.33 0 0 -1876.33
0 0 46175.5 0 0 -46175.5 0 0 16348.1 0 0 -16348.1 0 0 1427.73 0 0 -1427.73
0 0 47331.1 0 0 -47331.1 0 0 16924.6 0 0 -16924.6 0 0 991.862 0 0 -991.862
0 0 48418.3 0 0 -48418.3 0 0 17546.3 0 0 -17546.3 0 0 577.367 0 0 -577.367
0 0 49396.1 0 0 -49396.1 0 0 18196.9 0 0 -18196.9 0 0 192.877 0 0 -192.877
0 0 50222.1 0 0 -50222.1 0 0 18857.8 0 0 -18857.8 0 0 -152.859 0 0 152.859
0 0 50856.5 0 0 -50856.5 0 0 19513.5 0 0 -19513.5 0 0 -448.098 0 0 448.098
0 0 51262.1 0 0 -51262.1 0 0 20142.4 0 0 -20142.4 0 0 -691.351 0 0 691.351
0 0 51407.5 0 0 -51407.5 0 0 20726.7 0 0 -20726.7 0 0 -875.79 0 0 875.79
0 0 51271.4 0 0 -51271.4 0 0 21245.4 0 0 -21245.4 0 0 -996.268 0 0 996.268
0 0 50846.6 0 0 -50846.6 0 0 21678.5 0 0 -21678.5 0 0 -1048.49 0 0 1048.49
0 0 50134.5 0 0 -50134.5 0 0 22007.3 0 0 -22007.3 0 0 -1029.44 0 0 1029.44
0 0 49142.8 0 0 -49142.8 0 0 22214.6 0 0 -22214.6 0 0 -937.421 0 0 937.421
0 0 47884 0 0 -47884 0 0 22287 0 0 -22287 0 0 -772.4 0 0 772.4
0 0 46375.2 0 0 -46375.2 0 0 22214.2 0 0 -22214.2 0 0 -535.945 0 0 535.945
0 0 44638.4 0 0 -44638.4 0 0 21989.8 0 0 -21989.8 0 0 -231.205 0 0 231.205
0 0 42700.3 0 0 -42700.3 0 0 21613.5 0 0 -21613.5 0 0 143.057 0 0 -143.057
0 0 40594.7 0 0 -40594.7 0 0 21084.7 0 0 -21084.7 0 0 575.008 0 0 -575.008
0 0 38359.5 0 0 -38359.5 0 0 20410.8 0 0 -20410.8 0 0 1056.95 0 0 -1056.95
0 0 36034.9 0 0 -36034.9 0 0 19601.7 0 0 -19601.7 0 0 1579.21 0 0 -1579.21
0 0 33658.7 0 0 -33658.7 0 0 18673.4 0 0 -18673.4 0 0 2131.4 0 0 -2131.4
0 0 31264.2 0 0 -31264.2 0 0 17646.1 0 0 -17646.1 0 0 2702.08 0 0 -2702.08
0 0 28881.6 0 0 -28881.6 0 0 16544 0 0 -16544 0 0 3279.01 0 0 -3279.01
0 0 26538.4 0 0 -26538.4 0 0 15394 0 0 -15394 0 0 3849.43 0 0 -3849.43
0 0 24258.9 0 0 -24258.9 0 0 14225 0 0 -14225 0 0 4400.45 0 0 -4400.45
0 0 22063.2 0 0 -22063.2 0 0 13066.5 0 0 -13066.5 0 0 4919.41 0 0 -4919.41
0 0 19968.8 0 0 -19968.8 0 0 11948 0 0 -11948 0 0 5394.29 0 0 -5394.29
0 0 17991.2 0 0 -17991.2 0 0 10896.7 0 0 -10896.7 0 0 5813.94 0 0 -5813.94
0 0 16145.2 0 0 -16145.2 0 0 9937.13 0 0 -9937.13 0 0 6168.4 0 0 -6168.4
0 0 14444.2 0 0 -14444.2 0 0 9089.84 0 0 -9089.84 0 0 6449.16 0 0 -6449.16
0 0 12898.3 0 0 -12898.3 0 0 8371.09 0 0 -8371.09 0 0 6649.35 0 0 -6649.35
0 0 11512.3 0 0 -11512.3 0 0 7792.49 0 0 -7792.49 0 0 6763.91 0 0 -6763.91
0 0 10286.3 0 0 -10286.3 0 0 7360.52 0 0 -7360.52 0 0 6789.76 0 0 -6789.76
0 0 9215.55 0 0 -9215.55 0 0 7076.14 0 0 -7076.14 0 0 6725.82 0 0 -6725.82
0 0 8291.68 0 0 -8291.68 0 0 6934.65 0 0 -6934.65 0 0 6573.06 0 0 -6573.06
0 0 7502.54 0 0 -7502.54 0 0 6925.74 0 0 -6925.74 0 0 6334.43 0 0 -6334.43
0 0 6832.41 0 0 -6832.41 0 0 7033.89 0 0 -7033.89 0 0 6014.78 0 0 -6014.78
0 0 6261.89 0 0 -6261.89 0 0 7238.82 0 0 -7238.82 0 0 5620.73 0 0 -5620.73
0 0 5767.56 0 0 -5767.56 0 0 7516.3 0 0 -7516.3 0 0 5160.43 0 0 -5160.43
0 0 5321.78 0 0 -5321.78 0 0 7838.97 0 0 -7838.97 0 0 4643.32 0 0 -4643.32
0 0 4892.92 0 0 -4892.92 0 0 8177.22 0 0 -8177.22 0 0 4079.92 0 0 -4079.92
0 0 4446.13 0 0 -4446.13 0 0 8500.04 0 0 -8500.04 0 0 3481.44 0 0 -3481.44
0 0 4569.59 0 0 -4569.59 0 0 8685.41 0 0 -8685.41 0 0 2862.99 0 0 -2862.99
0 0 4624.23 0 0 -4624.23 0 0 8764.66 0 0 -8764.66 0 0 2237.81 0 0 -2237.81
0 0 4602.22 0 0 -4602.22 0 0 8783.93 0 0 -8783.93 0 0 1603.9 0 0 -1603.9
0 0 4443.86 0 0 -4443.86 0 0 8662.73 0 0 -8662.73 0 0 983.76 0 0 -983.76
0 0 4122.66 0 0 -4122.66 0 0 8415.33 0 0 -8415.33 0 0 379.171 0 0 -379.171
0 0 3615.87 0 0 -3615.87 0 0 8009.17 0 0 -8009.17 0 0 -193.131 0 0 193.131
0 0 2910.53 0 0 -2910.53 0 0 7439.63 0 0 -7439.63 0 0 -724.495 0 0 724.495
0 0 2010.32 0 0 -2010.32 0 0 6690.18 0 0 -6690.18 0 0 -1215.54 0 0 1215.54
0 0 916.288 0 0 -916.288 0 0 5760.58 0 0 -5760.58 0 0 -1660.29 0 0 1660.29
0 0 -370.133 0 0 370.133 0 0 4646.16 0 0 -4646.16 0 0 -2055.14 0 0 2055.14
0 0 -1851.95 0 0 1851.95 0 0 3347.89 0 0 -3347.89 0 0 -2397 0 0 2397
0 0 -3514.57 0 0 3514.57 0 0 1879.33 0 0 -1879.33 0 0 -2684.93 0 0 2684.93
0 0 -5343.75 0 0 5343.75 0 0 260.297 0 0 -260.297 0 0 -2919.69 0 0 2919.69
0 0 -7321.78 0 0 7321.78 0 0 -1492.14 0 0 1492.14 0 0 -3103.12 0 0 3103.12
0 0 -9423.58 0 0 9423.58 0 0 -3369.8 0 0 3369.8 0 0 -3239.52 0 0 3239.52
0 0 -11622.5 0 0 11622.5 0 0 -5343.9 0 0 5343.9 0 0 -3334.01 0 0 3334.01
0 0 -13883.8 0 0 13883.8 0 0 -7388.91 0 0 7388.91 0 0 -3392.23 0 0 3392.23
0 0 -16164.9 0 0 16164.9 0 0 -9475.56 0 0 9475.56 0 0 -3420.93 0 0 3420.93
0 0 -18401.1 0 0 18401.1 0 0 -11578.3 0 0 11578.3 0 0 -3427.01 0 0 3427.01
0 0 -20575.8 0 0 20575.8 0 0 -13659.1 0 0 13659.1 0 0 -3418.48 0 0 3418.48
0 0 -22668.5 0 0 22668.5 0 0 -15682.1 0 0 15682.1 0 0 -3403.37 0 0 3403.37
0 0 -24667.1 0 0 24667.1 0 0 -17610.3 0 0 17610.3 0 0 -3389.52 0 0 3389.52
0 0 -26565.6 0 0 26565.6 0 0 -19408 0 0 19408 0 0 -3384.52 0 0 3384.52
0 0 -28361.4 0 0 28361.4 0 0 -21042.6 0 0 21042.6 0 0 -3395.17 0 0 3395.17
0 0 -30052.1 0 0 30052.1 0 0 -22485.5 0 0 22485.5 0 0 -3427.31 0 0 3427.31
0 0 -31635.2 0 0 31635.2 0 0 -23714.1 0 0 23714.1 0 0 -3485.52 0 0 3485.52
0 0 -33076.3 0 0 33076.3 0 0 -24717.5 0 0 24717.5 0 0 -3572.89 0 0 3572.89
0 0 -34138.8 0 0 34138.8 0 0 -25517.7 0 0 25517.7 0 0 -3689.64 0 0 3689.64
0 0 -35038.8 0 0 35038.8 0 0 -26091.8 0 0 26091.8 0 0 -3835.69 0 0 3835.69
0 0 -35726.9 0 0 35726.9 0 0 -26422.2 0 0 26422.2 0 0 -4014.22 0 0 4014.22
0 0 -36219.2 0 0 36219.2 0 0 -26531.3 0 0 26531.3 0 0 -4218.9 0 0 4218.9
0 0 -36520.6 0 0 36520.6 0 0 -26420.8 0 0 26420.8 0 0 -4448.64 0 0 4448.64
0 0 -36639.9 0 0 36639.9 0 0 -26111.6 0 0 26111.6 0 0 -4697.16 0 0 4697.16
0 0 -36594.2 0 0 36594.2 0 0 -25621.1 0 0 25621.1 0 0 -4959.17 0 0 4959.17
0 0 -36405.6 0 0 36405.6 0 0 -24972.6 0 0 24972.6 0 0 -5227.75 0 0 5227.75
0 0 -36101.8 0 0 36101.8 0 0 -24191.7 0 0 24191.7 0 0 -5495.47 0 0 5495.47
0 0 -35712 0 0 35712 0 0 -23306.6 0 0 23306.6 0 0 -5754.36 0 0 5754.36
0 0 -35266.6 0 0 35266.6 0 0 -22346.6 0 0 22346.6 0 0 -5996.27 0 0 5996.27
0 0 -34796.8 0 0 34796.8 0 0 -21342 0 0 21342 0 0 -6213.09 0 0 6213.09
0 0 -34333.6 0 0 34333.6 0 0 -20323.2 0 0 20323.2 0 0 -6396.95 0 0 6396.95
0 0 -33906.5 0 0 33906.5 0 0 -19319.7 0 0 19319.7 0 0 -6540.52 0 0 6540.52
0 0 -33542.8 0 0 33542.8 0 0 -18359.5 0 0 18359.5 0 0 -6637.23 0 0 6637.23
0 0 -33267.5 0 0 33267.5 0 0 -17468.1 0 0 17468.1 0 0 -6681.43 0 0 6681.43
0 0 -33102.4 0 0 33102.4 0 0 -16668.2 0 0 16668.2 0 0 -6668.65 0 0 6668.65
0 0 -33065.2 0 0 33065.2 0 0 -15979.2 0 0 15979.2 0 0 -6595.72 0 0 6595.72
0 0 -33167.9 0 0 33167.9 0 0 -15416.7 0 0 15416.7 0 0 -6460.88 0 0 6460.88
0 0 -33416.6 0 0 33416.6 0 0 -14992.4 0 0 14992.4 0 0 -6263.85 0 0 6263.85
0 0 -33811.3 0 0 33811.3 0 0 -14713.4 0 0 14713.4 0 0 -6005.91 0 0 6005.91
0 0 -34348.1 0 0 34348.1 0 0 -14582.5 0 0 14582.5 0 0 -5689.91 0 0 5689.91
0 0 -35019.9 0 0 35019.9 0 0 -14597.2 0 0 14597.2 0 0 -5320.24 0 0 5320.24
0 0 -35810.5 0 0 35810.5 0 0 -14748.8 0 0 14748.8 0 0 -4902.87 0 0 4902.87
0 0 -36645.3 0 0 36645.3 0 0 -15038.1 0 0 15038.1 0 0 -4444.25 0 0 4444.25
0 0 -37523.7 0 0 37523.7 0 0 -15448.6 0 0 15448.6 0 0 -3952.64 0 0 3952.64
0 0 -38431.6 0 0 38431.6 0 0 -15956.5 0 0 15956.5 0 0 -3437.98 0 0 3437.98
0 0 -39355.8 0 0 39355.8 0 0 -16540.3 0 0 16540.3 0 0 -2910.03 0 0 2910.03
0 0 -40281.5 0 0 40281.5 0 0 -17173.2 0 0 17173.2 0 0 -2379.71 0 0 2379.71
0 0 -41193.6 0 0 41193.6 0 0 -17827.6 0 0 17827.6 0 0 -1857.88 0 0 1857.88
0 0 -42077.3 0 0 42077.3 0 0 -18475.9 0 0 18475.9 0 0 -1355.42 0 0 1355.42
0 0 -42917.3 0 0 42917.3 0 0 -19091.4 0 0 19091.4 0 0 -882.739 0 0 882.739
0 0 -43696.1 0 0 43696.1 0 0 -19649.4 0 0 19649.4 0 0 -449.61 0 0 449.61
0 0 -44392.2 0 0 44392.2 0 0 -20128.7 0 0 20128.7 0 0 -64.8431 0 0 64.8431
0 0 -44980.2 0 0 44980.2 0 0 -20512.1 0 0 20512.1 0 0 265.223 0 0 -265.223
0 0 -45434.3 0 0 45434.3 0 0 -20785.8 0 0 20785.8 0 0 536.18 0 0 -536.18
0 0 -45731.4 0 0 45731.4 0 0 -20941.8 0 0 20941.8 0 0 738.375 0 0 -738.375
0 0 -45854.8 0 0 45854.8 0 0 -20974 0 0 20974 0 0 868.842 0 0 -868.842
0 0 -45791.5 0 0 45791.5 0 0 -20880.5 0 0 20880.5 0 0 925.863 0 0 -925.863
0 0 -45535.1 0 0 45535.1 0 0 -20662.6 0 0 20662.6 0 0 909.409 0 0 -909.409
0 0 -45084.4 0 0 45084.4 0 0 -20326 0 0 20326 0 0 820.874 0 0 -820.874
0 0 -44446.2 0 0 44446.2 0 0 -19878.9 0 0 19878.9 0 0 663.124 0 0 -663.124
0 0 -43635.9 0 0 43635.9 0 0 -19332.4 0 0 19332.4 0 0 440.535 0 0 -440.535
0 0 -42677.5 0 0 42677.5 0 0 -18699.3 0 0 18699.3 0 0 160.795 0 0 -160.795
0 0 -41600.3 0 0 41600.3 0 0 -17994.9 0 0 17994.9 0 0 -167.441 0 0 167.441
0 0 -40434.1 0 0 40434.1 0 0 -17238.4 0 0 17238.4 0 0 -539.73 0 0 539.73
0 0 -39207.5 0 0 39207.5 0 0 -16450.4 0 0 16450.4 0 0 -946.776 0 0 946.776
0 0 -37945.7 0 0 37945.7 0 0 -15653.9 0 0 15653.9 0 0 -1379.35 0 0 1379.35
0 0 -36671.7 0 0 36671.7 0 0 -14872.7 0 0 14872.7 0 0 -1827.54 0 0 1827.54
0 0 -35409.1 0 0 35409.1 0 0 -14130.5 0 0 14130.5 0 0 -2281.39 0 0 2281.39
0 0 -34183.5 0 0 34183.5 0 0 -13449.8 0 0 13449.8 0 0 -2731.17 0 0 2731.17
0 0 -33021.5 0 0 33021.5 0 0 -12851.1 0 0 12851.1 0 0 -3167.52 0 0 3167.52
0 0 -31949.2 0 0 31949.2 0 0 -12352.5 0 0 12352.5 0 0 -3581.68 0 0 3581.68
0 0 -30991.8 0 0 30991.8 0 0 -11969.3 0 0 11969.3 0 0 -3965.67 0 0 3965.67
0 0 -30172.4 0 0 30172.4 0 0 -11713.6 0 0 11713.6 0 0 -4312.5 0 0 4312.5
0 0 -29510.4 0 0 29510.4 0 0 -11594.3 0 0 11594.3 0 0 -4616.25 0 0 4616.25
0 0 -29019.4 0 0 29019.4 0 0 -11617 0 0 11617 0 0 -4872.24 0 0 4872.24
0 0 -28704.7 0 0 28704.7 0 0 -11784.3 0 0 11784.3 0 0 -5077.04 0 0 5077.04
0 0 -28561.9 0 0 28561.9 0 0 -12095.8 0 0 12095.8 0 0 -5228.57 0 0 5228.57
0 0 -28577.2 0 0 28577.2 0 0 -12548.2 0 0 12548.2 0 0 -5326.08 0 0 5326.08
0 0 -28729.1 0 0 28729.1 0 0 -13134.5 0 0 13134.5 0 0 -5370.22 0 0 5370.22
0 0 -28990.5 0 0 28990.5 0 0 -13844.1 0 0 13844.1 0 0 -5362.98 0 0 5362.98
0 0 -29328.2 0 0 29328.2 0 0 -14662.8 0 0 14662.8 0 0 -5307.66 0 0 5307.66
0 0 -29704.3 0 0 29704.3 0 0 -15572.9 0 0 15572.9 0 0 -5208.73 0 0 5208.73
0 0 -30079.7 0 0 30079.7 0 0 -16553.1 0 0 16553.1 0 0 -5071.77 0 0 5071.77
0 0 -30415.8 0 0 30415.8 0 0 -17578.3 0 0 17578.3 0 0 -4903.29 0 0 4903.29
0 0 -30676.3 0 0 30676.3 0 0 -18620.6 0 0 18620.6 0 0 -4710.54 0 0 4710.54
0 0 -30827.5 0 0 30827.5 0 0 -19649.2 0 0 19649.2 0 0 -4501.31 0 0 4501.31
0 0 -30841 0 0 30841 0 0 -20631.7 0 0 20631.7 0 0 -4283.66 0 0 4283.66
0 0 -30693.5 0 0 30693.5 0 0 -21534.5 0 0 21534.5 0 0 -4065.7 0 0 4065.7
0 0 -30367.4 0 0 30367.4 0 0 -22324 0 0 22324 0 0 -3855.26 0 0 3855.26
0 0 -29849.3 0 0 29849.3 0 0 -22968.2 0 0 22968.2 0 0 -3659.66 0 0 3659.66
0 0 -29128.8 0 0 29128.8 0 0 -23437.4 0 0 23437.4 0 0 -3485.4 0 0 3485.4
0 0 -28197.8 0 0 28197.8 0 0 -23706.1 0 0 23706.1 0 0 -3337.94 0 0 3337.94
0 0 -27049.4 0 0 27049.4 0 0 -23753.2 0 0 23753.2 0 0 -3221.49 0 0 3221.49
0 0 -25680 0 0 25680 0 0 -23563 0 0 23563 0 0 -3138.87 0 0 3138.87
0 0 -24089.9 0 0 24089.9 0 0 -23125.2 0 0 23125.2 0 0 -3091.41 0 0 3091.41
0 0 -22284.5 0 0 22284.5 0 0 -22435.2 0 0 22435.2 0 0 -3078.88 0 0 3078.88
0 0 -20274 0 0 20274 0 0 -21494.3 0 0 21494.3 0 0 -3099.51 0 0 3099.51
0 0 -18073.7 0 0 18073.7 0 0 -20309.6 0 0 20309.6 0 0 -3149.98 0 0 3149.98
0 0 -15702.6 0 0 15702.6 0 0 -18894 0 0 18894 0 0 -3225.54 0 0 3225.54
0 0 -13309.4 0 0 13309.4 0 0 -17249.6 0 0 17249.6 0 0 -3320.74 0 0 3320.74
0 0 -10843.4 0 0 10843.4 0 0 -15385.5 0 0 15385.5 0 0 -3430.77 0 0 3430.77
0 0 -8220.33 0 0 8220.33 0 0 -13408.5 0 0 13408.5 0 0 -3539.18 0 0 3539.18
0 0 -5529.03 0 0 5529.03 0 0 -11283.5 0 0 11283.5 0 0 -3644.77 0 0 3644.77
0 0 -2793.82 0 0 2793.82 0 0 -9078.47 0 0 9078.47 0 0 -3733.79 0 0 3733.79
0 0 -61.0579 0 0 61.0579 0 0 -6813.28 0 0 6813.28 0 0 -3798.84 0 0 3798.84
0 0 2639.14 0 0 -2639.14 0 0 -4527.37 0 0 4527.37 0 0 -3830.12 0 0 3830.12
0 0 5259.38 0 0 -5259.38 0 0 -2256.27 0 0 2256.27 0 0 -3819.09 0 0 3819.09
0 0 7743.53 0 0 -7743.53 0 0 -27.5858 0 0 27.5858 0 0 -3758.03 0 0 3758.03
0 0 10076.4 0 0 -10076.4 0 0 2141.75 0 0 -2141.75 0 0 -3637.77 0 0 3637.77
0 0 12213.9 0 0 -12213.9 0 0 4204.15 0 0 -4204.15 0 0 -3454.28 0 0 3454.28
0 0 14133.9 0 0 -14133.9 0 0 6132.65 0 0 -6132.65 0 0 -3203.18 0 0 3203.18
0 0 15816.3 0 0 -15816.3 0 0 7898.5 0 0 -7898.5 0 0 -2882.31 0 0 2882.31
0 0 17252.1 0 0 -17252.1 0 0 9481.68 0 0 -9481.68 0 0 -2490.19 0 0 2490.19
0 0 18434.2 0 0 -18434.2 0 0 10868.7 0 0 -10868.7 0 0 -2027.89 0 0 2027.89
0 0 19365 0 0 -19365 0 0 12050.1 0 0 -12050.1 0 0 -1497.87 0 0 1497.87
0 0 20054.1 0 0 -20054.1 0 0 13021 0 0 -13021 0 0 -904.455 0 0 904.455
0 0 20517.7 0 0 -20517.7 0 0 13782.6 0 0 -13782.6 0 0 -253.872 0 0 253.872
0 0 20777 0 0 -20777 0 0 14344.8 0 0 -14344.8 0 0 457.57 0 0 -457.57
0 0 20862.4 0 0 -20862.4 0 0 14713.9 0 0 -14713.9 0 0 1209.08 0 0 -1209.08
0 0 20808.1 0 0 -20808.1 0 0 14907.8 0 0 -14907.8 0 0 1989.9 0 0 -1989.9
0 0 20654.1 0 0 -20654.1 0 0 14945.6 0 0 -14945.6 0 0 2787.38 0 0 -2787.38
0 0 20443.3 0 0 -20443.3 0 0 14851.6 0 0 -14851.6 0 0 3588.88 0 0 -3588.88
0 0 20220.6 0 0 -20220.6 0 0 14652.8 0 0 -14652.8 0 0 4381.12 0 0 -4381.12
0 0 20030.5 0 0 -20030.5 0 0 14379.1 0 0 -14379.1 0 0 5150.34 0 0 -5150.34
0 0 19913.7 0 0 -19913.7 0 0 14062.5 0 0 -14062.5 0 0 5882.59 0 0 -5882.59
0 0 19905.4 0 0 -19905.4 0 0 13736.2 0 0 -13736.2 0 0 6564.3 0 0 -6564.3
0 0 20040.9 0 0 -20040.9 0 0 13432.5 0 0 -13432.5 0 0 7182.79 0 0 -7182.79
0 0 20345.2 0 0 -20345.2 0 0 13184.1 0 0 -13184.1 0 0 7713.89 0 0 -7713.89
0 0 20867.8 0 0 -20867.8 0 0 12931.4 0 0 -12931.4 0 0 7721.22 0 0 -7721.22
0 0 21638.6 0 0 -21638.6 0 0 12674.7 0 0 -12674.7 0 0 7728.76 0 0 -7728.76
0 0 22557.3 0 0 -22557.3 0 0 12735.8 0 0 -12735.8 0 0 7733.1 0 0 -7733.1
0 0 23722.3 0 0 -23722.3 0 0 12890 0 0 -12890 0 0 7736.41 0 0 -7736.41
0 0 25089.4 0 0 -25089.4 0 0 13267.9 0 0 -13267.9 0 0 7737.98 0 0 -7737.98
0 0 26659.3 0 0 -26659.3 0 0 13849.7 0 0 -13849.7 0 0 7704.44 0 0 -7704.44
0 0 28441.8 0 0 -28441.8 0 0 14584.4 0 0 -14584.4 0 0 7581.73 0 0 -7581.73
0 0 30419 0 0 -30419 0 0 15489.6 0 0 -15489.6 0 0 7362.25 0 0 -7362.25
0 0 32582.9 0 0 -32582.9 0 0 16544.6 0 0 -16544.6 0 0 7057.61 0 0 -7057.61
0 0 34919.7 0 0 -34919.7 0 0 17730.3 0 0 -17730.3 0 0 6673.72 0 0 -6673.72
0 0 37405.1 0 0 -37405.1 0 0 19025.2 0 0 -19025.2 0 0 6220.26 0 0 -6220.26
0 0 40011.4 0 0 -40011.4 0 0 20402 0 0 -20402 0 0 5709.38 0 0 -5709.38
0 0 42704.7 0 0 -42704.7 0 0 21833.7 0 0 -21833.7 0 0 5154.26 0 0 -5154.26
0 0 45448.6 0 0 -45448.6 0 0 23289.7 0 0 -23289.7 0 0 4568.72 0 0 -4568.72
0 0 48203.2 0 0 -48203.2 0 0 24738.9 0 0 -24738.9 0 0 3966.46 0 0 -3966.46
0 0 50925.3 0 0 -50925.3 0 0 26149.8 0 0 -26149.8 0 0 3361.36 0 0 -3361.36
0 0 53570 0 0 -53570 0 0 27492.6 0 0 -27492.6 0 0 2767.41 0 0 -2767.41
0 0 56091.9 0 0 -56091.9 0 0 28740.3 0 0 -28740.3 0 0 2198.36 0 0 -2198.36
0 0 58447.3 0 0 -58447.3 0 0 29867.9 0 0 -29867.9 0 0 1667.11 0 0 -1667.11
0 0 60544.8 0 0 -60544.8 0 0 30853 0 0 -30853 0 0 1185.27 0 0 -1185.27
0 0 60639.4 0 0 -60639.4 0 0 31385.7 0 0 -31385.7 0 0 782.141 0 0 -782.141
0 0 60795.3 0 0 -60795.3 0 0 31280.6 0 0 -31280.6 0 0 486.729 0 0 -486.729
0 0 60881.7 0 0 -60881.7 0 0 31601.5 0 0 -31601.5 0 0 209.631 0 0 -209.631
0 0 60960.4 0 0 -60960.4 0 0 31630.2 0 0 -31630.2 0 0 12.5655 0 0 -12.5655
0 0 61029 0 0 -61029 0 0 31518.7 0 0 -31518.7 0 0 -87.4297 0 0 87.4297
0 0 61061.5 0 0 -61061.5 0 0 31467.2 0 0 -31467.2 0 0 -144.515 0 0 144.515
0 0 60767.9 0 0 -60767.9 0 0 31415.5 0 0 -31415.5 0 0 -139.047 0 0 139.047
0 0 60432.7 0 0 -60432.7 0 0 31146.3 0 0 -31146.3 0 0 -56.3319 0 0 56.3319
0 0 59752.1 0 0 -59752.1 0 0 30740.1 0 0 -30740.1 0 0 102.296 0 0 -102.296
0 0 58833 0 0 -58833 0 0 30212.4 0 0 -30212.4 0 0 322.945 0 0 -322.945
0 0 57694.6 0 0 -57694.6 0 0 29552.5 0 0 -29552.5 0 0 609.396 0 0 -609.396
0 0 56360.6 0 0 -56360.6 0 0 28795.8 0 0 -28795.8 0 0 948.953 0 0 -948.953
0 0 54868.6 0 0 -54868.6 0 0 27956.2 0 0 -27956.2 0 0 1335.67 0 0 -1335.67
0 0 53256.5 0 0 -53256.5 0 0 27059.1 0 0 -27059.1 0 0 1759.14 0 0 -1759.14
0 0 51567.6 0 0 -51567.6 0 0 26125.6 0 0 -26125.6 0 0 2209.93 0 0 -2209.93
0 0 49843.7 0 0 -49843.7 0 0 25181.8 0 0 -25181.8 0 0 2677.27 0 0 -2677.27
0 0 48127.3 0 0 -48127.3 0 0 24253.6 0 0 -24253.6 0 0 3150.24 0 0 -3150.24
0 0 46462.2 0 0 -46462.2 0 0 23364.7 0 0 -23364.7 0 0 3618.2 0 0 -3618.2
0 0 44890 0 0 -44890 0 0 22538.5 0 0 -22538.5 0 0 4070.74 0 0 -4070.74
0 0 43449.5 0 0 -43449.5 0 0 21797.7 0 0 -21797.7 0 0 4497.9 0 0 -4497.9
0 0 42175.9 0 0 -42175.9 0 0 21162.5 0 0 -21162.5 0 0 4890.49 0 0 -4890.49
0 0 41100.6 0 0 -41100.6 0 0 20649.9 0 0 -20649.9 0 0 5240.35 0 0 -5240.35
0 0 40250.1 0 0 -40250.1 0 0 20274.5 0 0 -20274.5 0 0 5540.44 0 0 -5540.44
0 0 39644.9 0 0 -39644.9 0 0 20047.5 0 0 -20047.5 0 0 5785.02 0 0 -5785.02
0 0 39299.8 0 0 -39299.8 0 0 19976.9 0 0 -19976.9 0 0 5969.79 0 0 -5969.79
0 0 39208.8 0 0 -39208.8 0 0 20068.1 0 0 -20068.1 0 0 6091.95 0 0 -6091.95
0 0 39267.1 0 0 -39267.1 0 0 20338.1 0 0 -20338.1 0 0 6149.44 0 0 -6149.44
0 0 39482.2 0 0 -39482.2 0 0 20780.9 0 0 -20780.9 0 0 6142.6 0 0 -6142.6
0 0 39846.3 0 0 -39846.3 0 0 21382.5 0 0 -21382.5 0 0 6074.22 0 0 -6074.22
0 0 40348.9 0 0 -40348.9 0 0 22128.7 0 0 -22128.7 0 0 5947.76 0 0 -5947.76
0 0 40975.3 0 0 -40975.3 0 0 22998 0 0 -22998 0 0 5768.92 0 0 -5768.92
0 0 41706.7 0 0 -41706.7 0 0 23966.5 0 0 -23966.5 0 0 5544.28 0 0 -5544.28
0 0 42521 0 0 -42521 0 0 25006.9 0 0 -25006.9 0 0 5281.65 0 0 -5281.65
0 0 43392.5 0 0 -43392.5 0 0 26090.1 0 0 -26090.1 0 0 4989.65 0 0 -4989.65
0 0 44291.7 0 0 -44291.7 0 0 27185.7 0 0 -27185.7 0 0 4677.44 0 0 -4677.44
0 0 45187.4 0 0 -45187.4 0 0 28263.1 0 0 -28263.1 0 0 4354.52 0 0 -4354.52
0 0 46047.4 0 0 -46047.4 0 0 29292 0 0 -29292 0 0 4030.39 0 0 -4030.39
0 0 46840 0 0 -46840 0 0 30243.1 0 0 -30243.1 0 0 3714.35 0 0 -3714.35
0 0 47535.2 0 0 -47535.2 0 0 31089.2 0 0 -31089.2 0 0 3415.2 0 0 -3415.2
0 0 48106.3 0 0 -48106.3 0 0 31805.3 0 0 -31805.3 0 0 3141 0 0 -3141
0 0 48530.4 0 0 -48530.4 0 0 32369.8 0 0 -32369.8 0 0 2898.9 0 0 -2898.9
0 0 48790.3 0 0 -48790.3 0 0 32764.2 0 0 -32764.2 0 0 2694.89 0 0 -2694.89
0 0 48874 0 0 -48874 0 0 32974.4 0 0 -32974.4 0 0 2533.67 0 0 -2533.67
0 0 48775.1 0 0 -48775.1 0 0 32990.9 0 0 -32990.9 0 0 2418.54 0 0 -2418.54
0 0 48490.9 0 0 -48490.9 0 0 32809.1 0 0 -32809.1 0 0 2351.23 0 0 -2351.23
0 0 48021.6 0 0 -48021.6 0 0 32430 0 0 -32430 0 0 2331.94 0 0 -2331.94
0 0 47368.6 0 0 -47368.6 0 0 31860.3 0 0 -31860.3 0 0 2359.27 0 0 -2359.27
0 0 46533.6 0 0 -46533.6 0 0 31111.9 0 0 -31111.9 0 0 2430.33 0 0 -2430.33
0 0 45520 0 0 -45520 0 0 30201.7 0 0 -30201.7 0 0 2540.82 0 0 -2540.82
0 0 44334.4 0 0 -44334.4 0 0 29150.3 0 0 -29150.3 0 0 2685.23 0 0 -2685.23
0 0 42988.4 0 0 -42988.4 0 0 27981.4 0 0 -27981.4 0 0 2857.05 0 0 -2857.05
0 0 41498.1 0 0 -41498.1 0 0 26720.6 0 0 -26720.6 0 0 3048.94 0 0 -3048.94
0 0 39882.7 0 0 -39882.7 0 0 25394.7 0 0 -25394.7 0 0 3253 0 0 -3253
0 0 38164.1 0 0 -38164.1 0 0 24031.5 0 0 -24031.5 0 0 3460.98 0 0 -3460.98
0 0 36364.9 0 0 -36364.9 0 0 22658.5 0 0 -22658.5 0 0 3664.52 0 0 -3664.52
0 0 34507.3 0 0 -34507.3 0 0 21302.3 0 0 -21302.3 0 0 3855.43 0 0 -3855.43
0 0 32611.7 0 0 -32611.7 0 0 19988.4 0 0 -19988.4 0 0 4025.87 0 0 -4025.87
0 0 30697.8 0 0 -30697.8 0 0 18739.4 0 0 -18739.4 0 0 4168.62 0 0 -4168.62
0 0 28786.1 0 0 -28786.1 0 0 17575 0 0 -17575 0 0 4277.3 0 0 -4277.3
0 0 26899.8 0 0 -26899.8 0 0 16510 0 0 -16510 0 0 4346.53 0 0 -4346.53
0 0 25066.5 0 0 -25066.5 0 0 15554.7 0 0 -15554.7 0 0 4372.13 0 0 -4372.13
0 0 23316.4 0 0 -23316.4 0 0 14714.5 0 0 -14714.5 0 0 4351.13 0 0 -4351.13
0 0 21678.4 0 0 -21678.4 0 0 13990.5 0 0 -13990.5 0 0 4281.83 0 0 -4281.83
0 0 20176.3 0 0 -20176.3 0 0 13380.6 0 0 -13380.6 0 0 4163.73 0 0 -4163.73
0 0 18826.3 0 0 -18826.3 0 0 12880 0 0 -12880 0 0 3997.53 0 0 -3997.53
0 0 17635.6 0 0 -17635.6 0 0 12481.7 0 0 -12481.7 0 0 3785.03 0 0 -3785.03
0 0 16602.5 0 0 -16602.5 0 0 12177.2 0 0 -12177.2 0 0 3529.1 0 0 -3529.1
0 0 15718.1 0 0 -15718.1 0 0 11955.9 0 0 -11955.9 0 0 3233.53 0 0 -3233.53
0 0 14967.5 0 0 -14967.5 0 0 11805.9 0 0 -11805.9 0 0 2903.03 0 0 -2903.03
0 0 14331.1 0 0 -14331.1 0 0 11714.1 0 0 -11714.1 0 0 2543.02 0 0 -2543.02
0 0 13785 0 0 -13785 0 0 11666.1 0 0 -11666.1 0 0 2159.56 0 0 -2159.56
0 0 13303.1 0 0 -13303.1 0 0 11646.8 0 0 -11646.8 0 0 1759.18 0 0 -1759.18
0 0 12858.5 0 0 -12858.5 0 0 11640.5 0 0 -11640.5 0 0 1348.73 0 0 -1348.73
0 0 12424.2 0 0 -12424.2 0 0 11631.2 0 0 -11631.2 0 0 935.244 0 0 -935.244
0 0 11972.7 0 0 -11972.7 0 0 11603 0 0 -11603 0 0 525.723 0 0 -525.723
0 0 11474.2 0 0 -11474.2 0 0 11541 0 0 -11541 0 0 126.993 0 0 -126.993
0 0 10895.8 0 0 -10895.8 0 0 11437.5 0 0 -11437.5 0 0 -205.711 0 0 205.711
0 0 10202.6 0 0 -10202.6 0 0 11296.3 0 0 -11296.3 0 0 -513.39 0 0 513.39
0 0 9378.57 0 0 -9378.57 0 0 11066.6 0 0 -11066.6 0 0 -789.939 0 0 789.939
0 0 8394.7 0 0 -8394.7 0 0 10762.2 0 0 -10762.2 0 0 -1042.03 0 0 1042.03
0 0 7379.04 0 0 -7379.04 0 0 10348.7 0 0 -10348.7 0 0 -1262.39 0 0 1262.39
0 0 6749.91 0 0 -6749.91 0 0 9698.28 0 0 -9698.28 0 0 -1442.44 0 0 1442.44
0 0 5740.06 0 0 -5740.06 0 0 9058.3 0 0 -9058.3 0 0 -1594.8 0 0 1594.8
0 0 4640.32 0 0 -4640.32 0 0 8265.35 0 0 -8265.35 0 0 -1711.53 0 0 1711.53
0 0 3362.1 0 0 -3362.1 0 0 7399.63 0 0 -7399.63 0 0 -1793.83 0 0 1793.83
0 0 1941.81 0 0 -1941.81 0 0 6444.32 0 0 -6444.32 0 0 -1845.14 0 0 1845.14
0 0 391.872 0 0 -391.872 0 0 5412.34 0 0 -5412.34 0 0 -1865.09 0 0 1865.09
0 0 -1101.74 0 0 1101.74 0 0 4352.72 0 0 -4352.72 0 0 -1858.38 0 0 1858.38
0 0 -2666.96 0 0 2666.96 0 0 3287.72 0 0 -3287.72 0 0 -1827.43 0 0 1827.43
0 0 -4271.39 0 0 4271.39 0 0 2131.97 0 0 -2131.97 0 0 -1766.33 0 0 1766.33
0 0 -5928.26 0 0 5928.26 0 0 984.218 0 0 -984.218 0 0 -1688.58 0 0 1688.58
0 0 -7597.55 0 0 7597.55 0 0 -190.945 0 0 190.945 0 0 -1593.48 0 0 1593.48
0 0 -9262.14 0 0 9262.14 0 0 -1350.92 0 0 1350.92 0 0 -1487.5 0 0 1487.5
0 0 -10910 0 0 10910 0 0 -2501.53 0 0 2501.53 0 0 -1377.04 0 0 1377.04
0 0 -12521.4 0 0 12521.4 0 0 -3622.14 0 0 3622.14 0 0 -1267.11 0 0 1267.11
0 0 -14078.4 0 0 14078.4 0 0 -4699.45 0 0 4699.45 0 0 -1163.1 0 0 1163.1
0 0 -15563.3 0 0 15563.3 0 0 -5720.56 0 0 5720.56 0 0 -1069.79 0 0 1069.79
0 0 -16961.7 0 0 16961.7 0 0 -6671.51 0 0 6671.51 0 0 -992.063 0 0 992.063
0 0 -18259.8 0 0 18259.8 0 0 -7541.51 0 0 7541.51 0 0 -933.978 0 0 933.978
0 0 -19445.9 0 0 19445.9 0 0 -8321.18 0 0 8321.18 0 0 -898.979 0 0 898.979
0 0 -20511.7 0 0 20511.7 0 0 -9002.59 0 0 9002.59 0 0 -889.855 0 0 889.855
0 0 -21452.3 0 0 21452.3 0 0 -9579.71 0 0 9579.71 0 0 -908.674 0 0 908.674
0 0 -22265.1 0 0 22265.1 0 0 -10049.2 0 0 10049.2 0 0 -956.633 0 0 956.633
0 0 -22950.4 0 0 22950.4 0 0 -10410.1 0 0 10410.1 0 0 -1034.06 0 0 1034.06
0 0 -23511.2 0 0 23511.2 0 0 -10663.8 0 0 10663.8 0 0 -1140.47 0 0 1140.47
0 0 -23953.4 0 0 23953.4 0 0 -10813.9 0 0 10813.9 0 0 -1274.51 0 0 1274.51
0 0 -24286.1 0 0 24286.1 0 0 -10866.6 0 0 10866.6 0 0 -1434.04 0 0 1434.04
0 0 -24521.3 0 0 24521.3 0 0 -10830 0 0 10830 0 0 -1616.15 0 0 1616.15
0 0 -24674.2 0 0 24674.2 0 0 -10714 0 0 10714 0 0 -1813.88 0 0 1813.88
0 0 -24763.7 0 0 24763.7 0 0 -10523.5 0 0 10523.5 0 0 -2000.62 0 0 2000.62
0 0 -24810.6 0 0 24810.6 0 0 -10270.5 0 0 10270.5 0 0 -2195.15 0 0 2195.15
0 0 -24828.2 0 0 24828.2 0 0 -9985.76 0 0 9985.76 0 0 -2393.04 0 0 2393.04
0 0 -24843.6 0 0 24843.6 0 0 -9671.41 0 0 9671.41 0 0 -2592.54 0 0 2592.54
0 0 -24872.8 0 0 24872.8 0 0 -9351.9 0 0 9351.9 0 0 -2787.93 0 0 2787.93
0 0 -24937.5 0 0 24937.5 0 0 -9040.71 0 0 9040.71 0 0 -2975.4 0 0 2975.4
0 0 -25056.5 0 0 25056.5 0 0 -8755.57 0 0 8755.57 0 0 -3150.63 0 0 3150.63
0 0 -25248.5 0 0 25248.5 0 0 -8512.6 0 0 8512.6 0 0 -3309.65 0 0 3309.65
0 0 -25530.3 0 0 25530.3 0 0 -8326.77 0 0 8326.77 0 0 -3448.94 0 0 3448.94
0 0 -25915.4 0 0 25915.4 0 0 -8212.52 0 0 8212.52 0 0 -3565.32 0 0 3565.32
0 0 -26413.4 0 0 26413.4 0 0 -8182.74 0 0 8182.74 0 0 -3656.24 0 0 3656.24
0 0 -27029.1 0 0 27029.1 0 0 -8249.04 0 0 8249.04 0 0 -3719.72 0 0 3719.72
0 0 -27763 0 0 27763 0 0 -8420.88 0 0 8420.88 0 0 -3754.51 0 0 3754.51
0 0 -28611.7 0 0 28611.7 0 0 -8705.22 0 0 8705.22 0 0 -3759.44 0 0 3759.44
0 0 -29569.1 0 0 29569.1 0 0 -9104.96 0 0 9104.96 0 0 -3731.31 0 0 3731.31
0 0 -30626.9 0 0 30626.9 0 0 -9619.84 0 0 9619.84 0 0 -3670.91 0 0 3670.91
0 0 -31773.8 0 0 31773.8 0 0 -10248.3 0 0 10248.3 0 0 -3580.41 0 0 3580.41
0 0 -32997.8 0 0 32997.8 0 0 -10983.6 0 0 10983.6 0 0 -3463.26 0 0 3463.26
0 0 -34284.9 0 0 34284.9 0 0 -11816.9 0 0 11816.9 0 0 -3323.58 0 0 3323.58
0 0 -35620.8 0 0 35620.8 0 0 -12735.5 0 0 12735.5 0 0 -3166.34 0 0 3166.34
0 0 -36990.4 0 0 36990.4 0 0 -13724.3 0 0 13724.3 0 0 -2997.13 0 0 2997.13
0 0 -38378.8 0 0 38378.8 0 0 -14766 0 0 14766 0 0 -2822.03 0 0 2822.03
0 0 -39765.6 0 0 39765.6 0 0 -15842.5 0 0 15842.5 0 0 -2647.39 0 0 2647.39
0 0 -41108.3 0 0 41108.3 0 0 -16940.9 0 0 16940.9 0 0 -2479.28 0 0 2479.28
0 0 -42410.9 0 0 42410.9 0 0 -18034.4 0 0 18034.4 0 0 -2324.57 0 0 2324.57
0 0 -43662.1 0 0 43662.1 0 0 -19102.6 0 0 19102.6 0 0 -2189.66 0 0 2189.66
0 0 -44853.4 0 0 44853.4 0 0 -20124.6 0 0 20124.6 0 0 -2080.29 0 0 2080.29
0 0 -45974.2 0 0 45974.2 0 0 -21081.9 0 0 21081.9 0 0 -2001.87 0 0 2001.87
0 0 -47013.3 0 0 47013.3 0 0 -21958.6 0 0 21958.6 0 0 -1958.8 0 0 1958.8
0 0 -47960.5 0 0 47960.5 0 0 -22741.2 0 0 22741.2 0 0 -1954.7 0 0 1954.7
0 0 -48789.3 0 0 48789.3 0 0 -23424 0 0 23424 0 0 -1991.9 0 0 1991.9
0 0 -49401.2 0 0 49401.2 0 0 -24012 0 0 24012 0 0 -2071.84 0 0 2071.84
0 0 -49870.2 0 0 49870.2 0 0 -24501.4 0 0 24501.4 0 0 -2193.04 0 0 2193.04
0 0 -50182.6 0 0 50182.6 0 0 -24866.1 0 0 24866.1 0 0 -2359.27 0 0 2359.27
0 0 -50340.6 0 0 50340.6 0 0 -25126.3 0 0 25126.3 0 0 -2565.27 0 0 2565.27
0 0 -50343.4 0 0 50343.4 0 0 -25271.9 0 0 25271.9 0 0 -2810.94 0 0 2810.94
0 0 -50192.5 0 0 50192.5 0 0 -25310.1 0 0 25310.1 0 0 -3091.63 0 0 3091.63
0 0 -49893.4 0 0 49893.4 0 0 -25244.6 0 0 25244.6 0 0 -3403.62 0 0 3403.62
0 0 -49462 0 0 49462 0 0 -25087.4 0 0 25087.4 0 0 -3735.41 0 0 3735.41
0 0 -48919.6 0 0 48919.6 0 0 -24833.8 0 0 24833.8 0 0 -4039.33 0 0 4039.33
0 0 -48284.8 0 0 48284.8 0 0 -24507.3 0 0 24507.3 0 0 -4355.2 0 0 4355.2
0 0 -47567.5 0 0 47567.5 0 0 -24137.8 0 0 24137.8 0 0 -4677.42 0 0 4677.42
0 0 -46798 0 0 46798 0 0 -23724.3 0 0 23724.3 0 0 -5000.1 0 0 5000.1
0 0 -45989.5 0 0 45989.5 0 0 -23294.4 0 0 23294.4 0 0 -5315.96 0 0 5315.96
0 0 -45166.9 0 0 45166.9 0 0 -22858 0 0 22858 0 0 -5619.88 0 0 5619.88
0 0 -44349.9 0 0 44349.9 0 0 -22432.9 0 0 22432.9 0 0 -5905.81 0 0 5905.81
0 0 -43559.8 0 0 43559.8 0 0 -22032 0 0 22032 0 0 -6168.46 0 0 6168.46
0 0 -42814.9 0 0 42814.9 0 0 -21668 0 0 21668 0 0 -6402.88 0 0 6402.88
0 0 -42120 0 0 42120 0 0 -21353.3 0 0 21353.3 0 0 -6604.59 0 0 6604.59
0 0 -41425.2 0 0 41425.2 0 0 -21106.4 0 0 21106.4 0 0 -6769.48 0 0 6769.48
0 0 -40734.3 0 0 40734.3 0 0 -20935.1 0 0 20935.1 0 0 -6894.44 0 0 6894.44
0 0 -40042.4 0 0 40042.4 0 0 -20841.1 0 0 20841.1 0 0 -6977.83 0 0 6977.83
0 0 -39344.4 0 0 39344.4 0 0 -20825 0 0 20825 0 0 -7018.36 0 0 7018.36
0 0 -38637.5 0 0 38637.5 0 0 -20881 0 0 20881 0 0 -7013.93 0 0 7013.93
0 0 -37923.1 0 0 37923.1 0 0 -20997.3 0 0 20997.3 0 0 -6961.22 0 0 6961.22
0 0 -37204.7 0 0 37204.7 0 0 -21159.8 0 0 21159.8 0 0 -6861.75 0 0 6861.75
0 0 -36484.1 0 0 36484.1 0 0 -21352.6 0 0 21352.6 0 0 -6718.93 0 0 6718.93
0 0 -35760 0 0 35760 0 0 -21556.5 0 0 21556.5 0 0 -6536.82 0 0 6536.82
0 0 -35026.2 0 0 35026.2 0 0 -21752.3 0 0 21752.3 0 0 -6320.04 0 0 6320.04
0 0 -34273.7 0 0 34273.7 0 0 -21919.6 0 0 21919.6 0 0 -6073.78 0 0 6073.78
0 0 -33492.6 0 0 33492.6 0 0 -22038 0 0 22038 0 0 -5803.54 0 0 5803.54
0 0 -32673.5 0 0 32673.5 0 0 -22087.3 0 0 22087.3 0 0 -5515.01 0 0 5515.01
0 0 -31805.9 0 0 31805.9 0 0 -22048.7 0 0 22048.7 0 0 -5213.81 0 0 5213.81
0 0 -30876.6 0 0 30876.6 0 0 -21905.3 0 0 21905.3 0 0 -4905.35 0 0 4905.35
0 0 -29870.9 0 0 29870.9 0 0 -21643 0 0 21643 0 0 -4594.64 0 0 4594.64
0 0 -28775.3 0 0 28775.3 0 0 -21250 0 0 21250 0 0 -4286.23 0 0 4286.23
0 0 -27581.1 0 0 27581.1 0 0 -20716.9 0 0 20716.9 0 0 -3984.13 0 0 3984.13
0 0 -26284.7 0 0 26284.7 0 0 -20037 0 0 20037 0 0 -3691.65 0 0 3691.65
0 0 -24886.9 0 0 24886.9 0 0 -19206.7 0 0 19206.7 0 0 -3411.35 0 0 3411.35
0 0 -23391.1 0 0 23391.1 0 0 -18225.6 0 0 18225.6 0 0 -3144.98 0 0 3144.98
0 0 -21801.7 0 0 21801.7 0 0 -17097.5 0 0 17097.5 0 0 -2893.41 0 0 2893.41
0 0 -20123.2 0 0 20123.2 0 0 -15830 0 0 15830 0 0 -2656.65 0 0 2656.65
0 0 -18359.1 0 0 18359.1 0 0 -14434.6 0 0 14434.6 0 0 -2433.89 0 0 2433.89
0 0 -16512.3 0 0 16512.3 0 0 -12926.2 0 0 12926.2 0 0 -2223.54 0 0 2223.54
0 0 -14586.5 0 0 14586.5 0 0 -11322.7 0 0 11322.7 0 0 -2023.38 0 0 2023.38
0 0 -12586.8 0 0 12586.8 0 0 -9643.65 0 0 9643.65 0 0 -1830.66 0 0 1830.66
0 0 -10521.4 0 0 10521.4 0 0 -7910.16 0 0 7910.16 0 0 -1642.29 0 0 1642.29
0 0 -8402.06 0 0 8402.06 0 0 -6143.54 0 0 6143.54 0 0 -1454.92 0 0 1454.92
0 0 -6244.26 0 0 6244.26 0 0 -4364.95 0 0 4364.95 0 0 -1265.16 0 0 1265.16
0 0 -4065.68 0 0 4065.68 0 0 -2594.93 0 0 2594.93 0 0 -1069.67 0 0 1069.67
0 0 -1884.86 0 0 1884.86 0 0 -853.131 0 0 853.131 0 0 -865.312 0 0 865.312
0 0 196.629 0 0 -196.629 0 0 856.208 0 0 -856.208 0 0 -648.588 0 0 648.588
0 0 2176.52 0 0 -2176.52 0 0 2459.57 0 0 -2459.57 0 0 -413.197 0 0 413.197
0 0 4067.14 0 0 -4067.14 0 0 3992.27 0 0 -3992.27 0 0 -161.009 0 0 161.009
0 0 5903.18 0 0 -5903.18 0 0 5444.59 0 0 -5444.59 0 0 85.0429 0 0 -85.0429
0 0 7283.9 0 0 -7283.9 0 0 6850.42 0 0 -6850.42 0 0 337.318 0 0 -337.318
0 0 8635 0 0 -8635 0 0 8154.25 0 0 -8154.25 0 0 594.425 0 0 -594.425
0 0 9810.76 0 0 -9810.76 0 0 9331.65 0 0 -9331.65 0 0 872.907 0 0 -872.907
0 0 10862.6 0 0 -10862.6 0 0 10400.2 0 0 -10400.2 0 0 1161.92 0 0 -1161.92
0 0 11777.1 0 0 -11777.1 0 0 11334.4 0 0 -11334.4 0 0 1466.64 0 0 -1466.64
0 0 12558.3 0 0 -12558.3 0 0 12141.5 0 0 -12141.5 0 0 1781.45 0 0 -1781.45
0 0 13208.3 0 0 -13208.3 0 0 12817 0 0 -12817 0 0 2105.46 0 0 -2105.46
0 0 13736.2 0 0 -13736.2 0 0 13363.6 0 0 -13363.6 0 0 2435.26 0 0 -2435.26
0 0 14154.2 0 0 -14154.2 0 0 13784.7 0 0 -13784.7 0 0 2767.58 0 0 -2767.58
0 0 14477.6 0 0 -14477.6 0 0 14085.8 0 0 -14085.8 0 0 3098.45 0 0 -3098.45
0 0 14722.8 0 0 -14722.8 0 0 14275 0 0 -14275 0 0 3423.56 0 0 -3423.56
0 0 14909.4 0 0 -14909.4 0 0 14361.7 0 0 -14361.7 0 0 3738.46 0 0 -3738.46
0 0 15057.9 0 0 -15057.9 0 0 14357.5 0 0 -14357.5 0 0 4038.4 0 0 -4038.4
0 0 15189.3 0 0 -15189.3 0 0 14275.7 0 0 -14275.7 0 0 4318.56 0 0 -4318.56
0 0 15324.3 0 0 -15324.3 0 0 14130.7 0 0 -14130.7 0 0 4574.11 0 0 -4574.11
0 0 15483.4 0 0 -15483.4 0 0 13937.8 0 0 -13937.8 0 0 4800.39 0 0 -4800.39
0 0 15686.5 0 0 -15686.5 0 0 13712.8 0 0 -13712.8 0 0 4992.99 0 0 -4992.99
0 0 15952.6 0 0 -15952.6 0 0 13471.9 0 0 -13471.9 0 0 5147.86 0 0 -5147.86
0 0 16298.5 0 0 -16298.5 0 0 13231.2 0 0 -13231.2 0 0 5261.43 0 0 -5261.43
0 0 16738.5 0 0 -16738.5 0 0 13006.2 0 0 -13006.2 0 0 5330.69 0 0 -5330.69
0 0 17283.3 0 0 -17283.3 0 0 12811.6 0 0 -12811.6 0 0 5353.3 0 0 -5353.3
0 0 17940.1 0 0 -17940.1 0 0 12660.2 0 0 -12660.2 0 0 5321.71 0 0 -5321.71
0 0 18712.9 0 0 -18712.9 0 0 12561.7 0 0 -12561.7 0 0 5234.13 0 0 -5234.13
0 0 19601.4 0 0 -19601.4 0 0 12527.6 0 0 -12527.6 0 0 5089.95 0 0 -5089.95
0 0 20603.2 0 0 -20603.2 0 0 12564.8 0 0 -12564.8 0 0 4890.85 0 0 -4890.85
0 0 21713.7 0 0 -21713.7 0 0 12678.3 0 0 -12678.3 0 0 4639.27 0 0 -4639.27
0 0 22926.1 0 0 -22926.1 0 0 12870.2 0 0 -12870.2 0 0 4338.86 0 0 -4338.86
0 0 24232.1 0 0 -24232.1 0 0 13139.6 0 0 -13139.6 0 0 3994.39 0 0 -3994.39
0 0 25622.1 0 0 -25622.1 0 0 13482.6 0 0 -13482.6 0 0 3611.58 0 0 -3611.58
0 0 27085.1 0 0 -27085.1 0 0 13892.9 0 0 -13892.9 0 0 3197.05 0 0 -3197.05
0 0 28608.5 0 0 -28608.5 0 0 14362.1 0 0 -14362.1 0 0 2758.17 0 0 -2758.17
0 0 30177.9 0 0 -30177.9 0 0 14879.9 0 0 -14879.9 0 0 2302.88 0 0 -2302.88
0 0 31776.7 0 0 -31776.7 0 0 15435 0 0 -15435 0 0 1839.55 0 0 -1839.55
0 0 33387.1 0 0 -33387.1 0 0 16015.3 0 0 -16015.3 0 0 1376.79 0 0 -1376.79
0 0 34989.7 0 0 -34989.7 0 0 16608.2 0 0 -16608.2 0 0 923.265 0 0 -923.265
0 0 36564.7 0 0 -36564.7 0 0 17201.5 0 0 -17201.5 0 0 487.515 0 0 -487.515
0 0 38092.6 0 0 -38092.6 0 0 17783 0 0 -17783 0 0 77.7773 0 0 -77.7773
0 0 39552.9 0 0 -39552.9 0 0 18348.9 0 0 -18348.9 0 0 -255.271 0 0 255.271
0 0 40925.8 0 0 -40925.8 0 0 18893.8 0 0 -18893.8 0 0 -553.767 0 0 553.767
0 0 42206.3 0 0 -42206.3 0 0 19383.3 0 0 -19383.3 0 0 -807.232 0 0 807.232
0 0 43373.3 0 0 -43373.3 0 0 19828.3 0 0 -19828.3 0 0 -1016.29 0 0 1016.29
0 0 44421.2 0 0 -44421.2 0 0 20213.5 0 0 -20213.5 0 0 -1175.16 0 0 1175.16
0 0 45341.3 0 0 -45341.3 0 0 20539.3 0 0 -20539.3 0 0 -1281.76 0 0 1281.76
0 0 46130.4 0 0 -46130.4 0 0 20803.3 0 0 -20803.3 0 0 -1334.02 0 0 1334.02
0 0 46787.7 0 0 -46787.7 0 0 21006.1 0 0 -21006.1 0 0 -1328.82 0 0 1328.82
0 0 47314.6 0 0 -47314.6 0 0 21153.3 0 0 -21153.3 0 0 -1262.28 0 0 1262.28
0 0 47716 0 0 -47716 0 0 21249.8 0 0 -21249.8 0 0 -1134.74 0 0 1134.74
0 0 47999.4 0 0 -47999.4 0 0 21302.4 0 0 -21302.4 0 0 -948.672 0 0 948.672
0 0 48173.8 0 0 -48173.8 0 0 21320.7 0 0 -21320.7 0 0 -707.451 0 0 707.451
0 0 48251.3 0 0 -48251.3 0 0 21314.6 0 0 -21314.6 0 0 -415.335 0 0 415.335
0 0 48244.4 0 0 -48244.4 0 0 21296 0 0 -21296 0 0 -77.1381 0 0 77.1381
0 0 48171 0 0 -48171 0 0 21270.8 0 0 -21270.8 0 0 282.128 0 0 -282.128
0 0 48050.6 0 0 -48050.6 0 0 21250.6 0 0 -21250.6 0 0 673.662 0 0 -673.662
0 0 47899.7 0 0 -47899.7 0 0 21260.3 0 0 -21260.3 0 0 1089.98 0 0 -1089.98
0 0 47745.3 0 0 -47745.3 0 0 21303.5 0 0 -21303.5 0 0 1525.82 0 0 -1525.82
0 0 47600.1 0 0 -47600.1 0 0 21399.7 0 0 -21399.7 0 0 1973.84 0 0 -1973.84
0 0 47222.5 0 0 -47222.5 0 0 21590.7 0 0 -21590.7 0 0 2426.74 0 0 -2426.74
0 0 46818.2 0 0 -46818.2 0 0 21884.5 0 0 -21884.5 0 0 2877.19 0 0 -2877.19
0 0 46542.7 0 0 -46542.7 0 0 22221.9 0 0 -22221.9 0 0 3323.78 0 0 -3323.78
0 0 46354 0 0 -46354 0 0 22649.5 0 0 -22649.5 0 0 3758.26 0 0 -3758.26
0 0 46280.7 0 0 -46280.7 0 0 23151.6 0 0 -23151.6 0 0 4176.69 0 0 -4176.69
0 0 46328.1 0 0 -46328.1 0 0 23735.1 0 0 -23735.1 0 0 4574.65 0 0 -4574.65
0 0 46501.2 0 0 -46501.2 0 0 24399.5 0 0 -24399.5 0 0 4947.81 0 0 -4947.81
0 0 46803.1 0 0 -46803.1 0 0 25140.8 0 0 -25140.8 0 0 5293.54 0 0 -5293.54
0 0 47232.1 0 0 -47232.1 0 0 25956.2 0 0 -25956.2 0 0 5609.09 0 0 -5609.09
0 0 47781.2 0 0 -47781.2 0 0 26835.1 0 0 -26835.1 0 0 5893.01 0 0 -5893.01
0 0 48390.5 0 0 -48390.5 0 0 27772.1 0 0 -27772.1 0 0 6144.04 0 0 -6144.04
0 0 49145.9 0 0 -49145.9 0 0 28738 0 0 -28738 0 0 6362.81 0 0 -6362.81
0 0 49944.2 0 0 -49944.2 0 0 29748.6 0 0 -29748.6 0 0 6548.81 0 0 -6548.81
0 0 50822.3 0 0 -50822.3 0 0 30787.6 0 0 -30787.6 0 0 6701.34 0 0 -6701.34
0 0 51713.8 0 0 -51713.8 0 0 31850.3 0 0 -31850.3 0 0 6823.14 0 0 -6823.14
0 0 52166.5 0 0 -52166.5 0 0 25425.8 0 0 -25425.8 0 0 6859.21 0 0 -6859.21
0 0 50720.1 0 0 -50720.1 0 0 29693.9 0 0 -29693.9 0 0 6002.34 0 0 -6002.34
0 0 51374.8 0 0 -51374.8 0 0 27814.4 0 0 -27814.4 0 0 6219.98 0 0 -6219.98
0 0 52245.4 0 0 -52245.4 0 0 29751.7 0 0 -29751.7 0 0 6156.16 0 0 -6156.16
0 0 53582 0 0 -53582 0 0 31015.1 0 0 -31015.1 0 0 6134.61 0 0 -6134.61
0 0 54535.9 0 0 -54535.9 0 0 32170.2 0 0 -32170.2 0 0 6066.75 0 0 -6066.75
0 0 55302.6 0 0 -55302.6 0 0 33246.5 0 0 -33246.5 0 0 5947.92 0 0 -5947.92
0 0 56062.9 0 0 -56062.9 0 0 34384.2 0 0 -34384.2 0 0 5839.15 0 0 -5839.15
0 0 56925.3 0 0 -56925.3 0 0 35710.3 0 0 -35710.3 0 0 5747.16 0 0 -5747.16
0 0 57821 0 0 -57821 0 0 37077.3 0 0 -37077.3 0 0 5688.21 0 0 -5688.21
0 0 58570.6 0 0 -58570.6 0 0 38393 0 0 -38393 0 0 5635.05 0 0 -5635.05
0 0 59148.5 0 0 -59148.5 0 0 39521.6 0 0 -39521.6 0 0 5598.49 0 0 -5598.49
0 0 59635.8 0 0 -59635.8 0 0 40560.8 0 0 -40560.8 0 0 5597.34 0 0 -5597.34
0 0 60095 0 0 -60095 0 0 41602.3 0 0 -41602.3 0 0 5644.35 0 0 -5644.35
0 0 60489.2 0 0 -60489.2 0 0 42613.4 0 0 -42613.4 0 0 5738.69 0 0 -5738.69
0 0 60754.7 0 0 -60754.7 0 0 43484.6 0 0 -43484.6 0 0 5878.56 0 0 -5878.56
0 0 60868.3 0 0 -60868.3 0 0 44181 0 0 -44181 0 0 6063.74 0 0 -6063.74
0 0 60817 0 0 -60817 0 0 44288 0 0 -44288 0 0 6290.24 0 0 -6290.24
0 0 60493.2 0 0 -60493.2 0 0 44321.2 0 0 -44321.2 0 0 6520.92 0 0 -6520.92
0 0 60148.6 0 0 -60148.6 0 0 44343.2 0 0 -44343.2 0 0 6835.75 0 0 -6835.75
0 0 59677.5 0 0 -59677.5 0 0 44353.2 0 0 -44353.2 0 0 7188.71 0 0 -7188.71
0 0 58990.9 0 0 -58990.9 0 0 44359.8 0 0 -44359.8 0 0 7566.07 0 0 -7566.07
0 0 58178.6 0 0 -58178.6 0 0 44260.8 0 0 -44260.8 0 0 7741.45 0 0 -7741.45
0 0 57237.3 0 0 -57237.3 0 0 43892.1 0 0 -43892.1 0 0 7752.34 0 0 -7752.34
0 0 56121.6 0 0 -56121.6 0 0 43464.3 0 0 -43464.3 0 0 7761.97 0 0 -7761.97
0 0 54863.9 0 0 -54863.9 0 0 42955.3 0 0 -42955.3 0 0 7770.23 0 0 -7770.23
0 0 53522.4 0 0 -53522.4 0 0 42345.9 0 0 -42345.9 0 0 7778.79 0 0 -7778.79
0 0 52059.5 0 0 -52059.5 0 0 41717.9 0 0 -41717.9 0 0 7787.14 0 0 -7787.14
0 0 50515.8 0 0 -50515.8 0 0 41009.2 0 0 -41009.2 0 0 7795.52 0 0 -7795.52
0 0 48887.4 0 0 -48887.4 0 0 40253 0 0 -40253 0 0 7803.72 0 0 -7803.72
0 0 47189.1 0 0 -47189.1 0 0 39468.9 0 0 -39468.9 0 0 7811.49 0 0 -7811.49
0 0 45441.9 0 0 -45441.9 0 0 38659 0 0 -38659 0 0 7818.79 0 0 -7818.79
0 0 43659.1 0 0 -43659.1 0 0 37853 0 0 -37853 0 0 7825.46 0 0 -7825.46
0 0 41851.8 0 0 -41851.8 0 0 37048.8 0 0 -37048.8 0 0 7831.45 0 0 -7831.45
0 0 40026.5 0 0 -40026.5 0 0 36253.1 0 0 -36253.1 0 0 7836.66 0 0 -7836.66
0 0 38192.8 0 0 -38192.8 0 0 35472.4 0 0 -35472.4 0 0 7840.98 0 0 -7840.98
0 0 36363.2 0 0 -36363.2 0 0 34715.6 0 0 -34715.6 0 0 7844.3 0 0 -7844.3
0 0 34549.4 0 0 -34549.4 0 0 33991.2 0 0 -33991.2 0 0 7846.56 0 0 -7846.56
0 0 32760.9 0 0 -32760.9 0 0 33300.8 0 0 -33300.8 0 0 7847.72 0 0 -7847.72
0 0 31006.8 0 0 -31006.8 0 0 32642.6 0 0 -32642.6 0 0 7832.82 0 0 -7832.82
0 0 28887.5 0 0 -28887.5 0 0 31837.3 0 0 -31837.3 0 0 7726.65 0 0 -7726.65
0 0 26871.3 0 0 -26871.3 0 0 31045 0 0 -31045 0 0 7511.67 0 0 -7511.67
0 0 24969.5 0 0 -24969.5 0 0 30258.9 0 0 -30258.9 0 0 7192.75 0 0 -7192.75
0 0 23182.1 0 0 -23182.1 0 0 29465.4 0 0 -29465.4 0 0 6774.02 0 0 -6774.02
0 0 21493.1 0 0 -21493.1 0 0 28650.7 0 0 -28650.7 0 0 6263.17 0 0 -6263.17
0 0 19873.2 0 0 -19873.2 0 0 27803.1 0 0 -27803.1 0 0 5670.04 0 0 -5670.04
0 0 18288.3 0 0 -18288.3 0 0 26908.8 0 0 -26908.8 0 0 5006.53 0 0 -5006.53
0 0 16706.1 0 0 -16706.1 0 0 25951.5 0 0 -25951.5 0 0 4285.44 0 0 -4285.44
0 0 15099.9 0 0 -15099.9 0 0 24914.2 0 0 -24914.2 0 0 3520.56 0 0 -3520.56
0 0 14122.7 0 0 -14122.7 0 0 23661.4 0 0 -23661.4 0 0 2732.57 0 0 -2732.57
0 0 13119.6 0 0 -13119.6 0 0 22311.8 0 0 -22311.8 0 0 1934.01 0 0 -1934.01
0 0 12043.5 0 0 -12043.5 0 0 20902 0 0 -20902 0 0 1125.11 0 0 -1125.11
0 0 10830.9 0 0 -10830.9 0 0 19373.3 0 0 -19373.3 0 0 326.55 0 0 -326.55
0 0 9446.9 0 0 -9446.9 0 0 17752.7 0 0 -17752.7 0 0 -215.132 0 0 215.132
0 0 7834.61 0 0 -7834.61 0 0 16169.7 0 0 -16169.7 0 0 -620.296 0 0 620.296
0 0 6094.72 0 0 -6094.72 0 0 14403.2 0 0 -14403.2 0 0 -985.248 0 0 985.248
0 0 4174.08 0 0 -4174.08 0 0 12575.1 0 0 -12575.1 0 0 -1339.07 0 0 1339.07
0 0 2119.43 0 0 -2119.43 0 0 10650.2 0 0 -10650.2 0 0 -1675.11 0 0 1675.11
0 0 -45.0192 0 0 45.0192 0 0 8639.14 0 0 -8639.14 0 0 -1994.73 0 0 1994.73
0 0 -2156.78 0 0 2156.78 0 0 6627.95 0 0 -6627.95 0 0 -2297.81 0 0 2297.81
0 0 -4302.6 0 0 4302.6 0 0 4529.89 0 0 -4529.89 0 0 -2585.02 0 0 2585.02
0 0 -6551.43 0 0 6551.43 0 0 2403.5 0 0 -2403.5 0 0 -2855.16 0 0 2855.16
0 0 -8839.01 0 0 8839.01 0 0 232.52 0 0 -232.52 0 0 -3110.65 0 0 3110.65
0 0 -11189.6 0 0 11189.6 0 0 -1975.96 0 0 1975.96 0 0 -3358.23 0 0 3358.23
0 0 -13542.1 0 0 13542.1 0 0 -4215.26 0 0 4215.26 0 0 -3594.85 0 0 3594.85
0 0 -15867 0 0 15867 0 0 -6398.7 0 0 6398.7 0 0 -3824.09 0 0 3824.09
0 0 -18283.3 0 0 18283.3 0 0 -8858.76 0 0 8858.76 0 0 -4065.65 0 0 4065.65
0 0 -20617.5 0 0 20617.5 0 0 -11288.3 0 0 11288.3 0 0 -4306.73 0 0 4306.73
0 0 -22831.6 0 0 22831.6 0 0 -13548.8 0 0 13548.8 0 0 -4546.98 0 0 4546.98
0 0 -24860.5 0 0 24860.5 0 0 -15631.4 0 0 15631.4 0 0 -4788.58 0 0 4788.58
0 0 -26690.6 0 0 26690.6 0 0 -17520.6 0 0 17520.6 0 0 -5031.93 0 0 5031.93
0 0 -28315.1 0 0 28315.1 0 0 -19184.9 0 0 19184.9 0 0 -5279.35 0 0 5279.35
0 0 -29703 0 0 29703 0 0 -20605 0 0 20605 0 0 -5529.98 0 0 5529.98
0 0 -30842.5 0 0 30842.5 0 0 -21771.4 0 0 21771.4 0 0 -5782.31 0 0 5782.31
0 0 -31748.2 0 0 31748.2 0 0 -22677.1 0 0 22677.1 0 0 -6035.59 0 0 6035.59
0 0 -32430.1 0 0 32430.1 0 0 -23327.2 0 0 23327.2 0 0 -6287.33 0 0 6287.33
0 0 -32900.7 0 0 32900.7 0 0 -23729 0 0 23729 0 0 -6533.83 0 0 6533.83
0 0 -33184.7 0 0 33184.7 0 0 -23895 0 0 23895 0 0 -6771.37 0 0 6771.37
0 0 -33310.2 0 0 33310.2 0 0 -23845.5 0 0 23845.5 0 0 -6995.52 0 0 6995.52
0 0 -33299.4 0 0 33299.4 0 0 -23606.5 0 0 23606.5 0 0 -7201 0 0 7201
0 0 -33179.7 0 0 33179.7 0 0 -23202.9 0 0 23202.9 0 0 -7382.97 0 0 7382.97
0 0 -32984.4 0 0 32984.4 0 0 -22671.7 0 0 22671.7 0 0 -7536.17 0 0 7536.17
0 0 -32753.9 0 0 32753.9 0 0 -22050.1 0 0 22050.1 0 0 -7655.68 0 0 7655.68
0 0 -32529.3 0 0 32529.3 0 0 -21367.6 0 0 21367.6 0 0 -7714.59 0 0 7714.59
0 0 -32350.1 0 0 32350.1 0 0 -20654 0 0 20654 0 0 -7719 0 0 7719
0 0 -32247.8 0 0 32247.8 0 0 -19973 0 0 19973 0 0 -7692.43 0 0 7692.43
0 0 -32275.4 0 0 32275.4 0 0 -19305.3 0 0 19305.3 0 0 -7582.92 0 0 7582.92
0 0 -32459.7 0 0 32459.7 0 0 -18689.5 0 0 18689.5 0 0 -7375.83 0 0 7375.83
0 0 -32824.9 0 0 32824.9 0 0 -18130.8 0 0 18130.8 0 0 -7076.18 0 0 7076.18
0 0 -33364.9 0 0 33364.9 0 0 -17649.7 0 0 17649.7 0 0 -6685.8 0 0 6685.8
0 0 -34081.8 0 0 34081.8 0 0 -17228.9 0 0 17228.9 0 0 -6212.35 0 0 6212.35
0 0 -34960.9 0 0 34960.9 0 0 -16904 0 0 16904 0 0 -5662.3 0 0 5662.3
0 0 -36019 0 0 36019 0 0 -16661.8 0 0 16661.8 0 0 -5047.22 0 0 5047.22
0 0 -37223.1 0 0 37223.1 0 0 -16511.6 0 0 16511.6 0 0 -4378.48 0 0 4378.48
0 0 -38547.4 0 0 38547.4 0 0 -16444 0 0 16444 0 0 -3670.9 0 0 3670.9
0 0 -39956.4 0 0 39956.4 0 0 -16453.6 0 0 16453.6 0 0 -2939.36 0 0 2939.36
0 0 -41412.6 0 0 41412.6 0 0 -16529.7 0 0 16529.7 0 0 -2200.64 0 0 2200.64
0 0 -42875 0 0 42875 0 0 -16660.3 0 0 16660.3 0 0 -1471.65 0 0 1471.65
0 0 -44302.1 0 0 44302.1 0 0 -16831 0 0 16831 0 0 -769.372 0 0 769.372
0 0 -45652.9 0 0 45652.9 0 0 -17026.4 0 0 17026.4 0 0 -110.357 0 0 110.357
0 0 -46875 0 0 46875 0 0 -17289.5 0 0 17289.5 0 0 234.155 0 0 -234.155
0 0 -47927.2 0 0 47927.2 0 0 -17592.6 0 0 17592.6 0 0 512.709 0 0 -512.709
0 0 -48831.5 0 0 48831.5 0 0 -17823 0 0 17823 0 0 744.969 0 0 -744.969
0 0 -49518.8 0 0 49518.8 0 0 -18022.1 0 0 18022.1 0 0 931.834 0 0 -931.834
0 0 -49994.3 0 0 49994.3 0 0 -18157.6 0 0 18157.6 0 0 1068.54 0 0 -1068.54
0 0 -50217.7 0 0 50217.7 0 0 -18229 0 0 18229 0 0 1152.3 0 0 -1152.3
0 0 -50137.6 0 0 50137.6 0 0 -18235.9 0 0 18235.9 0 0 1181.91 0 0 -1181.91
0 0 -49742 0 0 49742 0 0 -18167.6 0 0 18167.6 0 0 1122.38 0 0 -1122.38
0 0 -49030.3 0 0 49030.3 0 0 -18044.4 0 0 18044.4 0 0 958.052 0 0 -958.052
0 0 -48028.5 0 0 48028.5 0 0 -17857.4 0 0 17857.4 0 0 690.748 0 0 -690.748
0 0 -46764.3 0 0 46764.3 0 0 -17615.3 0 0 17615.3 0 0 329.077 0 0 -329.077
0 0 -45279.1 0 0 45279.1 0 0 -17322.1 0 0 17322.1 0 0 -81.5385 0 0 81.5385
0 0 -43626 0 0 43626 0 0 -16961.7 0 0 16961.7 0 0 -538.924 0 0 538.924
0 0 -41847.9 0 0 41847.9 0 0 -16586.3 0 0 16586.3 0 0 -1036.75 0 0 1036.75
0 0 -40001.7 0 0 40001.7 0 0 -16188.5 0 0 16188.5 0 0 -1577.5 0 0 1577.5
0 0 -38126.5 0 0 38126.5 0 0 -15800.3 0 0 15800.3 0 0 -2144 0 0 2144
0 0 -36257.7 0 0 36257.7 0 0 -15437.7 0 0 15437.7 0 0 -2723.36 0 0 2723.36
0 0 -34413.8 0 0 34413.8 0 0 -15126 0 0 15126 0 0 -3301.16 0 0 3301.16
0 0 -32604.5 0 0 32604.5 0 0 -14886.9 0 0 14886.9 0 0 -3863.46 0 0 3863.46
0 0 -30835.5 0 0 30835.5 0 0 -14739.1 0 0 14739.1 0 0 -4397.24 0 0 4397.24
0 0 -29113.8 0 0 29113.8 0 0 -14695.6 0 0 14695.6 0 0 -4890.75 0 0 4890.75
0 0 -27448.6 0 0 27448.6 0 0 -14761.9 0 0 14761.9 0 0 -5334.01 0 0 5334.01
0 0 -25846.6 0 0 25846.6 0 0 -14936.3 0 0 14936.3 0 0 -5718.9 0 0 5718.9
0 0 -24306.6 0 0 24306.6 0 0 -15210.2 0 0 15210.2 0 0 -6039.24 0 0 6039.24
0 0 -22819.3 0 0 22819.3 0 0 -15568.5 0 0 15568.5 0 0 -6291.01 0 0 6291.01
0 0 -21369.1 0 0 21369.1 0 0 -15989.6 0 0 15989.6 0 0 -6472.36 0 0 6472.36
0 0 -19934 0 0 19934 0 0 -16445.7 0 0 16445.7 0 0 -6583.42 0 0 6583.42
0 0 -18485 0 0 18485 0 0 -16904.2 0 0 16904.2 0 0 -6626.19 0 0 6626.19
0 0 -16985.2 0 0 16985.2 0 0 -17328.3 0 0 17328.3 0 0 -6599.64 0 0 6599.64
0 0 -15394.2 0 0 15394.2 0 0 -17676.5 0 0 17676.5 0 0 -6505.2 0 0 6505.2
0 0 -13675.5 0 0 13675.5 0 0 -17908.8 0 0 17908.8 0 0 -6349.49 0 0 6349.49
0 0 -11806.5 0 0 11806.5 0 0 -17981.2 0 0 17981.2 0 0 -6140.62 0 0 6140.62
0 0 -10085.7 0 0 10085.7 0 0 -17815.9 0 0 17815.9 0 0 -5887.7 0 0 5887.7
0 0 -9203.8 0 0 9203.8 0 0 -17203.2 0 0 17203.2 0 0 -5612.07 0 0 5612.07
0 0 -7935.62 0 0 7935.62 0 0 -16443.9 0 0 16443.9 0 0 -5291.84 0 0 5291.84
0 0 -6501.07 0 0 6501.07 0 0 -15411.5 0 0 15411.5 0 0 -4948.55 0 0 4948.55
0 0 -4864.23 0 0 4864.23 0 0 -14139.1 0 0 14139.1 0 0 -4577.47 0 0 4577.47
0 0 -3065.16 0 0 3065.16 0 0 -12628.3 0 0 12628.3 0 0 -4183.13 0 0 4183.13
0 0 -1113.56 0 0 1113.56 0 0 -10889.3 0 0 10889.3 0 0 -3767.71 0 0 3767.71
0 0 832.53 0 0 -832.53 0 0 -8953.61 0 0 8953.61 0 0 -3330.47 0 0 3330.47
0 0 2860.68 0 0 -2860.68 0 0 -6895.25 0 0 6895.25 0 0 -2867.84 0 0 2867.84
0 0 4902.89 0 0 -4902.89 0 0 -4666.02 0 0 4666.02 0 0 -2390.07 0 0 2390.07
0 0 6938.33 0 0 -6938.33 0 0 -2359.76 0 0 2359.76 0 0 -1893.76 0 0 1893.76
0 0 8965.53 0 0 -8965.53 0 0 10.4252 0 0 -10.4252 0 0 -1375.9 0 0 1375.9
0 0 10871 0 0 -10871 0 0 2231.8 0 0 -2231.8 0 0 -858.239 0 0 858.239
0 0 12616.7 0 0 -12616.7 0 0 4268.39 0 0 -4268.39 0 0 -346.655 0 0 346.655
0 0 14237.1 0 0 -14237.1 0 0 6231.99 0 0 -6231.99 0 0 73.0921 0 0 -73.0921
0 0 15793.7 0 0 -15793.7 0 0 8098 0 0 -8098 0 0 380.22 0 0 -380.22
0 0 17238.2 0 0 -17238.2 0 0 10010.2 0 0 -10010.2 0 0 680.574 0 0 -680.574
0 0 18597.7 0 0 -18597.7 0 0 11810.7 0 0 -11810.7 0 0 1005 0 0 -1005
0 0 19858.7 0 0 -19858.7 0 0 13553.3 0 0 -13553.3 0 0 1340.81 0 0 -1340.81
0 0 21056.2 0 0 -21056.2 0 0 15196.3 0 0 -15196.3 0 0 1693.57 0 0 -1693.57
0 0 22179 0 0 -22179 0 0 16746.4 0 0 -16746.4 0 0 2059.74 0 0 -2059.74
0 0 23215.2 0 0 -23215.2 0 0 18182.5 0 0 -18182.5 0 0 2438.26 0 0 -2438.26
0 0 24152.2 0 0 -24152.2 0 0 19503.2 0 0 -19503.2 0 0 2825.87 0 0 -2825.87
0 0 24846.9 0 0 -24846.9 0 0 20744.4 0 0 -20744.4 0 0 3219.28 0 0 -3219.28
0 0 25454.3 0 0 -25454.3 0 0 21872.4 0 0 -21872.4 0 0 3614.95 0 0 -3614.95
0 0 25946.2 0 0 -25946.2 0 0 22893.7 0 0 -22893.7 0 0 4009.92 0 0 -4009.92
0 0 26349.7 0 0 -26349.7 0 0 23802.4 0 0 -23802.4 0 0 4399.32 0 0 -4399.32
0 0 26676.6 0 0 -26676.6 0 0 24611.3 0 0 -24611.3 0 0 4778.77 0 0 -4778.77
0 0 26935 0 0 -26935 0 0 25324.1 0 0 -25324.1 0 0 5143.57 0 0 -5143.57
0 0 27132.7 0 0 -27132.7 0 0 25947.6 0 0 -25947.6 0 0 5488.6 0 0 -5488.6
0 0 27278.8 0 0 -27278.8 0 0 26490 0 0 -26490 0 0 5809.22 0 0 -5809.22
0 0 27383.5 0 0 -27383.5 0 0 26960.3 0 0 -26960.3 0 0 6100.89 0 0 -6100.89
0 0 27454 0 0 -27454 0 0 27366 0 0 -27366 0 0 6359.41 0 0 -6359.41
0 0 27494.9 0 0 -27494.9 0 0 27713.6 0 0 -27713.6 0 0 6580.95 0 0 -6580.95
0 0 27510.6 0 0 -27510.6 0 0 28008.5 0 0 -28008.5 0 0 6762.39 0 0 -6762.39
0 0 27501.1 0 0 -27501.1 0 0 28255.1 0 0 -28255.1 0 0 6901.27 0 0 -6901.27
0 0 27382.4 0 0 -27382.4 0 0 28465.3 0 0 -28465.3 0 0 6995.46 0 0 -6995.46
0 0 27145.5 0 0 -27145.5 0 0 28637.5 0 0 -28637.5 0 0 7043.74 0 0 -7043.74
0 0 26802.9 0 0 -26802.9 0 0 28764.1 0 0 -28764.1 0 0 7037.95 0 0 -7037.95
0 0 26382.6 0 0 -26382.6 0 0 28823.3 0 0 -28823.3 0 0 6950.89 0 0 -6950.89
0 0 25911.9 0 0 -25911.9 0 0 28801.7 0 0 -28801.7 0 0 6781.38 0 0 -6781.38
0 0 25412 0 0 -25412 0 0 28673 0 0 -28673 0 0 6535.1 0 0 -6535.1
0 0 24893.6 0 0 -24893.6 0 0 28413.5 0 0 -28413.5 0 0 6216.75 0 0 -6216.75
0 0 24364.9 0 0 -24364.9 0 0 28004.9 0 0 -28004.9 0 0 5834.02 0 0 -5834.02
0 0 23828.9 0 0 -23828.9 0 0 27458.3 0 0 -27458.3 0 0 5395.59 0 0 -5395.59
0 0 23302.5 0 0 -23302.5 0 0 26800.2 0 0 -26800.2 0 0 4917.44 0 0 -4917.44
0 0 22753.8 0 0 -22753.8 0 0 26012.8 0 0 -26012.8 0 0 4401.51 0 0 -4401.51
0 0 22159.3 0 0 -22159.3 0 0 25071.7 0 0 -25071.7 0 0 3855.63 0 0 -3855.63
0 0 21507.4 0 0 -21507.4 0 0 23991.6 0 0 -23991.6 0 0 3287.82 0 0 -3287.82
0 0 20800.1 0 0 -20800.1 0 0 22781.2 0 0 -22781.2 0 0 2706.6 0 0 -2706.6
0 0 20036 0 0 -20036 0 0 21440.9 0 0 -21440.9 0 0 2116.96 0 0 -2116.96
0 0 19215.7 0 0 -19215.7 0 0 19972.8 0 0 -19972.8 0 0 1524.16 0 0 -1524.16
0 0 18343.4 0 0 -18343.4 0 0 18388.9 0 0 -18388.9 0 0 932.722 0 0 -932.722
0 0 17426.8 0 0 -17426.8 0 0 16706.2 0 0 -16706.2 0 0 346.516 0 0 -346.516
0 0 16468.8 0 0 -16468.8 0 0 14947.3 0 0 -14947.3 0 0 -100.506 0 0 100.506
0 0 15442.9 0 0 -15442.9 0 0 13225.8 0 0 -13225.8 0 0 -431.79 0 0 431.79
0 0 14398.7 0 0 -14398.7 0 0 11411.8 0 0 -11411.8 0 0 -725.227 0 0 725.227
0 0 13305.1 0 0 -13305.1 0 0 9614.75 0 0 -9614.75 0 0 -1019.99 0 0 1019.99
0 0 12173.2 0 0 -12173.2 0 0 7814.97 0 0 -7814.97 0 0 -1310.8 0 0 1310.8
0 0 10985.5 0 0 -10985.5 0 0 6056.04 0 0 -6056.04 0 0 -1602.18 0 0 1602.18
0 0 9742.77 0 0 -9742.77 0 0 4351.86 0 0 -4351.86 0 0 -1892.88 0 0 1892.88
0 0 8441.15 0 0 -8441.15 0 0 2725.99 0 0 -2725.99 0 0 -2184.09 0 0 2184.09
0 0 7079.61 0 0 -7079.61 0 0 1192.13 0 0 -1192.13 0 0 -2475.92 0 0 2475.92
0 0 5639.9 0 0 -5639.9 0 0 -246.907 0 0 246.907 0 0 -2769.17 0 0 2769.17
0 0 4142.06 0 0 -4142.06 0 0 -1584.11 0 0 1584.11 0 0 -3061.76 0 0 3061.76
0 0 2578.61 0 0 -2578.61 0 0 -2780.49 0 0 2780.49 0 0 -3352 0 0 3352
0 0 974.393 0 0 -974.393 0 0 -3863.29 0 0 3863.29 0 0 -3637 0 0 3637
0 0 -614.282 0 0 614.282 0 0 -4823.87 0 0 4823.87 0 0 -3915.91 0 0 3915.91
0 0 -2191.41 0 0 2191.41 0 0 -5660.99 0 0 5660.99 0 0 -4186.02 0 0 4186.02
0 0 -3740.93 0 0 3740.93 0 0 -6498.52 0 0 6498.52 0 0 -4442.1 0 0 4442.1
0 0 -5184.44 0 0 5184.44 0 0 -7273.72 0 0 7273.72 0 0 -4691.78 0 0 4691.78
0 0 -6311.35 0 0 6311.35 0 0 -8113.24 0 0 8113.24 0 0 -4910.86 0 0 4910.86
0 0 -7505.78 0 0 7505.78 0 0 -8806.58 0 0 8806.58 0 0 -5114.02 0 0 5114.02
0 0 -8681.46 0 0 8681.46 0 0 -9460.93 0 0 9460.93 0 0 -5288.46 0 0 5288.46
0 0 -9873.19 0 0 9873.19 0 0 -10047.5 0 0 10047.5 0 0 -5438.58 0 0 5438.58
0 0 -11080.1 0 0 11080.1 0 0 -10582.6 0 0 10582.6 0 0 -5559.7 0 0 5559.7
0 0 -12314.3 0 0 12314.3 0 0 -11067.6 0 0 11067.6 0 0 -5651.87 0 0 5651.87
0 0 -13578.5 0 0 13578.5 0 0 -11514.6 0 0 11514.6 0 0 -5713.59 0 0 5713.59
0 0 -14881.7 0 0 14881.7 0 0 -11928.3 0 0 11928.3 0 0 -5744.88 0 0 5744.88
0 0 -16225.4 0 0 16225.4 0 0 -12315.1 0 0 12315.1 0 0 -5739.96 0 0 5739.96
0 0 -17615.5 0 0 17615.5 0 0 -12671.1 0 0 12671.1 0 0 -5681.47 0 0 5681.47
0 0 -19055 0 0 19055 0 0 -13001.3 0 0 13001.3 0 0 -5568.7 0 0 5568.7
0 0 -20544.7 0 0 20544.7 0 0 -13308.8 0 0 13308.8 0 0 -5405.44 0 0 5405.44
0 0 -22080 0 0 22080 0 0 -13596.7 0 0 13596.7 0 0 -5195.84 0 0 5195.84
0 0 -23653.2 0 0 23653.2 0 0 -13866.9 0 0 13866.9 0 0 -4945.34 0 0 4945.34
0 0 -25253.5 0 0 25253.5 0 0 -14122 0 0 14122 0 0 -4660.11 0 0 4660.11
0 0 -26867.2 0 0 26867.2 0 0 -14363.7 0 0 14363.7 0 0 -4347.05 0 0 4347.05
0 0 -28477.2 0 0 28477.2 0 0 -14593.4 0 0 14593.4 0 0 -4013.57 0 0 4013.57
0 0 -30063.2 0 0 30063.2 0 0 -14812.3 0 0 14812.3 0 0 -3667.47 0 0 3667.47
0 0 -31603.8 0 0 31603.8 0 0 -15021.3 0 0 15021.3 0 0 -3316.81 0 0 3316.81
0 0 -33078.8 0 0 33078.8 0 0 -15220.4 0 0 15220.4 0 0 -2969.8 0 0 2969.8
0 0 -34471.8 0 0 34471.8 0 0 -15408.5 0 0 15408.5 0 0 -2634.52 0 0 2634.52
0 0 -35771 0 0 35771 0 0 -15583.3 0 0 15583.3 0 0 -2318.85 0 0 2318.85
0 0 -19062.7 0 0 19062.7 0 0 -13415.9 0 0 13415.9 0 0 -2164.71 0 0 2164.71
0 0 27.3113 0 0 -27.3113 0 0 -6693.46 0 0 6693.46 0 0 -2563.64 0 0 2563.64
0 0 1694.11 0 0 -1694.11 0 0 -8039.37 0 0 8039.37 0 0 -1988.62 0 0 1988.62
0 0 -3660.84 0 0 3660.84 0 0 -9307.74 0 0 9307.74 0 0 -1708.74 0 0 1708.74
0 0 -3141.11 0 0 3141.11 0 0 -9969.25 0 0 9969.25 0 0 -1351.78 0 0 1351.78
0 0 -1243.72 0 0 1243.72 0 0 -9663.75 0 0 9663.75 0 0 -1130.54 0 0 1130.54
0 0 -2387.8 0 0 2387.8 0 0 -10913.4 0 0 10913.4 0 0 -796.236 0 0 796.236
0 0 -3954 0 0 3954 0 0 -11882.4 0 0 11882.4 0 0 -538.796 0 0 538.796
0 0 -3044.21 0 0 3044.21 0 0 -12913.6 0 0 12913.6 0 0 -302.079 0 0 302.079
0 0 -2542.16 0 0 2542.16 0 0 -13310.6 0 0 13310.6 0 0 -196.746 0 0 196.746
0 0 -2923.12 0 0 2923.12 0 0 -14627.3 0 0 14627.3 0 0 -59.9063 0 0 59.9063
0 0 -2972.79 0 0 2972.79 0 0 -15510.7 0 0 15510.7 0 0 -30.6188 0 0 30.6188
0 0 -2195.26 0 0 2195.26 0 0 -16212.3 0 0 16212.3 0 0 -65.6132 0 0 65.6132
0 0 -1792.83 0 0 1792.83 0 0 -16890.2 0 0 16890.2 0 0 -176.374 0 0 176.374
0 0 -1981.34 0 0 1981.34 0 0 -17704.3 0 0 17704.3 0 0 -336.226 0 0 336.226
0 0 -2015.76 0 0 2015.76 0 0 -18376.6 0 0 18376.6 0 0 -573.187 0 0 573.187
0 0 -1752.81 0 0 1752.81 0 0 -18873.3 0 0 18873.3 0 0 -886.319 0 0 886.319
0 0 -1698.05 0 0 1698.05 0 0 -19365.1 0 0 19365.1 0 0 -1258.71 0 0 1258.71
0 0 -1803.88 0 0 1803.88 0 0 -19865.1 0 0 19865.1 0 0 -1683.06 0 0 1683.06
0 0 -1758.95 0 0 1758.95 0 0 -20240.1 0 0 20240.1 0 0 -2162.96 0 0 2162.96
0 0 -1513.82 0 0 1513.82 0 0 -20559.1 0 0 20559.1 0 0 -2683.56 0 0 2683.56
0 0 -1140.15 0 0 1140.15 0 0 -20802.4 0 0 20802.4 0 0 -3238.69 0 0 3238.69
0 0 -626.717 0 0 626.717 0 0 -20989.2 0 0 20989.2 0 0 -3814.63 0 0 3814.63
0 0 -49.7863 0 0 49.7863 0 0 -21127.2 0 0 21127.2 0 0 -4400.09 0 0 4400.09
0 0 336.552 0 0 -336.552 0 0 -21275.6 0 0 21275.6 0 0 -4979.41 0 0 4979.41
0 0 461.744 0 0 -461.744 0 0 -21471.3 0 0 21471.3 0 0 -5537.83 0 0 5537.83
0 0 516.281 0 0 -516.281 0 0 -21652.6 0 0 21652.6 0 0 -5915.45 0 0 5915.45
0 0 633.522 0 0 -633.522 0 0 -21721.1 0 0 21721.1 0 0 -6222.97 0 0 6222.97
0 0 789.451 0 0 -789.451 0 0 -21843.7 0 0 21843.7 0 0 -6494.17 0 0 6494.17
0 0 898.786 0 0 -898.786 0 0 -21961.3 0 0 21961.3 0 0 -6736.42 0 0 6736.42
0 0 1030.05 0 0 -1030.05 0 0 -22109.2 0 0 22109.2 0 0 -6942.91 0 0 6942.91
0 0 1214.18 0 0 -1214.18 0 0 -22261.8 0 0 22261.8 0 0 -7112.26 0 0 7112.26
0 0 1425.99 0 0 -1425.99 0 0 -22444 0 0 22444 0 0 -7240.47 0 0 7240.47
0 0 1648.32 0 0 -1648.32 0 0 -22654.4 0 0 22654.4 0 0 -7326.43 0 0 7326.43
0 0 1910.8 0 0 -1910.8 0 0 -22876.3 0 0 22876.3 0 0 -7369.82 0 0 7369.82
0 0 2217.6 0 0 -2217.6 0 0 -23087.5 0 0 23087.5 0 0 -7365.58 0 0 7365.58
0 0 2524.56 0 0 -2524.56 0 0 -23264.7 0 0 23264.7 0 0 -7294.5 0 0 7294.5
0 0 2826.16 0 0 -2826.16 0 0 -23387.7 0 0 23387.7 0 0 -7156.98 0 0 7156.98
0 0 3144.95 0 0 -3144.95 0 0 -23415.6 0 0 23415.6 0 0 -6960.89 0 0 6960.89
0 0 3396.59 0 0 -3396.59 0 0 -23264.3 0 0 23264.3 0 0 -6714.88 0 0 6714.88
0 0 3639.89 0 0 -3639.89 0 0 -22765.2 0 0 22765.2 0 0 -6440.76 0 0 6440.76
0 0 3965.38 0 0 -3965.38 0 0 -22267.4 0 0 22267.4 0 0 -6109.39 0 0 6109.39
0 0 4135.14 0 0 -4135.14 0 0 -21586.6 0 0 21586.6 0 0 -5749.19 0 0 5749.19
0 0 4328.31 0 0 -4328.31 0 0 -20802.9 0 0 20802.9 0 0 -5352.46 0 0 5352.46
0 0 4563.29 0 0 -4563.29 0 0 -19819.3 0 0 19819.3 0 0 -4936.55 0 0 4936.55
0 0 4789.26 0 0 -4789.26 0 0 -18707.3 0 0 18707.3 0 0 -4499.17 0 0 4499.17
0 0 4961.67 0 0 -4961.67 0 0 -17477.7 0 0 17477.7 0 0 -4045.75 0 0 4045.75
0 0 5129.95 0 0 -5129.95 0 0 -16112 0 0 16112 0 0 -3582.51 0 0 3582.51
0 0 5305.73 0 0 -5305.73 0 0 -14583.1 0 0 14583.1 0 0 -3116.14 0 0 3116.14
0 0 5456.35 0 0 -5456.35 0 0 -12925.4 0 0 12925.4 0 0 -2647.87 0 0 2647.87
0 0 5552.41 0 0 -5552.41 0 0 -11155.3 0 0 11155.3 0 0 -2180.26 0 0 2180.26
0 0 5620.56 0 0 -5620.56 0 0 -9289.17 0 0 9289.17 0 0 -1715.07 0 0 1715.07
0 0 5691.55 0 0 -5691.55 0 0 -7362.88 0 0 7362.88 0 0 -1252.79 0 0 1252.79
0 0 5733.13 0 0 -5733.13 0 0 -5478.85 0 0 5478.85 0 0 -787.024 0 0 787.024
0 0 5700.23 0 0 -5700.23 0 0 -3559.96 0 0 3559.96 0 0 -328.465 0 0 328.465
0 0 5688.44 0 0 -5688.44 0 0 -1708.12 0 0 1708.12 0 0 29.4488 0 0 -29.4488
0 0 5655.94 0 0 -5655.94 0 0 -38.3252 0 0 38.3252 0 0 277.704 0 0 -277.704
0 0 5606.66 0 0 -5606.66 0 0 1538.54 0 0 -1538.54 0 0 504.939 0 0 -504.939
0 0 5547.96 0 0 -5547.96 0 0 2924.02 0 0 -2924.02 0 0 741.382 0 0 -741.382
0 0 5491.83 0 0 -5491.83 0 0 4090.62 0 0 -4090.62 0 0 970.75 0 0 -970.75
0 0 5493.87 0 0 -5493.87 0 0 5048.61 0 0 -5048.61 0 0 1198.32 0 0 -1198.32
0 0 5450.79 0 0 -5450.79 0 0 5822.37 0 0 -5822.37 0 0 1428.04 0 0 -1428.04
0 0 5289.76 0 0 -5289.76 0 0 6382.99 0 0 -6382.99 0 0 1663.68 0 0 -1663.68
0 0 4989.08 0 0 -4989.08 0 0 6756.2 0 0 -6756.2 0 0 1901.23 0 0 -1901.23
0 0 4560.92 0 0 -4560.92 0 0 6920.28 0 0 -6920.28 0 0 2137.61 0 0 -2137.61
0 0 3996.98 0 0 -3996.98 0 0 6866.79 0 0 -6866.79 0 0 2367.79 0 0 -2367.79
0 0 3328.21 0 0 -3328.21 0 0 6608.13 0 0 -6608.13 0 0 2587.3 0 0 -2587.3
0 0 2560.5 0 0 -2560.5 0 0 6156.05 0 0 -6156.05 0 0 2791.14 0 0 -2791.14
0 0 1711.44 0 0 -1711.44 0 0 5527.7 0 0 -5527.7 0 0 2973.3 0 0 -2973.3
0 0 902.157 0 0 -902.157 0 0 4753.84 0 0 -4753.84 0 0 3128.06 0 0 -3128.06
0 0 333.672 0 0 -333.672 0 0 3909.79 0 0 -3909.79 0 0 3247.4 0 0 -3247.4
0 0 132.468 0 0 -132.468 0 0 3031.48 0 0 -3031.48 0 0 3325.54 0 0 -3325.54
0 0 162.773 0 0 -162.773 0 0 2105.87 0 0 -2105.87 0 0 3359.2 0 0 -3359.2
0 0 215.589 0 0 -215.589 0 0 1093.1 0 0 -1093.1 0 0 3331.53 0 0 -3331.53
0 0 234.19 0 0 -234.19 0 0 -55.0642 0 0 55.0642 0 0 3215.82 0 0 -3215.82
0 0 300.919 0 0 -300.919 0 0 -1309.94 0 0 1309.94 0 0 2981.54 0 0 -2981.54
0 0 481.205 0 0 -481.205 0 0 -2589.5 0 0 2589.5 0 0 2647.33 0 0 -2647.33
0 0 598.132 0 0 -598.132 0 0 -3885.23 0 0 3885.23 0 0 2214.92 0 0 -2214.92
0 0 625.626 0 0 -625.626 0 0 -5176.35 0 0 5176.35 0 0 1687.78 0 0 -1687.78
0 0 681.176 0 0 -681.176 0 0 -6404.18 0 0 6404.18 0 0 1067.36 0 0 -1067.36
0 0 750.521 0 0 -750.521 0 0 -7544.83 0 0 7544.83 0 0 360.764 0 0 -360.764
0 0 765.159 0 0 -765.159 0 0 -8550.18 0 0 8550.18 0 0 -274.689 0 0 274.689
0 0 931.568 0 0 -931.568 0 0 -9410.14 0 0 9410.14 0 0 -858.27 0 0 858.27
0 0 1199.43 0 0 -1199.43 0 0 -10181.3 0 0 10181.3 0 0 -1469.02 0 0 1469.02
0 0 1353.17 0 0 -1353.17 0 0 -10870.1 0 0 10870.1 0 0 -2107.58 0 0 2107.58
0 0 1420.45 0 0 -1420.45 0 0 -11545.2 0 0 11545.2 0 0 -2759.09 0 0 2759.09
0 0 1509.13 0 0 -1509.13 0 0 -12140.9 0 0 12140.9 0 0 -3417.24 0 0 3417.24
0 0 1666.82 0 0 -1666.82 0 0 -12668.9 0 0 12668.9 0 0 -4070.36 0 0 4070.36
0 0 1821.28 0 0 -1821.28 0 0 -13165.1 0 0 13165.1 0 0 -4707.3 0 0 4707.3
0 0 1967.18 0 0 -1967.18 0 0 -13644.7 0 0 13644.7 0 0 -5316.71 0 0 5316.71
0 0 2167.19 0 0 -2167.19 0 0 -14095.3 0 0 14095.3 0 0 -5889.61 0 0 5889.61
0 0 2422.82 0 0 -2422.82 0 0 -14529.8 0 0 14529.8 0 0 -6416.72 0 0 6416.72
0 0 2693.37 0 0 -2693.37 0 0 -14971.5 0 0 14971.5 0 0 -6888.33 0 0 6888.33
0 0 2992.94 0 0 -2992.94 0 0 -15412.6 0 0 15412.6 0 0 -7298.22 0 0 7298.22
0 0 3293.58 0 0 -3293.58 0 0 -15810.2 0 0 15810.2 0 0 -7641.78 0 0 7641.78
0 0 3582.41 0 0 -3582.41 0 0 -16016.5 0 0 16016.5 0 0 -7734.84 0 0 7734.84
0 0 3925.61 0 0 -3925.61 0 0 -16165.3 0 0 16165.3 0 0 -7752.52 0 0 7752.52
0 0 4224.79 0 0 -4224.79 0 0 -16322.7 0 0 16322.7 0 0 -7762.28 0 0 7762.28
0 0 4524.93 0 0 -4524.93 0 0 -16403.6 0 0 16403.6 0 0 -7767.31 0 0 7767.31
0 0 4765.15 0 0 -4765.15 0 0 -16383.8 0 0 16383.8 0 0 -7735.73 0 0 7735.73
0 0 5007.48 0 0 -5007.48 0 0 -16291.2 0 0 16291.2 0 0 -7602.61 0 0 7602.61
0 0 5187.66 0 0 -5187.66 0 0 -16021.4 0 0 16021.4 0 0 -7374.85 0 0 7374.85
0 0 5370.91 0 0 -5370.91 0 0 -15645.1 0 0 15645.1 0 0 -7049.29 0 0 7049.29
0 0 5536.2 0 0 -5536.2 0 0 -15102.4 0 0 15102.4 0 0 -6637.47 0 0 6637.47
0 0 5698.97 0 0 -5698.97 0 0 -14410.6 0 0 14410.6 0 0 -6144.14 0 0 6144.14
0 0 5840.51 0 0 -5840.51 0 0 -13566.5 0 0 13566.5 0 0 -5578.63 0 0 5578.63
0 0 5970.81 0 0 -5970.81 0 0 -12572.2 0 0 12572.2 0 0 -4949.74 0 0 4949.74
0 0 6096.04 0 0 -6096.04 0 0 -11428.9 0 0 11428.9 0 0 -4266.7 0 0 4266.7
0 0 6205.45 0 0 -6205.45 0 0 -10141.2 0 0 10141.2 0 0 -3539.04 0 0 3539.04
0 0 6279.61 0 0 -6279.61 0 0 -8690.81 0 0 8690.81 0 0 -2779.27 0 0 2779.27
0 0 6340.79 0 0 -6340.79 0 0 -7115.31 0 0 7115.31 0 0 -1994.7 0 0 1994.7
0 0 6379.28 0 0 -6379.28 0 0 -5429.78 0 0 5429.78 0 0 -1195.33 0 0 1195.33
0 0 6402.07 0 0 -6402.07 0 0 -3671.54 0 0 3671.54 0 0 -388.46 0 0 388.46
0 0 6426.11 0 0 -6426.11 0 0 -1892.06 0 0 1892.06 0 0 160.8 0 0 -160.8
0 0 6463.44 0 0 -6463.44 0 0 -315.488 0 0 315.488 0 0 571.058 0 0 -571.058
0 0 6504.07 0 0 -6504.07 0 0 1345.44 0 0 -1345.44 0 0 943.753 0 0 -943.753
0 0 6586.24 0 0 -6586.24 0 0 2874.25 0 0 -2874.25 0 0 1317.86 0 0 -1317.86
0 0 6653.25 0 0 -6653.25 0 0 4262.17 0 0 -4262.17 0 0 1674.75 0 0 -1674.75
0 0 6811.7 0 0 -6811.7 0 0 5521.14 0 0 -5521.14 0 0 2012.14 0 0 -2012.14
0 0 7044.36 0 0 -7044.36 0 0 6676.54 0 0 -6676.54 0 0 2337.04 0 0 -2337.04
0 0 7188.19 0 0 -7188.19 0 0 7769.97 0 0 -7769.97 0 0 2649.57 0 0 -2649.57
0 0 7343.32 0 0 -7343.32 0 0 8792.7 0 0 -8792.7 0 0 2945.61 0 0 -2945.61
0 0 7555.87 0 0 -7555.87 0 0 9762.78 0 0 -9762.78 0 0 3220.77 0 0 -3220.77
0 0 7778.83 0 0 -7778.83 0 0 10661.2 0 0 -10661.2 0 0 3473.03 0 0 -3473.03
0 0 7966.96 0 0 -7966.96 0 0 11480.7 0 0 -11480.7 0 0 3703.14 0 0 -3703.14
0 0 8154.92 0 0 -8154.92 0 0 12232.2 0 0 -12232.2 0 0 3908.22 0 0 -3908.22
0 0 8371.22 0 0 -8371.22 0 0 12917.9 0 0 -12917.9 0 0 4085.54 0 0 -4085.54
0 0 8590.16 0 0 -8590.16 0 0 13526.7 0 0 -13526.7 0 0 4234.27 0 0 -4234.27
0 0 8787.65 0 0 -8787.65 0 0 14059.9 0 0 -14059.9 0 0 4354.23 0 0 -4354.23
0 0 8982.68 0 0 -8982.68 0 0 14522.2 0 0 -14522.2 0 0 4444.4 0 0 -4444.4
0 0 9185.11 0 0 -9185.11 0 0 14916 0 0 -14916 0 0 4503.69 0 0 -4503.69
0 0 9379.04 0 0 -9379.04 0 0 15238.9 0 0 -15238.9 0 0 4532.19 0 0 -4532.19
0 0 9556.13 0 0 -9556.13 0 0 15490.6 0 0 -15490.6 0 0 4521.07 0 0 -4521.07
0 0 9714.25 0 0 -9714.25 0 0 15661.8 0 0 -15661.8 0 0 4451.02 0 0 -4451.02
0 0 9863.88 0 0 -9863.88 0 0 15743.9 0 0 -15743.9 0 0 4321.73 0 0 -4321.73
0 0 10009 0 0 -10009 0 0 15748.4 0 0 -15748.4 0 0 4136.67 0 0 -4136.67
0 0 10140.8 0 0 -10140.8 0 0 15659.1 0 0 -15659.1 0 0 3902.09 0 0 -3902.09
0 0 10260.6 0 0 -10260.6 0 0 15473.9 0 0 -15473.9 0 0 3620.56 0 0 -3620.56
0 0 10573.8 0 0 -10573.8 0 0 15208.7 0 0 -15208.7 0 0 3294.82 0 0 -3294.82
0 0 10824.1 0 0 -10824.1 0 0 14981.7 0 0 -14981.7 0 0 2920.2 0 0 -2920.2
0 0 11154.2 0 0 -11154.2 0 0 14579.5 0 0 -14579.5 0 0 2530.25 0 0 -2530.25
0 0 11411 0 0 -11411 0 0 14150.9 0 0 -14150.9 0 0 2112.98 0 0 -2112.98
0 0 11605.7 0 0 -11605.7 0 0 13611.5 0 0 -13611.5 0 0 1686 0 0 -1686
0 0 11720.2 0 0 -11720.2 0 0 12990.4 0 0 -12990.4 0 0 1249.66 0 0 -1249.66
0 0 11748.9 0 0 -11748.9 0 0 12294.7 0 0 -12294.7 0 0 813.233 0 0 -813.233
0 0 11688.1 0 0 -11688.1 0 0 11526.2 0 0 -11526.2 0 0 381.236 0 0 -381.236
0 0 11535.7 0 0 -11535.7 0 0 10687.4 0 0 -10687.4 0 0 -14.7353 0 0 14.7353
0 0 11282.4 0 0 -11282.4 0 0 9832.63 0 0 -9832.63 0 0 -275.738 0 0 275.738
0 0 10961.8 0 0 -10961.8 0 0 8915.94 0 0 -8915.94 0 0 -514.558 0 0 514.558
0 0 10591.1 0 0 -10591.1 0 0 7963.91 0 0 -7963.91 0 0 -744.763 0 0 744.763
0 0 10192.7 0 0 -10192.7 0 0 6977.18 0 0 -6977.18 0 0 -963.503 0 0 963.503
0 0 9788.12 0 0 -9788.12 0 0 5978.02 0 0 -5978.02 0 0 -1171.66 0 0 1171.66
0 0 9388.09 0 0 -9388.09 0 0 4976.33 0 0 -4976.33 0 0 -1369.26 0 0 1369.26
0 0 8995.5 0 0 -8995.5 0 0 3983.54 0 0 -3983.54 0 0 -1556.22 0 0 1556.22
0 0 8617.98 0 0 -8617.98 0 0 3014.21 0 0 -3014.21 0 0 -1733.28 0 0 1733.28
0 0 8267.16 0 0 -8267.16 0 0 2082.85 0 0 -2082.85 0 0 -1901.31 0 0 1901.31
0 0 7955.17 0 0 -7955.17 0 0 1203.89 0 0 -1203.89 0 0 -2060.73 0 0 2060.73
0 0 7694.43 0 0 -7694.43 0 0 391.552 0 0 -391.552 0 0 -2212.32 0 0 2212.32
0 0 7498.38 0 0 -7498.38 0 0 -328.547 0 0 328.547 0 0 -2356.48 0 0 2356.48
0 0 7381.35 0 0 -7381.35 0 0 -954.297 0 0 954.297 0 0 -2492.63 0 0 2492.63
0 0 7342.64 0 0 -7342.64 0 0 -1479.89 0 0 1479.89 0 0 -2622.82 0 0 2622.82
0 0 7391.88 0 0 -7391.88 0 0 -1900.64 0 0 1900.64 0 0 -2745.9 0 0 2745.9
0 0 7527.85 0 0 -7527.85 0 0 -2207.31 0 0 2207.31 0 0 -2861.89 0 0 2861.89
0 0 7748.06 0 0 -7748.06 0 0 -2395.52 0 0 2395.52 0 0 -2969.9 0 0 2969.9
0 0 8047.45 0 0 -8047.45 0 0 -2460.1 0 0 2460.1 0 0 -3068.9 0 0 3068.9
0 0 8426.21 0 0 -8426.21 0 0 -2384.74 0 0 2384.74 0 0 -3156.43 0 0 3156.43
0 0 8877.15 0 0 -8877.15 0 0 -2168.86 0 0 2168.86 0 0 -3229.76 0 0 3229.76
0 0 9396.49 0 0 -9396.49 0 0 -1819.65 0 0 1819.65 0 0 -3286.92 0 0 3286.92
0 0 9974.27 0 0 -9974.27 0 0 -1342.48 0 0 1342.48 0 0 -3325.75 0 0 3325.75
0 0 10615 0 0 -10615 0 0 -738.486 0 0 738.486 0 0 -3344.3 0 0 3344.3
0 0 11324.1 0 0 -11324.1 0 0 -13.7665 0 0 13.7665 0 0 -3335.12 0 0 3335.12
0 0 12030.6 0 0 -12030.6 0 0 796.778 0 0 -796.778 0 0 -3285.37 0 0 3285.37
0 0 12729.5 0 0 -12729.5 0 0 1645.93 0 0 -1645.93 0 0 -3189.96 0 0 3189.96
0 0 13402.3 0 0 -13402.3 0 0 2507.95 0 0 -2507.95 0 0 -3054.08 0 0 3054.08
0 0 14042.4 0 0 -14042.4 0 0 3340.68 0 0 -3340.68 0 0 -2874.42 0 0 2874.42
0 0 14660.7 0 0 -14660.7 0 0 4168.79 0 0 -4168.79 0 0 -2647.71 0 0 2647.71
0 0 15275.6 0 0 -15275.6 0 0 5001.23 0 0 -5001.23 0 0 -2370.02 0 0 2370.02
0 0 15896.5 0 0 -15896.5 0 0 5841.1 0 0 -5841.1 0 0 -2042.77 0 0 2042.77
0 0 16512.7 0 0 -16512.7 0 0 6679.58 0 0 -6679.58 0 0 -1668.88 0 0 1668.88
0 0 17146.7 0 0 -17146.7 0 0 7504.61 0 0 -7504.61 0 0 -1251.72 0 0 1251.72
0 0 17808.4 0 0 -17808.4 0 0 8324.62 0 0 -8324.62 0 0 -796.8 0 0 796.8
0 0 18318.4 0 0 -18318.4 0 0 9181.96 0 0 -9181.96 0 0 -312.241 0 0 312.241
0 0 18886.9 0 0 -18886.9 0 0 10020.5 0 0 -10020.5 0 0 84.5037 0 0 -84.5037
0 0 19495.9 0 0 -19495.9 0 0 10775.1 0 0 -10775.1 0 0 413.282 0 0 -413.282
0 0 20109.2 0 0 -20109.2 0 0 11592.3 0 0 -11592.3 0 0 728.313 0 0 -728.313
0 0 20764.4 0 0 -20764.4 0 0 12381.2 0 0 -12381.2 0 0 1054.29 0 0 -1054.29
0 0 21422.6 0 0 -21422.6 0 0 13202.7 0 0 -13202.7 0 0 1377.51 0 0 -1377.51
0 0 22096.3 0 0 -22096.3 0 0 14035.1 0 0 -14035.1 0 0 1697.9 0 0 -1697.9
0 0 22766.8 0 0 -22766.8 0 0 14897.5 0 0 -14897.5 0 0 2009.73 0 0 -2009.73
0 0 23429.7 0 0 -23429.7 0 0 15786.9 0 0 -15786.9 0 0 2311.22 0 0 -2311.22
0 0 24077.2 0 0 -24077.2 0 0 16706.9 0 0 -16706.9 0 0 2598.56 0 0 -2598.56
0 0 24708.4 0 0 -24708.4 0 0 17654.2 0 0 -17654.2 0 0 2869.97 0 0 -2869.97
0 0 25282.4 0 0 -25282.4 0 0 18632.4 0 0 -18632.4 0 0 3123.21 0 0 -3123.21
0 0 25751.4 0 0 -25751.4 0 0 19644.1 0 0 -19644.1 0 0 3356.46 0 0 -3356.46
0 0 26125.1 0 0 -26125.1 0 0 20668.2 0 0 -20668.2 0 0 3570.12 0 0 -3570.12
0 0 26411.3 0 0 -26411.3 0 0 21693.1 0 0 -21693.1 0 0 3763.99 0 0 -3763.99
0 0 26621 0 0 -26621 0 0 22700.3 0 0 -22700.3 0 0 3939.36 0 0 -3939.36
0 0 26766.4 0 0 -26766.4 0 0 23669.8 0 0 -23669.8 0 0 4097.46 0 0 -4097.46
0 0 26860.7 0 0 -26860.7 0 0 24580.9 0 0 -24580.9 0 0 4239.93 0 0 -4239.93
0 0 26917.1 0 0 -26917.1 0 0 25413.8 0 0 -25413.8 0 0 4368.39 0 0 -4368.39
0 0 26949 0 0 -26949 0 0 26149.6 0 0 -26149.6 0 0 4484.44 0 0 -4484.44
0 0 26968.3 0 0 -26968.3 0 0 26771.9 0 0 -26771.9 0 0 4589.42 0 0 -4589.42
0 0 26983.1 0 0 -26983.1 0 0 27267.2 0 0 -27267.2 0 0 4684.29 0 0 -4684.29
0 0 26996.8 0 0 -26996.8 0 0 27626.5 0 0 -27626.5 0 0 4769.53 0 0 -4769.53
0 0 27008.5 0 0 -27008.5 0 0 27844.9 0 0 -27844.9 0 0 4845.05 0 0 -4845.05
0 0 27016.3 0 0 -27016.3 0 0 27921.6 0 0 -27921.6 0 0 4910.21 0 0 -4910.21
0 0 27013.3 0 0 -27013.3 0 0 27837.7 0 0 -27837.7 0 0 4963.16 0 0 -4963.16
0 0 26993.4 0 0 -26993.4 0 0 27591.3 0 0 -27591.3 0 0 5000.51 0 0 -5000.51
0 0 26963.7 0 0 -26963.7 0 0 27199.4 0 0 -27199.4 0 0 5021.03 0 0 -5021.03
0 0 26954.5 0 0 -26954.5 0 0 26727.6 0 0 -26727.6 0 0 5025.18 0 0 -5025.18
0 0 26963.3 0 0 -26963.3 0 0 26174.3 0 0 -26174.3 0 0 4998.94 0 0 -4998.94
0 0 26975.5 0 0 -26975.5 0 0 25537 0 0 -25537 0 0 4932.99 0 0 -4932.99
0 0 26987.2 0 0 -26987.2 0 0 24832.9 0 0 -24832.9 0 0 4823.52 0 0 -4823.52
0 0 27007.4 0 0 -27007.4 0 0 24090.2 0 0 -24090.2 0 0 4669.07 0 0 -4669.07
0 0 27036.7 0 0 -27036.7 0 0 23328.8 0 0 -23328.8 0 0 4466.64 0 0 -4466.64
0 0 27044.5 0 0 -27044.5 0 0 22553.4 0 0 -22553.4 0 0 4214.85 0 0 -4214.85
0 0 27061.5 0 0 -27061.5 0 0 21762.5 0 0 -21762.5 0 0 3913.4 0 0 -3913.4
0 0 26869.1 0 0 -26869.1 0 0 21033.8 0 0 -21033.8 0 0 3561.5 0 0 -3561.5
0 0 26766.8 0 0 -26766.8 0 0 20309.4 0 0 -20309.4 0 0 3167.34 0 0 -3167.34
0 0 26710.6 0 0 -26710.6 0 0 19610.1 0 0 -19610.1 0 0 2734.36 0 0 -2734.36
0 0 26703.7 0 0 -26703.7 0 0 18926.4 0 0 -18926.4 0 0 2269.44 0 0 -2269.44
0 0 26745.8 0 0 -26745.8 0 0 18271.4 0 0 -18271.4 0 0 1777.98 0 0 -1777.98
0 0 26829.8 0 0 -26829.8 0 0 17641.4 0 0 -17641.4 0 0 1268.84 0 0 -1268.84
0 0 26947.5 0 0 -26947.5 0 0 17038.7 0 0 -17038.7 0 0 749.548 0 0 -749.548
0 0 27078 0 0 -27078 0 0 16463.1 0 0 -16463.1 0 0 228.99 0 0 -228.99
0 0 27207.1 0 0 -27207.1 0 0 15922.6 0 0 -15922.6 0 0 -144.441 0 0 144.441
0 0 27283.5 0 0 -27283.5 0 0 15492.2 0 0 -15492.2 0 0 -429.913 0 0 429.913
0 0 27336.7 0 0 -27336.7 0 0 15038.1 0 0 -15038.1 0 0 -687.024 0 0 687.024
0 0 27282 0 0 -27282 0 0 14636.6 0 0 -14636.6 0 0 -933.123 0 0 933.123
0 0 27127.7 0 0 -27127.7 0 0 14244.9 0 0 -14244.9 0 0 -1159.75 0 0 1159.75
0 0 26865.4 0 0 -26865.4 0 0 13873.4 0 0 -13873.4 0 0 -1366 0 0 1366
0 0 26498.9 0 0 -26498.9 0 0 13509 0 0 -13509 0 0 -1547.06 0 0 1547.06
0 0 26019.7 0 0 -26019.7 0 0 13149.6 0 0 -13149.6 0 0 -1701.67 0 0 1701.67
0 0 25413.8 0 0 -25413.8 0 0 12790 0 0 -12790 0 0 -1827.49 0 0 1827.49
0 0 24667.3 0 0 -24667.3 0 0 12428 0 0 -12428 0 0 -1923.17 0 0 1923.17
0 0 23771.1 0 0 -23771.1 0 0 12060.7 0 0 -12060.7 0 0 -1987.73 0 0 1987.73
0 0 22715.2 0 0 -22715.2 0 0 11685.5 0 0 -11685.5 0 0 -2020.74 0 0 2020.74
0 0 21486.9 0 0 -21486.9 0 0 11301.6 0 0 -11301.6 0 0 -2017.47 0 0 2017.47
0 0 20072.8 0 0 -20072.8 0 0 10915.6 0 0 -10915.6 0 0 -1962.03 0 0 1962.03
0 0 18469 0 0 -18469 0 0 10525.1 0 0 -10525.1 0 0 -1854.22 0 0 1854.22
0 0 16680.7 0 0 -16680.7 0 0 10128.3 0 0 -10128.3 0 0 -1698.46 0 0 1698.46
0 0 14723.8 0 0 -14723.8 0 0 9721.45 0 0 -9721.45 0 0 -1499.26 0 0 1499.26
0 0 12624.6 0 0 -12624.6 0 0 9301.73 0 0 -9301.73 0 0 -1262.47 0 0 1262.47
0 0 10434.4 0 0 -10434.4 0 0 8867.62 0 0 -8867.62 0 0 -994.824 0 0 994.824
0 0 8379.3 0 0 -8379.3 0 0 8442.32 0 0 -8442.32 0 0 -706.227 0 0 706.227
0 0 6340.63 0 0 -6340.63 0 0 8041.68 0 0 -8041.68 0 0 -408.177 0 0 408.177
0 0 4653.58 0 0 -4653.58 0 0 7485.55 0 0 -7485.55 0 0 -104.508 0 0 104.508
0 0 3007.96 0 0 -3007.96 0 0 6908.49 0 0 -6908.49 0 0 134.626 0 0 -134.626
0 0 1649.59 0 0 -1649.59 0 0 6340.33 0 0 -6340.33 0 0 343.189 0 0 -343.189
0 0 726.351 0 0 -726.351 0 0 5873.07 0 0 -5873.07 0 0 534.221 0 0 -534.221
0 0 352.13 0 0 -352.13 0 0 5513.08 0 0 -5513.08 0 0 695.804 0 0 -695.804
0 0 257.917 0 0 -257.917 0 0 5202.39 0 0 -5202.39 0 0 831.604 0 0 -831.604
0 0 164.439 0 0 -164.439 0 0 4849.77 0 0 -4849.77 0 0 944.912 0 0 -944.912
0 0 22.5062 0 0 -22.5062 0 0 4451.69 0 0 -4451.69 0 0 1033.27 0 0 -1033.27
0 0 -84.8668 0 0 84.8668 0 0 4039.89 0 0 -4039.89 0 0 1091.15 0 0 -1091.15
0 0 -143.03 0 0 143.03 0 0 3614.21 0 0 -3614.21 0 0 1115.73 0 0 -1115.73
0 0 -218.862 0 0 218.862 0 0 3151.71 0 0 -3151.71 0 0 1101.87 0 0 -1101.87
0 0 -329.295 0 0 329.295 0 0 2640.17 0 0 -2640.17 0 0 1041.03 0 0 -1041.03
0 0 -432.32 0 0 432.32 0 0 2096.05 0 0 -2096.05 0 0 928.581 0 0 -928.581
0 0 -511.618 0 0 511.618 0 0 1524.88 0 0 -1524.88 0 0 764.271 0 0 -764.271
0 0 -597.372 0 0 597.372 0 0 919.216 0 0 -919.216 0 0 550.319 0 0 -550.319
0 0 -706.806 0 0 706.806 0 0 278.731 0 0 -278.731 0 0 290.027 0 0 -290.027
0 0 -822.407 0 0 822.407 0 0 -361.302 0 0 361.302 0 0 -4.11988 0 0 4.11988
0 0 -935.702 0 0 935.702 0 0 -987.254 0 0 987.254 0 0 -221.814 0 0 221.814
0 0 -1066.27 0 0 1066.27 0 0 -1712.86 0 0 1712.86 0 0 -454.728 0 0 454.728
0 0 -1152.98 0 0 1152.98 0 0 -2453.13 0 0 2453.13 0 0 -717.224 0 0 717.224
0 0 -1185.53 0 0 1185.53 0 0 -3226.93 0 0 3226.93 0 0 -992.916 0 0 992.916
0 0 -1262.79 0 0 1262.79 0 0 -4049.32 0 0 4049.32 0 0 -1283.4 0 0 1283.4
0 0 -1396.29 0 0 1396.29 0 0 -4921.67 0 0 4921.67 0 0 -1582.81 0 0 1582.81
0 0 -1492.41 0 0 1492.41 0 0 -5818.35 0 0 5818.35 0 0 -1890.48 0 0 1890.48
0 0 -1546.1 0 0 1546.1 0 0 -6739.08 0 0 6739.08 0 0 -2202.86 0 0 2202.86
0 0 -1614.93 0 0 1614.93 0 0 -7714.32 0 0 7714.32 0 0 -2515.1 0 0 2515.1
0 0 -1701.69 0 0 1701.69 0 0 -8746.21 0 0 8746.21 0 0 -2823.97 0 0 2823.97
0 0 -1762.06 0 0 1762.06 0 0 -9815.45 0 0 9815.45 0 0 -3127.55 0 0 3127.55
0 0 -1793.17 0 0 1793.17 0 0 -10915.5 0 0 10915.5 0 0 -3423.36 0 0 3423.36
0 0 -1827.76 0 0 1827.76 0 0 -12051.1 0 0 12051.1 0 0 -3708.51 0 0 3708.51
0 0 -1870.81 0 0 1870.81 0 0 -13213.5 0 0 13213.5 0 0 -3981.17 0 0 3981.17
0 0 -1902.18 0 0 1902.18 0 0 -14383.4 0 0 14383.4 0 0 -4240.28 0 0 4240.28
0 0 -1921.51 0 0 1921.51 0 0 -15550.9 0 0 15550.9 0 0 -4484.49 0 0 4484.49
0 0 -1947.03 0 0 1947.03 0 0 -16713.7 0 0 16713.7 0 0 -4712.37 0 0 4712.37
0 0 -1982.3 0 0 1982.3 0 0 -17863.1 0 0 17863.1 0 0 -4923.09 0 0 4923.09
0 0 -2016.12 0 0 2016.12 0 0 -18985.6 0 0 18985.6 0 0 -5116.32 0 0 5116.32
0 0 -2046.17 0 0 2046.17 0 0 -20075.4 0 0 20075.4 0 0 -5291.56 0 0 5291.56
0 0 -2070.24 0 0 2070.24 0 0 -21133.5 0 0 21133.5 0 0 -5448.24 0 0 5448.24
0 0 -1999.19 0 0 1999.19 0 0 -22137 0 0 22137 0 0 -5586.94 0 0 5586.94
0 0 -1867.31 0 0 1867.31 0 0 -23076.5 0 0 23076.5 0 0 -5708.9 0 0 5708.9
0 0 -1744.74 0 0 1744.74 0 0 -23992.6 0 0 23992.6 0 0 -5810.83 0 0 5810.83
0 0 -1663.83 0 0 1663.83 0 0 -24879.5 0 0 24879.5 0 0 -5894.55 0 0 5894.55
0 0 -1575.49 0 0 1575.49 0 0 -25719.2 0 0 25719.2 0 0 -5960.5 0 0 5960.5
0 0 -1398.23 0 0 1398.23 0 0 -26475.2 0 0 26475.2 0 0 -6011.63 0 0 6011.63
0 0 -1194.09 0 0 1194.09 0 0 -27145.6 0 0 27145.6 0 0 -6049.01 0 0 6049.01
0 0 -1027.38 0 0 1027.38 0 0 -27760.4 0 0 27760.4 0 0 -6071.22 0 0 6071.22
0 0 -903.24 0 0 903.24 0 0 -28304.4 0 0 28304.4 0 0 -6080.68 0 0 6080.68
0 0 -779.311 0 0 779.311 0 0 -28765.1 0 0 28765.1 0 0 -6074.81 0 0 6074.81
0 0 -701.949 0 0 701.949 0 0 -29147.2 0 0 29147.2 0 0 -6051.47 0 0 6051.47
0 0 -675.317 0 0 675.317 0 0 -29474.4 0 0 29474.4 0 0 -6009.61 0 0 6009.61
0 0 -666.017 0 0 666.017 0 0 -29728 0 0 29728 0 0 -5953.64 0 0 5953.64
0 0 -636.632 0 0 636.632 0 0 -29907.2 0 0 29907.2 0 0 -5884.86 0 0 5884.86
0 0 -609.595 0 0 609.595 0 0 -30022.3 0 0 30022.3 0 0 -5804.88 0 0 5804.88
0 0 -610.981 0 0 610.981 0 0 -30092.8 0 0 30092.8 0 0 -5713.93 0 0 5713.93
0 0 -693.478 0 0 693.478 0 0 -30107.9 0 0 30107.9 0 0 -5615.7 0 0 5615.7
0 0 -660.987 0 0 660.987 0 0 -30060.5 0 0 30060.5 0 0 -5508.97 0 0 5508.97
0 0 -647.978 0 0 647.978 0 0 -29969.1 0 0 29969.1 0 0 -5398.62 0 0 5398.62
0 0 -695.098 0 0 695.098 0 0 -29906.1 0 0 29906.1 0 0 -5276.97 0 0 5276.97
0 0 -735.457 0 0 735.457 0 0 -29807.2 0 0 29807.2 0 0 -5153.46 0 0 5153.46
0 0 -711.27 0 0 711.27 0 0 -29679.2 0 0 29679.2 0 0 -5028.08 0 0 5028.08
0 0 -679.776 0 0 679.776 0 0 -29532.3 0 0 29532.3 0 0 -4902.93 0 0 4902.93
0 0 -582.77 0 0 582.77 0 0 -29378 0 0 29378 0 0 -4778.75 0 0 4778.75
0 0 -373.324 0 0 373.324 0 0 -29156.4 0 0 29156.4 0 0 -4662.69 0 0 4662.69
0 0 -48.528 0 0 48.528 0 0 -28892.4 0 0 28892.4 0 0 -4553.17 0 0 4553.17
0 0 352.161 0 0 -352.161 0 0 -28574 0 0 28574 0 0 -4453.81 0 0 4453.81
0 0 844.349 0 0 -844.349 0 0 -28203.9 0 0 28203.9 0 0 -4364.18 0 0 4364.18
0 0 1411.62 0 0 -1411.62 0 0 -27784.5 0 0 27784.5 0 0 -4285.06 0 0 4285.06
0 0 1898.22 0 0 -1898.22 0 0 -27349.6 0 0 27349.6 0 0 -4214 0 0 4214
0 0 2153.78 0 0 -2153.78 0 0 -26956.8 0 0 26956.8 0 0 -4146.28 0 0 4146.28
0 0 2257.59 0 0 -2257.59 0 0 -26597.3 0 0 26597.3 0 0 -4083.15 0 0 4083.15
0 0 2397.61 0 0 -2397.61 0 0 -26224.6 0 0 26224.6 0 0 -4028.46 0 0 4028.46
0 0 2622.72 0 0 -2622.72 0 0 -25834.4 0 0 25834.4 0 0 -3982.21 0 0 3982.21
0 0 2861.79 0 0 -2861.79 0 0 -25452 0 0 25452 0 0 -3942.5 0 0 3942.5
0 0 3103.86 0 0 -3103.86 0 0 -25075.3 0 0 25075.3 0 0 -3909.22 0 0 3909.22
0 0 3398.62 0 0 -3398.62 0 0 -24679.1 0 0 24679.1 0 0 -3883.85 0 0 3883.85
0 0 3741.39 0 0 -3741.39 0 0 -24247.3 0 0 24247.3 0 0 -3866.94 0 0 3866.94
0 0 4091.47 0 0 -4091.47 0 0 -23774.2 0 0 23774.2 0 0 -3857.95 0 0 3857.95
0 0 4420.39 0 0 -4420.39 0 0 -23245 0 0 23245 0 0 -3856.8 0 0 3856.8
0 0 4754.57 0 0 -4754.57 0 0 -22641.4 0 0 22641.4 0 0 -3863.09 0 0 3863.09
0 0 5102.55 0 0 -5102.55 0 0 -21944.4 0 0 21944.4 0 0 -3876.54 0 0 3876.54
0 0 5454.05 0 0 -5454.05 0 0 -21152.2 0 0 21152.2 0 0 -3894.45 0 0 3894.45
0 0 5800.92 0 0 -5800.92 0 0 -20260.5 0 0 20260.5 0 0 -3914.46 0 0 3914.46
0 0 6149.2 0 0 -6149.2 0 0 -19264.8 0 0 19264.8 0 0 -3933.46 0 0 3933.46
0 0 6501.87 0 0 -6501.87 0 0 -18161.8 0 0 18161.8 0 0 -3948.03 0 0 3948.03
0 0 6854 0 0 -6854 0 0 -16953.8 0 0 16953.8 0 0 -3953.99 0 0 3953.99
0 0 7202.82 0 0 -7202.82 0 0 -15644.1 0 0 15644.1 0 0 -3946.91 0 0 3946.91
0 0 7550.74 0 0 -7550.74 0 0 -14237.2 0 0 14237.2 0 0 -3922.16 0 0 3922.16
0 0 7777.58 0 0 -7777.58 0 0 -12713.9 0 0 12713.9 0 0 -3875.88 0 0 3875.88
0 0 7986.68 0 0 -7986.68 0 0 -11136.2 0 0 11136.2 0 0 -3797.4 0 0 3797.4
0 0 8204.91 0 0 -8204.91 0 0 -9374.81 0 0 9374.81 0 0 -3697.82 0 0 3697.82
0 0 8417.69 0 0 -8417.69 0 0 -7635.74 0 0 7635.74 0 0 -3550.72 0 0 3550.72
0 0 8590.71 0 0 -8590.71 0 0 -5843.85 0 0 5843.85 0 0 -3364.02 0 0 3364.02
0 0 8783.98 0 0 -8783.98 0 0 -4031.83 0 0 4031.83 0 0 -3129.87 0 0 3129.87
0 0 8982.07 0 0 -8982.07 0 0 -2241.97 0 0 2241.97 0 0 -2846.95 0 0 2846.95
0 0 9185.75 0 0 -9185.75 0 0 -499.042 0 0 499.042 0 0 -2523.65 0 0 2523.65
0 0 9450.87 0 0 -9450.87 0 0 1177.01 0 0 -1177.01 0 0 -2153.49 0 0 2153.49
0 0 9701.01 0 0 -9701.01 0 0 2719.04 0 0 -2719.04 0 0 -1747.62 0 0 1747.62
0 0 10009.4 0 0 -10009.4 0 0 4092.96 0 0 -4092.96 0 0 -1312.54 0 0 1312.54
0 0 10420.9 0 0 -10420.9 0 0 5423.11 0 0 -5423.11 0 0 -841.525 0 0 841.525
0 0 11559.2 0 0 -11559.2 0 0 6703.46 0 0 -6703.46 0 0 -326.85 0 0 326.85
0 0 13471.7 0 0 -13471.7 0 0 8639.14 0 0 -8639.14 0 0 73.716 0 0 -73.716
0 0 16243.4 0 0 -16243.4 0 0 9957.28 0 0 -9957.28 0 0 375.179 0 0 -375.179
0 0 18604.7 0 0 -18604.7 0 0 11637 0 0 -11637 0 0 670.911 0 0 -670.911
0 0 21056.1 0 0 -21056.1 0 0 13114.5 0 0 -13114.5 0 0 997.143 0 0 -997.143
0 0 23476.1 0 0 -23476.1 0 0 14593.8 0 0 -14593.8 0 0 1329.68 0 0 -1329.68
0 0 25899.7 0 0 -25899.7 0 0 16043.5 0 0 -16043.5 0 0 1677.17 0 0 -1677.17
0 0 28332 0 0 -28332 0 0 17496.2 0 0 -17496.2 0 0 2030.26 0 0 -2030.26
0 0 30797.7 0 0 -30797.7 0 0 18933.7 0 0 -18933.7 0 0 2389.85 0 0 -2389.85
0 0 33288.6 0 0 -33288.6 0 0 20397.2 0 0 -20397.2 0 0 2750.16 0 0 -2750.16
0 0 35817.8 0 0 -35817.8 0 0 21884 0 0 -21884 0 0 3108.27 0 0 -3108.27
0 0 38398.6 0 0 -38398.6 0 0 23404.3 0 0 -23404.3 0 0 3460.85 0 0 -3460.85
0 0 37204.9 0 0 -37204.9 0 0 23188.2 0 0 -23188.2 0 0 3974.51 0 0 -3974.51
0 0 38109.9 0 0 -38109.9 0 0 24914.9 0 0 -24914.9 0 0 4307.94 0 0 -4307.94
0 0 40939 0 0 -40939 0 0 27066 0 0 -27066 0 0 4588.41 0 0 -4588.41
0 0 43855.5 0 0 -43855.5 0 0 28898 0 0 -28898 0 0 4053.27 0 0 -4053.27
0 0 47003 0 0 -47003 0 0 30305.3 0 0 -30305.3 0 0 4494.32 0 0 -4494.32
0 0 50269 0 0 -50269 0 0 32855.2 0 0 -32855.2 0 0 4694.92 0 0 -4694.92
0 0 53851.5 0 0 -53851.5 0 0 35211.9 0 0 -35211.9 0 0 4840.42 0 0 -4840.42
0 0 57475.1 0 0 -57475.1 0 0 37549.2 0 0 -37549.2 0 0 4971.88 0 0 -4971.88
0 0 61068.3 0 0 -61068.3 0 0 40179.4 0 0 -40179.4 0 0 5049.82 0 0 -5049.82
0 0 61365.2 0 0 -61365.2 0 0 42264.6 0 0 -42264.6 0 0 5108.25 0 0 -5108.25
0 0 61773.7 0 0 -61773.7 0 0 43826.1 0 0 -43826.1 0 0 5229.23 0 0 -5229.23
0 0 62103.3 0 0 -62103.3 0 0 44430.8 0 0 -44430.8 0 0 5245.47 0 0 -5245.47
0 0 62415 0 0 -62415 0 0 44578.9 0 0 -44578.9 0 0 5121.7 0 0 -5121.7
0 0 62737.7 0 0 -62737.7 0 0 44713 0 0 -44713 0 0 5060.71 0 0 -5060.71
0 0 63098.2 0 0 -63098.2 0 0 44837.3 0 0 -44837.3 0 0 5010.21 0 0 -5010.21
0 0 63400.3 0 0 -63400.3 0 0 44900.3 0 0 -44900.3 0 0 5163.18 0 0 -5163.18
0 0 12108.8 0 0 -12108.8 0 0 44924.7 0 0 -44924.7 0 0 5365.68 0 0 -5365.68
0 0 12108.8 0 0 -12108.8 0 0 31064.2 0 0 -31064.2 0 0 6276.03 0 0 -6276.03
0 0 5148.56 0 0 -5148.56 0 0 44945.7 0 0 -44945.7 0 0 4850.67 0 0 -4850.67
0 0 11528.3 0 0 -11528.3 0 0 43470.4 0 0 -43470.4 0 0 5757.6 0 0 -5757.6
0 0 12108.8 0 0 -12108.8 0 0 45006 0 0 -45006 0 0 5407.11 0 0 -5407.11
0 0 12108.8 0 0 -12108.8 0 0 45083.2 0 0 -45083.2 0 0 5612.85 0 0 -5612.85
0 0 12108.8 0 0 -12108.8 0 0 45118.8 0 0 -45118.8 0 0 5854.56 0 0 -5854.56
0 0 12108.8 0 0 -12108.8 0 0 45217.4 0 0 -45217.4 0 0 5933.4 0 0 -5933.4
0 0 12108.8 0 0 -12108.8 0 0 45350.9 0 0 -45350.9 0 0 5990.7 0 0 -5990.7
0 0 12108.8 0 0 -12108.8 0 0 45448.8 0 0 -45448.8 0 0 6267.65 0 0 -6267.65
0 0 12108.8 0 0 -12108.8 0 0 45533.5 0 0 -45533.5 0 0 6500.96 0 0 -6500.96
0 0 12108.8 0 0 -12108.8 0 0 45655.4 0 0 -45655.4 0 0 6688.24 0 0 -6688.24
0 0 12108.8 0 0 -12108.8 0 0 45799.7 0 0 -45799.7 0 0 6903.41 0 0 -6903.41
0 0 12108.8 0 0 -12108.8 0 0 45927.2 0 0 -45927.2 0 0 7214.58 0 0 -7214.58
0 0 12108.8 0 0 -12108.8 0 0 46044.6 0 0 -46044.6 0 0 7568.03 0 0 -7568.03
0 0 12108.8 0 0 -12108.8 0 0 46190.4 0 0 -46190.4 0 0 7848.51 0 0 -7848.51
0 0 12108.8 0 0 -12108.8 0 0 46353.6 0 0 -46353.6 0 0 7860.55 0 0 -7860.55
0 0 12108.8 0 0 -12108.8 0 0 45703.4 0 0 -45703.4 0 0 7876.03 0 0 -7876.03
0 0 6463.31 0 0 -6463.31 0 0 8854.56 0 0 -8854.56 0 0 6554.07 0 0 -6554.07
0 0 2774.39 0 0 -2774.39 0 0 2995.5 0 0 -2995.5 0 0 5393.29 0 0 -5393.29
0 0 9722.05 0 0 -9722.05 0 0 4045.91 0 0 -4045.91 0 0 7498.47 0 0 -7498.47
0 0 11681.1 0 0 -11681.1 0 0 8854.56 0 0 -8854.56 0 0 7871.62 0 0 -7871.62
0 0 12108.8 0 0 -12108.8 0 0 8854.56 0 0 -8854.56 0 0 7906.22 0 0 -7906.22
0 0 12108.8 0 0 -12108.8 0 0 8854.56 0 0 -8854.56 0 0 7926.67 0 0 -7926.67
0 0 12108.8 0 0 -12108.8 0 0 8854.56 0 0 -8854.56 0 0 7958.1 0 0 -7958.1
0 0 12108.8 0 0 -12108.8 0 0 8854.56 0 0 -8854.56 0 0 7989.43 0 0 -7989.43
0 0 12108.8 0 0 -12108.8 0 0 8854.56 0 0 -8854.56 0 0 8019.93 0 0 -8019.93
0 0 12108.8 0 0 -12108.8 0 0 8854.56 0 0 -8854.56 0 0 8053.16 0 0 -8053.16
0 0 12108.8 0 0 -12108.8 0 0 8854.56 0 0 -8854.56 0 0 8091.17 0 0 -8091.17
0 0 12108.8 0 0 -12108.8 0 0 8854.56 0 0 -8854.56 0 0 1542.76 0 0 -1542.76
0 0 12108.8 0 0 -12108.8 0 0 8854.56 0 0 -8854.56 0 0 1542.76 0 0 -1542.76
0 0 10979.3 0 0 -10979.3 0 0 8854.56 0 0 -8854.56 0 0 1542.76 0 0 -1542.76
0 0 11909.6 0 0 -11909.6 0 0 8854.56 0 0 -8854.56 0 0 1542.76 0 0 -1542.76
0 0 12108.8 0 0 -12108.8 0 0 8854.56 0 0 -8854.56 0 0 1542.76 0 0 -1542.76
0 0 12108.8 0 0 -12108.8 0 0 8854.56 0 0 -8854.56 0 0 1542.76 0 0 -1542.76
0 0 12108.8 0 0 -12108.8 0 0 8854.56 0 0 -8854.56 0 0 1542.76 0 0 -1542.76
0 0 12108.8 0 0 -12108.8 0 0 8854.56 0 0 -8854.56 0 0 1542.76 0 0 -1542.76
0 0 12108.8 0 0 -12108.8 0 0 8854.56 0 0 -8854.56 0 0 1542.76 0 0 -1542.76
0 0 12108.8 0 0 -12108.8 0 0 8854.56 0 0 -8854.56 0 0 1542.76 0 0 -1542.76
0 0 12108.8 0 0 -12108.8 0 0 8854.56 0 0 -8854.56 0 0 1542.76 0 0 -1542.76
0 0 12108.8 0 0 -12108.8 0 0 8854.56 0 0 -8854.56 0 0 1542.76 0 0 -1542.76
0 0 12108.8 0 0 -12108.8 0 0 8854.56 0 0 -8854.56 0 0 1542.76 0 0 -1542.76
0 0 12108.8 0 0 -12108.8 0 0 8854.56 0 0 -8854.56 0 0 1542.76 0 0 -1542.76
0 0 12108.8 0 0 -12108.8 0 0 8854.56 0 0 -8854.56 0 0 1542.76 0 0 -1542.76
0 0 12108.8 0 0 -12108.8 0 0 8854.56 0 0 -8854.56 0 0 1542.76 0 0 -1542.76
0 0 12108.8 0 0 -12108.8 0 0 8854.56 0 0 -8854.56 0 0 1542.76 0 0 -1542.76
0 0 12108.8 0 0 -12108.8 0 0 8854.56 0 0 -8854.56 0 0 1542.76 0 0 -1542.76
0 0 12108.8 0 0 -12108.8 0 0 8854.56 0 0 -8854.56 0 0 1542.76 0 0 -1542.76
0 0 11280.1 0 0 -11280.1 0 0 8854.56 0 0 -8854.56 0 0 1542.76 0 0 -1542.76
0 0 10992.2 0 0 -10992.2 0 0 8854.56 0 0 -8854.56 0 0 1542.76 0 0 -1542.76
0 0 10512.1 0 0 -10512.1 0 0 8854.56 0 0 -8854.56 0 0 1542.76 0 0 -1542.76
