0 0 1040.18 0 0 -1040.18 0 0 1027.77 0 0 -1027.77 0 0 36.2628 0 0 -36.2628
0 0 1047.61 0 0 -1047.61 0 0 1026.64 0 0 -1026.64 0 0 36.3111 0 0 -36.3111
0 0 1064.64 0 0 -1064.64 0 0 1024.28 0 0 -1024.28 0 0 36.4033 0 0 -36.4033
0 0 1099.86 0 0 -1099.86 0 0 1020.06 0 0 -1020.06 0 0 36.5211 0 0 -36.5211
0 0 1139.93 0 0 -1139.93 0 0 1015.92 0 0 -1015.92 0 0 36.5827 0 0 -36.5827
0 0 1191.53 0 0 -1191.53 0 0 1011.48 0 0 -1011.48 0 0 36.566 0 0 -36.566
0 0 1255.6 0 0 -1255.6 0 0 1007.27 0 0 -1007.27 0 0 36.4156 0 0 -36.4156
0 0 1333.13 0 0 -1333.13 0 0 1003.92 0 0 -1003.92 0 0 36.0664 0 0 -36.0664
0 0 1425.23 0 0 -1425.23 0 0 1002.08 0 0 -1002.08 0 0 35.4549 0 0 -35.4549
0 0 1533.08 0 0 -1533.08 0 0 1002.46 0 0 -1002.46 0 0 34.5225 0 0 -34.5225
0 0 1657.76 0 0 -1657.76 0 0 1005.88 0 0 -1005.88 0 0 33.2135 0 0 -33.2135
0 0 1799.9 0 0 -1799.9 0 0 1013.28 0 0 -1013.28 0 0 31.4765 0 0 -31.4765
0 0 1959.22 0 0 -1959.22 0 0 1025.77 0 0 -1025.77 0 0 29.2683 0 0 -29.2683
0 0 2134.04 0 0 -2134.04 0 0 1044.37 0 0 -1044.37 0 0 26.5765 0 0 -26.5765
0 0 2322.17 0 0 -2322.17 0 0 1070.72 0 0 -1070.72 0 0 23.3619 0 0 -23.3619
0 0 2519.25 0 0 -2519.25 0 0 1106.21 0 0 -1106.21 0 0 19.6509 0 0 -19.6509
0 0 2720.14 0 0 -2720.14 0 0 1152.24 0 0 -1152.24 0 0 15.5007 0 0 -15.5007
0 0 2919.01 0 0 -2919.01 0 0 1209.99 0 0 -1209.99 0 0 11.0202 0 0 -11.0202
0 0 3109.75 0 0 -3109.75 0 0 1280.31 0 0 -1280.31 0 0 6.37681 0 0 -6.37681
0 0 3286.41 0 0 -3286.41 0 0 1363.56 0 0 -1363.56 0 0 1.78026 0 0 -1.78026
0 0 3443.07 0 0 -3443.07 0 0 1459.59 0 0 -1459.59 0 0 -2.43152 0 0 2.43152
0 0 3573.16 0 0 -3573.16 0 0 1567.81 0 0 -1567.81 0 0 -5.87116 0 0 5.87116
0 0 3668.98 0 0 -3668.98 0 0 1687.22 0 0 -1687.22 0 0 -8.10089 0 0 8.10089
0 0 3721.3 0 0 -3721.3 0 0 1816.42 0 0 -1816.42 0 0 -8.63585 0 0 8.63585
0 0 3719.46 0 0 -3719.46 0 0 1953.62 0 0 -1953.62 0 0 -6.95581 0 0 6.95581
0 0 3652.22 0 0 -3652.22 0 0 2096.09 0 0 -2096.09 0 0 -2.50884 0 0 2.50884
0 0 3510.53 0 0 -3510.53 0 0 2240.57 0 0 -2240.57 0 0 5.17768 0 0 -5.17768
0 0 3291.03 0 0 -3291.03 0 0 2382.55 0 0 -2382.55 0 0 16.8648 0 0 -16.8648
0 0 2998.93 0 0 -2998.93 0 0 2515.26 0 0 -2515.26 0 0 33.2288 0 0 -33.2288
0 0 2646.99 0 0 -2646.99 0 0 2630.91 0 0 -2630.91 0 0 54.889 0 0 -54.889
0 0 2251.5 0 0 -2251.5 0 0 2721.51 0 0 -2721.51 0 0 82.2783 0 0 -82.2783
0 0 1827.16 0 0 -1827.16 0 0 2779.45 0 0 -2779.45 0 0 115.85 0 0 -115.85
0 0 1390 0 0 -1390 0 0 2798.74 0 0 -2798.74 0 0 155.633 0 0 -155.633
0 0 951.137 0 0 -951.137 0 0 2774.83 0 0 -2774.83 0 0 201.382 0 0 -201.382
0 0 519.065 0 0 -519.065 0 0 2705.12 0 0 -2705.12 0 0 252.567 0 0 -252.567
0 0 95.4589 0 0 -95.4589 0 0 2588.94 0 0 -2588.94 0 0 308.311 0 0 -308.311
0 0 -315.735 0 0 315.735 0 0 2427.37 0 0 -2427.37 0 0 367.474 0 0 -367.474
0 0 -714.898 0 0 714.898 0 0 2224.68 0 0 -2224.68 0 0 428.479 0 0 -428.479
0 0 -1100.75 0 0 1100.75 0 0 1984.98 0 0 -1984.98 0 0 489.655 0 0 -489.655
0 0 -1474.37 0 0 1474.37 0 0 1713.48 0 0 -1713.48 0 0 549.006 0 0 -549.006
0 0 -1836.23 0 0 1836.23 0 0 1418.06 0 0 -1418.06 0 0 604.691 0 0 -604.691
0 0 -2184.88 0 0 2184.88 0 0 1105.43 0 0 -1105.43 0 0 654.643 0 0 -654.643
0 0 -2516.03 0 0 2516.03 0 0 782.576 0 0 -782.576 0 0 696.888 0 0 -696.888
0 0 -2822.58 0 0 2822.58 0 0 456.301 0 0 -456.301 0 0 729.521 0 0 -729.521
0 0 -3095.85 0 0 3095.85 0 0 133.207 0 0 -133.207 0 0 750.789 0 0 -750.789
0 0 -3329.01 0 0 3329.01 0 0 -180.936 0 0 180.936 0 0 759.103 0 0 -759.103
0 0 -3521.73 0 0 3521.73 0 0 -480.633 0 0 480.633 0 0 752.843 0 0 -752.843
0 0 -3680.28 0 0 3680.28 0 0 -756.56 0 0 756.56 0 0 731.29 0 0 -731.29
0 0 -3818.66 0 0 3818.66 0 0 -1000.85 0 0 1000.85 0 0 693.501 0 0 -693.501
0 0 -3957.93 0 0 3957.93 0 0 -1206.15 0 0 1206.15 0 0 639.016 0 0 -639.016
0 0 -4175.25 0 0 4175.25 0 0 -1399.29 0 0 1399.29 0 0 547.5 0 0 -547.5
0 0 -4497.29 0 0 4497.29 0 0 -1515.6 0 0 1515.6 0 0 431.089 0 0 -431.089
0 0 -4981.61 0 0 4981.61 0 0 -1554.19 0 0 1554.19 0 0 292.209 0 0 -292.209
0 0 -5671.1 0 0 5671.1 0 0 -1523.4 0 0 1523.4 0 0 134.658 0 0 -134.658
0 0 -6586.23 0 0 6586.23 0 0 -1442.56 0 0 1442.56 0 0 -37.8564 0 0 37.8564
0 0 -7720.96 0 0 7720.96 0 0 -1340.76 0 0 1340.76 0 0 -218.856 0 0 218.856
0 0 -9040.75 0 0 9040.75 0 0 -1254.42 0 0 1254.42 0 0 -400.139 0 0 400.139
0 0 -10485.6 0 0 10485.6 0 0 -1225.24 0 0 1225.24 0 0 -574.721 0 0 574.721
0 0 -11985.1 0 0 11985.1 0 0 -1295.21 0 0 1295.21 0 0 -735.72 0 0 735.72
0 0 -13479.4 0 0 13479.4 0 0 -1499.86 0 0 1499.86 0 0 -877.791 0 0 877.791
0 0 -14931.3 0 0 14931.3 0 0 -1863.68 0 0 1863.68 0 0 -997.142 0 0 997.142
0 0 -16325.1 0 0 16325.1 0 0 -2399.11 0 0 2399.11 0 0 -1091.81 0 0 1091.81
0 0 -17660.4 0 0 17660.4 0 0 -3106.67 0 0 3106.67 0 0 -1161.9 0 0 1161.9
0 0 -18944.9 0 0 18944.9 0 0 -3975.74 0 0 3975.74 0 0 -1209.57 0 0 1209.57
0 0 -20186.9 0 0 20186.9 0 0 -4986.3 0 0 4986.3 0 0 -1238.8 0 0 1238.8
0 0 -21387.2 0 0 21387.2 0 0 -6111.75 0 0 6111.75 0 0 -1254.95 0 0 1254.95
0 0 -22538.7 0 0 22538.7 0 0 -7320.28 0 0 7320.28 0 0 -1264.5 0 0 1264.5
0 0 -23636.5 0 0 23636.5 0 0 -8575.07 0 0 8575.07 0 0 -1274.72 0 0 1274.72
0 0 -24686.6 0 0 24686.6 0 0 -9835.3 0 0 9835.3 0 0 -1293.31 0 0 1293.31
0 0 -25705.1 0 0 25705.1 0 0 -11058.8 0 0 11058.8 0 0 -1327.78 0 0 1327.78
0 0 -26709.9 0 0 26709.9 0 0 -12205.6 0 0 12205.6 0 0 -1384.87 0 0 1384.87
0 0 -27708.2 0 0 27708.2 0 0 -13242.2 0 0 13242.2 0 0 -1470.1 0 0 1470.1
0 0 -28689.8 0 0 28689.8 0 0 -14144 0 0 14144 0 0 -1587.32 0 0 1587.32
0 0 -29634.8 0 0 29634.8 0 0 -14895.7 0 0 14895.7 0 0 -1738.53 0 0 1738.53
0 0 -30525.2 0 0 30525.2 0 0 -15489.6 0 0 15489.6 0 0 -1923.78 0 0 1923.78
0 0 -31347.3 0 0 31347.3 0 0 -15926 0 0 15926 0 0 -2141.17 0 0 2141.17
0 0 -32093 0 0 32093 0 0 -16212.1 0 0 16212.1 0 0 -2386.97 0 0 2386.97
0 0 -32760.1 0 0 32760.1 0 0 -16361.3 0 0 16361.3 0 0 -2655.77 0 0 2655.77
0 0 -33352.1 0 0 33352.1 0 0 -16392.7 0 0 16392.7 0 0 -2940.76 0 0 2940.76
0 0 -33877.5 0 0 33877.5 0 0 -16329.3 0 0 16329.3 0 0 -3233.98 0 0 3233.98
0 0 -34346.2 0 0 34346.2 0 0 -16197.8 0 0 16197.8 0 0 -3526.75 0 0 3526.75
0 0 -34769.3 0 0 34769.3 0 0 -16026.5 0 0 16026.5 0 0 -3810.03 0 0 3810.03
0 0 -35161.3 0 0 35161.3 0 0 -15843.5 0 0 15843.5 0 0 -4074.89 0 0 4074.89
0 0 -35542.7 0 0 35542.7 0 0 -15674.9 0 0 15674.9 0 0 -4312.91 0 0 4312.91
0 0 -35939.4 0 0 35939.4 0 0 -15543.6 0 0 15543.6 0 0 -4516.58 0 0 4516.58
0 0 -36376.4 0 0 36376.4 0 0 -15469.2 0 0 15469.2 0 0 -4679.55 0 0 4679.55
0 0 -36865.6 0 0 36865.6 0 0 -15468.4 0 0 15468.4 0 0 -4796.89 0 0 4796.89
0 0 -37395.9 0 0 37395.9 0 0 -15556.1 0 0 15556.1 0 0 -4865.17 0 0 4865.17
0 0 -37932.8 0 0 37932.8 0 0 -15743.7 0 0 15743.7 0 0 -4882.79 0 0 4882.79
0 0 -38429.4 0 0 38429.4 0 0 -16037 0 0 16037 0 0 -4850.11 0 0 4850.11
0 0 -38764.6 0 0 38764.6 0 0 -16346.5 0 0 16346.5 0 0 -4789.33 0 0 4789.33
0 0 -39069 0 0 39069 0 0 -16817.9 0 0 16817.9 0 0 -4673.76 0 0 4673.76
0 0 -39214.9 0 0 39214.9 0 0 -17364 0 0 17364 0 0 -4520.03 0 0 4520.03
0 0 -39180 0 0 39180 0 0 -17955.6 0 0 17955.6 0 0 -4336.06 0 0 4336.06
0 0 -38947.6 0 0 38947.6 0 0 -18556.7 0 0 18556.7 0 0 -4131.01 0 0 4131.01
0 0 -38500.8 0 0 38500.8 0 0 -19126.9 0 0 19126.9 0 0 -3914.83 0 0 3914.83
0 0 -37823.8 0 0 37823.8 0 0 -19623.8 0 0 19623.8 0 0 -3697.67 0 0 3697.67
0 0 -36901.8 0 0 36901.8 0 0 -20004.7 0 0 20004.7 0 0 -3489.39 0 0 3489.39
0 0 -35720.4 0 0 35720.4 0 0 -20229.8 0 0 20229.8 0 0 -3298.95 0 0 3298.95
0 0 -34267.3 0 0 34267.3 0 0 -20263.3 0 0 20263.3 0 0 -3133.96 0 0 3133.96
0 0 -32534.4 0 0 32534.4 0 0 -20075.1 0 0 20075.1 0 0 -3000.27 0 0 3000.27
0 0 -30516.8 0 0 30516.8 0 0 -19642.6 0 0 19642.6 0 0 -2901.59 0 0 2901.59
0 0 -28216.7 0 0 28216.7 0 0 -18951.2 0 0 18951.2 0 0 -2839.27 0 0 2839.27
0 0 -25651 0 0 25651 0 0 -17993.9 0 0 17993.9 0 0 -2812.27 0 0 2812.27
0 0 -22860.5 0 0 22860.5 0 0 -16770.4 0 0 16770.4 0 0 -2817.14 0 0 2817.14
0 0 -19904.4 0 0 19904.4 0 0 -15288.7 0 0 15288.7 0 0 -2848.02 0 0 2848.02
0 0 -16843.9 0 0 16843.9 0 0 -13567 0 0 13567 0 0 -2896.73 0 0 2896.73
0 0 -13733.9 0 0 13733.9 0 0 -11634.6 0 0 11634.6 0 0 -2953.05 0 0 2953.05
0 0 -10626 0 0 10626 0 0 -9530.07 0 0 9530.07 0 0 -3005.13 0 0 3005.13
0 0 -7569.87 0 0 7569.87 0 0 -7299.5 0 0 7299.5 0 0 -3040.07 0 0 3040.07
0 0 -4611.64 0 0 4611.64 0 0 -4994.63 0 0 4994.63 0 0 -3044.5 0 0 3044.5
0 0 -1789.75 0 0 1789.75 0 0 -2670.83 0 0 2670.83 0 0 -3005.26 0 0 3005.26
0 0 858.467 0 0 -858.467 0 0 -388.27 0 0 388.27 0 0 -2909.91 0 0 2909.91
0 0 3313.74 0 0 -3313.74 0 0 1782.79 0 0 -1782.79 0 0 -2748.98 0 0 2748.98
0 0 5619.19 0 0 -5619.19 0 0 3788.8 0 0 -3788.8 0 0 -2513.09 0 0 2513.09
0 0 7789.86 0 0 -7789.86 0 0 5607.32 0 0 -5607.32 0 0 -2196.65 0 0 2196.65
0 0 9823.59 0 0 -9823.59 0 0 7210.34 0 0 -7210.34 0 0 -1797.44 0 0 1797.44
0 0 11704.3 0 0 -11704.3 0 0 8579.62 0 0 -8579.62 0 0 -1316.98 0 0 1316.98
0 0 13406.7 0 0 -13406.7 0 0 9712.96 0 0 -9712.96 0 0 -760.118 0 0 760.118
0 0 14916.3 0 0 -14916.3 0 0 10623.2 0 0 -10623.2 0 0 -135.899 0 0 135.899
0 0 16247.9 0 0 -16247.9 0 0 11324.9 0 0 -11324.9 0 0 534.286 0 0 -534.286
0 0 17439.8 0 0 -17439.8 0 0 11840.6 0 0 -11840.6 0 0 1245.29 0 0 -1245.29
0 0 18542.9 0 0 -18542.9 0 0 12200.5 0 0 -12200.5 0 0 1982.34 0 0 -1982.34
0 0 19610 0 0 -19610 0 0 12442.1 0 0 -12442.1 0 0 2727.24 0 0 -2727.24
0 0 20695 0 0 -20695 0 0 12605.7 0 0 -12605.7 0 0 3461.44 0 0 -3461.44
0 0 21855.4 0 0 -21855.4 0 0 12733.4 0 0 -12733.4 0 0 4166.18 0 0 -4166.18
0 0 23150.7 0 0 -23150.7 0 0 12869.8 0 0 -12869.8 0 0 4823.36 0 0 -4823.36
0 0 24635.9 0 0 -24635.9 0 0 13057.9 0 0 -13057.9 0 0 5416.31 0 0 -5416.31
0 0 26353.4 0 0 -26353.4 0 0 13338.2 0 0 -13338.2 0 0 5929.96 0 0 -5929.96
0 0 28322.3 0 0 -28322.3 0 0 13749.5 0 0 -13749.5 0 0 6351.38 0 0 -6351.38
0 0 30529.5 0 0 -30529.5 0 0 14327.5 0 0 -14327.5 0 0 6670.88 0 0 -6670.88
0 0 32931 0 0 -32931 0 0 15102.1 0 0 -15102.1 0 0 6882.21 0 0 -6882.21
0 0 35465.1 0 0 -35465.1 0 0 16092.5 0 0 -16092.5 0 0 6983.11 0 0 -6983.11
0 0 38067.3 0 0 -38067.3 0 0 17304.5 0 0 -17304.5 0 0 6975.41 0 0 -6975.41
0 0 40679.1 0 0 -40679.1 0 0 18727.8 0 0 -18727.8 0 0 6865.35 0 0 -6865.35
0 0 43253.2 0 0 -43253.2 0 0 20335.3 0 0 -20335.3 0 0 6663.46 0 0 -6663.46
0 0 45753.7 0 0 -45753.7 0 0 22084.3 0 0 -22084.3 0 0 6383.99 0 0 -6383.99
0 0 48154.8 0 0 -48154.8 0 0 23919.3 0 0 -23919.3 0 0 6044.19 0 0 -6044.19
0 0 50440.2 0 0 -50440.2 0 0 25775.3 0 0 -25775.3 0 0 5663.52 0 0 -5663.52
0 0 52598.3 0 0 -52598.3 0 0 27582.1 0 0 -27582.1 0 0 5262.66 0 0 -5262.66
0 0 54615.8 0 0 -54615.8 0 0 29269.4 0 0 -29269.4 0 0 4862.47 0 0 -4862.47
0 0 56474.3 0 0 -56474.3 0 0 30771.7 0 0 -30771.7 0 0 4482.86 0 0 -4482.86
0 0 58153.5 0 0 -58153.5 0 0 32031.3 0 0 -32031.3 0 0 4141.86 0 0 -4141.86
0 0 59634.4 0 0 -59634.4 0 0 33001.2 0 0 -33001.2 0 0 3854.87 0 0 -3854.87
0 0 60555.5 0 0 -60555.5 0 0 33628 0 0 -33628 0 0 3635.09 0 0 -3635.09
0 0 60631.4 0 0 -60631.4 0 0 33730.6 0 0 -33730.6 0 0 3501.99 0 0 -3501.99
0 0 60697.3 0 0 -60697.3 0 0 33523.2 0 0 -33523.2 0 0 3443.13 0 0 -3443.13
0 0 60732.9 0 0 -60732.9 0 0 33105.4 0 0 -33105.4 0 0 3452.92 0 0 -3452.92
0 0 60752.8 0 0 -60752.8 0 0 32415.2 0 0 -32415.2 0 0 3531.11 0 0 -3531.11
0 0 60623.1 0 0 -60623.1 0 0 31486.9 0 0 -31486.9 0 0 3672.15 0 0 -3672.15
0 0 59248.6 0 0 -59248.6 0 0 30540.7 0 0 -30540.7 0 0 3856.37 0 0 -3856.37
0 0 57704.5 0 0 -57704.5 0 0 29391.2 0 0 -29391.2 0 0 4087.65 0 0 -4087.65
0 0 56031.7 0 0 -56031.7 0 0 28107.2 0 0 -28107.2 0 0 4346.2 0 0 -4346.2
0 0 54222.7 0 0 -54222.7 0 0 26733.1 0 0 -26733.1 0 0 4621.2 0 0 -4621.2
0 0 52350.4 0 0 -52350.4 0 0 25306.8 0 0 -25306.8 0 0 4898.14 0 0 -4898.14
0 0 50523.7 0 0 -50523.7 0 0 23874.2 0 0 -23874.2 0 0 5161.69 0 0 -5161.69
0 0 48778.4 0 0 -48778.4 0 0 22493.5 0 0 -22493.5 0 0 5396.03 0 0 -5396.03
0 0 47184.3 0 0 -47184.3 0 0 21204.4 0 0 -21204.4 0 0 5587.62 0 0 -5587.62
0 0 45810.7 0 0 -45810.7 0 0 20041.8 0 0 -20041.8 0 0 5725.19 0 0 -5725.19
0 0 44701.5 0 0 -44701.5 0 0 19045.8 0 0 -19045.8 0 0 5798.7 0 0 -5798.7
0 0 43897.9 0 0 -43897.9 0 0 18246.9 0 0 -18246.9 0 0 5800.45 0 0 -5800.45
0 0 43434.6 0 0 -43434.6 0 0 17663.4 0 0 -17663.4 0 0 5726.02 0 0 -5726.02
0 0 43324.3 0 0 -43324.3 0 0 17308.8 0 0 -17308.8 0 0 5574.27 0 0 -5574.27
0 0 43569.5 0 0 -43569.5 0 0 17190.2 0 0 -17190.2 0 0 5347.14 0 0 -5347.14
0 0 44159.5 0 0 -44159.5 0 0 17304.9 0 0 -17304.9 0 0 5049.6 0 0 -5049.6
0 0 45037.5 0 0 -45037.5 0 0 17645.8 0 0 -17645.8 0 0 4689.51 0 0 -4689.51
0 0 45936.2 0 0 -45936.2 0 0 18229.2 0 0 -18229.2 0 0 4276.09 0 0 -4276.09
0 0 46793.9 0 0 -46793.9 0 0 19020.1 0 0 -19020.1 0 0 3823.92 0 0 -3823.92
0 0 47566.3 0 0 -47566.3 0 0 19976.6 0 0 -19976.6 0 0 3349.36 0 0 -3349.36
0 0 48226.5 0 0 -48226.5 0 0 21043.7 0 0 -21043.7 0 0 2870.55 0 0 -2870.55
0 0 48659.7 0 0 -48659.7 0 0 21933.8 0 0 -21933.8 0 0 2497.39 0 0 -2497.39
0 0 48999.7 0 0 -48999.7 0 0 22818.7 0 0 -22818.7 0 0 2143.88 0 0 -2143.88
0 0 49239.4 0 0 -49239.4 0 0 23664.5 0 0 -23664.5 0 0 1819.64 0 0 -1819.64
0 0 49370.8 0 0 -49370.8 0 0 24439.1 0 0 -24439.1 0 0 1533.54 0 0 -1533.54
0 0 49386.2 0 0 -49386.2 0 0 25112.8 0 0 -25112.8 0 0 1293.55 0 0 -1293.55
0 0 49278.2 0 0 -49278.2 0 0 25659 0 0 -25659 0 0 1106.46 0 0 -1106.46
0 0 49038.4 0 0 -49038.4 0 0 26055.9 0 0 -26055.9 0 0 977.68 0 0 -977.68
0 0 48655 0 0 -48655 0 0 26288.1 0 0 -26288.1 0 0 911.004 0 0 -911.004
0 0 48111.9 0 0 -48111.9 0 0 26346.4 0 0 -26346.4 0 0 908.461 0 0 -908.461
0 0 47388.8 0 0 -47388.8 0 0 26228 0 0 -26228 0 0 970.297 0 0 -970.297
0 0 46463.4 0 0 -46463.4 0 0 25935.8 0 0 -25935.8 0 0 1095.01 0 0 -1095.01
0 0 45316 0 0 -45316 0 0 25477.8 0 0 -25477.8 0 0 1279.44 0 0 -1279.44
0 0 43935.8 0 0 -43935.8 0 0 24865.6 0 0 -24865.6 0 0 1518.94 0 0 -1518.94
0 0 42324.5 0 0 -42324.5 0 0 24113.2 0 0 -24113.2 0 0 1807.5 0 0 -1807.5
0 0 40498.1 0 0 -40498.1 0 0 23235.9 0 0 -23235.9 0 0 2137.94 0 0 -2137.94
0 0 38484.4 0 0 -38484.4 0 0 22250.5 0 0 -22250.5 0 0 2502.07 0 0 -2502.07
0 0 36316.8 0 0 -36316.8 0 0 21175.5 0 0 -21175.5 0 0 2890.84 0 0 -2890.84
0 0 34028.6 0 0 -34028.6 0 0 20031.4 0 0 -20031.4 0 0 3294.56 0 0 -3294.56
0 0 31649.8 0 0 -31649.8 0 0 18840.4 0 0 -18840.4 0 0 3703.06 0 0 -3703.06
0 0 29207.5 0 0 -29207.5 0 0 17625.6 0 0 -17625.6 0 0 4106.01 0 0 -4106.01
0 0 26728.4 0 0 -26728.4 0 0 16409.9 0 0 -16409.9 0 0 4493.13 0 0 -4493.13
0 0 24239.2 0 0 -24239.2 0 0 15215 0 0 -15215 0 0 4854.48 0 0 -4854.48
0 0 21765.6 0 0 -21765.6 0 0 14061.3 0 0 -14061.3 0 0 5180.69 0 0 -5180.69
0 0 19330.6 0 0 -19330.6 0 0 12966.9 0 0 -12966.9 0 0 5463.18 0 0 -5463.18
0 0 16954 0 0 -16954 0 0 11947.4 0 0 -11947.4 0 0 5694.35 0 0 -5694.35
0 0 14652 0 0 -14652 0 0 11015.2 0 0 -11015.2 0 0 5867.79 0 0 -5867.79
0 0 12438.5 0 0 -12438.5 0 0 10179.1 0 0 -10179.1 0 0 5978.37 0 0 -5978.37
0 0 10325.5 0 0 -10325.5 0 0 9443.83 0 0 -9443.83 0 0 6022.41 0 0 -6022.41
0 0 8322.37 0 0 -8322.37 0 0 8810.12 0 0 -8810.12 0 0 5997.71 0 0 -5997.71
0 0 6436.28 0 0 -6436.28 0 0 8274.57 0 0 -8274.57 0 0 5903.58 0 0 -5903.58
0 0 4671.84 0 0 -4671.84 0 0 7829.88 0 0 -7829.88 0 0 5740.83 0 0 -5740.83
0 0 3030.95 0 0 -3030.95 0 0 7465.23 0 0 -7465.23 0 0 5511.71 0 0 -5511.71
0 0 1513.3 0 0 -1513.3 0 0 7166.58 0 0 -7166.58 0 0 5219.78 0 0 -5219.78
0 0 116.84 0 0 -116.84 0 0 6917.13 0 0 -6917.13 0 0 4869.85 0 0 -4869.85
0 0 -945.623 0 0 945.623 0 0 6681.07 0 0 -6681.07 0 0 4467.73 0 0 -4467.73
0 0 -1473.63 0 0 1473.63 0 0 6383.46 0 0 -6383.46 0 0 4024.79 0 0 -4024.79
0 0 -1936.06 0 0 1936.06 0 0 6109.82 0 0 -6109.82 0 0 3539.08 0 0 -3539.08
0 0 -2337.43 0 0 2337.43 0 0 5815.09 0 0 -5815.09 0 0 3022.07 0 0 -3022.07
0 0 -2708.62 0 0 2708.62 0 0 5502.01 0 0 -5502.01 0 0 2480.13 0 0 -2480.13
0 0 -3055.62 0 0 3055.62 0 0 5155.59 0 0 -5155.59 0 0 1920.84 0 0 -1920.84
0 0 -3401.78 0 0 3401.78 0 0 4767.75 0 0 -4767.75 0 0 1351.53 0 0 -1351.53
0 0 -3788.68 0 0 3788.68 0 0 4329.15 0 0 -4329.15 0 0 779.809 0 0 -779.809
0 0 -4247.42 0 0 4247.42 0 0 3828.56 0 0 -3828.56 0 0 213.572 0 0 -213.572
0 0 -4797.56 0 0 4797.56 0 0 3255.96 0 0 -3255.96 0 0 -346.907 0 0 346.907
0 0 -5461.24 0 0 5461.24 0 0 2608.43 0 0 -2608.43 0 0 -888.837 0 0 888.837
0 0 -6259.31 0 0 6259.31 0 0 1881.56 0 0 -1881.56 0 0 -1405.48 0 0 1405.48
0 0 -7203.66 0 0 7203.66 0 0 1068.58 0 0 -1068.58 0 0 -1891.47 0 0 1891.47
0 0 -8297.28 0 0 8297.28 0 0 161.947 0 0 -161.947 0 0 -2341.53 0 0 2341.53
0 0 -9543.52 0 0 9543.52 0 0 -840.553 0 0 840.553 0 0 -2751.99 0 0 2751.99
0 0 -10940.1 0 0 10940.1 0 0 -1932.98 0 0 1932.98 0 0 -3119.7 0 0 3119.7
0 0 -12482.2 0 0 12482.2 0 0 -3109.07 0 0 3109.07 0 0 -3443.05 0 0 3443.05
0 0 -14164.5 0 0 14164.5 0 0 -4362.76 0 0 4362.76 0 0 -3721.11 0 0 3721.11
0 0 -15980.2 0 0 15980.2 0 0 -5687.67 0 0 5687.67 0 0 -3953.7 0 0 3953.7
0 0 -17918.8 0 0 17918.8 0 0 -7074.81 0 0 7074.81 0 0 -4141.73 0 0 4141.73
0 0 -19965.3 0 0 19965.3 0 0 -8511.72 0 0 8511.72 0 0 -4287.26 0 0 4287.26
0 0 -22100.5 0 0 22100.5 0 0 -9984.41 0 0 9984.41 0 0 -4393.17 0 0 4393.17
0 0 -24300.4 0 0 24300.4 0 0 -11479.2 0 0 11479.2 0 0 -4462.89 0 0 4462.89
0 0 -26537 0 0 26537 0 0 -12982.6 0 0 12982.6 0 0 -4500.36 0 0 4500.36
0 0 -28780.2 0 0 28780.2 0 0 -14479.5 0 0 14479.5 0 0 -4510.06 0 0 4510.06
0 0 -30999.2 0 0 30999.2 0 0 -15953.9 0 0 15953.9 0 0 -4496.96 0 0 4496.96
0 0 -33162.2 0 0 33162.2 0 0 -17389.1 0 0 17389.1 0 0 -4466.35 0 0 4466.35
0 0 -35238 0 0 35238 0 0 -18769.1 0 0 18769.1 0 0 -4423.56 0 0 4423.56
0 0 -37196.8 0 0 37196.8 0 0 -20078.2 0 0 20078.2 0 0 -4373.9 0 0 4373.9
0 0 -39011.8 0 0 39011.8 0 0 -21300.4 0 0 21300.4 0 0 -4322.53 0 0 4322.53
0 0 -40659.4 0 0 40659.4 0 0 -22420.2 0 0 22420.2 0 0 -4274.36 0 0 4274.36
0 0 -42120.3 0 0 42120.3 0 0 -23423.1 0 0 23423.1 0 0 -4233.95 0 0 4233.95
0 0 -43380 0 0 43380 0 0 -24295.6 0 0 24295.6 0 0 -4205.32 0 0 4205.32
0 0 -44429.5 0 0 44429.5 0 0 -25026.1 0 0 25026.1 0 0 -4191.83 0 0 4191.83
0 0 -45265.2 0 0 45265.2 0 0 -25604.2 0 0 25604.2 0 0 -4196.1 0 0 4196.1
0 0 -45888.6 0 0 45888.6 0 0 -26022.2 0 0 26022.2 0 0 -4219.94 0 0 4219.94
0 0 -46305.1 0 0 46305.1 0 0 -26274.9 0 0 26274.9 0 0 -4264.27 0 0 4264.27
0 0 -46522.9 0 0 46522.9 0 0 -26360.2 0 0 26360.2 0 0 -4329.07 0 0 4329.07
0 0 -46552.8 0 0 46552.8 0 0 -26279.2 0 0 26279.2 0 0 -4413.39 0 0 4413.39
0 0 -46406.1 0 0 46406.1 0 0 -26034.8 0 0 26034.8 0 0 -4515.41 0 0 4515.41
0 0 -46104.2 0 0 46104.2 0 0 -25633.8 0 0 25633.8 0 0 -4632.38 0 0 4632.38
0 0 -45671 0 0 45671 0 0 -25087 0 0 25087 0 0 -4760.66 0 0 4760.66
0 0 -45132.2 0 0 45132.2 0 0 -24408.3 0 0 24408.3 0 0 -4895.9 0 0 4895.9
0 0 -44515.2 0 0 44515.2 0 0 -23614.2 0 0 23614.2 0 0 -5033.1 0 0 5033.1
0 0 -43846.4 0 0 43846.4 0 0 -22724.2 0 0 22724.2 0 0 -5166.8 0 0 5166.8
0 0 -43150 0 0 43150 0 0 -21759.8 0 0 21759.8 0 0 -5291.2 0 0 5291.2
0 0 -42448.8 0 0 42448.8 0 0 -20744.6 0 0 20744.6 0 0 -5400.35 0 0 5400.35
0 0 -41765.7 0 0 41765.7 0 0 -19702.5 0 0 19702.5 0 0 -5488.36 0 0 5488.36
0 0 -41123 0 0 41123 0 0 -18657.9 0 0 18657.9 0 0 -5549.59 0 0 5549.59
0 0 -40542.7 0 0 40542.7 0 0 -17634.2 0 0 17634.2 0 0 -5578.83 0 0 5578.83
0 0 -40045.3 0 0 40045.3 0 0 -16654.1 0 0 16654.1 0 0 -5571.48 0 0 5571.48
0 0 -39649.1 0 0 39649.1 0 0 -15738.4 0 0 15738.4 0 0 -5523.71 0 0 5523.71
0 0 -39369.1 0 0 39369.1 0 0 -14905.8 0 0 14905.8 0 0 -5432.58 0 0 5432.58
0 0 -39217.5 0 0 39217.5 0 0 -14172.5 0 0 14172.5 0 0 -5296.18 0 0 5296.18
0 0 -39203.8 0 0 39203.8 0 0 -13551.4 0 0 13551.4 0 0 -5113.73 0 0 5113.73
0 0 -39336.1 0 0 39336.1 0 0 -13052.2 0 0 13052.2 0 0 -4885.63 0 0 4885.63
0 0 -39620.8 0 0 39620.8 0 0 -12680.7 0 0 12680.7 0 0 -4613.49 0 0 4613.49
0 0 -40056 0 0 40056 0 0 -12439.4 0 0 12439.4 0 0 -4300.11 0 0 4300.11
0 0 -40622.9 0 0 40622.9 0 0 -12329.1 0 0 12329.1 0 0 -3949.46 0 0 3949.46
0 0 -41362.3 0 0 41362.3 0 0 -12335.8 0 0 12335.8 0 0 -3567.05 0 0 3567.05
0 0 -42232.5 0 0 42232.5 0 0 -12461.7 0 0 12461.7 0 0 -3158.78 0 0 3158.78
0 0 -43187.3 0 0 43187.3 0 0 -12704.6 0 0 12704.6 0 0 -2730.29 0 0 2730.29
0 0 -44226.4 0 0 44226.4 0 0 -13045.6 0 0 13045.6 0 0 -2289.91 0 0 2289.91
0 0 -45355.4 0 0 45355.4 0 0 -13468.2 0 0 13468.2 0 0 -1845.73 0 0 1845.73
0 0 -46537.8 0 0 46537.8 0 0 -13956.6 0 0 13956.6 0 0 -1406.57 0 0 1406.57
0 0 -47622.1 0 0 47622.1 0 0 -14497 0 0 14497 0 0 -980.987 0 0 980.987
0 0 -48650.7 0 0 48650.7 0 0 -15082.3 0 0 15082.3 0 0 -576.713 0 0 576.713
0 0 -49562.6 0 0 49562.6 0 0 -15698.9 0 0 15698.9 0 0 -202.008 0 0 202.008
0 0 -50322 0 0 50322 0 0 -16328.9 0 0 16328.9 0 0 135.138 0 0 -135.138
0 0 -50897.5 0 0 50897.5 0 0 -16954.6 0 0 16954.6 0 0 422.43 0 0 -422.43
0 0 -51249.9 0 0 51249.9 0 0 -17557.4 0 0 17557.4 0 0 658.429 0 0 -658.429
0 0 -51345.6 0 0 51345.6 0 0 -18120.6 0 0 18120.6 0 0 836.882 0 0 -836.882
0 0 -51156.9 0 0 51156.9 0 0 -18622.3 0 0 18622.3 0 0 952.692 0 0 -952.692
0 0 -50680.4 0 0 50680.4 0 0 -19042 0 0 19042 0 0 1001.67 0 0 -1001.67
0 0 -49916.9 0 0 49916.9 0 0 -19362 0 0 19362 0 0 980.851 0 0 -980.851
0 0 -48873.3 0 0 48873.3 0 0 -19566.7 0 0 19566.7 0 0 888.681 0 0 -888.681
0 0 -47565.2 0 0 47565.2 0 0 -19642.2 0 0 19642.2 0 0 725.187 0 0 -725.187
0 0 -46012.1 0 0 46012.1 0 0 -19578.1 0 0 19578.1 0 0 492.044 0 0 -492.044
0 0 -44236.2 0 0 44236.2 0 0 -19368.4 0 0 19368.4 0 0 192.42 0 0 -192.42
0 0 -42265.1 0 0 42265.1 0 0 -19012.7 0 0 19012.7 0 0 -174.343 0 0 174.343
0 0 -40133.6 0 0 40133.6 0 0 -18510.8 0 0 18510.8 0 0 -597.166 0 0 597.166
0 0 -37880.6 0 0 37880.6 0 0 -17868.8 0 0 17868.8 0 0 -1068.5 0 0 1068.5
0 0 -35546.4 0 0 35546.4 0 0 -17096.3 0 0 17096.3 0 0 -1578.89 0 0 1578.89
0 0 -33168.2 0 0 33168.2 0 0 -16208.6 0 0 16208.6 0 0 -2117.97 0 0 2117.97
0 0 -30778.8 0 0 30778.8 0 0 -15225.5 0 0 15225.5 0 0 -2674.57 0 0 2674.57
0 0 -28407.3 0 0 28407.3 0 0 -14170 0 0 14170 0 0 -3236.91 0 0 3236.91
0 0 -26079.5 0 0 26079.5 0 0 -13067.6 0 0 13067.6 0 0 -3792.64 0 0 3792.64
0 0 -23817.7 0 0 23817.7 0 0 -11945.9 0 0 11945.9 0 0 -4329.2 0 0 4329.2
0 0 -21640.2 0 0 21640.2 0 0 -10833.6 0 0 10833.6 0 0 -4834.22 0 0 4834.22
0 0 -19562.1 0 0 19562.1 0 0 -9758.88 0 0 9758.88 0 0 -5295.97 0 0 5295.97
0 0 -17597 0 0 17597 0 0 -8747.88 0 0 8747.88 0 0 -5703.7 0 0 5703.7
0 0 -15758 0 0 15758 0 0 -7823.9 0 0 7823.9 0 0 -6047.8 0 0 6047.8
0 0 -14057 0 0 14057 0 0 -7006.65 0 0 7006.65 0 0 -6320 0 0 6320
0 0 -12502.8 0 0 12502.8 0 0 -6311.82 0 0 6311.82 0 0 -6513.55 0 0 6513.55
0 0 -11099.5 0 0 11099.5 0 0 -5750.61 0 0 5750.61 0 0 -6623.55 0 0 6623.55
0 0 -9846.23 0 0 9846.23 0 0 -5329.11 0 0 5329.11 0 0 -6646.99 0 0 6646.99
0 0 -8738.09 0 0 8738.09 0 0 -5048.13 0 0 5048.13 0 0 -6582.86 0 0 6582.86
0 0 -7766.61 0 0 7766.61 0 0 -4903.07 0 0 4903.07 0 0 -6432.1 0 0 6432.1
0 0 -6919.95 0 0 6919.95 0 0 -4884.06 0 0 4884.06 0 0 -6197.55 0 0 6197.55
0 0 -6183.01 0 0 6183.01 0 0 -4976.17 0 0 4976.17 0 0 -5883.88 0 0 5883.88
0 0 -5537.33 0 0 5537.33 0 0 -5159.88 0 0 5159.88 0 0 -5497.49 0 0 5497.49
0 0 -4960.61 0 0 4960.61 0 0 -5411.84 0 0 5411.84 0 0 -5046.28 0 0 5046.28
0 0 -4426.51 0 0 4426.51 0 0 -5705.74 0 0 5705.74 0 0 -4539.43 0 0 4539.43
0 0 -3904.74 0 0 3904.74 0 0 -6013.1 0 0 6013.1 0 0 -3987.11 0 0 3987.11
0 0 -3361.85 0 0 3361.85 0 0 -6304.09 0 0 6304.09 0 0 -3400.2 0 0 3400.2
0 0 -3231.46 0 0 3231.46 0 0 -6482.04 0 0 6482.04 0 0 -2792.03 0 0 2792.03
0 0 -3168.56 0 0 3168.56 0 0 -6568.16 0 0 6568.16 0 0 -2173.48 0 0 2173.48
0 0 -3023.13 0 0 3023.13 0 0 -6566.69 0 0 6566.69 0 0 -1550.91 0 0 1550.91
0 0 -2739.64 0 0 2739.64 0 0 -6440.8 0 0 6440.8 0 0 -938.138 0 0 938.138
0 0 -2288.98 0 0 2288.98 0 0 -6183.45 0 0 6183.45 0 0 -342.225 0 0 342.225
0 0 -1665.9 0 0 1665.9 0 0 -5775.87 0 0 5775.87 0 0 222.867 0 0 -222.867
0 0 -859.615 0 0 859.615 0 0 -5209.51 0 0 5209.51 0 0 750.375 0 0 -750.375
0 0 119.319 0 0 -119.319 0 0 -4471.63 0 0 4471.63 0 0 1238.55 0 0 -1238.55
0 0 1254.38 0 0 -1254.38 0 0 -3561.29 0 0 3561.29 0 0 1682.31 0 0 -1682.31
0 0 2573.09 0 0 -2573.09 0 0 -2470.09 0 0 2470.09 0 0 2077.54 0 0 -2077.54
0 0 4060.38 0 0 -4060.38 0 0 -1201.11 0 0 1201.11 0 0 2421.73 0 0 -2421.73
0 0 5706.05 0 0 -5706.05 0 0 218.387 0 0 -218.387 0 0 2712.79 0 0 -2712.79
0 0 7503.76 0 0 -7503.76 0 0 1789.37 0 0 -1789.37 0 0 2953.05 0 0 -2953.05
0 0 9433.35 0 0 -9433.35 0 0 3497.74 0 0 -3497.74 0 0 3143.6 0 0 -3143.6
0 0 11470.2 0 0 -11470.2 0 0 5328.73 0 0 -5328.73 0 0 3288.38 0 0 -3288.38
0 0 13588.6 0 0 -13588.6 0 0 7253.6 0 0 -7253.6 0 0 3392.29 0 0 -3392.29
0 0 15759.3 0 0 -15759.3 0 0 9244.27 0 0 -9244.27 0 0 3460.96 0 0 -3460.96
0 0 17943.4 0 0 -17943.4 0 0 11274.3 0 0 -11274.3 0 0 3500.71 0 0 -3500.71
0 0 20083.2 0 0 -20083.2 0 0 13319.1 0 0 -13319.1 0 0 3518.24 0 0 -3518.24
0 0 22159.4 0 0 -22159.4 0 0 15343 0 0 -15343 0 0 3521.25 0 0 -3521.25
0 0 24155.7 0 0 -24155.7 0 0 17309.4 0 0 -17309.4 0 0 3517.53 0 0 -3517.53
0 0 26062.6 0 0 -26062.6 0 0 19182.8 0 0 -19182.8 0 0 3514.62 0 0 -3514.62
0 0 27876.5 0 0 -27876.5 0 0 20929.6 0 0 -20929.6 0 0 3519.68 0 0 -3519.68
0 0 29596.8 0 0 -29596.8 0 0 22518.6 0 0 -22518.6 0 0 3539.19 0 0 -3539.19
0 0 31223.5 0 0 -31223.5 0 0 23922.1 0 0 -23922.1 0 0 3578.77 0 0 -3578.77
0 0 32755.5 0 0 -32755.5 0 0 25117.8 0 0 -25117.8 0 0 3642.86 0 0 -3642.86
0 0 34121.4 0 0 -34121.4 0 0 26102.2 0 0 -26102.2 0 0 3734.17 0 0 -3734.17
0 0 35187.7 0 0 -35187.7 0 0 26885.2 0 0 -26885.2 0 0 3852.9 0 0 -3852.9
0 0 36096.8 0 0 -36096.8 0 0 27438.4 0 0 -27438.4 0 0 4001.05 0 0 -4001.05
0 0 36829.2 0 0 -36829.2 0 0 27758.9 0 0 -27758.9 0 0 4178.71 0 0 -4178.71
0 0 37380.8 0 0 -37380.8 0 0 27862.2 0 0 -27862.2 0 0 4381.86 0 0 -4381.86
0 0 37757.4 0 0 -37757.4 0 0 27755.6 0 0 -27755.6 0 0 4607.79 0 0 -4607.79
0 0 37970.8 0 0 -37970.8 0 0 27453.2 0 0 -27453.2 0 0 4851.5 0 0 -4851.5
0 0 38033.6 0 0 -38033.6 0 0 26973.6 0 0 -26973.6 0 0 5107.54 0 0 -5107.54
0 0 37961.1 0 0 -37961.1 0 0 26339.8 0 0 -26339.8 0 0 5369.28 0 0 -5369.28
0 0 37779.5 0 0 -37779.5 0 0 25576.8 0 0 -25576.8 0 0 5629.48 0 0 -5629.48
0 0 37516.6 0 0 -37516.6 0 0 24711.2 0 0 -24711.2 0 0 5880.43 0 0 -5880.43
0 0 37199.2 0 0 -37199.2 0 0 23771.7 0 0 -23771.7 0 0 6114.25 0 0 -6114.25
0 0 36855.9 0 0 -36855.9 0 0 22787.5 0 0 -22787.5 0 0 6323.12 0 0 -6323.12
0 0 36516.3 0 0 -36516.3 0 0 21788.4 0 0 -21788.4 0 0 6499.45 0 0 -6499.45
0 0 36207.3 0 0 -36207.3 0 0 20803.4 0 0 -20803.4 0 0 6636.14 0 0 -6636.14
0 0 35953.6 0 0 -35953.6 0 0 19859.6 0 0 -19859.6 0 0 6726.84 0 0 -6726.84
0 0 35778.2 0 0 -35778.2 0 0 18981.8 0 0 -18981.8 0 0 6766.11 0 0 -6766.11
0 0 35701.5 0 0 -35701.5 0 0 18192.1 0 0 -18192.1 0 0 6749.67 0 0 -6749.67
0 0 35739.5 0 0 -35739.5 0 0 17509.6 0 0 -17509.6 0 0 6674.49 0 0 -6674.49
0 0 35903 0 0 -35903 0 0 16949.7 0 0 -16949.7 0 0 6538.89 0 0 -6538.89
0 0 36196.7 0 0 -36196.7 0 0 16523.8 0 0 -16523.8 0 0 6342.67 0 0 -6342.67
0 0 36620.4 0 0 -36620.4 0 0 16239 0 0 -16239 0 0 6087.13 0 0 -6087.13
0 0 37169.5 0 0 -37169.5 0 0 16097.9 0 0 -16097.9 0 0 5775.08 0 0 -5775.08
0 0 37837.5 0 0 -37837.5 0 0 16098.5 0 0 -16098.5 0 0 5410.83 0 0 -5410.83
0 0 38584.5 0 0 -38584.5 0 0 16229.6 0 0 -16229.6 0 0 5000.4 0 0 -5000.4
0 0 39374.2 0 0 -39374.2 0 0 16491.6 0 0 -16491.6 0 0 4550.17 0 0 -4550.17
0 0 40195.7 0 0 -40195.7 0 0 16869.1 0 0 -16869.1 0 0 4068.36 0 0 -4068.36
0 0 41035.7 0 0 -41035.7 0 0 17342.3 0 0 -17342.3 0 0 3564.18 0 0 -3564.18
0 0 41888.2 0 0 -41888.2 0 0 17888 0 0 -17888 0 0 3047.45 0 0 -3047.45
0 0 42741 0 0 -42741 0 0 18481.3 0 0 -18481.3 0 0 2528.61 0 0 -2528.61
0 0 43578.3 0 0 -43578.3 0 0 19096.3 0 0 -19096.3 0 0 2018.24 0 0 -2018.24
0 0 44388.1 0 0 -44388.1 0 0 19706.3 0 0 -19706.3 0 0 1526.92 0 0 -1526.92
0 0 45158.9 0 0 -45158.9 0 0 20285.1 0 0 -20285.1 0 0 1064.78 0 0 -1064.78
0 0 45875.1 0 0 -45875.1 0 0 20809.6 0 0 -20809.6 0 0 641.272 0 0 -641.272
0 0 46516.1 0 0 -46516.1 0 0 21260 0 0 -21260 0 0 264.924 0 0 -264.924
0 0 47058.2 0 0 -47058.2 0 0 21619.5 0 0 -21619.5 0 0 -57.2822 0 0 57.2822
0 0 47477.4 0 0 -47477.4 0 0 21874.9 0 0 -21874.9 0 0 -321.505 0 0 321.505
0 0 47751.4 0 0 -47751.4 0 0 22018.2 0 0 -22018.2 0 0 -519.676 0 0 519.676
0 0 47863.3 0 0 -47863.3 0 0 22044.1 0 0 -22044.1 0 0 -648.049 0 0 648.049
0 0 47797.3 0 0 -47797.3 0 0 21950.9 0 0 -21950.9 0 0 -704.832 0 0 704.832
0 0 47544.4 0 0 -47544.4 0 0 21739.1 0 0 -21739.1 0 0 -689.764 0 0 689.764
0 0 47103.9 0 0 -47103.9 0 0 21413.5 0 0 -21413.5 0 0 -604.263 0 0 604.263
0 0 46480.8 0 0 -46480.8 0 0 20982.5 0 0 -20982.5 0 0 -451.279 0 0 451.279
0 0 45690.1 0 0 -45690.1 0 0 20456.9 0 0 -20456.9 0 0 -235.106 0 0 235.106
0 0 44756.2 0 0 -44756.2 0 0 19848.8 0 0 -19848.8 0 0 35.4034 0 0 -35.4034
0 0 43707.4 0 0 -43707.4 0 0 19173.4 0 0 -19173.4 0 0 355.328 0 0 -355.328
0 0 42573 0 0 -42573 0 0 18448.5 0 0 -18448.5 0 0 718.129 0 0 -718.129
0 0 41380.7 0 0 -41380.7 0 0 17694.3 0 0 -17694.3 0 0 1115.12 0 0 -1115.12
0 0 40154.6 0 0 -40154.6 0 0 16932.8 0 0 -16932.8 0 0 1537.2 0 0 -1537.2
0 0 38916.5 0 0 -38916.5 0 0 16186.8 0 0 -16186.8 0 0 1974.72 0 0 -1974.72
0 0 37688.6 0 0 -37688.6 0 0 15478.9 0 0 -15478.9 0 0 2418.02 0 0 -2418.02
0 0 36495.4 0 0 -36495.4 0 0 14830.8 0 0 -14830.8 0 0 2857.64 0 0 -2857.64
0 0 35362.3 0 0 -35362.3 0 0 14262 0 0 -14262 0 0 3284.5 0 0 -3284.5
0 0 34314.6 0 0 -34314.6 0 0 13790.2 0 0 -13790.2 0 0 3690.06 0 0 -3690.06
0 0 33376.8 0 0 -33376.8 0 0 13429.8 0 0 -13429.8 0 0 4066.51 0 0 -4066.51
0 0 32571.6 0 0 -32571.6 0 0 13192.5 0 0 -13192.5 0 0 4407 0 0 -4407
0 0 31918 0 0 -31918 0 0 13086.8 0 0 -13086.8 0 0 4705.73 0 0 -4705.73
0 0 31429.3 0 0 -31429.3 0 0 13118.1 0 0 -13118.1 0 0 4958.15 0 0 -4958.15
0 0 31110.6 0 0 -31110.6 0 0 13288.9 0 0 -13288.9 0 0 5160.91 0 0 -5160.91
0 0 30957.2 0 0 -30957.2 0 0 13598.6 0 0 -13598.6 0 0 5311.95 0 0 -5311.95
0 0 30954.9 0 0 -30954.9 0 0 14043.8 0 0 -14043.8 0 0 5410.51 0 0 -5410.51
0 0 31082 0 0 -31082 0 0 14617.7 0 0 -14617.7 0 0 5457.18 0 0 -5457.18
0 0 31311 0 0 -31311 0 0 15310 0 0 -15310 0 0 5453.91 0 0 -5453.91
0 0 31608.6 0 0 -31608.6 0 0 16106.9 0 0 -16106.9 0 0 5403.88 0 0 -5403.88
0 0 31937 0 0 -31937 0 0 16991.2 0 0 -16991.2 0 0 5311.41 0 0 -5311.41
0 0 32257.3 0 0 -32257.3 0 0 17942.1 0 0 -17942.1 0 0 5181.89 0 0 -5181.89
0 0 32531.6 0 0 -32531.6 0 0 18935.5 0 0 -18935.5 0 0 5021.6 0 0 -5021.6
0 0 32724.3 0 0 -32724.3 0 0 19944.2 0 0 -19944.2 0 0 4837.55 0 0 -4837.55
0 0 32802.9 0 0 -32802.9 0 0 20938.6 0 0 -20938.6 0 0 4637.24 0 0 -4637.24
0 0 32740.5 0 0 -32740.5 0 0 21887.3 0 0 -21887.3 0 0 4428.46 0 0 -4428.46
0 0 32515.4 0 0 -32515.4 0 0 22757.8 0 0 -22757.8 0 0 4218.99 0 0 -4218.99
0 0 32111.9 0 0 -32111.9 0 0 23517.9 0 0 -23517.9 0 0 4016.37 0 0 -4016.37
0 0 31518.5 0 0 -31518.5 0 0 24136.5 0 0 -24136.5 0 0 3827.61 0 0 -3827.61
0 0 30726.6 0 0 -30726.6 0 0 24585.1 0 0 -24585.1 0 0 3658.97 0 0 -3658.97
0 0 29729.6 0 0 -29729.6 0 0 24839 0 0 -24839 0 0 3515.66 0 0 -3515.66
0 0 28522 0 0 -28522 0 0 24877.9 0 0 -24877.9 0 0 3401.73 0 0 -3401.73
0 0 27101 0 0 -27101 0 0 24686.5 0 0 -24686.5 0 0 3319.86 0 0 -3319.86
0 0 25467.8 0 0 -25467.8 0 0 24254.8 0 0 -24254.8 0 0 3271.3 0 0 -3271.3
0 0 23628.1 0 0 -23628.1 0 0 23578.3 0 0 -23578.3 0 0 3255.8 0 0 -3255.8
0 0 21592.4 0 0 -21592.4 0 0 22658.3 0 0 -22658.3 0 0 3271.62 0 0 -3271.62
0 0 19375.7 0 0 -19375.7 0 0 21501.5 0 0 -21501.5 0 0 3315.53 0 0 -3315.53
0 0 16996.7 0 0 -16996.7 0 0 20120.4 0 0 -20120.4 0 0 3382.92 0 0 -3382.92
0 0 14508.9 0 0 -14508.9 0 0 18529.7 0 0 -18529.7 0 0 3467.9 0 0 -3467.9
0 0 11993.5 0 0 -11993.5 0 0 16739.6 0 0 -16739.6 0 0 3564.15 0 0 -3564.15
0 0 9400.87 0 0 -9400.87 0 0 14801.6 0 0 -14801.6 0 0 3661.86 0 0 -3661.86
0 0 6742.27 0 0 -6742.27 0 0 12730.2 0 0 -12730.2 0 0 3754.58 0 0 -3754.58
0 0 4034.04 0 0 -4034.04 0 0 10574.1 0 0 -10574.1 0 0 3831.5 0 0 -3831.5
0 0 1328.48 0 0 -1328.48 0 0 8362.57 0 0 -8362.57 0 0 3884 0 0 -3884
0 0 -1283.14 0 0 1283.14 0 0 6131.3 0 0 -6131.3 0 0 3903.01 0 0 -3903.01
0 0 -3804.99 0 0 3804.99 0 0 3924.46 0 0 -3924.46 0 0 3879.3 0 0 -3879.3
0 0 -6201.26 0 0 6201.26 0 0 1760.61 0 0 -1760.61 0 0 3806.37 0 0 -3806.37
0 0 -8430.26 0 0 8430.26 0 0 -339.709 0 0 339.709 0 0 3677.19 0 0 -3677.19
0 0 -10484 0 0 10484 0 0 -2350.34 0 0 2350.34 0 0 3485.06 0 0 -3485.06
0 0 -12346 0 0 12346 0 0 -4233.8 0 0 4233.8 0 0 3227.51 0 0 -3227.51
0 0 -13986.1 0 0 13986.1 0 0 -5962.55 0 0 5962.55 0 0 2901.8 0 0 -2901.8
0 0 -15391.9 0 0 15391.9 0 0 -7516.93 0 0 7516.93 0 0 2506.93 0 0 -2506.93
0 0 -16567.6 0 0 16567.6 0 0 -8880.05 0 0 8880.05 0 0 2043.69 0 0 -2043.69
0 0 -17517 0 0 17517 0 0 -10043.8 0 0 10043.8 0 0 1514.74 0 0 -1514.74
0 0 -18244.9 0 0 18244.9 0 0 -11006 0 0 11006 0 0 924.588 0 0 -924.588
0 0 -18767.6 0 0 18767.6 0 0 -11766.6 0 0 11766.6 0 0 279.23 0 0 -279.23
0 0 -19108.7 0 0 19108.7 0 0 -12332.1 0 0 12332.1 0 0 -423.706 0 0 423.706
0 0 -19296.4 0 0 19296.4 0 0 -12710.2 0 0 12710.2 0 0 -1165.83 0 0 1165.83
0 0 -19362.2 0 0 19362.2 0 0 -12917.7 0 0 12917.7 0 0 -1936.02 0 0 1936.02
0 0 -19343.1 0 0 19343.1 0 0 -12972.9 0 0 12972.9 0 0 -2722 0 0 2722
0 0 -19280.7 0 0 19280.7 0 0 -12897.9 0 0 12897.9 0 0 -3511.13 0 0 3511.13
0 0 -19218.2 0 0 19218.2 0 0 -12719.2 0 0 12719.2 0 0 -4290.51 0 0 4290.51
0 0 -19196.7 0 0 19196.7 0 0 -12466 0 0 12466 0 0 -5046.9 0 0 5046.9
0 0 -19254.9 0 0 19254.9 0 0 -12169.1 0 0 12169.1 0 0 -5766.84 0 0 5766.84
0 0 -19420.9 0 0 19420.9 0 0 -11860.4 0 0 11860.4 0 0 -6437.05 0 0 6437.05
0 0 -19725 0 0 19725 0 0 -11569.9 0 0 11569.9 0 0 -7045.14 0 0 7045.14
0 0 -20190.8 0 0 20190.8 0 0 -11329.8 0 0 11329.8 0 0 -7575.48 0 0 7575.48
0 0 -20854.4 0 0 20854.4 0 0 -11102.3 0 0 11102.3 0 0 -7721.7 0 0 7721.7
0 0 -21721 0 0 21721 0 0 -10903.4 0 0 10903.4 0 0 -7741.52 0 0 7741.52
0 0 -22773 0 0 22773 0 0 -10887.7 0 0 10887.7 0 0 -7757.25 0 0 7757.25
0 0 -24025.7 0 0 24025.7 0 0 -11026.7 0 0 11026.7 0 0 -7768.27 0 0 7768.27
0 0 -25458 0 0 25458 0 0 -11386.2 0 0 11386.2 0 0 -7773.15 0 0 7773.15
0 0 -27070.7 0 0 27070.7 0 0 -11946.9 0 0 11946.9 0 0 -7735.17 0 0 7735.17
0 0 -28870.1 0 0 28870.1 0 0 -12655.5 0 0 12655.5 0 0 -7608.46 0 0 7608.46
0 0 -30844.7 0 0 30844.7 0 0 -13508.9 0 0 13508.9 0 0 -7401 0 0 7401
0 0 -32984.5 0 0 32984.5 0 0 -14503.4 0 0 14503.4 0 0 -7115.78 0 0 7115.78
0 0 -35276.8 0 0 35276.8 0 0 -15631.5 0 0 15631.5 0 0 -6749.14 0 0 6749.14
0 0 -37701.9 0 0 37701.9 0 0 -16870.6 0 0 16870.6 0 0 -6306.97 0 0 6306.97
0 0 -40235 0 0 40235 0 0 -18187.6 0 0 18187.6 0 0 -5806.23 0 0 5806.23
0 0 -42847.3 0 0 42847.3 0 0 -19551.5 0 0 19551.5 0 0 -5266.25 0 0 5266.25
0 0 -45506.4 0 0 45506.4 0 0 -20935.9 0 0 20935.9 0 0 -4701.11 0 0 4701.11
0 0 -48175.3 0 0 48175.3 0 0 -22314.5 0 0 22314.5 0 0 -4119.85 0 0 4119.85
0 0 -50813.3 0 0 50813.3 0 0 -23658.6 0 0 23658.6 0 0 -3532.33 0 0 3532.33
0 0 -53378.7 0 0 53378.7 0 0 -24937.8 0 0 24937.8 0 0 -2952.81 0 0 2952.81
0 0 -55829.8 0 0 55829.8 0 0 -26124.2 0 0 26124.2 0 0 -2397.81 0 0 2397.81
0 0 -58125.4 0 0 58125.4 0 0 -27193.9 0 0 27193.9 0 0 -1881.74 0 0 1881.74
0 0 -60216.6 0 0 60216.6 0 0 -28126.2 0 0 28126.2 0 0 -1414.88 0 0 1414.88
0 0 -60765.1 0 0 60765.1 0 0 -28623.9 0 0 28623.9 0 0 -1023.85 0 0 1023.85
0 0 -61139.4 0 0 61139.4 0 0 -28727.8 0 0 28727.8 0 0 -713.057 0 0 713.057
0 0 -61453.6 0 0 61453.6 0 0 -28917.3 0 0 28917.3 0 0 -447.227 0 0 447.227
0 0 -61671.3 0 0 61671.3 0 0 -29000.4 0 0 29000.4 0 0 -250.364 0 0 250.364
0 0 -61822 0 0 61822 0 0 -28970.9 0 0 28970.9 0 0 -134.352 0 0 134.352
0 0 -61889.8 0 0 61889.8 0 0 -28935.8 0 0 28935.8 0 0 -75.442 0 0 75.442
0 0 -61784.8 0 0 61784.8 0 0 -28850.2 0 0 28850.2 0 0 -82.0868 0 0 82.0868
0 0 -61425.1 0 0 61425.1 0 0 -28599.7 0 0 28599.7 0 0 -162.231 0 0 162.231
0 0 -60831.6 0 0 60831.6 0 0 -28192.4 0 0 28192.4 0 0 -315.604 0 0 315.604
0 0 -60027.4 0 0 60027.4 0 0 -27657.4 0 0 27657.4 0 0 -533.846 0 0 533.846
0 0 -58984.4 0 0 58984.4 0 0 -27015.2 0 0 27015.2 0 0 -813.303 0 0 813.303
0 0 -57745.7 0 0 57745.7 0 0 -26278.4 0 0 26278.4 0 0 -1145.29 0 0 1145.29
0 0 -56371 0 0 56371 0 0 -25454.1 0 0 25454.1 0 0 -1523.17 0 0 1523.17
0 0 -54884 0 0 54884 0 0 -24570.7 0 0 24570.7 0 0 -1937.48 0 0 1937.48
0 0 -53310.1 0 0 53310.1 0 0 -23658.6 0 0 23658.6 0 0 -2378.38 0 0 2378.38
0 0 -51697.3 0 0 51697.3 0 0 -22740.3 0 0 22740.3 0 0 -2835.49 0 0 2835.49
0 0 -50092.3 0 0 50092.3 0 0 -21835.7 0 0 21835.7 0 0 -3298.27 0 0 3298.27
0 0 -48530.8 0 0 48530.8 0 0 -20968.7 0 0 20968.7 0 0 -3756.18 0 0 3756.18
0 0 -47049.4 0 0 47049.4 0 0 -20164.9 0 0 20164.9 0 0 -4198.98 0 0 4198.98
0 0 -45689.2 0 0 45689.2 0 0 -19446.2 0 0 19446.2 0 0 -4617.09 0 0 4617.09
0 0 -44485.9 0 0 44485.9 0 0 -18831.2 0 0 18831.2 0 0 -5001.65 0 0 5001.65
0 0 -43468.1 0 0 43468.1 0 0 -18335.9 0 0 18335.9 0 0 -5344.61 0 0 5344.61
0 0 -42661.3 0 0 42661.3 0 0 -17974.2 0 0 17974.2 0 0 -5639.02 0 0 5639.02
0 0 -42087.1 0 0 42087.1 0 0 -17757.4 0 0 17757.4 0 0 -5879.27 0 0 5879.27
0 0 -41760 0 0 41760 0 0 -17693.2 0 0 17693.2 0 0 -6061.19 0 0 6061.19
0 0 -41669.2 0 0 41669.2 0 0 -17787.7 0 0 17787.7 0 0 -6182.07 0 0 6182.07
0 0 -41721.3 0 0 41721.3 0 0 -18054.9 0 0 18054.9 0 0 -6240.02 0 0 6240.02
0 0 -41920.3 0 0 41920.3 0 0 -18486.2 0 0 18486.2 0 0 -6235.78 0 0 6235.78
0 0 -42260 0 0 42260 0 0 -19070.4 0 0 19070.4 0 0 -6171.67 0 0 6171.67
0 0 -42730.5 0 0 42730.5 0 0 -19793.5 0 0 19793.5 0 0 -6051.26 0 0 6051.26
0 0 -43317.8 0 0 43317.8 0 0 -20635.8 0 0 20635.8 0 0 -5879.82 0 0 5879.82
0 0 -44004.6 0 0 44004.6 0 0 -21573.2 0 0 21573.2 0 0 -5663.85 0 0 5663.85
0 0 -44770.1 0 0 44770.1 0 0 -22579.1 0 0 22579.1 0 0 -5410.89 0 0 5410.89
0 0 -45589.7 0 0 45589.7 0 0 -23625.6 0 0 23625.6 0 0 -5129.25 0 0 5129.25
0 0 -46435.5 0 0 46435.5 0 0 -24683.8 0 0 24683.8 0 0 -4827.77 0 0 4827.77
0 0 -47277.3 0 0 47277.3 0 0 -25724.2 0 0 25724.2 0 0 -4515.62 0 0 4515.62
0 0 -48084.3 0 0 48084.3 0 0 -26717.1 0 0 26717.1 0 0 -4202.03 0 0 4202.03
0 0 -48825.8 0 0 48825.8 0 0 -27634.3 0 0 27634.3 0 0 -3896 0 0 3896
0 0 -49473.2 0 0 49473.2 0 0 -28449.5 0 0 28449.5 0 0 -3606.05 0 0 3606.05
0 0 -50000.5 0 0 50000.5 0 0 -29138.9 0 0 29138.9 0 0 -3339.98 0 0 3339.98
0 0 -50386.1 0 0 50386.1 0 0 -29681.3 0 0 29681.3 0 0 -3104.69 0 0 3104.69
0 0 -50613.3 0 0 50613.3 0 0 -30059 0 0 30059 0 0 -2906.02 0 0 2906.02
0 0 -50671.2 0 0 50671.2 0 0 -30258.2 0 0 30258.2 0 0 -2748.51 0 0 2748.51
0 0 -50553.8 0 0 50553.8 0 0 -30269.8 0 0 30269.8 0 0 -2635.34 0 0 2635.34
0 0 -50258.9 0 0 50258.9 0 0 -30089.6 0 0 30089.6 0 0 -2568.21 0 0 2568.21
0 0 -49786.6 0 0 49786.6 0 0 -29718.5 0 0 29718.5 0 0 -2547.29 0 0 2547.29
0 0 -49137.8 0 0 49137.8 0 0 -29162.9 0 0 29162.9 0 0 -2571.26 0 0 2571.26
0 0 -48313.4 0 0 48313.4 0 0 -28434.3 0 0 28434.3 0 0 -2637.33 0 0 2637.33
0 0 -47315.4 0 0 47315.4 0 0 -27549.1 0 0 27549.1 0 0 -2741.38 0 0 2741.38
0 0 -46149.1 0 0 46149.1 0 0 -26527.3 0 0 26527.3 0 0 -2878.09 0 0 2878.09
0 0 -44824.5 0 0 44824.5 0 0 -25391.7 0 0 25391.7 0 0 -3041.18 0 0 3041.18
0 0 -43355.9 0 0 43355.9 0 0 -24166.9 0 0 24166.9 0 0 -3223.56 0 0 3223.56
0 0 -41761.4 0 0 41761.4 0 0 -22879.1 0 0 22879.1 0 0 -3417.6 0 0 3417.6
0 0 -40061.2 0 0 40061.2 0 0 -21555 0 0 21555 0 0 -3615.32 0 0 3615.32
0 0 -38276.7 0 0 38276.7 0 0 -20221.2 0 0 20221.2 0 0 -3808.65 0 0 3808.65
0 0 -36428.5 0 0 36428.5 0 0 -18903.4 0 0 18903.4 0 0 -3989.65 0 0 3989.65
0 0 -34536 0 0 34536 0 0 -17626.1 0 0 17626.1 0 0 -4150.76 0 0 4150.76
0 0 -32617.8 0 0 32617.8 0 0 -16411.1 0 0 16411.1 0 0 -4284.98 0 0 4284.98
0 0 -30693.5 0 0 30693.5 0 0 -15277.3 0 0 15277.3 0 0 -4386.14 0 0 4386.14
0 0 -28786.3 0 0 28786.3 0 0 -14239.1 0 0 14239.1 0 0 -4449.05 0 0 4449.05
0 0 -26924 0 0 26924 0 0 -13306.1 0 0 13306.1 0 0 -4469.61 0 0 4469.61
0 0 -25137.5 0 0 25137.5 0 0 -12483.7 0 0 12483.7 0 0 -4444.93 0 0 4444.93
0 0 -23456.8 0 0 23456.8 0 0 -11773 0 0 11773 0 0 -4373.31 0 0 4373.31
0 0 -21906.9 0 0 21906.9 0 0 -11171.9 0 0 11171.9 0 0 -4254.27 0 0 4254.27
0 0 -20505.3 0 0 20505.3 0 0 -10675.8 0 0 10675.8 0 0 -4088.43 0 0 4088.43
0 0 -19259.9 0 0 19259.9 0 0 -10278.1 0 0 10278.1 0 0 -3877.55 0 0 3877.55
0 0 -18169.8 0 0 18169.8 0 0 -9970.25 0 0 9970.25 0 0 -3624.38 0 0 3624.38
0 0 -17226.7 0 0 17226.7 0 0 -9742.31 0 0 9742.31 0 0 -3332.62 0 0 3332.62
0 0 -16416.3 0 0 16416.3 0 0 -9582.76 0 0 9582.76 0 0 -3006.84 0 0 3006.84
0 0 -15719.2 0 0 15719.2 0 0 -9478.86 0 0 9478.86 0 0 -2652.31 0 0 2652.31
0 0 -15111.9 0 0 15111.9 0 0 -9416.92 0 0 9416.92 0 0 -2274.91 0 0 2274.91
0 0 -14568.6 0 0 14568.6 0 0 -9382.45 0 0 9382.45 0 0 -1881.01 0 0 1881.01
0 0 -14062.7 0 0 14062.7 0 0 -9360.29 0 0 9360.29 0 0 -1477.26 0 0 1477.26
0 0 -13567.8 0 0 13567.8 0 0 -9334.98 0 0 9334.98 0 0 -1070.5 0 0 1070.5
0 0 -13056.3 0 0 13056.3 0 0 -9291.42 0 0 9291.42 0 0 -667.555 0 0 667.555
0 0 -12498.8 0 0 12498.8 0 0 -9215.39 0 0 9215.39 0 0 -275.053 0 0 275.053
0 0 -11862.8 0 0 11862.8 0 0 -9098.22 0 0 9098.22 0 0 66.6517 0 0 -66.6517
0 0 -11116.1 0 0 11116.1 0 0 -8938.52 0 0 8938.52 0 0 375.882 0 0 -375.882
0 0 -10235.5 0 0 10235.5 0 0 -8706.54 0 0 8706.54 0 0 657.64 0 0 -657.64
0 0 -9197.55 0 0 9197.55 0 0 -8396.63 0 0 8396.63 0 0 913.022 0 0 -913.022
0 0 -8026.54 0 0 8026.54 0 0 -7992.11 0 0 7992.11 0 0 1136.67 0 0 -1136.67
0 0 -7093.39 0 0 7093.39 0 0 -7426.67 0 0 7426.67 0 0 1325.19 0 0 -1325.19
0 0 -6064.64 0 0 6064.64 0 0 -6778.09 0 0 6778.09 0 0 1480.37 0 0 -1480.37
0 0 -4920.63 0 0 4920.63 0 0 -6011.72 0 0 6011.72 0 0 1601.79 0 0 -1601.79
0 0 -3590.93 0 0 3590.93 0 0 -5163.3 0 0 5163.3 0 0 1689.52 0 0 -1689.52
0 0 -2106.46 0 0 2106.46 0 0 -4235.15 0 0 4235.15 0 0 1745.53 0 0 -1745.53
0 0 -510.706 0 0 510.706 0 0 -3232.75 0 0 3232.75 0 0 1770.7 0 0 -1770.7
0 0 997.021 0 0 -997.021 0 0 -2215.1 0 0 2215.1 0 0 1770.17 0 0 -1770.17
0 0 2581.43 0 0 -2581.43 0 0 -1167.31 0 0 1167.31 0 0 1743.51 0 0 -1743.51
0 0 4220.99 0 0 -4220.99 0 0 -66.0348 0 0 66.0348 0 0 1691.6 0 0 -1691.6
0 0 5867.15 0 0 -5867.15 0 0 1047.01 0 0 -1047.01 0 0 1619.41 0 0 -1619.41
0 0 7532.05 0 0 -7532.05 0 0 2174.45 0 0 -2174.45 0 0 1532.1 0 0 -1532.1
0 0 9208.34 0 0 -9208.34 0 0 3294.51 0 0 -3294.51 0 0 1434.33 0 0 -1434.33
0 0 10860.2 0 0 -10860.2 0 0 4407.6 0 0 -4407.6 0 0 1331.57 0 0 -1331.57
0 0 12465.8 0 0 -12465.8 0 0 5496.28 0 0 -5496.28 0 0 1229.04 0 0 -1229.04
0 0 14021.8 0 0 -14021.8 0 0 6539.62 0 0 -6539.62 0 0 1132.35 0 0 -1132.35
0 0 15513.8 0 0 -15513.8 0 0 7524.42 0 0 -7524.42 0 0 1046.24 0 0 -1046.24
0 0 16919.7 0 0 -16919.7 0 0 8442.98 0 0 -8442.98 0 0 974.938 0 0 -974.938
0 0 18227 0 0 -18227 0 0 9285.47 0 0 -9285.47 0 0 922.372 0 0 -922.372
0 0 19429.3 0 0 -19429.3 0 0 10039.8 0 0 -10039.8 0 0 892.139 0 0 -892.139
0 0 20519.1 0 0 -20519.1 0 0 10697.3 0 0 -10697.3 0 0 887.061 0 0 -887.061
0 0 21489.4 0 0 -21489.4 0 0 11253.2 0 0 -11253.2 0 0 909.036 0 0 -909.036
0 0 22338.7 0 0 -22338.7 0 0 11705.4 0 0 -11705.4 0 0 959.141 0 0 -959.141
0 0 23068.9 0 0 -23068.9 0 0 12052.4 0 0 -12052.4 0 0 1037.71 0 0 -1037.71
0 0 23682.7 0 0 -23682.7 0 0 12295.1 0 0 -12295.1 0 0 1144.31 0 0 -1144.31
0 0 24185.2 0 0 -24185.2 0 0 12436.9 0 0 -12436.9 0 0 1277.68 0 0 -1277.68
0 0 24585.4 0 0 -24585.4 0 0 12483.8 0 0 -12483.8 0 0 1435.72 0 0 -1435.72
0 0 24895.4 0 0 -24895.4 0 0 12443.9 0 0 -12443.9 0 0 1615.57 0 0 -1615.57
0 0 25129.6 0 0 -25129.6 0 0 12326.7 0 0 -12326.7 0 0 1805.02 0 0 -1805.02
0 0 25306.8 0 0 -25306.8 0 0 12135.6 0 0 -12135.6 0 0 1992.33 0 0 -1992.33
0 0 25443.5 0 0 -25443.5 0 0 11887.8 0 0 -11887.8 0 0 2186.71 0 0 -2186.71
0 0 25558.7 0 0 -25558.7 0 0 11602.3 0 0 -11602.3 0 0 2386.24 0 0 -2386.24
0 0 25672.7 0 0 -25672.7 0 0 11292.5 0 0 -11292.5 0 0 2586.04 0 0 -2586.04
0 0 25803.6 0 0 -25803.6 0 0 10976.2 0 0 -10976.2 0 0 2781.31 0 0 -2781.31
0 0 25970.2 0 0 -25970.2 0 0 10667.7 0 0 -10667.7 0 0 2968.58 0 0 -2968.58
0 0 26190.8 0 0 -26190.8 0 0 10383 0 0 -10383 0 0 3144.14 0 0 -3144.14
0 0 26482.8 0 0 -26482.8 0 0 10138.4 0 0 -10138.4 0 0 3303.95 0 0 -3303.95
0 0 26861.2 0 0 -26861.2 0 0 9949.28 0 0 -9949.28 0 0 3444.03 0 0 -3444.03
0 0 27338.2 0 0 -27338.2 0 0 9829.52 0 0 -9829.52 0 0 3561.05 0 0 -3561.05
0 0 27922 0 0 -27922 0 0 9791.48 0 0 -9791.48 0 0 3652.64 0 0 -3652.64
0 0 28615.5 0 0 -28615.5 0 0 9846.36 0 0 -9846.36 0 0 3717.18 0 0 -3717.18
0 0 29417.6 0 0 -29417.6 0 0 10003.7 0 0 -10003.7 0 0 3753.54 0 0 -3753.54
0 0 30323.2 0 0 -30323.2 0 0 10270.8 0 0 -10270.8 0 0 3760.64 0 0 -3760.64
0 0 31324.9 0 0 -31324.9 0 0 10650.6 0 0 -10650.6 0 0 3735.34 0 0 -3735.34
0 0 32413.1 0 0 -32413.1 0 0 11143.4 0 0 -11143.4 0 0 3678.59 0 0 -3678.59
0 0 33576.8 0 0 -33576.8 0 0 11747 0 0 -11747 0 0 3592.89 0 0 -3592.89
0 0 34803.8 0 0 -34803.8 0 0 12455.4 0 0 -12455.4 0 0 3481.55 0 0 -3481.55
0 0 36081.2 0 0 -36081.2 0 0 13260.1 0 0 -13260.1 0 0 3348.49 0 0 -3348.49
0 0 37395.8 0 0 -37395.8 0 0 14148.8 0 0 -14148.8 0 0 3198.38 0 0 -3198.38
0 0 38734.5 0 0 -38734.5 0 0 15106.8 0 0 -15106.8 0 0 3036.69 0 0 -3036.69
0 0 40084.7 0 0 -40084.7 0 0 16116.9 0 0 -16116.9 0 0 2869.43 0 0 -2869.43
0 0 41430.7 0 0 -41430.7 0 0 17161.2 0 0 -17161.2 0 0 2702.88 0 0 -2702.88
0 0 42738.7 0 0 -42738.7 0 0 18224.9 0 0 -18224.9 0 0 2543.09 0 0 -2543.09
0 0 44004 0 0 -44004 0 0 19284.9 0 0 -19284.9 0 0 2396.48 0 0 -2396.48
0 0 45219.4 0 0 -45219.4 0 0 20320.8 0 0 -20320.8 0 0 2269.17 0 0 -2269.17
0 0 46377.9 0 0 -46377.9 0 0 21312.7 0 0 -21312.7 0 0 2166.78 0 0 -2166.78
0 0 47470 0 0 -47470 0 0 22242.9 0 0 -22242.9 0 0 2094.5 0 0 -2094.5
0 0 48485.2 0 0 -48485.2 0 0 23095.8 0 0 -23095.8 0 0 2056.67 0 0 -2056.67
0 0 49413.9 0 0 -49413.9 0 0 23858.4 0 0 -23858.4 0 0 2056.73 0 0 -2056.73
0 0 50179.9 0 0 -50179.9 0 0 24536.8 0 0 -24536.8 0 0 2096.31 0 0 -2096.31
0 0 50787 0 0 -50787 0 0 25117.7 0 0 -25117.7 0 0 2177.42 0 0 -2177.42
0 0 51260.1 0 0 -51260.1 0 0 25591.8 0 0 -25591.8 0 0 2300.31 0 0 -2300.31
0 0 51589.7 0 0 -51589.7 0 0 25952.4 0 0 -25952.4 0 0 2465.72 0 0 -2465.72
0 0 51769.2 0 0 -51769.2 0 0 26208.7 0 0 -26208.7 0 0 2670.72 0 0 -2670.72
0 0 51802.7 0 0 -51802.7 0 0 26358.6 0 0 -26358.6 0 0 2913.5 0 0 -2913.5
0 0 51688.8 0 0 -51688.8 0 0 26402.3 0 0 -26402.3 0 0 3190.55 0 0 -3190.55
0 0 51434.7 0 0 -51434.7 0 0 26345.5 0 0 -26345.5 0 0 3497.81 0 0 -3497.81
0 0 51051.9 0 0 -51051.9 0 0 26199.1 0 0 -26199.1 0 0 3815.25 0 0 -3815.25
0 0 50560.9 0 0 -50560.9 0 0 25960.2 0 0 -25960.2 0 0 4122.46 0 0 -4122.46
0 0 49975.8 0 0 -49975.8 0 0 25654 0 0 -25654 0 0 4440.08 0 0 -4440.08
0 0 49314.8 0 0 -49314.8 0 0 25298.1 0 0 -25298.1 0 0 4764.25 0 0 -4764.25
0 0 48596.3 0 0 -48596.3 0 0 24906.2 0 0 -24906.2 0 0 5087.18 0 0 -5087.18
0 0 47837.6 0 0 -47837.6 0 0 24496.8 0 0 -24496.8 0 0 5402.47 0 0 -5402.47
0 0 47059.8 0 0 -47059.8 0 0 24081.7 0 0 -24081.7 0 0 5705.56 0 0 -5705.56
0 0 46283 0 0 -46283 0 0 23675.6 0 0 -23675.6 0 0 5991.42 0 0 -5991.42
0 0 45526.5 0 0 -45526.5 0 0 23292.5 0 0 -23292.5 0 0 6254.45 0 0 -6254.45
0 0 44807.4 0 0 -44807.4 0 0 22945.5 0 0 -22945.5 0 0 6488.94 0 0 -6488.94
0 0 44124.1 0 0 -44124.1 0 0 22647.6 0 0 -22647.6 0 0 6690.1 0 0 -6690.1
0 0 43433.9 0 0 -43433.9 0 0 22414.9 0 0 -22414.9 0 0 6854.17 0 0 -6854.17
0 0 42739 0 0 -42739 0 0 22252.5 0 0 -22252.5 0 0 6978.88 0 0 -6978.88
0 0 42035.1 0 0 -42035.1 0 0 22163.1 0 0 -22163.1 0 0 7062.5 0 0 -7062.5
0 0 41316.5 0 0 -41316.5 0 0 22147.2 0 0 -22147.2 0 0 7103.59 0 0 -7103.59
0 0 40580.1 0 0 -40580.1 0 0 22200.1 0 0 -22200.1 0 0 7099.98 0 0 -7099.98
0 0 39828 0 0 -39828 0 0 22310 0 0 -22310 0 0 7048.61 0 0 -7048.61
0 0 39064.8 0 0 -39064.8 0 0 22463 0 0 -22463 0 0 6951.63 0 0 -6951.63
0 0 38293.8 0 0 -38293.8 0 0 22643 0 0 -22643 0 0 6812.5 0 0 -6812.5
0 0 37514.6 0 0 -37514.6 0 0 22832.6 0 0 -22832.6 0 0 6634.9 0 0 -6634.9
0 0 36722.6 0 0 -36722.6 0 0 23013.2 0 0 -23013.2 0 0 6422.96 0 0 -6422.96
0 0 35910 0 0 -35910 0 0 23165 0 0 -23165 0 0 6181.58 0 0 -6181.58
0 0 35068.2 0 0 -35068.2 0 0 23268 0 0 -23268 0 0 5916.26 0 0 -5916.26
0 0 34189 0 0 -34189 0 0 23302.7 0 0 -23302.7 0 0 5632.7 0 0 -5632.7
0 0 33263.2 0 0 -33263.2 0 0 23251.2 0 0 -23251.2 0 0 5336.32 0 0 -5336.32
0 0 32278.5 0 0 -32278.5 0 0 23097.3 0 0 -23097.3 0 0 5032.22 0 0 -5032.22
0 0 31220.8 0 0 -31220.8 0 0 22827.3 0 0 -22827.3 0 0 4725.14 0 0 -4725.14
0 0 30077.3 0 0 -30077.3 0 0 22429.8 0 0 -22429.8 0 0 4419.55 0 0 -4419.55
0 0 28839.8 0 0 -28839.8 0 0 21895.8 0 0 -21895.8 0 0 4119.45 0 0 -4119.45
0 0 27505.3 0 0 -27505.3 0 0 21218.9 0 0 -21218.9 0 0 3828.11 0 0 -3828.11
0 0 26074.8 0 0 -26074.8 0 0 20395.7 0 0 -20395.7 0 0 3548.01 0 0 -3548.01
0 0 24552.2 0 0 -24552.2 0 0 19426 0 0 -19426 0 0 3280.76 0 0 -3280.76
0 0 22941.8 0 0 -22941.8 0 0 18313.3 0 0 -18313.3 0 0 3027.24 0 0 -3027.24
0 0 21248 0 0 -21248 0 0 17065.3 0 0 -17065.3 0 0 2787.54 0 0 -2787.54
0 0 19473.6 0 0 -19473.6 0 0 15692.9 0 0 -15692.9 0 0 2560.96 0 0 -2560.96
0 0 17620.7 0 0 -17620.7 0 0 14210.7 0 0 -14210.7 0 0 2346.03 0 0 -2346.03
0 0 15691.9 0 0 -15691.9 0 0 12635.9 0 0 -12635.9 0 0 2140.63 0 0 -2140.63
0 0 13691.2 0 0 -13691.2 0 0 10987.5 0 0 -10987.5 0 0 1942.16 0 0 -1942.16
0 0 11625.6 0 0 -11625.6 0 0 9285.91 0 0 -9285.91 0 0 1747.65 0 0 -1747.65
0 0 9505.73 0 0 -9505.73 0 0 7551.82 0 0 -7551.82 0 0 1553.98 0 0 -1553.98
0 0 7346.03 0 0 -7346.03 0 0 5805.72 0 0 -5805.72 0 0 1357.94 0 0 -1357.94
0 0 5163.35 0 0 -5163.35 0 0 4067.59 0 0 -4067.59 0 0 1156.32 0 0 -1156.32
0 0 2975.49 0 0 -2975.49 0 0 2356.53 0 0 -2356.53 0 0 946.108 0 0 -946.108
0 0 818.295 0 0 -818.295 0 0 687.632 0 0 -687.632 0 0 724.251 0 0 -724.251
0 0 -1145.06 0 0 1145.06 0 0 -896.124 0 0 896.124 0 0 485.232 0 0 -485.232
0 0 -3054.62 0 0 3054.62 0 0 -2396.59 0 0 2396.59 0 0 229.604 0 0 -229.604
0 0 -4900.47 0 0 4900.47 0 0 -3816.11 0 0 3816.11 0 0 -28.6346 0 0 28.6346
0 0 -6344.91 0 0 6344.91 0 0 -5196.74 0 0 5196.74 0 0 -284.337 0 0 284.337
0 0 -7682.17 0 0 7682.17 0 0 -6466.77 0 0 6466.77 0 0 -552.789 0 0 552.789
0 0 -8893.73 0 0 8893.73 0 0 -7620.24 0 0 7620.24 0 0 -838.019 0 0 838.019
0 0 -9980.7 0 0 9980.7 0 0 -8665.29 0 0 8665.29 0 0 -1134.81 0 0 1134.81
0 0 -10930.1 0 0 10930.1 0 0 -9589.68 0 0 9589.68 0 0 -1443.86 0 0 1443.86
0 0 -11751.8 0 0 11751.8 0 0 -10385.4 0 0 10385.4 0 0 -1763.48 0 0 1763.48
0 0 -12455.3 0 0 12455.3 0 0 -11048.6 0 0 11048.6 0 0 -2092.51 0 0 2092.51
0 0 -13044 0 0 13044 0 0 -11585.8 0 0 11585.8 0 0 -2427.29 0 0 2427.29
0 0 -13527.4 0 0 13527.4 0 0 -12003.2 0 0 12003.2 0 0 -2763.57 0 0 2763.57
0 0 -13923.2 0 0 13923.2 0 0 -12303.7 0 0 12303.7 0 0 -3097.27 0 0 3097.27
0 0 -14249.3 0 0 14249.3 0 0 -12492.3 0 0 12492.3 0 0 -3424.57 0 0 3424.57
0 0 -14523.1 0 0 14523.1 0 0 -12578.8 0 0 12578.8 0 0 -3741.41 0 0 3741.41
0 0 -14764 0 0 14764 0 0 -12575.8 0 0 12575.8 0 0 -4043.13 0 0 4043.13
0 0 -14993.3 0 0 14993.3 0 0 -12496.2 0 0 12496.2 0 0 -4324.65 0 0 4324.65
0 0 -15230.9 0 0 15230.9 0 0 -12353.2 0 0 12353.2 0 0 -4580.98 0 0 4580.98
0 0 -15495.5 0 0 15495.5 0 0 -12161.1 0 0 12161.1 0 0 -4807.53 0 0 4807.53
0 0 -15806.2 0 0 15806.2 0 0 -11935.6 0 0 11935.6 0 0 -5000.15 0 0 5000.15
0 0 -16180.7 0 0 16180.7 0 0 -11692.7 0 0 11692.7 0 0 -5154.98 0 0 5154.98
0 0 -16634.8 0 0 16634.8 0 0 -11448 0 0 11448 0 0 -5268.45 0 0 5268.45
0 0 -17181 0 0 17181 0 0 -11216.4 0 0 11216.4 0 0 -5337.47 0 0 5337.47
0 0 -17828.5 0 0 17828.5 0 0 -11012.3 0 0 11012.3 0 0 -5359.72 0 0 5359.72
0 0 -18583.1 0 0 18583.1 0 0 -10848.4 0 0 10848.4 0 0 -5328.53 0 0 5328.53
0 0 -19446.7 0 0 19446.7 0 0 -10735.1 0 0 10735.1 0 0 -5242.16 0 0 5242.16
0 0 -20417.9 0 0 20417.9 0 0 -10682.5 0 0 10682.5 0 0 -5100.78 0 0 5100.78
0 0 -21493.2 0 0 21493.2 0 0 -10698.2 0 0 10698.2 0 0 -4905.77 0 0 4905.77
0 0 -22667 0 0 22667 0 0 -10787.3 0 0 10787.3 0 0 -4659.37 0 0 4659.37
0 0 -23932.3 0 0 23932.3 0 0 -10952.2 0 0 10952.2 0 0 -4365.09 0 0 4365.09
0 0 -25281 0 0 25281 0 0 -11192 0 0 11192 0 0 -4027.69 0 0 4027.69
0 0 -26704.1 0 0 26704.1 0 0 -11503.2 0 0 11503.2 0 0 -3652.97 0 0 3652.97
0 0 -28191.8 0 0 28191.8 0 0 -11879.7 0 0 11879.7 0 0 -3247.45 0 0 3247.45
0 0 -29732.9 0 0 29732.9 0 0 -12313.3 0 0 12313.3 0 0 -2818.25 0 0 2818.25
0 0 -31314.5 0 0 31314.5 0 0 -12794.5 0 0 12794.5 0 0 -2373.03 0 0 2373.03
0 0 -32921.8 0 0 32921.8 0 0 -13312.3 0 0 13312.3 0 0 -1920 0 0 1920
0 0 -34538.4 0 0 34538.4 0 0 -13855 0 0 13855 0 0 -1467.65 0 0 1467.65
0 0 -36146.6 0 0 36146.6 0 0 -14410.5 0 0 14410.5 0 0 -1024.52 0 0 1024.52
0 0 -37728 0 0 37728 0 0 -14967.1 0 0 14967.1 0 0 -598.918 0 0 598.918
0 0 -39264.3 0 0 39264.3 0 0 -15513.2 0 0 15513.2 0 0 -198.853 0 0 198.853
0 0 -40736.7 0 0 40736.7 0 0 -16043.8 0 0 16043.8 0 0 139.176 0 0 -139.176
0 0 -42129.2 0 0 42129.2 0 0 -16551.1 0 0 16551.1 0 0 432.844 0 0 -432.844
0 0 -43429.6 0 0 43429.6 0 0 -17016 0 0 17016 0 0 685.296 0 0 -685.296
0 0 -44625.2 0 0 44625.2 0 0 -17433.2 0 0 17433.2 0 0 892.218 0 0 -892.218
0 0 -45707.2 0 0 45707.2 0 0 -17794.1 0 0 17794.1 0 0 1048.7 0 0 -1048.7
0 0 -46668.7 0 0 46668.7 0 0 -18097.9 0 0 18097.9 0 0 1152.6 0 0 -1152.6
0 0 -47505.8 0 0 47505.8 0 0 -18344.6 0 0 18344.6 0 0 1202.77 0 0 -1202.77
0 0 -48217.9 0 0 48217.9 0 0 -18534.4 0 0 18534.4 0 0 1196.63 0 0 -1196.63
0 0 -48806.6 0 0 48806.6 0 0 -18671.3 0 0 18671.3 0 0 1130 0 0 -1130
0 0 -49276.5 0 0 49276.5 0 0 -18759.9 0 0 18759.9 0 0 1003.28 0 0 -1003.28
0 0 -49633.8 0 0 49633.8 0 0 -18807.8 0 0 18807.8 0 0 818.907 0 0 -818.907
0 0 -49886.7 0 0 49886.7 0 0 -18824.2 0 0 18824.2 0 0 580.405 0 0 -580.405
0 0 -50046 0 0 50046 0 0 -18819 0 0 18819 0 0 292.046 0 0 -292.046
0 0 -50125.1 0 0 50125.1 0 0 -18803.1 0 0 18803.1 0 0 -39.9114 0 0 39.9114
0 0 -50142 0 0 50142 0 0 -18782.4 0 0 18782.4 0 0 -397.238 0 0 397.238
0 0 -50109.5 0 0 50109.5 0 0 -18771.9 0 0 18771.9 0 0 -786.108 0 0 786.108
0 0 -50048.8 0 0 50048.8 0 0 -18786.9 0 0 18786.9 0 0 -1201.27 0 0 1201.27
0 0 -49980.6 0 0 49980.6 0 0 -18838.9 0 0 18838.9 0 0 -1635.23 0 0 1635.23
0 0 -49910.8 0 0 49910.8 0 0 -18944 0 0 18944 0 0 -2081.06 0 0 2081.06
0 0 -49535.3 0 0 49535.3 0 0 -19163.7 0 0 19163.7 0 0 -2530.44 0 0 2530.44
0 0 -49221.6 0 0 49221.6 0 0 -19444.4 0 0 19444.4 0 0 -2981.48 0 0 2981.48
0 0 -49006.7 0 0 49006.7 0 0 -19785.9 0 0 19785.9 0 0 -3427.81 0 0 3427.81
0 0 -48881.8 0 0 48881.8 0 0 -20209.1 0 0 20209.1 0 0 -3862.89 0 0 3862.89
0 0 -48859.2 0 0 48859.2 0 0 -20712.5 0 0 20712.5 0 0 -4281.56 0 0 4281.56
0 0 -48953.9 0 0 48953.9 0 0 -21293.9 0 0 21293.9 0 0 -4679.93 0 0 4679.93
0 0 -49170.6 0 0 49170.6 0 0 -21951.2 0 0 21951.2 0 0 -5054.49 0 0 5054.49
0 0 -49507.5 0 0 49507.5 0 0 -22683.9 0 0 22683.9 0 0 -5402.28 0 0 5402.28
0 0 -49963.8 0 0 49963.8 0 0 -23489.7 0 0 23489.7 0 0 -5720.42 0 0 5720.42
0 0 -50493.8 0 0 50493.8 0 0 -24352.6 0 0 24352.6 0 0 -6007.42 0 0 6007.42
0 0 -51120.4 0 0 51120.4 0 0 -25265.4 0 0 25265.4 0 0 -6262.28 0 0 6262.28
0 0 -51850.2 0 0 51850.2 0 0 -26217 0 0 26217 0 0 -6484.77 0 0 6484.77
0 0 -52644.4 0 0 52644.4 0 0 -27211.2 0 0 27211.2 0 0 -6674.27 0 0 6674.27
0 0 -53506.8 0 0 53506.8 0 0 -28232.8 0 0 28232.8 0 0 -6831.3 0 0 6831.3
0 0 -54391.1 0 0 54391.1 0 0 -29273.7 0 0 29273.7 0 0 -6957.54 0 0 6957.54
0 0 -53658.2 0 0 53658.2 0 0 -9721.94 0 0 9721.94 0 0 -6872.49 0 0 6872.49
0 0 -45665.5 0 0 45665.5 0 0 -4330.56 0 0 4330.56 0 0 -5575.85 0 0 5575.85
0 0 -45146.3 0 0 45146.3 0 0 -244.387 0 0 244.387 0 0 -5913.3 0 0 5913.3
0 0 -47749 0 0 47749 0 0 -1108.09 0 0 1108.09 0 0 -5922.25 0 0 5922.25
0 0 -49046.4 0 0 49046.4 0 0 -3745.26 0 0 3745.26 0 0 -5743.64 0 0 5743.64
0 0 -48661.4 0 0 48661.4 0 0 -4150.49 0 0 4150.49 0 0 -5563.88 0 0 5563.88
0 0 -48994.9 0 0 48994.9 0 0 -2142.8 0 0 2142.8 0 0 -5492.19 0 0 5492.19
0 0 -49885.3 0 0 49885.3 0 0 -365.028 0 0 365.028 0 0 -5445.33 0 0 5445.33
0 0 -50329.5 0 0 50329.5 0 0 -565.12 0 0 565.12 0 0 -5331.16 0 0 5331.16
0 0 -50617.6 0 0 50617.6 0 0 -1615.93 0 0 1615.93 0 0 -5190.99 0 0 5190.99
0 0 -51122.2 0 0 51122.2 0 0 -1738.46 0 0 1738.46 0 0 -5093.9 0 0 5093.9
0 0 -51477.4 0 0 51477.4 0 0 -764.43 0 0 764.43 0 0 -5060.44 0 0 5060.44
0 0 -51520.2 0 0 51520.2 0 0 50.9464 0 0 -50.9464 0 0 -5065.83 0 0 5065.83
0 0 -51587 0 0 51587 0 0 38.6296 0 0 -38.6296 0 0 -5094.74 0 0 5094.74
0 0 -51782.6 0 0 51782.6 0 0 -331.621 0 0 331.621 0 0 -5157.46 0 0 5157.46
0 0 -51865.5 0 0 51865.5 0 0 -388.534 0 0 388.534 0 0 -5273.4 0 0 5273.4
0 0 -51731.1 0 0 51731.1 0 0 -71.6055 0 0 71.6055 0 0 -5448.01 0 0 5448.01
0 0 -51515.9 0 0 51515.9 0 0 172.567 0 0 -172.567 0 0 -5676.47 0 0 5676.47
0 0 -51265.7 0 0 51265.7 0 0 6.8334 0 0 -6.8334 0 0 -5933.77 0 0 5933.77
0 0 -50949 0 0 50949 0 0 -300.906 0 0 300.906 0 0 -6248.41 0 0 6248.41
0 0 -50444.2 0 0 50444.2 0 0 -442.218 0 0 442.218 0 0 -6605.2 0 0 6605.2
0 0 -49772.3 0 0 49772.3 0 0 -423.942 0 0 423.942 0 0 -6997.79 0 0 6997.79
0 0 -48988.7 0 0 48988.7 0 0 -333.585 0 0 333.585 0 0 -7325.93 0 0 7325.93
0 0 -48046.8 0 0 48046.8 0 0 -193.08 0 0 193.08 0 0 -7619.86 0 0 7619.86
0 0 -46926.2 0 0 46926.2 0 0 5.15498 0 0 -5.15498 0 0 -7780.33 0 0 7780.33
0 0 -45740.2 0 0 45740.2 0 0 205.096 0 0 -205.096 0 0 -7805.2 0 0 7805.2
0 0 -44548.8 0 0 44548.8 0 0 293.155 0 0 -293.155 0 0 -7832.4 0 0 7832.4
0 0 -43267.1 0 0 43267.1 0 0 294.881 0 0 -294.881 0 0 -7859.84 0 0 7859.84
0 0 -41882.8 0 0 41882.8 0 0 237.847 0 0 -237.847 0 0 -7886.17 0 0 7886.17
0 0 -40421.8 0 0 40421.8 0 0 210.794 0 0 -210.794 0 0 -7911.14 0 0 7911.14
0 0 -38916.4 0 0 38916.4 0 0 211.093 0 0 -211.093 0 0 -7935.2 0 0 7935.2
0 0 -37370.7 0 0 37370.7 0 0 206.432 0 0 -206.432 0 0 -7958.52 0 0 7958.52
0 0 -35787.5 0 0 35787.5 0 0 141.02 0 0 -141.02 0 0 -7980.38 0 0 7980.38
0 0 -34174.1 0 0 34174.1 0 0 57.1624 0 0 -57.1624 0 0 -8000.02 0 0 8000.02
0 0 -32535.6 0 0 32535.6 0 0 -0.371302 0 0 0.371302 0 0 -8016.85 0 0 8016.85
0 0 -30874.2 0 0 30874.2 0 0 -19.5183 0 0 19.5183 0 0 -8030.74 0 0 8030.74
0 0 -29201.5 0 0 29201.5 0 0 -24.3444 0 0 24.3444 0 0 -8041.7 0 0 8041.7
0 0 -27531.8 0 0 27531.8 0 0 -33.5877 0 0 33.5877 0 0 -8049.65 0 0 8049.65
0 0 -25873.1 0 0 25873.1 0 0 -38.3813 0 0 38.3813 0 0 -8054.31 0 0 8054.31
0 0 -24231.6 0 0 24231.6 0 0 -21.2047 0 0 21.2047 0 0 -8047.03 0 0 8047.03
0 0 -22231.2 0 0 22231.2 0 0 39.9771 0 0 -39.9771 0 0 -7948.78 0 0 7948.78
0 0 -20317.1 0 0 20317.1 0 0 132.383 0 0 -132.383 0 0 -7744.55 0 0 7744.55
0 0 -18505 0 0 18505 0 0 251.616 0 0 -251.616 0 0 -7441.9 0 0 7441.9
0 0 -16797.3 0 0 16797.3 0 0 404.881 0 0 -404.881 0 0 -7040.57 0 0 7040.57
0 0 -15183.2 0 0 15183.2 0 0 589.967 0 0 -589.967 0 0 -6545.15 0 0 6545.15
0 0 -13638.2 0 0 13638.2 0 0 797.338 0 0 -797.338 0 0 -5967.76 0 0 5967.76
0 0 -12133 0 0 12133 0 0 1024.54 0 0 -1024.54 0 0 -5323.57 0 0 5323.57
0 0 -10641.1 0 0 10641.1 0 0 1272.53 0 0 -1272.53 0 0 -4624.41 0 0 4624.41
0 0 -9141.25 0 0 9141.25 0 0 1535.74 0 0 -1535.74 0 0 -3881.79 0 0 3881.79
0 0 -7768.52 0 0 7768.52 0 0 1823.35 0 0 -1823.35 0 0 -3110.23 0 0 3110.23
0 0 -6807.57 0 0 6807.57 0 0 2092.88 0 0 -2092.88 0 0 -2330.7 0 0 2330.7
0 0 -6041.42 0 0 6041.42 0 0 2342.04 0 0 -2342.04 0 0 -1552.43 0 0 1552.43
0 0 -5134.97 0 0 5134.97 0 0 2600.25 0 0 -2600.25 0 0 -784.061 0 0 784.061
0 0 -4044.32 0 0 4044.32 0 0 2863.92 0 0 -2863.92 0 0 -112.284 0 0 112.284
0 0 -2827.57 0 0 2827.57 0 0 3085.09 0 0 -3085.09 0 0 299.066 0 0 -299.066
0 0 -1466.53 0 0 1466.53 0 0 3280.12 0 0 -3280.12 0 0 678.349 0 0 -678.349
0 0 29.6621 0 0 -29.6621 0 0 3459.56 0 0 -3459.56 0 0 1044.44 0 0 -1044.44
0 0 1468.12 0 0 -1468.12 0 0 3660.73 0 0 -3660.73 0 0 1385.22 0 0 -1385.22
0 0 3054.27 0 0 -3054.27 0 0 3865.39 0 0 -3865.39 0 0 1704.12 0 0 -1704.12
0 0 4674.99 0 0 -4674.99 0 0 4035.93 0 0 -4035.93 0 0 2008.5 0 0 -2008.5
0 0 6353.4 0 0 -6353.4 0 0 4203.85 0 0 -4203.85 0 0 2296.87 0 0 -2296.87
0 0 8097.5 0 0 -8097.5 0 0 4368.16 0 0 -4368.16 0 0 2564.84 0 0 -2564.84
0 0 9858.81 0 0 -9858.81 0 0 4539.71 0 0 -4539.71 0 0 2813.91 0 0 -2813.91
0 0 11826.2 0 0 -11826.2 0 0 5368.24 0 0 -5368.24 0 0 3069.11 0 0 -3069.11
0 0 13850.9 0 0 -13850.9 0 0 6250.53 0 0 -6250.53 0 0 3311.7 0 0 -3311.7
0 0 15782 0 0 -15782 0 0 7063.61 0 0 -7063.61 0 0 3545.1 0 0 -3545.1
0 0 18160.4 0 0 -18160.4 0 0 9449.91 0 0 -9449.91 0 0 3821.91 0 0 -3821.91
0 0 20614.1 0 0 -20614.1 0 0 11953.6 0 0 -11953.6 0 0 4082.86 0 0 -4082.86
0 0 22795.7 0 0 -22795.7 0 0 14315.7 0 0 -14315.7 0 0 4344.49 0 0 -4344.49
0 0 24826.9 0 0 -24826.9 0 0 16355 0 0 -16355 0 0 4614.62 0 0 -4614.62
0 0 26738.4 0 0 -26738.4 0 0 18209.2 0 0 -18209.2 0 0 4886.55 0 0 -4886.55
0 0 28382.2 0 0 -28382.2 0 0 19944.6 0 0 -19944.6 0 0 5155.76 0 0 -5155.76
0 0 29798.7 0 0 -29798.7 0 0 21406.5 0 0 -21406.5 0 0 5427.59 0 0 -5427.59
0 0 31011.2 0 0 -31011.2 0 0 22548.9 0 0 -22548.9 0 0 5703.99 0 0 -5703.99
0 0 31976.5 0 0 -31976.5 0 0 23459.2 0 0 -23459.2 0 0 5979.58 0 0 -5979.58
0 0 32720.3 0 0 -32720.3 0 0 24145.3 0 0 -24145.3 0 0 6250.23 0 0 -6250.23
0 0 33274.5 0 0 -33274.5 0 0 24559.7 0 0 -24559.7 0 0 6514.57 0 0 -6514.57
0 0 33646.1 0 0 -33646.1 0 0 24719.5 0 0 -24719.5 0 0 6769.28 0 0 -6769.28
0 0 33863.1 0 0 -33863.1 0 0 24677.6 0 0 -24677.6 0 0 7008.58 0 0 -7008.58
0 0 33956.1 0 0 -33956.1 0 0 24457 0 0 -24457 0 0 7226.79 0 0 -7226.79
0 0 33946.2 0 0 -33946.2 0 0 24067.6 0 0 -24067.6 0 0 7419.18 0 0 -7419.18
0 0 33862 0 0 -33862 0 0 23545.3 0 0 -23545.3 0 0 7580.67 0 0 -7580.67
0 0 33742 0 0 -33742 0 0 22937.8 0 0 -22937.8 0 0 7705.82 0 0 -7705.82
0 0 33624.7 0 0 -33624.7 0 0 22262.8 0 0 -22262.8 0 0 7716.28 0 0 -7716.28
0 0 33543.4 0 0 -33543.4 0 0 21555.9 0 0 -21555.9 0 0 7717.72 0 0 -7717.72
0 0 33533.2 0 0 -33533.2 0 0 20873.2 0 0 -20873.2 0 0 7692.53 0 0 -7692.53
0 0 33640.3 0 0 -33640.3 0 0 20219.4 0 0 -20219.4 0 0 7575.38 0 0 -7575.38
0 0 33897.1 0 0 -33897.1 0 0 19605.4 0 0 -19605.4 0 0 7366.6 0 0 -7366.6
0 0 34289.9 0 0 -34289.9 0 0 19033.3 0 0 -19033.3 0 0 7071.47 0 0 -7071.47
0 0 34860.6 0 0 -34860.6 0 0 18529.7 0 0 -18529.7 0 0 6687.65 0 0 -6687.65
0 0 35608.4 0 0 -35608.4 0 0 18101.4 0 0 -18101.4 0 0 6217.64 0 0 -6217.64
0 0 36527.7 0 0 -36527.7 0 0 17757.9 0 0 -17757.9 0 0 5672.25 0 0 -5672.25
0 0 37616.5 0 0 -37616.5 0 0 17493.1 0 0 -17493.1 0 0 5065.24 0 0 -5065.24
0 0 38844 0 0 -38844 0 0 17314.6 0 0 -17314.6 0 0 4407.22 0 0 -4407.22
0 0 40183.3 0 0 -40183.3 0 0 17219.2 0 0 -17219.2 0 0 3709.56 0 0 -3709.56
0 0 41603 0 0 -41603 0 0 17198.5 0 0 -17198.5 0 0 2987.78 0 0 -2987.78
0 0 43063.3 0 0 -43063.3 0 0 17242 0 0 -17242 0 0 2259.88 0 0 -2259.88
0 0 44524.4 0 0 -44524.4 0 0 17339.3 0 0 -17339.3 0 0 1542.77 0 0 -1542.77
0 0 45946.4 0 0 -45946.4 0 0 17477.7 0 0 -17477.7 0 0 851.86 0 0 -851.86
0 0 47288.2 0 0 -47288.2 0 0 17642.8 0 0 -17642.8 0 0 203.029 0 0 -203.029
0 0 48499.1 0 0 -48499.1 0 0 17870.5 0 0 -17870.5 0 0 -180.338 0 0 180.338
0 0 49555.6 0 0 -49555.6 0 0 18130.1 0 0 -18130.1 0 0 -474.607 0 0 474.607
0 0 50436.9 0 0 -50436.9 0 0 18358 0 0 -18358 0 0 -727.561 0 0 727.561
0 0 51118.2 0 0 -51118.2 0 0 18531.9 0 0 -18531.9 0 0 -925.304 0 0 925.304
0 0 51585.4 0 0 -51585.4 0 0 18645.6 0 0 -18645.6 0 0 -1065.55 0 0 1065.55
0 0 51801.6 0 0 -51801.6 0 0 18710.7 0 0 -18710.7 0 0 -1153.01 0 0 1153.01
0 0 51715.3 0 0 -51715.3 0 0 18718.9 0 0 -18718.9 0 0 -1186.72 0 0 1186.72
0 0 51311.3 0 0 -51311.3 0 0 18654.8 0 0 -18654.8 0 0 -1130.36 0 0 1130.36
0 0 50597.4 0 0 -50597.4 0 0 18533.6 0 0 -18533.6 0 0 -965.279 0 0 965.279
0 0 49590.6 0 0 -49590.6 0 0 18361.2 0 0 -18361.2 0 0 -701.906 0 0 701.906
0 0 48323.2 0 0 -48323.2 0 0 18139 0 0 -18139 0 0 -348.741 0 0 348.741
0 0 46837 0 0 -46837 0 0 17867.3 0 0 -17867.3 0 0 60.1591 0 0 -60.1591
0 0 45182.5 0 0 -45182.5 0 0 17538.6 0 0 -17538.6 0 0 512.467 0 0 -512.467
0 0 43407.5 0 0 -43407.5 0 0 17186.1 0 0 -17186.1 0 0 1013.18 0 0 -1013.18
0 0 41563.8 0 0 -41563.8 0 0 16822.5 0 0 -16822.5 0 0 1553.23 0 0 -1553.23
0 0 39692.7 0 0 -39692.7 0 0 16468.6 0 0 -16468.6 0 0 2117.16 0 0 -2117.16
0 0 37827.3 0 0 -37827.3 0 0 16140.1 0 0 -16140.1 0 0 2695.02 0 0 -2695.02
0 0 35985.1 0 0 -35985.1 0 0 15859.5 0 0 -15859.5 0 0 3273.13 0 0 -3273.13
0 0 34173 0 0 -34173 0 0 15649.5 0 0 -15649.5 0 0 3835.93 0 0 -3835.93
0 0 32394.5 0 0 -32394.5 0 0 15528 0 0 -15528 0 0 4369.31 0 0 -4369.31
0 0 30655.1 0 0 -30655.1 0 0 15506 0 0 -15506 0 0 4862.81 0 0 -4862.81
0 0 28963.2 0 0 -28963.2 0 0 15588 0 0 -15588 0 0 5307.39 0 0 -5307.39
0 0 27324.8 0 0 -27324.8 0 0 15772.4 0 0 -15772.4 0 0 5694.4 0 0 -5694.4
0 0 25738.4 0 0 -25738.4 0 0 16051.2 0 0 -16051.2 0 0 6016.8 0 0 -6016.8
0 0 24194.9 0 0 -24194.9 0 0 16409.3 0 0 -16409.3 0 0 6270.66 0 0 -6270.66
0 0 22679.1 0 0 -22679.1 0 0 16825.1 0 0 -16825.1 0 0 6454.64 0 0 -6454.64
0 0 21170 0 0 -21170 0 0 17271.5 0 0 -17271.5 0 0 6568.8 0 0 -6568.8
0 0 19639.3 0 0 -19639.3 0 0 17717.2 0 0 -17717.2 0 0 6614.53 0 0 -6614.53
0 0 18051 0 0 -18051 0 0 18126.5 0 0 -18126.5 0 0 6591.2 0 0 -6591.2
0 0 16365.5 0 0 -16365.5 0 0 18459.5 0 0 -18459.5 0 0 6500.43 0 0 -6500.43
0 0 14548.4 0 0 -14548.4 0 0 18676.1 0 0 -18676.1 0 0 6349.24 0 0 -6349.24
0 0 12578.7 0 0 -12578.7 0 0 18734.4 0 0 -18734.4 0 0 6144.96 0 0 -6144.96
0 0 10650.1 0 0 -10650.1 0 0 18569.4 0 0 -18569.4 0 0 5895.45 0 0 -5895.45
0 0 9601.52 0 0 -9601.52 0 0 18012.4 0 0 -18012.4 0 0 5615.74 0 0 -5615.74
0 0 8267.09 0 0 -8267.09 0 0 17252.4 0 0 -17252.4 0 0 5298.4 0 0 -5298.4
0 0 6740.84 0 0 -6740.84 0 0 16240.3 0 0 -16240.3 0 0 4953.68 0 0 -4953.68
0 0 5023.62 0 0 -5023.62 0 0 14987.7 0 0 -14987.7 0 0 4581.93 0 0 -4581.93
0 0 3161.56 0 0 -3161.56 0 0 13505.3 0 0 -13505.3 0 0 4185.4 0 0 -4185.4
0 0 1154.97 0 0 -1154.97 0 0 11802.4 0 0 -11802.4 0 0 3766.36 0 0 -3766.36
0 0 -830.828 0 0 830.828 0 0 9912.4 0 0 -9912.4 0 0 3325.1 0 0 -3325.1
0 0 -2856.3 0 0 2856.3 0 0 7894.64 0 0 -7894.64 0 0 2859.86 0 0 -2859.86
0 0 -4876.05 0 0 4876.05 0 0 5794.76 0 0 -5794.76 0 0 2377.38 0 0 -2377.38
0 0 -6809.79 0 0 6809.79 0 0 3765.3 0 0 -3765.3 0 0 1882.4 0 0 -1882.4
0 0 -8734.91 0 0 8734.91 0 0 1739.62 0 0 -1739.62 0 0 1362.28 0 0 -1362.28
0 0 -10394.8 0 0 10394.8 0 0 503.988 0 0 -503.988 0 0 862.452 0 0 -862.452
0 0 -11572.7 0 0 11572.7 0 0 265.218 0 0 -265.218 0 0 387.58 0 0 -387.58
0 0 -12608.7 0 0 12608.7 0 0 357.586 0 0 -357.586 0 0 -32.3766 0 0 32.3766
0 0 -13699.8 0 0 13699.8 0 0 352.648 0 0 -352.648 0 0 -334.352 0 0 334.352
0 0 -14678.3 0 0 14678.3 0 0 204.524 0 0 -204.524 0 0 -642.607 0 0 642.607
0 0 -15550.6 0 0 15550.6 0 0 134.489 0 0 -134.489 0 0 -969.146 0 0 969.146
0 0 -16367.9 0 0 16367.9 0 0 120.717 0 0 -120.717 0 0 -1309.56 0 0 1309.56
0 0 -17114.8 0 0 17114.8 0 0 41.483 0 0 -41.483 0 0 -1666.66 0 0 1666.66
0 0 -17787.8 0 0 17787.8 0 0 -98.6763 0 0 98.6763 0 0 -2041.02 0 0 2041.02
0 0 -18391.4 0 0 18391.4 0 0 -212.256 0 0 212.256 0 0 -2430.58 0 0 2430.58
0 0 -18906.7 0 0 18906.7 0 0 -308 0 0 308 0 0 -2829.64 0 0 2829.64
0 0 -19315.3 0 0 19315.3 0 0 -444.049 0 0 444.049 0 0 -3235.26 0 0 3235.26
0 0 -19667.7 0 0 19667.7 0 0 -602.644 0 0 602.644 0 0 -3646.25 0 0 3646.25
0 0 -19943.3 0 0 19943.3 0 0 -751.851 0 0 751.851 0 0 -4058.6 0 0 4058.6
0 0 -20163.8 0 0 20163.8 0 0 -894.425 0 0 894.425 0 0 -4465.77 0 0 4465.77
0 0 -20346.3 0 0 20346.3 0 0 -1050.46 0 0 1050.46 0 0 -4862.48 0 0 4862.48
0 0 -20487.6 0 0 20487.6 0 0 -1211.46 0 0 1211.46 0 0 -5244.51 0 0 5244.51
0 0 -20590.7 0 0 20590.7 0 0 -1359.48 0 0 1359.48 0 0 -5607.27 0 0 5607.27
0 0 -20663 0 0 20663 0 0 -1494.55 0 0 1494.55 0 0 -5944.9 0 0 5944.9
0 0 -20707.6 0 0 20707.6 0 0 -1623.57 0 0 1623.57 0 0 -6251.7 0 0 6251.7
0 0 -20726.8 0 0 20726.8 0 0 -1741.2 0 0 1741.2 0 0 -6523.39 0 0 6523.39
0 0 -20720.9 0 0 20720.9 0 0 -1838.25 0 0 1838.25 0 0 -6756.48 0 0 6756.48
0 0 -20689 0 0 20689 0 0 -1914.06 0 0 1914.06 0 0 -6947.42 0 0 6947.42
0 0 -20630.1 0 0 20630.1 0 0 -1971.48 0 0 1971.48 0 0 -7093.05 0 0 7093.05
0 0 -20464.3 0 0 20464.3 0 0 -2008.81 0 0 2008.81 0 0 -7190.98 0 0 7190.98
0 0 -20172.5 0 0 20172.5 0 0 -2018.37 0 0 2018.37 0 0 -7240.43 0 0 7240.43
0 0 -19771.5 0 0 19771.5 0 0 -2001.34 0 0 2001.34 0 0 -7234.01 0 0 7234.01
0 0 -19296 0 0 19296 0 0 -1961.26 0 0 1961.26 0 0 -7146.11 0 0 7146.11
0 0 -18779.7 0 0 18779.7 0 0 -1899.12 0 0 1899.12 0 0 -6978.69 0 0 6978.69
0 0 -18245 0 0 18245 0 0 -1778.59 0 0 1778.59 0 0 -6736.49 0 0 6736.49
0 0 -17695.7 0 0 17695.7 0 0 -1546.98 0 0 1546.98 0 0 -6422.73 0 0 6422.73
0 0 -17142.4 0 0 17142.4 0 0 -1188.99 0 0 1188.99 0 0 -6044.84 0 0 6044.84
0 0 -16601.5 0 0 16601.5 0 0 -771.409 0 0 771.409 0 0 -5613.29 0 0 5613.29
0 0 -16141.4 0 0 16141.4 0 0 -502.83 0 0 502.83 0 0 -5148.47 0 0 5148.47
0 0 -15709 0 0 15709 0 0 -262.392 0 0 262.392 0 0 -4646.03 0 0 4646.03
0 0 -15247.8 0 0 15247.8 0 0 22.0757 0 0 -22.0757 0 0 -4115.2 0 0 4115.2
0 0 -14770.8 0 0 14770.8 0 0 324.422 0 0 -324.422 0 0 -3566.65 0 0 3566.65
0 0 -14292.4 0 0 14292.4 0 0 585.129 0 0 -585.129 0 0 -3007.17 0 0 3007.17
0 0 -13790.3 0 0 13790.3 0 0 822.619 0 0 -822.619 0 0 -2439.81 0 0 2439.81
0 0 -13262.6 0 0 13262.6 0 0 1081.29 0 0 -1081.29 0 0 -1870.95 0 0 1870.95
0 0 -12717.9 0 0 12717.9 0 0 1364.02 0 0 -1364.02 0 0 -1305.79 0 0 1305.79
0 0 -12156.2 0 0 12156.2 0 0 1641.66 0 0 -1641.66 0 0 -746.877 0 0 746.877
0 0 -11576.1 0 0 11576.1 0 0 1909.96 0 0 -1909.96 0 0 -245.682 0 0 245.682
0 0 -10958.5 0 0 10958.5 0 0 2164.61 0 0 -2164.61 0 0 127.042 0 0 -127.042
0 0 -10307.3 0 0 10307.3 0 0 2421.34 0 0 -2421.34 0 0 425.281 0 0 -425.281
0 0 -9620.78 0 0 9620.78 0 0 2657.52 0 0 -2657.52 0 0 724.909 0 0 -724.909
0 0 -8890.6 0 0 8890.6 0 0 2901.92 0 0 -2901.92 0 0 1017.84 0 0 -1017.84
0 0 -8092.09 0 0 8092.09 0 0 3155.67 0 0 -3155.67 0 0 1306.63 0 0 -1306.63
0 0 -7217.85 0 0 7217.85 0 0 3405.48 0 0 -3405.48 0 0 1597.54 0 0 -1597.54
0 0 -6260.38 0 0 6260.38 0 0 3644.13 0 0 -3644.13 0 0 1892.93 0 0 -1892.93
0 0 -5212.03 0 0 5212.03 0 0 3880.42 0 0 -3880.42 0 0 2189.37 0 0 -2189.37
0 0 -4024.74 0 0 4024.74 0 0 4294.17 0 0 -4294.17 0 0 2488.49 0 0 -2488.49
0 0 -2701.88 0 0 2701.88 0 0 4780.04 0 0 -4780.04 0 0 2789.22 0 0 -2789.22
0 0 -1297.2 0 0 1297.2 0 0 5238.13 0 0 -5238.13 0 0 3089.11 0 0 -3089.11
0 0 148.619 0 0 -148.619 0 0 5639.16 0 0 -5639.16 0 0 3385.52 0 0 -3385.52
0 0 1613.82 0 0 -1613.82 0 0 6003.54 0 0 -6003.54 0 0 3675.91 0 0 -3675.91
0 0 3139.69 0 0 -3139.69 0 0 6353.05 0 0 -6353.05 0 0 3955.25 0 0 -3955.25
0 0 4357.6 0 0 -4357.6 0 0 6995.92 0 0 -6995.92 0 0 4220.93 0 0 -4220.93
0 0 5654.17 0 0 -5654.17 0 0 7842.92 0 0 -7842.92 0 0 4482.87 0 0 -4482.87
0 0 6924.63 0 0 -6924.63 0 0 8676.28 0 0 -8676.28 0 0 4719.47 0 0 -4719.47
0 0 8157.37 0 0 -8157.37 0 0 9385.58 0 0 -9385.58 0 0 4934.2 0 0 -4934.2
0 0 9384.06 0 0 -9384.06 0 0 10028.3 0 0 -10028.3 0 0 5122.47 0 0 -5122.47
0 0 10642.5 0 0 -10642.5 0 0 10628.4 0 0 -10628.4 0 0 5282.14 0 0 -5282.14
0 0 11902.7 0 0 -11902.7 0 0 11181.2 0 0 -11181.2 0 0 5411.12 0 0 -5411.12
0 0 13188.8 0 0 -13188.8 0 0 11666.6 0 0 -11666.6 0 0 5509.88 0 0 -5509.88
0 0 14513.7 0 0 -14513.7 0 0 12108.4 0 0 -12108.4 0 0 5576.92 0 0 -5576.92
0 0 15869.4 0 0 -15869.4 0 0 12528.1 0 0 -12528.1 0 0 5611.08 0 0 -5611.08
0 0 17263.9 0 0 -17263.9 0 0 12918.3 0 0 -12918.3 0 0 5607.93 0 0 -5607.93
0 0 18706.4 0 0 -18706.4 0 0 13269.2 0 0 -13269.2 0 0 5551.56 0 0 -5551.56
0 0 20195 0 0 -20195 0 0 13593.2 0 0 -13593.2 0 0 5442.2 0 0 -5442.2
0 0 21731.4 0 0 -21731.4 0 0 13896.8 0 0 -13896.8 0 0 5283.13 0 0 -5283.13
0 0 23313.2 0 0 -23313.2 0 0 14178.6 0 0 -14178.6 0 0 5078 0 0 -5078
0 0 24930.9 0 0 -24930.9 0 0 14439.4 0 0 -14439.4 0 0 4832.11 0 0 -4832.11
0 0 26573.9 0 0 -26573.9 0 0 14684.5 0 0 -14684.5 0 0 4552.02 0 0 -4552.02
0 0 28229 0 0 -28229 0 0 14916.7 0 0 -14916.7 0 0 4244.67 0 0 -4244.67
0 0 29878.2 0 0 -29878.2 0 0 15135.7 0 0 -15135.7 0 0 3917.16 0 0 -3917.16
0 0 31501.1 0 0 -31501.1 0 0 15342.6 0 0 -15342.6 0 0 3576.94 0 0 -3576.94
0 0 33076.1 0 0 -33076.1 0 0 15540.1 0 0 -15540.1 0 0 3232.13 0 0 -3232.13
0 0 34582.5 0 0 -34582.5 0 0 15728.2 0 0 -15728.2 0 0 2890.98 0 0 -2890.98
0 0 36004.3 0 0 -36004.3 0 0 15905.1 0 0 -15905.1 0 0 2561.48 0 0 -2561.48
0 0 37329.9 0 0 -37329.9 0 0 16069.1 0 0 -16069.1 0 0 2251.15 0 0 -2251.15
0 0 31520.7 0 0 -31520.7 0 0 14896.3 0 0 -14896.3 0 0 2066.77 0 0 -2066.77
0 0 35080.4 0 0 -35080.4 0 0 10008.1 0 0 -10008.1 0 0 2192.92 0 0 -2192.92
0 0 35630.2 0 0 -35630.2 0 0 10436.8 0 0 -10436.8 0 0 1798.77 0 0 -1798.77
0 0 32551.3 0 0 -32551.3 0 0 12936.8 0 0 -12936.8 0 0 1393.35 0 0 -1393.35
0 0 35244.1 0 0 -35244.1 0 0 13107.6 0 0 -13107.6 0 0 1107.13 0 0 -1107.13
0 0 38750.4 0 0 -38750.4 0 0 12685 0 0 -12685 0 0 879.518 0 0 -879.518
0 0 38555.7 0 0 -38555.7 0 0 14195.3 0 0 -14195.3 0 0 536.164 0 0 -536.164
0 0 39286.8 0 0 -39286.8 0 0 15426.9 0 0 -15426.9 0 0 264.034 0 0 -264.034
0 0 41237.1 0 0 -41237.1 0 0 16045.2 0 0 -16045.2 0 0 71.7827 0 0 -71.7827
0 0 42339 0 0 -42339 0 0 16815.4 0 0 -16815.4 0 0 -44.8854 0 0 44.8854
0 0 43051.5 0 0 -43051.5 0 0 18094.3 0 0 -18094.3 0 0 -141.794 0 0 141.794
0 0 43819.4 0 0 -43819.4 0 0 19082.5 0 0 -19082.5 0 0 -177.162 0 0 177.162
0 0 44812 0 0 -44812 0 0 19797.5 0 0 -19797.5 0 0 -134.924 0 0 134.924
0 0 45588.3 0 0 -45588.3 0 0 20580.1 0 0 -20580.1 0 0 -25.5517 0 0 25.5517
0 0 46103.8 0 0 -46103.8 0 0 21461.4 0 0 -21461.4 0 0 116.408 0 0 -116.408
0 0 46598.7 0 0 -46598.7 0 0 22169.5 0 0 -22169.5 0 0 325.785 0 0 -325.785
0 0 47108.9 0 0 -47108.9 0 0 22692.9 0 0 -22692.9 0 0 606.821 0 0 -606.821
0 0 47421.4 0 0 -47421.4 0 0 23215.8 0 0 -23215.8 0 0 941.672 0 0 -941.672
0 0 47450 0 0 -47450 0 0 23738.1 0 0 -23738.1 0 0 1321.99 0 0 -1321.99
0 0 47361.8 0 0 -47361.8 0 0 24129.4 0 0 -24129.4 0 0 1750.13 0 0 -1750.13
0 0 47134.5 0 0 -47134.5 0 0 24437.2 0 0 -24437.2 0 0 2217.76 0 0 -2217.76
0 0 46632 0 0 -46632 0 0 24706.8 0 0 -24706.8 0 0 2714.42 0 0 -2714.42
0 0 46024.9 0 0 -46024.9 0 0 24898.9 0 0 -24898.9 0 0 3230.57 0 0 -3230.57
0 0 45361.8 0 0 -45361.8 0 0 25026.8 0 0 -25026.8 0 0 3755.12 0 0 -3755.12
0 0 44651.9 0 0 -44651.9 0 0 25159.2 0 0 -25159.2 0 0 4274.76 0 0 -4274.76
0 0 43919.4 0 0 -43919.4 0 0 25321.8 0 0 -25321.8 0 0 4778.29 0 0 -4778.29
0 0 43168 0 0 -43168 0 0 25469.2 0 0 -25469.2 0 0 5214.08 0 0 -5214.08
0 0 42449.2 0 0 -42449.2 0 0 25553.1 0 0 -25553.1 0 0 5605.3 0 0 -5605.3
0 0 41753.1 0 0 -41753.1 0 0 25646 0 0 -25646 0 0 5960.16 0 0 -5960.16
0 0 41026.6 0 0 -41026.6 0 0 25757 0 0 -25757 0 0 6274.87 0 0 -6274.87
0 0 40299.8 0 0 -40299.8 0 0 25884.1 0 0 -25884.1 0 0 6544.17 0 0 -6544.17
0 0 39576.2 0 0 -39576.2 0 0 26014.8 0 0 -26014.8 0 0 6764.75 0 0 -6764.75
0 0 38817.1 0 0 -38817.1 0 0 26168.3 0 0 -26168.3 0 0 6932.55 0 0 -6932.55
0 0 37992.7 0 0 -37992.7 0 0 26346.1 0 0 -26346.1 0 0 7045.74 0 0 -7045.74
0 0 37111.9 0 0 -37111.9 0 0 26526.5 0 0 -26526.5 0 0 7104.42 0 0 -7104.42
0 0 36179.3 0 0 -36179.3 0 0 26688.3 0 0 -26688.3 0 0 7106.11 0 0 -7106.11
0 0 35196 0 0 -35196 0 0 26812.4 0 0 -26812.4 0 0 7040.56 0 0 -7040.56
0 0 34152 0 0 -34152 0 0 26876.4 0 0 -26876.4 0 0 6909.86 0 0 -6909.86
0 0 33067 0 0 -33067 0 0 26841.2 0 0 -26841.2 0 0 6721.2 0 0 -6721.2
0 0 31929.4 0 0 -31929.4 0 0 26666.6 0 0 -26666.6 0 0 6480.78 0 0 -6480.78
0 0 30794.6 0 0 -30794.6 0 0 26277.8 0 0 -26277.8 0 0 6199.22 0 0 -6199.22
0 0 29662.2 0 0 -29662.2 0 0 25768.3 0 0 -25768.3 0 0 5871.85 0 0 -5871.85
0 0 28423.6 0 0 -28423.6 0 0 25116.8 0 0 -25116.8 0 0 5510.74 0 0 -5510.74
0 0 27175.3 0 0 -27175.3 0 0 24307.7 0 0 -24307.7 0 0 5119.3 0 0 -5119.3
0 0 25922.9 0 0 -25922.9 0 0 23305.9 0 0 -23305.9 0 0 4706.15 0 0 -4706.15
0 0 24624.7 0 0 -24624.7 0 0 22149.3 0 0 -22149.3 0 0 4272.95 0 0 -4272.95
0 0 23249.2 0 0 -23249.2 0 0 20854.5 0 0 -20854.5 0 0 3825.02 0 0 -3825.02
0 0 21833.9 0 0 -21833.9 0 0 19408.8 0 0 -19408.8 0 0 3368.47 0 0 -3368.47
0 0 20411.9 0 0 -20411.9 0 0 17806.9 0 0 -17806.9 0 0 2907.62 0 0 -2907.62
0 0 18994.1 0 0 -18994.1 0 0 16075.3 0 0 -16075.3 0 0 2444.07 0 0 -2444.07
0 0 17595.9 0 0 -17595.9 0 0 14235.7 0 0 -14235.7 0 0 1980.34 0 0 -1980.34
0 0 16261.5 0 0 -16261.5 0 0 12303.4 0 0 -12303.4 0 0 1518.79 0 0 -1518.79
0 0 15027.2 0 0 -15027.2 0 0 10307.8 0 0 -10307.8 0 0 1059.94 0 0 -1059.94
0 0 13891.8 0 0 -13891.8 0 0 8311.96 0 0 -8311.96 0 0 601.398 0 0 -601.398
0 0 12870.2 0 0 -12870.2 0 0 6324.13 0 0 -6324.13 0 0 146.647 0 0 -146.647
0 0 12028.7 0 0 -12028.7 0 0 4427.87 0 0 -4427.87 0 0 -168.275 0 0 168.275
0 0 11406.9 0 0 -11406.9 0 0 2892.9 0 0 -2892.9 0 0 -418.322 0 0 418.322
0 0 10969.4 0 0 -10969.4 0 0 1545.36 0 0 -1545.36 0 0 -666.387 0 0 666.387
0 0 10726.2 0 0 -10726.2 0 0 463.023 0 0 -463.023 0 0 -911.305 0 0 911.305
0 0 10739.6 0 0 -10739.6 0 0 -69.9335 0 0 69.9335 0 0 -1141.99 0 0 1141.99
0 0 10971.1 0 0 -10971.1 0 0 -196.862 0 0 196.862 0 0 -1373.07 0 0 1373.07
0 0 11323.6 0 0 -11323.6 0 0 -231.921 0 0 231.921 0 0 -1612.3 0 0 1612.3
0 0 11695.7 0 0 -11695.7 0 0 -328.494 0 0 328.494 0 0 -1857.16 0 0 1857.16
0 0 12136.8 0 0 -12136.8 0 0 -468.769 0 0 468.769 0 0 -2103.87 0 0 2103.87
0 0 12688.5 0 0 -12688.5 0 0 -573.368 0 0 573.368 0 0 -2351.95 0 0 2351.95
0 0 13324 0 0 -13324 0 0 -573.737 0 0 573.737 0 0 -2597.07 0 0 2597.07
0 0 14041.5 0 0 -14041.5 0 0 -530.507 0 0 530.507 0 0 -2832.79 0 0 2832.79
0 0 14855.4 0 0 -14855.4 0 0 -409.311 0 0 409.311 0 0 -3050.5 0 0 3050.5
0 0 15743.3 0 0 -15743.3 0 0 -190.732 0 0 190.732 0 0 -3245.72 0 0 3245.72
0 0 16646.2 0 0 -16646.2 0 0 108.548 0 0 -108.548 0 0 -3413.52 0 0 3413.52
0 0 17526.5 0 0 -17526.5 0 0 451.545 0 0 -451.545 0 0 -3545.71 0 0 3545.71
0 0 18360.2 0 0 -18360.2 0 0 830.415 0 0 -830.415 0 0 -3634.88 0 0 3634.88
0 0 19128.5 0 0 -19128.5 0 0 1255.97 0 0 -1255.97 0 0 -3677.54 0 0 3677.54
0 0 19783.6 0 0 -19783.6 0 0 1731.46 0 0 -1731.46 0 0 -3660.69 0 0 3660.69
0 0 20311.2 0 0 -20311.2 0 0 2372.39 0 0 -2372.39 0 0 -3554.38 0 0 3554.38
0 0 20904.8 0 0 -20904.8 0 0 3651.01 0 0 -3651.01 0 0 -3316.44 0 0 3316.44
0 0 21429.6 0 0 -21429.6 0 0 5002.64 0 0 -5002.64 0 0 -2987.15 0 0 2987.15
0 0 21802.2 0 0 -21802.2 0 0 6340.33 0 0 -6340.33 0 0 -2558.14 0 0 2558.14
0 0 22022.6 0 0 -22022.6 0 0 7626.75 0 0 -7626.75 0 0 -2030.65 0 0 2030.65
0 0 22155.8 0 0 -22155.8 0 0 8869.95 0 0 -8869.95 0 0 -1412.72 0 0 1412.72
0 0 22198.5 0 0 -22198.5 0 0 10051 0 0 -10051 0 0 -712.787 0 0 712.787
0 0 22117.8 0 0 -22117.8 0 0 11111.5 0 0 -11111.5 0 0 3.85129 0 0 -3.85129
0 0 21895.3 0 0 -21895.3 0 0 11999.9 0 0 -11999.9 0 0 577.091 0 0 -577.091
0 0 21584.7 0 0 -21584.7 0 0 12774.5 0 0 -12774.5 0 0 1210.43 0 0 -1210.43
0 0 21229.4 0 0 -21229.4 0 0 13474.3 0 0 -13474.3 0 0 1869.25 0 0 -1869.25
0 0 20734.3 0 0 -20734.3 0 0 14142.4 0 0 -14142.4 0 0 2536.24 0 0 -2536.24
0 0 20147 0 0 -20147 0 0 14728.4 0 0 -14728.4 0 0 3208.27 0 0 -3208.27
0 0 19526.8 0 0 -19526.8 0 0 15231.3 0 0 -15231.3 0 0 3880.38 0 0 -3880.38
0 0 18809.5 0 0 -18809.5 0 0 15704.9 0 0 -15704.9 0 0 4537.15 0 0 -4537.15
0 0 17989.7 0 0 -17989.7 0 0 16163 0 0 -16163 0 0 5163.29 0 0 -5163.29
0 0 17113.3 0 0 -17113.3 0 0 16588 0 0 -16588 0 0 5750.21 0 0 -5750.21
0 0 16185 0 0 -16185 0 0 16993 0 0 -16993 0 0 6291.63 0 0 -6291.63
0 0 15179.7 0 0 -15179.7 0 0 17401.2 0 0 -17401.2 0 0 6778.49 0 0 -6778.49
0 0 14107.3 0 0 -14107.3 0 0 17804.6 0 0 -17804.6 0 0 7201.94 0 0 -7201.94
0 0 12976.8 0 0 -12976.8 0 0 18182.1 0 0 -18182.1 0 0 7555.8 0 0 -7555.8
0 0 11825.8 0 0 -11825.8 0 0 18469.5 0 0 -18469.5 0 0 7719.37 0 0 -7719.37
0 0 10660.5 0 0 -10660.5 0 0 18672.5 0 0 -18672.5 0 0 7724.5 0 0 -7724.5
0 0 9443.33 0 0 -9443.33 0 0 18856.5 0 0 -18856.5 0 0 7728.05 0 0 -7728.05
0 0 8228.27 0 0 -8228.27 0 0 18994.7 0 0 -18994.7 0 0 7729.69 0 0 -7729.69
0 0 7370.51 0 0 -7370.51 0 0 19007.8 0 0 -19007.8 0 0 7690.95 0 0 -7690.95
0 0 6820.14 0 0 -6820.14 0 0 18858.3 0 0 -18858.3 0 0 7556.93 0 0 -7556.93
0 0 6276.54 0 0 -6276.54 0 0 18559.8 0 0 -18559.8 0 0 7336.77 0 0 -7336.77
0 0 5766.99 0 0 -5766.99 0 0 18134.8 0 0 -18134.8 0 0 7023.31 0 0 -7023.31
0 0 5277.94 0 0 -5277.94 0 0 17567.7 0 0 -17567.7 0 0 6614.38 0 0 -6614.38
0 0 4814.84 0 0 -4814.84 0 0 16845.3 0 0 -16845.3 0 0 6122.54 0 0 -6122.54
0 0 4359.52 0 0 -4359.52 0 0 15966.1 0 0 -15966.1 0 0 5563.35 0 0 -5563.35
0 0 3908.93 0 0 -3908.93 0 0 14935.3 0 0 -14935.3 0 0 4944.39 0 0 -4944.39
0 0 3456.19 0 0 -3456.19 0 0 13757.9 0 0 -13757.9 0 0 4268.77 0 0 -4268.77
0 0 2986.68 0 0 -2986.68 0 0 12440.2 0 0 -12440.2 0 0 3545.83 0 0 -3545.83
0 0 2531.63 0 0 -2531.63 0 0 10977.9 0 0 -10977.9 0 0 2790.14 0 0 -2790.14
0 0 2120.27 0 0 -2120.27 0 0 9386.15 0 0 -9386.15 0 0 2012.14 0 0 -2012.14
0 0 1722.93 0 0 -1722.93 0 0 7691.57 0 0 -7691.57 0 0 1218.41 0 0 -1218.41
0 0 1321.5 0 0 -1321.5 0 0 5928.29 0 0 -5928.29 0 0 415.767 0 0 -415.767
0 0 901.475 0 0 -901.475 0 0 4165.51 0 0 -4165.51 0 0 -160.627 0 0 160.627
0 0 480.106 0 0 -480.106 0 0 2661.83 0 0 -2661.83 0 0 -588.232 0 0 588.232
0 0 68.3236 0 0 -68.3236 0 0 1291.01 0 0 -1291.01 0 0 -1002.19 0 0 1002.19
0 0 -293.127 0 0 293.127 0 0 54.6767 0 0 -54.6767 0 0 -1404.73 0 0 1404.73
0 0 -551.033 0 0 551.033 0 0 -552.303 0 0 552.303 0 0 -1772.59 0 0 1772.59
0 0 -690.041 0 0 690.041 0 0 -652.297 0 0 652.297 0 0 -2119.25 0 0 2119.25
0 0 -835.776 0 0 835.776 0 0 -656.617 0 0 656.617 0 0 -2459.27 0 0 2459.27
0 0 -1103.99 0 0 1103.99 0 0 -772.534 0 0 772.534 0 0 -2785.12 0 0 2785.12
0 0 -1429.91 0 0 1429.91 0 0 -936.471 0 0 936.471 0 0 -3088.31 0 0 3088.31
0 0 -1752.3 0 0 1752.3 0 0 -1024.5 0 0 1024.5 0 0 -3369.57 0 0 3369.57
0 0 -2099.07 0 0 2099.07 0 0 -1063.66 0 0 1063.66 0 0 -3631.35 0 0 3631.35
0 0 -2507.91 0 0 2507.91 0 0 -1141.83 0 0 1141.83 0 0 -3870.76 0 0 3870.76
0 0 -2949.31 0 0 2949.31 0 0 -1242.05 0 0 1242.05 0 0 -4081.59 0 0 4081.59
0 0 -3391.51 0 0 3391.51 0 0 -1301.24 0 0 1301.24 0 0 -4262.03 0 0 4262.03
0 0 -3850.59 0 0 3850.59 0 0 -1326.29 0 0 1326.29 0 0 -4413.8 0 0 4413.8
0 0 -4344.75 0 0 4344.75 0 0 -1361.09 0 0 1361.09 0 0 -4536.5 0 0 4536.5
0 0 -4854.47 0 0 4854.47 0 0 -1400.21 0 0 1400.21 0 0 -4627.15 0 0 4627.15
0 0 -5360 0 0 5360 0 0 -1412.54 0 0 1412.54 0 0 -4684.35 0 0 4684.35
0 0 -5864.72 0 0 5864.72 0 0 -1400.28 0 0 1400.28 0 0 -4709.31 0 0 4709.31
0 0 -6374.17 0 0 6374.17 0 0 -1384.82 0 0 1384.82 0 0 -4693.2 0 0 4693.2
0 0 -6852.17 0 0 6852.17 0 0 -1361.48 0 0 1361.48 0 0 -4618.62 0 0 4618.62
0 0 -7238.63 0 0 7238.63 0 0 -1310.35 0 0 1310.35 0 0 -4484.45 0 0 4484.45
0 0 -7632.17 0 0 7632.17 0 0 -1238.91 0 0 1238.91 0 0 -4297.31 0 0 4297.31
0 0 -8033.08 0 0 8033.08 0 0 -1162.87 0 0 1162.87 0 0 -4061.85 0 0 4061.85
0 0 -8423.59 0 0 8423.59 0 0 -1039.82 0 0 1039.82 0 0 -3780.39 0 0 3780.39
0 0 -8857.41 0 0 8857.41 0 0 -834.463 0 0 834.463 0 0 -3455.71 0 0 3455.71
0 0 -9150.35 0 0 9150.35 0 0 -600.542 0 0 600.542 0 0 -3089.42 0 0 3089.42
0 0 -9474.43 0 0 9474.43 0 0 -362.636 0 0 362.636 0 0 -2703.45 0 0 2703.45
0 0 -9849.6 0 0 9849.6 0 0 -170.127 0 0 170.127 0 0 -2298.53 0 0 2298.53
0 0 -10114.3 0 0 10114.3 0 0 43.3696 0 0 -43.3696 0 0 -1879.31 0 0 1879.31
0 0 -10312.5 0 0 10312.5 0 0 293.364 0 0 -293.364 0 0 -1454.04 0 0 1454.04
0 0 -10487.1 0 0 10487.1 0 0 543.157 0 0 -543.157 0 0 -1031.35 0 0 1031.35
0 0 -10577 0 0 10577 0 0 777.903 0 0 -777.903 0 0 -612.384 0 0 612.384
0 0 -10589.1 0 0 10589.1 0 0 1024.23 0 0 -1024.23 0 0 -212.04 0 0 212.04
0 0 -10536.2 0 0 10536.2 0 0 1282.08 0 0 -1282.08 0 0 84.6339 0 0 -84.6339
0 0 -10413.9 0 0 10413.9 0 0 1535.01 0 0 -1535.01 0 0 326.054 0 0 -326.054
0 0 -10245 0 0 10245 0 0 1774.23 0 0 -1774.23 0 0 559.89 0 0 -559.89
0 0 -10054.2 0 0 10054.2 0 0 2023.69 0 0 -2023.69 0 0 779.043 0 0 -779.043
0 0 -9843.55 0 0 9843.55 0 0 2283.08 0 0 -2283.08 0 0 984.032 0 0 -984.032
0 0 -9620.97 0 0 9620.97 0 0 2535.64 0 0 -2535.64 0 0 1178.82 0 0 -1178.82
0 0 -9406.51 0 0 9406.51 0 0 2775.79 0 0 -2775.79 0 0 1365.14 0 0 -1365.14
0 0 -9207.14 0 0 9207.14 0 0 3010.14 0 0 -3010.14 0 0 1541.23 0 0 -1541.23
0 0 -9026.25 0 0 9026.25 0 0 3239.49 0 0 -3239.49 0 0 1706.59 0 0 -1706.59
0 0 -8878.15 0 0 8878.15 0 0 3456.29 0 0 -3456.29 0 0 1863.23 0 0 -1863.23
0 0 -8774.5 0 0 8774.5 0 0 3655.55 0 0 -3655.55 0 0 2013.43 0 0 -2013.43
0 0 -8723 0 0 8723 0 0 3836.86 0 0 -3836.86 0 0 2157.38 0 0 -2157.38
0 0 -8734.54 0 0 8734.54 0 0 4003.11 0 0 -4003.11 0 0 2294.01 0 0 -2294.01
0 0 -8815.46 0 0 8815.46 0 0 4149 0 0 -4149 0 0 2424.24 0 0 -2424.24
0 0 -8968.7 0 0 8968.7 0 0 4271.18 0 0 -4271.18 0 0 2548.64 0 0 -2548.64
0 0 -9192.69 0 0 9192.69 0 0 4369.37 0 0 -4369.37 0 0 2667.11 0 0 -2667.11
0 0 -9483.03 0 0 9483.03 0 0 4444.57 0 0 -4444.57 0 0 2778.26 0 0 -2778.26
0 0 -9833.45 0 0 9833.45 0 0 4491.26 0 0 -4491.26 0 0 2880.73 0 0 -2880.73
0 0 -10258.4 0 0 10258.4 0 0 4442.87 0 0 -4442.87 0 0 2971.21 0 0 -2971.21
0 0 -10738.2 0 0 10738.2 0 0 4276.42 0 0 -4276.42 0 0 3047.32 0 0 -3047.32
0 0 -11270.5 0 0 11270.5 0 0 4002.73 0 0 -4002.73 0 0 3106.34 0 0 -3106.34
0 0 -11855.3 0 0 11855.3 0 0 3627.37 0 0 -3627.37 0 0 3145.96 0 0 -3145.96
0 0 -12479.6 0 0 12479.6 0 0 3153.83 0 0 -3153.83 0 0 3164.01 0 0 -3164.01
0 0 -13122.4 0 0 13122.4 0 0 2583.35 0 0 -2583.35 0 0 3153.36 0 0 -3153.36
0 0 -13763.1 0 0 13763.1 0 0 1933.17 0 0 -1933.17 0 0 3102.04 0 0 -3102.04
0 0 -14402.6 0 0 14402.6 0 0 1305.78 0 0 -1305.78 0 0 3008.22 0 0 -3008.22
0 0 -14968.3 0 0 14968.3 0 0 876.309 0 0 -876.309 0 0 2878.25 0 0 -2878.25
0 0 -15439.5 0 0 15439.5 0 0 707.867 0 0 -707.867 0 0 2709.43 0 0 -2709.43
0 0 -15868.9 0 0 15868.9 0 0 663.734 0 0 -663.734 0 0 2494.66 0 0 -2494.66
0 0 -16300.2 0 0 16300.2 0 0 620.154 0 0 -620.154 0 0 2230.78 0 0 -2230.78
0 0 -16740 0 0 16740 0 0 544.869 0 0 -544.869 0 0 1919.14 0 0 -1919.14
0 0 -17123.4 0 0 17123.4 0 0 466.028 0 0 -466.028 0 0 1562.02 0 0 -1562.02
0 0 -17465.5 0 0 17465.5 0 0 390.397 0 0 -390.397 0 0 1162.88 0 0 -1162.88
0 0 -17812.7 0 0 17812.7 0 0 296.229 0 0 -296.229 0 0 726.716 0 0 -726.716
0 0 -18150.7 0 0 18150.7 0 0 174.463 0 0 -174.463 0 0 259.674 0 0 -259.674
0 0 -18525.3 0 0 18525.3 0 0 55.3156 0 0 -55.3156 0 0 -126.05 0 0 126.05
0 0 -18943.7 0 0 18943.7 0 0 -38.4754 0 0 38.4754 0 0 -455.898 0 0 455.898
0 0 -19386.2 0 0 19386.2 0 0 -147.744 0 0 147.744 0 0 -789.02 0 0 789.02
0 0 -19852.9 0 0 19852.9 0 0 -260.076 0 0 260.076 0 0 -1124.49 0 0 1124.49
0 0 -20326.5 0 0 20326.5 0 0 -376.822 0 0 376.822 0 0 -1454.77 0 0 1454.77
0 0 -20803.8 0 0 20803.8 0 0 -483.428 0 0 483.428 0 0 -1782.46 0 0 1782.46
0 0 -21270.5 0 0 21270.5 0 0 -582.891 0 0 582.891 0 0 -2104.65 0 0 2104.65
0 0 -21715 0 0 21715 0 0 -676.046 0 0 676.046 0 0 -2414.78 0 0 2414.78
0 0 -22129.8 0 0 22129.8 0 0 -760.993 0 0 760.993 0 0 -2707.48 0 0 2707.48
0 0 -22513.4 0 0 22513.4 0 0 -834.169 0 0 834.169 0 0 -2982.32 0 0 2982.32
0 0 -22855.4 0 0 22855.4 0 0 -896.179 0 0 896.179 0 0 -3239.5 0 0 3239.5
0 0 -23091.9 0 0 23091.9 0 0 -946.376 0 0 946.376 0 0 -3476.37 0 0 3476.37
0 0 -23216.3 0 0 23216.3 0 0 -980.855 0 0 980.855 0 0 -3691.15 0 0 3691.15
0 0 -23245.3 0 0 23245.3 0 0 -1003.6 0 0 1003.6 0 0 -3884.29 0 0 3884.29
0 0 -23192.9 0 0 23192.9 0 0 -1018.81 0 0 1018.81 0 0 -4058.42 0 0 4058.42
0 0 -23076.4 0 0 23076.4 0 0 -1027.84 0 0 1027.84 0 0 -4215.4 0 0 4215.4
0 0 -22916.9 0 0 22916.9 0 0 -1031.82 0 0 1031.82 0 0 -4356.39 0 0 4356.39
0 0 -22737.6 0 0 22737.6 0 0 -1034.31 0 0 1034.31 0 0 -4482.94 0 0 4482.94
0 0 -22559.6 0 0 22559.6 0 0 -1038.58 0 0 1038.58 0 0 -4597.37 0 0 4597.37
0 0 -22401.8 0 0 22401.8 0 0 -1045.9 0 0 1045.9 0 0 -4701.66 0 0 4701.66
0 0 -22278.5 0 0 22278.5 0 0 -1057.21 0 0 1057.21 0 0 -4796.78 0 0 4796.78
0 0 -22196.2 0 0 22196.2 0 0 -1074.12 0 0 1074.12 0 0 -4882.97 0 0 4882.97
0 0 -22155.4 0 0 22155.4 0 0 -1097.36 0 0 1097.36 0 0 -4960.25 0 0 4960.25
0 0 -22154.7 0 0 22154.7 0 0 -1125.98 0 0 1125.98 0 0 -5028.24 0 0 5028.24
0 0 -22173.4 0 0 22173.4 0 0 -1078.78 0 0 1078.78 0 0 -5083.72 0 0 5083.72
0 0 -22184.6 0 0 22184.6 0 0 -896.509 0 0 896.509 0 0 -5122.64 0 0 5122.64
0 0 -22199.7 0 0 22199.7 0 0 -606.52 0 0 606.52 0 0 -5143.84 0 0 5143.84
0 0 -22297.2 0 0 22297.2 0 0 -461.452 0 0 461.452 0 0 -5152.25 0 0 5152.25
0 0 -22464.4 0 0 22464.4 0 0 -392.55 0 0 392.55 0 0 -5131.37 0 0 5131.37
0 0 -22637.5 0 0 22637.5 0 0 -300.518 0 0 300.518 0 0 -5071.38 0 0 5071.38
0 0 -22817.4 0 0 22817.4 0 0 -154.924 0 0 154.924 0 0 -4970.88 0 0 4970.88
0 0 -23029.2 0 0 23029.2 0 0 -29.6267 0 0 29.6267 0 0 -4827.86 0 0 4827.86
0 0 -23252.5 0 0 23252.5 0 0 60.0475 0 0 -60.0475 0 0 -4636.45 0 0 4636.45
0 0 -23369.5 0 0 23369.5 0 0 166.023 0 0 -166.023 0 0 -4395.46 0 0 4395.46
0 0 -23360.5 0 0 23360.5 0 0 315.953 0 0 -315.953 0 0 -4102.81 0 0 4102.81
0 0 -23350.9 0 0 23350.9 0 0 475.466 0 0 -475.466 0 0 -3764.24 0 0 3764.24
0 0 -23423.8 0 0 23423.8 0 0 635.039 0 0 -635.039 0 0 -3384.2 0 0 3384.2
0 0 -23508.9 0 0 23508.9 0 0 798.324 0 0 -798.324 0 0 -2964.83 0 0 2964.83
0 0 -23630.5 0 0 23630.5 0 0 981.412 0 0 -981.412 0 0 -2513.23 0 0 2513.23
0 0 -23798.4 0 0 23798.4 0 0 1172.59 0 0 -1172.59 0 0 -2036.1 0 0 2036.1
0 0 -23988.4 0 0 23988.4 0 0 1360.31 0 0 -1360.31 0 0 -1540.6 0 0 1540.6
0 0 -24199.4 0 0 24199.4 0 0 1547.8 0 0 -1547.8 0 0 -1034.75 0 0 1034.75
0 0 -24424.1 0 0 24424.1 0 0 1738.63 0 0 -1738.63 0 0 -527.462 0 0 527.462
0 0 -24637.4 0 0 24637.4 0 0 1923.84 0 0 -1923.84 0 0 -74.3776 0 0 74.3776
0 0 -24803.5 0 0 24803.5 0 0 2079.03 0 0 -2079.03 0 0 216.79 0 0 -216.79
0 0 -24906.6 0 0 24906.6 0 0 2221.69 0 0 -2221.69 0 0 486.706 0 0 -486.706
0 0 -24910.4 0 0 24910.4 0 0 2351.77 0 0 -2351.77 0 0 744.789 0 0 -744.789
0 0 -24804.8 0 0 24804.8 0 0 2487.42 0 0 -2487.42 0 0 978.432 0 0 -978.432
0 0 -24588.5 0 0 24588.5 0 0 2613.31 0 0 -2613.31 0 0 1188.2 0 0 -1188.2
0 0 -24264.9 0 0 24264.9 0 0 2720.82 0 0 -2720.82 0 0 1375.16 0 0 -1375.16
0 0 -23828.4 0 0 23828.4 0 0 2814.21 0 0 -2814.21 0 0 1536.16 0 0 -1536.16
0 0 -23266.1 0 0 23266.1 0 0 2899.66 0 0 -2899.66 0 0 1665.39 0 0 -1665.39
0 0 -22565 0 0 22565 0 0 2974.3 0 0 -2974.3 0 0 1760.92 0 0 -1760.92
0 0 -21716 0 0 21716 0 0 3033.82 0 0 -3033.82 0 0 1824.26 0 0 -1824.26
0 0 -20709 0 0 20709 0 0 3078.98 0 0 -3078.98 0 0 1855.97 0 0 -1855.97
0 0 -19531.1 0 0 19531.1 0 0 3112.67 0 0 -3112.67 0 0 1849.38 0 0 -1849.38
0 0 -18168.2 0 0 18168.2 0 0 3133.1 0 0 -3133.1 0 0 1788.31 0 0 -1788.31
0 0 -16615.3 0 0 16615.3 0 0 3138.93 0 0 -3138.93 0 0 1675.79 0 0 -1675.79
0 0 -14877.7 0 0 14877.7 0 0 3131.22 0 0 -3131.22 0 0 1516.93 0 0 -1516.93
0 0 -12970.6 0 0 12970.6 0 0 3113.06 0 0 -3113.06 0 0 1315.08 0 0 -1315.08
0 0 -10918.2 0 0 10918.2 0 0 3086.3 0 0 -3086.3 0 0 1074.74 0 0 -1074.74
0 0 -8754.32 0 0 8754.32 0 0 3051.84 0 0 -3051.84 0 0 803.3 0 0 -803.3
0 0 -6567.71 0 0 6567.71 0 0 3008.64 0 0 -3008.64 0 0 510.849 0 0 -510.849
0 0 -4240.69 0 0 4240.69 0 0 2963.38 0 0 -2963.38 0 0 207.992 0 0 -207.992
0 0 -1998.89 0 0 1998.89 0 0 2943.86 0 0 -2943.86 0 0 -74.0858 0 0 74.0858
0 0 -234.538 0 0 234.538 0 0 2905.3 0 0 -2905.3 0 0 -318.069 0 0 318.069
0 0 1288.64 0 0 -1288.64 0 0 2855.95 0 0 -2855.95 0 0 -545.404 0 0 545.404
0 0 2752.13 0 0 -2752.13 0 0 2823.98 0 0 -2823.98 0 0 -754.392 0 0 754.392
0 0 4139.8 0 0 -4139.8 0 0 2814.32 0 0 -2814.32 0 0 -934.818 0 0 934.818
0 0 5466.22 0 0 -5466.22 0 0 2808.82 0 0 -2808.82 0 0 -1089.62 0 0 1089.62
0 0 6706.13 0 0 -6706.13 0 0 2803.78 0 0 -2803.78 0 0 -1222.19 0 0 1222.19
0 0 7853.45 0 0 -7853.45 0 0 2802.55 0 0 -2802.55 0 0 -1328.7 0 0 1328.7
0 0 8964.31 0 0 -8964.31 0 0 2815.05 0 0 -2815.05 0 0 -1402.06 0 0 1402.06
0 0 10047.6 0 0 -10047.6 0 0 2850.47 0 0 -2850.47 0 0 -1440.43 0 0 1440.43
0 0 11059.9 0 0 -11059.9 0 0 2902.81 0 0 -2902.81 0 0 -1442.79 0 0 1442.79
0 0 11987.5 0 0 -11987.5 0 0 2962.56 0 0 -2962.56 0 0 -1398.58 0 0 1398.58
0 0 12856.1 0 0 -12856.1 0 0 3034.43 0 0 -3034.43 0 0 -1302.84 0 0 1302.84
0 0 13682.6 0 0 -13682.6 0 0 3130.56 0 0 -3130.56 0 0 -1155.6 0 0 1155.6
0 0 14461.5 0 0 -14461.5 0 0 3248.04 0 0 -3248.04 0 0 -959.756 0 0 959.756
0 0 15198.4 0 0 -15198.4 0 0 3375.4 0 0 -3375.4 0 0 -717.678 0 0 717.678
0 0 15922.6 0 0 -15922.6 0 0 3510.9 0 0 -3510.9 0 0 -434.533 0 0 434.533
0 0 16664.3 0 0 -16664.3 0 0 3660.17 0 0 -3660.17 0 0 -151.085 0 0 151.085
0 0 17469.3 0 0 -17469.3 0 0 4113.41 0 0 -4113.41 0 0 105.204 0 0 -105.204
0 0 18474.6 0 0 -18474.6 0 0 4933.39 0 0 -4933.39 0 0 373.6 0 0 -373.6
0 0 19533.4 0 0 -19533.4 0 0 5844.02 0 0 -5844.02 0 0 657.367 0 0 -657.367
0 0 20599 0 0 -20599 0 0 6769.92 0 0 -6769.92 0 0 954.506 0 0 -954.506
0 0 21666.8 0 0 -21666.8 0 0 7731.78 0 0 -7731.78 0 0 1260.51 0 0 -1260.51
0 0 22776.9 0 0 -22776.9 0 0 8749.3 0 0 -8749.3 0 0 1574.52 0 0 -1574.52
0 0 23926.6 0 0 -23926.6 0 0 9807.72 0 0 -9807.72 0 0 1894.21 0 0 -1894.21
0 0 25084.4 0 0 -25084.4 0 0 10905.1 0 0 -10905.1 0 0 2214.55 0 0 -2214.55
0 0 26246.1 0 0 -26246.1 0 0 12057.5 0 0 -12057.5 0 0 2530.65 0 0 -2530.65
0 0 27433.2 0 0 -27433.2 0 0 13264.6 0 0 -13264.6 0 0 2840.44 0 0 -2840.44
0 0 28652.5 0 0 -28652.5 0 0 14509.5 0 0 -14509.5 0 0 3142.74 0 0 -3142.74
0 0 29897.4 0 0 -29897.4 0 0 15785.6 0 0 -15785.6 0 0 3434.79 0 0 -3434.79
0 0 31174.4 0 0 -31174.4 0 0 17092 0 0 -17092 0 0 3713.48 0 0 -3713.48
0 0 32499.2 0 0 -32499.2 0 0 18416.8 0 0 -18416.8 0 0 3977.26 0 0 -3977.26
0 0 33874.6 0 0 -33874.6 0 0 19744.2 0 0 -19744.2 0 0 4225.6 0 0 -4225.6
0 0 35293.4 0 0 -35293.4 0 0 21066.9 0 0 -21066.9 0 0 4457.42 0 0 -4457.42
0 0 36754.7 0 0 -36754.7 0 0 22379.4 0 0 -22379.4 0 0 4671.25 0 0 -4671.25
0 0 38260.6 0 0 -38260.6 0 0 23670.8 0 0 -23670.8 0 0 4866.33 0 0 -4866.33
0 0 39802.3 0 0 -39802.3 0 0 24931.6 0 0 -24931.6 0 0 5042.55 0 0 -5042.55
0 0 41356.6 0 0 -41356.6 0 0 26159.6 0 0 -26159.6 0 0 5199.72 0 0 -5199.72
0 0 42875 0 0 -42875 0 0 27343 0 0 -27343 0 0 5337.88 0 0 -5337.88
0 0 44400.3 0 0 -44400.3 0 0 28466.2 0 0 -28466.2 0 0 5457.58 0 0 -5457.58
0 0 45887.6 0 0 -45887.6 0 0 29555.9 0 0 -29555.9 0 0 5557.53 0 0 -5557.53
0 0 47315.3 0 0 -47315.3 0 0 30613.2 0 0 -30613.2 0 0 5638.48 0 0 -5638.48
0 0 48702.5 0 0 -48702.5 0 0 31614.3 0 0 -31614.3 0 0 5701.73 0 0 -5701.73
0 0 50034 0 0 -50034 0 0 32535.1 0 0 -32535.1 0 0 5749.07 0 0 -5749.07
0 0 51339.8 0 0 -51339.8 0 0 33369.1 0 0 -33369.1 0 0 5781.52 0 0 -5781.52
0 0 52599.7 0 0 -52599.7 0 0 34134.4 0 0 -34134.4 0 0 5799.13 0 0 -5799.13
0 0 53811.6 0 0 -53811.6 0 0 34823.9 0 0 -34823.9 0 0 5803.23 0 0 -5803.23
0 0 54990.4 0 0 -54990.4 0 0 35420.8 0 0 -35420.8 0 0 5790.64 0 0 -5790.64
0 0 56143.5 0 0 -56143.5 0 0 35928.4 0 0 -35928.4 0 0 5760.73 0 0 -5760.73
0 0 57220.3 0 0 -57220.3 0 0 36367.4 0 0 -36367.4 0 0 5713.65 0 0 -5713.65
0 0 58226 0 0 -58226 0 0 36726.6 0 0 -36726.6 0 0 5652.42 0 0 -5652.42
0 0 59167.6 0 0 -59167.6 0 0 37000.6 0 0 -37000.6 0 0 5578.87 0 0 -5578.87
0 0 60026.9 0 0 -60026.9 0 0 37202.5 0 0 -37202.5 0 0 5494.25 0 0 -5494.25
0 0 60763.4 0 0 -60763.4 0 0 37346.8 0 0 -37346.8 0 0 5399.52 0 0 -5399.52
0 0 60815.9 0 0 -60815.9 0 0 37319.2 0 0 -37319.2 0 0 5304.7 0 0 -5304.7
0 0 60869.3 0 0 -60869.3 0 0 37224.2 0 0 -37224.2 0 0 5203.03 0 0 -5203.03
0 0 60912.7 0 0 -60912.7 0 0 37111 0 0 -37111 0 0 5094.46 0 0 -5094.46
0 0 60944.7 0 0 -60944.7 0 0 37022.4 0 0 -37022.4 0 0 4975.77 0 0 -4975.77
0 0 60966.4 0 0 -60966.4 0 0 36915 0 0 -36915 0 0 4853.43 0 0 -4853.43
0 0 60980.9 0 0 -60980.9 0 0 36773.2 0 0 -36773.2 0 0 4730.22 0 0 -4730.22
0 0 60986 0 0 -60986 0 0 36624.6 0 0 -36624.6 0 0 4606.28 0 0 -4606.28
0 0 60834.1 0 0 -60834.1 0 0 36470.3 0 0 -36470.3 0 0 4483.2 0 0 -4483.2
0 0 60578.2 0 0 -60578.2 0 0 36252.4 0 0 -36252.4 0 0 4367.22 0 0 -4367.22
0 0 60216.4 0 0 -60216.4 0 0 35978.4 0 0 -35978.4 0 0 4259.13 0 0 -4259.13
0 0 59710.4 0 0 -59710.4 0 0 35661 0 0 -35661 0 0 4159.86 0 0 -4159.86
0 0 59101 0 0 -59101 0 0 35288.9 0 0 -35288.9 0 0 4070.41 0 0 -4070.41
0 0 58400.3 0 0 -58400.3 0 0 34863.1 0 0 -34863.1 0 0 3991.27 0 0 -3991.27
0 0 57624.9 0 0 -57624.9 0 0 34412.8 0 0 -34412.8 0 0 3920.53 0 0 -3920.53
0 0 56762.8 0 0 -56762.8 0 0 33980.6 0 0 -33980.6 0 0 3855.19 0 0 -3855.19
0 0 55759.8 0 0 -55759.8 0 0 33566.8 0 0 -33566.8 0 0 3795.67 0 0 -3795.67
0 0 54614.7 0 0 -54614.7 0 0 33131 0 0 -33131 0 0 3744.96 0 0 -3744.96
0 0 53316.5 0 0 -53316.5 0 0 32665.2 0 0 -32665.2 0 0 3703.36 0 0 -3703.36
0 0 51811.2 0 0 -51811.2 0 0 32196.2 0 0 -32196.2 0 0 3669.01 0 0 -3669.01
0 0 50086.5 0 0 -50086.5 0 0 31722.7 0 0 -31722.7 0 0 3641.9 0 0 -3641.9
0 0 48172 0 0 -48172 0 0 31216.5 0 0 -31216.5 0 0 3623.53 0 0 -3623.53
0 0 46079.1 0 0 -46079.1 0 0 30663.7 0 0 -30663.7 0 0 3614.12 0 0 -3614.12
0 0 43806.3 0 0 -43806.3 0 0 30060.9 0 0 -30060.9 0 0 3613 0 0 -3613
0 0 41382.2 0 0 -41382.2 0 0 29392.4 0 0 -29392.4 0 0 3620.1 0 0 -3620.1
0 0 38816.1 0 0 -38816.1 0 0 28640 0 0 -28640 0 0 3635.11 0 0 -3635.11
0 0 36119.3 0 0 -36119.3 0 0 27788.6 0 0 -27788.6 0 0 3657.12 0 0 -3657.12
0 0 33291.5 0 0 -33291.5 0 0 26834.5 0 0 -26834.5 0 0 3683.79 0 0 -3683.79
0 0 30332.8 0 0 -30332.8 0 0 25774.4 0 0 -25774.4 0 0 3712.58 0 0 -3712.58
0 0 27252.2 0 0 -27252.2 0 0 24603.7 0 0 -24603.7 0 0 3740.53 0 0 -3740.53
0 0 24059.3 0 0 -24059.3 0 0 23319.8 0 0 -23319.8 0 0 3764.16 0 0 -3764.16
0 0 20761.4 0 0 -20761.4 0 0 21925.5 0 0 -21925.5 0 0 3779.27 0 0 -3779.27
0 0 17368.2 0 0 -17368.2 0 0 20424.6 0 0 -20424.6 0 0 3781.48 0 0 -3781.48
0 0 13892.1 0 0 -13892.1 0 0 18821.8 0 0 -18821.8 0 0 3766.24 0 0 -3766.24
0 0 10782.3 0 0 -10782.3 0 0 17049.1 0 0 -17049.1 0 0 3731.94 0 0 -3731.94
0 0 7977.15 0 0 -7977.15 0 0 15132 0 0 -15132 0 0 3673.93 0 0 -3673.93
0 0 5166.71 0 0 -5166.71 0 0 13105.5 0 0 -13105.5 0 0 3587.49 0 0 -3587.49
0 0 2368.11 0 0 -2368.11 0 0 11055.2 0 0 -11055.2 0 0 3458.85 0 0 -3458.85
0 0 -307.23 0 0 307.23 0 0 8986.02 0 0 -8986.02 0 0 3287.44 0 0 -3287.44
0 0 -2747.9 0 0 2747.9 0 0 6969.48 0 0 -6969.48 0 0 3065.75 0 0 -3065.75
0 0 -5088.88 0 0 5088.88 0 0 5003.81 0 0 -5003.81 0 0 2796.76 0 0 -2796.76
0 0 -7272.35 0 0 7272.35 0 0 3339.21 0 0 -3339.21 0 0 2494.46 0 0 -2494.46
0 0 -9349.35 0 0 9349.35 0 0 1800.13 0 0 -1800.13 0 0 2141.76 0 0 -2141.76
0 0 -11232.9 0 0 11232.9 0 0 833.553 0 0 -833.553 0 0 1766.27 0 0 -1766.27
0 0 -12872.7 0 0 12872.7 0 0 568.984 0 0 -568.984 0 0 1372.91 0 0 -1372.91
0 0 -14380.1 0 0 14380.1 0 0 558.435 0 0 -558.435 0 0 940.116 0 0 -940.116
0 0 -16101.1 0 0 16101.1 0 0 508.982 0 0 -508.982 0 0 465.361 0 0 -465.361
0 0 -17971.9 0 0 17971.9 0 0 282.416 0 0 -282.416 0 0 25.5129 0 0 -25.5129
0 0 -19463 0 0 19463 0 0 308.525 0 0 -308.525 0 0 -252.605 0 0 252.605
0 0 -21500.4 0 0 21500.4 0 0 275.668 0 0 -275.668 0 0 -572.632 0 0 572.632
0 0 -23431.3 0 0 23431.3 0 0 141.676 0 0 -141.676 0 0 -909.131 0 0 909.131
0 0 -25121.4 0 0 25121.4 0 0 -16.9471 0 0 16.9471 0 0 -1245.86 0 0 1245.86
0 0 -27032.6 0 0 27032.6 0 0 -97.8611 0 0 97.8611 0 0 -1601.44 0 0 1601.44
0 0 -28952.6 0 0 28952.6 0 0 -192.736 0 0 192.736 0 0 -1969.47 0 0 1969.47
0 0 -30795 0 0 30795 0 0 -337.694 0 0 337.694 0 0 -2341.15 0 0 2341.15
0 0 -32731.7 0 0 32731.7 0 0 -476.275 0 0 476.275 0 0 -2713.35 0 0 2713.35
0 0 -34707.8 0 0 34707.8 0 0 -582.972 0 0 582.972 0 0 -3081.98 0 0 3081.98
0 0 -36675.6 0 0 36675.6 0 0 -689.808 0 0 689.808 0 0 -3444.11 0 0 3444.11
0 0 -3916.07 0 0 3916.07 0 0 -209.99 0 0 209.99 0 0 -4329.65 0 0 4329.65
0 0 2020.97 0 0 -2020.97 0 0 -2416.16 0 0 2416.16 0 0 -4419.24 0 0 4419.24
0 0 -3319.3 0 0 3319.3 0 0 -2349.51 0 0 2349.51 0 0 -4837.56 0 0 4837.56
0 0 -2552.83 0 0 2552.83 0 0 -1792.31 0 0 1792.31 0 0 -3011.47 0 0 3011.47
0 0 481.92 0 0 -481.92 0 0 -1816.24 0 0 1816.24 0 0 -3012.1 0 0 3012.1
0 0 -1051.63 0 0 1051.63 0 0 -2536.72 0 0 2536.72 0 0 -2743.37 0 0 2743.37
0 0 -1407.39 0 0 1407.39 0 0 -2759.88 0 0 2759.88 0 0 -3000.27 0 0 3000.27
0 0 76.9774 0 0 -76.9774 0 0 -2617.89 0 0 2617.89 0 0 -3198.36 0 0 3198.36
0 0 -79.2988 0 0 79.2988 0 0 -2751.22 0 0 2751.22 0 0 -3220.86 0 0 3220.86
0 0 -500.337 0 0 500.337 0 0 -2996.78 0 0 2996.78 0 0 -3067.69 0 0 3067.69
0 0 -226.685 0 0 226.685 0 0 -3116.91 0 0 3116.91 0 0 -3086.98 0 0 3086.98
0 0 -210.479 0 0 210.479 0 0 -3077.13 0 0 3077.13 0 0 -3160.11 0 0 3160.11
0 0 -528.122 0 0 528.122 0 0 -3099.41 0 0 3099.41 0 0 -3157.4 0 0 3157.4
0 0 -620.094 0 0 620.094 0 0 -3180.94 0 0 3180.94 0 0 -3091.93 0 0 3091.93
0 0 -683.277 0 0 683.277 0 0 -3191.96 0 0 3191.96 0 0 -3025.55 0 0 3025.55
0 0 -930.093 0 0 930.093 0 0 -2982.13 0 0 2982.13 0 0 -3060.32 0 0 3060.32
0 0 4211.8 0 0 -4211.8 0 0 -2823.21 0 0 2823.21 0 0 -3167.28 0 0 3167.28
0 0 -1467.82 0 0 1467.82 0 0 -1558.78 0 0 1558.78 0 0 -3478.47 0 0 3478.47
0 0 -1243.48 0 0 1243.48 0 0 -3918.18 0 0 3918.18 0 0 -2743.35 0 0 2743.35
0 0 -1744.39 0 0 1744.39 0 0 -867.302 0 0 867.302 0 0 -3095.73 0 0 3095.73
0 0 -2673.05 0 0 2673.05 0 0 -266.083 0 0 266.083 0 0 -2933.91 0 0 2933.91
0 0 -2369.24 0 0 2369.24 0 0 -1154.25 0 0 1154.25 0 0 -2837.24 0 0 2837.24
0 0 -2900.1 0 0 2900.1 0 0 -1115.8 0 0 1115.8 0 0 -2774.95 0 0 2774.95
0 0 -3525.71 0 0 3525.71 0 0 19.9804 0 0 -19.9804 0 0 -2763.5 0 0 2763.5
0 0 -3692.06 0 0 3692.06 0 0 696.521 0 0 -696.521 0 0 -2795.12 0 0 2795.12
0 0 -4075.19 0 0 4075.19 0 0 689.208 0 0 -689.208 0 0 -2900.59 0 0 2900.59
0 0 -4555.09 0 0 4555.09 0 0 877.292 0 0 -877.292 0 0 -3005.79 0 0 3005.79
0 0 -4840.81 0 0 4840.81 0 0 1426.65 0 0 -1426.65 0 0 -3166.06 0 0 3166.06
0 0 -5139.38 0 0 5139.38 0 0 1825.63 0 0 -1825.63 0 0 -3436.5 0 0 3436.5
0 0 -5515.26 0 0 5515.26 0 0 1925.48 0 0 -1925.48 0 0 -3807.06 0 0 3807.06
0 0 -5672.32 0 0 5672.32 0 0 2001.74 0 0 -2001.74 0 0 -4056.61 0 0 4056.61
0 0 -5808.84 0 0 5808.84 0 0 2176.56 0 0 -2176.56 0 0 -4096.25 0 0 4096.25
0 0 -5993.66 0 0 5993.66 0 0 2362.44 0 0 -2362.44 0 0 -4115.23 0 0 4115.23
0 0 -6085.87 0 0 6085.87 0 0 2515.34 0 0 -2515.34 0 0 -3948.62 0 0 3948.62
0 0 -5468.33 0 0 5468.33 0 0 4714.08 0 0 -4714.08 0 0 -2876.34 0 0 2876.34
0 0 -6826.94 0 0 6826.94 0 0 2418.12 0 0 -2418.12 0 0 -2697.94 0 0 2697.94
0 0 -6993.51 0 0 6993.51 0 0 1781.01 0 0 -1781.01 0 0 -2682.1 0 0 2682.1
0 0 -5830.28 0 0 5830.28 0 0 3032.58 0 0 -3032.58 0 0 -2122.53 0 0 2122.53
0 0 -6940.29 0 0 6940.29 0 0 3615.13 0 0 -3615.13 0 0 -1714.26 0 0 1714.26
0 0 -6762.2 0 0 6762.2 0 0 2304.89 0 0 -2304.89 0 0 -1780.08 0 0 1780.08
0 0 -6443.92 0 0 6443.92 0 0 1870.51 0 0 -1870.51 0 0 -1962.81 0 0 1962.81
0 0 -6644.03 0 0 6644.03 0 0 2593.51 0 0 -2593.51 0 0 -1783.06 0 0 1783.06
0 0 -6617.83 0 0 6617.83 0 0 2707.05 0 0 -2707.05 0 0 -1513.05 0 0 1513.05
0 0 -6502.62 0 0 6502.62 0 0 2089.18 0 0 -2089.18 0 0 -1405.57 0 0 1405.57
0 0 -6512.52 0 0 6512.52 0 0 1798.68 0 0 -1798.68 0 0 -1531.36 0 0 1531.36
0 0 -6469.59 0 0 6469.59 0 0 1969.79 0 0 -1969.79 0 0 -569.24 0 0 569.24
0 0 -6461.67 0 0 6461.67 0 0 2008.55 0 0 -2008.55 0 0 -1531.52 0 0 1531.52
0 0 -6051.37 0 0 6051.37 0 0 1328.39 0 0 -1328.39 0 0 -1627.94 0 0 1627.94
0 0 -6497.72 0 0 6497.72 0 0 1267.64 0 0 -1267.64 0 0 -1308.62 0 0 1308.62
0 0 -6286.7 0 0 6286.7 0 0 1400.82 0 0 -1400.82 0 0 -1002.69 0 0 1002.69
0 0 -6026.26 0 0 6026.26 0 0 1154.28 0 0 -1154.28 0 0 -1001.19 0 0 1001.19
0 0 -6206.16 0 0 6206.16 0 0 805.164 0 0 -805.164 0 0 -1140.91 0 0 1140.91
0 0 -6144.05 0 0 6144.05 0 0 677.751 0 0 -677.751 0 0 -1132.7 0 0 1132.7
0 0 -5990.51 0 0 5990.51 0 0 590.977 0 0 -590.977 0 0 -964.729 0 0 964.729
0 0 -6013.35 0 0 6013.35 0 0 424.116 0 0 -424.116 0 0 -849.065 0 0 849.065
0 0 -6046.35 0 0 6046.35 0 0 246.703 0 0 -246.703 0 0 -881.352 0 0 881.352
0 0 -5968.5 0 0 5968.5 0 0 85.2409 0 0 -85.2409 0 0 -914.014 0 0 914.014
0 0 -5966.06 0 0 5966.06 0 0 -45.0839 0 0 45.0839 0 0 -843.249 0 0 843.249
0 0 -6039.54 0 0 6039.54 0 0 -135.932 0 0 135.932 0 0 -741.912 0 0 741.912
0 0 -6045.12 0 0 6045.12 0 0 -232.35 0 0 232.35 0 0 -706.481 0 0 706.481
0 0 -6071.44 0 0 6071.44 0 0 -354.773 0 0 354.773 0 0 -713.677 0 0 713.677
0 0 -6153.18 0 0 6153.18 0 0 -438.854 0 0 438.854 0 0 -694.574 0 0 694.574
0 0 -6226.25 0 0 6226.25 0 0 -472.909 0 0 472.909 0 0 -640.305 0 0 640.305
0 0 -6291.11 0 0 6291.11 0 0 -520.737 0 0 520.737 0 0 -591.179 0 0 591.179
0 0 -6256.63 0 0 6256.63 0 0 -570.322 0 0 570.322 0 0 -573.878 0 0 573.878
0 0 -6642.13 0 0 6642.13 0 0 -593.97 0 0 593.97 0 0 -567.391 0 0 567.391
0 0 -6666.56 0 0 6666.56 0 0 -598.037 0 0 598.037 0 0 -542.165 0 0 542.165
