-0.0550541 -2.77064e-05 -0.139531 -4.38742e-05 -0.0426907 -7.66388e-06
-0.0546951 -2.75258e-05 -0.139609 -4.38986e-05 -0.0426666 -7.65956e-06
-0.053845 -2.70979e-05 -0.139798 -4.39583e-05 -0.042576 -7.6433e-06
-0.0520804 -2.62099e-05 -0.14009 -4.40501e-05 -0.0424647 -7.62331e-06
-0.0500553 -2.51908e-05 -0.140375 -4.41397e-05 -0.0423925 -7.61036e-06
-0.047425 -2.3867e-05 -0.140673 -4.42335e-05 -0.0423876 -7.60948e-06
-0.0441276 -2.22076e-05 -0.140938 -4.43165e-05 -0.0424841 -7.6268e-06
-0.0400951 -2.01782e-05 -0.141104 -4.4369e-05 -0.0427324 -7.67138e-06
-0.0352536 -1.77417e-05 -0.141116 -4.43728e-05 -0.0431862 -7.75283e-06
-0.0295231 -1.48578e-05 -0.140917 -4.431e-05 -0.0438968 -7.88042e-06
-0.0228274 -1.14881e-05 -0.140434 -4.41581e-05 -0.0449098 -8.06226e-06
-0.0151091 -7.60378e-06 -0.139581 -4.38901e-05 -0.0462626 -8.30512e-06
-0.00639269 -3.21718e-06 -0.138264 -4.34758e-05 -0.0479884 -8.61494e-06
0.00317458 1.59764e-06 -0.136422 -4.28968e-05 -0.05008 -8.99042e-06
0.0137929 6.94139e-06 -0.133869 -4.20938e-05 -0.05261 -9.44462e-06
0.0250871 1.26253e-05 -0.130513 -4.10385e-05 -0.0555362 -9.96994e-06
0.0368194 1.85297e-05 -0.126228 -3.96914e-05 -0.0588259 -1.05605e-05
0.0487086 2.4513e-05 -0.120906 -3.80179e-05 -0.0623955 -1.12013e-05
0.0604416 3.04178e-05 -0.114474 -3.59954e-05 -0.0661159 -1.18692e-05
0.0717014 3.60844e-05 -0.106901 -3.3614e-05 -0.0697965 -1.253e-05
0.0821661 4.13508e-05 -0.0981926 -3.08758e-05 -0.0732094 -1.31427e-05
0.0914652 4.60306e-05 -0.0883926 -2.77943e-05 -0.0760416 -1.36511e-05
0.0991551 4.99006e-05 -0.0775798 -2.43943e-05 -0.0779349 -1.3991e-05
0.104705 5.26935e-05 -0.0659367 -2.07332e-05 -0.078504 -1.40931e-05
0.107493 5.40966e-05 -0.0537293 -1.68947e-05 -0.0773517 -1.38863e-05
0.106849 5.37727e-05 -0.041138 -1.29355e-05 -0.0740668 -1.32966e-05
0.102206 5.14358e-05 -0.0283794 -8.92366e-06 -0.0681888 -1.22413e-05
0.0932512 4.69295e-05 -0.0157158 -4.9417e-06 -0.0591619 -1.06208e-05
0.0801171 4.03196e-05 -0.00375199 -1.17978e-06 -0.0464308 -8.33532e-06
0.0632933 3.18529e-05 0.00689907 2.16935e-06 -0.0295222 -5.29987e-06
0.0436208 2.19526e-05 0.0156057 4.90707e-06 -0.00818573 -1.46951e-06
0.0214128 1.07762e-05 0.0217 6.82337e-06 0.0181938 3.26618e-06
-0.00244493 -1.23043e-06 0.0247809 7.79213e-06 0.0495775 8.90022e-06
-0.0275335 -1.38565e-05 0.0244217 7.67918e-06 0.0857198 1.53885e-05
-0.0533924 -2.68702e-05 0.0203614 6.40247e-06 0.126258 2.2666e-05
-0.0797497 -4.01347e-05 0.0125528 3.94711e-06 0.17049 3.06067e-05
-0.106515 -5.36048e-05 0.00107609 3.38367e-07 0.217486 3.90434e-05
-0.133593 -6.72319e-05 -0.013904 -4.37199e-06 0.26608 4.7767e-05
-0.160733 -8.08904e-05 -0.0321201 -1.00999e-05 0.314833 5.65191e-05
-0.187852 -9.4538e-05 -0.0539416 -1.69615e-05 0.362062 6.49978e-05
-0.214787 -0.000108093 -0.0780874 -2.45539e-05 0.406503 7.29759e-05
-0.24123 -0.000121401 -0.104102 -3.2734e-05 0.446423 8.01424e-05
-0.266738 -0.000134238 -0.131433 -4.13278e-05 0.480234 8.62122e-05
-0.29074 -0.000146317 -0.159573 -5.01761e-05 0.506421 9.09134e-05
-0.312594 -0.000157316 -0.188005 -5.91164e-05 0.523616 9.40002e-05
-0.331744 -0.000166953 -0.216196 -6.7981e-05 0.530568 9.52483e-05
-0.347972 -0.00017512 -0.243609 -7.66005e-05 0.526141 9.44535e-05
-0.361438 -0.000181897 -0.269814 -8.48404e-05 0.509433 9.14541e-05
-0.372666 -0.000187547 -0.294048 -9.24606e-05 0.479832 8.614e-05
-0.382597 -0.000192545 -0.315665 -9.9258e-05 0.436983 7.84478e-05
-0.395206 -0.000198891 -0.338376 -0.000106399 0.364765 6.54831e-05
-0.410872 -0.000206775 -0.355857 -0.000111896 0.272583 4.89345e-05
-0.432664 -0.000217742 -0.367955 -0.0001157 0.162369 2.91486e-05
-0.463121 -0.00023307 -0.375233 -0.000117989 0.0371773 6.67411e-06
-0.503856 -0.00025357 -0.379224 -0.000119243 -0.100667 -1.80719e-05
-0.555352 -0.000279485 -0.382161 -0.000120167 -0.244999 -4.39825e-05
-0.616787 -0.000310403 -0.386862 -0.000121645 -0.389945 -7.00034e-05
-0.686132 -0.000345302 -0.396466 -0.000124665 -0.52946 -9.50493e-05
-0.760787 -0.000382872 -0.414266 -0.000130262 -0.657738 -0.000118078
-0.838546 -0.000422006 -0.44305 -0.000139313 -0.770822 -0.000138379
-0.918127 -0.000462055 -0.484692 -0.000152407 -0.865665 -0.000155405
-0.999066 -0.000502788 -0.540163 -0.000169849 -0.940586 -0.000168855
-1.08135 -0.0005442 -0.609537 -0.000191663 -0.995562 -0.000178725
-1.16511 -0.000586351 -0.692001 -0.000217593 -1.03239 -0.000185335
-1.25025 -0.000629201 -0.785979 -0.000247144 -1.05438 -0.000189283
-1.33609 -0.0006724 -0.889398 -0.000279663 -1.0658 -0.000191334
-1.42138 -0.000715323 -0.999774 -0.00031437 -1.07179 -0.000192409
-1.50486 -0.000757333 -1.11421 -0.000350353 -1.07816 -0.000193553
-1.58572 -0.000798029 -1.22949 -0.000386601 -1.09116 -0.000195886
-1.66369 -0.000837265 -1.34229 -0.000422072 -1.11682 -0.000200494
-1.73861 -0.000874972 -1.44949 -0.00045578 -1.1606 -0.000208352
-1.80999 -0.000910892 -1.54841 -0.000486884 -1.22689 -0.000220253
-1.87661 -0.000944422 -1.63707 -0.000514761 -1.31883 -0.000236757
-1.93706 -0.000974842 -1.71415 -0.000539 -1.438 -0.000258151
-1.99021 -0.00100159 -1.77897 -0.00055938 -1.58445 -0.000284443
-2.03542 -0.00102434 -1.8314 -0.000575869 -1.75665 -0.000315357
-2.07253 -0.00104302 -1.87189 -0.000588599 -1.95163 -0.000350359
-2.1019 -0.0010578 -1.90132 -0.000597854 -2.16507 -0.000388677
-2.12433 -0.00106909 -1.921 -0.000604042 -2.39154 -0.000429332
-2.141 -0.00107748 -1.93258 -0.000607683 -2.62467 -0.000471185
-2.15328 -0.00108365 -1.93796 -0.000609373 -2.85754 -0.000512988
-2.16263 -0.00108836 -1.93917 -0.000609753 -3.08291 -0.000553448
-2.17068 -0.00109241 -1.93825 -0.000609464 -3.29366 -0.000591282
-2.17932 -0.00109676 -1.93709 -0.000609102 -3.48307 -0.000625286
-2.19063 -0.00110245 -1.93738 -0.000609192 -3.64515 -0.000654381
-2.2065 -0.00111044 -1.94054 -0.000610184 -3.77484 -0.000677664
-2.22809 -0.00112131 -1.94781 -0.000612473 -3.86821 -0.000694426
-2.25524 -0.00113497 -1.96032 -0.000616406 -3.92253 -0.000704177
-2.28646 -0.00115068 -1.97894 -0.000622261 -3.93646 -0.000706678
-2.31942 -0.00116727 -2.00411 -0.000630174 -3.91026 -0.000701975
-2.34527 -0.00118028 -2.02887 -0.00063796 -3.86165 -0.000693248
-2.37472 -0.0011951 -2.06494 -0.000649303 -3.76925 -0.000676661
-2.39879 -0.00120721 -2.10528 -0.000661986 -3.64636 -0.0006546
-2.41545 -0.0012156 -2.14766 -0.000675312 -3.4993 -0.000628198
-2.4228 -0.00121929 -2.18936 -0.000688424 -3.3354 -0.000598776
-2.41877 -0.00121726 -2.22732 -0.000700362 -3.16263 -0.000567759
-2.4013 -0.00120848 -2.25829 -0.0007101 -2.98911 -0.000536608
-2.36841 -0.00119192 -2.279 -0.000716612 -2.82272 -0.000506738
-2.31818 -0.00116664 -2.28638 -0.000718933 -2.67065 -0.000479439
-2.24895 -0.0011318 -2.27765 -0.000716185 -2.53901 -0.000455806
-2.15945 -0.00108676 -2.25042 -0.000707624 -2.43247 -0.000436681
-2.04882 -0.00103109 -2.20289 -0.000692677 -2.35403 -0.000422598
-1.91678 -0.000964634 -2.13383 -0.000670962 -2.30479 -0.000413759
-1.76407 -0.000887781 -2.04257 -0.000642266 -2.28393 -0.000410014
-1.59288 -0.000801632 -1.92895 -0.00060654 -2.28873 -0.000410875
-1.40668 -0.000707921 -1.79343 -0.000563929 -2.31456 -0.000415513
-1.20927 -0.000608573 -1.63731 -0.000514837 -2.35496 -0.000422765
-1.00446 -0.000505501 -1.46269 -0.00045993 -2.40175 -0.000431165
-0.796133 -0.000400661 -1.27242 -0.000400099 -2.44549 -0.000439017
-0.588279 -0.000296057 -1.06995 -0.000336435 -2.47587 -0.000444471
-0.384833 -0.000193671 -0.859246 -0.000270182 -2.48222 -0.000445611
-0.189399 -9.53165e-05 -0.644583 -0.000202683 -2.454 -0.000440545
-0.00480588 -2.4186e-06 -0.430402 -0.000135336 -2.38132 -0.000427497
0.165421 8.32496e-05 -0.222848 -7.00725e-05 -2.25545 -0.000404901
0.322829 0.000162466 -0.0302169 -9.50144e-06 -2.07102 -0.000371792
0.466882 0.000234962 0.15034 4.72731e-05 -1.82206 -0.000327099
0.596453 0.00030017 0.316589 9.95485e-05 -1.50647 -0.000270443
0.710604 0.000357617 0.466728 0.000146759 -1.12638 -0.000202208
0.808207 0.000406737 0.599834 0.000188612 -0.685317 -0.000123029
0.888815 0.000447304 0.71692 0.000225429 -0.190304 -3.41636e-05
0.95401 0.000480114 0.818575 0.000257393 0.342678 6.15179e-05
1.0067 0.000506633 0.905855 0.000284838 0.904821 0.000162435
1.0507 0.000528775 0.980589 0.000308337 1.48904 0.000267314
1.0901 0.000548603 1.04546 0.000328735 2.08025 0.000373449
1.12918 0.000568268 1.10294 0.000346811 2.66332 0.000478123
1.17246 0.000590052 1.15562 0.000363373 3.22276 0.000578554
1.22459 0.000616287 1.2066 0.000379405 3.7443 0.000672181
1.28992 0.000649165 1.25888 0.000395844 4.21538 0.00075675
1.37205 0.000690494 1.31516 0.000413539 4.62373 0.000830057
1.4732 0.000741399 1.37812 0.000433337 4.95859 0.000890173
1.59373 0.00080206 1.4504 0.000456064 5.21231 0.000935721
1.73211 0.0008717 1.53419 0.000482411 5.38002 0.000965828
1.8855 0.000948894 1.63091 0.000512825 5.45989 0.000980167
2.0505 0.00103193 1.74106 0.000547459 5.45314 0.000978955
2.22354 0.00111902 1.86404 0.000586132 5.36466 0.000963071
2.40118 0.00120842 1.99803 0.000628261 5.2029 0.000934031
2.58015 0.00129848 2.13999 0.000672901 4.9793 0.00089389
2.75737 0.00138767 2.28602 0.00071882 4.70759 0.000845113
2.92999 0.00147455 2.43151 0.000764566 4.40327 0.000790481
3.09533 0.00155775 2.57142 0.000808561 4.0829 0.000732968
3.25058 0.00163588 2.70075 0.000849225 3.76321 0.000675576
3.39281 0.00170746 2.81479 0.000885086 3.46009 0.000621159
3.51921 0.00177107 2.90946 0.000914852 3.18793 0.0005723
3.62734 0.00182549 2.98141 0.000937478 2.959 0.000531203
3.70309 0.00186361 3.02865 0.000952333 2.78341 0.00049968
3.76189 0.00189321 3.05002 0.000959052 2.66873 0.000479094
3.80436 0.00191458 3.05025 0.000959123 2.61274 0.000469042
3.81128 0.00191806 3.01837 0.000949099 2.62141 0.000470598
3.80463 0.00191471 2.96601 0.000932635 2.68263 0.00048159
3.76845 0.00189651 2.90061 0.000912072 2.79174 0.000501177
3.66235 0.00184311 2.83259 0.000890683 2.93342 0.00052661
3.54353 0.00178331 2.73787 0.000860899 3.12219 0.0005605
3.415 0.00171863 2.64196 0.00083074 3.32491 0.000596892
3.27569 0.00164852 2.53714 0.00079778 3.54337 0.000636111
3.1307 0.00157555 2.42612 0.000762871 3.76318 0.000675571
2.98929 0.00150439 2.31495 0.000727916 3.97219 0.000713093
2.85382 0.00143621 2.20714 0.000694015 4.15864 0.000746565
2.72976 0.00137378 2.10477 0.000661826 4.3107 0.000773862
2.62263 0.00131986 2.0105 0.000632185 4.41943 0.000793382
2.53566 0.00127609 1.92731 0.000606026 4.47798 0.000803892
2.47195 0.00124403 1.85772 0.000584145 4.4799 0.000804238
2.43419 0.00122503 1.80306 0.000566955 4.42088 0.000793642
2.42335 0.00121957 1.76412 0.000554713 4.30025 0.000771987
2.43968 0.00122779 1.74183 0.000547704 4.12012 0.000739649
2.48249 0.00124933 1.73635 0.00054598 3.8843 0.000697314
2.54835 0.00128248 1.74717 0.00054938 3.59872 0.000646046
2.62098 0.00131903 1.77704 0.000558774 3.27003 0.000587039
2.69727 0.00135742 1.82225 0.000572991 2.91028 0.000522457
2.773 0.00139553 1.88067 0.000591358 2.53246 0.00045463
2.84517 0.00143186 1.94852 0.000612696 2.15114 0.000386176
2.89823 0.00145856 2.00647 0.000630916 1.8537 0.000332779
2.94558 0.00148239 2.06482 0.000649264 1.57177 0.000282165
2.98584 0.00150265 2.1212 0.000666993 1.31308 0.000235727
3.01765 0.00151866 2.17337 0.000683395 1.08483 0.00019475
3.03972 0.00152976 2.21912 0.000697784 0.893297 0.000160366
3.05089 0.00153539 2.25646 0.000709524 0.743822 0.000133532
3.05013 0.001535 2.28373 0.000718098 0.640732 0.000115025
3.03637 0.00152808 2.29977 0.000723142 0.587133 0.000105403
3.00849 0.00151405 2.3039 0.00072444 0.584697 0.000104966
2.96533 0.00149233 2.29582 0.000721901 0.633581 0.000113741
2.90579 0.00146237 2.27566 0.000715562 0.732521 0.000131503
2.82909 0.00142376 2.24389 0.000705571 0.878979 0.000157795
2.73501 0.00137642 2.20125 0.000692164 1.06928 0.000191958
2.62412 0.00132061 2.14865 0.000675623 1.29866 0.000233136
2.49781 0.00125704 2.08706 0.000656256 1.5614 0.000280305
2.35818 0.00118677 2.01753 0.000634394 1.85099 0.000332292
2.2077 0.00111104 1.94125 0.000610407 2.16023 0.000387807
2.04888 0.00103112 1.85953 0.000584714 2.48142 0.000445467
1.8841 0.000948189 1.77383 0.000557765 2.8065 0.000503826
1.71561 0.000863396 1.68562 0.000530028 3.12722 0.000561403
1.54563 0.000777853 1.59637 0.000501964 3.43541 0.000616728
1.37636 0.000692663 1.50749 0.000474016 3.72312 0.00066838
1.20988 0.000608881 1.42027 0.000446592 3.98291 0.000715018
1.04807 0.000527452 1.33588 0.000420056 4.20795 0.000755417
0.892555 0.000449186 1.25528 0.000394711 4.39218 0.00078849
0.744656 0.000374755 1.17922 0.000370794 4.53049 0.000813319
0.605463 0.000304704 1.10819 0.000348462 4.61879 0.000829171
0.475822 0.000239461 1.04245 0.000327789 4.65415 0.00083552
0.356321 0.000179322 0.981939 0.000308762 4.63484 0.000832052
0.24729 0.000124451 0.926339 0.000291279 4.5603 0.000818671
0.148792 7.48808e-05 0.875063 0.000275156 4.4312 0.000795495
0.0606279 3.05115e-05 0.827294 0.000260135 4.24934 0.000762847
-0.0175952 -8.85492e-06 0.782008 0.000245896 4.01758 0.000721241
-0.0854814 -4.30193e-05 0.737993 0.000232055 3.73977 0.000671368
-0.129581 -6.52129e-05 0.690766 0.000217205 3.42115 0.000614169
-0.146698 -7.38272e-05 0.631939 0.000198707 3.07412 0.00055187
-0.16114 -8.10953e-05 0.582668 0.000183215 2.6877 0.000482499
-0.170404 -8.57572e-05 0.525452 0.000165224 2.27948 0.000409216
-0.178735 -8.99499e-05 0.465209 0.000146281 1.85037 0.000332181
-0.185738 -9.34744e-05 0.400854 0.000126045 1.40797 0.000252761
-0.192971 -9.71146e-05 0.333486 0.000104862 0.957754 0.000171937
-0.203726 -0.000102527 0.261655 8.22752e-05 0.505602 9.07663e-05
-0.220092 -0.000110763 0.183877 5.78184e-05 0.057892 1.03928e-05
-0.243159 -0.000122372 0.1 3.14442e-05 -0.385522 -6.92093e-05
-0.274432 -0.00013811 0.0105117 3.30531e-06 -0.814683 -0.000146253
-0.315561 -0.000158809 -0.0849758 -2.67199e-05 -1.2242 -0.00021977
-0.367532 -0.000184963 -0.187672 -5.90117e-05 -1.60926 -0.000288897
-0.430483 -0.000216644 -0.297089 -9.34171e-05 -1.96458 -0.000352684
-0.504827 -0.000254059 -0.413573 -0.000130044 -2.28818 -0.000410777
-0.590539 -0.000297194 -0.536467 -0.000168687 -2.57794 -0.000462796
-0.687304 -0.000345892 -0.664494 -0.000208944 -2.83252 -0.000508498
-0.794711 -0.000399945 -0.797007 -0.000250612 -3.05085 -0.000547692
-0.912245 -0.000459095 -0.933728 -0.000293602 -3.23283 -0.000580363
-1.03908 -0.000522924 -1.07405 -0.000337727 -3.37933 -0.000606661
-1.17406 -0.000590856 -1.21679 -0.000382609 -3.49201 -0.000626889
-1.31579 -0.000662185 -1.36061 -0.000427832 -3.57317 -0.000641461
-1.4626 -0.000736065 -1.50443 -0.000473056 -3.6256 -0.000650872
-1.61254 -0.000811525 -1.64731 -0.000517982 -3.65245 -0.000655692
-1.76355 -0.000887524 -1.78811 -0.000562256 -3.65726 -0.000656557
-1.9135 -0.000962984 -1.92552 -0.000605462 -3.64399 -0.000654174
-2.06019 -0.00103681 -2.05818 -0.000647178 -3.61686 -0.000649303
-2.20145 -0.0011079 -2.18491 -0.000687025 -3.58021 -0.000642724
-2.33519 -0.00117521 -2.30454 -0.000724643 -3.53831 -0.000635202
-2.45948 -0.00123775 -2.41591 -0.000759661 -3.49523 -0.000627467
-2.57257 -0.00129467 -2.51781 -0.000791702 -3.45485 -0.000620219
-2.67298 -0.0013452 -2.60913 -0.000820417 -3.42082 -0.000614109
-2.75948 -0.00138873 -2.6889 -0.000845499 -3.39638 -0.000609723
-2.83121 -0.00142483 -2.75626 -0.000866682 -3.38426 -0.000607546
-2.88766 -0.00145324 -2.81048 -0.000883731 -3.3865 -0.00060795
-2.92862 -0.00147385 -2.85097 -0.000896461 -3.40453 -0.000611185
-2.95422 -0.00148673 -2.87734 -0.000904752 -3.43906 -0.000617384
-2.96481 -0.00149207 -2.88946 -0.000908564 -3.49011 -0.000626549
-2.96101 -0.00149015 -2.88744 -0.000907928 -3.55692 -0.000638542
-2.94376 -0.00148147 -2.87158 -0.000902942 -3.63798 -0.000653094
-2.91451 -0.00146675 -2.84247 -0.000893788 -3.73104 -0.0006698
-2.87478 -0.00144676 -2.80088 -0.00088071 -3.83321 -0.000688142
-2.82627 -0.00142235 -2.7478 -0.00086402 -3.94106 -0.000707505
-2.77097 -0.00139451 -2.6845 -0.000844117 -4.05061 -0.000727171
-2.71088 -0.00136427 -2.61245 -0.000821462 -4.15749 -0.000746357
-2.64791 -0.00133258 -2.53327 -0.000796562 -4.25707 -0.000764234
-2.58399 -0.00130042 -2.4487 -0.00076997 -4.34462 -0.000779952
-2.52107 -0.00126875 -2.36059 -0.000742267 -4.41545 -0.000792667
-2.46106 -0.00123855 -2.27082 -0.000714038 -4.46505 -0.000801572
-2.4058 -0.00121074 -2.1812 -0.000685858 -4.48928 -0.00080592
-2.35703 -0.0011862 -2.0935 -0.000658281 -4.48445 -0.000805054
-2.31631 -0.0011657 -2.00939 -0.000631834 -4.4475 -0.000798421
-2.28493 -0.00114991 -1.93039 -0.000606994 -4.37609 -0.000785601
-2.26396 -0.00113936 -1.85785 -0.000584184 -4.26868 -0.000766319
-2.25422 -0.00113445 -1.7929 -0.000563761 -4.12463 -0.000740459
-2.2563 -0.0011355 -1.73642 -0.000546003 -3.94423 -0.000708073
-2.27061 -0.0011427 -1.68906 -0.000531108 -3.72875 -0.00066939
-2.29569 -0.00115533 -1.65149 -0.000519296 -3.48034 -0.000624796
-2.32347 -0.00116931 -1.62815 -0.000511957 -3.19983 -0.000574438
-2.36882 -0.00119213 -1.61137 -0.00050668 -2.89452 -0.000519627
-2.42415 -0.00121998 -1.60336 -0.000504163 -2.56988 -0.000461348
-2.49003 -0.00125313 -1.60411 -0.000504398 -2.22885 -0.000400126
-2.56571 -0.00129121 -1.61132 -0.000506664 -1.87961 -0.000337429
-2.64727 -0.00133226 -1.62629 -0.000511373 -1.52634 -0.00027401
-2.73282 -0.00137532 -1.64726 -0.000517966 -1.17716 -0.000211325
-2.81598 -0.00141716 -1.675 -0.000526689 -0.838169 -0.000150469
-2.89657 -0.00145773 -1.70787 -0.000537023 -0.516128 -9.26559e-05
-2.97028 -0.00149482 -1.74457 -0.000548565 -0.217446 -3.90362e-05
-3.03471 -0.00152724 -1.78389 -0.000560929 0.0511738 9.18679e-06
-3.08803 -0.00155408 -1.82518 -0.00057391 0.280326 5.03245e-05
-3.12736 -0.00157387 -1.86678 -0.000586992 0.468326 8.40745e-05
-3.15009 -0.00158531 -1.90723 -0.000599713 0.610257 0.000109554
-3.15466 -0.00158761 -1.94502 -0.000611595 0.702877 0.000126181
-3.14071 -0.00158059 -1.97882 -0.000622222 0.742935 0.000133373
-3.10766 -0.00156395 -2.0072 -0.000631147 0.727639 0.000130627
-3.05533 -0.00153762 -2.02874 -0.000637917 0.65537 0.000117653
-2.98432 -0.00150188 -2.04224 -0.000642165 0.526266 9.44759e-05
-2.89551 -0.00145719 -2.0468 -0.000643597 0.341907 6.13796e-05
-2.78996 -0.00140407 -2.0417 -0.000641994 0.104915 1.88345e-05
-2.66913 -0.00134326 -2.02675 -0.000637295 -0.185648 -3.33278e-05
-2.53511 -0.00127581 -2.00166 -0.000629405 -0.521607 -9.36395e-05
-2.39026 -0.00120292 -1.96658 -0.000618374 -0.896764 -0.000160988
-2.23717 -0.00112588 -1.92182 -0.0006043 -1.30281 -0.000233883
-2.0784 -0.00104597 -1.8683 -0.00058747 -1.73139 -0.000310822
-1.91644 -0.000964463 -1.80724 -0.000568271 -2.17393 -0.000390267
-1.75364 -0.000882536 -1.74009 -0.000547154 -2.62136 -0.00047059
-1.5923 -0.00080134 -1.66841 -0.000524616 -3.06388 -0.000550031
-1.43455 -0.000721951 -1.59401 -0.000501221 -3.49123 -0.00062675
-1.28233 -0.000645346 -1.51881 -0.000477577 -3.89338 -0.000698945
-1.13739 -0.000572403 -1.44474 -0.000454286 -4.26102 -0.000764943
-1.00133 -0.000503926 -1.37355 -0.0004319 -4.5857 -0.000823231
-0.875611 -0.000440659 -1.30677 -0.000410904 -4.85987 -0.000872449
-0.761542 -0.000383253 -1.24575 -0.000391714 -5.07688 -0.000911408
-0.660116 -0.000332209 -1.19154 -0.000374668 -5.2313 -0.00093913
-0.571924 -0.000287826 -1.14489 -0.000360001 -5.31916 -0.000954902
-0.497147 -0.000250193 -1.10619 -0.000347833 -5.33809 -0.000958301
-0.435575 -0.000219207 -1.07544 -0.000338163 -5.28735 -0.000949192
-0.386642 -0.000194581 -1.05227 -0.000330876 -5.1677 -0.000927712
-0.349432 -0.000175854 -1.03594 -0.000325741 -4.98137 -0.000894262
-0.322698 -0.0001624 -1.02536 -0.000322415 -4.73205 -0.000849503
-0.30487 -0.000153428 -1.01912 -0.000320453 -4.42481 -0.000794347
-0.29405 -0.000147983 -1.01553 -0.000319323 -4.06599 -0.000729931
-0.288025 -0.000144951 -1.01269 -0.000318433 -3.66291 -0.00065757
-0.284299 -0.000143076 -1.0086 -0.000317144 -3.22368 -0.000578718
-0.280155 -0.00014099 -1.00112 -0.000314793 -2.75694 -0.00049493
-0.307078 -0.000154539 -0.978895 -0.000307805 -2.27454 -0.000408329
-0.326257 -0.000164192 -0.948312 -0.000298188 -1.78747 -0.00032089
-0.341952 -0.00017209 -0.915019 -0.00028772 -1.29099 -0.00023176
-0.347325 -0.000174794 -0.867124 -0.000272659 -0.806437 -0.000144773
-0.339864 -0.000171039 -0.808415 -0.000254199 -0.33308 -5.97949e-05
-0.319341 -0.000160711 -0.73749 -0.000231897 0.115534 2.07409e-05
-0.28454 -0.000143197 -0.655333 -0.000206064 0.531619 9.54369e-05
-0.234865 -0.000118198 -0.559484 -0.000175925 0.916451 0.000164522
-0.169879 -8.54929e-05 -0.449261 -0.000141266 1.26607 0.000227287
-0.0887117 -4.46449e-05 -0.325069 -0.000102215 1.57807 0.000283297
0.00730371 3.67565e-06 -0.187913 -5.90876e-05 1.8492 0.000331971
0.11749 5.91279e-05 -0.0387074 -1.21712e-05 2.07872 0.000373174
0.241215 0.000121394 0.119777 3.76628e-05 2.26638 0.000406864
0.377085 0.000189771 0.285913 8.99027e-05 2.41456 0.000433465
0.522921 0.000263165 0.459659 0.000144536 2.52682 0.000453619
0.676881 0.000340646 0.639196 0.000200989 2.60677 0.000467971
0.836501 0.000420977 0.822334 0.000258575 2.65827 0.000477215
0.998684 0.000502597 1.00721 0.000316707 2.68663 0.000482307
1.15906 0.000583308 1.19249 0.000374967 2.69739 0.000484239
1.31598 0.000662277 1.37506 0.000432376 2.69683 0.000484138
1.46746 0.000738511 1.55204 0.000488026 2.69097 0.000483087
1.61203 0.000811267 1.72068 0.000541053 2.68572 0.000482145
1.74855 0.000879974 1.87852 0.000590685 2.68694 0.000482363
1.87614 0.000944185 2.02328 0.000636202 2.69989 0.000484688
1.99408 0.00100354 2.15276 0.000676916 2.7291 0.000489932
2.10172 0.00105771 2.26517 0.000712261 2.77808 0.000498725
2.19818 0.00110625 2.35925 0.000741846 2.84934 0.000511517
2.26727 0.00114103 2.43768 0.000766507 2.94297 0.000528326
2.32359 0.00116937 2.49808 0.0007855 3.05809 0.000548992
2.36352 0.00118946 2.53849 0.000798206 3.19862 0.00057422
2.38762 0.00120159 2.5618 0.000805536 3.3587 0.000602958
2.3967 0.00120616 2.56741 0.0008073 3.53793 0.000635134
2.39194 0.00120376 2.55676 0.00080395 3.7309 0.000669776
2.37462 0.00119505 2.53076 0.000795775 3.93387 0.000706214
2.34626 0.00118078 2.49127 0.000783359 4.14167 0.000743518
2.30926 0.00116216 2.44035 0.000767348 4.34855 0.000780658
2.26597 0.00114037 2.37995 0.000748353 4.54821 0.000816501
2.21864 0.00111655 2.31194 0.000726967 4.73428 0.000849904
2.1697 0.00109192 2.23846 0.000703864 4.90056 0.000879755
2.12169 0.00106776 2.16185 0.000679773 5.04111 0.000904987
2.07693 0.00104523 2.08429 0.000655386 5.15033 0.000924593
2.03755 0.00102541 2.00778 0.000631327 5.22306 0.000937651
2.00551 0.00100929 1.93415 0.000608175 5.25493 0.000943372
1.98258 0.000997752 1.86513 0.000586473 5.2425 0.000941141
1.97015 0.000991497 1.80226 0.000566704 5.18342 0.000930534
1.9692 0.000991019 1.7468 0.000549266 5.07638 0.000911318
1.98029 0.000996597 1.69972 0.000534461 4.92118 0.000883456
2.00352 0.00100829 1.66168 0.0005225 4.7188 0.000847125
2.03865 0.00102597 1.63307 0.000513503 4.47149 0.000802727
2.08515 0.00104937 1.61394 0.00050749 4.18267 0.000750878
2.14123 0.00107759 1.60407 0.000504386 3.85696 0.000692407
2.20408 0.00110922 1.60394 0.000504343 3.49942 0.00062822
2.27194 0.00114337 1.61226 0.000506961 3.11639 0.000559458
2.34326 0.00117926 1.62734 0.000511703 2.71577 0.000487538
2.41724 0.0012165 1.6483 0.000518294 2.30492 0.000413781
2.49243 0.00125434 1.67347 0.000526206 1.89234 0.000339714
2.56689 0.00129181 1.70095 0.000534849 1.48647 0.000266854
2.63907 0.00132814 1.72891 0.000543641 1.09576 0.000196712
2.70763 0.00136264 1.75572 0.000552071 0.728229 0.000130733
2.77089 0.00139447 1.77986 0.000559661 0.391445 7.02727e-05
2.82699 0.00142271 1.79996 0.000565982 0.0922221 1.65558e-05
2.87407 0.0014464 1.81491 0.000570682 -0.164808 -2.95865e-05
2.91037 0.00146467 1.82378 0.000573473 -0.375734 -6.74523e-05
2.93432 0.00147672 1.82611 0.000574204 -0.533504 -9.57754e-05
2.94475 0.00148197 1.8216 0.000572787 -0.635895 -0.000114157
2.94082 0.00147999 1.81027 0.000569222 -0.681039 -0.000122261
2.92231 0.00147068 1.79221 0.000563544 -0.668786 -0.000120061
2.88931 0.00145407 1.76778 0.000555864 -0.600425 -0.000107789
2.84228 0.0014304 1.7375 0.00054634 -0.478431 -8.58886e-05
2.78239 0.00140026 1.70211 0.000535214 -0.306229 -5.49746e-05
2.71141 0.00136454 1.66248 0.000522751 -0.0891487 -1.60041e-05
2.63138 0.00132427 1.61943 0.000509215 0.164698 2.95668e-05
2.54445 0.00128052 1.57427 0.000495015 0.452965 8.13169e-05
2.45279 0.00123439 1.52835 0.000480575 0.768542 0.00013797
2.35843 0.0011869 1.48315 0.000466362 1.10426 0.000198238
2.26331 0.00113903 1.44013 0.000452835 1.45217 0.000260695
2.16936 0.00109175 1.40076 0.000440456 1.80447 0.000323942
2.07864 0.00104609 1.36645 0.000429667 2.15374 0.000386642
1.99321 0.0010031 1.33847 0.000420871 2.49286 0.000447522
1.91505 0.000963767 1.31793 0.00041441 2.81509 0.000505369
1.84601 0.000929022 1.30569 0.000410561 3.11414 0.000559054
1.78776 0.000899705 1.30241 0.000409532 3.38447 0.000607585
1.74167 0.000876512 1.30857 0.000411469 3.62151 0.000650138
1.70872 0.000859928 1.32441 0.000416449 3.82167 0.00068607
1.68932 0.000850162 1.34997 0.000424486 3.98232 0.00071491
1.68326 0.000847117 1.38508 0.000435526 4.10179 0.000736359
1.68975 0.000850379 1.42938 0.000449456 4.17945 0.0007503
1.70743 0.00085928 1.48228 0.000466089 4.21574 0.000756815
1.73457 0.000872937 1.54293 0.00048516 4.21222 0.000756184
1.76898 0.000890256 1.61026 0.000506331 4.17145 0.000748864
1.80815 0.000909968 1.68294 0.000529186 4.09686 0.000735474
1.84938 0.000930715 1.7594 0.000553227 3.99273 0.00071678
1.88992 0.00095112 1.8378 0.000577879 3.86406 0.00069368
1.9271 0.000969829 1.91609 0.000602499 3.71642 0.000667177
1.95832 0.000985541 1.99207 0.000626387 3.55584 0.00063835
1.98124 0.000997074 2.06334 0.000648799 3.38853 0.000608314
1.99379 0.00100339 2.12748 0.000668966 3.22072 0.000578187
1.99423 0.00100362 2.18202 0.000686118 3.05842 0.000549052
1.9811 0.000997008 2.22464 0.000699518 2.90726 0.000521916
1.95318 0.000982952 2.25316 0.000708485 2.77225 0.000497679
1.90942 0.000960932 2.26567 0.000712421 2.65759 0.000477093
1.84901 0.000930532 2.26063 0.000710834 2.5665 0.000460741
1.77142 0.000891482 2.23682 0.000703347 2.50113 0.000449007
1.67646 0.000843691 2.19343 0.000689706 2.46251 0.000442073
1.56435 0.000787273 2.13009 0.000669788 2.45044 0.000439906
1.43575 0.000722551 2.04682 0.000643603 2.46354 0.000442259
1.29169 0.000650055 1.94406 0.000611292 2.49926 0.000448671
1.13358 0.000570485 1.82269 0.000573128 2.55392 0.000458483
0.971677 0.000489005 1.68173 0.000528803 2.62351 0.000470976
0.799408 0.000402309 1.52214 0.000478623 2.70475 0.000485559
0.616341 0.000310179 1.35582 0.000426326 2.78251 0.000499521
0.428692 0.000215743 1.17479 0.000369403 2.85875 0.000513207
0.236 0.000118769 0.985881 0.000310001 2.92179 0.000524523
0.0433099 2.17961e-05 0.7904 0.000248534 2.96615 0.000532487
-0.144012 -7.24754e-05 0.59169 0.000186052 2.98374 0.000535644
-0.32785 -0.000164993 0.391327 0.000123049 2.96855 0.000532917
-0.502354 -0.000252814 0.189691 5.96467e-05 2.91436 0.000523189
-0.66402 -0.000334174 -0.0121102 -3.80796e-06 2.81374 0.000505127
-0.811662 -0.000408476 -0.206915 -6.50625e-05 2.66515 0.00047845
-0.944663 -0.00047541 -0.394362 -0.000124004 2.46385 0.000442313
-1.05978 -0.000533344 -0.571641 -0.000179747 2.20831 0.000396438
-1.15583 -0.000581681 -0.736125 -0.000231468 1.89745 0.000340633
-1.23308 -0.000620557 -0.886738 -0.000278827 1.5326 0.000275135
-1.29162 -0.000650017 -1.02297 -0.000321665 1.11564 0.000200282
-1.33147 -0.000670073 -1.14436 -0.000359834 0.649746 0.000116643
-1.3537 -0.000681259 -1.2505 -0.00039321 0.13974 2.50863e-05
-1.36005 -0.000684457 -1.34177 -0.000421906 -0.416647 -7.4797e-05
-1.35256 -0.000680687 -1.41827 -0.000445961 -1.0051 -0.000180438
-1.33348 -0.000671086 -1.48105 -0.000465702 -1.61675 -0.000290242
-1.30568 -0.000657094 -1.53108 -0.000481436 -2.24034 -0.000402189
-1.27234 -0.000640315 -1.56985 -0.000493625 -2.86569 -0.000514452
-1.23671 -0.000622384 -1.59899 -0.000502789 -3.48316 -0.000625302
-1.20199 -0.00060491 -1.62041 -0.000509523 -4.08288 -0.000732963
-1.17136 -0.000589495 -1.63614 -0.000514469 -4.6541 -0.000835511
-1.14755 -0.000577514 -1.64834 -0.000518307 -5.18581 -0.000930964
-1.13359 -0.000570487 -1.6592 -0.00052172 -5.66774 -0.00101748
-1.13168 -0.000569529 -1.67095 -0.000525415 -6.08001 -0.00109149
-1.1454 -0.000576432 -1.67517 -0.000526743 -6.03631 -0.00108365
-1.17762 -0.000592649 -1.66464 -0.000523431 -6.02916 -0.00108236
-1.22143 -0.000614694 -1.68142 -0.000528706 -6.05686 -0.00108733
-1.28485 -0.000646611 -1.70034 -0.000534658 -6.08712 -0.00109277
-1.36359 -0.00068624 -1.7413 -0.000547535 -6.08277 -0.00109199
-1.45846 -0.000733982 -1.7984 -0.000565491 -6.02574 -0.00108175
-1.5708 -0.00079052 -1.86107 -0.000585195 -5.90544 -0.00106015
-1.69892 -0.000854994 -1.93084 -0.000607134 -5.74068 -0.00103057
-1.84186 -0.00092693 -2.00833 -0.000631502 -5.52951 -0.000992664
-1.99846 -0.00100574 -2.09462 -0.000658634 -5.24688 -0.000941926
-2.16676 -0.00109044 -2.18802 -0.000688002 -4.88828 -0.00087755
-2.34448 -0.00117988 -2.28499 -0.000718495 -4.47671 -0.000803665
-2.52893 -0.00127271 -2.38333 -0.000749418 -4.04131 -0.000725501
-2.71733 -0.00136752 -2.48181 -0.000780384 -3.59624 -0.000645601
-2.90659 -0.00146277 -2.57919 -0.000811003 -3.14015 -0.000563723
-3.09343 -0.00155679 -2.67343 -0.000840635 -2.67252 -0.000479774
-3.27454 -0.00164794 -2.76224 -0.000868561 -2.20514 -0.00039587
-3.44668 -0.00173457 -2.84374 -0.000894189 -1.75793 -0.000315585
-3.60673 -0.00181512 -2.91652 -0.000917075 -1.34682 -0.000241783
-3.74851 -0.00188647 -2.97939 -0.000936842 -0.97814 -0.000175597
-3.74334 -0.00188387 -3.00733 -0.000945629 -0.667369 -0.000119807
-3.77733 -0.00190097 -2.97703 -0.0009361 -0.442369 -7.94147e-05
-3.7955 -0.00191012 -3.01428 -0.000947815 -0.215935 -3.87649e-05
-3.79254 -0.00190863 -3.00606 -0.000945229 -0.06102 -1.09544e-05
-3.79057 -0.00190764 -2.9817 -0.000937568 0.00996949 1.78974e-06
-3.79805 -0.0019114 -2.97469 -0.000935365 0.05187 9.31176e-06
-3.77797 -0.00190129 -2.97637 -0.000935893 0.0487801 8.75706e-06
-3.74955 -0.00188699 -2.95575 -0.000929408 -0.0131261 -2.35642e-06
-3.70057 -0.00186234 -2.92694 -0.00092035 -0.134779 -2.41958e-05
-3.63727 -0.00183049 -2.89351 -0.000909839 -0.304984 -5.47511e-05
-3.55598 -0.00178958 -2.85212 -0.000896824 -0.528583 -9.48919e-05
-3.45974 -0.00174115 -2.80505 -0.000882024 -0.791969 -0.000142175
-3.35397 -0.00168791 -2.75235 -0.000865452 -1.09044 -0.000195758
-3.24015 -0.00163063 -2.69635 -0.000847843 -1.41717 -0.000254412
-3.12004 -0.00157019 -2.63891 -0.000829781 -1.76638 -0.000317102
-2.99739 -0.00150846 -2.58191 -0.000811857 -2.12928 -0.000382252
-2.87586 -0.0014473 -2.52651 -0.000794439 -2.49622 -0.000448125
-2.75804 -0.00138801 -2.47379 -0.000777861 -2.85862 -0.000513182
-2.64656 -0.0013319 -2.42555 -0.000762694 -3.20895 -0.000576074
-2.54446 -0.00128052 -2.38372 -0.000749538 -3.54011 -0.000635525
-2.45435 -0.00123517 -2.34949 -0.000738775 -3.84501 -0.000690261
-2.37825 -0.00119688 -2.32358 -0.00073063 -4.11693 -0.000739077
-2.31797 -0.00116654 -2.30684 -0.000725364 -4.35012 -0.000780939
-2.27506 -0.00114494 -2.30018 -0.000723271 -4.54022 -0.000815066
-2.25057 -0.00113262 -2.30419 -0.000724531 -4.68417 -0.000840908
-2.24442 -0.00112953 -2.31904 -0.000729202 -4.77995 -0.000858102
-2.25095 -0.00113281 -2.34609 -0.000737708 -4.82585 -0.000866343
-2.27057 -0.00114268 -2.38459 -0.000749813 -4.82179 -0.000865614
-2.3026 -0.0011588 -2.4334 -0.000765162 -4.7701 -0.000856334
-2.34607 -0.00118068 -2.49184 -0.000783536 -4.67344 -0.000838981
-2.39968 -0.00120766 -2.55832 -0.000804442 -4.53631 -0.000814364
-2.46184 -0.00123894 -2.63101 -0.000827297 -4.36368 -0.000783374
-2.5307 -0.00127359 -2.7078 -0.000851445 -4.16154 -0.000747085
-2.60412 -0.00131055 -2.78668 -0.000876248 -3.93652 -0.00070669
-2.67977 -0.00134862 -2.86559 -0.000901059 -3.69576 -0.000663468
-2.75517 -0.00138656 -2.94234 -0.000925194 -3.44658 -0.000618735
-2.82781 -0.00142312 -3.01473 -0.000947956 -3.1963 -0.000573804
-2.89525 -0.00145706 -3.08066 -0.000968686 -2.95207 -0.00052996
-2.95515 -0.00148721 -3.13824 -0.00098679 -2.72071 -0.000488426
-3.00543 -0.00151251 -3.18576 -0.00100173 -2.50847 -0.000450324
-3.0443 -0.00153207 -3.22169 -0.00101303 -2.32086 -0.000416644
-3.07033 -0.00154517 -3.24472 -0.00102027 -2.16251 -0.000388216
-3.08253 -0.00155131 -3.25387 -0.00102315 -2.03706 -0.000365695
-3.08028 -0.00155018 -3.2485 -0.00102146 -1.94705 -0.000349536
-3.06334 -0.00154165 -3.22833 -0.00101512 -1.89385 -0.000339986
-3.03171 -0.00152573 -3.19344 -0.00100415 -1.87761 -0.00033707
-2.98563 -0.00150254 -3.14431 -0.000988701 -1.89725 -0.000340597
-2.92549 -0.00147228 -3.08182 -0.000969051 -1.95056 -0.000350167
-2.85187 -0.00143523 -3.00718 -0.000945582 -2.03423 -0.000365187
-2.76564 -0.00139183 -2.92189 -0.000918761 -2.14401 -0.000384895
-2.66801 -0.0013427 -2.82761 -0.000889116 -2.27487 -0.000408388
-2.56047 -0.00128858 -2.72617 -0.00085722 -2.42116 -0.00043465
-2.44474 -0.00123034 -2.6195 -0.00082368 -2.57678 -0.000462587
-2.32271 -0.00116892 -2.50958 -0.000789113 -2.73536 -0.000491055
-2.19627 -0.00110529 -2.39833 -0.000754135 -2.89046 -0.000518898
-2.0673 -0.00104038 -2.28768 -0.00071934 -3.03573 -0.000544979
-1.93753 -0.000975079 -2.17939 -0.00068529 -3.16514 -0.00056821
-1.80861 -0.000910198 -2.07509 -0.000652492 -3.27311 -0.000587592
-1.68212 -0.000846542 -1.97613 -0.000621375 -3.35469 -0.000602239
-1.55972 -0.000784943 -1.88356 -0.000592269 -3.40575 -0.000611405
-1.44317 -0.00072629 -1.79809 -0.000565393 -3.42303 -0.000614507
-1.33427 -0.000671484 -1.72008 -0.000540862 -3.40424 -0.000611133
-1.23464 -0.000621342 -1.6496 -0.000518702 -3.34804 -0.000601045
-1.14554 -0.000576504 -1.58651 -0.000498864 -3.25405 -0.000584172
-1.06776 -0.00053736 -1.53046 -0.00048124 -3.1228 -0.000560608
-1.00152 -0.000504023 -1.48097 -0.000465679 -2.95566 -0.000530604
-0.946502 -0.000476335 -1.43745 -0.000451994 -2.75484 -0.000494553
-0.901953 -0.000453916 -1.3992 -0.000439965 -2.52329 -0.000452985
-0.86675 -0.000436199 -1.36541 -0.000429342 -2.26463 -0.00040655
-0.839458 -0.000422464 -1.33522 -0.000419848 -1.98307 -0.000356003
-0.818395 -0.000411864 -1.30769 -0.00041119 -1.68328 -0.000302185
-0.801711 -0.000403468 -1.28182 -0.000403057 -1.37033 -0.000246003
-0.787507 -0.00039632 -1.2566 -0.000395125 -1.04951 -0.00018841
-0.773877 -0.00038946 -1.23096 -0.000387064 -0.726283 -0.000130383
-0.758869 -0.000381907 -1.20389 -0.000378553 -0.406072 -7.28986e-05
-0.740443 -0.000372634 -1.17444 -0.000369292 -0.0941687 -1.69053e-05
-0.716401 -0.000360535 -1.14236 -0.000359205 0.16064 2.88382e-05
-0.684385 -0.000344422 -1.10943 -0.00034885 0.398937 7.16176e-05
-0.643428 -0.000323811 -1.06995 -0.000336436 0.616527 0.00011068
-0.591472 -0.000297663 -1.02575 -0.000322539 0.816416 0.000146564
-0.537236 -0.000270369 -0.972266 -0.00030572 0.988413 0.000177441
-0.498971 -0.000251111 -0.896276 -0.000281826 1.12525 0.000202007
-0.434916 -0.000218875 -0.831852 -0.000261568 1.24479 0.000223467
-0.367811 -0.000185104 -0.753087 -0.000236801 1.3383 0.000240253
-0.28532 -0.00014359 -0.668932 -0.00021034 1.40586 0.000252381
-0.191514 -9.63808e-05 -0.578144 -0.000181792 1.44881 0.000260092
-0.0898291 -4.52072e-05 -0.483551 -0.000152048 1.46631 0.000263233
0.00620837 3.12441e-06 -0.387808 -0.000121943 1.4628 0.000262604
0.114299 5.75221e-05 -0.293095 -9.21611e-05 1.44217 0.0002589
0.224655 0.00011306 -0.188419 -5.92465e-05 1.39717 0.000250822
0.335935 0.000169062 -0.0883216 -2.77719e-05 1.34122 0.000240777
0.448795 0.00022586 0.0123304 3.87717e-06 1.27016 0.000228021
0.563563 0.000283618 0.109472 3.44225e-05 1.19014 0.000213655
0.676863 0.000340637 0.206558 6.49502e-05 1.10707 0.000198743
0.786633 0.00039588 0.301011 9.46501e-05 1.02479 0.000183972
0.892927 0.000449373 0.391519 0.00012311 0.946909 0.00016999
0.99457 0.000500526 0.477426 0.000150122 0.87686 0.000157415
1.08963 0.000548363 0.558136 0.000175501 0.818752 0.000146983
1.17701 0.000592341 0.633164 0.000199093 0.775855 0.000139282
1.25632 0.000632252 0.701665 0.000220632 0.750745 0.000134775
1.32684 0.000667742 0.762788 0.000239852 0.745506 0.000133834
1.38788 0.000698464 0.816154 0.000256632 0.761763 0.000136753
1.43928 0.000724328 0.861822 0.000270992 0.800463 0.0001437
1.48115 0.0007454 0.899823 0.000282941 0.861834 0.000154718
1.51365 0.000761758 0.930066 0.000292451 0.94548 0.000169734
1.53713 0.000773575 0.952673 0.00029956 1.0504 0.000188569
1.55227 0.000781195 0.968139 0.000304423 1.17495 0.000210929
1.55999 0.000785079 0.977137 0.000307252 1.3169 0.000236412
1.56135 0.000785763 0.980346 0.000308261 1.46944 0.000263796
1.55769 0.000783923 0.977581 0.000307391 1.61175 0.000289343
1.55057 0.000780338 0.969109 0.000304727 1.76342 0.000316571
1.5409 0.000775469 0.958629 0.000301432 1.91777 0.00034428
1.53075 0.000770361 0.945654 0.000297352 2.07195 0.000371958
1.52128 0.000765596 0.932343 0.000293167 2.22097 0.000398712
1.51414 0.000762004 0.919175 0.000289026 2.36383 0.000424357
1.51078 0.000760312 0.90743 0.000285333 2.49858 0.000448549
1.51261 0.000761235 0.89841 0.000282497 2.62198 0.0004707
1.52093 0.000765419 0.893294 0.000280888 2.73005 0.000490102
1.5368 0.000773409 0.893125 0.000280835 2.81961 0.00050618
1.56108 0.000785627 0.898759 0.000282607 2.88915 0.000518664
1.59429 0.00080234 0.911036 0.000286467 2.93809 0.00052745
1.63665 0.00082366 0.930706 0.000292652 2.9658 0.000532424
1.68813 0.000849565 0.958338 0.000301341 2.97084 0.00053333
1.74844 0.00087992 0.994129 0.000312595 2.94977 0.000529547
1.81713 0.000914488 1.03798 0.000326382 2.90354 0.000521247
1.89346 0.0009529 1.08987 0.000342701 2.83444 0.000508843
1.97658 0.000994731 1.14943 0.000361427 2.74537 0.000492852
2.06545 0.00103946 1.21613 0.0003824 2.63911 0.000473776
2.15894 0.0010865 1.28916 0.000405366 2.5191 0.000452232
2.25581 0.00113526 1.36752 0.000430005 2.38965 0.000428993
2.35478 0.00118506 1.45005 0.000455956 2.25576 0.000404957
2.45424 0.00123512 1.53559 0.000482852 2.12257 0.000381047
2.55138 0.001284 1.6235 0.000510493 1.99464 0.00035808
2.64593 0.00133159 1.71152 0.000538173 1.87711 0.000336981
2.73665 0.00137724 1.79838 0.000565484 1.77482 0.000318618
2.82269 0.00142054 1.88272 0.000592005 1.69225 0.000303795
2.90301 0.00146097 1.96323 0.00061732 1.63373 0.000293288
2.97657 0.00149799 2.0387 0.000641051 1.60266 0.000287712
3.0425 0.00153116 2.10813 0.000662882 1.60179 0.000287555
3.10062 0.00156041 2.17042 0.000682468 1.63313 0.000293182
3.14196 0.00158122 2.22722 0.000700328 1.69733 0.000304707
3.17347 0.00159708 2.27811 0.000716332 1.79279 0.000321843
3.19367 0.00160724 2.31974 0.000729421 1.9239 0.000345381
3.20184 0.00161135 2.35495 0.000740492 2.08553 0.000374396
3.19843 0.00160964 2.38218 0.000749056 2.27801 0.00040895
3.18393 0.00160234 2.40206 0.000755307 2.49715 0.000448292
3.15887 0.00158973 2.41444 0.000759199 2.74045 0.000491969
3.12414 0.00157225 2.42025 0.000761025 2.99676 0.000537982
3.08129 0.00155069 2.41807 0.000760341 3.22882 0.000579641
3.03194 0.00152585 2.40924 0.000757563 3.47537 0.000623903
2.97684 0.00149812 2.39739 0.000753839 3.72764 0.000669191
2.91831 0.00146866 2.38159 0.000748869 3.97747 0.00071404
2.85728 0.00143795 2.36431 0.000743437 4.21881 0.000757366
2.79576 0.00140699 2.3454 0.000737489 4.45096 0.000799043
2.73523 0.00137653 2.32605 0.000731405 4.67146 0.000838627
2.67723 0.00134734 2.30719 0.000725474 4.87572 0.000875295
2.62315 0.00132012 2.28978 0.000720001 5.05772 0.000907969
2.57374 0.00129525 2.27456 0.000715214 5.2129 0.000935827
2.52641 0.00127144 2.26277 0.000711507 5.33893 0.000958452
2.48165 0.00124891 2.25475 0.000708985 5.43477 0.000975657
2.43932 0.00122761 2.25045 0.000707634 5.49975 0.000987322
2.39913 0.00120738 2.25008 0.000707519 5.53202 0.000993116
2.3608 0.00118809 2.25318 0.000708491 5.52871 0.000992522
2.32424 0.00116969 2.2586 0.000710197 5.48677 0.000984991
2.28936 0.00115214 2.26513 0.000712251 5.40861 0.000970961
2.25589 0.0011353 2.27164 0.000714297 5.29767 0.000951044
2.22335 0.00111892 2.27682 0.000715925 5.1566 0.00092572
2.19093 0.00110261 2.27935 0.000716721 4.98802 0.000895456
2.15768 0.00108587 2.27771 0.000716206 4.79559 0.000860911
2.12256 0.0010682 2.27041 0.000713909 4.58404 0.000822933
2.08456 0.00104907 2.25602 0.000709386 4.35836 0.000782418
2.04264 0.00102798 2.23329 0.000702237 4.12297 0.00074016
1.99566 0.00100433 2.20108 0.00069211 3.88162 0.000696834
1.94243 0.000977545 2.15843 0.0006787 3.63786 0.000653074
1.8819 0.000947081 2.10455 0.000661757 3.39527 0.000609523
1.81332 0.000912568 2.03885 0.000641098 3.15725 0.000566793
1.7363 0.000873808 1.96095 0.000616603 2.92656 0.000525379
1.65076 0.000830759 1.8707 0.000588224 2.70509 0.000485621
1.55685 0.000783498 1.76819 0.000555991 2.49398 0.000447723
1.45486 0.00073217 1.6538 0.000520021 2.29386 0.000411798
1.34517 0.000676967 1.52818 0.000480524 2.10488 0.00037787
1.22819 0.000618097 1.3923 0.000437796 1.92655 0.000345856
1.10438 0.000555789 1.24734 0.000392213 1.7577 0.000315544
0.974302 0.000490326 1.09469 0.000344214 1.59655 0.000286615
0.838653 0.000422059 0.935889 0.000294282 1.44094 0.00025868
0.698317 0.000351434 0.772574 0.000242929 1.28852 0.000231317
0.554403 0.000279008 0.606395 0.000190675 1.13681 0.000204082
0.40822 0.00020544 0.438988 0.000138036 0.983264 0.000176517
0.261188 0.000131445 0.271949 8.55119e-05 0.825308 0.00014816
0.114758 5.77531e-05 0.106812 3.35861e-05 0.660495 0.000118573
-0.0238529 -1.20042e-05 -0.0588046 -1.84906e-05 0.486048 8.7256e-05
-0.151632 -7.631e-05 -0.215701 -6.78253e-05 0.297201 5.33539e-05
-0.27746 -0.000139634 -0.369741 -0.000116262 0.0959931 1.72328e-05
-0.397546 -0.000200068 -0.518238 -0.000162955 -0.0968824 -1.73924e-05
-0.488678 -0.000245931 -0.661453 -0.000207988 -0.295778 -5.30985e-05
-0.576718 -0.000290239 -0.794518 -0.000249829 -0.499788 -8.97225e-05
-0.653735 -0.000328998 -0.91686 -0.000288298 -0.722727 -0.000129745
-0.721905 -0.000363305 -1.03241 -0.000324633 -0.94999 -0.000170543
-0.779159 -0.000392119 -1.13684 -0.000357469 -1.18728 -0.000213142
-0.826522 -0.000415954 -1.23005 -0.000386777 -1.43153 -0.00025699
-0.864709 -0.000435172 -1.31136 -0.000412344 -1.6845 -0.000302404
-0.893772 -0.000449798 -1.38164 -0.000434443 -1.94316 -0.000348839
-0.914284 -0.000460121 -1.4414 -0.000453234 -2.20313 -0.000395508
-0.927604 -0.000466825 -1.4906 -0.000468707 -2.46007 -0.000441635
-0.934994 -0.000470544 -1.52928 -0.000480869 -2.71132 -0.000486739
-0.937601 -0.000471856 -1.55799 -0.000489895 -2.95494 -0.000530474
-0.936832 -0.000471469 -1.57783 -0.000496135 -3.18783 -0.000572283
-0.934301 -0.000470195 -1.58986 -0.000499917 -3.40549 -0.000611358
-0.931526 -0.000468798 -1.5949 -0.000501501 -3.60326 -0.000646862
-0.929949 -0.000468005 -1.59384 -0.000501168 -3.7775 -0.000678141
-0.931057 -0.000468563 -1.58789 -0.000499297 -3.92552 -0.000704714
-0.936305 -0.000471204 -1.57838 -0.000496307 -4.04478 -0.000726125
-0.946988 -0.00047658 -1.56652 -0.000492578 -4.13243 -0.000741858
-0.964209 -0.000485246 -1.55342 -0.000488458 -4.18565 -0.000751413
-0.988884 -0.000497664 -1.54019 -0.0004843 -4.20243 -0.000754426
-1.02171 -0.000514182 -1.52789 -0.000480432 -4.17634 -0.000749743
-1.06314 -0.000535035 -1.51713 -0.000477049 -4.10693 -0.000737281
-1.11333 -0.000560292 -1.50895 -0.000474476 -3.99419 -0.000717041
-1.17225 -0.000589947 -1.50396 -0.000472908 -3.83924 -0.000689225
-1.23969 -0.000623887 -1.50281 -0.000472545 -3.64329 -0.000654049
-1.31522 -0.000661897 -1.50589 -0.000473513 -3.40893 -0.000611976
-1.39826 -0.000703685 -1.51335 -0.000475858 -3.14017 -0.000563727
-1.48807 -0.000748886 -1.52515 -0.000479568 -2.8419 -0.000510181
-1.58381 -0.000797065 -1.54109 -0.00048458 -2.51936 -0.000452278
-1.68444 -0.000847707 -1.56086 -0.000490798 -2.178 -0.000390997
-1.7888 -0.00090023 -1.58403 -0.000498083 -1.82372 -0.000327397
-1.89561 -0.000953982 -1.61005 -0.000506266 -1.46305 -0.000262649
-2.00346 -0.00100826 -1.63832 -0.000515155 -1.10288 -0.000197991
-2.11088 -0.00106232 -1.66821 -0.000524552 -0.750097 -0.000134658
-2.21636 -0.0011154 -1.69908 -0.000534262 -0.411272 -7.38321e-05
-2.31844 -0.00116678 -1.73035 -0.000544093 -0.0926662 -1.66355e-05
-2.41562 -0.00121568 -1.76224 -0.000554122 0.162327 2.91411e-05
-2.50637 -0.00126135 -1.79546 -0.000564567 0.393273 7.06008e-05
-2.59036 -0.00130362 -1.82602 -0.000574175 0.590893 0.000106078
-2.66597 -0.00134167 -1.8555 -0.000583446 0.753926 0.000135346
-2.73289 -0.00137535 -1.88207 -0.0005918 0.875587 0.000157186
-2.79041 -0.0014043 -1.90648 -0.000599474 0.955734 0.000171575
-2.83828 -0.00142839 -1.92886 -0.000606511 0.994868 0.0001786
-2.87648 -0.00144761 -1.94924 -0.000612921 0.990942 0.000177895
-2.90511 -0.00146202 -1.96801 -0.000618822 0.939468 0.000168654
-2.92457 -0.00147182 -1.98552 -0.00062433 0.83987 0.000150775
-2.93546 -0.00147729 -2.00236 -0.000629625 0.694143 0.000124613
-2.93849 -0.00147882 -2.01925 -0.000634936 0.505542 9.07556e-05
-2.93463 -0.00147688 -2.03677 -0.000640445 0.277764 4.98646e-05
-2.92485 -0.00147196 -2.05563 -0.000646374 0.0154283 2.76971e-06
-2.9105 -0.00146474 -2.07587 -0.00065274 -0.262547 -4.71328e-05
-2.89299 -0.00145592 -2.09782 -0.000659642 -0.569091 -0.000102164
-2.87359 -0.00144616 -2.12418 -0.00066793 -0.895319 -0.000160729
-2.85428 -0.00143644 -2.1545 -0.000677464 -1.23528 -0.00022176
-2.83622 -0.00142735 -2.19032 -0.000688728 -1.58301 -0.000284185
-2.80822 -0.00141326 -2.23332 -0.000702248 -1.93557 -0.000347476
-2.77793 -0.00139802 -2.28684 -0.000719076 -2.28605 -0.000410395
-2.75793 -0.00138795 -2.34207 -0.000736441 -2.63572 -0.000473167
-2.74359 -0.00138073 -2.4058 -0.000756484 -2.97593 -0.000534242
-2.73695 -0.0013774 -2.47544 -0.000778381 -3.30302 -0.000592963
-2.73907 -0.00137846 -2.55109 -0.000802167 -3.61361 -0.00064872
-2.75029 -0.00138411 -2.63213 -0.000827649 -3.90521 -0.000701068
-2.77045 -0.00139425 -2.71816 -0.000854701 -4.17656 -0.000749781
-2.79948 -0.00140886 -2.80924 -0.00088334 -4.42507 -0.000794393
-2.83597 -0.00142722 -2.90468 -0.000913351 -4.64868 -0.000834537
-2.8787 -0.00144873 -3.00375 -0.000944501 -4.84615 -0.000869986
-2.93166 -0.00147538 -3.10259 -0.000975582 -5.01879 -0.000900979
-2.98658 -0.00150302 -3.20385 -0.00100742 -5.16652 -0.000927501
-3.04777 -0.00153382 -3.30588 -0.0010395 -5.28823 -0.000949351
-3.11136 -0.00156582 -3.40819 -0.00107167 -5.38618 -0.000966933
-3.17632 -0.00159851 -3.50304 -0.0011015 -5.49976 -0.000987325
-2.85906 -0.00143885 -3.54585 -0.00111496 -5.02261 -0.000901665
-2.81095 -0.00141463 -2.7327 -0.000859273 -5.06352 -0.000909009
-3.06584 -0.00154291 -3.11683 -0.000980059 -5.04322 -0.000905365
-3.19552 -0.00160817 -3.68006 -0.00115716 -5.19413 -0.000932458
-3.15414 -0.00158735 -3.8987 -0.00122591 -5.17833 -0.00092962
-3.20179 -0.00161133 -3.72989 -0.00117283 -4.98109 -0.000894211
-3.3165 -0.00166906 -3.62018 -0.00113833 -4.85759 -0.000872041
-3.37549 -0.00169874 -3.82232 -0.00120189 -4.88041 -0.000876137
-3.41277 -0.0017175 -4.1407 -0.00130201 -4.93624 -0.00088616
-3.47992 -0.0017513 -4.30917 -0.00135498 -4.88892 -0.000877666
-3.54161 -0.00178235 -4.30576 -0.00135391 -4.80123 -0.000861923
-3.57092 -0.00179709 -4.31697 -0.00135743 -4.79618 -0.000861016
-3.59819 -0.00181082 -4.45333 -0.00140031 -4.89705 -0.000879125
-3.63658 -0.00183014 -4.63634 -0.00145785 -5.02755 -0.000902552
-3.66375 -0.00184381 -4.7445 -0.00149186 -5.13522 -0.000921881
-3.67014 -0.00184703 -4.7746 -0.00150133 -5.24866 -0.000942247
-3.6655 -0.00184469 -4.74861 -0.00149316 -5.41685 -0.00097244
-3.64857 -0.00183617 -4.77797 -0.00150239 -5.61669 -0.00100831
-3.63044 -0.00182705 -4.82821 -0.00151819 -5.89441 -0.00105817
-3.59777 -0.00181061 -4.85125 -0.00152543 -6.17188 -0.00110798
-3.54974 -0.00178644 -4.84987 -0.001525 -6.44008 -0.00115613
-3.4964 -0.00175959 -4.84842 -0.00152454 -6.53917 -0.00117392
-3.4329 -0.00172763 -4.84179 -0.00152246 -6.53101 -0.00117246
-3.35464 -0.00168825 -4.83893 -0.00152156 -6.51143 -0.00116894
-3.26821 -0.00164476 -4.80556 -0.00151106 -6.48217 -0.00116369
-3.18113 -0.00160093 -4.74616 -0.00149239 -6.4792 -0.00116315
-3.08687 -0.00155349 -4.70093 -0.00147816 -6.48645 -0.00116446
-2.98474 -0.0015021 -4.65862 -0.00146486 -6.47739 -0.00116283
-2.87755 -0.00144815 -4.60784 -0.00144889 -6.44463 -0.00115695
-2.7679 -0.00139297 -4.54221 -0.00142826 -6.40647 -0.0011501
-2.65632 -0.00133682 -4.47102 -0.00140587 -6.38561 -0.00114635
-2.54267 -0.00127962 -4.405 -0.00138511 -6.38195 -0.0011457
-2.42865 -0.00122224 -4.34216 -0.00136535 -6.37822 -0.00114503
-2.31481 -0.00116495 -4.27584 -0.0013445 -6.3607 -0.00114188
-2.20139 -0.00110787 -4.20461 -0.0013221 -6.33481 -0.00113723
-2.08929 -0.00105145 -4.13323 -0.00129966 -6.31488 -0.00113366
-1.97964 -0.000996273 -4.06556 -0.00127838 -6.30744 -0.00113232
-1.87301 -0.000942611 -4.00034 -0.00125787 -6.30628 -0.00113211
-1.76969 -0.00089061 -3.93452 -0.00123717 -6.28849 -0.00112892
-1.64668 -0.000828706 -3.84702 -0.00120966 -6.18307 -0.00110999
-1.53218 -0.000771081 -3.75531 -0.00118082 -5.99753 -0.00107668
-1.42636 -0.00071783 -3.65948 -0.00115069 -5.74707 -0.00103172
-1.32882 -0.000668741 -3.55709 -0.00111849 -5.41863 -0.000972759
-1.23848 -0.000623276 -3.44713 -0.00108392 -5.00778 -0.000899003
-1.15333 -0.000580422 -3.33009 -0.00104712 -4.52986 -0.000813207
-1.07103 -0.000539006 -3.20509 -0.00100781 -4.00354 -0.000718721
-0.98937 -0.000497909 -3.07046 -0.000965479 -3.43477 -0.000616614
-0.906322 -0.000456114 -2.9255 -0.000919898 -2.82689 -0.000507487
-0.864319 -0.000434976 -2.75361 -0.000865849 -2.19864 -0.000394704
-0.804832 -0.000405039 -2.57623 -0.000810073 -1.55982 -0.000280021
-0.751648 -0.000378273 -2.39825 -0.000754107 -0.911885 -0.000163703
-0.684473 -0.000344467 -2.2072 -0.000694034 -0.273428 -4.90862e-05
-0.601984 -0.000302954 -2.00634 -0.000630875 0.147753 2.65248e-05
-0.508896 -0.000256106 -1.81775 -0.000571574 0.455816 8.18287e-05
-0.405615 -0.000204129 -1.61441 -0.000507637 0.764251 0.000137199
-0.28917 -0.000145528 -1.4083 -0.000442827 1.07277 0.000192585
-0.166847 -8.39672e-05 -1.18901 -0.000373875 1.33719 0.000240055
-0.0326461 -1.64294e-05 -0.960786 -0.000302111 1.58302 0.000284186
0.0981065 4.93729e-05 -0.739264 -0.000232455 1.83508 0.000329436
0.231216 0.000116362 -0.509515 -0.000160212 2.08772 0.000374791
0.373511 0.000187973 -0.27804 -8.74272e-05 2.31819 0.000416165
0.51772 0.000260547 -0.0431977 -1.35831e-05 2.52781 0.000453795
0.667825 0.000336089 0.175004 5.50285e-05 2.72452 0.00048911
0.826111 0.000415747 0.412479 0.0001297 2.93185 0.000526329
0.976252 0.000491307 0.641782 0.000201803 3.13189 0.000562242
1.13539 0.000571395 0.844786 0.000265635 3.30118 0.000592632
1.30933 0.00065893 1.10987 0.000348987 3.4965 0.000627697
1.45649 0.000732993 1.34675 0.000423473 3.69082 0.00066258
1.59206 0.000801219 1.53307 0.000482061 3.8718 0.00069507
1.72114 0.000866179 1.71328 0.000538725 4.05575 0.000728094
1.82857 0.000920243 1.89446 0.000595696 4.25041 0.000763038
1.91849 0.000965494 2.04763 0.000643858 4.44224 0.000797476
1.99347 0.00100323 2.16642 0.000681212 4.6299 0.000831165
2.04901 0.00103118 2.26756 0.000713014 4.82242 0.000865726
2.08736 0.00105048 2.35428 0.000740281 5.01561 0.000900409
2.11113 0.00106244 2.41506 0.000759392 5.20013 0.000933533
2.12035 0.00106708 2.44956 0.000770243 5.37576 0.000965063
2.11743 0.00106562 2.46701 0.000775728 5.54394 0.000995255
2.1048 0.00105926 2.46906 0.000776373 5.69873 0.00102304
2.08414 0.00104886 2.45212 0.000771046 5.83333 0.00104721
2.05819 0.0010358 2.41987 0.000760905 5.94516 0.00106728
2.03029 0.00102176 2.37815 0.000747788 6.03313 0.00108307
2.0032 0.00100813 2.32803 0.000732029 6.06923 0.00108956
1.98017 0.000996538 2.26794 0.000713133 6.07982 0.00109146
1.96313 0.000987964 2.20833 0.000694389 6.06087 0.00108805
1.95607 0.000984409 2.14668 0.000675005 5.96172 0.00107026
1.96067 0.000986725 2.08353 0.000655148 5.79137 0.00103967
1.97813 0.000995509 2.0186 0.00063473 5.56176 0.000998455
2.00928 0.00101119 1.95652 0.00061521 5.26147 0.000944545
2.05324 0.00103331 1.89532 0.000595966 4.88717 0.000877352
2.10879 0.00106127 1.83876 0.000578181 4.45089 0.000799029
2.17809 0.00109614 1.78485 0.000561231 3.97018 0.000712731
2.25796 0.00113634 1.73616 0.000545921 3.45114 0.000619554
2.34679 0.00118104 1.69286 0.000532304 2.89852 0.000520346
2.44238 0.00122915 1.65505 0.000520414 2.32422 0.000417246
2.54185 0.00127921 1.62226 0.000510106 1.74628 0.000313495
2.64234 0.00132978 1.59464 0.000501421 1.17897 0.00021165
2.74101 0.00137943 1.57203 0.000494309 0.632057 0.000113468
2.83483 0.00142665 1.55383 0.000488587 0.116984 2.1001e-05
2.92018 0.00146961 1.54617 0.000486178 -0.118805 -2.1328e-05
2.99379 0.00150665 1.55233 0.000488117 -0.340997 -6.12162e-05
3.05738 0.00153865 1.55451 0.000488803 -0.535714 -9.61721e-05
3.106 0.00156312 1.55557 0.000489134 -0.675254 -0.000121222
3.14012 0.00158029 1.55429 0.000488734 -0.760138 -0.000136461
3.15701 0.00158879 1.55376 0.000488566 -0.818875 -0.000147005
3.15334 0.00158694 1.55281 0.000488269 -0.85232 -0.000153009
3.12882 0.0015746 1.54885 0.000487023 -0.809099 -0.00014525
3.08324 0.00155167 1.54593 0.000486103 -0.672205 -0.000120675
3.01786 0.00151876 1.5437 0.000485402 -0.459662 -8.25191e-05
2.93467 0.0014769 1.542 0.000484867 -0.183002 -3.28527e-05
2.83643 0.00142746 1.53983 0.000484186 0.12803 2.29841e-05
2.72652 0.00137214 1.53404 0.000482365 0.484794 8.70308e-05
2.60767 0.00131233 1.53035 0.000481206 0.875323 0.000157139
2.48389 0.00125004 1.52716 0.0004802 1.29575 0.000232615
2.35783 0.0011866 1.52695 0.000480134 1.72884 0.000310363
2.23234 0.00112344 1.52937 0.000480898 2.17519 0.000390492
2.10919 0.00106147 1.53587 0.00048294 2.62524 0.000471287
1.98965 0.00100131 1.5477 0.000486662 3.06328 0.000549924
1.87472 0.000943466 1.56571 0.000492324 3.47565 0.000623954
1.76529 0.0008884 1.59006 0.000499981 3.85661 0.000692344
1.66226 0.000836545 1.62056 0.00050957 4.20139 0.000754239
1.56616 0.000788183 1.65665 0.000520919 4.50226 0.000808252
1.47694 0.000743284 1.69729 0.000533698 4.75178 0.000853045
1.39393 0.000701506 1.74088 0.000547404 4.94721 0.00088813
1.31591 0.000662244 1.78536 0.000561392 5.08893 0.000913572
1.2412 0.000624644 1.82835 0.000574909 5.17716 0.000929411
1.16755 0.000587579 1.86717 0.000587116 5.21202 0.000935668
1.0922 0.000549657 1.89884 0.000597072 5.19149 0.000931983
1.01211 0.000509353 1.91979 0.00060366 5.11772 0.00091874
0.924375 0.0004652 1.92694 0.000605908 4.99687 0.000897044
0.826801 0.000416095 1.91697 0.000602774 4.83427 0.000867854
0.735854 0.000370325 1.88313 0.000592133 4.6359 0.000832242
0.68238 0.000343414 1.80893 0.000568803 4.41992 0.00079347
0.607428 0.000305693 1.7264 0.00054285 4.16556 0.000747806
0.518268 0.000260823 1.61348 0.000507343 3.89492 0.000699221
0.413315 0.000208005 1.47761 0.00046462 3.60146 0.000646539
0.297316 0.000149627 1.32197 0.00041568 3.28879 0.000590408
0.169381 8.52423e-05 1.14547 0.000360184 2.95865 0.000531141
0.0429266 2.16032e-05 0.948834 0.000298352 2.61104 0.000468737
-0.094973 -4.7796e-05 0.740272 0.000232772 2.24309 0.000402682
-0.233953 -0.000117739 0.512493 0.000161149 1.86319 0.000334482
-0.369935 -0.000186173 0.278767 8.76557e-05 1.46512 0.000263019
-0.507865 -0.000255587 0.0430977 1.35517e-05 1.05189 0.000188837
-0.639517 -0.000321842 -0.208968 -6.5708e-05 0.626801 0.000112524
-0.745984 -0.000375423 -0.437283 -0.0001375 0.200931 3.60713e-05
-0.842678 -0.000424085 -0.633353 -0.000199152 -0.130262 -2.33848e-05
-0.944762 -0.00047546 -0.834139 -0.000262288 -0.380632 -6.83315e-05
-1.03594 -0.000521347 -1.06292 -0.000334225 -0.650693 -0.000116813
-1.1191 -0.000563198 -1.26709 -0.000398427 -0.92753 -0.000166511
-1.1982 -0.000603006 -1.45634 -0.000457934 -1.18419 -0.000212587
-1.27184 -0.000640066 -1.64513 -0.000517295 -1.46053 -0.000262197
-1.33911 -0.000673921 -1.83361 -0.000576561 -1.7626 -0.000316425
-1.40117 -0.000705149 -2.00569 -0.00063067 -2.07129 -0.000371841
-1.45588 -0.000732682 -2.16256 -0.000679997 -2.37381 -0.00042615
-1.49393 -0.000751835 -2.31747 -0.000728709 -2.67728 -0.00048063
-1.5276 -0.000768779 -2.46385 -0.000774737 -2.98771 -0.000536357
-1.5524 -0.000781258 -2.59738 -0.000816724 -3.2991 -0.000592259
-1.57101 -0.000790625 -2.71778 -0.000854582 -3.60089 -0.000646437
-1.58504 -0.000797684 -2.82964 -0.000889754 -3.8909 -0.000698499
-1.59444 -0.000802414 -2.93197 -0.000921933 -4.17058 -0.000748708
-1.59996 -0.000805195 -3.02268 -0.000950453 -4.43669 -0.000796481
-1.60274 -0.000806592 -3.10262 -0.000975592 -4.68314 -0.000840724
-1.60341 -0.000806931 -3.17385 -0.000997987 -4.90544 -0.00088063
-1.60263 -0.000806538 -3.2363 -0.00101763 -5.10198 -0.000915913
-1.60097 -0.000805703 -3.28922 -0.00103427 -5.27137 -0.000946323
-1.59883 -0.000804623 -3.33308 -0.00104806 -5.41094 -0.000971378
-1.59635 -0.000803376 -3.36876 -0.00105928 -5.51772 -0.000990548
-1.58924 -0.000799798 -3.39732 -0.00106826 -5.59028 -0.00100357
-1.57685 -0.000793564 -3.41732 -0.00107454 -5.62832 -0.0010104
-1.55982 -0.000784991 -3.42814 -0.00107795 -5.62463 -0.00100974
-1.53971 -0.000774874 -3.42795 -0.00107789 -5.55518 -0.000997272
-1.51773 -0.000763811 -3.41551 -0.00107397 -5.42287 -0.00097352
-1.49458 -0.000752162 -3.38926 -0.00106572 -5.23187 -0.000939232
-1.46976 -0.000739669 -3.34734 -0.00105254 -4.98312 -0.000894576
-1.44327 -0.000726338 -3.28752 -0.00103373 -4.68148 -0.000840425
-1.41525 -0.000712235 -3.21037 -0.00100947 -4.33534 -0.000778286
-1.38815 -0.000698598 -3.11781 -0.000980368 -3.95587 -0.000710163
-1.36064 -0.000684752 -3.01815 -0.00094903 -3.54716 -0.000636791
-1.32753 -0.000668089 -2.90004 -0.000911893 -3.11171 -0.000558618
-1.28991 -0.000649159 -2.76163 -0.000868369 -2.65547 -0.000476713
-1.24921 -0.000628677 -2.61204 -0.000821332 -2.18847 -0.000392876
-1.20349 -0.000605668 -2.45395 -0.000771621 -1.71463 -0.000307813
-1.15272 -0.000580116 -2.28137 -0.000717357 -1.23508 -0.000221723
-1.09792 -0.000552539 -2.09493 -0.000658733 -0.754054 -0.000135369
-1.03922 -0.000522997 -1.9009 -0.00059772 -0.277189 -4.97613e-05
-0.976917 -0.000491642 -1.70204 -0.00053519 0.0796688 1.43022e-05
-0.909471 -0.000457699 -1.51064 -0.000475007 0.338271 6.07268e-05
-0.840138 -0.000422807 -1.30919 -0.000411664 0.580874 0.000104279
-0.767633 -0.000386318 -1.11347 -0.000350122 0.840818 0.000150945
-0.69366 -0.00034909 -0.916038 -0.00028804 1.08076 0.000194019
-0.616735 -0.000310377 -0.72081 -0.000226652 1.30694 0.000234624
-0.537604 -0.000270554 -0.530898 -0.000166936 1.53917 0.000276313
-0.456404 -0.000229689 -0.349612 -0.000109932 1.78337 0.000320152
-0.373078 -0.000187755 -0.176653 -5.5547e-05 2.02498 0.000363527
-0.286654 -0.000144261 -0.0166183 -5.22547e-06 2.25416 0.00040467
-0.19557 -9.84222e-05 0.136768 4.30056e-05 2.48203 0.000445577
-0.103817 -5.22469e-05 0.277297 8.71935e-05 2.71412 0.000487243
-0.0126678 -6.37519e-06 0.402702 0.000126626 2.94141 0.000528045
0.0772749 3.88893e-05 0.516567 0.00016243 3.15828 0.000566979
0.166924 8.40062e-05 0.621552 0.000195441 3.36716 0.000604476
0.258446 0.000130065 0.713827 0.000224457 3.56493 0.000639982
0.345369 0.00017381 0.802708 0.000252404 3.75787 0.000674618
0.41542 0.000209064 0.908559 0.000285688 3.92552 0.000704713
0.485521 0.000244343 0.984664 0.000309619 4.08055 0.000732546
0.554083 0.000278847 1.05444 0.00033156 4.21143 0.000756041
0.626036 0.000315058 1.12282 0.000353059 4.32721 0.000776827
0.697255 0.0003509 1.185 0.000372614 4.42094 0.000793653
0.770311 0.000387666 1.23578 0.000388579 4.491 0.000806231
0.846403 0.00042596 1.28075 0.00040272 4.53828 0.000814718
0.924719 0.000465373 1.32277 0.000415934 4.5641 0.000819353
1.00593 0.000506244 1.35971 0.000427548 4.56124 0.00081884
1.09089 0.000549 1.38926 0.000436841 4.51428 0.000810409
1.17926 0.000593475 1.41358 0.000444487 4.42687 0.000794717
1.2712 0.000639742 1.43405 0.000450925 4.30202 0.000772303
1.36654 0.000687725 1.45019 0.000456001 4.13985 0.000743191
1.46463 0.000737089 1.46189 0.000459679 3.94399 0.00070803
1.56479 0.000787492 1.47048 0.000462378 3.72139 0.000668069
1.66617 0.000838512 1.47669 0.000464332 3.47824 0.000624419
1.76762 0.000889568 1.48053 0.000465539 3.21906 0.000577889
1.86786 0.000940017 1.48243 0.000466136 2.94911 0.000529429
1.96554 0.000989177 1.48323 0.000466388 2.67546 0.000480303
2.05932 0.00103637 1.48337 0.000466432 2.40517 0.00043178
2.14809 0.00108104 1.48296 0.000466304 2.14423 0.000384935
2.23094 0.00112274 1.48228 0.000466089 1.89824 0.000340774
35.6271 0.175369 1.22837 0.000386251 1.78816 0.000321012
8.93253 0.441154 0.635548 0.000199842 2.1399 0.000384158
2.3342 0.494941 0.837048 0.000263202 1.59899 0.000287053
-3.41924 0.441644 0.767326 0.000241279 1.47481 0.00026476
2.52054 0.453136 0.828416 0.000260488 1.18308 0.000212388
8.93253 0.508564 0.84473 0.000265618 1.00325 0.000180105
2.99266 0.513082 0.927896 0.000291769 0.741773 0.000133164
5.01886 0.514102 0.950782 0.000298965 0.550805 9.88811e-05
8.93253 0.534742 1.05402 0.000331427 0.361513 6.48993e-05
8.93253 0.566001 1.0753 0.000338119 0.307214 5.51515e-05
8.93253 0.574782 1.19304 0.00037514 0.188614 3.38601e-05
8.93253 0.58698 1.24944 0.000392874 0.157875 2.8342e-05
8.93253 0.609401 1.31305 0.000412876 0.19198 3.44645e-05
8.93253 0.627991 1.38355 0.000435044 0.297436 5.33961e-05
8.93253 0.635862 1.46248 0.000459865 0.421614 7.56887e-05
8.93253 0.642914 1.52739 0.000480275 0.599564 0.000107634
8.93253 0.652979 1.58874 0.000499565 0.848806 0.000152379
8.93253 0.658787 1.65715 0.000521075 1.15027 0.000206497
8.31748 0.658796 1.72361 0.000541974 1.48514 0.000266614
7.86807 0.65857 1.77978 0.000559635 1.85735 0.000333433
6.8931 0.658079 1.83912 0.000578296 2.26465 0.000406554
4.49285 0.656871 1.892 0.000594923 2.70511 0.000485625
1.62142 0.655426 1.94014 0.00061006 3.1586 0.000567037
-0.0455335 0.653698 1.98484 0.000624115 3.61554 0.000649066
-0.254604 0.649507 2.03152 0.000638794 4.06871 0.00073042
-0.668692 0.641206 2.08141 0.000654481 4.50776 0.000809239
-1.16416 0.631274 2.12668 0.000668716 4.79371 0.000860573
-1.59778 0.622582 2.15719 0.00067831 5.0235 0.000901826
-2.00358 0.614447 2.19419 0.000689942 5.22364 0.000937754
-2.42499 0.606 2.2254 0.000699756 5.40401 0.000970134
-2.84274 0.597626 2.25609 0.000709407 5.55763 0.000997713
-3.22052 0.590053 2.2839 0.000718153 5.68312 0.00102024
-3.59319 0.582583 2.31103 0.000726681 5.77806 0.00103728
-3.98776 0.574673 2.33608 0.000734559 5.84214 0.00104879
-4.39216 0.566567 2.35802 0.000741459 5.87455 0.00105461
-4.79932 0.558405 2.37551 0.000746958 5.87041 0.00105386
-5.23695 0.549633 2.38623 0.000750327 5.81331 0.00104361
-5.71387 0.540072 2.38817 0.000750937 5.70483 0.00102414
-6.21088 0.53011 2.37832 0.00074784 5.55129 0.000996575
-6.66391 0.521028 2.34786 0.000738263 5.35851 0.000961966
-6.92162 0.515862 2.28007 0.000716948 5.1457 0.000923763
-7.27639 0.508751 2.21919 0.000697804 4.88159 0.000876349
-7.75903 0.499076 2.13305 0.000670718 4.59924 0.000825662
-8.33926 0.487445 2.03947 0.000641292 4.28705 0.000769617
-8.92939 0.475615 1.92894 0.000606538 3.95924 0.000710768
-9.6024 0.462124 1.80808 0.000568534 3.61192 0.000648417
-10.4053 0.446031 1.67536 0.000526803 3.25169 0.000583747
-11.2844 0.428408 1.53074 0.000481328 2.8844 0.000517812
-12.1743 0.410569 1.37269 0.000431631 2.51455 0.000451416
-13.0869 0.392276 1.20426 0.00037867 2.14156 0.000384456
-14.0247 0.373477 1.02542 0.000322433 1.76849 0.000317482
-14.9523 0.354883 0.838456 0.000263645 1.3978 0.000250935
-15.8541 0.336806 0.647755 0.000203681 1.02961 0.000184837
-16.7952 0.317941 0.463198 0.000145649 0.657022 0.000117949
-17.6836 0.300132 0.272602 8.57172e-05 0.291558 5.23408e-05
-18.4773 0.284222 0.0897254 2.82133e-05 0.0234397 4.20792e-06
-19.1614 0.270508 -0.0738791 -2.32306e-05 -0.185688 -3.33349e-05
-19.7256 0.2592 -0.227939 -7.16733e-05 -0.37781 -6.78249e-05
-20.1628 0.250435 -0.371927 -0.000116949 -0.564401 -0.000101322
-20.4589 0.244499 -0.506388 -0.000159229 -0.737065 -0.000132319
-20.5675 0.242322 -0.61022 -0.000191878 -0.914137 -0.000164107
-20.2138 0.242439 -0.693345 -0.000218016 -1.10106 -0.000197664
-19.5813 0.242757 -0.768548 -0.000241663 -1.29018 -0.000231615
-18.2227 0.243441 -0.830906 -0.000261271 -1.46869 -0.000263661
-15.9402 0.24459 -0.8652 -0.000272054 -1.64128 -0.000294645
-13.0309 0.246054 -0.87799 -0.000276076 -1.81432 -0.000325709
-9.52967 0.247816 -0.873325 -0.000274609 -1.98015 -0.000355479
-5.42376 0.249882 -0.850829 -0.000267536 -2.1287 -0.000382148
-0.894292 0.252162 -0.807827 -0.000254014 -2.25563 -0.000404933
0.0596556 0.255327 -0.748094 -0.000235231 -2.36347 -0.000424293
0.197699 0.261609 -0.681359 -0.000214247 -2.44747 -0.000439372
0.434562 0.272388 -0.608216 -0.000191248 -2.49888 -0.000448602
0.731641 0.285907 -0.52502 -0.000165088 -2.51328 -0.000451188
1.01667 0.298878 -0.429666 -0.000135105 -2.47884 -0.000445004
1.25632 0.309783 -0.324911 -0.000102165 -2.37703 -0.000426728
1.47766 0.319856 -0.213521 -6.71399e-05 -2.19292 -0.000393676
1.70508 0.330205 -0.0717689 -2.25671e-05 -1.92504 -0.000345586
1.87728 0.338042 0.0673546 2.11791e-05 -1.58239 -0.000284073
1.97755 0.342604 0.198947 6.25571e-05 -1.16802 -0.000209684
2.04488 0.345669 0.337587 0.000106151 -0.678632 -0.000121829
2.08956 0.347702 0.481285 0.000151336 -0.12151 -2.18136e-05
2.05917 0.348574 0.610829 0.00019207 0.366589 6.58106e-05
1.05178 0.348067 0.724435 0.000227792 0.797698 0.000143204
-0.0246177 0.34727 0.833722 0.000262156 1.28554 0.000230782
-0.294381 0.344335 0.941564 0.000296066 1.78889 0.000321144
-0.878776 0.337978 1.05009 0.00033019 2.28213 0.000409691
-1.57562 0.330397 1.14909 0.000361321 2.77418 0.000498024
-2.28176 0.322715 1.24313 0.00039089 3.27756 0.000588392
-3.08026 0.314029 1.33415 0.000419512 3.77562 0.000677803
-3.98884 0.304145 1.42066 0.000446715 4.2438 0.000761853
-4.90655 0.294162 1.50119 0.000472035 4.67636 0.000839506
-5.81762 0.284251 1.57744 0.000496011 5.07864 0.000911724
-6.78034 0.273778 1.65022 0.000518896 5.44483 0.000977463
-7.78002 0.262903 1.71752 0.000540058 5.76204 0.00103441
-8.70891 0.252798 1.77463 0.000558015 6.02365 0.00108137
-9.35614 0.245757 1.80552 0.000567729 6.07215 0.00109008
-9.96531 0.23913 1.8247 0.00057376 6.07614 0.0010908
-10.5953 0.232277 1.83612 0.000577351 6.10677 0.00109629
-11.1967 0.225735 1.83794 0.000577923 6.12003 0.00109868
-11.7045 0.220211 1.83395 0.000576668 6.07345 0.00109031
-12.2125 0.214685 1.82223 0.000572985 5.94847 0.00106788
-12.658 0.209838 1.78259 0.000560518 5.78062 0.00103774
-13.1174 0.20484 1.73102 0.000544302 5.54078 0.000994687
-13.5478 0.200159 1.66142 0.000522417 5.21273 0.000935797
-13.9665 0.195604 1.57445 0.000495072 4.81161 0.000863787
-14.3941 0.190953 1.46899 0.000461912 4.36594 0.000783779
-14.8431 0.186068 1.34715 0.000423598 3.87982 0.00069651
-15.3171 0.180912 1.21011 0.000380508 3.34418 0.000600352
-15.8186 0.175456 1.05801 0.000332683 2.76515 0.000496404
-16.3035 0.17018 0.888982 0.000279532 2.16371 0.000388432
-16.7812 0.164984 0.708626 0.000222821 1.54864 0.000278014
-17.268 0.159688 0.517744 0.0001628 0.921569 0.000165441
-17.7859 0.154055 0.320152 0.000100669 0.28384 5.09554e-05
-18.3309 0.148126 0.120726 3.79612e-05 -0.116742 -2.09577e-05
-18.9315 0.141592 -0.0514205 -1.61687e-05 -0.437251 -7.84958e-05
-19.5112 0.135286 -0.232621 -7.31456e-05 -0.751949 -0.000134991
-20.0636 0.129277 -0.401479 -0.000126241 -1.0458 -0.000187743
-20.6142 0.123287 -0.577003 -0.000181433 -1.3074 -0.000234705
-21.0325 0.118737 -0.725064 -0.00022799 -1.56057 -0.000280156
-21.4478 0.114219 -0.849592 -0.000267147 -1.82541 -0.000327701
-21.9957 0.108259 -0.985225 -0.000309795 -2.08502 -0.000374306
-22.6038 0.101644 -1.1209 -0.000352458 -2.31639 -0.000415841
-23.1271 0.0959508 -1.23896 -0.00038958 -2.5226 -0.000452861
-23.6271 0.0905115 -1.34153 -0.000421833 -2.72077 -0.000488436
-24.1958 0.0843244 -1.44178 -0.000453356 -2.91124 -0.000522629
-24.7868 0.0778953 -1.53825 -0.000483688 -3.07675 -0.000552343
-25.3366 0.0719149 -1.62114 -0.000509752 -3.21194 -0.000576612
-25.8837 0.0659627 -1.69031 -0.000531501 -3.32716 -0.000597295
-26.4681 0.0596059 -1.75288 -0.000551176 -3.42748 -0.000615306
-27.0639 0.0531248 -1.80849 -0.000568664 -3.50495 -0.000629213
-27.6386 0.0468722 -1.85249 -0.000582499 -3.55307 -0.000637852
-28.2035 0.0407278 -1.88493 -0.000592699 -3.57625 -0.000642013
-28.772 0.0345432 -1.90918 -0.000600326 -3.5712 -0.000641106
-29.3361 0.0284067 -1.92349 -0.000604823 -3.52077 -0.000632053
-29.8896 0.0223851 -1.92358 -0.000604852 -3.42327 -0.00061455
-30.4178 0.0166387 -1.91213 -0.000601253 -3.28018 -0.000588861
-30.9533 0.0108142 -1.8898 -0.00059423 -3.0977 -0.000556104
-31.4797 0.00508689 -1.85818 -0.000584288 -2.87876 -0.000516798
-31.8153 0.00143657 -1.81631 -0.000571123 -2.62416 -0.000471092
-31.8333 0.00124023 -1.77623 -0.000558521 -2.32891 -0.000418089
-31.8534 0.00102224 -1.71198 -0.000538318 -2.02323 -0.000363213
-31.8681 0.000862495 -1.6527 -0.000519677 -1.69249 -0.000303837
-31.8742 0.000795611 -1.58186 -0.000497402 -1.35526 -0.000243298
-31.8769 0.000766446 -1.49797 -0.000471022 -1.00786 -0.000180933
-31.8785 0.000749414 -1.40671 -0.000442327 -0.659253 -0.00011835
-31.8459 0.000765829 -1.31239 -0.00041267 -0.315033 -5.65551e-05
-31.7517 0.00081321 -1.21142 -0.000380921 -0.000378966 -6.80325e-08
-31.5929 0.000893113 -1.10928 -0.000348802 0.201983 3.62603e-05
-31.3119 0.00103452 -1.00301 -0.000315386 0.390364 7.00786e-05
-30.8383 0.00127291 -0.89736 -0.000282167 0.586775 0.000105339
-30.0202 0.00168461 -0.787967 -0.000247769 0.764761 0.000137291
-28.5704 0.00241422 -0.676536 -0.000212731 0.926768 0.000166375
-26.5907 0.00341051 -0.566261 -0.000178056 1.08364 0.000194536
-24.5199 0.00445268 -0.458907 -0.000144299 1.2402 0.000222643
-22.5089 0.00546473 -0.354343 -0.00011142 1.38867 0.000249296
-20.5944 0.00642823 -0.253243 -7.963e-05 1.52435 0.000273653
-18.8726 0.00729474 -0.157821 -4.96254e-05 1.65152 0.000296483
-17.4154 0.00802808 -0.0698684 -2.19695e-05 1.77572 0.00031878
-16.2718 0.00860362 0.00838853 2.6377e-06 1.89528 0.000340243
-15.5219 0.00898099 0.0767687 2.41392e-05 2.00545 0.000360022
-15.1715 0.00915733 0.13529 4.25408e-05 2.10827 0.00037848
-15.2664 0.00910956 0.183282 5.76313e-05 2.20524 0.000395888
-15.8043 0.00883888 0.220038 6.9189e-05 2.29726 0.000412406
-16.7815 0.00834712 0.2455 7.71954e-05 2.38164 0.000427556
-18.175 0.00764578 0.259005 8.14419e-05 2.45655 0.000441003
-19.9901 0.00673233 0.260205 8.18192e-05 2.52213 0.000452776
-22.2201 0.00561005 0.246811 7.76074e-05 2.57678 0.000462586
-24.8695 0.00427673 0.218945 6.88452e-05 2.61881 0.000470133
-27.7744 0.00281482 0.178974 5.62766e-05 2.64597 0.000475008
-30.1868 0.00160078 0.126389 3.9742e-05 2.65704 0.000476994
-31.3235 0.0010287 0.0598092 1.88065e-05 2.6458 0.000474978
-31.8705 0.000753433 -0.016704 -5.25241e-06 2.60246 0.000467197
-31.8956 0.000562954 -0.100761 -3.16835e-05 2.52289 0.000452912
-31.9072 0.000436756 -0.192075 -6.03964e-05 2.41015 0.000432673
-31.9154 0.000347725 -0.280728 -8.82725e-05 2.26075 0.000405853
-31.9219 0.000276808 -0.369371 -0.000116145 2.0739 0.000372309
-31.9276 0.000215239 -0.4648 -0.000146152 1.84627 0.000331444
-31.9325 0.000161313 -0.566954 -0.000178274 1.57994 0.000283633
-31.9371 0.000111858 -0.669512 -0.000210522 1.27757 0.000229351
-31.9412 6.69124e-05 -0.769999 -0.000242119 0.941168 0.00016896
-31.9452 2.34034e-05 -0.872882 -0.00027447 0.574862 0.0001032
-31.948 -6.73537e-06 -0.984445 -0.00030955 0.186207 3.34281e-05
-31.951 -3.93824e-05 -1.09356 -0.000343861 -0.116298 -2.0878e-05
-31.954 -7.21972e-05 -1.1894 -0.000373996 -0.378025 -6.78636e-05
-31.9569 -0.000103505 -1.29476 -0.000407125 -0.641437 -0.000115152
-31.9599 -0.000135982 -1.39736 -0.000439386 -0.901252 -0.000161794
-31.9627 -0.000167132 -1.50424 -0.000472996 -1.14419 -0.000205407
-31.9656 -0.000198356 -1.61065 -0.000506455 -1.39096 -0.000249707
-31.9684 -0.000228791 -1.71915 -0.000540572 -1.64371 -0.00029508
-31.9711 -0.000258458 -1.8295 -0.000575271 -1.88821 -0.000338974
-31.9738 -0.000287211 -1.94181 -0.000610584 -2.11349 -0.000379416
-31.9763 -0.000315159 -2.05513 -0.000646216 -2.32554 -0.000417483
-31.9787 -0.000340537 -2.17 -0.000682337 -2.53008 -0.000454204
-31.9807 -0.000362266 -2.2866 -0.000719 -2.72269 -0.00048878
-31.9823 -0.000380259 -2.40195 -0.000755272 -2.89733 -0.000520132
-31.9837 -0.000395127 -2.51547 -0.000790967 -3.05403 -0.000548263
-31.9848 -0.000407383 -2.62585 -0.000825674 -3.19833 -0.000574169
-31.9857 -0.000417207 -2.73117 -0.000858792 -3.33172 -0.000598115
-31.9864 -0.000424921 -2.8294 -0.000889679 -3.45196 -0.0006197
-31.987 -0.000430908 -2.91897 -0.000917844 -3.55863 -0.000638849
-31.9874 -0.000435463 -2.99841 -0.000942823 -3.65459 -0.000656077
-31.9877 -0.000438866 -3.06615 -0.000964123 -3.74208 -0.000671783
-31.9879 -0.000441318 -3.12092 -0.000981346 -3.82071 -0.000685898
-31.9881 -0.000442849 -3.16201 -0.000994265 -3.88944 -0.000698237
-31.9881 -0.000443391 -3.18902 -0.00100276 -3.9485 -0.000708839
-31.9871 -0.000442902 -3.20171 -0.00100675 -3.99836 -0.00071779
-31.9836 -0.000441098 -3.20028 -0.0010063 -4.03882 -0.000725054
-31.9754 -0.000436977 -3.18238 -0.00100067 -4.06621 -0.000729971
-31.964 -0.000431234 -3.14746 -0.000989691 -4.0791 -0.000732286
-31.9538 -0.000426139 -3.09959 -0.000974638 -4.07582 -0.000731697
-31.9477 -0.000423035 -3.05012 -0.000959083 -4.05002 -0.000727065
-31.9395 -0.000418935 -2.99076 -0.000940418 -3.9922 -0.000716686
-31.9309 -0.000414594 -2.91601 -0.000916914 -3.89829 -0.000699826
-31.9249 -0.000411603 -2.83465 -0.000891331 -3.76874 -0.00067657
-31.9205 -0.000409363 -2.75372 -0.000865881 -3.603 -0.000646815
-31.9177 -0.000407956 -2.66857 -0.000839107 -3.39814 -0.000610038
-31.9169 -0.000407538 -2.57327 -0.000809142 -3.15477 -0.000566348
-31.8979 -0.000397984 -2.48305 -0.000780773 -2.87087 -0.000515382
-31.8924 -0.000395213 -2.39299 -0.000752454 -2.55587 -0.000458832
-31.8879 -0.000392984 -2.30434 -0.00072458 -2.21115 -0.000396949
-31.8885 -0.000393278 -2.2134 -0.000695985 -1.84039 -0.000330389
-31.8955 -0.00039676 -2.12365 -0.000667761 -1.44869 -0.000260071
-31.9055 -0.000401801 -2.03641 -0.000640332 -1.04496 -0.000187592
-31.9185 -0.000408341 -1.95148 -0.000613626 -0.63373 -0.000113768
-31.9333 -0.000415832 -1.86835 -0.000587485 -0.220934 -3.96623e-05
-31.9481 -0.000423237 -1.78925 -0.000562614 0.0647625 1.16262e-05
-31.958 -0.000428234 -1.72588 -0.000542688 0.273347 4.90717e-05
-31.9665 -0.000432514 -1.66116 -0.000522337 0.480918 8.6335e-05
-31.9667 -0.000432629 -1.60366 -0.000504258 0.684598 0.0001229
-31.9595 -0.000428998 -1.54598 -0.000486121 0.854085 0.000153326
-31.9436 -0.000421013 -1.49188 -0.000469109 1.00228 0.00017993
-31.9191 -0.000408649 -1.44149 -0.000453262 1.14223 0.000205054
-31.8847 -0.000391364 -1.39404 -0.000438345 1.2705 0.000228082
-31.839 -0.000368357 -1.34808 -0.000423892 1.37122 0.000246163
-31.7801 -0.000338686 -1.30394 -0.000410013 1.44219 0.000258904
-31.706 -0.000301409 -1.26204 -0.000396838 1.49221 0.000267884
-31.6142 -0.000255231 -1.22205 -0.000384261 1.52458 0.000273694
-31.5009 -0.000198206 -1.18342 -0.000372116 1.52886 0.000274462
-31.3601 -0.000127335 -1.14712 -0.000360702 1.48735 0.000267011
-31.183 -3.82128e-05 -1.11308 -0.000349998 1.40596 0.000252399
-30.9546 7.67379e-05 -1.08098 -0.000339903 1.29128 0.000231813
-30.6434 0.000233345 -1.04994 -0.000330145 1.14346 0.000205276
-30.1643 0.000474475 -1.01943 -0.00032055 0.963796 0.000173022
-29.1259 0.000997064 -0.989156 -0.000311031 0.759402 0.000136329
-23.9712 0.0035912 -0.961713 -0.000302402 0.540701 9.70672e-05
-14.5137 0.00835077 -0.937101 -0.000294663 0.315817 5.66959e-05
-6.90437 0.0121802 -0.891785 -0.000280414 0.0884576 1.588e-05
0.00554782 0.0160545 -0.850469 -0.000267422 -0.0849136 -1.52438e-05
0.082898 0.0216264 -0.812211 -0.000255392 -0.245775 -4.41218e-05
0.238102 0.0328065 -0.781306 -0.000245675 -0.386791 -6.94373e-05
0.492025 0.0510977 -0.756916 -0.000238006 -0.496131 -8.9066e-05
0.800081 0.0732884 -0.736313 -0.000231527 -0.588242 -0.000105602
1.09947 0.0948546 -0.711486 -0.00022372 -0.669778 -0.000120239
1.37255 0.114526 -0.682016 -0.000214454 -0.731729 -0.000131361
1.63926 0.133738 -0.648969 -0.000204062 -0.765889 -0.000137493
1.90641 0.152982 -0.610453 -0.000191951 -0.773426 -0.000138846
2.15802 0.171107 -0.56549 -0.000177813 -0.753612 -0.000135289
2.38585 0.187519 -0.514656 -0.000161829 -0.697976 -0.000125302
2.59983 0.202933 -0.458683 -0.000144229 -0.600939 -0.000107881
2.8072 0.217871 -0.395929 -0.000124496 -0.462382 -8.30074e-05
3.00328 0.231995 -0.326213 -0.000102575 -0.285445 -5.12435e-05
3.18561 0.245129 -0.251914 -7.9212e-05 -0.0731339 -1.31291e-05
3.36128 0.257783 -0.177211 -5.57223e-05 0.1648 2.95851e-05
3.53773 0.270494 -0.101725 -3.19865e-05 0.337552 6.05977e-05
3.71964 0.283597 -0.0233134 -7.33069e-06 0.510574 9.16589e-05
3.91789 0.297878 0.0596964 1.8771e-05 0.713852 0.000128152
4.14571 0.31429 0.157724 4.95949e-05 0.940395 0.000168821
4.36767 0.330278 0.251054 7.89415e-05 1.16642 0.000209397
4.58089 0.345637 0.342862 0.00010781 1.38806 0.000249187
4.80713 0.361934 0.444314 0.00013971 1.62313 0.000291387
5.05166 0.379549 0.551485 0.00017341 1.87038 0.000335773
5.29888 0.397358 0.658525 0.000207067 2.11463 0.000379622
5.54568 0.415135 0.768039 0.000241503 2.35073 0.000422006
5.80355 0.433711 0.883314 0.00027775 2.58384 0.000463854
6.0759 0.453329 1.00142 0.000314888 2.81506 0.000505363
6.35614 0.473516 1.11942 0.000351991 3.03878 0.000545525
6.64353 0.494218 1.23802 0.000389284 3.25103 0.000583628
6.94419 0.515876 1.35744 0.000426836 3.45229 0.00061976
7.25928 0.538574 1.47563 0.000463997 3.64347 0.000654081
7.58422 0.561981 1.59106 0.000500296 3.82328 0.00068636
7.91734 0.585977 1.70374 0.000535726 3.98976 0.000716246
8.26057 0.610702 1.81325 0.000570161 4.1422 0.000743613
8.61279 0.636074 1.91856 0.000603273 4.28095 0.000768521
8.93253 0.661751 2.01925 0.000634936 4.40613 0.000790993
8.93253 0.688549 2.11309 0.000664442 4.51796 0.000811071
8.93253 0.716273 2.20043 0.000691906 4.61669 0.000828795
8.93253 0.743425 2.28473 0.000718412 4.69942 0.000843646
8.93253 0.769265 2.36417 0.000743392 4.76874 0.00085609
8.93253 0.794321 2.43833 0.000766711 4.82441 0.000866085
8.93253 0.819748 2.5041 0.000787391 4.86866 0.000874029
8.93253 0.845169 2.56168 0.000805497 4.90199 0.000880012
8.93253 0.869325 2.61363 0.000821832 4.9232 0.000883819
8.93253 0.892079 2.658 0.000835783 4.93485 0.00088591
8.93253 0.914001 2.69475 0.000847339 4.93382 0.000885726
8.93253 0.934622 2.72437 0.000856655 4.91895 0.000883057
8.93253 0.953293 2.74838 0.000864203 4.88949 0.000877768
8.93253 0.97045 2.76488 0.000869391 4.84895 0.00087049
8.93253 0.986584 2.77492 0.00087255 4.79752 0.000861257
8.93253 1.00138 2.77911 0.000873865 4.7369 0.000850375
8.93253 1.01423 2.77897 0.000873823 4.66743 0.000837904
8.93253 1.02313 2.78069 0.000874362 4.58933 0.000823882
8.93253 1.03171 2.77602 0.000872893 4.50562 0.000808854
8.93253 1.03918 2.76559 0.000869616 4.42008 0.000793498
8.93253 1.04377 2.75703 0.000866922 4.32366 0.00077619
8.93253 1.047 2.74259 0.000862383 4.22619 0.000758691
8.93253 1.04953 2.72563 0.000857049 4.12766 0.000741003
8.93253 1.05078 2.70629 0.000850968 4.03007 0.000723484
8.268 1.05044 2.68556 0.000844452 3.93248 0.000705964
7.32588 1.04997 2.6586 0.000835973 3.84075 0.000689497
6.0047 1.0493 2.62952 0.000826829 3.75379 0.000673885
4.06996 1.04833 2.59549 0.000816127 3.67563 0.000659853
1.73745 1.04716 2.55751 0.000804185 3.60435 0.000647058
-0.0181886 1.0457 2.51593 0.000791113 3.54064 0.00063562
-0.125675 1.04229 2.47386 0.000777882 3.48312 0.000625295
-0.372227 1.03447 2.43628 0.000766066 3.42808 0.000615413
-0.750439 1.02246 2.40129 0.000755063 3.37669 0.000606187
-1.18738 1.0086 2.36562 0.000743848 3.33158 0.000598089
-1.66113 0.99356 2.32974 0.000732567 3.29244 0.000591063
-2.21053 0.976123 2.29486 0.000721597 3.25823 0.000584922
-2.84952 0.955843 2.26016 0.000710687 3.22907 0.000579687
-3.55567 0.933431 2.22432 0.000699417 3.20577 0.000575504
-4.32194 0.909111 2.1863 0.000687464 3.18866 0.000572431
-5.16085 0.882485 2.14516 0.000674527 3.17732 0.000570397
-6.07696 0.853409 2.0995 0.000660168 3.17176 0.000569398
-7.05834 0.822262 2.048 0.000643976 3.17162 0.000569373
-8.09471 0.789369 1.98903 0.000625433 3.17671 0.000570286
-9.18932 0.754628 1.92234 0.000604464 3.18465 0.000571713
-10.3448 0.717954 1.84712 0.000580812 3.19377 0.000573349
-11.557 0.679483 1.76296 0.000554348 3.20167 0.000574768
-12.8201 0.639392 1.66949 0.000524955 3.20568 0.000575488
-14.1322 0.597749 1.56659 0.0004926 3.20246 0.00057491
-15.4899 0.554658 1.45421 0.000457262 3.18856 0.000572415
-16.8876 0.510296 1.33253 0.000419003 3.16047 0.000567372
-18.3178 0.464904 1.20302 0.000378277 3.114 0.000559028
-19.7567 0.419237 1.07305 0.000337412 3.03996 0.000545737
-21.1384 0.375382 0.92115 0.000289647 2.95312 0.000530148
-22.5461 0.330706 0.772842 0.000243013 2.82549 0.000507235
-23.9529 0.286055 0.614319 0.000193167 2.6676 0.00047889
-25.2892 0.243643 0.447015 0.00014056 2.47458 0.000444239
-26.5989 0.202075 0.279689 8.79457e-05 2.24264 0.000402602
-27.8508 0.162344 0.107625 3.38416e-05 1.97545 0.000354635
-29.0185 0.125282 -0.0552311 -1.73669e-05 1.67484 0.00030067
-30.132 0.0899405 -0.223896 -7.04021e-05 1.33859 0.000240305
-31.1677 0.0570699 -0.37916 -0.000119223 0.975597 0.000175141
-32.0968 0.0275822 -0.51821 -0.000162947 0.588243 0.000105602
-32.9374 0.000903961 -0.661999 -0.00020816 0.164178 2.94735e-05
-32.9516 0.00045281 -0.907725 -0.000285426 -0.159737 -2.86762e-05
-32.9593 0.000206636 -1.04239 -0.000327772 -0.401102 -7.20063e-05
-32.9657 6.14472e-06 -1.22914 -0.000386492 -0.644292 -0.000115664
-32.9703 -0.000140446 -1.40905 -0.000443064 -0.926774 -0.000166376
-32.9735 -0.000244204 -1.59267 -0.0005008 -1.1934 -0.00021424
-32.977 -0.000352603 -1.76129 -0.000553823 -1.45355 -0.000260944
-32.9801 -0.000451476 -1.93263 -0.000607698 -1.73477 -0.000311428
-32.9828 -0.000538794 -2.10987 -0.00066343 -2.0365 -0.000365594
-32.9856 -0.00062717 -2.28913 -0.000719797 -2.32595 -0.000417557
-32.9884 -0.000714447 -2.46592 -0.000775386 -2.60313 -0.000467318
-32.991 -0.000798658 -2.64616 -0.000832062 -2.8835 -0.000517649
-32.7785 -0.000800725 -2.82509 -0.000888324 -2.97884 -0.000534765
-32.4291 -0.000624909 -3.20808 -0.00100875 -3.60795 -0.000647704
-32.9948 -0.000919248 -3.45624 -0.00108678 -3.68702 -0.000661898
-32.9873 -0.00100168 -3.56491 -0.00112095 -3.57533 -0.000641847
-32.9895 -0.00100279 -3.71386 -0.00116779 -3.73068 -0.000669737
-33.0025 -0.00116306 -4.10161 -0.00128971 -3.50789 -0.00062974
-33.0066 -0.00129437 -4.38701 -0.00137945 -3.91417 -0.000702676
-33.009 -0.00136821 -4.60739 -0.00144875 -4.25598 -0.000764038
-33.0129 -0.00149195 -4.9042 -0.00154208 -4.32743 -0.000776865
-33.0136 -0.00151588 -5.15665 -0.00162146 -4.16195 -0.000747159
-33.0113 -0.00151952 -5.32826 -0.00167542 -4.27219 -0.000766949
-33.014 -0.00152941 -5.3644 -0.00168679 -4.42545 -0.000794463
-33.0147 -0.00155023 -5.35865 -0.00168498 -4.42771 -0.000794869
-33.0151 -0.00156364 -5.35883 -0.00168504 -4.34393 -0.000779829
-33.0155 -0.00157728 -5.3451 -0.00168072 -4.26635 -0.0007659
-33.0161 -0.00159535 -5.30949 -0.00166952 -4.47429 -0.00080323
-19.5244 0.00518611 -5.29201 -0.00166403 -4.74943 -0.000852623
-28.7709 0.000532715 -3.51078 -0.00110393 -5.70327 -0.00102386
-8.19542 0.0192512 -5.49856 -0.00172897 -4.20415 -0.000754734
-21.3371 0.000430543 -4.86366 -0.00152934 -5.22558 -0.000938102
-21.5118 0.000246904 -4.94552 -0.00155507 -5.0472 -0.00090608
-21.4635 0.000271227 -5.09179 -0.00160107 -5.32292 -0.000955578
-21.5321 0.000217893 -5.08938 -0.00160031 -5.49273 -0.000986062
-21.572 0.000161022 -4.92429 -0.0015484 -5.5594 -0.000998031
-21.582 0.00014677 -4.84664 -0.00152398 -5.75733 -0.00103356
-21.6041 0.000115127 -4.87037 -0.00153144 -6.13189 -0.00110081
-21.6304 7.76009e-05 -4.85877 -0.0015278 -6.31875 -0.00113435
-21.6454 5.62497e-05 -4.78741 -0.00150536 -6.43732 -0.00115564
-21.6605 3.46395e-05 -4.74198 -0.00149107 -6.6896 -0.00120093
-21.679 8.35764e-06 -4.74107 -0.00149079 -7.05521 -0.00126656
-21.6864 -2.33101e-06 -4.74267 -0.00149129 -7.40854 -0.00132999
-21.6929 -1.14976e-05 -4.73222 -0.001488 -7.6123 -0.00136657
-21.7015 -2.37553e-05 -4.72203 -0.0014848 -7.55982 -0.00135715
-21.7057 -2.97895e-05 -4.62384 -0.00145392 -7.70506 -0.00138322
-20.4308 0.000609571 -0.285132 -8.96572e-05 -6.43713 -0.0011556
-18.1018 0.00178165 0.0956034 3.00616e-05 -5.34309 -0.000959198
-21.4305 6.48772e-05 0.0287946 9.05419e-06 -7.72766 -0.00138728
-21.5358 1.18436e-05 -0.324547 -0.000102051 -7.64745 -0.00137288
-21.7278 -8.4769e-05 -0.23408 -7.36043e-05 -7.38018 -0.0013249
-21.7066 -7.40946e-05 -0.437554 -0.000137585 -7.46426 -0.00133999
-21.668 -5.46639e-05 -0.505011 -0.000158796 -7.83403 -0.00140638
-21.6923 -6.69235e-05 -0.392733 -0.000123491 -7.87628 -0.00141396
-21.6892 -6.5322e-05 -0.3751 -0.000117947 -7.5718 -0.0013593
-21.6751 -5.82618e-05 -0.471052 -0.000148118 -7.46588 -0.00134028
-21.6763 -5.8865e-05 -0.516167 -0.000162304 -7.64569 -0.00137256
-21.6711 -5.6218e-05 -0.489594 -0.000153948 -1.74833 -0.000313862
-21.6701 -5.57247e-05 -0.483574 -0.000152055 -2.05943 -0.000369711
-21.4717 4.41137e-05 -0.5892 -0.000185269 -2.17092 -0.000389726
-21.6506 -4.59175e-05 -0.598634 -0.000188235 -1.89121 -0.000339512
-21.6485 -4.48445e-05 -0.577952 -0.000181732 -1.62774 -0.000292214
-21.6157 -2.8373e-05 -0.616237 -0.00019377 -1.62592 -0.000291888
-21.6384 -3.97833e-05 -0.670454 -0.000210818 -1.79448 -0.000322147
-21.6306 -3.58594e-05 -0.69024 -0.00021704 -1.78458 -0.000320369
-21.6112 -2.60763e-05 -0.703716 -0.000221277 -1.58194 -0.000283991
-21.6141 -2.7536e-05 -0.729629 -0.000229425 -1.4424 -0.000258942
-21.6183 -2.96419e-05 -0.75718 -0.000238088 -1.48135 -0.000265934
-21.6084 -2.46548e-05 -0.782254 -0.000245973 -1.52076 -0.000273008
-21.608 -2.44943e-05 -0.802493 -0.000252337 -1.43539 -0.000257682
-21.6174 -2.91976e-05 -0.816601 -0.000256773 -1.31314 -0.000235736
-21.6181 -2.95501e-05 -0.831575 -0.000261481 -1.27039 -0.000228062
-21.6214 -3.1224e-05 -0.850586 -0.000267459 -1.27907 -0.000229621
-21.6317 -3.64072e-05 -0.863644 -0.000271565 -1.25603 -0.000225484
-21.6409 -4.10106e-05 -0.868932 -0.000273228 -1.19056 -0.00021373
-21.6489 -4.50728e-05 -0.87636 -0.000275563 -1.13129 -0.000203091
-21.5402 9.63419e-06 -0.88406 -0.000277985 -1.11042 -0.000199344
-21.5541 2.62767e-06 -0.887732 -0.000279139 -1.1026 -0.000197939
-21.4937 3.30529e-05 -0.888364 -0.000279338 -1.07216 -0.000192476
