0.660349 2.27706e-05 0.564771 1.94749e-05 0.00562733 1.94046e-07
0.663808 2.28899e-05 0.564234 1.94564e-05 0.00564712 1.94728e-07
0.671814 2.3166e-05 0.563187 1.94203e-05 0.00571144 1.96946e-07
0.688495 2.37412e-05 0.561549 1.93637e-05 0.00577645 1.99188e-07
0.707636 2.44012e-05 0.55996 1.9309e-05 0.00579712 1.99901e-07
0.732464 2.52574e-05 0.558256 1.92502e-05 0.00575209 1.98348e-07
0.763546 2.63292e-05 0.556738 1.91979e-05 0.00561456 1.93606e-07
0.801502 2.7638e-05 0.555777 1.91647e-05 0.00533964 1.84125e-07
0.846997 2.92068e-05 0.555696 1.91619e-05 0.00487671 1.68162e-07
0.900752 3.10604e-05 0.556802 1.92001e-05 0.00418075 1.44164e-07
0.96346 3.32228e-05 0.559489 1.92927e-05 0.00321835 1.10978e-07
1.03562 3.5711e-05 0.56426 1.94572e-05 0.00196446 6.774e-08
1.11723 3.85251e-05 0.571676 1.9713e-05 0.000395848 1.36499e-08
1.20769 4.16444e-05 0.582214 2.00763e-05 -0.00148411 -5.11761e-08
1.30632 4.50456e-05 0.596721 2.05766e-05 -0.00372326 -1.28388e-07
1.41094 4.86532e-05 0.615798 2.12344e-05 -0.00627243 -2.16291e-07
1.51934 5.23911e-05 0.640115 2.20729e-05 -0.00907803 -3.13035e-07
1.62888 5.61683e-05 0.670267 2.31127e-05 -0.012047 -4.15415e-07
1.73656 5.98813e-05 0.706677 2.43682e-05 -0.0150506 -5.18987e-07
1.83938 6.34269e-05 0.749528 2.58458e-05 -0.0217283 -7.49252e-07
1.93436 6.67022e-05 0.798777 2.7544e-05 -0.0277108 -9.55545e-07
2.01807 6.95887e-05 0.854188 2.94548e-05 -0.0323486 -1.11547e-06
2.08638 7.19442e-05 0.915331 3.15631e-05 -0.0349014 -1.2035e-06
2.13438 7.35992e-05 0.981566 3.38471e-05 -0.0345851 -1.19259e-06
2.15633 7.43563e-05 1.05199 3.62757e-05 -0.0305963 -1.05504e-06
2.14614 7.40048e-05 1.12513 3.87977e-05 -0.0220881 -7.61659e-07
2.09857 7.23645e-05 1.1996 4.13656e-05 -0.010305 -3.55343e-07
2.01095 6.93429e-05 1.27335 4.39087e-05 5.77349e-05 1.99086e-09
1.88461 6.49867e-05 1.34295 4.63087e-05 0.0133833 4.61492e-07
1.72442 5.94626e-05 1.40481 4.84416e-05 0.0305935 1.05495e-06
1.53699 5.29996e-05 1.45538 5.01856e-05 0.0519818 1.79247e-06
1.32796 4.57916e-05 1.49114 5.14186e-05 0.0779659 2.68848e-06
1.10504 3.81049e-05 1.50935 5.20464e-05 0.108391 3.73761e-06
0.872433 3.00839e-05 1.50753 5.19837e-05 0.142973 4.9301e-06
0.633994 2.18619e-05 1.48419 5.11789e-05 0.181358 6.25374e-06
0.391421 1.34973e-05 1.43889 4.96169e-05 0.222923 7.68699e-06
0.145748 5.02578e-06 1.37194 4.73083e-05 0.266804 9.20014e-06
-0.162655 -5.6088e-06 1.28483 4.43044e-05 0.311854 1.07536e-05
-0.469342 -1.61842e-05 1.179 4.06551e-05 0.356725 1.23009e-05
-0.773723 -2.66801e-05 1.05632 3.64247e-05 0.399924 1.37905e-05
-1.07493 -3.70664e-05 0.920575 3.1744e-05 0.440233 1.51805e-05
-1.3697 -4.72309e-05 0.774249 2.66983e-05 0.476081 1.64166e-05
-1.65311 -5.70038e-05 0.620224 2.1387e-05 0.505979 1.74476e-05
-1.91908 -6.61752e-05 0.461442 1.59118e-05 0.528515 1.82247e-05
-2.16054 -7.45012e-05 0.300904 1.0376e-05 0.542422 1.87042e-05
-2.37128 -8.17683e-05 0.141264 4.87117e-06 0.546554 1.88467e-05
-2.54943 -8.79113e-05 -0.0745949 -2.57224e-06 0.53983 1.86148e-05
-2.69724 -9.30081e-05 -0.280478 -9.67167e-06 0.521505 1.79829e-05
-2.82142 -9.72904e-05 -0.470261 -1.62159e-05 0.491052 1.69328e-05
-2.93376 -0.000101164 -0.638566 -2.20195e-05 0.4482 1.54552e-05
-3.08237 -0.000106288 -0.813918 -2.80661e-05 0.377226 1.30078e-05
-3.27438 -0.00011291 -0.947308 -3.26658e-05 0.287723 9.9215e-06
-3.54644 -0.000122291 -1.03746 -3.57744e-05 0.181607 6.2623e-06
-3.92841 -0.000135462 -1.08874 -3.75429e-05 0.0617543 2.12946e-06
-4.43825 -0.000153043 -1.11326 -3.83883e-05 -0.130295 -4.49293e-06
-5.07953 -0.000175156 -1.12953 -3.89494e-05 -0.424381 -1.46338e-05
-5.83988 -0.000201375 -1.15948 -3.9982e-05 -0.720378 -2.48406e-05
-6.69193 -0.000230756 -1.22813 -4.23494e-05 -1.00539 -3.46686e-05
-7.60151 -0.000262121 -1.36174 -4.69565e-05 -1.26847 -4.37403e-05
-8.53947 -0.000294464 -1.58253 -5.45701e-05 -1.50191 -5.17899e-05
-9.48837 -0.000327185 -1.90542 -6.57042e-05 -1.70029 -5.86306e-05
-10.4415 -0.000360051 -2.3382 -8.06275e-05 -1.85988 -6.41337e-05
-11.3985 -0.00039305 -2.88165 -9.93672e-05 -1.98054 -6.82944e-05
-12.3614 -0.000426256 -3.52934 -0.000121701 -2.06583 -7.12355e-05
-13.3308 -0.000459682 -4.26871 -0.000147197 -2.12252 -7.31904e-05
-14.3002 -0.000493112 -5.08322 -0.000175284 -2.15897 -7.44471e-05
-15.2573 -0.000526115 -5.95308 -0.000205279 -2.18522 -7.53526e-05
-16.1898 -0.000558268 -6.85506 -0.000236381 -2.21279 -7.63031e-05
-17.091 -0.000589345 -7.76346 -0.000267705 -2.25407 -7.77266e-05
-17.9607 -0.000619335 -8.65189 -0.000298341 -2.32097 -8.00335e-05
-18.8003 -0.000648285 -9.49542 -0.000327428 -2.42407 -8.35888e-05
-19.6061 -0.000676072 -10.2728 -0.000354233 -2.57198 -8.86891e-05
-20.3658 -0.000702267 -10.968 -0.000378208 -2.77086 -9.55468e-05
-21.0634 -0.000726322 -11.5707 -0.000398991 -3.02387 -0.000104271
-21.6859 -0.000747791 -12.0752 -0.000416387 -3.33103 -0.000114863
-22.2256 -0.000766399 -12.4808 -0.000430373 -3.68917 -0.000127213
-22.6796 -0.000782057 -12.791 -0.00044107 -4.09227 -0.000141113
-23.051 -0.000794861 -13.0131 -0.000448727 -4.53168 -0.000156265
-23.3475 -0.000805086 -13.1576 -0.000453709 -4.99647 -0.000172292
-23.5813 -0.000813147 -13.2378 -0.000456475 -5.47385 -0.000188753
-23.7663 -0.000819526 -13.2691 -0.000457553 -5.94987 -0.000205168
-23.9176 -0.000824743 -13.2678 -0.00045751 -6.41009 -0.000221037
-24.0523 -0.000829389 -13.2504 -0.00045691 -6.84018 -0.000235868
-24.1908 -0.000834165 -13.2321 -0.000456278 -7.22669 -0.000249196
-24.3558 -0.000839857 -13.2264 -0.000456081 -7.55754 -0.000260605
-24.5686 -0.000847195 -13.2448 -0.000456716 -7.82259 -0.000269745
-24.8415 -0.000856603 -13.2975 -0.000458534 -8.01394 -0.000276343
-25.1712 -0.000867973 -13.3934 -0.000461841 -8.12616 -0.000280212
-25.5391 -0.00088066 -13.5394 -0.000466877 -8.1567 -0.000281265
-25.917 -0.000893689 -13.739 -0.000473758 -8.10618 -0.000279523
-26.2051 -0.000903623 -13.9365 -0.000480569 -8.00998 -0.000276206
-26.5216 -0.000914538 -14.2254 -0.000490529 -7.82591 -0.000269859
-26.7647 -0.000922919 -14.5494 -0.000501703 -7.58026 -0.000261388
-26.9124 -0.000928014 -14.8909 -0.000513478 -7.28565 -0.000251229
-26.9446 -0.000929124 -15.2281 -0.000525105 -6.95672 -0.000239887
-26.8399 -0.000925515 -15.5364 -0.000535739 -6.60929 -0.000227907
-26.5771 -0.000916453 -15.7899 -0.000544478 -6.25955 -0.000215847
-26.1358 -0.000901234 -15.9622 -0.000550422 -5.92319 -0.000204248
-25.4962 -0.000879179 -16.0289 -0.000552721 -5.61448 -0.000193603
-24.6415 -0.000849706 -15.9676 -0.000550607 -5.34551 -0.000184328
-23.5588 -0.000812372 -15.7593 -0.000543423 -5.12556 -0.000176744
-22.2396 -0.000766881 -15.3895 -0.000530672 -4.96049 -0.000171051
-20.6816 -0.000713159 -14.8485 -0.000512018 -4.85241 -0.000167324
-18.8945 -0.000651533 -14.131 -0.000487276 -4.79955 -0.000165502
-16.9043 -0.000582907 -13.2358 -0.000456407 -4.79629 -0.000165389
-14.7515 -0.000508671 -12.1669 -0.00041955 -4.83321 -0.000166662
-12.4802 -0.000430351 -10.935 -0.000377068 -4.89716 -0.000168867
-10.1336 -0.000349436 -9.55694 -0.00032955 -4.97169 -0.000171438
-7.75514 -0.000267419 -8.05558 -0.000277779 -5.03788 -0.00017372
-5.38867 -0.000185816 -6.45876 -0.000222716 -5.07512 -0.000175004
-3.07724 -0.000106112 -4.79824 -0.000165456 -5.06209 -0.000174555
-0.859606 -2.96416e-05 -3.1082 -0.000107179 -4.97777 -0.000171647
0.984641 3.39531e-05 -1.42587 -4.91681e-05 -4.80247 -0.000165602
2.5259 8.71001e-05 0.0301282 1.0389e-06 -4.52016 -0.000155868
3.95228 0.000136286 1.151 3.96897e-05 -4.11822 -0.000142007
5.26354 0.000181501 2.20338 7.59786e-05 -3.58612 -0.000123659
6.448 0.000222345 3.17666 0.00010954 -2.92027 -0.000100699
7.49953 0.000258604 4.05455 0.000139812 -2.1246 -7.3262e-05
8.40698 0.000289896 4.83218 0.000166627 -1.20668 -4.16097e-05
9.16477 0.000316027 5.51706 0.000190243 -0.18041 -6.22103e-06
9.78709 0.000337486 6.11286 0.000210788 0.430839 1.48565e-05
10.3 0.000355173 6.62379 0.000228406 0.974138 3.3591e-05
10.7369 0.000370238 7.06185 0.000243512 1.53781 5.30281e-05
11.1346 0.000383953 7.44291 0.000256652 2.10849 7.27065e-05
11.5311 0.000397624 7.78076 0.000268302 2.67128 9.2113e-05
11.9663 0.000412632 8.09033 0.000278977 3.20972 0.00011068
12.4816 0.000430402 8.39 0.00028931 3.71183 0.000127994
13.1155 0.00045226 8.69736 0.000299909 4.16629 0.000143665
13.8995 0.000479295 9.02794 0.000311308 4.5617 0.0001573
14.8528 0.000512165 9.39737 0.000324047 4.88707 0.00016852
15.9771 0.000550933 9.82114 0.00033866 5.13549 0.000177086
17.2568 0.000595062 10.3119 0.000355584 5.30291 0.000182859
18.665 0.000643622 10.8777 0.000375093 5.38798 0.000185792
20.17 0.000695516 11.5212 0.000397283 5.39152 0.000185915
21.7389 0.000749617 12.2391 0.000422038 5.31807 0.000183382
23.341 0.000804861 13.0206 0.000448986 5.17566 0.000178471
24.9477 0.000860265 13.848 0.000477518 4.97514 0.000171556
26.5327 0.00091492 14.6987 0.00050685 4.72911 0.000163073
28.0722 0.000968008 15.5457 0.000536058 4.45184 0.000153512
29.5441 0.00101876 16.36 0.000564137 4.15865 0.000143402
30.9253 0.00106639 17.1124 0.000590082 3.86513 0.00013328
32.1911 0.00111004 17.7757 0.000612956 3.58603 0.000123656
33.3178 0.00114889 18.3262 0.000631937 3.33462 0.000114987
34.2847 0.00118223 18.7445 0.000646363 3.12228 0.000107665
34.8255 0.00120088 19.0105 0.000655534 2.95865 0.000102022
34.9053 0.00120363 19.055 0.000657069 2.85353 9.83974e-05
34.9975 0.00120681 18.9656 0.000653986 2.80498 9.67236e-05
34.8506 0.00120175 18.7634 0.000647014 2.81261 9.69867e-05
34.6897 0.0011962 18.4462 0.000636075 2.86496 9.87918e-05
34.4827 0.00118906 18.0322 0.000621801 2.96151 0.000102121
33.5898 0.00115827 17.6014 0.000606944 3.09391 0.000106687
32.5518 0.00112247 17.0548 0.000588095 3.26717 0.000112661
31.4759 0.00108538 16.4762 0.000568144 3.45264 0.000119057
30.2914 0.00104453 15.8546 0.00054671 3.65051 0.00012588
29.0522 0.0010018 15.1944 0.000523944 3.85099 0.000132793
27.8607 0.000960713 14.5279 0.000500962 4.04265 0.000139402
26.7148 0.000921201 13.8855 0.00047881 4.21211 0.000145245
25.6639 0.000884961 13.2769 0.000457824 4.34792 0.000149928
24.763 0.000853895 12.7136 0.000438399 4.44332 0.000153218
24.0337 0.000828748 12.2169 0.000421273 4.49272 0.000154921
23.5029 0.000810446 11.8028 0.000406994 4.48915 0.000154798
23.1973 0.000799906 11.4769 0.000395755 4.42784 0.000152684
23.1228 0.000797338 11.2443 0.000387733 4.30881 0.00014858
23.2811 0.000802798 11.1111 0.000383141 4.13482 0.00014258
23.6666 0.00081609 11.0783 0.000382012 3.90926 0.000134802
24.2479 0.000836136 11.1432 0.000384248 3.6372 0.000125421
24.8918 0.000858339 11.3164 0.000390222 3.32553 0.000114673
25.5592 0.000881352 11.579 0.000399275 2.98612 0.00010297
26.2158 0.000903993 11.9174 0.000410946 2.63118 9.07305e-05
26.836 0.00092538 12.3114 0.000424532 2.27371 7.84039e-05
27.2879 0.000940963 12.6479 0.000436134 1.99516 6.87985e-05
27.6874 0.000954737 12.9865 0.000447811 1.73144 5.97048e-05
28.0233 0.000966321 13.3135 0.000459086 1.48992 5.13766e-05
28.2842 0.000975317 13.6161 0.000469519 1.2772 4.40414e-05
28.4591 0.00098135 13.8816 0.000478676 1.09891 3.78934e-05
28.5386 0.00098409 14.0982 0.000486145 0.959844 3.30981e-05
28.5138 0.000983235 14.2563 0.000491595 0.864033 2.97942e-05
28.3754 0.000978461 14.3491 0.000494798 0.814444 2.80843e-05
28.1131 0.000969419 14.3729 0.000495617 0.81265 2.80224e-05
27.7166 0.000955745 14.3259 0.000493996 0.858729 2.96113e-05
27.1754 0.000937084 14.2086 0.000489951 0.951432 3.2808e-05
26.4819 0.000913171 14.0237 0.000483574 1.0884 3.75312e-05
25.6336 0.000883919 13.7754 0.000475015 1.26628 4.36647e-05
24.6351 0.000849487 13.4691 0.000464452 1.48065 5.10568e-05
23.4985 0.000810293 13.1103 0.000452081 1.72614 5.95222e-05
22.2424 0.000766981 12.7053 0.000438114 1.99658 6.88477e-05
20.8889 0.000720308 12.2608 0.000422788 2.28519 7.87998e-05
19.4603 0.000671043 11.7848 0.000406371 2.58475 8.91293e-05
17.9775 0.000619915 11.2854 0.000389151 2.88771 9.9576e-05
16.4606 0.000567608 10.7713 0.000371423 3.18634 0.000109874
14.9291 0.000514796 10.2509 0.00035348 3.47296 0.000119757
13.4021 0.000462143 9.73255 0.000335605 3.74011 0.000128969
11.8983 0.000410286 9.22375 0.00031806 3.98077 0.000137268
10.4341 0.000359797 8.73128 0.000301079 4.18853 0.000144432
9.02378 0.000311165 8.26075 0.000284854 4.35768 0.000150265
7.67903 0.000264794 7.81653 0.000269535 4.4834 0.0001546
6.40949 0.000221017 7.40154 0.000255225 4.56183 0.000157305
5.22271 0.000180094 7.01718 0.000241972 4.59018 0.000158282
4.12404 0.000142208 6.66322 0.000229766 4.56676 0.000157474
3.1166 0.000107469 6.33778 0.000218544 4.49103 0.000154863
2.20125 7.59052e-05 6.03746 0.000208188 4.36355 0.000150467
1.37657 4.74679e-05 5.75749 0.000198534 4.18596 0.000144343
0.639177 2.20407e-05 5.49192 0.000189377 3.9609 0.000136583
-0.0158977 -5.48082e-07 5.23374 0.000180474 3.69193 0.000127308
-0.61314 -2.11427e-05 4.96422 0.00017118 3.38358 0.000116675
-0.900499 -3.10516e-05 4.65103 0.00016038 3.04542 0.000105014
-1.10771 -3.81967e-05 4.35902 0.000150311 2.67099 9.2103e-05
-1.2632 -4.35584e-05 4.03463 0.000139125 2.27479 7.8441e-05
-1.41825 -4.89051e-05 3.68648 0.00012712 1.85938 6.41167e-05
-1.55773 -5.37149e-05 3.31626 0.000114354 1.43116 4.93503e-05
-1.69134 -5.8322e-05 2.92819 0.000100972 0.994799 3.43034e-05
-1.86279 -6.42339e-05 2.51486 8.67195e-05 0.555696 1.91619e-05
-2.09849 -7.23617e-05 2.06724 7.12841e-05 0.12017 4.14378e-06
-2.40604 -8.29667e-05 1.58323 5.4594e-05 -0.674701 -2.32655e-05
-2.8014 -9.66e-05 1.0662 3.67654e-05 -1.56446 -5.39469e-05
-3.30541 -0.00011398 0.517057 1.78296e-05 -2.41531 -8.32867e-05
-3.9279 -0.000135445 -0.067317 -2.32128e-06 -3.21635 -0.000110909
-4.66972 -0.000161025 -0.848757 -2.92675e-05 -3.95744 -0.000136463
-5.53551 -0.00019088 -1.7399 -5.99967e-05 -4.63412 -0.000159797
-6.52494 -0.000224998 -2.68255 -9.25016e-05 -5.24258 -0.000180779
-7.63382 -0.000263235 -3.6658 -0.000126407 -5.78024 -0.000199319
-8.85775 -0.000305439 -4.68442 -0.000161532 -6.24476 -0.000215337
-10.1914 -0.000351429 -5.73731 -0.000197838 -6.63536 -0.000228805
-11.6259 -0.000400893 -6.82035 -0.000235184 -6.95346 -0.000239775
-13.1487 -0.000453402 -7.92372 -0.000273232 -7.20264 -0.000248367
-14.7445 -0.000508431 -9.03631 -0.000311597 -7.38776 -0.00025475
-16.395 -0.000565344 -10.1497 -0.000349988 -7.51438 -0.000259117
-18.0785 -0.000623398 -11.2569 -0.000388168 -7.58857 -0.000261675
-19.772 -0.000681795 -12.3494 -0.00042584 -7.61726 -0.000262664
-21.4518 -0.000739717 -13.4164 -0.000462635 -7.60837 -0.000262358
-23.0936 -0.00079633 -14.4473 -0.000498183 -7.57057 -0.000261054
-24.6731 -0.000850797 -15.4326 -0.00053216 -7.51264 -0.000259057
-26.1673 -0.00090232 -16.3636 -0.00056426 -7.44304 -0.000256657
-27.5548 -0.000950165 -17.2307 -0.000594163 -7.36985 -0.000254133
-28.8166 -0.000993677 -18.0246 -0.000621536 -7.30083 -0.000251753
-29.9367 -0.0010323 -18.736 -0.00064607 -7.24335 -0.000249771
-30.9021 -0.00106559 -19.3574 -0.000667496 -7.204 -0.000248414
-31.7041 -0.00109325 -19.8818 -0.000685578 -7.1882 -0.000247869
-32.3377 -0.00111509 -20.3031 -0.000700107 -7.20003 -0.000248277
-32.8018 -0.0011311 -20.6164 -0.000710912 -7.24227 -0.000249734
-33.0983 -0.00114132 -20.8186 -0.000717883 -7.3164 -0.00025229
-33.2322 -0.00114594 -20.9084 -0.000720979 -7.42244 -0.000255946
-33.21 -0.00114517 -20.8864 -0.000720221 -7.55888 -0.000260651
-33.0394 -0.00113929 -20.7543 -0.000715666 -7.72276 -0.000266302
-32.7378 -0.00112889 -20.5162 -0.000707455 -7.90956 -0.000272743
-32.3222 -0.00111456 -20.1784 -0.000695807 -8.1135 -0.000279776
-31.8117 -0.00109696 -19.7492 -0.000681008 -8.32764 -0.00028716
-31.2288 -0.00107686 -19.2388 -0.000663407 -8.544 -0.000294621
-30.596 -0.00105504 -18.6588 -0.000643407 -8.75381 -0.000301855
-29.9338 -0.0010322 -18.0224 -0.000621461 -8.94783 -0.000308546
-29.2628 -0.00100906 -17.3438 -0.000598063 -9.11659 -0.000314365
-28.6038 -0.000986337 -16.638 -0.000573726 -9.25072 -0.00031899
-27.9774 -0.000964737 -15.92 -0.000548967 -9.34124 -0.000322112
-27.4032 -0.000944939 -15.2046 -0.000524297 -9.37988 -0.000323444
-26.8999 -0.000927581 -14.506 -0.000500207 -9.35933 -0.000322736
-26.4839 -0.000913238 -13.8376 -0.000477159 -9.27354 -0.000319777
-26.1693 -0.000902391 -13.2116 -0.000455574 -9.11788 -0.00031441
-25.9674 -0.000895426 -12.6389 -0.000435823 -8.88939 -0.000306531
-25.8867 -0.000892646 -12.1283 -0.000418216 -8.58688 -0.000296099
-25.9341 -0.00089428 -11.6868 -0.000402995 -8.21107 -0.00028314
-26.1143 -0.000900491 -11.3195 -0.000390327 -7.76463 -0.000267746
-26.4232 -0.000911144 -11.0298 -0.000380337 -7.25209 -0.000250072
-26.8431 -0.000925625 -10.8252 -0.000373284 -6.67839 -0.000230289
-27.4214 -0.000945567 -10.685 -0.000368447 -6.05514 -0.000208798
-28.0985 -0.000968914 -10.6203 -0.000366217 -5.3919 -0.000185928
-28.8589 -0.000995134 -10.634 -0.000366691 -4.69586 -0.000161926
-29.6983 -0.00102408 -10.7118 -0.000369371 -3.98125 -0.000137284
-30.6077 -0.00105544 -10.8464 -0.000374014 -3.26 -0.000112414
-31.5652 -0.00108846 -11.0284 -0.00038029 -2.54815 -8.78672e-05
-32.4623 -0.00111939 -11.255 -0.000388102 -1.85927 -6.41128e-05
-33.3384 -0.0011496 -11.5212 -0.000397284 -1.20585 -4.15811e-05
-34.1307 -0.00117692 -11.819 -0.000407553 -0.600418 -2.07041e-05
-34.8164 -0.00120056 -12.1385 -0.000418569 -0.169854 -5.85704e-06
-35.3804 -0.00122001 -12.4713 -0.000430044 0.0456476 1.57405e-06
-35.7885 -0.00123409 -12.8063 -0.000441595 0.220872 7.61627e-06
-36.0094 -0.0012417 -13.1323 -0.000452839 0.351999 1.21379e-05
-36.0212 -0.00124211 -13.436 -0.000463311 0.436767 1.50609e-05
-35.822 -0.00123524 -13.7053 -0.000472595 0.472199 1.62827e-05
-35.4053 -0.00122087 -13.9293 -0.000480319 0.455151 1.56949e-05
-34.7686 -0.00119892 -14.0974 -0.000486117 0.383795 1.32343e-05
-33.9209 -0.00116969 -14.1999 -0.000489651 0.258532 8.91488e-06
-32.8742 -0.00113359 -14.229 -0.000490654 0.0813997 2.80689e-06
-31.6405 -0.00109105 -14.1796 -0.000488952 -0.144836 -4.99434e-06
-30.2373 -0.00104267 -14.0503 -0.000484493 -0.662277 -2.28371e-05
-28.6893 -0.000989285 -13.8393 -0.000477218 -1.34694 -4.64461e-05
-27.0241 -0.000931866 -13.5475 -0.000467156 -2.1109 -7.27897e-05
-25.2711 -0.000871418 -13.178 -0.000454414 -2.9368 -0.000101269
-23.4594 -0.000808945 -12.7383 -0.000439251 -3.80702 -0.000131277
-21.6168 -0.000745406 -12.2387 -0.000422025 -4.70437 -0.000162219
-19.7693 -0.000681701 -11.6909 -0.000403136 -5.61099 -0.000193482
-17.9417 -0.000618679 -11.1077 -0.000383025 -6.50729 -0.000224389
-16.1568 -0.000557132 -10.5037 -0.000362196 -7.37232 -0.000254218
-14.4353 -0.000497769 -9.89455 -0.000341191 -8.1855 -0.000282259
-12.7954 -0.00044122 -9.29589 -0.000320548 -8.92799 -0.000307862
-11.2537 -0.00038806 -8.72185 -0.000300754 -9.58303 -0.000330449
-9.8258 -0.000338821 -8.18485 -0.000282236 -10.1356 -0.000349502
-8.52528 -0.000293975 -7.69558 -0.000265365 -10.5722 -0.000364557
-7.36255 -0.000253881 -7.26278 -0.000250441 -10.8817 -0.000375231
-6.34363 -0.000218746 -6.89256 -0.000237674 -11.056 -0.000381242
-5.47006 -0.000188623 -6.58796 -0.000227171 -11.0905 -0.00038243
-4.73919 -0.000163421 -6.34894 -0.000218929 -10.9836 -0.000378745
-4.14453 -0.000142915 -6.17253 -0.000212846 -10.737 -0.000370242
-3.67588 -0.000126754 -6.05292 -0.000208721 -10.3551 -0.000357072
-3.31952 -0.000114466 -5.98137 -0.000206254 -9.84509 -0.000339486
-3.05826 -0.000105457 -5.94646 -0.00020505 -9.21726 -0.000317837
-2.87135 -9.90119e-05 -5.93464 -0.000204643 -8.48434 -0.000292563
-2.73454 -9.42946e-05 -5.93071 -0.000204507 -7.6611 -0.000264176
-2.62043 -9.03597e-05 -5.91838 -0.000204082 -6.76383 -0.000233235
-2.49913 -8.61767e-05 -5.88061 -0.00020278 -5.80989 -0.000200341
-2.62462 -9.0504e-05 -5.74844 -0.000198222 -4.82083 -0.000166235
-2.75729 -9.50789e-05 -5.5596 -0.00019171 -3.8157 -0.000131576
-2.84569 -9.81273e-05 -5.32035 -0.00018346 -2.79796 -9.64813e-05
-2.81555 -9.70879e-05 -4.97982 -0.000171718 -1.79861 -6.20211e-05
-2.63665 -9.09188e-05 -4.54615 -0.000156764 -0.824483 -2.84304e-05
-2.31811 -7.99348e-05 -4.01818 -0.000138558 -0.139771 -4.81968e-06
-1.84772 -6.37145e-05 -3.39838 -0.000117186 0.265323 9.14905e-06
-1.22369 -4.21961e-05 -2.67158 -9.21235e-05 0.64099 2.21031e-05
-0.469621 -1.61938e-05 -1.83254 -6.31911e-05 0.984939 3.39634e-05
0.279579 9.64066e-06 -0.880059 -3.03469e-05 1.29484 4.46496e-05
1.14905 3.96225e-05 0.177127 6.10782e-06 1.56708 5.40373e-05
2.13527 7.36299e-05 1.01685 3.5064e-05 1.79986 6.20641e-05
3.23702 0.000111621 1.91371 6.59901e-05 1.99346 6.874e-05
4.44025 0.000153112 2.86818 9.89029e-05 2.15057 7.41577e-05
5.72528 0.000197423 3.87629 0.000133665 2.27458 7.84339e-05
7.07595 0.000243998 4.91904 0.000169622 2.36836 8.16674e-05
8.47296 0.000292171 5.98154 0.00020626 2.43508 8.39684e-05
9.89016 0.00034104 7.05406 0.000243243 2.47962 8.55041e-05
11.292 0.000389379 8.12872 0.000280301 2.50736 8.64608e-05
12.6617 0.00043661 9.18823 0.000316836 2.52419 8.7041e-05
13.9835 0.000482189 10.2147 0.000352231 2.53554 8.74324e-05
15.2451 0.000525693 11.1922 0.000385937 2.54664 8.78153e-05
16.4371 0.000566798 12.107 0.000417482 2.56275 8.83708e-05
17.5525 0.00060526 12.946 0.000446413 2.58872 8.92663e-05
18.5856 0.000640884 13.6964 0.000472289 2.62874 9.06463e-05
19.5314 0.000673497 14.3474 0.00049474 2.68603 9.26216e-05
20.3617 0.000702129 14.8969 0.000513686 2.76276 9.52677e-05
20.9876 0.000723709 15.3521 0.000529382 2.85899 9.85858e-05
21.4997 0.00074137 15.6955 0.000541224 2.97481 0.00010258
21.8822 0.000754558 15.9253 0.000549147 3.11285 0.00010734
22.1285 0.000763051 16.0536 0.000553572 3.26844 0.000112705
22.2467 0.000767127 16.0811 0.000554519 3.44022 0.000118628
22.2494 0.00076722 16.0122 0.000552143 3.62352 0.000124949
22.1458 0.000763649 15.8533 0.000546665 3.81493 0.000131549
21.9459 0.000756755 15.6157 0.000538473 4.00993 0.000138274
21.6707 0.000747267 15.3114 0.00052798 4.20316 0.000144936
21.3411 0.0007359 14.9515 0.000515568 4.38856 0.00015133
20.9753 0.000723286 14.5469 0.000501619 4.56014 0.000157246
20.5943 0.000710148 14.1105 0.000486567 4.71226 0.000162492
20.2202 0.000697247 13.6557 0.000470886 4.83958 0.000166882
19.8729 0.000685271 13.1958 0.000455027 4.93695 0.00017024
19.5702 0.000674835 12.7424 0.000439393 4.99956 0.000172398
19.3292 0.000666523 12.3063 0.000424354 5.02328 0.000173217
19.1649 0.000660859 11.8975 0.000410259 5.00502 0.000172587
19.0893 0.00065825 11.5253 0.000397425 4.94272 0.000170439
19.1104 0.000658978 11.1973 0.000386112 4.83529 0.000166734
19.2328 0.000663199 10.9189 0.000376514 4.68259 0.000161469
19.4572 0.000670939 10.6942 0.000368764 4.4856 0.000154676
19.7813 0.000682113 10.5253 0.000362941 4.24647 0.00014643
20.2003 0.000696561 10.4127 0.000359058 3.96854 0.000136846
20.6847 0.000713265 10.3531 0.000357003 3.65625 0.000126078
21.2314 0.000732116 10.3488 0.000356855 3.31455 0.000114295
21.8179 0.000752342 10.3928 0.000358373 2.94952 0.000101707
22.4302 0.000773457 10.4773 0.000361285 2.56833 8.8563e-05
23.0655 0.00079536 10.5953 0.000365357 2.17795 7.51016e-05
23.7113 0.000817633 10.7378 0.000370267 1.78628 6.15958e-05
24.3497 0.000839644 10.894 0.000375654 1.40126 4.83192e-05
24.9678 0.000860959 11.0531 0.000381143 1.03079 3.55444e-05
25.5554 0.000881222 11.2055 0.000386398 0.682398 2.3531e-05
26.0982 0.000899938 11.3426 0.000391126 0.363112 1.25211e-05
26.5795 0.000916535 11.4568 0.000395063 0.0792658 2.7333e-06
26.9836 0.00093047 11.5416 0.000397985 -0.164157 -5.66059e-06
27.2954 0.000941222 11.5915 0.000399706 -0.592288 -2.04237e-05
27.5011 0.000948314 11.6035 0.000400121 -0.914588 -3.15375e-05
27.5902 0.000951385 11.5765 0.000399189 -1.12504 -3.87946e-05
27.5533 0.000950113 11.5103 0.000396908 -1.21931 -4.20453e-05
27.3872 0.000944387 11.4052 0.000393283 -1.19658 -4.12613e-05
27.093 0.000934243 11.2628 0.000388372 -1.0597 -3.65414e-05
26.6742 0.000919799 11.0863 0.000382287 -0.814138 -2.80737e-05
26.1408 0.000901408 10.8804 0.000375185 -0.466908 -1.61003e-05
25.5092 0.000879629 10.6496 0.000367227 -0.153585 -5.29603e-06
24.7976 0.000855091 10.3993 0.000358597 0.0844537 2.9122e-06
24.025 0.000828447 10.1367 0.00034954 0.35524 1.22497e-05
23.2105 0.000800363 9.86978 0.000340337 0.652437 2.24978e-05
22.3724 0.000771464 9.60719 0.000331282 0.969168 3.34196e-05
21.5275 0.000742327 9.35735 0.000322667 1.29769 4.4748e-05
20.6927 0.000713542 9.12872 0.000314783 1.63058 5.62268e-05
19.8862 0.00068573 8.92949 0.000307913 1.961 6.76205e-05
19.1261 0.00065952 8.76717 0.000302316 2.2825 7.8707e-05
18.43 0.000635516 8.64813 0.000298211 2.58877 8.9268e-05
17.8142 0.000614284 8.57745 0.000295774 2.87373 9.90942e-05
17.2938 0.000596337 8.559 0.000295138 3.13202 0.000108001
16.8809 0.0005821 8.59552 0.000296397 3.35931 0.000115838
16.5842 0.00057187 8.68849 0.000299603 3.55228 0.000122492
16.4074 0.000565773 8.83814 0.000304763 3.70849 0.000127879
16.3486 0.000563743 9.04347 0.000311844 3.82629 0.000131941
16.4001 0.000565522 9.30231 0.000320769 3.90496 0.000134654
16.55 0.000570688 9.61119 0.00033142 3.94486 0.00013603
16.7821 0.000578694 9.96517 0.000343626 3.94744 0.000136118
17.0769 0.000588859 10.3579 0.00035717 3.91507 0.000135002
17.4115 0.000600397 10.7818 0.000371785 3.85094 0.000132791
17.7617 0.000612472 11.2274 0.00038715 3.75896 0.000129619
18.1029 0.000624239 11.684 0.000402898 3.64372 0.000125646
18.4112 0.00063487 12.1399 0.000418617 3.51037 0.000121047
18.6637 0.000643577 12.582 0.000433862 3.36447 0.000116016
18.8397 0.000649646 12.9965 0.000448156 3.21175 0.00011075
18.9214 0.000652462 13.3692 0.000461009 3.05791 0.000105445
18.8936 0.000651503 13.686 0.00047193 2.90845 0.000100291
18.7439 0.00064634 13.9331 0.000480452 2.76851 9.5466e-05
18.4619 0.000636616 14.0981 0.00048614 2.64267 9.11266e-05
18.039 0.000622033 14.1698 0.000488615 2.53476 8.74054e-05
17.4682 0.000602352 14.1393 0.000487562 2.4477 8.44036e-05
16.7452 0.000577419 13.9995 0.00048274 2.38346 8.21881e-05
15.8685 0.000547189 13.7456 0.000473987 2.34289 8.07894e-05
14.8403 0.000511736 13.3755 0.000461225 2.3258 8.02002e-05
13.6667 0.000471265 12.8893 0.000444458 2.33087 8.0375e-05
12.3569 0.000426101 12.2895 0.000423777 2.3557 8.12311e-05
10.9235 0.000376673 11.5813 0.000399355 2.39686 8.26504e-05
9.40671 0.000324369 10.7678 0.000371304 2.45034 8.44944e-05
7.81842 0.000269601 9.85558 0.000339848 2.512 8.66206e-05
6.1766 0.000212986 8.87775 0.000306129 2.57063 8.86426e-05
4.49458 0.000154985 7.82221 0.000269731 2.62655 9.05707e-05
2.76277 9.5268e-05 6.71661 0.000231607 2.66994 9.20669e-05
1.02609 3.53823e-05 5.5755 0.000192258 2.69466 9.29195e-05
-0.835911 -2.88245e-05 4.4164 0.00015229 2.69302 9.28628e-05
-2.86131 -9.86658e-05 3.25546 0.000112257 2.65918 9.16959e-05
-4.78764 -0.000165091 2.10022 7.24214e-05 2.588 8.92413e-05
-6.55731 -0.000226114 0.959418 3.30834e-05 2.47383 8.53045e-05
-8.18124 -0.000282112 -0.352054 -1.21398e-05 2.31451 7.98108e-05
-9.65614 -0.00033297 -1.81189 -6.24789e-05 2.10571 7.26105e-05
-10.9387 -0.000377195 -3.1901 -0.000110004 1.84552 6.36387e-05
-12.013 -0.000414241 -4.4669 -0.000154031 1.53348 5.28786e-05
-12.8899 -0.000444478 -5.63028 -0.000194148 1.17114 4.03841e-05
-13.5713 -0.000467977 -6.67699 -0.000230241 0.760499 2.62241e-05
-14.0544 -0.000484635 -7.6055 -0.000262259 0.304568 1.05023e-05
-14.3513 -0.000494874 -8.41226 -0.000290078 -0.192143 -6.62563e-06
-14.4837 -0.000499439 -9.09796 -0.000313723 -1.19024 -4.10426e-05
-14.4731 -0.000499071 -9.66539 -0.000333289 -2.40383 -8.28908e-05
-14.3433 -0.000494595 -10.1229 -0.000349065 -3.66377 -0.000126337
-14.1249 -0.000487065 -10.4785 -0.000361328 -4.94648 -0.000170568
-13.8533 -0.000477699 -10.7435 -0.000370465 -6.23047 -0.000214844
-13.564 -0.000467726 -10.9317 -0.000376956 -7.49672 -0.000258508
-13.2915 -0.000458328 -11.059 -0.000381344 -8.72606 -0.000300899
-13.0702 -0.000450696 -11.142 -0.000384208 -9.89703 -0.000341277
-12.9264 -0.000445738 -11.1982 -0.000386146 -10.9868 -0.000378857
-12.8908 -0.000444509 -11.2445 -0.000387741 -11.9744 -0.000412911
-12.9874 -0.000447843 -11.2992 -0.000389629 -12.8332 -0.000442523
-13.2478 -0.000456821 -11.3182 -0.000390282 -12.9664 -0.000447117
-13.6872 -0.000471973 -11.2668 -0.000388512 -12.9663 -0.000447113
-14.2842 -0.00049256 -11.3183 -0.000390286 -13.0591 -0.000450312
-15.0724 -0.000519737 -11.4511 -0.000394865 -13.1524 -0.000453532
-16.0192 -0.000552385 -11.7568 -0.000405408 -13.1461 -0.000453315
-17.1334 -0.000590808 -12.1943 -0.000420492 -13.001 -0.00044831
-18.428 -0.000635449 -12.6839 -0.000437375 -12.728 -0.000438897
-19.8882 -0.000685799 -13.2196 -0.000455848 -12.4095 -0.000427913
-21.5018 -0.00074144 -13.8183 -0.000476491 -12.0191 -0.000414452
-23.2564 -0.000801945 -14.495 -0.000499827 -11.4699 -0.000395513
-25.133 -0.000866655 -15.2347 -0.000525335 -10.7385 -0.000370292
-27.1075 -0.000934742 -16.0052 -0.000551904 -9.88952 -0.000341018
-29.1532 -0.00100528 -16.7847 -0.000578784 -9.00611 -0.000310555
-31.2412 -0.00107728 -17.5647 -0.000605678 -8.12027 -0.000280009
-33.3382 -0.00114959 -18.3375 -0.000632327 -7.21367 -0.000248747
-35.4088 -0.00122099 -19.0877 -0.000658196 -6.27133 -0.000216253
-37.4176 -0.00129026 -19.7957 -0.000682611 -5.31883 -0.000183408
-39.3303 -0.00135622 -20.4449 -0.000704997 -4.4082 -0.000152007
-41.1129 -0.00141768 -21.0235 -0.000724948 -3.57894 -0.000123412
-42.7247 -0.00147326 -21.5221 -0.000742142 -2.84017 -9.79368e-05
-42.984 -0.00148221 -21.7455 -0.000749844 -2.21513 -7.63839e-05
-43.5163 -0.00150056 -21.7159 -0.000748823 -1.72018 -5.93167e-05
-43.878 -0.00151303 -21.8887 -0.000754783 -1.26168 -4.35064e-05
-43.943 -0.00151528 -21.8858 -0.000754683 -0.937713 -3.23349e-05
-43.9795 -0.00151653 -21.7818 -0.000751095 -0.764213 -2.63522e-05
-44.0876 -0.00152026 -21.743 -0.000749758 -0.674827 -2.32699e-05
-43.9896 -0.00151688 -21.7173 -0.000748873 -0.68275 -2.35431e-05
-43.6504 -0.00150518 -21.5618 -0.00074351 -0.805944 -2.77912e-05
-43.1534 -0.00148805 -21.3164 -0.000735049 -1.04932 -3.61835e-05
-42.5119 -0.00146593 -21.0191 -0.000724796 -1.39941 -4.82554e-05
-41.6527 -0.0014363 -20.6742 -0.000712903 -1.85388 -6.3927e-05
-40.6235 -0.00140081 -20.2808 -0.000699338 -2.38948 -8.2396e-05
-39.5005 -0.00136209 -19.8352 -0.000683971 -2.99507 -0.000103278
-38.2913 -0.00132039 -19.3587 -0.000667543 -3.65887 -0.000126168
-37.0036 -0.00127599 -18.8749 -0.000650857 -4.36898 -0.000150654
-35.6843 -0.00123049 -18.3963 -0.000634354 -5.10754 -0.000176122
-34.3779 -0.00118545 -17.9288 -0.000618233 -5.85442 -0.000201877
-33.1082 -0.00114166 -17.4828 -0.000602853 -6.59164 -0.000227298
-31.9019 -0.00110006 -17.075 -0.000588793 -7.30423 -0.00025187
-30.7952 -0.0010619 -16.7207 -0.000576577 -7.97841 -0.000275117
-29.818 -0.00102821 -16.4292 -0.000566523 -8.59996 -0.000296551
-28.9913 -0.000999701 -16.2062 -0.000558834 -9.1549 -0.000315686
-28.3353 -0.000977078 -16.0588 -0.000553751 -9.63121 -0.000332111
-27.8682 -0.000960972 -15.9945 -0.000551534 -10.0201 -0.000345519
-27.6019 -0.000951789 -16.0182 -0.000552352 -10.3155 -0.000355707
-27.5319 -0.000949376 -16.1323 -0.000556287 -10.5136 -0.000362537
-27.6014 -0.000951771 -16.3451 -0.000563625 -10.6109 -0.000365894
-27.8123 -0.000959045 -16.6489 -0.0005741 -10.6079 -0.00036579
-28.1584 -0.00097098 -17.0365 -0.000587467 -10.5087 -0.000362368
-28.6289 -0.000987204 -17.5019 -0.000603514 -10.3189 -0.000355824
-29.2097 -0.00100723 -18.0332 -0.000621835 -10.0473 -0.000346459
-29.8837 -0.00103047 -18.615 -0.000641896 -9.70398 -0.00033462
-30.6308 -0.00105624 -19.2303 -0.000663114 -9.30087 -0.00032072
-31.4277 -0.00108371 -19.8631 -0.000684934 -8.85127 -0.000305216
-32.2487 -0.00111202 -20.497 -0.000706792 -8.36944 -0.000288601
-33.0666 -0.00114023 -21.1145 -0.000728085 -7.87008 -0.000271382
-33.8538 -0.00116737 -21.6975 -0.000748191 -7.3679 -0.000254066
-34.5831 -0.00119252 -22.2293 -0.000766527 -6.87727 -0.000237147
-35.2291 -0.0012148 -22.6945 -0.00078257 -6.41186 -0.000221099
-35.7686 -0.0012334 -23.0796 -0.000795848 -5.98421 -0.000206352
-36.1819 -0.00124765 -23.3721 -0.000805934 -5.60542 -0.00019329
-36.4536 -0.00125702 -23.5614 -0.000812461 -5.28478 -0.000182234
-36.5729 -0.00126113 -23.6395 -0.000815154 -5.02962 -0.000173435
-36.5332 -0.00125977 -23.6012 -0.000813835 -4.84505 -0.000167071
-36.332 -0.00125283 -23.4444 -0.000808429 -4.73381 -0.000163235
-35.9694 -0.00124032 -23.1698 -0.000798959 -4.69622 -0.000161939
-35.4476 -0.00122233 -22.7811 -0.000785556 -4.73017 -0.000163109
-34.7704 -0.00119898 -22.2854 -0.000768463 -4.83122 -0.000166594
-33.9435 -0.00117047 -21.6925 -0.000748018 -4.99279 -0.000172165
-32.9757 -0.00113709 -21.0143 -0.000724633 -5.20643 -0.000179532
-31.8794 -0.00109929 -20.2644 -0.000698773 -5.46206 -0.000188347
-30.6707 -0.00105761 -19.4575 -0.000670947 -5.74838 -0.00019822
-29.3679 -0.00101269 -18.609 -0.00064169 -6.05315 -0.000208729
-27.9912 -0.000965215 -17.7349 -0.000611548 -6.36362 -0.000219435
-26.5615 -0.000915913 -16.8508 -0.000581063 -6.66687 -0.000229892
-25.0988 -0.000865477 -15.9721 -0.00055076 -6.9502 -0.000239662
-23.6222 -0.00081456 -15.1129 -0.000521136 -7.20148 -0.000248327
-22.1495 -0.000763776 -14.2864 -0.000492635 -7.40952 -0.000255501
-20.6982 -0.000713732 -13.5034 -0.000465633 -7.56441 -0.000260842
-19.287 -0.000665069 -12.7722 -0.000440421 -7.65782 -0.000264063
-17.9363 -0.000618491 -12.0986 -0.000417192 -7.68317 -0.000264937
-16.6669 -0.000574722 -11.4854 -0.000396049 -7.63579 -0.000263303
-15.4984 -0.000534429 -10.9334 -0.000377015 -7.51294 -0.000259067
-14.4462 -0.000498144 -10.4414 -0.000360048 -7.31376 -0.000252199
-13.5199 -0.000466202 -10.0065 -0.000345052 -7.03927 -0.000242733
-12.7228 -0.000438716 -9.62494 -0.000331894 -6.69222 -0.000230766
-12.0519 -0.000415582 -9.29182 -0.000320408 -6.27704 -0.00021645
-11.4991 -0.00039652 -9.0015 -0.000310397 -5.79967 -0.000199988
-11.0518 -0.000381098 -8.74752 -0.000301639 -5.26739 -0.000181634
-10.6942 -0.000368764 -8.52279 -0.000293889 -4.68871 -0.00016168
-10.4071 -0.000358866 -8.31973 -0.000286887 -4.07307 -0.000140451
-10.1698 -0.000350684 -8.13034 -0.000280357 -3.43068 -0.000118299
-9.96093 -0.00034348 -7.94625 -0.000274009 -2.77228 -9.5596e-05
-9.75895 -0.000336515 -7.75898 -0.000267551 -2.10888 -7.27199e-05
-9.54186 -0.00032903 -7.56029 -0.0002607 -1.45144 -5.00495e-05
-9.28658 -0.000320227 -7.34246 -0.000253188 -0.810661 -2.79538e-05
-8.96828 -0.000309251 -7.10216 -0.000244902 -0.400251 -1.38017e-05
-8.56203 -0.000295242 -6.84702 -0.000236104 -0.167748 -5.78442e-06
-8.05168 -0.000277644 -6.55141 -0.000225911 0.0518632 1.78839e-06
-7.4178 -0.000255786 -6.21178 -0.000214199 0.253952 8.75695e-06
-6.68769 -0.00023061 -5.80901 -0.000200311 0.425256 1.4664e-05
-6.03935 -0.000208254 -5.29344 -0.000182533 0.56275 1.94052e-05
-5.29488 -0.000182582 -4.77307 -0.000164589 0.682983 2.35512e-05
-4.49717 -0.000155075 -4.16869 -0.000143748 0.781454 2.69467e-05
-3.52004 -0.000121381 -3.5107 -0.000121059 0.856247 2.95257e-05
-2.40558 -8.2951e-05 -2.80574 -9.67498e-05 0.905828 3.12354e-05
-1.21696 -4.19641e-05 -2.06775 -7.13018e-05 0.929872 3.20645e-05
-0.239395 -8.25498e-06 -1.32964 -4.58495e-05 0.934032 3.2208e-05
0.750025 2.58629e-05 -0.575617 -1.98489e-05 0.921716 3.17833e-05
1.76855 6.09846e-05 0.113527 3.91473e-06 0.889105 3.06588e-05
2.76882 9.54767e-05 0.681748 2.35085e-05 0.84473 2.91286e-05
3.78725 0.000130595 1.24814 4.30392e-05 0.785905 2.71002e-05
4.8329 0.000166652 1.80814 6.23498e-05 0.718133 2.47632e-05
5.86082 0.000202097 2.36896 8.16883e-05 0.647424 2.2325e-05
6.85096 0.00023624 2.91767 0.000100609 0.577636 1.99185e-05
7.81237 0.000269392 3.4414 0.000118669 0.511828 1.76492e-05
8.73625 0.00030125 3.93573 0.000135715 0.45299 1.56203e-05
9.60048 0.000331051 4.40087 0.000151754 0.40487 1.3961e-05
10.3958 0.000358475 4.83429 0.0001667 0.370677 1.2782e-05
11.1217 0.000383506 5.22914 0.000180315 0.352942 1.21704e-05
11.772 0.000405933 5.57981 0.000192407 0.353623 1.21939e-05
12.3394 0.000425497 5.88494 0.000202929 0.374175 1.29026e-05
12.8227 0.000442162 6.14533 0.000211908 0.415422 1.43249e-05
13.2241 0.000456003 6.36089 0.000219341 0.477562 1.64676e-05
13.5448 0.000467061 6.53079 0.0002252 0.560256 1.93192e-05
13.7873 0.000475425 6.6557 0.000229507 0.662625 2.28492e-05
13.958 0.000481312 6.73856 0.000232364 0.783172 2.70059e-05
14.0652 0.000485008 6.78345 0.000233912 0.919777 3.17164e-05
14.1181 0.000486831 6.79424 0.000234284 1.05945 3.65328e-05
14.1287 0.000487198 6.7692 0.000233421 1.19535 4.12191e-05
14.109 0.000486516 6.71382 0.000231511 1.34342 4.63249e-05
14.0701 0.000485177 6.64201 0.000229035 1.49582 5.158e-05
14.0274 0.000483704 6.55866 0.000226161 1.64523 5.67319e-05
13.9924 0.000482496 6.47233 0.000223184 1.78704 6.16222e-05
13.9785 0.000482019 6.38684 0.000220236 1.92273 6.63012e-05
13.9987 0.000482715 6.30892 0.000217549 2.05264 7.07807e-05
14.0651 0.000485005 6.24655 0.000215398 2.17328 7.49408e-05
14.1886 0.00048926 6.20717 0.00021404 2.27902 7.8587e-05
14.378 0.000495794 6.19682 0.000213684 2.3658 8.15793e-05
14.6405 0.000504844 6.22045 0.000214498 2.43288 8.38923e-05
14.9798 0.000516545 6.28294 0.000216653 2.48104 8.55533e-05
15.3972 0.000530937 6.38891 0.000220307 2.51021 8.65589e-05
15.8914 0.000547978 6.54194 0.000225584 2.51847 8.68437e-05
16.4592 0.00056756 6.74341 0.000232531 2.50143 8.62562e-05
17.096 0.000589517 6.99306 0.00024114 2.46055 8.48467e-05
17.7951 0.000613623 7.29032 0.00025139 2.39906 8.27261e-05
18.5487 0.000639612 7.63324 0.000263215 2.31987 7.99954e-05
19.3481 0.000667177 8.01883 0.000276511 2.22504 7.67257e-05
20.1835 0.000695983 8.44232 0.000291114 2.11719 7.30067e-05
21.0447 0.00072568 8.8976 0.000306814 2.00035 6.89775e-05
21.9213 0.000755906 9.37775 0.000323371 1.87964 6.48153e-05
22.8011 0.000786245 9.87562 0.000340539 1.76021 6.0697e-05
23.6638 0.000815992 10.3858 0.000358131 1.64631 5.67692e-05
24.5015 0.000844879 10.8971 0.000375763 1.54234 5.31842e-05
25.3053 0.000872596 11.4016 0.000393159 1.45259 5.00894e-05
26.0681 0.000898899 11.8916 0.000410056 1.38131 4.76315e-05
26.781 0.000923482 12.3595 0.00042619 1.33267 4.59542e-05
27.4347 0.000946025 12.7982 0.000441316 1.30992 4.51696e-05
28.0217 0.000966267 13.2018 0.000455233 1.31548 4.53612e-05
28.5138 0.000983234 13.5718 0.000467995 1.35091 4.65831e-05
28.885 0.000996036 13.9055 0.000479501 1.41681 4.88555e-05
29.1723 0.00100594 14.1967 0.00048954 1.51273 5.21631e-05
29.364 0.00101255 14.4386 0.000497883 1.6418 5.6614e-05
29.4485 0.00101547 14.6405 0.000504846 1.79997 6.20678e-05
29.433 0.00101493 14.7987 0.000510301 1.98646 6.84986e-05
29.3201 0.00101104 14.9124 0.000514221 2.19763 7.57803e-05
29.116 0.001004 14.9822 0.000516627 2.43112 8.38316e-05
28.8259 0.000993997 15.013 0.000517689 2.66579 9.19238e-05
28.4638 0.000981511 14.9982 0.000517178 2.89008 9.96579e-05
28.0418 0.00096696 14.9471 0.000515418 3.13293 0.000108032
27.5713 0.000950735 14.8731 0.000512867 3.38242 0.000116635
27.0668 0.000933338 14.7808 0.000509682 3.62481 0.000124993
26.5393 0.000915148 14.6788 0.000506165 3.8546 0.000132917
26.0047 0.000896715 14.5681 0.00050235 4.07531 0.000140528
25.4768 0.000878511 14.4542 0.00049842 4.288 0.000147862
24.9686 0.000860985 14.3433 0.000494595 4.48735 0.000154736
24.4918 0.000844545 14.2416 0.000491089 4.66444 0.000160843
24.0501 0.000829315 14.1541 0.000488072 4.81324 0.000165974
23.6244 0.000814635 14.087 0.000485759 4.9328 0.000170097
23.2183 0.00080063 14.0407 0.000484161 5.02444 0.000173256
22.831 0.000787276 14.0156 0.000483298 5.0881 0.000175452
22.4595 0.000774464 14.013 0.000483208 5.12091 0.000176583
22.101 0.000762104 14.0306 0.000483812 5.1186 0.000176503
21.7552 0.000750178 14.0617 0.000484886 5.07787 0.000175099
21.4216 0.000738677 14.0991 0.000486174 5.0031 0.000172521
21.0985 0.000727533 14.1357 0.000487438 4.89852 0.000168914
20.7816 0.000716608 14.1646 0.000488434 4.76583 0.000164339
20.4647 0.000705678 14.1781 0.000488899 4.606 0.000158827
20.1392 0.000694456 14.1673 0.000488528 4.42194 0.000152481
19.7966 0.00068264 14.1233 0.000487011 4.21875 0.000145474
19.4281 0.000669935 14.0379 0.000484066 4.00194 0.000137998
19.0249 0.000656032 13.9038 0.000479442 3.77569 0.000130196
18.5771 0.000640588 13.7145 0.000472914 3.54288 0.000122168
18.074 0.000623242 13.4644 0.000464289 3.3063 0.00011401
17.5066 0.000603676 13.1487 0.000453405 3.06941 0.000105842
16.8683 0.000581664 12.7641 0.000440142 2.83586 9.77883e-05
16.1557 0.000557093 12.3084 0.000424426 2.6085 8.99484e-05
15.3683 0.000529942 11.7806 0.000406228 2.38896 8.2378e-05
14.5076 0.00050026 11.1814 0.000385567 2.17803 7.51044e-05
13.5761 0.000468141 10.513 0.000362519 1.97623 6.81458e-05
12.5773 0.000433699 9.77925 0.000337215 1.78392 6.15147e-05
11.5146 0.000397055 8.98556 0.000309847 1.60095 5.52053e-05
10.3919 0.00035834 8.13891 0.000280652 1.42633 4.91838e-05
9.21369 0.000317714 7.24737 0.000249909 1.25836 4.33916e-05
7.98594 0.000275377 6.31989 0.000217927 1.09501 3.77591e-05
6.71611 0.00023159 5.36595 0.000185033 0.934236 3.2215e-05
5.41377 0.000186682 4.39517 0.000151558 0.773919 2.66869e-05
4.09031 0.000141045 3.41709 0.000117831 0.611837 2.10978e-05
2.75824 9.51117e-05 2.44105 8.41741e-05 0.445652 1.53673e-05
1.43035 4.93223e-05 1.476 5.08966e-05 0.273101 9.41726e-06
0.132684 4.57532e-06 0.527792 1.81997e-05 0.0917929 3.16527e-06
-1.2358 -4.26137e-05 -0.541299 -1.86655e-05 -0.102037 -3.51852e-06
-2.68381 -9.25451e-05 -1.73863 -5.99527e-05 -0.30695 -1.05845e-05
-4.06062 -0.000140021 -2.88817 -9.9592e-05 -0.507642 -1.75049e-05
-5.14428 -0.000177389 -4.0032 -0.000138042 -0.930647 -3.20913e-05
-6.13918 -0.000211696 -5.02964 -0.000173436 -1.37956 -4.7571e-05
-7.04265 -0.00024285 -5.97705 -0.000206105 -1.86095 -6.41706e-05
-7.84494 -0.000270515 -6.86557 -0.000236744 -2.35097 -8.10681e-05
-8.52301 -0.000293897 -7.67482 -0.000264649 -2.85438 -9.84269e-05
-9.09262 -0.000313539 -8.39141 -0.000289359 -3.37266 -0.000116299
-9.56664 -0.000329884 -9.01066 -0.000310713 -3.91045 -0.000134843
-9.94205 -0.000342829 -9.54242 -0.000329049 -4.46075 -0.000153819
-10.2234 -0.000352531 -9.99289 -0.000344582 -5.01153 -0.000172811
-10.4279 -0.000359583 -10.3602 -0.000357248 -5.55281 -0.000191476
-10.5708 -0.000364512 -10.6428 -0.000366994 -6.08032 -0.000209666
-10.6639 -0.00036772 -10.8461 -0.000374002 -6.59166 -0.000227299
-10.7223 -0.000369735 -10.9796 -0.000378605 -7.08082 -0.000244166
-10.7647 -0.000371195 -11.0518 -0.000381096 -7.53753 -0.000259915
-10.8076 -0.000372674 -11.069 -0.000381689 -7.95122 -0.00027418
-10.8663 -0.000374701 -11.0383 -0.000380633 -8.31441 -0.000286704
-10.9571 -0.000377832 -10.9696 -0.000378262 -8.62241 -0.000297324
-11.0958 -0.000382615 -10.8736 -0.00037495 -8.8706 -0.000305883
-11.2962 -0.000389526 -10.7601 -0.000371037 -9.05296 -0.000312171
-11.5698 -0.000398957 -10.638 -0.000366827 -9.16327 -0.000315975
-11.9258 -0.000411234 -10.5163 -0.00036263 -9.19716 -0.000317143
-12.3711 -0.000426589 -10.4034 -0.000358738 -9.14256 -0.000315261
-12.9095 -0.000445155 -10.3057 -0.000355367 -8.9991 -0.000310314
-13.5418 -0.000466957 -10.23 -0.000352759 -8.7685 -0.000302362
-14.2669 -0.000491962 -10.182 -0.000351105 -8.45246 -0.000291464
-15.0818 -0.000520061 -10.1668 -0.000350579 -8.05273 -0.00027768
-15.9812 -0.000551077 -10.1875 -0.000351294 -7.57423 -0.000261181
-16.9588 -0.000584787 -10.2452 -0.000353284 -7.0256 -0.000242262
-18.0068 -0.000620924 -10.3392 -0.000356525 -6.41742 -0.00022129
-19.1161 -0.000659176 -10.4676 -0.000360952 -5.76047 -0.000198637
-20.2761 -0.000699177 -10.6277 -0.000366471 -5.06552 -0.000174673
-21.4748 -0.00074051 -10.8157 -0.000372955 -4.34425 -0.000149802
-22.6985 -0.000782707 -11.0269 -0.000380239 -3.60997 -0.000124482
-23.9325 -0.000825259 -11.2561 -0.000388143 -2.87698 -9.92061e-05
-25.1611 -0.000867624 -11.4979 -0.00039648 -2.15946 -7.44641e-05
-26.3682 -0.000909249 -11.747 -0.000405071 -1.47073 -5.07148e-05
-27.5381 -0.00094959 -11.9984 -0.000413738 -0.823331 -2.83907e-05
-28.6546 -0.00098809 -12.2522 -0.000422489 -0.474088 -1.63479e-05
-29.7032 -0.00102425 -12.5101 -0.000431383 -0.254817 -8.78678e-06
-30.6752 -0.00105776 -12.7548 -0.000439819 -0.0626224 -2.15939e-06
-31.5578 -0.0010882 -12.9837 -0.000447714 0.0947773 3.26818e-06
-32.3454 -0.00111536 -13.1888 -0.000454785 0.209011 7.20726e-06
-33.0311 -0.001139 -13.3739 -0.000461168 0.281536 9.70815e-06
-33.6117 -0.00115902 -13.5417 -0.000466956 0.316073 1.08991e-05
-34.0869 -0.00117541 -13.6924 -0.000472152 0.311501 1.07414e-05
-34.4581 -0.00118821 -13.8275 -0.000476812 0.261578 9.01995e-06
-34.7297 -0.00119757 -13.9501 -0.000481037 0.164823 5.68356e-06
-34.9074 -0.0012037 -14.0654 -0.000485013 0.0232339 8.01168e-07
-34.9989 -0.00120686 -14.1793 -0.000488941 -0.159177 -5.48887e-06
-35.0142 -0.00120739 -14.2967 -0.000492989 -0.378356 -1.30468e-05
-34.9651 -0.00120569 -14.4232 -0.00049735 -0.627501 -2.1638e-05
-34.8668 -0.00120231 -14.5597 -0.000502059 -1.20339 -4.1496e-05
-34.7309 -0.00119762 -14.713 -0.000507345 -1.83961 -6.34349e-05
-34.5749 -0.00119224 -14.8956 -0.00051364 -2.51992 -8.68939e-05
-34.4171 -0.0011868 -15.1121 -0.000521108 -3.22673 -0.000111267
-34.2659 -0.00118158 -15.3723 -0.000530079 -3.94819 -0.000136144
-33.9489 -0.00117065 -15.7103 -0.000541735 -4.6779 -0.000161307
-33.6673 -0.00116094 -16.0945 -0.000554982 -5.41068 -0.000186575
-33.4818 -0.00115454 -16.5109 -0.000569341 -6.14149 -0.000211776
-33.363 -0.00115045 -16.9882 -0.000585801 -6.85409 -0.000236348
-33.323 -0.00114907 -17.5197 -0.000604127 -7.53828 -0.000259941
-33.3803 -0.00115104 -18.0986 -0.000624088 -8.18802 -0.000282345
-33.5386 -0.0011565 -18.7193 -0.000645492 -8.80008 -0.000303451
-33.7927 -0.00116527 -19.3819 -0.00066834 -9.37168 -0.000323161
-34.1425 -0.00117733 -20.0869 -0.000692651 -9.89695 -0.000341274
-34.5454 -0.00119122 -20.8234 -0.000718047 -10.371 -0.000357621
-35.0441 -0.00120842 -21.5841 -0.000744279 -10.7915 -0.00037212
-35.6294 -0.0012286 -22.3559 -0.000770892 -11.1601 -0.000384831
-36.2524 -0.00125008 -23.1477 -0.000798195 -11.4767 -0.000395747
-36.9385 -0.00127374 -23.9473 -0.00082577 -11.7407 -0.000404853
-37.6575 -0.00129853 -24.7478 -0.000853371 -11.9552 -0.000412247
-37.5655 -0.00129536 -28.7913 -0.000992804 -12.0213 -0.000414528
-29.4694 -0.00101619 -15.5116 -0.000534883 -10.3338 -0.000356336
-28.1327 -0.000970094 -3.16271 -0.000109059 -10.5627 -0.000364232
-32.1844 -0.00110981 -5.82868 -0.000200989 -10.6702 -0.000367937
-33.6242 -0.00115946 -13.864 -0.000478069 -10.7966 -0.000372298
-32.2536 -0.00111219 -15.1393 -0.000522045 -10.5811 -0.000364867
-32.4974 -0.0011206 -8.99273 -0.000310094 -10.1942 -0.000351524
-33.8773 -0.00116818 -3.49042 -0.000120359 -10.0266 -0.000345747
-34.2593 -0.00118135 -4.0563 -0.000139872 -10.0889 -0.000347892
-34.2692 -0.0011817 -7.27492 -0.000250859 -10.1166 -0.000348849
-34.86 -0.00120207 -7.66879 -0.000264441 -9.93426 -0.000342561
-35.4024 -0.00122077 -4.54566 -0.000156747 -9.72229 -0.000335251
-35.429 -0.00122169 -1.90345 -6.56362e-05 -9.72123 -0.000335215
-35.4688 -0.00122306 -1.81069 -6.24376e-05 -9.93632 -0.000342632
-35.7652 -0.00123328 -2.85491 -9.8445e-05 -10.1844 -0.000351187
-35.9457 -0.00123951 -3.03864 -0.000104781 -10.3649 -0.000357409
-35.8468 -0.0012361 -2.08493 -7.1894e-05 -10.5646 -0.000364295
-35.6805 -0.00123036 -1.35009 -4.6555e-05 -10.9146 -0.000376364
-35.5372 -0.00122542 -1.85875 -6.40949e-05 -11.3922 -0.000392834
-35.3484 -0.00121891 -2.79702 -9.6449e-05 -11.9907 -0.000413474
-34.9529 -0.00120527 -3.22805 -0.000111312 -12.5787 -0.000433747
-34.416 -0.00118676 -3.17559 -0.000109503 -13.1515 -0.000453501
-33.8274 -0.00116646 -2.98738 -0.000103013 -13.6152 -0.000469489
-33.1031 -0.00114149 -2.76608 -9.53819e-05 -14.1046 -0.000486366
-32.2085 -0.00111064 -2.43618 -8.4006e-05 -14.323 -0.000493896
-31.2734 -0.00107839 -1.65491 -5.70659e-05 -14.2714 -0.000492117
-30.3839 -0.00104772 -1.05858 -3.65028e-05 -14.2936 -0.000492881
-29.4338 -0.00101496 -0.677339 -2.33565e-05 -14.3439 -0.000494618
-28.3796 -0.000978608 -0.432207 -1.49037e-05 -14.3487 -0.000494782
-27.2731 -0.000940451 -0.0732415 -2.52557e-06 -14.2881 -0.000492692
-26.1556 -0.000901918 0.217645 7.50502e-06 -14.2123 -0.000490079
-25.0217 -0.000862816 0.406545 1.40188e-05 -14.1825 -0.000489051
-23.8627 -0.000822851 0.200416 6.91091e-06 -14.1974 -0.000489566
-22.6951 -0.00078259 -0.061856 -2.13297e-06 -14.2096 -0.000489986
-21.5244 -0.00074222 -0.243907 -8.41059e-06 -14.1816 -0.000489022
-20.3481 -0.000701658 -0.308922 -1.06525e-05 -14.128 -0.000487171
-19.1758 -0.000661236 -0.330078 -1.1382e-05 -14.0872 -0.000485764
-18.0223 -0.000621457 -0.36437 -1.25645e-05 -14.0766 -0.000485401
-16.8928 -0.000582511 -0.384793 -1.32687e-05 -14.0794 -0.000485497
-15.7888 -0.000544442 -0.338004 -1.16553e-05 -14.0526 -0.000484571
-14.4634 -0.000498738 -0.158279 -5.45791e-06 -13.8336 -0.000477021
-13.2228 -0.000455957 0.116791 4.02727e-06 -13.4552 -0.000463972
-12.0724 -0.000416289 0.473734 1.63357e-05 -12.9606 -0.000446918
-11.0092 -0.000379627 0.93438 3.222e-05 -12.3051 -0.000424314
-10.0246 -0.000345676 1.49188 5.14442e-05 -11.4677 -0.000395438
-9.099 -0.000313759 2.1171 7.30034e-05 -10.4891 -0.000361693
-8.2092 -0.000283076 2.80242 9.66353e-05 -9.41967 -0.000324816
-7.33377 -0.000252889 3.55059 0.000122434 -8.26771 -0.000285093
-6.45363 -0.000222539 4.34453 0.000149811 -7.03182 -0.000242476
-5.6936 -0.000196331 5.21195 0.000179723 -5.74135 -0.000197978
-5.04236 -0.000173875 6.0232 0.000207696 -4.43219 -0.000152834
-4.64564 -0.000160195 6.77107 0.000233485 -3.12451 -0.000107742
-4.08813 -0.00014097 7.54559 0.000260193 -1.83668 -6.33339e-05
-3.34823 -0.000115457 8.33603 0.000287449 -0.720115 -2.48316e-05
-2.55704 -8.8174e-05 8.9966 0.000310228 -0.422197 -1.45585e-05
-1.63852 -5.65009e-05 9.57669 0.000330231 -0.080885 -2.78914e-06
-0.648201 -2.23519e-05 10.1086 0.000348571 0.268459 9.2572e-06
0.124492 4.29267e-06 10.7059 0.000369169 0.533902 1.84104e-05
1.02511 3.53486e-05 11.3132 0.000390111 0.769701 2.65414e-05
1.93048 6.65682e-05 11.8162 0.000407454 1.03489 3.56857e-05
2.87027 9.89745e-05 12.3105 0.000424501 1.31504 4.53462e-05
3.87359 0.000133572 12.7935 0.000441155 1.56053 5.38114e-05
4.88196 0.000168343 13.1 0.000451723 1.77118 6.10753e-05
6.02358 0.00020771 3.26385 0.000112546 1.97452 6.80868e-05
7.27368 0.000250817 -5.85083 -0.000201753 2.20819 7.61445e-05
8.41063 0.000290022 -14.2745 -0.000492225 2.43141 8.38416e-05
9.82703 0.000338863 -13.1804 -0.000454497 2.6077 8.99207e-05
11.4743 0.000395664 -10.088 -0.00034786 2.825 9.74137e-05
12.7862 0.000440904 -7.22606 -0.000249174 3.04228 0.000104906
14.013 0.000483206 -5.04019 -0.0001738 3.23694 0.000111619
15.2281 0.000525108 -2.94734 -0.000101632 3.43637 0.000118495
16.2094 0.000558943 -0.770622 -2.65732e-05 3.64847 0.000125809
17.0365 0.000587466 1.05072 3.62317e-05 3.8513 0.000132804
17.7541 0.000612209 2.40972 8.30939e-05 4.04652 0.000139535
18.2866 0.000630573 3.57397 0.00012324 4.24948 0.000146534
18.6641 0.000643588 4.57693 0.000157825 4.45213 0.000153522
18.9213 0.000652457 5.24792 0.000180963 4.64013 0.000160004
19.0482 0.000656834 5.59299 0.000192862 4.81673 0.000166094
19.0669 0.000657479 5.74098 0.000197965 4.98755 0.000171985
19.0042 0.000655318 5.75447 0.00019843 5.14436 0.000177392
18.8719 0.000650756 5.65471 0.00019499 5.27726 0.000181974
18.6924 0.000644566 5.46293 0.000188377 5.38556 0.000185709
18.4952 0.000637764 5.21985 0.000179995 5.47084 0.00018865
18.3037 0.000631161 4.92498 0.000169827 5.4508 0.000187959
18.1441 0.00062566 4.57459 0.000157744 5.46646 0.000188499
18.036 0.000621932 4.22366 0.000145643 5.45116 0.000187971
18.0117 0.000621093 3.87336 0.000133564 5.33186 0.000183857
18.0896 0.000623778 3.50918 0.000121006 5.15387 0.00017772
18.2592 0.000629629 3.12772 0.000107853 4.93814 0.000170281
18.5554 0.000639841 2.75861 9.51245e-05 4.65525 0.000160526
18.9679 0.000654066 2.40557 8.29507e-05 4.28685 0.000147822
19.4907 0.000672093 2.07323 7.14907e-05 3.85642 0.00013298
20.1334 0.000694256 1.75446 6.04985e-05 3.39274 0.000116991
20.868 0.000719586 1.46247 5.04299e-05 2.89799 9.99308e-05
21.6795 0.00074757 1.20229 4.14581e-05 2.36598 8.15855e-05
22.5502 0.000777593 0.972351 3.35293e-05 1.80925 6.23879e-05
23.4527 0.000808712 0.770511 2.65694e-05 1.25217 4.31782e-05
24.3617 0.000840058 0.598407 2.06347e-05 0.709816 2.44764e-05
25.2524 0.000870771 0.456087 1.57271e-05 0.186472 6.43006e-06
26.0973 0.000899906 0.340535 1.17426e-05 -0.308962 -1.06538e-05
26.8644 0.00092636 0.282275 9.73361e-06 -0.591191 -2.03859e-05
27.5338 0.000949442 0.296788 1.02341e-05 -1.0869 -3.74795e-05
28.0975 0.000968879 0.314201 1.08345e-05 -1.53932 -5.30799e-05
28.535 0.000983966 0.309812 1.06832e-05 -1.84706 -6.36917e-05
28.84 0.000994483 0.293034 1.01046e-05 -2.01818 -6.95924e-05
28.9896 0.000999641 0.288279 9.94066e-06 -2.14383 -7.39252e-05
28.9539 0.000998409 0.284185 9.7995e-06 -2.22719 -7.67998e-05
28.7285 0.000990639 0.262914 9.06598e-06 -2.14455 -7.39498e-05
28.3162 0.000976421 0.243992 8.41353e-06 -1.8521 -6.38656e-05
27.7233 0.000955974 0.235259 8.11239e-06 -1.41288 -4.87202e-05
26.9701 0.000930005 0.231376 7.97847e-06 -0.853579 -2.94338e-05
26.0821 0.000899382 0.224948 7.75683e-06 -0.419143 -1.44532e-05
25.0879 0.000865101 0.203655 7.0226e-06 -0.0749767 -2.5854e-06
24.0153 0.000828114 0.188874 6.5129e-06 0.311967 1.07575e-05
22.8976 0.000789574 0.184636 6.36675e-06 0.720851 2.48569e-05
21.7601 0.000750347 0.198565 6.84707e-06 1.13211 3.90382e-05
20.6271 0.00071128 0.229 7.89656e-06 1.56089 5.38239e-05
19.5149 0.000672929 0.282143 9.72908e-06 2.00048 6.89822e-05
18.4335 0.000635638 0.365796 1.26137e-05 2.4286 8.37447e-05
17.3909 0.000599686 0.483619 1.66765e-05 2.82694 9.74807e-05
16.3948 0.000565338 0.634631 2.18838e-05 3.19494 0.00011017
15.4527 0.000532852 0.816499 2.81551e-05 3.53214 0.000121798
14.5693 0.000502389 1.02614 3.53842e-05 3.82899 0.000132034
13.7439 0.000473928 1.25813 4.33837e-05 4.07443 0.000140497
12.9705 0.000447258 1.50385 5.1857e-05 4.26634 0.000147115
12.2384 0.000422012 1.75232 6.04248e-05 4.40762 0.000151987
11.5325 0.000397672 1.99088 6.86511e-05 4.49851 0.000155121
10.8329 0.00037355 2.20524 7.60427e-05 4.53696 0.000156447
10.1151 0.000348797 2.37889 8.20308e-05 4.52005 0.000155864
9.35187 0.000322478 2.49219 8.59376e-05 4.45117 0.000153489
8.51772 0.000293714 2.52659 8.71237e-05 4.33781 0.00014958
7.59354 0.000261846 2.46385 8.49602e-05 4.18339 0.000144255
6.66835 0.000229943 2.27259 7.83651e-05 3.99134 0.000137633
6.09556 0.000210191 1.88381 6.4959e-05 3.77536 0.000130185
5.38622 0.000185731 1.41059 4.86411e-05 3.52415 0.000121522
4.53287 0.000156306 0.780336 2.69081e-05 3.25503 0.000112242
3.54189 0.000122134 0.0255895 8.82396e-07 2.96301 0.000102173
2.46057 8.48472e-05 -0.821421 -2.83249e-05 2.6496 9.13655e-05
1.26952 4.37765e-05 -1.74943 -6.0325e-05 2.31665 7.98846e-05
0.0929716 3.20577e-06 -2.71228 -9.35269e-05 1.96577 6.77853e-05
-1.35227 -4.66301e-05 -3.53808 -0.000122003 1.59568 5.50235e-05
-2.92065 -0.000100712 -2.95981 -0.000102062 1.21183 4.17872e-05
-4.40062 -0.000151746 2.27142 7.83249e-05 0.81157 2.79852e-05
-5.90181 -0.000203511 6.75298 0.000232862 0.395087 1.36237e-05
-7.23127 -0.000249354 2.3859 8.22726e-05 -0.0281236 -9.6978e-07
-8.05422 -0.000277732 0.819553 2.82605e-05 -0.441012 -1.52073e-05
-8.75457 -0.000301882 1.00435 3.46328e-05 -0.769151 -2.65225e-05
-9.59619 -0.000330903 0.898382 3.09787e-05 -1.28911 -4.44519e-05
-10.3141 -0.00035566 0.360058 1.24158e-05 -1.88853 -6.51217e-05
-10.9264 -0.000376774 0.0612945 2.1136e-06 -2.48457 -8.56748e-05
-11.522 -0.00039731 -0.0633686 -2.18512e-06 -3.0261 -0.000104348
-12.0509 -0.000415548 -0.381981 -1.31718e-05 -3.61203 -0.000124553
-12.5081 -0.000431314 -0.880149 -3.035e-05 -4.26761 -0.000147159
-12.9175 -0.000445433 -1.29221 -4.45589e-05 -4.94046 -0.000170361
-13.251 -0.000456932 -1.64486 -5.67194e-05 -5.59346 -0.000192878
-13.4889 -0.000465133 -2.11419 -7.2903e-05 -6.24774 -0.000215439
-13.6978 -0.000472339 -2.64589 -9.12375e-05 -6.92524 -0.000238801
-13.8328 -0.000476994 -3.14357 -0.000108399 -7.60942 -0.000262394
-13.9205 -0.000480016 -3.61584 -0.000124684 -8.2712 -0.000285214
-13.9824 -0.000482154 -4.12369 -0.000142196 -8.90507 -0.000307071
-14.0106 -0.000483125 -4.64189 -0.000160065 -9.51793 -0.000328204
-14.0102 -0.000483111 -5.11657 -0.000176434 -10.1045 -0.00034843
-13.9927 -0.000482508 -5.54829 -0.00019132 -10.6483 -0.000367181
-13.9605 -0.000481398 -5.95842 -0.000205463 -11.1372 -0.000384041
-13.9176 -0.000479916 -6.33131 -0.000218321 -11.5688 -0.000398926
-13.8674 -0.000478188 -6.63946 -0.000228947 -11.9418 -0.000411787
-13.8109 -0.000476239 -6.8813 -0.000237286 -12.2496 -0.000422399
-13.7488 -0.000474097 -7.06571 -0.000243645 -12.4841 -0.000430485
-13.6349 -0.000470169 -7.18797 -0.000247861 -12.6419 -0.000435929
-13.4545 -0.00046395 -7.22507 -0.00024914 -12.7238 -0.000438751
-13.2181 -0.000455796 -7.18018 -0.000247592 -12.7154 -0.000438463
-12.9483 -0.000446495 -7.0632 -0.000243559 -12.5679 -0.000433374
-12.6633 -0.000436664 -6.87634 -0.000237115 -12.2952 -0.000423973
-12.3723 -0.000426631 -6.5378 -0.000225441 -11.9043 -0.000410492
-12.065 -0.000416033 -5.92276 -0.000204233 -11.3927 -0.000392852
-11.7433 -0.000404942 -4.99272 -0.000172163 -10.7695 -0.000371363
-11.4182 -0.000393731 -3.7754 -0.000130186 -10.0565 -0.000346777
-11.1528 -0.000384581 -2.71758 -9.37097e-05 -9.2843 -0.000320148
-10.9172 -0.000376457 -1.69068 -5.82995e-05 -8.4514 -0.000291428
-10.6303 -0.000366561 -0.46625 -1.60776e-05 -7.5635 -0.00026081
-10.321 -0.000355897 0.721075 2.48647e-05 -6.63769 -0.000228886
-10.0139 -0.000345306 1.55433 5.35977e-05 -5.69376 -0.000196337
-9.67277 -0.000333544 2.25866 7.78847e-05 -4.73637 -0.000163323
-9.29572 -0.000320542 3.02548 0.000104327 -3.76817 -0.000129937
-8.89721 -0.0003068 3.86374 0.000133232 -2.79971 -9.65417e-05
-8.47345 -0.000292188 4.6849 0.000161548 -1.84183 -6.35113e-05
-8.02464 -0.000276712 5.4763 0.000188838 -0.992753 -3.42329e-05
-7.53861 -0.000259952 6.22563 0.000214677 -0.603308 -2.08037e-05
-7.02061 -0.00024209 6.98083 0.000240718 -0.346341 -1.19428e-05
-6.47614 -0.000223315 7.67317 0.000264592 -0.054083 -1.86493e-06
-5.91092 -0.000203825 8.39062 0.000289332 0.197145 6.7981e-06
-5.30316 -0.000182868 9.13703 0.00031507 0.414699 1.43e-05
-4.65542 -0.000160532 9.87232 0.000340425 0.648071 2.23473e-05
-3.96667 -0.000136782 10.5748 0.000364649 0.909779 3.13717e-05
-3.23166 -0.000111437 11.2716 0.000388675 1.16588 4.02029e-05
-2.41856 -8.33989e-05 9.10992 0.000314135 1.39582 4.81317e-05
-1.49881 -5.16831e-05 6.22617 0.000214695 1.62567 5.60575e-05
-0.583223 -2.01113e-05 3.69336 0.000127357 1.8678 6.44069e-05
0.157311 5.42437e-06 1.38111 4.76245e-05 2.10604 7.26222e-05
0.906073 3.12437e-05 -0.570792 -1.96825e-05 2.32783 8.02698e-05
1.68273 5.8025e-05 -2.11553 -7.29494e-05 2.53844 8.75323e-05
2.32079 8.00271e-05 -2.52187 -8.69612e-05 2.73838 9.4427e-05
3.02061 0.000104159 -1.43925 -4.96293e-05 2.93619 0.000101248
3.7306 0.000128641 -0.233955 -8.06743e-06 3.11248 0.000107327
4.38067 0.000151057 0.692114 2.3866e-05 3.27081 0.000112787
5.02371 0.000173231 1.51614 5.22808e-05 3.4056 0.000117434
5.70721 0.0001968 2.34406 8.08297e-05 3.52606 0.000121588
6.37577 0.000219854 3.10621 0.000107111 3.62406 0.000124968
7.06027 0.000243458 3.72447 0.00012843 3.69652 0.000127466
7.77752 0.00026819 4.27035 0.000147253 3.74664 0.000129195
8.51013 0.000293453 4.79434 0.000165322 3.77609 0.00013021
9.26813 0.000319591 5.25969 0.000181369 3.77603 0.000130208
10.0612 0.000346938 5.63578 0.000194337 3.73055 0.00012864
10.8833 0.000375286 5.95387 0.000205306 3.64881 0.000125821
11.7365 0.000404705 6.23298 0.00021493 3.53337 0.00012184
12.6204 0.000435187 6.46267 0.000222851 3.38039 0.000116565
13.5282 0.000466491 6.64139 0.000229014 3.19258 0.000110089
14.4539 0.00049841 6.78599 0.000234 2.97952 0.000102742
15.39 0.000530688 6.90504 0.000238105 2.74818 9.47649e-05
16.3257 0.000562954 6.99682 0.00024127 2.50127 8.62507e-05
17.2494 0.000594808 7.06565 0.000243643 2.24275 7.73364e-05
18.1488 0.000625822 7.12141 0.000245566 1.98039 6.82894e-05
19.0116 0.000655572 7.16877 0.000247199 1.72193 5.9377e-05
19.8277 0.000683715 7.20756 0.000248536 1.47273 5.07837e-05
20.5894 0.000709978 7.24022 0.000249663 1.23737 4.26679e-05
12.901 0.000444861 6.46051 0.000222776 1.11346 3.83952e-05
22.053 0.00076045 4.38094 0.000151067 1.25341 4.32209e-05
22.0914 0.000761773 4.92816 0.000169937 0.786378 2.71165e-05
14.9776 0.00051647 5.22763 0.000180263 0.655694 2.26101e-05
17.9926 0.000620433 5.25836 0.000181323 0.420254 1.44915e-05
22.8509 0.000787962 5.2794 0.000182048 0.230461 7.94694e-06
21.1258 0.000728477 5.91125 0.000203836 -0.0342711 -1.18176e-06
20.7895 0.000716881 6.21488 0.000214306 -0.223387 -7.703e-06
23.0602 0.00079518 6.53716 0.000225419 -0.37301 -1.28624e-05
23.9955 0.000827429 6.90124 0.000237974 -0.405214 -1.39729e-05
24.1048 0.000831199 8.30665 0.000286436 -0.497874 -1.71681e-05
24.4466 0.000842984 9.24769 0.000318886 -0.542321 -1.87007e-05
25.4098 0.000876199 10.0742 0.000347387 -0.471313 -1.62522e-05
26.0246 0.000897401 11.0809 0.0003821 -0.348171 -1.20059e-05
26.1543 0.000901872 12.1577 0.000419232 -0.24371 -8.40379e-06
26.3763 0.000909529 13.0176 0.000448883 -0.102667 -3.54025e-06
26.8132 0.000924593 13.7767 0.000475058 0.11727 4.04379e-06
27.0226 0.000931813 14.605 0.00050362 0.390008 1.34486e-05
26.8793 0.000926874 15.4061 0.000531244 0.681494 2.34998e-05
26.7948 0.000923958 16.0645 0.000553947 0.995691 3.43342e-05
26.6891 0.000920312 16.6964 0.000575738 1.34687 4.64438e-05
26.3084 0.000907185 17.2955 0.000596395 1.73239 5.97375e-05
25.8936 0.000892883 17.8039 0.000613927 2.12588 7.33061e-05
25.4932 0.000879077 18.2438 0.000629096 2.51721 8.68005e-05
25.0515 0.000863846 18.6973 0.000644734 2.90718 0.000100248
24.5619 0.000846962 19.1724 0.000661116 3.29012 0.000113453
24.0444 0.000829118 19.5994 0.000675842 3.61328 0.000124596
23.6032 0.000813903 19.9217 0.000686955 3.90319 0.000134593
23.2075 0.000800259 20.2594 0.0006986 4.16256 0.000143537
22.7603 0.000784837 20.5743 0.000709457 4.39556 0.000151571
22.3282 0.000769936 20.8751 0.000719831 4.59485 0.000158443
21.9436 0.000756676 21.1496 0.000729297 4.75697 0.000164034
21.5589 0.000743411 21.4184 0.000738566 4.88033 0.000168287
21.1389 0.000728929 21.6724 0.000747323 4.96455 0.000171191
20.7113 0.000714182 21.8893 0.000754805 5.00864 0.000172712
20.2833 0.000699424 22.0516 0.000760401 5.00904 0.000172726
19.8393 0.000684113 22.1356 0.000763297 4.95643 0.000170911
19.3519 0.000667308 22.121 0.000762794 4.85523 0.000167422
18.8486 0.000649951 22.0267 0.000759541 4.71126 0.000162457
18.2822 0.00063042 21.8382 0.000753043 4.52689 0.0001561
17.7559 0.000612271 21.5188 0.000742026 4.31316 0.00014873
17.2628 0.000595268 21.1563 0.000729527 4.05225 0.000139733
16.583 0.000571828 20.675 0.000712931 3.77382 0.000130132
15.8981 0.00054821 20.1126 0.000693539 3.47035 0.000119667
15.2361 0.000525384 19.4542 0.000670835 3.14858 0.000108572
14.5257 0.000500886 18.7173 0.000645424 2.80591 9.67554e-05
13.7105 0.000472774 17.8986 0.000617193 2.45137 8.45301e-05
12.8546 0.000443262 17.0019 0.000586274 2.09172 7.21283e-05
11.9977 0.000413712 16.0342 0.000552904 1.72836 5.95985e-05
11.1219 0.000383513 15.0113 0.000517632 1.35931 4.68729e-05
10.216 0.000352276 13.9418 0.000480753 0.988757 3.40951e-05
9.32932 0.0003217 12.8463 0.000442977 0.620876 2.14095e-05
8.50523 0.000293284 11.7616 0.000405573 0.255512 8.81077e-06
7.70838 0.000265806 10.7505 0.000370706 -0.112586 -3.88228e-06
6.93676 0.000239199 9.88895 0.000340998 -0.475147 -1.63844e-05
6.29829 0.000217182 9.73326 0.00033563 -0.727705 -2.50933e-05
5.79058 0.000199675 9.15949 0.000315844 -1.17688 -4.05821e-05
5.39884 0.000186167 5.92619 0.000204351 -1.62489 -5.60308e-05
5.1348 0.000177062 2.88249 9.93962e-05 -2.03142 -7.00491e-05
5.04373 0.000173921 0.56438 1.94614e-05 -2.39091 -8.24451e-05
5.1504 0.0001776 -0.327245 -1.12843e-05 -2.76699 -9.54133e-05
5.36812 0.000185107 -0.683978 -2.35855e-05 -3.17935 -0.000109633
5.55959 0.00019171 -1.00899 -3.47927e-05 -3.59437 -0.000123944
5.80272 0.000200094 -1.45001 -5.00002e-05 -3.98004 -0.000137243
6.15738 0.000212323 -1.77305 -6.11397e-05 -4.3551 -0.000150176
6.55999 0.000226206 -1.83932 -6.34248e-05 -4.74005 -0.00016345
7.02487 0.000242237 -1.82752 -6.3018e-05 -5.11294 -0.000176308
7.56587 0.000260892 -1.70957 -5.89506e-05 -5.44248 -0.000187672
8.15571 0.000281231 -1.37503 -4.74147e-05 -5.72267 -0.000197333
8.73567 0.00030123 -0.862016 -2.97247e-05 -5.96426 -0.000205664
9.30468 0.000320851 -0.257807 -8.88988e-06 -6.15788 -0.000212341
9.88117 0.00034073 0.438267 1.51127e-05 -6.27985 -0.000216547
10.4491 0.000360315 1.26108 4.34857e-05 -6.31945 -0.000217912
10.928 0.000376827 2.20522 7.60422e-05 -6.25975 -0.000215853
11.2945 0.000389464 3.3447 0.000115335 -6.05749 -0.000208879
11.724 0.000404275 4.95635 0.000170909 -5.66538 -0.000195358
12.1913 0.000420389 6.91377 0.000238406 -5.11053 -0.000176225
12.5186 0.000431675 8.80155 0.000303502 -4.39776 -0.000151647
12.6846 0.000437399 10.5429 0.000363549 -3.52955 -0.000121709
12.8121 0.000441796 12.3574 0.000426118 -2.50852 -8.65009e-05
12.8927 0.000444575 14.2249 0.000490513 -1.35329 -4.66651e-05
12.8556 0.000443295 15.9265 0.00054919 -0.410955 -1.41709e-05
12.6957 0.000437781 17.3816 0.000599365 -0.0259235 -8.93915e-07
12.4991 0.000431003 18.7257 0.000645715 0.484541 1.67083e-05
12.2935 0.000423915 20.0367 0.000690922 1.0011 3.45207e-05
11.9252 0.000411212 21.3229 0.000735271 1.48075 5.10605e-05
11.4937 0.000396336 22.4838 0.000775303 1.95063 6.72632e-05
11.1081 0.000383038 23.5495 0.000812051 2.45336 8.45988e-05
10.6505 0.00036726 24.578 0.000847516 2.95982 0.000102063
10.1083 0.000348563 25.5583 0.000881322 3.42486 0.000118099
9.56839 0.000329944 26.4643 0.000912563 3.84455 0.000132571
9.03744 0.000311636 27.3172 0.000941973 4.24099 0.000146241
8.46323 0.000291835 28.1335 0.00097012 4.61111 0.000159004
7.86335 0.00027115 28.8906 0.000996227 4.93082 0.000170028
7.24646 0.000249878 29.5586 0.00101926 5.18888 0.000178927
6.66764 0.000229918 30.0509 0.00103624 5.27377 0.000181854
6.12416 0.000211178 30.3698 0.00104723 5.25521 0.000181214
5.51904 0.000190312 30.5765 0.00105436 5.30528 0.000182941
4.92151 0.000169707 30.7072 0.00105887 5.32562 0.000183642
4.50132 0.000155218 30.734 0.00105979 5.2489 0.000180997
4.25241 0.000146635 30.6291 0.00105618 5.1022 0.000175938
3.97928 0.000137216 30.3831 0.00104769 4.95603 0.000170898
3.72416 0.000128419 30.055 0.00103638 4.74838 0.000163737
3.47453 0.000119811 29.6386 0.00102202 4.42266 0.000152506
3.23997 0.000111723 29.1184 0.00100408 4.01355 0.000138398
2.99413 0.000103246 28.351 0.000977621 3.57846 0.000123395
2.73924 9.44563e-05 26.7355 0.000921915 3.11721 0.00010749
2.47479 8.53375e-05 24.9186 0.000859263 2.59711 8.95554e-05
2.18516 7.53502e-05 22.9049 0.000789826 2.02246 6.97401e-05
1.88383 6.49594e-05 20.6888 0.000713408 1.42827 4.92507e-05
1.59965 5.51601e-05 18.3034 0.000631151 0.829447 2.86016e-05
1.30652 4.50523e-05 15.7747 0.000543954 0.217518 7.50062e-06
0.99458 3.42957e-05 13.1374 0.000453013 -0.411494 -1.41895e-05
0.667683 2.30234e-05 10.4386 0.00035995 -0.863977 -2.97923e-05
0.337461 1.16364e-05 7.64188 0.000263513 -1.56549 -5.39826e-05
0.0189394 6.52937e-07 4.30013 0.00014828 -2.31216 -7.97296e-05
-0.239074 -8.24408e-06 1.01779 3.50961e-05 -2.97908 -0.000102727
-0.449392 -1.54964e-05 -1.52185 -5.24777e-05 -3.53585 -0.000121926
-0.507392 -1.74964e-05 -2.00673 -6.91975e-05 -4.07587 -0.000140547
-0.520015 -1.79317e-05 -2.07478 -7.1544e-05 -4.66337 -0.000160806
-0.685262 -2.36299e-05 -2.47659 -8.53998e-05 -5.23924 -0.000180664
-0.93702 -3.23112e-05 -3.02001 -0.000104138 -5.7359 -0.00019779
-1.12196 -3.86885e-05 -3.33129 -0.000114872 -6.17293 -0.00021286
-1.31026 -4.51817e-05 -3.4919 -0.00012041 -6.60509 -0.000227762
-1.58479 -5.46481e-05 -3.7669 -0.000129893 -7.02636 -0.000242288
-1.88858 -6.51235e-05 -4.1052 -0.000141559 -7.38588 -0.000254685
-2.16275 -7.45777e-05 -4.31656 -0.000148847 -7.67218 -0.000264558
-2.44597 -8.4344e-05 -4.4216 -0.000152469 -7.91797 -0.000273033
-2.77907 -9.58301e-05 -4.55276 -0.000156992 -8.1365 -0.000280569
-3.12764 -0.00010785 -4.6938 -0.000161855 -8.30336 -0.000286323
-3.46249 -0.000119396 -4.75093 -0.000163825 -8.40117 -0.000289696
-3.80091 -0.000131066 -4.73074 -0.000163129 -8.4437 -0.000291162
-4.15645 -0.000143326 -4.69777 -0.000161992 -8.42613 -0.000290556
-4.50368 -0.0001553 -4.63772 -0.000159922 -8.31498 -0.000286723
-4.79136 -0.000165219 -4.49106 -0.000154864 -8.10433 -0.00027946
-5.08127 -0.000175216 -4.27949 -0.000147568 -7.80234 -0.000269046
-5.38824 -0.000185801 -4.05017 -0.000139661 -7.4198 -0.000255855
-5.69513 -0.000196384 -3.70961 -0.000127918 -6.96288 -0.000240099
-6.08257 -0.000209744 -3.16188 -0.00010903 -6.43263 -0.000221815
-6.22935 -0.000214805 -2.52492 -8.70663e-05 -5.82922 -0.000201008
-6.44179 -0.000222131 -1.72605 -5.9519e-05 -5.19698 -0.000179206
-6.77578 -0.000233648 -1.02084 -3.52013e-05 -4.52547 -0.000156051
-6.95665 -0.000239885 -0.224793 -7.75148e-06 -3.83267 -0.000132161
-7.07781 -0.000244062 0.65976 2.27504e-05 -3.123 -0.00010769
-7.22058 -0.000248986 1.43905 4.96223e-05 -2.41498 -8.32753e-05
-7.27825 -0.000250974 2.12879 7.34066e-05 -1.7154 -5.91516e-05
-7.26508 -0.00025052 2.85121 9.83176e-05 -1.04669 -3.60928e-05
-7.21388 -0.000248755 3.60676 0.000124371 -0.757488 -2.61203e-05
-7.10006 -0.00024483 4.34559 0.000149848 -0.568575 -1.9606e-05
-6.94247 -0.000239396 5.04081 0.000173821 -0.354332 -1.22183e-05
-6.77242 -0.000233532 5.7657 0.000198817 -0.171675 -5.91984e-06
-6.58045 -0.000226912 6.52006 0.00022483 -0.0165714 -5.71429e-07
-6.36926 -0.00021963 7.25334 0.000250115 0.137291 4.73416e-06
-6.16597 -0.00021262 7.94892 0.000274101 0.301823 1.04077e-05
-5.97524 -0.000206043 8.62752 0.000297501 0.457709 1.57831e-05
-5.79424 -0.000199801 9.29222 0.000320421 0.593087 2.04513e-05
-5.63884 -0.000194443 9.92057 0.000342089 0.718047 2.47603e-05
-5.5198 -0.000190338 10.4979 0.000361995 0.844888 2.91341e-05
-5.4404 -0.0001876 11.0235 0.00038012 0.969567 3.34334e-05
-5.41081 -0.00018658 11.5067 0.000396781 1.08218 3.73167e-05
-5.43695 -0.000187481 11.9315 0.000411432 1.18417 4.08335e-05
-5.52124 -0.000190388 12.2883 0.000423735 1.28127 4.41818e-05
-5.66313 -0.00019528 12.5764 0.000433668 1.37522 4.74214e-05
-5.86087 -0.000202099 12.799 0.000441345 1.46076 5.03711e-05
-6.11013 -0.000210694 12.942 0.000446276 1.53457 5.29162e-05
-6.42168 -0.000221437 12.8565 0.000443329 1.59838 5.51164e-05
-6.78628 -0.00023401 12.4841 0.000430485 1.65148 5.69475e-05
-7.20753 -0.000248536 11.8488 0.000408581 1.69142 5.83247e-05
-7.67695 -0.000264722 10.9708 0.000378305 1.71519 5.91444e-05
-8.18362 -0.000282194 9.85716 0.000339902 1.72174 5.93702e-05
-8.70848 -0.000300293 8.50637 0.000293323 1.70483 5.87872e-05
-9.22808 -0.00031821 6.95841 0.000239945 1.65593 5.71011e-05
-9.76243 -0.000336636 5.23179 0.000180406 1.57381 5.42694e-05
-10.2203 -0.000352425 3.52766 0.000121643 1.46143 5.03941e-05
-10.5711 -0.000364521 2.49769 8.61274e-05 1.31489 4.53411e-05
-10.8772 -0.000375075 2.07466 7.15399e-05 1.1319 3.90309e-05
-11.181 -0.000385553 1.86871 6.44382e-05 0.909598 3.13654e-05
-11.4747 -0.000395678 1.60206 5.52433e-05 0.651073 2.24508e-05
-11.7352 -0.000404661 1.32466 4.56778e-05 0.358751 1.23707e-05
-11.9466 -0.000411953 1.05682 3.64419e-05 0.0339642 1.17118e-06
-12.159 -0.000419276 0.733193 2.52825e-05 -0.319874 -1.10301e-05
-12.3542 -0.000426007 0.326439 1.12565e-05 -0.695836 -2.39943e-05
-12.5772 -0.000433698 -0.0716308 -2.47003e-06 -1.02519 -3.53515e-05
-12.8211 -0.000442108 -0.390769 -1.34748e-05 -1.577 -5.43794e-05
-13.0773 -0.000450942 -0.757295 -2.61136e-05 -2.17059 -7.48479e-05
-13.3522 -0.000460421 -1.13319 -3.90754e-05 -2.73393 -9.42734e-05
-13.6287 -0.000469954 -1.52327 -5.25267e-05 -3.24899 -0.000112034
-13.9137 -0.000479782 -1.8836 -6.49519e-05 -3.77602 -0.000130207
-14.1976 -0.000489574 -2.22368 -7.66787e-05 -4.32848 -0.000149258
-14.4747 -0.000499128 -2.54629 -8.78031e-05 -4.86047 -0.000167603
-14.7415 -0.000508328 -2.84581 -9.81313e-05 -5.34155 -0.000184191
-14.9979 -0.000517168 -3.11137 -0.000107289 -5.79101 -0.00019969
-15.2355 -0.000525362 -3.34465 -0.000115333 -6.22962 -0.000214814
-15.4235 -0.000531844 -3.54381 -0.0001222 -6.64481 -0.000229131
-15.5452 -0.000536041 -3.69666 -0.000127471 -7.01632 -0.000241942
-15.6141 -0.000538418 -3.81451 -0.000131535 -7.34555 -0.000253295
-15.6393 -0.000539287 -3.90904 -0.000134795 -7.64914 -0.000263764
-15.6256 -0.000538813 -3.98335 -0.000137357 -7.93162 -0.000273504
-15.583 -0.000537345 -4.03985 -0.000139305 -8.18543 -0.000282256
-15.524 -0.000535311 -4.08822 -0.000140973 -8.40856 -0.00028995
-15.4585 -0.000533053 -4.13739 -0.000142669 -8.60924 -0.00029687
-15.396 -0.000530895 -4.19032 -0.000144494 -8.79404 -0.000303243
-15.3435 -0.000529087 -4.24915 -0.000146523 -8.96144 -0.000309015
-15.3039 -0.000527722 -4.3183 -0.000148907 -9.10808 -0.000314072
-15.2769 -0.00052679 -4.39963 -0.000151711 -9.23476 -0.00031844
-15.2617 -0.000526266 -4.49021 -0.000154835 -9.34351 -0.00032219
-15.2439 -0.000525652 -4.40255 -0.000151812 -9.43217 -0.000325247
-15.191 -0.000523827 -3.98886 -0.000137547 -9.49124 -0.000327284
-15.1186 -0.00052133 -3.25971 -0.000112404 -9.51759 -0.000328193
-15.1005 -0.000520706 -2.60621 -8.98694e-05 -9.51474 -0.000328094
-15.1539 -0.000522547 -2.13839 -7.37377e-05 -9.4675 -0.000326466
-15.1909 -0.000523824 -1.56545 -5.39811e-05 -9.35387 -0.000322547
-15.2289 -0.000525134 -0.836309 -2.88382e-05 -9.16907 -0.000316175
-15.3072 -0.000527836 -0.300354 -1.0357e-05 -8.914 -0.000307379
-15.4005 -0.000531053 -0.0375524 -1.29491e-06 -8.58325 -0.000295974
-15.4507 -0.000532784 0.2734 9.42758e-06 -8.17004 -0.000281726
-15.4246 -0.000531881 0.718862 2.47883e-05 -7.67286 -0.000264581
-15.3883 -0.000530632 1.19378 4.11648e-05 -7.09856 -0.000244778
-15.4647 -0.000533267 1.66906 5.75536e-05 -6.46185 -0.000222822
-15.5253 -0.000535357 2.15611 7.43487e-05 -5.76244 -0.000198705
-15.62 -0.000538621 2.70394 9.32395e-05 -5.00742 -0.00017267
-15.7675 -0.000543706 3.27685 0.000112995 -4.21037 -0.000145185
-15.9275 -0.000549225 3.83972 0.000132404 -3.38794 -0.000116826
-16.1046 -0.00055533 4.40239 0.000151807 -2.54975 -8.79224e-05
-16.2994 -0.000562049 4.97565 0.000171574 -1.70763 -5.88836e-05
-16.4865 -0.000568501 5.5323 0.000190769 -1.0077 -3.47482e-05
-16.6364 -0.000573669 5.99855 0.000206847 -0.814346 -2.80809e-05
-16.7468 -0.000577475 6.42702 0.000221622 -0.59182 -2.04076e-05
-16.7915 -0.000579018 6.81766 0.000235092 -0.368583 -1.27097e-05
-16.7652 -0.000578112 7.22549 0.000249155 -0.204625 -7.05602e-06
-16.6628 -0.00057458 7.60376 0.000262199 -0.0707459 -2.43951e-06
-16.4845 -0.000568431 7.92616 0.000273316 0.0700504 2.41553e-06
-16.2253 -0.000559492 8.20549 0.000282948 0.209919 7.2386e-06
-15.876 -0.000547449 8.46055 0.000291743 0.314392 1.08411e-05
-15.4276 -0.000531986 8.68252 0.000299397 0.379543 1.30877e-05
-14.8735 -0.00051288 8.8582 0.000305455 0.426959 1.47227e-05
-14.2069 -0.000489894 8.98993 0.000309998 0.464839 1.60289e-05
-13.4197 -0.00046275 9.08643 0.000313325 0.473642 1.63325e-05
-12.5027 -0.000431127 9.14236 0.000315254 0.429866 1.4823e-05
-11.4527 -0.000394921 9.1536 0.000315641 0.349 1.20345e-05
-10.274 -0.000354275 9.12336 0.000314599 0.241699 8.33444e-06
-8.97695 -0.00030955 9.061 0.000312448 0.103219 3.55926e-06
-7.57812 -0.000261315 8.97212 0.000309384 -0.0700399 -2.41517e-06
-6.10537 -0.00021053 8.85947 0.000305499 -0.268451 -9.25694e-06
-4.65503 -0.000160518 8.71995 0.000300688 -0.478619 -1.65041e-05
-2.99992 -0.000103446 8.57437 0.000295668 -0.694367 -2.39437e-05
-1.45173 -5.00598e-05 8.50644 0.000293325 -0.886217 -3.05592e-05
-0.345784 -1.19237e-05 8.37866 0.000288919 -1.20623 -4.15942e-05
0.47114 1.62461e-05 8.2179 0.000283376 -1.57547 -5.43266e-05
1.29487 4.46505e-05 8.11081 0.000279683 -1.89817 -6.54541e-05
2.11247 7.28435e-05 8.07284 0.000278374 -2.15124 -7.41808e-05
2.92019 0.000100696 8.04822 0.000277525 -2.3703 -8.17345e-05
3.63997 0.000125516 8.02462 0.000276711 -2.57177 -8.86817e-05
4.25671 0.000146783 8.01195 0.000276274 -2.73024 -9.41461e-05
4.87111 0.000167969 8.04096 0.000277274 -2.82346 -9.73607e-05
5.50245 0.00018974 8.13984 0.000280684 -2.85759 -9.85375e-05
6.07878 0.000209613 8.28994 0.00028586 -2.84052 -9.79491e-05
6.57942 0.000226876 8.46209 0.000291796 -2.74986 -9.48228e-05
7.04866 0.000243057 8.67081 0.000298993 -2.57218 -8.86959e-05
7.50838 0.000258909 8.95323 0.000308732 -2.30778 -7.95787e-05
7.93454 0.000273605 9.30041 0.000320704 -1.96532 -6.77695e-05
8.31843 0.000286842 9.67731 0.0003337 -1.54958 -5.34338e-05
8.68952 0.000299638 10.0788 0.000347545 -1.06762 -3.68145e-05
9.07201 0.000312828 10.5223 0.000362839 -0.677523 -2.33629e-05
9.47966 0.000326885 11.2916 0.000389364 -0.496684 -1.7127e-05
10.0309 0.000345894 12.5073 0.000431286 -0.29419 -1.01445e-05
10.655 0.000367413 13.9638 0.000481511 -0.0524197 -1.80757e-06
11.2521 0.000388003 15.3394 0.000528946 0.174023 6.00079e-06
11.8113 0.000407286 16.6956 0.000575712 0.383428 1.32217e-05
12.4218 0.000428337 18.2004 0.000627599 0.613541 2.11566e-05
13.0867 0.000451265 19.7937 0.000682541 0.865984 2.98615e-05
13.7469 0.00047403 21.3815 0.000737294 1.11299 3.83789e-05
14.3974 0.000496461 23.011 0.000793483 1.34502 4.63799e-05
15.0821 0.000520072 24.7354 0.000852945 1.57449 5.42927e-05
15.8075 0.000545087 26.5086 0.00091409 1.80701 6.23108e-05
16.5469 0.000570582 28.2867 0.000975404 2.03352 7.01213e-05
17.3004 0.000596565 30.0851 0.00103742 2.24606 7.74503e-05
18.0914 0.000623843 31.91 0.00110034 2.44618 8.4351e-05
18.9221 0.000652486 33.7287 0.00116306 2.63765 9.09534e-05
19.7753 0.000681908 35.5186 0.00122478 2.81935 9.7219e-05
20.6478 0.000711994 37.2812 0.00128556 2.98732 0.000103011
21.5486 0.000743055 39.0113 0.00134522 3.14001 0.000108276
22.474 0.000774965 40.6912 0.00140314 3.27886 0.000113064
23.4023 0.000806974 42.3127 0.00145906 3.40503 0.000117415
24.2922 0.000837662 43.8618 0.00151247 3.51798 0.00012131
25.2257 0.000869853 45.3295 0.00156309 3.61647 0.000124706
26.1322 0.00090111 46.7439 0.00161186 3.69916 0.000127557
26.9782 0.000930283 48.0953 0.00165846 3.7689 0.000129962
27.8057 0.000958816 49.3647 0.00170223 3.82561 0.000131918
28.6037 0.000986334 50.5264 0.00174229 3.87031 0.000133459
29.4051 0.00101397 51.5749 0.00177845 3.90306 0.000134588
30.1594 0.00103998 52.5287 0.00181134 3.92393 0.000135308
30.8623 0.00106422 53.3751 0.00184052 3.93521 0.000135697
31.5518 0.00108799 54.103 0.00186562 3.93205 0.000135588
32.2406 0.00111175 54.7168 0.00188679 3.91525 0.000135008
32.8541 0.0011329 55.2354 0.00190467 3.88524 0.000133974
33.4168 0.0011523 55.6445 0.00191878 3.8443 0.000132562
33.9572 0.00117094 55.9473 0.00192922 3.79215 0.000130764
34.4505 0.00118795 56.1578 0.00193648 3.7306 0.000128641
34.8574 0.00120198 56.2905 0.00194105 3.66089 0.000126237
34.8329 0.00120114 56.2499 0.00193965 3.58596 0.000123654
34.884 0.0012029 56.1164 0.00193505 3.50824 0.000120974
34.9168 0.00120403 55.9487 0.00192926 3.42682 0.000118166
34.9039 0.00120358 55.8039 0.00192427 3.33357 0.000114951
34.8897 0.00120309 55.6138 0.00191772 3.23805 0.000111657
34.9137 0.00120392 55.3804 0.00190967 3.14288 0.000108375
34.9371 0.00120473 55.1346 0.00190119 3.04861 0.000105125
34.8204 0.0012007 54.8751 0.00189224 2.95338 0.000101841
34.68 0.00119586 54.5351 0.00188052 2.86243 9.87044e-05
34.5022 0.00118973 54.1384 0.00186684 2.77698 9.57579e-05
34.2053 0.00117949 53.6894 0.00185136 2.6999 9.31001e-05
33.8538 0.00116737 53.1781 0.00183373 2.62886 9.06504e-05
33.4666 0.00115402 52.6069 0.00181403 2.5643 8.8424e-05
33.0513 0.0011397 52.0119 0.00179351 2.50603 8.64149e-05
32.5738 0.00112324 51.4407 0.00177382 2.45189 8.45481e-05
31.9817 0.00110282 50.8855 0.00175467 2.40254 8.28463e-05
31.336 0.00108055 50.3056 0.00173468 2.35934 8.13565e-05
30.6524 0.00105698 49.6988 0.00171375 2.32188 8.00648e-05
29.8454 0.00102915 49.0882 0.0016927 2.28972 7.89558e-05
28.8977 0.000996473 48.4664 0.00167126 2.26324 7.80429e-05
27.8635 0.00096081 47.8068 0.00164851 2.24295 7.7343e-05
26.7477 0.000922336 47.0965 0.00162402 2.22867 7.68505e-05
25.5199 0.000879998 46.3274 0.0015975 2.21994 7.65496e-05
24.2005 0.000834499 45.4791 0.00156824 2.21681 7.64417e-05
22.7943 0.00078601 44.5321 0.00153559 2.21898 7.65164e-05
21.3134 0.000734945 43.4691 0.00149893 2.22573 7.67492e-05
19.7502 0.00068104 42.284 0.00145807 2.23475 7.70604e-05
18.0987 0.000624094 40.9692 0.00141273 2.24442 7.73937e-05
16.3689 0.000564446 39.5183 0.0013627 2.25257 7.7675e-05
14.5693 0.000502389 37.9277 0.00130785 2.25653 7.78112e-05
12.701 0.000437965 36.1977 0.0012482 2.25292 7.76868e-05
10.7691 0.000371349 34.3295 0.00118377 2.23844 7.71878e-05
8.784 0.000302896 32.3266 0.00111471 2.20983 7.62011e-05
6.91547 0.000238464 30.1233 0.00103874 2.1637 7.46104e-05
5.20204 0.00017938 27.76 0.000957242 2.09565 7.2264e-05
3.50349 0.00012081 25.2198 0.000869648 2.01249 6.93963e-05
1.80255 6.21569e-05 22.6479 0.000780961 1.89014 6.51771e-05
0.143955 4.96383e-06 19.9933 0.000689423 1.736 5.98621e-05
-1.57698 -5.43787e-05 17.322 0.000597312 1.54703 5.33457e-05
-3.36949 -0.000116189 14.544 0.000501518 1.3204 4.55309e-05
-5.03425 -0.000173595 10.896 0.000375723 1.06152 3.66042e-05
-6.55737 -0.000226116 7.11039 0.000245186 0.770256 2.65606e-05
-7.94451 -0.000273949 3.53607 0.000121934 0.447235 1.54219e-05
-9.09872 -0.000313749 1.93792 6.68249e-05 0.103992 3.58593e-06
-10.0557 -0.00034675 1.67153 5.76389e-05 -0.262146 -9.03952e-06
-11.3864 -0.000392633 1.451 5.00346e-05 -0.665605 -2.29519e-05
-12.6676 -0.000436813 0.687795 2.37171e-05 -1.03096 -3.55504e-05
-13.2176 -0.000455779 0.685646 2.3643e-05 -1.41063 -4.86426e-05
-14.8183 -0.000510977 0.51434 1.77359e-05 -1.97028 -6.79408e-05
-16.1815 -0.000557984 0.0395255 1.363e-06 -2.59545 -8.94984e-05
-17.085 -0.000589138 -0.512419 -1.76696e-05 -3.16432 -0.000109115
-18.3875 -0.000634052 -0.824879 -2.84441e-05 -3.71627 -0.000128147
-19.6789 -0.000678582 -1.17849 -4.06374e-05 -4.33438 -0.000149461
-20.7883 -0.00071684 -1.68527 -5.81128e-05 -4.99914 -0.000172384
-22.0434 -0.000760118 -2.17246 -7.49123e-05 -5.63043 -0.000194153
-23.341 -0.000804862 -2.56393 -8.84115e-05 -6.22743 -0.000214739
-24.5831 -0.000847693 -2.95847 -0.000102016 -6.83368 -0.000235644
-12.1366 -0.000418503 -0.88323 -3.04562e-05 -7.5334 -0.000259772
0.0811809 2.7991e-06 -7.48534 -0.000258115 -8.61773 -0.000297163
-10.7335 -0.000370122 -7.35085 -0.000253478 -8.95302 -0.000308725
-8.71812 -0.000300625 -5.74183 -0.000197994 -42.1626 -0.00145388
-2.44787 -8.44097e-05 -5.90784 -0.000203719 -41.5785 -0.00143374
-5.62197 -0.000193861 -8.19291 -0.000282514 -37.3552 -0.00128811
-6.1596 -0.0002124 -8.98338 -0.000309772 -41.1399 -0.00141862
-2.51155 -8.66053e-05 -8.6992 -0.000299972 -44.0906 -0.00152037
-2.64433 -9.11841e-05 -9.25141 -0.000319014 -44.3693 -0.00152998
-3.529 -0.00012169 -10.1413 -0.000349702 -41.9868 -0.00144782
-3.00156 -0.000103502 -10.658 -0.000367518 -42.233 -0.00145631
-2.99762 -0.000103366 -10.6949 -0.000368789 -43.4197 -0.00149723
-3.67189 -0.000126617 -10.916 -0.000376414 -43.6653 -0.0015057
-3.88727 -0.000134044 -11.3271 -0.00039059 -42.8458 -0.00147744
-4.04413 -0.000139453 -11.5346 -0.000397744 -42.009 -0.00144859
-4.57357 -0.00015771 -10.9781 -0.000378554 -42.5996 -0.00146895
5.23927 0.000180664 -10.4181 -0.000359244 -44.0681 -0.00151959
-5.82609 -0.0002009 -6.5323 -0.000225252 -48.0546 -0.00165706
-4.98492 -0.000171894 -13.114 -0.000452208 -39.0399 -0.0013462
-5.5786 -0.000192366 -3.69474 -0.000127405 -43.6484 -0.00150512
-7.13818 -0.000246144 -1.88859 -6.51237e-05 -42.133 -0.00145286
-6.15131 -0.000212114 -4.61008 -0.000158968 -41.3003 -0.00142415
-7.17836 -0.00024753 -4.51355 -0.00015564 -40.505 -0.00139673
-8.45749 -0.000291638 -1.05786 -3.64778e-05 -40.3746 -0.00139223
-8.80223 -0.000303525 1.47622 5.09042e-05 -41.1131 -0.00141769
-9.58793 -0.000330618 1.90014 6.55221e-05 -42.657 -0.00147093
-10.5702 -0.000364489 2.7827 9.59553e-05 -43.812 -0.00151076
-11.1571 -0.000384729 4.45417 0.000153592 -45.5133 -0.00156943
-11.77 -0.000405861 5.6681 0.000195452 -48.7385 -0.00168064
-12.5398 -0.000432409 5.97188 0.000205927 -53.173 -0.00183355
-12.8652 -0.000443626 6.20392 0.000213928 -56.7243 -0.00195601
-13.1487 -0.000453404 6.73583 0.00023227 -57.0967 -0.00196885
-13.5301 -0.000466554 7.30139 0.000251772 -57.1522 -0.00197077
-13.7227 -0.000473195 7.76658 0.000267813 -56.7438 -0.00195668
-12.4696 -0.000429986 14.3752 0.000495697 -46.4548 -0.00160189
-15.2365 -0.000525398 7.41475 0.000255681 -44.2978 -0.00152751
-15.5818 -0.000537304 5.53903 0.000191001 -45.7214 -0.0015766
-13.2202 -0.00045587 9.34034 0.000322081 -37.2084 -0.00128305
-15.4827 -0.000533886 11.1128 0.0003832 -31.0659 -0.00107124
-15.1238 -0.000521511 7.12627 0.000245734 -32.1841 -0.0011098
-14.4798 -0.000499305 5.80464 0.00020016 -34.1652 -0.00117811
-14.8899 -0.000513446 8.00443 0.000276015 -29.9912 -0.00103418
-14.8393 -0.000511699 8.34989 0.000287927 -26.0314 -0.000897637
-14.6074 -0.000503705 6.46998 0.000223103 -24.5105 -0.000845192
-14.6299 -0.000504479 5.58608 0.000192624 -26.4899 -0.000913446
-14.5446 -0.000501537 6.1067 0.000210576 -13.6486 -0.000470643
-14.5303 -0.000501045 6.22465 0.000214643 -26.5531 -0.000915626
-13.6971 -0.000472314 4.15519 0.000143282 -28.1012 -0.000969008
-14.6065 -0.000503672 3.97036 0.000136909 -21.1358 -0.000728823
-14.1786 -0.000488919 4.37556 0.000150881 -14.3702 -0.000495526
-13.65 -0.00047069 3.62547 0.000125016 -14.3476 -0.000494745
-14.0172 -0.000483351 2.56325 8.83879e-05 -16.4473 -0.000567148
-13.8919 -0.000479031 2.17558 7.50202e-05 -16.3239 -0.000562895
-13.5807 -0.000468299 1.91157 6.59161e-05 -13.7997 -0.000475852
-13.6283 -0.000469941 1.40388 4.84096e-05 -12.0615 -0.000415915
-13.6966 -0.000472296 0.864088 2.97962e-05 -12.5467 -0.000432646
-13.5394 -0.000466877 0.372826 1.28561e-05 -13.0375 -0.000449571
-13.5357 -0.00046675 -0.0236976 -8.17111e-07 -11.9741 -0.000412901
-13.6866 -0.000471951 -0.30011 -1.03486e-05 -10.4512 -0.000360388
-13.6994 -0.000472392 -0.59347 -2.04644e-05 -9.91878 -0.000342028
-13.7545 -0.000474292 -0.965951 -3.33086e-05 -10.0269 -0.000345757
-13.9224 -0.000480084 -1.22177 -4.21301e-05 -9.73985 -0.000335858
-14.0729 -0.000485272 -1.32539 -4.5703e-05 -8.9243 -0.000307735
-14.2068 -0.000489889 -1.47091 -5.07209e-05 -8.18605 -0.000282279
-14.1385 -0.000487533 -1.62178 -5.59232e-05 -7.92605 -0.000273313
-14.9246 -0.000514642 -1.69372 -5.84043e-05 -7.82856 -0.000269951
-14.9764 -0.000516428 -1.7061 -5.88309e-05 -7.44947 -0.000256879
