0.669004 2.30691e-05 0.566271 1.95266e-05 0.00418529 1.4432e-07
0.664455 2.29122e-05 0.567163 1.95573e-05 0.00412254 1.42157e-07
0.653946 2.25499e-05 0.569337 1.96323e-05 0.00399523 1.37766e-07
0.632402 2.1807e-05 0.573432 1.97735e-05 0.00381135 1.31426e-07
0.608044 2.0967e-05 0.577483 1.99132e-05 0.00367992 1.26894e-07
0.576822 1.98904e-05 0.581781 2.00614e-05 0.00362979 1.25165e-07
0.538272 1.85611e-05 0.585951 2.02052e-05 0.00373325 1.28733e-07
0.491902 1.69621e-05 0.589536 2.03288e-05 0.00406678 1.40234e-07
0.437157 1.50744e-05 0.591956 2.04123e-05 0.00469878 1.62027e-07
0.373442 1.28773e-05 0.592548 2.04327e-05 0.00569777 1.96475e-07
0.300247 1.03533e-05 0.590599 2.03655e-05 0.00713859 2.46158e-07
0.217326 7.494e-06 0.585339 2.01841e-05 0.00909502 3.13621e-07
0.125232 4.31835e-06 0.575875 1.98577e-05 0.0116268 4.00926e-07
0.0259526 8.94916e-07 0.561423 1.93594e-05 0.0147489 5.08582e-07
-0.106617 -3.67644e-06 0.540409 1.86348e-05 0.0185207 6.38645e-07
-0.244367 -8.42645e-06 0.511628 1.76423e-05 0.0229348 7.90857e-07
-0.383115 -1.32109e-05 0.473832 1.6339e-05 0.0279582 9.64076e-07
-0.518298 -1.78723e-05 0.425984 1.46891e-05 0.0334913 1.15487e-06
-0.645514 -2.22591e-05 0.367371 1.2668e-05 0.0393589 1.3572e-06
-0.760464 -2.62229e-05 0.2977 1.02655e-05 0.0453305 1.56312e-06
-0.858838 -2.96151e-05 0.217126 7.48709e-06 0.0510073 1.75887e-06
-0.935995 -3.22757e-05 0.126223 4.35251e-06 0.0559859 1.93055e-06
-0.986603 -3.40208e-05 0.0259185 8.93743e-07 0.0598136 2.06254e-06
-1.00425 -3.46292e-05 -0.0914102 -3.15208e-06 0.0619581 2.13648e-06
-0.981473 -3.38439e-05 -0.243574 -8.39912e-06 0.0618208 2.13175e-06
-0.910505 -3.13967e-05 -0.400888 -1.38237e-05 0.0587713 2.0266e-06
-0.785451 -2.70845e-05 -0.559556 -1.9295e-05 0.0522541 1.80187e-06
-0.604739 -2.08531e-05 -0.714957 -2.46537e-05 0.0413414 1.42556e-06
-0.373452 -1.28776e-05 -0.859414 -2.9635e-05 0.0252112 8.69351e-07
-0.10235 -3.5293e-06 -0.98387 -3.39266e-05 0.00315247 1.08706e-07
0.165454 5.70532e-06 -1.07858 -3.71923e-05 -0.0388197 -1.33861e-06
0.417913 1.44108e-05 -1.13414 -3.91083e-05 -0.106066 -3.65743e-06
0.672063 2.31746e-05 -1.1441 -3.94518e-05 -0.186858 -6.44337e-06
0.920228 3.1732e-05 -1.10355 -3.80536e-05 -0.280806 -9.68295e-06
1.15659 3.98823e-05 -1.00985 -3.48225e-05 -0.386834 -1.33391e-05
1.38017 4.75921e-05 -0.862581 -2.97442e-05 -0.503036 -1.73461e-05
1.58791 5.47554e-05 -0.663504 -2.28794e-05 -0.627004 -2.16208e-05
1.78203 6.14494e-05 -0.417498 -1.43965e-05 -0.755575 -2.60543e-05
1.96417 6.773e-05 -0.130157 -4.48817e-06 -0.885253 -3.0526e-05
2.13579 7.36479e-05 0.12762 4.4007e-06 -1.01168 -3.48854e-05
2.29743 7.92217e-05 0.39262 1.35386e-05 -1.13108 -3.90027e-05
2.45002 8.44835e-05 0.670236 2.31116e-05 -1.23902 -4.27247e-05
2.59279 8.94064e-05 0.953622 3.28835e-05 -1.33137 -4.59093e-05
2.72246 9.38779e-05 1.23659 4.26411e-05 -1.40414 -4.84185e-05
2.83495 9.7757e-05 1.51329 5.21825e-05 -1.45362 -5.0125e-05
2.92762 0.000100952 1.77819 6.13169e-05 -1.47645 -5.09122e-05
3.00126 0.000103492 2.02487 6.98232e-05 -1.46927 -5.06645e-05
3.0608 0.000105545 2.24557 7.74336e-05 -1.43035 -4.93225e-05
3.11603 0.000107449 2.43434 8.39429e-05 -1.35762 -4.68144e-05
3.18026 0.000109664 2.5854 8.91517e-05 -1.24997 -4.31023e-05
3.29875 0.00011375 2.71265 9.35396e-05 -1.06632 -3.67697e-05
3.49391 0.00012048 2.76457 9.53302e-05 -0.830256 -2.86295e-05
3.79918 0.000131006 2.74109 9.45205e-05 -0.546596 -1.88481e-05
4.23755 0.000146123 2.65068 9.14027e-05 -0.223245 -7.6981e-06
4.81741 0.000166118 2.51093 8.65838e-05 0.0475282 1.6389e-06
5.53022 0.000190697 2.3474 8.09447e-05 0.245051 8.45004e-06
6.34913 0.000218936 2.19435 7.56674e-05 0.441579 1.52269e-05
7.23185 0.000249374 2.09062 7.20903e-05 0.630815 2.17522e-05
8.13026 0.000280354 2.0743 7.15276e-05 0.804631 2.77459e-05
9.00348 0.000310465 2.17762 7.50905e-05 0.956361 3.2978e-05
9.82582 0.000338821 2.42321 8.35591e-05 1.08096 3.72745e-05
10.5864 0.000365048 2.82229 9.73204e-05 1.1768 4.05795e-05
11.285 0.000389137 3.37478 0.000116372 1.24427 4.29058e-05
11.928 0.000411309 4.07079 0.000140372 1.28569 4.43342e-05
12.5239 0.000431857 4.89219 0.000168696 1.30525 4.50087e-05
13.0775 0.00045095 5.81476 0.000200509 1.3092 4.51447e-05
13.5904 0.000468633 6.80956 0.000234812 1.30512 4.5004e-05
14.0657 0.000485025 7.84345 0.000270464 1.30136 4.48745e-05
14.5141 0.000500485 8.87962 0.000306194 1.30654 4.50532e-05
14.952 0.000515586 9.87972 0.00034068 1.32925 4.58362e-05
15.3967 0.00053092 10.8075 0.000372673 1.3774 4.74964e-05
15.8579 0.000546823 11.6328 0.000401132 1.45742 5.02558e-05
16.3334 0.000563221 12.334 0.000425311 1.5737 5.42655e-05
16.814 0.000579795 12.8979 0.000444756 1.72851 5.96036e-05
17.2901 0.00059621 13.3185 0.00045926 1.92199 6.62754e-05
17.7532 0.00061218 13.5967 0.000468853 2.15214 7.42118e-05
18.197 0.000627482 13.74 0.000473792 2.41485 8.32706e-05
18.6172 0.000641972 13.7616 0.000474537 2.70405 9.32432e-05
19.0122 0.000655593 13.6798 0.000471716 3.01214 0.000103867
19.3823 0.000668355 13.5166 0.00046609 3.33027 0.000114837
19.7282 0.000680282 13.2973 0.000458527 3.64873 0.000125818
20.0508 0.000691408 13.0486 0.000449951 3.95739 0.000136462
20.3533 0.000701837 12.7972 0.000441282 4.24623 0.000146422
20.6426 0.000711813 12.5676 0.000433367 4.50583 0.000155374
20.9295 0.000721707 12.3814 0.000426946 4.72781 0.000163028
21.225 0.000731895 12.2567 0.000422646 4.90508 0.000169141
21.5329 0.000742512 12.2091 0.000421002 5.03208 0.00017352
21.8439 0.000753237 12.2521 0.000422488 5.10495 0.000176033
22.1359 0.000763306 12.3967 0.000427472 5.12178 0.000176613
22.3805 0.000771743 12.6482 0.000436144 5.08289 0.000175272
22.5233 0.000776665 12.9251 0.000445693 5.01339 0.000172876
22.6158 0.000779854 13.3575 0.000460602 4.88261 0.000168366
22.5981 0.000779245 13.8679 0.000478202 4.70962 0.000162401
22.4628 0.00077458 14.4292 0.000497559 4.50334 0.000155288
22.2067 0.00076575 15.0081 0.00051752 4.27414 0.000147384
21.8273 0.000752665 15.5673 0.000536805 4.03326 0.000139078
21.3228 0.000735267 16.068 0.00055407 3.79221 0.000130766
20.6921 0.000713522 16.4713 0.000567976 3.56216 0.000122833
19.9339 0.000687375 16.7406 0.000577263 3.35326 0.00011563
19.0471 0.000656797 16.8435 0.000580811 3.17419 0.000109455
18.0322 0.0006218 16.7529 0.000577688 3.03162 0.000104539
16.89 0.000582415 16.4487 0.000567198 2.92981 0.000101028
15.624 0.000538757 15.9183 0.000548906 2.87041 9.89797e-05
14.2448 0.0004912 15.156 0.00052262 2.85235 9.8357e-05
12.7758 0.000440544 14.1625 0.000488363 2.8719 9.90309e-05
11.2497 0.000387921 12.9457 0.000446403 2.92263 0.00010078
9.69843 0.000334429 11.5228 0.000397338 2.99552 0.000103294
8.14812 0.00028097 9.92142 0.000342118 3.07914 0.000106177
6.62152 0.000228328 8.17773 0.000281991 3.16023 0.000108974
5.13905 0.000177209 6.33432 0.000218425 3.22426 0.000111181
3.71829 0.000128217 4.43856 0.000153054 3.25615 0.000112281
2.3718 8.17863e-05 2.541 8.76206e-05 3.24102 0.000111759
1.10714 3.81774e-05 0.695307 2.39761e-05 3.16475 0.000109129
-0.199239 -6.87032e-06 -1.26276 -4.35434e-05 3.01652 0.000104018
-1.61796 -5.57916e-05 -3.35541 -0.000115704 2.78519 9.60411e-05
-2.98178 -0.00010282 -5.20223 -0.000179387 2.46482 8.49936e-05
-4.30272 -0.00014837 -6.76409 -0.000233244 2.05254 7.07772e-05
-5.56367 -0.000191851 -8.03791 -0.000277169 1.54932 5.34249e-05
-6.74532 -0.000232597 -9.02552 -0.000311225 0.960419 3.31179e-05
-7.83658 -0.000270227 -9.73768 -0.000335782 0.296467 1.0223e-05
-8.84145 -0.000304877 -10.195 -0.000351553 -0.808861 -2.78918e-05
-9.7811 -0.000337279 -10.4351 -0.000359831 -2.25651 -7.78106e-05
-10.6862 -0.00036849 -10.4936 -0.000361849 -3.75924 -0.000129629
-11.585 -0.000399481 -10.4162 -0.000359178 -5.27736 -0.000181978
-12.5062 -0.00043125 -10.2571 -0.000353693 -6.77373 -0.000233577
-13.482 -0.000464895 -10.072 -0.00034731 -8.21358 -0.000283227
-14.5446 -0.000501537 -9.91539 -0.00034191 -9.55595 -0.000329515
-15.7241 -0.00054221 -9.8405 -0.000339328 -10.7649 -0.000371205
-17.042 -0.000587656 -9.89922 -0.000341352 -11.8089 -0.000407202
-18.5034 -0.000638048 -10.1399 -0.000349651 -12.6628 -0.000436648
-20.0909 -0.00069279 -10.6056 -0.000365709 -13.3059 -0.000458824
-21.7664 -0.000750564 -11.3327 -0.000390783 -13.7239 -0.000473238
-23.4809 -0.000809687 -12.3456 -0.000425711 -13.9113 -0.000479699
-25.1873 -0.000868529 -13.6508 -0.000470717 -13.8726 -0.000478365
-26.8459 -0.000925722 -15.2346 -0.00052533 -13.621 -0.000469688
-28.4288 -0.000980305 -17.063 -0.000588378 -13.1781 -0.000454418
-29.9198 -0.00103172 -19.0833 -0.000658044 -12.5736 -0.000433574
-31.3126 -0.00107974 -21.2268 -0.000731959 -11.844 -0.000408415
-32.6096 -0.00112447 -23.413 -0.000807344 -11.0306 -0.000380366
-33.818 -0.00116614 -25.5551 -0.000881209 -10.177 -0.000350933
-34.9433 -0.00120494 -27.5665 -0.000950567 -9.32705 -0.000321622
-35.9864 -0.00124091 -29.3662 -0.00101263 -8.52261 -0.000293883
-36.945 -0.00127397 -30.883 -0.00106493 -7.80188 -0.00026903
-37.8159 -0.001304 -32.0583 -0.00110546 -7.19727 -0.000248182
-38.5963 -0.00133091 -32.8355 -0.00113226 -6.73598 -0.000232275
-39.1709 -0.00135072 -33.0679 -0.00114027 -6.45264 -0.000222505
-39.5186 -0.00136271 -32.9399 -0.00113586 -6.32073 -0.000217956
-39.9901 -0.00137897 -32.4856 -0.00112019 -6.3423 -0.0002187
-40.3208 -0.00139037 -31.6923 -0.00109284 -6.5172 -0.000224731
-40.2318 -0.0013873 -30.6312 -0.00105625 -6.82493 -0.000235342
-39.3481 -0.00135683 -29.5629 -0.00101941 -7.21068 -0.000248644
-38.4418 -0.00132558 -28.2314 -0.000973495 -7.70222 -0.000265594
-37.3473 -0.00128784 -26.7364 -0.000921946 -8.25268 -0.000284575
-36.2099 -0.00124862 -25.1261 -0.000866417 -8.84294 -0.000304929
-35.0547 -0.00120878 -23.4772 -0.000809558 -9.43414 -0.000325315
-33.8871 -0.00116852 -21.8326 -0.000752848 -9.99443 -0.000344635
-32.7849 -0.00113051 -20.2426 -0.00069802 -10.4961 -0.000361933
-31.7848 -0.00109603 -18.768 -0.000647174 -10.9116 -0.000376264
-30.9094 -0.00106584 -17.4614 -0.000602119 -11.2139 -0.000386688
-30.2014 -0.00104143 -16.3606 -0.000564157 -11.3801 -0.000392416
-29.6864 -0.00102367 -15.497 -0.000534381 -11.396 -0.000392965
-29.3769 -0.001013 -14.8989 -0.000513754 -11.2542 -0.000388077
-29.2865 -0.00100988 -14.5828 -0.000502855 -10.9509 -0.000377618
-29.417 -0.00101438 -14.5519 -0.000501791 -10.4883 -0.000361666
-29.7603 -0.00102622 -14.8005 -0.000510362 -9.87713 -0.000340591
-30.2775 -0.00104405 -15.3193 -0.00052825 -9.13501 -0.000315
-30.7502 -0.00106035 -16.1301 -0.000556211 -8.27965 -0.000285505
-31.1554 -0.00107433 -17.1925 -0.000592843 -7.34022 -0.000253111
-31.4684 -0.00108512 -18.4509 -0.000636238 -6.35075 -0.000218991
-31.6807 -0.00109244 -19.8319 -0.000683857 -5.35073 -0.000184508
-31.7782 -0.0010958 -20.9736 -0.000723228 -4.57071 -0.000157611
-31.8135 -0.00109702 -22.1035 -0.00076219 -3.83105 -0.000132105
-31.7878 -0.00109613 -23.1794 -0.00079929 -3.15159 -0.000108675
-31.7026 -0.00109319 -24.1607 -0.000833126 -2.55118 -8.79717e-05
-31.5587 -0.00108823 -25.0107 -0.000862439 -2.04704 -7.05877e-05
-31.3562 -0.00108125 -25.6981 -0.000886143 -1.65386 -5.70296e-05
-31.0932 -0.00107218 -26.1971 -0.00090335 -1.383 -4.76896e-05
-30.7644 -0.00106084 -26.4887 -0.000913402 -1.24224 -4.28359e-05
-30.3597 -0.00104689 -26.5615 -0.000915913 -1.23581 -4.26141e-05
-29.8648 -0.00102982 -26.4127 -0.000910783 -1.36438 -4.70477e-05
-29.2624 -0.00100905 -26.0472 -0.000898181 -1.62497 -5.60333e-05
-28.5361 -0.000984003 -25.4759 -0.000878478 -2.01092 -6.93421e-05
-27.6752 -0.000954318 -24.7136 -0.000852195 -2.51234 -8.66323e-05
-26.6777 -0.00091992 -23.7785 -0.000819949 -3.11654 -0.000107467
-25.5512 -0.000881075 -22.6905 -0.00078243 -3.80857 -0.00013133
-24.3117 -0.000838336 -21.4712 -0.000740388 -4.57144 -0.000157636
-22.9792 -0.000792386 -20.1445 -0.000694639 -5.38638 -0.000185737
-21.5724 -0.000743877 -18.7366 -0.000646091 -6.23312 -0.000214935
-20.1077 -0.00069337 -17.2761 -0.000595727 -7.09041 -0.000244497
-18.5991 -0.000641348 -15.7927 -0.000544577 -7.93665 -0.000273678
-17.0602 -0.000588281 -14.3161 -0.00049366 -8.75043 -0.000301739
-15.5049 -0.000534653 -12.8744 -0.000443945 -9.51103 -0.000327967
-13.9472 -0.000480937 -11.4935 -0.000396327 -10.1989 -0.000351688
-12.399 -0.000427553 -10.1968 -0.000351613 -10.7963 -0.000372286
-10.8708 -0.000374856 -9.00457 -0.000310502 -11.2873 -0.000389216
-9.37119 -0.000323145 -7.93323 -0.00027356 -11.6585 -0.000402018
-7.90792 -0.000272687 -6.99448 -0.000241189 -11.8994 -0.000410326
-6.48816 -0.00022373 -6.19498 -0.00021362 -12.0024 -0.000413877
-5.11832 -0.000176494 -5.53626 -0.000190905 -11.963 -0.000412518
-3.80404 -0.000131174 -5.01472 -0.000172921 -11.7798 -0.000406202
-2.55005 -8.79329e-05 -4.62189 -0.000159376 -11.4547 -0.000394991
-1.35993 -4.68944e-05 -4.34475 -0.000149819 -10.9924 -0.00037905
-0.244054 -8.41584e-06 -4.1662 -0.000143662 -10.4006 -0.000358641
0.603928 2.08249e-05 -4.06552 -0.000140191 -9.68928 -0.000334113
1.23918 4.27302e-05 -3.99361 -0.000137711 -8.87154 -0.000305915
1.52694 5.2653e-05 -3.83734 -0.000132322 -7.9758 -0.000275028
1.84819 6.37305e-05 -3.74263 -0.000129056 -6.98926 -0.000241009
2.13789 7.37201e-05 -3.63421 -0.000125318 -5.94038 -0.000204841
2.38486 8.22363e-05 -3.53285 -0.000121822 -4.83856 -0.000166847
2.61771 9.02658e-05 -3.39873 -0.000117198 -3.70134 -0.000127632
2.8615 9.86722e-05 -3.21483 -0.000110856 -2.54503 -8.77598e-05
3.12137 0.000107633 -2.97294 -0.000102515 -1.38583 -4.77871e-05
3.4083 0.000117527 -2.66551 -9.19142e-05 -0.239417 -8.25575e-06
3.74219 0.000129041 -2.2791 -7.85896e-05 0.421851 1.45466e-05
4.13573 0.000142611 -1.80335 -6.21845e-05 0.999088 3.44513e-05
4.59334 0.000158391 -1.22491 -4.22381e-05 1.54671 5.33347e-05
5.12133 0.000176597 -0.530519 -1.82938e-05 2.06086 7.10642e-05
5.72302 0.000197345 0.118349 4.08101e-06 2.53651 8.74657e-05
6.3983 0.000220631 0.802743 2.76808e-05 2.96885 0.000102374
7.14486 0.000246374 1.57298 5.42408e-05 3.35336 0.000115633
7.96125 0.000274526 2.43052 8.38112e-05 3.68814 0.000127177
8.84487 0.000304995 3.37134 0.000116253 3.9728 0.000136993
9.79199 0.000337655 4.38605 0.000151243 4.20782 0.000145097
10.7979 0.000372341 5.46457 0.000188433 4.39438 0.00015153
11.8557 0.000408818 6.59775 0.000227509 4.53447 0.000156361
12.9557 0.000446749 7.77554 0.000268122 4.63103 0.000159691
14.0856 0.00048571 8.98535 0.000309839 4.68789 0.000161651
15.2314 0.000525219 10.2128 0.000352166 4.70972 0.000162404
16.378 0.000564758 11.4435 0.000394602 4.70182 0.000162132
17.5097 0.000603783 12.6632 0.000436661 4.66977 0.000161027
18.6105 0.00064174 13.8573 0.00047784 4.61927 0.000159285
19.6645 0.000678087 15.0107 0.000517611 4.55611 0.000157107
20.6572 0.000712316 16.1077 0.000555439 4.48628 0.000154699
21.5752 0.000743971 17.1334 0.000590805 4.41573 0.000152267
22.4071 0.000772659 18.0735 0.000623225 4.35008 0.000150003
23.1439 0.000798066 18.9148 0.000652236 4.29433 0.00014808
23.7791 0.000819969 19.6448 0.000677406 4.25286 0.00014665
24.3092 0.000838249 20.2521 0.000698348 4.22941 0.000145842
24.7336 0.000852882 20.7275 0.000714742 4.22702 0.000145759
25.0541 0.000863935 21.064 0.000726344 4.24781 0.000146476
25.2745 0.000871535 21.2569 0.000732995 4.29281 0.000148028
25.3999 0.000875858 21.3044 0.000734636 4.36197 0.000150413
25.4369 0.000877134 21.2079 0.000731306 4.45418 0.000153592
25.3947 0.000875679 20.9704 0.000723117 4.56745 0.000157498
25.2821 0.000871798 20.5989 0.000710307 4.69871 0.000162025
25.1122 0.000865938 20.1034 0.00069322 4.84391 0.000167031
24.8985 0.00085857 19.4965 0.000672293 4.99815 0.00017235
24.6532 0.000850111 18.7936 0.000648055 5.15583 0.000177787
24.3877 0.000840956 18.0125 0.00062112 5.31083 0.000183132
24.113 0.000831483 17.1732 0.000592178 5.45662 0.000188159
23.8389 0.000822032 16.2969 0.000561963 5.58647 0.000192637
23.5746 0.000812918 15.4057 0.000531231 5.69374 0.000196336
23.3293 0.00080446 14.5214 0.000500739 5.77204 0.000199036
23.1124 0.00079698 13.6653 0.000471219 5.81547 0.000200533
22.9325 0.000790774 12.8576 0.000443366 5.81877 0.000200647
22.7969 0.0007861 12.1167 0.000417818 5.77758 0.000199227
22.7119 0.00078317 11.4592 0.000395143 5.68849 0.000196155
22.6825 0.000782156 10.8989 0.000375823 5.54926 0.000191354
22.7126 0.000783193 10.4469 0.000360239 5.3589 0.00018479
22.8057 0.000786403 10.1111 0.000348657 5.11774 0.000176474
22.965 0.000791898 9.89546 0.000341223 4.82745 0.000166464
23.1819 0.000799375 9.80211 0.000338004 4.49105 0.000154864
23.3904 0.000806566 9.84501 0.000339483 4.11216 0.000141799
23.6945 0.00081705 9.99372 0.000344611 3.69669 0.000127472
24.076 0.000830207 10.2456 0.000353297 3.25201 0.000112138
24.5127 0.000845265 10.5923 0.000365251 2.78492 9.60316e-05
25.0043 0.000862217 11.0165 0.000379879 2.3053 7.94932e-05
25.5366 0.000880572 11.5126 0.000396987 1.82104 6.27946e-05
26.0869 0.000899546 12.0628 0.000415959 1.34086 4.62365e-05
26.6027 0.000917335 12.6556 0.000436402 0.873737 3.01289e-05
27.0657 0.000933299 13.2788 0.000457889 0.428824 1.4787e-05
27.4705 0.00094726 13.9183 0.000479942 0.0160175 5.52328e-07
27.7923 0.000958354 14.5567 0.000501955 -0.59803 -2.06217e-05
28.0029 0.000965619 15.1776 0.000523366 -1.1965 -4.12585e-05
28.0881 0.000968556 15.7623 0.000543527 -1.69173 -5.83355e-05
28.0372 0.000966801 16.2955 0.000561915 -2.06886 -7.134e-05
27.8407 0.000960023 16.7586 0.000577883 -2.31545 -7.98432e-05
27.4941 0.000948072 17.133 0.000590795 -2.42259 -8.35376e-05
27.0044 0.000931185 17.4023 0.000600078 -2.38531 -8.22521e-05
26.3818 0.000909718 17.5522 0.000605248 -2.20106 -7.58987e-05
25.635 0.000883966 17.5716 0.000605918 -1.86929 -6.44581e-05
24.7747 0.000854301 17.4526 0.000601814 -1.3922 -4.80069e-05
23.8158 0.000821235 17.1907 0.000592783 -0.775717 -2.67489e-05
22.7746 0.000785331 16.7864 0.00057884 -0.146238 -5.0427e-06
21.6694 0.000747221 16.2407 0.000560024 0.316666 1.09195e-05
20.5204 0.0007076 15.5622 0.000536626 0.832492 2.87066e-05
19.3487 0.000667197 14.7621 0.000509037 1.39249 4.80169e-05
18.1725 0.000626637 13.8559 0.000477791 1.98611 6.84867e-05
17.0058 0.000586408 12.8632 0.00044356 2.60046 8.96711e-05
15.8604 0.000546909 11.8073 0.00040715 3.22145 0.000111085
14.7456 0.00050847 10.7143 0.000369459 3.83515 0.000132247
13.6687 0.000471333 9.61156 0.000331433 4.42818 0.000152696
12.6339 0.000435653 8.52686 0.00029403 4.98745 0.000171981
11.6444 0.000401532 7.48754 0.000258191 5.49995 0.000189653
10.7027 0.000369057 6.5194 0.000224807 5.95326 0.000205285
9.8113 0.00033832 5.64552 0.000194673 6.33633 0.000218494
8.97321 0.000309421 4.88521 0.000168456 6.64005 0.000228967
8.19031 0.000282424 4.25363 0.000146677 6.85725 0.000236457
7.46259 0.000257331 3.76165 0.000129712 6.98266 0.000240781
6.78821 0.000234076 3.41558 0.000117779 7.01282 0.000241821
6.16399 0.000212551 3.21667 0.00011092 6.94642 0.000239532
5.58579 0.000192613 3.16084 0.000108995 6.78446 0.000233947
5.04858 0.000174089 3.23882 0.000111683 6.53026 0.000225181
4.54641 0.000156773 3.43649 0.0001185 6.18921 0.000213421
4.0723 0.000140424 3.73545 0.000128809 5.76851 0.000198914
3.61779 0.000124751 4.11364 0.00014185 5.27692 0.000181963
3.17266 0.000109402 4.54604 0.00015676 4.72463 0.000162918
2.72487 9.3961e-05 5.0055 0.000172603 4.12301 0.000142173
2.26083 7.79595e-05 5.46355 0.000188398 3.48429 0.000120148
2.14554 7.39838e-05 5.82482 0.000200856 2.82443 9.73943e-05
2.02588 6.98579e-05 6.09478 0.000210165 2.15616 7.43504e-05
1.85282 6.389e-05 6.30208 0.000217313 1.48409 5.11754e-05
1.62371 5.59899e-05 6.40792 0.000220963 0.824164 2.84194e-05
1.33245 4.59463e-05 6.40997 0.000221033 0.182812 6.30386e-06
0.955574 3.29507e-05 6.27381 0.000216338 -0.688971 -2.37576e-05
0.489977 1.68956e-05 5.98813 0.000206487 -1.7563 -6.0562e-05
-0.054582 -1.88231e-06 5.54502 0.000191208 -2.74176 -9.45435e-05
-0.715141 -2.46602e-05 4.94791 0.000170618 -3.63151 -0.000125225
-1.58395 -5.46193e-05 4.18856 0.000144433 -4.41711 -0.000152314
-2.55647 -8.81544e-05 3.26272 0.000112507 -5.09459 -0.000175676
-3.6201 -0.000124831 2.18287 7.52713e-05 -5.66213 -0.000195246
-4.76225 -0.000164216 0.95946 3.30848e-05 -6.12346 -0.000211154
-5.97406 -0.000206002 -0.61167 -2.10921e-05 -6.47977 -0.00022344
-7.24526 -0.000249837 -2.5454 -8.77724e-05 -6.73917 -0.000232385
-8.55971 -0.000295163 -4.59929 -0.000158596 -6.91307 -0.000238382
-9.89688 -0.000341272 -6.74587 -0.000232616 -7.01423 -0.00024187
-11.2327 -0.000387336 -8.94943 -0.000308601 -7.05617 -0.000243316
-12.5267 -0.000431956 -11.1767 -0.000385405 -7.05236 -0.000243185
-13.7745 -0.000474982 -13.386 -0.000461585 -7.01889 -0.000242031
-14.9697 -0.000516198 -15.5372 -0.000535767 -6.97256 -0.000240433
-16.1124 -0.0005556 -17.5881 -0.000606488 -6.92979 -0.000238958
-17.207 -0.000593344 -19.4961 -0.00067228 -6.90607 -0.00023814
-18.2595 -0.000629638 -21.2226 -0.000731815 -6.91514 -0.000238453
-19.2751 -0.00066466 -22.7355 -0.000783982 -6.96888 -0.000240306
-20.2572 -0.000698525 -24.0094 -0.000827909 -7.07672 -0.000244025
-21.1686 -0.000729952 -25.0344 -0.000863254 -7.24465 -0.000249816
-21.863 -0.000753897 -25.8294 -0.00089067 -7.47327 -0.000257699
-22.4762 -0.000775041 -26.3722 -0.000909387 -7.76461 -0.000267745
-22.98 -0.000792415 -26.6471 -0.000918864 -8.12125 -0.000280043
-23.3906 -0.000806571 -26.6716 -0.000919709 -8.53292 -0.000294238
-23.7056 -0.000817436 -26.4525 -0.000912155 -8.99616 -0.000310213
-23.924 -0.000824965 -26.0146 -0.000897055 -9.49969 -0.000327576
-24.055 -0.000829482 -25.3806 -0.000875194 -10.0318 -0.000345926
-24.1122 -0.000831454 -24.5763 -0.000847458 -10.5781 -0.000364761
-24.107 -0.000831278 -23.6302 -0.000814833 -11.1232 -0.000383557
-24.0534 -0.000829429 -22.5756 -0.000778469 -11.6514 -0.000401771
-23.9683 -0.000826492 -21.4485 -0.000739603 -12.1462 -0.000418836
-23.8674 -0.000823012 -20.2843 -0.000699459 -12.5911 -0.000434175
-23.7652 -0.00081949 -19.1177 -0.000659232 -12.9695 -0.000447226
-23.6765 -0.000816431 -17.9826 -0.00062009 -13.2665 -0.000457466
-23.6153 -0.000814321 -16.9116 -0.00058316 -13.4687 -0.000464439
-23.5938 -0.000813579 -15.9347 -0.000549473 -13.5649 -0.000467754
-23.6226 -0.000814572 -15.0778 -0.000519923 -13.5457 -0.000467092
-23.7105 -0.000817604 -14.3623 -0.000495252 -13.4045 -0.000462223
-23.8633 -0.000822871 -13.8057 -0.000476057 -13.1375 -0.000453016
-24.0828 -0.000830443 -13.4206 -0.000462779 -12.7442 -0.000439453
-24.3682 -0.000840283 -13.2146 -0.000455676 -12.2271 -0.000421624
-24.7165 -0.000852294 -13.1895 -0.000454809 -11.592 -0.000399726
-25.1242 -0.000866352 -13.3409 -0.000460031 -10.8477 -0.00037406
-25.5886 -0.000882366 -13.6559 -0.000470892 -10.0064 -0.000345049
-26.0383 -0.000897874 -14.1327 -0.000487335 -9.08099 -0.000313138
-26.492 -0.000913517 -14.7527 -0.000508714 -8.08837 -0.000278909
-26.9479 -0.000929236 -15.4881 -0.000534071 -7.04824 -0.000243043
-27.3962 -0.000944696 -16.3092 -0.000562386 -5.98096 -0.00020624
-27.8332 -0.000959766 -17.183 -0.000592516 -4.90853 -0.00016926
-28.2597 -0.000974471 -18.0769 -0.00062334 -3.853 -0.000132862
-28.6722 -0.000988697 -18.9575 -0.000653706 -2.83642 -9.78075e-05
-29.065 -0.00100224 -19.7918 -0.000682475 -1.88002 -6.48284e-05
-29.4326 -0.00101492 -20.5493 -0.000708597 -1.00367 -3.46092e-05
-29.7662 -0.00102642 -21.2042 -0.000731179 -0.225279 -7.76824e-06
-30.0514 -0.00103625 -21.7355 -0.000749501 0.12778 4.40622e-06
-30.2722 -0.00104387 -22.1267 -0.000762991 0.417767 1.44058e-05
-30.4146 -0.00104878 -22.3679 -0.000771308 0.633384 2.18408e-05
-30.4682 -0.00105063 -22.4509 -0.000774169 0.771276 2.65957e-05
-30.4247 -0.00104913 -22.3725 -0.000771465 0.830712 2.86452e-05
-30.2777 -0.00104406 -22.1341 -0.000763244 0.811937 2.79978e-05
-30.0246 -0.00103533 -21.7427 -0.000749748 0.716012 2.46901e-05
-29.6693 -0.00102308 -21.2085 -0.000731329 0.545489 1.881e-05
-29.2203 -0.0010076 -20.5447 -0.000708437 0.305014 1.05177e-05
-28.6911 -0.000989347 -19.7667 -0.000681611 0.00419397 1.44619e-07
-28.0987 -0.000968922 -18.8941 -0.000651521 -0.512976 -1.76888e-05
-27.4608 -0.000946925 -17.9499 -0.000618961 -1.26946 -4.37745e-05
-26.7925 -0.00092388 -16.9588 -0.000584786 -2.09551 -7.22591e-05
-26.1056 -0.000900194 -15.949 -0.000549965 -2.97245 -0.000102498
-25.4105 -0.000876225 -14.9498 -0.000515512 -3.88081 -0.000133821
-24.718 -0.000852346 -13.9907 -0.000482438 -4.8007 -0.000165541
-24.0405 -0.000828983 -13.099 -0.00045169 -5.712 -0.000196966
-23.3915 -0.000806604 -12.3 -0.000424139 -6.5953 -0.000227424
-22.7852 -0.000785695 -11.6163 -0.000400563 -7.43274 -0.000256301
-22.2353 -0.000766736 -11.0673 -0.00038163 -8.20843 -0.000283049
-21.7553 -0.000750185 -10.6684 -0.000367876 -8.90841 -0.000307186
-21.3567 -0.000736437 -10.4311 -0.000359694 -9.52073 -0.000328301
-21.0473 -0.000725768 -10.3631 -0.000357349 -10.0357 -0.000346059
-20.8297 -0.000718264 -10.4684 -0.00036098 -10.4463 -0.000360219
-20.7001 -0.000713796 -10.7475 -0.000370604 -10.7485 -0.000370638
-20.6485 -0.000712017 -11.1972 -0.00038611 -10.9409 -0.000377272
-20.6603 -0.000712424 -11.81 -0.000407242 -11.0249 -0.00038017
-20.7174 -0.000714394 -12.5741 -0.000433589 -11.0047 -0.000379471
-20.7984 -0.000717187 -13.4733 -0.000464595 -10.8867 -0.000375405
-20.8794 -0.000719978 -14.4872 -0.00049956 -10.6803 -0.000368288
-20.9361 -0.000721935 -15.5914 -0.000537634 -10.3969 -0.000358514
-20.9463 -0.000722285 -16.7568 -0.00057782 -10.0498 -0.000346545
-20.8895 -0.000720329 -17.9508 -0.000618993 -9.65383 -0.000332891
-20.7486 -0.000715469 -19.1379 -0.000659927 -9.22486 -0.000318099
-20.5102 -0.000707248 -20.2803 -0.00069932 -8.77936 -0.000302737
-20.1654 -0.00069536 -21.339 -0.000735828 -8.3339 -0.000287376
-19.7094 -0.000679636 -22.2752 -0.000768111 -7.90456 -0.000272571
-19.1401 -0.000660003 -23.0516 -0.000794883 -7.5063 -0.000258838
-18.457 -0.000636448 -23.634 -0.000814966 -7.15242 -0.000246635
-17.6601 -0.000608968 -23.9928 -0.000827338 -6.85408 -0.000236348
-16.7493 -0.000577563 -24.1039 -0.000831169 -6.61993 -0.000228273
-15.7257 -0.000542265 -23.9493 -0.000825838 -6.45576 -0.000222612
-14.5917 -0.000503161 -23.5175 -0.000810947 -6.36431 -0.000219459
-13.352 -0.000460414 -22.8035 -0.000786327 -6.34518 -0.000218799
-12.0138 -0.00041427 -21.8093 -0.000752045 -6.39474 -0.000220508
-10.5864 -0.000365048 -20.5436 -0.000708399 -6.50628 -0.000224354
-9.08038 -0.000313117 -19.0218 -0.000655924 -6.67012 -0.000230004
-7.58639 -0.0002616 -17.2538 -0.00059496 -6.87455 -0.000237053
-6.10804 -0.000210622 -15.2482 -0.000525801 -7.10873 -0.000245129
-4.53344 -0.000156326 -13.1016 -0.000451779 -7.34552 -0.000253294
-2.91591 -0.000100549 -10.8094 -0.000372736 -7.5748 -0.0002612
-1.29419 -4.46275e-05 -8.43796 -0.000290964 -7.77142 -0.00026798
0.22156 7.63982e-06 -6.01121 -0.000207283 -7.91967 -0.000273092
1.49293 5.148e-05 -3.57184 -0.000123167 -8.00091 -0.000275894
2.70717 9.33504e-05 -1.16784 -4.02703e-05 -7.99628 -0.000275734
3.85632 0.000132976 0.885673 3.05404e-05 -7.89065 -0.000272091
4.95631 0.000170907 2.58273 8.90598e-05 -7.66629 -0.000264355
5.96891 0.000205824 4.17997 0.000144137 -7.31085 -0.000252098
6.87476 0.000237061 5.64451 0.000194638 -6.81896 -0.000235137
7.682 0.000264896 6.95463 0.000239815 -6.18591 -0.000213307
8.3916 0.000289365 8.09884 0.00027927 -5.40844 -0.000186498
8.99317 0.000310109 9.06568 0.000312609 -4.48744 -0.000154739
9.48838 0.000327186 9.84548 0.000339499 -3.42793 -0.000118205
9.88802 0.000340966 10.4348 0.000359822 -2.23925 -7.72155e-05
10.2001 0.000351728 10.8372 0.000373698 -0.933965 -3.22057e-05
10.4322 0.00035973 11.0635 0.000381501 -0.0127634 -4.40117e-07
10.5992 0.000365488 11.1212 0.00038349 0.78429 2.70445e-05
10.7182 0.000369594 11.0278 0.000380269 1.61195 5.55845e-05
10.8074 0.000372669 10.8025 0.000372501 2.45958 8.4813e-05
10.8849 0.000375342 10.4687 0.000360988 3.31439 0.000114289
10.9708 0.000378304 10.0521 0.000346622 4.16069 0.000143472
11.0846 0.000382229 9.58106 0.000330381 4.98201 0.000171793
11.2425 0.000387674 9.08588 0.000313306 5.76316 0.00019873
11.458 0.000395105 8.5975 0.000296466 6.49059 0.000223813
11.7425 0.000404914 8.14559 0.000280883 7.15154 0.000246605
12.1033 0.000417355 7.76033 0.000267597 7.7224 0.00026629
12.5623 0.000433181 7.41068 0.000255541 7.83395 0.000270136
13.1259 0.000452618 7.13667 0.000246092 7.86936 0.000271357
13.7467 0.000474025 7.1238 0.000245648 7.82294 0.000269757
14.4596 0.000498607 7.21921 0.000248938 7.76837 0.000267875
15.2554 0.000526047 7.48317 0.00025804 7.78175 0.000268336
16.1272 0.000556111 7.92196 0.000273171 7.81073 0.000269336
17.0734 0.000588738 8.52774 0.00029406 7.73144 0.000266601
18.0899 0.000623789 9.31496 0.000321205 7.48376 0.000258061
19.1766 0.000661262 10.2534 0.000353565 7.10319 0.000244938
20.3288 0.000700994 11.3125 0.000390087 6.65831 0.000229597
21.5379 0.000742687 12.4738 0.000430133 6.18475 0.000213267
22.7944 0.000786013 13.7213 0.000473147 5.66712 0.000195418
24.0851 0.00083052 15.0322 0.00051835 5.07988 0.000175168
25.3955 0.000875705 16.3738 0.000564614 4.43066 0.000152781
26.7098 0.000921026 17.7126 0.000610779 3.75936 0.000129633
28.0105 0.000965879 19.019 0.000655829 3.10459 0.000107055
29.278 0.00100959 20.2674 0.000698876 2.47946 8.54986e-05
30.492 0.00105145 21.4328 0.000739063 1.87935 6.48052e-05
31.6327 0.00109078 22.4909 0.000775548 1.30563 4.50219e-05
32.6556 0.00112605 23.4192 0.000807558 0.776521 2.67766e-05
32.8109 0.00113141 23.9543 0.000826009 0.338677 1.16785e-05
32.6653 0.00112639 23.9845 0.000827053 0.0120965 4.1712e-07
32.5911 0.00112383 24.195 0.000834311 -0.261943 -9.03253e-06
32.7076 0.00112785 24.2771 0.000837142 -0.469681 -1.61959e-05
32.8034 0.00113115 24.2666 0.000836779 -0.663333 -2.28736e-05
32.7694 0.00112998 24.2384 0.000835808 -0.785474 -2.70853e-05
32.6285 0.00112512 24.1625 0.000833188 -0.771309 -2.65969e-05
32.5194 0.00112136 23.9276 0.000825089 -0.597516 -2.0604e-05
32.2156 0.00111088 23.5606 0.000812435 -0.403366 -1.39092e-05
31.7785 0.00109581 23.0621 0.000795245 -0.163945 -5.65329e-06
31.2644 0.00107808 22.4362 0.000773663 0.14134 4.87381e-06
30.6711 0.00105762 21.7165 0.000748846 0.506722 1.74732e-05
29.9901 0.00103414 20.9205 0.000721398 0.925986 3.19305e-05
29.2497 0.00100861 20.0682 0.000692009 1.38534 4.77703e-05
28.4824 0.000982151 19.177 0.000661275 1.87138 6.45304e-05
27.6996 0.00095516 18.27 0.000629999 2.37343 8.18424e-05
26.9147 0.000928092 17.3743 0.000599112 2.88221 9.93865e-05
26.1524 0.000901808 16.5146 0.000569469 3.38701 0.000116794
25.435 0.000877069 15.7115 0.000541775 3.87543 0.000133636
24.7771 0.000854384 14.9836 0.000516676 4.33545 0.000149498
24.194 0.000834277 14.3504 0.000494842 4.75711 0.000164038
23.702 0.000817311 13.8301 0.000476902 5.13243 0.000176981
23.3136 0.000803918 13.4368 0.000463339 5.45447 0.000188085
23.0374 0.000794393 13.1801 0.000454487 5.71685 0.000197133
22.8801 0.00078897 13.0668 0.000450581 5.91434 0.000203943
22.8357 0.000787438 13.1033 0.000451837 6.04364 0.000208402
22.8396 0.000787573 13.304 0.000458759 6.10276 0.00021044
22.8966 0.000789538 13.6651 0.000471212 6.09279 0.000210096
23.0041 0.000793244 14.1749 0.000488791 6.01638 0.000207461
23.1595 0.000798604 14.8188 0.000510993 5.87731 0.000202666
23.3585 0.000805465 15.5776 0.000537159 5.68151 0.000195914
23.595 0.000813619 16.4307 0.000566576 5.43637 0.000187461
23.8616 0.000822812 17.3542 0.000598419 5.15049 0.000177603
24.1493 0.000832735 18.3214 0.000631773 4.83316 0.000166661
24.4475 0.000843016 19.3046 0.000665677 4.49425 0.000154974
24.7439 0.000853239 20.2761 0.000699174 4.14403 0.000142898
25.0261 0.00086297 21.2087 0.000731335 3.79287 0.000130788
25.2817 0.000871782 22.0763 0.000761253 3.45086 0.000118995
25.4988 0.000879268 22.854 0.000788068 3.12751 0.000107845
25.6669 0.000885066 23.5189 0.000810995 2.83152 9.76386e-05
25.7775 0.000888878 24.0512 0.000829352 2.57062 8.8642e-05
25.8242 0.000890488 24.4346 0.000842572 2.35131 8.10797e-05
25.8032 0.000889766 24.656 0.000850208 2.17869 7.51271e-05
25.713 0.000886655 24.7067 0.000851957 2.05626 7.09057e-05
25.5531 0.00088114 24.5824 0.000847669 1.98592 6.84799e-05
25.3233 0.000873217 24.2838 0.000837374 1.96784 6.78564e-05
25.0231 0.000862867 23.8169 0.000821273 2.00051 6.8983e-05
24.651 0.000850033 23.1924 0.000799737 2.08077 7.17505e-05
24.2049 0.000834651 22.4253 0.000773288 2.20394 7.59979e-05
23.6843 0.000816699 21.5344 0.000742566 2.36404 8.15186e-05
23.0908 0.000796234 20.5408 0.000708302 2.55399 8.80686e-05
22.4282 0.000773388 19.4675 0.000671294 2.76584 9.53738e-05
21.7022 0.000748352 18.339 0.00063238 2.99101 0.000103138
20.9196 0.000721364 17.1801 0.000592417 3.22057 0.000111054
20.0878 0.000692682 16.0156 0.000552263 3.44545 0.000118809
19.2141 0.000662555 14.8698 0.000512752 3.65678 0.000126096
18.3052 0.000631212 13.7655 0.000474672 3.84605 0.000132622
17.3677 0.000598884 12.7234 0.000438737 4.00546 0.000138119
16.4095 0.000565845 11.7611 0.000405555 4.12809 0.000142348
15.4414 0.000532463 10.8924 0.0003756 4.20814 0.000145108
14.4778 0.000499235 10.1265 0.00034919 4.24109 0.000146245
13.5357 0.000466747 9.46839 0.000326496 4.22375 0.000145647
12.6321 0.000435589 8.91913 0.000307556 4.1543 0.000143252
11.7821 0.000406278 8.47681 0.000292304 4.03222 0.000139042
10.9965 0.00037919 8.13711 0.00028059 3.85829 0.000133045
10.2813 0.000354529 7.89374 0.000272198 3.63449 0.000125327
9.63759 0.000332331 7.73872 0.000266852 3.36389 0.000115996
9.06236 0.000312495 7.66243 0.000264222 3.05064 0.000105195
8.54963 0.000294815 7.65381 0.000263924 2.69982 9.30972e-05
8.09069 0.000278989 7.70055 0.000265536 2.31729 7.99066e-05
7.67473 0.000264646 7.78937 0.000268599 1.9096 6.58482e-05
7.28959 0.000251365 7.9062 0.000272628 1.48378 5.11649e-05
6.92298 0.000238723 8.03633 0.000277115 1.04724 3.61117e-05
6.56274 0.000226301 8.1647 0.000281542 0.60754 2.09496e-05
6.19603 0.000213656 8.27654 0.000285398 0.172238 5.93923e-06
5.80864 0.000200298 8.35789 0.000288203 -0.251323 -8.6663e-06
5.38436 0.000185668 8.39992 0.000289652 -0.770152 -2.6557e-05
4.90607 0.000169175 8.39796 0.000289585 -1.3952 -4.81103e-05
4.36499 0.000150517 8.3174 0.000286807 -1.94791 -6.71694e-05
3.74777 0.000129233 8.16629 0.000281596 -2.44764 -8.44014e-05
3.11628 0.000107458 7.92518 0.000273282 -2.89174 -9.97152e-05
2.76923 9.54906e-05 7.5012 0.000258662 -3.26448 -0.000112568
2.23705 7.71396e-05 7.02734 0.000242322 -3.56991 -0.0001231
1.63245 5.62913e-05 6.43443 0.000221877 -3.79875 -0.000130991
0.972184 3.35234e-05 5.77702 0.000199208 -3.95574 -0.000136405
0.258825 8.92484e-06 5.04021 0.0001738 -4.05139 -0.000139703
-0.581833 -2.00633e-05 4.2252 0.000145697 -4.08646 -0.000140912
-1.57041 -5.41522e-05 3.38077 0.000116578 -4.06832 -0.000140287
-2.52285 -8.6995e-05 2.52375 8.70258e-05 -3.99654 -0.000137812
-3.50411 -0.000120832 1.60408 5.53131e-05 -3.86621 -0.000133318
-4.54754 -0.000156812 0.669638 2.3091e-05 -3.69689 -0.000127479
-5.5904 -0.000192773 -0.371528 -1.28113e-05 -3.49674 -0.000120577
-6.60538 -0.000227772 -1.63393 -5.63425e-05 -3.27594 -0.000112964
-7.6137 -0.000262541 -2.88129 -9.93549e-05 -3.04492 -0.000104997
-8.61115 -0.000296936 -4.09681 -0.000141269 -2.81393 -9.70321e-05
-9.57236 -0.000330082 -5.26733 -0.000181632 -2.5955 -8.94999e-05
-10.486 -0.000361587 -6.37598 -0.000219861 -2.40001 -8.27589e-05
-11.354 -0.000391516 -7.40376 -0.000255302 -2.23654 -7.71221e-05
-12.1691 -0.000419626 -8.33616 -0.000287454 -2.11296 -7.28608e-05
-12.9201 -0.000445521 -9.16333 -0.000315977 -2.03653 -7.02251e-05
-13.6032 -0.000469077 -9.87793 -0.000340618 -2.01312 -6.94178e-05
-14.2194 -0.000490324 -10.4725 -0.000361122 -2.04685 -7.05811e-05
-14.7671 -0.000509212 -10.9412 -0.000377283 -2.14013 -7.37974e-05
-15.2453 -0.000525702 -11.2823 -0.000389043 -2.29368 -7.90924e-05
-15.6564 -0.000539875 -11.4985 -0.0003965 -2.50653 -8.64321e-05
-16.0046 -0.000551884 -11.5952 -0.000399834 -2.7759 -9.57206e-05
-16.2948 -0.000561891 -11.579 -0.000399277 -3.09731 -0.000106804
-16.5336 -0.000570124 -11.459 -0.000395138 -3.46486 -0.000119478
-16.7299 -0.000576892 -11.2468 -0.000387822 -3.86815 -0.000133384
-16.8947 -0.000582575 -10.9517 -0.000377646 -4.2537 -0.000146679
-17.0393 -0.000587563 -10.5919 -0.000365237 -4.64622 -0.000160214
-17.1722 -0.000592146 -10.1932 -0.000351488 -5.04533 -0.000173977
-17.3073 -0.000596805 -9.76226 -0.00033663 -5.45151 -0.000187983
-17.4539 -0.00060186 -9.32513 -0.000321556 -5.85458 -0.000201882
-17.6235 -0.000607706 -8.90074 -0.000306922 -6.2417 -0.000215231
-17.8258 -0.000614682 -8.50974 -0.000293439 -6.60021 -0.000227594
-18.0707 -0.000623129 -8.17 -0.000281724 -6.92264 -0.000238712
-18.3672 -0.000633352 -7.89828 -0.000272355 -7.2051 -0.000248452
-18.7217 -0.000645578 -7.71144 -0.000265912 -7.44307 -0.000256658
-19.1382 -0.000659937 -7.625 -0.000262931 -7.63008 -0.000263106
-19.6173 -0.000676457 -7.65243 -0.000263877 -7.75966 -0.000267574
-20.1571 -0.000695072 -7.80434 -0.000269115 -7.82829 -0.000269941
-20.7535 -0.000715638 -8.08839 -0.00027891 -7.83503 -0.000270174
-21.4011 -0.000737971 -8.50804 -0.000293381 -7.77597 -0.000268137
-22.0937 -0.000761851 -9.06354 -0.000312536 -7.65181 -0.000263856
-22.8239 -0.00078703 -9.75231 -0.000336287 -7.46532 -0.000257425
-23.5844 -0.000813256 -10.5661 -0.000364348 -7.2229 -0.000249066
-24.3678 -0.000840271 -11.4934 -0.000396324 -6.93402 -0.000239104
-25.1669 -0.000867824 -12.519 -0.000431689 -6.60985 -0.000227926
-25.9747 -0.000895679 -13.6247 -0.000469817 -6.26181 -0.000215925
-26.7848 -0.000923614 -14.7897 -0.000509989 -5.90147 -0.000203499
-27.5873 -0.000951287 -15.9919 -0.000551443 -5.54119 -0.000191076
-28.3547 -0.000977749 -17.2144 -0.000593599 -5.19363 -0.000179091
-29.0959 -0.00100331 -18.4282 -0.000635454 -4.8732 -0.000168041
-29.8088 -0.00102789 -19.6079 -0.000676135 -4.59323 -0.000158387
-30.4914 -0.00105143 -20.7285 -0.000714775 -4.36535 -0.000150529
-31.1406 -0.00107381 -21.768 -0.000750622 -4.20014 -0.000144832
-31.7528 -0.00109492 -22.7084 -0.000783048 -4.10654 -0.000141605
-32.3233 -0.0011146 -23.5343 -0.000811526 -4.09206 -0.000141106
-32.8177 -0.00113164 -24.2434 -0.00083598 -4.16087 -0.000143478
-33.2003 -0.00114484 -24.833 -0.000856312 -4.31717 -0.000148868
-33.4955 -0.00115502 -25.2998 -0.000872407 -4.55912 -0.000157211
-33.701 -0.00116211 -25.623 -0.000883551 -4.89048 -0.000168637
-33.828 -0.00116648 -25.817 -0.000890241 -5.30342 -0.000182877
-33.87 -0.00116793 -25.8754 -0.000892257 -5.79663 -0.000199884
-33.824 -0.00116634 -25.806 -0.000889864 -6.36216 -0.000219385
-33.6914 -0.00116177 -25.616 -0.000883309 -6.99151 -0.000241087
-33.4844 -0.00115463 -25.3187 -0.00087306 -7.66732 -0.00026439
-33.2147 -0.00114534 -24.916 -0.000859172 -8.29361 -0.000285986
-32.8902 -0.00113415 -24.4376 -0.000842676 -8.93019 -0.000307937
-32.5161 -0.00112125 -23.9085 -0.000824431 -9.57751 -0.000330259
-32.1085 -0.00110719 -23.3332 -0.000804593 -10.2333 -0.000352872
-31.6747 -0.00109223 -22.7409 -0.000784168 -10.8838 -0.000375302
-31.227 -0.00107679 -22.1487 -0.000763749 -11.5098 -0.00039689
-30.776 -0.00106124 -21.578 -0.000744067 -12.0932 -0.000417007
-30.3337 -0.00104599 -21.0439 -0.000725651 -12.6246 -0.00043533
-29.9102 -0.00103139 -20.5608 -0.000708993 -13.0996 -0.000451709
-29.5032 -0.00101735 -20.1443 -0.000694633 -13.5121 -0.000465935
-29.0731 -0.00100252 -19.8166 -0.00068333 -13.8516 -0.00047764
-28.6196 -0.000986882 -19.588 -0.00067545 -14.108 -0.000486482
-28.1373 -0.000970252 -19.4619 -0.0006711 -14.2763 -0.000492287
-27.6228 -0.00095251 -19.4379 -0.000670271 -14.3563 -0.000495045
-27.0751 -0.000933624 -19.5095 -0.000672741 -14.3469 -0.000494722
-26.4971 -0.000913694 -19.6646 -0.000678091 -14.2429 -0.000491134
-25.8947 -0.000892921 -19.8886 -0.000685814 -14.0438 -0.000484269
-25.2735 -0.000871499 -20.1625 -0.000695258 -13.7545 -0.000474294
-24.637 -0.000849552 -20.4636 -0.00070564 -13.3846 -0.000461539
-23.9857 -0.000827092 -20.7689 -0.000716169 -12.9461 -0.000446417
-23.3179 -0.000804064 -21.055 -0.000726034 -12.4503 -0.000429322
-22.6315 -0.000780398 -21.2984 -0.000734426 -11.9074 -0.000410599
-21.9249 -0.000756032 -21.4752 -0.000740523 -11.3271 -0.000390591
-21.1952 -0.000730868 -21.5628 -0.000743544 -10.7209 -0.000369687
-20.4369 -0.000704721 -21.5411 -0.000742795 -10.1008 -0.000348303
-19.6429 -0.000677342 -21.3931 -0.000737692 -9.4779 -0.000326824
-18.8067 -0.000648505 -21.1047 -0.00072775 -8.86135 -0.000305564
-17.9242 -0.000618077 -20.6646 -0.000712573 -8.25842 -0.000284773
-16.9951 -0.000586038 -20.0641 -0.000691867 -7.67536 -0.000264668
-16.0213 -0.000552457 -19.2982 -0.000665456 -7.11765 -0.000245436
-15.0057 -0.000517439 -18.3659 -0.000633306 -6.58934 -0.000227219
-13.9514 -0.000481085 -17.2706 -0.000595539 -6.09237 -0.000210082
-12.8603 -0.000443459 -16.0206 -0.000552436 -5.6264 -0.000194014
-11.7325 -0.000404569 -14.6285 -0.000504432 -5.18934 -0.000178943
-10.5669 -0.000364378 -13.111 -0.000452102 -4.77786 -0.000164754
-9.36236 -0.00032284 -11.4879 -0.000396133 -4.38759 -0.000151296
-8.11818 -0.000279937 -9.78154 -0.000337294 -4.01306 -0.000138381
-6.83562 -0.000235711 -8.01563 -0.000276401 -3.64779 -0.000125786
-5.51862 -0.000190297 -6.21427 -0.000214285 -3.28476 -0.000113267
-4.17387 -0.000143927 -4.40138 -0.000151772 -2.91683 -0.000100581
-2.80989 -9.6893e-05 -2.60013 -8.96597e-05 -2.53721 -8.74901e-05
-1.43606 -4.95196e-05 -0.832671 -2.87128e-05 -2.13951 -7.37761e-05
-0.175735 -6.06004e-06 0.572027 1.97251e-05 -1.71685 -5.92016e-05
0.84692 2.92039e-05 1.78389 6.15133e-05 -1.25611 -4.33142e-05
1.78748 6.16368e-05 2.92012 0.000100694 -0.759518 -2.61903e-05
2.7208 9.38205e-05 3.98285 0.00013734 -0.407915 -1.4066e-05
3.41485 0.000117753 5.01447 0.000172913 -0.143194 -4.93774e-06
4.10477 0.000141544 5.96992 0.000205859 0.123858 4.27097e-06
4.70134 0.000162115 6.82078 0.000235199 0.408977 1.41027e-05
5.2419 0.000180755 7.56821 0.000260973 0.713509 2.46038e-05
5.73104 0.000197622 8.20296 0.000282861 1.03945 3.58432e-05
6.16335 0.000212529 8.73503 0.000301208 1.37809 4.75204e-05
6.53468 0.000225334 9.16237 0.000315944 1.7233 5.9424e-05
6.85458 0.000236364 9.4835 0.000327017 2.07219 7.1455e-05
7.13163 0.000245918 9.70008 0.000334485 2.42518 8.36269e-05
7.36994 0.000254136 9.81948 0.000338603 2.7806 9.58828e-05
7.57637 0.000261254 9.85196 0.000339723 3.13241 0.000108014
7.76187 0.00026765 9.80665 0.00033816 3.47259 0.000119745
7.93639 0.000273668 9.69257 0.000334226 3.79487 0.000130857
8.10827 0.000279595 9.52103 0.000328311 4.0956 0.000141228
8.28653 0.000285742 9.3061 0.0003209 4.37153 0.000150743
8.48059 0.000292434 9.06257 0.000312502 4.61771 0.000159231
8.69889 0.000299961 8.80445 0.000303602 4.82784 0.000166477
8.94893 0.000308584 8.5454 0.000294669 4.99631 0.000172286
9.23764 0.000318539 8.29939 0.000286186 5.11946 0.000176533
9.57048 0.000330016 8.08042 0.000278635 5.19503 0.000179139
9.95092 0.000343135 7.90146 0.000272464 5.22096 0.000180033
10.3805 0.000357949 7.77336 0.000268047 5.19029 0.000178976
10.8594 0.000374462 7.70498 0.000265689 5.09916 0.000175833
11.3859 0.000392618 7.70574 0.000265715 4.94591 0.000170549
11.9576 0.000412329 7.78111 0.000268314 4.73274 0.000163198
12.5711 0.000433487 7.93415 0.000273591 4.4637 0.000153921
13.223 0.000455966 8.16524 0.00028156 4.14327 0.000142872
13.9094 0.000479635 8.47231 0.000292149 3.77589 0.000130203
14.6263 0.000504356 8.85083 0.000305201 3.36676 0.000116095
15.3696 0.000529987 9.29364 0.000320471 2.92281 0.000100787
16.1347 0.000556368 9.79149 0.000337637 2.45251 8.45695e-05
16.9161 0.000583315 10.3336 0.00035633 1.96494 6.77564e-05
17.7078 0.000610614 10.9081 0.000376143 1.46904 5.06566e-05
18.5026 0.000638019 11.5029 0.000396652 0.97363 3.35735e-05
19.2927 0.000665264 12.1053 0.000417423 0.487708 1.68175e-05
20.0699 0.000692067 12.7026 0.000438019 0.0205474 7.08532e-07
20.8263 0.000718147 13.2826 0.000458021 -0.418712 -1.44384e-05
21.5529 0.000743202 13.839 0.000477208 -1.01471 -3.49899e-05
22.2418 0.000766958 14.361 0.000495206 -1.62174 -5.59219e-05
22.8904 0.000789325 14.8259 0.000511239 -2.13314 -7.35567e-05
23.4904 0.000810013 15.2394 0.000525495 -2.55487 -8.80991e-05
24.0385 0.000828913 15.5915 0.000537636 -2.8813 -9.93551e-05
24.5313 0.000845907 15.8787 0.000547542 -3.10431 -0.000107045
24.9677 0.000860953 16.0972 0.000555075 -3.21403 -0.000110829
25.3471 0.000874038 16.2475 0.000560258 -3.20323 -0.000110456
25.67 0.000885174 16.3348 0.00056327 -3.06789 -0.000105789
25.9382 0.000894422 16.3636 0.000564261 -2.81097 -9.69299e-05
26.1546 0.000901882 16.3393 0.000563423 -2.43729 -8.40444e-05
26.3223 0.000907666 16.2703 0.000561043 -1.95199 -6.73101e-05
26.4461 0.000911935 16.1664 0.000557463 -1.36266 -4.69882e-05
26.5307 0.000914852 16.0391 0.000553074 -0.676692 -2.33342e-05
26.5836 0.000916675 15.8957 0.000548126 -0.288635 -9.95292e-06
26.6134 0.000917704 15.7492 0.000543075 0.126715 4.36947e-06
26.6268 0.000918165 15.6173 0.000538528 0.567757 1.95778e-05
26.6353 0.000918458 15.507 0.000534723 1.03277 3.56128e-05
26.6424 0.000918703 15.4351 0.000532245 1.51444 5.22222e-05
26.4817 0.000913161 15.4463 0.00053263 1.99916 6.89366e-05
26.3125 0.000907327 15.5326 0.000535607 2.4816 8.55723e-05
26.1911 0.000903142 15.666 0.000540206 2.95531 0.000101907
26.1141 0.000900485 15.8692 0.000547214 3.41614 0.000117798
26.0943 0.000899802 16.1362 0.000556422 3.86109 0.000133141
26.1276 0.000900951 16.4756 0.000568125 4.28532 0.00014777
26.2166 0.00090402 16.89 0.000582414 4.68235 0.00016146
26.3662 0.000909178 17.3765 0.000599188 5.04771 0.000174059
26.575 0.000916381 17.9309 0.000618307 5.37941 0.000185497
26.8488 0.000925819 18.5434 0.000639429 5.67783 0.000195787
27.1312 0.000935559 19.2112 0.000662457 5.94217 0.000204902
27.4817 0.000947646 19.9176 0.000686813 6.1714 0.000212807
27.8619 0.000960757 20.6684 0.000712705 6.36427 0.000219458
28.2728 0.000974924 21.4518 0.000739716 6.52128 0.000224872
28.676 0.000988828 22.2642 0.000767732 6.64507 0.00022914
28.5722 0.000985249 13.4442 0.000463593 6.50416 0.000224281
29.9404 0.00103243 18.7239 0.000645651 5.18851 0.000178914
31.1323 0.00107353 20.751 0.000715553 5.69122 0.000196249
29.7048 0.0010243 21.1493 0.000729285 5.56123 0.000191766
29.985 0.00103396 19.6955 0.000679155 5.18614 0.000178832
31.4503 0.00108449 19.99 0.000689309 5.0358 0.000173648
31.8635 0.00109874 22.3055 0.000769154 5.12851 0.000176845
31.6361 0.0010909 24.3765 0.000840569 5.09358 0.000175641
32.0501 0.00110518 24.9822 0.000861456 4.79692 0.000165411
32.7068 0.00112782 25.004 0.000862205 4.52028 0.000155872
32.9165 0.00113505 25.7808 0.000888993 4.47585 0.00015434
32.9845 0.0011374 27.2575 0.000939915 4.56105 0.000157278
33.2566 0.00114678 28.5388 0.000984097 4.56857 0.000157537
33.516 0.00115572 29.1372 0.00100473 4.48393 0.000154618
33.5973 0.00115853 29.4409 0.0010152 4.46511 0.000153969
33.6396 0.00115999 29.9737 0.00103358 4.61735 0.000159219
33.7073 0.00116232 30.7086 0.00105892 4.88002 0.000168276
33.6933 0.00116184 30.9892 0.00106859 5.13949 0.000177224
33.4886 0.00115478 30.8712 0.00106453 5.34384 0.00018427
33.2717 0.0011473 30.6245 0.00105602 5.61225 0.000193526
33.0497 0.00113965 30.5111 0.00105211 5.98431 0.000206355
32.7303 0.00112863 30.5272 0.00105266 6.44183 0.000222132
32.3193 0.00111446 30.4072 0.00104852 6.70809 0.000231314
31.8591 0.00109859 29.9671 0.00103335 6.75467 0.00023292
31.3419 0.00108076 29.4301 0.00101483 6.82184 0.000235236
30.742 0.00106007 28.9554 0.000998461 6.9056 0.000238124
30.0538 0.00103634 28.4935 0.000982534 6.93499 0.000239138
29.2968 0.00101023 27.9299 0.000963101 6.94236 0.000239392
28.523 0.000983551 27.2462 0.000939524 6.98404 0.000240829
27.7018 0.000955233 26.5473 0.000915425 7.07496 0.000243964
26.8249 0.000924996 25.8938 0.000892891 7.1761 0.000247452
25.9113 0.000893492 25.2376 0.000870263 7.23963 0.000249642
24.9771 0.00086128 24.558 0.000846827 7.26535 0.000250529
24.0189 0.000828239 23.8633 0.000822872 7.28939 0.000251358
23.0387 0.000794437 23.1986 0.000799952 7.34026 0.000253112
22.045 0.000760172 22.5802 0.000778627 7.40628 0.000255389
21.0435 0.000725638 21.9936 0.000758401 7.45711 0.000257142
20.0366 0.000690917 21.4284 0.000738911 7.47884 0.000257891
19.0296 0.000656193 20.8937 0.000720474 7.48439 0.000258082
18.0303 0.000621733 20.404 0.000703588 7.48145 0.000257981
16.8055 0.0005795 19.843 0.000684241 7.41563 0.000255711
15.6166 0.000538505 19.3219 0.000666273 7.22373 0.000249094
14.4744 0.000499117 18.8313 0.000649354 6.88702 0.000237483
13.3829 0.000461478 18.3672 0.000633351 6.4441 0.00022221
12.3341 0.000425315 17.917 0.000617828 5.92504 0.000204312
11.3142 0.000390146 17.4632 0.00060218 5.32425 0.000183595
10.3067 0.000355403 16.9926 0.000585953 4.63473 0.000159818
9.2963 0.000320562 16.4935 0.00056874 3.87863 0.000133746
8.27191 0.000285238 15.9477 0.000549919 3.08618 0.00010642
7.56815 0.00026097 15.2707 0.000526577 2.27399 7.84134e-05
7.00046 0.000241395 14.4991 0.000499968 1.45541 5.01864e-05
6.29093 0.000216928 13.6529 0.000470788 0.628006 2.16554e-05
5.55987 0.000191719 12.7245 0.000438776 -0.191341 -6.59796e-06
4.78046 0.000164843 11.7313 0.000404528 -0.995935 -3.43426e-05
3.84407 0.000132554 10.7194 0.000369633 -1.83434 -6.32531e-05
2.86028 9.86301e-05 9.55115 0.00032935 -2.50689 -8.64446e-05
1.79728 6.1975e-05 8.31865 0.00028685 -3.13357 -0.000108054
0.638891 2.20306e-05 7.03318 0.000242523 -3.80514 -0.000131212
-0.592634 -2.04358e-05 5.68538 0.000196048 -4.45902 -0.000153759
-2.04678 -7.05789e-05 4.30071 0.0001483 -5.02845 -0.000173395
-3.52159 -0.000121434 2.84887 9.82369e-05 -5.53127 -0.000190733
-5.03585 -0.00017365 1.36988 4.72373e-05 -6.02333 -0.000207701
-6.58223 -0.000226974 -0.148258 -5.11233e-06 -6.51103 -0.000224518
-8.14961 -0.000281021 -2.33063 -8.03666e-05 -7.00072 -0.000241404
-9.62795 -0.000331998 -4.43554 -0.00015295 -7.41716 -0.000255764
-11.1593 -0.000384805 -6.5029 -0.000224238 -7.82275 -0.00026975
-12.7164 -0.000438497 -9.20022 -0.000317249 -8.36102 -0.000288311
-13.9938 -0.000482546 -11.4345 -0.000394292 -8.82779 -0.000304406
-15.4054 -0.000531219 -13.5783 -0.000468218 -9.29386 -0.000320478
-16.6909 -0.000575548 -15.7655 -0.000543638 -9.80106 -0.000337968
-17.7743 -0.000612908 -17.6753 -0.000609492 -10.3075 -0.00035543
-18.8162 -0.000648833 -19.2086 -0.000662366 -10.802 -0.000372483
-19.7273 -0.00068025 -20.5264 -0.000707807 -11.3173 -0.00039025
-20.4623 -0.000705596 -21.6553 -0.000746736 -11.8506 -0.000408642
-21.092 -0.000727309 -22.4729 -0.000774928 -12.3749 -0.000426721
-21.6048 -0.000744994 -22.9659 -0.000791926 -12.891 -0.000444519
-21.9892 -0.000758247 -23.2226 -0.000800781 -13.4089 -0.000462376
-22.2785 -0.000768225 -23.2664 -0.000802288 -13.9137 -0.000479784
-22.4848 -0.000775337 -23.0689 -0.000795478 -14.3836 -0.000495985
-22.6115 -0.000779708 -22.6621 -0.000781452 -14.8127 -0.000510782
-22.6777 -0.00078199 -22.1107 -0.000762439 -15.1992 -0.000524112
-22.6986 -0.000782712 -21.4512 -0.000739698 -15.5287 -0.000535472
-22.6927 -0.000782507 -20.706 -0.000714001 -15.7837 -0.000544267
-22.6859 -0.000782274 -19.9164 -0.000686771 -15.9288 -0.00054927
-22.6964 -0.000782636 -19.1421 -0.000660072 -15.9186 -0.000548918
-22.746 -0.000784343 -18.4181 -0.000635107 -15.8603 -0.000546908
-22.8634 -0.000788394 -17.7295 -0.000611362 -15.6761 -0.000540556
-23.0667 -0.000795403 -17.1364 -0.000590912 -15.282 -0.000526966
-23.3759 -0.000806066 -16.6489 -0.000574101 -14.6667 -0.000505748
-23.7734 -0.000819772 -16.2702 -0.000561042 -13.8681 -0.000478212
-24.2718 -0.000836959 -15.985 -0.000551207 -12.9266 -0.000445746
-24.8646 -0.000857401 -15.8265 -0.000545741 -11.8367 -0.000408161
-25.5508 -0.000881061 -15.7865 -0.000544363 -10.5987 -0.000365473
-26.3202 -0.000907595 -15.8633 -0.000547009 -9.2431 -0.000318728
-27.1554 -0.000936395 -16.0399 -0.000553101 -7.81794 -0.000269584
-28.0321 -0.000966625 -16.3072 -0.000562318 -6.35248 -0.000219051
-28.9305 -0.000997603 -16.6504 -0.000574152 -4.86723 -0.000167836
-29.8259 -0.00102848 -17.0489 -0.000587891 -3.39356 -0.000117019
-30.6931 -0.00105838 -17.48 -0.00060276 -1.9749 -6.81e-05
-31.5089 -0.00108652 -17.9225 -0.000618019 -0.657285 -2.2665e-05
-32.2418 -0.00111179 -18.4064 -0.000634703 -0.220567 -7.60574e-06
-32.8715 -0.0011335 -18.864 -0.000650482 0.0663155 2.28674e-06
-33.409 -0.00115204 -19.2286 -0.000663054 0.28568 9.85104e-06
-33.8142 -0.00116601 -19.5491 -0.000674108 0.498106 1.71761e-05
-34.0892 -0.00117549 -19.7804 -0.000682084 0.689635 2.37805e-05
-34.2088 -0.00117962 -19.9016 -0.000686261 0.792832 2.7339e-05
-34.1392 -0.00117721 -19.9191 -0.000686867 0.802702 2.76794e-05
-33.867 -0.00116783 -19.833 -0.000683898 0.732446 2.52568e-05
-33.394 -0.00115152 -19.6499 -0.000677584 0.575413 1.98418e-05
-32.7417 -0.00112903 -19.3571 -0.000667485 0.298698 1.02999e-05
-31.9263 -0.00110091 -18.9701 -0.000654143 -0.0986238 -3.40082e-06
-30.974 -0.00106807 -18.5021 -0.000638003 -0.556159 -1.91779e-05
-29.9206 -0.00103174 -17.9477 -0.000618888 -1.4786 -5.09864e-05
-28.7944 -0.000992909 -17.3546 -0.000598435 -2.47669 -8.54031e-05
-27.6292 -0.000952732 -16.7214 -0.000576601 -3.5709 -0.000123135
-26.4496 -0.000912055 -16.0842 -0.000554626 -4.73683 -0.000163339
-25.2726 -0.000871468 -15.4714 -0.000533498 -5.92013 -0.000204142
-24.1035 -0.000831156 -14.9155 -0.000514329 -7.08712 -0.000244383
-22.9419 -0.000791099 -14.4435 -0.00049805 -8.22263 -0.000283539
-21.7844 -0.000751188 -14.0806 -0.000485537 -9.30979 -0.000321027
-20.6305 -0.000711396 -13.847 -0.000477483 -10.3157 -0.000355714
-19.4831 -0.00067183 -13.7533 -0.000474253 -11.2123 -0.00038663
-18.3453 -0.000632597 -13.8002 -0.000475869 -11.9868 -0.000413336
-17.2161 -0.000593658 -13.9806 -0.00048209 -12.6337 -0.000435646
-16.0902 -0.000554835 -14.2803 -0.000492424 -13.1441 -0.000453243
-14.9595 -0.000515843 -14.6773 -0.000506113 -13.5091 -0.000465829
-13.8127 -0.0004763 -15.1418 -0.00052213 -13.7288 -0.000473406
-12.6348 -0.000435681 -15.6379 -0.000539239 -13.8111 -0.000476243
-11.4056 -0.000393297 -16.1252 -0.00055604 -13.757 -0.000474379
-10.1034 -0.000348395 -16.5586 -0.000570987 -13.5668 -0.000467821
-8.71049 -0.000300362 -16.8933 -0.000582528 -13.2512 -0.000456938
-7.21987 -0.000248961 -17.0786 -0.000588919 -12.8291 -0.000442382
-5.8601 -0.000202073 -17.0318 -0.000587302 -12.3219 -0.000424893
-5.24009 -0.000180693 -16.5172 -0.000569557 -11.7686 -0.000405815
-4.32682 -0.000149201 -15.8167 -0.000545404 -11.1351 -0.000383968
-3.34277 -0.000115268 -14.8691 -0.000512728 -10.4504 -0.000360358
-2.25609 -7.77965e-05 -13.6793 -0.000471699 -9.71271 -0.000334921
-1.06895 -3.68605e-05 -12.2288 -0.000421683 -8.931 -0.000307966
0.0829974 2.86179e-06 -10.5414 -0.000363495 -8.10951 -0.000279638
1.0801 3.72446e-05 -8.66443 -0.000298773 -7.24519 -0.000249834
2.0615 7.1086e-05 -6.66493 -0.000229825 -6.33112 -0.000218315
3.04852 0.000105121 -4.51212 -0.00015559 -5.38689 -0.000185755
4.05624 0.00013987 -2.27211 -7.83487e-05 -4.41519 -0.000152248
5.03628 0.000173665 -0.143491 -4.94798e-06 -3.39557 -0.000117089
5.93857 0.000204778 1.34539 4.63929e-05 -2.40849 -8.30514e-05
6.89877 0.000237888 2.72566 9.39884e-05 -1.44839 -4.99445e-05
7.81028 0.00026932 4.18831 0.000144425 -0.76594 -2.64117e-05
8.59891 0.000296514 5.49905 0.000189622 -0.460936 -1.58943e-05
9.3643 0.000322907 6.71607 0.000231588 -0.215585 -7.43396e-06
10.1098 0.000348615 7.92362 0.000273228 0.0806427 2.78078e-06
10.7828 0.000371819 9.13808 0.000315106 0.450005 1.55174e-05
11.4356 0.000394332 10.2264 0.000352634 0.823904 2.84105e-05
12.0647 0.000416024 11.1965 0.000386086 1.18005 4.06914e-05
12.6455 0.000436051 12.1091 0.000417553 1.55569 5.36444e-05
13.1839 0.000454616 12.9558 0.000446753 1.96888 6.78923e-05
13.6068 0.000469199 13.7107 0.000472781 2.39575 8.26122e-05
13.9728 0.000481819 14.3659 0.000495377 2.81416 9.704e-05
14.2925 0.000492843 14.9538 0.000515649 3.22862 0.000111332
14.571 0.000502449 15.4682 0.000533388 3.64815 0.000125798
14.8067 0.000510576 15.9005 0.000548291 4.06555 0.000140191
15.009 0.000517551 16.2606 0.00056071 4.46501 0.000153966
15.1794 0.000523426 16.5691 0.00057135 4.83946 0.000166878
15.3177 0.000528195 16.8319 0.00058041 5.18917 0.000178937
15.4292 0.000532042 17.0493 0.000587905 5.51132 0.000190046
15.516 0.000535034 17.2312 0.00059418 5.79789 0.000199927
15.5778 0.000537165 17.3904 0.000599668 6.04142 0.000208325
15.6157 0.000538471 17.5311 0.000604522 6.23912 0.000215142
15.6285 0.000538912 17.6542 0.000608764 6.39054 0.000220363
15.5619 0.000536618 17.7693 0.000612735 6.49295 0.000223895
15.4122 0.000531455 17.8822 0.000616627 6.54364 0.000225643
15.1873 0.000523699 17.9865 0.000620226 6.53572 0.00022537
14.9038 0.000513923 18.064 0.000622897 6.44611 0.00022228
14.5814 0.000502806 18.1043 0.000624286 6.26543 0.000216049
14.237 0.000490931 18.0818 0.00062351 6.00033 0.000206908
13.8877 0.000478885 17.9762 0.00061987 5.66158 0.000195227
13.5425 0.000466983 17.7762 0.000612971 5.25976 0.000181371
13.2036 0.000455295 17.4926 0.000603194 4.8007 0.000165541
12.8668 0.000443682 17.1495 0.000591363 4.30419 0.00014842
12.5087 0.000431333 16.6782 0.000575112 3.76688 0.000129892
12.152 0.000419035 16.1095 0.0005555 3.20473 0.000110508
11.7731 0.000405969 15.4724 0.000533531 2.62693 9.05836e-05
11.3611 0.000391762 14.7281 0.000507867 2.03542 7.0187e-05
10.9325 0.000376981 13.8627 0.000478025 1.43551 4.95003e-05
10.4882 0.000361663 12.9115 0.000445226 0.83905 2.89328e-05
10.0235 0.000345637 11.8867 0.000409886 0.249348 8.59819e-06
9.54574 0.000329163 10.7758 0.000371579 -0.334925 -1.15491e-05
9.0555 0.000312258 9.59289 0.000330789 -0.794715 -2.7404e-05
8.53726 0.000294388 8.41744 0.000290257 -1.46231 -5.04246e-05
8.0162 0.000276421 7.17758 0.000247503 -2.01747 -6.9568e-05
7.46957 0.000257571 5.92815 0.000204419 -2.53177 -8.73024e-05
6.89365 0.000237712 4.68464 0.000161539 -3.08327 -0.00010632
6.28269 0.000216644 3.48181 0.000120062 -3.67383 -0.000126684
5.63068 0.000194161 2.32058 8.00201e-05 -4.24549 -0.000146396
4.93187 0.000170064 1.21327 4.1837e-05 -4.78724 -0.000165077
4.18567 0.000144333 0.179211 6.17968e-06 -5.33848 -0.000184085
3.38068 0.000116575 -0.80315 -2.76948e-05 -5.92871 -0.000204438
2.55427 8.80781e-05 -1.98312 -6.83833e-05 -6.51973 -0.000224818
1.66027 5.72506e-05 -3.01691 -0.000104031 -7.08985 -0.000244478
0.714665 2.46434e-05 -3.96441 -0.000136704 -7.65132 -0.000263839
-0.224837 -7.75319e-06 -4.78756 -0.000165088 -8.21562 -0.000283297
-1.35147 -4.66028e-05 -5.46665 -0.000188505 -8.76524 -0.00030225
-2.46803 -8.51045e-05 -6.23094 -0.00021486 -9.28693 -0.000320239
-3.48953 -0.000120329 -6.91527 -0.000238458 -9.79533 -0.00033777
-4.26241 -0.00014698 -7.59255 -0.000261812 -10.2458 -0.000353305
-5.12811 -0.000176832 -8.22714 -0.000283695 -10.6647 -0.000367748
-5.98513 -0.000206384 -8.83968 -0.000304816 -11.0304 -0.000380357
-6.82633 -0.000235391 -9.34996 -0.000322412 -11.3366 -0.000390918
-7.69681 -0.000265407 -9.81681 -0.000338511 -11.5829 -0.000399409
-8.58428 -0.00029601 -10.2771 -0.000354383 -11.7737 -0.000405989
-9.47936 -0.000326875 -10.7134 -0.000369427 -11.9004 -0.00041036
-10.4033 -0.000358736 -11.1146 -0.000383261 -11.9598 -0.000412407
-11.3509 -0.000391409 -11.5054 -0.000396738 -11.9472 -0.000411973
-12.3204 -0.000424843 -11.8945 -0.000410156 -11.8328 -0.000408029
-13.3202 -0.000459319 -12.2761 -0.000423315 -11.604 -0.000400137
-14.3494 -0.000494807 -12.6458 -0.000436061 -11.268 -0.000388553
-15.4034 -0.000531152 -13.0121 -0.000448693 -10.8418 -0.000373855
-16.479 -0.000568243 -13.3789 -0.00046134 -10.3379 -0.000356478
-17.569 -0.000605827 -13.7414 -0.000473842 -9.76291 -0.000336652
-18.6638 -0.000643579 -14.0978 -0.000486131 -9.12876 -0.000314785
-19.7526 -0.000681124 -14.4501 -0.000498281 -8.45372 -0.000291508
-20.8218 -0.000717992 -14.7976 -0.000510261 -7.75566 -0.000267436
-21.8568 -0.000753685 -15.1361 -0.000521934 -7.04883 -0.000243063
-22.8449 -0.000787757 -15.4628 -0.000533201 -6.34794 -0.000218894
-23.7761 -0.000819865 -15.775 -0.000543964 -5.67024 -0.000195525
-24.6436 -0.000849779 -16.0671 -0.000554036 -5.03296 -0.00017355
-36.3006 -0.00125175 -14.1897 -0.0004893 -4.695 -0.000161897
-4.23964 -0.000146195 -7.07217 -0.000243868 -5.3912 -0.000185904
-1.32511 -4.56938e-05 -7.94654 -0.000274019 -4.47823 -0.000154422
-10.9561 -0.000377798 -10.4968 -0.00036196 -3.66242 -0.00012629
-9.46656 -0.000326433 -11.1789 -0.00038548 -2.97802 -0.00010269
-6.51967 -0.000224816 -10.5678 -0.000364408 -2.55122 -8.7973e-05
-9.55517 -0.000329489 -12.0706 -0.000416229 -1.87892 -6.47903e-05
-12.4774 -0.000430255 -13.5127 -0.000465956 -1.33345 -4.59812e-05
-10.2218 -0.000352475 -14.5226 -0.000500781 -0.868467 -2.99471e-05
-9.21732 -0.000317839 -15.0343 -0.000518426 -0.597226 -2.0594e-05
-9.91995 -0.000342067 -16.4177 -0.000566127 -0.47613 -1.64183e-05
-9.91958 -0.000342055 -17.4959 -0.000603307 -0.461453 -1.59122e-05
-8.14977 -0.000281027 -18.2271 -0.000628522 -0.484497 -1.67068e-05
-7.17565 -0.000247436 -18.8737 -0.000650817 -0.562659 -1.9402e-05
-7.49397 -0.000258413 -19.6881 -0.000678898 -0.860656 -2.96778e-05
-7.50538 -0.000258806 -20.3626 -0.000702157 -1.35693 -4.67907e-05
-6.94034 -0.000239322 -20.7717 -0.000716266 -1.9751 -6.81071e-05
-6.83471 -0.00023568 -21.126 -0.000728482 -2.69677 -9.2992e-05
-7.12309 -0.000245624 -21.5066 -0.000741606 -3.54224 -0.000122146
-7.08593 -0.000244343 -21.7501 -0.000750002 -4.51576 -0.000155716
-6.70702 -0.000231277 -21.8802 -0.00075449 -5.56238 -0.000191806
-6.23846 -0.000215119 -21.9288 -0.000756165 -6.66207 -0.000229727
-5.54374 -0.000191164 -21.916 -0.000755725 -7.81223 -0.000269387
-4.66302 -0.000160794 -21.8459 -0.000753306 -8.99227 -0.000310078
-3.76692 -0.000129894 -21.7796 -0.000751021 -10.1571 -0.000350246
-3.25875 -0.000112371 -21.7698 -0.000750682 -11.2741 -0.000388762
-2.94757 -0.000101641 -21.7671 -0.000750591 -12.0586 -0.000415813
-2.5348 -8.74071e-05 -21.6768 -0.000747476 -12.7057 -0.000438128
-2.05516 -7.08679e-05 -21.6326 -0.000745953 -13.2831 -0.000458038
-1.66332 -5.73561e-05 -21.6185 -0.000745467 -13.7946 -0.000475675
-1.22866 -4.23677e-05 -21.6577 -0.000746818 -14.2309 -0.000490721
-0.703411 -2.42558e-05 -21.7238 -0.000749098 -14.5901 -0.000503107
-0.124321 -4.28711e-06 -21.8433 -0.000753217 -14.8622 -0.00051249
0.484904 1.67206e-05 -22.0228 -0.000759406 -15.0435 -0.000518741
1.17923 4.0663e-05 -22.242 -0.000766966 -15.1348 -0.00052189
1.96421 6.77313e-05 -22.4731 -0.000774934 -15.1285 -0.000521673
2.6733 9.21826e-05 -22.6934 -0.000782532 -14.9896 -0.000516881
3.36752 0.000116121 -22.8828 -0.000789062 -14.7155 -0.00050743
4.10003 0.00014138 -22.9942 -0.000792905 -14.3216 -0.000493847
4.68896 0.000161688 -22.9479 -0.000791305 -13.8278 -0.00047682
5.22659 0.000180227 -22.5775 -0.000778535 -13.2723 -0.000457664
5.9476 0.00020509 -22.1634 -0.000764256 -12.6191 -0.00043514
6.34999 0.000218965 -21.6161 -0.000745383 -11.8963 -0.000410217
6.75192 0.000232825 -20.9491 -0.000722382 -11.1035 -0.000382879
7.23878 0.000249613 -20.0658 -0.000691926 -10.2738 -0.000354267
7.70884 0.000265822 -19.0401 -0.000656557 -9.40813 -0.000324418
8.07266 0.000278367 -17.8997 -0.000617231 -8.51119 -0.000293489
8.42948 0.000290672 -16.6147 -0.00057292 -7.59284 -0.000261822
8.8017 0.000303507 -15.1503 -0.000522425 -6.6685 -0.000229948
9.12329 0.000314596 -13.5431 -0.000467004 -5.74478 -0.000198096
9.33476 0.000321888 -11.8202 -0.000407593 -4.82398 -0.000166344
9.48948 0.000327223 -9.99331 -0.000344597 -3.90672 -0.000134714
9.6495 0.000332741 -8.09231 -0.000279045 -2.99469 -0.000103265
9.75059 0.000336227 -6.22 -0.000214483 -2.08017 -7.173e-05
9.69978 0.000334475 -4.33048 -0.000149327 -1.17614 -4.05567e-05
9.69005 0.000334139 -2.49996 -8.62054e-05 -0.604659 -2.08503e-05
9.63639 0.000332289 -0.87556 -3.01917e-05 -0.372291 -1.28376e-05
9.54659 0.000329193 0.31762 1.09524e-05 -0.16107 -5.55413e-06
9.43542 0.000325359 1.3187 4.54725e-05 0.0866647 2.98844e-06
9.32691 0.000321617 2.08921 7.20416e-05 0.344501 1.18793e-05
9.33299 0.000321827 2.758 9.51035e-05 0.588225 2.02836e-05
9.2886 0.000320296 3.30225 0.000113871 0.817079 2.81751e-05
9.03876 0.000311681 3.61451 0.000124638 1.05732 3.64595e-05
8.59339 0.000296324 3.75502 0.000129483 1.32503 4.56908e-05
8.00071 0.000275886 3.77911 0.000130314 1.60197 5.52404e-05
7.20846 0.000248568 3.63992 0.000125514 1.86123 6.41803e-05
6.27507 0.000216381 3.3313 0.000114872 2.10674 7.26462e-05
5.21394 0.000179791 2.87047 9.89818e-05 2.34617 8.09025e-05
4.03897 0.000139275 2.29427 7.91126e-05 2.57234 8.87013e-05
2.72357 9.3916e-05 1.62174 5.59221e-05 2.76449 9.53271e-05
1.37827 4.75263e-05 0.89689 3.09272e-05 2.9109 0.000100376
0.510482 1.76026e-05 0.162876 5.6164e-06 3.0143 0.000103941
0.247121 8.52124e-06 -0.577151 -1.99018e-05 3.0751 0.000106038
0.167413 5.77267e-06 -1.36318 -4.70062e-05 3.07257 0.000105951
0.109664 3.78134e-06 -2.55553 -8.81217e-05 2.97335 0.000102529
0.157419 5.42804e-06 -3.87931 -0.000133769 2.72626 9.40091e-05
0.432786 1.49235e-05 -5.04181 -0.000173856 2.38478 8.22339e-05
0.601627 2.07456e-05 -6.2484 -0.000215462 1.93468 6.67132e-05
0.617722 2.13006e-05 -7.49746 -0.000258533 1.37897 4.75507e-05
0.70365 2.42636e-05 -8.59556 -0.000296399 0.728445 2.51188e-05
0.826469 2.84987e-05 -9.51658 -0.000328158 -0.0129337 -4.45989e-07
0.842295 2.90445e-05 -10.3091 -0.000355487 -0.82616 -2.84883e-05
1.05831 3.64932e-05 -10.9685 -0.000378224 -2.06744 -7.12911e-05
1.45185 5.00637e-05 -11.5105 -0.000396913 -3.2686 -0.00011271
1.82571 6.29552e-05 -11.9266 -0.00041126 -4.54237 -0.000156633
2.05456 7.08468e-05 -12.3156 -0.000424678 -5.89622 -0.000203318
2.34141 8.07381e-05 -12.6373 -0.00043577 -7.28046 -0.00025105
2.66228 9.18026e-05 -12.8807 -0.000444162 -8.61384 -0.000297029
2.94887 0.000101685 -13.0917 -0.000451437 -9.89512 -0.000341211
3.2145 0.000110845 -13.3054 -0.000458806 -11.1433 -0.000384251
3.58947 0.000123775 -13.5112 -0.000465904 -12.3369 -0.00042541
4.07735 0.000140598 -13.7191 -0.000473072 -13.4236 -0.000462884
4.59376 0.000158406 -13.9618 -0.000481441 -14.3792 -0.000495835
5.16775 0.000178198 -14.2399 -0.000491032 -15.2126 -0.000524572
5.74626 0.000198147 -14.5144 -0.000500497 -15.9225 -0.000549051
6.31013 0.000217591 -14.6483 -0.000505112 -16.1745 -0.000557741
6.98543 0.000240877 -14.7656 -0.000509158 -16.2363 -0.000559872
7.57084 0.000261063 -14.9486 -0.000515468 -16.1945 -0.000558432
8.15916 0.00028135 -15.0697 -0.000519643 -16.1797 -0.000557922
8.62913 0.000297556 -15.0636 -0.000519434 -16.1747 -0.000557748
9.1034 0.00031391 -14.9892 -0.000516868 -15.9626 -0.000550436
9.45377 0.000325992 -14.8089 -0.000510653 -15.4771 -0.000533694
9.80991 0.000338273 -14.5328 -0.000501131 -14.7829 -0.000509756
10.1306 0.000349332 -14.1027 -0.000486299 -13.9706 -0.000481744
10.4466 0.000360228 -13.5429 -0.000466995 -13.0192 -0.000448939
10.7152 0.000369489 -12.8554 -0.000443288 -11.8909 -0.000410032
10.9589 0.000377891 -12.0298 -0.000414822 -10.6108 -0.00036589
11.1911 0.0003859 -11.0601 -0.000381384 -9.24087 -0.000318651
11.39 0.000392758 -9.95305 -0.000343209 -7.80393 -0.000269101
11.5182 0.000397178 -8.69091 -0.000299687 -6.2952 -0.000217076
11.6203 0.000400701 -7.29824 -0.000251663 -4.72117 -0.000162799
11.676 0.000402622 -5.79453 -0.000199812 -3.11853 -0.000107535
11.6985 0.000403396 -4.21585 -0.000145374 -1.51357 -5.21921e-05
11.7222 0.000404215 -2.61439 -9.01515e-05 -0.65008 -2.24165e-05
11.7704 0.000405875 -1.16538 -4.01854e-05 -0.213405 -7.35879e-06
11.8262 0.000407799 0.00513028 1.76896e-07 0.133876 4.6164e-06
11.9675 0.000412671 1.05513 3.63839e-05 0.528749 1.82327e-05
12.0781 0.000416487 1.8866 6.50552e-05 0.944765 3.25781e-05
12.3803 0.000426907 2.70192 9.31697e-05 1.32572 4.57146e-05
12.8332 0.000442522 3.51237 0.000121116 1.64841 5.68418e-05
13.0997 0.000451715 4.18191 0.000144204 1.94862 6.71938e-05
13.3865 0.000461602 4.75987 0.000164133 2.26355 7.80534e-05
13.7936 0.000475641 5.36635 0.000185047 2.57479 8.8786e-05
14.2229 0.000490443 5.96512 0.000205694 2.84101 9.79659e-05
14.5784 0.000502702 6.4746 0.000223262 3.06348 0.000105637
14.9167 0.00051437 6.91695 0.000238515 3.27062 0.00011278
15.2958 0.000527442 7.34867 0.000253402 3.46638 0.00011953
15.6805 0.000540708 7.7563 0.000267459 3.62673 0.000125059
16.0178 0.000552338 8.10237 0.000279392 3.74053 0.000128984
16.3489 0.000563754 8.39488 0.000289479 3.82177 0.000131785
16.6972 0.000575766 8.66268 0.000298713 3.8811 0.000133831
17.0294 0.000587219 8.9021 0.000306969 3.90951 0.000134811
17.327 0.000597484 9.09432 0.000313597 3.89005 0.00013414
17.5868 0.00060644 9.23722 0.000318525 3.80647 0.000131258
17.8304 0.000614842 9.3427 0.000322162 3.6615 0.000126259
18.0677 0.000623023 9.41132 0.000324528 3.4614 0.000119358
18.2773 0.000630251 9.41833 0.00032477 3.21007 0.000110692
18.4633 0.000636666 9.3522 0.00032249 2.90832 0.000100287
18.7325 0.000645949 9.23902 0.000318587 2.56185 8.83398e-05
19.061 0.000657276 9.16537 0.000316047 2.16853 7.4777e-05
19.4103 0.000669322 8.99768 0.000310265 1.75566 6.05401e-05
19.5704 0.00067484 8.76885 0.000302374 1.32152 4.55697e-05
19.769 0.000681689 8.46007 0.000291727 0.874717 3.01627e-05
19.9053 0.000686388 8.11724 0.000279905 0.42394 1.46186e-05
19.9065 0.000686429 7.71847 0.000266154 -0.0245079 -8.45101e-07
19.8943 0.000686012 7.24234 0.000249736 -0.470196 -1.62137e-05
19.8794 0.000685496 6.71184 0.000231443 -0.88052 -3.03628e-05
19.8391 0.000684107 6.16716 0.000212661 -1.31336 -4.52882e-05
19.5676 0.000674743 5.56507 0.000191899 -1.7894 -6.17034e-05
19.204 0.000662205 4.91391 0.000169445 -2.20868 -7.61613e-05
18.7722 0.000647318 4.23845 0.000146154 -2.63015 -9.06949e-05
18.2764 0.000630222 3.55809 0.000122693 -3.0509 -0.000105203
17.7421 0.000611798 2.86813 9.89009e-05 -3.44211 -0.000118693
17.2023 0.000593182 2.17366 7.49539e-05 -3.79048 -0.000130706
16.681 0.000575206 1.49423 5.15253e-05 -4.11992 -0.000142066
16.2006 0.000558642 0.844863 2.91332e-05 -4.44648 -0.000153327
15.7757 0.000543991 0.232094 8.00324e-06 -4.76046 -0.000164154
15.4228 0.000531821 -0.335535 -1.15702e-05 -5.05028 -0.000174147
15.1632 0.000522868 -0.837113 -2.8866e-05 -5.32202 -0.000183518
15.0162 0.000517799 -1.41188 -4.86854e-05 -5.58598 -0.00019262
14.9798 0.000516544 -1.88742 -6.50836e-05 -5.84515 -0.000201557
15.0679 0.000519584 -2.26051 -7.79485e-05 -6.09078 -0.000210027
15.2785 0.000526844 -2.52062 -8.6918e-05 -6.32062 -0.000217953
15.6068 0.000538164 -2.66093 -9.17563e-05 -6.53806 -0.000225451
16.0454 0.000553288 -2.67739 -9.23237e-05 -6.74392 -0.000232549
16.594 0.000572207 -2.54543 -8.77734e-05 -6.92763 -0.000238884
17.239 0.000594447 -2.27934 -7.85979e-05 -7.08235 -0.000244219
17.9702 0.000619661 -1.89012 -6.51767e-05 -7.20443 -0.000248429
18.7711 0.00064728 -1.37088 -4.72717e-05 -7.29109 -0.000251417
19.5676 0.000674745 -0.75946 -2.61883e-05 -7.33758 -0.00025302
20.2859 0.000699512 -0.187933 -6.48046e-06 -7.32998 -0.000252758
20.9424 0.000722152 0.440053 1.51742e-05 -7.24175 -0.000249715
21.5299 0.000742409 1.07659 3.71237e-05 -7.06309 -0.000243555
22.1155 0.000762603 1.68998 5.82751e-05 -6.80707 -0.000234726
22.7225 0.000783536 2.28011 7.86246e-05 -6.46946 -0.000223085
23.3282 0.000804422 2.86434 9.87703e-05 -6.03897 -0.00020824
23.9347 0.000825335 3.41697 0.000117826 -5.50839 -0.000189945
24.5685 0.000847189 3.94236 0.000135943 -4.87797 -0.000168206
25.1892 0.000868595 4.46373 0.000153922 -4.15258 -0.000143192
25.8545 0.000891535 4.97907 0.000171692 -3.3407 -0.000115196
26.5507 0.00091554 5.47481 0.000188787 -2.45383 -8.46148e-05
27.1101 0.00093483 5.97121 0.000205904 -1.50514 -5.19014e-05
27.7242 0.000956008 6.45677 0.000222647 -0.877491 -3.02583e-05
28.3912 0.000979006 6.90657 0.000238158 -0.537775 -1.8544e-05
29.0682 0.00100235 7.38506 0.000254657 -0.238774 -8.23358e-06
29.7842 0.00102704 7.84224 0.000270422 0.0973803 3.35794e-06
30.5073 0.00105197 8.31791 0.000286825 0.461519 1.59145e-05
31.2377 0.00107716 8.81039 0.000303807 0.809937 2.79288e-05
31.9565 0.00110195 9.33007 0.000321727 1.12266 3.87125e-05
32.6565 0.00112609 9.87446 0.000340499 1.42473 4.91287e-05
33.3273 0.00114922 10.4478 0.000360268 1.72891 5.96177e-05
33.967 0.00117128 11.0508 0.000381061 2.01778 6.95785e-05
34.5364 0.00119091 11.6852 0.000402938 2.27323 7.83871e-05
34.9703 0.00120587 12.3534 0.000425981 2.49971 8.61968e-05
35.2944 0.00121705 13.0446 0.000449813 2.71092 9.34799e-05
35.5138 0.00122461 13.7468 0.000474026 2.90627 0.000100216
35.6403 0.00122898 14.4432 0.000498042 3.07761 0.000106124
35.6956 0.00123088 15.1188 0.000521337 3.22515 0.000111212
35.699 0.001231 15.7577 0.00054337 3.35803 0.000115794
35.6682 0.00122994 16.343 0.000563552 3.48152 0.000120052
35.6229 0.00122837 16.8584 0.000581325 3.59392 0.000123928
35.5798 0.00122689 17.2912 0.000596248 3.69414 0.000127384
35.5506 0.00122588 17.631 0.000607967 3.78567 0.00013054
35.5409 0.00122555 17.8701 0.000616211 3.8719 0.000133514
35.5508 0.00122589 18.0044 0.00062084 3.95215 0.000136281
35.5779 0.00122683 18.0339 0.00062186 4.02371 0.000138749
35.6155 0.00122812 17.9334 0.000618392 4.08197 0.000140758
35.6756 0.00123019 17.7131 0.000610796 4.12549 0.000142258
35.7551 0.00123293 17.398 0.000599931 4.15392 0.000143239
35.8589 0.00123651 17.0508 0.00058796 4.17201 0.000143862
35.9501 0.00123966 16.607 0.000572654 4.15521 0.000143283
36.0716 0.00124385 16.1088 0.000555475 4.09823 0.000141318
36.1975 0.00124819 15.6087 0.00053823 3.99933 0.000137908
36.3079 0.001252 15.0949 0.000520513 3.85358 0.000132882
36.4181 0.0012558 14.5547 0.000501886 3.65408 0.000126003
36.4667 0.00125747 14.0193 0.000483426 3.40319 0.000117351
36.5099 0.00125896 13.5197 0.000466196 3.09885 0.000106857
36.3573 0.0012537 13.0726 0.000450779 2.74316 9.45917e-05
36.2214 0.00124901 12.6301 0.000435521 2.33846 8.06364e-05
36.1635 0.00124702 12.2123 0.000421114 1.89114 6.52119e-05
36.143 0.00124631 11.8272 0.000407836 1.41214 4.86945e-05
36.1442 0.00124635 11.4728 0.000395612 0.905322 3.1218e-05
36.1907 0.00124795 11.1368 0.000384028 0.375936 1.29633e-05
36.2674 0.0012506 10.8235 0.000373225 -0.165167 -5.69543e-06
36.346 0.00125331 10.5353 0.000363287 -0.706399 -2.43586e-05
36.4231 0.00125597 10.2704 0.00035415 -1.1788 -4.06483e-05
36.4535 0.00125702 10.0615 0.00034695 -1.79215 -6.17982e-05
36.4553 0.00125708 9.8295 0.000338948 -2.29193 -7.90322e-05
36.3455 0.00125329 9.62569 0.00033192 -2.75696 -9.50676e-05
36.13 0.00124586 9.43568 0.000325368 -3.23347 -0.000111499
35.8063 0.0012347 9.25213 0.000319039 -3.68331 -0.000127011
35.3807 0.00122002 9.05745 0.000312326 -4.05188 -0.00013972
34.8463 0.0012016 8.85312 0.00030528 -4.34317 -0.000149765
34.1894 0.00117895 8.64027 0.00029794 -4.59006 -0.000158278
33.3962 0.00115159 8.41452 0.000290156 -4.7928 -0.000165269
32.4576 0.00111923 8.16948 0.000281706 -4.9239 -0.00016979
31.3631 0.00108149 7.90387 0.000272547 -4.97278 -0.000171475
30.099 0.0010379 7.61952 0.000262742 -4.94795 -0.000170619
28.6507 0.000987955 7.31977 0.000252406 -4.8315 -0.000166603
27.0128 0.000931477 7.00173 0.000241439 -4.60687 -0.000158858
25.1877 0.000868542 6.66496 0.000229826 -4.27452 -0.000147397
23.1879 0.000799584 6.30936 0.000217564 -3.85261 -0.000132849
21.0312 0.000725212 5.93428 0.00020463 -3.3616 -0.000115917
18.7187 0.000645473 5.53928 0.00019101 -2.81016 -9.69019e-05
16.0424 0.000553186 5.14015 0.000177247 -2.21101 -7.62418e-05
13.0578 0.000450268 4.7574 0.000164048 -1.58963 -5.48147e-05
10.5573 0.000364045 4.28716 0.000147833 -1.00929 -3.4803e-05
8.11106 0.000279692 3.76798 0.00012993 -0.726521 -2.50524e-05
5.6515 0.000194879 3.24356 0.000111847 -0.500173 -1.72474e-05
3.30872 0.000114093 2.80919 9.68687e-05 -0.279575 -9.6405e-06
1.81266 6.25052e-05 2.47773 8.5439e-05 -0.0721203 -2.48691e-06
1.14396 3.94467e-05 2.18921 7.54899e-05 0.101773 3.50941e-06
0.649596 2.23997e-05 1.86965 6.44708e-05 0.237038 8.17373e-06
0.196599 6.7791e-06 1.51682 5.2304e-05 0.345949 1.19293e-05
-0.153851 -5.30539e-06 1.16584 4.02012e-05 0.43076 1.48538e-05
-0.401379 -1.38409e-05 0.826899 2.85137e-05 0.481405 1.66002e-05
-0.672632 -2.31944e-05 0.475716 1.6404e-05 0.485531 1.67425e-05
-1.00293 -3.4584e-05 0.0933484 3.2189e-06 0.437784 1.5096e-05
-1.31174 -4.52325e-05 -0.30297 -1.04472e-05 0.337385 1.1634e-05
-1.56936 -5.41159e-05 -0.697072 -2.4037e-05 0.183891 6.34108e-06
-1.83479 -6.32688e-05 -1.0976 -3.78483e-05 -0.0232836 -8.02882e-07
-2.14181 -7.38557e-05 -1.57468 -5.42994e-05 -0.281523 -9.70767e-06
-2.45822 -8.47666e-05 -2.1309 -7.34793e-05 -0.577529 -1.99148e-05
-2.77033 -9.55287e-05 -2.65875 -9.1681e-05 -0.803611 -2.77107e-05
-3.11999 -0.000107586 -3.33109 -0.000114865 -1.29645 -4.47053e-05
-3.38839 -0.000116841 -3.99697 -0.000137827 -1.82977 -6.30956e-05
-3.56077 -0.000122786 -4.61816 -0.000159247 -2.35507 -8.12094e-05
-3.82107 -0.000131761 -5.35053 -0.000184501 -2.94241 -0.000101462
-4.19131 -0.000144528 -6.17521 -0.000212938 -3.578 -0.000123379
-4.49185 -0.000154891 -6.97579 -0.000240545 -4.21163 -0.000145228
-4.71491 -0.000162583 -7.77789 -0.000268203 -4.83204 -0.000166622
-4.96991 -0.000171376 -8.67056 -0.000298985 -5.45988 -0.000188272
-5.26106 -0.000181416 -9.63997 -0.000332413 -6.09571 -0.000210197
-5.5039 -0.00018979 -10.6325 -0.000366639 -6.71778 -0.000231647
-5.69417 -0.000196351 -11.6569 -0.000401963 -7.31309 -0.000252176
-5.89518 -0.000203282 -12.7405 -0.000439329 -7.88471 -0.000271886
-6.11668 -0.00021092 -13.8642 -0.000478076 -8.43575 -0.000290888
-6.32069 -0.000217955 -14.9948 -0.000517061 -8.96055 -0.000308984
-6.50703 -0.000224381 -16.1297 -0.000556197 -9.45122 -0.000325904
-6.71052 -0.000231398 -17.2751 -0.000595694 -9.90531 -0.000341562
-6.93762 -0.000239229 -18.4167 -0.000635059 -10.3247 -0.000356022
-7.16648 -0.00024712 -19.5353 -0.00067363 -10.7097 -0.000369301
-7.3919 -0.000254893 -20.6279 -0.000711307 -11.0577 -0.000381299
-7.59496 -0.000261895 -21.6991 -0.000748245 -11.3657 -0.000391921
-7.47712 -0.000257832 -22.7261 -0.000783658 -11.6357 -0.00040123
-7.23643 -0.000249532 -23.6909 -0.000816927 -11.8721 -0.000409381
-7.01412 -0.000241866 -24.6375 -0.00084957 -12.069 -0.000416173
-6.87527 -0.000237078 -25.5684 -0.000881669 -12.2271 -0.000421625
-6.71618 -0.000231593 -26.4567 -0.000912299 -12.3488 -0.000425822
-6.12992 -0.000211377 -27.2631 -0.000940107 -12.4403 -0.000428975
-5.48894 -0.000189274 -27.9831 -0.000964936 -12.5045 -0.000431191
-4.93544 -0.000170188 -28.6492 -0.000987903 -12.539 -0.000432379
-4.48106 -0.00015452 -29.2491 -0.00100859 -12.5466 -0.000432643
-4.04859 -0.000139607 -29.7627 -0.0010263 -12.5253 -0.000431907
-3.90169 -0.000134541 -30.1942 -0.00104118 -12.4693 -0.000429976
-3.85703 -0.000133001 -30.5729 -0.00105424 -12.3764 -0.000426772
-3.84686 -0.000132651 -30.8803 -0.00106484 -12.2552 -0.000422592
-3.7953 -0.000130873 -31.1085 -0.00107271 -12.1105 -0.000417604
-3.74783 -0.000129236 -31.2699 -0.00107827 -11.9445 -0.000411881
-3.75721 -0.000129559 -31.3869 -0.00108231 -11.7572 -0.000405419
-3.92961 -0.000135504 -31.4003 -0.00108277 -11.563 -0.000398725
-3.86788 -0.000133375 -31.3534 -0.00108115 -11.349 -0.000391344
-3.84522 -0.000132594 -31.2723 -0.00107836 -11.125 -0.000383622
-3.94344 -0.000135981 -31.2257 -0.00107675 -10.8837 -0.000375302
-4.02721 -0.00013887 -31.159 -0.00107445 -10.6377 -0.000366818
-3.97929 -0.000137217 -31.0611 -0.00107107 -10.3868 -0.000358165
-3.91584 -0.000135029 -30.948 -0.00106717 -10.1343 -0.000349459
-3.79914 -0.000131005 -30.832 -0.00106317 -9.88582 -0.00034089
-3.4884 -0.00012029 -30.6467 -0.00105678 -9.65495 -0.000332929
-2.98986 -0.000103099 -30.4057 -0.00104847 -9.43821 -0.000325455
-2.41118 -8.31443e-05 -30.1083 -0.00103822 -9.23957 -0.000318606
-1.69511 -5.84521e-05 -29.752 -0.00102593 -9.06244 -0.000312498
-0.825591 -2.84689e-05 -29.3383 -0.00101167 -8.90823 -0.00030718
0.209426 7.22138e-06 -28.9026 -0.000996642 -8.77046 -0.00030243
1.02237 3.5254e-05 -28.5064 -0.000982978 -8.63982 -0.000297925
1.42476 4.91295e-05 -28.1475 -0.000970605 -8.51824 -0.000293732
1.85404 6.39322e-05 -27.7717 -0.000957644 -8.41448 -0.000290155
2.4678 8.50962e-05 -27.3682 -0.000943732 -8.3294 -0.000287221
3.13507 0.000108106 -26.9711 -0.000930037 -8.25794 -0.000284756
3.83835 0.000132357 -26.5821 -0.000916625 -8.19941 -0.000282738
4.67067 0.000161057 -26.1687 -0.000902368 -8.15758 -0.000281296
5.62022 0.000193801 -25.7111 -0.000886588 -8.13397 -0.000280482
6.60884 0.000227891 -25.2063 -0.000869182 -8.12737 -0.000280254
7.34915 0.000253419 -24.6393 -0.00084963 -8.13752 -0.000280604
8.0843 0.000278769 -23.9887 -0.000827197 -8.1637 -0.000281507
8.85068 0.000305196 -23.2341 -0.000801176 -8.20524 -0.000282939
9.6276 0.000331986 -22.3743 -0.000771529 -8.25745 -0.00028474
10.3987 0.000358575 -21.4075 -0.00073819 -8.31513 -0.000286729
11.176 0.000385379 -20.329 -0.000700999 -8.37193 -0.000288687
11.9652 0.000412592 -19.136 -0.000659861 -8.42096 -0.000290378
12.7561 0.000439866 -17.8328 -0.000614925 -8.45401 -0.000291518
13.5067 0.000465748 -16.4254 -0.000566392 -8.46207 -0.000291796
14.201 0.00048969 -14.9199 -0.000514479 -8.43561 -0.000290883
14.6491 0.00050514 -13.275 -0.000457759 -8.37002 -0.000288621
15.061 0.000519345 -11.5438 -0.000398061 -8.24597 -0.000284344
15.492 0.000534207 -9.65602 -0.000332966 -8.06963 -0.000278263
15.9117 0.000548679 -7.78114 -0.000268315 -7.80737 -0.00026922
16.2506 0.000560367 -5.88728 -0.00020301 -7.46359 -0.000257365
16.6313 0.000573494 -4.01871 -0.000138576 -7.01911 -0.000242038
17.0221 0.000586968 -2.18675 -7.54051e-05 -6.47855 -0.000223398
17.4247 0.000600851 -0.571365 -1.97023e-05 -5.86665 -0.000202298
17.9528 0.000619063 0.701759 2.41985e-05 -5.15184 -0.00017765
18.451 0.000636243 1.76991 6.10314e-05 -4.3858 -0.000151234
19.0683 0.000657528 2.69429 9.29064e-05 -3.57146 -0.000123154
19.8959 0.000686066 3.65094 0.000125895 -2.67481 -9.22347e-05
21.1179 0.000728203 4.5173 0.000155769 -1.69721 -5.85245e-05
23.0484 0.000794772 5.6718 0.000195579 -1.09831 -3.78728e-05
26.4541 0.000912209 6.63694 0.00022886 -0.789719 -2.72317e-05
28.5549 0.000984651 7.78388 0.00026841 -0.500461 -1.72573e-05
30.9598 0.00106758 8.70701 0.000300242 -0.211203 -7.28286e-06
33.7203 0.00116277 9.61222 0.000331456 0.128404 4.42771e-06
36.1577 0.00124682 10.5613 0.000364183 0.522008 1.80003e-05
38.6258 0.00133193 11.4994 0.000396532 0.886563 3.05711e-05
41.2962 0.00142401 12.3855 0.000427087 1.22564 4.22633e-05
43.8848 0.00151327 13.2942 0.00045842 1.59242 5.4911e-05
46.4911 0.00160314 14.2464 0.000491256 1.97902 6.82422e-05
49.2142 0.00169704 15.223 0.000524931 2.34398 8.0827e-05
46.8635 0.00161598 13.9634 0.000481498 3.53298 0.000121827
53.4323 0.00184249 14.0959 0.000486067 3.11405 0.000107381
50.7853 0.00175122 15.5155 0.000535016 3.70657 0.000127813
54.1066 0.00186574 17.2869 0.000596099 2.49379 8.59928e-05
60.2008 0.00207589 18.289 0.000630656 3.36043 0.000115877
61.9019 0.00213455 19.4589 0.000670996 4.37067 0.000150713
65.0218 0.00224213 20.94 0.00072207 3.91126 0.000134871
69.8905 0.00241002 22.7523 0.000784561 3.54922 0.000122387
73.2218 0.00252489 24.5242 0.000845661 3.61001 0.000124483
73.092 0.00252041 25.8351 0.000890864 4.1154 0.00014191
73.7784 0.00254408 26.9122 0.000928007 4.21117 0.000145213
74.1259 0.00255606 27.4954 0.000948117 3.93333 0.000135632
74.1161 0.00255573 27.7182 0.000955801 3.59387 0.000123927
74.3463 0.00256366 27.8905 0.000961741 3.60481 0.000124304
74.6433 0.00257391 28.1263 0.000969873 3.6311 0.00012521
74.6955 0.00257571 28.4028 0.000979408 3.60828 0.000124423
24.9323 0.000859733 28.5301 0.000983797 3.57833 0.000123391
21.314 0.000734966 20.3821 0.000702831 4.0379 0.000139238
12.505 0.000431205 27.4256 0.000945709 3.33023 0.000114836
21.1373 0.000728873 28.9983 0.00099994 3.63867 0.000125471
20.7282 0.000714766 30.5337 0.00105289 3.06526 0.000105699
20.9716 0.00072316 29.8319 0.00102869 3.04284 0.000104926
20.4268 0.000704371 29.8912 0.00103073 3.34006 0.000115174
19.7882 0.000682352 30.9231 0.00106631 3.41332 0.000117701
19.6182 0.00067649 31.521 0.00108693 3.15277 0.000108716
19.2262 0.000662973 31.5176 0.00108681 3.11545 0.000107429
18.735 0.000646033 31.6905 0.00109278 3.35415 0.00011566
18.4425 0.000635947 32.239 0.00111169 3.61172 0.000124542
18.1368 0.000625406 32.6744 0.0011267 3.66401 0.000126345
17.7518 0.000612129 32.8441 0.00113255 3.73805 0.000128898
17.591 0.000606586 32.987 0.00113748 3.95219 0.000136282
17.4512 0.000601766 33.2327 0.00114595 4.28296 0.000147688
17.2615 0.000595222 33.4993 0.00115515 4.4257 0.00015261
17.1669 0.000591961 33.1972 0.00114473 4.16267 0.00014354
12.0744 0.000416357 9.3614 0.000322807 3.24928 0.000112044
6.78852 0.000234087 3.87767 0.000133713 2.40672 8.29904e-05
13.7993 0.000475839 4.86874 0.000167888 3.09415 0.000106695
16.9298 0.000583786 9.14544 0.00031536 4.27168 0.000147299
16.2406 0.000560021 9.64113 0.000332453 4.92632 0.000169873
16.4201 0.00056621 8.52626 0.000294009 4.80513 0.000165694
16.7407 0.000577264 8.15666 0.000281264 4.11385 0.000141857
16.5393 0.000570322 8.77184 0.000302477 4.1099 0.000141721
16.5658 0.000571235 8.86846 0.000305809 4.83158 0.000166606
16.6819 0.000575238 8.34272 0.00028768 5.14381 0.000177373
16.672 0.000574897 8.09553 0.000279156 4.86911 0.0001679
16.7153 0.00057639 8.24113 0.000284177 -0.460292 -1.58721e-05
16.7234 0.000576668 8.27411 0.000285314 -1.11339 -3.83926e-05
16.0062 0.000551936 7.69537 0.000265358 -1.34744 -4.64634e-05
16.4881 0.000568557 7.64368 0.000263575 -0.760241 -2.62152e-05
16.8996 0.000582746 7.757 0.000267483 -0.207145 -7.14293e-06
17.1618 0.000591785 7.54723 0.000260249 -0.203332 -7.01146e-06
16.9808 0.000585544 7.25017 0.000250006 -0.557175 -1.92129e-05
17.0433 0.000587701 7.14176 0.000246267 -0.536391 -1.84962e-05
17.1979 0.00059303 7.06792 0.000243721 -0.110996 -3.82744e-06
17.1749 0.000592239 6.92594 0.000238826 0.181926 6.2733e-06
17.1418 0.000591096 6.77498 0.00023362 0.100158 3.45371e-06
17.2201 0.000593798 6.6376 0.000228883 0.0174411 6.01418e-07
17.2227 0.000593885 6.52671 0.000225059 0.196657 6.78128e-06
17.1488 0.000591337 6.44941 0.000222393 0.453295 1.56309e-05
17.1432 0.000591146 6.36737 0.000219564 0.543026 1.8725e-05
17.1168 0.000590235 6.2632 0.000215972 0.524802 1.80966e-05
17.0346 0.000587401 6.19165 0.000213505 0.573181 1.97649e-05
16.9612 0.000584868 6.16268 0.000212506 0.71062 2.45041e-05
16.896 0.00058262 6.12198 0.000211103 0.835032 2.87942e-05
16.102 0.000555241 6.07979 0.000209648 0.878849 3.03051e-05
15.4264 0.000531945 6.05967 0.000208954 0.895278 3.08716e-05
14.9214 0.00051453 6.05621 0.000208835 0.959163 3.30746e-05
