-0.0367298 -1.84846e-05 -0.0987133 -3.10395e-05 -0.02987 -5.36231e-06
-0.0371176 -1.86798e-05 -0.0985907 -3.1001e-05 -0.0299051 -5.3686e-06
-0.0379975 -1.91226e-05 -0.0983224 -3.09166e-05 -0.0299617 -5.37876e-06
-0.0398046 -2.0032e-05 -0.0978032 -3.07533e-05 -0.0300406 -5.39293e-06
-0.0418449 -2.10588e-05 -0.0972899 -3.05919e-05 -0.0300871 -5.40128e-06
-0.0444546 -2.23722e-05 -0.0967404 -3.04192e-05 -0.0300898 -5.40175e-06
-0.0476695 -2.39901e-05 -0.0962024 -3.025e-05 -0.0300101 -5.38745e-06
-0.0515265 -2.59312e-05 -0.0957317 -3.0102e-05 -0.0298078 -5.35114e-06
-0.0560675 -2.82164e-05 -0.0953991 -2.99974e-05 -0.0294466 -5.2863e-06
-0.0613367 -3.08682e-05 -0.0952858 -2.99618e-05 -0.028892 -5.18672e-06
-0.0673722 -3.39056e-05 -0.0954784 -3.00223e-05 -0.0281077 -5.04593e-06
-0.0741877 -3.73356e-05 -0.0960721 -3.0209e-05 -0.0270579 -4.85747e-06
-0.0817537 -4.11432e-05 -0.0971778 -3.05567e-05 -0.0257136 -4.61614e-06
-0.0899645 -4.52754e-05 -0.0989117 -3.11019e-05 -0.0240623 -4.31969e-06
-0.0986734 -4.96583e-05 -0.101437 -3.18961e-05 -0.0220881 -3.96528e-06
-0.107668 -5.4185e-05 -0.104918 -3.29907e-05 -0.0197952 -3.55366e-06
-0.116662 -5.87114e-05 -0.109503 -3.44322e-05 -0.0172133 -3.09016e-06
-0.125344 -6.30805e-05 -0.115315 -3.62597e-05 -0.0144029 -2.58562e-06
-0.133412 -6.71408e-05 -0.122444 -3.85013e-05 -0.0114618 -2.05764e-06
-0.140577 -7.07464e-05 -0.130925 -4.11683e-05 -0.00873886 -1.56881e-06
-0.146552 -7.37538e-05 -0.140739 -4.42542e-05 -0.00620064 -1.11315e-06
-0.151035 -7.60095e-05 -0.151813 -4.77363e-05 -0.00404912 -7.26904e-07
-0.153675 -7.73382e-05 -0.164033 -5.15788e-05 -0.00251049 -4.50686e-07
-0.154055 -7.75296e-05 -0.177243 -5.57324e-05 -0.00184674 -3.3153e-07
-0.151693 -7.63406e-05 -0.191253 -6.01378e-05 -0.0023509 -4.22037e-07
-0.146091 -7.35214e-05 -0.2058 -6.47119e-05 -0.00433566 -7.78343e-07
-0.136878 -6.88853e-05 -0.220503 -6.93353e-05 -0.00816619 -1.46601e-06
-0.123991 -6.23995e-05 -0.234858 -7.3849e-05 -0.0146438 -2.62887e-06
-0.107806 -5.42542e-05 -0.248161 -7.80321e-05 -0.0239477 -4.29912e-06
-0.0890978 -4.48392e-05 -0.259554 -8.16143e-05 -0.0364285 -6.53969e-06
-0.0688109 -3.46297e-05 -0.268124 -8.43092e-05 -0.0523553 -9.39889e-06
-0.047833 -2.40724e-05 -0.27303 -8.58519e-05 -0.071967 -1.29196e-05
-0.0269718 -1.35738e-05 -0.273608 -8.60335e-05 -0.0953493 -1.71172e-05
-0.00690627 -3.47564e-06 -0.26941 -8.47137e-05 -0.122395 -2.19725e-05
0.0119122 5.99494e-06 -0.260203 -8.18185e-05 -0.152772 -2.74258e-05
0.0294874 1.48398e-05 -0.245932 -7.7331e-05 -0.185948 -3.33816e-05
0.0455336 2.29152e-05 -0.22675 -7.12996e-05 -0.221248 -3.97188e-05
0.0597632 3.00763e-05 -0.203209 -6.38973e-05 -0.257725 -4.62671e-05
0.0727853 3.66298e-05 -0.175843 -5.52922e-05 -0.294422 -5.28549e-05
0.0847595 4.26559e-05 -0.145317 -4.56937e-05 -0.330152 -5.92693e-05
0.0958098 4.82171e-05 -0.11248 -3.53684e-05 -0.363762 -6.53031e-05
0.106066 5.33785e-05 -0.0781787 -2.45826e-05 -0.394032 -7.07372e-05
0.115513 5.8133e-05 -0.0432448 -1.35979e-05 -0.419794 -7.5362e-05
0.123949 6.23786e-05 -0.00846526 -2.66183e-06 -0.439911 -7.89733e-05
0.131097 6.59757e-05 0.0254208 7.99334e-06 -0.453324 -8.13813e-05
0.136791 6.88412e-05 0.0577723 1.8166e-05 -0.459072 -8.24133e-05
0.141159 7.10396e-05 0.0862834 2.7131e-05 -0.456142 -8.18872e-05
0.144646 7.27944e-05 0.111517 3.50656e-05 -0.444188 -7.97412e-05
0.148101 7.45332e-05 0.132792 4.17551e-05 -0.422579 -7.5862e-05
0.152661 7.68277e-05 0.149416 4.69826e-05 -0.391014 -7.01953e-05
0.16206 8.15582e-05 0.162638 5.114e-05 -0.337608 -6.06077e-05
0.1784 8.97812e-05 0.166649 5.24011e-05 -0.269373 -4.83582e-05
0.204403 0.000102868 0.161453 5.07675e-05 -0.18771 -3.3698e-05
0.24188 0.000121728 0.14808 4.65625e-05 -0.0948645 -1.70302e-05
0.291375 0.000146637 0.128626 4.04452e-05 0.00322892 5.79661e-07
0.351969 0.000177132 0.106202 3.33941e-05 0.100574 1.80551e-05
0.421206 0.000211976 0.0848895 2.66927e-05 0.197612 3.54755e-05
0.495322 0.000249275 0.0693639 2.18109e-05 0.291076 5.22543e-05
0.570083 0.000286899 0.0641897 2.01839e-05 0.377192 6.7714e-05
0.64188 0.000323032 0.0732246 2.30248e-05 0.452775 8.12828e-05
0.708419 0.000356518 0.0991853 3.11879e-05 0.51555 9.25522e-05
0.768703 0.000386856 0.14342 4.50972e-05 0.564634 0.000101364
0.822697 0.000414029 0.205925 6.47513e-05 0.600183 0.000107746
0.871 0.000438338 0.285512 8.97767e-05 0.623326 0.0001119
0.914444 0.000460202 0.380014 0.000119492 0.636129 0.000114199
0.953631 0.000479923 0.486526 0.000152984 0.641577 0.000115177
0.988912 0.000497678 0.601581 0.000189162 0.643304 0.000115487
1.02085 0.00051375 0.721208 0.000226777 0.64533 0.00011585
1.05059 0.000528719 0.840996 0.000264444 0.651819 0.000117015
1.07982 0.000543427 0.95636 0.000300719 0.666892 0.000119721
1.11022 0.00055873 1.06297 0.00033424 0.694317 0.000124645
1.14286 0.000575155 1.15721 0.000363874 0.737164 0.000132337
1.17774 0.000592707 1.23651 0.00038881 0.797541 0.000143176
1.21422 0.000611065 1.2993 0.000408555 0.87654 0.000157358
1.25155 0.000629852 1.3449 0.000422892 0.974216 0.000174892
1.28903 0.000648715 1.37344 0.000431865 1.08957 0.000195601
1.32606 0.00066735 1.38584 0.000435765 1.22058 0.00021912
1.36216 0.000685519 1.38375 0.000435109 1.3643 0.000244921
1.39703 0.000703069 1.3694 0.000430597 1.51702 0.000272338
1.43049 0.000719905 1.34549 0.000423077 1.67442 0.000300594
1.46235 0.00073594 1.31506 0.00041351 1.83177 0.000328842
1.49246 0.000751091 1.2814 0.000402923 1.98414 0.000356196
1.52081 0.000765363 1.24772 0.000392333 2.12667 0.000381782
1.54777 0.00077893 1.21702 0.000382681 2.25475 0.000404776
1.57402 0.000792138 1.19191 0.000374784 2.36431 0.000424444
1.60027 0.000805351 1.17458 0.000369336 2.45188 0.000440165
1.62671 0.000818657 1.16693 0.000366932 2.51476 0.000451453
1.65246 0.000831614 1.17062 0.00036809 2.55108 0.000457974
1.67561 0.000843267 1.18692 0.000373215 2.55995 0.000459566
1.69381 0.000852427 1.21648 0.000382512 2.54155 0.000456263
1.70327 0.000857186 1.24954 0.000392907 2.50806 0.00045025
1.70717 0.000859147 1.30158 0.00040927 2.44473 0.00043888
1.70121 0.000856151 1.36339 0.000428706 2.36074 0.000423803
1.68502 0.000848002 1.43171 0.000450188 2.26043 0.000405795
1.65862 0.000834713 1.5025 0.000472449 2.14881 0.000385757
1.62211 0.000816342 1.5713 0.000494082 2.03133 0.000364666
1.57571 0.000792989 1.63341 0.000513611 1.91355 0.000343523
1.51966 0.000764784 1.68416 0.000529568 1.80088 0.000323297
1.45417 0.000731824 1.71914 0.00054057 1.69823 0.000304869
1.37944 0.000694217 1.73448 0.00054539 1.60979 0.000288991
1.29575 0.000652096 1.72691 0.000543012 1.53875 0.000276239
1.20333 0.000605586 1.69405 0.000532679 1.48718 0.00026698
1.10258 0.000554882 1.63439 0.00051392 1.45583 0.000261353
0.994424 0.000500453 1.5473 0.000486535 1.44417 0.000259259
0.880751 0.000443245 1.4329 0.000450562 1.45032 0.000260364
0.764154 0.000384567 1.29216 0.000406309 1.47114 0.0002641
0.647066 0.000325642 1.12722 0.000354445 1.50216 0.00026967
0.531386 0.000267424 0.941432 0.000296025 1.53783 0.000276073
0.418648 0.000210688 0.739169 0.000232425 1.57169 0.000282151
0.310147 0.000156084 0.52558 0.000165264 1.59667 0.000286636
0.206902 0.000104125 0.306372 9.63359e-05 1.60547 0.000288217
0.109502 5.51077e-05 0.0876196 2.75512e-05 1.59089 0.000285599
0.0167602 8.43473e-06 -0.124083 -3.90167e-05 1.54607 0.000277552
-0.0716711 -3.60691e-05 -0.325918 -0.000102482 1.46613 0.000263201
-0.156775 -7.88983e-05 -0.515476 -0.000162087 1.34518 0.000241488
-0.240056 -0.00012081 -0.681229 -0.000214206 1.18069 0.000211959
-0.322461 -0.000162281 -0.819685 -0.000257743 0.971449 0.000174396
-0.403015 -0.000202821 -0.930144 -0.000292475 0.717817 0.000128863
-0.480348 -0.000241739 -1.01301 -0.000318532 0.422488 7.58456e-05
-0.553567 -0.000278587 -1.06944 -0.000336276 0.0905921 1.62632e-05
-0.62274 -0.000313399 -1.10155 -0.000346372 -0.295489 -5.30465e-05
-0.689035 -0.000346763 -1.1129 -0.000349943 -0.713554 -0.000128098
-0.754151 -0.000379533 -1.10715 -0.000348132 -1.14674 -0.000205864
-0.81962 -0.000412481 -1.08868 -0.000342325 -1.58416 -0.000284391
-0.886966 -0.000446373 -1.06277 -0.000334178 -2.01518 -0.000361768
-0.957879 -0.000482061 -1.03487 -0.000325404 -2.42959 -0.000436163
-1.03411 -0.000520424 -1.01025 -0.000317664 -2.81603 -0.000505537
-1.11724 -0.00056226 -0.994076 -0.000312578 -3.16414 -0.00056803
-1.20831 -0.000608093 -0.991372 -0.000311728 -3.46503 -0.000622047
-1.3073 -0.000657912 -1.0068 -0.000316579 -3.71152 -0.000666297
-1.41276 -0.000710981 -1.04451 -0.000328435 -3.89773 -0.000699726
-1.52187 -0.000765895 -1.10797 -0.00034839 -4.01969 -0.00072162
-1.63127 -0.000820948 -1.19949 -0.000377168 -4.07593 -0.000731717
-1.73776 -0.000874544 -1.31966 -0.000414955 -4.06776 -0.000730249
-1.83885 -0.000925415 -1.46714 -0.000461329 -3.99893 -0.000717892
-1.93292 -0.00097276 -1.63863 -0.000515254 -3.87562 -0.000695757
-2.0193 -0.00101623 -1.82905 -0.000575129 -3.70626 -0.000665352
-2.09807 -0.00105587 -2.03177 -0.000638873 -3.50119 -0.000628537
-2.16995 -0.00109205 -2.23905 -0.000704049 -3.27209 -0.000587409
-2.23604 -0.00112531 -2.44254 -0.000768036 -3.03131 -0.000544185
-2.29732 -0.00115615 -2.63393 -0.000828216 -2.79125 -0.000501089
-2.35441 -0.00118488 -2.80544 -0.000882145 -2.56379 -0.000460256
-2.40769 -0.00121169 -2.9502 -0.000927663 -2.35975 -0.000423625
-2.45733 -0.00123667 -3.0626 -0.000963006 -2.18831 -0.000392848
-2.4942 -0.00125523 -3.13596 -0.000986076 -2.0574 -0.000369348
-2.49375 -0.001255 -3.14781 -0.000989802 -1.98048 -0.000355537
-2.49107 -0.00125365 -3.12377 -0.000982241 -1.94724 -0.000349571
-2.50917 -0.00126276 -3.07905 -0.000968179 -1.95294 -0.000350594
-2.5271 -0.00127179 -3.00234 -0.000944057 -2.00178 -0.000359362
-2.5349 -0.00127571 -2.89704 -0.000910949 -2.08905 -0.000375029
-2.48839 -0.00125231 -2.79122 -0.000877675 -2.20061 -0.000395057
-2.43961 -0.00122775 -2.66654 -0.000838471 -2.33795 -0.000419712
-2.38191 -0.00119872 -2.52189 -0.000792987 -2.49465 -0.000447842
-2.32163 -0.00116838 -2.36752 -0.000744446 -2.6611 -0.000477724
-2.26053 -0.00113763 -2.2098 -0.000694851 -2.82824 -0.00050773
-2.1992 -0.00110677 -2.05193 -0.000645212 -2.98698 -0.000536227
-2.14133 -0.00107764 -1.89981 -0.000597378 -3.12848 -0.00056163
-2.08891 -0.00105126 -1.75925 -0.000553181 -3.24523 -0.000582589
-2.04328 -0.0010283 -1.6349 -0.00051408 -3.32988 -0.000597785
-2.0066 -0.00100984 -1.53074 -0.000481327 -3.37574 -0.000606017
-1.98028 -0.000996591 -1.44982 -0.000455884 -3.37866 -0.000606541
-1.96505 -0.00098893 -1.39467 -0.000438542 -3.33661 -0.000598992
-1.96161 -0.000987196 -1.36696 -0.000429828 -3.24857 -0.000583188
-1.97 -0.00099142 -1.36697 -0.000429832 -3.1152 -0.000559244
-1.98975 -0.00100136 -1.39406 -0.00043835 -2.93954 -0.000527711
-2.01837 -0.00101576 -1.44736 -0.00045511 -2.72662 -0.000489487
-2.04282 -0.00102806 -1.52812 -0.000480505 -2.4819 -0.000445553
-2.0609 -0.00103717 -1.63296 -0.000513468 -2.21367 -0.0003974
-2.07166 -0.00104258 -1.75625 -0.000552236 -1.93165 -0.000346772
-2.075 -0.00104426 -1.89101 -0.000594611 -1.64686 -0.000295646
-2.07273 -0.00104312 -2.00212 -0.00062955 -1.42489 -0.000255799
-2.0665 -0.00103998 -2.11189 -0.000664065 -1.21456 -0.000218039
-2.05671 -0.00103506 -2.21625 -0.000696881 -1.02149 -0.000183379
-2.04373 -0.00102852 -2.31132 -0.000726773 -0.850986 -0.00015277
-2.02786 -0.00102054 -2.39359 -0.000752643 -0.707901 -0.000127083
-2.00934 -0.00101122 -2.46006 -0.000773544 -0.596385 -0.000107064
-1.98822 -0.00100059 -2.50827 -0.000788702 -0.519663 -9.32906e-05
-1.96426 -0.000988532 -2.5364 -0.000797547 -0.479932 -8.61581e-05
-1.93688 -0.000974753 -2.54339 -0.000799746 -0.478379 -8.58792e-05
-1.90514 -0.000958779 -2.52898 -0.000795216 -0.515191 -9.24878e-05
-1.86786 -0.000940016 -2.49366 -0.000784108 -0.589523 -0.000105832
-1.82387 -0.00091788 -2.43846 -0.000766753 -0.6995 -0.000125575
-1.77237 -0.000891959 -2.36487 -0.000743611 -0.842312 -0.000151213
-1.71305 -0.00086211 -2.27462 -0.000715232 -1.01435 -0.000182098
-1.64629 -0.00082851 -2.16966 -0.00068223 -1.21136 -0.000217465
-1.57296 -0.000791606 -2.05212 -0.000645272 -1.42848 -0.000256443
-1.49418 -0.000751959 -1.92432 -0.000605087 -1.66035 -0.000298068
-1.411 -0.000710098 -1.78883 -0.000562481 -1.90119 -0.000341304
-1.32428 -0.000666453 -1.64841 -0.000518329 -2.14494 -0.000385063
-1.23471 -0.000621377 -1.50599 -0.000473544 -2.38546 -0.00042824
-1.14297 -0.00057521 -1.36442 -0.00042903 -2.61664 -0.000469742
-1.04977 -0.000528308 -1.22646 -0.000385651 -2.83258 -0.000508508
-0.955822 -0.000481026 -1.09465 -0.000344202 -3.02772 -0.00054354
-0.861735 -0.000433675 -0.97126 -0.000305404 -3.19695 -0.000573921
-0.768033 -0.000386519 -0.858288 -0.000269881 -3.33578 -0.000598844
-0.675158 -0.000339779 -0.757337 -0.000238138 -3.4404 -0.000617624
-0.583527 -0.000293665 -0.669566 -0.000210539 -3.50777 -0.000629719
-0.493552 -0.000248384 -0.595643 -0.000187295 -3.53572 -0.000634736
-0.405638 -0.000204141 -0.535738 -0.000168458 -3.52295 -0.000632445
-0.320174 -0.00016113 -0.489527 -0.000153927 -3.46908 -0.000622773
-0.237528 -0.000119538 -0.456209 -0.000143451 -3.37459 -0.000605811
-0.158032 -7.95309e-05 -0.434541 -0.000136638 -3.24084 -0.0005818
-0.0819872 -4.12607e-05 -0.422884 -0.000132972 -3.06996 -0.000551123
-0.00968747 -4.8753e-06 -0.419253 -0.00013183 -2.86482 -0.000514296
0.0473212 2.38148e-05 -0.420041 -0.000132078 -2.62879 -0.000471924
0.0764605 3.84794e-05 -0.416572 -0.000130987 -2.36823 -0.000425148
0.105785 5.32373e-05 -0.414062 -0.000130198 -2.08392 -0.000374107
0.133322 6.70956e-05 -0.413013 -0.000129868 -1.78036 -0.000319612
0.157825 7.94268e-05 -0.412499 -0.000129707 -1.4622 -0.000262496
0.181199 9.11898e-05 -0.409412 -0.000128736 -1.13368 -0.000203519
0.20499 0.000103163 -0.401522 -0.000126255 -0.799445 -0.000143517
0.229689 0.000115593 -0.388314 -0.000122102 -0.464146 -8.33241e-05
0.2562 0.000128935 -0.369193 -0.000116089 -0.132307 -2.3752e-05
0.285864 0.000143864 -0.34262 -0.000107734 0.17459 3.13426e-05
0.319569 0.000160826 -0.307482 -9.66848e-05 0.46312 8.31399e-05
0.357653 0.000179992 -0.262795 -8.26334e-05 0.737363 0.000132372
0.400483 0.000201546 -0.207809 -6.53436e-05 0.995117 0.000178645
0.448292 0.000225607 -0.145709 -4.5817e-05 1.23405 0.000221538
0.501025 0.000252145 -0.074379 -2.33878e-05 1.4517 0.000260611
0.558478 0.000281059 0.00739455 2.32515e-06 1.64597 0.000295487
0.620518 0.000312281 0.0999196 3.14188e-05 1.81598 0.000326007
0.686978 0.000345728 0.202745 6.37514e-05 1.96148 0.000352128
0.75762 0.000381279 0.314767 9.89758e-05 2.08255 0.000373862
0.832144 0.000418784 0.434796 0.000136718 2.17969 0.0003913
0.910101 0.000458016 0.561764 0.000176642 2.25392 0.000404626
0.990827 0.000498642 0.694491 0.000218376 2.30674 0.000414109
1.07346 0.000540227 0.831479 0.000261451 2.34001 0.000420082
1.15699 0.000582268 0.971024 0.00030533 2.35594 0.000422941
1.24036 0.000624221 1.1114 0.000349471 2.35705 0.000423141
1.32243 0.000665523 1.25093 0.000393344 2.34608 0.000421171
1.40206 0.000705598 1.38787 0.000436404 2.32582 0.000417535
1.47813 0.000743882 1.52039 0.000478073 2.29914 0.000412745
1.54961 0.000779854 1.64662 0.000517765 2.26891 0.000407318
1.61558 0.000813053 1.76476 0.000554912 2.23802 0.000401772
1.67527 0.000843093 1.87311 0.000588981 2.20918 0.000396596
1.72809 0.000869676 1.97005 0.000619464 2.18486 0.000392229
1.77366 0.000892611 2.05407 0.000645884 2.16719 0.000389057
1.81183 0.00091182 2.1238 0.00066781 2.158 0.000387406
1.84266 0.000927334 2.17811 0.000684887 2.15874 0.00038754
1.86639 0.000939278 2.21613 0.000696842 2.17045 0.000389641
1.8834 0.000947835 2.23729 0.000703497 2.19362 0.000393802
1.89411 0.000953228 2.24138 0.000704782 2.22824 0.000400016
1.89905 0.000955712 2.22851 0.000700735 2.27375 0.000408187
1.89872 0.000955545 2.19901 0.000691458 2.32923 0.000418146
1.8938 0.000953074 2.15365 0.000677197 2.39316 0.000429623
1.88528 0.000948783 2.09367 0.000658334 2.46358 0.000442265
1.87413 0.000943172 2.02061 0.000635363 2.53808 0.00045564
1.86122 0.000936674 1.93633 0.000608862 2.61396 0.000469261
1.84731 0.000929677 1.84297 0.000579506 2.68822 0.000482593
1.83311 0.000922527 1.74296 0.000548059 2.75769 0.000495065
1.81917 0.000915515 1.63889 0.000515333 2.81912 0.000506092
1.80604 0.000908906 1.53339 0.00048216 2.86926 0.000515094
1.79424 0.000902967 1.42911 0.000449372 2.90504 0.000521517
1.78432 0.000897974 1.32863 0.000417775 2.92358 0.000524845
1.77678 0.000894177 1.23435 0.00038813 2.92236 0.000524626
1.77204 0.000891795 1.14849 0.000361133 2.89926 0.000520479
1.77046 0.000891001 1.07302 0.000337402 2.85265 0.000512112
1.77232 0.000891934 1.00959 0.000317458 2.78148 0.000499335
1.77783 0.000894709 0.959511 0.000301709 2.68528 0.000482065
1.78723 0.000899441 0.923656 0.000290435 2.56425 0.000460337
1.80079 0.000906262 0.902489 0.00028378 2.41923 0.000434304
1.81864 0.000915248 0.896024 0.000281747 2.25176 0.000404239
1.84039 0.000926193 0.903318 0.00028404 2.06444 0.000370611
1.86615 0.000939156 0.924571 0.000290723 1.85937 0.000333797
1.89676 0.000954562 0.95864 0.000301436 1.63976 0.000294372
1.92887 0.00097072 1.00467 0.000315908 1.40926 0.000252993
1.96279 0.000987789 1.06099 0.000333619 1.17213 0.000210422
1.99985 0.00100644 1.12532 0.000353848 0.9331 0.000167511
2.03824 0.00102576 1.19592 0.000376047 0.696369 0.000125013
2.07182 0.00104266 1.27047 0.000399486 0.466659 8.37751e-05
2.10153 0.00105761 1.34822 0.000423934 0.248139 4.45463e-05
2.12653 0.00107019 1.42768 0.00044892 0.0455435 8.17603e-06
2.14513 0.00107956 1.5067 0.000473768 -0.143562 -2.57724e-05
2.15544 0.00108474 1.58299 0.000497757 -0.314044 -5.63776e-05
2.15638 0.00108522 1.65445 0.000520226 -0.454787 -8.16439e-05
2.14722 0.00108061 1.71933 0.000540627 -0.561741 -0.000100845
2.12701 0.00107044 1.77526 0.000558216 -0.631278 -0.000113328
2.09556 0.00105461 1.81988 0.000572246 -0.660846 -0.000118636
2.05353 0.00103346 1.85126 0.000582111 -0.649048 -0.000116518
2.00181 0.00100743 1.86778 0.000587308 -0.595213 -0.000106853
1.94124 0.000976944 1.86812 0.000587414 -0.499208 -8.96185e-05
1.87277 0.000942485 1.85132 0.000582131 -0.361729 -6.4938e-05
1.79761 0.000904665 1.81693 0.000571318 -0.184502 -3.31221e-05
1.7171 0.000864143 1.76504 0.000555002 0.0183098 3.28699e-06
1.63266 0.000821652 1.6959 0.00053326 0.246453 4.42436e-05
1.54589 0.000777981 1.61056 0.000506425 0.500535 8.98567e-05
1.45835 0.000733928 1.5105 0.000474962 0.77611 0.000139328
1.37137 0.000690154 1.39767 0.000439484 1.06783 0.000191698
1.2859 0.00064714 1.2745 0.000400754 1.3694 0.000245837
1.20266 0.000605247 1.14387 0.000359681 1.67408 0.000300533
1.12216 0.000564739 1.00903 0.00031728 1.97508 0.000354568
1.04473 0.000525768 0.87334 0.000274614 2.26579 0.000406758
0.970448 0.000488386 0.740225 0.000232757 2.53974 0.000455937
0.899304 0.000452582 0.613037 0.000192764 2.79053 0.00050096
0.831253 0.000418335 0.494944 0.000155631 3.01218 0.00054075
0.766299 0.000385646 0.388774 0.000122246 3.19933 0.000574348
0.704488 0.00035454 0.296897 9.33567e-05 3.34751 0.00060095
0.645829 0.000325019 0.221178 6.95474e-05 3.45319 0.000619921
0.590214 0.00029703 0.162953 5.12392e-05 3.51374 0.000630791
0.537432 0.000270467 0.123 3.86762e-05 3.5275 0.000633261
0.487209 0.000245192 0.101479 3.19092e-05 3.49385 0.000627221
0.439237 0.00022105 0.0979049 3.07853e-05 3.41329 0.000612759
0.393185 0.000197874 0.111156 3.49521e-05 3.28742 0.000590161
0.348689 0.000175481 0.139524 4.38722e-05 3.11882 0.000559895
0.305343 0.000153667 0.180776 5.68434e-05 2.91102 0.00052259
0.262653 0.000132183 0.23223 7.30226e-05 2.66829 0.000479015
0.220013 0.000110723 0.290844 9.14531e-05 2.3956 0.000430062
0.176686 8.89186e-05 0.353311 0.000111096 2.09851 0.000376728
0.131825 6.63421e-05 0.416164 0.000130859 1.78297 0.000320081
0.107822 5.42624e-05 0.470107 0.000147821 1.45617 0.000261414
0.0900709 4.53289e-05 0.513967 0.000161612 1.12354 0.000201699
0.0677101 3.40757e-05 0.547692 0.000172217 0.790681 0.000141944
0.0414436 2.08568e-05 0.57124 0.000179621 0.462296 8.2992e-05
0.0108961 5.48354e-06 0.582062 0.000183024 0.143672 2.57921e-05
-0.025251 -1.27078e-05 0.576615 0.000181311 -0.172467 -3.09615e-05
-0.067046 -3.37415e-05 0.552859 0.000173842 -0.481857 -8.65036e-05
-0.113264 -5.70008e-05 0.510436 0.000160502 -0.767874 -0.00013785
-0.163046 -8.20544e-05 0.449901 0.000141467 -1.02692 -0.000184354
-0.21835 -0.000109886 0.369771 0.000116271 -1.25626 -0.000225525
-0.278288 -0.000140051 0.269408 8.47128e-05 -1.45506 -0.000261214
-0.342212 -0.000172221 0.143089 4.4993e-05 -1.62218 -0.000291216
-0.409615 -0.000206142 -0.00216093 -6.79485e-07 -1.75958 -0.000315881
-0.479912 -0.00024152 -0.163608 -5.14451e-05 -1.86717 -0.000335197
-0.552633 -0.000278117 -0.33914 -0.00010664 -1.94712 -0.000349549
-0.626862 -0.000315474 -0.526533 -0.000165564 -2.00265 -0.000359518
-0.701628 -0.000353101 -0.722998 -0.00022734 -2.03751 -0.000365776
-0.775703 -0.000390379 -0.925192 -0.000290918 -2.0554 -0.000368989
-0.84695 -0.000426235 -1.12981 -0.000355258 -2.06016 -0.000369842
-0.915134 -0.000460549 -1.33302 -0.000419156 -2.0563 -0.00036915
-0.980218 -0.000493303 -1.53097 -0.000481401 -2.04862 -0.000367771
-1.04249 -0.000524641 -1.71963 -0.000540723 -2.04175 -0.000366538
-1.10251 -0.00055485 -1.89497 -0.000595857 -2.03998 -0.000366221
-1.16095 -0.000584257 -2.05332 -0.000645649 -2.04717 -0.000367511
-1.21835 -0.000613143 -2.19162 -0.000689136 -2.06666 -0.00037101
-1.27511 -0.000641709 -2.30747 -0.000725564 -2.10113 -0.000377198
-1.32699 -0.00066782 -2.40059 -0.000754844 -2.15212 -0.000386352
-1.36972 -0.000689325 -2.47161 -0.000777174 -2.21981 -0.000398502
-1.40827 -0.000708724 -2.51813 -0.000791803 -2.3059 -0.000413959
-1.44233 -0.000725866 -2.53991 -0.000798653 -2.40948 -0.000432553
-1.47212 -0.000740859 -2.53782 -0.000797993 -2.5288 -0.000453973
-1.49743 -0.000753597 -2.51313 -0.000790231 -2.66197 -0.000477881
-1.51815 -0.000764023 -2.46778 -0.00077597 -2.8064 -0.000503809
-1.53462 -0.000772311 -2.40414 -0.000755961 -2.95859 -0.000531129
-1.54734 -0.000778713 -2.32469 -0.000730977 -3.11443 -0.000559106
-1.55681 -0.000783479 -2.2321 -0.000701862 -3.26959 -0.000586961
-1.56369 -0.000786943 -2.12955 -0.000669619 -3.4196 -0.000613892
-1.5688 -0.000789511 -2.02055 -0.000635343 -3.55983 -0.000639066
-1.57288 -0.000791564 -1.90851 -0.000600114 -3.68554 -0.000661633
-1.57662 -0.00079345 -1.79673 -0.000564967 -3.79209 -0.000680761
-1.58073 -0.000795514 -1.68847 -0.000530926 -3.87521 -0.000695682
-1.58584 -0.000798085 -1.58688 -0.000498981 -3.93113 -0.000705721
-1.59252 -0.000801451 -1.49482 -0.000470031 -3.95665 -0.000710304
-1.60129 -0.000805864 -1.41474 -0.000444852 -3.9492 -0.000708965
-1.61255 -0.000811528 -1.3487 -0.000424088 -3.90686 -0.000701365
-1.62653 -0.000818563 -1.29836 -0.000408256 -3.82861 -0.000687317
-1.64326 -0.000826987 -1.26489 -0.000397732 -3.7143 -0.000666796
-1.66264 -0.000836739 -1.24898 -0.00039273 -3.56472 -0.000639943
-1.68447 -0.000847725 -1.25076 -0.00039329 -3.3815 -0.000607052
-1.70857 -0.000859853 -1.26977 -0.000399269 -3.16718 -0.000568575
-1.73393 -0.000872615 -1.30446 -0.000410176 -2.92533 -0.000525159
-1.75732 -0.000884385 -1.35451 -0.000425913 -2.65969 -0.000477471
-1.77987 -0.000895733 -1.41819 -0.000445938 -2.37518 -0.000426396
-1.80168 -0.000906709 -1.49309 -0.00046949 -2.07716 -0.000372894
-1.82244 -0.000917158 -1.57603 -0.000495568 -1.77159 -0.000318039
-1.84217 -0.000927088 -1.66382 -0.000523174 -1.46467 -0.000262939
-1.86113 -0.000936631 -1.7534 -0.00055134 -1.16266 -0.000208722
-1.87939 -0.000945818 -1.84151 -0.000579047 -0.871839 -0.000156514
-1.89685 -0.000954605 -1.92491 -0.00060527 -0.598271 -0.000107402
-1.91339 -0.000962929 -2.00066 -0.000629089 -0.34758 -6.2398e-05
-1.92863 -0.0009706 -2.06628 -0.000649723 -0.124847 -2.24127e-05
-1.94183 -0.000977241 -2.11975 -0.000666536 0.0656843 1.17917e-05
-1.95209 -0.000982405 -2.15946 -0.000679022 0.208161 3.73693e-05
-1.95862 -0.00098569 -2.18441 -0.000686868 0.314641 5.64848e-05
-1.96077 -0.000986776 -2.19383 -0.000689831 0.383088 6.87725e-05
-1.95794 -0.00098535 -2.18739 -0.000687805 0.41299 7.41406e-05
-1.94956 -0.000981132 -2.16514 -0.00068081 0.404332 7.25862e-05
-1.93544 -0.000974029 -2.12775 -0.000669051 0.3577 6.42148e-05
-1.91576 -0.000964121 -2.07622 -0.000652849 0.274468 4.92729e-05
-1.89096 -0.00095164 -2.01184 -0.000632605 0.156936 2.81733e-05
-1.86182 -0.000936978 -1.93608 -0.000608784 0.00291616 5.23513e-07
-1.82934 -0.00092063 -1.85092 -0.000582005 -0.187683 -3.36931e-05
-1.7945 -0.000903095 -1.75852 -0.000552951 -0.403498 -7.24365e-05
-1.7581 -0.00088478 -1.66132 -0.000522386 -0.639311 -0.00011477
-1.72074 -0.000865979 -1.56202 -0.000491164 -0.889729 -0.000159725
-1.68288 -0.000846924 -1.46351 -0.000460186 -1.14923 -0.000206312
-1.64501 -0.000827867 -1.36861 -0.000430347 -1.41215 -0.000253512
-1.60775 -0.000809112 -1.28001 -0.000402489 -1.67277 -0.000300299
-1.57178 -0.000791012 -1.20018 -0.000377386 -1.92557 -0.00034568
-1.53787 -0.000773946 -1.13132 -0.000355734 -2.16544 -0.000388742
-1.50678 -0.0007583 -1.07534 -0.000338131 -2.38783 -0.000428667
-1.47926 -0.000744451 -1.03376 -0.000325057 -2.58876 -0.000464738
-1.45598 -0.000732733 -1.00773 -0.000316873 -2.7648 -0.00049634
-1.43738 -0.000723373 -0.998025 -0.00031382 -2.91318 -0.000522978
-1.42359 -0.000716435 -1.00505 -0.00031603 -3.03191 -0.000544292
-1.41435 -0.000711783 -1.0289 -0.000323529 -3.11979 -0.000560069
-1.409 -0.000709091 -1.06928 -0.000336226 -3.17644 -0.000570238
-1.40662 -0.000707892 -1.1255 -0.000353902 -3.20225 -0.000574871
-1.40608 -0.000707623 -1.19643 -0.000376205 -3.19836 -0.000574174
-1.40608 -0.00070762 -1.28054 -0.000402653 -3.16667 -0.000568485
-1.40515 -0.000707154 -1.37589 -0.000432637 -3.10977 -0.00055827
-1.40188 -0.000705507 -1.48014 -0.000465417 -3.03091 -0.000544112
-1.39497 -0.000702028 -1.59052 -0.000500125 -2.93386 -0.00052669
-1.38329 -0.000696154 -1.70392 -0.000535783 -2.82281 -0.000506755
-1.36595 -0.000687428 -1.81694 -0.000571322 -2.70227 -0.000485114
-1.34232 -0.000675536 -1.92599 -0.000605609 -2.57687 -0.000462602
-1.31208 -0.000660316 -2.02733 -0.000637475 -2.45129 -0.000440059
-1.27515 -0.000641731 -2.11727 -0.000665756 -2.33007 -0.000418298
-1.23165 -0.000619837 -2.19225 -0.000689335 -2.21743 -0.000398075
-1.18177 -0.000594734 -2.24903 -0.000707189 -2.11709 -0.000380063
-1.1257 -0.000566516 -2.28479 -0.000718432 -2.03222 -0.000364826
-1.0636 -0.000535264 -2.29724 -0.000722345 -1.96523 -0.0003528
-0.995639 -0.000501064 -2.28466 -0.000718392 -1.91774 -0.000344275
-0.922066 -0.000464038 -2.24598 -0.000706229 -1.89053 -0.00033939
-0.843216 -0.000424356 -2.18074 -0.000685715 -1.88345 -0.000338119
-0.75954 -0.000382245 -2.08913 -0.000656909 -1.89546 -0.000340276
-0.671584 -0.000337981 -1.972 -0.000620079 -1.92466 -0.000345517
-0.579947 -0.000291863 -1.83084 -0.000575691 -1.96828 -0.000353348
-0.485889 -0.000244528 -1.66788 -0.00052445 -2.02269 -0.000363115
-0.396209 -0.000199396 -1.48397 -0.000466621 -2.08388 -0.0003741
-0.304256 -0.00015312 -1.2832 -0.000403492 -2.14754 -0.000385529
-0.209805 -0.000105586 -1.07038 -0.00033657 -2.20784 -0.000396354
-0.115417 -5.80848e-05 -0.849989 -0.000267271 -2.25902 -0.000405543
-0.0217767 -1.09593e-05 -0.625146 -0.000196572 -2.29584 -0.000412153
0.0682391 3.43419e-05 -0.399595 -0.000125649 -2.31329 -0.000415284
0.151556 7.62716e-05 -0.178952 -5.62699e-05 -2.30543 -0.000413874
0.23057 0.000116036 0.0345539 1.08652e-05 -2.26853 -0.00040725
0.305967 0.00015398 0.238521 7.50009e-05 -2.19856 -0.000394688
0.376002 0.000189226 0.425277 0.000133725 -2.09043 -0.000375277
0.439271 0.000221067 0.589776 0.00018545 -1.94364 -0.000348925
0.496431 0.000249833 0.735317 0.000231214 -1.7565 -0.000315328
0.547553 0.000275561 0.860835 0.000270682 -1.52831 -0.000274365
0.592165 0.000298012 0.964695 0.00030334 -1.25917 -0.000226048
0.630463 0.000317286 1.04576 0.00032883 -0.950657 -0.000170663
0.663199 0.00033376 1.10382 0.000347087 -0.605578 -0.000108714
0.690972 0.000347738 1.13936 0.000358262 -0.2275 -4.0841e-05
0.71436 0.000359508 1.15358 0.000362732 0.1578 2.83284e-05
0.734372 0.000369579 1.14758 0.000360847 0.554458 9.9537e-05
0.752166 0.000378534 1.12354 0.000353288 0.965971 0.000173412
0.768905 0.000386958 1.08387 0.000340814 1.38689 0.000248976
0.785796 0.000395459 1.03139 0.000324312 1.81072 0.000325064
0.80418 0.00040471 0.969328 0.000304796 2.22991 0.000400316
0.82531 0.000415344 0.90121 0.000283378 2.63659 0.000473325
0.850168 0.000427855 0.830764 0.000261226 3.02341 0.000542766
0.879363 0.000442547 0.761781 0.000239535 3.38358 0.000607425
0.913347 0.00045965 0.69783 0.000219426 3.71076 0.000666161
0.952471 0.000479339 0.642612 0.000202064 3.99693 0.000717535
0.997721 0.000502112 0.594988 0.000187088 4.10867 0.000737594
1.0483 0.000527567 0.562994 0.000177028 4.12959 0.000741349
1.10426 0.00055573 0.552577 0.000173753 4.11672 0.000739039
1.16429 0.000585941 0.561145 0.000176447 4.09871 0.000735806
1.22904 0.000618524 0.588692 0.000185109 4.10585 0.000737087
1.2978 0.000653129 0.637263 0.000200381 4.11189 0.000738172
1.37013 0.000689528 0.707631 0.000222508 4.06502 0.000729757
1.44612 0.000727772 0.800038 0.000251565 3.94756 0.000708671
1.5258 0.00076787 0.91137 0.000286572 3.77099 0.000676974
1.60892 0.000809701 1.03801 0.000326392 3.55906 0.000638927
1.69512 0.000853083 1.1776 0.000370286 3.32537 0.000596975
1.78393 0.000897779 1.3282 0.000417641 3.06727 0.000550641
1.87472 0.000943467 1.4868 0.000467511 2.77879 0.000498852
1.96665 0.000989733 1.64937 0.000518629 2.46457 0.000442443
2.0588 0.00103611 1.81183 0.000569715 2.13995 0.000384167
2.15007 0.00108204 1.97067 0.00061966 1.82009 0.000326745
2.23924 0.00112692 2.12269 0.000667462 1.51187 0.000271412
2.32501 0.00117008 2.26475 0.000712132 1.2162 0.000218333
2.40607 0.00121088 2.3938 0.000752709 0.93571 0.00016798
2.48096 0.00124856 2.50707 0.000788325 0.678347 0.000121778
2.51458 0.00126549 2.57362 0.000809252 0.464777 8.34374e-05
2.50713 0.00126173 2.59835 0.000817029 0.294448 5.28597e-05
2.50816 0.00126225 2.61122 0.000821075 0.159911 2.87074e-05
2.52474 0.0012706 2.62804 0.000826363 0.0553376 9.93428e-06
2.53696 0.00127675 2.63702 0.000829188 -0.0118116 -2.12044e-06
2.5346 0.00127556 2.6356 0.000828742 -0.0455032 -8.16879e-06
2.5323 0.0012744 2.62233 0.000824567 -0.041018 -7.36361e-06
2.52473 0.00127059 2.59495 0.00081596 0.00431342 7.7435e-07
2.50686 0.0012616 2.54939 0.000801632 0.0886469 1.5914e-05
2.47992 0.00124804 2.48598 0.000781693 0.207453 3.72421e-05
2.4473 0.00123162 2.40817 0.000757226 0.357618 6.42e-05
2.40931 0.00121251 2.31854 0.000729045 0.537379 9.64709e-05
2.36551 0.00119046 2.21908 0.000697769 0.743263 0.000133432
2.31766 0.00116638 2.11231 0.000664196 0.969064 0.000173968
2.26769 0.00114123 2.00093 0.000629175 1.20817 0.000216893
2.21646 0.00111545 1.88757 0.00059353 1.45533 0.000261263
2.16492 0.00108951 1.77535 0.000558241 1.70583 0.000306232
2.11466 0.00106422 1.66751 0.000524333 1.95424 0.000350828
2.06714 0.0010403 1.56669 0.000492631 2.19457 0.000393972
2.02342 0.0010183 1.47509 0.000463829 2.42108 0.000434636
1.98459 0.000998762 1.39507 0.000438666 2.62894 0.00047195
1.95175 0.000982237 1.32893 0.00041787 2.81412 0.000505194
1.92579 0.00096917 1.27844 0.000401992 2.97311 0.000533737
1.90732 0.000959874 1.24474 0.000391397 3.10279 0.000557018
1.89683 0.000954594 1.22868 0.000386349 3.20068 0.00057459
1.89357 0.000952954 1.23114 0.000387122 3.26517 0.000586168
1.89293 0.000952634 1.25366 0.000394201 3.29532 0.000591581
1.89513 0.00095374 1.29568 0.000407414 3.29181 0.00059095
1.90009 0.000956236 1.35596 0.00042637 3.25577 0.00058448
1.90771 0.00096007 1.43264 0.000450481 3.18915 0.000572519
1.91777 0.000965136 1.52348 0.000479043 3.09474 0.000555572
1.92999 0.000971284 1.62594 0.000511262 2.97618 0.000534287
1.94396 0.000978315 1.73715 0.000546233 2.83763 0.000509415
1.95918 0.000985974 1.85391 0.000582944 2.68362 0.000481766
1.975 0.000993936 1.97282 0.000620335 2.51893 0.000452201
1.99068 0.00100183 2.09053 0.00065735 2.34857 0.000421618
2.00544 0.00100926 2.20377 0.000692956 2.17759 0.000390923
2.01849 0.00101582 2.30935 0.000726155 2.01091 0.000361001
2.0291 0.00102116 2.40424 0.000755991 1.85316 0.000332681
2.0366 0.00102494 2.48567 0.000781596 1.70858 0.000306726
2.04047 0.00102688 2.55123 0.000802211 1.58093 0.00028381
2.04034 0.00102682 2.59892 0.000817208 1.47339 0.000264505
2.03603 0.00102465 2.62718 0.000826093 1.38844 0.000249255
2.02748 0.00102034 2.63491 0.000828525 1.3278 0.000238368
2.01469 0.00101391 2.62161 0.00082434 1.29237 0.000232008
1.99766 0.00100534 2.58735 0.000813568 1.28226 0.000230194
1.97628 0.000994579 2.53285 0.000796431 1.29674 0.000232793
1.95033 0.000981522 2.4594 0.000773338 1.33428 0.000239531
1.91953 0.000966021 2.36885 0.000744863 1.39261 0.000250003
1.88366 0.000947969 2.26343 0.000711714 1.46883 0.000263686
1.84267 0.00092734 2.14571 0.0006747 1.55951 0.000279965
1.79666 0.000904186 2.01851 0.000634701 1.66077 0.000298144
1.74588 0.000878629 1.88476 0.000592644 1.76846 0.000317477
1.69067 0.000850842 1.74748 0.000549479 1.87822 0.000337181
1.63141 0.000821021 1.60969 0.000506152 1.98564 0.000356465
1.56849 0.000789358 1.47432 0.000463586 2.08641 0.000374555
1.50226 0.000756026 1.34414 0.000422653 2.17638 0.000390706
1.43308 0.000721211 1.22166 0.00038414 2.25175 0.000404238
1.36145 0.000685161 1.10902 0.000348721 2.30917 0.000414544
1.28812 0.00064826 1.00788 0.000316919 2.34579 0.000421118
1.2142 0.000611057 0.919367 0.000289087 2.3594 0.000423562
1.14102 0.000574229 0.844084 0.000265415 2.34843 0.000421594
1.06998 0.000538474 0.782169 0.000245946 2.31198 0.00041505
1.0023 0.000504418 0.733392 0.000230608 2.24978 0.000403883
0.938937 0.000472528 0.697227 0.000219237 2.16219 0.000388159
0.880413 0.000443075 0.67291 0.00021159 2.05017 0.000368049
0.826894 0.000416142 0.659463 0.000207362 1.91522 0.000343823
0.778231 0.000391652 0.655714 0.000206183 1.75937 0.000315844
0.734033 0.000369408 0.660306 0.000207627 1.58509 0.000284557
0.693702 0.000349111 0.671734 0.000211221 1.39526 0.000250478
0.656476 0.000330377 0.688369 0.000216451 1.19307 0.000214181
0.621495 0.000312773 0.708487 0.000222777 0.981967 0.000176284
0.587891 0.000295861 0.730282 0.00022963 0.765582 0.000137438
0.554811 0.000279213 0.751908 0.000236431 0.547619 9.83092e-05
0.521342 0.00026237 0.771554 0.000242608 0.331772 5.95602e-05
0.486457 0.000244813 0.787504 0.000247624 0.121642 2.18373e-05
0.448976 0.000225951 0.798524 0.000251089 -0.0732215 -1.31448e-05
0.407756 0.000205207 0.803251 0.000252575 -0.256512 -4.60494e-05
0.361815 0.000182086 0.799456 0.000251382 -0.420513 -7.5491e-05
0.310437 0.00015623 0.786526 0.000247316 -0.567987 -0.000101966
0.253751 0.000127703 0.763883 0.000240196 -0.699334 -0.000125545
0.214271 0.000107834 0.72549 0.000228124 -0.812718 -0.0001459
0.173289 8.72093e-05 0.671354 0.000211101 -0.903325 -0.000162166
0.125133 6.29742e-05 0.605897 0.000190519 -0.972514 -0.000174587
0.0734349 3.69567e-05 0.531854 0.000167237 -1.0211 -0.000183309
0.0177372 8.92639e-06 0.448739 0.000141102 -1.0514 -0.000188749
-0.0429394 -2.16096e-05 0.355653 0.000111832 -1.06434 -0.000191071
-0.103648 -5.21619e-05 0.259572 8.16202e-05 -1.06226 -0.000190698
-0.161228 -8.11393e-05 0.1598 5.02475e-05 -1.04347 -0.000187325
-0.22134 -0.000111391 0.0528522 1.66189e-05 -1.01021 -0.000181355
-0.283916 -0.000142883 -0.0613374 -1.9287e-05 -0.963585 -0.000172984
-0.346531 -0.000174395 -0.178543 -5.61411e-05 -0.909202 -0.000163221
-0.407563 -0.00020511 -0.295432 -9.28961e-05 -0.849029 -0.000152419
-0.467948 -0.000235499 -0.410872 -0.000129195 -0.785581 -0.000141029
-0.527547 -0.000265493 -0.523749 -0.000164688 -0.721977 -0.00012961
-0.585114 -0.000294464 -0.632281 -0.000198815 -0.662001 -0.000118843
-0.640105 -0.000322138 -0.734727 -0.000231028 -0.608675 -0.00010927
-0.692569 -0.000348541 -0.829599 -0.00026086 -0.564287 -0.000101301
-0.742162 -0.000373499 -0.915474 -0.000287863 -0.531066 -9.53377e-05
-0.788337 -0.000396737 -0.991231 -0.000311684 -0.511212 -9.17734e-05
-0.830936 -0.000418176 -1.05615 -0.000332097 -0.50646 -9.09204e-05
-0.870026 -0.000437848 -1.10961 -0.000348908 -0.517926 -9.29787e-05
-0.905567 -0.000455735 -1.15104 -0.000361933 -0.546241 -9.80618e-05
-0.937529 -0.00047182 -1.1802 -0.000371103 -0.591626 -0.000106209
-0.966056 -0.000486176 -1.19738 -0.000376506 -0.653828 -0.000117376
-0.991388 -0.000498924 -1.20311 -0.000378309 -0.732071 -0.000131422
-1.01379 -0.000510201 -1.19804 -0.000376711 -0.825076 -0.000148119
-1.03364 -0.00052019 -1.18299 -0.000371982 -0.931145 -0.00016716
-1.05144 -0.000529144 -1.15912 -0.000364475 -1.04451 -0.000187512
-1.0678 -0.000537382 -1.12733 -0.00035448 -1.15745 -0.000207786
-1.08321 -0.000545136 -1.08997 -0.000342732 -1.27192 -0.000228336
-1.09841 -0.000552783 -1.04828 -0.000329622 -1.38926 -0.000249402
-1.11387 -0.000560562 -1.00394 -0.000315681 -1.508 -0.000270719
-1.13022 -0.000568792 -0.958885 -0.000301513 -1.62569 -0.000291846
-1.14798 -0.000577731 -0.91515 -0.000287761 -1.73867 -0.000312128
-1.16768 -0.000587643 -0.87463 -0.00027502 -1.84354 -0.000330954
-1.18979 -0.000598774 -0.839046 -0.000263831 -1.93807 -0.000347926
-1.21476 -0.000611339 -0.810045 -0.000254711 -2.02094 -0.000362802
-1.24287 -0.000625484 -0.789233 -0.000248167 -2.09077 -0.000375337
-1.27422 -0.000641262 -0.778106 -0.000244668 -2.14575 -0.000385208
-1.30874 -0.000658636 -0.77795 -0.000244619 -2.18415 -0.000392101
-1.34619 -0.000677479 -0.789794 -0.000248344 -2.20499 -0.000395842
-1.38618 -0.000697607 -0.814384 -0.000256076 -2.20806 -0.000396394
-1.4283 -0.000718807 -0.852081 -0.000267929 -2.1923 -0.000393564
-1.4721 -0.000740848 -0.902969 -0.00028393 -2.15797 -0.000387401
-1.51714 -0.000763512 -0.96671 -0.000303973 -2.10604 -0.000378078
-1.56297 -0.00078658 -1.04254 -0.000327818 -2.03829 -0.000365917
-1.60923 -0.000809859 -1.12932 -0.000355105 -1.9574 -0.000351395
-1.65557 -0.000833179 -1.22557 -0.00038537 -1.86649 -0.000335074
-1.70172 -0.000856404 -1.32951 -0.000418054 -1.76881 -0.00031754
-1.74746 -0.000879425 -1.4391 -0.000452513 -1.66772 -0.000299392
-1.79248 -0.000902079 -1.55216 -0.000488063 -1.56676 -0.000281267
-1.83546 -0.00092371 -1.6668 -0.000524112 -1.46963 -0.000263829
-1.87672 -0.000944473 -1.78056 -0.000559881 -1.38031 -0.000247795
-1.91644 -0.000964463 -1.8909 -0.000594577 -1.30253 -0.000233832
-1.95463 -0.000983683 -1.99542 -0.000627441 -1.23963 -0.00022254
-1.99124 -0.00100211 -2.09202 -0.000657817 -1.19458 -0.000214453
-2.02618 -0.00101969 -2.17897 -0.000685158 -1.16995 -0.000210032
-2.05923 -0.00103632 -2.25482 -0.000709009 -1.16786 -0.000209655
-2.08571 -0.00104965 -2.32044 -0.00072964 -1.18912 -0.000213473
-2.10855 -0.00106115 -2.3738 -0.000746419 -1.23529 -0.000221762
-2.12656 -0.00107021 -2.41419 -0.00075912 -1.30678 -0.000234594
-2.13994 -0.00107694 -2.44148 -0.000767701 -1.403 -0.000251868
-2.1492 -0.0010816 -2.45585 -0.00077222 -1.52295 -0.000273401
-2.15404 -0.00108404 -2.45751 -0.000772742 -1.66532 -0.00029896
-2.15404 -0.00108404 -2.44667 -0.000769333 -1.82843 -0.000328242
-2.14932 -0.00108167 -2.42426 -0.000762288 -2.0096 -0.000360766
-2.14048 -0.00107721 -2.39153 -0.000751995 -2.1993 -0.000394821
-2.12815 -0.00107101 -2.34905 -0.000738636 -2.38399 -0.000427976
-2.11251 -0.00106314 -2.29995 -0.000723199 -2.57069 -0.000461493
-2.09422 -0.00105393 -2.24536 -0.000706034 -2.76061 -0.000495588
-2.07365 -0.00104358 -2.18708 -0.000687709 -2.95218 -0.000529979
-2.05142 -0.00103239 -2.12712 -0.000668854 -3.14187 -0.000564033
-2.028 -0.00102061 -2.06755 -0.000650122 -3.3243 -0.000596782
-2.00403 -0.00100855 -2.01022 -0.000632094 -3.4946 -0.000627356
-1.98009 -0.000996499 -1.95671 -0.000615269 -3.6499 -0.000655234
-1.95672 -0.000984735 -1.90844 -0.000600092 -3.78859 -0.000680133
-1.93337 -0.000972985 -1.86704 -0.000587073 -3.90877 -0.000701707
-1.90776 -0.000960096 -1.83449 -0.000576839 -4.00748 -0.000719429
-1.87975 -0.000945998 -1.81169 -0.000569668 -4.08223 -0.000732847
-1.84897 -0.000930511 -1.79905 -0.000565694 -4.13149 -0.00074169
-1.81519 -0.00091351 -1.79651 -0.000564896 -4.1551 -0.00074593
-1.77835 -0.000894971 -1.80352 -0.000567102 -4.1528 -0.000745516
-1.73872 -0.000875028 -1.81899 -0.000571965 -4.12317 -0.000740197
-1.69678 -0.000853921 -1.84152 -0.000579049 -4.0664 -0.000730006
-1.65304 -0.000831906 -1.86927 -0.000587774 -3.98393 -0.000715201
-1.60786 -0.000809171 -1.90012 -0.000597474 -3.87834 -0.000696244
-1.56144 -0.000785808 -1.93185 -0.000607452 -3.7529 -0.000673725
-1.51382 -0.000761845 -1.96223 -0.000617006 -3.61082 -0.000648218
-1.46505 -0.000737301 -1.989 -0.000625423 -3.45499 -0.000620244
-1.41517 -0.000712199 -2.00987 -0.000631987 -3.28831 -0.000590321
-1.36415 -0.000686522 -2.02267 -0.000636012 -3.11396 -0.000559022
-1.31178 -0.000660163 -2.02547 -0.00063689 -2.93531 -0.000526951
-1.25769 -0.000632945 -2.01662 -0.000634108 -2.7555 -0.000494671
-1.20157 -0.000604702 -1.99476 -0.000627235 -2.57713 -0.00046265
-1.14325 -0.00057535 -1.95878 -0.000615921 -2.40231 -0.000431266
-1.08275 -0.000544904 -1.90783 -0.0005999 -2.23284 -0.000400843
-1.02025 -0.000513449 -1.8414 -0.000579013 -2.07028 -0.000371659
-0.955965 -0.000481097 -1.75939 -0.000553224 -1.91575 -0.000343917
-0.890076 -0.000447939 -1.6621 -0.000522632 -1.76981 -0.000317718
-0.822667 -0.000414014 -1.55027 -0.00048747 -1.6324 -0.000293051
-0.753675 -0.000379293 -1.4251 -0.00044811 -1.50298 -0.000269817
-0.68293 -0.00034369 -1.28814 -0.000405044 -1.38063 -0.000247852
-0.610221 -0.000307099 -1.14127 -0.000358862 -1.26412 -0.000226937
-0.53537 -0.000269429 -0.986589 -0.000310224 -1.15194 -0.000206798
-0.458307 -0.000230647 -0.826332 -0.000259833 -1.04228 -0.000187111
-0.379136 -0.000190804 -0.662779 -0.000208405 -0.933179 -0.000167526
-0.298147 -0.000150045 -0.49819 -0.000156651 -0.822657 -0.000147684
-0.215752 -0.000108579 -0.33476 -0.000105262 -0.7088 -0.000127245
-0.132432 -6.66478e-05 -0.174581 -5.48954e-05 -0.589815 -0.000105884
-0.0491265 -2.47233e-05 -0.0195152 -6.13639e-06 -0.463926 -8.32846e-05
0.0274572 1.3818e-05 0.122083 3.83878e-05 -0.327717 -5.88322e-05
0.0978707 4.92543e-05 0.248247 7.8059e-05 -0.181119 -3.25148e-05
0.167894 8.44939e-05 0.365217 0.000114839 -0.0305802 -5.48979e-06
0.222154 0.000111801 0.479409 0.000150746 0.104549 1.87687e-05
0.273101 0.00013744 0.584352 0.000183744 0.244889 4.39628e-05
0.319083 0.000160581 0.677506 0.000213036 0.392597 7.04795e-05
0.361041 0.000181697 0.757614 0.000238225 0.549741 9.86902e-05
0.399627 0.000201116 0.825159 0.000259464 0.715553 0.000128457
0.434509 0.000218671 0.88047 0.000276856 0.887779 0.000159375
0.465535 0.000234284 0.923424 0.000290362 1.06373 0.000190961
0.493319 0.000248267 0.953944 0.000299959 1.24176 0.000222923
0.518433 0.000260906 0.972346 0.000305745 1.42123 0.000255141
0.541205 0.000272366 0.979479 0.000307988 1.60099 0.000287411
0.562159 0.000282912 0.976549 0.000307067 1.77837 0.000319256
0.582053 0.000292923 0.964744 0.000303355 1.94987 0.000350044
0.60157 0.000302745 0.94517 0.0002972 2.11248 0.000379236
0.621281 0.000312665 0.919176 0.000289027 2.26411 0.000406456
0.641782 0.000322982 0.888481 0.000279375 2.40286 0.000431364
0.663683 0.000334004 0.854902 0.000268816 2.52626 0.000453517
0.68752 0.000346 0.820131 0.000257883 2.63143 0.000472397
0.713762 0.000359207 0.785799 0.000247087 2.71577 0.000487538
0.742819 0.00037383 0.753593 0.000236961 2.77743 0.000498608
0.774991 0.000390021 0.725206 0.000228035 2.81514 0.000505378
0.810419 0.00040785 0.702196 0.000220799 2.82782 0.000507654
0.849104 0.000427319 0.685857 0.000215662 2.8123 0.000504867
0.890912 0.000448359 0.677373 0.000212994 2.76683 0.000496705
0.935639 0.000470868 0.677746 0.000213111 2.69107 0.000483105
0.983009 0.000494708 0.687658 0.000216228 2.58594 0.000464231
1.03273 0.000519732 0.707426 0.000222444 2.45323 0.000440407
1.08452 0.000545795 0.737051 0.000231759 2.29506 0.000412012
1.13811 0.000572763 0.776229 0.000244078 2.11374 0.000379461
1.19325 0.000600512 0.824338 0.000259206 1.912 0.000343245
1.24972 0.000628932 0.880444 0.000276848 1.69329 0.000303982
1.30728 0.000657901 0.94335 0.000296628 1.46169 0.000262405
1.36566 0.00068728 1.01168 0.000318113 1.22157 0.000219298
1.42451 0.000716896 1.08393 0.000340832 0.977352 0.000175455
1.48343 0.000746547 1.15854 0.000364291 0.733445 0.000131669
1.54195 0.000775998 1.2339 0.000387988 0.494331 8.8743e-05
1.59958 0.000805002 1.30842 0.00041142 0.264553 4.7493e-05
1.65582 0.000833303 1.38055 0.000434103 0.0485592 8.71741e-06
1.71011 0.000860626 1.4493 0.000455719 -0.147914 -2.65537e-05
1.76208 0.000886783 1.51284 0.000475698 -0.322573 -5.79087e-05
1.81125 0.000911525 1.56988 0.000493633 -0.471287 -8.46061e-05
1.85738 0.000934741 1.61973 0.00050931 -0.593232 -0.000106498
1.9001 0.000956241 1.66187 0.000522561 -0.687304 -0.000123386
1.93926 0.000975951 1.69558 0.00053316 -0.751056 -0.00013483
1.97476 0.000993817 1.72043 0.000540975 -0.782029 -0.000140391
2.00657 0.00100982 1.73651 0.000546031 -0.778369 -0.000139734
2.03471 0.00102399 1.74433 0.000548489 -0.73881 -0.000132632
2.05929 0.00103636 1.74441 0.000548515 -0.664269 -0.00011925
2.08044 0.001047 1.73748 0.000546336 -0.556135 -9.98381e-05
2.09835 0.00105601 1.72453 0.000542263 -0.415962 -7.46741e-05
2.11324 0.00106351 1.7068 0.000536689 -0.24596 -4.4155e-05
2.1255 0.00106968 1.68569 0.000530051 -0.0490258 -8.80118e-06
2.13562 0.00107477 1.66219 0.000522662 0.144641 2.59661e-05
2.14395 0.00107896 1.63832 0.000515156 0.352389 6.32614e-05
2.15112 0.00108257 1.61532 0.000507922 0.573843 0.000103017
2.15768 0.00108587 1.5948 0.00050147 0.806689 0.000144818
2.16351 0.00108881 1.57857 0.000496368 1.0474 0.000188031
2.15243 0.00108323 1.57392 0.000494904 1.28922 0.000231443
2.1446 0.00107929 1.57475 0.000495167 1.53182 0.000274994
2.13861 0.00107627 1.583 0.000497761 1.77008 0.000317768
2.13606 0.00107499 1.59874 0.000502709 2.00228 0.000359451
2.13718 0.00107556 1.62262 0.000510219 2.22619 0.000399648
2.14191 0.00107794 1.65516 0.000520451 2.43966 0.000437971
2.15042 0.00108222 1.69674 0.000533525 2.64001 0.000473937
2.16296 0.00108853 1.74727 0.000549414 2.82498 0.000507143
2.17946 0.00109683 1.80623 0.000567952 2.99343 0.000537384
2.19892 0.00110663 1.87197 0.000588623 3.14534 0.000564655
2.22001 0.00111724 1.94411 0.000611309 3.28037 0.000588896
2.24419 0.00112941 2.02235 0.000635911 3.39778 0.000609973
2.27171 0.00114326 2.10618 0.000662269 3.49694 0.000627775
2.30075 0.00115787 2.1943 0.000689978 3.57856 0.000642428
2.32922 0.0011722 2.2861 0.000718843 3.6435 0.000654087
2.26251 0.00113863 37.5448 0.0794503 3.53295 0.000634239
2.14192 0.00107794 8.93253 0.261467 2.70262 0.000485177
2.20345 0.0011089 8.93253 0.281581 2.98538 0.00053594
2.12164 0.00106773 8.93253 0.294032 2.96072 0.000531513
2.13046 0.00107217 8.93253 0.298095 2.73251 0.000490543
2.20855 0.00111147 8.93253 0.313925 2.61153 0.000468825
2.22162 0.00111805 8.93253 0.336558 2.65876 0.000477304
2.19417 0.00110423 8.93253 0.359079 2.66257 0.000477988
2.20668 0.00111053 8.93253 0.376842 2.52258 0.000452857
2.23514 0.00112485 8.93253 0.390879 2.36615 0.000424773
2.23594 0.00112526 8.93253 0.405747 2.32174 0.000416801
2.22568 0.00112009 8.93253 0.423712 2.35373 0.000422545
2.22776 0.00112114 8.93253 0.441895 2.35975 0.000423625
2.23115 0.00112285 8.93253 0.456629 2.32197 0.000416842
2.22569 0.0011201 8.93253 0.467913 2.30933 0.000414574
2.21869 0.00111658 8.93253 0.477871 2.3742 0.000426219
2.21348 0.00111395 8.93253 0.487739 2.49476 0.000447862
2.20581 0.00111009 8.93253 0.495284 2.62435 0.000471126
2.19261 0.00110345 8.93253 0.499466 2.74384 0.000492578
2.17653 0.00109536 8.93253 0.501377 2.88536 0.000517983
2.15901 0.00108654 8.93253 0.502424 3.07464 0.000551963
2.13658 0.00107525 8.89978 0.502756 3.3064 0.000593569
2.1072 0.00106047 7.81441 0.502414 3.50492 0.000629208
2.07333 0.00104342 5.21241 0.501596 3.65925 0.000656914
2.03585 0.00102456 1.6948 0.50049 3.75899 0.000674819
1.99518 0.00100409 -0.15849 0.497542 3.80155 0.000682459
1.95005 0.000981378 -0.5552 0.491496 3.82317 0.00068634
1.90092 0.000956657 -1.02588 0.484323 3.83608 0.000688659
1.85026 0.000931157 -1.54891 0.476352 3.86232 0.000693368
1.79628 0.000903992 -2.10079 0.467942 3.90784 0.000701541
1.7387 0.000875018 -2.68708 0.459007 3.95721 0.000710404
1.67845 0.000844693 -3.30861 0.449534 3.99123 0.000716511
1.61651 0.000813522 -3.95644 0.439662 4.00953 0.000719795
1.55224 0.000781176 -4.60847 0.429725 4.02634 0.000722813
1.48568 0.000747683 -5.24584 0.420011 4.05294 0.000727589
1.41727 0.000713254 -5.85697 0.410698 4.08458 0.00073327
1.34737 0.000678074 -6.4405 0.401805 4.10908 0.000737667
1.27617 0.000642242 -6.99727 0.39332 4.12079 0.000739769
1.20402 0.000605934 -7.52376 0.385296 4.12481 0.000740491
1.13146 0.000569415 -8.0147 0.377814 4.12567 0.000740645
1.04131 0.000524048 -8.58631 0.369103 4.09164 0.000734537
0.952691 0.00047945 -9.12341 0.360918 3.99657 0.00071747
0.866729 0.000436189 -9.63466 0.353126 3.8347 0.00068841
0.78393 0.00039452 -10.1279 0.345609 3.61994 0.000649857
0.703935 0.000354261 -10.6138 0.338205 3.36379 0.000603872
0.625923 0.000315001 -11.1054 0.330712 3.0661 0.000550431
0.548897 0.000276237 -11.6161 0.32293 2.72686 0.00048953
0.471991 0.000237534 -12.1592 0.314652 2.3559 0.000422935
0.394679 0.000198626 -12.7501 0.305648 1.96581 0.000352904
0.320028 0.000161057 -13.4034 0.295691 1.56253 0.000280508
0.277967 0.000139889 -14.1679 0.284041 1.1568 0.000207669
0.233953 0.000117739 -15.0583 0.270471 0.751907 0.000134983
0.189419 9.5327e-05 -16.0278 0.255695 0.351162 6.3041e-05
0.141748 7.13357e-05 -17.0594 0.239974 -0.00217988 -3.91335e-07
0.085633 4.30956e-05 -18.1463 0.223409 -0.2504 -4.49521e-05
0.0257307 1.29492e-05 -19.3218 0.205496 -0.453481 -8.14096e-05
-0.0381664 -1.92075e-05 -20.5715 0.18645 -0.641792 -0.000115215
-0.102915 -5.17927e-05 -21.8733 0.166611 -0.840214 -0.000150836
-0.169485 -8.52947e-05 -23.2339 0.145875 -1.03078 -0.000185047
-0.238983 -0.00012027 -24.6517 0.124269 -1.19713 -0.00021491
-0.310739 -0.000156382 -26.1222 0.101859 -1.34354 -0.000241194
-0.382646 -0.00019257 -27.6312 0.078861 -1.48533 -0.000266649
-0.455743 -0.000229357 -29.1712 0.0553923 -1.62392 -0.000291528
-0.535879 -0.000269686 -30.3576 0.0373117 -1.77075 -0.000317887
-0.610872 -0.000307427 -31.4865 0.0201075 -1.89469 -0.000340137
-0.687898 -0.000346191 -32.6307 0.00266912 -2.01456 -0.000361656
-0.781171 -0.000393131 -32.8028 4.58954e-05 -2.19095 -0.000393323
-0.858923 -0.00043226 -32.815 -0.000139079 -2.33746 -0.000419624
-0.943206 -0.000474677 -32.8224 -0.000251642 -2.48457 -0.000446034
-1.02116 -0.00051391 -32.8282 -0.000339853 -2.64796 -0.000475365
-1.0885 -0.000547798 -32.8324 -0.000404684 -2.81109 -0.000504651
-1.15274 -0.000580126 -32.8355 -0.000451155 -2.96691 -0.000532623
-1.20991 -0.000608899 -32.8379 -0.000488353 -3.12863 -0.000561655
-1.25791 -0.000633053 -32.8399 -0.000518725 -3.29734 -0.000591943
-1.29997 -0.000654219 -32.8412 -0.000539189 -3.46233 -0.000621563
-1.33565 -0.000672177 -32.8419 -0.00054957 -3.62309 -0.000650421
-1.36461 -0.000686752 -32.8422 -0.000553292 -3.78393 -0.000679296
-1.38855 -0.000698802 -32.836 -0.000551456 -3.94068 -0.000707436
-1.40805 -0.000708611 -32.809 -0.00054296 -4.08605 -0.000733533
-1.42342 -0.000716351 -32.7623 -0.000528302 -4.2182 -0.000757257
-1.43559 -0.000722472 -32.7015 -0.000509165 -4.33679 -0.000778546
-1.44513 -0.000727275 -32.6295 -0.00048654 -4.43759 -0.000796641
-1.45292 -0.000731195 -32.5485 -0.000461073 -4.51518 -0.000810571
-1.46041 -0.000734963 -32.4618 -0.000433802 -4.53219 -0.000813624
-1.46826 -0.000738912 -32.3771 -0.000407174 -4.52739 -0.000812764
-1.47799 -0.00074381 -32.2962 -0.000381723 -4.51105 -0.00080983
-1.49094 -0.000750327 -32.2199 -0.000357725 -4.4537 -0.000799534
-1.50846 -0.000759146 -32.1534 -0.000336838 -4.33808 -0.000778778
-1.53025 -0.000770112 -32.0985 -0.000319563 -4.16076 -0.000746946
-1.55697 -0.00078356 -32.0558 -0.000306132 -3.93106 -0.000705708
-1.58956 -0.00079996 -32.0266 -0.000296947 -3.65828 -0.00065674
-1.62806 -0.000819337 -32.0127 -0.000292575 -3.3429 -0.000600121
-1.67133 -0.00084111 -32.0144 -0.000293113 -2.98591 -0.000536035
-1.7191 -0.000865153 -32.031 -0.000298323 -2.59589 -0.000466017
-1.77025 -0.000890892 -32.0606 -0.000307644 -2.18525 -0.000392299
-1.82342 -0.000917652 -32.1014 -0.000320475 -1.76287 -0.000316472
-1.87743 -0.000944832 -32.1511 -0.000336117 -1.3352 -0.000239697
-1.93087 -0.000971725 -32.2068 -0.000353631 -0.911378 -0.000163612
-1.98227 -0.000997597 -32.2654 -0.000372055 -0.503353 -9.03626e-05
-2.03035 -0.00102179 -32.3242 -0.000390527 -0.12171 -2.18495e-05
-2.07326 -0.00104339 -32.3852 -0.000409706 0.125267 2.2488e-05
-2.1107 -0.00106223 -32.4388 -0.000426563 0.277952 4.98982e-05
-2.14141 -0.00107768 -32.4845 -0.000440947 0.400858 7.19625e-05
-2.16497 -0.00108954 -32.5224 -0.000452869 0.511506 9.18261e-05
-2.18063 -0.00109742 -32.5497 -0.000461436 0.60493 0.000108598
-2.18704 -0.00110065 -32.5643 -0.00046604 0.657195 0.00011798
-2.18211 -0.00109816 -32.5668 -0.000466822 0.666253 0.000119607
-2.16475 -0.00108943 -32.5572 -0.000463794 0.633111 0.000113657
-2.13547 -0.00107469 -32.535 -0.000456811 0.552007 9.90971e-05
-2.09533 -0.00105449 -32.4999 -0.000445769 0.413942 7.43114e-05
-2.04547 -0.0010294 -32.4529 -0.000431009 0.2194 3.9387e-05
-1.98748 -0.00100022 -32.3953 -0.000412892 -0.0203611 -3.65525e-06
-1.92347 -0.000968004 -32.3273 -0.000391494 -0.286876 -5.15004e-05
-1.85541 -0.000933753 -32.2517 -0.00036772 -0.579608 -0.000104052
-1.78507 -0.00089835 -32.1701 -0.000342071 -0.898616 -0.000161321
-1.71401 -0.000862589 -32.0855 -0.000315469 -1.23782 -0.000222215
-1.64304 -0.000826872 -32.0017 -0.000289123 -1.58254 -0.000284099
-1.57229 -0.00079127 -31.9229 -0.000264342 -1.92329 -0.000345272
-1.50145 -0.000755619 -31.8534 -0.000242507 -2.25496 -0.000404814
-1.43007 -0.000719695 -31.7978 -0.000225007 -2.57216 -0.000461757
-1.35791 -0.00068338 -31.7597 -0.000213028 -2.86585 -0.00051448
-1.28506 -0.000646716 -31.7415 -0.000207296 -3.12823 -0.000561583
-1.21164 -0.000609768 -31.7436 -0.000207979 -3.35536 -0.000602358
-1.13757 -0.000572493 -31.7651 -0.000214733 -3.54527 -0.000636452
-1.06257 -0.000534745 -31.8033 -0.000226744 -3.69534 -0.000663392
-0.986183 -0.000496305 -31.8544 -0.000242818 -3.80325 -0.000682764
-0.907848 -0.000456882 -31.9139 -0.000261505 -3.86896 -0.00069456
-0.826756 -0.000416072 -31.9766 -0.000281248 -3.89449 -0.000699144
-0.741817 -0.000373326 -32.0377 -0.00030045 -3.88041 -0.000696617
-0.651831 -0.000328039 -32.092 -0.000317527 -3.82686 -0.000687003
-0.555939 -0.000279781 -32.1345 -0.000330896 -3.73713 -0.000670894
-0.453982 -0.00022847 -32.1599 -0.000338857 -3.61636 -0.000649214
-0.356167 -0.000179244 -32.1597 -0.000338814 -3.47019 -0.000622973
-0.309916 -0.000155968 -32.1091 -0.000322883 -3.30659 -0.000593604
-0.249108 -0.000125366 -32.0268 -0.000297003 -3.12338 -0.000560713
-0.183735 -9.24661e-05 -31.9128 -0.000261171 -2.9229 -0.000524722
-0.113246 -5.69922e-05 -31.7578 -0.000212437 -2.7074 -0.000486035
-0.0374842 -1.88643e-05 -31.5467 -0.00014604 -2.47827 -0.000444902
0.0415961 2.09336e-05 -31.2566 -5.48262e-05 -2.23681 -0.000401554
0.120071 6.0427e-05 -30.8341 7.80181e-05 -1.98266 -0.000355929
0.1928 9.70282e-05 -30.086 0.000313242 -1.71475 -0.000307835
0.264127 0.000132924 -27.166 0.00123143 -1.43693 -0.00025796
0.334268 0.000168223 -17.4302 0.00429275 -1.15442 -0.000207243
0.401716 0.000202167 -6.40458 0.00775966 -0.855967 -0.000153664
0.456865 0.000229921 0.149342 0.0180158 -0.57805 -0.000103772
0.506307 0.000254803 0.524634 0.0387284 -0.318195 -5.71228e-05
0.551802 0.000277699 0.950682 0.0622423 -0.0740679 -1.32968e-05
0.590819 0.000297335 1.35388 0.0844953 0.0790441 1.41901e-05
0.628964 0.000316531 1.7434 0.105993 0.213561 3.83388e-05
0.665327 0.000334832 2.12369 0.126981 0.368408 6.61371e-05
0.697538 0.000351042 2.49068 0.147236 0.555158 9.96627e-05
0.728282 0.000366514 2.83493 0.166235 0.745405 0.000133816
0.757652 0.000381295 3.15381 0.183834 0.931731 0.000167266
0.784036 0.000394573 3.44928 0.200142 1.12858 0.000202604
0.807932 0.000406599 3.72187 0.215186 1.34175 0.000240872
0.829163 0.000417283 3.96831 0.228787 1.5614 0.000280305
0.847141 0.000426331 4.18728 0.240872 1.77936 0.000319433
0.863634 0.000434631 4.38206 0.251622 1.99663 0.000358438
0.878567 0.000442147 4.55355 0.261087 2.21554 0.000397737
0.891834 0.000448823 4.7014 0.269247 2.4323 0.00043665
0.903806 0.000454848 4.82802 0.276235 2.64025 0.000473981
0.914327 0.000460143 4.93682 0.28224 2.83626 0.000509169
0.923185 0.000464601 5.02968 0.287365 3.01937 0.000542041
0.93048 0.000468272 5.10852 0.291716 3.18739 0.000572205
0.936101 0.000471101 5.17565 0.295421 3.33663 0.000598995
0.939795 0.00047296 5.23344 0.298611 3.46381 0.000621828
0.941388 0.000473761 5.2835 0.301374 3.56729 0.000640405
0.940699 0.000473415 5.32684 0.303766 3.64628 0.000654586
0.933584 0.000469834 5.36566 0.305908 3.69935 0.000664112
0.919322 0.000462657 5.40116 0.307867 3.72547 0.0006688
0.898747 0.000452302 5.43182 0.309559 3.72136 0.000668064
0.873448 0.00043957 5.45359 0.310761 3.67559 0.000659847
0.845296 0.000425402 5.46299 0.311279 3.58575 0.000643719
0.815789 0.000410553 5.13251 0.31118 3.45467 0.000620186
0.786186 0.000395655 4.04858 0.31084 3.28648 0.000589994
0.757411 0.000381174 2.10984 0.31023 3.08615 0.00055403
0.730192 0.000367476 -0.0670945 0.308925 2.85781 0.000513038
0.706077 0.000355339 -0.509492 0.304698 2.61322 0.000469129
0.682237 0.000343341 -1.14133 0.29866 2.34824 0.00042156
0.659866 0.000332083 -1.90892 0.291325 2.07082 0.000371756
0.637781 0.000320969 -2.84038 0.282424 1.78675 0.00032076
0.615387 0.000309699 -3.97511 0.27158 1.49692 0.000268728
0.593477 0.000298672 -5.27882 0.259122 1.20305 0.000215973
0.572041 0.000287885 -6.7217 0.245334 0.911035 0.00016355
0.550712 0.00027715 -8.29117 0.230336 0.623004 0.000111843
0.52982 0.000266637 -9.97885 0.214208 0.3382 6.07141e-05
0.509186 0.000256252 -11.7654 0.197136 0.0796674 1.4302e-05
0.487931 0.000245556 -13.5948 0.179654 -0.131149 -2.35441e-05
0.465986 0.000234512 -15.459 0.16184 -0.295255 -5.30046e-05
0.442715 0.0002228 -17.3474 0.143793 -0.446928 -8.02331e-05
0.416777 0.000209747 -19.2307 0.125797 -0.608569 -0.000109251
0.387525 0.000195025 -21.0728 0.108194 -0.779582 -0.000139951
0.353989 0.000178148 -22.8516 0.0911948 -0.946339 -0.000169888
0.315491 0.000158774 -24.5467 0.0749963 -1.1061 -0.000198568
0.271705 0.000136738 -26.1378 0.0597919 -1.26894 -0.000227803
0.220463 0.00011095 -27.4735 0.0470277 -1.44429 -0.000259281
0.164551 8.28118e-05 -28.576 0.0364927 -1.6211 -0.000291022
0.101837 5.12503e-05 -29.5669 0.0270231 -1.7924 -0.000321775
0.0331705 1.66933e-05 -30.4592 0.0184967 -1.96215 -0.000352247
-0.0365855 -1.8412e-05 -31.2311 0.0111205 -2.13294 -0.000382907
-0.109538 -5.51262e-05 -31.8989 0.00473822 -2.29828 -0.000412591
-0.165965 -8.35231e-05 -32.3216 0.000699041 -2.45568 -0.000440848
-0.223995 -0.000112727 -32.3522 0.00040708 -2.61061 -0.00046866
-0.278445 -0.00014013 -32.3654 0.000280854 -2.75147 -0.000493948
-0.335138 -0.000168661 -32.3741 0.000197475 -2.87996 -0.000517015
-0.391933 -0.000197244 -32.3804 0.000137552 -2.99417 -0.000537517
-0.447831 -0.000225375 -32.3848 9.50791e-05 -3.08865 -0.000554479
-0.505385 -0.000254339 -32.3884 6.09828e-05 -3.16471 -0.000568133
-0.56391 -0.000283793 -32.3915 3.11076e-05 -3.22395 -0.000578767
-0.623 -0.00031353 -32.3942 5.2912e-06 -3.26379 -0.000585919
-0.683582 -0.000344018 -32.3966 -1.71725e-05 -3.28258 -0.000589293
-0.745469 -0.000375164 -32.3987 -3.7911e-05 -3.27982 -0.000588798
-0.808589 -0.000406929 -32.4008 -5.77138e-05 -3.24761 -0.000583015
-0.873363 -0.000439527 -32.4028 -7.6591e-05 -3.1826 -0.000571345
-0.939759 -0.000472942 -32.4047 -9.44974e-05 -3.0867 -0.000554129
-1.00755 -0.000507058 -32.4065 -0.000111896 -2.96463 -0.000532215
-1.07651 -0.000541762 -32.4083 -0.000129058 -2.82002 -0.000506254
-1.14619 -0.00057683 -32.41 -0.000145802 -2.65496 -0.000476621
-1.21602 -0.00061197 -32.4117 -0.000162054 -2.47288 -0.000443934
-1.2853 -0.000646839 -32.4134 -0.000177933 -2.27901 -0.00040913
-1.35319 -0.000681006 -32.415 -0.00019341 -2.0784 -0.000373118
-1.41878 -0.000714013 -32.4166 -0.000208317 -1.87522 -0.000336642
-1.48127 -0.00074546 -32.4181 -0.000222526 -1.67377 -0.000300478
-1.54007 -0.000775051 -32.4195 -0.000235932 -1.47903 -0.000265517
-1.59481 -0.000802601 -32.4208 -0.000248328 -1.29588 -0.000232637
-1.78702 -0.000899332 -32.2918 -0.000212255 -1.18089 -0.000211994
-1.22816 -0.000618083 -31.3742 7.63016e-05 -1.2382 -0.000222283
-1.27843 -0.000643379 -31.3713 7.71871e-05 -1.07065 -0.000192204
-1.68214 -0.000846551 -32.0607 -0.000139575 -0.762934 -0.000136963
-1.64757 -0.000829152 -32.0986 -0.000151502 -0.601117 -0.000107913
-1.50992 -0.000759878 -31.9818 -0.000114762 -0.473424 -8.49896e-05
-1.6621 -0.000836466 -32.2345 -0.000194241 -0.272451 -4.89108e-05
-1.76742 -0.00088947 -32.4227 -0.000266939 -0.105154 -1.88774e-05
-1.73373 -0.000872513 -32.4253 -0.000291564 0.00683499 1.22703e-06
-1.74923 -0.000880316 -32.4287 -0.000323691 0.0974777 1.74993e-05
-1.80846 -0.000910124 -32.4331 -0.000366046 0.147255 2.64355e-05
-1.85004 -0.00093105 -32.437 -0.000403905 0.161307 2.89581e-05
-1.85201 -0.000932041 -32.4393 -0.000425124 0.143815 2.58179e-05
-1.8673 -0.000939735 -32.4413 -0.000444103 0.0948224 1.70226e-05
-1.90514 -0.000958776 -32.4437 -0.000467149 0.00979735 1.75883e-06
-1.93176 -0.000972175 -32.4456 -0.000485562 -0.120649 -2.1659e-05
-1.93856 -0.000975596 -32.4465 -0.000494519 -0.283886 -5.09635e-05
-1.9485 -0.000980598 -32.4472 -0.000500838 -0.474244 -8.51368e-05
-1.96553 -0.000989172 -32.4479 -0.000508035 -0.697527 -0.000125221
-1.96526 -0.000989035 -32.4483 -0.000511287 -0.954285 -0.000171314
-1.9534 -0.000983066 -32.4432 -0.000509702 -1.23163 -0.000221103
-1.94178 -0.00097722 -32.4336 -0.000506668 -1.52133 -0.000273111
-1.92327 -0.000967901 -32.4174 -0.000501568 -1.82518 -0.000327659
-1.89781 -0.000955089 -32.395 -0.000494532 -2.13728 -0.000383687
-1.87185 -0.000942023 -32.3721 -0.000487316 -2.44557 -0.000439033
-1.84842 -0.000930235 -32.3532 -0.000481393 -2.74234 -0.000492309
-1.82591 -0.000918907 -32.3366 -0.000476158 -3.0024 -0.000538994
-1.79903 -0.000905379 -32.318 -0.00047033 -3.23593 -0.000580918
-1.76985 -0.000890694 -32.2997 -0.000464562 -3.44914 -0.000619193
-1.74282 -0.000877089 -32.2879 -0.00046086 -3.63708 -0.000652933
-1.71424 -0.000862706 -32.2813 -0.000458767 -3.79794 -0.000681811
-1.68126 -0.00084611 -32.2784 -0.000457866 -3.93013 -0.000705541
-1.6448 -0.00082776 -32.2812 -0.000458737 -4.03067 -0.000723592
-1.60542 -0.000807943 -32.2909 -0.000461799 -4.09811 -0.000735698
-1.56125 -0.000785714 -32.3054 -0.000466349 -4.13291 -0.000741944
-1.51203 -0.000760943 -32.322 -0.000471587 -4.13424 -0.000742183
-1.45941 -0.000734459 -32.3394 -0.000477063 -4.09667 -0.000735439
-1.40512 -0.00070714 -32.3557 -0.000482167 -4.02034 -0.000721736
-1.34839 -0.000678588 -32.3651 -0.000485126 -3.90933 -0.000701808
-1.29275 -0.000650585 -32.3636 -0.00048465 -3.76822 -0.000676476
-1.2334 -0.000620717 -32.3429 -0.000478157 -3.60212 -0.000646658
-1.17099 -0.000589309 -32.3061 -0.000466563 -3.41379 -0.000612848
-1.11666 -0.000561968 -32.2618 -0.000452634 -3.20243 -0.000574904
-1.0619 -0.00053441 -32.2003 -0.0004333 -2.97396 -0.000533889
-1.00445 -0.000505499 -32.1168 -0.000407056 -2.73338 -0.0004907
-0.947318 -0.000476746 -32.0151 -0.00037508 -2.48318 -0.000445783
-0.892992 -0.000449406 -31.8982 -0.000338303 -2.22454 -0.000399353
-0.838783 -0.000422125 -31.7613 -0.000295257 -1.96027 -0.000351911
-0.78402 -0.000394565 -31.5996 -0.000244419 -1.69364 -0.000304045
-0.731542 -0.000368155 -31.4118 -0.000185386 -1.42682 -0.000256145
-0.683979 -0.000344218 -31.1949 -0.000117171 -1.16043 -0.000208321
-0.640785 -0.00032248 -30.9373 -3.61846e-05 -0.894923 -0.000160658
-0.601228 -0.000302573 -30.6184 6.41106e-05 -0.630828 -0.000113247
-0.568689 -0.000286198 -30.1998 0.000195734 -0.36807 -6.60764e-05
-0.544837 -0.000274194 -29.5524 0.000399293 -0.106516 -1.91219e-05
-0.525481 -0.000264453 -27.9552 0.000901526 0.0878389 1.5769e-05
-0.514746 -0.00025905 -20.1502 0.00335573 0.20871 3.74679e-05
-0.51062 -0.000256974 -9.43842 0.00672396 0.327863 5.88584e-05
-0.512918 -0.000258131 0.0220198 0.0109073 0.45686 8.20161e-05
-0.523279 -0.000263345 0.165044 0.0188022 0.585786 0.000105161
-0.535458 -0.000269474 0.344665 0.0287172 0.709869 0.000127437
-0.548506 -0.000276041 0.506364 0.037643 0.831029 0.000149187
-0.566094 -0.000284892 0.620023 0.0439169 0.957274 0.000171851
-0.585339 -0.000294577 0.684034 0.0474503 1.09477 0.000196534
-0.604378 -0.000304158 0.705988 0.0486622 1.23708 0.000222082
-0.626903 -0.000315494 -0.111053 0.0482447 1.37313 0.000246506
-0.6513 -0.000327772 -1.32733 0.0461034 1.50312 0.000269842
-0.677632 -0.000341024 -3.27305 0.0426778 1.62787 0.000292238
-0.706387 -0.000355495 -5.8176 0.0381981 1.74461 0.000313195
-0.737594 -0.000371201 -8.86642 0.0328305 1.84471 0.000331164
-0.767671 -0.000386337 -12.2318 0.0269055 1.92251 0.000345132
-0.79242 -0.000398792 -15.7221 0.0207607 1.97774 0.000355046
-0.811575 -0.000408432 -19.3181 0.0144297 2.0101 0.000360856
-0.828457 -0.000416928 -23.1398 0.00770158 2.0113 0.000361071
-0.843958 -0.000424729 -26.9203 0.00104578 1.96349 0.000352488
-0.859684 -0.000432643 -27.2791 0.000414067 1.83727 0.000329828
-0.864897 -0.000435267 -27.3746 0.000245855 1.66646 0.000299165
-0.869034 -0.000437349 -27.4339 0.000141514 1.44072 0.000258639
-0.874231 -0.000439964 -27.4776 6.45144e-05 1.16056 0.000208344
-0.874668 -0.000440184 -27.5079 1.12038e-05 0.833618 0.000149652
-0.870866 -0.000438271 -27.5287 -2.5436e-05 0.462888 8.30982e-05
-0.866615 -0.000436131 -27.5446 -5.34167e-05 0.0637885 1.14514e-05
-0.860603 -0.000433106 -27.5561 -7.35488e-05 -0.293785 -5.27407e-05
-0.849576 -0.000427557 -27.5636 -8.68403e-05 -0.655915 -0.000117751
-0.835041 -0.000420242 -27.5679 -9.42937e-05 -1.03821 -0.000186381
-0.822936 -0.00041415 -27.5709 -9.96099e-05 -1.44201 -0.000258872
-0.808007 -0.000406637 -27.5726 -0.000102697 -1.85405 -0.000332842
-0.785304 -0.000395211 -27.5714 -0.000102502 -2.25344 -0.00040454
-0.760198 -0.000382576 -27.5674 -0.000101254 -2.63783 -0.000473546
-0.733408 -0.000369094 -27.565 -0.000100514 -3.01119 -0.000540573
-0.700832 -0.0003527 -27.5631 -9.9894e-05 -3.36744 -0.000604527
-0.662254 -0.000333285 -27.5622 -9.96256e-05 -3.69247 -0.000662877
-0.620403 -0.000312223 -27.5663 -0.000100917 -3.97948 -0.000714401
-0.574495 -0.000289119 -27.5734 -0.000103975 -4.22995 -0.000759366
-0.524567 -0.000263993 -27.5758 -0.000108255 -4.4428 -0.000797577
-0.468838 -0.000235947 -27.5779 -0.000112052 -4.55449 -0.000817629
-0.408188 -0.000205424 -27.5801 -0.000115775 -4.56621 -0.000819732
-0.348564 -0.000175418 -27.5837 -0.000122141 -4.54997 -0.000816816
-0.288394 -0.000145137 -27.5869 -0.000127798 -4.54355 -0.000815663
-0.245755 -0.000123678 -27.5841 -0.000128515 -4.539 -0.000814848
-0.21634 -0.000108875 -27.5718 -0.000124667 -4.47735 -0.00080378
-0.189996 -9.56173e-05 -27.554 -0.000119062 -4.33936 -0.000779007
-0.165213 -8.31451e-05 -27.5243 -0.00010973 -4.1427 -0.000743703
-0.141901 -7.14129e-05 -27.4803 -9.58839e-05 -3.90738 -0.000701459
-0.119645 -6.02126e-05 -27.4213 -7.73348e-05 -3.63108 -0.000651856
-0.0992755 -4.99612e-05 -27.3505 -5.50672e-05 -3.3053 -0.000593372
-0.0802696 -4.03964e-05 -27.28 -3.29087e-05 -2.93682 -0.000527221
-0.0620006 -3.12023e-05 -27.1897 -4.5276e-06 -2.54105 -0.000456173
-0.044585 -2.24378e-05 -27.0756 3.13533e-05 -2.12457 -0.000381406
-0.0297525 -1.49732e-05 -26.9282 7.76988e-05 -1.68672 -0.000302802
-0.0175151 -8.8146e-06 -26.7306 0.000139852 -1.23094 -0.00022098
-0.00754471 -3.79694e-06 -26.4529 0.000227155 -0.766333 -0.000137573
0.000959553 4.82903e-07 -26.0153 0.000364758 -0.300465 -5.39399e-05
0.00980702 4.93546e-06 -25.0998 0.000652632 0.0558136 1.00197e-05
0.0184565 9.2884e-06 -20.5156 0.0020941 0.283648 5.09208e-05
0.0273252 1.37516e-05 -10.5163 0.00523827 0.482789 8.66709e-05
0.0372527 1.87478e-05 0.00770416 0.0089713 0.695194 0.000124802
0.0417324 2.10022e-05 0.173525 0.0181459 0.906022 0.00016265
0.0496453 2.49844e-05 0.421669 0.0318752 1.09983 0.000197443
0.0627268 3.15678e-05 0.672856 0.045773 1.27158 0.000228276
0.0726971 3.65854e-05 0.898361 0.0582497 1.4321 0.000257093
0.0843203 4.24349e-05 1.10356 0.0696032 1.59389 0.000286137
0.1013 5.09803e-05 1.30284 0.0806291 1.75148 0.000314428
0.120475 6.063e-05 1.49289 0.0911438 1.8901 0.000339314
0.138587 6.9745e-05 1.66336 0.100576 2.00862 0.000360591
0.157509 7.92677e-05 1.81667 0.109058 2.11663 0.000379981
0.179046 9.01065e-05 1.96008 0.116993 2.21586 0.000397794
0.201527 0.00010142 2.09213 0.124299 2.29774 0.000412493
0.223309 0.000112382 2.20794 0.130706 2.35765 0.000423249
0.245352 0.000123475 2.30888 0.136291 2.4002 0.000430886
0.268141 0.000134944 2.39869 0.14126 2.42941 0.000436131
0.290543 0.000146218 2.47689 0.145587 2.44222 0.00043843
0.311962 0.000156998 2.54113 0.149141 2.43082 0.000436383
0.330891 0.000166524 2.5912 0.151911 2.38753 0.000428613
0.345601 0.000173927 2.63162 0.154148 2.31304 0.00041524
0.360841 0.000181596 2.65756 0.155583 2.21173 0.000397053
0.375371 0.000188909 2.66645 0.156075 2.08509 0.000374317
0.38885 0.000195692 2.26784 0.15595 1.93358 0.000347119
0.399843 0.000201224 1.33767 0.155657 1.75983 0.000315927
0.417092 0.000209905 0.223512 0.155307 1.56545 0.000281031
0.431892 0.000217353 -0.271769 0.153892 1.35949 0.000244057
0.441491 0.000222184 -0.859354 0.150984 1.14604 0.000205738
0.452948 0.00022795 -1.57798 0.147428 0.924268 0.000165926
0.462754 0.000232885 -2.43477 0.143188 0.701476 0.00012593
0.468305 0.000235679 -3.50381 0.137897 0.480883 8.63288e-05
0.472516 0.000237798 -4.73515 0.131803 0.261536 4.69513e-05
0.474875 0.000238985 -6.09705 0.125064 0.0520062 9.33621e-06
0.473871 0.000238479 -7.55866 0.117831 -0.117888 -2.11633e-05
0.471168 0.00023712 -9.11006 0.110153 -0.258122 -4.63385e-05
0.467458 0.000235252 -10.7652 0.101962 -0.381849 -6.855e-05
0.462599 0.000232807 -12.4944 0.0934046 -0.504827 -9.06271e-05
0.457587 0.000230284 -14.2616 0.084659 -0.625951 -0.000112372
0.453008 0.00022798 -16.0445 0.0758359 -0.738538 -0.000132583
0.448578 0.000225751 -17.8262 0.0670187 -0.839513 -0.00015071
0.44461 0.000223754 -19.5753 0.0583627 -0.934796 -0.000167816
0.44169 0.000222284 -21.2567 0.0500416 -1.02853 -0.000184644
0.439916 0.000221392 -22.8454 0.0421799 -1.1186 -0.000200812
0.439554 0.000221209 -24.3162 0.0349011 -1.20224 -0.000215828
0.441107 0.000221991 -25.6378 0.0283606 -1.2812 -0.000230003
0.444812 0.000223856 -26.7872 0.0226727 -1.35836 -0.000243854
0.45081 0.000226874 -27.7482 0.017917 -1.43398 -0.000257429
0.459191 0.000231092 -28.5054 0.0141693 -1.50633 -0.000270418
0.469843 0.000236453 -29.0433 0.0115073 -1.57466 -0.000282686
0.482467 0.000242806 -29.3507 0.00998636 -1.63978 -0.000294376
0.496797 0.000250017 -29.3925 0.00962229 -1.70177 -0.000305504
0.513383 0.000258365 -28.6148 0.00986683 -1.75704 -0.000315426
0.531007 0.000267234 -26.9455 0.0103917 -1.80375 -0.000323811
0.549132 0.000276355 -24.492 0.0111632 -1.84045 -0.000330399
0.568473 0.000286089 -21.2146 0.0121937 -1.86626 -0.000335034
0.588645 0.000296241 -17.1568 0.0134697 -1.87968 -0.000337442
0.60915 0.00030656 -12.3855 0.01497 -1.87681 -0.000336928
0.629885 0.000316995 -7.05604 0.0166458 -1.85038 -0.000332183
0.649239 0.000326735 0.00248865 0.0189993 -1.79926 -0.000323005
0.667626 0.000335989 0.0877022 0.0236156 -1.72789 -0.000310194
0.685556 0.000345012 0.224091 0.0310042 -1.63542 -0.000293592
0.703063 0.000353823 0.388885 0.0399315 -1.51644 -0.000272234
0.720947 0.000362823 0.559375 0.0491675 -1.36928 -0.000245815
0.740578 0.000372702 0.728536 0.0583314 -1.19394 -0.000214338
0.757305 0.000381121 0.897382 0.0674783 -0.991481 -0.000177992
0.774017 0.00038953 1.06716 0.0766755 -0.764453 -0.000137236
0.791181 0.000398169 1.23427 0.0857283 -0.515948 -9.26237e-05
0.808874 0.000407073 1.39781 0.0945881 -0.248719 -4.46504e-05
0.827904 0.00041665 1.55813 0.103273 -0.0184646 -3.31479e-06
0.849609 0.000427573 1.71027 0.111515 0.153898 2.76281e-05
0.872713 0.000439201 1.86385 0.119835 0.316458 5.68109e-05
0.896687 0.000451265 2.01764 0.128166 0.491087 8.81606e-05
0.921221 0.000463612 2.17491 0.136686 0.675563 0.000121278
0.945404 0.000475782 2.337 0.145467 0.853508 0.000153223
0.96859 0.000487451 2.5057 0.154606 1.0176 0.000182681
0.99012 0.000498287 2.6821 0.164162 1.17548 0.000211023
1.0095 0.000508038 2.86687 0.174171 1.33116 0.000238971
1.0266 0.000516643 3.05992 0.184629 1.47805 0.000265342
1.04106 0.000523924 3.26046 0.195493 1.60979 0.000288991
1.04904 0.000527939 3.46912 0.206797 1.72756 0.000310135
1.05129 0.000529072 3.68445 0.218462 1.83592 0.000329586
1.04834 0.000527587 3.90286 0.230294 1.9349 0.000347357
1.04086 0.00052382 4.11943 0.242026 2.022 0.000362992
1.03017 0.000518443 4.3296 0.253412 2.09773 0.000376587
1.0176 0.000512114 4.5287 0.264198 2.16571 0.000388791
1.0044 0.000505471 4.71175 0.274114 2.22822 0.000400014
0.99188 0.000499172 4.87411 0.282909 2.28508 0.00041022
0.981183 0.000493789 5.01176 0.290366 2.3363 0.000419415
0.973119 0.000489731 5.12143 0.296308 2.38338 0.000427868
0.968131 0.00048722 5.20083 0.300609 2.42765 0.000435814
0.966298 0.000486298 5.24866 0.3032 2.46885 0.000443212
0.967523 0.000486914 5.26464 0.304065 2.50596 0.000449874
0.970953 0.00048864 4.5614 0.303844 2.53628 0.000455315
0.976619 0.000491492 2.80765 0.303293 2.55853 0.00045931
0.984347 0.000495381 -0.00798278 0.302335 2.57249 0.000461817
0.995818 0.000501154 -0.370936 0.298945 2.58226 0.00046357
1.00827 0.000507418 -0.933485 0.293689 2.57525 0.000462312
1.02271 0.000514688 -1.57219 0.287722 2.54811 0.00045744
1.03776 0.000522261 -2.25745 0.28132 2.50088 0.000448962
1.05261 0.000529734 -3.02241 0.274173 2.43116 0.000436446
1.06735 0.000537153 -3.8362 0.266571 2.33448 0.000419089
1.07496 0.000540983 -4.64888 0.258978 2.21174 0.000397055
1.07629 0.00054165 -5.39889 0.251971 2.06123 0.000370035
1.0784 0.000542717 -6.12623 0.245176 1.88681 0.000338722
1.07929 0.000543162 -6.84084 0.2385 1.68852 0.000303126
1.08276 0.000544908 -7.51966 0.232158 1.46869 0.000263661
1.08703 0.00054706 -8.15794 0.226195 1.23256 0.00022127
1.0915 0.000549307 -8.76217 0.22055 0.982868 0.000176446
1.09714 0.000552147 -9.33062 0.215239 0.721876 0.000129592
1.10346 0.000555327 -9.86449 0.210252 0.454989 8.16803e-05
1.10965 0.000558442 -10.3667 0.20556 0.187836 3.37206e-05
1.11535 0.000561311 -10.8344 0.201191 -0.0573276 -1.02915e-05
1.11943 0.000563363 -11.2395 0.197406 -0.23981 -4.3051e-05
1.12048 0.000563891 -11.6208 0.193843 -0.392218 -7.04114e-05
1.11703 0.000562157 -11.9723 0.19056 -0.533891 -9.58449e-05
1.10853 0.000557879 -12.3056 0.187446 -0.676913 -0.00012152
1.0953 0.000551218 -12.6287 0.184427 -0.810473 -0.000145497
1.07762 0.000542322 -12.9534 0.181394 -0.921211 -0.000165377
1.05538 0.000531131 -13.2854 0.178292 -1.00935 -0.0001812
1.02805 0.000517375 -13.6289 0.175084 -1.08312 -0.000194444
0.995082 0.000500784 -13.9885 0.171724 -1.14233 -0.000205073
0.956101 0.000481166 -14.3688 0.168171 -1.17996 -0.000211827
0.910668 0.000458301 -14.7722 0.164402 -1.19331 -0.000214225
0.858165 0.000431879 -15.1993 0.160412 -1.18408 -0.000212568
0.797944 0.000401572 -15.6465 0.156234 -1.14706 -0.000205921
0.729772 0.000367264 -16.1146 0.151861 -1.07892 -0.000193689
0.653813 0.000329037 -16.6049 0.14728 -0.980059 -0.000175941
0.570735 0.000287227 -17.1193 0.142474 -0.855273 -0.00015354
0.481578 0.000242358 -17.6603 0.13742 -0.70993 -0.000127448
0.387403 0.000194964 -18.2293 0.132104 -0.546841 -9.81697e-05
0.288999 0.000145441 -18.8171 0.126613 -0.369734 -6.63752e-05
0.193827 9.7545e-05 -19.3921 0.121241 -0.185591 -3.33175e-05
0.0981784 4.94091e-05 -20.0117 0.115453 -0.0105608 -1.89589e-06
0.0231912 1.16712e-05 -20.7701 0.108367 0.133762 2.40132e-05
-0.0454977 -2.28971e-05 -21.5432 0.101145 0.25607 4.597e-05
-0.107639 -5.41702e-05 -22.2557 0.0944879 0.373816 6.71079e-05
-0.162932 -8.19971e-05 -22.8752 0.0887004 0.483566 8.68104e-05
-0.213181 -0.000107285 -23.4458 0.0833695 0.577124 0.000103606
-0.263654 -0.000132686 -24.0426 0.0777941 0.652832 0.000117197
-0.315254 -0.000158654 -24.686 0.0717834 0.714743 0.000128312
-0.3635 -0.000182934 -25.3346 0.0657239 0.762443 0.000136875
-0.407353 -0.000205004 -25.9703 0.0597849 0.792028 0.000142186
-0.449685 -0.000226308 -26.622 0.0536959 0.799928 0.000143604
-0.491202 -0.000247202 -27.31 0.0472684 0.782122 0.000140408
-0.530039 -0.000266747 -28.0172 0.0406617 0.73765 0.000132424
-0.56568 -0.000284683 -28.7278 0.0340231 0.666436 0.00011964
-0.599962 -0.000301936 -29.4508 0.0272687 0.568809 0.000102113
-0.634317 -0.000319225 -30.1961 0.0203052 0.445722 8.00167e-05
-0.668695 -0.000336526 -30.9518 0.0132455 0.300391 5.39267e-05
-0.703664 -0.000354125 -31.6988 0.00626671 0.149326 2.68072e-05
-0.742362 -0.0003736 -32.2704 0.000926343 -0.00717472 -1.28801e-06
-0.78649 -0.000395808 -32.3064 0.000590085 -0.165992 -2.97992e-05
-0.828657 -0.000417029 -32.322 0.000444079 -0.323192 -5.80198e-05
-0.874176 -0.000439937 -32.3329 0.000342366 -0.498142 -8.94271e-05
-0.923664 -0.000464842 -32.3415 0.000262145 -0.687523 -0.000123425
-0.972226 -0.000489281 -32.3481 0.000200908 -0.875958 -0.000157253
-1.01928 -0.000512962 -32.3535 0.000150647 -1.06078 -0.000190432
-1.0676 -0.000537277 -32.3585 0.000103773 -1.24827 -0.000224091
-1.11725 -0.000562268 -32.3632 5.95692e-05 -1.43782 -0.000258119
-1.16602 -0.000586808 -32.3675 1.93888e-05 -1.62278 -0.000291323
-1.2139 -0.000610907 -32.3715 -1.81558e-05 -1.79993 -0.000323126
-1.26292 -0.000635573 -32.3755 -5.49433e-05 -1.97037 -0.000353723
-1.31369 -0.000661126 -32.3793 -9.08085e-05 -2.13439 -0.000383168
-1.36544 -0.000687167 -32.383 -0.000125069 -2.29005 -0.000411112
-1.41822 -0.000713732 -32.3865 -0.000158153 -2.43541 -0.000437208
-1.47304 -0.000741319 -32.39 -0.000190682 -2.56995 -0.00046136
-1.53012 -0.000770046 -32.3934 -0.000222484 -2.6939 -0.000483613
-1.58878 -0.000799569 -32.3967 -0.000253195 -2.80721 -0.000503954
-1.64852 -0.000829632 -32.3999 -0.000282947 -2.9092 -0.000522263
-1.70921 -0.000860176 -32.403 -0.000312021 -2.99926 -0.000538431
-1.77018 -0.000890859 -32.406 -0.000340195 -3.07764 -0.000552503
-1.82749 -0.0009197 -32.4088 -0.000366799 -3.14531 -0.00056465
-1.88376 -0.00094802 -32.4116 -0.000392766 -3.20163 -0.000574761
-1.94016 -0.000976404 -32.4144 -0.000418537 -3.24618 -0.000582758
-1.99444 -0.00100372 -32.417 -0.000443192 -3.28013 -0.000588853
-2.04614 -0.00102974 -32.4195 -0.000466002 -3.30466 -0.000593257
-2.095 -0.00105433 -32.4217 -0.000486735 -3.32067 -0.00059613
-2.14401 -0.00107899 -32.4237 -0.000506009 -3.32815 -0.000597473
-2.1934 -0.00110385 -32.4256 -0.000523783 -3.32741 -0.00059734
-2.24088 -0.00112774 -32.4273 -0.000539321 -3.3175 -0.000595562
-2.28589 -0.00115039 -32.4287 -0.000552699 -3.29757 -0.000591983
-2.33088 -0.00117303 -32.43 -0.000564676 -3.26757 -0.000586599
-2.3739 -0.00119469 -32.4311 -0.000574978 -3.22931 -0.00057973
-2.41285 -0.00121429 -32.432 -0.000583143 -3.1845 -0.000571686
-2.44838 -0.00123217 -32.4327 -0.000589584 -3.13354 -0.000562537
-2.48042 -0.00124829 -32.4332 -0.000594782 -3.0768 -0.000552352
-2.48802 -0.00125212 -32.4299 -0.000594313 -3.02201 -0.000542514
-2.48819 -0.0012522 -32.424 -0.000592453 -2.96224 -0.000531785
-2.48921 -0.00125271 -32.4179 -0.000590531 -2.8978 -0.000520217
-2.49363 -0.00125494 -32.4145 -0.000589473 -2.82901 -0.000507867
-2.49718 -0.00125673 -32.412 -0.00058868 -2.75786 -0.000495094
-2.49623 -0.00125625 -32.4068 -0.000587044 -2.6858 -0.000482159
-2.4944 -0.00125533 -32.4015 -0.00058537 -2.61276 -0.000469046
-2.49106 -0.00125365 -32.3964 -0.000583779 -2.54085 -0.000456137
-2.47982 -0.00124799 -32.3865 -0.000580645 -2.47356 -0.000444056
-2.4619 -0.00123897 -32.3706 -0.000575667 -2.41111 -0.000432845
-2.44161 -0.00122876 -32.3512 -0.000569558 -2.35321 -0.000422451
-2.41658 -0.00121616 -32.3268 -0.000561885 -2.30166 -0.000413196
-2.38611 -0.00120083 -32.2974 -0.000552633 -2.2567 -0.000405126
-2.35109 -0.0011832 -32.2653 -0.000542552 -2.21674 -0.000397952
-2.31371 -0.00116439 -32.2345 -0.00053286 -2.17995 -0.000391347
-2.27385 -0.00114434 -32.2059 -0.000523862 -2.14645 -0.000385333
-2.22535 -0.00111993 -32.1752 -0.000514213 -2.11836 -0.000380291
-2.16555 -0.00108983 -32.141 -0.000503457 -2.09609 -0.000376293
-2.09764 -0.00105565 -32.1065 -0.000492599 -2.07818 -0.000373078
-2.02211 -0.00101765 -32.0721 -0.000481804 -2.06448 -0.000370618
-1.93651 -0.000974566 -32.0348 -0.00047008 -2.0561 -0.000369114
-1.84147 -0.000926736 -31.993 -0.000456922 -2.05331 -0.000368613
-1.73985 -0.000875597 -31.9467 -0.000442361 -2.0557 -0.000369041
-1.63246 -0.000821549 -31.8947 -0.00042602 -2.06319 -0.000370386
-1.5197 -0.000764804 -31.8352 -0.000407314 -2.07561 -0.000372616
-1.40152 -0.000705328 -31.7667 -0.000385774 -2.09245 -0.000375639
-1.27863 -0.000643483 -31.6889 -0.000361298 -2.11252 -0.000379243
-1.15162 -0.000579563 -31.6016 -0.000333856 -2.13423 -0.000383139
-1.0204 -0.000513525 -31.5042 -0.000303213 -2.15578 -0.000387008
-0.88508 -0.000445424 -31.3958 -0.000269148 -2.17512 -0.000390481
-0.746251 -0.000375557 -31.2763 -0.000231555 -2.18988 -0.00039313
-0.604347 -0.000304143 -31.1449 -0.000190237 -2.19743 -0.000394486
-0.459594 -0.000231295 -31.0002 -0.000144752 -2.19504 -0.000394056
-0.339277 -0.000170744 -30.83 -9.12352e-05 -2.18259 -0.000391821
-0.233535 -0.000117528 -30.628 -2.77189e-05 -2.15765 -0.000387345
-0.125789 -6.33045e-05 -30.3918 4.65462e-05 -2.11345 -0.00037941
-0.0194462 -9.78647e-06 -30.1034 0.000137246 -2.04713 -0.000367503
0.0789778 3.97463e-05 -29.7226 0.000256981 -1.95531 -0.00035102
0.16831 8.47035e-05 -29.1337 0.000442159 -1.83253 -0.000328978
0.253147 0.000127399 -27.4427 0.000973891 -1.68253 -0.00030205
0.332887 0.000167528 -17.1593 0.00420741 -1.51558 -0.000272078
0.413913 0.000208305 -4.11109 0.00831029 -1.31661 -0.00023636
0.486888 0.000245031 0.133613 0.0169797 -1.1098 -0.000199233
0.554993 0.000279305 0.408915 0.0321791 -0.895029 -0.000160677
0.626489 0.000315286 0.72633 0.0497035 -0.654266 -0.000117455
0.687758 0.00034612 1.03628 0.0668155 -0.390865 -7.01685e-05
0.768506 0.000386757 1.36418 0.084919 -0.143564 -2.57727e-05
0.873169 0.00043943 1.72459 0.104817 0.00694246 1.24632e-06
0.943522 0.000474836 2.04007 0.122235 0.166475 2.98859e-05
1.02336 0.000515017 2.33763 0.138663 0.322572 5.79085e-05
1.11804 0.000562661 2.64504 0.155635 0.496769 8.91806e-05
1.20106 0.000604446 2.93845 0.171834 0.696195 0.000124982
1.28594 0.00064716 3.22609 0.187714 0.887735 0.000159367
1.37849 0.000693736 3.51756 0.203807 1.06833 0.000191788
1.46816 0.000738865 3.80814 0.219849 1.26009 0.000226213
1.55822 0.000784187 4.10424 0.236197 1.45896 0.000261914
1.65219 0.000831477 4.41199 0.253188 1.64805 0.00029586
8.93253 0.385392 -5.67275 0.210234 2.35876 0.000423447
8.93253 0.44273 0.720878 0.235403 2.10916 0.000378639
8.93253 0.473519 0.133566 0.238057 2.44339 0.00043864
8.93253 0.518617 0.579612 0.251475 27.7942 0.0255257
8.93253 0.583862 1.06911 0.266202 29.4547 0.057091
8.93253 0.628365 1.56618 0.281156 29.9774 0.0670274
8.93253 0.675329 2.15433 0.29885 30.1847 0.0709683
8.93253 0.733506 2.92874 0.322147 30.2537 0.0722799
8.93253 0.786706 3.69974 0.345342 30.4198 0.0754369
8.93253 0.831877 4.45247 0.367987 30.6489 0.0797907
8.93253 0.879413 5.2477 0.391911 30.7702 0.0820965
8.93253 0.926361 6.07599 0.416829 30.375 0.0820886
8.93253 0.971527 6.88144 0.441061 29.5397 0.0819386
8.93253 1.01718 7.73835 0.46684 29.1943 0.0818766
8.93253 1.06293 8.65167 0.494316 28.8616 0.0818169
8.93253 1.10695 8.93253 0.5239 28.5887 0.0817679
-0.280267 1.1168 8.93253 0.553682 28.7724 0.0818009
3.58956 1.12019 8.93253 0.557019 30.2846 0.0820723
8.93253 1.13773 8.93253 0.612299 25.8581 0.0812777
8.93253 1.18803 8.93253 0.658076 27.1364 0.0815072
8.93253 1.22726 8.93253 0.704072 24.7855 0.0810851
8.93253 1.27053 8.93253 0.742729 23.1678 0.0807947
8.93253 1.3102 8.93253 0.783641 22.8848 0.0807439
8.93253 1.34609 8.93253 0.829385 22.7868 0.0807263
8.93253 1.38307 8.93253 0.876167 21.9473 0.0805756
8.93253 1.41899 8.93253 0.920259 21.8472 0.0805576
8.93253 1.45279 8.93253 0.964123 22.8771 0.0807425
8.93253 1.48557 8.93253 1.00894 24.6171 0.0810549
8.93253 1.51682 8.93253 1.05302 26.5133 0.0813953
8.93253 1.54636 8.93253 1.09497 29.0665 0.0818537
8.93253 1.58029 8.93253 1.13403 30.9755 0.0860008
8.93253 1.61433 8.93253 1.1709 31.5993 0.0978587
8.93253 1.64562 8.93253 1.20678 32.2415 0.110066
8.93253 1.67501 8.93253 1.24037 33.1078 0.126534
8.93253 1.69657 0.0644547 1.21698 34.8333 0.159335
8.93253 1.70965 2.7227 1.22493 35.1365 0.165098
8.93253 1.7471 8.83195 1.24319 7.12096 0.210535
8.93253 1.78041 8.93253 1.29127 7.12096 0.245867
8.93253 1.80176 8.93253 1.3248 7.12096 0.285719
8.93253 1.82293 8.93253 1.35414 7.12096 0.311843
8.93253 1.84508 8.93253 1.38518 7.12096 0.338833
8.93253 1.862 8.93253 1.41944 7.12096 0.37612
8.93253 1.87772 8.93253 1.45334 7.12096 0.414642
8.93253 1.89356 8.93253 1.48495 7.12096 0.451972
8.93253 1.90714 8.93253 1.51759 7.12096 0.48749
8.93253 1.91925 8.93253 1.55229 -0.0475892 0.499947
8.93253 1.93035 8.93253 1.58748 7.12096 0.511628
8.93253 1.94083 8.93253 1.62109 7.12096 0.551093
8.93253 1.94713 8.93253 1.65619 7.12096 0.598375
8.93253 1.95648 8.93253 1.69261 7.12096 0.649057
8.93253 1.96467 8.93253 1.72972 7.12096 0.694629
8.93253 1.971 8.93253 1.76632 7.12096 0.738372
8.93253 1.97763 8.93253 1.80455 7.12096 0.784436
8.93253 1.98492 8.93253 1.84421 7.12096 0.833438
8.93253 1.99163 8.93253 1.88439 7.12096 0.882372
8.93253 1.99843 8.93253 1.92536 7.12096 0.929168
8.93253 2.00604 8.93253 1.96749 7.12096 0.975392
8.93253 2.01371 8.93253 2.01061 7.12096 1.02279
8.93253 2.02141 8.93253 2.05464 7.12096 1.07059
8.93253 2.02993 8.93253 2.09964 7.12096 1.11706
8.93253 2.03911 8.93253 2.14541 7.12096 1.16212
8.93253 2.04875 8.93253 2.19194 7.12096 1.20679
8.93253 2.05918 8.93253 2.23927 7.12096 1.25129
8.93253 2.0705 8.93253 2.28713 7.12096 1.29497
8.93253 2.08159 8.93253 2.33537 7.12096 1.33732
8.93253 2.09158 8.93253 2.3836 7.12096 1.37865
8.93253 2.10393 8.93253 2.43266 7.12096 1.41903
