-0.0280428 -1.41128e-05 -0.0784337 -2.46628e-05 -0.0227874 -4.09083e-06
-0.0283644 -1.42746e-05 -0.078334 -2.46314e-05 -0.0228136 -4.09553e-06
-0.029093 -1.46413e-05 -0.0781141 -2.45623e-05 -0.0228544 -4.10286e-06
-0.0305874 -1.53934e-05 -0.0776831 -2.44267e-05 -0.0229124 -4.11327e-06
-0.0322725 -1.62414e-05 -0.0772566 -2.42927e-05 -0.0229474 -4.11954e-06
-0.0344254 -1.73249e-05 -0.0768001 -2.41491e-05 -0.0229514 -4.12026e-06
-0.0370739 -1.86578e-05 -0.076351 -2.40079e-05 -0.022896 -4.11032e-06
-0.0402466 -2.02545e-05 -0.075953 -2.38827e-05 -0.0227521 -4.08449e-06
-0.043976 -2.21313e-05 -0.0756635 -2.37917e-05 -0.0224939 -4.03814e-06
-0.0482966 -2.43057e-05 -0.0755492 -2.37558e-05 -0.0220968 -3.96684e-06
-0.0532371 -2.67921e-05 -0.0756803 -2.3797e-05 -0.0215343 -3.86586e-06
-0.0588065 -2.95949e-05 -0.076133 -2.39393e-05 -0.0207798 -3.73042e-06
-0.0649782 -3.27008e-05 -0.0769965 -2.42109e-05 -0.0198121 -3.55669e-06
-0.071662 -3.60645e-05 -0.0783656 -2.46414e-05 -0.0186213 -3.34292e-06
-0.0787319 -3.96225e-05 -0.0803716 -2.52721e-05 -0.0171972 -3.08727e-06
-0.0860139 -4.32872e-05 -0.0831491 -2.61455e-05 -0.0155411 -2.78996e-06
-0.0932679 -4.69379e-05 -0.0868183 -2.72992e-05 -0.0136734 -2.45466e-06
-0.100234 -5.04438e-05 -0.0914792 -2.87648e-05 -0.0116365 -2.08901e-06
-0.106665 -5.36803e-05 -0.0972039 -3.05649e-05 -0.0095005 -1.70554e-06
-0.112324 -5.65281e-05 -0.104022 -3.27087e-05 -0.00769418 -1.38127e-06
-0.116977 -5.88697e-05 -0.111915 -3.51907e-05 -0.00599974 -1.07708e-06
-0.120377 -6.05805e-05 -0.120824 -3.7992e-05 -0.00454442 -8.15821e-07
-0.122241 -6.15188e-05 -0.130655 -4.10833e-05 -0.00347008 -6.22954e-07
-0.122232 -6.15145e-05 -0.14128 -4.44242e-05 -0.00294432 -5.28569e-07
-0.119961 -6.03713e-05 -0.152547 -4.7967e-05 -0.00315779 -5.6689e-07
-0.115027 -5.78881e-05 -0.164245 -5.16453e-05 -0.00431439 -7.74525e-07
-0.107136 -5.39171e-05 -0.176061 -5.53609e-05 -0.00675045 -1.21185e-06
-0.0962503 -4.84388e-05 -0.187583 -5.89837e-05 -0.0112903 -2.02684e-06
-0.0826977 -4.16183e-05 -0.198243 -6.23358e-05 -0.0178794 -3.20973e-06
-0.0671353 -3.37864e-05 -0.207341 -6.51966e-05 -0.0267477 -4.80178e-06
-0.050359 -2.53436e-05 -0.21413 -6.73311e-05 -0.0380898 -6.83794e-06
-0.033122 -1.66689e-05 -0.217921 -6.85234e-05 -0.0520716 -9.34797e-06
-0.01609 -8.09742e-06 -0.218174 -6.86029e-05 -0.068766 -1.2345e-05
0.00016026 8.06522e-08 -0.214532 -6.74575e-05 -0.0881024 -1.58163e-05
0.0152533 7.67635e-06 -0.20681 -6.50294e-05 -0.109841 -1.97188e-05
0.0292047 1.46975e-05 -0.194967 -6.13056e-05 -0.133598 -2.39838e-05
0.0417667 2.10195e-05 -0.179134 -5.6327e-05 -0.158892 -2.85245e-05
0.0522491 2.62948e-05 -0.15977 -5.02384e-05 -0.185042 -3.32189e-05
0.0616644 3.10331e-05 -0.137324 -4.31802e-05 -0.211369 -3.79451e-05
0.0701596 3.53084e-05 -0.11235 -3.53274e-05 -0.237024 -4.25508e-05
0.0778519 3.91796e-05 -0.0855372 -2.68964e-05 -0.261171 -4.68858e-05
0.0848808 4.2717e-05 -0.0575914 -1.81091e-05 -0.282939 -5.07936e-05
0.0912691 4.5932e-05 -0.0291997 -9.18157e-06 -0.301491 -5.41241e-05
0.0968802 4.87558e-05 -0.00100867 -3.17166e-07 -0.316014 -5.67312e-05
0.101517 5.10894e-05 0.0263773 8.29412e-06 -0.325746 -5.84784e-05
0.105077 5.28811e-05 0.0524349 1.64877e-05 -0.329998 -5.92417e-05
0.107689 5.41956e-05 0.0743586 2.33814e-05 -0.328034 -5.8889e-05
0.109734 5.52244e-05 0.0935569 2.94181e-05 -0.319621 -5.73787e-05
0.111921 5.63251e-05 0.109519 3.44371e-05 -0.304295 -5.46275e-05
0.115181 5.7966e-05 0.121715 3.82721e-05 -0.281837 -5.05957e-05
0.122506 6.16521e-05 0.13084 4.11414e-05 -0.243771 -4.37621e-05
0.13572 6.83022e-05 0.132497 4.16626e-05 -0.195085 -3.50218e-05
0.156992 7.90077e-05 0.12671 3.98428e-05 -0.136774 -2.45538e-05
0.187724 9.44738e-05 0.114315 3.59454e-05 -0.070442 -1.26458e-05
0.228272 0.00011488 0.0969771 3.04936e-05 -0.00323702 -5.81115e-07
0.277789 0.0001398 0.0771584 2.42618e-05 0.0589057 1.05748e-05
0.334168 0.000168173 0.0581221 1.8276e-05 0.120728 2.16732e-05
0.394244 0.000198407 0.043606 1.37115e-05 0.180277 3.23635e-05
0.454477 0.00022872 0.0372354 1.17083e-05 0.235123 4.22096e-05
0.511856 0.000257596 0.0420732 1.32295e-05 0.28315 5.08314e-05
0.564454 0.000284066 0.0602868 1.89566e-05 0.32284 5.79566e-05
0.611429 0.000307707 0.0929466 2.92262e-05 0.353677 6.34925e-05
0.652753 0.000328503 0.140038 4.40336e-05 0.375787 6.74618e-05
0.688945 0.000346718 0.200612 6.30805e-05 0.389886 6.99927e-05
0.720747 0.000362722 0.272948 8.58261e-05 0.397267 7.13179e-05
0.748742 0.000376811 0.354739 0.000111544 0.399866 7.17845e-05
0.773335 0.000389187 0.443229 0.000139369 0.400044 7.18164e-05
0.795115 0.000400148 0.535267 0.00016831 0.400395 7.18794e-05
0.815163 0.000410238 0.627359 0.000197267 0.403585 7.2452e-05
0.834977 0.000420209 0.715861 0.000225096 0.412268 7.40108e-05
0.856066 0.000430823 0.797332 0.000250714 0.428885 7.6994e-05
0.879395 0.000442563 0.868917 0.000273223 0.455426 8.17586e-05
0.905059 0.000455479 0.928583 0.000291985 0.493245 8.8548e-05
0.932608 0.000469343 0.975106 0.000306613 0.543046 9.74882e-05
0.961462 0.000483864 1.00796 0.000316944 0.604869 0.000108587
0.991053 0.000498756 1.02728 0.000323019 0.678085 0.000121731
1.02086 0.000513757 1.03382 0.000325077 0.761397 0.000136687
1.05044 0.000528644 1.02893 0.000323537 0.852917 0.000153117
1.07947 0.00054325 1.01439 0.000318966 0.950259 0.000170592
1.10768 0.000557448 0.992382 0.000312046 1.05066 0.000188615
1.13482 0.000571107 0.965366 0.000303551 1.15108 0.000206643
1.16064 0.0005841 0.935964 0.000294306 1.24835 0.000224106
1.18501 0.000596367 0.906779 0.000285128 1.33936 0.000240443
1.20811 0.000607991 0.880209 0.000276774 1.42114 0.000255126
1.23037 0.000619196 0.858346 0.000269899 1.49109 0.000267682
1.2523 0.000630231 0.842952 0.000265059 1.54697 0.000277714
1.27396 0.000641131 0.835541 0.000262728 1.58705 0.000284909
1.29458 0.00065151 0.83743 0.000263322 1.61013 0.000289052
1.31261 0.000660583 0.849652 0.000267165 1.61563 0.000290039
1.32614 0.000667392 0.872724 0.00027442 1.60366 0.000287891
1.3325 0.000670594 0.898873 0.000282643 1.58206 0.000284013
1.33369 0.000671191 0.940344 0.000295683 1.54131 0.000276698
1.3266 0.000667623 0.989867 0.000311255 1.48734 0.000267009
1.31105 0.000659798 1.04483 0.000328538 1.42293 0.000255446
1.28721 0.0006478 1.10202 0.000346522 1.35131 0.000242589
1.25533 0.000631758 1.15787 0.000364081 1.27598 0.000229066
1.21576 0.00061184 1.20863 0.000380042 1.20053 0.000215521
1.16886 0.000588236 1.25058 0.000393234 1.12843 0.000202577
1.11495 0.000561106 1.28023 0.000402557 1.06284 0.000190802
1.05435 0.000530608 1.29447 0.000407036 1.00645 0.00018068
0.987378 0.000496907 1.29075 0.000405865 0.961343 0.000172581
0.914334 0.000460147 1.26716 0.000398446 0.928826 0.000166744
0.835571 0.000420508 1.22252 0.00038441 0.909404 0.000163257
0.751854 0.000378377 1.15635 0.000363605 0.902732 0.00016206
0.664677 0.000334504 1.06878 0.000336069 0.907623 0.000162938
0.576067 0.000289911 0.960611 0.000302055 0.922049 0.000165527
0.487879 0.000245529 0.833548 0.000262102 0.943163 0.000169318
0.401495 0.000202056 0.690287 0.000217055 0.967394 0.000173668
0.317975 0.000160024 0.534342 0.000168019 0.990594 0.000177833
0.238154 0.000119853 0.369821 0.000116287 1.00823 0.000180998
0.162633 8.18463e-05 0.201272 6.32883e-05 1.01559 0.000182319
0.0916564 4.61269e-05 0.0335305 1.05434e-05 1.00805 0.000180966
0.0221336 1.11389e-05 -0.128158 -4.02982e-05 0.981185 0.000176144
-0.0457357 -2.30169e-05 -0.284358 -8.9414e-05 0.931948 0.000167305
-0.111464 -5.60954e-05 -0.43447 -0.000136615 0.856344 0.000153732
-0.176399 -8.87743e-05 -0.564731 -0.000177575 0.752883 0.000135159
-0.241471 -0.000121522 -0.672235 -0.000211378 0.62079 0.000111445
-0.305854 -0.000153924 -0.756597 -0.000237905 0.460171 8.26104e-05
-0.368403 -0.000185402 -0.818238 -0.000257287 0.272769 4.89679e-05
-0.428361 -0.000215576 -0.858062 -0.00026981 0.0619318 1.11181e-05
-0.485685 -0.000244425 -0.87787 -0.000276038 -0.208934 -3.75081e-05
-0.541231 -0.000272379 -0.880719 -0.000276934 -0.507451 -9.10983e-05
-0.596274 -0.00030008 -0.869624 -0.000273445 -0.816735 -0.000146621
-0.651917 -0.000328083 -0.848213 -0.000266713 -1.12898 -0.000202675
-0.709248 -0.000356935 -0.820895 -0.000258123 -1.43663 -0.000257905
-0.769486 -0.00038725 -0.79223 -0.00024911 -1.73254 -0.000311027
-0.833896 -0.000419665 -0.766572 -0.000241042 -2.00847 -0.000360564
-0.903614 -0.000454752 -0.748185 -0.00023526 -2.25695 -0.000405171
-0.979342 -0.000492862 -0.741247 -0.000233078 -2.47161 -0.000443707
-1.06092 -0.000533919 -0.749611 -0.000235709 -2.64739 -0.000475264
-1.14704 -0.000577257 -0.776693 -0.000244224 -2.78008 -0.000499083
-1.2353 -0.000621675 -0.825348 -0.000259523 -2.86677 -0.000514646
-1.32288 -0.000665748 -0.897482 -0.000282205 -2.9064 -0.000521761
-1.40716 -0.000708165 -0.993577 -0.000312421 -2.89994 -0.0005206
-1.48614 -0.000747913 -1.1125 -0.000349816 -2.85009 -0.000511651
-1.55862 -0.000784387 -1.25153 -0.000393532 -2.76126 -0.000495704
-1.62418 -0.00081738 -1.40645 -0.000442247 -2.63946 -0.00047384
-1.68308 -0.000847026 -1.57181 -0.000494242 -2.49213 -0.000447391
-1.73617 -0.000873744 -1.74119 -0.000547503 -2.32765 -0.000417862
-1.78457 -0.000898102 -1.90773 -0.000599867 -2.15485 -0.000386842
-1.82933 -0.000920626 -2.06454 -0.000649176 -1.98263 -0.000355924
-1.87118 -0.000941688 -2.20521 -0.000693409 -1.81949 -0.000326637
-1.91063 -0.000961539 -2.32408 -0.000730785 -1.67319 -0.000300373
-1.94798 -0.00098034 -2.4165 -0.000759846 -1.55031 -0.000278314
-1.97703 -0.000994957 -2.47692 -0.000778846 -1.45656 -0.000261483
-1.97604 -0.000994461 -2.48666 -0.000781907 -1.40185 -0.000251662
-1.97298 -0.000992918 -2.46688 -0.00077569 -1.37836 -0.000247444
-1.99022 -0.0010016 -2.43061 -0.000764283 -1.38241 -0.000248173
-2.00743 -0.00101025 -2.36797 -0.000744588 -1.41778 -0.000254522
-2.0159 -0.00101452 -2.2817 -0.00071746 -1.48084 -0.000265841
-1.98081 -0.000996858 -2.1952 -0.000690262 -1.56105 -0.000280241
-1.94473 -0.0009787 -2.09383 -0.000658387 -1.65934 -0.000297887
-1.90096 -0.000956673 -1.97545 -0.000621163 -1.77203 -0.000318117
-1.85566 -0.000933877 -1.84917 -0.000581455 -1.89169 -0.000339599
-1.81004 -0.000910918 -1.7205 -0.000540995 -2.01178 -0.000361157
-1.76386 -0.000887676 -1.59179 -0.000500523 -2.12577 -0.000381621
-1.72044 -0.000865824 -1.46776 -0.000461524 -2.22744 -0.000399873
-1.6812 -0.00084608 -1.35337 -0.000425556 -2.31151 -0.000414965
-1.64695 -0.000828841 -1.25252 -0.000393842 -2.37259 -0.000425931
-1.61946 -0.000815005 -1.16838 -0.000367386 -2.40578 -0.000431889
-1.59977 -0.0008051 -1.10341 -0.000346958 -2.40819 -0.000432321
-1.58838 -0.000799368 -1.05973 -0.000333224 -2.37846 -0.000426984
-1.58584 -0.000798089 -1.03874 -0.000326622 -2.3158 -0.000415735
-1.5922 -0.000801287 -1.04059 -0.000327205 -2.22059 -0.000398643
-1.60705 -0.000808764 -1.06472 -0.000334791 -2.09505 -0.000376106
-1.62842 -0.000819518 -1.11039 -0.000349153 -1.94281 -0.000348776
-1.6456 -0.000828163 -1.17856 -0.000370588 -1.76778 -0.000317355
-1.65692 -0.000833861 -1.26652 -0.000398247 -1.57585 -0.000282899
-1.66178 -0.000836304 -1.36957 -0.000430648 -1.37397 -0.000246657
-1.66026 -0.000835541 -1.48186 -0.000465958 -1.17006 -0.000210051
-1.65495 -0.000832866 -1.57429 -0.000495022 -1.01113 -0.00018152
-1.64648 -0.000828604 -1.66552 -0.000523707 -0.860522 -0.000154482
-1.63529 -0.000822971 -1.75218 -0.000550956 -0.722249 -0.000129659
-1.62178 -0.000816177 -1.83105 -0.000575758 -0.600114 -0.000107733
-1.60633 -0.0008084 -1.89926 -0.000597206 -0.497608 -8.93311e-05
-1.5892 -0.000799777 -1.95434 -0.000614526 -0.417723 -7.49901e-05
-1.57049 -0.000790363 -1.99428 -0.000627083 -0.362769 -6.51247e-05
-1.55008 -0.000780091 -2.01757 -0.000634407 -0.334309 -6.00156e-05
-1.5275 -0.00076873 -2.02335 -0.000636224 -0.33319 -5.98148e-05
-1.50201 -0.000755898 -2.01141 -0.000632471 -0.359553 -6.45475e-05
-1.4726 -0.0007411 -1.98217 -0.000623276 -0.412801 -7.41065e-05
-1.43831 -0.000723844 -1.93651 -0.000608917 -0.491591 -8.8251e-05
-1.39843 -0.00070377 -1.87564 -0.000589777 -0.593904 -0.000106618
-1.35265 -0.000680732 -1.80102 -0.000566314 -0.717155 -0.000128745
-1.30121 -0.000654847 -1.71428 -0.000539039 -0.858289 -0.000154081
-1.24477 -0.000626443 -1.61719 -0.000508509 -1.01384 -0.000182005
-1.18417 -0.000595944 -1.51167 -0.000475332 -1.17996 -0.000211828
-1.12018 -0.000563739 -1.39987 -0.000440177 -1.35252 -0.000242806
-1.05341 -0.000530137 -1.2841 -0.000403772 -1.52718 -0.000274161
-0.984346 -0.000495381 -1.16676 -0.000366879 -1.69953 -0.000305102
-0.913452 -0.000459702 -1.05027 -0.000330249 -1.86521 -0.000334845
-0.841219 -0.00042335 -0.936908 -0.000294602 -2.02 -0.000362632
-0.768141 -0.000386574 -0.828774 -0.0002606 -2.1599 -0.000387748
-0.694656 -0.000349591 -0.72778 -0.000228844 -2.28128 -0.000409538
-0.621124 -0.000312586 -0.635583 -0.000199853 -2.38091 -0.000427423
-0.547855 -0.000275713 -0.553526 -0.000174051 -2.45605 -0.000440914
-0.475152 -0.000239124 -0.482579 -0.000151743 -2.50456 -0.000449622
-0.403329 -0.000202979 -0.423309 -0.000133106 -2.52487 -0.000453268
-0.332708 -0.000167438 -0.375866 -0.000118188 -2.51605 -0.000451685
-0.263615 -0.000132667 -0.339994 -0.000106908 -2.47784 -0.000444825
-0.196374 -9.88271e-05 -0.315039 -9.90612e-05 -2.41058 -0.00043275
-0.13129 -6.60729e-05 -0.299983 -9.43268e-05 -2.31524 -0.000415634
-0.068658 -3.45527e-05 -0.293474 -9.22801e-05 -2.19335 -0.000393753
-0.0087763 -4.41675e-06 -0.293875 -9.24063e-05 -2.04698 -0.000367476
0.0378546 1.90507e-05 -0.298295 -9.3796e-05 -1.87851 -0.000337233
0.0618196 3.11113e-05 -0.299599 -9.42061e-05 -1.69244 -0.00030383
0.0865323 4.35481e-05 -0.301449 -9.47878e-05 -1.48964 -0.000267423
0.110022 5.53697e-05 -0.305022 -9.59115e-05 -1.27296 -0.000228524
0.130803 6.58275e-05 -0.309393 -9.72857e-05 -1.04587 -0.000187756
0.150687 7.58343e-05 -0.311821 -9.80493e-05 -0.811347 -0.000145654
0.170987 8.60505e-05 -0.310299 -9.75706e-05 -0.572779 -0.000102826
0.191823 9.65368e-05 -0.30448 -9.57411e-05 -0.333509 -5.98719e-05
0.213814 0.000107604 -0.29397 -9.24361e-05 -0.0967491 -1.73685e-05
0.238101 0.000119827 -0.277451 -8.72421e-05 0.104982 1.88464e-05
0.265363 0.000133546 -0.253906 -7.98386e-05 0.288378 5.17699e-05
0.295752 0.00014884 -0.222463 -6.99514e-05 0.462466 8.30224e-05
0.329524 0.000165836 -0.182508 -5.73879e-05 0.626028 0.000112385
0.366881 0.000184636 -0.139065 -4.37278e-05 0.77771 0.000139616
0.407739 0.000205198 -0.0890761 -2.80092e-05 0.915811 0.000164408
0.451919 0.000227432 -0.0306748 -9.6454e-06 1.03888 0.000186502
0.499333 0.000251294 0.0365586 1.14955e-05 1.14636 0.000205795
0.549864 0.000276724 0.112303 3.53126e-05 1.23814 0.000222273
0.603336 0.000303634 0.195608 6.15072e-05 1.31434 0.000235952
0.659547 0.000331923 0.285491 8.97702e-05 1.37526 0.000246889
0.718187 0.000361434 0.381157 0.000119852 1.42156 0.0002552
0.778771 0.000391923 0.481727 0.000151475 1.45415 0.000261052
0.840662 0.00042307 0.586009 0.000184265 1.47425 0.000264659
0.903122 0.000454504 0.692611 0.000217785 1.48327 0.000266278
0.965355 0.000485823 0.800146 0.000251599 1.48287 0.000266206
1.02653 0.00051661 0.907289 0.000285289 1.47479 0.000264757
1.0858 0.000546439 1.01267 0.000318425 1.46084 0.000262251
1.14234 0.000574895 1.11482 0.000350545 1.44281 0.000259014
1.1954 0.000601595 1.21223 0.000381174 1.42256 0.000255379
1.2443 0.000626206 1.30345 0.000409858 1.40195 0.00025168
1.2885 0.000648451 1.38713 0.00043617 1.38275 0.000248232
1.3276 0.000668124 1.46199 0.000459708 1.36651 0.000245318
1.36133 0.000685101 1.5268 0.000480088 1.35462 0.000243183
1.38963 0.000699344 1.58047 0.000496964 1.34822 0.000242034
1.41259 0.000710898 1.62209 0.000510051 1.34827 0.000242044
1.43044 0.000719881 1.65097 0.000519133 1.35545 0.000243331
1.44349 0.000726448 1.66666 0.000524068 1.37006 0.000245955
1.4521 0.00073078 1.66899 0.000524799 1.39209 0.00024991
1.45667 0.000733082 1.65805 0.000521359 1.4212 0.000255135
1.45761 0.000733556 1.6341 0.000513828 1.45677 0.000261521
1.45541 0.000732449 1.59777 0.000502404 1.49787 0.000268899
1.45081 0.000730132 1.55003 0.000487393 1.54321 0.000277038
1.44455 0.000726981 1.49214 0.00046919 1.59125 0.000285663
1.43724 0.000723301 1.42556 0.000448256 1.64025 0.00029446
1.4294 0.000719358 1.35202 0.000425131 1.6883 0.000303085
1.42151 0.000715385 1.27344 0.000400423 1.73334 0.000311172
1.41392 0.000711568 1.1919 0.000374782 1.77329 0.000318344
1.40697 0.000708067 1.10949 0.000348869 1.80607 0.000324228
1.40096 0.000705047 1.02832 0.000323346 1.82968 0.000328467
1.39626 0.000702681 0.950422 0.000298852 1.84228 0.000330729
1.39317 0.000701126 0.877715 0.00027599 1.84224 0.000330722
1.39196 0.000700516 0.811949 0.00025531 1.8282 0.0003282
1.39283 0.000700956 0.754671 0.000237299 1.7991 0.000322977
1.39596 0.000702528 0.707181 0.000222367 1.75426 0.000314926
1.40147 0.000705303 0.670488 0.000210829 1.69337 0.000303995
1.40954 0.000709361 0.64527 0.000202899 1.61655 0.000290205
1.42035 0.000714801 0.631861 0.000198683 1.52434 0.000273652
1.43407 0.000721706 0.630223 0.000198168 1.41772 0.000254511
1.45046 0.000729957 0.639427 0.000201062 1.29848 0.000233105
1.46929 0.000739432 0.659939 0.000207512 1.16773 0.000209633
1.49174 0.000750732 0.690603 0.000217154 1.02753 0.000184464
1.51492 0.000762399 0.730628 0.000229739 0.880374 0.000158046
1.53915 0.000774592 0.778766 0.000244876 0.728911 0.000130855
1.56568 0.000787943 0.833114 0.000261965 0.576284 0.000103455
1.59305 0.000801717 0.892281 0.00028057 0.425014 7.62991e-05
1.61657 0.00081355 0.954278 0.000300064 0.278148 4.99335e-05
1.63676 0.000823715 1.01853 0.000320267 0.138354 2.48375e-05
1.65336 0.000832067 1.08384 0.000340802 0.00873047 1.56731e-06
1.66502 0.000837934 1.14846 0.000361123 -0.118176 -2.12151e-05
1.67013 0.000840509 1.21051 0.000380635 -0.240174 -4.31164e-05
1.66801 0.000839441 1.26831 0.00039881 -0.341008 -6.12183e-05
1.65822 0.000834512 1.32049 0.000415215 -0.417724 -7.49904e-05
1.64006 0.000825377 1.36516 0.000429262 -0.467623 -8.39483e-05
1.6134 0.000811956 1.40042 0.00044035 -0.488867 -8.77621e-05
1.57884 0.000794566 1.42473 0.000447994 -0.480519 -8.62633e-05
1.53723 0.000773623 1.43684 0.000451803 -0.442139 -7.93733e-05
1.48923 0.000749466 1.43572 0.000451449 -0.373609 -6.70708e-05
1.43561 0.000722484 1.42064 0.000446707 -0.275375 -4.94357e-05
1.37738 0.000693179 1.39127 0.000437473 -0.148648 -2.66855e-05
1.31558 0.000662079 1.34773 0.00042378 -0.0149902 -2.69107e-06
1.25134 0.000629748 1.29023 0.000405702 0.130853 2.34908e-05
1.18585 0.000596789 1.2197 0.000383524 0.293212 5.26378e-05
1.12032 0.00056381 1.13739 0.000357641 0.469424 8.42717e-05
1.05571 0.000531295 1.04489 0.000328556 0.656138 0.000117791
0.992675 0.000499572 0.944181 0.000296889 0.849261 0.00015246
0.931668 0.00046887 0.837631 0.000263386 1.04436 0.000187486
0.872976 0.000439332 0.727882 0.000228876 1.23709 0.000222084
0.816705 0.000411014 0.617685 0.000194225 1.42326 0.000255505
0.762796 0.000383884 0.509807 0.000160304 1.59877 0.000287013
0.711098 0.000357866 0.406962 0.000127966 1.75954 0.000315875
0.661453 0.000332882 0.311723 9.80185e-05 1.90168 0.000341391
0.61375 0.000308875 0.226389 7.11861e-05 2.02171 0.00036294
0.567932 0.000285817 0.152884 4.80731e-05 2.1168 0.00038001
0.523931 0.000263673 0.092715 2.91534e-05 2.18468 0.000392197
0.481609 0.000242374 0.0469656 1.47679e-05 2.22371 0.000399204
0.440763 0.000221818 0.0162725 5.11674e-06 2.23281 0.000400838
0.401168 0.000201891 0.000777238 2.44395e-07 2.21156 0.000397023
0.362598 0.000182481 9.62277e-05 3.02579e-08 2.16028 0.000387816
0.324829 0.000163473 0.0133307 4.19173e-06 2.07999 0.000373403
0.287636 0.000144755 0.0391083 1.22973e-05 1.9724 0.000354087
0.25078 0.000126207 0.0756356 2.37829e-05 1.83974 0.000330273
0.213972 0.000107683 0.120758 3.79712e-05 1.68477 0.000302452
0.176843 8.89976e-05 0.172027 5.40923e-05 1.51067 0.000271197
0.138936 6.99205e-05 0.22678 7.13088e-05 1.321 0.000237148
0.0997096 5.01797e-05 0.282221 8.87418e-05 1.1196 0.000200992
0.0773391 3.89215e-05 0.331184 0.000104138 0.911056 0.000163554
0.0605056 3.045e-05 0.372121 0.00011701 0.698718 0.000125435
0.0398725 2.00662e-05 0.404901 0.000127318 0.486764 8.73845e-05
0.0166083 8.35828e-06 0.430191 0.00013527 0.27745 4.98083e-05
-0.00940309 -4.73218e-06 0.44565 0.000140131 0.074555 1.33842e-05
-0.0394068 -1.98318e-05 0.4482 0.000140932 -0.139144 -2.49794e-05
-0.0733573 -3.69177e-05 0.436023 0.000137103 -0.35993 -6.46151e-05
-0.110146 -5.5432e-05 0.409016 0.000128612 -0.563985 -0.000101247
-0.149178 -7.50752e-05 0.367739 0.000115632 -0.748632 -0.000134395
-0.193181 -9.72201e-05 0.310909 9.77626e-05 -0.911873 -0.000163701
-0.240455 -0.000121011 0.237851 7.479e-05 -1.05321 -0.000189074
-0.290444 -0.000146168 0.139103 4.37396e-05 -1.17186 -0.000210374
-0.342705 -0.000172469 0.0246044 7.73662e-06 -1.26931 -0.000227867
-0.396815 -0.000199701 -0.103249 -3.24658e-05 -1.34537 -0.000241523
-0.4525 -0.000227724 -0.242667 -7.63044e-05 -1.40158 -0.000251613
-0.509056 -0.000256187 -0.391969 -0.000123251 -1.44028 -0.00025856
-0.565756 -0.000284721 -0.548924 -0.000172604 -1.46422 -0.000262859
-0.62169 -0.000312871 -0.710746 -0.000223488 -1.47607 -0.000264986
-0.675208 -0.000339804 -0.874654 -0.000275027 -1.47851 -0.000265425
-0.726222 -0.000365477 -1.03755 -0.000326248 -1.4748 -0.000264759
-0.774812 -0.000389931 -1.1963 -0.000376166 -1.46838 -0.000263605
-0.821323 -0.000413338 -1.34762 -0.000423745 -1.46259 -0.000262567
-0.866333 -0.000435989 -1.48816 -0.000467937 -1.46052 -0.000262195
-0.910475 -0.000458204 -1.6149 -0.000507791 -1.46493 -0.000262985
-0.954289 -0.000480254 -1.72536 -0.000542523 -1.4782 -0.000265368
-0.998169 -0.000502337 -1.81757 -0.000571517 -1.50226 -0.000269688
-1.03853 -0.000522647 -1.89132 -0.00059471 -1.53821 -0.000276141
-1.07219 -0.000539586 -1.94707 -0.00061224 -1.58617 -0.000284752
-1.10293 -0.000555059 -1.98297 -0.000623527 -1.64748 -0.000295758
-1.1306 -0.000568986 -1.99882 -0.000628512 -1.72129 -0.000309008
-1.15545 -0.00058149 -1.99521 -0.000627377 -1.80646 -0.000324298
-1.17722 -0.000592446 -1.97326 -0.000620475 -1.90161 -0.00034138
-1.19572 -0.000601758 -1.93459 -0.000608314 -2.00493 -0.000359928
-1.2112 -0.000609546 -1.88119 -0.000591522 -2.11388 -0.000379487
-1.22402 -0.000616 -1.81505 -0.000570726 -2.22549 -0.000399522
-1.23449 -0.000621266 -1.73836 -0.000546612 -2.33665 -0.000419479
-1.24303 -0.000625568 -1.65375 -0.000520006 -2.44419 -0.000438784
-1.25025 -0.0006292 -1.5641 -0.000491818 -2.54479 -0.000456843
-1.25667 -0.000632428 -1.47225 -0.000462935 -2.63504 -0.000473046
-1.26273 -0.000635481 -1.38088 -0.000434205 -2.71161 -0.000486792
-1.26892 -0.000638596 -1.29265 -0.000406463 -2.77143 -0.000497531
-1.27569 -0.000642001 -1.21016 -0.000380524 -2.8118 -0.000504778
-1.28342 -0.000645891 -1.13575 -0.000357128 -2.83045 -0.000508125
-1.29245 -0.000650436 -1.07144 -0.000336906 -2.8255 -0.000507237
-1.30306 -0.000655776 -1.0189 -0.000320383 -2.79559 -0.000501867
-1.3154 -0.000661989 -0.979447 -0.000307978 -2.73996 -0.000491882
-1.32948 -0.000669073 -0.954055 -0.000299994 -2.65853 -0.000477262
-1.34518 -0.000676971 -0.943268 -0.000296602 -2.55183 -0.000458108
-1.36234 -0.000685609 -0.947162 -0.000297827 -2.42105 -0.00043463
-1.38084 -0.000694921 -0.965334 -0.000303541 -2.26799 -0.000407152
-1.39999 -0.000704559 -0.996469 -0.000313331 -2.09521 -0.000376134
-1.41693 -0.000713085 -1.04026 -0.0003271 -1.90537 -0.000342055
-1.43284 -0.000721087 -1.09529 -0.000344405 -1.70202 -0.000305548
-1.44789 -0.000728662 -1.15957 -0.000364616 -1.48895 -0.000267298
-1.46184 -0.000735683 -1.2304 -0.000386888 -1.27046 -0.000228075
-1.47479 -0.0007422 -1.30514 -0.00041039 -1.05099 -0.000188675
-1.48711 -0.0007484 -1.38125 -0.00043432 -0.835011 -0.000149902
-1.49894 -0.000754355 -1.45603 -0.000457836 -0.627025 -0.000112564
-1.51028 -0.000760063 -1.52679 -0.000480086 -0.431373 -7.74406e-05
-1.52113 -0.000765521 -1.59108 -0.000500301 -0.252082 -4.5254e-05
-1.53126 -0.000770621 -1.64684 -0.000517834 -0.0927938 -1.66585e-05
-1.54013 -0.000775082 -1.69239 -0.000532155 0.0434381 7.79806e-06
-1.54704 -0.000778559 -1.72639 -0.000542848 0.134493 2.41444e-05
-1.55138 -0.000780745 -1.74802 -0.00054965 0.202441 3.63424e-05
-1.55266 -0.00078139 -1.75663 -0.000552358 0.245974 4.41576e-05
-1.55039 -0.00078025 -1.75192 -0.000550875 0.26489 4.75534e-05
-1.54411 -0.000777085 -1.73394 -0.000545221 0.259212 4.65341e-05
-1.53363 -0.00077181 -1.70323 -0.000535566 0.229268 4.11585e-05
-1.51907 -0.000764483 -1.66065 -0.000522178 0.175876 3.15735e-05
-1.50076 -0.000755273 -1.60725 -0.000505385 0.100501 1.8042e-05
-1.47931 -0.000744473 -1.54425 -0.000485576 -0.00450193 -8.08191e-07
-1.45543 -0.000732457 -1.4733 -0.000463267 -0.141023 -2.53166e-05
-1.42989 -0.000719604 -1.3962 -0.000439024 -0.29555 -5.30575e-05
-1.40327 -0.000706206 -1.31497 -0.000413479 -0.464338 -8.33586e-05
-1.37595 -0.00069246 -1.23184 -0.000387342 -0.643531 -0.000115527
-1.34824 -0.000678512 -1.14922 -0.000361362 -0.82921 -0.000148861
-1.32044 -0.000664525 -1.06947 -0.000336285 -1.01734 -0.000182633
-1.29298 -0.000650704 -0.994815 -0.000312811 -1.20379 -0.000216107
-1.26635 -0.0006373 -0.927307 -0.000291583 -1.38461 -0.000248567
-1.24108 -0.000624586 -0.868788 -0.000273183 -1.55613 -0.000279358
-1.21776 -0.000612848 -0.820851 -0.000258109 -1.7151 -0.000307898
-1.19694 -0.000602369 -0.784778 -0.000246766 -1.8587 -0.000333676
-1.17912 -0.000593401 -0.76153 -0.000239456 -1.98446 -0.000356254
-1.16464 -0.000586117 -0.751759 -0.000236384 -2.09041 -0.000375273
-1.1536 -0.00058056 -0.755829 -0.000237664 -2.1751 -0.000390477
-1.14577 -0.000576616 -0.773824 -0.000243322 -2.2377 -0.000401714
-1.14061 -0.000574021 -0.805522 -0.000253289 -2.27792 -0.000408936
-1.13739 -0.000572402 -0.850365 -0.00026739 -2.29607 -0.000412194
-1.13523 -0.000571312 -0.90744 -0.000285336 -2.29296 -0.000411636
-1.13308 -0.000570232 -0.975496 -0.000306736 -2.26995 -0.000407504
-1.12982 -0.000568593 -1.05295 -0.00033109 -2.22889 -0.000400133
-1.12435 -0.000565841 -1.13787 -0.000357792 -2.17211 -0.00038994
-1.1157 -0.000561484 -1.22799 -0.000386131 -2.10234 -0.000377414
-1.10302 -0.000555106 -1.32077 -0.000415303 -2.02256 -0.000363093
-1.08569 -0.000546382 -1.4134 -0.000444431 -1.93601 -0.000347556
-1.06328 -0.000535107 -1.50294 -0.000472586 -1.84602 -0.0003314
-1.03565 -0.000521201 -1.58633 -0.000498807 -1.75595 -0.00031523
-1.00284 -0.000504687 -1.66053 -0.000522139 -1.66904 -0.000299628
-0.965032 -0.000485661 -1.72263 -0.000541666 -1.58832 -0.000285137
-0.922485 -0.000464248 -1.76996 -0.000556548 -1.51648 -0.00027224
-0.875427 -0.000440566 -1.80021 -0.000566059 -1.45577 -0.000261341
-0.824051 -0.000414711 -1.8115 -0.000569611 -1.40793 -0.000252753
-0.768546 -0.000386778 -1.80246 -0.000566766 -1.37413 -0.000246686
-0.709135 -0.000356879 -1.77217 -0.000557243 -1.35493 -0.000243239
-0.646106 -0.000325159 -1.72029 -0.00054093 -1.35022 -0.000242393
-0.579819 -0.000291799 -1.64698 -0.000517877 -1.35927 -0.000244017
-0.510694 -0.000257011 -1.55294 -0.000488307 -1.38069 -0.000247863
-0.439175 -0.000221019 -1.4394 -0.000452605 -1.41252 -0.000253577
-0.366098 -0.000184242 -1.30827 -0.000411374 -1.45213 -0.000260687
-0.297454 -0.000149696 -1.1602 -0.000364815 -1.4966 -0.000268672
-0.227166 -0.000114323 -0.998317 -0.000313912 -1.54312 -0.000277023
-0.154938 -7.79737e-05 -0.826968 -0.000260033 -1.58716 -0.00028493
-0.0831263 -4.1834e-05 -0.649708 -0.000204295 -1.62473 -0.000291673
-0.0120187 -6.04851e-06 -0.469046 -0.000147487 -1.65204 -0.000296576
0.0549383 2.76482e-05 -0.288013 -9.05631e-05 -1.66556 -0.000299003
0.114719 5.77336e-05 -0.111295 -3.49957e-05 -1.66099 -0.000298183
0.171374 8.62453e-05 0.0592664 1.86358e-05 -1.63566 -0.000293636
0.225932 0.000113702 0.221693 6.97094e-05 -1.58672 -0.00028485
0.276754 0.000139279 0.366718 0.000115311 -1.51034 -0.000271138
0.322609 0.000162356 0.490242 0.000154152 -1.40632 -0.000252464
0.3644 0.000183387 0.598331 0.00018814 -1.27343 -0.000228608
0.402304 0.000202463 0.690329 0.000217068 -1.11118 -0.000199481
0.435821 0.00021933 0.764972 0.000240539 -0.919552 -0.000165079
0.465113 0.000234072 0.821315 0.000258255 -0.699688 -0.000125609
0.490871 0.000247035 0.859194 0.000270166 -0.453615 -8.14335e-05
0.513546 0.000258446 0.879078 0.000276418 -0.183886 -3.30114e-05
0.533495 0.000268486 0.882006 0.000277339 0.0693738 1.24541e-05
0.551463 0.000277528 0.868913 0.000273222 0.32192 5.77915e-05
0.568314 0.000286009 0.841574 0.000264625 0.583885 0.00010482
0.584865 0.000294338 0.80199 0.000252178 0.852104 0.000152971
0.601938 0.000302931 0.752465 0.000236606 1.12251 0.000201515
0.620474 0.000312259 0.69563 0.000218735 1.39012 0.000249555
0.641344 0.000322762 0.63435 0.000199466 1.6497 0.000296157
0.665175 0.000334755 0.571647 0.000179749 1.89653 0.000340468
0.692319 0.000348416 0.510593 0.000160552 2.12638 0.000381731
0.722961 0.000363836 0.454075 0.00014278 2.33529 0.000419234
0.757237 0.000381086 0.40507 0.000127371 2.51823 0.000452075
0.795801 0.000400494 0.363195 0.000114203 2.59854 0.000466493
0.837832 0.000421646 0.335951 0.000105637 2.61467 0.00046939
0.883528 0.000444643 0.326137 0.000102551 2.60067 0.000466876
0.931475 0.000468773 0.331785 0.000104327 2.58268 0.000463646
0.982484 0.000494443 0.351621 0.000110564 2.58846 0.000464683
1.03587 0.000521309 0.388006 0.000122005 2.5995 0.000466666
1.09113 0.00054912 0.442713 0.000139207 2.57535 0.00046233
1.14847 0.000577976 0.516039 0.000162264 2.49878 0.000448583
1.20798 0.000607929 0.605029 0.000190246 2.37977 0.000427219
1.26956 0.000638916 0.706311 0.000222093 2.24047 0.000402213
1.333 0.000670843 0.818044 0.000257227 2.09241 0.000375632
1.39806 0.000703587 0.938966 0.000295249 1.93069 0.0003466
1.46437 0.000736958 1.06675 0.000335431 1.74705 0.000313633
1.5314 0.000770692 1.198 0.000376701 1.54367 0.000277122
1.59856 0.000804489 1.32926 0.000417974 1.33319 0.000239335
1.66513 0.00083799 1.45766 0.000458348 1.12794 0.000202489
1.73026 0.000870769 1.58069 0.000497034 0.932115 0.000167334
1.79305 0.000902369 1.69583 0.000533239 0.74413 0.000133587
1.85258 0.000932329 1.80058 0.000566175 0.564278 0.0001013
1.90783 0.000960133 1.89264 0.000595124 0.39828 7.14998e-05
1.93601 0.000974314 1.9477 0.000612438 0.261055 4.6865e-05
1.92548 0.000969014 1.96972 0.000619362 0.151459 2.71901e-05
1.92378 0.000968157 1.97858 0.000622145 0.067861 1.21825e-05
1.93813 0.000975378 1.99331 0.000626778 0.00145773 2.61694e-07
1.94879 0.000980743 2.0026 0.000629699 -0.0426994 -7.66546e-06
1.94589 0.000979287 2.0019 0.000629478 -0.0647523 -1.16244e-05
1.94455 0.00097861 1.99065 0.000625943 -0.0616418 -1.1066e-05
1.94024 0.000976443 1.96889 0.000619098 -0.0320986 -5.76238e-06
1.92788 0.000970221 1.93247 0.000607647 0.022239 3.99238e-06
1.90845 0.000960442 1.88118 0.000591519 0.0984702 1.76775e-05
1.88552 0.000948906 1.81797 0.000571643 0.194297 3.48804e-05
1.85903 0.000935575 1.7451 0.000548731 0.30938 5.55403e-05
1.82803 0.000919971 1.66436 0.000523343 0.441533 7.92645e-05
1.79403 0.00090286 1.57767 0.000496083 0.586486 0.000105287
1.7587 0.000885082 1.48705 0.000467589 0.739668 0.000132786
1.72248 0.000866852 1.39462 0.000438527 0.897805 0.000161175
1.68589 0.000848438 1.30304 0.000409728 1.05815 0.00018996
1.65017 0.000830465 1.21499 0.000382042 1.21732 0.000218534
1.61645 0.00081349 1.13254 0.000356116 1.37133 0.000246182
1.5854 0.000797865 1.05741 0.000332492 1.51637 0.000272221
1.55778 0.000783965 0.991521 0.000311775 1.64934 0.000296092
1.53442 0.000772211 0.93682 0.000294575 1.76775 0.000317349
1.51597 0.000762927 0.894741 0.000281343 1.86943 0.000335602
1.50285 0.000756323 0.866188 0.000272365 1.95234 0.000350487
1.49541 0.000752576 0.851832 0.000267851 2.01484 0.000361707
1.493 0.000751365 0.852401 0.00026803 2.05587 0.000369073
1.49193 0.000750825 0.869126 0.000273289 2.07485 0.000372479
1.49236 0.000751043 0.901636 0.000283511 2.07227 0.000372016
1.49428 0.00075201 0.948946 0.000298387 2.04884 0.00036781
1.49768 0.000753718 1.0095 0.000317429 2.0058 0.000360084
1.50246 0.000756125 1.08152 0.000340073 1.94494 0.000349157
1.50849 0.000759158 1.16299 0.000365692 1.86859 0.000335453
1.51555 0.000762715 1.25165 0.000393569 1.77947 0.000319453
1.52337 0.00076665 1.3449 0.000422892 1.68046 0.000301679
1.53155 0.000770768 1.44003 0.000452804 1.57464 0.000282681
1.53964 0.000774835 1.53433 0.000482458 1.46521 0.000263037
1.54712 0.000778599 1.62521 0.000511032 1.35543 0.000243329
1.55349 0.000781807 1.7101 0.000537724 1.24846 0.000224125
1.55828 0.000784218 1.78657 0.000561769 1.14726 0.000205958
1.56107 0.000785621 1.85238 0.000582465 1.05456 0.000189317
1.56152 0.000785851 1.90562 0.000599205 0.972776 0.000174634
1.55944 0.000784801 1.94467 0.000611485 0.903939 0.000162276
1.55472 0.000782425 1.96828 0.000618908 0.849644 0.000152529
1.54736 0.000778722 1.97557 0.0006212 0.810991 0.00014559
1.53739 0.000773705 1.96611 0.000618226 0.788563 0.000141564
1.5248 0.000767366 1.93998 0.000610009 0.782419 0.000140461
1.50947 0.000759654 1.89774 0.000596727 0.792092 0.000142197
1.49119 0.000750455 1.84043 0.000578707 0.816598 0.000146597
1.46966 0.000739618 1.76951 0.000556407 0.854478 0.000153397
1.44462 0.000727016 1.68679 0.000530395 0.903867 0.000162263
1.41593 0.000712578 1.59431 0.000501318 0.962557 0.000172799
1.38357 0.000696295 1.49434 0.000469881 1.02807 0.00018456
1.34763 0.000678207 1.38922 0.000436827 1.09772 0.000197063
1.30826 0.000658395 1.28137 0.000402915 1.16871 0.000209809
1.26567 0.000636959 1.17321 0.000368906 1.23822 0.000222288
1.22004 0.000613995 1.0671 0.000335539 1.30348 0.000234002
1.17155 0.000589591 0.965245 0.000303513 1.36181 0.000244474
1.12039 0.000563847 0.86967 0.00027346 1.4108 0.000253268
1.06689 0.000536921 0.782087 0.00024592 1.44826 0.000259994
1.01158 0.000509087 0.703836 0.000221315 1.4724 0.000264326
0.955299 0.000480763 0.635823 0.000199929 1.48178 0.000266011
0.89909 0.000452475 0.578531 0.000181914 1.47541 0.000264867
0.844057 0.000424779 0.532074 0.000167306 1.45269 0.000260789
0.791198 0.000398177 0.496266 0.000156046 1.41348 0.00025375
0.741271 0.000373051 0.470686 0.000148003 1.358 0.00024379
0.694737 0.000349632 0.454721 0.000142983 1.28687 0.00023102
0.651761 0.000328004 0.447584 0.000140739 1.20105 0.000215614
0.612269 0.000308129 0.448326 0.000140972 1.10185 0.000197805
0.576001 0.000289878 0.455855 0.00014334 0.990843 0.000177877
0.542541 0.000273038 0.468952 0.000147458 0.869885 0.000156163
0.511344 0.000257339 0.486298 0.000152912 0.741022 0.000133029
0.481793 0.000242466 0.506498 0.000159264 0.606466 0.000108874
0.453267 0.000228111 0.52809 0.000166053 0.468537 8.41124e-05
0.425159 0.000213965 0.549579 0.00017281 0.329611 5.91721e-05
0.396813 0.000199699 0.569495 0.000179073 0.192055 3.44779e-05
0.367478 0.000184936 0.586447 0.000184403 0.058174 1.04435e-05
0.33628 0.000169236 0.599403 0.000188477 -0.0740589 -1.32951e-05
0.302378 0.000152174 0.607065 0.000190886 -0.205187 -3.68355e-05
0.26501 0.000133369 0.607842 0.00019113 -0.322006 -5.7807e-05
0.22368 0.000112569 0.601245 0.000189056 -0.426851 -7.66288e-05
0.178303 8.97323e-05 0.587036 0.000184588 -0.520611 -9.34608e-05
0.147714 7.43383e-05 0.560627 0.000176284 -0.602006 -0.000108073
0.11648 5.86196e-05 0.520529 0.000163676 -0.666594 -0.000119668
0.079219 3.98676e-05 0.471702 0.000148322 -0.715622 -0.000128469
0.0400943 2.01778e-05 0.416115 0.000130843 -0.7498 -0.000134605
-0.00160915 -8.09819e-07 0.353251 0.000111076 -0.770992 -0.000138409
-0.0472254 -2.37666e-05 0.282132 8.87139e-05 -0.77991 -0.00014001
-0.094403 -4.75091e-05 0.208398 6.55289e-05 -0.778123 -0.00013969
-0.138697 -6.98003e-05 0.131659 4.13988e-05 -0.764176 -0.000137186
-0.185043 -9.31247e-05 0.0477519 1.50152e-05 -0.739962 -0.000132839
-0.233725 -0.000117624 -0.0441566 -1.38846e-05 -0.705955 -0.000126734
-0.282311 -0.000142075 -0.138726 -4.3621e-05 -0.666602 -0.000119669
-0.329282 -0.000165714 -0.233107 -7.32985e-05 -0.623178 -0.000111874
-0.375804 -0.000189127 -0.32621 -0.000102574 -0.577357 -0.000103648
-0.421899 -0.000212324 -0.417242 -0.000131198 -0.531375 -9.53932e-05
-0.466385 -0.000234712 -0.504823 -0.000158737 -0.488016 -8.76093e-05
-0.50884 -0.000256078 -0.587493 -0.000184732 -0.449479 -8.0691e-05
-0.549469 -0.000276525 -0.66395 -0.000208773 -0.417363 -7.49256e-05
-0.588032 -0.000295932 -0.732985 -0.00023048 -0.393248 -7.05963e-05
-0.624043 -0.000314055 -0.793712 -0.000249576 -0.378716 -6.79877e-05
-0.657406 -0.000330845 -0.845583 -0.000265886 -0.375022 -6.73244e-05
-0.688234 -0.00034636 -0.888073 -0.000279247 -0.38296 -6.87495e-05
-0.7165 -0.000360585 -0.92066 -0.000289493 -0.402983 -7.2344e-05
-0.742161 -0.000373499 -0.943159 -0.000296568 -0.435251 -7.81368e-05
-0.765335 -0.000385162 -0.95582 -0.000300549 -0.479585 -8.60957e-05
-0.786222 -0.000395673 -0.9591 -0.00030158 -0.535423 -9.61199e-05
-0.805015 -0.000405131 -0.953514 -0.000299824 -0.601847 -0.000108044
-0.821983 -0.00041367 -0.939751 -0.000295496 -0.67764 -0.000121651
-0.837504 -0.000421481 -0.918741 -0.00028889 -0.758927 -0.000136243
-0.852062 -0.000428808 -0.891313 -0.000280265 -0.840043 -0.000150806
-0.86598 -0.000435812 -0.859435 -0.000270241 -0.921811 -0.000165485
-0.879847 -0.000442791 -0.824001 -0.0002591 -1.0056 -0.000180527
-0.893978 -0.000449902 -0.786415 -0.000247281 -1.09061 -0.000195787
-0.908852 -0.000457387 -0.748239 -0.000235277 -1.17513 -0.00021096
-0.924832 -0.00046543 -0.711209 -0.000223633 -1.25629 -0.000225531
-0.942293 -0.000474217 -0.676883 -0.00021284 -1.33145 -0.000239024
-0.961586 -0.000483927 -0.646654 -0.000203335 -1.39905 -0.00025116
-0.983012 -0.000494709 -0.621859 -0.000195538 -1.45831 -0.000261798
-1.00676 -0.000506662 -0.603817 -0.000189865 -1.50834 -0.00027078
-1.03289 -0.00051981 -0.593768 -0.000186705 -1.5478 -0.000277862
-1.06129 -0.000534102 -0.592767 -0.00018639 -1.57529 -0.000282798
-1.09173 -0.000549424 -0.601649 -0.000189183 -1.59008 -0.000285453
-1.1239 -0.000565613 -0.621016 -0.000195273 -1.59209 -0.000285814
-1.15744 -0.000582491 -0.651165 -0.000204753 -1.58068 -0.000283766
-1.19197 -0.00059987 -0.692173 -0.000217648 -1.556 -0.000279335
-1.22716 -0.000617577 -0.743753 -0.000233866 -1.51866 -0.000272631
-1.26266 -0.000635447 -0.805265 -0.000253208 -1.4699 -0.000263878
-1.29822 -0.000653338 -0.875751 -0.000275372 -1.41168 -0.000253427
-1.33358 -0.000671134 -0.953989 -0.000299973 -1.34631 -0.000241692
-1.36858 -0.000688751 -1.03851 -0.000326549 -1.27613 -0.000229092
-1.40311 -0.00070613 -1.12762 -0.000354569 -1.20347 -0.000216049
-1.43697 -0.000723167 -1.21951 -0.000383464 -1.13087 -0.000203014
-1.46914 -0.000739355 -1.31262 -0.000412741 -1.06097 -0.000190466
-1.49994 -0.000754856 -1.40493 -0.000441769 -0.996656 -0.000178921
-1.52961 -0.00076979 -1.49436 -0.000469889 -0.940619 -0.000168861
-1.55822 -0.000784187 -1.5789 -0.000496472 -0.895248 -0.000160716
-1.58578 -0.000798057 -1.65683 -0.000520976 -0.862646 -0.000154863
-1.61226 -0.000811384 -1.72674 -0.000542957 -0.844653 -0.000151633
-1.63755 -0.000824109 -1.78742 -0.00056204 -0.842793 -0.000151299
-1.65765 -0.000834226 -1.83963 -0.000578455 -0.857635 -0.000153964
-1.67538 -0.000843147 -1.88164 -0.000591664 -0.890342 -0.000159835
-1.68939 -0.000850202 -1.9129 -0.000601494 -0.94125 -0.000168974
-1.69996 -0.000855519 -1.93339 -0.000607938 -1.00978 -0.000181277
-1.70762 -0.000859377 -1.94316 -0.000611009 -1.09533 -0.000196635
-1.71207 -0.000861613 -1.94242 -0.000610776 -1.19693 -0.000214874
-1.71289 -0.000862025 -1.93137 -0.000607302 -1.31343 -0.000235789
-1.71015 -0.000860648 -1.91083 -0.000600843 -1.44288 -0.000259027
-1.70435 -0.000857728 -1.8818 -0.000591715 -1.57885 -0.000283438
-1.69595 -0.000853504 -1.84488 -0.000580107 -1.71142 -0.000307236
-1.68504 -0.00084801 -1.80269 -0.000566841 -1.84472 -0.000331167
-1.6721 -0.0008415 -1.75602 -0.000552165 -1.98022 -0.000355491
-1.65738 -0.00083409 -1.70638 -0.000536555 -2.1173 -0.0003801
-1.64133 -0.000826012 -1.65539 -0.000520524 -2.25348 -0.000404548
-1.62428 -0.000817431 -1.60487 -0.000504638 -2.38446 -0.000428061
-1.60668 -0.000808575 -1.55636 -0.000489383 -2.50645 -0.00044996
-1.58897 -0.000799662 -1.51114 -0.000475165 -2.61744 -0.000469886
-1.57153 -0.000790887 -1.47037 -0.000462346 -2.71661 -0.00048769
-1.55386 -0.000781996 -1.43541 -0.000451351 -2.80275 -0.000503153
-1.53406 -0.000772028 -1.4079 -0.000442701 -2.87362 -0.000515876
-1.51196 -0.000760909 -1.38861 -0.000436637 -2.92723 -0.000525501
-1.48726 -0.000748478 -1.37792 -0.000433274 -2.96242 -0.000531818
-1.45976 -0.000734636 -1.37574 -0.000432588 -2.97919 -0.000534828
-1.42943 -0.000719372 -1.38162 -0.000434438 -2.97752 -0.000534528
-1.39651 -0.000702805 -1.3947 -0.000438552 -2.95646 -0.000530747
-1.36143 -0.000685154 -1.41387 -0.00044458 -2.91597 -0.000523478
-1.32467 -0.000666653 -1.43761 -0.000452044 -2.85697 -0.000512886
-1.28658 -0.000647485 -1.46416 -0.000460393 -2.78137 -0.000499315
-1.24738 -0.000627755 -1.4917 -0.000469053 -2.69166 -0.00048321
-1.20717 -0.000607521 -1.5184 -0.000477448 -2.59018 -0.000464992
-1.16606 -0.00058683 -1.5424 -0.000484994 -2.47894 -0.000445023
-1.12414 -0.000565735 -1.56182 -0.000491101 -2.35993 -0.000423658
-1.08146 -0.000544252 -1.57486 -0.000495201 -2.23542 -0.000401306
-1.03788 -0.000522323 -1.57992 -0.000496793 -2.10789 -0.000378411
-0.993181 -0.000499827 -1.57565 -0.00049545 -1.97963 -0.000355385
-0.947129 -0.000476651 -1.56093 -0.000490819 -1.85248 -0.00033256
-0.89962 -0.000452741 -1.53481 -0.000482607 -1.72793 -0.000310201
-0.850707 -0.000428126 -1.4966 -0.000470593 -1.60724 -0.000288534
-0.800546 -0.000402882 -1.44587 -0.00045464 -1.49152 -0.00026776
-0.749323 -0.000377103 -1.3825 -0.000434715 -1.38163 -0.000248031
-0.69718 -0.000350862 -1.30674 -0.000410894 -1.27795 -0.00022942
-0.644166 -0.000324182 -1.2192 -0.000383365 -1.18044 -0.000211915
-0.590202 -0.000297024 -1.12081 -0.000352429 -1.08868 -0.000195441
-0.535105 -0.000269296 -1.01286 -0.000318485 -1.002 -0.00017988
-0.478656 -0.000240888 -0.896872 -0.000282013 -0.91954 -0.000165077
-0.420651 -0.000211696 -0.774557 -0.000243552 -0.840208 -0.000150835
-0.360975 -0.000181664 -0.647736 -0.000203675 -0.762707 -0.000136922
-0.29965 -0.000150802 -0.518268 -0.000162965 -0.68562 -0.000123083
-0.236853 -0.000119198 -0.387996 -0.000122002 -0.607513 -0.000109062
-0.172862 -8.69941e-05 -0.258709 -8.13486e-05 -0.527015 -9.46104e-05
-0.108013 -5.43585e-05 -0.13211 -4.15407e-05 -0.442842 -7.94995e-05
-0.0429572 -2.16186e-05 -0.00974521 -3.06429e-06 -0.35373 -6.3502e-05
0.0155745 7.838e-06 0.099178 3.11856e-05 -0.25721 -4.61746e-05
0.0680124 3.42278e-05 0.19284 6.06369e-05 -0.153165 -2.74964e-05
0.120618 6.07021e-05 0.279131 8.77703e-05 -0.0458956 -8.23924e-06
0.16126 8.11554e-05 0.363472 0.000114291 0.0397183 7.13027e-06
0.199584 0.000100443 0.440958 0.000138655 0.128212 2.30168e-05
0.234133 0.00011783 0.509237 0.000160125 0.220961 3.96671e-05
0.26582 0.000133776 0.566932 0.000178267 0.320606 5.75556e-05
0.295394 0.000148659 0.614747 0.000193302 0.426347 7.65384e-05
0.322444 0.000162273 0.653156 0.000205379 0.536382 9.62919e-05
0.34674 0.0001745 0.682116 0.000214485 0.648428 0.000116407
0.368853 0.000185629 0.701421 0.000220555 0.761535 0.000136712
0.389264 0.0001959 0.711264 0.000223651 0.875726 0.000157211
0.408137 0.000205399 0.712412 0.000224012 0.990556 0.000177826
0.425833 0.000214304 0.705939 0.000221976 1.10416 0.000198221
0.442944 0.000222915 0.692811 0.000217848 1.21394 0.000217929
0.459968 0.000231483 0.67386 0.000211889 1.31784 0.000236581
0.477283 0.000240197 0.650148 0.000204433 1.4147 0.000253969
0.4953 0.000249264 0.623089 0.000195925 1.50351 0.000269912
0.514453 0.000258903 0.594173 0.000186832 1.58271 0.00028413
0.535104 0.000269296 0.564743 0.000177578 1.65028 0.00029626
0.557558 0.000280596 0.536075 0.000168564 1.70441 0.000305978
0.582082 0.000292938 0.509505 0.000160209 1.74394 0.000313075
0.608858 0.000306413 0.486392 0.000152942 1.76818 0.000317425
0.637947 0.000321052 0.467971 0.000147149 1.77646 0.000318913
0.6693 0.000336831 0.455258 0.000143152 1.76689 0.000317195
0.702767 0.000353674 0.449197 0.000141246 1.73814 0.000312033
0.738164 0.000371487 0.450571 0.000141678 1.68985 0.000303364
0.775249 0.000390151 0.459895 0.00014461 1.62267 0.000291303
0.813787 0.000409545 0.477379 0.000150108 1.53789 0.000276085
0.853557 0.00042956 0.502978 0.000158157 1.43695 0.000257964
0.894367 0.000450098 0.536411 0.00016867 1.32124 0.00023719
0.936054 0.000471077 0.577146 0.000181478 1.1924 0.000214061
0.978486 0.000492432 0.624391 0.000196334 1.05261 0.000188966
1.02153 0.000514092 0.677141 0.000212921 0.904555 0.000162387
1.06501 0.000535977 0.734241 0.000230875 0.751085 0.000134836
1.10874 0.000557984 0.794447 0.000249807 0.595027 0.00010682
1.15246 0.000579983 0.856463 0.000269307 0.439152 7.88372e-05
1.19586 0.000601824 0.918964 0.00028896 0.286294 5.13958e-05
1.23861 0.000623344 0.980627 0.000308349 0.13937 2.50198e-05
1.2804 0.000644371 1.04018 0.000327075 0.00125807 2.2585e-07
1.32083 0.000664719 1.09673 0.000344857 -0.134905 -2.42182e-05
1.35968 0.000684271 1.14868 0.000361192 -0.259958 -4.6668e-05
1.39658 0.00070284 1.19513 0.000375798 -0.366194 -6.57396e-05
1.43141 0.00072037 1.23552 0.000388499 -0.453315 -8.13797e-05
1.46389 0.000736715 1.26951 0.000399185 -0.520839 -9.35018e-05
1.49392 0.00075183 1.2964 0.00040764 -0.566815 -0.000101755
1.52145 0.000765681 1.31579 0.000413738 -0.589182 -0.000105771
1.54643 0.000778255 1.32775 0.000417499 -0.586561 -0.0001053
1.5689 0.000789561 1.33271 0.000419059 -0.558248 -0.000100217
1.5889 0.000799628 1.33109 0.000418549 -0.505018 -9.06614e-05
1.60652 0.000808495 1.32343 0.000416142 -0.427852 -7.68085e-05
1.62186 0.000816215 1.31054 0.000412087 -0.327773 -5.88422e-05
1.63507 0.000822863 1.29343 0.000406706 -0.206307 -3.70364e-05
1.64638 0.000828556 1.27323 0.000400356 -0.0653887 -1.17387e-05
1.65615 0.000833471 1.25081 0.000393305 0.0586479 1.05285e-05
1.66458 0.000837715 1.22783 0.000386079 0.190891 3.42691e-05
1.67212 0.000841509 1.2052 0.000378964 0.331767 5.95592e-05
1.67913 0.000845037 1.18427 0.000372384 0.480262 8.62173e-05
1.68544 0.000848214 1.16649 0.000366793 0.634179 0.000113849
1.67784 0.000844386 1.15775 0.000364043 0.788592 0.000141569
1.67288 0.000841891 1.15316 0.000362601 0.943463 0.000169372
1.66887 0.000839874 1.1546 0.000363054 1.09508 0.000196591
1.66746 0.000839162 1.16174 0.0003653 1.24282 0.000223113
1.66875 0.000839812 1.17526 0.000369549 1.38542 0.000248713
1.67256 0.000841731 1.19567 0.000375969 1.52148 0.000273139
1.67902 0.000844983 1.22341 0.000384691 1.64908 0.000296045
1.68839 0.000849696 1.25839 0.000395689 1.7666 0.000317142
1.7006 0.00085584 1.30014 0.000408819 1.87341 0.000336318
1.71507 0.000863124 1.34739 0.000423674 1.96973 0.000353608
1.73031 0.000870791 1.3999 0.000440185 2.05538 0.000368984
1.74767 0.000879532 1.45758 0.000458322 2.12971 0.000382329
1.76775 0.000889635 1.51986 0.000477906 2.19227 0.000393559
1.78874 0.000900197 1.58578 0.000498636 2.24361 0.000402775
1.80897 0.000910378 1.65491 0.000520373 2.28427 0.000410074
1.74999 0.000880698 36.9483 0.0692955 2.1961 0.000394246
1.70096 0.000856024 11.7143 0.228393 1.62995 0.000292611
1.76568 0.000888593 8.93253 0.246022 1.83795 0.000329951
1.66312 0.000836979 8.93253 0.256889 1.81421 0.000325689
1.66055 0.000835687 8.93253 0.260404 1.63266 0.000293096
1.74032 0.000875832 8.93253 0.27423 1.54884 0.000278049
1.75023 0.000880821 8.93253 0.294033 1.60227 0.000287641
1.71567 0.000863426 8.93253 0.313735 1.61257 0.00028949
1.72408 0.00086766 8.93253 0.329253 1.50188 0.000269619
1.74946 0.000880429 8.93253 0.341505 1.38002 0.000247743
1.74588 0.000878629 8.93253 0.354494 1.35379 0.000243034
1.73277 0.000872033 8.93253 0.370205 1.38778 0.000249136
1.73443 0.000872869 8.93253 0.386103 1.39247 0.000249977
1.73718 0.000874253 8.93253 0.398978 1.35388 0.00024305
1.73015 0.000870713 8.93253 0.408833 1.33323 0.000239343
1.72258 0.000866903 8.93253 0.417533 1.37532 0.000246899
1.71864 0.00086492 8.93253 0.42616 1.45951 0.000262014
1.71299 0.000862075 8.93253 0.432755 1.54406 0.000277192
1.70223 0.000856662 8.93253 0.436407 1.61522 0.000289967
1.68923 0.000850117 8.93253 0.438073 1.69804 0.000304835
1.67643 0.00084368 8.93253 0.438986 1.81817 0.0003264
1.66027 0.000835547 8.90431 0.439276 1.97172 0.000353965
1.63828 0.00082448 7.95856 0.438979 2.10443 0.00037779
1.61326 0.000811887 5.68809 0.438265 2.20193 0.000395294
1.58625 0.000798292 2.6191 0.4373 2.26925 0.000407378
1.55667 0.000783409 -0.131075 0.434727 2.30434 0.000413677
1.52279 0.000766355 -0.526737 0.429447 2.32003 0.000416495
1.48577 0.000747725 -0.99628 0.423181 2.32778 0.000417886
1.44812 0.00072878 -1.51811 0.416217 2.3478 0.00042148
1.4079 0.000708537 -2.06868 0.40887 2.38557 0.000428261
1.36454 0.000686716 -2.65361 0.401064 2.42697 0.000435694
1.3189 0.000663749 -3.27375 0.392789 2.45452 0.000440638
1.27194 0.000640116 -3.92025 0.384161 2.46797 0.000443054
1.22296 0.000615464 -4.57097 0.375478 2.4804 0.000445285
1.17196 0.000589799 -5.20702 0.36699 2.50214 0.000449188
1.11934 0.000563316 -5.81686 0.358852 2.52891 0.000453993
1.06535 0.000536148 -6.39914 0.351081 2.54959 0.000457705
1.01007 0.000508328 -6.95473 0.343667 2.55908 0.00045941
0.953773 0.000479995 -7.48009 0.336656 2.56206 0.000459945
0.896914 0.00045138 -7.96997 0.330119 2.56391 0.000460276
0.825946 0.000415664 -8.54029 0.322508 2.54729 0.000457292
0.755725 0.000380325 -9.07615 0.315357 2.49061 0.000447117
0.687226 0.000345852 -9.58617 0.308551 2.38751 0.000428609
0.620921 0.000312484 -10.0782 0.301985 2.25072 0.000404051
0.556551 0.000280089 -10.5629 0.295518 2.08998 0.000375196
0.493527 0.000248372 -11.0532 0.288974 1.90343 0.000341707
0.431124 0.000216967 -11.5626 0.282176 1.68883 0.000303181
0.368724 0.000185564 -12.1043 0.274947 1.45339 0.000260915
0.305995 0.000153995 -12.6936 0.267083 1.20688 0.000216661
0.244774 0.000123185 -13.3452 0.258387 0.952614 0.000171014
0.211899 0.00010664 -14.1078 0.248211 0.697267 0.000125174
0.17543 8.82865e-05 -14.9961 0.236357 0.442509 7.94398e-05
0.139663 7.02867e-05 -15.9633 0.22345 0.190074 3.41223e-05
0.102415 5.15414e-05 -16.9924 0.209717 -0.0333335 -5.98406e-06
0.057992 2.9185e-05 -18.0768 0.195246 -0.211658 -3.79971e-05
0.0111068 5.58958e-06 -19.2495 0.179597 -0.353265 -6.34186e-05
-0.0388284 -1.95408e-05 -20.4964 0.162957 -0.483129 -8.67319e-05
-0.0911049 -4.58493e-05 -21.7951 0.145625 -0.624478 -0.000112107
-0.144081 -7.25102e-05 -23.1527 0.127509 -0.761071 -0.000136628
-0.199641 -0.000100471 -24.5672 0.108633 -0.8777 -0.000157566
-0.256969 -0.000129322 -26.0344 0.0890542 -0.978291 -0.000175624
-0.313971 -0.000158009 -27.54 0.0689616 -1.07685 -0.000193317
-0.372001 -0.000187213 -29.0766 0.0484569 -1.17446 -0.000210841
-0.435355 -0.000219096 -30.2636 0.0326158 -1.27875 -0.000229563
-0.493324 -0.00024827 -31.3931 0.0175437 -1.36406 -0.000244878
-0.553933 -0.000278771 -32.5376 0.00227005 -1.44669 -0.000259712
-0.627037 -0.000315562 -32.709 -1.72722e-05 -1.57497 -0.000282741
-0.68459 -0.000344526 -32.7201 -0.000165434 -1.6784 -0.000301309
-0.750415 -0.000377653 -32.7265 -0.000251331 -1.7823 -0.000319961
-0.811205 -0.000408246 -32.7316 -0.000318891 -1.89974 -0.000341044
-0.862584 -0.000434103 -32.7352 -0.000366428 -2.01678 -0.000362054
-0.912889 -0.000459419 -32.7375 -0.000397557 -2.12761 -0.000381952
-0.957997 -0.00048212 -32.7393 -0.000422132 -2.24341 -0.00040274
-0.995698 -0.000501093 -32.7409 -0.000442754 -2.36494 -0.000424556
-1.02943 -0.00051807 -32.7418 -0.000455567 -2.48325 -0.000445797
-1.05859 -0.000532746 -32.7422 -0.000460272 -2.59831 -0.000466453
-1.08262 -0.000544836 -32.7415 -0.000460603 -2.71409 -0.000487237
-1.1031 -0.000555146 -32.7317 -0.000457496 -2.8272 -0.000507543
-1.12039 -0.000563847 -32.706 -0.000449429 -2.9318 -0.000526321
-1.1346 -0.000570995 -32.6651 -0.000436562 -3.02682 -0.000543379
-1.14643 -0.000576952 -32.6133 -0.000420275 -3.11243 -0.000558747
-1.15627 -0.000581902 -32.5531 -0.000401341 -3.1854 -0.000571847
-1.16466 -0.000586127 -32.4857 -0.000380147 -3.24149 -0.000581916
-1.17275 -0.000590195 -32.414 -0.000357602 -3.25548 -0.000584429
-1.18092 -0.000594309 -32.3448 -0.000335861 -3.2511 -0.000583642
-1.19041 -0.000599083 -32.279 -0.000315151 -3.23917 -0.0005815
-1.20216 -0.000604998 -32.2171 -0.000295707 -3.20019 -0.000574502
-1.21726 -0.000612598 -32.1641 -0.000279042 -3.11885 -0.0005599
-1.23551 -0.000621782 -32.1214 -0.000265608 -2.99159 -0.000537054
-1.25725 -0.000632723 -32.0892 -0.000255479 -2.82688 -0.000507485
-1.28339 -0.000645877 -32.0686 -0.000248991 -2.63272 -0.000472629
-1.31402 -0.00066129 -32.061 -0.000246617 -2.40842 -0.000432363
-1.34803 -0.000678407 -32.0669 -0.000248474 -2.15351 -0.000386601
-1.38541 -0.000697219 -32.0854 -0.000254298 -1.87448 -0.000336509
-1.42524 -0.000717265 -32.1149 -0.000263575 -1.5812 -0.000283859
-1.46646 -0.000738008 -32.1538 -0.000275786 -1.27994 -0.000229776
-1.50819 -0.00075901 -32.2 -0.000290333 -0.974625 -0.000174966
-1.54936 -0.000779731 -32.2511 -0.000306385 -0.671625 -0.000120571
-1.58886 -0.000799606 -32.3042 -0.000323103 -0.379973 -6.82132e-05
-1.6257 -0.000818149 -32.3572 -0.000339746 -0.107439 -1.92876e-05
-1.6585 -0.000834652 -32.4113 -0.000356758 0.070616 1.26771e-05
-1.68711 -0.000849052 -32.4579 -0.000371424 0.166573 2.99033e-05
-1.71047 -0.00086081 -32.4976 -0.000383916 0.241468 4.33486e-05
-1.72835 -0.000869809 -32.5308 -0.000394352 0.313269 5.62385e-05
-1.74015 -0.000875743 -32.5549 -0.000401911 0.377794 6.7822e-05
-1.74479 -0.00087808 -32.5677 -0.000405954 0.412576 7.40661e-05
-1.74064 -0.000875991 -32.57 -0.000406655 0.415897 7.46624e-05
-1.72675 -0.000869004 -32.5618 -0.000404102 0.393972 7.07263e-05
-1.70357 -0.000857338 -32.5427 -0.000398083 0.344281 6.18058e-05
-1.672 -0.000841446 -32.5121 -0.000388473 0.257116 4.61578e-05
-1.63288 -0.000821762 -32.4712 -0.000375593 0.131675 2.36385e-05
-1.58749 -0.000798918 -32.4209 -0.000359791 -0.0341251 -6.12618e-06
-1.53748 -0.000773751 -32.3618 -0.000341187 -0.224525 -4.0307e-05
-1.48442 -0.000747049 -32.2959 -0.000320478 -0.433262 -7.77798e-05
-1.42965 -0.000719482 -32.2247 -0.000298085 -0.661298 -0.000118717
-1.37438 -0.000691667 -32.1506 -0.000274781 -0.904803 -0.000162431
-1.31915 -0.000663875 -32.0769 -0.000251628 -1.15179 -0.000206771
-1.26398 -0.00063611 -32.0073 -0.000229745 -1.39525 -0.000250477
-1.2085 -0.000608188 -31.9455 -0.000210302 -1.63221 -0.000293016
-1.15225 -0.000579881 -31.8953 -0.000194498 -1.8593 -0.000333785
-1.09497 -0.000551054 -31.8599 -0.000183374 -2.06961 -0.00037154
-1.03668 -0.000521718 -31.8414 -0.000177573 -2.25713 -0.000405203
-0.977456 -0.000491913 -31.8404 -0.000177258 -2.41924 -0.000434305
-0.917231 -0.000461605 -31.856 -0.000182149 -2.55491 -0.00045866
-0.855788 -0.000430683 -31.886 -0.000191574 -2.6622 -0.000477921
-0.792815 -0.000398991 -31.9272 -0.000204537 -2.7392 -0.000491745
-0.727907 -0.000366326 -31.9758 -0.000219828 -2.78588 -0.000500125
-0.660488 -0.000332396 -32.0277 -0.000236145 -2.80388 -0.000503357
-0.589762 -0.000296803 -32.0787 -0.000252167 -2.79377 -0.000501541
-0.514853 -0.000259104 -32.1245 -0.000266595 -2.7555 -0.000494671
-0.43518 -0.000219008 -32.1612 -0.000278126 -2.69128 -0.000483142
-0.350738 -0.000176512 -32.1842 -0.000285356 -2.60494 -0.000467642
-0.270006 -0.000135883 -32.1867 -0.000286151 -2.50066 -0.000448921
-0.232815 -0.000117166 -32.1478 -0.000273923 -2.38399 -0.000427977
-0.183601 -9.23989e-05 -32.0825 -0.00025337 -2.25374 -0.000404595
-0.131352 -6.61039e-05 -31.9916 -0.000224805 -2.11097 -0.000378963
-0.0755282 -3.80102e-05 -31.8667 -0.000185508 -1.95762 -0.000351434
-0.015646 -7.87399e-06 -31.6939 -0.00013118 -1.7947 -0.000322186
0.046406 2.33542e-05 -31.4533 -5.55204e-05 -1.62312 -0.000291385
0.108023 5.43633e-05 -31.0975 5.63629e-05 -1.44256 -0.00025897
0.16255 8.18048e-05 -30.4552 0.000258299 -1.25222 -0.000224801
0.214931 0.000108166 -27.8958 0.00106309 -1.05485 -0.000189368
0.266893 0.000134316 -19.3166 0.00376073 -0.854579 -0.000153415
0.316293 0.000159177 -9.62079 0.00680951 -0.642728 -0.000115383
0.355946 0.000179133 0.123079 0.0157519 -0.447009 -8.02477e-05
0.394173 0.000198371 0.499373 0.0338431 -0.264766 -4.75311e-05
0.429761 0.000216281 0.926736 0.0543895 -0.0909265 -1.63232e-05
0.458533 0.00023076 1.33116 0.0738329 0.00429404 7.70871e-07
0.487423 0.0002453 1.72182 0.0926146 0.081682 1.46637e-05
0.515486 0.000259423 2.10323 0.110952 0.174896 3.13975e-05
0.53996 0.000271739 2.47133 0.128649 0.295109 5.29783e-05
0.563605 0.000283639 2.8166 0.145249 0.416066 7.46928e-05
0.586543 0.000295183 3.13641 0.160624 0.530939 9.53149e-05
0.607158 0.000305558 3.43275 0.174871 0.653169 0.000117258
0.626101 0.000315091 3.70613 0.188015 0.788852 0.000141616
0.643355 0.000323774 3.95328 0.199897 0.929486 0.000166863
0.657911 0.000331099 4.17287 0.210454 1.06779 0.000191691
0.671676 0.000338027 4.36819 0.219845 1.20527 0.000216371
0.68439 0.000344425 4.54017 0.228113 1.345 0.000241456
0.695801 0.000350168 4.68842 0.23524 1.48429 0.000266462
0.7063 0.000355452 4.81538 0.241344 1.61772 0.000290414
0.715709 0.000360187 4.92447 0.246589 1.74309 0.000312922
0.723756 0.000364236 5.01758 0.251065 1.8604 0.000333981
0.730511 0.000367636 5.09662 0.254865 1.96848 0.000353384
0.735848 0.000370322 5.16392 0.258101 2.06459 0.000370638
0.739515 0.000372167 5.22185 0.260886 2.14628 0.000385303
0.741349 0.00037309 5.27205 0.263299 2.21255 0.0003972
0.741185 0.000373007 5.3155 0.265389 2.26316 0.000406286
0.735651 0.000370222 5.35443 0.26726 2.29715 0.000412387
0.724209 0.000364464 5.39003 0.268972 2.31369 0.000415356
0.707531 0.000356071 5.42079 0.270451 2.31089 0.000414854
0.686872 0.000345674 5.44264 0.271501 2.28208 0.000409682
0.663773 0.00033405 5.45208 0.271955 2.22478 0.000399396
0.639506 0.000321837 5.16739 0.27187 2.14088 0.000384333
0.615272 0.000309641 4.22881 0.271575 2.03366 0.000365086
0.591881 0.000297869 2.54768 0.271046 1.90657 0.00034227
0.569907 0.000286811 -0.039787 0.269911 1.76182 0.000316284
0.550274 0.00027693 -0.479924 0.266222 1.60714 0.000288516
0.530671 0.000267065 -1.10878 0.260951 1.43941 0.000258405
0.512755 0.000258048 -1.87277 0.254547 1.2645 0.000227004
0.495256 0.000249242 -2.80001 0.246775 1.08612 0.000194983
0.477465 0.000240288 -3.92991 0.237304 0.904105 0.000162306
0.460353 0.000231677 -5.22821 0.226421 0.719566 0.000129177
0.443927 0.00022341 -6.66511 0.214377 0.536932 9.63907e-05
0.427751 0.000215269 -8.22807 0.201276 0.35738 6.41574e-05
0.41215 0.000207418 -9.9088 0.187188 0.179852 3.22873e-05
0.396962 0.000199774 -11.688 0.172274 0.0178008 3.19562e-06
0.381488 0.000191987 -13.5099 0.157002 -0.127656 -2.2917e-05
0.36563 0.000184006 -15.3665 0.14144 -0.242914 -4.36083e-05
0.348778 0.000175526 -17.2473 0.125675 -0.347033 -6.22999e-05
0.329693 0.000165921 -19.1229 0.109954 -0.460643 -8.26952e-05
0.307953 0.00015498 -20.9575 0.0945757 -0.58296 -0.000104654
0.282674 0.000142258 -22.7291 0.0797257 -0.7013 -0.000125898
0.253257 0.000127454 -24.4173 0.0655751 -0.812997 -0.00014595
0.219448 0.000110439 -26.0018 0.052293 -0.927323 -0.000166474
0.179539 9.03547e-05 -27.3335 0.0411308 -1.05244 -0.000188935
0.136231 6.85595e-05 -28.4332 0.0319131 -1.17868 -0.000211599
0.0868106 4.36882e-05 -29.4216 0.0236278 -1.30014 -0.000233404
0.0307976 1.54992e-05 -30.3116 0.0161677 -1.42057 -0.000255023
-0.0261296 -1.315e-05 -31.0815 0.00971419 -1.54253 -0.000276917
-0.0857126 -4.31356e-05 -31.7476 0.00413088 -1.66079 -0.000298146
-0.131526 -6.61918e-05 -32.1689 0.000599819 -1.77338 -0.000318359
-0.178326 -8.9744e-05 -32.1987 0.000349427 -1.88416 -0.000338246
-0.221851 -0.000111648 -32.2113 0.000244381 -1.98504 -0.000356356
-0.267815 -0.00013478 -32.2195 0.000175559 -2.07716 -0.000372895
-0.313923 -0.000157985 -32.2253 0.000126788 -2.15931 -0.000387643
-0.358935 -0.000180637 -32.2293 9.32803e-05 -2.22688 -0.000399773
-0.405536 -0.000204089 -32.2325 6.68058e-05 -2.28123 -0.000409529
-0.452889 -0.00022792 -32.2352 4.33932e-05 -2.32372 -0.000417157
-0.500509 -0.000251885 -32.2377 2.32119e-05 -2.35224 -0.000422278
-0.549351 -0.000276466 -32.2397 5.86491e-06 -2.36544 -0.000424647
-0.599177 -0.000301541 -32.2416 -1.02301e-05 -2.36332 -0.000424266
-0.649849 -0.000327042 -32.2435 -2.58959e-05 -2.34047 -0.000420165
-0.70179 -0.000353182 -32.2453 -4.10055e-05 -2.29394 -0.00041181
-0.754955 -0.000379938 -32.247 -5.54365e-05 -2.22506 -0.000399445
-0.809143 -0.000407208 -32.2487 -6.96393e-05 -2.13764 -0.000383752
-0.864203 -0.000434918 -32.2504 -8.38568e-05 -2.03438 -0.000365214
-0.919781 -0.000462888 -32.2521 -9.78573e-05 -1.91645 -0.000344044
-0.97541 -0.000490883 -32.2537 -0.00011154 -1.78621 -0.000320662
-1.03056 -0.000518638 -32.2553 -0.000125015 -1.64755 -0.000295771
-1.08455 -0.000545808 -32.2569 -0.000138238 -1.50422 -0.000270039
-1.13666 -0.000572031 -32.2584 -0.00015102 -1.35906 -0.00024398
-1.18626 -0.000596993 -32.2599 -0.00016323 -1.21507 -0.000218131
-1.2329 -0.000620466 -32.2613 -0.000174774 -1.07585 -0.000193137
-1.27631 -0.000642314 -32.2625 -0.000185464 -0.944949 -0.000169639
-1.50397 -0.000756888 -32.1609 -0.000157339 -0.861718 -0.000154697
-0.937889 -0.000472001 -31.3879 8.57396e-05 -0.899766 -0.000161527
-0.982548 -0.000494476 -31.3778 8.88954e-05 -0.791085 -0.000142017
-1.39513 -0.000702112 -31.976 -9.92001e-05 -0.559529 -0.000100447
-1.34233 -0.00067554 -32.0087 -0.000109488 -0.445089 -7.9903e-05
-1.18399 -0.000595854 -31.9063 -7.72942e-05 -0.354959 -6.37227e-05
-1.33257 -0.00067063 -32.1185 -0.000143989 -0.211612 -3.79888e-05
-1.42918 -0.000719246 -32.265 -0.000206188 -0.0909104 -1.63204e-05
-1.38257 -0.000695788 -32.2674 -0.000226302 -0.0111246 -1.9971e-06
-1.38964 -0.000699347 -32.2706 -0.000252789 0.0573606 1.02974e-05
-1.4418 -0.000725597 -32.2743 -0.000283679 0.0916746 1.64575e-05
-1.47649 -0.000743056 -32.2777 -0.000312663 0.100557 1.80522e-05
-1.47126 -0.000740422 -32.2795 -0.000327606 0.0901892 1.61909e-05
-1.48046 -0.000745054 -32.281 -0.000339807 0.0578202 1.038e-05
-1.51334 -0.000761604 -32.2828 -0.000355256 -0.00315679 -5.6671e-07
-1.53554 -0.000772771 -32.2843 -0.000367601 -0.097553 -1.75128e-05
-1.53844 -0.000774234 -32.2848 -0.000372123 -0.213769 -3.83761e-05
-1.54581 -0.000777941 -32.285 -0.000374039 -0.348578 -6.25772e-05
-1.56208 -0.00078613 -32.2854 -0.000376841 -0.507955 -9.11887e-05
-1.56245 -0.000786316 -32.2836 -0.000376816 -0.692148 -0.000124255
-1.55261 -0.000781366 -32.2704 -0.000372681 -0.890588 -0.000159879
-1.54499 -0.00077753 -32.2537 -0.000367421 -1.09705 -0.000196945
-1.53145 -0.000770715 -32.2325 -0.000360753 -1.31408 -0.000235905
-1.51159 -0.000760723 -32.2069 -0.000352689 -1.53756 -0.000276024
-1.49159 -0.000750656 -32.1805 -0.00034441 -1.75816 -0.000315627
-1.4742 -0.000741906 -32.1575 -0.000337167 -1.97019 -0.000353691
-1.45784 -0.000733669 -32.137 -0.000330734 -2.15653 -0.000387143
-1.43701 -0.000723188 -32.1164 -0.000324239 -2.32388 -0.000417186
-1.4138 -0.000711505 -32.0957 -0.000317729 -2.4769 -0.000444655
-1.39287 -0.000700975 -32.081 -0.000313124 -2.61159 -0.000468836
-1.37046 -0.000689695 -32.0711 -0.000309986 -2.72688 -0.000489533
-1.34377 -0.000676264 -32.0648 -0.000308004 -2.82169 -0.000506554
-1.31396 -0.000661264 -32.0635 -0.000307594 -2.89381 -0.0005195
-1.28181 -0.000645081 -32.0685 -0.000309164 -2.94211 -0.000528172
-1.24543 -0.000626771 -32.0781 -0.000312195 -2.96701 -0.000532641
-1.20453 -0.000606189 -32.0904 -0.000316066 -2.96802 -0.000532822
-1.1607 -0.000584134 -32.1045 -0.000320485 -2.94136 -0.000528036
-1.11571 -0.00056149 -32.1188 -0.000325008 -2.88694 -0.000518267
-1.06864 -0.000537803 -32.1284 -0.000328004 -2.80767 -0.000504036
-1.02301 -0.000514838 -32.1297 -0.000328409 -2.70695 -0.000485955
-0.973769 -0.000490057 -32.116 -0.000324126 -2.58825 -0.000464647
-0.921553 -0.00046378 -32.0888 -0.000315573 -2.45449 -0.000440633
-0.877918 -0.00044182 -32.0568 -0.000305498 -2.30373 -0.000413569
-0.833935 -0.000419685 -32.0109 -0.000291052 -2.14088 -0.000384333
-0.787381 -0.000396256 -31.947 -0.000270987 -1.9695 -0.000353567
-0.741461 -0.000373147 -31.8684 -0.000246255 -1.79161 -0.000321632
-0.698811 -0.000351683 -31.7775 -0.000217685 -1.60774 -0.000288624
-0.656561 -0.00033042 -31.6703 -0.000183976 -1.41976 -0.000254877
-0.613824 -0.000308912 -31.5424 -0.000143768 -1.23011 -0.000220831
-0.573266 -0.000288501 -31.3926 -9.66399e-05 -1.04057 -0.000186804
-0.53732 -0.000270411 -31.2178 -4.16919e-05 -0.851422 -0.000152848
-0.505142 -0.000254217 -31.0079 2.43028e-05 -0.662845 -0.000118995
-0.47576 -0.00023943 -30.7443 0.000107216 -0.475242 -8.53161e-05
-0.452456 -0.000227702 -30.3925 0.000217822 -0.288792 -5.18443e-05
-0.436733 -0.00021979 -29.8388 0.000391934 -0.103027 -1.84955e-05
-0.424064 -0.000213414 -28.4453 0.000830089 0.0357525 6.41834e-06
-0.418153 -0.000210439 -21.6336 0.00297199 0.109221 1.96075e-05
-0.41731 -0.000210015 -12.3188 0.00590095 0.181416 3.2568e-05
-0.421281 -0.000212013 -0.736366 0.00954293 0.263025 4.72186e-05
-0.431206 -0.000217008 0.138439 0.0164311 0.346647 6.22306e-05
-0.441319 -0.000222098 0.318531 0.0250906 0.425806 7.64412e-05
-0.451404 -0.000227173 0.480694 0.0328881 0.501115 8.99607e-05
-0.465738 -0.000234387 0.594673 0.0383686 0.580229 0.000104163
-0.481178 -0.000242157 0.658841 0.0414541 0.669309 0.000120155
-0.495624 -0.000249427 0.680833 0.0425116 0.762569 0.000136897
-0.512839 -0.000258091 -0.0957467 0.0421465 0.850566 0.000152695
-0.531275 -0.000267369 -1.28202 0.0402755 0.934418 0.000167748
-0.550888 -0.000277239 -3.17947 0.0372829 1.01614 0.000182419
-0.572314 -0.000288022 -5.66039 0.0333701 1.09385 0.000196369
-0.596003 -0.000299943 -8.63267 0.0286823 1.16042 0.00020832
-0.618761 -0.000311397 -11.9135 0.0235079 1.21191 0.000217564
-0.636701 -0.000320425 -15.3159 0.0181418 1.24914 0.000224247
-0.649702 -0.000326968 -18.821 0.0126137 1.27236 0.000228415
-0.661318 -0.000332814 -22.5458 0.00673896 1.2759 0.000229052
-0.672516 -0.000338449 -26.2301 0.000928324 1.24792 0.000224029
-0.683457 -0.000343955 -26.5756 0.000383372 1.16782 0.000209648
-0.684724 -0.000344593 -26.6634 0.000244915 1.06049 0.00019038
-0.686046 -0.000345259 -26.716 0.000161963 0.917732 0.000164752
-0.689487 -0.00034699 -26.7538 0.000102263 0.739842 0.000132817
-0.688952 -0.000346721 -26.7784 6.3581e-05 0.532598 9.56126e-05
-0.684967 -0.000344716 -26.7935 3.96953e-05 0.29748 5.34041e-05
-0.681436 -0.000342939 -26.8043 2.2654e-05 0.0311282 5.58818e-06
-0.677223 -0.000340818 -26.8114 1.13972e-05 -0.227697 -4.08764e-05
-0.668792 -0.000336575 -26.8151 5.63462e-06 -0.484522 -8.6982e-05
-0.65729 -0.000330787 -26.8154 4.82892e-06 -0.756631 -0.000135831
-0.649142 -0.000326686 -26.8124 5.78225e-06 -1.04695 -0.000187949
-0.638928 -0.000321546 -26.8049 8.13794e-06 -1.34404 -0.000241285
-0.62143 -0.00031274 -26.7896 1.29475e-05 -1.62994 -0.000292609
-0.602307 -0.000303116 -26.7719 1.85146e-05 -1.90411 -0.000341828
-0.582294 -0.000293044 -26.7562 2.34294e-05 -2.17159 -0.000389847
-0.557089 -0.00028036 -26.742 2.79146e-05 -2.42787 -0.000435855
-0.526455 -0.000264943 -26.7294 3.18617e-05 -2.6611 -0.000477724
-0.493209 -0.000248211 -26.7217 3.42864e-05 -2.86616 -0.000514537
-0.456521 -0.000229748 -26.7197 3.49104e-05 -3.04527 -0.00054669
-0.416363 -0.000209538 -26.7224 3.40786e-05 -3.19806 -0.00057412
-0.370742 -0.000186579 -26.7261 3.29034e-05 -3.28047 -0.000588914
-0.320466 -0.000161277 -26.732 3.10389e-05 -3.29032 -0.000590682
-0.271554 -0.000136662 -26.7469 2.63766e-05 -3.2756 -0.000588039
-0.222098 -0.000111773 -26.7608 2.20019e-05 -3.26975 -0.000586989
-0.187028 -9.41236e-05 -26.7624 2.14922e-05 -3.26962 -0.000586966
-0.162538 -8.17985e-05 -26.7532 2.43982e-05 -3.22852 -0.000579588
-0.140969 -7.0944e-05 -26.741 2.82247e-05 -3.12853 -0.000561638
-0.120665 -6.07257e-05 -26.7196 3.495e-05 -2.986 -0.000536051
-0.101635 -5.11489e-05 -26.6869 4.5236e-05 -2.81885 -0.000506043
-0.0834415 -4.19926e-05 -26.6425 5.91793e-05 -2.62375 -0.00047102
-0.0670151 -3.37259e-05 -26.5913 7.52953e-05 -2.39165 -0.000429352
-0.0518741 -2.61061e-05 -26.5521 8.76245e-05 -2.12776 -0.000381978
-0.0374612 -1.88526e-05 -26.4984 0.000104514 -1.84542 -0.000331292
-0.0239941 -1.20752e-05 -26.4265 0.0001271 -1.5495 -0.000278169
-0.0129213 -6.50276e-06 -26.3284 0.000157948 -1.23796 -0.000222241
-0.0040441 -2.03523e-06 -26.1888 0.000201872 -0.912805 -0.000163868
0.00274132 1.37959e-06 -25.9812 0.000267147 -0.58141 -0.000104376
0.00807941 4.06603e-06 -25.6353 0.000375899 -0.249796 -4.48437e-05
0.0136157 6.85224e-06 -24.8727 0.000615685 0.00506578 9.09416e-07
0.0189509 9.53722e-06 -20.9059 0.00186301 0.149929 2.69155e-05
0.024567 1.23636e-05 -12.2152 0.00459573 0.270681 4.8593e-05
0.0315691 1.58874e-05 -1.88735 0.00784323 0.405166 7.27359e-05
0.034047 1.71344e-05 0.153666 0.0158486 0.543278 9.75299e-05
0.0407002 2.04827e-05 0.402334 0.0278427 0.669002 0.0001201
0.0523038 2.63223e-05 0.654089 0.0399857 0.775628 0.000139242
0.0600177 3.02044e-05 0.880072 0.0508857 0.874103 0.00015692
0.0685812 3.45141e-05 1.08569 0.0608036 0.977036 0.000175399
0.0824191 4.14781e-05 1.2854 0.0704363 1.07936 0.000193767
0.0981944 4.94172e-05 1.47587 0.079623 1.16726 0.000209548
0.112394 5.65631e-05 1.6467 0.087863 1.24014 0.000222632
0.127105 6.39666e-05 1.80033 0.0952733 1.30763 0.000234748
0.144369 7.26549e-05 1.94405 0.102205 1.37157 0.000246226
0.162411 8.17347e-05 2.0764 0.108589 1.42391 0.000255622
0.179467 9.03181e-05 2.19245 0.114187 1.46051 0.000262192
0.196642 9.89619e-05 2.29361 0.119066 1.48598 0.000266765
0.214585 0.000107992 2.38362 0.123407 1.50421 0.000270038
0.232156 0.000116835 2.46201 0.127188 1.51222 0.000271475
0.248724 0.000125172 2.52639 0.130294 1.5042 0.000270035
0.263126 0.00013242 2.57658 0.132714 1.4757 0.00026492
0.274188 0.000137987 2.61711 0.134669 1.42752 0.00025627
0.285708 0.000143785 2.64313 0.135924 1.36267 0.000244628
0.296469 0.000149201 2.65206 0.136355 1.28182 0.000230113
0.306292 0.000154144 2.30848 0.136247 1.18506 0.000212744
0.313307 0.000157674 1.50332 0.135994 1.07438 0.000192874
0.327662 0.000164899 0.538623 0.135691 0.951 0.000170725
0.339351 0.000170781 -0.243959 0.134458 0.819962 0.000147201
0.345507 0.00017388 -0.82597 0.13192 0.684872 0.000122949
0.354438 0.000178374 -1.53784 0.128816 0.544301 9.77137e-05
0.362324 0.000182343 -2.38665 0.125115 0.403685 7.247e-05
0.366251 0.000184319 -3.44605 0.120496 0.264692 4.75178e-05
0.369597 0.000186003 -4.66649 0.115174 0.126288 2.26714e-05
0.371801 0.000187112 -6.01638 0.109289 -0.0059015 -1.05944e-06
0.371275 0.000186847 -7.46512 0.102972 -0.124206 -2.22976e-05
0.369686 0.000186048 -9.00292 0.0962666 -0.224047 -4.02212e-05
0.367512 0.000184954 -10.6436 0.0891129 -0.310044 -5.56594e-05
0.364403 0.000183389 -12.3578 0.0816387 -0.396852 -7.12433e-05
0.361316 0.000181835 -14.1096 0.0740003 -0.483441 -8.6788e-05
0.358756 0.000180547 -15.877 0.0662943 -0.563502 -0.000101161
0.356272 0.000179297 -17.6432 0.0585931 -0.634138 -0.000113841
0.354109 0.000178208 -19.3772 0.0510327 -0.700766 -0.000125802
0.352813 0.000177556 -21.044 0.043765 -0.767102 -0.000137711
0.352355 0.000177326 -22.6188 0.0368985 -0.831063 -0.000149193
0.352896 0.000177598 -24.0769 0.030541 -0.889994 -0.000159773
0.35486 0.000178586 -25.387 0.0248284 -0.945404 -0.00016972
0.358388 0.000180362 -26.5264 0.0198607 -0.999955 -0.000179513
0.36356 0.000182965 -27.479 0.0157071 -1.05379 -0.000189177
0.370441 0.000186428 -28.2296 0.0124341 -1.10531 -0.000198427
0.378934 0.000190702 -28.7628 0.0101094 -1.15388 -0.000207146
0.388785 0.000195659 -29.0673 0.00878143 -1.20034 -0.000215486
0.399786 0.000201196 -29.1124 0.00846395 -1.2449 -0.000223486
0.412353 0.00020752 -28.4341 0.00867725 -1.28472 -0.000230634
0.425462 0.000214117 -26.9807 0.00913425 -1.3184 -0.000236681
0.438607 0.000220733 -24.8457 0.00980558 -1.34494 -0.000241446
0.45249 0.00022772 -21.9942 0.0107022 -1.36381 -0.000244833
0.466846 0.000234944 -18.464 0.0118122 -1.37387 -0.000246638
0.481367 0.000242252 -14.3137 0.0131173 -1.3724 -0.000246375
0.496132 0.000249683 -9.67848 0.0145748 -1.35417 -0.000243102
0.509555 0.000256438 -3.16244 0.0166237 -1.31835 -0.000236672
0.522669 0.000263038 0.0642233 0.0206498 -1.26826 -0.000227679
0.536152 0.000269823 0.200889 0.0271012 -1.20338 -0.000216033
0.549582 0.000276582 0.366093 0.0348998 -1.11968 -0.000201006
0.563364 0.000283518 0.537029 0.0429689 -1.01596 -0.000182387
0.578783 0.000291277 0.706626 0.0509749 -0.892109 -0.000160153
0.591846 0.000297852 0.875907 0.0589659 -0.748829 -0.000134431
0.605251 0.000304598 1.04612 0.0670009 -0.588028 -0.000105564
0.619054 0.000311544 1.21365 0.0749095 -0.411942 -7.39524e-05
0.633455 0.000318792 1.37761 0.0826491 -0.222389 -3.99236e-05
0.648849 0.000326539 1.53832 0.0902357 -0.0593013 -1.06459e-05
0.666482 0.000335413 1.69085 0.0974357 0.0493649 8.86204e-06
0.685279 0.000344873 1.84481 0.104704 0.148634 2.6683e-05
0.704716 0.000354654 1.99899 0.111982 0.258542 4.64137e-05
0.724642 0.000364683 2.15665 0.119424 0.378164 6.78884e-05
0.744193 0.000374522 2.31915 0.127095 0.492224 8.83647e-05
0.762861 0.000383916 2.48828 0.135079 0.594482 0.000106722
0.780098 0.000392591 2.66513 0.143427 0.692848 0.000124381
0.795484 0.000400334 2.85037 0.152172 0.791758 0.000142137
0.808909 0.000407091 3.04392 0.161309 0.885284 0.000158927
0.820118 0.000412731 3.24499 0.1708 0.967594 0.000173704
0.825886 0.000415634 3.4542 0.180676 1.04017 0.000186733
0.827015 0.000416203 3.67011 0.190868 1.1074 0.000198802
0.823876 0.000414623 3.8891 0.201206 1.16926 0.000209908
0.817002 0.000411163 4.10625 0.211457 1.22309 0.00021957
0.807549 0.000406406 4.31699 0.221405 1.26907 0.000227824
0.796615 0.000400904 4.51662 0.230829 1.31034 0.000235233
0.785241 0.000395179 4.70017 0.239493 1.34874 0.000242127
0.774527 0.000389787 4.86297 0.247178 1.38376 0.000248415
0.765418 0.000385203 5.00098 0.253693 1.41514 0.000254047
0.75859 0.000381767 5.11095 0.258884 1.44409 0.000259245
0.754418 0.000379667 5.19056 0.262642 1.47178 0.000264216
0.752975 0.000378941 5.23851 0.264906 1.49799 0.000268921
0.75418 0.000379548 5.25452 0.265662 1.52183 0.0002732
0.757377 0.000381156 4.64127 0.265469 1.5413 0.000276697
0.762826 0.000383899 3.11464 0.264989 1.55587 0.000279312
0.770261 0.00038764 0.464272 0.264156 1.56548 0.000281037
0.780648 0.000392868 -0.343334 0.261196 1.57314 0.000282411
0.791389 0.000398273 -0.903372 0.256606 1.56981 0.000281814
0.804034 0.000404637 -1.53921 0.251394 1.55387 0.000278953
0.817213 0.000411269 -2.22132 0.245804 1.52558 0.000273873
0.829918 0.000417664 -2.98292 0.239561 1.48302 0.000266234
0.84242 0.000423955 -3.79329 0.23292 1.423 0.000255459
0.84886 0.000427196 -4.60255 0.226287 1.34651 0.000241727
0.850235 0.000427888 -5.3493 0.220167 1.2523 0.000224814
0.852393 0.000428974 -6.07346 0.214231 1.14303 0.000205198
0.85263 0.000429093 -6.78494 0.2084 1.01811 0.000182772
0.855291 0.000430433 -7.46078 0.202861 0.879321 0.000157857
0.858426 0.00043201 -8.0962 0.197653 0.730407 0.000131124
0.861348 0.000433481 -8.69769 0.192723 0.57289 0.000102846
0.865231 0.000435435 -9.26355 0.188085 0.407771 7.32036e-05
0.869594 0.000437631 -9.79498 0.18373 0.2388 4.28696e-05
0.873715 0.000439704 -10.2949 0.179633 0.0697949 1.25297e-05
0.877451 0.000441585 -10.7604 0.175817 -0.0885021 -1.5888e-05
0.880009 0.000442872 -11.1636 0.172513 -0.220728 -3.96254e-05
0.880146 0.000442941 -11.5432 0.169401 -0.328479 -5.89689e-05
0.87674 0.000441227 -11.893 0.166534 -0.42792 -7.68208e-05
0.869332 0.000437499 -12.2247 0.163815 -0.531007 -9.53271e-05
0.858241 0.000431917 -12.5464 0.161179 -0.62812 -0.000112761
0.843734 0.000424616 -12.8696 0.15853 -0.707328 -0.000126981
0.825734 0.000415558 -13.2001 0.155821 -0.769153 -0.000138079
0.803833 0.000404536 -13.542 0.153019 -0.82145 -0.000147468
0.777615 0.000391342 -13.9001 0.150084 -0.864248 -0.000155151
0.746788 0.000375827 -14.2788 0.14698 -0.891176 -0.000159985
0.711009 0.000357821 -14.6806 0.143687 -0.899812 -0.000161535
0.669786 0.000337076 -15.1058 0.140202 -0.892305 -0.000160188
0.622605 0.000313331 -15.5512 0.136552 -0.865679 -0.000155408
0.569281 0.000286495 -16.0174 0.13273 -0.816687 -0.000146613
0.50993 0.000256627 -16.5058 0.128728 -0.745166 -0.000133773
0.445074 0.000223987 -17.0182 0.124528 -0.655021 -0.00011759
0.375521 0.000188984 -17.557 0.120112 -0.550554 -9.88361e-05
0.30202 0.000151994 -18.1238 0.115466 -0.433506 -7.78235e-05
0.224574 0.000113019 -18.7093 0.110668 -0.306165 -5.4963e-05
0.151505 7.62461e-05 -19.282 0.105973 -0.173642 -3.11725e-05
0.0772335 3.88684e-05 -19.8992 0.100916 -0.0470975 -8.45501e-06
0.0182229 9.17083e-06 -20.6546 0.0947238 0.0501337 9.00006e-06
-0.0372554 -1.87491e-05 -21.4246 0.0884125 0.128223 2.30188e-05
-0.0868306 -4.36982e-05 -22.1344 0.0825955 0.204841 3.67734e-05
-0.130328 -6.55887e-05 -22.7514 0.0775384 0.278353 4.99703e-05
-0.169387 -8.52453e-05 -23.3197 0.0728803 0.340874 6.11941e-05
-0.209285 -0.000105324 -23.9141 0.0680086 0.390401 7.00854e-05
-0.250939 -0.000126287 -24.5549 0.0627566 0.43118 7.7406e-05
-0.289611 -0.000145749 -25.2009 0.0574621 0.463867 8.3274e-05
-0.324233 -0.000163173 -25.834 0.0522733 0.485182 8.71004e-05
-0.357894 -0.000180113 -26.4831 0.0469536 0.492024 8.83288e-05
-0.391377 -0.000196964 -27.1682 0.0413382 0.482278 8.65791e-05
-0.422691 -0.000212723 -27.8724 0.0355664 0.455792 8.18244e-05
-0.451217 -0.000227079 -28.58 0.0297671 0.412496 7.40518e-05
-0.478772 -0.000240946 -29.2999 0.0238669 0.352262 6.32385e-05
-0.506699 -0.000255001 -30.042 0.017784 0.275615 4.94788e-05
-0.53474 -0.000269112 -30.7945 0.0116173 0.184725 3.31621e-05
-0.563226 -0.000283448 -31.5382 0.00552143 0.0853751 1.53266e-05
-0.594863 -0.00029937 -32.1071 0.000858557 -0.0273645 -4.9125e-06
-0.630312 -0.00031721 -32.1423 0.000570039 -0.140939 -2.53015e-05
-0.663479 -0.000333902 -32.1571 0.000448805 -0.251539 -4.51566e-05
-0.69984 -0.0003522 -32.1672 0.000365919 -0.376502 -6.75901e-05
-0.740022 -0.000372423 -32.1751 0.000301729 -0.513342 -9.21557e-05
-0.779006 -0.000392042 -32.1808 0.000254772 -0.648542 -0.000116427
-0.816246 -0.000410783 -32.1853 0.000217791 -0.779972 -0.000140021
-0.854648 -0.000430109 -32.1895 0.000183746 -0.913704 -0.000164029
-0.894321 -0.000450075 -32.1933 0.000152216 -1.04968 -0.00018844
-0.932945 -0.000469513 -32.1967 0.000124614 -1.18223 -0.000212235
-0.970489 -0.000488407 -32.1997 9.95273e-05 -1.30862 -0.000234925
-1.00894 -0.000507757 -32.2027 7.51236e-05 -1.4301 -0.000256733
-1.04886 -0.000527849 -32.2056 5.16144e-05 -1.54724 -0.000277763
-1.08938 -0.00054824 -32.2083 2.96218e-05 -1.65849 -0.000297734
-1.13054 -0.000568954 -32.2108 8.63163e-06 -1.76217 -0.000316347
-1.17335 -0.0005905 -32.2133 -1.20001e-05 -1.85793 -0.000333539
-1.21805 -0.000612995 -32.2158 -3.21146e-05 -1.94614 -0.000349374
-1.26396 -0.000636097 -32.2182 -5.14178e-05 -2.02681 -0.000363856
-1.31064 -0.000659593 -32.2204 -7.01015e-05 -2.09936 -0.00037688
-1.35817 -0.000683509 -32.2227 -8.84472e-05 -2.16326 -0.000388352
-1.40621 -0.000707689 -32.2249 -0.000106322 -2.21875 -0.000398312
-1.45067 -0.000730062 -32.2269 -0.000123178 -2.2666 -0.000406903
-1.4944 -0.000752069 -32.2289 -0.00013971 -2.3064 -0.000414048
-1.53868 -0.000774353 -32.231 -0.000156345 -2.33768 -0.000419664
-1.58119 -0.000795748 -32.2329 -0.000172362 -2.36137 -0.000423917
-1.62163 -0.000816097 -32.2347 -0.000187236 -2.37833 -0.000426961
-1.65948 -0.000835149 -32.2364 -0.000200788 -2.38923 -0.000428918
-1.69783 -0.000854446 -32.2379 -0.000213477 -2.39408 -0.000429789
-1.73688 -0.0008741 -32.2394 -0.000225323 -2.39301 -0.000429597
-1.77432 -0.00089294 -32.2406 -0.000235731 -2.38551 -0.000428251
-1.80956 -0.000910674 -32.2417 -0.000244748 -2.37088 -0.000425624
-1.84532 -0.000928675 -32.2427 -0.000252956 -2.34907 -0.000421708
-1.8797 -0.000945978 -32.2436 -0.000260176 -2.32136 -0.000416734
-1.9106 -0.000961527 -32.2443 -0.000265992 -2.2891 -0.000410942
-1.93878 -0.000975709 -32.2449 -0.000270704 -2.2525 -0.000404372
-1.96448 -0.00098864 -32.2454 -0.000274668 -2.21182 -0.000397068
-1.97144 -0.000992145 -32.2431 -0.000274435 -2.17285 -0.000390073
-1.97123 -0.000992039 -32.2398 -0.000273391 -2.13018 -0.000382412
-1.9719 -0.000992374 -32.2368 -0.000272442 -2.08406 -0.000374134
-1.97595 -0.000994411 -32.2358 -0.000272148 -2.03511 -0.000365346
-1.97922 -0.000996059 -32.2363 -0.000272283 -1.98444 -0.00035625
-1.9782 -0.000995545 -32.235 -0.000271869 -1.93306 -0.000347025
-1.9764 -0.000994638 -32.2337 -0.000271476 -1.88088 -0.000337657
-1.97425 -0.000993559 -32.2329 -0.000271215 -1.8296 -0.000328453
-1.96523 -0.000989017 -32.2289 -0.000269957 -1.78171 -0.000319854
-1.95049 -0.000981602 -32.2205 -0.000267334 -1.73731 -0.000311883
-1.93451 -0.000973559 -32.2098 -0.000263951 -1.69604 -0.000304476
-1.91469 -0.000963582 -32.1955 -0.000259472 -1.65941 -0.0002979
-1.89026 -0.000951288 -32.1777 -0.000253874 -1.62758 -0.000292186
-1.86196 -0.000937047 -32.158 -0.000247656 -1.59933 -0.000287113
-1.83201 -0.000921974 -32.1389 -0.000241674 -1.57333 -0.000282447
-1.80068 -0.000906206 -32.1216 -0.000236229 -1.54967 -0.000278198
-1.76201 -0.000886745 -32.1028 -0.000230322 -1.52991 -0.000274651
-1.71351 -0.000862337 -32.0813 -0.000223566 -1.51438 -0.000271864
-1.65865 -0.000834728 -32.0596 -0.000216736 -1.50198 -0.000269638
-1.59801 -0.00080421 -32.0382 -0.00021001 -1.49258 -0.000267949
-1.52899 -0.000769475 -32.0148 -0.000202638 -1.48701 -0.00026695
-1.45212 -0.00073079 -31.9881 -0.000194232 -1.48549 -0.000266677
-1.37018 -0.000689557 -31.9582 -0.000184857 -1.48771 -0.000267076
-1.28375 -0.000646058 -31.9246 -0.000174272 -1.49362 -0.000268137
-1.19315 -0.000600464 -31.8857 -0.000162049 -1.50311 -0.00026984
-1.09825 -0.000552703 -31.8406 -0.000147856 -1.5158 -0.000272118
-0.999732 -0.000503124 -31.789 -0.000131628 -1.53088 -0.000274826
-0.898171 -0.000452012 -31.7309 -0.000113374 -1.54719 -0.000277754
-0.793414 -0.000399292 -31.6658 -9.29142e-05 -1.56345 -0.000280673
-0.685502 -0.000344985 -31.5932 -7.00735e-05 -1.5782 -0.00028332
-0.57495 -0.000289349 -31.5127 -4.47575e-05 -1.58974 -0.000285391
-0.462111 -0.000232561 -31.4237 -1.67875e-05 -1.5962 -0.000286551
-0.347111 -0.000174687 -31.3251 1.42375e-05 -1.59561 -0.000286446
-0.253112 -0.000127381 -31.2069 5.1408e-05 -1.58804 -0.000285086
-0.171016 -8.60651e-05 -31.0631 9.66187e-05 -1.5718 -0.000282171
-0.0870208 -4.3794e-05 -30.8919 0.000150451 -1.54137 -0.000276708
-0.00429731 -2.16266e-06 -30.6755 0.000218506 -1.4956 -0.000268491
0.0716538 3.60604e-05 -30.3795 0.000311571 -1.43157 -0.000256996
0.139024 6.9965e-05 -29.9019 0.000461745 -1.34519 -0.00024149
0.201856 0.000101586 -28.4628 0.000914261 -1.23948 -0.000222512
0.261058 0.00013138 -19.528 0.00372371 -1.1221 -0.000201442
0.322438 0.00016227 -8.1794 0.00729219 -0.981472 -0.000176195
0.377609 0.000190035 0.103747 0.0148517 -0.836184 -0.000150113
0.430115 0.000216459 0.379858 0.0281253 -0.685646 -0.000123088
0.487086 0.00024513 0.698348 0.0434364 -0.516071 -9.26456e-05
0.532201 0.000267835 1.00935 0.0583873 -0.330678 -5.93638e-05
0.59509 0.000299484 1.33832 0.0742022 -0.156027 -2.80102e-05
0.684667 0.000344565 1.69998 0.0915885 -0.0566501 -1.01699e-05
0.735942 0.000370369 2.01653 0.106807 0.0417772 7.4999e-06
0.797426 0.000401312 2.31508 0.121159 0.134675 2.41769e-05
0.875504 0.000440605 2.6235 0.135986 0.244005 4.38041e-05
0.940277 0.000473203 2.91791 0.150139 0.373535 6.70575e-05
1.00678 0.000506671 3.2065 0.164013 0.494076 8.86972e-05
1.08147 0.000544258 3.49895 0.178072 0.604125 0.000108453
1.15253 0.000580018 3.79048 0.192087 0.724254 0.000130019
1.22362 0.000615796 4.08758 0.20637 0.851374 0.00015284
1.29861 0.000653536 4.39636 0.221214 0.970549 0.000174234
8.93253 0.344508 -5.6188 0.183691 1.48787 0.000267104
8.93253 0.395815 0.713245 0.205654 1.24772 0.000223993
8.93253 0.423301 0.133445 0.207973 1.49073 0.000267618
8.93253 0.463628 0.579729 0.219705 27.4694 0.0193519
8.93253 0.521982 1.06917 0.232572 28.7502 0.0436986
8.93253 0.561757 1.56583 0.245628 29.1551 0.0513946
8.93253 0.603742 2.15381 0.261085 29.3134 0.0544038
8.93253 0.655767 2.92821 0.281443 29.3653 0.055392
8.93253 0.703329 3.69907 0.301707 29.4933 0.0578243
8.93253 0.74371 4.45161 0.32149 29.6709 0.0612007
8.93253 0.786211 5.2467 0.342391 29.7644 0.0629769
8.93253 0.828184 6.07493 0.364164 29.4122 0.0629614
8.93253 0.868561 6.8803 0.385335 28.7572 0.0628438
8.93253 0.909376 7.73709 0.407859 28.5269 0.0628025
8.93253 0.95028 8.65031 0.431866 28.3071 0.062763
8.93253 0.989633 8.93253 0.457717 28.0707 0.0627206
-0.263219 0.998474 8.93253 0.483742 28.1478 0.0627344
3.57224 1.00146 8.93253 0.486674 29.1388 0.0629123
8.93253 1.01714 8.93253 0.534947 26.1214 0.0623706
8.93253 1.06211 8.93253 0.574987 26.9047 0.0625112
8.93253 1.09719 8.93253 0.615184 25.1583 0.0621977
8.93253 1.13587 8.93253 0.64895 23.9474 0.0619803
8.93253 1.17133 8.93253 0.684698 23.7641 0.0619474
8.93253 1.20342 8.93253 0.724682 23.6943 0.0619349
8.93253 1.23647 8.93253 0.765569 23.0144 0.0618128
8.93253 1.26858 8.93253 0.804097 22.8694 0.0617868
8.93253 1.2988 8.93253 0.842428 23.6128 0.0619203
8.93253 1.32811 8.93253 0.881598 24.8799 0.0621477
8.93253 1.35604 8.93253 0.920117 26.2004 0.0623848
8.93253 1.38244 8.93253 0.956771 27.9744 0.0627033
8.93253 1.41278 8.93253 0.990905 29.9167 0.0658734
8.93253 1.44321 8.93253 1.02312 30.3976 0.0750148
8.93253 1.47118 8.93253 1.05447 30.8928 0.084428
8.93253 1.49746 8.93253 1.08382 31.561 0.0971308
8.93253 1.51674 0.0489648 1.06342 32.896 0.122507
8.93253 1.52842 2.70292 1.07033 33.1307 0.126968
8.93253 1.5619 8.8259 1.08628 34.9734 0.161997
8.93253 1.59169 8.93253 1.1283 18.8952 0.189311
8.93253 1.61077 8.93253 1.15762 7.12096 0.220092
8.93253 1.6297 8.93253 1.18323 7.12096 0.240229
8.93253 1.6495 8.93253 1.21034 7.12096 0.261028
8.93253 1.66463 8.93253 1.24029 7.12096 0.289814
8.93253 1.67868 8.93253 1.26991 7.12096 0.319553
8.93253 1.69285 8.93253 1.29753 7.12096 0.348353
8.93253 1.70499 8.93253 1.32604 7.12096 0.375728
8.93253 1.71582 8.93253 1.35636 -0.0215251 0.385435
8.93253 1.72574 8.93253 1.38711 7.12096 0.394341
8.93253 1.73511 8.93253 1.41647 7.12096 0.424763
8.93253 1.74074 8.93253 1.44714 7.12096 0.46128
8.93253 1.7491 8.93253 1.47896 7.12096 0.500418
8.93253 1.75643 8.93253 1.51138 7.12096 0.535562
8.93253 1.76208 8.93253 1.54336 7.12096 0.569278
8.93253 1.76801 8.93253 1.57676 7.12096 0.604803
8.93253 1.77453 8.93253 1.61142 7.12096 0.642611
8.93253 1.78053 8.93253 1.64652 7.12096 0.680361
8.93253 1.78661 8.93253 1.68231 7.12096 0.716445
8.93253 1.79341 8.93253 1.71912 7.12096 0.752087
8.93253 1.80026 8.93253 1.7568 7.12096 0.78865
8.93253 1.80715 8.93253 1.79527 7.12096 0.825523
8.93253 1.81477 8.93253 1.83459 7.12096 0.861359
8.93253 1.82298 8.93253 1.87458 7.12096 0.896109
8.93253 1.83159 8.93253 1.91524 7.12096 0.930559
8.93253 1.84092 8.93253 1.95658 7.12096 0.964887
8.93253 1.85104 8.93253 1.99841 7.12096 0.998573
8.93253 1.86095 8.93253 2.04056 7.12096 1.03124
8.93253 1.86988 8.93253 2.0827 7.12096 1.0631
8.93253 1.88092 8.93253 2.12556 7.12096 1.09425
