-0.0374102 -1.8827e-05 -0.0988865 -3.1094e-05 -0.0290346 -5.21233e-06
-0.0371685 -1.87054e-05 -0.0989287 -3.11072e-05 -0.0290218 -5.21004e-06
-0.036593 -1.84157e-05 -0.0990323 -3.11398e-05 -0.0289674 -5.20027e-06
-0.0353951 -1.78129e-05 -0.0991748 -3.11846e-05 -0.0289021 -5.18855e-06
-0.034016 -1.71189e-05 -0.0993126 -3.1228e-05 -0.0288605 -5.18108e-06
-0.0322198 -1.62149e-05 -0.0994559 -3.1273e-05 -0.0288602 -5.18102e-06
-0.029961 -1.50781e-05 -0.0995745 -3.13103e-05 -0.0289201 -5.19178e-06
-0.0271893 -1.36832e-05 -0.0996285 -3.13273e-05 -0.0290704 -5.21876e-06
-0.0238504 -1.20029e-05 -0.0995846 -3.13135e-05 -0.0293436 -5.26779e-06
-0.0198855 -1.00076e-05 -0.099412 -3.12592e-05 -0.0297709 -5.3445e-06
-0.0152378 -7.66856e-06 -0.0990695 -3.11515e-05 -0.0303789 -5.45365e-06
-0.00986279 -4.96354e-06 -0.0985053 -3.09741e-05 -0.0311889 -5.59908e-06
-0.00377419 -1.89939e-06 -0.0976625 -3.07091e-05 -0.0322202 -5.78421e-06
0.0029304 1.47475e-06 -0.0965118 -3.03473e-05 -0.0334668 -6.008e-06
0.0101033 5.08459e-06 -0.0949372 -2.98522e-05 -0.034975 -6.27876e-06
0.0177719 8.94387e-06 -0.0928941 -2.92097e-05 -0.0367163 -6.59135e-06
0.02579 1.2979e-05 -0.0903089 -2.83968e-05 -0.0386701 -6.94211e-06
0.0339802 1.71008e-05 -0.0871173 -2.73932e-05 -0.0407852 -7.32182e-06
0.0421371 2.12058e-05 -0.0832776 -2.61859e-05 -0.0429837 -7.71649e-06
0.0500504 2.51883e-05 -0.0787708 -2.47688e-05 -0.0451486 -8.10513e-06
0.0575063 2.89405e-05 -0.0735992 -2.31426e-05 -0.0471476 -8.464e-06
0.0642547 3.23367e-05 -0.0677842 -2.13141e-05 -0.0487903 -8.75889e-06
0.0699934 3.52248e-05 -0.0613684 -1.92967e-05 -0.0498583 -8.95062e-06
0.0743611 3.74228e-05 -0.054666 -1.71892e-05 -0.0501194 -8.9975e-06
0.0769344 3.87179e-05 -0.0482831 -1.51822e-05 -0.0493372 -8.85707e-06
0.0772538 3.88786e-05 -0.0417074 -1.31145e-05 -0.0472675 -8.48552e-06
0.0749207 3.77045e-05 -0.0350282 -1.10143e-05 -0.0436281 -7.83217e-06
0.0696976 3.50759e-05 -0.0283526 -8.91523e-06 -0.0380935 -6.8386e-06
0.0616317 3.10167e-05 -0.0219938 -6.91575e-06 -0.0303324 -5.44531e-06
0.0509984 2.56654e-05 -0.016241 -5.10683e-06 -0.020063 -3.60173e-06
0.0379751 1.91113e-05 -0.011383 -3.57927e-06 -0.00795679 -1.42841e-06
0.0226758 1.14118e-05 -0.00774548 -2.4355e-06 0.00608485 1.09236e-06
0.00603551 3.03742e-06 -0.00550581 -1.73125e-06 0.0227425 4.08276e-06
-0.0116921 -5.88413e-06 -0.00489626 -1.53959e-06 0.0418713 7.51679e-06
-0.0301968 -1.51968e-05 -0.00606668 -1.90761e-06 0.0632873 1.13614e-05
-0.0492657 -2.47934e-05 -0.00904572 -2.84435e-06 0.0866241 1.55509e-05
-0.0688615 -3.46552e-05 -0.0138082 -4.34185e-06 0.111388 1.99966e-05
-0.088878 -4.47286e-05 -0.0203304 -6.39271e-06 0.136971 2.45892e-05
-0.109089 -5.49002e-05 -0.0285226 -8.96867e-06 0.162596 2.91894e-05
-0.129409 -6.51263e-05 -0.040247 -1.26553e-05 0.187372 3.36373e-05
-0.149697 -7.53364e-05 -0.0536674 -1.68752e-05 0.210659 3.78178e-05
-0.169688 -8.53968e-05 -0.0683013 -2.14767e-05 0.231536 4.15656e-05
-0.189024 -9.5128e-05 -0.0838579 -2.63684e-05 0.249162 4.47298e-05
-0.207275 -0.000104313 -0.10007 -3.14661e-05 0.262738 4.71671e-05
-0.22396 -0.00011271 -0.116654 -3.66809e-05 0.27155 4.8749e-05
-0.23865 -0.000120103 -0.133307 -4.19173e-05 0.274943 4.9358e-05
-0.251158 -0.000126397 -0.149741 -4.70846e-05 0.272339 4.88906e-05
-0.261555 -0.00013163 -0.165784 -5.21294e-05 0.263224 4.72542e-05
-0.270158 -0.000135959 -0.18096 -5.69014e-05 0.247303 4.43961e-05
-0.277583 -0.000139696 -0.194881 -6.12785e-05 0.2244 4.02845e-05
-0.286567 -0.000144217 -0.210201 -6.60957e-05 0.185931 3.33786e-05
-0.297156 -0.000149546 -0.22301 -7.01235e-05 0.136928 2.45816e-05
-0.311478 -0.000156754 -0.233189 -7.33241e-05 0.0784253 1.4079e-05
-0.331356 -0.000166758 -0.240998 -7.57796e-05 0.0120412 2.16165e-06
-0.35802 -0.000180176 -0.247274 -7.7753e-05 -0.0661941 -1.18832e-05
-0.391969 -0.000197262 -0.253234 -7.96272e-05 -0.153297 -2.75202e-05
-0.432848 -0.000217835 -0.26037 -8.18711e-05 -0.240882 -4.32435e-05
-0.479489 -0.000241307 -0.270332 -8.50034e-05 -0.325181 -5.83769e-05
-0.530324 -0.00026689 -0.284905 -8.95857e-05 -0.402701 -7.22934e-05
-0.584022 -0.000293914 -0.305602 -9.60938e-05 -0.471129 -8.45777e-05
-0.639832 -0.000322001 -0.333421 -0.000104841 -0.52868 -9.49093e-05
-0.697503 -0.000351025 -0.368888 -0.000115994 -0.574298 -0.000103099
-0.757029 -0.000380981 -0.412064 -0.00012957 -0.607944 -0.000109139
-0.818435 -0.000411884 -0.46252 -0.000145435 -0.630709 -0.000113226
-0.881549 -0.000443647 -0.519396 -0.000163319 -0.644615 -0.000115722
-0.945743 -0.000475953 -0.581573 -0.000182871 -0.652213 -0.000117086
-1.00997 -0.000508278 -0.647709 -0.000203666 -0.656568 -0.000117868
-1.07315 -0.000540074 -0.716222 -0.00022521 -0.661168 -0.000118694
-1.13451 -0.00057095 -0.785356 -0.000246948 -0.669769 -0.000120238
-1.19359 -0.000600683 -0.853316 -0.000268317 -0.686009 -0.000123153
-1.25008 -0.000629115 -0.918395 -0.000288781 -0.713135 -0.000128023
-1.30345 -0.000655973 -0.979129 -0.000307878 -0.753789 -0.000135321
-1.35273 -0.000680771 -1.03441 -0.000325262 -0.809845 -0.000145384
-1.39684 -0.000702973 -1.0835 -0.000340696 -0.882265 -0.000158385
-1.43499 -0.000722172 -1.12595 -0.000354044 -0.971066 -0.000174327
-1.46674 -0.000738152 -1.16166 -0.000365275 -1.07532 -0.000193043
-1.49205 -0.000750888 -1.19082 -0.000374443 -1.19324 -0.000214212
-1.51125 -0.000760549 -1.21384 -0.000381682 -1.32222 -0.000237367
-1.52502 -0.00076748 -1.23137 -0.000387192 -1.459 -0.000261922
-1.53434 -0.000772172 -1.24422 -0.000391233 -1.59976 -0.00028719
-1.54033 -0.000775185 -1.25336 -0.000394107 -1.7403 -0.000312421
-1.54418 -0.000777122 -1.25982 -0.000396139 -1.8763 -0.000336836
-1.5472 -0.000778642 -1.26464 -0.000397656 -2.00346 -0.000359664
-1.55087 -0.000780487 -1.2688 -0.000398962 -2.11775 -0.000380181
-1.55676 -0.00078345 -1.27314 -0.000400328 -2.21555 -0.000397738
-1.56631 -0.000788261 -1.27842 -0.000401988 -2.29383 -0.000411791
-1.58044 -0.00079537 -1.28528 -0.000404146 -2.35022 -0.000421915
-1.59911 -0.000804767 -1.29432 -0.000406987 -2.38309 -0.000427816
-1.62137 -0.000815968 -1.30599 -0.000410657 -2.39164 -0.00042935
-1.64564 -0.000828182 -1.32052 -0.000415227 -2.37601 -0.000426544
-1.66526 -0.000838056 -1.33417 -0.000419518 -2.34685 -0.00042131
-1.68845 -0.000849727 -1.35342 -0.00042557 -2.29135 -0.000411346
-1.70852 -0.000859826 -1.37434 -0.000432148 -2.21748 -0.000398085
-1.72389 -0.000867562 -1.39577 -0.000438886 -2.12903 -0.000382206
-1.73302 -0.000872156 -1.41626 -0.000445331 -2.03041 -0.000364503
-1.73424 -0.000872771 -1.43421 -0.000450975 -1.92641 -0.000345832
-1.72587 -0.000868561 -1.44787 -0.00045527 -1.82191 -0.000327071
-1.70629 -0.000858706 -1.45549 -0.000457666 -1.72164 -0.00030907
-1.67393 -0.000842419 -1.45543 -0.000457647 -1.62991 -0.000292604
-1.62743 -0.000819019 -1.44618 -0.000454738 -1.5504 -0.00027833
-1.56575 -0.000787975 -1.42644 -0.000448532 -1.48591 -0.000266753
-1.48815 -0.000748924 -1.39522 -0.000438713 -1.43824 -0.000258195
-1.39437 -0.000701727 -1.3518 -0.000425062 -1.40804 -0.000252774
-1.28489 -0.00064663 -1.29579 -0.00040745 -1.39482 -0.0002504
-1.16124 -0.000584406 -1.22704 -0.000385831 -1.39693 -0.000250779
-1.02588 -0.000516285 -1.14574 -0.000360267 -1.4116 -0.000253412
-0.881584 -0.000443665 -1.05254 -0.000330962 -1.43491 -0.000257598
-0.731168 -0.000367966 -0.948522 -0.000298254 -1.46197 -0.000262455
-0.577567 -0.000290666 -0.835147 -0.000262604 -1.48709 -0.000266963
-0.423825 -0.000213294 -0.714243 -0.000224587 -1.50407 -0.000270012
-0.272981 -0.00013738 -0.587921 -0.000184867 -1.5065 -0.000270449
-0.127858 -6.43454e-05 -0.458477 -0.000144164 -1.48805 -0.000267137
0.00930073 4.68067e-06 -0.328272 -0.000103222 -1.44279 -0.000259011
0.134106 6.74898e-05 -0.205841 -6.47248e-05 -1.36538 -0.000245115
0.246987 0.000124298 -0.0983001 -3.09096e-05 -1.25281 -0.000224905
0.349507 0.000175892 0.0050349 1.58318e-06 -1.10134 -0.000197714
0.440591 0.000221731 0.103245 3.24644e-05 -0.909694 -0.000163309
0.51967 0.000261529 0.19496 6.13036e-05 -0.679289 -0.000121947
0.586046 0.000294933 0.279403 8.78557e-05 -0.412226 -7.40033e-05
0.639482 0.000321825 0.357144 0.000112301 -0.112675 -2.02275e-05
0.681235 0.000342838 0.428197 0.000134643 0.186306 3.34458e-05
0.713456 0.000359053 0.492576 0.000154886 0.484647 8.70045e-05
0.738914 0.000371865 0.550952 0.000173242 0.794808 0.000142685
0.760655 0.000382806 0.604456 0.000190066 1.10884 0.00019906
0.781856 0.000393476 0.653872 0.000205604 1.4186 0.000254669
0.805882 0.000405567 0.700017 0.000220114 1.71556 0.000307979
0.836163 0.000420806 0.744187 0.000234003 1.99239 0.000357677
0.875936 0.000440822 0.787584 0.000247649 2.24265 0.000402604
0.927905 0.000466976 0.831217 0.000261369 2.45984 0.000441593
0.993856 0.000500167 0.876168 0.000275503 2.63806 0.000473589
1.07429 0.000540647 0.923581 0.000290412 2.77334 0.000497873
1.1684 0.000588005 0.974407 0.000306393 2.86318 0.000514002
1.27441 0.00064136 1.02924 0.000323636 2.90668 0.00052181
1.39011 0.000699587 1.08833 0.000342216 2.90438 0.000521398
1.51302 0.000761442 1.15152 0.000362084 2.85885 0.000513225
1.64063 0.000825661 1.21807 0.000383012 2.77458 0.000498097
1.77044 0.000890988 1.28676 0.000404611 2.65765 0.000477104
1.89997 0.000956179 1.35597 0.000426373 2.51525 0.00045154
2.02687 0.00102004 1.4238 0.000447702 2.35553 0.000422868
2.14881 0.00108141 1.48816 0.000467939 2.18723 0.000392654
2.26343 0.00113909 1.54695 0.000486425 2.01917 0.000362484
2.36829 0.00119186 1.59822 0.000502547 1.85973 0.000333862
2.4611 0.00123857 1.64028 0.00051577 1.71649 0.000308146
2.53988 0.00127822 1.67174 0.000525664 1.5959 0.000286499
2.59304 0.00130497 1.69228 0.000532123 1.50326 0.000269867
2.63467 0.00132592 1.7042 0.000535872 1.44168 0.000258812
2.66554 0.00134146 1.70722 0.000536818 1.41122 0.000253344
2.6656 0.00134149 1.69181 0.000531974 1.41587 0.000254178
2.65615 0.00133673 1.66754 0.000524342 1.44732 0.000259825
2.62737 0.00132225 1.63878 0.000515299 1.50361 0.000269931
2.55041 0.00128352 1.60809 0.000505648 1.57754 0.000283202
2.46323 0.00123964 1.56189 0.000491123 1.67741 0.00030113
2.37029 0.00119287 1.51836 0.000477435 1.78328 0.000320137
2.26897 0.00114188 1.47027 0.000462313 1.89755 0.000340651
2.16318 0.00108864 1.41808 0.000445903 2.01269 0.000361321
2.06049 0.00103696 1.36568 0.000429425 2.12229 0.000380996
1.96192 0.000987353 1.31475 0.00041341 2.21995 0.000398528
1.87154 0.000941866 1.26561 0.000397959 2.2992 0.000412755
1.79363 0.00090266 1.21923 0.000383375 2.35556 0.000422874
1.73035 0.000870812 1.17714 0.000370141 2.38571 0.000428285
1.68395 0.000847464 1.14067 0.000358673 2.38607 0.00042835
1.6565 0.00083365 1.11025 0.000349107 2.35412 0.000422615
1.64865 0.000829695 1.08615 0.000341529 2.28966 0.000411043
1.66055 0.000835686 1.06903 0.000336148 2.19399 0.000393867
1.69176 0.000851393 1.05916 0.000333044 2.06906 0.000371441
1.73991 0.000875626 1.05633 0.000332153 1.9179 0.000344305
1.79417 0.000902933 1.06226 0.000334017 1.744 0.000313085
1.85227 0.000932169 1.07487 0.000337983 1.55386 0.000278951
1.911 0.000961728 1.09369 0.000343901 1.35433 0.000243132
1.96801 0.000990418 1.11734 0.000351338 1.15305 0.000206997
2.01062 0.00101186 1.13837 0.000357949 0.996042 0.000178811
2.04927 0.00103131 1.15998 0.000364745 0.847232 0.000152096
2.0828 0.00104819 1.18121 0.000371421 0.710746 0.000127594
2.11007 0.00106191 1.20117 0.000377696 0.590368 0.000105984
2.12999 0.00107194 1.21891 0.000383276 0.489374 8.7853e-05
2.14164 0.0010778 1.23353 0.000387871 0.410541 7.37009e-05
2.14417 0.00107907 1.24426 0.000391248 0.356154 6.39372e-05
2.13675 0.00107534 1.25063 0.000393249 0.327873 5.88601e-05
2.11859 0.0010662 1.25232 0.000393779 0.326589 5.86297e-05
2.08891 0.00105126 1.24916 0.000392786 0.352371 6.32581e-05
2.04701 0.00103017 1.24114 0.000390265 0.404531 7.2622e-05
1.99242 0.0010027 1.2284 0.00038626 0.48173 8.64807e-05
1.92511 0.000968828 1.21121 0.000380854 0.582039 0.000104488
1.84556 0.000928795 1.18988 0.000374147 0.702962 0.000126197
1.75484 0.000883138 1.16476 0.000366247 0.841478 0.000151063
1.65448 0.00083263 1.1362 0.000357267 0.994134 0.000178468
1.54628 0.000778179 1.10462 0.000347337 1.15713 0.00020773
1.43209 0.000720712 1.0705 0.000336609 1.32641 0.000238119
1.31368 0.000661119 1.03436 0.000325245 1.49773 0.000268874
1.19273 0.000600252 0.996721 0.00031341 1.66672 0.000299211
1.07092 0.000538949 0.958103 0.000301267 1.82906 0.000328356
0.949879 0.000478035 0.919009 0.000288974 1.98057 0.000355555
0.831178 0.000418298 0.879902 0.000276677 2.11731 0.000380102
0.716221 0.000360444 0.841187 0.000264504 2.23567 0.00040135
0.60621 0.000305081 0.803187 0.000252555 2.33245 0.000418724
0.502145 0.000252709 0.76614 0.000240906 2.40494 0.000431737
0.404826 0.000203732 0.730187 0.000229601 2.45098 0.000440004
0.314869 0.00015846 0.695368 0.000218652 2.46903 0.000443244
0.23268 0.000117098 0.661617 0.000208039 2.45816 0.000441292
0.158463 7.9748e-05 0.628754 0.000197706 2.41807 0.000434096
0.0922162 4.64086e-05 0.596497 0.000187563 2.34912 0.000421716
0.0337303 1.6975e-05 0.564484 0.000177497 2.25223 0.000404324
-0.0174426 -8.77814e-06 0.532274 0.000167369 2.12893 0.000382189
-0.0632964 -3.18544e-05 0.499357 0.000157018 1.98124 0.000355675
-0.0920724 -4.63362e-05 0.46324 0.000145662 1.81198 0.000325289
-0.102748 -5.17089e-05 0.419725 0.000131979 1.62793 0.000292247
-0.110815 -5.57688e-05 0.38248 0.000120267 1.42233 0.000255338
-0.114987 -5.78684e-05 0.339195 0.000106657 1.20554 0.000216419
-0.118902 -5.98387e-05 0.293336 9.22368e-05 0.977602 0.0001755
-0.121891 -6.13427e-05 0.244918 7.70123e-05 0.742687 0.000133328
-0.124938 -6.28761e-05 0.195195 6.13774e-05 0.50356 9.03997e-05
-0.130698 -6.57748e-05 0.143192 4.50253e-05 0.26328 4.72644e-05
-0.140764 -7.08407e-05 0.0878875 2.76354e-05 0.0252767 4.53771e-06
-0.155796 -7.84058e-05 0.0294608 9.26367e-06 -0.239038 -4.29123e-05
-0.176885 -8.90188e-05 -0.0314719 -9.89606e-06 -0.498643 -8.9517e-05
-0.205338 -0.000103338 -0.0949241 -2.9848e-05 -0.746558 -0.000134023
-0.241894 -0.000121735 -0.161569 -5.08038e-05 -0.979713 -0.000175879
-0.286627 -0.000144247 -0.234586 -7.37635e-05 -1.19479 -0.00021449
-0.339879 -0.000171047 -0.31246 -9.82502e-05 -1.39071 -0.000249662
-0.401656 -0.000202137 -0.393555 -0.00012375 -1.56631 -0.000281185
-0.471717 -0.000237396 -0.476817 -0.000149931 -1.72076 -0.000308914
-0.549753 -0.000276668 -0.561821 -0.000176659 -1.85338 -0.00033272
-0.635384 -0.000319763 -0.64855 -0.000203931 -1.96405 -0.000352589
-0.727983 -0.000366364 -0.736748 -0.000231664 -2.0533 -0.00036861
-0.826686 -0.000416037 -0.825662 -0.000259622 -2.12215 -0.000380971
-0.930453 -0.000468259 -0.914456 -0.000287542 -2.17201 -0.000389922
-1.03805 -0.000522405 -1.00254 -0.000315241 -2.20455 -0.000395763
-1.14804 -0.00057776 -1.08948 -0.000342578 -2.22165 -0.000398833
-1.2589 -0.000633554 -1.1747 -0.000369374 -2.22543 -0.000399512
-1.36907 -0.000688994 -1.25744 -0.000395392 -2.21825 -0.000398224
-1.47692 -0.000743271 -1.33697 -0.000420398 -2.20269 -0.000395429
-1.58084 -0.000795574 -1.41265 -0.000444195 -2.18136 -0.0003916
-1.6793 -0.000845124 -1.48392 -0.000466605 -2.15682 -0.000387195
-1.77086 -0.000891198 -1.55016 -0.000487435 -2.13152 -0.000382653
-1.8542 -0.000933144 -1.61074 -0.000506483 -2.10778 -0.000378391
-1.92822 -0.000970392 -1.66505 -0.000523561 -2.08779 -0.000374803
-1.99198 -0.00100248 -1.71261 -0.000538514 -2.07353 -0.000372243
-2.04482 -0.00102907 -1.75297 -0.000551204 -2.06663 -0.000371004
-2.08631 -0.00104995 -1.78575 -0.000561512 -2.06831 -0.000371306
-2.11627 -0.00106503 -1.81063 -0.000569337 -2.07942 -0.000373301
-2.13475 -0.00107433 -1.82742 -0.000574617 -2.1004 -0.000377067
-2.14198 -0.00107797 -1.83605 -0.00057733 -2.13125 -0.000382605
-2.13841 -0.00107617 -1.83657 -0.000577493 -2.17152 -0.000389834
-2.12468 -0.00106926 -1.82916 -0.000575163 -2.2203 -0.000398591
-2.10189 -0.0010578 -1.81413 -0.000570436 -2.27622 -0.000408631
-2.07115 -0.00104232 -1.79188 -0.000563439 -2.33756 -0.000419642
-2.03368 -0.00102347 -1.76291 -0.000554331 -2.40225 -0.000431255
-1.99099 -0.00100198 -1.72791 -0.000543327 -2.4679 -0.00044304
-1.94459 -0.00097863 -1.68765 -0.000530668 -2.53187 -0.000454524
-1.89593 -0.000954141 -1.64298 -0.000516621 -2.59139 -0.000465209
-1.84647 -0.000929251 -1.59483 -0.000501481 -2.64362 -0.000474586
-1.79771 -0.000904715 -1.54419 -0.000485557 -2.68574 -0.000482148
-1.75114 -0.000881275 -1.49206 -0.000469165 -2.71505 -0.000487409
-1.70814 -0.000859638 -1.43943 -0.000452615 -2.72905 -0.000489922
-1.67006 -0.000840472 -1.38726 -0.000436212 -2.72554 -0.000489292
-1.63808 -0.000824377 -1.33649 -0.000420246 -2.70268 -0.000485188
-1.61321 -0.000811861 -1.28795 -0.000404984 -2.65906 -0.000477358
-1.59626 -0.000803331 -1.24242 -0.000390667 -2.59377 -0.000465637
-1.58786 -0.000799103 -1.20055 -0.000377502 -2.50643 -0.000449957
-1.58846 -0.000799408 -1.16288 -0.000365658 -2.39721 -0.000430351
-1.59836 -0.000804389 -1.12983 -0.000355265 -2.26689 -0.000406956
-1.61646 -0.000813496 -1.1019 -0.000346482 -2.11677 -0.000380005
-1.63688 -0.000823774 -1.08232 -0.000340325 -1.94718 -0.00034956
-1.67065 -0.000840771 -1.06563 -0.000335078 -1.76278 -0.000316456
-1.71174 -0.000861447 -1.05367 -0.000331317 -1.56689 -0.00028129
-1.76086 -0.000886169 -1.0466 -0.000329095 -1.3611 -0.000244346
-1.81742 -0.00091463 -1.04298 -0.000327956 -1.15043 -0.000206527
-1.87834 -0.000945291 -1.04397 -0.000328267 -0.937287 -0.000168263
-1.94233 -0.000977496 -1.04855 -0.000329706 -0.7267 -0.000130458
-2.00477 -0.00100892 -1.05759 -0.000332551 -0.522314 -9.37665e-05
-2.06572 -0.00103959 -1.07006 -0.00033647 -0.328217 -5.89219e-05
-2.12169 -0.00106776 -1.08523 -0.000341239 -0.148208 -2.66065e-05
-2.17099 -0.00109257 -1.10251 -0.000346674 -0.000959433 -1.72239e-07
-2.21246 -0.00111344 -1.12174 -0.000352722 0.120153 2.15701e-05
-2.2439 -0.00112926 -1.14204 -0.000359103 0.21926 3.93618e-05
-2.26326 -0.00113901 -1.16255 -0.000365553 0.293884 5.27585e-05
-2.26939 -0.00114209 -1.18248 -0.000371821 0.342553 6.14955e-05
-2.26203 -0.00113839 -1.20119 -0.000377704 0.363572 6.52689e-05
-2.24063 -0.00112761 -1.2179 -0.000382958 0.355327 6.37888e-05
-2.20491 -0.00110964 -1.23178 -0.000387321 0.31686 5.68831e-05
-2.15526 -0.00108465 -1.24213 -0.000390578 0.2483 4.45751e-05
-2.0923 -0.00105297 -1.2484 -0.000392548 0.150597 2.70353e-05
-2.01669 -0.00101492 -1.25012 -0.000393089 0.0251927 4.52263e-06
-1.92947 -0.000971022 -1.24713 -0.000392147 -0.136179 -2.44471e-05
-1.83213 -0.000922033 -1.23915 -0.000389641 -0.33874 -6.0811e-05
-1.72638 -0.000868815 -1.22615 -0.00038555 -0.564999 -0.000101429
-1.6141 -0.00081231 -1.2081 -0.000379875 -0.809789 -0.000145374
-1.49719 -0.000753474 -1.18539 -0.000372736 -1.06801 -0.00019173
-1.37753 -0.000693252 -1.15859 -0.000364307 -1.33455 -0.00023958
-1.25693 -0.00063256 -1.12831 -0.000354786 -1.60405 -0.00028796
-1.13716 -0.000572286 -1.09524 -0.00034439 -1.87061 -0.000335815
-1.0199 -0.000513274 -1.06022 -0.000333376 -2.12803 -0.000382026
-0.906701 -0.000456305 -1.02416 -0.000322038 -2.37019 -0.000425499
-0.798963 -0.000402085 -0.987994 -0.000310666 -2.59149 -0.000465227
-0.697976 -0.000351262 -0.952552 -0.000299521 -2.78689 -0.000500306
-0.604925 -0.000304434 -0.918557 -0.000288832 -2.95187 -0.000529924
-0.520847 -0.000262121 -0.88664 -0.000278796 -3.08243 -0.000553363
-0.446539 -0.000224724 -0.857318 -0.000269576 -3.17527 -0.000570029
-0.382489 -0.000192491 -0.830951 -0.000261285 -3.22798 -0.000579491
-0.328869 -0.000165506 -0.807704 -0.000253975 -3.23915 -0.000581496
-0.285545 -0.000143703 -0.787548 -0.000247637 -3.20834 -0.000575966
-0.252097 -0.00012687 -0.770278 -0.000242207 -3.13603 -0.000562984
-0.227831 -0.000114658 -0.755516 -0.000237565 -3.02353 -0.000542789
-0.211789 -0.000106585 -0.742703 -0.000233536 -2.87306 -0.000515775
-0.20276 -0.000102041 -0.731111 -0.000229891 -2.68766 -0.000482491
-0.199278 -0.000100288 -0.719882 -0.00022636 -2.47114 -0.000443622
-0.199641 -0.000100471 -0.708062 -0.000222644 -2.22792 -0.00039996
-0.201931 -0.000101624 -0.694633 -0.000218421 -1.96288 -0.000352379
-0.204073 -0.000102701 -0.678538 -0.00021336 -1.68121 -0.000301813
-0.227669 -0.000114576 -0.652808 -0.00020527 -1.39006 -0.000249546
-0.244928 -0.000123262 -0.622421 -0.000195715 -1.09622 -0.000196795
-0.259952 -0.000130823 -0.591257 -0.000185916 -0.796151 -0.000142926
-0.26713 -0.000134436 -0.550677 -0.000173155 -0.503535 -9.03952e-05
-0.264464 -0.000133094 -0.503757 -0.000158402 -0.217477 -3.90418e-05
-0.252046 -0.000126844 -0.450139 -0.000141542 0.0377092 6.76961e-06
-0.22891 -0.000115201 -0.390859 -0.000122902 0.258786 4.64577e-05
-0.194447 -9.78571e-05 -0.324126 -0.000101919 0.46336 8.31831e-05
-0.14874 -7.48547e-05 -0.249321 -7.83969e-05 0.649552 0.000116608
-0.0921777 -4.63892e-05 -0.16695 -5.24958e-05 0.816213 0.000146528
-0.0246061 -1.23832e-05 -0.0779086 -2.44977e-05 0.96136 0.000172585
0.0535666 2.69578e-05 0.0173495 5.45539e-06 1.08458 0.000194706
0.14197 7.14475e-05 0.116842 3.674e-05 1.18551 0.000212824
0.239559 0.00012056 0.214757 6.75285e-05 1.26567 0.000227215
0.34466 0.000173453 0.310733 9.77072e-05 1.32704 0.000238233
0.455945 0.000229458 0.408676 0.000128504 1.37141 0.000246196
0.571629 0.000287677 0.507445 0.000159561 1.40063 0.000251443
0.689444 0.000346969 0.606341 0.000190658 1.41756 0.000254482
0.80627 0.000405762 0.705035 0.000221692 1.42517 0.000255849
0.920794 0.000463397 0.80197 0.000252172 1.4268 0.000256141
1.03146 0.000519092 0.89572 0.000281651 1.42558 0.000255922
1.13706 0.000572235 0.985026 0.000309733 1.42456 0.000255739
1.23659 0.000622326 1.06887 0.000336098 1.42682 0.000256145
1.32926 0.000668961 1.14628 0.000360438 1.43516 0.000257642
1.4144 0.00071181 1.21622 0.000382429 1.45196 0.000260658
1.49145 0.000750587 1.27781 0.000401795 1.47906 0.000265523
1.56012 0.000785143 1.33027 0.000418291 1.51782 0.00027248
1.60881 0.000809648 1.37531 0.000432455 1.56826 0.000281536
1.64793 0.000829337 1.41154 0.000443846 1.62966 0.00029256
1.67484 0.000842878 1.43773 0.000452081 1.70456 0.000306006
1.68981 0.00085041 1.4558 0.000457763 1.78956 0.000321264
1.69352 0.000852281 1.46512 0.000460694 1.88458 0.000338322
1.68698 0.000848988 1.46629 0.000461063 1.9866 0.000356636
1.67112 0.000841004 1.45955 0.000458943 2.09374 0.000375872
1.64704 0.000828886 1.4458 0.00045462 2.20336 0.00039555
1.61657 0.000813552 1.42606 0.000448413 2.31241 0.000415127
1.58149 0.000795898 1.40114 0.000440577 2.41753 0.000433998
1.54345 0.000776757 1.37176 0.000431338 2.51533 0.000451556
1.50429 0.000757046 1.33883 0.000420984 2.60258 0.000467218
1.4659 0.000737725 1.30345 0.000409858 2.67618 0.000480431
1.43003 0.000719673 1.26662 0.000398277 2.73319 0.000490665
1.39826 0.000703687 1.2292 0.000386512 2.77089 0.000497434
1.37209 0.000690515 1.19201 0.000374817 2.78696 0.000500318
1.35282 0.00068082 1.15585 0.000363447 2.77959 0.000498996
1.34151 0.000675128 1.12147 0.000352636 2.74757 0.000493248
1.3389 0.000673813 1.0895 0.000342582 2.69024 0.000482955
1.34541 0.000677091 1.06042 0.000333438 2.60749 0.0004681
1.36117 0.000685019 1.0346 0.00032532 2.49984 0.000448774
1.38598 0.000697507 1.01231 0.000318312 2.36847 0.000425191
1.41946 0.000714354 0.993693 0.000312458 2.21522 0.00039768
1.46017 0.000734842 0.978849 0.00030779 2.04252 0.000366675
1.50664 0.000758228 0.9682 0.000304442 1.85304 0.000332661
1.5572 0.000783673 0.961141 0.000302222 1.65014 0.000296235
1.61058 0.000810537 0.956927 0.000300897 1.43803 0.000258157
1.66626 0.000838557 0.955509 0.000300451 1.22054 0.000219112
1.72306 0.000867143 0.956286 0.000300695 1.00217 0.000179911
1.77938 0.000895489 0.958471 0.000301383 0.787395 0.000141354
1.834 0.000922978 0.961329 0.000302281 0.580661 0.000104241
1.88586 0.000949077 0.96429 0.000303212 0.386205 6.93319e-05
1.93366 0.000973129 0.966816 0.000304007 0.208013 3.73427e-05
1.97595 0.000994412 0.96839 0.000304501 0.0496808 8.91876e-06
2.01138 0.00101224 0.968578 0.000304561 -0.105357 -1.89138e-05
2.03869 0.00102599 0.967017 0.00030407 -0.232569 -4.17512e-05
2.05674 0.00103507 0.963543 0.000302977 -0.327801 -5.88472e-05
2.0647 0.00103908 0.95811 0.000301269 -0.389728 -6.99644e-05
2.06198 0.00103771 0.95079 0.000298967 -0.417113 -7.48807e-05
2.04847 0.00103091 0.941644 0.000296092 -0.40984 -7.35749e-05
2.02427 0.00101873 0.930794 0.00029268 -0.368727 -6.61944e-05
1.98973 0.00100135 0.918419 0.000288789 -0.29532 -5.30162e-05
1.94569 0.000979186 0.904845 0.00028452 -0.191687 -3.44119e-05
1.89346 0.0009529 0.890396 0.000279977 -0.0609056 -1.09339e-05
1.83453 0.000923242 0.875315 0.000275235 0.0820508 1.47299e-05
1.77044 0.00089099 0.860132 0.000270461 0.234188 4.20417e-05
1.70282 0.000856959 0.845375 0.00026582 0.400865 7.19638e-05
1.63319 0.000821919 0.831608 0.000261492 0.578291 0.000103816
1.56303 0.00078661 0.819347 0.000257636 0.762185 0.000136828
1.49381 0.000751774 0.809119 0.00025442 0.948399 0.000170258
1.42708 0.000718189 0.801434 0.000252004 1.13304 0.000203405
1.36436 0.000686627 0.796762 0.000250535 1.31242 0.000235608
1.30714 0.000657828 0.795471 0.000250129 1.48298 0.000266226
1.25676 0.000632474 0.797834 0.000250872 1.64135 0.000294658
1.21444 0.000611179 0.80404 0.000252823 1.78459 0.000320372
1.18119 0.000594446 0.814202 0.000256018 1.91028 0.000342936
1.15771 0.000582627 0.828352 0.000260468 2.01653 0.000362011
1.14431 0.000575882 0.84643 0.000266152 2.10198 0.00037735
1.14087 0.00057415 0.868294 0.000273027 2.16572 0.000388793
1.14683 0.000577153 0.893723 0.000281023 2.20739 0.000396274
1.16128 0.000584426 0.92241 0.000290044 2.22722 0.000399834
1.18299 0.000595351 0.953946 0.00029996 2.22603 0.00039962
1.21042 0.000609153 0.987825 0.000310613 2.20517 0.000395875
1.24177 0.00062493 1.02344 0.000321812 2.16645 0.000388924
1.2751 0.000641706 1.06008 0.000333333 2.11211 0.000379168
1.30844 0.000658481 1.09691 0.000344914 2.04477 0.000367079
1.33979 0.000674261 1.13303 0.000356272 1.96737 0.000353184
1.36724 0.000688075 1.16745 0.000367093 1.88307 0.000338052
1.389 0.000699029 1.1991 0.000377047 1.79516 0.00032227
1.40349 0.000706321 1.2269 0.000385789 1.7069 0.000306425
1.40933 0.000709255 1.24976 0.000392976 1.62145 0.000291085
1.40531 0.000707236 1.26662 0.000398278 1.54177 0.000276781
1.39045 0.000699758 1.27652 0.000401389 1.47049 0.000263985
1.3639 0.000686394 1.27858 0.000402038 1.40982 0.000253093
1.32497 0.000666802 1.27209 0.000399999 1.36145 0.00024441
1.27321 0.000640754 1.2565 0.000395095 1.32651 0.000238137
1.20844 0.000608159 1.23141 0.000387205 1.30553 0.000234371
1.13079 0.000569082 1.19662 0.000376266 1.29841 0.000233091
1.04071 0.000523748 1.15211 0.000362269 1.30441 0.000234169
0.938955 0.000472537 1.09804 0.00034527 1.32218 0.00023736
0.826541 0.000415964 1.03478 0.000325377 1.3498 0.000242318
0.710851 0.000357742 0.961313 0.000302276 1.38521 0.000248675
0.586422 0.000295122 0.878232 0.000276152 1.42682 0.000256144
0.454236 0.000228598 0.792895 0.000249319 1.46589 0.000263158
0.318784 0.000160431 0.699028 0.000219803 1.50436 0.000270065
0.179222 9.01949e-05 0.60062 0.000188859 1.53575 0.0002757
0.0383908 1.93205e-05 0.498189 0.000156651 1.55724 0.000279558
-0.100939 -5.07985e-05 0.393459 0.00012372 1.56441 0.000280844
-0.238079 -0.000119815 0.286628 9.01275e-05 1.55427 0.000279024
-0.368296 -0.000185348 0.171032 5.37795e-05 1.52346 0.000273494
-0.48851 -0.000245847 0.0474246 1.49122e-05 1.46797 0.000263531
-0.5982 -0.000301049 -0.0728032 -2.28923e-05 1.38746 0.000249079
-0.697088 -0.000350816 -0.19009 -5.97722e-05 1.27903 0.000229613
-0.782403 -0.000393751 -0.302672 -9.51724e-05 1.1419 0.000204996
-0.853152 -0.000429356 -0.408705 -0.000128514 0.975532 0.000175129
-0.909683 -0.000457806 -0.507585 -0.000159606 0.780781 0.000140167
-0.95205 -0.000479128 -0.599121 -0.000188388 0.55863 0.000100286
-0.980145 -0.000493266 -0.68301 -0.000214766 0.310699 5.57771e-05
-0.994746 -0.000500614 -0.758861 -0.000238617 0.0395397 7.09822e-06
-0.997208 -0.000501854 -0.826725 -0.000259956 -0.286601 -5.14511e-05
-0.989026 -0.000497736 -0.886529 -0.000278761 -0.642231 -0.000115294
-0.971858 -0.000489096 -0.938721 -0.000295172 -1.01192 -0.000181662
-0.947848 -0.000477013 -0.983651 -0.0003093 -1.38861 -0.000249284
-0.91941 -0.000462701 -1.02198 -0.000321353 -1.76606 -0.000317045
-0.888981 -0.000447387 -1.05446 -0.000331566 -2.13862 -0.000383928
-0.858969 -0.000432283 -1.08197 -0.000340216 -2.50051 -0.000448895
-0.831802 -0.000418612 -1.10548 -0.000347607 -2.84528 -0.000510788
-0.809577 -0.000407426 -1.12602 -0.000354066 -3.16618 -0.000568396
-0.794647 -0.000399913 -1.14467 -0.000359932 -3.45694 -0.000620594
-0.788753 -0.000396947 -1.16257 -0.00036556 -3.70533 -0.000665186
-0.794571 -0.000399875 -1.17367 -0.000369051 -3.66863 -0.000658597
-0.814405 -0.000409856 -1.17132 -0.000368312 -3.66159 -0.000657333
-0.843112 -0.000424303 -1.185 -0.000372612 -3.68339 -0.000661246
-0.8869 -0.00044634 -1.198 -0.000376701 -3.70744 -0.000665564
-0.942338 -0.00047424 -1.22487 -0.000385148 -3.70365 -0.000664883
-1.01017 -0.000508375 -1.26076 -0.000396434 -3.66278 -0.000657547
-1.09153 -0.00054932 -1.2974 -0.000407956 -3.58503 -0.000643589
-1.18506 -0.000596391 -1.33571 -0.00042 -3.48694 -0.00062598
-1.28998 -0.000649194 -1.37684 -0.000432934 -3.36502 -0.000604092
-1.40539 -0.000707274 -1.42231 -0.000447234 -3.19796 -0.000574101
-1.52977 -0.000769872 -1.47121 -0.00046261 -2.98051 -0.000535064
-1.66136 -0.000836093 -1.52106 -0.000478285 -2.72938 -0.000489981
-1.79809 -0.000904903 -1.5706 -0.000493862 -2.46609 -0.000442716
-1.93784 -0.000975235 -1.61957 -0.00050926 -2.19992 -0.000394932
-2.07825 -0.0010459 -1.66773 -0.000524402 -1.92751 -0.000346029
-2.21683 -0.00111564 -1.71409 -0.000538979 -1.64619 -0.000295526
-2.35108 -0.0011832 -1.7574 -0.000552598 -1.36326 -0.000244734
-2.47857 -0.00124736 -1.79671 -0.000564959 -1.09265 -0.000196153
-2.59696 -0.00130694 -1.83143 -0.000575878 -0.845217 -0.000151734
-2.70169 -0.00135965 -1.86111 -0.000585208 -0.624201 -0.000112057
-2.69557 -0.00135657 -1.87159 -0.000588504 -0.437409 -7.85242e-05
-2.72535 -0.00137156 -1.84672 -0.000580685 -0.302748 -5.43498e-05
-2.74124 -0.00137955 -1.87182 -0.000588576 -0.163935 -2.94298e-05
-2.7374 -0.00137762 -1.86343 -0.00058594 -0.0701871 -1.26001e-05
-2.73463 -0.00137623 -1.84421 -0.000579897 -0.0331651 -5.95384e-06
-2.7412 -0.00137953 -1.83925 -0.000578334 -0.0117863 -2.11589e-06
-2.72632 -0.00137205 -1.84226 -0.000579283 -0.0130518 -2.34307e-06
-2.70418 -0.0013609 -1.83099 -0.000575738 -0.04504 -8.08564e-06
-2.66741 -0.0013424 -1.8161 -0.000571057 -0.116789 -2.09661e-05
-2.62042 -0.00131875 -1.80043 -0.00056613 -0.219115 -3.93358e-05
-2.55951 -0.00128809 -1.78122 -0.000560089 -0.354099 -6.35683e-05
-2.48721 -0.00125171 -1.75955 -0.000553275 -0.512754 -9.20502e-05
-2.40809 -0.00121189 -1.73507 -0.000545576 -0.692231 -0.00012427
-2.32305 -0.00116909 -1.7092 -0.000537441 -0.888672 -0.000159536
-2.23313 -0.00112384 -1.68303 -0.000529215 -1.09892 -0.00019728
-2.14131 -0.00107763 -1.65757 -0.000521209 -1.31761 -0.000236539
-2.05044 -0.0010319 -1.63315 -0.000513528 -1.53866 -0.000276222
-1.96236 -0.000987573 -1.61005 -0.000506267 -1.75683 -0.000315388
-1.87897 -0.000945606 -1.5893 -0.00049974 -1.96771 -0.000353245
-1.80261 -0.000907177 -1.57198 -0.000494296 -2.16715 -0.00038905
-1.73524 -0.000873277 -1.55865 -0.000490104 -2.35089 -0.000422036
-1.67835 -0.000844643 -1.54947 -0.000487217 -2.5148 -0.000451461
-1.63326 -0.000821951 -1.54479 -0.000485747 -2.65536 -0.000476693
-1.60116 -0.0008058 -1.54515 -0.00048586 -2.76994 -0.000497264
-1.58284 -0.000796579 -1.55086 -0.000487653 -2.85679 -0.000512854
-1.5783 -0.000794294 -1.56191 -0.000491129 -2.9147 -0.00052325
-1.58364 -0.000796982 -1.57907 -0.000496525 -2.94262 -0.000528264
-1.59914 -0.000804783 -1.60183 -0.00050368 -2.94044 -0.000527872
-1.62429 -0.000817436 -1.62953 -0.000512391 -2.90958 -0.000522332
-1.65829 -0.000834549 -1.66195 -0.000522586 -2.85166 -0.000511934
-1.70014 -0.000855611 -1.69826 -0.000534003 -2.76939 -0.000497165
-1.7486 -0.000879998 -1.73744 -0.000546321 -2.66575 -0.000478559
-1.80222 -0.000906983 -1.77834 -0.000559183 -2.54432 -0.000456759
-1.85936 -0.000935737 -1.81994 -0.000572262 -2.40909 -0.000432482
-1.9182 -0.000965351 -1.8612 -0.000585238 -2.26436 -0.0004065
-1.97686 -0.000994874 -1.90101 -0.000597755 -2.11453 -0.000379604
-2.03343 -0.00102334 -1.93819 -0.000609446 -1.96401 -0.000352582
-2.08601 -0.0010498 -1.97165 -0.000619966 -1.81709 -0.000326206
-2.13283 -0.00107337 -2.00043 -0.000629016 -1.67787 -0.000301214
-2.1723 -0.00109323 -2.02367 -0.000636324 -1.55012 -0.000278279
-2.20305 -0.0011087 -2.04059 -0.000641645 -1.43715 -0.000257998
-2.22397 -0.00111923 -2.05051 -0.000644763 -1.34174 -0.000240871
-2.23428 -0.00112442 -2.05292 -0.000645522 -1.26609 -0.000227289
-2.23351 -0.00112403 -2.04751 -0.000643821 -1.21172 -0.000217529
-2.22145 -0.00111796 -2.03415 -0.00063962 -1.17947 -0.000211739
-2.1981 -0.00110621 -2.01289 -0.000632936 -1.16941 -0.000209935
-2.16368 -0.00108889 -1.98399 -0.000623848 -1.18092 -0.000212001
-2.11852 -0.00106616 -1.9479 -0.0006125 -1.21265 -0.000217697
-2.06312 -0.00103828 -1.90527 -0.000599094 -1.26262 -0.000226667
-1.9982 -0.00100561 -1.85686 -0.000583873 -1.32828 -0.000238454
-1.92475 -0.000968649 -1.80355 -0.00056711 -1.4066 -0.000252515
-1.84396 -0.000927988 -1.74628 -0.000549103 -1.49418 -0.000268238
-1.75717 -0.000884313 -1.68607 -0.000530168 -1.58736 -0.000284965
-1.66586 -0.000838356 -1.62392 -0.000510626 -1.68231 -0.00030201
-1.5715 -0.000790869 -1.56084 -0.000490792 -1.77515 -0.000318676
-1.47555 -0.000742581 -1.49782 -0.000470976 -1.86206 -0.00033428
-1.37936 -0.000694177 -1.43577 -0.000451466 -1.93943 -0.000348169
-1.28422 -0.000646295 -1.37553 -0.000432523 -2.00388 -0.000359739
-1.19133 -0.000599549 -1.31779 -0.000414368 -2.05246 -0.00036846
-1.10194 -0.00055456 -1.26309 -0.000397167 -2.08266 -0.000373881
-1.01732 -0.000511975 -1.21178 -0.000381032 -2.09252 -0.000375652
-0.938751 -0.000472435 -1.16404 -0.000366021 -2.08068 -0.000373526
-0.867367 -0.00043651 -1.11991 -0.000352146 -2.04631 -0.000367357
-0.804037 -0.000404638 -1.07932 -0.000339381 -1.9892 -0.000357103
-0.749271 -0.000377077 -1.04207 -0.000327671 -1.90964 -0.000342821
-0.703182 -0.000353883 -1.00794 -0.000316938 -1.80848 -0.00032466
-0.665501 -0.000334919 -0.976621 -0.00030709 -1.68703 -0.000302858
-0.635635 -0.000319889 -0.947764 -0.000298016 -1.54707 -0.000277732
-0.612732 -0.000308362 -0.92098 -0.000289594 -1.39078 -0.000249675
-0.595711 -0.000299797 -0.895841 -0.000281689 -1.22069 -0.00021914
-0.583316 -0.000293559 -0.871893 -0.000274159 -1.03962 -0.000186633
-0.574165 -0.000288953 -0.84866 -0.000266854 -0.8506 -0.000152701
-0.566837 -0.000285266 -0.825643 -0.000259616 -0.656839 -0.000117917
-0.559907 -0.000281778 -0.802335 -0.000252287 -0.461611 -8.28691e-05
-0.551918 -0.000277757 -0.778252 -0.000244714 -0.26819 -4.81458e-05
-0.541356 -0.000272442 -0.75294 -0.000236755 -0.0797592 -1.43185e-05
-0.526602 -0.000265017 -0.726398 -0.000228409 0.0637568 1.14457e-05
-0.505916 -0.000254607 -0.700148 -0.000220155 0.18954 3.40264e-05
-0.478605 -0.000240862 -0.670408 -0.000210804 0.30548 5.48401e-05
-0.44313 -0.000223009 -0.63846 -0.000200758 0.412472 7.40475e-05
-0.405946 -0.000204296 -0.601084 -0.000189005 0.503683 9.04219e-05
-0.378531 -0.000190499 -0.549784 -0.000172875 0.575081 0.000103239
-0.332055 -0.000167109 -0.508823 -0.000159995 0.638668 0.000114654
-0.283929 -0.00014289 -0.459041 -0.000144341 0.689015 0.000123693
-0.223775 -0.000112617 -0.406383 -0.000127783 0.725895 0.000130314
-0.154921 -7.79654e-05 -0.350184 -0.000110112 0.749593 0.000134568
-0.0810919 -4.08102e-05 -0.292675 -9.2029e-05 0.759481 0.000136343
-0.0136946 -6.89191e-06 -0.234899 -7.38619e-05 0.758171 0.000136108
0.0640814 3.22495e-05 -0.178224 -5.60408e-05 0.748343 0.000134344
0.143381 7.21576e-05 -0.114978 -3.61537e-05 0.725335 0.000130213
0.222698 0.000112075 -0.0557149 -1.7519e-05 0.697159 0.000125155
0.303326 0.000152651 0.00163188 5.13129e-07 0.660486 0.000118571
0.385861 0.000194188 0.0512852 1.61262e-05 0.618902 0.000111106
0.467266 0.000235156 0.101226 3.18297e-05 0.575849 0.000103377
0.545888 0.000274723 0.149769 4.70936e-05 0.533332 9.57444e-05
0.622076 0.000313065 0.196158 6.16801e-05 0.493077 8.85178e-05
0.694997 0.000349763 0.240241 7.55415e-05 0.45681 8.20072e-05
0.763029 0.000384001 0.281961 8.86601e-05 0.426805 7.66206e-05
0.825365 0.000415372 0.321253 0.000101015 0.404829 7.26754e-05
0.881803 0.000443775 0.35766 0.000112463 0.392213 7.04106e-05
0.931807 0.00046894 0.390666 0.000122841 0.390031 7.00188e-05
0.974793 0.000490573 0.42013 0.000132106 0.399149 7.16558e-05
1.01064 0.000508611 0.446231 0.000140313 0.420073 7.54121e-05
1.03945 0.000523115 0.469033 0.000147483 0.452915 8.13078e-05
1.06135 0.000534133 0.488399 0.000153573 0.497462 8.9305e-05
1.07655 0.000541784 0.504312 0.000158576 0.553193 9.93099e-05
1.08557 0.000546321 0.517017 0.000162571 0.619257 0.00011117
1.08908 0.000548087 0.526855 0.000165665 0.694473 0.000124673
1.08784 0.000547467 0.534107 0.000167945 0.774797 0.000139093
1.08285 0.000544955 0.538423 0.000169302 0.849172 0.000152444
1.07524 0.000541125 0.539614 0.000169677 0.929549 0.000166874
1.06567 0.000536306 0.540061 0.000169817 1.01137 0.000181562
1.05567 0.000531277 0.539227 0.000169555 1.09264 0.000196153
1.0461 0.00052646 0.538262 0.000169252 1.17057 0.000210143
1.03818 0.000522474 0.53713 0.000168896 1.24523 0.000223544
1.03298 0.000519858 0.536396 0.000168665 1.31605 0.000236259
1.03156 0.000519142 0.536704 0.000168762 1.38126 0.000247965
1.03487 0.000520808 0.538626 0.000169366 1.43836 0.000258217
1.04372 0.000525262 0.542621 0.000170622 1.48545 0.00026667
1.05877 0.000532833 0.549031 0.000172638 1.52188 0.000273211
1.08043 0.000543733 0.558227 0.000175529 1.54764 0.000277835
1.10891 0.00055807 0.570573 0.000179412 1.56251 0.000280504
1.14424 0.000575848 0.586356 0.000184374 1.56557 0.000281052
1.18625 0.000596989 0.605655 0.000190443 1.55467 0.000279096
1.23463 0.000621336 0.628383 0.00019759 1.53044 0.000274747
1.28886 0.000648628 0.654594 0.000205831 1.49429 0.000268256
1.34833 0.000678557 0.684152 0.000215125 1.4478 0.000259911
1.41227 0.000710737 0.716909 0.000225426 1.39233 0.000249952
1.47983 0.000744739 0.752552 0.000236633 1.32955 0.000238682
1.55008 0.000780093 0.790673 0.00024862 1.26173 0.000226507
1.62204 0.000816305 0.830814 0.000261242 1.19161 0.000213919
1.69449 0.000852765 0.872532 0.00027436 1.12197 0.000201417
1.76545 0.000888478 0.915694 0.000287932 1.05516 0.000189424
1.83458 0.00092327 0.959144 0.000301594 0.993854 0.000178418
1.9009 0.000956642 1.00241 0.0003152 0.940568 0.000168852
1.96371 0.000988254 1.04498 0.000328585 0.897666 0.00016115
2.02221 0.00101769 1.08628 0.000341572 0.867479 0.000155731
2.07557 0.00104455 1.12575 0.000353982 0.851813 0.000152919
2.12313 0.00106848 1.16293 0.000365672 0.852087 0.000152968
2.16516 0.00108964 1.19698 0.000376381 0.86944 0.000156083
2.19469 0.0011045 1.2293 0.000386542 0.904055 0.000162297
2.21715 0.0011158 1.25962 0.000396076 0.95495 0.000171434
2.23136 0.00112295 1.28571 0.000404279 1.02491 0.000183994
2.23657 0.00112557 1.30953 0.00041177 1.11089 0.000199428
2.23326 0.00112391 1.32999 0.000418202 1.21319 0.000217794
2.22185 0.00111816 1.34739 0.000423675 1.32943 0.00023866
2.20276 0.00110856 1.36148 0.000428104 1.45838 0.00026181
2.17658 0.00109538 1.37268 0.000431627 1.59346 0.00028606
2.14446 0.00107922 1.37985 0.000433881 1.71489 0.000307859
2.10763 0.00106068 1.38337 0.000434988 1.84564 0.000331332
2.06665 0.00104006 1.38561 0.000435693 1.97967 0.000355392
2.02323 0.00101821 1.38571 0.000435723 2.1115 0.00037906
1.97807 0.000995483 1.38501 0.000435504 2.23784 0.00040174
1.93268 0.000972637 1.383 0.000434871 2.35935 0.000423554
1.88813 0.000950218 1.38017 0.000433981 2.47544 0.000444394
1.84558 0.000928803 1.37691 0.000432957 2.58351 0.000463796
1.80603 0.000908899 1.37369 0.000431946 2.67973 0.000481069
1.77013 0.000890835 1.37075 0.000431019 2.76131 0.000495713
1.73624 0.000873778 1.36858 0.000430337 2.82729 0.00050756
1.70474 0.000857923 1.36723 0.000429912 2.87758 0.000516587
1.67559 0.000843257 1.36658 0.00042971 2.912 0.000522766
1.6486 0.00082967 1.36682 0.000429785 2.92932 0.000525875
1.62353 0.000817056 1.36771 0.000430064 2.92762 0.000525569
1.60028 0.000805357 1.36861 0.000430347 2.90511 0.00052153
1.57873 0.000794508 1.36887 0.00043043 2.86351 0.00051406
1.55855 0.000784356 1.36802 0.000430161 2.80484 0.000503528
1.53933 0.00077468 1.36549 0.000429368 2.73037 0.00049016
1.52039 0.000765148 1.36076 0.00042788 2.64117 0.000474146
1.50095 0.000755368 1.35313 0.00042548 2.53905 0.000455814
1.4802 0.000744921 1.34192 0.000421955 2.42667 0.000435639
1.45731 0.000733402 1.32653 0.000417114 2.30684 0.000414127
1.43146 0.000720396 1.30644 0.000410798 2.18191 0.0003917
1.40179 0.000705461 1.28121 0.000402863 2.05374 0.00036869
1.36738 0.000688145 1.25042 0.000393185 1.92408 0.000345413
1.32745 0.000668051 1.21378 0.000381662 1.79484 0.000322211
1.28144 0.000644895 1.17105 0.000368226 1.66791 0.000299425
1.22902 0.000618515 1.12213 0.000352843 1.54481 0.000277327
1.17011 0.000588868 1.067 0.000335509 1.42651 0.00025609
1.10479 0.000555995 1.00577 0.000316254 1.31355 0.00023581
1.03327 0.000520001 0.938643 0.000295148 1.20624 0.000216545
0.955834 0.000481031 0.865983 0.000272301 1.10469 0.000198315
0.872826 0.000439257 0.788263 0.000247862 1.00871 0.000181084
0.784634 0.000394874 0.706069 0.000222017 0.917687 0.000164744
0.691737 0.000348123 0.62007 0.000194975 0.830672 0.000149123
0.594717 0.000299297 0.531004 0.000166969 0.746508 0.000134014
0.494291 0.000248756 0.439647 0.000138243 0.66397 0.000119197
0.391325 0.000196938 0.346786 0.000109044 0.581787 0.000104443
0.286819 0.000144344 0.253201 7.96167e-05 0.498638 8.9516e-05
0.181844 9.15144e-05 0.159652 5.0201e-05 0.41317 7.41728e-05
0.0774823 3.89937e-05 0.0668742 2.1028e-05 0.324089 5.81808e-05
-0.0217874 -1.09647e-05 -0.0343057 -1.07871e-05 0.229903 4.12724e-05
-0.114967 -5.78582e-05 -0.132786 -4.17533e-05 0.128135 2.30029e-05
-0.207521 -0.000104437 -0.230657 -7.2528e-05 0.0200488 3.59918e-06
-0.295423 -0.000148674 -0.325728 -0.000102422 -0.0910647 -1.6348e-05
-0.362302 -0.000182332 -0.417269 -0.000131206 -0.211548 -3.79774e-05
-0.42668 -0.00021473 -0.50239 -0.000157972 -0.335399 -6.02112e-05
-0.48308 -0.000243114 -0.581261 -0.000182772 -0.471147 -8.45809e-05
-0.532851 -0.000268162 -0.656998 -0.000206587 -0.608689 -0.000109273
-0.574232 -0.000288987 -0.726343 -0.000228392 -0.751818 -0.000134967
-0.608131 -0.000306047 -0.788999 -0.000248094 -0.898958 -0.000161382
-0.635192 -0.000319666 -0.844471 -0.000265536 -1.05169 -0.0001888
-0.655339 -0.000329805 -0.893486 -0.000280949 -1.20809 -0.000216879
-0.668944 -0.000336652 -0.936412 -0.000294446 -1.36515 -0.000245073
-0.67708 -0.000340746 -0.97306 -0.00030597 -1.51999 -0.00027287
-0.680704 -0.00034257 -1.00322 -0.000315455 -1.67113 -0.000300004
-0.680632 -0.000342534 -1.02715 -0.000322977 -1.81774 -0.000326324
-0.677906 -0.000341162 -1.04551 -0.000328752 -1.95808 -0.000351517
-0.673758 -0.000339075 -1.05891 -0.000332964 -2.08926 -0.000375067
-0.669332 -0.000336847 -1.06768 -0.000335722 -2.2083 -0.000396436
-0.665706 -0.000335022 -1.07222 -0.000337149 -2.31298 -0.00041523
-0.664005 -0.000334166 -1.07317 -0.000337449 -2.40186 -0.000431185
-0.665339 -0.000334837 -1.07131 -0.000336863 -2.47352 -0.000444049
-0.670694 -0.000337532 -1.06728 -0.000335596 -2.52621 -0.000453509
-0.680915 -0.000342676 -1.06166 -0.000333828 -2.55817 -0.000459246
-0.696717 -0.000350629 -1.05506 -0.000331753 -2.56812 -0.000461032
-0.71865 -0.000361667 -1.04806 -0.000329554 -2.55207 -0.000458151
-0.747103 -0.000375986 -1.04099 -0.000327329 -2.50995 -0.000450589
-0.782203 -0.000393651 -1.03443 -0.000325269 -2.44185 -0.000438363
-0.823976 -0.000414673 -1.02879 -0.000323493 -2.3484 -0.000421588
-0.87227 -0.000438977 -1.02448 -0.00032214 -2.23021 -0.000400369
-0.926778 -0.000466409 -1.02183 -0.000321306 -2.08875 -0.000374975
-0.987068 -0.000496751 -1.021 -0.000321044 -1.92653 -0.000345852
-1.05259 -0.000529724 -1.02205 -0.000321375 -1.74658 -0.000313548
-1.12267 -0.000564995 -1.02499 -0.000322299 -1.55208 -0.000278631
-1.19654 -0.000602168 -1.02977 -0.000323802 -1.34626 -0.000241682
-1.27329 -0.000640793 -1.03629 -0.000325851 -1.13262 -0.00020333
-1.35193 -0.000680372 -1.04436 -0.000328391 -0.9151 -0.00016428
-1.4314 -0.000720364 -1.05379 -0.000331354 -0.697892 -0.000125286
-1.51056 -0.000760204 -1.06433 -0.00033467 -0.485175 -8.70992e-05
-1.58829 -0.000799319 -1.07578 -0.00033827 -0.280905 -5.04285e-05
-1.66346 -0.000837149 -1.08792 -0.000342088 -0.0888234 -1.59457e-05
-1.73493 -0.000873119 -1.10109 -0.000346227 0.0501654 9.00576e-06
-1.80156 -0.000906648 -1.11607 -0.000350939 0.171992 3.08762e-05
-1.86309 -0.000937614 -1.13019 -0.000355379 0.276723 4.96777e-05
-1.91829 -0.000965394 -1.14459 -0.000359907 0.363135 6.51904e-05
-1.96693 -0.000989876 -1.15802 -0.000364129 0.426911 7.66396e-05
-2.00849 -0.00101079 -1.17116 -0.00036826 0.468445 8.40959e-05
-2.04277 -0.00102804 -1.1842 -0.00037236 0.488675 8.77276e-05
-2.06973 -0.00104161 -1.19715 -0.000376432 0.486633 8.73609e-05
-2.08949 -0.00105155 -1.2102 -0.000380537 0.459483 8.24869e-05
-2.10233 -0.00105802 -1.22355 -0.000384735 0.40665 7.30024e-05
-2.10872 -0.00106123 -1.23753 -0.000389131 0.329213 5.91008e-05
-2.10922 -0.00106148 -1.25255 -0.000393852 0.229095 4.11274e-05
-2.10455 -0.00105913 -1.26883 -0.000398972 0.108375 1.94556e-05
-2.09547 -0.00105456 -1.2867 -0.000404591 -0.0302259 -5.42619e-06
-2.08299 -0.00104828 -1.30603 -0.000410671 -0.197522 -3.54594e-05
-2.06818 -0.00104083 -1.3268 -0.000417199 -0.382771 -6.87155e-05
-2.05202 -0.0010327 -1.35076 -0.000424733 -0.579974 -0.000104118
-2.03598 -0.00102462 -1.3774 -0.000433113 -0.785155 -0.000140952
-2.02099 -0.00101708 -1.40759 -0.000442605 -0.994659 -0.000178562
-1.99982 -0.00100642 -1.44168 -0.000453322 -1.20729 -0.000216734
-1.97685 -0.000994869 -1.4825 -0.000466158 -1.41864 -0.000254676
-1.9618 -0.000987293 -1.52364 -0.000479096 -1.62995 -0.00029261
-1.95089 -0.000981802 -1.57004 -0.000493686 -1.83555 -0.00032952
-1.94566 -0.000979168 -1.61974 -0.000509313 -2.03311 -0.000364987
-1.94701 -0.000979847 -1.67264 -0.000525945 -2.2206 -0.000398645
-1.9552 -0.00098397 -1.72818 -0.00054341 -2.3967 -0.000430259
-1.97003 -0.000991437 -1.78611 -0.000561628 -2.56082 -0.000459721
-1.99148 -0.00100223 -1.84658 -0.000580639 -2.7113 -0.000486736
-2.01831 -0.00101573 -1.90924 -0.000600343 -2.84671 -0.000511044
-2.05019 -0.00103177 -1.97357 -0.000620572 -2.96623 -0.000532502
-2.08968 -0.00105165 -2.03688 -0.000640478 -3.07084 -0.000551282
-2.13044 -0.00107216 -2.10113 -0.000660681 -3.16056 -0.000567388
-2.17601 -0.0010951 -2.16527 -0.000680851 -3.23459 -0.000580678
-2.22365 -0.00111907 -2.229 -0.000700888 -3.29432 -0.0005914
-2.2785 -0.00114667 -2.49971 -0.00078601 -3.38074 -0.000606914
-2.00032 -0.00100668 -2.41717 -0.000760059 -3.13274 -0.000562394
-1.94634 -0.000979513 -1.72312 -0.000541821 -3.13049 -0.000561989
-2.17377 -0.00109397 -2.02102 -0.000635491 -3.1244 -0.000560897
-2.27741 -0.00114613 -2.50285 -0.000787 -3.25056 -0.000583544
-2.22571 -0.00112011 -2.67091 -0.000839843 -3.24878 -0.000583225
-2.26008 -0.0011374 -2.48494 -0.000781366 -3.10788 -0.00055793
-2.35745 -0.00118641 -2.35157 -0.000739429 -3.02526 -0.000543099
-2.40116 -0.0012084 -2.49957 -0.000785967 -3.05881 -0.000549121
-2.42405 -0.00121993 -2.75329 -0.000865746 -3.11379 -0.000558991
-2.47694 -0.00124654 -2.87062 -0.000902641 -3.08401 -0.000553645
-2.52703 -0.00127175 -2.83526 -0.00089152 -3.01871 -0.000541923
-2.54796 -0.00128228 -2.81588 -0.000885429 -3.01479 -0.000541219
-2.56735 -0.00129204 -2.91153 -0.000915503 -3.0891 -0.000554559
-2.59805 -0.00130749 -3.05093 -0.000959338 -3.17976 -0.000570834
-2.61997 -0.00131852 -3.12551 -0.000982788 -3.24444 -0.000582446
-2.62443 -0.00132077 -3.1333 -0.000985237 -3.30643 -0.000593574
-2.62077 -0.00131892 -3.10634 -0.000976761 -3.40616 -0.000611478
-2.60925 -0.00131313 -3.13239 -0.000984953 -3.53093 -0.000633877
-2.59689 -0.00130691 -3.17796 -0.000999281 -3.70527 -0.000665174
-2.57259 -0.00129468 -3.19887 -0.00100585 -3.87318 -0.000695318
-2.53679 -0.00127666 -3.19741 -0.0010054 -4.02958 -0.000723395
-2.4977 -0.00125699 -3.1989 -0.00100586 -4.0815 -0.000732716
-2.45082 -0.0012334 -3.20334 -0.00100726 -4.0731 -0.000731207
-2.39245 -0.00120402 -3.21293 -0.00101028 -4.05561 -0.000728068
-2.32832 -0.00117175 -3.19677 -0.0010052 -4.03049 -0.000723558
-2.26471 -0.00113974 -3.15956 -0.000993494 -4.02668 -0.000722874
-2.196 -0.00110516 -3.1359 -0.000986056 -4.03121 -0.000723687
-2.12101 -0.00106742 -3.11724 -0.000980188 -4.02247 -0.00072212
-2.0424 -0.00102786 -3.09214 -0.000972296 -3.99452 -0.000717102
-1.96244 -0.000987614 -3.05419 -0.000960363 -3.96224 -0.000711307
-1.88132 -0.000946789 -3.01185 -0.000947051 -3.9441 -0.00070805
-1.79873 -0.000905228 -2.97417 -0.0009352 -3.94004 -0.000707321
-1.71613 -0.000863658 -2.93935 -0.000924253 -3.93603 -0.000706601
-1.63395 -0.000822297 -2.90109 -0.000912222 -3.92094 -0.000703893
-1.55227 -0.000781194 -2.8579 -0.00089864 -3.8992 -0.000699989
-1.47178 -0.000740684 -2.81387 -0.000884795 -3.88246 -0.000696984
-1.39337 -0.000701224 -2.77233 -0.000871735 -3.87605 -0.000695833
-1.31745 -0.000663018 -2.73208 -0.000859079 -3.87492 -0.00069563
-1.24417 -0.000626137 -2.69035 -0.000845958 -3.86289 -0.000693471
-1.15735 -0.000582444 -2.63289 -0.00082789 -3.79454 -0.000681201
-1.07711 -0.000542066 -2.57119 -0.000808487 -3.67883 -0.000660427
-1.00349 -0.000505015 -2.50553 -0.00078784 -3.52731 -0.000633227
-0.936084 -0.000471092 -2.43403 -0.000765359 -3.3287 -0.000597572
-0.874108 -0.000439902 -2.35619 -0.000740882 -3.07815 -0.000552593
-0.816066 -0.000410692 -2.27277 -0.000714654 -2.78652 -0.000500239
-0.760236 -0.000382596 -2.18337 -0.000686542 -2.46703 -0.000442884
-0.704962 -0.000354778 -2.08692 -0.000656213 -2.12243 -0.000381022
-0.648711 -0.000326469 -1.98325 -0.000623614 -1.75321 -0.000314738
-0.622486 -0.000313272 -1.86097 -0.000585165 -1.37119 -0.000246158
-0.580205 -0.000291993 -1.7364 -0.000545996 -0.982307 -0.000176345
-0.544823 -0.000274187 -1.613 -0.000507194 -0.587705 -0.000105505
-0.498155 -0.000250701 -1.48099 -0.000465684 -0.199119 -3.57461e-05
-0.439431 -0.000221147 -1.34257 -0.000422159 0.0412998 7.41419e-06
-0.373842 -0.000188139 -1.21437 -0.000381847 0.202077 3.62771e-05
-0.30041 -0.000151184 -1.07784 -0.000338918 0.373111 6.69814e-05
-0.217066 -0.00010924 -0.940524 -0.000295739 0.546971 9.81929e-05
-0.130014 -6.54307e-05 -0.79386 -0.000249622 0.687871 0.000123488
-0.0340383 -1.71301e-05 -0.641432 -0.000201692 0.817082 0.000146684
0.0564247 2.83962e-05 -0.495172 -0.000155703 0.955661 0.000171561
0.148585 7.47767e-05 -0.343831 -0.000108114 1.09866 0.000197232
0.247852 0.000124734 -0.191711 -6.02817e-05 1.22709 0.000220288
0.348312 0.000175291 -0.0377673 -1.18756e-05 1.34148 0.000240824
0.453387 0.000228171 0.0882064 2.77357e-05 1.4469 0.000259749
0.566278 0.000284984 0.231281 7.27241e-05 1.56402 0.000280774
0.671814 0.000338096 0.36866 0.000115922 1.67679 0.00030102
0.784466 0.000394789 0.471115 0.000148138 1.76047 0.000316041
0.912678 0.000459313 0.63337 0.000199158 1.86631 0.000335043
1.0172 0.000511912 0.775111 0.000243727 1.97151 0.000353928
1.11365 0.000560455 0.875528 0.000275302 2.06508 0.000370726
1.20718 0.000607522 0.977189 0.000307268 2.16073 0.000387898
1.28333 0.000645849 1.08795 0.000342097 2.26445 0.000406517
1.34661 0.000677693 1.18112 0.000371391 2.36498 0.000424563
1.39967 0.000704397 1.25101 0.000393367 2.46155 0.000441901
1.43796 0.000723663 1.31368 0.000413076 2.562 0.000459934
1.46346 0.000736498 1.37202 0.00043142 2.66342 0.00047814
1.47846 0.000744049 1.41487 0.000444894 2.75876 0.000495257
1.4826 0.000746131 1.44146 0.000453253 2.84881 0.000511422
1.47773 0.000743678 1.45975 0.000459006 2.93585 0.000527048
1.46578 0.000737666 1.47038 0.000462348 3.01616 0.000541465
1.44794 0.000728689 1.46904 0.000461928 3.08519 0.000553857
1.42628 0.000717789 1.45787 0.000458415 3.14204 0.000564062
1.40333 0.000706237 1.44104 0.000453122 3.18701 0.000572136
1.38106 0.00069503 1.41848 0.000446029 3.20302 0.000575011
1.36193 0.000685403 1.38762 0.000436323 3.21091 0.000576426
1.34728 0.000678029 1.35603 0.00042639 3.20142 0.000574722
1.34004 0.000674388 1.32203 0.000415701 3.14451 0.000564506
1.3414 0.000675073 1.28472 0.000403968 3.05141 0.000547794
1.3521 0.000680457 1.24365 0.000391055 2.93101 0.000526178
1.37305 0.000690997 1.20246 0.000378102 2.77315 0.00049784
1.40334 0.000706245 1.1599 0.00036472 2.57316 0.000461936
1.44208 0.000725738 1.11825 0.000351622 2.33958 0.000420005
1.49104 0.000750378 1.07609 0.000338367 2.08446 0.000374205
1.54772 0.000778903 1.03552 0.000325609 1.81015 0.00032496
1.61101 0.000810755 0.997038 0.00031351 1.51698 0.000272331
1.67938 0.000845162 0.960937 0.000302158 1.21137 0.000217467
1.75069 0.000881049 0.927177 0.000291542 0.904467 0.000162371
1.82287 0.000917377 0.896315 0.000281838 0.604147 0.000108457
1.89389 0.000953119 0.868726 0.000273163 0.314506 5.64606e-05
1.96153 0.000987158 0.844413 0.000265518 0.0406144 7.29114e-06
2.02318 0.00101818 0.827602 0.000260232 -0.0948055 -1.70196e-05
2.07637 0.00104495 0.822409 0.000258599 -0.229934 -4.12781e-05
2.1224 0.00106812 0.816091 0.000256612 -0.350286 -6.28838e-05
2.15766 0.00108586 0.809845 0.000254649 -0.433203 -7.77692e-05
2.18252 0.00109837 0.803717 0.000252722 -0.479885 -8.61496e-05
2.19502 0.00110466 0.800614 0.000251746 -0.513957 -9.22662e-05
2.19283 0.00110356 0.79947 0.000251386 -0.536306 -9.62783e-05
2.17585 0.00109502 0.79821 0.00025099 -0.510892 -9.1716e-05
2.14392 0.00107894 0.79992 0.000251528 -0.426449 -7.65567e-05
2.09779 0.00105573 0.804616 0.000253004 -0.297327 -5.33765e-05
2.03892 0.0010261 0.81181 0.000255266 -0.131492 -2.36056e-05
1.96927 0.00099105 0.820429 0.000257976 0.0542912 9.74643e-06
1.8912 0.000951761 0.82806 0.000260376 0.24341 4.36973e-05
1.80662 0.000909199 0.838227 0.000263573 0.451132 8.09877e-05
1.71846 0.000864829 0.849671 0.000267171 0.673566 0.000120919
1.62858 0.000819596 0.86359 0.000271548 0.900362 0.000161634
1.53913 0.00077458 0.879075 0.000276417 1.13521 0.000203794
1.45152 0.000730491 0.896547 0.000281911 1.37358 0.000246586
1.36681 0.00068786 0.916434 0.000288164 1.6056 0.00028824
1.28584 0.000647112 0.938834 0.000295208 1.82294 0.000327256
1.20939 0.000608634 0.963438 0.000302945 2.02362 0.000363283
1.13812 0.000572766 0.989857 0.000311252 2.20608 0.000396038
1.07246 0.000539723 1.01764 0.000319987 2.36578 0.000424708
1.01237 0.000509485 1.0461 0.000328937 2.49794 0.000448433
0.957364 0.000481802 1.07428 0.000337797 2.60123 0.000466977
0.906541 0.000456225 1.10102 0.000346205 2.67644 0.000480479
0.858634 0.000432115 1.12507 0.000353769 2.72372 0.000488966
0.811978 0.000408635 1.1451 0.000360066 2.74267 0.000492368
0.76453 0.000384756 1.15961 0.000364629 2.73185 0.000490425
0.714053 0.000359354 1.16676 0.000366876 2.69271 0.000483399
0.658352 0.000331321 1.16506 0.000366344 2.62884 0.000471932
0.595702 0.000299792 1.15301 0.000362553 2.54274 0.000456477
0.536953 0.000270226 1.12703 0.000354384 2.43724 0.000437537
0.50026 0.00025176 1.07916 0.000339333 2.32245 0.000416929
0.449358 0.000226143 1.02875 0.00032348 2.18615 0.000392461
0.387581 0.000195054 0.959538 0.000301718 2.04178 0.000366543
0.314003 0.000158025 0.877359 0.000275878 1.88495 0.000338389
0.232514 0.000117015 0.785156 0.000246885 1.71759 0.000308344
0.140755 7.08359e-05 0.681544 0.000214305 1.54065 0.000276579
0.0483618 2.43385e-05 0.566034 0.000177984 1.3543 0.000243126
-0.053663 -2.70064e-05 0.443715 0.000139522 1.157 0.000207706
-0.156512 -7.87659e-05 0.309441 9.7301e-05 0.953327 0.000171143
-0.256639 -0.000129156 0.172346 5.41927e-05 0.738838 0.000132637
-0.358705 -0.000180522 0.0312381 9.82254e-06 0.516848 9.27851e-05
-0.456523 -0.000229749 -0.137103 -4.31108e-05 0.284752 5.1119e-05
-0.532866 -0.000268169 -0.288883 -9.08367e-05 0.0504941 9.06477e-06
-0.601728 -0.000302825 -0.413096 -0.000129894 -0.135556 -2.43351e-05
-0.676511 -0.00034046 -0.544433 -0.000171192 -0.288922 -5.18677e-05
-0.742575 -0.000373707 -0.700192 -0.000220169 -0.459395 -8.24712e-05
-0.802258 -0.000403743 -0.836516 -0.000263035 -0.631448 -0.000113358
-0.859463 -0.000432532 -0.96077 -0.000302105 -0.785246 -0.000140968
-0.912403 -0.000459175 -1.08744 -0.000341935 -0.952279 -0.000170954
-0.960372 -0.000483315 -1.21648 -0.000382512 -1.13803 -0.0002043
-1.00461 -0.000505581 -1.3337 -0.00041937 -1.32714 -0.000238251
-1.0433 -0.000525052 -1.44023 -0.000452867 -1.50976 -0.000271034
-1.06964 -0.000538305 -1.54723 -0.000486513 -1.69221 -0.000303788
-1.09304 -0.000550079 -1.64962 -0.000518709 -1.87993 -0.000337488
-1.10966 -0.000558448 -1.74324 -0.000548145 -2.06856 -0.000371351
-1.12168 -0.000564497 -1.828 -0.000574797 -2.2503 -0.000403977
-1.13043 -0.000568901 -1.90775 -0.000599874 -2.42408 -0.000435174
-1.13576 -0.000571583 -1.98149 -0.000623063 -2.59186 -0.000465294
-1.13828 -0.00057285 -2.04709 -0.00064369 -2.75184 -0.000494013
-1.13892 -0.000573169 -2.10512 -0.000661935 -2.89982 -0.000520579
-1.13814 -0.000572776 -2.15718 -0.000678304 -3.03289 -0.000544468
-1.13645 -0.000571929 -2.20302 -0.00069272 -3.15044 -0.000565571
-1.13434 -0.000570867 -2.24176 -0.0007049 -3.25196 -0.000583796
-1.13212 -0.000569748 -2.27366 -0.000714931 -3.33578 -0.000598844
-1.12992 -0.000568642 -2.29943 -0.000723035 -3.39991 -0.000610356
-1.12485 -0.00056609 -2.31968 -0.000729404 -3.44351 -0.000618183
-1.11642 -0.00056185 -2.33316 -0.00073364 -3.46655 -0.00062232
-1.10506 -0.000556132 -2.33949 -0.000735631 -3.4645 -0.000621952
-1.09187 -0.000549494 -2.33762 -0.000735045 -3.42225 -0.000614368
-1.0776 -0.00054231 -2.3268 -0.000731641 -3.34238 -0.000600029
-1.06262 -0.000534775 -2.30634 -0.000725209 -3.22734 -0.000579376
-1.04633 -0.000526573 -2.27521 -0.000715419 -3.07712 -0.000552408
-1.02861 -0.000517654 -2.23186 -0.00070179 -2.89442 -0.00051961
-1.00954 -0.000508062 -2.17654 -0.000684393 -2.68464 -0.000481951
-0.991221 -0.000498841 -2.11022 -0.00066354 -2.45426 -0.000440592
-0.972811 -0.000489576 -2.04107 -0.000641795 -2.20628 -0.000396074
-0.949764 -0.000477977 -1.95934 -0.000616097 -1.94145 -0.000348531
-0.923267 -0.000464642 -1.86291 -0.000585775 -1.6633 -0.000298598
-0.894623 -0.000450227 -1.75993 -0.000553394 -1.3786 -0.000247487
-0.862033 -0.000433826 -1.65283 -0.000519719 -1.08971 -0.000195627
-0.825462 -0.000415421 -1.53608 -0.000483005 -0.796698 -0.000143024
-0.785817 -0.000395469 -1.40987 -0.000443322 -0.502265 -9.01672e-05
-0.743107 -0.000373975 -1.27951 -0.00040233 -0.210358 -3.77637e-05
-0.697572 -0.000351059 -1.14688 -0.000360627 0.00672713 1.20766e-06
-0.64813 -0.000326177 -1.02005 -0.000320746 0.143874 2.58284e-05
-0.597166 -0.000300529 -0.88662 -0.00027879 0.276826 4.96961e-05
-0.54389 -0.000273717 -0.757974 -0.000238338 0.424138 7.61418e-05
-0.489754 -0.000246473 -0.627825 -0.000197414 0.555482 9.97209e-05
-0.433602 -0.000218214 -0.498541 -0.000156762 0.675037 0.000121184
-0.376121 -0.000189286 -0.372581 -0.000117155 0.799875 0.000143595
-0.317495 -0.000159782 -0.252317 -7.93389e-05 0.93473 0.000167804
-0.257681 -0.00012968 -0.137082 -4.31042e-05 1.06724 0.000191592
-0.196017 -9.86473e-05 -0.0310227 -9.75482e-06 1.18887 0.000213427
-0.130763 -6.58077e-05 0.0653603 2.05519e-05 1.30955 0.000235092
-0.0657682 -3.30984e-05 0.154708 4.86466e-05 1.43439 0.000257504
-0.00188922 -9.50768e-07 0.233889 7.35443e-05 1.55645 0.000279416
0.0610672 3.07326e-05 0.306604 9.64089e-05 1.6712 0.000300016
0.121539 6.11658e-05 0.375415 0.000118046 1.78135 0.00031979
0.183677 9.24371e-05 0.432194 0.000135899 1.88557 0.000338499
0.24316 0.000122372 0.488031 0.000153457 1.98727 0.000356757
0.291699 0.0001468 0.557573 0.000175324 2.07511 0.000372526
0.339168 0.000170689 0.604308 0.000190019 2.1562 0.000387084
0.385471 0.000193992 0.646479 0.000203279 2.22394 0.000399244
0.434762 0.000218797 0.68979 0.000216898 2.2849 0.000410188
0.483096 0.000243122 0.729123 0.000229266 2.33435 0.000419065
0.532742 0.000268107 0.759484 0.000238813 2.37091 0.000425628
0.584803 0.000294307 0.785749 0.000247072 2.39569 0.000430078
0.638352 0.000321256 0.810432 0.000254833 2.40983 0.000432615
0.694009 0.000349266 0.831281 0.000261389 2.40863 0.0004324
0.752492 0.000378698 0.846276 0.000266104 2.38331 0.000427854
0.813431 0.000409366 0.857255 0.000269556 2.33714 0.000419567
0.876958 0.000441336 0.865433 0.000272127 2.27175 0.000407827
0.942999 0.000474572 0.870221 0.000273633 2.1862 0.00039247
1.01105 0.000508818 0.871454 0.000274021 2.08223 0.000373805
1.08062 0.000543834 0.870292 0.000273655 1.9642 0.000352615
1.15116 0.00057933 0.867376 0.000272738 1.83563 0.000329535
1.22182 0.000614891 0.862651 0.000271253 1.69853 0.000304923
1.29172 0.000650071 0.856487 0.000269315 1.55545 0.000279236
1.35992 0.000684392 0.849644 0.000267163 1.41034 0.000253186
1.42546 0.000717376 0.842534 0.000264927 1.26718 0.000227487
1.48754 0.00074862 0.835308 0.000262655 1.12904 0.000202687
1.54552 0.000777794 0.828304 0.000260453 0.998714 0.00017929
42.8658 0.144482 0.667084 0.000209759 0.943578 0.000169392
8.93253 0.363981 0.351098 0.0001104 1.1429 0.000205175
3.46683 0.40838 0.492651 0.00015491 0.82688 0.000148443
-3.34502 0.364345 0.380607 0.000119678 0.790887 0.000141981
2.48032 0.373836 0.414305 0.000130275 0.632029 0.000113463
8.93253 0.419589 0.440839 0.000138618 0.5344 9.59362e-05
4.00315 0.423299 0.474019 0.000149051 0.395563 7.10119e-05
5.64 0.424122 0.460413 0.000144773 0.297449 5.33985e-05
8.93253 0.441167 0.520515 0.000163671 0.195632 3.51202e-05
8.93253 0.466965 0.526195 0.000165457 0.17474 3.13696e-05
8.93253 0.474207 0.589618 0.0001854 0.10068 1.80741e-05
8.93253 0.484271 0.610814 0.000192065 0.0804776 1.44474e-05
8.93253 0.502783 0.645437 0.000202952 0.102485 1.83982e-05
8.93253 0.518127 0.687434 0.000216157 0.170117 3.05396e-05
8.93253 0.52462 0.732456 0.000230314 0.237334 4.26066e-05
8.93253 0.530438 0.76937 0.000241922 0.329484 5.91493e-05
8.93253 0.538747 0.809306 0.000254479 0.46319 8.31525e-05
8.93253 0.54354 0.856093 0.000269191 0.626477 0.000112466
8.42334 0.543546 0.900746 0.000283232 0.805221 0.000144554
8.05297 0.543359 0.940208 0.00029564 1.00185 0.000179854
7.25304 0.542957 0.984714 0.000309634 1.21816 0.000218686
5.27815 0.541963 1.02586 0.000322572 1.45401 0.000261025
2.91719 0.540775 1.06458 0.000334746 1.69575 0.000304423
0.0933657 0.539353 1.10181 0.000346456 1.93805 0.000347922
-0.205118 0.535901 1.14055 0.000358637 2.17869 0.000391122
-0.617443 0.529055 1.1806 0.000371229 2.41253 0.0004331
-1.11091 0.520862 1.21681 0.000382613 2.56139 0.000459824
-1.54273 0.513692 1.24316 0.000390901 2.68001 0.000481118
-1.9468 0.506983 1.27368 0.000400496 2.78248 0.000499514
-2.36646 0.500015 1.29891 0.000408429 2.87538 0.000516191
-2.78247 0.493108 1.32255 0.000415863 2.95445 0.000530387
-3.15862 0.486863 1.34329 0.000422386 3.01888 0.000541952
-3.52965 0.480702 1.36231 0.000428365 3.0676 0.000550699
-3.92251 0.47418 1.37834 0.000433407 3.10063 0.000556628
-4.32511 0.467495 1.39102 0.000437392 3.11736 0.000559632
-4.73043 0.460765 1.39987 0.000440177 3.11489 0.000559189
-5.16614 0.453531 1.40355 0.000441335 3.0841 0.000553662
-5.64099 0.445647 1.40092 0.000440505 3.02621 0.000543269
-6.13583 0.437431 1.39059 0.000437258 2.94463 0.000528624
-6.58693 0.429941 1.3673 0.000429934 2.84216 0.000510228
-6.84345 0.425682 1.32136 0.00041549 2.72967 0.000490034
-7.19661 0.419818 1.28191 0.000403084 2.58788 0.000464579
-7.67727 0.411838 1.22523 0.000385262 2.43777 0.000437631
-8.25514 0.402243 1.16526 0.000366404 2.27141 0.000407766
-8.84285 0.392485 1.09653 0.000344795 2.09656 0.000376377
-9.51312 0.381356 1.02271 0.000321581 1.91049 0.000342974
-10.3128 0.368079 0.941956 0.00029619 1.71745 0.00030832
-11.1884 0.353541 0.854895 0.000268814 1.52087 0.000273029
-12.0748 0.338823 0.761075 0.000239313 1.32289 0.000237487
-12.9838 0.323731 0.662128 0.0002082 1.12271 0.000201551
-13.918 0.308221 0.557417 0.000175275 0.922309 0.000165574
-14.8419 0.29288 0.44853 0.000141036 0.723322 0.000129852
-15.7403 0.277965 0.338294 0.000106373 0.525739 9.43813e-05
-16.6777 0.262399 0.232329 7.30536e-05 0.325284 5.83954e-05
-17.5628 0.247705 0.121922 3.83372e-05 0.129086 2.31736e-05
-18.3534 0.234577 0.0163748 5.14892e-06 -0.0203856 -3.65966e-06
-19.035 0.22326 -0.0783417 -2.46338e-05 -0.149839 -2.68993e-05
-19.597 0.213929 -0.17497 -5.50177e-05 -0.268902 -4.82737e-05
-20.0326 0.206697 -0.267804 -8.42084e-05 -0.381968 -6.85714e-05
-20.3277 0.201798 -0.358127 -0.00011261 -0.484871 -8.70447e-05
-20.4359 0.200002 -0.426245 -0.000134029 -0.591649 -0.000106214
-20.1452 0.200098 -0.480582 -0.000151115 -0.706083 -0.000126757
-19.6262 0.200359 -0.533723 -0.000167824 -0.821336 -0.000147447
-18.5106 0.200921 -0.580405 -0.000182503 -0.927652 -0.000166533
-16.6343 0.201865 -0.607253 -0.000190945 -1.02935 -0.000184791
-14.2433 0.203068 -0.620542 -0.000195124 -1.13243 -0.000203295
-11.3655 0.204517 -0.62364 -0.000196098 -1.23138 -0.00022106
-7.99037 0.206215 -0.615866 -0.000193653 -1.31886 -0.000236763
-4.26708 0.208089 -0.594269 -0.000186863 -1.39229 -0.000249946
0.0122109 0.210693 -0.561444 -0.000176541 -1.45469 -0.000261147
0.150799 0.215868 -0.524185 -0.000164825 -1.50348 -0.000269907
0.388831 0.224757 -0.482012 -0.000151564 -1.53251 -0.000275119
0.687509 0.23591 -0.431945 -0.000135821 -1.53873 -0.000276235
0.9741 0.246612 -0.373188 -0.000117346 -1.51525 -0.00027202
1.21506 0.25561 -0.315908 -9.93346e-05 -1.4514 -0.000260556
1.43764 0.263922 -0.256236 -8.0571e-05 -1.33999 -0.000240557
1.66636 0.272463 -0.168756 -5.30637e-05 -1.17681 -0.000211263
1.83954 0.27893 -0.0843491 -2.65228e-05 -0.96889 -0.000173936
1.94035 0.282695 -0.00689485 -2.16802e-06 -0.71813 -0.00012892
2.00808 0.285224 0.0795239 2.50056e-05 -0.42163 -7.56915e-05
2.05302 0.286902 0.173895 5.46798e-05 -0.084139 -1.51047e-05
2.03171 0.287622 0.259806 8.16937e-05 0.201666 3.62034e-05
1.20307 0.287205 0.335936 0.000105632 0.422559 7.58584e-05
-0.00550731 0.286549 0.411212 0.000129302 0.684795 0.000122935
-0.272546 0.28413 0.488117 0.000153484 0.953286 0.000171135
-0.851423 0.278886 0.566163 0.000178025 1.21002 0.000217224
-1.54168 0.272633 0.638098 0.000200644 1.46409 0.000262836
-2.24113 0.266296 0.707798 0.000222561 1.72902 0.000310395
-3.0321 0.259131 0.77581 0.000243947 1.99342 0.000357862
-3.93216 0.250977 0.840161 0.000264181 2.23934 0.000402009
-4.8412 0.242742 0.899903 0.000282966 2.4641 0.000442358
-5.74358 0.234567 0.956187 0.000300665 2.67453 0.000480135
-6.69712 0.225928 1.00893 0.000317249 2.86812 0.000514889
-7.68724 0.216959 1.05652 0.000332212 3.03548 0.000544933
-8.60722 0.208624 1.09604 0.000344641 3.17214 0.000569467
-9.24814 0.202818 1.11775 0.000351467 3.19021 0.000572711
-9.85126 0.197354 1.13047 0.000355466 3.18922 0.000572533
-10.4751 0.191703 1.13554 0.000357062 3.21275 0.000576757
-11.0706 0.186308 1.13432 0.000356677 3.22274 0.000578551
-11.5734 0.181753 1.13127 0.000355717 3.19109 0.000572868
-12.0764 0.177196 1.12356 0.000353294 3.11814 0.000559773
-12.5176 0.173199 1.09589 0.000344593 3.03227 0.000544357
-12.9726 0.169078 1.06082 0.000333565 2.9096 0.000522334
-13.3988 0.165217 1.01476 0.000319081 2.73354 0.000490729
-13.8134 0.161461 0.957698 0.000301139 2.51574 0.000451628
-14.2369 0.157624 0.888696 0.000279443 2.27803 0.000408956
-14.6816 0.153595 0.809661 0.000254591 2.02175 0.000362947
-15.1511 0.149342 0.721681 0.000226926 1.7369 0.000311811
-15.6479 0.144842 0.624719 0.000196437 1.42633 0.000256057
-16.1283 0.140489 0.517661 0.000162774 1.10471 0.00019832
-16.6015 0.136203 0.404448 0.000127175 0.777686 0.000139611
-17.0838 0.131833 0.285284 8.9705e-05 0.444149 7.97342e-05
-17.5969 0.127185 0.162421 5.10719e-05 0.103442 1.857e-05
-18.1369 0.122293 0.0385967 1.21364e-05 -0.119294 -2.14158e-05
-18.732 0.116902 -0.0668169 -2.101e-05 -0.312836 -5.61608e-05
-19.3063 0.111699 -0.185616 -5.83653e-05 -0.507785 -9.11582e-05
-19.8535 0.106741 -0.297225 -9.34596e-05 -0.685559 -0.000123072
-20.399 0.1018 -0.418986 -0.000131746 -0.839933 -0.000150786
-20.8132 0.0980473 -0.519178 -0.000163251 -0.990646 -0.000177842
-21.2245 0.0943219 -0.600688 -0.000188881 -1.15287 -0.000206965
-21.7671 0.0894057 -0.694179 -0.000218278 -1.31287 -0.000235687
-22.3694 0.0839495 -0.789732 -0.000248324 -1.4526 -0.000260772
-22.8877 0.0792544 -0.870585 -0.000273748 -1.57529 -0.000282799
-23.3828 0.074769 -0.939244 -0.000295337 -1.69519 -0.000304322
-23.9461 0.0696659 -1.00802 -0.000316964 -1.81244 -0.000325371
-24.5314 0.0643633 -1.07526 -0.000338107 -1.91349 -0.000343513
-25.0759 0.0594309 -1.1319 -0.000355916 -1.99443 -0.000358043
-25.6178 0.0545219 -1.17811 -0.000370448 -2.0638 -0.000370496
-26.1965 0.0492789 -1.22042 -0.000383751 -2.12577 -0.00038162
-26.7866 0.0439331 -1.25836 -0.000395681 -2.17401 -0.000390281
-27.3559 0.0387761 -1.28757 -0.000404865 -2.20345 -0.000395566
-27.9153 0.0337081 -1.30818 -0.000411345 -2.21763 -0.000398112
-28.4784 0.0286069 -1.32329 -0.000416098 -2.21534 -0.0003977
-29.0372 0.0235451 -1.33155 -0.000418695 -2.18578 -0.000392395
-29.5854 0.018578 -1.3293 -0.000417985 -2.12764 -0.000381957
-30.1087 0.013838 -1.31864 -0.000414635 -2.04154 -0.0003665
-30.639 0.0090333 -1.30065 -0.000408979 -1.93152 -0.000346749
-31.1606 0.00430865 -1.27687 -0.000401501 -1.79951 -0.000323051
-31.4929 0.00129831 -1.24595 -0.000391776 -1.64575 -0.000295446
-31.5105 0.00113829 -1.21557 -0.000382226 -1.46692 -0.000263343
-31.5301 0.000960526 -1.16798 -0.000367261 -1.28211 -0.000230166
-31.5446 0.000829679 -1.12571 -0.000353968 -1.08139 -0.000194133
-31.5505 0.000775689 -1.07597 -0.00033833 -0.876993 -0.000157439
-31.5531 0.000752445 -1.01657 -0.000319651 -0.665857 -0.000119535
-31.5547 0.0007384 -0.952524 -0.000299512 -0.453744 -8.14567e-05
-31.5279 0.000751871 -0.887742 -0.000279143 -0.244478 -4.38891e-05
-31.4504 0.000790876 -0.818854 -0.000257481 -0.0533626 -9.57972e-06
-31.3199 0.000856563 -0.749338 -0.000235623 0.05936 1.06564e-05
-31.0913 0.000971607 -0.6778 -0.000213128 0.159885 2.87028e-05
-30.7048 0.00116611 -0.607844 -0.000191131 0.269343 4.83528e-05
-30.0349 0.00150321 -0.535435 -0.000168363 0.366028 6.57098e-05
-28.8446 0.00210224 -0.461506 -0.000145116 0.451795 8.11068e-05
-27.2176 0.00292108 -0.388713 -0.000122227 0.535818 9.61908e-05
-25.5153 0.00377774 -0.31835 -0.000100102 0.622217 0.000111701
-23.8623 0.00460967 -0.249883 -7.85735e-05 0.704203 0.00012642
-22.2883 0.00540178 -0.183518 -5.77056e-05 0.777586 0.000139593
-20.8727 0.00611419 -0.120877 -3.80087e-05 0.845896 0.000151856
-19.6746 0.00671716 -0.0632017 -1.98732e-05 0.913621 0.000164014
-18.734 0.00719049 -0.0118076 -3.71278e-06 0.979255 0.000175797
-18.1171 0.00750098 0.0300829 9.45931e-06 1.03892 0.000186508
-17.8284 0.00764627 0.0662954 2.0846e-05 1.09382 0.000196365
-17.9057 0.00760738 0.0963654 3.03012e-05 1.14553 0.000205648
-18.3469 0.00738531 0.119963 3.77211e-05 1.1948 0.000214491
-19.1493 0.00698152 0.13719 4.31383e-05 1.23958 0.00022253
-20.2939 0.00640547 0.147609 4.64144e-05 1.27855 0.000229527
-21.785 0.00565507 0.151484 4.76329e-05 1.31246 0.000235615
-23.6173 0.00473294 0.146672 4.61197e-05 1.34062 0.000240669
-25.7946 0.00363719 0.133027 4.18292e-05 1.36209 0.000244525
-28.1819 0.00243577 0.112592 3.54035e-05 1.3755 0.000246931
-30.1629 0.00143884 0.0841233 2.64518e-05 1.38028 0.00024779
-31.0922 0.000971137 0.0435985 1.37092e-05 1.37304 0.000246489
-31.5357 0.000747963 -0.00360902 -1.13482e-06 1.34862 0.000242107
-31.5706 0.000594336 -0.0566509 -1.78134e-05 1.30481 0.000234241
-31.5817 0.000493739 -0.115998 -3.64747e-05 1.24291 0.000223128
-31.5894 0.000423938 -0.173735 -5.46295e-05 1.16078 0.000208385
-31.5954 0.000369075 -0.231595 -7.2823e-05 1.05855 0.000190033
-31.6006 0.00032193 -0.295571 -9.29397e-05 0.93439 0.000167743
-31.6051 0.000281256 -0.365519 -0.000114934 0.789701 0.000141768
-31.6092 0.000244193 -0.435877 -0.000137058 0.626016 0.000112383
-31.6129 0.000211119 -0.504716 -0.000158703 0.444196 7.97427e-05
-31.6164 0.000179417 -0.575901 -0.000181087 0.246385 4.42314e-05
-31.6187 0.000157922 -0.654003 -0.000205645 0.0369709 6.63706e-06
-31.6213 0.000134688 -0.730391 -0.000229665 -0.132704 -2.38232e-05
-31.6238 0.000111633 -0.796966 -0.000250599 -0.291768 -5.23786e-05
-31.6262 8.98828e-05 -0.870508 -0.000273723 -0.454444 -8.15823e-05
-31.6287 6.74026e-05 -0.942319 -0.000296304 -0.612412 -0.000109941
-31.6311 4.60605e-05 -1.01715 -0.000319832 -0.757114 -0.000135918
-31.6334 2.47018e-05 -1.09122 -0.000343123 -0.905391 -0.000162537
-31.6357 3.92367e-06 -1.16636 -0.000366751 -1.05992 -0.000190279
-31.638 -1.63344e-05 -1.24243 -0.000390671 -1.20944 -0.000217121
-31.6401 -3.60143e-05 -1.31942 -0.000414881 -1.34564 -0.000241572
-31.6423 -5.52169e-05 -1.39657 -0.000439139 -1.47369 -0.00026456
-31.6442 -7.27231e-05 -1.47426 -0.000463568 -1.59861 -0.000286985
-31.6459 -8.80359e-05 -1.55258 -0.000488196 -1.71709 -0.000308254
-31.6473 -0.000100928 -1.62941 -0.000512352 -1.82416 -0.000327475
-31.6485 -0.000111873 -1.70452 -0.000535971 -1.91988 -0.000344659
-31.6495 -0.000121223 -1.77725 -0.00055884 -2.00854 -0.000360576
-31.6504 -0.000128995 -1.84641 -0.000580587 -2.09115 -0.000375406
-31.6511 -0.00013534 -1.91071 -0.000600806 -2.16563 -0.000388776
-31.6517 -0.000140466 -1.96929 -0.000619226 -2.23135 -0.000400576
-31.6521 -0.000144498 -2.02132 -0.000635587 -2.29041 -0.000411177
-31.6525 -0.000147565 -2.06584 -0.000649585 -2.34439 -0.000420867
-31.6527 -0.000149764 -2.10206 -0.000660973 -2.39281 -0.000429559
-31.6528 -0.000151086 -2.12958 -0.000669627 -2.43476 -0.000437091
-31.6529 -0.000151473 -2.14818 -0.000675475 -2.47043 -0.000443495
-31.6517 -0.000150907 -2.15765 -0.000678455 -2.50032 -0.000448861
-31.6483 -0.000149192 -2.15874 -0.000678795 -2.52457 -0.000453214
-31.6408 -0.000145429 -2.14931 -0.000675832 -2.54073 -0.000456116
-31.6305 -0.000140211 -2.1284 -0.000669257 -2.54786 -0.000457396
-31.6209 -0.000135381 -2.09785 -0.000659651 -2.54452 -0.000456796
-31.6147 -0.00013227 -2.06817 -0.000650317 -2.52784 -0.000453801
-31.6065 -0.000128154 -2.03179 -0.000638878 -2.49161 -0.000447297
-31.5979 -0.000123814 -1.98316 -0.000623588 -2.43315 -0.000436801
-31.5917 -0.000120679 -1.92956 -0.000606733 -2.35306 -0.000422425
-31.5867 -0.000118166 -1.87688 -0.000590168 -2.25139 -0.000404172
-31.5838 -0.000116712 -1.82073 -0.000572512 -2.12598 -0.000381658
-31.5826 -0.000116107 -1.75569 -0.00055206 -1.97737 -0.000354981
-31.5687 -0.000109144 -1.69354 -0.000532518 -1.80406 -0.000323868
-31.5658 -0.000107677 -1.63141 -0.000512983 -1.61237 -0.000289454
-31.5629 -0.000106187 -1.56987 -0.000493632 -1.40286 -0.000251844
-31.5636 -0.000106553 -1.50578 -0.000473478 -1.17739 -0.000211367
-31.5693 -0.000109419 -1.44195 -0.000453408 -0.939243 -0.000168614
-31.577 -0.000113298 -1.37973 -0.000433843 -0.694198 -0.000124623
-31.5868 -0.000118232 -1.31884 -0.000414698 -0.444718 -7.98363e-05
-31.5981 -0.000123939 -1.25883 -0.000395829 -0.194169 -3.48574e-05
-31.6094 -0.000129584 -1.20154 -0.000377814 -0.0266625 -4.78649e-06
-31.6172 -0.000133524 -1.15556 -0.000363356 0.0794428 1.42617e-05
-31.6242 -0.000137044 -1.10901 -0.00034872 0.191701 3.44144e-05
-31.6257 -0.000137802 -1.06761 -0.000335702 0.303386 5.44642e-05
-31.6223 -0.000136105 -1.02576 -0.000322542 0.390922 7.01787e-05
-31.6131 -0.000131468 -0.986624 -0.000310235 0.465457 8.35595e-05
-31.5979 -0.000123833 -0.950689 -0.000298936 0.539238 9.68047e-05
-31.576 -0.000112793 -0.917328 -0.000288446 0.609669 0.000109449
-31.5461 -9.77709e-05 -0.885336 -0.000278386 0.663876 0.00011918
-31.507 -7.80721e-05 -0.855084 -0.000268873 0.700337 0.000125725
-31.4571 -5.29741e-05 -0.827048 -0.000260058 0.726748 0.000130467
-31.3945 -2.14711e-05 -0.800985 -0.000251862 0.746004 0.000133924
-31.3162 1.79591e-05 -0.776433 -0.000244142 0.750437 0.000134719
-31.2173 6.77027e-05 -0.754075 -0.000237112 0.728985 0.000130868
-31.0908 0.000131363 -0.733928 -0.000230777 0.686693 0.000123276
-30.9242 0.000215205 -0.715739 -0.000225058 0.628068 0.000112752
-30.6914 0.000332367 -0.698822 -0.000219738 0.552103 9.91143e-05
-30.3219 0.000518323 -0.682749 -0.000214684 0.458459 8.23031e-05
-29.4928 0.000935579 -0.667312 -0.00020983 0.351496 6.3101e-05
-25.2716 0.00305993 -0.654225 -0.000205715 0.237594 4.26531e-05
-17.5038 0.00696916 -0.643034 -0.000202196 0.120792 2.16847e-05
-11.2551 0.0101138 -0.617249 -0.000194088 -0.000183859 -3.30066e-08
-4.93227 0.0132959 -0.595738 -0.000187324 -0.102068 -1.83234e-05
0.0355332 0.0178786 -0.576785 -0.000181365 -0.198773 -3.5684e-05
0.191351 0.0270893 -0.561712 -0.000176625 -0.282211 -5.06628e-05
0.446518 0.0421729 -0.549565 -0.000172806 -0.344709 -6.18826e-05
0.756199 0.0604789 -0.539494 -0.000169639 -0.397413 -7.1344e-05
1.05718 0.0782707 -0.526735 -0.000165627 -0.445191 -7.99213e-05
1.33172 0.0944994 -0.511005 -0.000160681 -0.481123 -8.63719e-05
1.59986 0.11035 -0.492379 -0.000154824 -0.499443 -8.96607e-05
1.86845 0.126227 -0.469119 -0.00014751 -0.501559 -9.00406e-05
2.12142 0.14118 -0.440983 -0.000138663 -0.487717 -8.75557e-05
2.35047 0.15472 -0.408849 -0.000128559 -0.45243 -8.12207e-05
2.5656 0.167437 -0.372919 -0.000117261 -0.391914 -7.03569e-05
2.77408 0.179761 -0.331527 -0.000104246 -0.306117 -5.49545e-05
2.97121 0.191414 -0.284718 -8.95272e-05 -0.197228 -3.54066e-05
3.15451 0.202249 -0.235943 -7.41901e-05 -0.0671501 -1.20549e-05
3.33111 0.212688 -0.188594 -5.93017e-05 0.0782277 1.40435e-05
3.5085 0.223174 -0.139993 -4.40196e-05 0.183106 3.28714e-05
3.69137 0.233984 -0.0922507 -2.90074e-05 0.272081 4.88444e-05
3.89068 0.245766 -0.0406938 -1.27958e-05 0.379373 6.81055e-05
4.11975 0.259306 0.0238415 7.49674e-06 0.503107 9.03185e-05
4.34289 0.272497 0.0821681 2.5837e-05 0.622745 0.000111796
4.55725 0.285168 0.137239 4.31537e-05 0.736467 0.000132212
4.7847 0.298613 0.200543 6.3059e-05 0.85952 0.000154302
5.03055 0.313146 0.26838 8.43898e-05 0.991721 0.000178035
5.27911 0.327839 0.33411 0.000105058 1.12142 0.000201319
5.52723 0.342506 0.400118 0.000125814 1.24505 0.000223512
5.7865 0.357832 0.470215 0.000147855 1.36745 0.000245486
6.06032 0.374019 0.541868 0.000170386 1.49017 0.000267517
6.34208 0.390674 0.612126 0.000192478 1.60917 0.000288881
6.63103 0.407754 0.681981 0.000214443 1.72155 0.000309055
6.93332 0.425624 0.752339 0.000236566 1.82798 0.000328161
7.25013 0.444351 0.821609 0.000258347 1.92954 0.000346393
7.57684 0.463663 0.888458 0.000279367 2.02551 0.000363621
7.91176 0.483462 0.953185 0.00029972 2.11442 0.000379584
8.25686 0.503861 1.01589 0.000319439 2.19578 0.000394189
8.61099 0.524795 1.07582 0.000338281 2.26998 0.00040751
8.93253 0.545981 1.13254 0.000356116 2.33728 0.000419592
8.93253 0.568093 1.18475 0.000372535 2.39772 0.000430443
8.93253 0.59097 1.23316 0.000387757 2.4512 0.000440043
8.93253 0.613376 1.27954 0.00040234 2.49607 0.000448098
8.93253 0.634697 1.32239 0.000415814 2.53409 0.000454924
8.93253 0.655372 1.36197 0.000428258 2.56495 0.000460462
8.93253 0.676356 1.39665 0.000439163 2.58979 0.000464922
8.93253 0.697336 1.42671 0.000448615 2.60878 0.000468331
8.93253 0.717271 1.45346 0.000457027 2.62125 0.00047057
8.93253 0.736049 1.47562 0.000463996 2.62878 0.000471922
8.93253 0.754139 1.49361 0.000469653 2.62936 0.000472026
8.93253 0.771155 1.50773 0.000474091 2.62254 0.000470801
8.93253 0.786562 1.51852 0.000477485 2.60793 0.000468179
8.93253 0.800718 1.5249 0.000479491 2.58743 0.000464499
8.93253 0.814031 1.52788 0.000480427 2.56087 0.000459731
8.93253 0.826243 1.52765 0.000480355 2.5293 0.000454062
8.93253 0.836845 1.52495 0.000479508 2.49294 0.000447536
8.93253 0.844184 1.52603 0.000479845 2.45106 0.000440018
8.93253 0.851269 1.52333 0.000478999 2.40654 0.000432026
8.93253 0.857426 1.51681 0.000476946 2.36137 0.000423916
8.93253 0.861216 1.511 0.000475119 2.30978 0.000414654
8.93253 0.86388 1.50094 0.000471958 2.25775 0.000405313
8.93253 0.865966 1.48957 0.00046838 2.20528 0.000395895
8.93253 0.866998 1.47663 0.000464312 2.15356 0.00038661
8.38561 0.866723 1.46264 0.000459915 2.1016 0.000377281
7.61196 0.866333 1.44521 0.000454432 2.05259 0.000368484
6.5278 0.865788 1.42732 0.000448808 2.006 0.00036012
4.93834 0.864988 1.40672 0.000442331 1.96436 0.000352645
3.02231 0.864023 1.38427 0.000435272 1.92615 0.000345784
0.652633 0.862831 1.36022 0.00042771 1.89174 0.000339607
-0.094476 0.860022 1.33626 0.000420175 1.86059 0.000334016
-0.340242 0.85357 1.31502 0.000413496 1.83071 0.000328651
-0.717441 0.843668 1.29501 0.000407205 1.80278 0.000323638
-1.15322 0.832228 1.27484 0.000400863 1.77809 0.000319206
-1.62568 0.819825 1.25512 0.00039466 1.75638 0.000315307
-2.17359 0.805441 1.23604 0.000388662 1.73722 0.000311868
-2.81086 0.788712 1.21694 0.000382655 1.72074 0.00030891
-3.5151 0.770224 1.19746 0.000376531 1.70728 0.000306493
-4.2793 0.750163 1.17723 0.000370168 1.69696 0.000304641
-5.11594 0.728199 1.15553 0.000363347 1.68959 0.000303317
-6.02965 0.704212 1.13161 0.000355825 1.68516 0.000302521
-7.00848 0.678516 1.10488 0.000347419 1.68348 0.000302221
-8.04215 0.651381 1.07447 0.000337858 1.68447 0.000302398
-9.13392 0.622719 1.04024 0.000327093 1.68677 0.000302811
-10.2864 0.592464 1.00155 0.000314929 1.68954 0.000303309
-11.4954 0.560725 0.958196 0.000301296 1.69154 0.000303667
-12.7554 0.527649 0.909936 0.000286121 1.69133 0.000303631
-14.0641 0.493294 0.856586 0.000269346 1.68713 0.000302876
-15.4183 0.457743 0.797972 0.000250915 1.67711 0.000301077
-16.8125 0.421143 0.734106 0.000230833 1.65944 0.000297904
-18.2391 0.383692 0.667056 0.00020975 1.63151 0.00029289
-19.6743 0.346014 0.601562 0.000189156 1.5882 0.000285115
-21.0526 0.30983 0.52201 0.000164141 1.53926 0.00027633
-22.4568 0.272969 0.445045 0.00013994 1.46752 0.00026345
-23.8601 0.236129 0.360341 0.000113306 1.37993 0.000247727
-25.1931 0.201136 0.268069 8.42918e-05 1.27432 0.000228767
-26.4995 0.16684 0.174969 5.50176e-05 1.14781 0.000206056
-27.7482 0.134059 0.0732992 2.30483e-05 1.00141 0.000179774
-28.913 0.103482 -0.0285847 -8.9882e-06 0.83829 0.000150491
-30.0237 0.0743233 -0.139638 -4.39078e-05 0.65381 0.000117373
-31.0567 0.0472047 -0.24317 -7.64626e-05 0.453899 8.14846e-05
-31.9833 0.0228787 -0.333043 -0.000104722 0.242238 4.34869e-05
-32.8216 0.000873225 -0.428695 -0.000134799 0.010275 1.84459e-06
-32.8353 0.000512611 -0.599367 -0.000188465 -0.175821 -3.15637e-05
-32.8423 0.000330024 -0.685554 -0.000215566 -0.322794 -5.79483e-05
-32.8481 0.000177262 -0.809302 -0.000254478 -0.472185 -8.47672e-05
-32.8521 7.08088e-05 -0.93254 -0.000293229 -0.64853 -0.000116425
-32.8548 1.84215e-06 -1.05913 -0.000333034 -0.810961 -0.000145585
-32.8576 -7.29027e-05 -1.17279 -0.000368772 -0.965698 -0.000173363
-32.8602 -0.000139602 -1.28885 -0.000405266 -1.13663 -0.00020405
-32.8623 -0.000195547 -1.41077 -0.000443605 -1.32318 -0.000237539
-32.8645 -0.000252858 -1.53381 -0.000482293 -1.49963 -0.000269215
-32.8666 -0.000309156 -1.65391 -0.000520057 -1.66647 -0.000299167
-32.8686 -0.00036222 -1.77623 -0.000558521 -1.8368 -0.000329744
-32.6686 -0.0003781 -1.94694 -0.000612197 -1.8305 -0.000328614
-32.3016 -0.000193419 -2.2498 -0.000707428 -2.28735 -0.000410629
-32.8159 -0.000452248 -2.41655 -0.000759862 -2.30586 -0.000413951
-32.8376 -0.000500237 -2.46416 -0.000774832 -2.30238 -0.000413326
-32.7664 -0.000464402 -2.56093 -0.000805261 -2.35669 -0.000423076
-32.8772 -0.000586388 -2.84465 -0.000894475 -2.14292 -0.0003847
-32.8806 -0.000675922 -3.03978 -0.000955831 -2.44935 -0.00043971
-32.8818 -0.000707492 -3.17568 -0.000998563 -2.70567 -0.000485726
-32.8849 -0.000789502 -3.37348 -0.00106076 -2.75102 -0.000493867
-32.8857 -0.000810026 -3.54607 -0.00111503 -2.60703 -0.000468017
-32.8784 -0.000808896 -3.65928 -0.00115063 -2.67687 -0.000480556
-32.8859 -0.000814955 -3.67524 -0.00115565 -2.79877 -0.000502439
-32.8865 -0.000832192 -3.66572 -0.00115265 -2.8208 -0.000506393
-32.8869 -0.000841873 -3.66206 -0.0011515 -2.76266 -0.000495957
-32.8873 -0.000851335 -3.64588 -0.00114642 -2.70785 -0.000486117
-32.8878 -0.000865933 -3.61134 -0.00113555 -2.85188 -0.000511973
-22.3518 0.00442953 -3.59457 -0.00113028 -3.04244 -0.000546182
-30.0247 0.000568084 -2.35252 -0.000739729 -3.66909 -0.000658679
-7.58858 0.0159601 -3.7839 -0.00118981 -2.68332 -0.000481714
-19.7785 0.000482714 -3.24222 -0.00101949 -3.36545 -0.00060417
-19.929 0.000328722 -3.27363 -0.00102936 -3.27766 -0.00058841
-19.8862 0.000350259 -3.40593 -0.00107096 -3.46817 -0.00062261
-19.9493 0.000302966 -3.4027 -0.00106995 -3.56674 -0.000640305
-19.9894 0.00025219 -3.24807 -0.00102133 -3.60806 -0.000647723
-19.9995 0.000239406 -3.17286 -0.000997676 -3.75955 -0.00067492
-20.022 0.000210932 -3.19188 -0.00100366 -4.01877 -0.000721454
-20.0487 0.000177006 -3.1788 -0.000999544 -4.13256 -0.000741883
-20.064 0.000157625 -3.1097 -0.000977817 -4.19837 -0.000753697
-20.0796 0.00013795 -3.0638 -0.000963384 -4.36829 -0.000784201
-20.0985 0.000113943 -3.05932 -0.000961977 -4.61464 -0.000828426
-20.1063 0.000104154 -3.05744 -0.000961384 -4.84412 -0.000869622
-20.1129 9.57476e-05 -3.04366 -0.000957052 -4.96395 -0.000891135
-20.1218 8.44892e-05 -3.02964 -0.000952642 -4.91934 -0.000883127
-20.1262 7.89398e-05 -2.95792 -0.00093009 -5.03484 -0.000903861
-19.1351 0.000575783 -0.0207132 -6.51307e-06 -4.2201 -0.000757597
-17.2767 0.00151102 0.162051 5.09555e-05 -3.52036 -0.00063198
-19.9192 0.000136745 0.130618 4.10717e-05 -5.11479 -0.000918213
-19.9686 0.000111863 -0.0569568 -1.79096e-05 -4.98875 -0.000895586
-20.1353 2.79894e-05 0.0262315 8.24826e-06 -4.76591 -0.000855583
-20.1156 3.78794e-05 -0.160872 -5.05847e-05 -4.83091 -0.00086725
-20.0799 5.58453e-05 -0.222901 -7.00893e-05 -5.12627 -0.000920274
-20.1024 4.45155e-05 -0.119656 -3.76249e-05 -5.15549 -0.000925521
-20.0995 4.59966e-05 -0.103442 -3.25265e-05 -4.90309 -0.000880209
-20.0865 5.25221e-05 -0.191674 -6.02703e-05 -4.81159 -0.000863783
-20.0876 5.19649e-05 -0.233159 -7.33148e-05 -4.95151 -0.000888902
-20.0828 5.44101e-05 -0.208725 -6.56316e-05 -1.22716 -0.000220301
-20.0819 5.48656e-05 -0.203189 -6.38909e-05 -1.47997 -0.000265686
-19.9268 0.00013292 -0.300317 -9.44319e-05 -1.57057 -0.000281951
-20.0686 6.15394e-05 -0.308991 -9.71595e-05 -1.34327 -0.000241146
-20.0619 6.49062e-05 -0.289974 -9.11796e-05 -1.12917 -0.000202709
-20.0318 8.00778e-05 -0.325178 -0.000102249 -1.12769 -0.000202445
-20.0527 6.95716e-05 -0.375033 -0.000117926 -1.26466 -0.000227034
-20.0455 7.31865e-05 -0.393228 -0.000123647 -1.25662 -0.00022559
-20.0276 8.21906e-05 -0.405619 -0.000127543 -1.09195 -0.000196028
-20.0303 8.08478e-05 -0.429447 -0.000135036 -0.978558 -0.000175672
-20.0341 7.89103e-05 -0.454781 -0.000143002 -1.01021 -0.000181354
-20.025 8.34978e-05 -0.477838 -0.000150252 -1.04223 -0.000187102
-20.0247 8.36454e-05 -0.496449 -0.000156104 -0.972855 -0.000174648
-20.0333 7.93191e-05 -0.509422 -0.000160183 -0.873511 -0.000156814
-20.0339 7.89948e-05 -0.52319 -0.000164512 -0.838776 -0.000150578
-20.037 7.74543e-05 -0.540672 -0.00017001 -0.84583 -0.000151845
-20.0465 7.26819e-05 -0.552679 -0.000173785 -0.827103 -0.000148483
-20.0549 6.84406e-05 -0.557542 -0.000175314 -0.7739 -0.000138932
-20.0623 6.46956e-05 -0.564372 -0.000177462 -0.72574 -0.000130286
-19.9822 0.000105048 -0.571453 -0.000179688 -0.708779 -0.000127241
-20.0017 9.51927e-05 -0.57483 -0.00018075 -0.702419 -0.000126099
-19.9579 0.000117252 -0.57541 -0.000180933 -0.677689 -0.00012166
