-0.0462321 -2.32667e-05 -0.119209 -3.74841e-05 -0.0358626 -6.43811e-06
-0.0459318 -2.31156e-05 -0.119269 -3.75029e-05 -0.0358442 -6.4348e-06
-0.045219 -2.27568e-05 -0.119415 -3.75491e-05 -0.0357717 -6.42179e-06
-0.0437378 -2.20114e-05 -0.119633 -3.76174e-05 -0.0356834 -6.40593e-06
-0.0420357 -2.11548e-05 -0.119844 -3.76838e-05 -0.0356265 -6.39572e-06
-0.0398224 -2.0041e-05 -0.120065 -3.77533e-05 -0.0356239 -6.39525e-06
-0.0370443 -1.86429e-05 -0.120256 -3.78134e-05 -0.0357021 -6.40929e-06
-0.0336422 -1.69307e-05 -0.120366 -3.78482e-05 -0.0359014 -6.44507e-06
-0.029552 -1.48723e-05 -0.12035 -3.78431e-05 -0.0362649 -6.51031e-06
-0.0247043 -1.24327e-05 -0.120164 -3.77846e-05 -0.0368339 -6.61246e-06
-0.0190326 -9.57833e-06 -0.119752 -3.76548e-05 -0.0376443 -6.75796e-06
-0.0124859 -6.28366e-06 -0.119043 -3.74321e-05 -0.0387258 -6.9521e-06
-0.00508344 -2.55829e-06 -0.117963 -3.70925e-05 -0.0401043 -7.19958e-06
0.00305249 1.53619e-06 -0.116467 -3.6622e-05 -0.0417734 -7.49921e-06
0.0119481 6.01299e-06 -0.114403 -3.5973e-05 -0.0437925 -7.86169e-06
0.0214295 1.07846e-05 -0.111703 -3.51241e-05 -0.0461262 -8.28064e-06
0.0313047 1.57544e-05 -0.108269 -3.40441e-05 -0.048748 -8.7513e-06
0.0413444 2.08069e-05 -0.104012 -3.27055e-05 -0.0515903 -9.26157e-06
0.0512894 2.58118e-05 -0.0988759 -3.10906e-05 -0.0545498 -9.79284e-06
0.0608759 3.06363e-05 -0.0928357 -2.91914e-05 -0.0574725 -1.03175e-05
0.0698362 3.51457e-05 -0.0858959 -2.70092e-05 -0.0601785 -1.08033e-05
0.0778599 3.91837e-05 -0.0780884 -2.45542e-05 -0.0624159 -1.1205e-05
0.0845742 4.25627e-05 -0.0694741 -2.18455e-05 -0.0638966 -1.14708e-05
0.0895328 4.50582e-05 -0.0603014 -1.89612e-05 -0.0643117 -1.15453e-05
0.0922135 4.64072e-05 -0.0510062 -1.60384e-05 -0.0633445 -1.13717e-05
0.0920514 4.63257e-05 -0.0414227 -1.3025e-05 -0.0606671 -1.0891e-05
0.0885631 4.45702e-05 -0.0317038 -9.96898e-06 -0.0559084 -1.00368e-05
0.0814744 4.10027e-05 -0.0220342 -6.92847e-06 -0.0486277 -8.72971e-06
0.0708744 3.56682e-05 -0.0128729 -4.04776e-06 -0.0383816 -6.89032e-06
0.0571458 2.87591e-05 -0.00467096 -1.46874e-06 -0.0247926 -4.4508e-06
0.040798 2.05319e-05 0.00211137 6.63902e-07 -0.00807126 -1.44896e-06
0.0220443 1.1094e-05 0.00697726 2.19394e-06 0.0121393 2.17927e-06
0.00179529 9.03494e-07 0.00963755 3.03044e-06 0.03616 6.49149e-06
-0.0196128 -9.8703e-06 0.00976271 3.0698e-06 0.0637956 1.14527e-05
-0.0417946 -2.10335e-05 0.00714738 2.24743e-06 0.0947727 1.70137e-05
-0.0645077 -3.24641e-05 0.00175354 5.51384e-07 0.128557 2.30788e-05
-0.0876885 -4.413e-05 -0.00636604 -2.00174e-06 0.164437 2.952e-05
-0.111236 -5.59803e-05 -0.0171172 -5.38235e-06 0.201525 3.61781e-05
-0.134911 -6.78953e-05 -0.0303213 -9.53427e-06 0.238714 4.28543e-05
-0.15863 -7.98322e-05 -0.0470943 -1.48084e-05 0.274717 4.93176e-05
-0.182242 -9.17148e-05 -0.0658774 -2.07145e-05 0.308581 5.53969e-05
-0.205459 -0.000103399 -0.0862018 -2.71054e-05 0.338979 6.0854e-05
-0.227881 -0.000114683 -0.107645 -3.38481e-05 0.364698 6.5471e-05
-0.249007 -0.000125315 -0.129821 -4.08211e-05 0.38458 6.90402e-05
-0.268277 -0.000135013 -0.152329 -4.78986e-05 0.397583 7.13746e-05
-0.285197 -0.000143528 -0.174752 -5.49491e-05 0.402755 7.23032e-05
-0.299565 -0.000150759 -0.196675 -6.18425e-05 0.39924 7.1672e-05
-0.311497 -0.000156763 -0.217799 -6.84849e-05 0.386329 6.93542e-05
-0.321412 -0.000161753 -0.237504 -7.4681e-05 0.363567 6.52681e-05
-0.33009 -0.000166121 -0.255273 -8.02682e-05 0.330692 5.93662e-05
-0.340886 -0.000171554 -0.274288 -8.62474e-05 0.275348 4.94309e-05
-0.354014 -0.000178161 -0.289433 -9.10097e-05 0.204756 3.6758e-05
-0.372071 -0.000187248 -0.300572 -9.45121e-05 0.120397 2.16138e-05
-0.397239 -0.000199914 -0.308115 -9.68841e-05 0.0246092 4.41788e-06
-0.430938 -0.000216873 -0.313249 -9.84982e-05 -0.0834306 -1.49776e-05
-0.47366 -0.000238374 -0.317698 -9.98972e-05 -0.199148 -3.57513e-05
-0.524817 -0.000264119 -0.323616 -0.000101758 -0.315414 -5.66235e-05
-0.58281 -0.000293304 -0.333399 -0.000104834 -0.427321 -7.67131e-05
-0.645555 -0.000324881 -0.349585 -0.000109924 -0.53022 -9.51857e-05
-0.711284 -0.00035796 -0.374326 -0.000117703 -0.620975 -0.000111478
-0.77898 -0.000392028 -0.409057 -0.000128624 -0.697172 -0.000125157
-0.848285 -0.000426907 -0.454526 -0.000142922 -0.757442 -0.000135977
-0.919191 -0.000462591 -0.510801 -0.000160617 -0.801753 -0.000143932
-0.991772 -0.000499118 -0.57726 -0.000181514 -0.831548 -0.000149281
-1.0659 -0.000536424 -0.652688 -0.000205232 -0.849496 -0.000152503
-1.14092 -0.000574177 -0.735486 -0.000231267 -0.859006 -0.00015421
-1.21568 -0.0006118 -0.823741 -0.000259018 -0.864179 -0.000155138
-1.28901 -0.000648704 -0.915216 -0.000287781 -0.869665 -0.000156123
-1.36012 -0.00068449 -1.00742 -0.000316775 -0.880463 -0.000158062
-1.42864 -0.000718974 -1.0978 -0.000345195 -0.901417 -0.000161823
-1.49435 -0.000752044 -1.18394 -0.00037228 -0.936867 -0.000168188
-1.55672 -0.000783432 -1.26377 -0.000397381 -0.990341 -0.000177787
-1.61467 -0.000812597 -1.33574 -0.000420011 -1.06434 -0.000191071
-1.66695 -0.000838907 -1.39882 -0.000439848 -1.16013 -0.000208268
-1.7126 -0.000861881 -1.45246 -0.000456712 -1.27776 -0.000229385
-1.75108 -0.000881246 -1.49653 -0.000470572 -1.41599 -0.0002542
-1.78229 -0.000896954 -1.53136 -0.000481521 -1.57243 -0.000282285
-1.80657 -0.000909173 -1.55758 -0.000489768 -1.74365 -0.000313022
-1.82467 -0.000918283 -1.57619 -0.000495617 -1.92527 -0.000345627
-1.83767 -0.000924824 -1.5884 -0.000499458 -2.11221 -0.000379187
-1.8468 -0.00092942 -1.59566 -0.00050174 -2.29892 -0.000412705
-1.8534 -0.000932741 -1.59949 -0.000502946 -2.47961 -0.000445142
-1.85894 -0.000935528 -1.60144 -0.00050356 -2.64856 -0.000475473
-1.8651 -0.000938625 -1.60295 -0.000504032 -2.80041 -0.000502733
-1.87369 -0.000942951 -1.60526 -0.00050476 -2.93035 -0.00052606
-1.88641 -0.000949351 -1.60948 -0.000506086 -3.03434 -0.000544728
-1.90427 -0.000958339 -1.61655 -0.000508309 -3.10922 -0.00055817
-1.92718 -0.000969868 -1.62732 -0.000511697 -3.15281 -0.000565996
-1.95391 -0.000983323 -1.64247 -0.000516459 -3.16405 -0.000568014
-1.98253 -0.000997725 -1.66232 -0.0005227 -3.14313 -0.000564259
-2.00527 -0.00100917 -1.68152 -0.000528739 -3.10425 -0.000557279
-2.03159 -0.00102241 -1.70918 -0.000537436 -3.0303 -0.000544004
-2.05365 -0.00103352 -1.73981 -0.000547067 -2.93192 -0.000526342
-2.06967 -0.00104158 -1.77171 -0.000557099 -2.81416 -0.000505202
-2.07791 -0.00104572 -1.80281 -0.000566878 -2.68291 -0.000481639
-2.0765 -0.00104502 -1.83077 -0.000575668 -2.54452 -0.000456796
-2.06359 -0.00103852 -1.85308 -0.000582685 -2.40551 -0.00043184
-2.03735 -0.00102531 -1.86725 -0.000587139 -2.27218 -0.000407904
-1.99605 -0.00100453 -1.87091 -0.00058829 -2.15028 -0.000386022
-1.93819 -0.00097541 -1.86191 -0.000585462 -2.04471 -0.000367068
-1.8626 -0.000937369 -1.83843 -0.000578078 -1.95919 -0.000351717
-1.76848 -0.000890005 -1.79905 -0.000565695 -1.89613 -0.000340397
-1.65557 -0.00083318 -1.74281 -0.000548012 -1.85642 -0.000333266
-1.52448 -0.000767206 -1.66918 -0.000524858 -1.83938 -0.000330207
-1.37706 -0.000693019 -1.57799 -0.000496185 -1.84283 -0.000330827
-1.21628 -0.000612103 -1.46958 -0.000462098 -1.86308 -0.000334463
-1.04543 -0.000526119 -1.34492 -0.000422899 -1.89494 -0.000340182
-0.867812 -0.000436734 -1.20561 -0.000379092 -1.93186 -0.00034681
-0.68685 -0.000345663 -1.05378 -0.000331352 -1.96629 -0.00035299
-0.506052 -0.000254675 -0.892095 -0.000280511 -1.98997 -0.000357242
-0.328907 -0.000165525 -0.723584 -0.000227524 -1.99436 -0.00035803
-0.158628 -7.9831e-05 -0.55153 -0.000173424 -1.97102 -0.000353841
0.00224742 1.13104e-06 -0.379337 -0.000119279 -1.91205 -0.000343254
0.149763 7.53697e-05 -0.214344 -6.73987e-05 -1.81041 -0.000325008
0.284908 0.000143382 -0.0642585 -2.02055e-05 -1.66191 -0.000298349
0.408194 0.000205427 0.0776876 2.44282e-05 -1.4617 -0.000262407
0.518522 0.00026095 0.209917 6.60065e-05 -1.20808 -0.000216876
0.615137 0.000309573 0.330844 0.000104031 -0.902832 -0.000162078
0.697127 0.000350835 0.439619 0.000138234 -0.548772 -9.85162e-05
0.764148 0.000384564 0.537032 0.000168865 -0.151489 -2.71956e-05
0.817623 0.000411476 0.623386 0.000196018 0.264492 4.74819e-05
0.86008 0.000432843 0.699216 0.000219862 0.694734 0.00012472
0.894808 0.00045032 0.76577 0.00024079 1.14192 0.000204999
0.925378 0.000465705 0.824957 0.0002594 1.59454 0.000286255
0.955516 0.000480872 0.878408 0.000276208 2.04096 0.000366396
0.989173 0.00049781 0.927816 0.000291743 2.46916 0.000443267
1.03038 0.000518546 0.975394 0.000306704 2.86835 0.000514929
1.08293 0.000544994 1.02323 0.000321746 3.22902 0.000579677
1.14998 0.000578735 1.07319 0.000337454 3.54178 0.000635825
1.23353 0.000620783 1.12714 0.00035442 3.79833 0.000681881
1.33401 0.000671354 1.18699 0.000373238 3.99283 0.000716797
1.45025 0.000729852 1.2543 0.000394402 4.1216 0.000739915
1.57996 0.000795127 1.33008 0.00041823 4.18328 0.000750988
1.72031 0.00086576 1.41469 0.000444838 4.17876 0.000750176
1.86828 0.00094023 1.50778 0.000474108 4.11176 0.000738148
2.02091 0.00101704 1.60805 0.000505637 3.98874 0.000716064
2.1753 0.00109474 1.71338 0.000538756 3.81847 0.000685497
2.32867 0.00117192 1.821 0.000572597 3.61142 0.000648326
2.47843 0.00124729 1.92765 0.000606134 3.3794 0.000606674
2.62207 0.00131958 2.02979 0.00063825 3.13507 0.000562811
2.75701 0.00138749 2.12385 0.000667825 2.89119 0.00051903
2.88055 0.00144966 2.20651 0.000693816 2.65991 0.00047751
2.99015 0.00150482 2.27487 0.000715311 2.45221 0.000440223
3.08361 0.00155185 2.32658 0.000731571 2.27745 0.000408851
3.14807 0.00158429 2.36047 0.000742228 2.14333 0.000384774
3.19828 0.00160956 2.37711 0.000747462 2.0552 0.000368953
3.23495 0.00162802 2.37873 0.000747971 2.01198 0.000361193
3.23844 0.00162977 2.35509 0.000740536 2.01864 0.000362388
3.23039 0.00162572 2.31677 0.000728489 2.06498 0.000370707
3.19791 0.00160938 2.2697 0.000713686 2.14768 0.000385554
3.10638 0.00156331 2.22034 0.000698166 2.25548 0.000404906
3.00338 0.00151148 2.14988 0.000676011 2.3998 0.000430815
2.89265 0.00145575 2.08016 0.000654087 2.5541 0.000458514
2.77233 0.0013952 2.0037 0.000630046 2.72046 0.000488381
2.64694 0.00133209 1.9221 0.000604387 2.88794 0.000518446
2.52489 0.00127067 1.84032 0.000578671 3.04724 0.000547045
2.40787 0.00121178 1.76094 0.000553713 3.1893 0.000572547
2.30065 0.00115782 1.68519 0.000529893 3.30495 0.000593308
2.20813 0.00111126 1.61487 0.00050778 3.3875 0.000608128
2.133 0.00107345 1.55223 0.000488084 3.43184 0.000616088
2.07795 0.00104575 1.4992 0.000471409 3.43298 0.000616294
2.04535 0.00102934 1.45665 0.000458031 3.3875 0.000608128
2.036 0.00102463 1.42514 0.000448121 3.29496 0.000591515
2.05011 0.00103174 1.40543 0.000441926 3.15705 0.000566758
2.08712 0.00105036 1.39776 0.000439512 2.97668 0.000534377
2.14413 0.00107905 1.40175 0.000440767 2.75831 0.000495175
2.20758 0.00111098 1.41965 0.000446395 2.50701 0.000450062
2.27477 0.0011448 1.44856 0.000455487 2.23207 0.000400704
2.342 0.00117863 1.48718 0.00046763 1.94339 0.000348881
2.40659 0.00121114 1.53293 0.000482017 1.6521 0.000296587
2.45443 0.00123521 1.57242 0.000494432 1.42487 0.000255795
2.49742 0.00125685 1.6124 0.000507004 1.2095 0.000217131
2.53432 0.00127542 1.65121 0.000519207 1.01192 0.00018166
2.56386 0.00129028 1.68727 0.000530546 0.8376 0.000150367
2.58485 0.00130085 1.71902 0.00054053 0.691335 0.000124109
2.59627 0.00130659 1.74499 0.000548697 0.577182 0.000103616
2.59715 0.00130704 1.764 0.000554673 0.498443 8.9481e-05
2.58656 0.00130171 1.7752 0.000558196 0.457503 8.21315e-05
2.56354 0.00129012 1.77811 0.00055911 0.455643 8.17976e-05
2.52712 0.00127179 1.77249 0.000557344 0.492976 8.84997e-05
2.4764 0.00124627 1.7584 0.000552913 0.568526 0.000102063
2.41076 0.00121323 1.73615 0.000545916 0.680354 0.000122138
2.33006 0.00117262 1.70623 0.000536509 0.825657 0.000148223
2.23484 0.0011247 1.66926 0.000524885 1.00081 0.000179666
2.12632 0.00107009 1.62591 0.000511252 1.20144 0.000215684
2.00633 0.0010097 1.57686 0.000495831 1.42256 0.00025538
1.87699 0.000944611 1.52293 0.000478872 1.65868 0.000297768
1.74048 0.000875914 1.46502 0.000460662 1.90392 0.000341793
1.59889 0.000804654 1.40409 0.000441505 2.15211 0.00038635
1.45417 0.000731824 1.34117 0.000421719 2.39697 0.000430307
1.30828 0.000658401 1.27724 0.000401615 2.63223 0.000472542
1.16312 0.000585349 1.21325 0.000381495 2.85185 0.000511967
1.02053 0.000513589 1.15009 0.000361635 3.05011 0.00054756
0.882147 0.000443948 1.08853 0.00034228 3.22181 0.000578383
0.749383 0.000377133 1.02923 0.000323633 3.36231 0.000603607
0.6234 0.000313732 0.972678 0.00030585 3.46771 0.000622528
0.505144 0.000254218 0.919191 0.000289031 3.53489 0.000634587
0.395345 0.000198961 0.868909 0.000273221 3.56159 0.000639382
0.2945 0.00014821 0.821778 0.000258401 3.5465 0.000636672
0.202876 0.000102099 0.777546 0.000244492 3.48919 0.000626383
0.120504 6.06447e-05 0.73578 0.000231359 3.39016 0.000608606
0.0471791 2.37433e-05 0.695889 0.000218816 3.25079 0.000583585
-0.0175189 -8.81653e-06 0.657141 0.000206632 3.07326 0.000551715
-0.0743889 -3.74369e-05 0.618675 0.000194537 2.8605 0.000513521
-0.110827 -5.57745e-05 0.577003 0.000181433 2.61656 0.000469729
-0.124723 -6.2768e-05 0.525832 0.000165343 2.35102 0.000422059
-0.135978 -6.8432e-05 0.482574 0.000151741 2.05501 0.000368919
-0.142696 -7.18128e-05 0.432323 0.00013594 1.74251 0.000312818
-0.148819 -7.48943e-05 0.379273 0.000119259 1.41399 0.000253841
-0.153815 -7.74086e-05 0.322886 0.000101529 1.07533 0.000193045
-0.158955 -7.99954e-05 0.264341 8.31195e-05 0.730657 0.000131169
-0.167212 -8.41508e-05 0.202424 6.36503e-05 0.384441 6.90154e-05
-0.180428 -9.0802e-05 0.135882 4.27269e-05 0.0415844 7.46528e-06
-0.199478 -0.000100389 0.0647305 2.03539e-05 -0.31228 -5.60608e-05
-0.225658 -0.000113565 -0.0104801 -3.29538e-06 -0.656663 -0.000117885
-0.260449 -0.000131073 -0.0899499 -2.8284e-05 -0.98538 -0.000176897
-0.304713 -0.000153349 -0.17462 -5.49077e-05 -1.29449 -0.000232388
-0.358555 -0.000180446 -0.265838 -8.35903e-05 -1.57968 -0.000283587
-0.422353 -0.000212553 -0.363016 -0.000114147 -1.83944 -0.000330219
-0.496097 -0.000249665 -0.465011 -0.000146219 -2.07212 -0.00037199
-0.579511 -0.000291644 -0.570655 -0.000179437 -2.27664 -0.000408706
-0.672232 -0.000338307 -0.679414 -0.000213636 -2.45211 -0.000440206
-0.773815 -0.000389429 -0.791139 -0.000248767 -2.59844 -0.000466476
-0.883529 -0.000444644 -0.905401 -0.000284695 -2.71631 -0.000487636
-1.00037 -0.000503447 -1.02123 -0.000321116 -2.80708 -0.00050393
-1.12312 -0.000565222 -1.13753 -0.000357687 -2.87259 -0.000515691
-1.25032 -0.000629235 -1.25349 -0.000394148 -2.91507 -0.000523317
-1.38029 -0.000694643 -1.3684 -0.00043028 -2.93705 -0.000527262
-1.51123 -0.000760539 -1.48141 -0.000465815 -2.94135 -0.000528034
-1.64128 -0.000825989 -1.59148 -0.000500427 -2.93112 -0.000526199
-1.76855 -0.00089004 -1.69758 -0.000533788 -2.90977 -0.000522366
-1.89115 -0.000951737 -1.79878 -0.00056561 -2.88078 -0.000517162
-2.00725 -0.00101017 -1.89423 -0.000595624 -2.84756 -0.000511198
-2.11517 -0.00106448 -1.98304 -0.000623548 -2.81337 -0.00050506
-2.21339 -0.00111391 -2.06427 -0.000649092 -2.78131 -0.000499305
-2.3006 -0.00115779 -2.13709 -0.000671989 -2.7543 -0.000494456
-2.37573 -0.00119561 -2.20075 -0.000692007 -2.73496 -0.000490983
-2.43802 -0.00122695 -2.25461 -0.000708943 -2.72544 -0.000489275
-2.48698 -0.0012516 -2.29811 -0.000722622 -2.72741 -0.000489628
-2.52245 -0.00126944 -2.3308 -0.000732899 -2.74198 -0.000492243
-2.54448 -0.00128053 -2.35238 -0.000739684 -2.76973 -0.000497226
-2.5534 -0.00128502 -2.36275 -0.000742947 -2.81068 -0.000504577
-2.54971 -0.00128316 -2.362 -0.000742711 -2.86422 -0.000514188
-2.53422 -0.00127537 -2.35037 -0.000739052 -2.92914 -0.000525843
-2.5082 -0.00126227 -2.3283 -0.000732112 -3.00363 -0.000539215
-2.47296 -0.00124454 -2.29638 -0.000722075 -3.08538 -0.000553892
-2.42998 -0.00122291 -2.25535 -0.000709175 -3.17166 -0.00056938
-2.38098 -0.00119825 -2.20621 -0.000693722 -3.25925 -0.000585106
-2.32773 -0.00117145 -2.15005 -0.000676065 -3.34468 -0.000600441
-2.27192 -0.00114336 -2.08812 -0.000656592 -3.42423 -0.000614722
-2.21523 -0.00111483 -2.02176 -0.000635725 -3.49412 -0.000627269
-2.15939 -0.00108673 -1.95239 -0.000613912 -3.5506 -0.000637407
-2.1061 -0.00105991 -1.88144 -0.000591601 -3.59005 -0.00064449
-2.05697 -0.00103519 -1.81031 -0.000569236 -3.60916 -0.000647921
-2.01355 -0.00101333 -1.74038 -0.000547247 -3.60499 -0.000647173
-1.97719 -0.000995039 -1.67294 -0.00052604 -3.57509 -0.000641805
-1.94907 -0.000980886 -1.60917 -0.000505989 -3.51757 -0.00063148
-1.93011 -0.000971344 -1.55013 -0.000487426 -3.43123 -0.000615978
-1.92104 -0.000966779 -1.49672 -0.000470631 -3.31553 -0.000595208
-1.92238 -0.000967455 -1.44965 -0.00045583 -3.17072 -0.000569212
-1.93449 -0.000973547 -1.40944 -0.000443186 -2.99782 -0.000538173
-1.95608 -0.000984412 -1.37669 -0.000432889 -2.79855 -0.0005024
-1.98018 -0.000996541 -1.35523 -0.000426141 -2.5735 -0.000461999
-2.01974 -0.00101645 -1.3385 -0.000420879 -2.32865 -0.000418042
-2.06794 -0.00104071 -1.32852 -0.00041774 -2.06838 -0.000371319
-2.12544 -0.00106965 -1.32536 -0.000416746 -1.79497 -0.000322236
-2.19156 -0.00110292 -1.32715 -0.00041731 -1.51502 -0.000271978
-2.26281 -0.00113878 -1.33513 -0.00041982 -1.23181 -0.000221136
-2.33758 -0.00117641 -1.3479 -0.000423836 -0.95193 -0.000170892
-2.41037 -0.00121304 -1.3663 -0.00042962 -0.680242 -0.000122118
-2.48115 -0.00124866 -1.38896 -0.000436746 -0.422172 -7.57889e-05
-2.54598 -0.00128129 -1.4149 -0.000444902 -0.182827 -3.28214e-05
-2.60285 -0.00130991 -1.4432 -0.000453802 0.0251072 4.50728e-06
-2.65024 -0.00133376 -1.47346 -0.000463316 0.20024 3.59473e-05
-2.68563 -0.00135157 -1.50441 -0.000473047 0.343793 6.17181e-05
-2.70668 -0.00136216 -1.53489 -0.000482633 0.452071 8.11564e-05
-2.71203 -0.00136485 -1.56375 -0.000491708 0.522715 9.38384e-05
-2.70137 -0.00135949 -1.59001 -0.000499963 0.553254 9.93208e-05
-2.67414 -0.00134578 -1.61255 -0.000507053 0.541483 9.72078e-05
-2.63012 -0.00132363 -1.63026 -0.000512619 0.486115 8.72679e-05
-2.56979 -0.00129327 -1.64219 -0.000516372 0.387283 6.95255e-05
-2.49391 -0.00125508 -1.6476 -0.000518073 0.246252 4.42074e-05
-2.40333 -0.0012095 -1.64591 -0.000517541 0.065054 1.16786e-05
-2.2993 -0.00115714 -1.63694 -0.000514721 -0.160914 -2.88874e-05
-2.18362 -0.00109892 -1.62041 -0.000509523 -0.430173 -7.72252e-05
-2.05832 -0.00103587 -1.59636 -0.000501962 -0.730882 -0.000131209
-1.92564 -0.000969093 -1.56496 -0.000492088 -1.0563 -0.000189629
-1.7878 -0.000899724 -1.52685 -0.000480103 -1.3997 -0.000251276
-1.64698 -0.000828857 -1.48291 -0.000466289 -1.75424 -0.000314923
-1.50529 -0.000757548 -1.4342 -0.00045097 -2.1127 -0.000379275
-1.36473 -0.000686813 -1.38183 -0.000434503 -2.46724 -0.000442923
-1.22723 -0.000617613 -1.32711 -0.000417298 -2.80963 -0.000504388
-1.09452 -0.000550825 -1.27149 -0.000399807 -3.13178 -0.000562222
-0.968178 -0.000487244 -1.21637 -0.000382476 -3.42625 -0.000615085
-0.849651 -0.000427594 -1.16305 -0.000365711 -3.6863 -0.000661768
-0.740268 -0.000372546 -1.11267 -0.000349868 -3.90587 -0.000701187
-0.641194 -0.000322687 -1.06619 -0.000335255 -4.07966 -0.000732385
-0.553327 -0.000278467 -1.02443 -0.000322122 -4.20329 -0.00075458
-0.477207 -0.000240158 -0.987921 -0.000310643 -4.27357 -0.000767197
-0.413008 -0.00020785 -0.956949 -0.000300904 -4.28862 -0.000769898
-0.36056 -0.000181455 -0.931495 -0.0002929 -4.24785 -0.000762579
-0.319369 -0.000160725 -0.911272 -0.000286541 -4.15186 -0.000745348
-0.288631 -0.000145256 -0.895726 -0.000281653 -4.00245 -0.000718525
-0.267243 -0.000134493 -0.884032 -0.000277976 -3.80255 -0.000682639
-0.253815 -0.000127735 -0.875116 -0.000275172 -3.55623 -0.000638419
-0.246664 -0.000124136 -0.867704 -0.000272842 -3.26856 -0.000586777
-0.243833 -0.000122711 -0.860378 -0.000270538 -2.94542 -0.000528765
-0.243115 -0.00012235 -0.851615 -0.000267783 -2.59328 -0.000465549
-0.242114 -0.000121846 -0.839829 -0.000264077 -2.21908 -0.000398371
-0.267373 -0.000134558 -0.815852 -0.000256537 -1.8323 -0.000328937
-0.285592 -0.000143727 -0.785367 -0.000246951 -1.44185 -0.000258843
-0.300952 -0.000151457 -0.753138 -0.000236818 -1.04357 -0.000187343
-0.307228 -0.000154615 -0.708901 -0.000222907 -0.654986 -0.000117584
-0.302164 -0.000152067 -0.656086 -0.0002063 -0.275279 -4.94184e-05
-0.285693 -0.000143778 -0.593815 -0.00018672 0.0766218 1.37552e-05
-0.256725 -0.000129199 -0.523096 -0.000164483 0.395203 7.09473e-05
-0.214656 -0.000108027 -0.441805 -0.000138922 0.689906 0.000123853
-0.159309 -8.01738e-05 -0.349291 -0.000109831 0.957813 0.000171948
-0.0904447 -4.55171e-05 -0.246009 -7.73554e-05 1.19714 0.000214912
-0.00865119 -4.35379e-06 -0.132911 -4.17926e-05 1.40528 0.000252278
0.0855283 4.30429e-05 -0.0106789 -3.3579e-06 1.58165 0.00028394
0.191593 9.64206e-05 0.11831 3.72014e-05 1.72594 0.000309844
0.308322 0.000155166 0.250335 7.87156e-05 1.84012 0.00033034
0.43379 0.000218309 0.385196 0.000121121 1.92693 0.000345926
0.566413 0.000285052 0.523936 0.000164747 1.98909 0.000357084
0.704065 0.000354327 0.664889 0.000209068 2.02945 0.000364329
0.844064 0.000424783 0.806774 0.000253683 2.05209 0.000368394
0.982666 0.000494535 0.948761 0.000298329 2.06128 0.000370044
1.11839 0.000562837 1.08852 0.000342274 2.06181 0.000370139
1.24946 0.000628802 1.22388 0.000384839 2.05828 0.000369505
1.37454 0.000691751 1.35285 0.000425393 2.05514 0.000368942
1.49257 0.00075115 1.4737 0.000463391 2.05688 0.000369254
1.6027 0.000806573 1.58478 0.00049832 2.06752 0.000371165
1.70424 0.000857674 1.68449 0.000529673 2.09053 0.000375295
1.79659 0.000904149 1.77149 0.000557028 2.12857 0.000382124
1.87915 0.000945697 1.84476 0.000580069 2.18358 0.000391999
1.93804 0.000975337 1.9065 0.000599481 2.25562 0.000404931
1.98576 0.000999353 1.95481 0.000614673 2.34388 0.000420776
2.01918 0.00101617 1.98811 0.000625143 2.45159 0.000440113
2.03871 0.001026 2.0088 0.00063165 2.57413 0.000462111
2.04511 0.00102922 2.01627 0.000633997 2.71125 0.000486728
2.03946 0.00102638 2.01153 0.000632507 2.85875 0.000513206
2.02287 0.00101803 1.99516 0.000627359 3.01381 0.000541043
1.99665 0.00100483 1.96854 0.000618989 3.17251 0.000569534
1.96291 0.000987854 1.93321 0.00060788 3.33048 0.000597892
1.92373 0.000968133 1.89055 0.000594465 3.48287 0.00062525
1.88105 0.000946652 1.84185 0.000579153 3.62481 0.00065073
1.837 0.000924484 1.78865 0.000562424 3.75157 0.000673487
1.79379 0.000902742 1.73265 0.000544815 3.85865 0.000692709
1.75348 0.000882453 1.67545 0.000526831 3.94176 0.000707629
1.7179 0.00086455 1.61849 0.000508919 3.99698 0.000717543
1.6888 0.000849903 1.56308 0.000491496 4.02095 0.000721845
1.6677 0.000839286 1.51049 0.00047496 4.01105 0.000720068
1.65583 0.000833312 1.46186 0.00045967 3.9655 0.000711891
1.65405 0.000832416 1.41815 0.000445924 3.88331 0.000697136
1.66285 0.000836844 1.38007 0.000433949 3.76433 0.000675778
1.68234 0.000846654 1.34814 0.00042391 3.60932 0.00064795
1.71232 0.000861739 1.32269 0.000415907 3.41998 0.000613959
1.7523 0.000881861 1.30382 0.000409974 3.19895 0.000574279
1.8007 0.000906217 1.29146 0.000406088 2.94974 0.000529541
1.85536 0.000933725 1.28607 0.000404392 2.67623 0.00048044
1.91457 0.000963523 1.2867 0.000404591 2.38326 0.000427846
1.97692 0.0009949 1.29213 0.0004063 2.0769 0.000372848
2.04175 0.00102753 1.30191 0.000409372 1.76273 0.000316447
2.10774 0.00106074 1.31488 0.000413451 1.44725 0.000259813
2.17313 0.00109365 1.32971 0.000418116 1.13693 0.000204104
2.23654 0.00112556 1.34512 0.000422961 0.838209 0.000150476
2.29675 0.00115586 1.36001 0.000427641 0.557217 0.000100032
2.35227 0.0011838 1.37334 0.000431834 0.299729 5.38077e-05
2.40147 0.00120856 1.38418 0.000435242 0.0709515 1.27373e-05
2.44272 0.00122932 1.39174 0.000437621 -0.135082 -2.42502e-05
2.47453 0.00124533 1.3954 0.000438771 -0.304152 -5.46017e-05
2.49553 0.0012559 1.39483 0.000438591 -0.430652 -7.73113e-05
2.50473 0.00126053 1.38986 0.000437028 -0.512811 -9.20606e-05
2.5014 0.00125885 1.38053 0.000434095 -0.549076 -9.85709e-05
2.48539 0.0012508 1.36693 0.000429818 -0.539313 -9.68181e-05
2.45679 0.0012364 1.34929 0.000424272 -0.484576 -8.69917e-05
2.416 0.00121587 1.32796 0.000417564 -0.386875 -6.94524e-05
2.36404 0.00118972 1.30348 0.000409867 -0.248958 -4.46933e-05
2.30243 0.00115872 1.27644 0.000401364 -0.0750272 -1.3469e-05
2.23296 0.00112375 1.24737 0.000392225 0.123374 2.21483e-05
2.15745 0.00108575 1.2172 0.000382738 0.343577 6.16793e-05
2.07781 0.00104567 1.18686 0.000373198 0.584704 0.000104967
1.99581 0.00100441 1.15738 0.000363927 0.841276 0.000151027
1.91317 0.00096282 1.12974 0.000355236 1.10718 0.000198762
1.83159 0.000921762 1.10494 0.000347438 1.37644 0.0002471
1.75286 0.000882142 1.08394 0.000340835 1.64339 0.000295024
1.67879 0.000844864 1.06762 0.000335703 1.90264 0.000341565
1.61109 0.000810797 1.0567 0.00033227 2.14903 0.000385797
1.55139 0.000780748 1.05176 0.000330716 2.37775 0.000426856
1.5011 0.000755442 1.05323 0.000331178 2.58453 0.000463979
1.46143 0.000735479 1.06139 0.000333744 2.76589 0.000496537
1.43321 0.000721278 1.07638 0.000338458 2.9191 0.000524041
1.41681 0.000713022 1.0982 0.000345319 3.04215 0.00054613
1.41206 0.000710634 1.12669 0.000354277 3.13376 0.000562576
1.41829 0.000713766 1.16155 0.000365239 3.19342 0.000573287
1.43436 0.000721853 1.20234 0.000378066 3.22148 0.000578325
1.45878 0.000734144 1.24844 0.00039256 3.21913 0.000577902
1.4897 0.000749705 1.29904 0.000408472 3.18831 0.000572369
1.52496 0.000767449 1.35319 0.000425499 3.13166 0.000562199
1.56224 0.00078621 1.40974 0.00044328 3.05242 0.000547974
1.59918 0.000804801 1.46736 0.000461397 2.95441 0.00053038
1.63344 0.000822045 1.52456 0.000479385 2.8419 0.000510181
1.66278 0.000836808 1.57976 0.00049674 2.71946 0.000488201
1.68512 0.000848051 1.63122 0.000512923 2.59185 0.000465292
1.69864 0.000854856 1.67719 0.000527377 2.46381 0.000442306
1.70178 0.000856436 1.71589 0.000539547 2.33994 0.000420068
1.69321 0.000852122 1.74563 0.000548898 2.22452 0.000399348
1.67181 0.000841355 1.76484 0.000554937 2.12137 0.000380832
1.63666 0.000823663 1.77213 0.00055723 2.0337 0.000365093
1.58699 0.000798667 1.76636 0.000555416 1.96397 0.000352575
1.52231 0.000766118 1.74666 0.000549221 1.91382 0.000343572
1.44245 0.000725925 1.71242 0.000538455 1.88402 0.000338222
1.34757 0.000678178 1.66335 0.000523027 1.87442 0.000336499
1.23823 0.00062315 1.59946 0.000502936 1.88398 0.000338214
1.11532 0.000561296 1.52105 0.000478281 1.91072 0.000343016
0.980061 0.000493224 1.42873 0.000449252 1.95186 0.000350401
0.841264 0.000423373 1.32152 0.00041554 2.00436 0.000359826
0.692915 0.000348715 1.20019 0.000377388 2.06578 0.000370852
0.535288 0.000269388 1.07436 0.000337822 2.1242 0.000381339
0.373738 0.000188087 0.93691 0.000294603 2.18156 0.000391636
0.207611 0.000104482 0.79325 0.00024943 2.22877 0.000400111
0.0408504 2.05583e-05 0.644295 0.000202593 2.26169 0.000406022
-0.122476 -6.16369e-05 0.492575 0.000154886 2.27407 0.000408244
-0.282964 -0.000142404 0.338978 0.000106588 2.26141 0.000405971
-0.435325 -0.000219081 0.180362 5.67131e-05 2.21891 0.000398342
-0.576265 -0.00029001 0.0176572 5.55214e-06 2.14086 0.000384329
-0.704931 -0.000354763 -0.139859 -4.39774e-05 2.0263 0.000363765
-0.820876 -0.000413113 -0.292226 -9.18879e-05 1.87144 0.000335963
-0.921092 -0.000463548 -0.437156 -0.00013746 1.6751 0.000300717
-1.00449 -0.000505519 -0.572415 -0.000179991 1.43649 0.000257881
-1.07138 -0.000539182 -0.697162 -0.000219216 1.15669 0.000207651
-1.12183 -0.000564572 -0.811048 -0.000255027 0.837136 0.000150284
-1.15581 -0.00058167 -0.913685 -0.0002873 0.480223 8.62102e-05
-1.17422 -0.000590937 -1.00468 -0.000315913 0.0896398 1.60923e-05
-1.17863 -0.000593155 -1.08425 -0.000340931 -0.351624 -6.3124e-05
-1.17079 -0.000589211 -1.1524 -0.000362361 -0.823667 -0.000147866
-1.15267 -0.000580091 -1.20988 -0.000380437 -1.31434 -0.000235952
-1.12676 -0.000567053 -1.25737 -0.000395368 -1.81447 -0.000325737
-1.09587 -0.000551508 -1.29591 -0.000407489 -2.31587 -0.000415749
-1.06284 -0.000534885 -1.32673 -0.000417177 -2.81089 -0.000504615
-1.03048 -0.000518597 -1.35119 -0.00042487 -3.29169 -0.000590929
-1.00158 -0.000504053 -1.37081 -0.000431038 -3.74969 -0.000673149
-0.978563 -0.00049247 -1.38718 -0.000436186 -4.17599 -0.00074968
-0.964117 -0.0004852 -1.40194 -0.000440826 -4.56234 -0.000819037
-0.960218 -0.000483238 -1.41676 -0.000445488 -4.89267 -0.000878338
-0.969985 -0.000488153 -1.42442 -0.000447897 -4.85247 -0.000871122
-0.996014 -0.000501252 -1.41798 -0.000445871 -4.84537 -0.000869847
-1.03227 -0.000519499 -1.43321 -0.000450659 -4.87012 -0.000874291
-1.08587 -0.000546476 -1.44917 -0.000455679 -4.89728 -0.000879166
-1.15297 -0.00058024 -1.48308 -0.000466342 -4.89321 -0.000878435
-1.23431 -0.000621179 -1.52958 -0.000480962 -4.84426 -0.000869648
-1.33116 -0.00066992 -1.57923 -0.000496576 -4.74523 -0.00085187
-1.44199 -0.000725692 -1.63327 -0.000513567 -4.61381 -0.000828277
-1.56592 -0.000788062 -1.69258 -0.000532218 -4.44726 -0.000798378
-1.70192 -0.000856508 -1.75847 -0.000552934 -4.22242 -0.000758014
-1.84827 -0.000930158 -1.82962 -0.000575306 -3.93439 -0.000706307
-2.00292 -0.00100799 -1.90303 -0.00059839 -3.60305 -0.000646823
-2.16351 -0.0010888 -1.97697 -0.00062164 -3.2537 -0.000584108
-2.32759 -0.00117138 -2.05069 -0.000644822 -2.89808 -0.000520266
-2.49242 -0.00125433 -2.12346 -0.000667703 -2.53383 -0.000454876
-2.65513 -0.00133622 -2.19376 -0.000689807 -2.15935 -0.00038765
-2.81281 -0.00141557 -2.25982 -0.00071058 -1.7842 -0.000320302
-2.96263 -0.00149097 -2.32023 -0.000729574 -1.42529 -0.000255869
-3.10184 -0.00156103 -2.37398 -0.000746476 -1.09602 -0.000196759
-3.2251 -0.00162306 -2.42025 -0.000761025 -0.801171 -0.000143827
-3.21945 -0.00162022 -2.43946 -0.000767066 -0.552389 -9.91656e-05
-3.25134 -0.00163627 -2.41188 -0.000758393 -0.372559 -6.68822e-05
-3.26837 -0.00164483 -2.44305 -0.000768195 -0.189935 -3.40974e-05
-3.26497 -0.00164312 -2.43475 -0.000765584 -0.0656035 -1.17772e-05
-3.2626 -0.00164193 -2.41296 -0.000758732 -0.0115978 -2.08205e-06
-3.26963 -0.00164547 -2.40697 -0.00075685 0.0200418 3.59793e-06
-3.25215 -0.00163667 -2.40932 -0.000757588 0.0178642 3.207e-06
-3.22686 -0.00162395 -2.39337 -0.000752573 -0.0290831 -5.22103e-06
-3.18399 -0.00160237 -2.37152 -0.000745703 -0.125784 -2.25809e-05
-3.12885 -0.00157462 -2.34697 -0.000737984 -0.262049 -4.70434e-05
-3.05775 -0.00153884 -2.31667 -0.000728456 -0.441341 -7.92301e-05
-2.97348 -0.00149643 -2.2823 -0.000717649 -0.652361 -0.000117113
-2.88103 -0.0014499 -2.24371 -0.000705514 -0.891338 -0.000160014
-2.7816 -0.00139986 -2.20277 -0.000692642 -1.15292 -0.000206974
-2.67658 -0.00134701 -2.16097 -0.000679498 -1.43265 -0.000257191
-2.56935 -0.00129305 -2.11974 -0.000666533 -1.72345 -0.000309395
-2.46315 -0.0012396 -2.07983 -0.000653983 -2.01744 -0.000362174
-2.3602 -0.00118779 -2.04192 -0.000642064 -2.30772 -0.000414285
-2.26276 -0.00113875 -2.00743 -0.000631217 -2.58833 -0.00046466
-2.17353 -0.00109385 -1.97785 -0.000621917 -2.85363 -0.000512287
-2.0948 -0.00105423 -1.95407 -0.00061444 -3.09795 -0.000556148
-2.0283 -0.00102076 -1.93653 -0.000608923 -3.31587 -0.000595269
-1.97561 -0.000994244 -1.92582 -0.000605556 -3.50274 -0.000628816
-1.93811 -0.000975371 -1.92267 -0.000604566 -3.65508 -0.000656165
-1.91671 -0.000964599 -1.92752 -0.000606092 -3.77048 -0.000676881
-1.91136 -0.00096191 -1.94048 -0.000610165 -3.84732 -0.000690676
-1.9173 -0.000964897 -1.96258 -0.000617116 -3.88424 -0.000697303
-1.93485 -0.000973732 -1.99321 -0.000626746 -3.88112 -0.000696743
-1.96344 -0.000988119 -2.03147 -0.000638776 -3.83984 -0.000689333
-2.00218 -0.00100761 -2.07689 -0.000653061 -3.76255 -0.000675458
-2.04991 -0.00103163 -2.12829 -0.000669222 -3.65285 -0.000655765
-2.10522 -0.00105947 -2.18422 -0.000686809 -3.51472 -0.000630967
-2.16646 -0.00109029 -2.24307 -0.000705314 -3.35293 -0.000601922
-2.23174 -0.00112314 -2.30331 -0.000724255 -3.17281 -0.000569586
-2.29898 -0.00115698 -2.3634 -0.000743148 -2.98006 -0.000534984
-2.36602 -0.00119072 -2.42168 -0.000761475 -2.78056 -0.000499169
-2.43062 -0.00122323 -2.47646 -0.000778701 -2.58016 -0.000463193
-2.49063 -0.00125343 -2.52615 -0.000794326 -2.38458 -0.000428083
-2.54399 -0.00128029 -2.56933 -0.000807903 -2.19929 -0.00039482
-2.58887 -0.00130287 -2.60471 -0.000819028 -2.02929 -0.000364302
-2.62367 -0.00132039 -2.63114 -0.000827338 -1.879 -0.000337321
-2.64715 -0.0013322 -2.64762 -0.000832519 -1.75212 -0.000314544
-2.6584 -0.00133786 -2.6534 -0.000834337 -1.65157 -0.000296492
-2.6569 -0.00133711 -2.64801 -0.000832642 -1.57938 -0.000283533
-2.64239 -0.00132981 -2.63124 -0.000827369 -1.53666 -0.000275863
-2.61491 -0.00131597 -2.60317 -0.000818543 -1.52351 -0.000273502
-2.57466 -0.00129572 -2.56415 -0.000806275 -1.53909 -0.000276299
-2.522 -0.00126922 -2.51486 -0.000790775 -1.58161 -0.000283932
-2.45749 -0.00123675 -2.45622 -0.000772338 -1.64842 -0.000295927
-2.38192 -0.00119872 -2.38937 -0.000751317 -1.73614 -0.000311675
-2.29638 -0.00115567 -2.31558 -0.000728113 -1.84074 -0.000330451
-2.20221 -0.00110828 -2.23623 -0.000703161 -1.95767 -0.000351444
-2.10096 -0.00105733 -2.15279 -0.000676924 -2.08207 -0.000373776
-1.99428 -0.00100364 -2.06675 -0.00064987 -2.20883 -0.000396533
-1.88388 -0.00094808 -1.97959 -0.000622463 -2.3328 -0.000418787
-1.77142 -0.000891483 -1.89275 -0.000595158 -2.4489 -0.000439629
-1.65845 -0.000834628 -1.80758 -0.000568378 -2.55228 -0.000458189
-1.54641 -0.000778246 -1.72531 -0.000542508 -2.63849 -0.000473666
-1.43673 -0.000723045 -1.64696 -0.000517872 -2.70357 -0.000485349
-1.33083 -0.000669752 -1.57333 -0.000494718 -2.7442 -0.000492643
-1.23025 -0.000619133 -1.50493 -0.000473213 -2.75778 -0.00049508
-1.13651 -0.000571959 -1.44206 -0.000453442 -2.74246 -0.000492329
-1.051 -0.000528926 -1.38476 -0.000435424 -2.69718 -0.000484201
-0.974789 -0.000490571 -1.33291 -0.000419123 -2.62163 -0.000470638
-0.908516 -0.000457219 -1.28627 -0.000404455 -2.51622 -0.000451715
-0.85235 -0.000428953 -1.24446 -0.000391308 -2.38207 -0.000427632
-0.806001 -0.000405627 -1.20704 -0.000379542 -2.22093 -0.000398705
-0.768794 -0.000386902 -1.17348 -0.000368991 -2.03518 -0.000365358
-0.739741 -0.000372281 -1.1432 -0.000359468 -1.82771 -0.000328112
-0.717585 -0.000361131 -1.11553 -0.000350769 -1.60188 -0.000287572
-0.700855 -0.000352711 -1.08979 -0.000342675 -1.36145 -0.000244409
-0.687938 -0.000346211 -1.06524 -0.000334956 -1.11046 -0.000199352
-0.677172 -0.000340793 -1.04112 -0.000327371 -0.853176 -0.000153163
-0.666892 -0.000335619 -1.01665 -0.000319676 -0.593947 -0.000106626
-0.655393 -0.000329832 -0.991071 -0.000311633 -0.337131 -6.05222e-05
-0.6409 -0.000322538 -0.963691 -0.000303024 -0.0869639 -1.56119e-05
-0.621501 -0.000312776 -0.93438 -0.000293807 0.112198 2.0142e-05
-0.59515 -0.000299515 -0.904789 -0.000284503 0.294238 5.2822e-05
-0.561017 -0.000282336 -0.870179 -0.00027362 0.461003 8.27599e-05
-0.517301 -0.000260336 -0.832107 -0.000261648 0.614444 0.000110306
-0.471591 -0.000237332 -0.786675 -0.000247363 0.746048 0.000133932
-0.438751 -0.000220805 -0.72303 -0.00022735 0.850168 0.000152623
-0.383485 -0.000192992 -0.670337 -0.000210782 0.94173 0.000169061
-0.32587 -0.000163997 -0.606064 -0.000190571 1.01366 0.000181973
-0.254548 -0.000128103 -0.537657 -0.000169061 1.06588 0.000191347
-0.173217 -8.71731e-05 -0.464164 -0.000145952 1.0992 0.00019733
-0.0854605 -4.30087e-05 -0.388113 -0.000122039 1.11289 0.000199788
-0.0037431 -1.88375e-06 -0.311353 -9.79023e-05 1.11049 0.000199356
0.0891904 4.48858e-05 -0.235659 -7.4101e-05 1.09526 0.000196622
0.184018 9.26086e-05 -0.151698 -4.77001e-05 1.06125 0.000190518
0.279316 0.000140568 -0.0720183 -2.26455e-05 1.01919 0.000182966
0.37606 0.000189256 0.00698112 2.19515e-06 0.965325 0.000173296
0.474712 0.000238903 0.0803785 2.52743e-05 0.90452 0.000162381
0.572064 0.000287896 0.153892 4.839e-05 0.84146 0.00015106
0.66626 0.000335301 0.22539 7.08718e-05 0.779061 0.000139858
0.757502 0.000381219 0.293839 9.23949e-05 0.719993 0.000129254
0.844784 0.000425145 0.358834 0.000112832 0.666835 0.000119711
0.926327 0.000466182 0.420049 0.00013208 0.622779 0.000111802
1.00119 0.000503857 0.477209 0.000150054 0.590342 0.000105979
1.06906 0.000538013 0.529663 0.000166548 0.571479 0.000102593
1.12932 0.000568341 0.576727 0.000181347 0.567768 0.000101927
1.18134 0.000594518 0.618142 0.000194369 0.580456 0.000104204
1.22496 0.000616469 0.654027 0.000205653 0.610268 0.000109556
1.2603 0.000634257 0.684428 0.000215212 0.657374 0.000118013
1.2875 0.000647946 0.709232 0.000223012 0.721471 0.000129519
1.30684 0.000657679 0.728493 0.000229068 0.801795 0.000143939
1.31892 0.000663758 0.742578 0.000233497 0.897105 0.000161049
1.32453 0.000666583 0.751996 0.000236458 1.00569 0.000180542
1.3246 0.000666615 0.757226 0.000238103 1.12212 0.000201444
1.32027 0.000664439 0.758002 0.000238347 1.23046 0.000220894
1.31291 0.000660731 0.754361 0.000237202 1.34648 0.000241722
1.30328 0.000655887 0.749345 0.000235625 1.46457 0.000262921
1.29321 0.000650819 0.74244 0.000233454 1.58229 0.000284055
1.28369 0.000646028 0.735303 0.000231209 1.69577 0.000304427
1.27616 0.000642239 0.728152 0.000228961 1.80453 0.000323951
1.27188 0.000640085 0.721913 0.000226999 1.90732 0.000342404
1.27209 0.000640188 0.717557 0.000225629 2.00162 0.000359333
1.2779 0.000643114 0.71596 0.000225127 2.08421 0.000374159
1.29026 0.000649336 0.717873 0.000225729 2.15253 0.000386425
1.30992 0.00065923 0.723895 0.000227622 2.20552 0.000395938
1.33736 0.000673036 0.734631 0.000230998 2.24287 0.000402642
1.37278 0.000690865 0.750639 0.000236032 2.26416 0.000406464
1.41618 0.000712706 0.772347 0.000242858 2.2682 0.000407191
1.46735 0.000738454 0.799892 0.000251519 2.25222 0.000404322
1.52588 0.000767912 0.833179 0.000261986 2.21699 0.000397997
1.59116 0.000800764 0.872234 0.000274266 2.16436 0.00038855
1.66245 0.000836644 0.916789 0.000288276 2.09658 0.000376381
1.73886 0.000875097 0.966518 0.000303913 2.01572 0.000361864
1.81939 0.000915622 1.02086 0.000321 1.92432 0.000345457
1.90295 0.000957674 1.0791 0.000339313 1.82569 0.00032775
1.98841 0.00100068 1.14043 0.000358599 1.72368 0.000309438
2.07436 0.00104394 1.20406 0.000378606 1.62227 0.000291232
2.15842 0.00108624 1.26959 0.000399213 1.5249 0.000273752
2.24026 0.00112743 1.33533 0.000419883 1.43548 0.000257699
2.31877 0.00116694 1.4004 0.000440342 1.3577 0.000243735
2.3932 0.0012044 1.46385 0.000460295 1.29496 0.000232473
2.46261 0.00123933 1.52476 0.000479446 1.2506 0.00022451
2.52607 0.00127127 1.58223 0.000497517 1.22724 0.000220315
2.58281 0.00129982 1.63553 0.000514277 1.22694 0.000220261
2.63289 0.00132503 1.6837 0.000529425 1.25129 0.000224633
2.66833 0.00134286 1.72826 0.000543435 1.30069 0.000233502
2.69531 0.00135644 1.76887 0.000556204 1.37387 0.000246639
2.71251 0.0013651 1.80272 0.00056685 1.47441 0.000264687
2.7192 0.00136846 1.83224 0.000576131 1.59821 0.000286912
2.71585 0.00136677 1.85608 0.000583629 1.7456 0.000313372
2.70289 0.00136025 1.87473 0.000589491 1.91329 0.000343476
2.68082 0.00134914 1.88796 0.000593652 2.09942 0.00037689
2.65036 0.00133382 1.89646 0.000596326 2.29511 0.000412021
2.61288 0.00131495 1.89896 0.000597111 2.47185 0.00044375
2.56979 0.00129327 1.8963 0.000596275 2.66051 0.000477618
2.52174 0.00126909 1.8915 0.000594766 2.85365 0.000512292
2.47077 0.00124343 1.88365 0.000592296 3.04448 0.00054655
2.41768 0.00121672 1.87466 0.000589471 3.22833 0.000579553
2.36422 0.00118981 1.8642 0.00058618 3.40516 0.000611298
2.31168 0.00116337 1.85311 0.000582693 3.57345 0.00064151
2.26141 0.00113807 1.84205 0.000579216 3.72962 0.000669545
2.21459 0.00111451 1.83174 0.000575973 3.86873 0.000694519
2.17194 0.00109305 1.82265 0.000573116 3.98711 0.00071577
2.13133 0.00107261 1.81567 0.000570922 4.08311 0.000733006
2.09319 0.00105342 1.81099 0.000569448 4.15618 0.000746122
2.05746 0.00103543 1.80852 0.000568672 4.20587 0.000755044
2.02386 0.00101853 1.80845 0.000568652 4.23067 0.000759495
1.99217 0.00100257 1.81044 0.000569278 4.22817 0.000759046
1.96226 0.000987524 1.8136 0.000570272 4.19594 0.000753261
1.93404 0.000973324 1.817 0.000571341 4.13606 0.000742511
1.90722 0.000959826 1.81983 0.000572229 4.05125 0.000727286
1.88134 0.000946799 1.82116 0.000572647 3.94349 0.00070794
1.85566 0.000933878 1.82006 0.0005723 3.81459 0.000684801
1.82932 0.000920621 1.81542 0.000570843 3.66732 0.000658363
1.80138 0.000906559 1.80616 0.000567932 3.50536 0.000629286
1.77093 0.000891237 1.79127 0.00056325 3.3326 0.000598273
1.73705 0.000874186 1.76986 0.000556518 3.15244 0.00056593
1.69872 0.000854898 1.74114 0.000547487 2.96768 0.000532762
1.6549 0.000832845 1.70443 0.000535942 2.78097 0.000499243
1.60467 0.000807566 1.65917 0.00052171 2.59505 0.000465867
1.54738 0.000778732 1.60495 0.000504662 2.41258 0.000433109
1.48266 0.000746162 1.54154 0.000484723 2.23569 0.000401353
1.41043 0.000709814 1.46885 0.000461866 2.0658 0.000370855
1.33082 0.000669747 1.38698 0.000436122 1.90377 0.000341767
1.24406 0.000626086 1.29622 0.000407585 1.75005 0.000314171
1.1505 0.000578999 1.19708 0.000376412 1.60478 0.000288092
1.05051 0.000528677 1.09028 0.000342829 1.46763 0.00026347
0.944507 0.000475331 0.976702 0.000307115 1.33769 0.000240144
0.83302 0.000419224 0.857378 0.000269595 1.21361 0.000217869
0.716685 0.000360678 0.733446 0.000230626 1.09373 0.000196347
0.596304 0.000300095 0.60611 0.000190586 0.976245 0.000175257
0.472864 0.000237973 0.47659 0.00014986 0.859299 0.000154263
0.347519 0.000174892 0.346094 0.000108826 0.740951 0.000133016
0.221516 0.00011148 0.2158 6.78565e-05 0.619239 0.000111167
0.0961203 4.83734e-05 0.0868432 2.73071e-05 0.492292 8.83769e-05
-0.0228202 -1.14844e-05 -0.0465551 -1.46388e-05 0.357975 6.42642e-05
-0.133299 -6.70841e-05 -0.174243 -5.47893e-05 0.212668 3.81784e-05
-0.24249 -0.000122035 -0.300199 -9.43948e-05 0.0580209 1.0416e-05
-0.346484 -0.000174371 -0.421983 -0.000132689 -0.0939735 -1.68702e-05
-0.42549 -0.000214131 -0.539361 -0.000169597 -0.253663 -4.55379e-05
-0.501699 -0.000252484 -0.648454 -0.000203901 -0.417593 -7.49668e-05
-0.568408 -0.000286056 -0.74906 -0.000235535 -0.596937 -0.000107163
-0.627378 -0.000315733 -0.844705 -0.00026561 -0.779339 -0.000139908
-0.676695 -0.000340553 -0.931592 -0.000292931 -0.969548 -0.000174054
-0.717326 -0.000361001 -1.00952 -0.000317435 -1.16524 -0.000209186
-0.74995 -0.000377419 -1.07791 -0.00033894 -1.36809 -0.000245602
-0.774555 -0.000389802 -1.13756 -0.000357696 -1.57563 -0.000282859
-0.791614 -0.000398386 -1.1889 -0.00037384 -1.78414 -0.000320291
-0.802342 -0.000403786 -1.23183 -0.000387338 -1.99003 -0.000357253
-0.807849 -0.000406557 -1.26625 -0.000398162 -2.19122 -0.000393371
-0.809117 -0.000407195 -1.29257 -0.000406436 -2.38634 -0.000428399
-0.807369 -0.000406315 -1.31167 -0.000412443 -2.57295 -0.0004619
-0.80403 -0.000404635 -1.32438 -0.000416441 -2.74738 -0.000493212
-0.800429 -0.000402823 -1.33129 -0.000418611 -2.90578 -0.000521649
-0.797827 -0.000401513 -1.33303 -0.000419158 -3.04524 -0.000546685
-0.797531 -0.000401364 -1.33053 -0.000418373 -3.16369 -0.00056795
-0.800822 -0.000403021 -1.32484 -0.000416585 -3.25915 -0.000585087
-0.808841 -0.000407056 -1.3169 -0.000414087 -3.32932 -0.000597684
-0.822562 -0.000413961 -1.30754 -0.000411143 -3.37191 -0.00060533
-0.8428 -0.000424147 -1.29762 -0.000408026 -3.38528 -0.000607729
-0.870178 -0.000437924 -1.28798 -0.000404993 -3.36421 -0.000603947
-0.905122 -0.000455511 -1.27906 -0.000402189 -3.30844 -0.000593935
-0.947766 -0.000476971 -1.27169 -0.000399872 -3.21802 -0.000577702
-0.998115 -0.00050231 -1.26638 -0.000398201 -3.09382 -0.000555407
-1.05598 -0.000531432 -1.26365 -0.000397342 -2.93675 -0.000527209
-1.121 -0.000564153 -1.26386 -0.00039741 -2.74884 -0.000493475
-1.19266 -0.000600218 -1.26717 -0.000398451 -2.53335 -0.00045479
-1.27033 -0.000639305 -1.2736 -0.000400472 -2.29424 -0.000411864
-1.35324 -0.00068103 -1.28304 -0.00040344 -2.03572 -0.000365455
-1.44049 -0.000724938 -1.29531 -0.0004073 -1.76213 -0.000316339
-1.53105 -0.000770512 -1.31016 -0.000411967 -1.47817 -0.000265364
-1.62377 -0.000817177 -1.32721 -0.000417329 -1.18908 -0.000213465
-1.71743 -0.000864311 -1.34605 -0.000423255 -0.900388 -0.000161639
-1.81072 -0.00091126 -1.36627 -0.000429611 -0.617636 -0.000110879
-1.90232 -0.000957361 -1.38743 -0.000436266 -0.346089 -6.21303e-05
-1.99095 -0.00100196 -1.40914 -0.00044309 -0.0907448 -1.62906e-05
-2.07527 -0.0010444 -1.43167 -0.000450175 0.106246 1.90734e-05
-2.15396 -0.001084 -1.45577 -0.000457753 0.282632 5.07385e-05
-2.22672 -0.00112062 -1.47811 -0.000464777 0.433808 7.78778e-05
-2.29213 -0.00115353 -1.50005 -0.000471677 0.55853 0.000100268
-2.34991 -0.00118261 -1.52005 -0.000477965 0.651249 0.000116913
-2.39945 -0.00120754 -1.53882 -0.000483867 0.712089 0.000127835
-2.44053 -0.00122822 -1.55653 -0.000489436 0.741772 0.000133164
-2.47311 -0.00124461 -1.57319 -0.000494676 0.738787 0.000132628
-2.4973 -0.00125679 -1.5891 -0.00049968 0.699475 0.000125571
-2.51345 -0.00126492 -1.60454 -0.000504533 0.62326 0.000111889
-2.52209 -0.00126926 -1.61995 -0.000509378 0.511678 9.18571e-05
-2.52385 -0.00127015 -1.6359 -0.000514394 0.367319 6.59415e-05
-2.51959 -0.00126801 -1.6528 -0.000519708 0.19307 3.46601e-05
-2.51016 -0.00126326 -1.67116 -0.000525483 -0.00739879 -1.32824e-06
-2.49675 -0.00125651 -1.69095 -0.000531705 -0.230035 -4.12961e-05
-2.48059 -0.00124838 -1.71231 -0.000538421 -0.475931 -8.54398e-05
-2.4628 -0.00123943 -1.73747 -0.000546332 -0.737647 -0.000132423
-2.44513 -0.00123053 -1.76595 -0.000555288 -1.01022 -0.000181356
-2.42861 -0.00122222 -1.79896 -0.000565666 -1.28884 -0.000231374
-2.40402 -0.00120984 -1.8375 -0.000577785 -1.57143 -0.000282105
-2.37739 -0.00119644 -1.88467 -0.000592617 -1.85235 -0.000332536
-2.35986 -0.00118762 -1.93285 -0.000607769 -2.13283 -0.000382889
-2.34724 -0.00118127 -1.98792 -0.000625085 -2.40574 -0.000431881
-2.34131 -0.00117828 -2.04759 -0.000643847 -2.66807 -0.000478975
-2.34304 -0.00117915 -2.11186 -0.000664056 -2.91711 -0.000523683
-2.35275 -0.00118404 -2.18015 -0.000685529 -3.15095 -0.000565663
-2.37024 -0.00119284 -2.25214 -0.000708164 -3.36869 -0.000604751
-2.39548 -0.00120555 -2.32791 -0.000731989 -3.56818 -0.000640564
-2.42714 -0.00122148 -2.40696 -0.000756847 -3.74769 -0.000672791
-2.46444 -0.00124025 -2.48866 -0.000782537 -3.90619 -0.000701244
-2.51067 -0.00126352 -2.56974 -0.00080803 -4.04482 -0.000726131
-2.55851 -0.00128759 -2.65249 -0.000834052 -4.16354 -0.000747445
-2.61189 -0.00131446 -2.73558 -0.000860178 -4.26141 -0.000765014
-2.66751 -0.00134245 -2.81859 -0.000886281 -4.34025 -0.000779167
-2.72741 -0.00137259 -3.00137 -0.000943755 -4.44025 -0.000797119
-2.42969 -0.00122276 -2.98151 -0.00093751 -4.07767 -0.000732029
-2.37864 -0.00119707 -2.22791 -0.000700547 -4.097 -0.000735499
-2.6198 -0.00131844 -2.56892 -0.000807775 -4.08381 -0.000733131
-2.73646 -0.00137715 -3.09146 -0.000972081 -4.22235 -0.000758001
-2.68992 -0.00135373 -3.28481 -0.00103288 -4.21355 -0.000756422
-2.73093 -0.00137437 -3.10741 -0.000977098 -4.04448 -0.000726071
-2.83698 -0.00142773 -2.98588 -0.000938882 -3.94143 -0.00070757
-2.88832 -0.00145357 -3.16095 -0.000993931 -3.96961 -0.000712629
-2.91841 -0.00146871 -3.44699 -0.00108388 -4.02501 -0.000722576
-2.97843 -0.00149892 -3.58989 -0.00112881 -3.98647 -0.000715655
-3.03432 -0.00152705 -3.57051 -0.00112271 -3.90997 -0.000701923
-3.05944 -0.00153969 -3.56643 -0.00112143 -3.90548 -0.000701118
-3.08277 -0.00155143 -3.68243 -0.00115791 -3.99308 -0.000716842
-3.11732 -0.00156882 -3.84364 -0.0012086 -4.10365 -0.000736693
-3.14186 -0.00158117 -3.935 -0.00123733 -4.18983 -0.000752164
-3.14728 -0.0015839 -3.95395 -0.00124328 -4.27755 -0.00076791
-3.14313 -0.00158181 -3.92747 -0.00123496 -4.41151 -0.000791959
-3.12891 -0.00157465 -3.95518 -0.00124367 -4.57381 -0.000821096
-3.11367 -0.00156698 -4.00308 -0.00125873 -4.79984 -0.000861673
-3.08518 -0.00155264 -4.02506 -0.00126564 -5.02253 -0.000901651
-3.04326 -0.00153155 -4.02364 -0.0012652 -5.23483 -0.000939763
-2.99705 -0.00150829 -4.02366 -0.0012652 -5.31034 -0.000953318
-2.94186 -0.00148051 -4.02257 -0.00126486 -5.30205 -0.000951831
-2.87354 -0.00144614 -4.02593 -0.00126592 -5.28352 -0.000948504
-2.79826 -0.00140825 -4.00116 -0.00125813 -5.25633 -0.000943623
-2.72292 -0.00137033 -3.95286 -0.00124294 -5.25294 -0.000943014
-2.64143 -0.00132932 -3.91841 -0.00123211 -5.25883 -0.000944071
-2.55288 -0.00128476 -3.88793 -0.00122252 -5.24993 -0.000942474
-2.45997 -0.001238 -3.84999 -0.00121059 -5.21958 -0.000937025
-2.36517 -0.00119029 -3.7982 -0.00119431 -5.18436 -0.000930702
-2.26882 -0.0011418 -3.74144 -0.00117646 -5.16485 -0.000927201
-2.1707 -0.00109242 -3.68958 -0.00116016 -5.161 -0.000926509
-2.07239 -0.00104295 -3.64076 -0.0011448 -5.15713 -0.000925814
-1.97438 -0.000993622 -3.58846 -0.00112836 -5.14082 -0.000922887
-1.87683 -0.000944532 -3.53125 -0.00111037 -5.117 -0.000918611
-1.78053 -0.000896069 -3.47355 -0.00109223 -5.09867 -0.00091532
-1.68651 -0.000848749 -3.41895 -0.00107506 -5.09174 -0.000914076
-1.59523 -0.000802814 -3.36621 -0.00105848 -5.0906 -0.000913871
-1.50693 -0.000758374 -3.31244 -0.00104157 -5.07569 -0.000911194
-1.40201 -0.000705575 -3.23996 -0.00101878 -4.98881 -0.000895597
-1.30464 -0.000656573 -3.16325 -0.000994654 -4.83818 -0.000868556
-1.21493 -0.000611422 -3.0825 -0.000969266 -4.63719 -0.000832474
-1.13245 -0.000569917 -2.99556 -0.000941927 -4.37366 -0.000785166
-1.05629 -0.000531589 -2.90166 -0.0009124 -4.04296 -0.000725798
-0.984697 -0.000495557 -2.80143 -0.000880885 -3.65819 -0.000656723
-0.915635 -0.000460801 -2.69423 -0.000847177 -3.23528 -0.000580802
-0.847166 -0.000426344 -2.57869 -0.000810846 -2.7786 -0.000498818
-0.777516 -0.000391292 -2.45437 -0.000771756 -2.29005 -0.000411113
-0.743403 -0.000374124 -2.30729 -0.000725507 -1.78492 -0.000320431
-0.692519 -0.000348516 -2.15632 -0.000678034 -1.27106 -0.000228183
-0.648235 -0.00032623 -2.00562 -0.00063065 -0.749795 -0.000134604
-0.591314 -0.000297584 -1.84409 -0.000579859 -0.236274 -4.24161e-05
-0.520707 -0.000262051 -1.67445 -0.000526517 0.0945265 1.69695e-05
-0.441369 -0.000222123 -1.51606 -0.000476711 0.328947 5.90529e-05
-0.353012 -0.000177656 -1.34613 -0.000423277 0.568681 0.00010209
-0.253118 -0.000127384 -1.17441 -0.000369283 0.809871 0.000145389
-0.148431 -7.46989e-05 -0.991437 -0.000311748 1.01253 0.000181771
-0.0333422 -1.67798e-05 -0.801109 -0.000251901 1.20005 0.000215435
0.0772656 3.88846e-05 -0.617218 -0.000194079 1.39537 0.000250499
0.189901 9.55691e-05 -0.426673 -0.000134163 1.59319 0.000286011
0.310682 0.000156353 -0.234875 -7.38544e-05 1.77264 0.000318227
0.433016 0.000217919 -0.0404825 -1.27294e-05 1.93464 0.00034731
0.560606 0.00028213 0.131605 4.13821e-05 2.08571 0.00037443
0.696194 0.000350366 0.32188 0.000101212 2.24793 0.000403552
0.824033 0.000414702 0.505221 0.000158862 2.40434 0.000431631
0.959928 0.000483092 0.65795 0.000206887 2.53082 0.000454337
1.111 0.000559121 0.871618 0.000274072 2.68141 0.00048137
1.23684 0.000622453 1.06093 0.0003336 2.83116 0.000508254
1.35286 0.000680837 1.2043 0.000378682 2.96844 0.000532898
1.46416 0.00073685 1.34523 0.000422996 3.10824 0.000557996
1.55595 0.000783046 1.49121 0.000468896 3.25743 0.000584778
1.63255 0.000821593 1.61437 0.000507625 3.40361 0.00061102
1.69657 0.000853813 1.70871 0.000537289 3.54572 0.000636533
1.74348 0.000877422 1.79062 0.000563045 3.69221 0.00066283
1.77541 0.000893491 1.86315 0.000585851 3.83951 0.000689274
1.7948 0.000903247 1.91496 0.000602143 3.97944 0.000714395
1.80147 0.000906607 1.94551 0.000611748 4.11228 0.000738243
1.79758 0.000904647 1.96338 0.000617367 4.2399 0.000761152
1.78529 0.000898461 1.96972 0.00061936 4.35744 0.000782254
1.76604 0.000888775 1.96058 0.000616487 4.45926 0.000800531
1.74224 0.000876796 1.93887 0.00060966 4.5436 0.000815672
1.71681 0.000863999 1.90959 0.000600455 4.61007 0.000827605
1.69213 0.000851579 1.87326 0.000589029 4.63613 0.000832283
1.67105 0.000840971 1.82778 0.000574728 4.64536 0.000833942
1.65521 0.000832997 1.78218 0.00056039 4.63114 0.000831388
1.64806 0.000829398 1.73436 0.000545353 4.55312 0.000817381
1.65104 0.000830899 1.68412 0.000529558 4.42139 0.000793734
1.66511 0.000837983 1.63112 0.000512892 4.24639 0.000762317
1.69116 0.000851093 1.57949 0.000496656 4.01731 0.000721193
1.72829 0.000869778 1.52761 0.000480343 3.73016 0.000669644
1.77543 0.000893503 1.4785 0.000464902 3.39523 0.000609517
1.83456 0.000923261 1.43047 0.000449799 3.02732 0.000543468
1.90284 0.00095762 1.38584 0.000435765 2.63065 0.000472257
1.9789 0.0009959 1.34495 0.000422907 2.20775 0.000396338
2.06088 0.00103716 1.30799 0.000411286 1.76779 0.000317357
2.14627 0.00108013 1.27472 0.000400824 1.32538 0.000237933
2.23261 0.00112358 1.24548 0.000391629 0.891558 0.000160054
2.31745 0.00116628 1.22038 0.000383736 0.473282 8.49641e-05
2.39818 0.0012069 1.19912 0.000377052 0.078799 1.41461e-05
2.47168 0.00124389 1.18688 0.000373205 -0.106805 -1.91738e-05
2.53508 0.0012758 1.18737 0.000373358 -0.285466 -5.12471e-05
2.58989 0.00130338 1.1853 0.000372708 -0.443 -7.95279e-05
2.63183 0.00132449 1.18271 0.000371891 -0.554229 -9.94958e-05
2.66132 0.00133933 1.17901 0.000370728 -0.620012 -0.000111305
2.67601 0.00134673 1.17719 0.000370156 -0.666416 -0.000119636
2.67308 0.00134525 1.17614 0.000369827 -0.694313 -0.000124644
2.65234 0.00133481 1.17353 0.000369006 -0.659996 -0.000118483
2.61358 0.00131531 1.17292 0.000368815 -0.549327 -9.86159e-05
2.55782 0.00128725 1.17416 0.000369203 -0.378495 -6.79478e-05
2.48679 0.0012515 1.1769 0.000370067 -0.157247 -2.82291e-05
2.40285 0.00120925 1.18013 0.000371081 0.0911606 1.63653e-05
2.30886 0.00116195 1.18105 0.000371371 0.364102 6.5364e-05
2.20714 0.00111076 1.18429 0.000372389 0.663227 0.000119063
2.10118 0.00105743 1.18841 0.000373686 0.984657 0.000176767
1.99321 0.0010031 1.19527 0.000375841 1.3146 0.000235999
1.88573 0.000949011 1.20422 0.000378658 1.6552 0.000297143
1.78035 0.000895979 1.21621 0.000382425 1.99941 0.000358937
1.67823 0.000844585 1.23207 0.000387413 2.33444 0.000419082
1.58028 0.000795289 1.25227 0.000393766 2.6493 0.000475605
1.48734 0.000748517 1.27675 0.000401463 2.94012 0.000527814
1.40019 0.000704656 1.30521 0.000410411 3.20374 0.000575139
1.31931 0.000663953 1.33714 0.000420453 3.43402 0.00061648
1.24466 0.000626384 1.3717 0.000431318 3.62486 0.000650739
1.17565 0.000591654 1.40758 0.0004426 3.77422 0.000677553
1.11123 0.000559234 1.44319 0.000453798 3.88269 0.000697025
1.04992 0.000528379 1.47671 0.000464339 3.95044 0.000709188
0.989763 0.000498107 1.50614 0.000473591 3.97734 0.000714018
0.928363 0.000467207 1.52922 0.00048085 3.96167 0.000711204
0.863082 0.000434353 1.54327 0.000485268 3.90522 0.000701069
0.791363 0.00039826 1.546 0.000486126 3.81285 0.000684488
0.711252 0.000357943 1.53499 0.000482664 3.68851 0.000662165
0.636403 0.000320275 1.50508 0.000473258 3.53657 0.000634889
0.59132 0.000297587 1.44405 0.000454068 3.37119 0.0006052
0.528393 0.000265918 1.37757 0.000433165 3.17586 0.000570134
0.452925 0.000227938 1.28651 0.000404531 2.96835 0.000532882
0.363659 0.000183015 1.17748 0.000370249 2.74321 0.000492464
0.264915 0.000133321 1.05356 0.000331283 2.50319 0.000449376
0.155068 7.80391e-05 0.913509 0.000287245 2.24965 0.00040386
0.0456442 2.29708e-05 0.757434 0.000238168 1.98267 0.000355932
-0.074318 -3.74012e-05 0.591994 0.000186147 1.70004 0.000305194
-0.195232 -9.82523e-05 0.410967 0.000129225 1.40826 0.000252812
-0.313287 -0.000157664 0.225556 7.09242e-05 1.10198 0.000197828
-0.433285 -0.000218054 0.0371679 1.16871e-05 0.78437 0.000140811
-0.54802 -0.000275796 -0.173035 -5.44094e-05 0.455776 8.18216e-05
-0.639425 -0.000321796 -0.363083 -0.000114168 0.125712 2.2568e-05
-0.722203 -0.000363455 -0.523225 -0.000164523 -0.132909 -2.386e-05
-0.810636 -0.00040796 -0.689286 -0.00021674 -0.334777 -6.00996e-05
-0.889258 -0.000447527 -0.881556 -0.000277197 -0.555044 -9.96422e-05
-0.96068 -0.000483471 -1.05181 -0.000330731 -0.779489 -0.000139935
-1.02883 -0.000517769 -1.20856 -0.00038002 -0.984716 -0.000176777
-1.09212 -0.00054962 -1.36628 -0.000429615 -1.20641 -0.000216576
-1.14974 -0.000578618 -1.52504 -0.000479536 -1.45032 -0.000260363
-1.20289 -0.000605365 -1.66969 -0.00052502 -1.69922 -0.000305046
-1.24959 -0.000628867 -1.80139 -0.000566432 -1.94179 -0.000348592
-1.28179 -0.00064507 -1.93235 -0.000607611 -2.18475 -0.000392209
-1.31032 -0.000659429 -2.05674 -0.000646723 -2.43382 -0.000436923
-1.33103 -0.000669853 -2.17031 -0.000682435 -2.68383 -0.000481805
-1.34635 -0.000677561 -2.27289 -0.000714689 -2.9256 -0.000525207
-1.35774 -0.000683292 -2.36869 -0.000744814 -3.15749 -0.000566837
-1.3651 -0.000686998 -2.45673 -0.000772498 -3.38122 -0.000607001
-1.36912 -0.000689023 -2.53488 -0.000797072 -3.59427 -0.000645247
-1.37083 -0.000689881 -2.60387 -0.000818763 -3.79148 -0.000680651
-1.37077 -0.000689854 -2.66551 -0.000838146 -3.96916 -0.000712549
-1.36954 -0.000689234 -2.71966 -0.000855173 -4.12621 -0.000740742
-1.36766 -0.000688285 -2.76549 -0.000869584 -4.26167 -0.00076506
-1.36547 -0.000687185 -2.80337 -0.000881494 -4.37336 -0.000785111
-1.36313 -0.000686009 -2.8341 -0.000891157 -4.45882 -0.000800452
-1.35704 -0.000682944 -2.8585 -0.00089883 -4.51689 -0.000810878
-1.34664 -0.000677707 -2.87524 -0.000904092 -4.54744 -0.000816362
-1.33244 -0.000670561 -2.88381 -0.000906789 -4.54457 -0.000815847
-1.31579 -0.000662184 -2.88279 -0.000906466 -4.48872 -0.00080582
-1.29766 -0.00065306 -2.87115 -0.000902808 -4.38262 -0.000786774
-1.2786 -0.000643468 -2.8478 -0.000895466 -4.22961 -0.000759304
-1.25804 -0.000633121 -2.81128 -0.00088398 -4.03012 -0.000723492
-1.23594 -0.000621996 -2.75969 -0.00086776 -3.78795 -0.000680017
-1.2124 -0.000610149 -2.69346 -0.000846933 -3.50999 -0.000630118
-1.18969 -0.000598719 -2.61402 -0.000821954 -3.20507 -0.000575378
-1.16672 -0.000587164 -2.52961 -0.000795412 -2.87672 -0.000516433
-1.13865 -0.000573033 -2.42969 -0.000763995 -2.52658 -0.000453574
-1.10659 -0.0005569 -2.31227 -0.000727072 -2.15938 -0.000387655
-1.07192 -0.000539452 -2.18598 -0.000687363 -1.78353 -0.000320182
-1.03276 -0.000519747 -2.05339 -0.00064567 -1.40217 -0.00025172
-0.98909 -0.000497768 -1.90872 -0.000600181 -1.01589 -0.000182374
-0.941869 -0.000474004 -1.7524 -0.000551028 -0.628159 -0.000112768
-0.891164 -0.000448486 -1.5902 -0.000500025 -0.243773 -4.37625e-05
-0.837244 -0.00042135 -1.42446 -0.000447908 0.043198 7.75495e-06
-0.778801 -0.000391938 -1.26534 -0.000397876 0.241072 4.32776e-05
-0.718652 -0.000361668 -1.09791 -0.000345227 0.42885 7.69877e-05
-0.655761 -0.000330018 -0.935724 -0.00029423 0.632478 0.000113543
-0.591707 -0.000297782 -0.771932 -0.000242727 0.818119 0.00014687
-0.525168 -0.000264295 -0.609675 -0.000191707 0.99099 0.000177904
-0.456863 -0.00022992 -0.451739 -0.000142045 1.16952 0.000209954
-0.38695 -0.000194736 -0.300965 -9.46357e-05 1.35905 0.000243978
-0.31538 -0.000158718 -0.156868 -4.93256e-05 1.54611 0.000277559
-0.241336 -0.000121454 -0.0238205 -7.49015e-06 1.72151 0.000309048
-0.163167 -8.2115e-05 0.101064 3.17788e-05 1.89579 0.000340335
-0.0847927 -4.26727e-05 0.216002 6.792e-05 2.07426 0.000372373
-0.00727852 -3.66298e-06 0.318296 0.000100085 2.24893 0.00040373
0.0691711 3.48109e-05 0.411585 0.000129419 2.41474 0.000433497
0.144232 7.2586e-05 0.498484 0.000156744 2.57425 0.000462133
0.221061 0.000111251 0.573011 0.000180178 2.72525 0.00048924
0.294265 0.000148091 0.645369 0.000202931 2.87257 0.000515687
0.35356 0.000177932 0.733066 0.000230506 3.00031 0.00053862
0.412345 0.000207516 0.794486 0.000249819 3.11838 0.000559815
0.469777 0.000236419 0.85046 0.00026742 3.21768 0.000577642
0.530399 0.000266928 0.906303 0.000284979 3.30606 0.000593508
0.590176 0.000297011 0.957064 0.00030094 3.37765 0.000606359
0.651527 0.000327886 0.99763 0.000313696 3.43095 0.000615929
0.715603 0.000360133 1.03325 0.000324896 3.46699 0.000622398
0.781535 0.000393314 1.0666 0.000335384 3.48696 0.000625984
0.849971 0.000427755 1.09549 0.000344468 3.48493 0.00062562
0.921692 0.000463849 1.11777 0.000351472 3.44879 0.000619132
0.996347 0.00050142 1.13542 0.000357022 3.38201 0.000607142
1.07408 0.000540539 1.14974 0.000361526 3.28688 0.000590065
1.15477 0.000581149 1.16021 0.000364817 3.16303 0.00056783
1.23784 0.000622954 1.16667 0.00036685 3.01311 0.000540917
1.3227 0.000665663 1.17038 0.000368017 2.84279 0.000510342
1.40866 0.000708921 1.17203 0.000368535 2.65694 0.000476977
1.49472 0.00075223 1.17159 0.000368396 2.4588 0.000441406
1.57979 0.000795044 1.16946 0.000367725 2.25228 0.000404332
1.66273 0.000836784 1.16644 0.000366776 2.0429 0.000366745
1.74239 0.000876874 1.16295 0.00036568 1.83618 0.000329633
1.81782 0.000914831 1.15913 0.000364479 1.63664 0.000293811
1.88823 0.000950268 1.15529 0.000363271 1.44847 0.000260032
43.9995 0.159926 0.947729 0.000298005 1.36587 0.000245202
8.93253 0.402567 0.493323 0.000155121 1.6414 0.000294666
2.90051 0.45166 0.66485 0.000209056 1.21294 0.000217748
-3.38559 0.402994 0.573966 0.000180478 1.13285 0.00020337
2.5022 0.413486 0.621361 0.000195381 0.907556 0.000162926
8.93253 0.464076 0.642784 0.000202118 0.768827 0.000138021
3.4979 0.46819 0.700958 0.00022041 0.568668 0.000102088
5.32943 0.469112 0.705597 0.000221869 0.424127 7.61398e-05
8.93253 0.487955 0.787267 0.000247549 0.278573 5.00097e-05
8.93253 0.516483 0.800748 0.000251788 0.240977 4.32606e-05
8.93253 0.524494 0.891328 0.00028027 0.144647 2.59671e-05
8.93253 0.535626 0.930125 0.000292469 0.119176 2.13947e-05
8.93253 0.556092 0.979242 0.000307914 0.147232 2.64314e-05
8.93253 0.573059 1.03549 0.000325601 0.233776 4.19678e-05
8.93253 0.580241 1.09747 0.00034509 0.329474 5.91476e-05
8.93253 0.586676 1.14838 0.000361098 0.464524 8.33919e-05
8.93253 0.595863 1.19902 0.000377022 0.655998 0.000117766
8.93253 0.601163 1.25662 0.000395133 0.888372 0.000159482
8.37041 0.601171 1.31218 0.000412603 1.14518 0.000205584
7.96052 0.600965 1.35999 0.000427638 1.4296 0.000256644
7.07307 0.600518 1.41192 0.000443965 1.74141 0.00031262
4.8855 0.599417 1.45893 0.000458748 2.07956 0.000373325
2.26931 0.5981 1.50236 0.000472403 2.42718 0.00043573
-0.023623 0.596526 1.54333 0.000485285 2.7768 0.000498494
-0.232185 0.592704 1.58604 0.000498716 3.1237 0.000560771
-0.645474 0.58513 1.63101 0.000512855 3.46014 0.000621169
-1.14003 0.576068 1.67174 0.000525665 3.67755 0.000660199
-1.57284 0.568137 1.70018 0.000534605 3.85176 0.000691472
-1.97786 0.560715 1.73393 0.000545219 4.00306 0.000718634
-2.39847 0.553008 1.76215 0.000554092 4.13969 0.000743163
-2.81543 0.545367 1.78932 0.000562635 4.25604 0.00076405
-3.19248 0.538458 1.8136 0.000570269 4.351 0.000781097
-3.5644 0.531643 1.83667 0.000577523 4.42283 0.000793992
-3.9582 0.524426 1.85721 0.000583983 4.47138 0.000802709
-4.36178 0.517031 1.87452 0.000589426 4.49596 0.00080712
-4.76811 0.509585 1.88769 0.000593568 4.49265 0.000806526
-5.20487 0.501582 1.89489 0.000595831 4.4487 0.000798637
-5.68085 0.49286 1.89454 0.000595721 4.36552 0.000783703
-6.17688 0.48377 1.88445 0.000592549 4.24796 0.000762599
-6.62904 0.475485 1.85758 0.000584099 4.10033 0.000736097
-6.88621 0.470772 1.80072 0.000566219 3.93769 0.000706899
-7.24024 0.464285 1.75055 0.000550444 3.73473 0.000670464
-7.72199 0.455457 1.67914 0.00052799 3.5185 0.000631646
-8.30115 0.444844 1.60236 0.000503848 3.27923 0.000588691
-8.89018 0.43405 1.51274 0.000475666 3.0279 0.000543572
-9.56196 0.42174 1.41539 0.000445057 2.76121 0.000495696
-10.3634 0.407055 1.30866 0.000411496 2.48457 0.000446033
-11.2409 0.390974 1.19282 0.000375071 2.20264 0.00039542
-12.1292 0.374696 1.06688 0.000335472 1.91872 0.000344451
-13.0402 0.358004 0.933196 0.000293435 1.63214 0.000293003
-13.9764 0.340849 0.791416 0.000248854 1.3454 0.000241528
-14.9023 0.323882 0.643493 0.000202341 1.06056 0.000190393
-15.8025 0.307385 0.493024 0.000155027 0.777675 0.000139609
-16.742 0.29017 0.347763 0.000109351 0.491153 8.81724e-05
-17.6289 0.273918 0.197262 6.20272e-05 0.210322 3.77572e-05
-18.4212 0.2594 0.0530501 1.66811e-05 0.00152702 2.74133e-07
-19.1042 0.246884 -0.0761104 -2.39322e-05 -0.167763 -3.01171e-05
-19.6673 0.236564 -0.201454 -6.33455e-05 -0.323356 -5.80493e-05
-20.1038 0.228566 -0.319866 -0.000100579 -0.473184 -8.49467e-05
-20.3995 0.223148 -0.432258 -0.00013592 -0.610968 -0.000109682
-20.5079 0.221162 -0.518232 -0.000162954 -0.752893 -0.00013516
-20.1857 0.221269 -0.586963 -0.000184565 -0.903573 -0.000162211
-19.6099 0.221558 -0.651136 -0.000204744 -1.05576 -0.000189531
-18.3728 0.222181 -0.705655 -0.000221887 -1.19817 -0.000215097
-16.2934 0.223228 -0.736226 -0.0002315 -1.33532 -0.000239718
-13.6433 0.224561 -0.749266 -0.0002356 -1.47337 -0.000264502
-10.4538 0.226166 -0.748483 -0.000235354 -1.60577 -0.000288269
-6.71325 0.228049 -0.733348 -0.000230595 -1.72378 -0.000309455
-2.58687 0.230125 -0.701048 -0.000220438 -1.82396 -0.00032744
0.0381962 0.23301 -0.654769 -0.000205886 -1.90908 -0.00034272
0.176486 0.238738 -0.602772 -0.000189536 -1.97547 -0.000354639
0.413878 0.248572 -0.545114 -0.000171406 -2.0157 -0.00036186
0.71168 0.260908 -0.478483 -0.000150455 -2.02601 -0.000363711
0.997417 0.272745 -0.401427 -0.000126225 -1.99705 -0.000358512
1.23766 0.282697 -0.32041 -0.00010075 -1.91421 -0.000343642
1.45956 0.291889 -0.234878 -7.38554e-05 -1.76646 -0.000317116
1.68757 0.301334 -0.120262 -3.78154e-05 -1.55093 -0.000278425
1.86021 0.308486 -0.00849724 -2.67188e-06 -1.27564 -0.000229005
1.96072 0.31265 0.096026 3.01945e-05 -0.943073 -0.000169302
2.02824 0.315446 0.208555 6.55784e-05 -0.550131 -9.87602e-05
2.07303 0.317302 0.32759 0.000103008 -0.102824 -1.84592e-05
2.04717 0.318098 0.435318 0.000136882 0.284128 5.1007e-05
1.12917 0.317636 0.530185 0.000166712 0.610129 0.000109531
-0.0158467 0.316909 0.622467 0.000195729 0.985169 0.000176859
-0.284373 0.314233 0.71484 0.000224775 1.37109 0.000246139
-0.866262 0.308432 0.808125 0.000254107 1.74607 0.000313457
-1.56012 0.301515 0.893594 0.000280983 2.11914 0.00038043
-2.26322 0.294506 0.975462 0.000306725 2.50329 0.000449394
-3.0583 0.28658 1.05498 0.000331729 2.88452 0.000517832
-3.96301 0.277561 1.13041 0.000355448 3.24157 0.000581931
-4.87678 0.268452 1.20055 0.000377501 3.57023 0.000640932
-5.7839 0.259409 1.26681 0.000398338 3.87659 0.00069593
-6.74246 0.249853 1.32957 0.000418073 4.15648 0.000746176
-7.7378 0.239931 1.38702 0.000436135 4.39876 0.000789671
-8.66264 0.230711 1.43533 0.000451328 4.5979 0.00082542
-9.30701 0.224288 1.46164 0.000459598 4.63118 0.000831396
-9.91343 0.218242 1.47758 0.000464613 4.63268 0.000831665
-10.5406 0.21199 1.48583 0.000467206 4.65976 0.000836526
-11.1393 0.206022 1.48613 0.0004673 4.67139 0.000838614
-11.6449 0.200982 1.48261 0.000466193 4.63227 0.00083159
-12.1506 0.195941 1.4729 0.00046314 4.53331 0.000813825
-12.5942 0.191519 1.43924 0.000452556 4.40644 0.00079105
-13.0516 0.186959 1.39592 0.000438933 4.22519 0.000758511
-13.48 0.182688 1.33809 0.000420749 3.97314 0.000713263
-13.8968 0.178532 1.26607 0.000398106 3.66367 0.000657707
-14.3226 0.174288 1.17885 0.000370677 3.32199 0.000596367
-14.7697 0.169831 1.0784 0.000339094 2.95078 0.000529728
-15.2416 0.165127 0.965894 0.000303717 2.54054 0.000456081
-15.741 0.160149 0.841366 0.00026456 2.09574 0.000376231
-16.2239 0.155335 0.703321 0.000221153 1.63421 0.000293376
-16.6995 0.150593 0.556537 0.000174998 1.16316 0.000208813
-17.1843 0.145761 0.401514 0.000126252 0.682859 0.000122588
-17.7 0.14062 0.241287 7.58705e-05 0.193641 3.47627e-05
-18.2427 0.135209 0.0796613 2.50488e-05 -0.118018 -2.11867e-05
-18.8408 0.129247 -0.0591187 -1.85893e-05 -0.375043 -6.73283e-05
-19.4181 0.123492 -0.209119 -6.57554e-05 -0.629867 -0.000113075
-19.9681 0.118009 -0.349352 -0.000109851 -0.865678 -0.000155408
-20.5164 0.112543 -0.497994 -0.00015659 -1.07366 -0.000192746
-20.9328 0.108392 -0.622121 -0.00019562 -1.27561 -0.000228999
-21.3463 0.10427 -0.72514 -0.000228014 -1.48914 -0.000267333
-21.8918 0.0988321 -0.839702 -0.000264037 -1.69894 -0.000304996
-22.4973 0.0927967 -0.955318 -0.000300391 -1.88449 -0.000338306
-23.0183 0.0876026 -1.05477 -0.000331664 -2.04895 -0.00036783
-23.5161 0.0826402 -1.14039 -0.000358585 -2.20798 -0.000396379
-24.0823 0.0769951 -1.2249 -0.00038516 -2.36184 -0.000424
-24.6708 0.0711293 -1.30675 -0.000410897 -2.49512 -0.000447928
-25.2181 0.0656729 -1.37652 -0.000432834 -2.60319 -0.000467328
-25.7629 0.0602423 -1.43421 -0.000450974 -2.69548 -0.000483896
-26.3447 0.0544424 -1.48665 -0.000467463 -2.77663 -0.000498463
-26.9379 0.0485289 -1.53343 -0.000482173 -2.83948 -0.000509747
-27.5101 0.0428241 -1.57003 -0.000493682 -2.87826 -0.000516709
-28.0725 0.0372179 -1.59655 -0.000502022 -2.89694 -0.000520063
-28.6386 0.031575 -1.61624 -0.000508212 -2.89327 -0.000519403
-29.2002 0.0259759 -1.62752 -0.000511759 -2.85328 -0.000512224
-29.7514 0.0204815 -1.62644 -0.000511419 -2.77545 -0.000498253
-30.2774 0.0152384 -1.61539 -0.000507944 -2.66086 -0.000477681
-30.8105 0.00992377 -1.59523 -0.000501605 -2.51461 -0.000451426
-31.3347 0.00469777 -1.56753 -0.000492895 -2.33914 -0.000419925
-31.6688 0.00136744 -1.53113 -0.00048145 -2.13495 -0.000383269
-31.6867 0.00118926 -1.4959 -0.000470374 -1.89791 -0.000340716
-31.7065 0.000991385 -1.43998 -0.00045279 -1.65267 -0.00029669
-31.7211 0.000846087 -1.3892 -0.000436822 -1.38694 -0.000248985
-31.7271 0.00078565 -1.32892 -0.000417866 -1.11613 -0.000200368
-31.7298 0.000759446 -1.25727 -0.000395336 -0.836861 -0.000150234
-31.7313 0.000743907 -1.17962 -0.00037092 -0.556498 -9.99033e-05
-31.7016 0.00075885 -1.10007 -0.000345906 -0.279756 -5.02221e-05
-31.6158 0.000802043 -1.01514 -0.000319201 -0.0268708 -4.82388e-06
-31.4712 0.000874838 -0.929307 -0.000292212 0.130672 2.34583e-05
-31.2164 0.00100307 -0.840403 -0.000264257 0.275124 4.93907e-05
-30.7863 0.00121951 -0.752602 -0.000236649 0.428059 7.68457e-05
-30.0423 0.00159391 -0.661701 -0.000208066 0.565394 0.0001015
-28.7223 0.00225823 -0.569021 -0.000178924 0.689281 0.000123741
-26.9189 0.0031658 -0.477487 -0.000150141 0.809728 0.000145363
-25.0324 0.00411521 -0.388629 -0.000122201 0.93121 0.000167172
-23.2004 0.0050372 -0.302113 -9.49967e-05 1.04644 0.000187858
-21.4561 0.00591501 -0.218381 -6.86678e-05 1.15097 0.000206623
-19.8874 0.00670446 -0.139349 -4.38171e-05 1.24871 0.00022417
-18.5597 0.00737262 -0.0665351 -2.09213e-05 1.34467 0.000241397
-17.5177 0.00789705 -0.00170951 -5.37542e-07 1.43727 0.00025802
-16.8343 0.00824099 0.0534258 1.67993e-05 1.52219 0.000273265
-16.5147 0.0084018 0.100793 3.16934e-05 1.60105 0.000287422
-16.6008 0.00835847 0.139824 4.39663e-05 1.67539 0.000300768
-17.0904 0.00811209 0.17 5.34551e-05 1.74603 0.000313449
-17.9801 0.00766432 0.191345 6.01668e-05 1.81061 0.000325043
-19.2492 0.00702563 0.203307 6.39281e-05 1.86755 0.000335265
-20.9023 0.0061937 0.205845 6.4726e-05 1.9173 0.000344195
-22.9335 0.0051715 0.196741 6.18636e-05 1.9587 0.000351628
-25.3468 0.00395696 0.175986 5.53372e-05 1.99045 0.000357329
-27.9929 0.00262529 0.145783 4.58401e-05 2.01073 0.000360969
-30.1896 0.00151981 0.105256 3.30969e-05 2.01866 0.000362392
-31.2226 0.000999921 0.0517038 1.62578e-05 2.00942 0.000360733
-31.7178 0.000750698 -0.0101565 -3.19362e-06 1.97554 0.000354652
-31.7479 0.000578645 -0.0787061 -2.47484e-05 1.91385 0.000343576
-31.7593 0.000465248 -0.154037 -4.84355e-05 1.82653 0.000327901
-31.7673 0.000385832 -0.227232 -7.1451e-05 1.71077 0.000307119
-31.7736 0.000322942 -0.300483 -9.44842e-05 1.56623 0.000281171
-31.779 0.000268585 -0.380186 -0.000119546 1.39033 0.000249593
-31.7838 0.000221285 -0.466237 -0.000146604 1.18482 0.000212701
-31.7881 0.000178025 -0.552695 -0.00017379 0.951794 0.000170867
-31.792 0.000139016 -0.637357 -0.000200411 0.692682 0.000124351
-31.7958 0.00010141 -0.724392 -0.000227778 0.410624 7.37157e-05
-31.7984 7.55933e-05 -0.819224 -0.000257598 0.111589 2.00326e-05
-31.8012 4.76526e-05 -0.911977 -0.000286763 -0.124501 -2.23506e-05
-31.804 1.9718e-05 -0.993183 -0.000312297 -0.334897 -6.01211e-05
-31.8066 -6.81114e-06 -1.08263 -0.000340424 -0.54794 -9.83669e-05
-31.8094 -3.42897e-05 -1.16984 -0.000367845 -0.756832 -0.000135867
-31.812 -6.05358e-05 -1.2607 -0.000396414 -0.950652 -0.000170662
-31.8147 -8.68271e-05 -1.35093 -0.000424789 -1.14817 -0.000206122
-31.8172 -0.000112434 -1.44276 -0.000453661 -1.35182 -0.00024268
-31.8197 -0.000137396 -1.53597 -0.000482971 -1.54883 -0.000278048
-31.8222 -0.000161613 -1.63062 -0.000512732 -1.72957 -0.000310494
-31.8245 -0.000185188 -1.72585 -0.000542677 -1.89962 -0.000341021
-31.8267 -0.00020663 -1.82213 -0.000572952 -2.06435 -0.000370595
-31.8285 -0.000225151 -1.91959 -0.000603598 -2.21989 -0.000398517
-31.8301 -0.000240594 -2.01568 -0.000633812 -2.36074 -0.000423803
-31.8314 -0.0002535 -2.10999 -0.000663469 -2.48695 -0.000446461
-31.8325 -0.000264303 -2.20155 -0.000692257 -2.60344 -0.000467372
-31.8334 -0.000273101 -2.28879 -0.00071969 -2.71144 -0.00048676
-31.8341 -0.00028013 -2.37006 -0.000745242 -2.80879 -0.000504238
-31.8346 -0.000285687 -2.44413 -0.000768535 -2.89499 -0.000519712
-31.835 -0.000289981 -2.50987 -0.000789205 -2.9725 -0.000533627
-31.8354 -0.000293216 -2.566 -0.000806854 -3.04324 -0.000546325
-31.8356 -0.000295541 -2.61149 -0.00082116 -3.10676 -0.000557729
-31.8357 -0.000296968 -2.64579 -0.000831946 -3.1621 -0.000567664
-31.8358 -0.000297432 -2.6686 -0.000839117 -3.20947 -0.000576167
-31.8347 -0.000296904 -2.67968 -0.000842602 -3.24934 -0.000583326
-31.8312 -0.000295145 -2.67951 -0.000842547 -3.28169 -0.000589134
-31.8234 -0.000291203 -2.66584 -0.00083825 -3.30347 -0.000593044
-31.8125 -0.000285722 -2.63793 -0.000829474 -3.31348 -0.000594841
-31.8027 -0.00028076 -2.59872 -0.000817145 -3.31017 -0.000594246
-31.7965 -0.000277653 -2.55915 -0.0008047 -3.28893 -0.000590433
-31.7883 -0.000273545 -2.51128 -0.000789648 -3.24191 -0.000581991
-31.7797 -0.000269204 -2.44959 -0.000770251 -3.16572 -0.000568314
-31.7736 -0.000266141 -2.38211 -0.000749032 -3.0609 -0.000549497
-31.7689 -0.000263764 -2.3153 -0.000728025 -2.92719 -0.000525494
-31.766 -0.000262334 -2.24465 -0.000705809 -2.76206 -0.000495848
-31.765 -0.000261823 -2.16448 -0.000680601 -2.56607 -0.000460664
-31.7486 -0.000253564 -2.08829 -0.000656645 -2.33747 -0.000419625
-31.7444 -0.000251445 -2.0122 -0.000632719 -2.08412 -0.000374143
-31.7407 -0.000249585 -1.93711 -0.000609106 -1.80701 -0.000324396
-31.7414 -0.000249915 -1.85959 -0.000584731 -1.50889 -0.000270878
-31.7477 -0.000253089 -1.7828 -0.000560585 -1.19397 -0.000214342
-31.7565 -0.00025755 -1.70807 -0.000537087 -0.869578 -0.000156108
-31.7679 -0.000263286 -1.63516 -0.000514162 -0.539224 -9.68022e-05
-31.781 -0.000269885 -1.56359 -0.000491657 -0.207551 -3.72598e-05
-31.794 -0.00027641 -1.4954 -0.000470214 0.01905 3.41988e-06
-31.8029 -0.000280879 -1.44072 -0.000453022 0.176395 3.16667e-05
-31.8106 -0.000284779 -1.38509 -0.000435528 0.336309 6.03747e-05
-31.8115 -0.000285215 -1.33564 -0.00041998 0.493992 8.8682e-05
-31.8062 -0.000282551 -1.28587 -0.000404331 0.622503 0.000111753
-31.7937 -0.00027624 -1.23925 -0.000389672 0.733868 0.000131745
-31.7738 -0.000266241 -1.19609 -0.000376099 0.840732 0.000150929
-31.7457 -0.000252078 -1.15569 -0.000363395 0.940084 0.000168765
-31.7079 -0.000233064 -1.11671 -0.000351139 1.01755 0.000182671
-31.6588 -0.000208379 -1.07951 -0.000339443 1.07126 0.000192314
-31.5969 -0.000177192 -1.04455 -0.000328448 1.10948 0.000199175
-31.5197 -0.000138351 -1.01152 -0.000318062 1.13529 0.000203809
-31.4238 -9.01234e-05 -0.979927 -0.000308129 1.13965 0.000204591
-31.304 -2.98161e-05 -0.950598 -0.000298907 1.10817 0.00019894
-31.1522 4.65751e-05 -0.923504 -0.000290388 1.04632 0.000187838
-30.9547 0.000145972 -0.898358 -0.000282481 0.959676 0.000172282
-30.6827 0.000282856 -0.874382 -0.000274942 0.847783 0.000152195
-30.2584 0.000496399 -0.851088 -0.000267617 0.711127 0.000127662
-29.3246 0.000966321 -0.828234 -0.000260431 0.555449 9.97149e-05
-24.6367 0.00332556 -0.807969 -0.000254059 0.389147 6.98602e-05
-16.024 0.00765997 -0.790067 -0.00024843 0.218305 3.91903e-05
-9.09506 0.011147 -0.754517 -0.000237251 0.0441369 7.92351e-06
-2.08438 0.0146752 -0.723104 -0.000227373 -0.093491 -1.67836e-05
0.0614325 0.0197525 -0.694498 -0.000218379 -0.222274 -3.99029e-05
0.216915 0.0299479 -0.671509 -0.00021115 -0.334501 -6.005e-05
0.471402 0.0466353 -0.653241 -0.000205406 -0.42042 -7.54743e-05
0.780195 0.0668836 -0.637903 -0.000200583 -0.492827 -8.84729e-05
1.08031 0.0865626 -0.619111 -0.000194674 -0.557485 -0.00010008
1.35405 0.104513 -0.59651 -0.000187567 -0.606426 -0.000108866
1.6214 0.122044 -0.570674 -0.000179443 -0.632666 -0.000113577
1.88921 0.139605 -0.539786 -0.000169731 -0.637493 -0.000114444
2.14143 0.156144 -0.503236 -0.000158238 -0.620665 -0.000111423
2.36982 0.171119 -0.461752 -0.000145194 -0.575203 -0.000103261
2.58432 0.185185 -0.415801 -0.000130745 -0.496426 -8.91191e-05
2.79219 0.198816 -0.363728 -0.000114371 -0.384249 -6.8981e-05
2.98875 0.211704 -0.305466 -9.60509e-05 -0.241336 -4.3325e-05
3.17152 0.223689 -0.243928 -7.6701e-05 -0.070142 -1.2592e-05
3.34761 0.235236 -0.182902 -5.7512e-05 0.121514 2.18143e-05
3.52448 0.246834 -0.120859 -3.8003e-05 0.260329 4.67345e-05
3.70683 0.258791 -0.0577821 -1.8169e-05 0.391328 7.02516e-05
3.90556 0.271822 0.00950132 2.9876e-06 0.546613 9.81286e-05
4.13395 0.286798 0.0907827 2.85458e-05 0.721751 0.00012957
4.35644 0.301387 0.166611 5.23893e-05 0.894582 0.000160596
4.57018 0.315403 0.24005 7.54817e-05 1.06226 0.000190699
4.79696 0.330274 0.322428 0.000101385 1.24133 0.000222845
5.04209 0.346348 0.409933 0.0001289 1.43105 0.000256904
5.28992 0.362598 0.496317 0.000156063 1.61803 0.00029047
5.53732 0.378821 0.584079 0.000183658 1.79789 0.000322759
5.79582 0.395772 0.676764 0.000212802 1.97565 0.00035467
6.06884 0.413674 0.771644 0.000242637 2.15261 0.00038644
6.34977 0.432095 0.865773 0.000272234 2.32397 0.000417203
6.63786 0.450986 0.96 0.000301863 2.48629 0.000446342
6.93926 0.47075 1.05489 0.000331701 2.64013 0.00047396
7.25513 0.491462 1.14862 0.000361172 2.78651 0.000500237
7.58087 0.512822 1.23976 0.000389832 2.92439 0.000524991
7.91481 0.534719 1.32846 0.000417723 3.05209 0.000547915
8.25889 0.557281 1.41457 0.0004448 3.16899 0.000568901
8.61198 0.580434 1.49719 0.000470777 3.27547 0.000588016
8.93253 0.603866 1.5759 0.000495526 3.3717 0.000605293
8.93253 0.628321 1.64892 0.000518488 3.45784 0.000620757
8.93253 0.653621 1.7168 0.000539831 3.53395 0.000634419
8.93253 0.6784 1.78213 0.000560376 3.59775 0.000645872
8.93253 0.701981 1.84328 0.000579603 3.65142 0.000655507
8.93253 0.724846 1.90015 0.000597484 3.69468 0.000663274
8.93253 0.748052 1.95037 0.000613277 3.72923 0.000669476
8.93253 0.771253 1.99419 0.000627056 3.75538 0.000674171
8.93253 0.793298 2.03354 0.000639429 3.77222 0.000677194
8.93253 0.814064 2.06681 0.000649889 3.78181 0.000678916
8.93253 0.83407 2.09418 0.000658496 3.78159 0.000678876
8.93253 0.852888 2.11605 0.000665373 3.77074 0.000676929
8.93253 0.869927 2.13345 0.000670844 3.74871 0.000672973
8.93253 0.885584 2.14489 0.000674441 3.71819 0.000667495
8.93253 0.900308 2.1514 0.000676489 3.6792 0.000660494
8.93253 0.913813 2.15338 0.00067711 3.6331 0.000652219
8.93253 0.925539 2.15196 0.000676666 3.58019 0.00064272
8.93253 0.933657 2.15336 0.000677104 3.5202 0.00063195
8.93253 0.941492 2.14968 0.000675946 3.45608 0.00062044
8.93253 0.948301 2.1412 0.000673281 3.39072 0.000608707
8.93253 0.952493 2.13401 0.00067102 3.31672 0.000595422
8.93253 0.95544 2.12177 0.000667171 3.24197 0.000582002
8.93253 0.957746 2.1076 0.000662715 3.16647 0.000568449
8.93253 0.958887 2.09146 0.00065764 3.09182 0.000555047
8.32681 0.958583 2.0741 0.000652183 3.01704 0.000541623
7.46892 0.958151 2.0519 0.000645203 2.94667 0.00052899
6.26625 0.957546 2.02842 0.000637819 2.8799 0.000517002
4.50415 0.956659 2.0011 0.000629229 2.81999 0.000506249
2.37988 0.95559 1.97089 0.000619729 2.76525 0.000496421
-0.00429097 0.954268 1.93808 0.000609411 2.71619 0.000487614
-0.111551 0.951158 1.90506 0.000599028 2.67186 0.000479655
-0.357747 0.944019 1.87565 0.000589781 2.62939 0.000472032
-0.735501 0.933066 1.84815 0.000581134 2.58974 0.000464913
-1.17192 0.920412 1.82023 0.000572356 2.55484 0.000458648
-1.64508 0.906693 1.79243 0.000563613 2.52441 0.000453185
-2.19381 0.890782 1.76545 0.00055513 2.49773 0.000448395
-2.83202 0.872277 1.73855 0.000546671 2.47491 0.000444298
-3.5373 0.851828 1.71089 0.000537974 2.45653 0.000440999
-4.30264 0.829637 1.68177 0.000528816 2.44281 0.000438536
-5.14052 0.805342 1.65035 0.000518937 2.43346 0.000436857
-6.05555 0.778811 1.61555 0.000507996 2.42846 0.000435959
-7.03577 0.750389 1.57644 0.000495697 2.42755 0.000435797
-8.07092 0.720375 1.53175 0.000481646 2.43059 0.000436342
-9.16424 0.688674 1.48129 0.000465778 2.43571 0.000437262
-10.3184 0.655209 1.42434 0.00044787 2.44166 0.000438329
-11.5291 0.620104 1.36058 0.000427822 2.4466 0.000439218
-12.7908 0.58352 1.28971 0.000405538 2.44851 0.000439559
-14.1014 0.545522 1.21159 0.000380973 2.4448 0.000438893
-15.4575 0.5062 1.12609 0.000354089 2.43284 0.000436746
-16.8536 0.46572 1.03332 0.000324918 2.40996 0.000432638
-18.2822 0.424298 0.935036 0.000294014 2.37275 0.000425959
-19.7194 0.382625 0.837307 0.000263284 2.31408 0.000415426
-21.0996 0.342606 0.72158 0.000226894 2.24619 0.000403239
-22.5057 0.301838 0.608943 0.000191477 2.1465 0.000385343
-23.9109 0.261092 0.48733 0.000153237 2.02376 0.000363308
-25.2457 0.22239 0.357542 0.000112426 1.87445 0.000336503
-26.5539 0.184457 0.227329 7.14816e-05 1.69523 0.000304329
-27.8043 0.148202 0.0904619 2.84449e-05 1.48843 0.000267205
-28.9707 0.114382 -0.0419079 -1.31776e-05 1.25657 0.00022558
-30.083 0.0821319 -0.181767 -5.7155e-05 0.996199 0.000178839
-31.1175 0.0521373 -0.311165 -9.7843e-05 0.714748 0.000128313
-32.0454 0.0252305 -0.425626 -0.000133834 0.41524 7.45445e-05
-32.885 0.000888593 -0.545347 -0.000171479 0.0872266 1.5659e-05
-32.899 0.00048271 -0.753546 -0.000236946 -0.167779 -3.01199e-05
-32.9063 0.00026833 -0.863974 -0.000271669 -0.361948 -6.49773e-05
-32.9124 9.17035e-05 -1.01922 -0.000320485 -0.558238 -0.000100216
-32.9168 -3.48187e-05 -1.1708 -0.000368146 -0.787652 -0.0001414
-32.9198 -0.000121181 -1.3259 -0.000416917 -1.00218 -0.000179913
-32.9229 -0.000212753 -1.46704 -0.000461297 -1.20963 -0.000217154
-32.9258 -0.000295539 -1.61074 -0.000506482 -1.4357 -0.000257739
-32.9283 -0.00036717 -1.76032 -0.000553518 -1.67984 -0.000301566
-32.9308 -0.000440014 -1.91147 -0.000601045 -1.91279 -0.000343386
-32.9333 -0.000511801 -2.05991 -0.000647721 -2.1348 -0.000383243
-32.9356 -0.000580439 -2.2112 -0.000695291 -2.36015 -0.000423697
-32.7293 -0.000589413 -2.38601 -0.00075026 -2.40467 -0.000431689
-32.3711 -0.000409164 -2.72894 -0.00085809 -2.94765 -0.000529166
-32.9207 -0.000685748 -2.93639 -0.000923322 -2.99644 -0.000537925
-32.9188 -0.000750959 -3.01454 -0.000947893 -2.93885 -0.000527587
-32.8843 -0.000733596 -3.1374 -0.000986526 -3.04369 -0.000546407
-32.9458 -0.000874724 -3.47313 -0.00109209 -2.8254 -0.00050722
-32.9496 -0.000985147 -3.71339 -0.00116764 -3.18176 -0.000571193
-32.9514 -0.00103785 -3.89153 -0.00122366 -3.48082 -0.000624882
-32.9549 -0.00114073 -4.13884 -0.00130142 -3.53923 -0.000635366
-32.9557 -0.00116295 -4.35136 -0.00136825 -3.38449 -0.000607588
-32.951 -0.00116421 -4.49377 -0.00141303 -3.47453 -0.000623752
-32.956 -0.00117218 -4.51982 -0.00142122 -3.61211 -0.000648451
-32.9567 -0.00119121 -4.51218 -0.00141882 -3.62426 -0.000650631
-32.9571 -0.00120276 -4.51044 -0.00141827 -3.5533 -0.000637893
-32.9575 -0.00121431 -4.49549 -0.00141357 -3.4871 -0.000626009
-32.958 -0.00123064 -4.46042 -0.00140254 -3.66308 -0.000657601
-20.9442 0.00480782 -4.44329 -0.00139715 -3.89593 -0.000699403
-29.4039 0.0005504 -2.93165 -0.000921832 -4.68618 -0.000841269
-7.90962 0.0176057 -4.64123 -0.00145939 -3.44373 -0.000618224
-20.6046 0.000456628 -4.05294 -0.00127441 -4.29551 -0.000771136
-20.7673 0.000287813 -4.10958 -0.00129222 -4.16243 -0.000747245
-20.7217 0.000310743 -4.24886 -0.00133602 -4.39554 -0.000789094
-20.7876 0.000260429 -4.24604 -0.00133513 -4.52973 -0.000813184
-20.8276 0.000206606 -4.08618 -0.00128486 -4.58373 -0.000822877
-20.8376 0.000193088 -4.00975 -0.00126083 -4.75844 -0.000854242
-20.8599 0.00016303 -4.03113 -0.00126755 -5.07533 -0.00091113
-20.8865 0.000127303 -4.01878 -0.00126367 -5.22566 -0.000938117
-20.9016 0.000106937 -3.94856 -0.00124159 -5.31785 -0.000954666
-20.9169 8.62949e-05 -3.90289 -0.00122723 -5.52895 -0.000992563
-20.9356 6.11503e-05 -3.9002 -0.00122638 -5.83492 -0.00104749
-20.9432 5.09115e-05 -3.90005 -0.00122634 -6.12633 -0.00109981
-20.9497 4.2125e-05 -3.88794 -0.00122253 -6.28813 -0.00112885
-20.9584 3.0367e-05 -3.87583 -0.00121872 -6.23958 -0.00112014
-20.9627 2.45752e-05 -3.79088 -0.00119201 -6.36995 -0.00114354
-19.8297 0.000592677 -0.152923 -4.80851e-05 -5.32861 -0.000956599
-17.7361 0.00164633 0.128827 4.05086e-05 -4.43173 -0.000795589
-20.7212 0.000100811 0.0797063 2.50629e-05 -6.42122 -0.00115275
-20.7986 6.18532e-05 -0.190752 -5.99802e-05 -6.3181 -0.00113423
-20.978 -2.83898e-05 -0.103924 -3.2678e-05 -6.07305 -0.00109024
-20.9575 -1.81076e-05 -0.299213 -9.40849e-05 -6.14758 -0.00110362
-20.9204 5.90705e-07 -0.363956 -0.000114443 -6.48015 -0.00116333
-20.9438 -1.1204e-05 -0.256195 -8.05581e-05 -6.51589 -0.00116974
-20.9408 -9.66269e-06 -0.239271 -7.52367e-05 -6.23745 -0.00111975
-20.9273 -2.86985e-06 -0.331363 -0.000104194 -6.13874 -0.00110203
-20.9284 -3.45002e-06 -0.374663 -0.000117809 -6.2986 -0.00113073
-20.9234 -9.0397e-07 -0.349159 -0.00010979 -1.48774 -0.000267081
-20.9224 -4.29531e-07 -0.343381 -0.000107973 -1.7697 -0.000317699
-20.7457 8.85168e-05 -0.444758 -0.00013985 -1.87075 -0.000335839
-20.906 7.81095e-06 -0.453813 -0.000142697 -1.61724 -0.000290329
-20.9016 1.00309e-05 -0.433963 -0.000136456 -1.37845 -0.000247462
-20.8702 2.58524e-05 -0.470708 -0.00014801 -1.37681 -0.000247166
-20.892 1.48941e-05 -0.522743 -0.000164372 -1.52957 -0.00027459
-20.8845 1.86636e-05 -0.541734 -0.000170343 -1.5206 -0.000272979
-20.8658 2.80571e-05 -0.554668 -0.00017441 -1.33694 -0.00024001
-20.8686 2.66559e-05 -0.579538 -0.00018223 -1.21048 -0.000217307
-20.8726 2.46342e-05 -0.605981 -0.000190545 -1.24578 -0.000223644
-20.8631 2.94215e-05 -0.630046 -0.000198112 -1.28149 -0.000230055
-20.8628 2.95755e-05 -0.649471 -0.00020422 -1.20412 -0.000216165
-20.8718 2.50607e-05 -0.663012 -0.000208478 -1.09332 -0.000196275
-20.8724 2.47223e-05 -0.677383 -0.000212997 -1.05458 -0.00018932
-20.8756 2.31152e-05 -0.695629 -0.000218734 -1.06245 -0.000190733
-20.8855 1.81374e-05 -0.708161 -0.000222675 -1.04157 -0.000186983
-20.8943 1.3715e-05 -0.713237 -0.000224271 -0.982229 -0.000176331
-20.9021 9.81143e-06 -0.720366 -0.000226513 -0.928517 -0.000166689
-20.8076 5.7341e-05 -0.727756 -0.000228836 -0.9096 -0.000163293
-20.8244 4.89102e-05 -0.731281 -0.000229945 -0.902508 -0.000162019
-20.7722 7.51523e-05 -0.731887 -0.000230135 -0.874926 -0.000157068
