-0.0285883 -1.43873e-05 -0.0785643 -2.47038e-05 -0.0222066 -3.98655e-06
-0.0284052 -1.42952e-05 -0.0785888 -2.47116e-05 -0.0221995 -3.98528e-06
-0.027967 -1.40746e-05 -0.0786492 -2.47305e-05 -0.0221631 -3.97875e-06
-0.0270525 -1.36144e-05 -0.0787171 -2.47519e-05 -0.0221208 -3.97116e-06
-0.0259964 -1.30829e-05 -0.0787814 -2.47721e-05 -0.0220945 -3.96644e-06
-0.0246172 -1.23888e-05 -0.0788471 -2.47928e-05 -0.0220965 -3.96679e-06
-0.0228777 -1.15134e-05 -0.078893 -2.48072e-05 -0.0221382 -3.97427e-06
-0.0207364 -1.04358e-05 -0.0788906 -2.48064e-05 -0.0222394 -3.99244e-06
-0.0181488 -9.13355e-06 -0.0788187 -2.47838e-05 -0.0224222 -4.02527e-06
-0.0150667 -7.58246e-06 -0.0786596 -2.47338e-05 -0.0227079 -4.07654e-06
-0.011443 -5.75878e-06 -0.0783874 -2.46482e-05 -0.0231134 -4.14935e-06
-0.00723965 -3.64342e-06 -0.0779672 -2.45161e-05 -0.0236521 -4.24606e-06
-0.00246494 -1.2405e-06 -0.0773619 -2.43257e-05 -0.0243361 -4.36885e-06
0.0028083 1.4133e-06 -0.0765565 -2.40725e-05 -0.0251602 -4.51679e-06
0.00825854 4.15618e-06 -0.0754716 -2.37314e-05 -0.0261575 -4.69583e-06
0.0141143 7.10314e-06 -0.0740848 -2.32953e-05 -0.0273063 -4.90206e-06
0.0202752 1.02037e-05 -0.0723492 -2.27495e-05 -0.0285922 -5.13291e-06
0.026616 1.33947e-05 -0.0702228 -2.20809e-05 -0.0299801 -5.38207e-06
0.0329848 1.65999e-05 -0.0676792 -2.12811e-05 -0.0314176 -5.64013e-06
0.0392249 1.97403e-05 -0.0647059 -2.03462e-05 -0.0328246 -5.89272e-06
0.0451764 2.27354e-05 -0.0613026 -1.9276e-05 -0.0341167 -6.12467e-06
0.0506494 2.54898e-05 -0.05748 -1.80741e-05 -0.0351646 -6.31279e-06
0.0554126 2.78869e-05 -0.0532627 -1.6748e-05 -0.03582 -6.43045e-06
0.0591893 2.97875e-05 -0.0490306 -1.54172e-05 -0.0359271 -6.44968e-06
0.0616553 3.10286e-05 -0.0455599 -1.43259e-05 -0.0353299 -6.34247e-06
0.0624561 3.14316e-05 -0.0419921 -1.3204e-05 -0.0338679 -6.08e-06
0.0612783 3.08388e-05 -0.0383526 -1.20596e-05 -0.0313477 -5.62758e-06
0.0579208 2.91491e-05 -0.034671 -1.0902e-05 -0.0275593 -4.94749e-06
0.052389 2.63652e-05 -0.0311147 -9.78373e-06 -0.0222832 -4.00031e-06
0.044851 2.25716e-05 -0.027811 -8.74492e-06 -0.0153333 -2.75266e-06
0.0351523 1.76907e-05 -0.0248773 -7.82244e-06 -0.00784233 -1.40786e-06
0.0233073 1.17296e-05 -0.0224682 -7.06493e-06 3.03641e-05 5.451e-09
0.0102757 5.17135e-06 -0.0206492 -6.49294e-06 0.00932501 1.67404e-06
-0.00377136 -1.89797e-06 -0.0195552 -6.14897e-06 0.0199471 3.58092e-06
-0.0185989 -9.36007e-06 -0.0192807 -6.06265e-06 0.031802 5.70913e-06
-0.0340237 -1.71227e-05 -0.019845 -6.24008e-06 0.0446909 8.02296e-06
-0.0500346 -2.51804e-05 -0.0212503 -6.68197e-06 0.0583392 1.04731e-05
-0.0665204 -3.3477e-05 -0.0235436 -7.40307e-06 0.0724164 1.30003e-05
-0.0832676 -4.19051e-05 -0.0267238 -8.40307e-06 0.0864777 1.55246e-05
-0.100188 -5.04204e-05 -0.0333996 -1.05022e-05 0.100027 1.7957e-05
-0.117152 -5.89579e-05 -0.0414574 -1.30359e-05 0.112737 2.02387e-05
-0.133916 -6.73946e-05 -0.0504008 -1.58481e-05 0.124092 2.22772e-05
-0.150167 -7.55729e-05 -0.0600705 -1.88886e-05 0.133625 2.39886e-05
-0.165542 -8.33107e-05 -0.0703188 -2.21111e-05 0.140897 2.5294e-05
-0.179642 -9.04065e-05 -0.080979 -2.54631e-05 0.145517 2.61234e-05
-0.192103 -9.66775e-05 -0.0918627 -2.88854e-05 0.14713 2.64129e-05
-0.202751 -0.000102036 -0.102806 -3.23266e-05 0.145437 2.61091e-05
-0.211614 -0.000106497 -0.11377 -3.57739e-05 0.140119 2.51543e-05
-0.218904 -0.000110166 -0.124417 -3.91218e-05 0.131038 2.35241e-05
-0.225076 -0.000113272 -0.134489 -4.22888e-05 0.118108 2.12029e-05
-0.232248 -0.000116881 -0.146113 -4.5944e-05 0.0965144 1.73264e-05
-0.240297 -0.000120932 -0.156587 -4.92373e-05 0.0691011 1.24051e-05
-0.250885 -0.00012626 -0.165806 -5.21361e-05 0.0364536 6.54419e-06
-0.265474 -0.000133602 -0.173881 -5.46752e-05 -0.000526891 -9.45882e-08
-0.285101 -0.00014348 -0.181299 -5.70078e-05 -0.0489576 -8.78893e-06
-0.310278 -0.00015615 -0.188771 -5.93573e-05 -0.107447 -1.9289e-05
-0.340879 -0.00017155 -0.197124 -6.1984e-05 -0.166351 -2.98636e-05
-0.376168 -0.00018931 -0.207265 -6.51725e-05 -0.223042 -4.00408e-05
-0.415092 -0.000208899 -0.220224 -6.92473e-05 -0.275182 -4.94011e-05
-0.45676 -0.000229868 -0.236878 -7.44842e-05 -0.321283 -5.76771e-05
-0.500685 -0.000251974 -0.257786 -8.10584e-05 -0.360187 -6.46613e-05
-0.546722 -0.000275143 -0.283251 -8.90657e-05 -0.391153 -7.02204e-05
-0.594868 -0.000299372 -0.313328 -9.85232e-05 -0.414135 -7.4346e-05
-0.645098 -0.000324651 -0.347779 -0.000109356 -0.42987 -7.71708e-05
-0.697197 -0.00035087 -0.386105 -0.000121407 -0.439734 -7.89416e-05
-0.750568 -0.00037773 -0.427661 -0.000134474 -0.44542 -7.99624e-05
-0.804268 -0.000404755 -0.471676 -0.000148314 -0.448958 -8.05975e-05
-0.857303 -0.000431445 -0.517228 -0.000162638 -0.45267 -8.12639e-05
-0.908898 -0.000457411 -0.563291 -0.000177122 -0.459075 -8.24138e-05
-0.958538 -0.000482393 -0.608826 -0.00019144 -0.470601 -8.44828e-05
-1.00582 -0.000506187 -0.652846 -0.000205282 -0.489403 -8.78583e-05
-1.05018 -0.000528513 -0.694488 -0.000218376 -0.517237 -9.28551e-05
-1.09078 -0.000548946 -0.733087 -0.000230513 -0.555354 -9.96979e-05
-1.12673 -0.000567039 -0.768167 -0.000241543 -0.604398 -0.000108502
-1.15738 -0.000582464 -0.799437 -0.000251376 -0.664374 -0.000119269
-1.18241 -0.000595058 -0.826794 -0.000259978 -0.734656 -0.000131886
-1.20181 -0.000604823 -0.850288 -0.000267366 -0.814042 -0.000146138
-1.21592 -0.000611924 -0.870104 -0.000273596 -0.9008 -0.000161713
-1.22537 -0.000616678 -0.886548 -0.000278767 -0.992738 -0.000178218
-1.23102 -0.00061952 -0.900034 -0.000283008 -1.0873 -0.000195193
-1.23386 -0.000620949 -0.911057 -0.000286474 -1.18169 -0.000212138
-1.23496 -0.000621502 -0.920147 -0.000289332 -1.273 -0.00022853
-1.23546 -0.000621756 -0.927842 -0.000291752 -1.35836 -0.000243855
-1.23664 -0.000622348 -0.934649 -0.000293892 -1.43508 -0.000257628
-1.23982 -0.000623949 -0.941024 -0.000295896 -1.50075 -0.000269416
-1.24622 -0.00062717 -0.947361 -0.000297889 -1.55333 -0.000278855
-1.25661 -0.000632401 -0.954018 -0.000299982 -1.59123 -0.00028566
-1.27105 -0.000639666 -0.961317 -0.000302278 -1.61338 -0.000289636
-1.28883 -0.000648613 -0.969513 -0.000304855 -1.61923 -0.000290685
-1.30875 -0.000658638 -0.978731 -0.000307753 -1.60888 -0.000288829
-1.32525 -0.000666945 -0.986823 -0.000310298 -1.58945 -0.000285341
-1.34531 -0.000677041 -0.997652 -0.000313703 -1.5524 -0.000278689
-1.36338 -0.000686134 -1.00887 -0.000317229 -1.50304 -0.000269827
-1.37811 -0.000693545 -1.01982 -0.000320673 -1.44389 -0.00025921
-1.38813 -0.000698588 -1.02972 -0.000323785 -1.37792 -0.000247366
-1.39198 -0.000700524 -1.03766 -0.000326281 -1.30831 -0.000234869
-1.38816 -0.000698604 -1.04266 -0.000327854 -1.23831 -0.000222303
-1.37523 -0.000692097 -1.04374 -0.000328193 -1.1711 -0.000210237
-1.3518 -0.000680307 -1.03995 -0.000327004 -1.10954 -0.000199187
-1.31667 -0.000662627 -1.03045 -0.000324015 -1.0561 -0.000189592
-1.26889 -0.000638582 -1.01445 -0.000318986 -1.01263 -0.000181789
-1.20781 -0.000607842 -0.991381 -0.000311731 -0.980344 -0.000175993
-1.13316 -0.000570273 -0.960792 -0.000302113 -0.959668 -0.000172281
-1.0453 -0.000526055 -0.922404 -0.000290042 -0.950267 -0.000170593
-0.945423 -0.000475792 -0.876081 -0.000275476 -0.951035 -0.000170731
-0.835488 -0.000420466 -0.82189 -0.000258436 -0.960114 -0.000172361
-0.717743 -0.000361211 -0.760156 -0.000239024 -0.974892 -0.000175014
-0.594523 -0.000299199 -0.691437 -0.000217416 -0.992081 -0.0001781
-0.468284 -0.000235668 -0.616513 -0.000193857 -1.00788 -0.000180937
-0.341599 -0.000171912 -0.53639 -0.000168663 -1.01817 -0.000182783
-0.217055 -0.000109235 -0.452259 -0.000142209 -1.01864 -0.000182868
-0.0970871 -4.88599e-05 -0.365425 -0.000114905 -1.00508 -0.000180433
0.016354 8.23031e-06 -0.277207 -8.71651e-05 -0.973526 -0.000174769
0.118448 5.96099e-05 -0.197337 -6.2051e-05 -0.920347 -0.000165222
0.209066 0.000105214 -0.132342 -4.16136e-05 -0.843701 -0.000151462
0.290819 0.000146357 -0.0676178 -2.12618e-05 -0.740976 -0.000133021
0.36266 0.000182512 -0.00342701 -1.07759e-06 -0.611307 -0.000109743
0.424204 0.000213484 0.0590765 1.85761e-05 -0.455745 -8.1816e-05
0.474966 0.000239031 0.119187 3.74774e-05 -0.27568 -4.94905e-05
0.514815 0.000259085 0.177256 5.57365e-05 -0.0738599 -1.32594e-05
0.544848 0.000274199 0.233008 7.32672e-05 0.10812 1.94098e-05
0.566831 0.000285263 0.285937 8.99104e-05 0.27456 4.92893e-05
0.583019 0.00029341 0.336133 0.000105694 0.447694 8.03706e-05
0.595931 0.000299907 0.383956 0.000120731 0.623137 0.000111866
0.608196 0.00030608 0.429335 0.000135001 0.796243 0.000142943
0.622592 0.000313325 0.472218 0.000148485 0.961958 0.000172692
0.641948 0.000323066 0.51298 0.000161302 1.11644 0.000200425
0.668941 0.000336651 0.551935 0.000173551 1.25629 0.000225531
0.705834 0.000355217 0.589247 0.000185284 1.37789 0.000247361
0.754186 0.000379551 0.625192 0.000196586 1.4778 0.000265297
0.814571 0.00040994 0.660173 0.000207585 1.55385 0.000278949
0.886537 0.000446157 0.694517 0.000218385 1.60476 0.000288089
0.968872 0.000487593 0.728407 0.000229041 1.63007 0.000292632
1.05992 0.000533414 0.761971 0.000239595 1.63 0.000292619
1.15776 0.000582654 0.795255 0.000250061 1.60595 0.000288302
1.26035 0.000634284 0.828097 0.000260388 1.56043 0.00028013
1.36558 0.000687239 0.860147 0.000270465 1.49682 0.000268711
1.47128 0.000740433 0.890946 0.00028015 1.41908 0.000254754
1.57531 0.000792787 0.919949 0.00028927 1.33166 0.000239062
1.67555 0.000843237 0.946529 0.000297628 1.23939 0.000222497
1.76985 0.000890694 0.970053 0.000305024 1.14715 0.000205938
1.85603 0.000934062 0.989938 0.000311277 1.05956 0.000190213
1.93204 0.000972315 1.00568 0.000316228 0.980771 0.000176069
1.99615 0.00100458 1.01691 0.000319758 0.914354 0.000164146
2.03801 0.00102565 1.0241 0.000322019 0.863187 0.00015496
2.07106 0.00104228 1.0313 0.000324282 0.82815 0.00014867
2.09613 0.0010549 1.0357 0.000325666 0.810462 0.000145495
2.09276 0.0010532 1.02853 0.000323411 0.813095 0.000145968
2.08191 0.00104774 1.0183 0.000320196 0.829665 0.000148943
2.05683 0.00103512 1.00786 0.000316913 0.85955 0.000154308
1.99444 0.00100372 0.995835 0.000313131 0.899606 0.000161498
1.92308 0.000967805 0.973905 0.000306236 0.955012 0.000171445
1.84794 0.00092999 0.956563 0.000300783 1.01246 0.000181759
1.76561 0.000888559 0.936834 0.000294579 1.07464 0.000192921
1.67942 0.00084518 0.914061 0.000287418 1.13745 0.000204196
1.59609 0.000803244 0.891041 0.00028018 1.19734 0.000214948
1.51597 0.000762923 0.86855 0.000273108 1.2506 0.000224509
1.44242 0.000725911 0.846027 0.000266026 1.29345 0.000232201
1.37913 0.000694058 0.82359 0.00025897 1.32363 0.000237619
1.32769 0.000668173 0.802056 0.000252199 1.33957 0.000240482
1.28995 0.00064918 0.782143 0.000245938 1.33915 0.000240406
1.26766 0.000637962 0.76384 0.000240183 1.32075 0.000237102
1.26129 0.000634756 0.74716 0.000234938 1.28437 0.000230571
1.27099 0.000639635 0.732633 0.00023037 1.23092 0.000220977
1.2964 0.000652423 0.720565 0.000226575 1.16145 0.000208505
1.33569 0.000672199 0.710909 0.000223539 1.0775 0.000193434
1.38077 0.000694885 0.704863 0.000221638 0.980986 0.000176108
1.42977 0.000719542 0.701179 0.000220479 0.875648 0.000157197
1.48 0.000744824 0.700201 0.000220172 0.765272 0.000137383
1.52943 0.000769698 0.70175 0.000220659 0.654007 0.000117408
1.56682 0.000788515 0.704314 0.000221465 0.567211 0.000101826
1.60111 0.000805774 0.707556 0.000222485 0.484965 8.70615e-05
1.63128 0.000820954 0.711216 0.000223635 0.409577 7.35279e-05
1.65627 0.000833534 0.715069 0.000224847 0.343136 6.16003e-05
1.67513 0.000843026 0.718805 0.000226022 0.287412 5.15965e-05
1.68702 0.000849006 0.722057 0.000227044 0.243901 4.37855e-05
1.69118 0.000851103 0.724533 0.000227823 0.213865 3.83933e-05
1.68695 0.00084897 0.726059 0.000228303 0.198242 3.55887e-05
1.67365 0.000842278 0.726525 0.000228449 0.197535 3.54618e-05
1.6507 0.00083073 0.725824 0.000228229 0.211766 3.80165e-05
1.61761 0.000814078 0.723877 0.000227617 0.240536 4.31814e-05
1.57409 0.000792172 0.720658 0.000226604 0.283105 5.08233e-05
1.52016 0.000765032 0.716187 0.000225199 0.33842 6.07536e-05
1.45628 0.000732887 0.710497 0.000223409 0.405114 7.27266e-05
1.38335 0.000696185 0.703606 0.000221243 0.481516 8.64424e-05
1.30263 0.000655558 0.695531 0.000218703 0.565708 0.000101557
1.21557 0.000611747 0.686305 0.000215802 0.655587 0.000117692
1.1237 0.00056551 0.675984 0.000212557 0.748912 0.000134446
1.02847 0.000517585 0.664624 0.000208985 0.84334 0.000151397
0.931292 0.000468681 0.652272 0.000205101 0.936465 0.000168115
0.833561 0.000419497 0.63897 0.000200919 1.02589 0.000184169
0.736641 0.000370721 0.62477 0.000196453 1.1093 0.000199143
0.641829 0.000323006 0.609717 0.00019172 1.18451 0.000212645
0.550294 0.00027694 0.59384 0.000186728 1.24952 0.000224316
0.463038 0.000233028 0.577141 0.000181477 1.30258 0.00023384
0.380889 0.000191686 0.559602 0.000175962 1.34216 0.000240947
0.304508 0.000153246 0.541183 0.00017017 1.36708 0.00024542
0.234392 0.00011796 0.521827 0.000164084 1.37648 0.000247107
0.170859 8.59862e-05 0.501456 0.000157678 1.36982 0.000245912
0.11405 5.73966e-05 0.479961 0.000150919 1.34696 0.000241808
0.0639283 3.21725e-05 0.457215 0.000143767 1.30807 0.000234827
0.0202815 1.02068e-05 0.433079 0.000136178 1.25368 0.000225062
-0.0173663 -8.73975e-06 0.407407 0.000128106 1.18461 0.000212662
-0.0522038 -2.6272e-05 0.380039 0.0001195 1.10198 0.000197829
-0.0733179 -3.68979e-05 0.349477 0.00010989 1.00739 0.000180848
-0.0807729 -4.06497e-05 0.313619 9.86145e-05 0.90483 0.000162436
-0.0856527 -4.31055e-05 0.282386 8.87938e-05 0.789641 0.000141757
-0.0872792 -4.3924e-05 0.246066 7.73731e-05 0.668563 0.000120021
-0.0889861 -4.4783e-05 0.207399 6.52148e-05 0.541217 9.716e-05
-0.0899672 -4.52768e-05 0.16695 5.2496e-05 0.410045 7.36118e-05
-0.0909213 -4.57569e-05 0.12605 3.96353e-05 0.276463 4.9631e-05
-0.0941838 -4.73988e-05 0.0839599 2.64004e-05 0.14212 2.55135e-05
-0.1011 -5.08794e-05 0.0398929 1.2544e-05 0.00896911 1.61015e-06
-0.112115 -5.64228e-05 -0.00580899 -1.82658e-06 -0.165796 -2.97638e-05
-0.128111 -6.44731e-05 -0.0524637 -1.64967e-05 -0.340622 -6.11489e-05
-0.150226 -7.56027e-05 -0.0998982 -3.14121e-05 -0.507736 -9.11494e-05
-0.179075 -9.0121e-05 -0.148517 -4.66998e-05 -0.664938 -0.000119371
-0.214699 -0.000108049 -0.203335 -6.39367e-05 -0.809888 -0.000145392
-0.257404 -0.000129541 -0.261903 -8.23531e-05 -0.941974 -0.000169104
-0.307214 -0.000154608 -0.322098 -0.000101281 -1.06049 -0.00019038
-0.363923 -0.000183147 -0.382978 -0.000120424 -1.16489 -0.000209122
-0.427274 -0.000215029 -0.444227 -0.000139683 -1.25464 -0.000225234
-0.496954 -0.000250096 -0.505961 -0.000159095 -1.32966 -0.000238702
-0.572436 -0.000288083 -0.568095 -0.000178632 -1.39028 -0.000249585
-0.652999 -0.000328627 -0.630098 -0.000198129 -1.43722 -0.000258012
-0.737783 -0.000371296 -0.691378 -0.000217397 -1.47143 -0.000264152
-0.82577 -0.000415576 -0.751597 -0.000236333 -1.49402 -0.000268208
-0.915788 -0.000460878 -0.810569 -0.000254876 -1.50625 -0.000270403
-1.00658 -0.000506569 -0.867992 -0.000272932 -1.50951 -0.000270989
-1.09685 -0.000551999 -0.923406 -0.000290357 -1.50539 -0.000270249
-1.18528 -0.000596502 -0.97636 -0.000307008 -1.4956 -0.000268492
-1.27054 -0.00063941 -1.02652 -0.000322781 -1.48193 -0.000266037
-1.35136 -0.000680082 -1.07361 -0.000337586 -1.46608 -0.000263192
-1.42654 -0.00071792 -1.11729 -0.000351322 -1.44967 -0.000260246
-1.49502 -0.00075238 -1.15721 -0.000363873 -1.43424 -0.000257477
-1.55584 -0.000782989 -1.19302 -0.000375133 -1.42128 -0.00025515
-1.60823 -0.000809358 -1.22446 -0.000385021 -1.41211 -0.000253503
-1.65163 -0.000831195 -1.25132 -0.000393466 -1.40781 -0.000252732
-1.68564 -0.000848311 -1.27338 -0.000400403 -1.40922 -0.000252985
-1.71009 -0.000860619 -1.29047 -0.000405776 -1.41687 -0.000254359
-1.72501 -0.000868127 -1.30247 -0.000409549 -1.43107 -0.000256908
-1.73057 -0.000870925 -1.30935 -0.000411712 -1.45182 -0.000260633
-1.72711 -0.000869181 -1.31114 -0.000412276 -1.47882 -0.000265481
-1.71514 -0.000863159 -1.30795 -0.000411273 -1.51146 -0.00027134
-1.69559 -0.000853318 -1.29996 -0.00040876 -1.54882 -0.000278046
-1.66933 -0.000840104 -1.28737 -0.000404803 -1.58974 -0.000285392
-1.63739 -0.000824029 -1.27047 -0.000399487 -1.63285 -0.00029313
-1.601 -0.000805718 -1.24962 -0.000392931 -1.67654 -0.000300974
-1.56144 -0.00078581 -1.22526 -0.000385271 -1.71906 -0.000308607
-1.51993 -0.000764919 -1.19784 -0.000376651 -1.75855 -0.000315697
-1.47771 -0.000743668 -1.1679 -0.000367236 -1.79312 -0.000321904
-1.43604 -0.000722698 -1.13599 -0.000357201 -1.82089 -0.000326889
-1.39618 -0.000702638 -1.10268 -0.000346728 -1.84005 -0.000330328
-1.35931 -0.000684087 -1.06854 -0.000335994 -1.84894 -0.000331923
-1.32657 -0.00066761 -1.03415 -0.000325178 -1.84608 -0.000331411
-1.29897 -0.000653716 -1.00004 -0.000314452 -1.83026 -0.000328571
-1.27735 -0.000642836 -0.966729 -0.000303979 -1.80054 -0.000323236
-1.26241 -0.000635317 -0.934701 -0.000293908 -1.75631 -0.000315296
-1.25468 -0.000631428 -0.904374 -0.000284372 -1.69732 -0.000304706
-1.25454 -0.00063136 -0.876113 -0.000275486 -1.6237 -0.000291489
-1.26224 -0.000635231 -0.850216 -0.000267343 -1.53596 -0.000275738
-1.27684 -0.000642581 -0.827104 -0.000260075 -1.43498 -0.000257609
-1.29358 -0.000651008 -0.8094 -0.000254508 -1.32085 -0.000237121
-1.32157 -0.000665093 -0.792761 -0.000249277 -1.19691 -0.000214871
-1.35553 -0.000682183 -0.778825 -0.000244894 -1.06539 -0.00019126
-1.39628 -0.00070269 -0.767849 -0.000241443 -0.927225 -0.000166457
-1.44327 -0.000726338 -0.758811 -0.000238601 -0.785848 -0.000141076
-1.49387 -0.000751805 -0.752807 -0.000236713 -0.642761 -0.000115389
-1.54709 -0.000778587 -0.74919 -0.000235576 -0.50147 -9.00246e-05
-1.59916 -0.000804792 -0.748888 -0.000235481 -0.364387 -6.54152e-05
-1.6503 -0.000830526 -0.751152 -0.000236193 -0.234261 -4.20549e-05
-1.69739 -0.000854227 -0.755552 -0.000237577 -0.113589 -2.03917e-05
-1.73914 -0.000875235 -0.761817 -0.000239547 -0.0270261 -4.85175e-06
-1.77468 -0.000893124 -0.770028 -0.000242128 0.0400666 7.19281e-06
-1.80217 -0.000906957 -0.779664 -0.000245158 0.0947264 1.70054e-05
-1.81985 -0.000915855 -0.790206 -0.000248473 0.135698 2.43607e-05
-1.82676 -0.000919331 -0.801212 -0.000251934 0.16239 2.91525e-05
-1.82269 -0.000917285 -0.812376 -0.000255444 0.173891 3.12171e-05
-1.80711 -0.000909444 -0.82325 -0.000258864 0.169171 3.03698e-05
-1.7797 -0.000895648 -0.833299 -0.000262023 0.147605 2.64982e-05
-1.74074 -0.000876041 -0.842079 -0.000264784 0.109317 1.96247e-05
-1.69069 -0.000850855 -0.849202 -0.000267024 0.0549415 9.86317e-06
-1.63006 -0.000820342 -0.854329 -0.000268636 -0.0146685 -2.63332e-06
-1.55964 -0.000784902 -0.857311 -0.000269574 -0.111445 -2.00067e-05
-1.48064 -0.000745143 -0.8579 -0.000269759 -0.247306 -4.43967e-05
-1.39444 -0.000701763 -0.855927 -0.000269138 -0.399117 -7.165e-05
-1.30257 -0.000655527 -0.851232 -0.000267662 -0.563276 -0.00010112
-1.20658 -0.000607224 -0.843938 -0.000265369 -0.736311 -0.000132184
-1.10807 -0.000557647 -0.834258 -0.000262325 -0.914858 -0.000164236
-1.00857 -0.000507572 -0.82242 -0.000258603 -1.09539 -0.000196646
-0.909589 -0.000457759 -0.808661 -0.000254276 -1.27398 -0.000228707
-0.812576 -0.000408936 -0.793322 -0.000249453 -1.44642 -0.000259664
-0.718884 -0.000361784 -0.776831 -0.000244268 -1.60859 -0.000288776
-0.629747 -0.000316926 -0.75962 -0.000238856 -1.75672 -0.000315369
-0.5463 -0.00027493 -0.742054 -0.000233332 -1.88748 -0.000338844
-0.469582 -0.000236321 -0.724448 -0.000227796 -1.99788 -0.000358661
-0.400499 -0.000201555 -0.707085 -0.000222337 -2.08521 -0.00037434
-0.33975 -0.000170982 -0.690208 -0.00021703 -2.14726 -0.000385479
-0.287772 -0.000144824 -0.67398 -0.000211927 -2.18239 -0.000391786
-0.24473 -0.000123163 -0.658459 -0.000207046 -2.18968 -0.000393094
-0.210529 -0.000105951 -0.643601 -0.000202374 -2.16884 -0.000389353
-0.184824 -9.30143e-05 -0.629284 -0.000197873 -2.12019 -0.00038062
-0.16703 -8.40594e-05 -0.615306 -0.000193477 -2.04461 -0.000367052
-0.156335 -7.86768e-05 -0.601374 -0.000189097 -1.94356 -0.000348911
-0.151705 -7.63467e-05 -0.587107 -0.00018461 -1.81908 -0.000326563
-0.151892 -7.6441e-05 -0.57206 -0.000179879 -1.67372 -0.000300468
-0.155448 -7.82308e-05 -0.555746 -0.000174749 -1.51043 -0.000271155
-0.160748 -8.08977e-05 -0.537652 -0.00016906 -1.33248 -0.000239209
-0.166031 -8.35567e-05 -0.517247 -0.000162644 -1.14334 -0.000205254
-0.187964 -9.45946e-05 -0.489764 -0.000154002 -0.947824 -0.000170155
-0.204263 -0.000102797 -0.459476 -0.000144478 -0.750598 -0.000134748
-0.218952 -0.000110189 -0.429376 -0.000135014 -0.548733 -9.85092e-05
-0.227033 -0.000114256 -0.392454 -0.000123404 -0.352084 -6.32065e-05
-0.226764 -0.000114121 -0.351429 -0.000110504 -0.159676 -2.86652e-05
-0.218398 -0.000109911 -0.306464 -9.63648e-05 -0.00120334 -2.16025e-07
-0.201094 -0.000101203 -0.258622 -8.13212e-05 0.12237 2.1968e-05
-0.174238 -8.76867e-05 -0.206447 -6.49155e-05 0.236815 4.25134e-05
-0.138171 -6.95356e-05 -0.149352 -4.69623e-05 0.341291 6.12691e-05
-0.0939106 -4.72613e-05 -0.0878902 -2.76363e-05 0.435284 7.81427e-05
-0.040561 -2.04127e-05 -0.0229063 -7.20267e-06 0.517438 9.28911e-05
0.0216048 1.08728e-05 0.0453779 1.42687e-05 0.587519 0.000105472
0.0923468 4.64743e-05 0.115375 3.62786e-05 0.645069 0.000115804
0.170795 8.59542e-05 0.17918 5.63414e-05 0.691229 0.00012409
0.255529 0.000128597 0.23627 7.4293e-05 0.727155 0.00013054
0.345477 0.000173865 0.293416 9.2262e-05 0.753721 0.000135309
0.439194 0.000221028 0.350001 0.000110055 0.771812 0.000138557
0.534824 0.000269155 0.405907 0.000127634 0.783022 0.000140569
0.629874 0.00031699 0.461308 0.000145054 0.789062 0.000141653
0.723202 0.000363958 0.515424 0.00016207 0.791789 0.000142143
0.813464 0.000409383 0.567558 0.000178463 0.792885 0.00014234
0.899574 0.000452719 0.617199 0.000194073 0.793977 0.000142536
0.980612 0.000493502 0.664048 0.000208804 0.796766 0.000143036
1.05582 0.000531349 0.707785 0.000222557 0.802796 0.000144119
1.12456 0.000565946 0.74795 0.000235186 0.813389 0.000146021
1.18632 0.000597025 0.784128 0.000246562 0.829548 0.000148921
1.24109 0.000624589 0.815778 0.000256514 0.852054 0.000152962
1.27958 0.00064396 0.84413 0.000265429 0.880906 0.000158141
1.31011 0.000659322 0.86827 0.00027302 0.915453 0.000164343
1.3305 0.000669587 0.887346 0.000279018 0.957538 0.000171898
1.3409 0.000674821 0.902797 0.000283877 1.00499 0.000180417
1.34194 0.000675341 0.913974 0.000287391 1.0579 0.000189916
1.3345 0.0006716 0.921062 0.00028962 1.11444 0.000200066
1.31937 0.000663984 0.923946 0.000290527 1.17368 0.000210701
1.29743 0.00065294 0.923069 0.000290251 1.2342 0.000221566
1.27022 0.00063925 0.918919 0.000288946 1.29434 0.000232362
1.23925 0.000623663 0.911744 0.00028669 1.35219 0.000242747
1.20586 0.000606861 0.901672 0.000283523 1.40586 0.000252381
1.17158 0.000589608 0.889017 0.000279543 1.45359 0.00026095
1.138 0.000572707 0.87425 0.0002749 1.49371 0.000268152
1.10657 0.000556893 0.857783 0.000269722 1.52462 0.000273702
1.07862 0.000542824 0.839917 0.000264104 1.54481 0.000277326
1.05538 0.000531127 0.820944 0.000258139 1.55297 0.000278792
1.03794 0.000522354 0.801211 0.000251934 1.54813 0.000277923
1.02719 0.000516944 0.781075 0.000245602 1.52965 0.000274605
1.02375 0.00051521 0.760844 0.00023924 1.49717 0.000268774
1.02798 0.000517338 0.740765 0.000232927 1.45064 0.000260422
1.03999 0.000523383 0.721058 0.00022673 1.39035 0.000249598
1.05964 0.000533275 0.701931 0.000220716 1.31696 0.000236423
1.08661 0.000546847 0.683568 0.000214942 1.2315 0.00022108
1.11964 0.000563467 0.666237 0.000209492 1.13529 0.000203809
1.15792 0.000582732 0.650331 0.000204491 1.02985 0.000184881
1.19982 0.000603822 0.635581 0.000199853 0.917009 0.000164623
1.24424 0.000626174 0.621719 0.000195494 0.799157 0.000143466
1.29076 0.000649586 0.609113 0.00019153 0.678347 0.000121778
1.33837 0.000673546 0.597695 0.00018794 0.557088 0.000100009
1.38563 0.00069733 0.58723 0.000184649 0.437856 7.86045e-05
1.43147 0.000720398 0.577536 0.000181601 0.323113 5.80056e-05
1.47498 0.000742296 0.568574 0.000178783 0.215192 3.86316e-05
1.51504 0.000762457 0.560294 0.000176179 0.116297 2.08778e-05
1.55043 0.000780265 0.552603 0.000173761 0.0284102 5.10023e-06
1.58003 0.000795164 0.545412 0.0001715 -0.0756311 -1.35774e-05
1.60284 0.000806645 0.538632 0.000169368 -0.160987 -2.89006e-05
1.61795 0.000814246 0.532258 0.000167364 -0.224949 -4.03831e-05
1.62468 0.000817635 0.526362 0.00016551 -0.266644 -4.78683e-05
1.62256 0.00081657 0.521053 0.00016384 -0.285151 -5.11906e-05
1.61155 0.000811028 0.516361 0.000162365 -0.280366 -5.03317e-05
1.59175 0.000801063 0.512299 0.000161088 -0.252878 -4.5397e-05
1.56345 0.000786819 0.508881 0.000160013 -0.203764 -3.658e-05
1.52734 0.000768647 0.50621 0.000159173 -0.134416 -2.41305e-05
1.48449 0.000747081 0.504355 0.00015859 -0.0467841 -8.39873e-06
1.4361 0.00072273 0.503258 0.000158245 0.0407272 7.31141e-06
1.38344 0.000696227 0.503063 0.000158184 0.124799 2.24041e-05
1.32783 0.000668244 0.503889 0.000158443 0.217026 3.89608e-05
1.27057 0.000639427 0.505839 0.000159057 0.315306 5.66041e-05
1.2129 0.0006104 0.508958 0.000160037 0.417192 7.48948e-05
1.15604 0.000581786 0.513298 0.000161402 0.520361 9.34159e-05
1.10129 0.000554235 0.518928 0.000163172 0.622697 0.000111787
1.04994 0.00052839 0.525906 0.000165366 0.722203 0.000129651
1.00318 0.000504858 0.534243 0.000167988 0.816919 0.000146654
0.96213 0.0004842 0.543909 0.000171027 0.904958 0.000162459
0.927785 0.000466916 0.554853 0.000174468 0.984654 0.000176766
0.900954 0.000453413 0.567017 0.000178293 1.05466 0.000189335
0.882205 0.000443977 0.580322 0.000182477 1.11397 0.000199981
0.871802 0.000438742 0.594661 0.000186986 1.16181 0.00020857
0.869667 0.000437667 0.609901 0.000191778 1.19769 0.00021501
0.875376 0.00044054 0.625895 0.000196807 1.22136 0.000219261
0.888211 0.000447 0.642477 0.000202021 1.23296 0.000221343
0.907203 0.000456558 0.659454 0.000207359 1.23294 0.000221338
0.931134 0.000468601 0.676609 0.000212753 1.22203 0.000219381
0.958573 0.00048241 0.693693 0.000218125 1.20124 0.000215649
0.987963 0.000497201 0.71042 0.000223385 1.17179 0.000210362
1.01769 0.000512162 0.726471 0.000228432 1.13512 0.000203778
1.04614 0.000526476 0.7415 0.000233158 1.09284 0.000196188
1.0717 0.000539342 0.755137 0.000237446 1.04669 0.000187903
1.09289 0.000550006 0.766982 0.000241171 0.998476 0.000179248
1.10835 0.000557785 0.776617 0.0002442 0.949991 0.000170544
1.11687 0.000562075 0.783628 0.000246405 0.902969 0.000162102
1.11742 0.00056235 0.787613 0.000247658 0.859029 0.000154214
1.10909 0.000558161 0.788196 0.000247841 0.819615 0.000147138
1.09114 0.000549125 0.785032 0.000246846 0.78594 0.000141093
1.06295 0.000534937 0.777828 0.000244581 0.75893 0.000136244
1.02411 0.00051539 0.766342 0.000240969 0.739203 0.000132703
0.974435 0.000490393 0.750396 0.000235955 0.727041 0.000130519
0.914017 0.000459987 0.729881 0.000229504 0.722387 0.000129684
0.843199 0.000424347 0.704752 0.000221603 0.724836 0.000130124
0.762588 0.000383779 0.675035 0.000212259 0.733643 0.000131705
0.673021 0.000338704 0.640824 0.000201501 0.747739 0.000134235
0.580438 0.00029211 0.601107 0.000189013 0.766062 0.000137524
0.479929 0.000241528 0.556279 0.000174917 0.787852 0.000141436
0.373184 0.000187808 0.511431 0.000160815 0.807575 0.000144977
0.263831 0.000132775 0.461146 0.000145003 0.827168 0.000148494
0.150833 7.59078e-05 0.407989 0.000128288 0.842729 0.000151288
0.0359312 1.80827e-05 0.352083 0.000110709 0.852786 0.000153093
-0.0794027 -3.99601e-05 0.294344 9.25537e-05 0.854742 0.000153444
-0.193193 -9.72261e-05 0.234278 7.36666e-05 0.847125 0.000152077
-0.301268 -0.000151616 0.161702 5.08459e-05 0.828013 0.000148646
-0.400756 -0.000201684 0.077192 2.42723e-05 0.795079 0.000142734
-0.49147 -0.000247336 -0.00574739 -1.80721e-06 0.748619 0.000134393
-0.573301 -0.000288519 -0.0879541 -2.76564e-05 0.686622 0.000123263
-0.643713 -0.000323954 -0.168187 -5.2885e-05 0.608697 0.000109274
-0.701813 -0.000353193 -0.244996 -7.70366e-05 0.514572 9.23766e-05
-0.747986 -0.00037643 -0.318009 -9.9995e-05 0.404869 7.26826e-05
-0.782268 -0.000393683 -0.387195 -0.00012175 0.280124 5.02881e-05
-0.804483 -0.000404863 -0.452335 -0.000142233 0.141176 2.5344e-05
-0.81527 -0.000410292 -0.51304 -0.000161321 -0.0105603 -1.89581e-06
-0.815787 -0.000410552 -0.569204 -0.000178981 -0.221579 -3.97781e-05
-0.807259 -0.00040626 -0.620661 -0.000195161 -0.460794 -8.27223e-05
-0.791046 -0.000398101 -0.667557 -0.000209907 -0.70951 -0.000127372
-0.768933 -0.000386972 -0.709934 -0.000223232 -0.962738 -0.000172832
-0.742945 -0.000373894 -0.748047 -0.000235217 -1.21624 -0.000218342
-0.715118 -0.000359889 -0.782194 -0.000245954 -1.46635 -0.000263242
-0.687459 -0.00034597 -0.812752 -0.000255562 -1.70933 -0.000306861
-0.662025 -0.00033317 -0.840145 -0.000264176 -1.94087 -0.000348427
-0.64059 -0.000322382 -0.864853 -0.000271945 -2.15636 -0.000387113
-0.625177 -0.000314626 -0.88741 -0.000279038 -2.35153 -0.00042215
-0.617288 -0.000310656 -0.908384 -0.000285633 -2.51799 -0.000452034
-0.619157 -0.000311596 -0.922923 -0.000290205 -2.48479 -0.000446072
-0.632797 -0.00031846 -0.924662 -0.000290752 -2.4778 -0.000444818
-0.653954 -0.000329108 -0.936791 -0.000294566 -2.49665 -0.000448202
-0.687925 -0.000346204 -0.946832 -0.000297723 -2.5176 -0.000451962
-0.731711 -0.00036824 -0.966651 -0.000303955 -2.51409 -0.000451332
-0.786022 -0.000395572 -0.991938 -0.000311906 -2.4813 -0.000445446
-0.85189 -0.000428721 -1.01557 -0.000319336 -2.42482 -0.000435307
-0.928128 -0.000467089 -1.03814 -0.000326434 -2.36007 -0.000423682
-1.01404 -0.000510325 -1.06109 -0.000333649 -2.28277 -0.000409806
-1.10885 -0.00055804 -1.08616 -0.000341534 -2.17349 -0.000390189
-1.21128 -0.000609587 -1.11281 -0.000349914 -2.02662 -0.000363821
-1.3198 -0.000664199 -1.1391 -0.00035818 -1.85571 -0.000333139
-1.43266 -0.000721001 -1.16424 -0.000366085 -1.67849 -0.000301324
-1.54809 -0.000779092 -1.18845 -0.000373699 -1.50175 -0.000269597
-1.66408 -0.000837464 -1.212 -0.000381101 -1.32119 -0.000237182
-1.77853 -0.000895061 -1.23442 -0.000388152 -1.13303 -0.000203402
-1.88935 -0.000950833 -1.25498 -0.000394617 -0.942316 -0.000169166
-1.99452 -0.00100376 -1.2732 -0.000400345 -0.760007 -0.000136437
-2.09208 -0.00105286 -1.28889 -0.000405279 -0.594415 -0.00010671
-2.17829 -0.00109624 -1.30196 -0.00040939 -0.447232 -8.02876e-05
-2.17168 -0.00109292 -1.30371 -0.000409941 -0.322429 -5.78829e-05
-2.19937 -0.00110685 -1.28157 -0.000402978 -0.232938 -4.18173e-05
-2.21411 -0.00111427 -1.30058 -0.000408956 -0.137935 -2.47622e-05
-2.20983 -0.00111212 -1.29212 -0.000406296 -0.0747706 -1.34229e-05
-2.20666 -0.00111052 -1.27547 -0.000401061 -0.0547324 -9.82563e-06
-2.21278 -0.0011136 -1.27152 -0.000399818 -0.0436144 -7.82972e-06
-2.2005 -0.00110742 -1.27521 -0.000400979 -0.0439677 -7.89314e-06
-2.1815 -0.00109786 -1.26861 -0.000398903 -0.060997 -1.09503e-05
-2.15083 -0.00108242 -1.26068 -0.00039641 -0.107793 -1.93512e-05
-2.11199 -0.00106288 -1.25389 -0.000394275 -0.17618 -3.16281e-05
-2.06127 -0.00103735 -1.24577 -0.000391721 -0.266857 -4.79065e-05
-2.00094 -0.00100699 -1.2368 -0.0003889 -0.373146 -6.69876e-05
-1.93515 -0.00097388 -1.22643 -0.000385639 -0.493125 -8.85264e-05
-1.8645 -0.000938323 -1.21562 -0.000382241 -0.624422 -0.000112097
-1.78968 -0.000900671 -1.2051 -0.000378932 -0.765199 -0.000137369
-1.71327 -0.000862218 -1.19541 -0.000375885 -0.911775 -0.000163683
-1.63773 -0.000824204 -1.18646 -0.000373073 -1.05988 -0.00019027
-1.56451 -0.000787356 -1.17819 -0.00037047 -1.20593 -0.00021649
-1.49517 -0.000752458 -1.17117 -0.000368263 -1.34709 -0.000241831
-1.43168 -0.000720505 -1.16612 -0.000366675 -1.48067 -0.000265812
-1.37569 -0.000692328 -1.16323 -0.000365768 -1.60384 -0.000287923
-1.3284 -0.000668526 -1.16241 -0.00036551 -1.71374 -0.000307653
-1.2909 -0.000649659 -1.16377 -0.000365938 -1.80797 -0.00032457
-1.26422 -0.000636228 -1.16764 -0.000367154 -1.88481 -0.000338363
-1.24898 -0.000628559 -1.17419 -0.000369214 -1.9431 -0.000348828
-1.24524 -0.000626679 -1.18335 -0.000372093 -1.98207 -0.000355824
-1.24999 -0.000629067 -1.19556 -0.000375934 -2.00101 -0.000359224
-1.26343 -0.000635833 -1.21044 -0.000380613 -1.99976 -0.000359
-1.28513 -0.000646753 -1.22759 -0.000386006 -1.97933 -0.000355331
-1.3144 -0.000661485 -1.24701 -0.000392111 -1.94077 -0.00034841
-1.35037 -0.000679587 -1.26823 -0.000398784 -1.88594 -0.000338566
-1.39198 -0.000700526 -1.29065 -0.000405833 -1.81679 -0.000326152
-1.43798 -0.000723678 -1.31361 -0.000413051 -1.73571 -0.000311596
-1.48697 -0.000748333 -1.33656 -0.00042027 -1.64537 -0.000295379
-1.53742 -0.000773719 -1.35901 -0.000427327 -1.54865 -0.000278016
-1.58771 -0.00079903 -1.38034 -0.000434036 -1.44851 -0.000260038
-1.63623 -0.000823447 -1.39992 -0.000440191 -1.34787 -0.000241971
-1.68138 -0.000846171 -1.41714 -0.000445607 -1.2496 -0.00022433
-1.72167 -0.000866446 -1.43152 -0.000450129 -1.15645 -0.000207608
-1.75574 -0.000883592 -1.44263 -0.00045362 -1.07094 -0.000192257
-1.78242 -0.00089702 -1.45004 -0.000455952 -0.995289 -0.000178676
-1.80079 -0.000906262 -1.4534 -0.000457008 -0.931354 -0.000167198
-1.81016 -0.000910979 -1.45244 -0.000456706 -0.8806 -0.000158086
-1.81013 -0.000910962 -1.44701 -0.000455 -0.844056 -0.000151526
-1.8005 -0.000906118 -1.43706 -0.00045187 -0.822275 -0.000147616
-1.7813 -0.000896454 -1.42262 -0.00044733 -0.815318 -0.000146367
-1.7527 -0.000882063 -1.40383 -0.000441422 -0.822757 -0.000147702
-1.71503 -0.000863103 -1.38094 -0.000434225 -0.843698 -0.000151462
-1.66874 -0.000839807 -1.35431 -0.00042585 -0.876819 -0.000157408
-1.61448 -0.000812503 -1.32434 -0.000416428 -0.920415 -0.000165234
-1.55313 -0.000781625 -1.29152 -0.000406107 -0.972464 -0.000174578
-1.48571 -0.000747694 -1.25634 -0.000395045 -1.03069 -0.000185031
-1.41339 -0.0007113 -1.21935 -0.000383413 -1.09265 -0.000196154
-1.33743 -0.000673073 -1.18109 -0.000371382 -1.15578 -0.000207487
-1.25911 -0.000633658 -1.14209 -0.000359121 -1.21749 -0.000218565
-1.17967 -0.000593679 -1.10289 -0.000346794 -1.27523 -0.000228931
-1.10028 -0.000553726 -1.06396 -0.000334554 -1.32657 -0.000238148
-1.02203 -0.000514344 -1.02575 -0.000322539 -1.36927 -0.000245813
-0.945941 -0.000476053 -0.988624 -0.000310864 -1.40134 -0.00025157
-0.873048 -0.000439369 -0.952852 -0.000299616 -1.42111 -0.000255119
-0.804392 -0.000404817 -0.91862 -0.000288852 -1.42727 -0.000256225
-0.740991 -0.00037291 -0.886018 -0.0002786 -1.4189 -0.000254722
-0.683732 -0.000344094 -0.855066 -0.000268868 -1.39545 -0.000250513
-0.633285 -0.000318706 -0.825718 -0.00025964 -1.35677 -0.000243569
-0.590026 -0.000296936 -0.79788 -0.000250886 -1.30306 -0.000233927
-0.554014 -0.000278812 -0.771426 -0.000242568 -1.23488 -0.000221688
-0.525 -0.000264211 -0.746205 -0.000234637 -1.15312 -0.00020701
-0.502476 -0.000252875 -0.722047 -0.000227041 -1.05896 -0.000190106
-0.485722 -0.000244444 -0.698764 -0.00021972 -0.953855 -0.000171237
-0.473838 -0.000238463 -0.676151 -0.00021261 -0.8395 -0.000150708
-0.465776 -0.000234406 -0.653997 -0.000205643 -0.717782 -0.000128857
-0.460391 -0.000231696 -0.632079 -0.000198752 -0.590735 -0.00010605
-0.456503 -0.000229739 -0.610166 -0.000191861 -0.460502 -8.26698e-05
-0.452923 -0.000227937 -0.588024 -0.000184899 -0.329275 -5.91119e-05
-0.448442 -0.000225682 -0.565432 -0.000177795 -0.199248 -3.57693e-05
-0.441813 -0.000222346 -0.542189 -0.000170487 -0.0725545 -1.30251e-05
-0.431703 -0.000217258 -0.518416 -0.000163011 0.0153154 2.74945e-06
-0.416682 -0.000209699 -0.495506 -0.000155807 0.0848414 1.52308e-05
-0.396194 -0.000199388 -0.470636 -0.000147987 0.149956 2.69203e-05
-0.36896 -0.000185682 -0.444813 -0.000139867 0.210499 3.77891e-05
-0.340301 -0.00017126 -0.415493 -0.000130648 0.261319 4.69123e-05
-0.318311 -0.000160193 -0.376539 -0.000118399 0.299994 5.38554e-05
-0.280624 -0.000141226 -0.347308 -0.000109208 0.335606 6.02483e-05
-0.241988 -0.000121783 -0.312019 -9.81115e-05 0.364373 6.54128e-05
-0.193003 -9.71304e-05 -0.275108 -8.65053e-05 0.385913 6.92796e-05
-0.136625 -6.87577e-05 -0.236204 -7.42722e-05 0.399985 7.18057e-05
-0.0767233 -3.86116e-05 -0.197237 -6.20195e-05 0.406068 7.28978e-05
-0.023646 -1.19001e-05 -0.158445 -4.98215e-05 0.405855 7.28597e-05
0.0389725 1.96132e-05 -0.120788 -3.79806e-05 0.401432 7.20655e-05
0.102744 5.17066e-05 -0.0782573 -2.46073e-05 0.389417 6.99086e-05
0.166079 8.35807e-05 -0.0394115 -1.23926e-05 0.37513 6.73439e-05
0.230591 0.000116047 -0.00371737 -1.16889e-06 0.355647 6.38463e-05
0.29701 0.000149473 0.0221918 6.97801e-06 0.333284 5.98316e-05
0.362467 0.000182415 0.0485608 1.52695e-05 0.310238 5.56942e-05
0.425515 0.000214144 0.0741488 2.33154e-05 0.287603 5.16308e-05
0.486651 0.000244911 0.0984774 3.09653e-05 0.266161 4.77815e-05
0.54521 0.000274382 0.121648 3.8251e-05 0.246786 4.43033e-05
0.599731 0.00030182 0.143873 4.52396e-05 0.230832 4.14392e-05
0.649542 0.000326888 0.165298 5.19764e-05 0.219316 3.9372e-05
0.694547 0.000349537 0.185658 5.83784e-05 0.212947 3.82285e-05
0.734291 0.000369538 0.204604 6.4336e-05 0.212293 3.81111e-05
0.768249 0.000386628 0.222118 6.98429e-05 0.217842 3.91073e-05
0.796316 0.000400753 0.238436 7.49742e-05 0.229878 4.1268e-05
0.818609 0.000411972 0.253638 7.97541e-05 0.248455 4.4603e-05
0.835199 0.000420321 0.267566 8.41337e-05 0.273453 4.90905e-05
0.846261 0.000425888 0.280132 8.80849e-05 0.304591 5.46805e-05
0.852215 0.000428884 0.291456 9.16458e-05 0.34141 6.12903e-05
0.853617 0.00042959 0.301714 9.48714e-05 0.383258 6.8803e-05
0.851092 0.000428319 0.310988 9.77872e-05 0.427475 7.67408e-05
0.845432 0.000425471 0.318844 0.000100258 0.467884 8.39951e-05
0.837578 0.000421518 0.324866 0.000102151 0.512615 9.20252e-05
0.828052 0.000416724 0.330777 0.00010401 0.558167 0.000100203
0.818137 0.000411734 0.336013 0.000105656 0.602991 0.00010825
0.808516 0.000406893 0.341221 0.000107294 0.645371 0.000115858
0.800204 0.00040271 0.346107 0.00010883 0.685925 0.000123138
0.794088 0.000399631 0.350879 0.000110331 0.724785 0.000130114
0.791037 0.000398096 0.355851 0.000111894 0.760898 0.000136597
0.791843 0.000398502 0.361292 0.000113605 0.792522 0.000142275
0.797182 0.000401189 0.36737 0.000115516 0.818375 0.000146916
0.807607 0.000406435 0.374167 0.000117653 0.838249 0.000150484
0.823493 0.00041443 0.381822 0.00012006 0.852417 0.000153027
0.845043 0.000425275 0.390507 0.000122791 0.860869 0.000154544
0.872295 0.00043899 0.400365 0.000125891 0.862927 0.000154914
0.905149 0.000455524 0.411419 0.000129367 0.857121 0.000153871
0.943373 0.00047476 0.423588 0.000133193 0.843894 0.000151497
0.986554 0.000496492 0.436954 0.000137396 0.82421 0.000147963
1.0342 0.00052047 0.451515 0.000141975 0.799014 0.00014344
1.08568 0.000546378 0.4673 0.000146938 0.768934 0.00013804
1.14028 0.000573856 0.484246 0.000152267 0.734769 0.000131907
1.19722 0.000602512 0.502248 0.000157927 0.697768 0.000125264
1.25567 0.000631926 0.521195 0.000163885 0.659532 0.0001184
1.31461 0.000661591 0.541003 0.000170114 0.621663 0.000111602
1.37248 0.000690714 0.561793 0.000176651 0.58542 0.000105095
1.42891 0.000719111 0.582955 0.000183305 0.552228 9.91366e-05
1.48302 0.000746342 0.60443 0.000190058 0.523442 9.39689e-05
1.53422 0.00077211 0.626113 0.000196876 0.500373 8.98276e-05
1.58181 0.000796058 0.647808 0.000203697 0.484355 8.69521e-05
1.62507 0.00081783 0.669277 0.000210448 0.476389 8.55219e-05
1.66344 0.000837143 0.690328 0.000217068 0.477236 8.5674e-05
1.69744 0.000854249 0.710268 0.000223337 0.487594 8.75335e-05
1.72105 0.000866135 0.730341 0.000229649 0.507418 9.10924e-05
1.73899 0.000875164 0.750371 0.000235947 0.536031 9.6229e-05
1.7502 0.000880803 0.768694 0.000241709 0.57542 0.0001033
1.75394 0.000882686 0.786823 0.000247409 0.623572 0.000111944
1.75068 0.000881042 0.803887 0.000252775 0.680785 0.000122215
1.7408 0.000876075 0.820055 0.000257859 0.745563 0.000133844
1.7247 0.000867972 0.834994 0.000262556 0.817346 0.000146731
1.7028 0.000856949 0.8489 0.000266929 0.89181 0.000160099
1.67604 0.000843483 0.860737 0.000270651 0.957922 0.000171967
1.64547 0.000828097 0.870437 0.000273701 1.03077 0.000185046
1.61155 0.000811025 0.879719 0.00027662 1.10568 0.000198492
1.57569 0.000792979 0.887768 0.000279151 1.17852 0.00021157
1.53847 0.000774249 0.895359 0.000281537 1.24736 0.000223928
1.50114 0.000755459 0.901797 0.000283562 1.31354 0.000235809
1.46458 0.000737065 0.907224 0.000285268 1.37742 0.000247277
1.42975 0.000719535 0.911775 0.000286699 1.43741 0.000258046
1.39747 0.000703287 0.915651 0.000287918 1.49073 0.000267618
1.36833 0.000688625 0.918839 0.000288921 1.53551 0.000275657
1.34115 0.000674947 0.921483 0.000289752 1.57148 0.000282113
1.31628 0.00066243 0.923465 0.000290375 1.59898 0.000287052
1.29373 0.00065108 0.924651 0.000290748 1.61813 0.000290489
1.27333 0.000640813 0.925193 0.000290919 1.62797 0.000292255
1.2549 0.000631537 0.924975 0.00029085 1.62707 0.000292093
1.23831 0.00062319 0.923613 0.000290422 1.61429 0.000289799
1.22341 0.000615691 0.920745 0.00028952 1.59095 0.00028561
1.20989 0.000608886 0.916205 0.000288092 1.55842 0.00027977
1.19732 0.000602561 0.909833 0.000286089 1.51725 0.00027238
1.18511 0.000596419 0.901473 0.00028346 1.46774 0.000263491
1.17259 0.000590116 0.890843 0.000280118 1.41079 0.000253266
1.15901 0.000583284 0.877678 0.000275978 1.34798 0.000241992
1.14368 0.000575567 0.861779 0.000270979 1.28108 0.000229981
1.12588 0.000566607 0.843015 0.000265078 1.21138 0.000217469
1.10485 0.000556025 0.821267 0.00025824 1.1398 0.000204619
1.07985 0.000543444 0.796421 0.000250427 1.06719 0.000191583
1.05023 0.000528536 0.768393 0.000241614 0.994622 0.000178556
1.0155 0.000511058 0.73715 0.00023179 0.923242 0.000165742
0.975382 0.000490869 0.702716 0.000220963 0.853942 0.000153301
0.929784 0.000467922 0.665151 0.000209151 0.787228 0.000141324
0.87876 0.000442244 0.624553 0.000196385 0.723336 0.000129854
0.822472 0.000413916 0.581066 0.000182711 0.662422 0.000118919
0.761166 0.000383064 0.534883 0.000168189 0.604592 0.000108537
0.695144 0.000349837 0.486246 0.000152896 0.549785 9.86981e-05
0.624761 0.000314416 0.435436 0.000136919 0.49768 8.93442e-05
0.550454 0.000277021 0.382762 0.000120356 0.447732 8.03774e-05
0.47275 0.000237915 0.328561 0.000103313 0.39929 7.16811e-05
0.392278 0.000197417 0.273183 8.58999e-05 0.351694 6.31366e-05
0.309786 0.000155903 0.216982 6.8228e-05 0.304275 5.46238e-05
0.226119 0.000113796 0.160307 5.04072e-05 0.256324 4.60157e-05
0.142171 7.15489e-05 0.103503 3.25455e-05 0.207101 3.7179e-05
0.0588444 2.96139e-05 0.0469052 1.47489e-05 0.155885 2.79847e-05
-0.0207546 -1.0445e-05 -0.0220562 -6.93537e-06 0.10183 1.82807e-05
-0.0966347 -4.86322e-05 -0.0913283 -2.87173e-05 0.0436013 7.82736e-06
-0.172551 -8.68378e-05 -0.161115 -5.06612e-05 -0.0179234 -3.21763e-06
-0.244362 -0.000122977 -0.229473 -7.21556e-05 -0.0881558 -1.58258e-05
-0.299114 -0.000150532 -0.295176 -9.28156e-05 -0.169433 -3.04168e-05
-0.35166 -0.000176976 -0.356325 -0.000112043 -0.253204 -4.54556e-05
-0.397752 -0.000200172 -0.413461 -0.000130009 -0.345356 -6.19988e-05
-0.438324 -0.00022059 -0.46929 -0.000147564 -0.438039 -7.86373e-05
-0.471768 -0.000237421 -0.521095 -0.000163854 -0.534088 -9.58802e-05
-0.498936 -0.000251094 -0.568475 -0.000178752 -0.632673 -0.000113578
-0.520433 -0.000261912 -0.611029 -0.000192133 -0.735279 -0.000131998
-0.536122 -0.000269808 -0.649411 -0.000204201 -0.84056 -0.000150898
-0.546274 -0.000274917 -0.68392 -0.000215053 -0.946161 -0.000169856
-0.551817 -0.000277707 -0.714288 -0.000224602 -1.04994 -0.000188487
-0.553558 -0.000278583 -0.740195 -0.000232748 -1.15104 -0.000206636
-0.552147 -0.000277873 -0.761725 -0.000239517 -1.24915 -0.000224249
-0.548443 -0.000276009 -0.779351 -0.00024506 -1.3432 -0.000241133
-0.543487 -0.000273514 -0.793431 -0.000249487 -1.43115 -0.000256922
-0.538236 -0.000270872 -0.80407 -0.000252833 -1.51082 -0.000271224
-0.533584 -0.000268531 -0.811407 -0.00025514 -1.58073 -0.000283774
-0.530478 -0.000266968 -0.815815 -0.000256526 -1.64003 -0.00029442
-0.529855 -0.000266654 -0.817771 -0.000257141 -1.68788 -0.000303011
-0.532547 -0.000268009 -0.817655 -0.000257104 -1.72311 -0.000309335
-0.539268 -0.000271391 -0.815776 -0.000256513 -1.74443 -0.000313163
-0.550633 -0.000277111 -0.812485 -0.000255479 -1.75096 -0.000314335
-0.567123 -0.00028541 -0.80815 -0.000254115 -1.73994 -0.000312356
-0.589083 -0.000296461 -0.802912 -0.000252468 -1.71146 -0.000307243
-0.616641 -0.00031033 -0.797178 -0.000250665 -1.66568 -0.000299024
-0.649836 -0.000327036 -0.7912 -0.000248786 -1.60299 -0.00028777
-0.688558 -0.000346523 -0.78532 -0.000246937 -1.52366 -0.000273529
-0.732556 -0.000368665 -0.779805 -0.000245203 -1.42866 -0.000256475
-0.781474 -0.000393283 -0.774827 -0.000243637 -1.31971 -0.000236915
-0.834845 -0.000420143 -0.770506 -0.000242279 -1.19892 -0.000215231
-0.892107 -0.00044896 -0.766943 -0.000241158 -1.06844 -0.000191808
-0.952589 -0.000479398 -0.764229 -0.000240305 -0.930392 -0.000167025
-1.01553 -0.000511075 -0.762418 -0.000239736 -0.787074 -0.000141297
-1.08009 -0.000543567 -0.761521 -0.000239453 -0.641124 -0.000115095
-1.14537 -0.000576416 -0.761521 -0.000239453 -0.495396 -8.89341e-05
-1.21041 -0.000609147 -0.762396 -0.000239729 -0.352714 -6.33197e-05
-1.27425 -0.000641277 -0.764132 -0.000240274 -0.215722 -3.87266e-05
-1.33596 -0.000672334 -0.76671 -0.000241085 -0.086902 -1.56008e-05
-1.39459 -0.000701838 -0.770511 -0.00024228 -0.0059152 -1.0619e-06
-1.44915 -0.000729297 -0.776378 -0.000244125 0.0613518 1.1014e-05
-1.49945 -0.000754611 -0.782278 -0.00024598 0.119638 2.14776e-05
-1.54444 -0.000777255 -0.789138 -0.000248137 0.167739 3.01127e-05
-1.58396 -0.00079714 -0.795997 -0.000250294 0.202573 3.63662e-05
-1.61753 -0.000814037 -0.803498 -0.000252653 0.224801 4.03565e-05
-1.64501 -0.000827864 -0.811867 -0.000255284 0.235579 4.22914e-05
-1.66636 -0.00083861 -0.821103 -0.000258188 0.234478 4.20938e-05
-1.68168 -0.00084632 -0.831299 -0.000261394 0.21949 3.94032e-05
-1.69121 -0.000851118 -0.842567 -0.000264937 0.19004 3.41163e-05
-1.69536 -0.000853203 -0.855119 -0.000268885 0.146748 2.63444e-05
-1.69458 -0.000852811 -0.869192 -0.00027331 0.0908713 1.63133e-05
-1.68951 -0.00085026 -0.884856 -0.000278235 0.0236799 4.25104e-06
-1.68077 -0.000845864 -0.902233 -0.000283699 -0.0530529 -9.52413e-06
-1.66924 -0.000840058 -0.921114 -0.000289636 -0.165009 -2.96227e-05
-1.65578 -0.000833286 -0.941283 -0.000295978 -0.289611 -5.19913e-05
-1.64123 -0.000825963 -0.964044 -0.000303135 -0.422301 -7.58121e-05
-1.62683 -0.000818716 -0.988856 -0.000310937 -0.560091 -0.000100548
-1.61338 -0.000811948 -1.01623 -0.000319544 -0.700481 -0.000125751
-1.59562 -0.000803007 -1.04585 -0.00032886 -0.84315 -0.000151363
-1.57631 -0.000793294 -1.08033 -0.000339699 -0.984929 -0.000176816
-1.56374 -0.000786965 -1.11443 -0.000350423 -1.12706 -0.000202332
-1.55454 -0.000782337 -1.15216 -0.000362287 -1.26536 -0.000227159
-1.55001 -0.000780054 -1.19189 -0.000374778 -1.39815 -0.000250999
-1.55097 -0.00078054 -1.23341 -0.000387834 -1.52409 -0.000273607
-1.55765 -0.0007839 -1.2762 -0.00040129 -1.64244 -0.000294854
-1.56983 -0.000790029 -1.32009 -0.000415091 -1.75295 -0.000314691
-1.58749 -0.000798917 -1.36524 -0.000429289 -1.85441 -0.000332907
-1.60949 -0.000809988 -1.41152 -0.000443839 -1.94572 -0.000349298
-1.63593 -0.000823297 -1.45849 -0.000458608 -2.02627 -0.000363759
-1.6687 -0.000839787 -1.50402 -0.000472926 -2.09687 -0.000376433
-1.70238 -0.000856736 -1.54977 -0.00048731 -2.15758 -0.000387332
-1.74014 -0.000875739 -1.59497 -0.000501524 -2.20777 -0.000396342
-1.7798 -0.000895699 -1.6394 -0.000515495 -2.24839 -0.000403633
-1.82958 -0.000920754 -1.99804 -0.000628265 -2.32123 -0.000416709
-1.57096 -0.000790597 -1.85284 -0.000582607 -2.18781 -0.000392758
-1.51404 -0.000761954 -1.21834 -0.000383095 -2.16397 -0.000388479
-1.72773 -0.000869494 -1.47311 -0.000463207 -2.165 -0.000388663
-1.81835 -0.000915102 -1.91425 -0.000601918 -2.27877 -0.000409087
-1.76149 -0.000886485 -2.05701 -0.000646809 -2.284 -0.000410027
-1.78922 -0.00090044 -1.86246 -0.000585635 -2.17127 -0.000389789
-1.87793 -0.000945082 -1.71726 -0.000539976 -2.10909 -0.000378627
-1.914 -0.000963235 -1.83819 -0.000578002 -2.148 -0.000385612
-1.92969 -0.000971136 -2.05958 -0.000647616 -2.20256 -0.000395407
-1.97546 -0.000994167 -2.15135 -0.000676473 -2.18155 -0.000391635
-2.01975 -0.00101646 -2.1 -0.000660327 -2.12745 -0.000381923
-2.03648 -0.00102488 -2.06534 -0.000649428 -2.1241 -0.000381321
-2.05193 -0.00103265 -2.14062 -0.0006731 -2.18512 -0.000392276
-2.07879 -0.00104617 -2.25823 -0.00071008 -2.25586 -0.000404975
-2.09807 -0.00105587 -2.31601 -0.00072825 -2.29905 -0.000412729
-2.10157 -0.00105763 -2.31265 -0.000727191 -2.33531 -0.000419237
-2.0984 -0.00105604 -2.28521 -0.000718564 -2.40081 -0.000430997
-2.08959 -0.00105161 -2.30961 -0.000726235 -2.48805 -0.000446658
-2.08012 -0.00104684 -2.35284 -0.000739828 -2.61069 -0.000468675
-2.06 -0.00103671 -2.37267 -0.000746066 -2.72383 -0.000488985
-2.03032 -0.00102177 -2.37118 -0.000745595 -2.82433 -0.000507028
-1.99835 -0.00100569 -2.37414 -0.000746527 -2.85267 -0.000512115
-1.95978 -0.000986275 -2.38411 -0.000749662 -2.84414 -0.000510583
-1.91135 -0.000961903 -2.39992 -0.000754634 -2.8277 -0.000507632
-1.85837 -0.000935242 -2.39238 -0.000752263 -2.80465 -0.000503494
-1.8065 -0.000909139 -2.36626 -0.000744048 -2.80041 -0.000502734
-1.75057 -0.00088099 -2.35339 -0.000740002 -2.80358 -0.000503303
-1.68914 -0.000850076 -2.34655 -0.000737851 -2.79502 -0.000501765
-1.62483 -0.000817708 -2.33429 -0.000733997 -2.76947 -0.000497178
-1.55971 -0.000784935 -2.31018 -0.000726415 -2.74013 -0.000491911
-1.49381 -0.000751775 -2.28227 -0.00071764 -2.72334 -0.000488898
-1.42677 -0.000718032 -2.25875 -0.000710244 -2.71908 -0.000488133
-1.35987 -0.000684369 -2.23795 -0.000703703 -2.71494 -0.000487389
-1.29352 -0.000650973 -2.21372 -0.000696084 -2.70106 -0.000484898
-1.22771 -0.000617856 -2.18454 -0.000686908 -2.68139 -0.000481367
-1.16302 -0.000585298 -2.15419 -0.000677364 -2.66625 -0.000478649
-1.10023 -0.000553699 -2.12572 -0.000668414 -2.66035 -0.000477589
-1.03967 -0.000523222 -2.09795 -0.000659682 -2.65924 -0.000477389
-0.981406 -0.000493901 -2.06827 -0.000650349 -2.65009 -0.000475747
-0.912679 -0.000459313 -2.02583 -0.000637004 -2.60027 -0.000466804
-0.84958 -0.000427558 -1.97913 -0.000622319 -2.51947 -0.000452299
-0.792052 -0.000398607 -1.92855 -0.000606414 -2.41743 -0.00043398
-0.739716 -0.000372268 -1.8725 -0.000588792 -2.28373 -0.000409979
-0.691922 -0.000348215 -1.81072 -0.000569364 -2.11333 -0.000379389
-0.647436 -0.000325828 -1.74412 -0.000548422 -1.91484 -0.000343755
-0.604838 -0.00030439 -1.67252 -0.000525908 -1.69877 -0.000304966
-0.562757 -0.000283213 -1.59515 -0.000501579 -1.46627 -0.000263226
-0.519906 -0.000261647 -1.51212 -0.000475472 -1.21636 -0.000218363
-0.50157 -0.000252419 -1.41465 -0.000444823 -0.957466 -0.000171885
-0.467891 -0.00023547 -1.31649 -0.000413958 -0.693551 -0.000124507
-0.44141 -0.000222143 -1.22038 -0.000383737 -0.425615 -7.64069e-05
-0.404996 -0.000203818 -1.11788 -0.000351508 -0.161964 -2.9076e-05
-0.358154 -0.000180244 -1.01069 -0.000317801 -0.0119269 -2.14114e-06
-0.306314 -0.000154155 -0.912676 -0.000286983 0.0752074 1.35013e-05
-0.247807 -0.000124711 -0.809558 -0.000254558 0.177541 3.18725e-05
-0.181014 -9.10966e-05 -0.706637 -0.000222195 0.284071 5.09968e-05
-0.111598 -5.61625e-05 -0.596282 -0.000187495 0.36321 6.52039e-05
-0.0347344 -1.74804e-05 -0.481754 -0.000151483 0.434112 7.79324e-05
0.0355838 1.79079e-05 -0.373127 -0.000117326 0.51595 9.26241e-05
0.10727 5.39843e-05 -0.260988 -8.20655e-05 0.604123 0.000108453
0.185022 9.31139e-05 -0.148546 -4.67089e-05 0.681537 0.00012235
0.263609 0.000132663 -0.0350521 -1.10218e-05 0.748314 0.000134338
0.346168 0.000174212 0.0448075 1.40893e-05 0.808087 0.000145069
0.436362 0.000219603 0.140681 4.42359e-05 0.880098 0.000157996
0.519595 0.000261491 0.232099 7.29813e-05 0.94924 0.000170409
0.609003 0.000306486 0.28428 8.93893e-05 0.990108 0.000177745
0.714353 0.000359505 0.395123 0.000124243 1.05122 0.000188716
0.797547 0.000401372 0.489293 0.000153854 1.11186 0.000199602
0.874448 0.000440073 0.546755 0.000171922 1.16172 0.000208553
0.950194 0.000478193 0.609144 0.00019154 1.21323 0.0002178
1.01072 0.000508652 0.684699 0.000215297 1.27147 0.000228256
1.06067 0.000533792 0.747858 0.000235157 1.32635 0.000238107
1.10277 0.00055498 0.793297 0.000249445 1.37738 0.000247269
1.13243 0.000569904 0.836745 0.000263107 1.4318 0.000257038
1.1515 0.000579505 0.880896 0.00027699 1.48732 0.000267005
1.16213 0.000584851 0.914782 0.000287645 1.53808 0.000276119
1.16373 0.000585655 0.937406 0.000294759 1.58534 0.000284601
1.15787 0.000582708 0.956124 0.000300645 1.63181 0.000292944
1.14627 0.00057687 0.971042 0.000305336 1.67488 0.000300676
1.12984 0.000568603 0.977508 0.000307369 1.71112 0.000307182
1.11033 0.000558781 0.976877 0.00030717 1.74048 0.000312453
1.08985 0.000548476 0.972484 0.000305789 1.76395 0.000316666
1.06999 0.00053848 0.963706 0.000303029 1.76992 0.000317738
1.05281 0.000529835 0.947455 0.000297919 1.77645 0.00031891
1.03935 0.000523062 0.929876 0.000292391 1.77169 0.000318056
1.03203 0.000519377 0.909704 0.000286048 1.7359 0.000311632
1.03177 0.000519247 0.885312 0.000278378 1.68143 0.000301853
1.03909 0.00052293 0.856177 0.000269217 1.61563 0.000290039
1.05493 0.000530902 0.825428 0.000259548 1.529 0.000274487
1.0784 0.000542712 0.79219 0.000249097 1.41615 0.000254229
1.10872 0.000557974 0.757989 0.000238343 1.28393 0.000230493
1.14751 0.000577495 0.721707 0.000226934 1.14161 0.000204943
1.1926 0.000600185 0.685194 0.000215453 0.989649 0.000177663
1.24312 0.00062561 0.649127 0.000204112 0.826212 0.000148323
1.29788 0.000653168 0.613883 0.00019303 0.654949 0.000117577
1.35511 0.000681969 0.579634 0.000182261 0.483557 8.68089e-05
1.41314 0.000711175 0.547152 0.000172047 0.316735 5.68607e-05
1.47034 0.000739961 0.517076 0.00016259 0.155731 2.7957e-05
1.52489 0.000767412 0.489707 0.000153984 0.00242974 4.3619e-07
1.57468 0.00079247 0.468319 0.000147259 -0.0828058 -1.48654e-05
1.61766 0.000814102 0.457448 0.00014384 -0.174403 -3.1309e-05
1.65491 0.000832847 0.44688 0.000140517 -0.257572 -4.62397e-05
1.68349 0.000847233 0.436985 0.000137406 -0.312178 -5.60426e-05
1.70372 0.000857413 0.428429 0.000134716 -0.339759 -6.0994e-05
1.71403 0.000862599 0.42404 0.000133336 -0.361498 -6.48966e-05
1.71257 0.000861866 0.422797 0.000132945 -0.378299 -6.79127e-05
1.69937 0.000855225 0.422888 0.000132973 -0.361789 -6.49488e-05
1.67425 0.000842583 0.426917 0.00013424 -0.303572 -5.44976e-05
1.63775 0.000824211 0.435075 0.000136805 -0.21616 -3.88053e-05
1.59104 0.000800704 0.446717 0.000140466 -0.105737 -1.89821e-05
1.53568 0.000772846 0.460727 0.000144872 0.0174219 3.1276e-06
1.47354 0.00074157 0.475069 0.000149381 0.122718 2.20306e-05
1.4061 0.000707633 0.492163 0.000154756 0.239036 4.2912e-05
1.33574 0.000672222 0.510929 0.000160657 0.362474 6.50718e-05
1.26395 0.000636093 0.531913 0.000167255 0.486123 8.72695e-05
1.19253 0.000600149 0.553925 0.000174177 0.615216 0.000110444
1.12269 0.000565004 0.576887 0.000181397 0.747746 0.000134236
1.05539 0.000531135 0.600799 0.000188916 0.876766 0.000157398
0.991408 0.000498935 0.625395 0.00019665 0.996583 0.000178908
0.931431 0.000468751 0.650126 0.000204426 1.10713 0.000198753
0.876044 0.000440877 0.674507 0.000212093 1.20843 0.000216938
0.825604 0.000415492 0.698132 0.000219521 1.29754 0.000232936
0.780086 0.000392585 0.720504 0.000226556 1.37101 0.000246126
0.739083 0.00037195 0.740975 0.000232993 1.42824 0.0002564
0.701856 0.000353215 0.758845 0.000238612 1.4702 0.000263932
0.667352 0.000335851 0.773433 0.000243199 1.497 0.000268744
0.634193 0.000319163 0.784062 0.000246541 1.508 0.000270717
0.600698 0.000302306 0.789995 0.000248407 1.50203 0.000269646
0.565025 0.000284354 0.79024 0.000248484 1.48021 0.000265728
0.52534 0.000264382 0.784129 0.000246562 1.44482 0.000259376
0.480153 0.000241641 0.77103 0.000242443 1.39698 0.000250788
0.437502 0.000220177 0.748977 0.000235509 1.33792 0.000240185
0.409199 0.000205933 0.714279 0.000224599 1.27371 0.000228658
0.370323 0.000186368 0.679924 0.000213796 1.19645 0.000214788
0.322238 0.000162169 0.632569 0.000198906 1.11521 0.000200204
0.264347 0.000133035 0.577235 0.000181506 1.02669 0.000184313
0.200113 0.000100709 0.516751 0.000162488 0.931992 0.000167312
0.126441 6.36328e-05 0.449579 0.000141366 0.831648 0.000149298
0.0510794 2.57061e-05 0.374634 0.0001178 0.725934 0.000130321
-0.033008 -1.66115e-05 0.295436 9.28971e-05 0.613959 0.000110219
-0.117791 -5.92794e-05 0.207915 6.5377e-05 0.498396 8.94726e-05
-0.199991 -0.000100647 0.119136 3.74612e-05 0.375699 6.7446e-05
-0.284125 -0.000142989 0.0253083 7.95797e-06 0.249325 4.47591e-05
-0.365026 -0.000183702 -0.101171 -3.18122e-05 0.113727 2.04164e-05
-0.426307 -0.000214542 -0.214683 -6.75051e-05 -0.0247241 -4.4385e-06
-0.481253 -0.000242195 -0.302967 -9.52654e-05 -0.138203 -2.48103e-05
-0.542385 -0.00027296 -0.39958 -0.000125644 -0.243068 -4.36358e-05
-0.595891 -0.000299887 -0.518829 -0.000163141 -0.363747 -6.53002e-05
-0.643837 -0.000324016 -0.621227 -0.000195339 -0.483408 -8.6782e-05
-0.690093 -0.000347295 -0.712983 -0.000224191 -0.585776 -0.000105159
-0.732683 -0.000368729 -0.808595 -0.000254256 -0.698152 -0.000125333
-0.771001 -0.000388013 -0.907919 -0.000285487 -0.825742 -0.000148238
-0.806338 -0.000405796 -0.997708 -0.00031372 -0.95507 -0.000171455
-0.837018 -0.000421237 -1.07907 -0.000339303 -1.07774 -0.000193477
-0.857492 -0.00043154 -1.16211 -0.000365416 -1.19967 -0.000215367
-0.875751 -0.000440729 -1.2425 -0.000390694 -1.32605 -0.000238054
-0.888296 -0.000447043 -1.31616 -0.000413856 -1.4533 -0.000260897
-0.89702 -0.000451433 -1.3831 -0.000434904 -1.57501 -0.000282747
-0.903132 -0.000454509 -1.4468 -0.000454934 -1.69067 -0.000303512
-0.906429 -0.000456168 -1.50625 -0.000473628 -1.8025 -0.000323587
-0.907443 -0.000456678 -1.5593 -0.000490308 -1.90941 -0.00034278
-0.907005 -0.000456458 -1.60636 -0.000505106 -2.00816 -0.000360507
-0.905497 -0.000455699 -1.64884 -0.000518463 -2.09662 -0.000376387
-0.903362 -0.000454625 -1.68638 -0.000530267 -2.17467 -0.0003904
-0.901027 -0.00045345 -1.71802 -0.000540217 -2.24226 -0.000402533
-0.898763 -0.00045231 -1.74395 -0.000548369 -2.29821 -0.000412577
-0.896705 -0.000451275 -1.76476 -0.000554914 -2.34101 -0.00042026
-0.892656 -0.000449237 -1.78087 -0.000559977 -2.37013 -0.000425488
-0.886209 -0.000445993 -1.79108 -0.000563188 -2.38567 -0.000428278
-0.877685 -0.000441703 -1.79516 -0.000564473 -2.38443 -0.000428057
-0.867951 -0.000436804 -1.79246 -0.000563624 -2.35579 -0.000422915
-0.85753 -0.000431559 -1.78245 -0.000560474 -2.30214 -0.000413283
-0.846645 -0.000426081 -1.76488 -0.000554952 -2.22508 -0.000399449
-0.834611 -0.000420025 -1.73914 -0.000546857 -2.12412 -0.000381325
-0.821273 -0.000413313 -1.70404 -0.000535819 -2.00089 -0.000359202
-0.806693 -0.000405975 -1.65962 -0.000521853 -1.8593 -0.000333783
-0.792757 -0.000398962 -1.60642 -0.000505126 -1.70346 -0.000305807
-0.778898 -0.000391987 -1.55252 -0.000488177 -1.53584 -0.000275716
-0.760883 -0.000382921 -1.48899 -0.000468199 -1.35632 -0.000243488
-0.739945 -0.000372384 -1.41355 -0.000444478 -1.16722 -0.00020954
-0.717328 -0.000361002 -1.33387 -0.000419424 -0.973662 -0.000174793
-0.691304 -0.000347905 -1.25228 -0.000393767 -0.777255 -0.000139534
-0.661834 -0.000333074 -1.16343 -0.000365829 -0.577507 -0.000103675
-0.629764 -0.000316934 -1.06734 -0.000335616 -0.37637 -6.75664e-05
-0.595049 -0.000299464 -0.968814 -0.000304635 -0.176943 -3.1765e-05
-0.557899 -0.000280767 -0.869304 -0.000273345 -0.0297437 -5.33962e-06
-0.51746 -0.000260416 -0.774756 -0.000243615 0.0466755 8.37924e-06
-0.475679 -0.00023939 -0.675334 -0.000212353 0.124802 2.24045e-05
-0.432018 -0.000217417 -0.580224 -0.000182446 0.215798 3.87404e-05
-0.3878 -0.000195164 -0.483719 -0.000152101 0.292846 5.25721e-05
-0.342035 -0.000172132 -0.387407 -0.000121817 0.359085 6.44634e-05
-0.29538 -0.000148653 -0.293423 -9.22642e-05 0.430229 7.72352e-05
-0.24804 -0.000124828 -0.20367 -6.40422e-05 0.510411 9.16297e-05
-0.199983 -0.000100643 -0.117296 -3.68828e-05 0.588368 0.000105625
-0.150698 -7.58403e-05 -0.038225 -1.20195e-05 0.656221 0.000117806
-0.09836 -4.95005e-05 0.0296562 9.32511e-06 0.72331 0.000129849
-0.0467437 -2.35242e-05 0.0934138 2.93731e-05 0.794523 0.000142634
0.00350007 1.76144e-06 0.149482 4.70034e-05 0.863972 0.000155101
0.0529634 2.66543e-05 0.201623 6.33985e-05 0.92766 0.000166535
0.098847 4.97456e-05 0.252346 7.9348e-05 0.988443 0.000177447
0.146293 7.36231e-05 0.291377 9.1621e-05 1.04588 0.000187758
0.192055 9.66533e-05 0.330692 0.000103983 1.10196 0.000197826
0.229839 0.000115668 0.382079 0.000120141 1.1499 0.000206432
0.265992 0.000133863 0.41413 0.000130219 1.19403 0.000214354
0.301165 0.000151564 0.442498 0.000139139 1.23019 0.000220846
0.339125 0.000170667 0.473277 0.000148818 1.26374 0.000226869
0.376017 0.000189234 0.501182 0.000157592 1.29105 0.000231771
0.413958 0.000208328 0.521339 0.00016393 1.31086 0.000235327
0.454002 0.000228481 0.538248 0.000169247 1.3244 0.000237758
0.495168 0.000249198 0.554262 0.000174283 1.33269 0.000239247
0.538047 0.000270777 0.567069 0.00017831 1.33232 0.000239179
0.583293 0.000293547 0.574783 0.000180735 1.31782 0.000236577
0.630515 0.000317312 0.579094 0.000182091 1.29228 0.000231992
0.679837 0.000342134 0.581122 0.000182729 1.25661 0.000225589
0.731227 0.000367996 0.580235 0.00018245 1.20938 0.00021711
0.784253 0.000394682 0.576235 0.000181192 1.15135 0.000206692
0.838544 0.000422004 0.5702 0.000179294 1.0856 0.000194888
0.893653 0.000449739 0.562719 0.000176942 1.01433 0.000182094
0.948922 0.000477553 0.553713 0.00017411 0.938274 0.00016844
1.00365 0.000505098 0.543517 0.000170904 0.858611 0.000154139
1.05711 0.000531999 0.532852 0.00016755 0.777781 0.000139628
1.10853 0.000557878 0.522116 0.000164175 0.69819 0.00012534
1.15727 0.000582408 0.511481 0.000160831 0.621447 0.000111563
1.2028 0.000605321 0.501318 0.000157635 0.548953 9.85488e-05
41.7321 0.129039 0.386438 0.000121512 0.521289 9.35825e-05
8.93253 0.325394 0.208873 6.56783e-05 0.644398 0.000115683
4.03314 0.365099 0.320453 0.000100764 0.440824 7.91372e-05
-3.29514 0.325695 0.187247 5.88781e-05 0.448926 8.05917e-05
2.45379 0.334186 0.207249 6.51677e-05 0.356502 6.39998e-05
8.93253 0.375101 0.238893 7.51178e-05 0.299974 5.38517e-05
4.50839 0.378407 0.247081 7.76923e-05 0.222458 3.99359e-05
5.95057 0.379133 0.215229 6.76768e-05 0.170772 3.06571e-05
8.93253 0.394379 0.253763 7.97935e-05 0.112692 2.02306e-05
8.93253 0.417448 0.251642 7.91266e-05 0.108503 1.94786e-05
8.93253 0.423919 0.287909 9.05303e-05 0.0567127 1.01811e-05
8.93253 0.432917 0.291502 9.16602e-05 0.0417787 7.50016e-06
8.93253 0.449473 0.311632 9.79898e-05 0.057737 1.0365e-05
8.93253 0.463195 0.339377 0.000106714 0.106457 1.91113e-05
8.93253 0.468998 0.367442 0.000115539 0.145195 2.60655e-05
8.93253 0.474201 0.390359 0.000122745 0.194444 3.49068e-05
8.93253 0.481631 0.419589 0.000131936 0.270382 4.85393e-05
8.93253 0.485916 0.455565 0.000143248 0.364583 6.54505e-05
8.47628 0.48592 0.489313 0.00015386 0.465262 8.35245e-05
8.14542 0.485754 0.520423 0.000163642 0.574108 0.000103065
7.43301 0.485395 0.557508 0.000175303 0.694912 0.000124752
5.6708 0.484508 0.592787 0.000186397 0.828453 0.000148725
3.56508 0.483449 0.626794 0.00019709 0.964322 0.000173116
1.04689 0.482181 0.660302 0.000207626 1.09931 0.00019735
-0.171791 0.479098 0.695068 0.000218558 1.23368 0.000221472
-0.582929 0.472979 0.730196 0.000229604 1.36492 0.000245031
-1.07505 0.465655 0.761867 0.000239562 1.44523 0.000259449
-1.50565 0.459247 0.786147 0.000247197 1.50826 0.000270765
-1.90857 0.453251 0.81342 0.000255773 1.5619 0.000280395
-2.32705 0.447023 0.83566 0.000262766 1.61106 0.000289219
-2.74187 0.440849 0.855774 0.00026909 1.65286 0.000296724
-3.11693 0.435267 0.872985 0.000274502 1.68675 0.000302808
-3.48686 0.429762 0.887946 0.000279207 1.71237 0.000307407
-3.87856 0.423933 0.899471 0.000282831 1.72987 0.000310548
-4.27995 0.417959 0.907511 0.000285359 1.73876 0.000312144
-4.68403 0.411945 0.91205 0.000286786 1.73713 0.000311852
-5.11844 0.40548 0.912219 0.000286839 1.7195 0.000308686
-5.5919 0.398434 0.907292 0.00028529 1.6869 0.000302834
-6.08529 0.391091 0.896725 0.000281967 1.6413 0.000294649
-6.53508 0.384397 0.877016 0.00027577 1.58398 0.000284359
-6.79081 0.380592 0.842005 0.000264761 1.52166 0.000273169
-7.14288 0.375352 0.813263 0.000255723 1.44102 0.000258694
-7.6222 0.368219 0.771317 0.000242534 1.35703 0.000243615
-8.19849 0.359642 0.728149 0.00022896 1.26358 0.00022684
-8.78456 0.35092 0.680329 0.000213923 1.16522 0.000209182
-9.45299 0.340972 0.630023 0.000198105 1.05978 0.000190253
-10.2505 0.329103 0.575252 0.000180883 0.950338 0.000170606
-11.1238 0.316107 0.516971 0.000162557 0.839105 0.000150637
-12.0078 0.30295 0.455266 0.000143154 0.727058 0.000130522
-12.9144 0.289459 0.391059 0.000122965 0.61329 0.000110099
-13.8461 0.275593 0.323418 0.000101696 0.499218 8.96202e-05
-14.7676 0.261878 0.253567 7.97318e-05 0.386084 6.93103e-05
-15.6636 0.248544 0.183563 5.77196e-05 0.273802 4.91533e-05
-16.5987 0.234628 0.116894 3.67562e-05 0.159415 2.86185e-05
-17.4814 0.221491 0.0465819 1.46473e-05 0.0478498 8.59005e-06
-18.27 0.209754 -0.0203004 -6.38329e-06 -0.0422983 -7.59345e-06
-18.9499 0.199637 -0.080573 -2.53355e-05 -0.131915 -2.36815e-05
-19.5105 0.191294 -0.148485 -4.66899e-05 -0.214448 -3.8498e-05
-19.945 0.184828 -0.215742 -6.7838e-05 -0.290752 -5.21962e-05
-20.2393 0.180448 -0.283997 -8.93002e-05 -0.358774 -6.44076e-05
-20.3472 0.178842 -0.334257 -0.000105104 -0.430405 -7.72669e-05
-20.088 0.178928 -0.3742 -0.000117664 -0.508594 -9.13034e-05
-19.6259 0.17916 -0.41631 -0.000130905 -0.586913 -0.000105363
-18.6317 0.179661 -0.455154 -0.000143119 -0.657133 -0.000117969
-16.9586 0.180503 -0.47828 -0.000150391 -0.723388 -0.000129864
-14.8266 0.181576 -0.491818 -0.000154648 -0.791482 -0.000142088
-12.2606 0.182867 -0.498797 -0.000156842 -0.857002 -0.00015385
-9.25083 0.184382 -0.498384 -0.000156712 -0.913934 -0.000164071
-5.93063 0.186053 -0.48749 -0.000153287 -0.960624 -0.000172452
-1.31522 0.188375 -0.468119 -0.000147196 -1.00029 -0.000179574
0.119056 0.192997 -0.445598 -0.000140114 -1.03149 -0.000185174
0.357878 0.200941 -0.41891 -0.000131722 -1.04933 -0.000188377
0.657638 0.210912 -0.385408 -0.000121188 -1.05145 -0.000188758
0.945287 0.220479 -0.34495 -0.000108466 -1.03346 -0.000185528
1.18714 0.228524 -0.311407 -9.79191e-05 -0.988575 -0.00017747
1.41054 0.235955 -0.277593 -8.72865e-05 -0.913524 -0.000163997
1.64015 0.243592 -0.217249 -6.8312e-05 -0.802697 -0.000144101
1.81399 0.249374 -0.160201 -5.03738e-05 -0.662137 -0.000118868
1.91518 0.25274 -0.109816 -3.45306e-05 -0.493186 -8.85373e-05
1.98317 0.255001 -0.0495076 -1.55672e-05 -0.293128 -5.26228e-05
2.02829 0.256502 0.0202004 6.35184e-06 -0.0654537 -1.17503e-05
2.01153 0.257146 0.0842947 2.65057e-05 0.119205 2.13998e-05
1.27228 0.256774 0.141686 4.45519e-05 0.23499 4.21858e-05
0.110921 0.256189 0.199957 6.28746e-05 0.384421 6.90118e-05
-0.258367 0.254028 0.261394 8.21929e-05 0.535485 9.61309e-05
-0.833555 0.24934 0.324201 0.000101942 0.673959 0.00012099
-1.51941 0.24375 0.382602 0.000120306 0.80905 0.000145242
-2.21438 0.238087 0.440135 0.000138396 0.954742 0.000171397
-3.00033 0.231681 0.49664 0.000156164 1.10233 0.000197891
-3.89469 0.224393 0.549909 0.000172914 1.23711 0.000222087
-4.79793 0.217032 0.59926 0.000188432 1.35797 0.000243784
-5.6945 0.209725 0.645562 0.000202991 1.47248 0.000264341
-6.6419 0.202004 0.688288 0.000216426 1.57977 0.000283602
-7.62563 0.193987 0.726015 0.000228289 1.6722 0.000300195
-8.53965 0.186538 0.756753 0.000237954 1.74638 0.000313513
-9.17634 0.181349 0.773868 0.000243336 1.74924 0.000314026
-9.77542 0.176466 0.783356 0.000246319 1.74576 0.000313402
-10.3951 0.171416 0.785257 0.000246917 1.76574 0.000316989
-10.9866 0.166595 0.782511 0.000246053 1.7741 0.000318489
-11.4861 0.162524 0.779928 0.000245241 1.74991 0.000314146
-11.9858 0.158452 0.774225 0.000243448 1.70298 0.00030572
-12.4241 0.15488 0.752541 0.00023663 1.65809 0.000297663
-12.8761 0.151196 0.72572 0.000228196 1.59401 0.000286158
-13.2995 0.147746 0.691427 0.000217413 1.49395 0.000268195
-13.7114 0.144389 0.649321 0.000204173 1.3678 0.000245549
-14.1322 0.14096 0.598547 0.000188208 1.23408 0.000221544
-14.5741 0.137359 0.540917 0.000170087 1.09271 0.000196165
-15.0405 0.133557 0.477468 0.000150135 0.933263 0.00016754
-15.5341 0.129534 0.408072 0.000128314 0.756922 0.000135884
-16.0115 0.125644 0.332001 0.000104395 0.575216 0.000103263
-16.4818 0.121812 0.252358 7.93518e-05 0.392208 7.04097e-05
-16.9611 0.117905 0.169054 5.31576e-05 0.205439 3.68807e-05
-17.471 0.11375 0.0835557 2.62733e-05 0.0132424 2.3773e-06
-18.0076 0.109376 -0.002468 -7.76039e-07 -0.120569 -2.16448e-05
-18.599 0.104557 -0.074515 -2.34306e-05 -0.250629 -4.49933e-05
-19.1697 0.0999053 -0.162114 -5.09752e-05 -0.385702 -6.92418e-05
-19.7135 0.0954738 -0.245097 -7.70687e-05 -0.505439 -9.07371e-05
-20.2556 0.0910561 -0.339978 -0.000106903 -0.606202 -0.000108826
-20.6671 0.0877025 -0.416235 -0.000130881 -0.705682 -0.000126685
-21.0756 0.0843735 -0.476236 -0.000149748 -0.816602 -0.000146597
-21.6147 0.0799793 -0.548656 -0.00017252 -0.926788 -0.000166378
-22.2132 0.0751023 -0.624146 -0.000196257 -1.0207 -0.000183237
-22.728 0.0709063 -0.686396 -0.000215831 -1.10164 -0.000197768
-23.2199 0.0668977 -0.738099 -0.000232089 -1.1824 -0.000212265
-23.7795 0.0623367 -0.791143 -0.000248768 -1.26304 -0.000226742
-24.3611 0.0575972 -0.843771 -0.000265316 -1.33186 -0.000239098
-24.902 0.0531889 -0.887282 -0.000278998 -1.38568 -0.000248758
-25.4404 0.0488016 -0.92202 -0.000289921 -1.43212 -0.000257097
-26.0154 0.0441153 -0.954196 -0.000300038 -1.47491 -0.000264777
-26.6017 0.0393373 -0.983297 -0.000309189 -1.50854 -0.000270815
-27.1672 0.034728 -1.00511 -0.000316048 -1.52863 -0.000274422
-27.7231 0.0301983 -1.0198 -0.000320668 -1.53832 -0.000276162
-28.2825 0.0256387 -1.03035 -0.000323984 -1.53741 -0.000275998
-28.8377 0.0211143 -1.03559 -0.000325631 -1.51829 -0.000272566
-29.3825 0.0166744 -1.03216 -0.000324552 -1.47983 -0.00026566
-29.9024 0.0124376 -1.0219 -0.000321326 -1.42223 -0.00025532
-30.4293 0.00814283 -1.00608 -0.000316354 -1.34843 -0.000242071
-30.9476 0.00391953 -0.986218 -0.000310107 -1.25989 -0.000226177
-31.2777 0.00122918 -0.960762 -0.000302103 -1.15654 -0.000207623
-31.2951 0.00108731 -0.935244 -0.000294079 -1.03592 -0.00018597
-31.3144 0.000929667 -0.895981 -0.000281733 -0.911553 -0.000163643
-31.3287 0.00081327 -0.86221 -0.000271114 -0.775849 -0.000139281
-31.3345 0.000765728 -0.82303 -0.000258794 -0.63786 -0.000114509
-31.337 0.000745445 -0.775869 -0.000243965 -0.494852 -8.88366e-05
-31.3386 0.000732892 -0.72543 -0.000228105 -0.35099 -6.30101e-05
-31.3147 0.000744892 -0.675418 -0.000212379 -0.209201 -3.7556e-05
-31.2455 0.000779709 -0.62257 -0.000195761 -0.0798544 -1.43356e-05
-31.1291 0.000838288 -0.569369 -0.000179033 -0.0119518 -2.1456e-06
-30.9267 0.000940148 -0.515197 -0.000161999 0.0446458 8.01487e-06
-30.5839 0.00111271 -0.463087 -0.000145613 0.110627 1.98599e-05
-29.9881 0.00141251 -0.409168 -0.000128659 0.166661 2.99192e-05
-28.9276 0.00194625 -0.353991 -0.000111309 0.214308 3.84729e-05
-27.4768 0.00267637 -0.299938 -9.43128e-05 0.261909 4.70182e-05
-25.9589 0.00344028 -0.248072 -7.8004e-05 0.313224 5.62303e-05
-24.4848 0.00418214 -0.197653 -6.21503e-05 0.361969 6.49812e-05
-23.0811 0.00488855 -0.148656 -4.67434e-05 0.404205 7.25635e-05
-21.8186 0.00552392 -0.102405 -3.22003e-05 0.443083 7.95428e-05
-20.75 0.0060617 -0.0598684 -1.88251e-05 0.482571 8.66318e-05
-19.911 0.00648392 -0.0219056 -6.88802e-06 0.521241 9.35739e-05
-19.3605 0.00676098 0.00674005 2.11935e-06 0.55565 9.97509e-05
-19.1026 0.00689073 0.0317979 9.99857e-06 0.586599 0.000105307
-19.1711 0.00685629 0.0529072 1.66362e-05 0.61568 0.000110528
-19.5641 0.00665852 0.0699247 2.19872e-05 0.643567 0.000115534
-20.279 0.00629872 0.0830353 2.61097e-05 0.668542 0.000120017
-21.2991 0.00578532 0.0919111 2.89006e-05 0.68955 0.000123789
-22.6282 0.00511645 0.0971239 3.05397e-05 0.707625 0.000127034
-24.2617 0.00429439 0.0966027 3.03758e-05 0.722538 0.000129711
-26.203 0.00331743 0.0900683 2.83212e-05 0.733734 0.000131721
-28.3315 0.00224624 0.0794009 2.49669e-05 0.740261 0.000132893
-30.0967 0.00135787 0.0629904 1.98068e-05 0.741909 0.000133189
-30.9224 0.000942353 0.0354931 1.11605e-05 0.736654 0.000132245
-31.3141 0.000745227 0.00293844 9.23966e-07 0.721707 0.000129562
-31.3536 0.000610027 -0.0345958 -1.08783e-05 0.69577 0.000124906
-31.3644 0.000522231 -0.07796 -2.45138e-05 0.659288 0.000118356
-31.3718 0.000462044 -0.120239 -3.78081e-05 0.610792 0.00010965
-31.3776 0.000415209 -0.162707 -5.11617e-05 0.550881 9.88948e-05
-31.3825 0.000375276 -0.210957 -6.63334e-05 0.478451 8.58921e-05
-31.3866 0.000341228 -0.264801 -8.32643e-05 0.394582 7.08359e-05
-31.3904 0.000310361 -0.31906 -0.000100326 0.300238 5.38991e-05
-31.3937 0.000283223 -0.372075 -0.000116996 0.19571 3.51342e-05
-31.3969 0.000257424 -0.427411 -0.000134396 0.0821472 1.47472e-05
-31.399 0.000240251 -0.488781 -0.000153693 -0.0376471 -6.75846e-06
-31.4013 0.000221723 -0.548805 -0.000172567 -0.140907 -2.52957e-05
-31.4035 0.000203548 -0.600749 -0.0001889 -0.24864 -4.46361e-05
-31.4056 0.000186577 -0.658383 -0.000207023 -0.360947 -6.47977e-05
-31.4078 0.000169095 -0.7148 -0.000224762 -0.467992 -8.40144e-05
-31.4098 0.000152657 -0.773596 -0.00024325 -0.563575 -0.000101174
-31.4118 0.000136231 -0.831499 -0.000261457 -0.662607 -0.000118952
-31.4137 0.000120281 -0.889961 -0.00027984 -0.768032 -0.000137878
-31.4156 0.000104728 -0.948893 -0.000298371 -0.87006 -0.000156194
-31.4175 8.95842e-05 -1.00823 -0.000317029 -0.961723 -0.00017265
-31.4193 7.47541e-05 -1.06729 -0.0003356 -1.04777 -0.000188098
-31.421 6.11837e-05 -1.12639 -0.000354184 -1.13288 -0.000203376
-31.4225 4.90792e-05 -1.18558 -0.000372794 -1.21429 -0.00021799
-31.4237 3.87375e-05 -1.24313 -0.000390892 -1.28757 -0.000231147
-31.4248 2.97539e-05 -1.29904 -0.000408473 -1.3528 -0.000242857
-31.4258 2.1857e-05 -1.35295 -0.000425424 -1.41365 -0.000253779
-31.4266 1.51104e-05 -1.40403 -0.000441484 -1.47087 -0.000264052
-31.4273 9.45064e-06 -1.45137 -0.00045637 -1.52246 -0.000273314
-31.4279 4.75522e-06 -1.49445 -0.000469917 -1.56772 -0.000281439
-31.4284 9.84739e-07 -1.53278 -0.000481969 -1.60832 -0.000288728
-31.4287 -1.9149e-06 -1.56569 -0.000492316 -1.64554 -0.000295409
-31.429 -3.98775e-06 -1.59263 -0.000500787 -1.67885 -0.00030139
-31.4291 -5.20451e-06 -1.61336 -0.000507308 -1.70742 -0.000306518
-31.4291 -5.51459e-06 -1.62776 -0.000511833 -1.7314 -0.000310823
-31.4279 -4.90875e-06 -1.63563 -0.000514308 -1.75131 -0.000314397
-31.4246 -3.23816e-06 -1.63797 -0.000515044 -1.76744 -0.000317293
-31.4175 3.45159e-07 -1.63278 -0.000513413 -1.778 -0.000319188
-31.4076 5.30087e-06 -1.61887 -0.000509039 -1.78224 -0.000319951
-31.3983 9.99797e-06 -1.59699 -0.000502158 -1.77887 -0.000319346
-31.3921 1.31124e-05 -1.57719 -0.000495934 -1.76674 -0.000317168
-31.3839 1.72363e-05 -1.5523 -0.000488107 -1.74131 -0.000312602
-31.3753 2.15769e-05 -1.51674 -0.000476924 -1.70057 -0.000305289
-31.3689 2.47823e-05 -1.47701 -0.000464434 -1.64522 -0.000295352
-31.3637 2.74321e-05 -1.43846 -0.000452312 -1.57558 -0.000282851
-31.3607 2.89095e-05 -1.39681 -0.000439214 -1.4899 -0.000267469
-31.3593 2.96082e-05 -1.3469 -0.00042352 -1.38868 -0.000249297
-31.3481 3.5276e-05 -1.29878 -0.00040839 -1.27066 -0.00022811
-31.3465 3.60913e-05 -1.25063 -0.000393248 -1.14062 -0.000204765
-31.3442 3.72115e-05 -1.20264 -0.000378158 -0.998716 -0.000179291
-31.345 3.68099e-05 -1.15196 -0.000362224 -0.845897 -0.000151857
-31.3501 3.42514e-05 -1.1011 -0.000346231 -0.68452 -0.000122886
-31.3567 3.09531e-05 -1.05138 -0.000330598 -0.518819 -9.3139e-05
-31.3649 2.6823e-05 -1.00252 -0.000315234 -0.350212 -6.28704e-05
-31.3744 2.20078e-05 -0.954078 -0.000300001 -0.180786 -3.24549e-05
-31.3839 1.72423e-05 -0.907686 -0.000285414 -0.072375 -1.29929e-05
-31.3907 1.38313e-05 -0.870401 -0.00027369 -0.0175096 -3.14334e-06
-31.3969 1.06908e-05 -0.832943 -0.000261911 0.0470924 8.45409e-06
-31.3991 9.61181e-06 -0.799589 -0.000251424 0.11278 2.02464e-05
-31.3976 1.03418e-05 -0.765651 -0.000240752 0.15934 2.86049e-05
-31.3917 1.33042e-05 -0.733994 -0.000230798 0.197047 3.53741e-05
-31.3813 1.85749e-05 -0.705291 -0.000221772 0.237743 4.268e-05
-31.3655 2.64925e-05 -0.67897 -0.000213496 0.279254 5.01321e-05
-31.3436 3.75222e-05 -0.653963 -0.000205633 0.310205 5.56884e-05
-31.3144 5.2235e-05 -0.630655 -0.000198304 0.329411 5.91362e-05
-31.2766 7.12435e-05 -0.60955 -0.000191668 0.344016 6.17582e-05
-31.2286 9.5409e-05 -0.590454 -0.000185663 0.356717 6.40383e-05
-31.1677 0.000126042 -0.572938 -0.000180155 0.361227 6.48479e-05
-31.0899 0.000165221 -0.557552 -0.000175317 0.349803 6.2797e-05
-30.9887 0.000216151 -0.544351 -0.000171166 0.327062 5.87145e-05
-30.853 0.000284439 -0.533121 -0.000167635 0.29646 5.32209e-05
-30.6594 0.000381878 -0.523262 -0.000164535 0.256424 4.60336e-05
-30.3447 0.000540247 -0.514411 -0.000161752 0.205791 3.69438e-05
-29.6202 0.000904836 -0.50639 -0.00015923 0.147543 2.64871e-05
-25.8658 0.00279429 -0.50048 -0.000157371 0.08604 1.5446e-05
-18.9428 0.00627836 -0.496001 -0.000155963 0.0232794 4.17914e-06
-13.3744 0.00908067 -0.47998 -0.000150925 -0.0445046 -7.98952e-06
-7.73935 0.0119166 -0.468372 -0.000147275 -0.110646 -1.98633e-05
0.00366839 0.0160046 -0.459071 -0.000144351 -0.175272 -3.14651e-05
0.159897 0.0242308 -0.451914 -0.0001421 -0.22992 -4.12755e-05
0.415899 0.0377105 -0.44589 -0.000140206 -0.268998 -4.82909e-05
0.726674 0.0540741 -0.441084 -0.000138695 -0.301998 -5.42151e-05
1.02873 0.0699788 -0.434359 -0.00013658 -0.332898 -5.97623e-05
1.30425 0.0844861 -0.4255 -0.000133795 -0.35582 -6.38773e-05
1.57335 0.0986553 -0.414083 -0.000130205 -0.36622 -6.57443e-05
1.84291 0.112849 -0.398452 -0.00012529 -0.365626 -6.56377e-05
2.09679 0.126217 -0.378729 -0.000119088 -0.35477 -6.36888e-05
2.32666 0.138321 -0.355945 -0.000111924 -0.329656 -5.91803e-05
2.54256 0.149689 -0.330038 -0.000103777 -0.287401 -5.15947e-05
2.75179 0.160706 -0.299326 -9.41205e-05 -0.227984 -4.09281e-05
2.94963 0.171123 -0.263971 -8.30034e-05 -0.153119 -2.74881e-05
3.13358 0.180809 -0.227958 -7.16792e-05 -0.0641581 -1.15177e-05
3.31081 0.190141 -0.194286 -6.10915e-05 0.0349416 6.27275e-06
3.48883 0.199514 -0.159127 -5.00362e-05 0.105883 1.90082e-05
3.67235 0.209177 -0.126719 -3.98458e-05 0.152835 2.74372e-05
3.87238 0.21971 -0.0908889 -2.85792e-05 0.212133 3.80823e-05
4.10227 0.231815 -0.0430997 -1.35523e-05 0.284463 5.10673e-05
4.32622 0.243607 -0.00227463 -7.15236e-07 0.350908 6.29954e-05
4.54134 0.254934 0.0344282 1.08257e-05 0.41067 7.3724e-05
4.76961 0.266953 0.0786579 2.47333e-05 0.477713 8.57597e-05
5.01635 0.279945 0.126828 3.98799e-05 0.552392 9.91661e-05
5.26581 0.29308 0.171902 5.4053e-05 0.624817 0.000112168
5.51482 0.306192 0.216158 6.7969e-05 0.692203 0.000124265
5.77502 0.319893 0.263665 8.29071e-05 0.759255 0.000136302
6.04984 0.334363 0.312092 9.81346e-05 0.827725 0.000148594
6.33263 0.349253 0.35848 0.000112721 0.894372 0.000160559
6.62262 0.364522 0.403961 0.000127022 0.956812 0.000171768
6.92601 0.380497 0.449786 0.000141431 1.01582 0.000182361
7.24397 0.397239 0.4946 0.000155523 1.07257 0.000192549
7.57187 0.414505 0.537154 0.000168903 1.12662 0.000202252
7.90801 0.432204 0.577907 0.000181718 1.17676 0.000211253
8.25436 0.450441 0.617216 0.000194078 1.22257 0.000219478
8.60978 0.469156 0.654448 0.000205785 1.2645 0.000227005
8.93253 0.488096 0.689178 0.000216706 1.30286 0.000233891
8.93253 0.507865 0.720586 0.000226582 1.3376 0.000240128
8.93253 0.528319 0.749528 0.000235682 1.36845 0.000245666
8.93253 0.548351 0.776946 0.000244304 1.3944 0.000250325
8.93253 0.567413 0.8015 0.000252024 1.41677 0.000254341
8.93253 0.585898 0.823783 0.000259031 1.43521 0.000257651
8.93253 0.604661 0.842924 0.00026505 1.45035 0.000260369
8.93253 0.62342 0.85922 0.000270174 1.46217 0.000262491
8.93253 0.641244 0.873374 0.000274625 1.47027 0.000263945
8.93253 0.658034 0.884434 0.000278102 1.47574 0.000264927
8.93253 0.674209 0.893044 0.00028081 1.47713 0.000265177
8.93253 0.689422 0.899404 0.000282809 1.47433 0.000264674
8.93253 0.703196 0.903593 0.000284127 1.46715 0.000263385
8.93253 0.715852 0.904909 0.000284541 1.45667 0.000261503
8.93253 0.727755 0.904354 0.000284366 1.44255 0.000258968
8.93253 0.738673 0.901917 0.0002836 1.42549 0.000255906
8.93253 0.748151 0.897945 0.000282351 1.40569 0.000252351
8.93253 0.754712 0.898697 0.000282587 1.38193 0.000248086
8.93253 0.761046 0.896993 0.000282051 1.35701 0.000243612
8.93253 0.766551 0.892412 0.000280611 1.33201 0.000239124
8.93253 0.769939 0.88798 0.000279217 1.30283 0.000233886
8.93253 0.77232 0.880121 0.000276746 1.27352 0.000228624
8.93253 0.774185 0.871534 0.000274046 1.24409 0.000223341
8.93253 0.775108 0.861793 0.000270983 1.21531 0.000218173
8.44441 0.774862 0.85118 0.000267646 1.18615 0.00021294
7.75501 0.774515 0.838512 0.000263662 1.15851 0.000207977
6.78936 0.774029 0.826219 0.000259797 1.13211 0.000203238
5.37253 0.773316 0.812338 0.000255432 1.10873 0.00019904
3.66474 0.772457 0.797655 0.000250816 1.08705 0.000195148
1.55249 0.771394 0.782369 0.000246009 1.06729 0.000191601
-0.0734156 0.768887 0.767462 0.000241322 1.04932 0.000188376
-0.31865 0.763122 0.754388 0.00023721 1.03202 0.00018527
-0.695167 0.75427 0.741874 0.000233276 1.01583 0.000182363
-1.13016 0.744044 0.729455 0.000229371 1.00135 0.000179764
-1.60175 0.732958 0.717803 0.000225707 0.988343 0.000177429
-2.14866 0.720101 0.706634 0.000222195 0.976712 0.000175341
-2.78477 0.705146 0.695326 0.000218639 0.966577 0.000173521
-3.48772 0.688621 0.684033 0.000215088 0.958036 0.000171988
-4.25051 0.670689 0.672686 0.00021152 0.951116 0.000170746
-5.08562 0.651056 0.660721 0.000207758 0.945718 0.000169777
-5.99772 0.629614 0.647666 0.000203653 0.941855 0.000169083
-6.97482 0.606644 0.633314 0.00019914 0.939413 0.000168645
-8.00667 0.582386 0.617195 0.000194071 0.938347 0.000168453
-9.09653 0.556765 0.599181 0.000188407 0.937829 0.00016836
-10.247 0.529719 0.578764 0.000181987 0.937432 0.000168289
-11.4539 0.501346 0.555812 0.00017477 0.936475 0.000168117
-12.7117 0.471778 0.53016 0.000166704 0.934161 0.000167702
-14.0181 0.441066 0.501586 0.000157719 0.929467 0.000166859
-15.3699 0.409285 0.469854 0.000147741 0.921387 0.000165409
-16.7617 0.376567 0.434892 0.000136748 0.908919 0.00016317
-18.1859 0.343086 0.399077 0.000125486 0.890264 0.000159821
-19.6188 0.309402 0.365817 0.000115028 0.862317 0.000154804
-20.9947 0.277054 0.322441 0.000101389 0.832329 0.000149421
-22.3965 0.244101 0.281146 8.84037e-05 0.788529 0.000141558
-23.7975 0.211166 0.233353 7.33756e-05 0.736097 0.000132145
-25.1282 0.179883 0.178596 5.61578e-05 0.674191 0.000121032
-26.4324 0.149222 0.12261 3.85535e-05 0.600389 0.000107783
-27.679 0.119917 0.0561365 1.76516e-05 0.514386 9.23433e-05
-28.8417 0.0925813 -0.0152615 -4.79883e-06 0.420014 7.54015e-05
-29.9505 0.0665147 -0.0975087 -3.06607e-05 0.31142 5.59066e-05
-30.9818 0.0422722 -0.175175 -5.50821e-05 0.19305 3.46566e-05
-31.9067 0.020527 -0.240459 -7.56101e-05 0.0692359 1.24293e-05
-32.7434 0.000857857 -0.312043 -9.8119e-05 -0.0666765 -1.19699e-05
-32.7568 0.000542511 -0.445187 -0.000139985 -0.183863 -3.30074e-05
-32.7633 0.000391718 -0.507134 -0.000159464 -0.28364 -5.09193e-05
-32.7687 0.000262821 -0.599383 -0.00018847 -0.386131 -6.93187e-05
-32.7724 0.000176436 -0.694285 -0.000218312 -0.509409 -9.14497e-05
-32.7746 0.000124865 -0.792364 -0.000249152 -0.619743 -0.000111257
-32.7771 6.69475e-05 -0.878532 -0.000276247 -0.72177 -0.000129573
-32.7792 1.63352e-05 -0.966955 -0.00030405 -0.837566 -0.000150361
-32.7809 -2.39234e-05 -1.06122 -0.000333692 -0.966518 -0.000173511
-32.7827 -6.57027e-05 -1.15615 -0.000363542 -1.08647 -0.000195045
-32.7844 -0.00010651 -1.24791 -0.000392393 -1.19814 -0.000215092
-32.786 -0.000144 -1.34127 -0.00042175 -1.31345 -0.000235792
-32.5924 -0.000166788 -1.50786 -0.000474133 -1.25633 -0.000225538
-32.2166 2.23258e-05 -1.77065 -0.000556766 -1.62706 -0.000292091
-32.6956 -0.000218747 -1.8967 -0.000596402 -1.61528 -0.000289978
-32.7407 -0.000249515 -1.91378 -0.000601772 -1.66591 -0.000299065
-32.6328 -0.000195208 -1.98446 -0.000623997 -1.6697 -0.000299746
-32.7926 -0.000298051 -2.21618 -0.000696856 -1.46044 -0.00026218
-32.7955 -0.000366697 -2.36617 -0.000744019 -1.71694 -0.000308227
-32.796 -0.000377131 -2.45982 -0.000773469 -1.93052 -0.00034657
-32.7986 -0.000438277 -2.60813 -0.000820102 -1.96282 -0.000352368
-32.7994 -0.000457101 -2.74078 -0.000861813 -1.82956 -0.000328445
-32.7893 -0.000453582 -2.82478 -0.000888228 -1.87922 -0.000337359
-32.7976 -0.000457729 -2.83066 -0.000890075 -1.98543 -0.000356428
-32.8 -0.000473176 -2.81925 -0.000886489 -2.01734 -0.000362155
-32.8004 -0.00048099 -2.81367 -0.000884734 -1.97203 -0.000354021
-32.8007 -0.000488364 -2.79628 -0.000879264 -1.9286 -0.000346225
-32.8012 -0.000501223 -2.76226 -0.000868569 -2.04067 -0.000366344
-23.743 0.00405124 -2.74585 -0.000863407 -2.18894 -0.000392962
-30.6291 0.000585768 -1.77339 -0.000557626 -2.652 -0.00047609
-7.2256 0.0143145 -2.92657 -0.000920233 -1.92291 -0.000345203
-18.8398 0.000508799 -2.4315 -0.000764562 -2.43539 -0.000437204
-18.9781 0.000369631 -2.43769 -0.000766509 -2.39289 -0.000429575
-18.9381 0.000389775 -2.563 -0.000805913 -2.54079 -0.000456126
-18.9984 0.000345503 -2.55936 -0.000804767 -2.60374 -0.000467426
-19.0387 0.000297774 -2.40996 -0.000757791 -2.63238 -0.000472569
-19.0488 0.000285723 -2.33597 -0.000734524 -2.76067 -0.000495598
-19.0715 0.000258835 -2.35264 -0.000739766 -2.9622 -0.000531778
-19.0986 0.000226709 -2.33881 -0.000735417 -3.03946 -0.000545649
-19.1141 0.000208313 -2.27084 -0.000714046 -3.07889 -0.000552727
-19.1298 0.000189606 -2.22471 -0.00069954 -3.20763 -0.000575838
-19.1491 0.000166736 -2.21845 -0.000697572 -3.39435 -0.000609358
-19.157 0.000157397 -2.21482 -0.000696431 -3.56191 -0.000639438
-19.1637 0.00014937 -2.19939 -0.000691577 -3.63978 -0.000653418
-19.1728 0.000138611 -2.18344 -0.000686563 -3.59911 -0.000646116
-19.1773 0.000133304 -2.12495 -0.000668173 -3.69974 -0.000664181
-18.3281 0.000558888 0.111496 3.5059e-05 -3.11158 -0.000558594
-16.7051 0.0013757 0.195275 6.14025e-05 -2.609 -0.000468371
-19.0058 0.000172678 0.18153 5.70804e-05 -3.80835 -0.00068368
-19.0272 0.000161872 0.0768383 2.41611e-05 -3.6594 -0.00065694
-19.1812 8.43687e-05 0.156387 4.91745e-05 -3.45878 -0.000620925
-19.1624 9.38665e-05 -0.0225307 -7.08456e-06 -3.51423 -0.000630879
-19.1281 0.0001111 -0.0818463 -2.57358e-05 -3.77239 -0.000677224
-19.1497 0.000100235 0.0168816 5.30827e-06 -3.7951 -0.000681301
-19.1469 0.000101656 0.0323863 1.01836e-05 -3.56873 -0.000640663
-19.1345 0.000107914 -0.0519856 -1.63464e-05 -3.48445 -0.000625532
-19.1355 0.00010738 -0.0916555 -2.88202e-05 -3.60442 -0.000647071
-19.1309 0.000109724 -0.0682899 -2.14731e-05 -0.966577 -0.000173521
-19.13 0.000110161 -0.0629962 -1.98086e-05 -1.19024 -0.000213674
-18.9965 0.000177323 -0.155875 -4.90135e-05 -1.2704 -0.000228064
-19.1198 0.000115268 -0.16417 -5.16218e-05 -1.0693 -0.000191962
-19.1109 0.000119781 -0.145984 -4.59035e-05 -0.879881 -0.000157957
-19.082 0.000134303 -0.179649 -5.6489e-05 -0.878575 -0.000157723
-19.102 0.000124249 -0.227322 -7.14795e-05 -0.999757 -0.000179478
-19.0951 0.000127709 -0.244721 -7.69503e-05 -0.992639 -0.0001782
-19.078 0.000136324 -0.25657 -8.06762e-05 -0.846953 -0.000152046
-19.0806 0.00013504 -0.279356 -8.78409e-05 -0.746635 -0.000134037
-19.0842 0.000133186 -0.303582 -9.54586e-05 -0.774638 -0.000139064
-19.0755 0.000137574 -0.32563 -0.000102391 -0.802966 -0.00014415
-19.0752 0.000137715 -0.343426 -0.000107987 -0.74159 -0.000133131
-19.0835 0.000133577 -0.355832 -0.000111888 -0.653698 -0.000117353
-19.0841 0.000133267 -0.368998 -0.000116028 -0.622968 -0.000111836
-19.087 0.000131793 -0.385715 -0.000121285 -0.629209 -0.000112956
-19.0961 0.000127226 -0.397197 -0.000124895 -0.61264 -0.000109982
-19.1041 0.000123166 -0.401847 -0.000126357 -0.565571 -0.000101532
-19.1113 0.00011958 -0.408378 -0.000128411 -0.522963 -9.38831e-05
-19.0454 0.000152755 -0.415149 -0.00013054 -0.507957 -9.11892e-05
-19.0678 0.000141475 -0.418378 -0.000131555 -0.502331 -9.01791e-05
-19.0322 0.000159351 -0.418934 -0.00013173 -0.480452 -8.62513e-05
