2.02131 255.429 5.68434e-14 -2.02131 -255.429 -415.915 8.85089 165.273 -795.34 -8.85089 -165.273 -841.233 1.0145 56.3795 -276.426 -1.0145 -56.3795 -24.5766 -2.09877 255.523 -5.68434e-14 2.09877 -255.523 431.985 -8.84142 165.279 792.188 8.84142 -165.279 842.53 -1.01445 56.3705 277.992 1.01445 -56.3705 22.9447
2.06702 255.464 5.68434e-14 -2.06702 -255.464 -425.512 8.83205 165.268 -792.697 -8.83205 -165.268 -840.396 1.01549 56.3797 -276.681 -1.01549 -56.3797 -24.6143 -2.05078 255.488 5.68434e-14 2.05078 -255.488 421.918 -8.86083 165.284 794.767 8.86083 -165.284 843.539 -1.01353 56.3703 277.772 1.01353 -56.3703 22.8893
2.18854 255.564 -1.13687e-13 -2.18854 -255.564 -451.01 8.78448 165.253 -786.08 -8.78448 -165.253 -838.225 1.01751 56.3804 -277.208 -1.01751 -56.3804 -24.6882 -1.92579 255.388 0 1.92579 -255.388 395.702 -8.91021 165.299 801.484 8.91021 -165.299 845.947 -1.01103 56.3696 277.117 1.01103 -56.3696 22.8039
2.44699 255.783 -1.13687e-13 -2.44699 -255.783 -505.239 8.68937 165.224 -772.636 -8.68937 -165.224 -834.105 1.02089 56.3815 -278.108 -1.02089 -56.3815 -24.7868 -1.65897 255.169 0 1.65897 -255.169 339.746 -9.00812 165.327 814.978 9.00812 -165.327 850.544 -1.00663 56.3685 275.956 1.00663 -56.3685 22.6628
2.74039 256.041 0 -2.74039 -256.041 -566.807 8.59009 165.196 -758.223 -8.59009 -165.196 -830.191 1.02366 56.3822 -278.878 -1.02366 -56.3822 -24.8381 -1.35616 254.911 0 1.35616 -254.911 276.245 -9.10978 165.356 829.381 9.10978 -165.356 854.915 -1.00279 56.3678 274.898 1.00279 -56.3678 22.5827
3.11309 256.38 5.68434e-14 -3.11309 -256.38 -645.023 8.47639 165.164 -741.085 -8.47639 -165.164 -826.355 1.02582 56.3825 -279.539 -1.02582 -56.3825 -24.8135 -0.971584 254.571 -8.52651e-14 0.971584 -254.571 195.594 -9.22615 165.387 846.45 9.22615 -165.387 859.324 -0.999512 56.3675 273.938 0.999512 -56.3675 22.5713
3.56663 256.812 2.27374e-13 -3.56663 -256.812 -740.221 8.35544 165.133 -721.87 -8.35544 -165.133 -823.28 1.02644 56.3819 -279.877 -1.02644 -56.3819 -24.656 -0.50368 254.14 -1.42109e-14 0.50368 -254.14 97.4658 -9.3494 165.419 865.478 9.3494 -165.419 863.023 -0.997737 56.3681 273.294 0.997737 -56.3681 22.6922
4.10209 257.346 0 -4.10209 -257.346 -852.635 8.23591 165.106 -701.377 -8.23591 -165.106 -821.776 1.02446 56.3799 -279.638 -1.02446 -56.3799 -24.3016 0.0485693 253.606 1.77636e-14 -0.0485693 -253.606 -18.3535 -9.47027 165.446 885.616 9.47027 -165.446 865.14 -0.998531 56.3701 273.216 0.998531 -56.3701 23.0104
4.72034 257.994 0 -4.72034 -257.994 -982.462 8.12767 165.087 -680.52 -8.12767 -165.087 -822.767 1.0188 56.3762 -278.564 -1.0188 -56.3762 -23.6903 0.686022 252.958 -4.26326e-14 -0.686022 -252.958 -152.044 -9.5783 165.464 905.896 9.5783 -165.464 864.705 -1.00306 56.3738 273.981 1.00306 -56.3738 23.5928
5.42247 258.768 3.41061e-13 -5.42247 -258.768 -1129.94 8.04147 165.082 -660.282 -8.04147 -165.082 -827.26 1.00844 56.3703 -276.407 -1.00844 -56.3703 -22.7662 1.40971 252.184 -1.7053e-13 -1.40971 -252.184 -303.821 -9.66233 165.469 925.282 9.66233 -165.469 860.675 -1.0125 56.3797 275.88 1.0125 -56.3797 24.504
6.20832 259.682 -1.13687e-13 -6.20832 -259.682 -1295.06 7.98914 165.097 -641.776 -7.98914 -165.097 -836.344 0.992334 56.3617 -272.91 -0.992334 -56.3617 -21.4757 2.21945 251.269 6.82121e-13 -2.21945 -251.269 -473.646 -9.70991 165.455 942.596 9.70991 -165.455 851.919 -1.02807 56.3883 279.21 1.02807 -56.3883 25.8022
7.07447 260.746 -2.27374e-13 -7.07447 -260.746 -1477.12 7.98416 165.136 -626.332 -7.98416 -165.136 -851.187 0.969374 56.3501 -267.797 -0.969374 -56.3501 -19.769 3.11072 250.206 0 -3.11072 -250.206 -660.567 -9.70818 165.416 956.627 9.70818 -165.416 837.259 -1.0509 56.3999 284.259 1.0509 -56.3999 27.5356
8.0101 261.955 2.27374e-13 -8.0101 -261.955 -1673.87 8.0405 165.207 -615.38 -8.0405 -165.207 -872.956 0.938568 56.3352 -260.799 -0.938568 -56.3352 -17.6182 4.0694 248.996 -1.13687e-13 -4.0694 -248.996 -861.642 -9.64502 165.345 966.364 9.64502 -165.345 815.454 -1.08177 56.4148 291.227 1.08177 -56.4148 29.7355
8.99795 263.321 -2.27374e-13 -8.99795 -263.321 -1881.7 8.17909 165.318 -611.274 -8.17909 -165.318 -903.176 0.898856 56.3167 -251.634 -0.898856 -56.3167 -14.9944 5.08069 247.631 1.13687e-13 -5.08069 -247.631 -1073.74 -9.49575 165.233 968.855 9.49575 -165.233 784.887 -1.12226 56.4333 300.542 1.12226 -56.4333 32.4417
10.0094 264.83 2.27374e-13 -10.0094 -264.83 -2094.62 8.42278 165.481 -616.688 -8.42278 -165.481 -943.405 0.849366 56.2945 -240.042 -0.849366 -56.2945 -11.8995 6.11583 246.122 -1.13687e-13 -6.11583 -246.122 -1290.83 -9.23523 165.071 961.206 9.23523 -165.071 743.794 -1.17344 56.4555 312.507 1.17344 -56.4555 35.668
11.0062 266.463 2.27374e-13 -11.0062 -266.463 -2304.63 8.7955 165.704 -634.548 -8.7955 -165.704 -995.145 0.789572 56.2687 -225.837 -0.789572 -56.2687 -8.36438 7.13469 244.489 -6.82121e-13 -7.13469 -244.489 -1504.49 -8.83987 164.847 940.567 8.83987 -164.847 690.655 -1.23615 56.4813 327.393 1.23615 -56.4813 39.3929
11.9428 268.192 0 -11.9428 -268.192 -2502.13 9.32053 165.999 -667.841 -9.32053 -165.999 -1059.72 0.719369 56.2396 -208.922 -0.719369 -56.2396 -4.45821 8.09055 242.76 -2.27374e-13 -8.09055 -242.76 -1704.96 -8.2844 164.552 903.762 8.2844 -164.552 623.976 -1.31072 56.5104 345.364 1.31072 -56.5104 43.5424
12.7704 269.98 -2.27374e-13 -12.7704 -269.98 -2676.92 10.0188 166.375 -719.411 -10.0188 -166.375 -1138.16 0.639264 56.2079 -189.326 -0.639264 -56.2079 -0.305062 8.9332 240.972 4.54747e-13 -8.9332 -240.972 -1881.7 -7.54703 164.177 847.9 7.54703 -164.177 542.616 -1.39676 56.5421 366.427 1.39676 -56.5421 47.999
13.4423 271.789 1.59162e-12 -13.4423 -271.789 -2819.13 10.9052 166.838 -791.498 -10.9052 -166.838 -1230.97 0.550517 56.1747 -167.271 -0.550517 -56.1747 3.94066 9.61422 239.163 0 -9.61422 -239.163 -2024.61 -6.61272 163.714 770.761 6.61272 -163.714 446.026 -1.49306 56.5753 390.391 1.49306 -56.5753 52.5857
13.9169 273.578 4.54747e-13 -13.9169 -273.578 -2920.01 11.9858 167.393 -885.424 -11.9858 -167.393 -1337.94 0.455747 56.1416 -143.242 -0.455747 -56.1416 7.98402 10.0906 237.374 1.13687e-12 -10.0906 -237.374 -2124.68 -5.47517 163.158 671.022 5.47517 -163.158 334.372 -1.59725 56.6084 416.808 1.59725 -56.6084 57.0435
14.1578 275.302 0 -14.1578 -275.302 -2971.86 13.2578 168.041 -1001.6 -13.2578 -168.041 -1458.14 0.358513 56.111 -117.954 -0.358513 -56.111 11.4797 10.3248 235.649 -1.36424e-12 -10.3248 -235.649 -2174.08 -4.1374 162.51 548.316 4.1374 -162.51 208.597 -1.70572 56.639 444.958 1.70572 -56.639 61.0229
14.13 276.914 9.09495e-13 -14.13 -276.914 -2967.32 14.7107 168.78 -1139.7 -14.7107 -168.78 -1589.92 0.263238 56.0856 -92.3282 -0.263238 -56.0856 14.0315 10.2807 234.038 -4.54747e-13 -10.2807 -234.038 -2165.27 -2.61062 161.771 403.072 2.61062 -161.771 70.3728 -1.81386 56.6644 473.872 1.81386 -56.6644 64.1141
13.7962 278.353 9.09495e-13 -13.7962 -278.353 -2898.44 16.3275 169.605 -1298.87 -16.3275 -169.605 -1731.02 0.175221 56.0683 -67.4857 -0.175221 -56.0683 15.1858 9.91972 232.599 0 -9.91972 -232.599 -2090.2 -0.912846 160.947 236.296 0.912846 -160.947 -77.9525 -1.91611 56.6817 502.375 1.91611 -56.6817 65.846
13.113 279.546 0 -13.113 -279.546 -2756.05 18.0861 170.508 -1477.81 -18.0861 -170.508 -1878.53 0.100569 56.0627 -44.7296 -0.100569 -56.0627 14.4286 9.19731 231.406 -6.82121e-13 -9.19731 -231.406 -1939.55 0.931971 160.043 49.4276 -0.931971 -160.043 -233.351 -2.00634 56.6873 529.147 2.00634 -56.6873 65.7074
12.0305 280.403 1.13687e-12 -12.0305 -280.403 -2529.62 19.9581 171.475 -1674.84 -19.9581 -171.475 -2028.91 0.0458469 56.0723 -25.4834 -0.0458469 -56.0723 11.2311 8.063 230.549 2.27374e-13 -8.063 -230.549 -1702.77 2.88853 159.077 -155.434 -2.88853 -159.077 -391.359 -2.07989 56.6777 553.244 2.07989 -56.6777 63.2569
10.4992 280.831 -1.36424e-12 -10.4992 -280.831 -2208.65 21.9084 172.493 -1887.58 -21.9084 -172.493 -2177.95 0.0182789 56.1009 -11.3191 -0.0182789 -56.1009 5.01781 6.46532 230.12 -3.41061e-13 -6.46532 -230.12 -1369.08 4.92725 158.059 -376.059 -4.92725 -158.059 -548.69 -2.12582 56.6491 572.261 2.12582 -56.6491 57.6517
8.48749 280.746 2.27374e-13 -8.48749 -280.746 -1786.49 23.8879 173.547 -2111.96 -23.8879 -173.547 -2320.65 0.0260265 56.1526 -4.15888 -0.0260265 -56.1526 -4.71489 4.37336 230.206 1.02318e-12 -4.37336 -230.206 -931.968 6.9931 157.005 -607.886 -6.9931 -157.005 -699.681 -2.13675 56.5974 584.425 2.13675 -56.5974 48.467
6.00953 280.087 0 -6.00953 -280.087 -1266.12 25.8207 174.605 -2340.56 -25.8207 -174.605 -2450.28 0.0792409 56.2323 -6.25467 -0.0792409 -56.2323 -18.73 1.80267 230.865 -6.82121e-13 -1.80267 -230.865 -394.614 9.00761 155.946 -843.237 -9.00761 -155.946 -837.453 -2.10176 56.5177 587.246 2.10176 -56.5177 34.9573
3.14798 278.843 -2.84217e-13 -3.14798 -278.843 -664.955 27.5987 175.628 -2561.75 -27.5987 -175.628 -2558.42 0.188476 56.3448 -20.1163 -0.188476 -56.3448 -37.6512 -1.15935 232.109 1.13687e-13 1.15935 -232.109 224.818 10.8567 154.923 -1069.97 -10.8567 -154.923 -953 -2.00917 56.4052 577.966 2.00917 -56.4052 16.407
0.0513419 277.057 -5.86198e-14 -0.0513419 -277.057 -14.2794 29.0863 176.564 -2760.21 -29.0863 -176.564 -2635.29 0.364386 56.4943 -48.3271 -0.364386 -56.4943 -62.0571 -4.35788 233.894 1.13687e-13 4.35788 -233.894 894.069 12.3989 153.987 -1272.21 -12.3989 -153.987 -1036.02 -1.84739 56.2557 553.589 1.84739 -56.2557 -7.62459
-3.09912 274.801 -5.68434e-14 3.09912 -274.801 647.758 30.1397 177.357 -2919.29 -30.1397 -177.357 -2670.85 0.616145 56.6839 -93.2476 -0.616145 -56.6839 -92.3083 -7.60438 236.15 4.54747e-13 7.60438 -236.15 1573.82 13.4837 153.195 -1432.66 -13.4837 -153.195 -1075.91 -1.60429 56.0661 511.142 1.60429 -56.0661 -37.7599
-6.12856 272.126 1.13687e-13 6.12856 -272.126 1284.37 30.6224 177.952 -3022.93 -30.6224 -177.952 -2655.85 0.95194 56.9177 -156.895 -0.95194 -56.9177 -128.814 -10.7289 238.826 0 10.7289 -238.826 2228.53 13.9545 152.6 -1532.62 -13.9545 -152.6 -1062.44 -1.26989 55.8323 448.027 1.26989 -55.8323 -74.3551
-8.8786 269.132 9.09495e-13 8.8786 -269.132 1862.3 30.4293 178.307 -3058.68 -30.4293 -178.307 -2583.32 1.37585 57.1958 -240.463 -1.37585 -57.1958 -171.588 -13.5576 241.819 2.27374e-13 13.5576 -241.819 2821.93 13.7134 152.244 -1561.11 -13.7134 -152.244 -988.39 -0.839963 55.5542 363.062 0.839963 -55.5542 -117.479
-11.2248 265.883 2.27374e-13 11.2248 -265.883 2355.44 29.4874 178.387 -3017.51 -29.4874 -178.387 -2448.74 1.88768 57.5165 -344.186 -1.88768 -57.5165 -220.328 -15.9572 245.069 -4.54747e-13 15.9572 -245.069 3326.12 12.6901 152.164 -1509.68 -12.6901 -152.164 -849.25 -0.313445 55.2335 255.729 0.313445 -55.2335 -166.916
-13.0928 262.418 9.09495e-13 13.0928 -262.418 2748.18 27.7511 178.167 -2893.19 -27.7511 -178.167 -2249.9 2.48323 57.8763 -467.396 -2.48323 -57.8763 -274.45 -17.8461 248.534 9.09495e-13 17.8461 -248.534 3723.99 10.8448 152.384 -1373.05 -10.8448 -152.384 -642.893 0.304568 54.8737 126.815 -0.304568 -54.8737 -221.93
-14.4502 258.774 -1.36424e-12 14.4502 -258.774 3033.78 25.2307 177.638 -2686.03 -25.2307 -177.638 -1988.47 3.15231 58.2687 -608.152 -3.15231 -58.2687 -332.858 -19.1928 252.178 -9.09495e-13 19.1928 -252.178 4008.84 8.18106 152.914 -1150.83 -8.18106 -152.914 -370.404 1.00453 54.4813 -21.7377 -1.00453 -54.4813 -281.616
-15.2958 254.98 1.36424e-12 15.2958 -254.98 3212.1 21.9846 176.805 -2402.14 -21.9846 -176.805 -1669.14 3.87994 58.6846 -763.268 -3.87994 -58.6846 -394.282 -20.0044 255.971 2.27374e-12 20.0044 -255.971 4182.11 4.75736 153.747 -848.621 -4.75736 -153.747 -36.9885 1.77128 54.0654 -186.826 -1.77128 -54.0654 -344.561
-15.6724 251.058 1.81899e-12 15.6724 -251.058 3292.12 18.0899 175.684 -2049.1 -18.0899 -175.684 -1298.71 4.64806 59.1132 -928.99 -4.64806 -59.1132 -457.094 -20.324 259.894 9.09495e-13 20.324 -259.894 4252.66 0.660136 154.868 -475.113 -0.660136 -154.868 350.043 2.58506 53.6368 -364.186 -2.58506 -53.6368 -409.156
-15.6399 247.024 4.54747e-13 15.6399 -247.024 3286.49 13.6591 174.298 -1638.29 -13.6591 -174.298 -886.63 5.43477 59.542 -1100.65 -5.43477 -59.542 -519.447 -20.2162 263.928 -2.27374e-12 20.2162 -263.928 4233.95 -3.99802 156.253 -41.7278 3.99802 -156.253 781.257 3.42158 53.208 -548.599 -3.42158 -53.208 -473.392
-15.2729 242.879 -1.36424e-12 15.2729 -242.879 3210.8 8.82056 172.665 -1183.03 -8.82056 -172.665 -443.468 6.21397 59.9555 -1272.63 -6.21397 -59.9555 -579.19 -19.7591 268.072 -9.09495e-13 19.7591 -268.072 4142.23 -9.08975 157.887 437.996 9.08975 -157.887 1246.59 4.25229 52.7945 -733.546 -4.25229 -52.7945 -535.303
-14.6535 238.68 0 14.6535 -238.68 3082.29 3.72552 170.842 -698.479 -3.72552 -170.842 17.8848 6.96083 60.3409 -1439.58 -6.96083 -60.3409 -634.276 -19.0405 272.272 -1.81899e-12 19.0405 -272.272 3995.76 -14.4511 159.71 948.172 14.4511 -159.71 1731.57 5.05064 52.4091 -913.705 -5.05064 -52.4091 -592.319
-13.8601 234.462 0 13.8601 -234.462 2917.4 -1.47542 168.866 -199.797 1.47542 -168.866 484.629 7.64861 60.6827 -1595.76 -7.64861 -60.6827 -682.493 -18.1427 276.489 -9.09495e-13 18.1427 -276.489 3811.68 -19.917 161.685 1472.36 19.917 -161.685 2222.03 5.79139 52.0673 -1083.32 -5.79139 -52.0673 -642.695
-12.9536 230.287 -1.59162e-12 12.9536 -230.287 2728.82 -6.63174 166.781 298.134 6.63174 -166.781 943.716 8.25166 60.9665 -1735.6 -8.25166 -60.9665 -721.77 -17.1305 280.665 -4.54747e-13 17.1305 -280.665 3603.51 -25.3327 163.77 1995.24 25.3327 -163.77 2704.58 6.44512 51.7835 -1236.09 -6.44512 -51.7835 -683.984
-11.9689 226.236 0 11.9689 -226.236 2523.88 -11.605 164.627 781.961 11.605 -164.627 1382.81 8.74508 61.1786 -1853.71 -8.74508 -61.1786 -750.084 -16.0427 284.716 9.09495e-13 16.0427 -284.716 3379.21 -30.5532 165.924 2502.89 30.5532 -165.924 3166.25 6.98607 51.5714 -1366.35 -6.98607 -51.5714 -714.205
-10.9235 222.395 4.54747e-13 10.9235 -222.395 2306.18 -16.276 162.434 1240.02 16.276 -162.434 1791.45 9.10275 61.3061 -1944.35 -9.10275 -61.3061 -765.405 -14.8995 288.557 -9.09495e-13 14.8995 -288.557 3142.92 -35.4459 168.117 2982.74 35.4459 -168.117 3594.99 7.38967 51.4439 -1468.77 -7.38967 -51.4439 -731.394
-9.84005 218.853 -4.54747e-13 9.84005 -218.853 2080.48 -20.5268 160.244 1660.88 20.5268 -160.244 2159.19 9.30563 61.3375 -2003.15 -9.30563 -61.3375 -766.453 -13.7272 292.099 9.09495e-13 13.7272 -292.099 2900.08 -39.8863 170.307 3422.75 39.8863 -170.307 3979.68 7.63344 51.4125 -1538.37 -7.63344 -51.4125 -733.835
-8.77819 215.663 -6.82121e-13 8.77819 -215.663 1859.21 -24.218 158.1 2031.22 24.218 -158.1 2473.52 9.33871 61.2646 -2027.13 -9.33871 -61.2646 -751.712 -12.5878 295.289 -6.82121e-13 12.5878 -295.289 2663.61 -43.7389 172.451 3809.47 43.7389 -172.451 4308.67 7.69986 51.4854 -1571.17 -7.69986 -51.4854 -720.303
-7.84676 212.827 -1.36424e-12 7.84676 -212.827 1665.09 -27.2224 156.051 2337.28 27.2224 -156.051 2724.66 9.18641 61.08 -2012.71 -9.18641 -61.08 -720.161 -11.593 298.125 1.36424e-12 11.593 -298.125 2456.99 -46.8673 174.5 4128.28 46.8673 -174.5 4571.19 7.57236 51.67 -1563.43 -7.57236 -51.67 -689.633
-7.20191 210.287 -1.13687e-12 7.20191 -210.287 1530.67 -29.4102 154.146 2564.22 29.4102 -154.146 2903.46 8.83712 60.7782 -1957.12 -8.83712 -60.7782 -671.12 -10.9034 300.665 -1.36424e-12 10.9034 -300.665 2314 -49.1352 176.405 4363.9 49.1352 -176.405 4757.27 7.23871 51.9718 -1512.21 -7.23871 -51.9718 -641.107
-7.03987 207.932 -4.54747e-13 7.03987 -207.932 1496.88 -30.6592 152.429 2697.3 30.6592 -152.429 3002.05 8.28475 60.357 -1858.81 -8.28475 -60.357 -604.351 -10.7196 303.02 -6.82121e-13 10.7196 -303.02 2276.88 -50.4176 178.123 4501.32 50.4176 -178.123 4858.72 6.69092 52.393 -1415.46 -6.69092 -52.393 -574.402
-7.86358 204.995 -9.09495e-13 7.86358 -204.995 1668.54 -30.7458 150.608 2711.37 30.7458 -150.608 3004.31 7.30848 59.6644 -1675.39 -7.30848 -59.6644 -496.365 -11.5538 305.957 0 11.5538 -305.957 2453.76 -50.4756 179.944 4514.21 50.4756 -179.944 4857.82 5.7022 53.0856 -1229.31 -5.7022 -53.0856 -465.792
-10.2557 201.689 -4.54747e-13 10.2557 -201.689 2167.03 -29.0785 149.203 2538.06 29.0785 -149.203 2869.09 6.02637 58.7966 -1426.76 -6.02637 -58.7966 -362.633 -14.0032 309.263 -4.54747e-13 14.0032 -309.263 2970.21 -48.6975 181.348 4332.2 48.6975 -181.348 4711.3 4.38679 53.9534 -972.48 -4.38679 -53.9534 -330.663
-14.5983 197.585 9.09495e-13 14.5983 -197.585 3071.72 -25.6581 148.235 2170.68 25.6581 -148.235 2603.33 4.46831 57.7729 -1118.89 -4.46831 -57.7729 -206.106 -18.4511 313.366 -4.54747e-13 18.4511 -313.366 3907.5 -45.0864 182.316 3949.17 45.0864 -182.316 4425.97 2.77575 54.9771 -651.162 -2.77575 -54.9771 -172.018
-21.0935 192.301 -4.54747e-13 21.0935 -192.301 4424.12 -20.6617 147.663 1622.17 20.6617 -147.663 2227.06 2.6853 56.6217 -762.585 -2.6853 -56.6217 -31.2035 -25.0923 318.651 -3.63798e-12 25.0923 -318.651 5307.64 -39.8301 182.889 3379.23 39.8301 -182.889 4022.66 0.919653 56.1283 -276.382 -0.919653 -56.1283 6.14317
-29.6991 185.538 1.81899e-12 29.6991 -185.538 6214.45 -14.4609 147.358 927.802 14.4609 -147.358 1773.9 0.734149 55.3662 -372.083 -0.734149 -55.3662 159.383 -33.8681 325.414 1.81899e-12 33.8681 -325.414 7159.65 -33.3194 183.194 2659.61 33.3194 -183.194 3536.77 -1.11589 57.3838 136.244 1.11589 -57.3838 199.94
-40.1001 177.179 -1.81899e-12 40.1001 -177.179 8375.75 -7.62546 147.173 145.629 7.62546 -147.173 1291.37 -1.28202 54.0714 32.2684 1.28202 -54.0714 355.341 -44.4381 333.772 -9.09495e-13 44.4381 -333.772 9393.47 -26.1524 183.379 1851.05 26.1524 -183.379 3018.53 -3.226 58.6786 565.162 3.226 -58.6786 399.76
-51.7076 167.255 1.81899e-12 51.7076 -167.255 10784 -0.884003 146.88 -646.812 0.884003 -146.88 836.931 -3.26644 52.7885 428.893 3.26644 -52.7885 549.486 -56.1828 343.697 -1.81899e-12 56.1828 -343.697 11880.3 -19.0903 183.672 1034.3 19.0903 -183.672 2528.47 -5.30449 59.9615 986.344 5.30449 -59.9615 598.064
-63.7018 155.965 3.63798e-12 63.7018 -155.965 13267.6 4.92933 146.215 -1358.27 -4.92933 -146.215 473.799 -5.11682 51.5734 794.877 5.11682 -51.5734 734.345 -68.2521 354.987 0 68.2521 -354.987 14442.1 -13.0051 184.336 304.016 13.0051 -184.336 2133.65 -7.23582 61.1766 1374.14 7.23582 -61.1766 786.135
-75.171 143.604 5.45697e-12 75.171 -143.604 15636.5 8.97895 144.909 -1895.92 -8.97895 -144.909 263.868 -6.73537 50.4756 1108.43 6.73537 -50.4756 902.698 -79.7106 367.347 -3.63798e-12 79.7106 -367.347 16882.1 -8.76991 185.643 -243.685 8.76991 -185.643 1899.82 -8.91601 62.2744 1704.61 8.91601 -62.2744 956.986
-85.3091 130.455 -1.81899e-12 85.3091 -130.455 17723.5 10.552 142.727 -2180.38 -10.552 -142.727 259.67 -8.04171 49.5361 1351.66 8.04171 -49.5361 1048.58 -89.7391 380.496 -1.81899e-12 89.7391 -380.496 19027.2 -7.12576 187.824 -526.816 7.12576 -187.824 1882.5 -10.2565 63.2139 1957.58 10.2565 -63.2139 1104.39
-93.5616 116.699 -9.09495e-12 93.5616 -116.699 19414.4 9.15434 139.508 -2156.87 -9.15434 -139.508 497.807 -8.98174 48.7828 1512.45 8.98174 -48.7828 1168.09 -97.7799 394.252 1.09139e-11 97.7799 -394.252 20758.7 -8.58544 191.043 -488.91 8.58544 -191.043 2120.42 -11.1982 63.9672 2119.51 11.1982 -63.9672 1224.37
-99.6555 102.422 3.63798e-12 99.6555 -102.422 20653.7 4.54797 135.169 -1799.09 -4.54797 -135.169 995.817 -9.53142 48.2282 1585.28 9.53142 -48.2282 1259.65 -103.565 408.529 3.63798e-12 103.565 -408.529 22018.8 -13.3939 195.383 -102.969 13.3939 -195.383 2632.23 -11.714 64.5218 2184.19 11.714 -64.5218 1314.94
-103.558 87.6608 -1.81899e-12 103.558 -87.6608 21435.9 -3.2546 129.707 -1107.94 3.2546 -129.707 1751.98 -9.69727 47.8682 1571.5 9.69727 -47.8682 1323.86 -107.074 423.291 0 107.074 -423.291 22801.7 -21.5347 200.845 629.878 21.5347 -200.845 3416.33 -11.8113 64.8818 2153.2 11.8113 -64.8818 1376.72
-105.424 72.4456 -3.63798e-12 105.424 -72.4456 21794.2 -14.0129 123.195 -108.607 14.0129 -123.195 2746.57 -9.51565 47.683 1479.17 9.51565 -47.683 1363.48 -108.475 438.506 -3.63798e-12 108.475 -438.506 23142 -32.7515 207.356 1683.28 32.7515 -207.356 4451.83 -11.5296 65.067 2035.34 11.5296 -65.067 1412.71
-105.528 56.8438 -3.63798e-12 105.528 -56.8438 21786.7 -27.2973 115.768 1154.31 27.2973 -115.768 3944.26 -9.04939 47.6386 1322.14 9.04939 -47.6386 1383.34 -108.062 454.108 -3.63798e-12 108.062 -454.108 23100 -46.5909 214.783 3010.69 46.5909 -214.783 5701.52 -10.9369 65.1114 1845.72 10.9369 -65.1114 1427.96
-104.178 41.0082 5.45697e-12 104.178 -41.0082 21478.4 -42.5435 107.604 2623.3 42.5435 -107.604 5297.7 -8.38229 47.6901 1118.78 8.38229 -47.6901 1389.96 -106.163 469.943 0 106.163 -469.943 22744.1 -62.4604 222.947 4552.11 62.4604 -222.947 7115.65 -10.1231 65.0599 1604.41 10.1231 -65.0599 1429.19
-101.687 25.18 -1.81899e-11 101.687 -25.18 20935.2 -59.091 98.9135 4231.95 59.091 -98.9135 6750.73 -7.61367 47.7844 890.844 7.61367 -47.7844 1391.08 -103.115 485.772 9.09495e-12 103.115 -485.772 22143.6 -79.6678 231.638 6238.2 79.6678 -231.638 8635.21 -9.19446 64.9656 1335.09 9.19446 -64.9656 1424.34
-98.422 9.62175 9.09495e-12 98.422 -9.62175 20233.7 -76.194 89.9366 5905.05 76.194 -89.9366 8240.38 -6.85341 47.8628 662.51 6.85341 -47.8628 1395.13 -99.3023 501.33 -3.63798e-12 99.3023 -501.33 21379.2 -97.4327 240.615 7990.42 97.4327 -240.615 10193.8 -8.26884 64.8872 1064 8.26884 -64.8872 1422.24
-94.8559 -5.45906 3.63798e-12 94.8559 5.45906 19471.9 -93.0358 80.9392 7559.16 93.0358 -80.9392 9699.04 -6.21611 47.8643 459.103 6.21611 -47.8643 1410.81 -95.2152 516.411 -7.27596e-12 95.2152 -516.411 20553.7 -114.904 249.612 9721.72 114.904 -249.612 11720.2 -7.4696 64.8857 818.752 7.4696 -64.8857 1431.99
-91.5506 -19.9316 7.27596e-12 91.5506 19.9316 18765.7 -108.776 72.1977 9107.31 108.776 -72.1977 11058.5 -5.81362 47.7301 305.405 5.81362 -47.7301 1446.52 -91.4227 530.883 -3.63798e-12 91.4227 -530.883 19788.1 -131.208 258.354 11341.5 131.208 -258.354 13142.5 -6.91776 65.0199 626.611 6.91776 -65.0199 1462.36
-89.0673 -33.7077 -3.63798e-12 89.0673 33.7077 18230 -122.629 63.9752 10467.6 122.629 -63.9752 12255.4 -5.74663 47.4079 223.787 5.74663 -47.4079 1509.77 -88.4876 544.659 -1.81899e-12 88.4876 -544.659 19202.4 -145.529 266.576 12764.5 145.529 -266.576 14393.8 -6.72225 65.3421 512.249 6.72225 -65.3421 1521.12
-87.8397 -46.6756 3.63798e-12 87.8397 46.6756 17953.4 -133.945 56.4944 11573.3 133.945 -56.4944 13237.3 -6.09592 46.8559 232.284 6.09592 -46.8559 1606.44 -86.8425 557.627 1.81899e-12 86.8425 -557.627 18889.3 -157.201 274.057 13921.3 157.201 -274.057 15418.8 -6.97055 65.8941 495.547 6.97055 -65.8941 1614.43
-88.083 -58.6532 -5.45697e-12 88.083 58.6532 17979.5 -142.283 49.9165 12380.2 142.283 -49.9165 13966.9 -6.91578 46.0466 343.1 6.91578 -46.0466 1740.42 -86.7033 569.605 -1.81899e-12 86.7033 -569.605 18894.9 -165.766 280.635 14765.9 165.766 -280.635 16178.4 -7.72125 66.7034 589.9 7.72125 -66.7034 1746.38
-89.827 -69.4315 -1.81899e-12 89.827 69.4315 18314.3 -147.407 44.3399 12866.3 147.407 -44.3399 14423.3 -8.23161 44.9684 562.096 8.23161 -44.9684 1913.3 -88.1028 580.383 5.45697e-12 88.1028 -580.383 19226.4 -170.986 286.212 15275.1 170.986 -286.212 16650.5 -9.00151 67.7816 801.699 9.00151 -67.7816 1918.7
-93.0019 -78.8526 5.45697e-12 93.0019 78.8526 18943.4 -149.265 39.809 13027.9 149.265 -39.809 14601.1 -10.0398 43.6256 888.814 10.0398 -43.6256 2124.38 -90.9732 589.804 -9.09495e-12 90.9732 -589.804 19869.1 -172.812 290.743 15445 172.812 -290.743 16829.4 -10.8074 69.1244 1130.52 10.8074 -69.1244 2130.69
-97.4737 -86.8374 1.81899e-12 97.4737 86.8374 19839.4 -147.976 36.3182 12877.8 147.976 -36.3182 14509.2 -12.308 42.0383 1316.62 12.308 -42.0383 2370.66 -95.1815 597.789 -5.45697e-12 95.1815 -597.789 20794.6 -171.368 294.233 15288.9 171.368 -294.233 16724.7 -13.1047 70.7117 1569.34 13.1047 -70.7117 2379.26
-103.058 -93.388 -5.45697e-12 103.058 93.388 20964.5 -143.812 33.8161 12444.1 143.812 -33.8161 14170.5 -14.9773 40.2415 1833.12 14.9773 -40.2415 2646.94 -100.543 604.34 2.00089e-11 100.543 -604.34 21963.5 -166.941 296.735 14836 166.941 -296.735 16360.5 -15.8311 72.5085 2104.93 15.8311 -72.5085 2659.1
-109.533 -98.5844 1.81899e-12 109.533 98.5844 22273.3 -137.183 32.2112 11767.6 137.183 -32.2112 13619.6 -17.9653 38.283 2420.88 17.9653 -38.283 2946.13 -106.835 609.536 -3.63798e-12 106.835 -609.536 23327.9 -159.959 298.34 14129.1 159.959 -298.34 15773.4 -18.8994 74.467 2718.62 18.8994 -74.467 2962.93
-116.651 -102.579 -7.27596e-12 116.651 102.579 23715.5 -128.609 31.3791 10900 128.609 -31.3791 12901.1 -21.1702 36.2216 3058.35 21.1702 -36.2216 3259.57 -113.806 613.531 7.27596e-12 113.806 -613.531 24834.7 -150.962 299.172 13222.3 150.962 -299.172 15010.2 -22.202 76.5284 3387.28 22.202 -76.5284 3281.84
-124.151 -105.581 -1.09139e-11 124.151 105.581 25237.2 -118.695 31.1698 9900.64 118.695 -31.1698 12067.1 -24.4758 34.1238 3720.87 24.4758 -34.1238 3577.44 -121.188 616.532 1.09139e-11 121.188 -616.532 26426.9 -140.579 299.382 12177.6 140.579 -299.382 14126 -25.6164 78.6262 4084.47 25.6164 -78.6262 3605.72
-131.749 -107.826 -7.27596e-12 131.749 107.826 26780.4 -108.101 31.415 8834.62 108.101 -31.415 11174.5 -27.7572 32.0611 4381.89 27.7572 -32.0611 3889.25 -128.693 618.778 0 128.693 -618.778 28043 -129.497 299.137 11063.3 129.497 -299.137 13180.6 -29.0109 80.6889 4781.69 29.0109 -80.6889 3923.75
-139.153 -109.562 -3.63798e-12 139.153 109.562 28284.9 -97.5114 31.937 7769.24 97.5114 -31.937 10282.4 -30.8867 30.1059 5014.33 30.8867 -30.1059 4184.32 -136.018 620.514 -1.45519e-11 136.018 -620.514 29619.3 -118.428 298.614 9949.91 118.428 -298.614 12236.2 -32.2512 82.6441 5449.82 32.2512 -82.6441 4224.94
-146.094 -111.049 -7.27596e-12 146.094 111.049 29695.4 -87.5881 32.5623 6769.44 87.5881 -32.5623 9447.87 -33.741 28.3284 5592 33.741 -28.3284 4452.35 -142.886 622.001 -1.09139e-11 142.886 -622.001 31097.2 -108.058 297.989 8905.37 108.058 -297.989 11352.9 -35.2076 84.4216 6060.68 35.2076 -84.4216 4498.65
-152.373 -112.566 -1.81899e-11 152.373 112.566 30970.7 -78.9265 33.1337 5892.88 78.9265 -33.1337 8723.35 -36.2075 26.7926 6091.05 36.2075 -26.7926 4683.91 -149.086 623.518 7.27596e-12 149.086 -623.518 32432.6 -99.0088 297.418 7990.19 99.0088 -297.418 10585.8 -37.7619 85.9574 6588.61 37.7619 -85.9574 4735.18
-157.877 -114.408 -3.63798e-12 157.877 114.408 32086.7 -72.0235 33.5194 5186.88 72.0235 -33.5194 8153.33 -38.1896 25.5535 6491.04 38.1896 -25.5535 4870.91 -154.49 625.36 0 154.49 -625.36 33599.2 -91.7965 297.032 7254.09 91.7965 -297.032 9981.54 -39.8134 87.1965 7011.74 39.8134 -87.1965 4926.17
-162.546 -116.844 2.18279e-11 162.546 116.844 33030.2 -67.2709 33.6139 4688.26 67.2709 -33.6139 7773.32 -39.6105 24.6546 6775.77 39.6105 -24.6546 5006.92 -159.022 627.795 7.27596e-12 159.022 -627.795 34582.5 -86.8295 296.938 6735.78 86.8295 -296.938 9577.54 -41.2821 88.0954 7312.73 41.2821 -88.0954 5064.99
-166.292 -120.037 3.63798e-12 166.292 120.037 33782.7 -64.9711 33.3326 4426.3 64.9711 -33.3326 7609.95 -40.4153 24.1266 6933.57 40.4153 -24.1266 5087.41 -162.587 630.989 0 162.587 -630.989 35362.4 -84.4228 297.219 6465.99 84.4228 -297.219 9401.79 -42.1106 88.6234 7479.09 42.1106 -88.6234 5146.96
-168.915 -123.971 0 168.915 123.971 34303.5 -65.3558 32.6043 4425.73 65.3558 -32.6043 7681.22 -40.5723 23.9867 6957.55 40.5723 -23.9867 5109.93 -164.987 634.922 2.18279e-11 164.987 -634.922 35896.6 -84.8176 297.947 6470.42 84.8176 -297.947 9473.43 -42.2654 88.7633 7503.27 42.2654 -88.7633 5169.51
-170.098 -128.43 1.45519e-11 170.098 128.43 34529.2 -68.5738 31.3758 4705.65 68.5738 -31.3758 7995.5 -40.0752 24.237 6846.09 40.0752 -24.237 5074.24 -165.925 639.381 -7.27596e-12 165.925 -639.381 36119.7 -88.1674 299.176 6768.59 88.1674 -299.176 9801.47 -41.7383 88.513 7383.17 41.7383 -88.513 5132.35
-169.496 -133.058 7.27596e-12 169.496 133.058 34390.7 -74.6472 29.6269 5273.94 74.6472 -29.6269 8548.87 -38.9456 24.8637 6603.46 38.9456 -24.8637 4982.47 -165.08 644.009 -3.63798e-12 165.08 -644.009 35961 -94.4926 300.925 7368.06 94.4926 -300.925 10382.1 -40.5504 87.8863 7122.95 40.5504 -87.8863 5037.64
-167.539 -136.597 -1.81899e-11 167.539 136.597 33980.4 -81.468 27.8699 5930.77 81.468 -27.8699 9151.72 -37.6201 25.6164 6321.84 37.6201 -25.6164 4871.66 -162.952 647.549 1.09139e-11 162.952 -647.549 35521 -101.596 302.682 8058.37 101.596 -302.682 11016 -39.1584 87.1336 6821.08 39.1584 -87.1336 4923.47
-163.119 -140.448 3.63798e-12 163.119 140.448 33068.3 -92.1735 25.2934 6981.62 92.1735 -25.2934 10077.9 -35.5013 26.8338 5874.14 35.5013 -26.8338 4691.99 -158.372 651.399 3.63798e-12 158.372 -651.399 34555.1 -112.742 305.258 9160.12 112.742 -305.258 11991.3 -36.934 85.9162 6341.19 36.934 -85.9162 4738.51
-156.526 -143.271 3.63798e-12 156.526 143.271 31718.1 -104.818 22.4238 8243.14 104.818 -22.4238 11151.2 -32.9663 28.3036 5340.74 32.9663 -28.3036 4474.65 -151.701 654.223 -1.09139e-11 151.701 -654.223 33134.1 -125.903 308.128 10480 125.903 -308.128 13123.3 -34.2727 84.4464 5769.37 34.2727 -84.4464 4514.89
-147.959 -144.694 -3.63798e-12 147.959 144.694 29971.6 -118.71 19.4546 9648.53 118.71 -19.4546 12310.9 -30.1406 29.9555 4748.49 30.1406 -29.9555 4229.92 -143.154 655.645 0 143.154 -655.645 31302.5 -140.359 311.097 11947.9 140.359 -311.097 14347.8 -31.3065 82.7945 5134.53 31.3065 -82.7945 4263.25
-137.742 -144.363 -7.27596e-12 137.742 144.363 27895.3 -133.027 16.6217 11117.1 133.027 -16.6217 13485.9 -27.1656 31.7113 4127.7 27.1656 -31.7113 3969.24 -133.065 655.315 0 133.065 -655.315 29130.9 -155.257 313.93 13479.2 155.257 -313.93 15590.3 -28.1848 81.0387 4469.46 28.1848 -81.0387 3995.39
-126.248 -141.917 -1.81899e-11 126.248 141.917 25565.3 -146.884 14.1839 12561.3 146.884 -14.1839 14600.2 -24.1895 33.4886 3510.36 24.1895 -33.4886 3704.58 -121.813 652.869 3.63798e-12 121.813 -652.869 26700.1 -169.678 316.368 14982.3 169.678 -316.368 16770.7 -25.0647 79.2614 3808.73 25.0647 -79.2614 3723.7
-113.875 -137.001 3.63798e-12 113.875 137.001 23062.4 -159.379 12.4094 13892.1 159.379 -12.4094 15576.7 -21.3601 35.2064 2928.38 21.3601 -35.2064 3447.78 -109.794 647.953 0 109.794 -647.953 24095.4 -182.686 318.142 16364 182.686 -318.142 17808 -22.1029 77.5436 3186.85 22.1029 -77.5436 3460.44
-101.023 -129.283 -5.45697e-12 101.023 129.283 20467 -169.642 11.5614 15023.2 169.642 -11.5614 16341.4 -18.8161 36.7884 2411.82 18.8161 -36.7884 3209.88 -97.4028 640.234 -7.27596e-12 97.4028 -640.234 21402 -193.382 318.99 17534 193.382 -318.99 18624.2 -19.4469 75.9616 2636.35 19.4469 -75.9616 3217.04
-88.0565 -118.46 7.27596e-12 88.0565 118.46 17852.1 -176.889 11.8824 15876.6 176.889 -11.8824 16827.8 -16.6789 38.1685 1987.13 16.6789 -38.1685 3000.5 -84.994 629.411 5.45697e-12 84.994 -629.411 18697 -200.954 318.669 18411.1 200.954 -318.669 19149.1 -17.2265 74.5815 2185.93 17.2265 -74.5815 3003.46
-75.2953 -104.282 1.81899e-12 75.2953 104.282 15281.3 -180.462 13.5831 16386.8 180.462 -13.5831 16979.9 -15.0465 39.2938 1675.76 15.0465 -39.2938 2827.26 -72.8738 615.234 1.81899e-12 72.8738 -615.234 16047.7 -204.719 316.968 18926.5 204.719 -316.968 19324.1 -15.5467 73.4562 1858.91 15.5467 -73.4562 2827.64
-63.0081 -86.5731 5.45697e-12 63.0081 86.5731 12807.2 -179.856 16.8338 16502.8 179.856 -16.8338 16755.4 -13.9879 40.1277 1492.98 13.9879 -40.1277 2695.42 -61.2933 597.525 9.09495e-12 61.2933 -597.525 13509.9 -204.153 313.718 19027.2 204.153 -313.718 19104.4 -14.4819 72.6223 1671.96 14.4819 -72.6223 2695.02
-51.3916 -65.2345 -3.63798e-12 51.3916 65.2345 10468.1 -174.753 21.7545 16191.9 174.753 -21.7545 16128.1 -13.5386 40.6525 1446.9 13.5386 -40.6525 2607.43 -50.4299 576.186 4.54747e-12 50.4299 -576.186 11123.5 -198.924 308.797 18679.2 198.924 -308.797 18462.4 -14.0712 72.0975 1634.07 14.0712 -72.0975 2608.2
-40.579 -40.2634 -9.09495e-13 40.579 40.2634 8289.06 -165.03 28.4111 15440.3 165.03 -28.4111 15088.7 -13.6987 40.8708 1538.05 13.6987 -40.8708 2562.83 -40.3957 551.215 1.81899e-12 40.3957 -551.215 8914.86 -188.899 302.14 17868.4 188.899 -302.14 17388.4 -14.3164 71.8792 1746.08 14.3164 -71.8792 2566.76
-30.6968 -11.8047 1.81899e-12 30.6968 11.8047 6293.86 -150.746 36.8207 14250.3 150.746 -36.8207 13644.4 -14.4334 40.8047 1759.49 14.4334 -40.8047 2558.23 -31.2936 522.756 4.54747e-12 31.2936 -522.756 6908.27 -174.131 293.731 16597.6 174.131 -293.731 15889.9 -15.182 71.9453 2000.8 15.182 -71.9453 2567.27
-21.931 19.7915 -9.09495e-13 21.931 -19.7915 4518.96 -132.109 46.9587 12637.2 132.109 -46.9587 11818 -15.6744 40.4956 2097.22 15.6744 -40.4956 2587.41 -23.2849 491.16 -9.09495e-13 23.2849 -491.16 5140.45 -154.827 283.593 14883.4 154.827 -283.593 13990.6 -16.5976 72.2544 2383.59 16.5976 -72.2544 2603.4
-14.5093 53.9818 -1.36424e-12 14.5093 -53.9818 3010.15 -109.485 58.7557 10629.4 109.485 -58.7557 9646.99 -17.3216 40.0028 2530.41 17.3216 -40.0028 2641.51 -16.576 456.97 -1.81899e-12 16.576 -456.97 3657.01 -131.357 271.796 12756.6 131.357 -271.796 11729.9 -18.46 72.7472 2872.63 18.46 -72.7472 2666.08
-8.5725 90.1401 0 8.5725 -90.1401 1796.51 -83.4324 72.0821 8275.09 83.4324 -72.0821 7185.6 -19.2445 39.4018 3031.55 19.2445 -39.4018 2709.26 -11.2953 420.812 -2.50111e-12 11.2953 -420.812 2485.94 -104.291 258.469 10268.1 104.291 -258.469 9164.56 -20.6331 73.3482 3438.92 20.6331 -73.3482 2743.75
-4.10363 127.633 -9.09495e-13 4.10363 -127.633 875.526 -54.7131 86.7426 5643.32 54.7131 -86.7426 4504.19 -21.2858 38.7828 3567.34 21.2858 -38.7828 2777.39 -7.42111 383.319 -4.54747e-13 7.42111 -383.319 1622.4 -74.4139 243.809 7491.3 74.4139 -243.809 6368.59 -22.9522 73.9672 4046.92 22.9522 -73.9672 2822.77
-0.959954 165.818 1.42109e-13 0.959954 -165.818 219.311 -24.2481 102.487 2820.36 24.2481 -102.487 1686.03 -23.2695 38.2455 4100.17 23.2695 -38.2455 2831.24 -4.80963 345.134 1.13687e-12 4.80963 -345.134 1035.06 -42.6759 228.065 4516.99 42.6759 -228.065 3429.32 -25.2312 74.5045 4656.28 25.2312 -74.5045 2888.05
1.07827 204.015 1.7053e-13 -1.07827 -204.015 -215.76 6.91837 119.02 -93.8591 -6.91837 -119.02 -1176.21 -25.0077 37.8953 4589.77 25.0077 -37.8953 2855.4 -3.2321 306.936 5.68434e-14 3.2321 -306.936 674.471 -10.1468 211.531 1448.25 10.1468 -211.531 443.418 -27.2723 74.8547 5223.83 27.2723 -74.8547 2923.73
2.20678 241.348 -1.13687e-13 -2.20678 -241.348 -468.559 37.5832 135.983 -2977.61 -37.5832 -135.983 -3981.74 -26.3057 37.838 4993.79 26.3057 -37.838 2834.38 -2.47824 269.604 -3.97904e-13 2.47824 -269.604 494.631 21.9133 194.569 -1587.53 -21.9133 -194.569 -2482.14 -28.868 74.912 5704.06 28.868 -74.912 2913.5
2.91663 277.361 2.84217e-13 -2.91663 -277.361 -639.126 66.6912 152.992 -5741.18 -66.6912 -152.992 -6624.52 -27.0276 38.1649 5285.29 27.0276 -38.1649 2754.78 -2.12385 233.591 1.02318e-12 2.12385 -233.591 405.596 52.4126 177.559 -4487.7 -52.4126 -177.559 -5247.28 -29.8407 74.5851 6057.43 29.8407 -74.5851 2844.03
3.62958 311.517 -4.54747e-13 -3.62958 -311.517 -814.247 93.2088 169.612 -8275.47 -93.2088 -169.612 -9021.24 -26.9827 38.9592 5419.73 26.9827 -38.9592 2604.51 -1.6456 199.435 -3.97904e-13 1.6456 -199.435 297.236 80.1858 160.94 -7146.91 -80.1858 -160.94 -7741.78 -30.0471 73.7908 6255.44 30.0471 -73.7908 2701.11
4.88624 343.706 2.6148e-12 -4.88624 -343.706 -1106.52 116.202 185.701 -10484.1 -116.202 -185.701 -11094.1 -26.0216 40.3091 5364.75 26.0216 -40.3091 2371.4 -0.521206 167.245 -3.33955e-13 0.521206 -167.245 60.1276 104.251 144.851 -9457.96 -104.251 -144.851 -9891.6 -29.3138 72.4409 6255.34 29.3138 -72.4409 2476.05
7.26346 373.773 -6.82121e-13 -7.26346 -373.773 -1637.33 134.788 200.945 -12274.1 -134.788 -200.945 -12771 -24.0461 42.2603 5097.74 24.0461 -42.2603 2048.73 1.86583 137.179 2.27374e-13 -1.86583 -137.179 -433.77 123.755 129.607 -11330.2 -123.755 -129.607 -11630.8 -27.4925 70.4897 6024.75 27.4925 -70.4897 2157.43
11.2627 401.652 -1.36424e-12 -11.2627 -401.652 -2513.14 148.323 215.077 -13575 -148.323 -215.077 -14001.6 -20.986 44.8451 4601.93 20.986 -44.8451 1632.13 6.05697 109.299 1.47793e-12 -6.05697 -109.299 -1296.06 137.964 115.475 -12688.7 -137.964 -115.475 -12899.4 -24.5305 67.9048 5550.99 24.5305 -67.9048 1742.57
17.149 427.271 2.27374e-12 -17.149 -427.271 -3790.9 156.478 227.917 -14350.2 -156.478 -227.917 -14759.8 -16.8331 48.0617 3873.91 16.8331 -48.0617 1122.13 12.3384 83.6807 2.27374e-13 -12.3384 -83.6807 -2584.96 146.514 102.634 -13494.9 -146.514 -102.634 -13670.5 -20.4137 64.6883 4829.57 20.4137 -64.6883 1232.26
24.8769 450.526 -1.81899e-12 -24.8769 -450.526 -5461.7 159.27 239.405 -14601.2 -159.27 -239.405 -15046.2 -11.6409 51.8774 2923.81 11.6409 -51.8774 524.117 20.6712 60.4256 1.36424e-12 -20.6712 -60.4256 -4291.62 149.428 91.1463 -13751.4 -149.428 -91.1463 -13946.8 -15.183 60.8726 3868.72 15.183 -60.8726 630.938
34.1716 471.277 0 -34.1716 -471.277 -7467.35 157.044 249.53 -14363.3 -157.044 -249.53 -14888.3 -5.52116 56.2068 1772.46 5.52116 -56.2068 -150.01 30.7637 39.6744 4.54747e-12 -30.7637 -39.6744 -6355.56 147.06 81.022 -13495.4 -147.06 -81.022 -13757.9 -8.96446 56.5432 2691.81 8.96446 -56.5432 -46.7048
44.6948 489.489 -1.81899e-12 -44.6948 -489.489 -9735.75 150.389 258.321 -13694.6 -150.389 -258.321 -14336.6 1.35132 60.9411 451.517 -1.35132 -60.9411 -880.328 42.2483 21.463 3.63798e-12 -42.2483 -21.463 -8701.38 140.014 72.2308 -12787.4 -140.014 -72.2308 -13155.6 -1.91285 51.8089 1330.61 1.91285 -51.8089 -785.95
56.1768 505.439 9.09495e-12 -56.1768 -505.439 -12209.5 140.014 265.955 -12664.4 -140.014 -265.955 -13453.6 8.85105 66.017 -1006.64 -8.85105 -66.017 -1662.16 54.8283 5.51282 1.18234e-11 -54.8283 -5.51282 -11268.4 129.032 64.5961 -11700.1 -129.032 -64.5961 -12205.2 5.80615 46.733 -176.555 -5.80615 -46.733 -1575.39
68.4477 519.57 5.45697e-12 -68.4477 -519.57 -14852.9 126.747 272.583 -11350.8 -126.747 -272.583 -12314.6 16.7574 71.3077 -2557.16 -16.7574 -71.3077 -2474.89 68.3109 -8.6186 -1.81899e-12 -68.3109 8.6186 -14017.3 114.996 57.9684 -10316 -114.996 -57.9684 -10987.4 13.979 41.4423 -1784.78 -13.979 -41.4423 -2396.19
81.3643 532.449 3.63798e-12 -81.3643 -532.449 -17636.5 111.515 278.378 -9840.47 -111.515 -278.378 -11005.6 24.8419 76.6846 -4152.49 -24.8419 -76.6846 -3298.03 82.5361 -21.4973 -7.27596e-12 -82.5361 21.4973 -16914.9 98.8793 52.1739 -8726.14 -98.8793 -52.1739 -9591.64 22.3767 36.0654 -3444.15 -22.3767 -36.0654 -3230.08
94.735 544.66 3.63798e-12 -94.735 -544.66 -20520.9 95.3406 283.534 -8229.9 -95.3406 -283.534 -9620.65 32.8698 82.0024 -5742.78 -32.8698 -82.0024 -4111.37 97.2962 -33.7081 5.45697e-12 -97.2962 33.7081 -19918 81.7626 47.0171 -7032.03 -81.7626 -47.0171 -8116.03 30.7354 30.7476 -5099.92 -30.7354 -30.7476 -4053.59
108.334 556.805 -7.27596e-12 -108.334 -556.805 -23460.1 79.2912 288.277 -6620.36 -79.2912 -288.277 -8257.17 40.5982 87.1169 -7276.3 -40.5982 -87.1169 -4893.87 112.35 -45.853 -1.09139e-11 -112.35 45.853 -22976.1 64.7775 42.2748 -5340.4 -64.7775 -42.2748 -6663.09 38.7985 25.6331 -6697.47 -38.7985 -25.6331 -4845.39
121.949 569.501 1.45519e-11 -121.949 -569.501 -26411.1 64.4153 292.833 -5111.46 -64.4153 -292.833 -7011.04 47.7876 91.8896 -8702.3 -47.7876 -91.8896 -5624.35 127.476 -58.5491 1.81899e-11 -127.476 58.5491 -26041.9 49.035 37.7188 -3755.86 -49.035 -37.7188 -5333.43 46.3127 20.8604 -8183.27 -46.3127 -20.8604 -5584.37
135.397 583.352 -2.18279e-11 -135.397 -583.352 -29338 51.6979 297.417 -3796.27 -51.6979 -297.417 -5972.86 54.218 96.1911 -9974.04 -54.218 -96.1911 -6283.27 142.489 -72.4001 3.63798e-12 -142.489 72.4001 -29075.7 35.5792 33.1342 -2376.37 -35.5792 -33.1342 -4222.02 53.0422 16.5589 -9507.54 -53.0422 -16.5589 -6250.93
148.508 598.905 1.09139e-11 -148.508 -598.905 -32207.9 42.028 302.228 -2758.95 -42.028 -302.228 -5224.28 59.697 99.9069 -11050.2 -59.697 -99.9069 -6853.85 157.223 -87.953 -7.27596e-12 -157.223 87.953 -32040.7 25.3503 28.3231 -1290.34 -25.3503 -28.3231 -3414.02 58.7768 12.8431 -10625.9 -58.7768 -12.8431 -6827.85
161.092 615.069 0 -161.092 -615.069 -34978.6 36.4657 305.868 -2089.69 -36.4657 -305.868 -4871.35 63.0691 101.542 -11800.3 -63.0691 -101.542 -7119.64 171.46 -104.117 1.09139e-11 -171.46 104.117 -34894.8 19.3115 24.6831 -584.34 -19.3115 -24.6831 -3001.71 62.6506 11.2084 -11436.6 -62.6506 -11.2084 -7163.79
172.919 632.138 7.27596e-12 -172.919 -632.138 -37601.9 35.4821 308.435 -1839.12 -35.4821 -308.435 -4951.34 64.2753 101.635 -12212.6 -64.2753 -101.635 -7075.43 184.853 -121.187 1.09139e-11 -184.853 121.187 -37565.5 18.6768 22.1163 -354.083 -18.6768 -22.1163 -3113.51 63.4541 11.1146 -11820.8 -63.4541 -11.1146 -7018.75
183.521 652.792 1.09139e-11 -183.521 -652.792 -39987.8 39.3986 313.158 -2052.48 -39.3986 -313.158 -5481.78 64.7968 101.69 -12426.2 -64.7968 -101.69 -7024.36 197.204 -141.841 -1.09139e-11 -197.204 141.841 -40003.2 22.4397 17.3931 -569.009 -22.4397 -17.3931 -3591.44 64.5148 11.0599 -12056.3 -64.5148 -11.0599 -7098.5
192.455 676.331 0 -192.455 -676.331 -42038.4 48.2189 319.524 -2754.43 -48.2189 -319.524 -6439.04 64.7485 101.721 -12423.8 -64.7485 -101.721 -7017.55 207.8 -165.379 3.63798e-12 -207.8 165.379 -42064.1 31.9549 11.0279 -1322.47 -31.9549 -11.0279 -4592.27 64.3865 11.0287 -12036.3 -64.3865 -11.0287 -7080.89
199.18 702.37 -1.45519e-11 -199.18 -702.37 -43635.1 62.2519 327.85 -3977.49 -62.2519 -327.85 -7848.7 64.1139 101.578 -12211.6 -64.1139 -101.578 -7043.72 216.16 -191.418 -2.18279e-11 -216.16 191.418 -43651.8 46.8579 2.70161 -2611.1 -46.8579 -2.70161 -6050.83 63.5922 11.1722 -11794.6 -63.5922 -11.1722 -7087.67
203.348 729.465 1.81899e-11 -203.348 -729.465 -44694 81.441 337.134 -5715.89 -81.441 -337.134 -9705.4 62.3287 100.855 -11755.6 -62.3287 -100.855 -6968.64 221.771 -218.513 3.63798e-12 -221.771 218.513 -44670 67.319 -6.58279 -4444.43 -67.319 6.58279 -7989 61.492 11.8949 -11284.6 -61.492 -11.8949 -6976.64
204.793 756.952 1.45519e-11 -204.793 -756.952 -45172.4 105.353 347.269 -7930.85 -105.353 -347.269 -11967.6 59.3961 99.5261 -11076.4 -59.3961 -99.5261 -6773.2 224.441 -246.001 0 -224.441 246.001 -45085.2 92.6933 -16.717 -6772.43 -92.6933 16.717 -10336.8 58.3364 13.2239 -10539 -58.3364 -13.2239 -6789.52
203.619 784.213 -2.54659e-11 -203.619 -784.213 -45086 133.123 358.031 -10545.9 -133.123 -358.031 -14551.1 55.5532 97.6669 -10207.7 -55.5532 -97.6669 -6494.33 224.204 -273.261 0 -224.204 273.261 -44910.4 122.215 -27.4791 -9519.11 -122.215 27.4791 -13028.2 54.226 15.0831 -9594.54 -54.226 -15.0831 -6519.09
198.77 807.277 1.45519e-11 -198.77 -807.277 -44197 161.883 368.882 -13211.5 -161.883 -368.882 -17273.5 51.1997 95.3731 -9224.65 -51.1997 -95.3731 -6176.11 221.011 -296.325 3.63798e-12 -221.011 296.325 -44154.7 154.213 -38.3307 -12509.4 -154.213 38.3307 -15929.9 49.3766 17.3769 -8502.63 -49.3766 -17.3769 -6177.5
188.176 823.079 0 -188.176 -823.079 -42069.9 185.849 378.31 -15191.9 -185.849 -378.31 -19795.4 46.8688 92.8785 -8271.79 -46.8688 -92.8785 -5833.09 214.646 -312.127 -1.09139e-11 -214.646 312.127 -42787.4 186.149 -47.7582 -15469.1 -186.149 47.7582 -18849.3 44.0991 19.8715 -7323.62 -44.0991 -19.8715 -5796.07
176.737 834.397 3.63798e-12 -176.737 -834.397 -39733 209.866 387.264 -17200.1 -209.866 -387.264 -22299.6 42.2891 90.2645 -7280.5 -42.2891 -90.2645 -5454.23 205.266 -323.446 -7.27596e-12 -205.266 323.446 -40828.3 215.431 -56.7121 -18108.5 -215.431 56.7121 -21596.7 38.7947 22.4855 -6136.93 -38.7947 -22.4855 -5414.12
166.47 843.274 -4.36557e-11 -166.47 -843.274 -37615.7 235.319 395.029 -19479 -235.319 -395.029 -24797 37.4564 87.7172 -6220.49 -37.4564 -87.7172 -5069.41 193.613 -332.322 -7.27596e-12 -193.613 332.322 -38417.4 241.682 -64.4776 -20334.6 -241.682 64.4776 -24197.2 33.8112 25.0328 -5062.56 -33.8112 -25.0328 -5014.36
156.593 851.623 -1.45519e-11 -156.593 -851.623 -35575.2 258.296 402.514 -21510.1 -258.296 -402.514 -27080.6 32.9364 85.1576 -5240.34 -32.9364 -85.1576 -4697.82 183.701 -340.671 2.18279e-11 -183.701 340.671 -36366.9 266.513 -71.9627 -22530.5 -266.513 71.9627 -26564.8 28.9634 27.5924 -3994.76 -28.9634 -27.5924 -4647.96
147.761 858.002 0 -147.761 -858.002 -33748.2 276.964 408.069 -23116.7 -276.964 -408.069 -28981.1 29.0018 82.8893 -4388.55 -29.0018 -82.8893 -4372.73 174.863 -347.05 7.27596e-12 -174.863 347.05 -34543 287.768 -77.5176 -24378.3 -287.768 77.5176 -28623.7 24.5751 29.8607 -3053.31 -24.5751 -29.8607 -4290.63
141.288 862.998 1.09139e-11 -141.288 -862.998 -32412.8 292.561 412.409 -24474.6 -292.561 -412.409 -30552.7 25.5924 80.9104 -3659.24 -25.5924 -80.9104 -4082.42 168.201 -352.046 1.09139e-11 -168.201 352.046 -33166.2 304.471 -81.8574 -25820.7 -304.471 81.8574 -30250.2 20.9313 31.8396 -2266.07 -20.9313 -31.8396 -3999.22
137.138 866.033 1.45519e-11 -137.138 -866.033 -31564.1 303.072 414.9 -25355.6 -303.072 -414.9 -31646.4 22.9331 79.3715 -3098.49 -22.9331 -79.3715 -3847.79 163.888 -355.081 -3.63798e-12 -163.888 355.081 -32272.2 315.763 -84.3488 -26750.2 -315.763 84.3488 -31396 18.1415 33.3785 -1677.45 -18.1415 -33.3785 -3761.75
135.325 867.002 -7.27596e-12 -135.325 -867.002 -31208.7 307.526 415.453 -25642.5 -307.526 -415.453 -32198.2 21.2026 78.2841 -2745.69 -21.2026 -78.2841 -3682.49 162.438 -356.05 -1.09139e-11 -162.438 356.05 -31965.5 321.163 -84.9014 -27142.2 -321.163 84.9014 -31997.4 16.2933 34.4659 -1294.27 -16.2933 -34.4659 -3597.54
136.298 865.871 1.09139e-11 -136.298 -865.871 -31438.3 306.593 414.037 -25430.4 -306.593 -414.037 -32236.6 20.407 77.6917 -2595.57 -20.407 -77.6917 -3593.63 163.76 -354.919 3.63798e-12 -163.76 354.919 -32227.3 320.389 -83.4854 -26955.5 -320.389 83.4854 -32044 15.4438 35.0583 -1137.19 -15.4438 -35.0583 -3502.87
139.895 862.769 2.91038e-11 -139.895 -862.769 -32218.6 300.302 410.796 -24720.9 -300.302 -410.796 -31766 20.5144 77.5944 -2645.23 -20.5144 -77.5944 -3574.67 167.817 -351.818 -2.91038e-11 -167.817 351.818 -33050.4 313.664 -80.2447 -26220 -313.664 80.2447 -31546.9 15.5993 35.1556 -1202.29 -15.5993 -35.1556 -3483.66
145.732 857.561 2.91038e-11 -145.732 -857.561 -33467.2 288.589 405.8 -23496 -288.589 -405.8 -30793.6 21.4904 77.9754 -2889.24 -21.4904 -77.9754 -3620.72 174.327 -346.609 -1.81899e-11 -174.327 346.609 -34379.1 301.316 -75.2481 -24966.4 -301.316 75.2481 -30535.2 16.7041 34.7746 -1476.3 -16.7041 -34.7746 -3536.61
153.356 849.482 -7.27596e-12 -153.356 -849.482 -35084.9 271.772 399.049 -21774.2 -271.772 -399.049 -29361.6 23.2726 78.7905 -3311.32 -23.2726 -78.7905 -3729.35 182.594 -338.531 -1.09139e-11 -182.594 338.531 -36075.5 283.301 -68.4972 -23162.4 -283.301 68.4972 -29031.6 18.6996 33.9595 -1949.04 -18.6996 -33.9595 -3654.62
162.539 838.929 -2.91038e-11 -162.539 -838.929 -37025.4 250.402 390.77 -19599.4 -250.402 -390.77 -27530.7 25.7484 79.9625 -3886.05 -25.7484 -79.9625 -3892.36 192.522 -327.978 0 -192.522 327.978 -38119.2 260.471 -60.2184 -20889.7 -260.471 60.2184 -27111 21.4205 32.7875 -2584.37 -21.4205 -32.7875 -3824.78
173.217 826.77 0 -173.217 -826.77 -39279.2 225.417 381.268 -17060.3 -225.417 -381.268 -25389.1 28.7289 81.3978 -4573.31 -28.7289 -81.3978 -4093.51 204.058 -315.818 1.45519e-11 -204.058 315.818 -40496.7 233.866 -50.7161 -18242.7 -233.866 50.7161 -24868.5 24.6889 31.3522 -3342.52 -24.6889 -31.3522 -4034.14
185.296 813.904 7.27596e-12 -185.296 -813.904 -41830.3 198.033 370.906 -14274.4 -198.033 -370.906 -23047.9 31.997 82.9878 -5326.65 -31.997 -82.9878 -4314.48 217.089 -302.952 1.45519e-11 -217.089 302.952 -43181.7 204.681 -40.3549 -15331.6 -204.681 40.3549 -22413.5 28.2917 29.7622 -4176.31 -28.2917 -29.7622 -4266.77
198.494 801.25 -2.18279e-11 -198.494 -801.25 -44623 169.515 360.077 -11362.3 -169.515 -360.077 -20623.8 35.3382 84.6083 -6098.8 -35.3382 -84.6083 -4538.45 231.352 -290.298 0 -231.352 290.298 -46117.4 174.327 -29.5252 -12290.7 -174.327 29.5252 -19870.3 31.9809 28.1417 -5031.31 -31.9809 -28.1417 -4503.63
211.907 787.549 -7.27596e-12 -211.907 -787.549 -47459.8 141.13 349.474 -8438.68 -141.13 -349.474 -18239.9 38.5478 86.1279 -6844.18 -38.5478 -86.1279 -4749.72 239.988 -276.597 3.63798e-11 -239.988 276.597 -47903.4 147.414 -18.9221 -9677.58 -147.414 18.9221 -17532 35.3227 26.6221 -5810.81 -35.3227 -26.6221 -4712.92
214.293 766.954 -2.18279e-11 -214.293 -766.954 -47998 118.451 341.053 -6211.83 -118.451 -341.053 -16222.2 41.2519 87.2791 -7482.25 -41.2519 -87.2791 -4917.23 240.948 -256.002 -7.27596e-12 -240.948 256.002 -48152.3 125.768 -10.5011 -7735.99 -125.768 10.5011 -15489.1 37.996 25.4709 -6411.84 -37.996 -25.4709 -4902.95
215.129 747.687 0 -215.129 -747.687 -48213.5 99.6897 332.618 -4426.04 -99.6897 -332.618 -14494.1 43.3213 88.2526 -7970.35 -43.3213 -88.2526 -5045.44 241.751 -236.735 0 -241.751 236.735 -48371.6 106.284 -2.06662 -5901.58 -106.284 2.06662 -13736.6 40.2095 24.4974 -6953.75 -40.2095 -24.4974 -5015.77
215.878 731.434 -7.27596e-12 -215.878 -731.434 -48409.5 84.0995 325.431 -2928.86 -84.0995 -325.431 -13072.2 44.6815 88.759 -8310.46 -44.6815 -88.759 -5109.4 242.501 -220.483 0 -242.501 220.483 -48573.8 89.825 5.12049 -4359.63 -89.825 -5.12049 -12247.2 41.7945 23.991 -7335.43 -41.7945 -23.991 -5103.1
216.503 718.477 5.09317e-11 -216.503 -718.477 -48576.8 71.8464 319.137 -1732.53 -71.8464 -319.137 -11974.5 45.3207 88.8661 -8492.49 -45.3207 -88.8661 -5115.72 243.154 -207.525 1.45519e-11 -243.154 207.525 -48748.1 77.5656 11.4143 -3203.62 -77.5656 -11.4143 -11145.8 42.4687 23.8839 -7533.82 -42.4687 -23.8839 -5104.06
216.992 708.881 -7.27596e-12 -216.992 -708.881 -48711.4 64.1079 313.971 -964.808 -64.1079 -313.971 -11291.6 45.1109 88.4908 -8492.11 -45.1109 -88.4908 -5050.57 243.682 -197.929 -2.18279e-11 -243.682 197.929 -48886.7 69.5423 16.5801 -2431.32 -69.5423 -16.5801 -10441.6 42.3033 24.2592 -7546.02 -42.3033 -24.2592 -5042.87
217.313 703.089 -2.91038e-11 -217.313 -703.089 -48810.2 60.8118 310.035 -611.245 -60.8118 -310.035 -11024.6 44.0306 87.6314 -8303.81 -44.0306 -87.6314 -4913.07 244.097 -192.137 -7.27596e-12 -244.097 192.137 -48987.5 66.1341 20.5168 -2080.41 -66.1341 -20.5168 -10167.3 41.2022 25.1186 -7357.15 -41.2022 -25.1186 -4905.76
217.444 701.307 -7.27596e-12 -217.444 -701.307 -48872.7 61.9134 307.419 -665.418 -61.9134 -307.419 -11171.4 42.0756 86.2825 -7925.84 -42.0756 -86.2825 -4703.9 244.415 -190.355 0 -244.415 190.355 -49051.1 67.5184 23.1329 -2171.64 -67.5184 -23.1329 -10335.3 39.1789 26.4675 -6967.81 -39.1789 -26.4675 -4696.15
217.394 703.358 1.45519e-11 -217.394 -703.358 -48900.7 67.5724 306.122 -1149.54 -67.5724 -306.122 -11739.3 39.2879 84.4736 -7365.44 -39.2879 -84.4736 -4428.5 244.64 -192.406 3.63798e-11 -244.64 192.406 -49077.9 73.4873 24.4291 -2680.57 -73.4873 -24.4291 -10931.8 36.2802 28.2765 -6388.84 -36.2802 -28.2765 -4416.81
216.479 708.555 2.91038e-11 -216.479 -708.555 -48750.3 77.7151 306.194 -2065.22 -77.7151 -306.194 -12712.7 35.747 82.2533 -6640.35 -35.747 -82.2533 -4093.14 243.881 -197.603 2.18279e-11 -243.881 197.603 -48888.9 84.2087 24.3577 -3642.84 -84.2087 -24.3577 -11951.9 32.5648 30.4967 -5630.27 -32.5648 -30.4967 -4074.98
213.448 715.511 -3.63798e-11 -213.448 -715.511 -48155.9 92.3527 307.774 -3434.39 -92.3527 -307.774 -14071.2 31.5423 79.6772 -5769.01 -31.5423 -79.6772 -3706.34 240.898 -204.559 0 -240.898 204.559 -48238.4 99.767 22.7774 -5091.58 -99.767 -22.7774 -13377.9 28.1256 33.0728 -4708.36 -28.1256 -33.0728 -3681.74
208.345 723.702 1.45519e-11 -208.345 -723.702 -47121.8 110.916 310.709 -5208.61 -110.916 -310.709 -15757.3 26.8196 76.8412 -4781.07 -26.8196 -76.8412 -3282.17 235.65 -212.75 -1.45519e-11 -235.65 212.75 -47122 119.456 19.8422 -6956.77 -119.456 -19.8422 -15148.7 23.1336 35.9088 -3661.66 -23.1336 -35.9088 -3249.02
201.253 732.536 -7.27596e-12 -201.253 -732.536 -45660.5 132.535 314.81 -7305.14 -132.535 -314.81 -17691.9 21.7754 73.8503 -3718.66 -21.7754 -73.8503 -2837.35 228.219 -221.584 -1.45519e-11 -228.219 221.584 -45560.8 142.382 15.7413 -9157.53 -142.382 -15.7413 -17180 17.7855 38.8997 -2530.95 -17.7855 -38.8997 -2794.22
192.326 741.316 -3.63798e-12 -192.326 -741.316 -43798.4 156.186 319.822 -9627.17 -156.186 -319.822 -19781.1 16.6239 70.8287 -2627.7 -16.6239 -70.8287 -2389.92 218.733 -230.364 -4.00178e-11 -218.733 230.364 -43586.2 167.488 10.7295 -11595 -167.488 -10.7295 -19375.3 12.3047 41.9213 -1364.52 -12.3047 -41.9213 -2335.29
181.813 749.302 -2.18279e-11 -181.813 -749.302 -41583.2 180.753 325.457 -12069.2 -180.753 -325.457 -21922.3 11.5867 67.9066 -1555.91 -11.5867 -67.9066 -1958.29 207.411 -238.35 -3.63798e-11 -207.411 238.35 -41247.9 193.556 5.09498 -14153.1 -193.556 -5.09498 -21625.4 6.93885 44.8434 -215.647 -6.93885 -44.8434 -1892.39
170.084 755.823 1.09139e-11 -170.084 -755.823 -39089.5 204.967 331.37 -14507.1 -204.967 -331.37 -24002.6 6.90108 65.2168 -554.44 -6.90108 -65.2168 -1561.96 194.635 -244.871 7.27596e-12 -194.635 244.871 -38627.3 219.257 -0.818795 -16704.1 -219.257 0.818795 -23813 1.93878 47.5332 861.124 -1.93878 -47.5332 -1485.48
157.656 760.307 -3.63798e-12 -157.656 -760.307 -36425.2 227.503 337.183 -16808.8 -227.503 -337.183 -25906.6 2.80301 62.8879 325.809 -2.80301 -62.8879 -1220.25 180.957 -249.355 -1.09139e-11 -180.957 249.355 -35839.1 243.185 -6.6314 -19110.3 -243.185 6.6314 -25816.8 -2.44877 49.8621 1811.67 2.44877 -49.8621 -1133.81
147.617 762.118 3.63798e-11 -147.617 -762.118 -34258 243.452 341.501 -18464.1 -243.452 -341.501 -27227.8 0.0933366 61.3648 911.128 -0.0933366 -61.3648 -997.924 169.809 -251.166 -1.81899e-11 -169.809 251.166 -33578.5 260.114 -10.9492 -20837.8 -260.114 10.9492 -27208.2 -5.36129 51.3852 2446.65 5.36129 -51.3852 -904.255
137.838 762.151 -1.45519e-11 -137.838 -762.151 -32133.4 256.872 345.317 -19884.5 -256.872 -345.317 -28311.7 -2.00522 60.2018 1367.62 2.00522 -60.2018 -829.14 158.865 -251.199 -1.81899e-11 -158.865 251.199 -31369.5 274.354 -14.7656 -22317.5 -274.354 14.7656 -28351.4 -7.62786 52.5482 2944.67 7.62786 -52.5482 -729.465
128.619 760.264 -7.27596e-12 -128.619 -760.264 -30116.4 267.211 348.457 -21013 -267.211 -348.457 -29111.9 -3.41134 59.4429 1677.31 3.41134 -59.4429 -720.076 148.461 -249.312 3.63798e-12 -148.461 249.312 -29280.1 285.319 -17.9053 -23490.2 -285.319 17.9053 -29197.5 -9.16037 53.3071 3286.09 9.16037 -53.3071 -616.027
120.225 756.346 2.91038e-11 -120.225 -756.346 -28264.7 274.015 350.767 -21802.4 -274.015 -350.767 -29590.6 -4.06223 59.1208 1826.28 4.06223 -59.1208 -675.448 138.897 -245.395 1.81899e-11 -138.897 245.395 -27370.5 292.524 -20.2152 -24306.7 -292.524 20.2152 -29706.9 -9.89136 53.6292 3455.66 9.89136 -53.6292 -568.782
112.873 750.331 3.63798e-12 -112.873 -750.331 -26625.7 276.945 352.122 -22217 -276.945 -352.122 -29719.8 -3.91679 59.2555 1805.28 3.91679 -59.2555 -698.214 130.419 -239.379 -3.63798e-11 -130.419 239.379 -25690 295.601 -21.5709 -24729.4 -295.601 21.5709 -29850 -9.77668 53.4945 3443.2 9.77668 -53.4945 -590.661
106.724 742.195 -2.54659e-11 -106.724 -742.195 -25235.4 275.783 352.433 -22233.2 -275.783 -352.433 -29482.5 -2.95817 59.8537 1610.2 2.95817 -59.8537 -789.29 123.216 -231.243 3.27418e-11 -123.216 231.243 -24276 294.322 -21.8816 -24734 -294.322 21.8816 -29608.8 -8.79717 52.8963 3243.99 8.79717 -52.8963 -682.602
101.874 731.955 -4.72937e-11 -101.874 -731.955 -24114.6 270.45 351.645 -21841.5 -270.45 -351.645 -28873.2 -1.19508 60.9084 1242.38 1.19508 -60.9084 -947.448 117.396 -221.004 3.63798e-12 -117.396 221.004 -23150.2 288.605 -21.0939 -24311 -288.605 21.0939 -28977.9 -6.95993 51.8416 2859.07 6.95993 -51.8416 -843.469
98.3246 719.648 7.27596e-12 -98.3246 -719.648 -23264.8 261.019 349.747 -21048.5 -261.019 -349.747 -27899.3 1.33828 62.3985 708.633 -1.33828 -62.3985 -1169.38 112.967 -208.696 0 -112.967 208.696 -22313.4 278.528 -19.1953 -23467 -278.528 19.1953 -27964.7 -4.29926 50.3515 2295.47 4.29926 -50.3515 -1070
95.9761 705.317 1.81899e-12 -95.9761 -705.317 -22664.4 247.713 346.767 -19876.3 -247.713 -346.767 -26580.4 4.58321 64.2889 21.0945 -4.58321 -64.2889 -1449.83 109.82 -194.365 1.27329e-11 -109.82 194.365 -21743.4 264.331 -16.2151 -22225.6 -264.331 16.2151 -26590.1 -0.876432 48.4611 1566.17 0.876432 -48.4611 -1356.84
94.6258 689.009 -4.18368e-11 -94.6258 -689.009 -22270 230.9 342.775 -18362.5 -230.9 -342.775 -24948.1 8.45804 66.5314 -803.069 -8.45804 -66.5314 -1781.72 107.73 -178.057 -3.63798e-12 -107.73 178.057 -21394.6 246.409 -12.223 -20625.9 -246.409 12.223 -24887.1 3.22219 46.2186 689.601 -3.22219 -46.2186 -1696.67
93.9844 670.777 1.27329e-11 -93.9844 -670.777 -22019.5 211.071 337.876 -16557.5 -211.071 -337.876 -23043.8 12.8606 69.0666 -1742.22 -12.8606 -69.0666 -2156.31 106.379 -159.825 -9.09495e-12 -106.379 159.825 -21202.2 225.29 -7.32415 -18721 -225.29 7.32415 -22899.5 7.88829 43.6834 -310.962 -7.88829 -43.6834 -2080.45
93.7163 650.7 1.45519e-11 -93.7163 -650.7 -21841.2 188.812 332.2 -14521.4 -188.812 -332.2 -20917.4 17.672 71.8258 -2771.19 -17.672 -71.8258 -2563.48 105.401 -139.748 1.27329e-11 -105.401 139.748 -21091.3 201.599 -1.64864 -16573.2 -201.599 1.64864 -20679.4 12.996 40.9242 -1408.46 -12.996 -40.9242 -2497.79
93.4937 628.912 -2.54659e-11 -93.4937 -628.912 -21665.7 164.756 325.891 -12318.1 -164.756 -325.891 -18623.4 22.7623 74.7335 -3862.35 -22.7623 -74.7335 -2992.04 104.444 -117.96 3.63798e-12 -104.444 117.96 -20989.2 176.012 4.66103 -14249.8 -176.012 -4.66103 -18284.3 18.407 38.0165 -2573.19 -18.407 -38.0165 -2937.26
93.0398 605.624 2.54659e-11 -93.0398 -605.624 -21435.5 139.554 319.091 -10012.3 -139.554 -319.091 -16218.8 27.9943 77.71 -4986.66 -27.9943 -77.71 -3430.18 103.216 -94.6724 1.45519e-11 -103.216 94.6724 -20835.1 149.221 11.4608 -11818.2 -149.221 -11.4608 -15773.9 23.9755 35.04 -3773.98 -23.9755 -35.04 -3386.77
92.1546 581.129 5.45697e-12 -92.1546 -581.129 -21110.3 113.839 311.939 -7665.28 -113.839 -311.939 -13760.7 33.2284 80.6733 -6114.53 -33.2284 -80.6733 -3865.77 101.515 -70.1778 -1.45519e-11 -101.515 70.1778 -20585.8 121.903 18.6127 -9342.96 -121.903 -18.6127 -13208.2 29.5532 32.0767 -4979.23 -29.5532 -32.0767 -3833.9
90.715 555.788 1.09139e-11 -90.715 -555.788 -20666.7 88.2148 304.562 -5334.39 -88.2148 -304.562 -11304.9 38.3261 83.542 -7216.6 -38.3261 -83.542 -4286.71 99.2263 -44.8363 5.45697e-12 -99.2263 44.8363 -20215.3 94.699 25.9893 -6884.07 -94.699 -25.9893 -10645.3 34.9925 29.208 -6157.77 -34.9925 -29.208 -4266.23
88.6413 529.985 -1.09139e-11 -88.6413 -529.985 -20090.8 63.2559 297.079 -3073.18 -63.2559 -297.079 -8904.78 43.1529 86.2364 -8264.39 -43.1529 -86.2364 -4681.19 96.2822 -19.0333 -1.45519e-11 -96.2822 19.0333 -19707.4 68.2186 33.4721 -4497.91 -68.2186 -33.4721 -8141.47 40.1505 26.5136 -7279.36 -40.1505 -26.5136 -4671.66
85.8564 504.083 -5.45697e-12 -85.8564 -504.083 -19369 39.5073 289.602 -932.606 -39.5073 -289.602 -6610.99 47.5808 88.6807 -9230.78 -47.5808 -88.6807 -5037.9 92.6163 6.86875 -1.09139e-11 -92.6163 -6.86875 -19046.2 43.0392 40.9494 -2238.13 -43.0392 -40.9494 -5749.69 44.8905 24.0693 -8315.26 -44.8905 -24.0693 -5038.67
82.2673 478.394 -3.63798e-12 -82.2673 -478.394 -18483.6 17.4809 282.235 1039.18 -17.4809 -282.235 -4470.63 51.4913 90.8046 -10090.7 -51.4913 -90.8046 -5346.39 88.1426 32.5576 -1.27329e-11 -88.1426 -32.5576 -18212.3 19.7013 48.3167 -155.402 -19.7013 -48.3167 -3519.37 49.0859 21.9454 -9238.77 -49.0859 -21.9454 -5356.57
77.7716 453.175 -1.81899e-12 -77.7716 -453.175 -17415 -2.36169 275.071 2798.47 2.36169 -275.071 -2525.79 54.7785 92.5451 -10821.6 -54.7785 -92.5451 -5597.25 82.763 57.7763 -5.45697e-12 -82.763 -57.7763 -17183.8 -1.30903 55.4806 1704.3 1.30903 -55.4806 -1494.65 52.6231 20.2049 -10026 -52.6231 -20.2049 -5615.79
72.2815 428.639 -5.45697e-12 -72.2815 -428.639 -16146.2 -19.6306 268.187 4308.48 19.6306 -268.187 -811.965 57.352 93.8479 -11404.4 -57.352 -93.8479 -5782.46 76.3933 82.3123 1.63709e-11 -76.3933 -82.3123 -15942.1 -19.5828 62.3645 3302.27 19.5828 -62.3645 287.243 55.4049 18.9021 -10656.5 -55.4049 -18.9021 -5808.12
65.7413 404.961 -1.27329e-11 -65.7413 -404.961 -14666.5 -34.0248 261.639 5541.12 34.0248 -261.639 643.226 59.1394 94.6695 -11823.8 -59.1394 -94.6695 -5895.5 68.9817 105.991 -7.27596e-12 -68.9817 -105.991 -14475.4 -34.8052 68.9129 4608.95 34.8052 -68.9129 1797.28 57.3538 18.0805 -11114.2 -57.3538 -18.0805 -5926.91
58.1285 382.273 -3.63798e-12 -58.1285 -382.273 -12972.3 -45.3395 255.458 6477.72 45.3395 -255.458 1820.71 60.0877 94.9775 -12068.7 -60.0877 -94.9775 -5931.54 60.5097 128.679 -9.09495e-12 -60.5097 -128.679 -12779.1 -46.7635 75.0933 5604.64 46.7635 -75.0933 3015.42 58.4134 17.7725 -11387.3 -58.4134 -17.7725 -5967.23
49.4467 360.655 -1.45519e-11 -49.4467 -360.655 -11064.9 -53.468 249.656 7108.95 53.468 -249.656 2710.25 60.1645 94.7518 -12132.5 -60.1645 -94.7518 -5887.51 50.9843 150.297 -2.72848e-12 -50.9843 -150.297 -10854.2 -55.348 80.8958 6279.48 55.348 -80.8958 3930.87 58.5495 17.9982 -11468.9 -58.5495 -17.9982 -5925.98
39.7226 340.131 -1.09139e-11 -39.7226 -340.131 -8950.19 -58.4016 244.218 7434.86 58.4016 -244.218 3310.54 59.3585 93.9844 -12013 -59.3585 -93.9844 -5762.2 40.4348 170.82 -1.81899e-12 -40.4348 -170.82 -8706.55 -60.5531 86.3331 6633.45 60.5531 -86.3331 4542.26 57.7511 18.7656 -11356.8 -57.7511 -18.7656 -5801.94
29.6557 322.648 3.63798e-12 -29.6557 -322.648 -6776.7 -59.4175 239.315 7352.92 59.4175 -239.315 3590.82 57.6239 92.6672 -11699.4 -57.6239 -92.6672 -5552.99 29.5278 188.303 3.63798e-12 -29.5278 -188.303 -6469.11 -61.5418 91.2365 6555.47 61.5418 -91.2365 4805.69 55.9721 20.0828 -11040.8 -55.9721 -20.0828 -5591.67
18.9832 306.486 1.36424e-11 -18.9832 -306.486 -4485.56 -56.8134 234.951 6907.29 56.8134 -234.951 3562.23 55.014 90.8026 -11203.2 -55.014 -90.8026 -5264.4 17.8622 204.466 -7.7307e-12 -17.8622 -204.466 -4064.29 -59.4208 95.6006 6175.23 59.4208 -95.6006 4795.9 53.2942 21.9474 -10535.2 -53.2942 -21.9474 -5304.83
7.5415 291.026 1.72804e-11 -7.5415 -291.026 -2042.3 -51.707 230.599 6224.18 51.707 -230.599 3305.97 51.623 88.472 -10544.6 -51.623 -88.472 -4904.65 5.34302 219.926 -6.82121e-12 -5.34302 -219.926 -1474.29 -54.5111 99.9527 5544.28 54.5111 -99.9527 4520.48 49.8132 24.278 -9870.71 -49.8132 -24.278 -4938.74
-3.66818 276.976 4.26326e-12 3.66818 -276.976 346.031 -45.1428 226.231 5436.46 45.1428 -226.231 2882.76 47.5569 85.6873 -9752.01 -47.5569 -85.6873 -4477.09 -5.81084 233.976 3.41061e-12 5.81084 -233.976 845.733 -48.3794 104.321 4831.65 48.3794 -104.321 4100.06 45.627 27.0627 -9057.99 -45.627 -27.0627 -4511.58
-13.6278 264.867 9.09495e-13 13.6278 -264.867 2470.04 -37.7437 221.341 4607.96 37.7437 -221.341 2344.38 42.8863 82.5507 -8838.13 -42.8863 -82.5507 -3990.51 -16.2425 246.084 2.72848e-12 16.2425 -246.084 3027.34 -41.1536 109.211 4065.77 41.1536 -109.211 3529.84 40.8556 30.1993 -8136.23 -40.8556 -30.1993 -4019.27
-23.829 252.949 9.54969e-12 23.829 -252.949 4638.23 -28.9078 216.563 3652.67 28.9078 -216.563 1665.92 37.6778 79.0395 -7816.78 -37.6778 -79.0395 -3451.21 -26.6961 258.003 -4.54747e-12 26.6961 -258.003 5219.51 -32.5364 113.989 3161.46 32.5364 -113.989 2840.19 35.4846 33.7105 -7086.82 -35.4846 -33.7105 -3476.02
-34.0733 241.165 9.09495e-13 34.0733 -241.165 6809.31 -19.2674 211.426 2628.8 19.2674 -211.426 906.722 32.0265 75.2492 -6707.29 -32.0265 -75.2492 -2868.67 -37.2319 269.787 1.81899e-12 37.2319 -269.787 7433.83 -22.966 119.126 2183.35 22.966 -119.126 2047.59 29.692 37.5008 -5955.87 -29.692 -37.5008 -2888.12
-44.2301 229.424 -5.45697e-12 44.2301 -229.424 8956.04 -9.29805 205.996 1587.53 9.29805 -205.996 103.972 26.0494 71.233 -5536.6 -26.0494 -71.233 -2251.05 -47.5889 281.528 3.63798e-12 47.5889 -281.528 9615.72 -13.0203 124.556 1175.5 13.0203 -124.556 1214.98 23.5401 41.517 -4752.87 -23.5401 -41.517 -2264.35
-54.1025 217.49 9.09495e-13 54.1025 -217.49 11037.6 0.539678 200.127 570.057 -0.539678 -200.127 -697.968 19.8425 67.0552 -4323.99 -19.8425 -67.0552 -1607.94 -57.6174 293.461 1.81899e-12 57.6174 -293.461 11733.3 -3.18582 130.425 189.829 3.18582 -130.425 380.591 17.1744 45.6948 -3509.29 -17.1744 -45.6948 -1616.15
-63.5047 205.216 0 63.5047 -205.216 13015.3 9.78703 193.754 -380.161 -9.78703 -193.754 -1457.37 13.5142 62.783 -3091.83 -13.5142 -62.783 -949.495 -67.1438 305.736 -1.81899e-12 67.1438 -305.736 13749.8 6.02656 136.797 -724.669 -6.02656 -136.797 -409.875 10.7024 49.967 -2248.89 -10.7024 -49.967 -951.625
-72.2742 192.443 -3.63798e-12 72.2742 -192.443 14855.6 17.9577 186.787 -1214.83 -17.9577 -186.787 -2132.29 7.17849 58.479 -1864.53 -7.17849 -58.479 -285.325 -75.9841 318.508 1.81899e-12 75.9841 -318.508 15626.4 14.1594 143.764 -1525.6 -14.1594 -143.764 -1113.96 4.24412 54.271 -995.734 -4.24412 -54.271 -282.194
-80.2625 179.37 0 80.2625 -179.37 16527.6 24.5719 179.499 -1890.05 -24.5719 -179.499 -2677.76 1.15444 54.5258 -685.809 -1.15444 -54.5258 333.387 -83.9948 331.582 0 83.9948 -331.582 17332.6 20.7361 151.052 -2168.66 -20.7361 -151.052 -1687.44 -1.92191 58.2242 210.691 1.92191 -58.2242 348.943
-87.3664 165.723 -5.45697e-12 87.3664 -165.723 18010.4 29.3493 171.747 -2379 -29.3493 -171.747 -3068.67 -4.51855 50.7449 432.084 4.51855 -50.7449 907.344 -91.0638 345.228 0 91.0638 -345.228 18844.5 25.2961 158.804 -2614.59 -25.2961 -158.804 -2084.1 -7.60254 62.0051 1343.83 7.60254 -62.0051 910.777
-93.5373 151.127 0 93.5373 -151.127 19294 32.0009 163.196 -2657.04 -32.0009 -163.196 -3276.22 -9.90491 47.1262 1489.45 9.90491 -47.1262 1455.38 -97.177 359.825 -3.63798e-12 97.177 -359.825 20159.1 27.7974 167.355 -2850.1 -27.7974 -167.355 -2309.08 -13.1371 65.6238 2420.37 13.1371 -65.6238 1487.02
-98.8071 135.427 0 98.8071 -135.427 20385.5 32.3925 153.856 -2711.28 -32.3925 -153.856 -3288.61 -14.9899 43.6496 2474.2 14.9899 -43.6496 1985.24 -102.332 375.524 9.09495e-12 102.332 -375.524 21276 27.8786 176.696 -2852.71 -27.8786 -176.696 -2317.61 -18.2826 69.1004 3417.4 18.2826 -69.1004 2028.32
-103.251 118.518 1.81899e-12 103.251 -118.518 21300.8 30.3863 143.74 -2534.65 -30.3863 -143.74 -3087.73 -19.7294 40.3801 3377.97 19.7294 -40.3801 2492.32 -106.618 392.434 1.81899e-12 106.618 -392.434 22214.3 25.5034 186.812 -2617.21 -25.5034 -186.812 -2107.67 -23.0345 72.3699 4325.18 23.0345 -72.3699 2542.75
-106.987 100.304 1.81899e-12 106.987 -100.304 22064.3 26.0208 132.902 -2133.2 -26.0208 -132.902 -2675.03 -24.0646 37.3337 4189.44 24.0646 -37.3337 2970.59 -110.15 410.648 -7.27596e-12 110.15 -410.648 22998.6 20.6604 197.65 -2146.14 -20.6604 -197.65 -1674.12 -27.3256 75.4163 5133.07 27.3256 -75.4163 3020.83
-110.155 80.763 0 110.155 -80.763 22705.6 19.3543 121.432 -1516.33 -19.3543 -121.432 -2052.33 -27.951 34.5247 4903.02 27.951 -34.5247 3412.61 -113.065 430.189 0 113.065 -430.189 23658.4 13.4165 209.119 -1448.28 -13.4165 -209.119 -1020.06 -31.1474 78.2253 5836.95 31.1474 -78.2253 3463.86
-112.902 59.8993 -7.27596e-12 112.902 -59.8993 23254.6 10.4927 109.418 -698.053 -10.4927 -109.418 -1225.74 -31.37 31.9618 5517.14 31.37 -31.9618 3814.66 -115.505 451.052 0 115.505 -451.052 24224.1 3.90283 221.134 -538.362 -3.90283 -221.134 -154.579 -34.4894 80.7882 6434.24 34.4894 -80.7882 3871.02
-115.359 37.7561 -3.63798e-12 115.359 -37.7561 23738.6 -0.393751 96.9558 302.66 0.393751 -96.9558 -208.274 -34.3247 29.6543 6031.86 34.3247 -29.6543 4177.7 -117.598 473.196 0 117.598 -473.196 24723.3 -7.72114 233.596 566.122 7.72114 -233.596 910.716 -37.3441 83.0957 6924.99 37.3441 -83.0957 4239.85
-117.637 14.4231 -3.63798e-12 117.637 -14.4231 24180.1 -13.1017 84.1419 1464.96 13.1017 -84.1419 982.813 -36.8282 27.609 6448.71 36.8282 -27.609 4504.28 -119.449 496.529 -1.09139e-11 119.449 -496.529 25178.8 -21.2581 246.41 1844.84 21.2581 -246.41 2159.95 -39.7142 85.141 7311.57 39.7142 -85.141 4568.57
-119.818 -9.95055 3.63798e-12 119.818 9.95055 24595.7 -27.4121 71.0805 2767.36 27.4121 -71.0805 2328.02 -38.8962 25.8226 6771.37 38.8962 -25.8226 4795.49 -121.136 520.902 0 121.136 -520.902 25607.3 -36.479 259.471 3275.16 36.479 -259.471 3573.56 -41.616 86.9274 7598.69 41.616 -86.9274 4857.16
-121.959 -35.1666 0 121.959 35.1666 24996.9 -43.0869 57.8825 4186.82 43.0869 -57.8825 3806 -40.5471 24.2824 7006.06 40.5471 -24.2824 5050.73 -122.712 546.118 -3.63798e-12 122.712 -546.118 26020.5 -53.1218 272.669 4832.45 53.1218 -272.669 5127.75 -43.0804 88.4676 7792.96 43.0804 -88.4676 5108.01
-124.104 -60.9978 3.63798e-12 124.104 60.9978 25392.7 -59.8588 44.663 5697.96 59.8588 -44.663 5392.41 -41.8078 22.9706 7160.71 41.8078 -22.9706 5270.12 -124.224 571.95 0 124.224 -571.95 26427.8 -70.899 285.889 6489.98 70.899 -285.889 6795.93 -44.1459 89.7794 7902.75 44.1459 -89.7794 5324.18
-126.298 -87.204 3.63798e-12 126.298 87.204 25792.5 -77.4325 31.537 7273.42 77.4325 -31.537 7059.9 -42.7165 21.8691 7244.19 42.7165 -21.8691 5456.24 -125.718 598.156 1.09139e-11 125.718 -598.156 26838.8 -89.5013 299.015 8218.81 89.5013 -299.015 8549.55 -44.8551 90.8809 7937.94 44.8551 -90.8809 5508.31
-128.598 -113.54 3.63798e-12 128.598 113.54 26208.1 -95.4888 18.6223 8883.78 95.4888 -18.6223 8778.81 -43.3214 20.959 7266.39 43.3214 -20.959 5613.49 -127.249 624.492 7.27596e-12 127.249 -624.492 27265.2 -108.599 311.929 9987.65 108.599 -311.929 10358.4 -45.2535 91.791 7909.67 45.2535 -91.791 5662.81
-131.079 -139.766 -3.63798e-12 131.079 139.766 26654.6 -113.689 6.04082 10497.5 113.689 -6.04082 10518.3 -43.6746 20.2184 7238.45 43.6746 -20.2184 5746.28 -128.892 650.718 -7.27596e-12 128.892 -650.718 27722.5 -127.842 324.511 11763.2 127.842 -324.511 12190.5 -45.3915 92.5316 7829.96 45.3915 -92.5316 5790.65
-133.824 -165.649 -3.63798e-12 133.824 165.649 27149.3 -131.687 -6.08471 12081.8 131.687 6.08471 12247.3 -43.8273 19.6208 7172.27 43.8273 -19.6208 5857.88 -130.729 676.601 0 130.729 -676.601 28228.2 -146.873 336.636 13511.3 146.873 -336.636 14013.1 -45.3249 93.1292 7711.4 45.3249 -93.1292 5895.81
-136.912 -190.963 -7.27596e-12 136.912 190.963 27708.4 -149.147 -17.6391 13605.1 149.147 17.6391 13935.6 -43.8284 19.1379 7079.67 43.8284 -19.1379 5950.95 -132.839 701.915 3.63798e-12 132.839 -701.915 28799 -165.342 348.191 15198.6 165.342 -348.191 15793.7 -45.1113 93.6121 7566.77 45.1113 -93.6121 5982.73
-140.398 -215.486 -1.45519e-11 140.398 215.486 28343.7 -165.756 -28.5198 15038.9 165.756 28.5198 15554.7 -43.7264 18.743 6971.85 43.7264 -18.743 6028.68 -135.282 726.438 3.63798e-12 135.282 -726.438 29446.9 -182.926 359.071 16794.6 182.926 -359.071 17502.4 -44.8061 94.007 7408.45 44.8061 -94.007 6055.54
-144.305 -238.996 1.09139e-11 144.305 238.996 29060.1 -181.24 -38.6385 16358.7 181.24 38.6385 17078.6 -43.5699 18.4119 6859.26 43.5699 -18.4119 6095.04 -138.084 749.948 -1.09139e-11 138.084 -749.948 30176.8 -199.345 369.19 18273.3 199.345 -369.19 19112.1 -44.4592 94.3381 7247.89 44.4592 -94.3381 6117.72
-148.611 -261.268 -7.27596e-12 148.611 261.268 29854 -195.369 -47.9224 17545.5 195.369 47.9224 18484.9 -43.4049 18.1232 6751.47 43.4049 -18.1232 6154.04 -141.236 772.219 1.45519e-11 141.236 -772.219 30985.5 -214.362 378.474 19613.4 214.362 -378.474 20599.3 -44.1153 94.6268 7095.32 44.1153 -94.6268 6172.34
-153.258 -282.082 -7.27596e-12 153.258 282.082 30715.1 -207.967 -56.3153 18585.1 207.967 56.3153 19755.2 -43.2703 17.8567 6656.88 43.2703 -17.8567 6208.84 -144.697 793.034 -1.45519e-11 144.697 -793.034 31862.3 -227.791 386.867 20798.9 227.791 -386.867 21944.6 -43.8138 94.8933 6959.58 43.8138 -94.8933 6222.39
-158.165 -301.239 3.63798e-12 158.165 301.239 31628.2 -218.898 -63.777 19468.1 218.898 63.777 20875.1 -43.1967 17.5942 6582.39 43.1967 -17.5942 6261.55 -148.407 812.19 3.63798e-12 148.407 -812.19 32792 -239.487 394.329 21818.3 239.487 -394.329 23131.9 -43.5893 95.1558 6848.17 43.5893 -95.1558 6270.71
-163.237 -318.561 0 163.237 318.561 32575.6 -228.071 -70.2823 20188.8 228.071 70.2823 21833.5 -43.2078 17.3206 6533.39 43.2078 -17.3206 6313.81 -152.294 829.513 1.45519e-11 152.294 -829.513 33756.7 -249.351 400.834 22664 249.351 -400.834 24149.5 -43.4699 95.4294 6767.1 43.4699 -95.4294 6319.71
-168.364 -333.899 -3.63798e-12 168.364 333.899 33537.1 -235.434 -75.8195 20745.4 235.434 75.8195 22623.2 -43.3223 17.0251 6513.81 43.3223 -17.0251 6367.21 -156.274 844.851 1.09139e-11 156.274 -844.851 34735.8 -257.326 406.371 23332.9 257.326 -406.371 24989.6 -43.4757 95.7249 6720.73 43.4757 -95.7249 6371.06
-173.112 -344.003 -1.09139e-11 173.112 344.003 34436.4 -240.474 -80.1794 21072.1 240.474 80.1794 23216 -43.5819 16.6857 6532.71 43.5819 -16.6857 6425.01 -159.514 854.955 -7.27596e-12 159.514 -854.955 35542.3 -261.245 410.731 23547.4 261.245 -410.731 25527.3 -43.7402 96.0643 6739.07 43.7402 -96.0643 6434.39
-176.856 -348.212 -3.63798e-12 176.856 348.212 35150.8 -241.928 -82.1475 21026.5 241.928 82.1475 23523.4 -43.9896 16.2232 6585.53 43.9896 -16.2232 6492.49 -160.139 859.163 3.63798e-12 160.139 -859.163 35782.4 -258.592 412.699 22924.9 258.592 -412.699 25677.5 -44.5564 96.5268 6909.76 44.5564 -96.5268 6509.16
-179.469 -350.57 1.09139e-11 179.469 350.57 35642.7 -240.346 -83.7775 20639.3 240.346 83.7775 23613.1 -44.6261 15.755 6701.05 44.6261 -15.755 6565.04 -162.229 861.522 -7.27596e-12 162.229 -861.522 36311.2 -257.685 414.329 22636.9 257.685 -414.329 25811.5 -45.1065 96.995 7021.08 45.1065 -96.995 6564.25
-181.926 -352.246 -3.63798e-12 181.926 352.246 36108.4 -237.603 -84.8583 20163.1 237.603 84.8583 23579 -45.3446 15.35 6848.34 45.3446 -15.35 6630.25 -164.57 863.198 -3.63798e-12 164.57 -863.198 36879 -255.537 415.41 22282.1 255.537 -415.41 25777.9 -45.8133 97.4 7144.35 45.8133 -97.4 6653.57
-184.591 -352.735 1.09139e-11 184.591 352.735 36625.9 -234.791 -84.9082 19757.8 234.791 84.9082 23464 -46.0625 14.8721 6991.52 46.0625 -14.8721 6699.15 -166.417 863.687 3.63798e-12 166.417 -863.687 37329.1 -252.238 415.46 21800.7 252.238 -415.46 25651.9 -46.5486 97.8779 7310.03 46.5486 -97.8779 6708.93
-187.292 -352.92 -7.27596e-12 187.292 352.92 37156.8 -231.94 -84.8438 19400.7 231.94 84.8438 23294.5 -46.747 14.4674 7134.66 46.747 -14.4674 6758.32 -168.693 863.872 1.09139e-11 168.693 -863.872 37855.4 -248.951 415.395 21403.7 248.951 -415.395 25440.1 -47.2896 98.2826 7463.25 47.2896 -98.2826 6778.04
-189.702 -352.303 -1.09139e-11 189.702 352.303 37635.4 -227.968 -84.0826 18960.6 227.968 84.0826 23002.9 -47.4471 14.084 7286.32 47.4471 -14.084 6813.55 -170.889 863.255 -3.63798e-12 170.889 -863.255 38350.7 -245.022 414.634 20972.2 245.022 -414.634 25139 -48.0232 98.666 7624.29 48.0232 -98.666 6836.82
-191.907 -350.739 7.27596e-12 191.907 350.739 38079.8 -223.227 -82.7088 18476.5 223.227 82.7088 22615.1 -48.1406 13.7333 7440.55 48.1406 -13.7333 6864.31 -173.04 861.691 1.81899e-11 173.04 -861.691 38822.6 -240.594 413.26 20524 240.594 -413.26 24758.4 -48.7246 99.0167 7785.35 48.7246 -99.0167 6885.65
-193.805 -347.481 7.27596e-12 193.805 347.481 38471.8 -217.84 -80.6955 17949.8 217.84 80.6955 22152.2 -48.8045 13.4346 7594.34 48.8045 -13.4346 6906.77 -174.926 858.433 7.27596e-12 174.926 -858.433 39223.9 -234.948 411.247 19964.3 234.948 -411.247 24259.7 -49.4438 99.3154 7952.57 49.4438 -99.3154 6933.12
-195.335 -342.472 -7.27596e-12 195.335 342.472 38798.4 -211.437 -77.9023 17332.4 211.437 77.9023 21594 -49.439 13.1709 7747.36 49.439 -13.1709 6941.31 -176.542 853.424 -7.27596e-12 176.542 -853.424 39554.7 -228.35 408.454 19311.7 228.35 -408.454 23674 -50.1294 99.5791 8123.05 50.1294 -99.5791 6966.9
-196.526 -336.093 -3.63798e-12 196.526 336.093 39063.3 -204.018 -74.4885 16616.8 204.018 74.4885 20948 -50.0127 12.9789 7895.07 50.0127 -12.9789 6963.24 -177.989 847.045 -1.09139e-11 177.989 -847.045 39838.8 -220.86 405.04 18579.3 220.86 -405.04 22999.7 -50.7661 99.7711 8284.56 50.7661 -99.7711 6994.55
-197.475 -328.407 -1.45519e-11 197.475 328.407 39285.9 -195.904 -70.464 15838.6 195.904 70.464 20237 -50.4871 12.8647 8026.08 50.4871 -12.8647 6972.55 -179.279 839.358 -1.45519e-11 179.279 -839.358 40080.3 -212.672 401.016 17778 212.672 -401.016 22262.8 -51.315 99.8853 8434.57 51.315 -99.8853 7006.99
-198.266 -319.599 -7.27596e-12 198.266 319.599 39482 -187.343 -65.8912 15020.6 187.343 65.8912 19484.2 -50.8354 12.8507 8134.6 50.8354 -12.8507 6967.1 -180.454 830.551 -2.18279e-11 180.454 -830.551 40289.9 -203.903 396.443 16917.9 203.903 -396.443 21475 -51.7514 99.8993 8565.62 51.7514 -99.8993 7004.23
-198.958 -309.944 -3.63798e-12 198.958 309.944 39661.7 -178.385 -60.7898 14161.6 178.385 60.7898 18699.7 -51.0295 12.9605 8216.75 51.0295 -12.9605 6942.49 -181.585 820.896 3.63798e-12 181.585 -820.896 40485.2 -194.758 391.341 16019.5 194.758 -391.341 20654.6 -52.0258 99.7895 8667.67 52.0258 -99.7895 6981.54
-199.621 -299.695 3.63798e-12 199.621 299.695 39838 -169.177 -55.2206 13273.4 169.177 55.2206 17898.5 -51.0319 13.212 8264.96 51.0319 -13.212 6895.2 -182.73 810.647 -7.27596e-12 182.73 -810.647 40680.5 -185.421 385.772 15099.2 185.421 -385.772 19819.7 -52.1054 99.538 8733.43 52.1054 -99.538 6936.42
-200.328 -289.057 -1.09139e-11 200.328 289.057 40024.5 -159.964 -49.2635 12380.5 159.964 49.2635 17101.3 -50.8008 13.6218 8269.81 50.8008 -13.6218 6822.31 -183.919 800.009 0 183.919 -800.009 40884.2 -176.063 379.815 14170.8 176.063 -379.815 18988.8 -51.9642 99.1282 8757.27 51.9642 -99.1282 6866.71
-201.116 -278.243 1.09139e-11 201.116 278.243 40227.7 -150.932 -42.9831 11499.3 150.932 42.9831 16325.7 -50.3113 14.205 8225.39 50.3113 -14.205 6722.32 -185.172 789.195 -1.09139e-11 185.172 -789.195 41101.9 -166.877 373.535 13252 166.877 -373.535 18180.2 -51.5705 98.545 8732.43 51.5705 -98.545 6769.76
-201.976 -267.45 1.09139e-11 201.976 267.45 40445.2 -142.234 -36.4428 10642.4 142.234 36.4428 15587.1 -49.5473 14.9748 8127.93 49.5473 -14.9748 6594.17 -186.487 778.402 0 186.487 -778.402 41333.9 -158.063 366.994 12362.8 158.063 -366.994 17411.7 -50.8942 97.7752 8651.76 50.8942 -97.7752 6643.72
-202.872 -256.824 -1.81899e-11 202.872 256.824 40669 -134.07 -29.7191 9829.35 134.07 29.7191 14903.1 -48.4876 15.941 7972.54 48.4876 -15.941 6436.5 -187.819 767.775 -7.27596e-12 187.819 -767.775 41571.5 -149.817 360.271 11522.4 149.817 -360.271 16700.8 -49.9115 96.809 8509.78 49.9115 -96.809 6487.07
-203.739 -246.477 -2.18279e-11 203.739 246.477 40885.9 -126.652 -22.8995 9081.68 126.652 22.8995 14290.8 -47.11 17.1103 7754.05 47.11 -17.1103 6247.86 -189.1 757.428 1.81899e-11 189.1 -757.428 41799.8 -142.331 353.451 10749.2 142.331 -353.451 16064.6 -48.6058 95.6397 8302.45 48.6058 -95.6397 6298.96
-204.503 -236.515 -2.54659e-11 204.503 236.515 41080.2 -120.142 -16.0669 8416 120.142 16.0669 13763.9 -45.4012 18.4861 7469.23 45.4012 -18.4861 6027.46 -190.256 747.466 7.27596e-12 190.256 -747.466 42003.1 -135.781 346.618 10061.5 135.781 -346.618 15518.2 -46.9649 94.2639 8026.52 46.9649 -94.2639 6079.05
-205.09 -227.025 3.63798e-12 205.09 227.025 41237 -114.676 -9.29329 7845.72 114.676 9.29329 13333.7 -43.3592 20.068 7117.01 43.3592 -20.068 5775.68 -191.221 737.977 7.27596e-12 191.221 -737.977 42167.2 -130.318 339.845 9474.83 130.318 -339.845 15073.8 -44.982 92.682 7679.92 44.982 -92.682 5827.47
-205.444 -218.073 3.63798e-12 205.444 218.073 41344.5 -110.369 -2.64408 7383.12 110.369 2.64408 13009.6 -40.9893 21.8516 6697.71 40.9893 -21.8516 5493.71 -191.936 729.024 -1.09139e-11 191.936 -729.024 42279.9 -126.051 333.196 9000.52 126.051 -333.196 14740.5 -42.6579 90.8984 7262.4 42.6579 -90.8984 5544.91
-205.519 -209.708 3.63798e-12 205.519 209.708 41393.3 -107.303 3.82013 7037 107.303 -3.82013 12797.5 -38.3027 23.8276 6212.91 38.3027 -23.8276 5183.22 -192.355 720.66 -1.45519e-11 192.355 -720.66 42331 -123.054 326.731 8646.65 123.054 -326.731 14524.1 -40.0025 88.9224 6775.57 40.0025 -88.9224 5232.81
-205.232 -201.937 -1.81899e-11 205.232 201.937 41366.1 -105.527 10.0405 6813.94 105.527 -10.0405 12700.4 -35.3162 25.9823 5665.51 35.3162 -25.9823 4846.16 -192.387 712.888 1.45519e-11 192.387 -712.888 42301.8 -121.39 320.511 8420.84 121.39 -320.511 14428.5 -37.0332 86.7677 6222.54 37.0332 -86.7677 4893.37
-204.487 -194.708 1.45519e-11 204.487 194.708 41244 -105.06 15.9627 6717.36 105.06 -15.9627 12718.1 -32.0551 28.2975 5060.3 32.0551 -28.2975 4485.2 -191.939 705.659 -7.27596e-12 191.939 -705.659 42172 -121.09 314.589 8328.62 121.09 -314.589 14454 -33.7744 84.4525 5607.78 33.7744 -84.4525 4529.58
-203.261 -188.004 -1.09139e-11 203.261 188.004 41021.8 -105.864 21.5571 6744.96 105.864 -21.5571 12846.1 -28.5546 30.7498 4404.03 28.5546 -30.7498 4103.87 -190.981 698.955 -1.09139e-11 190.981 -698.955 41935.8 -122.11 308.994 8366.4 122.11 -308.994 14595.6 -30.2615 82.0002 4938.32 30.2615 -82.0002 4145.07
-201.554 -181.794 -3.63798e-12 201.554 181.794 40699.6 -107.856 26.8045 6889.48 107.856 -26.8045 13076.2 -24.8578 33.3121 3705.17 24.8578 -33.3121 3706.48 -189.518 692.746 1.81899e-11 189.518 -692.746 41593.5 -124.36 303.747 8526.41 124.36 -303.747 14844.4 -26.5363 79.4379 4222.65 26.5363 -79.4379 3743.96
-199.407 -176.056 1.09139e-11 199.407 176.056 40286 -110.898 31.6991 7138.2 110.898 -31.6991 13396 -21.0144 35.9537 2973.53 21.0144 -35.9537 3297.85 -187.593 687.007 2.18279e-11 187.593 -687.007 41154.6 -127.699 298.852 8795.46 127.699 -298.852 15187.5 -22.6493 76.7963 3471.13 22.6493 -76.7963 3331.06
-196.912 -170.779 -2.18279e-11 196.912 170.779 39799.6 -114.809 36.2491 7473.4 114.809 -36.2491 13789.5 -17.0792 38.64 2220.19 17.0792 -38.64 2883.13 -185.298 681.731 1.45519e-11 185.298 -681.731 40638.6 -131.939 294.302 9155.01 131.939 -294.302 15608.1 -18.6577 74.11 2695.59 18.6577 -74.11 2911.63
-194.199 -165.964 0 194.199 165.964 39266.8 -119.37 40.4749 7873.44 119.37 -40.4749 14238.2 -13.1115 41.3341 1457.3 13.1115 -41.3341 2467.78 -182.76 676.916 1.81899e-11 182.76 -676.916 40073.4 -136.851 290.077 9582.2 136.851 -290.077 16086.6 -14.6239 71.4159 1908.99 14.6239 -71.4159 2491.39
-191.413 -161.606 -7.27596e-12 191.413 161.606 38716.9 -124.343 44.4049 8314.49 124.343 -44.4049 14721.8 -9.17394 43.9975 697.746 9.17394 -43.9975 2057.49 -180.123 672.557 1.09139e-11 180.123 -672.557 39489.3 -142.186 286.147 10052.1 142.186 -286.147 16601.5 -10.6131 68.7525 1124.9 10.6131 -68.7525 2076.24
-188.674 -157.676 -3.63798e-12 188.674 157.676 38174.7 -129.489 48.0679 8773.08 129.489 -48.0679 15219.5 -5.32952 46.5917 -45.5406 5.32952 -46.5917 1658.08 -177.51 668.628 -7.27596e-12 177.51 -668.628 38912.8 -147.695 282.484 10540.1 147.695 -282.484 17131 -6.69095 66.1583 356.991 6.69095 -66.1583 1672.07
-186.055 -154.107 -1.09139e-11 186.055 154.107 37655.1 -134.588 51.488 9228.35 134.588 -51.488 15711.6 -1.63942 49.0791 -760.055 1.63942 -49.0791 1275.28 -174.998 665.058 0 174.998 -665.058 38359.8 -153.148 279.064 11024.4 153.148 -279.064 17654.2 -2.92149 63.6709 -381.475 2.92149 -63.6709 1284.64
-183.557 -150.776 1.45519e-11 183.557 150.776 37159.2 -139.451 54.6811 9663.54 139.451 -54.6811 16180 1.83868 51.4237 -1434.02 -1.83868 -51.4237 914.509 -172.597 661.728 -3.63798e-12 172.597 -661.728 37831.9 -158.348 275.87 11487.2 158.348 -275.87 18152.3 0.634824 61.3263 -1078.03 -0.634824 -61.3263 919.443
-181.123 -147.521 3.63798e-12 181.123 147.521 36675.9 -143.922 57.6562 10065.7 143.922 -57.6562 16608.8 5.05129 53.5921 -2056.49 -5.05129 -53.5921 580.833 -170.263 658.472 -1.09139e-11 170.263 -658.472 37318.5 -163.132 272.895 11914.5 163.132 -272.895 18608.5 3.92201 59.1579 -1721.26 -3.92201 -59.1579 581.674
-178.666 -144.161 -1.09139e-11 178.666 144.161 36188.1 -147.869 60.4184 10424.5 147.869 -60.4184 16983.8 7.94957 55.5533 -2617.46 -7.94957 -55.5533 278.87 -167.921 655.113 3.63798e-12 167.921 -655.113 36802.5 -167.359 270.133 12295.3 167.359 -270.133 19008 6.88903 57.1967 -2300.81 -6.88903 -57.1967 276.086
-176.093 -140.682 0 176.093 140.682 35677.2 -151.15 62.8039 10729.6 151.15 -62.8039 17288.6 10.3829 57.134 -3097.99 -10.3829 -57.134 34.4432 -165.485 651.633 0 165.485 -651.633 36264.8 -170.889 267.748 12619.2 170.889 -267.748 19335.3 9.40269 55.616 -2799.19 -9.40269 -55.616 24.6795
-173.292 -136.81 0 173.292 136.81 35121.3 -153.703 64.9043 10976.7 153.703 -64.9043 17516.3 12.3831 58.4374 -3497.48 -12.3831 -58.4374 -162.274 -162.866 647.762 1.09139e-11 162.866 -647.762 35685.1 -173.598 265.647 12877.7 173.598 -265.647 19575.6 11.4253 54.3126 -3209.65 -11.4253 -54.3126 -168.205
-170.143 -132.251 -3.63798e-12 170.143 132.251 34497.1 -155.446 66.8642 11161 155.446 -66.8642 17656.7 13.9794 59.4857 -3816.12 -13.9794 -59.4857 -319.7 -159.943 643.203 1.45519e-11 159.943 -643.203 35036.1 -175.513 263.687 13071.4 175.513 -263.687 19732.8 13.0862 53.2643 -3538.6 -13.0862 -53.2643 -334.595
-166.509 -126.837 1.09139e-11 166.509 126.837 33776.6 -156.362 68.6582 11282 156.362 -68.6582 17707.1 15.1666 60.2851 -4049.17 -15.1666 -60.2851 -440.83 -156.601 637.788 0 156.601 -637.788 34292.5 -176.516 261.893 13194.7 176.516 -261.893 19791.2 14.3033 52.4649 -3778.08 -14.3033 -52.4649 -458.135
-162.248 -120.373 -3.63798e-12 162.248 120.373 32931.7 -156.411 70.308 11338.7 156.411 -70.308 17660.9 15.9257 60.8165 -4192.91 -15.9257 -60.8165 -523.722 -152.703 631.325 1.81899e-11 152.703 -631.325 33423.9 -176.606 260.244 13248.3 176.606 -260.244 19749 15.0783 51.9335 -3925.49 -15.0783 -51.9335 -541.961
-157.215 -112.692 -3.63798e-12 157.215 112.692 31932.9 -155.583 71.8082 11332.7 155.583 -71.8082 17514.7 16.2476 61.079 -4245.84 -16.2476 -61.079 -567.147 -148.112 623.644 0 148.112 -623.644 32400.8 -175.759 258.743 13233 175.759 -258.743 19601.7 15.3958 51.671 -3978.5 -15.3958 -51.671 -583.888
-151.277 -103.637 7.27596e-12 151.277 103.637 30753 -153.869 73.1568 11265.7 153.869 -73.1568 17265.1 16.1195 61.0635 -4206.88 -16.1195 -61.0635 -568.329 -142.696 614.588 3.63798e-12 142.696 -614.588 31195 -173.977 257.395 13150.5 173.977 -257.395 19347.2 15.2526 51.6865 -3936.1 -15.2526 -51.6865 -583.982
-144.344 -93.1021 -7.27596e-12 144.344 93.1021 29372.8 -151.255 74.3424 11137.9 151.255 -74.3424 16909.4 15.5194 60.7518 -4074.09 -15.5194 -60.7518 -522.723 -136.364 604.054 2.18279e-11 136.364 -604.054 29786.9 -171.242 256.209 13000.9 171.242 -256.209 18982.5 14.626 51.9982 -3796.32 -14.626 -51.9982 -537.529
-136.405 -81.0225 -3.63798e-12 136.405 81.0225 27789.3 -147.715 75.3928 10946.6 147.715 -75.3928 16445.3 14.4557 60.1454 -3848.5 -14.4557 -60.1454 -431.805 -129.096 591.974 7.27596e-12 129.096 -591.974 28173.7 -167.522 255.159 12781.2 167.522 -255.159 18504.5 13.5256 52.6046 -3560.76 -13.5256 -52.6046 -445.719
-127.541 -67.4031 3.63798e-12 127.541 67.4031 26017.7 -143.197 76.3571 10685.3 143.197 -76.3571 15869.7 12.9431 59.2531 -3532.37 -12.9431 -59.2531 -297.786 -120.96 578.355 2.54659e-11 120.96 -578.355 26371 -162.765 254.194 12484.7 162.765 -254.194 17910.1 11.9618 53.4969 -3231.28 -11.9618 -53.4969 -309.79
-117.893 -52.3052 -7.27596e-12 117.893 52.3052 24085.3 -137.64 77.2896 10345.6 137.64 -77.2896 15180 11.002 58.0887 -3129.21 -11.002 -58.0887 -123.233 -112.077 563.257 -1.45519e-11 112.077 -563.257 24407 -156.908 253.262 12103 156.908 -253.262 17196.1 9.95226 54.6613 -2811.06 -9.95226 -54.6613 -131.775
-107.632 -35.8321 1.27329e-11 107.632 35.8321 22025.1 -130.987 78.237 9919.19 130.987 -78.237 14373.7 8.64479 56.657 -2642.86 -8.64479 -56.657 91.8789 -102.599 546.784 -1.63709e-11 102.599 -546.784 22315.7 -149.895 252.315 11627.6 149.895 -252.315 16360.5 7.5093 56.093 -2303.53 -7.5093 -56.093 88.1132
-96.9357 -18.0502 9.09495e-12 96.9357 18.0502 19872.2 -123.205 79.3053 9399.24 123.205 -79.3053 13452 5.93112 55.0168 -2081.91 -5.93112 -55.0168 338.33 -92.684 529.002 3.63798e-12 92.684 -529.002 20133 -141.696 251.246 11052 141.696 -251.246 15404.2 4.70212 57.7332 -1718.01 -4.70212 -57.7332 338.686
-85.9841 0.901346 -3.63798e-12 85.9841 -0.901346 17662 -114.269 80.5402 8780.11 114.269 -80.5402 12415.8 2.88229 53.1758 -1451.92 -2.88229 -53.1758 615.228 -82.4943 510.05 0 82.4943 -510.05 17895.1 -132.291 250.011 10371.1 132.291 -250.011 14328.9 1.54494 59.5742 -1059.47 -1.54494 -59.5742 620.709
-74.9544 20.8781 -5.45697e-12 74.9544 -20.8781 15429.5 -104.192 81.9928 8058.94 104.192 -81.9928 11270.2 -0.45339 51.1627 -761.753 0.45339 -51.1627 916.983 -72.193 490.074 5.45697e-12 72.193 -490.074 15638.5 -121.682 248.559 9581.66 121.682 -248.559 13137.8 -1.9141 61.5873 -337.315 1.9141 -61.5873 929.296
-64.0251 41.7233 1.81899e-12 64.0251 -41.7233 13210.4 -93.0009 83.7232 7234.74 93.0009 -83.7232 10021.3 -4.02619 49.013 -21.5613 4.02619 -49.013 1238.88 -61.9427 469.228 -7.27596e-12 61.9427 -469.228 13399.1 -109.91 246.828 8683.75 109.91 -246.828 11838.9 -5.62079 63.737 438.311 5.62079 -63.737 1258.49
-53.3769 63.2497 1.81899e-12 53.3769 -63.2497 11041.1 -80.7529 85.7777 6308.92 80.7529 -85.7777 8678.33 -7.77824 46.7664 757.183 7.77824 -46.7664 1575.12 -51.9142 447.702 -7.27596e-12 51.9142 -447.702 11214.3 -97.0327 244.774 7679.18 97.0327 -244.774 10441.1 -9.51517 65.9836 1255.55 9.51517 -65.9836 1602.28
-43.189 85.2489 3.63798e-12 43.189 -85.2489 8958.29 -67.5312 88.2006 5285.25 67.5312 -88.2006 7252.8 -11.6461 44.464 1561.93 11.6461 -44.464 1919.36 -42.2786 425.703 -3.63798e-12 42.2786 -425.703 9121.04 -83.1408 242.351 6572.57 83.1408 -242.351 8956.9 -13.5323 68.286 2101.57 13.5323 -68.286 1954.17
-33.6181 107.502 -2.72848e-12 33.6181 -107.502 6994.31 -53.4556 91.023 4171.17 53.4556 -91.023 5759.36 -15.5607 42.1497 2379.07 15.5607 -42.1497 2264.65 -33.1891 403.45 -4.54747e-12 33.1891 -403.45 7152.21 -68.3581 239.529 5372.18 68.3581 -239.529 7401.14 -17.6025 70.6003 2962.23 17.6025 -70.6003 2307.51
-24.7658 129.807 -9.09495e-13 24.7658 -129.807 5170.57 -38.6916 94.2606 2979.37 38.6916 -94.2606 4215.9 -19.448 39.8696 3193.81 19.448 -39.8696 2603.86 -24.747 381.145 -2.27374e-12 24.747 -381.145 5329.11 -52.8583 236.291 4091.76 52.8583 -236.291 5792.61 -21.6508 72.8804 3822.21 21.6508 -72.8804 2655.19
-16.6609 151.998 4.54747e-13 16.6609 -151.998 3493.74 -23.4548 97.9098 1728.41 23.4548 -97.9098 2643.65 -23.2307 37.672 3990.42 23.2307 -37.672 2929.74 -16.9836 358.953 -9.09495e-13 16.9836 -358.953 3657.88 -36.8676 232.642 2751.14 36.8676 -232.642 4153.67 -25.5974 75.078 4665.1 25.5974 -75.078 2989.78
-9.2738 173.937 9.09495e-13 9.2738 -173.937 1958.51 -8.00032 101.952 441.503 8.00032 -101.952 1066.53 -26.8299 35.6059 4752.73 26.8299 -35.6059 3235.11 -9.87239 337.014 -6.82121e-13 9.87239 -337.014 2132.31 -20.6532 228.6 1374.91 20.6532 -228.6 2509.5 -29.3599 77.1441 5473.83 29.3599 -77.1441 3303.67
-2.65609 195.044 7.95808e-13 2.65609 -195.044 576.242 7.25255 106.365 -836.194 -7.25255 -106.365 -483.12 -30.1603 33.7284 5463.15 30.1603 -33.7284 3512.33 -3.37651 315.908 -1.13687e-13 3.37651 -315.908 743.827 -4.56314 224.186 -2.1223 4.56314 -224.186 890.096 -32.8542 79.0216 6230.79 32.8542 -79.0216 3589.29
1.48401 211.801 -1.98952e-13 -1.48401 -211.801 -301.171 20.4209 110.505 -1858.96 -20.4209 -110.505 -1903.01 -33.042 32.1059 6077.96 33.042 -32.1059 3751.86 0.790541 299.151 4.26326e-14 -0.790541 -299.151 -156.432 9.04536 220.047 -1083.29 -9.04536 -220.047 -564.891 -35.8714 80.6441 6889.74 35.8714 -80.6441 3830.64
4.9778 227.598 -1.13687e-13 -4.9778 -227.598 -1048.86 32.6964 114.927 -2814.81 -32.6964 -114.927 -3225.05 -35.4953 30.7618 6612.25 35.4953 -30.7618 3944.71 4.37622 283.354 -2.27374e-13 -4.37622 -283.354 -930.772 23.119 215.624 -2252.31 -23.119 -215.624 -2016.62 -38.5443 81.9882 7475.53 38.5443 -81.9882 4042
8.38592 243.353 4.54747e-13 -8.38592 -243.353 -1781.76 44.5302 119.767 -3751.95 -44.5302 -119.767 -4484.52 -37.5234 29.6899 7059.57 37.5234 -29.6899 4098.33 7.71957 267.599 0 -7.71957 -267.599 -1649.63 35.5831 210.785 -3274.84 -35.5831 -210.785 -3315.47 -40.6859 83.0601 7965.17 40.6859 -83.0601 4190.8
11.836 258.429 -4.54747e-13 -11.836 -258.429 -2526.12 55.4006 124.699 -4619.83 -55.4006 -124.699 -5635.38 -39.0255 28.9836 7406.05 39.0255 -28.9836 4196.78 11.1255 252.523 1.59162e-12 -11.1255 -252.523 -2376.85 47.2271 205.853 -4229 -47.2271 -205.853 -4529.11 -42.3313 83.7664 8342.46 42.3313 -83.7664 4303.31
15.3428 273.2 -9.09495e-13 -15.3428 -273.2 -3285.4 64.8189 129.815 -5356.88 -64.8189 -129.815 -6648.64 -39.9529 28.6178 7634.39 39.9529 -28.6178 4242.94 14.6804 237.752 4.54747e-13 -14.6804 -237.752 -3130.76 57.3482 200.737 -5056.07 -57.3482 -200.737 -5586.23 -43.3657 84.1322 8603.74 43.3657 -84.1322 4349.12
19.0141 287.48 9.09495e-13 -19.0141 -287.48 -4081.86 72.6411 135.008 -5953.71 -72.6411 -135.008 -7506.93 -40.2669 28.6471 7740.26 40.2669 -28.6471 4229.72 18.4802 223.471 4.54747e-13 -18.4802 -223.471 -3931.7 65.9928 195.543 -5755.15 -65.9928 -195.543 -6496.26 -43.8036 84.1029 8739.8 43.8036 -84.1029 4341.54
22.9656 301.202 3.18323e-12 -22.9656 -301.202 -4939.27 78.9658 140.294 -6425.91 -78.9658 -140.294 -8212.8 -39.9701 29.071 7724.78 39.9701 -29.071 4156.76 22.5612 209.75 1.36424e-12 -22.5612 -209.75 -4787.58 72.9072 190.257 -6300.59 -72.9072 -190.257 -7237.95 -43.5775 83.679 8741.97 43.5775 -83.679 4269.28
27.2356 314.365 3.63798e-12 -27.2356 -314.365 -5865.73 83.6197 145.635 -6753.53 -83.6197 -145.635 -8753.96 -39.0351 29.9029 7582.55 39.0351 -29.9029 4021.2 26.9859 196.587 1.81899e-12 -26.9859 -196.587 -5711.64 78.0428 184.916 -6687.51 -78.0428 -184.916 -7807.25 -42.6961 82.8471 8609.67 42.6961 -82.8471 4135.49
31.8376 327.021 5.45697e-12 -31.8376 -327.021 -6864.27 86.4894 150.996 -6919.42 -86.4894 -150.996 -9126.45 -37.449 31.142 7308.92 37.449 -31.142 3823.88 31.8123 183.931 7.27596e-12 -31.8123 -183.931 -6716 81.3667 179.556 -6914.69 -81.3667 -179.556 -8199.48 -41.1634 81.608 8345.43 41.1634 -81.608 3938.92
36.8111 339.178 -4.54747e-12 -36.8111 -339.178 -7943.17 87.6413 156.371 -6931.32 -87.6413 -156.371 -9334.71 -35.238 32.7759 6909.67 35.238 -32.7759 3566.58 37.0636 171.774 9.09495e-13 -37.0636 -171.774 -7805.6 82.9109 174.181 -6983.05 -82.9109 -174.181 -8419.8 -38.9845 79.9741 7950.34 38.9845 -79.9741 3680.21
42.176 350.921 -3.63798e-12 -42.176 -350.921 -9106.66 87.2231 161.813 -6804.13 -87.2231 -161.813 -9391.15 -32.4338 34.7916 6391.7 32.4338 -34.7916 3251.7 42.7322 160.031 4.54747e-12 -42.7322 -160.031 -8978.9 82.7518 168.738 -6896.94 -82.7518 -168.738 -8478.12 -36.1881 77.9584 7428.9 36.1881 -77.9584 3363.55
47.9062 362.312 -1.81899e-12 -47.9062 -362.312 -10349.5 85.3217 167.317 -6543.51 -85.3217 -167.317 -9306.15 -29.0714 37.1636 5761.63 29.0714 -37.1636 2882.78 48.8082 148.639 -4.54747e-12 -48.8082 -148.639 -10233.8 81.0378 163.234 -6670.27 -81.0378 -163.234 -8388.23 -32.8101 75.5864 6789.47 32.8101 -75.5864 2991.53
53.9587 373.444 -3.63798e-12 -53.9587 -373.444 -11662.9 82.0859 172.899 -6161.54 -82.0859 -172.899 -9095.17 -25.1961 39.8619 5028.42 25.1961 -39.8619 2464.14 55.2599 137.507 5.45697e-12 -55.2599 -137.507 -11563.6 77.9548 157.653 -6320.65 -77.9548 -157.653 -8167.09 -28.9073 72.8881 6044.08 28.9073 -72.8881 2569.25
60.2878 384.406 1.09139e-11 -60.2878 -384.406 -13037.5 77.7629 178.59 -5681.89 -77.7629 -178.59 -8780.33 -20.8725 42.8493 4205.46 20.8725 -42.8493 2001.38 62.0319 126.545 -3.63798e-12 -62.0319 -126.545 -12956.6 73.7268 151.961 -5868.2 -73.7268 -151.961 -7836.28 -24.5404 69.9007 5205.53 24.5404 -69.9007 2102.25
66.8363 395.309 1.81899e-12 -66.8363 -395.309 -14461.4 72.6172 184.432 -5129.53 -72.6172 -184.432 -8385.73 -16.1743 46.0837 3307.93 16.1743 -46.0837 1500.99 69.0601 115.643 1.81899e-12 -69.0601 -115.643 -14399.4 68.6176 146.119 -5336.73 -68.6176 -146.119 -7420.93 -19.78 66.6663 4288.53 19.78 -66.6663 1597.06
73.5366 406.282 1.81899e-12 -73.5366 -406.282 -15921 66.9037 190.462 -4527.09 -66.9037 -190.462 -7936.06 -11.177 49.5191 2351.2 11.177 -49.5191 969.908 76.2837 104.669 -1.81899e-12 -76.2837 -104.669 -15879 62.9166 140.09 -4752.98 -62.9166 -140.09 -6948.06 -14.7048 63.2309 3309.77 14.7048 -63.2309 1060.68
80.3278 417.463 -2.00089e-11 -80.3278 -417.463 -17404 60.9018 196.713 -3899.52 -60.9018 -196.713 -7458.24 -5.95975 53.1066 1351.35 5.95975 -53.1066 415.39 83.6456 93.4882 1.27329e-11 -83.6456 -93.4882 -17383.4 56.9235 133.839 -4144.25 -56.9235 -133.839 -6445.93 -9.39908 59.6434 2286.95 9.39908 -59.6434 500.621
87.1608 428.837 -1.81899e-12 -87.1608 -428.837 -18900.2 54.93 203.063 -3275.09 -54.93 -203.063 -6983.05 -0.687395 56.6409 333.147 0.687395 -56.6409 -138.415 91.0921 82.1145 -1.27329e-11 -91.0921 -82.1145 -18901.3 50.9467 127.488 -3537.93 -50.9467 -127.488 -5944.47 -3.99422 56.1091 1242.09 3.99422 -56.1091 -65.9514
93.986 440.291 1.27329e-11 -93.986 -440.291 -20399.4 49.343 209.265 -2682.6 -49.343 -209.265 -6547.48 4.30656 59.9402 -663.743 -4.30656 -59.9402 -632.138 98.5679 70.6608 -3.63798e-12 -98.5679 -70.6608 -20421.5 45.3903 121.286 -2966.33 -45.3903 -121.286 -5486.33 1.07325 52.8098 225.192 -1.07325 -52.8098 -559.511
100.767 452.37 -2.36469e-11 -100.767 -452.37 -21895.6 44.2993 215.769 -2139.83 -44.2993 -215.769 -6163.58 9.30881 63.2185 -1657.9 -9.30881 -63.2185 -1132.16 106.044 58.5817 -2.00089e-11 -106.044 -58.5817 -21936.4 40.4128 114.782 -2448 -40.4128 -114.782 -5082.13 6.21852 49.5315 -792.137 -6.21852 -49.5315 -1074.71
107.442 465.26 -7.27596e-12 -107.442 -465.26 -23376.8 40.0986 222.683 -1673.23 -40.0986 -222.683 -5860.74 14.2058 66.4678 -2628.95 -14.2058 -66.4678 -1625.06 113.487 45.6912 7.27596e-12 -113.487 -45.6912 -23438.3 36.2954 107.868 -2009.51 -36.2954 -107.868 -4757.28 11.2351 46.2822 -1779.91 -11.2351 -46.2822 -1580.24
113.946 479.042 -1.09139e-11 -113.946 -479.042 -24830 36.9737 229.984 -1306.02 -36.9737 -229.984 -5659.11 18.9412 69.6353 -3561.22 -18.9412 -69.6353 -2109.64 120.805 31.91 -1.45519e-11 -120.805 -31.91 -24907.7 33.3533 100.568 -1676.21 -33.3533 -100.568 -4544.7 16.0813 43.1147 -2728.98 -16.0813 -43.1147 -2072.9
120.178 493.801 7.27596e-12 -120.178 -493.801 -26234.3 35.1927 237.746 -1063.18 -35.1927 -237.746 -5583.76 23.4556 72.6805 -4442.28 -23.4556 -72.6805 -2580.47 127.92 17.1511 -7.27596e-12 -127.92 -17.1511 -26327.6 31.8232 92.8057 -1473.48 -31.8232 -92.8057 -4462.64 20.6793 40.0695 -3621.49 -20.6793 -40.0695 -2547.46
126.021 509.559 -1.45519e-11 -126.021 -509.559 -27565.3 34.9835 245.973 -967.352 -34.9835 -245.973 -5654.54 27.6842 75.5783 -5260.07 -27.6842 -75.5783 -3030.23 134.702 1.39307 -1.09139e-11 -134.702 -1.39307 -27671 31.9547 84.5783 -1424.34 -31.9547 -84.5783 -4534.08 24.9741 37.1717 -4445.81 -24.9741 -37.1717 -2999.34
131.349 526.32 3.63798e-11 -131.349 -526.32 -28795.9 36.5546 254.706 -1039.81 -36.5546 -254.706 -5889.17 31.5683 78.3018 -6003.66 -31.5683 -78.3018 -3452.23 141.025 -15.368 -3.63798e-12 -141.025 15.368 -28911.8 33.9508 75.8457 -1550.22 -33.9508 -75.8457 -4774.89 28.9173 34.4482 -5190.3 -28.9173 -34.4482 -3425.94
136.039 544.049 3.63798e-12 -136.039 -544.049 -29899.7 40.0608 263.957 -1297.75 -40.0608 -263.957 -6299.48 35.067 80.826 -6663.69 -35.067 -80.826 -3843.43 146.756 -33.097 0 -146.756 33.097 -30022.5 37.9794 66.5949 -1867.96 -37.9794 -66.5949 -5198.96 32.4655 31.924 -5846.36 -32.4655 -31.924 -3823.09
139.987 562.677 1.81899e-11 -139.987 -562.677 -30853.7 45.6002 273.724 -1752.77 -45.6002 -273.724 -6892.37 38.1576 83.1289 -7233.9 -38.1576 -83.1289 -4203.12 151.78 -51.7253 1.09139e-11 -151.78 51.7253 -30979.9 44.148 56.8277 -2389.14 -44.148 -56.8277 -5814.24 35.5819 29.6211 -6407.2 -35.5819 -29.6211 -4186.89
143.123 582.108 7.27596e-12 -143.123 -582.108 -31641.8 53.2037 283.981 -2409.44 -53.2037 -283.981 -7669.31 40.8276 85.1962 -7711.16 -40.8276 -85.1962 -4530.58 156.014 -71.1559 7.27596e-12 -156.014 71.1559 -31767.7 52.4883 46.5706 -3117.92 -52.4883 -46.5706 -6622.06 38.2451 27.5538 -6868.91 -38.2451 -27.5538 -4514.96
145.413 602.225 -2.91038e-11 -145.413 -602.225 -32255.4 62.8303 294.683 -3264.89 -62.8303 -294.683 -8625.79 43.07 87.0238 -8094.83 -43.07 -87.0238 -4824.1 159.41 -91.2728 -1.09139e-11 -159.41 91.2728 -32377.4 62.9547 35.869 -4050.81 -62.9547 -35.869 -7617.08 40.4497 25.7262 -7230.71 -40.4497 -25.7262 -4806.68
146.86 622.895 0 -146.86 -622.895 -32694 74.3656 305.767 -4308.91 -74.3656 -305.767 -9750.97 44.8852 88.6146 -8386.49 -44.8852 -88.6146 -5082.19 161.963 -111.943 3.27418e-11 -161.963 111.943 -32808.7 75.4263 24.7843 -5176.83 -75.4263 -24.7843 -8787.61 42.206 24.1354 -7494.93 -42.206 -24.1354 -5062.84
147.502 643.965 -1.45519e-11 -147.502 -643.965 -32963.7 87.6269 317.154 -5524.58 -87.6269 -317.154 -11028 46.2887 89.976 -8590.22 -46.2887 -89.976 -5305.2 163.695 -133.013 -3.63798e-12 -163.695 133.013 -33067.9 89.7147 13.3971 -6478.23 -89.7147 -13.3971 -10116.2 43.5342 22.774 -7666.61 -43.5342 -22.774 -5284.54
148.957 573.537 -7.27596e-12 -148.957 -573.537 -33028.5 91.4458 322.256 -5648.17 -91.4458 -322.256 -11636.9 48.2395 91.1764 -8924.37 -48.2395 -91.1764 -5559.16 124.744 -62.5848 4.00178e-11 -124.744 62.5848 -25360.8 45.4123 8.29593 -166.488 -45.4123 -8.29593 -8235.6 48.0259 21.5738 -8551.81 -48.0259 -21.5738 -5730.63
147.545 515.942 1.81899e-11 -147.545 -515.942 -32590.1 51.0547 301.304 -903.378 -51.0547 -301.304 -8875.71 52.1366 94.7199 -9704.44 -52.1366 -94.7199 -5947.81 60.588 -4.99017 -3.63798e-12 -60.588 4.99017 -12423.7 -14.566 29.2476 9354.99 14.566 -29.2476 -6700.4 55.0047 18.0301 -10492.9 -55.0047 -18.0301 -5853.12
139.062 513.674 -1.09139e-11 -139.062 -513.674 -30893.9 35.814 311.669 1571.99 -35.814 -311.669 -8557.47 54.5834 95.1538 -10331.5 -54.5834 -95.1538 -6051.4 48.7707 -2.72209 -3.54703e-11 -48.7707 2.72209 -10005.8 -17.6856 18.882 9853.49 17.6856 -18.882 -6611.39 54.1002 17.5962 -9960.04 -54.1002 -17.5962 -6117.81
140.453 532.681 -3.63798e-12 -140.453 -532.681 -31255.8 78.3125 325.706 -3119.07 -78.3125 -325.706 -11796.7 51.9187 95.1011 -9541.62 -51.9187 -95.1011 -6055.48 47.2891 -21.7289 1.18234e-11 -47.2891 21.7289 -9622.61 11.1705 4.8452 7226.03 -11.1705 -4.8452 -9297.72 54.0528 17.6489 -9890.39 -54.0528 -17.6489 -6174.2
140.598 561.796 1.45519e-11 -140.598 -561.796 -31394.4 127.831 345.503 -8472.19 -127.831 -345.503 -15689.8 48.9985 94.6763 -8718.9 -48.9985 -94.6763 -6014.77 50.9829 -50.8443 -9.09495e-13 -50.9829 50.8443 -10259.6 47.3911 -14.9515 3453.78 -47.3911 14.9515 -12186.7 51.4098 18.0737 -9267.68 -51.4098 -18.0737 -6014.6
134.96 578.841 3.63798e-12 -134.96 -578.841 -30323.3 144.337 355.979 -9820.28 -144.337 -355.979 -17447.4 47.9896 94.19 -8477.18 -47.9896 -94.19 -5957.92 40.9394 -67.8894 1.36424e-11 -40.9394 67.8894 -8127.23 65.9382 -25.4276 1956.49 -65.9382 25.4276 -14095.7 50.1875 18.56 -8836.88 -50.1875 -18.56 -6084.32
125.758 585.064 -2.18279e-11 -125.758 -585.064 -28477.9 147 361.317 -9537.86 -147 -361.317 -18261.2 47.5787 94.0727 -8368.7 -47.5787 -94.0727 -5944.82 24.2107 -74.1127 -4.54747e-13 -24.2107 74.1127 -4668.57 78.3712 -30.7655 1383.8 -78.3712 30.7655 -15806.6 48.4488 18.6773 -8442.68 -48.4488 -18.6773 -5963.37
120.038 597.315 -1.45519e-11 -120.038 -597.315 -27350.8 169.136 371.599 -11631.8 -169.136 -371.599 -20324.6 45.301 93.186 -7803.19 -45.301 -93.186 -5832.98 12.6051 -86.3628 3.09228e-11 -12.6051 86.3628 -2237.67 97.2578 -41.0478 -82.5476 -97.2578 41.0478 -17804.5 46.5213 19.564 -7935.14 -46.5213 -19.564 -5901.28
116.277 614.638 2.54659e-11 -116.277 -614.638 -26631.5 203.582 385.002 -15199.6 -203.582 -385.002 -23208.1 42.1307 92.054 -7005.4 -42.1307 -92.054 -5687.92 8.13611 -103.686 -2.7967e-11 -8.13611 103.686 -1251.91 126.344 -54.4506 -2864.52 -126.344 54.4506 -20361.7 43.6011 20.696 -7256.52 -43.6011 -20.696 -5716.3
111.328 631.193 -2.91038e-11 -111.328 -631.193 -25674.9 228.767 395.258 -17649.2 -228.767 -395.258 -25483.9 39.5837 90.9509 -6396.59 -39.5837 -90.9509 -5538.23 1.83201 -120.241 1.8602e-11 -1.83201 120.241 106.477 149.918 -64.7069 -4993.42 -149.918 64.7069 -22557.9 41.046 21.7991 -6636.76 -41.046 -21.7991 -5580.53
105.759 637.097 3.63798e-12 -105.759 -637.097 -24560.7 241.868 401.746 -18692.4 -241.868 -401.746 -26912.7 37.834 90.0532 -6001.07 -37.834 -90.0532 -5411.66 -7.36898 -126.145 -1.29603e-11 7.36898 126.145 2016.01 161.754 -71.1946 -5690.58 -161.754 71.1946 -24024.4 38.9002 22.6968 -6130.36 -38.9002 -22.6968 -5452.25
101.654 639.825 7.27596e-12 -101.654 -639.825 -23741.5 251.576 405.274 -19438.9 -251.576 -405.274 -28000 36.0893 89.3121 -5595.28 -36.0893 -89.3121 -5296.97 -18.2605 -128.874 1.36424e-11 18.2605 128.874 4261.09 168.611 -74.7221 -5718.13 -168.611 74.7221 -25247.4 37.4207 23.4379 -5816.73 -37.4207 -23.4379 -5328.35
99.1418 647.92 1.09139e-11 -99.1418 -647.92 -23273.5 265.412 411.273 -20690 -265.412 -411.273 -29354.7 34.0987 88.362 -5134.07 -34.0987 -88.362 -5164.27 -22.459 -136.968 2.72848e-12 22.459 136.968 5156.29 181.562 -80.7214 -6738.63 -181.562 80.7214 -26597.2 35.3253 24.388 -5336.7 -35.3253 -24.388 -5188.62
98.9193 657.59 -2.54659e-11 -98.9193 -657.59 -23288.9 280.955 416.879 -22199.5 -280.955 -416.879 -30764.5 32.094 87.4149 -4667.06 -32.094 -87.4149 -5033.32 -23.5147 -146.638 2.22826e-11 23.5147 146.638 5415.63 194.346 -86.3274 -7831.46 -194.346 86.3274 -27845.2 33.5215 25.3351 -4918.66 -33.5215 -25.3351 -5073.31
99.8585 663.685 2.18279e-11 -99.8585 -663.685 -23543.7 290.065 419.974 -22996.5 -290.065 -419.974 -31682.2 30.7214 86.734 -4354.69 -30.7214 -86.734 -4935.87 -24.2063 -152.733 -1.36424e-11 24.2063 152.733 5589.02 201.655 -89.4221 -8319.66 -201.655 89.4221 -28693.9 32.0833 26.016 -4610.11 -32.0833 -26.016 -4956.35
101.692 665.291 7.27596e-12 -101.692 -665.291 -23981.1 290.878 420.294 -22866.7 -290.878 -420.294 -31974.3 29.9818 86.2582 -4207.63 -29.9818 -86.2582 -4861.25 -25.2792 -154.339 4.54747e-12 25.2792 154.339 5825.48 201.613 -89.7426 -7990.53 -201.613 89.7426 -29010.9 31.3124 26.4918 -4443.6 -31.3124 -26.4918 -4894.83
105.134 665.524 0 -105.134 -665.524 -24754.8 288.112 419.119 -22390.1 -288.112 -419.119 -31941.3 29.5409 85.9622 -4126.51 -29.5409 -85.9622 -4809.74 -24.5515 -154.572 -5.45697e-12 24.5515 154.572 5689.81 198.397 -88.5679 -7361 -198.397 88.5679 -29047.8 30.8863 26.7878 -4373.63 -30.8863 -26.7878 -4838.68
110.548 667.017 0 -110.548 -667.017 -25946.1 285.573 417.782 -22004.5 -285.573 -417.782 -31855.9 29.1944 85.7129 -4063.11 -29.1944 -85.7129 -4768.78 -19.8115 -156.066 -5.00222e-12 19.8115 156.066 4738.97 194.612 -87.2303 -6795.91 -194.612 87.2303 -28917 30.6777 27.0371 -4346.66 -30.6777 -27.0371 -4803.96
117.536 668.218 -2.54659e-11 -117.536 -668.218 -27467.2 281.535 415.525 -21497.6 -281.535 -415.525 -31607.5 29.122 85.5861 -4061.9 -29.122 -85.5861 -4747.34 -12.5294 -157.266 -1.86446e-11 12.5294 157.266 3267.73 188.858 -84.9735 -6092.07 -188.858 84.9735 -28564.9 30.7459 27.1639 -4387.53 -30.7459 -27.1639 -4783.31
125.37 666.879 -1.45519e-11 -125.37 -666.879 -29159.1 272.84 411.48 -20488.1 -272.84 -411.48 -30988.4 29.5016 85.6322 -4173.01 -29.5016 -85.6322 -4748.07 -4.75033 -155.927 4.77485e-12 4.75033 155.927 1684.91 178.847 -80.9281 -4944.15 -178.847 80.9281 -27876.9 31.2094 27.1178 -4522.28 -31.2094 -27.1178 -4785.67
133.856 663.132 -2.54659e-11 -133.856 -663.132 -30980.1 259.757 405.812 -19010.8 -259.757 -405.812 -30015.5 30.2275 85.8214 -4371.1 -30.2275 -85.8214 -4764.79 3.14191 -152.181 -1.54898e-12 -3.14191 152.181 68.465 165.067 -75.2601 -3399.4 -165.067 75.2601 -26894.4 32.0229 26.9286 -4741.45 -32.0229 -26.9286 -4807.13
143.053 658.854 -1.45519e-11 -143.053 -658.854 -32946.1 245.137 399.547 -17394.9 -245.137 -399.547 -28892.8 31.0701 86.0584 -4597.9 -31.0701 -86.0584 -4787.48 11.7696 -147.902 -1.09139e-11 -11.7696 147.902 -1701.34 150.652 -68.9958 -1855.95 -150.652 68.9958 -25795.1 32.9448 26.6916 -4987.96 -32.9448 -26.6916 -4833.31
151.745 653.877 2.54659e-11 -151.745 -653.877 -34804.2 231.7 393.3 -15973.6 -231.7 -393.3 -27793.4 31.849 86.2735 -4809.06 -31.849 -86.2735 -4806.86 21.7992 -142.925 4.54747e-13 -21.7992 142.925 -3762.97 135.703 -62.7486 -314.784 -135.703 62.7486 -24594.9 33.9328 26.4765 -5247.77 -33.9328 -26.4765 -4865.82
160.435 647.688 3.27418e-11 -160.435 -647.688 -36654.8 217.432 386.126 -14487 -217.432 -386.126 -26601.4 32.6917 86.5226 -5034.01 -32.6917 -86.5226 -4831.28 31.705 -136.736 1.00044e-11 -31.705 136.736 -5806.76 119.086 -55.5746 1420.15 -119.086 55.5746 -23282.1 35.0525 26.2274 -5552.13 -35.0525 -26.2274 -4892.73
168.951 640.819 3.63798e-12 -168.951 -640.819 -38464.6 201.225 378.409 -12774.2 -201.225 -378.409 -25274.5 33.6201 86.7351 -5288.38 -33.6201 -86.7351 -4851.35 41.8499 -129.867 -2.00089e-11 -41.8499 129.867 -7905.32 101.813 -47.8573 3196.19 -101.813 47.8573 -21889.7 36.0967 26.0149 -5838.14 -36.0967 -26.0149 -4915.58
177.383 633.529 0 -177.383 -633.529 -40250.3 184.728 370.365 -11035.9 -184.728 -370.365 -23919.1 34.4269 86.8698 -5520.73 -34.4269 -86.8698 -4856.88 51.8405 -122.578 -9.09495e-13 -51.8405 122.578 -9977.06 84.357 -39.8134 4990.05 -84.357 39.8134 -20481.2 37.0691 25.8802 -6110.98 -37.0691 -25.8802 -4930.4
185.73 625.868 -1.45519e-11 -185.73 -625.868 -42009.5 169.354 362.356 -9432.35 -169.354 -362.356 -22638.8 34.9931 86.8911 -5699.86 -34.9931 -86.8911 -4843.72 61.496 -114.917 -3.63798e-12 -61.496 114.917 -11985 67.3566 -31.8042 6741.61 -67.3566 31.8042 -19113.2 37.8569 25.8589 -6351.43 -37.8569 -25.8589 -4922.99
193.662 618.165 -1.09139e-11 -193.662 -618.165 -43676 154.869 354.393 -7917.6 -154.869 -354.393 -21436.2 35.3215 86.7587 -5830.32 -35.3215 -86.7587 -4807.92 70.5699 -107.213 9.09495e-12 -70.5699 107.213 -13876.9 51.2134 -23.841 8409.8 -51.2134 23.841 -17818.8 38.4003 25.9913 -6539.97 -38.4003 -25.9913 -4895.15
200.891 610.753 -1.81899e-11 -200.891 -610.753 -45191.5 141.18 346.558 -6468.48 -141.18 -346.558 -20318 35.3948 86.4489 -5909.35 -35.3948 -86.4489 -4747.07 78.8996 -99.8016 1.81899e-12 -78.8996 99.8016 -15617.5 36.4722 -16.0066 9937.59 -36.4722 16.0066 -16641.6 38.5949 26.3011 -6654.42 -38.5949 -26.3011 -4838.14
207.345 603.814 2.91038e-11 -207.345 -603.814 -46541.1 129.185 339.113 -5186.88 -129.185 -339.113 -19349.3 35.1034 85.9242 -5910.75 -35.1034 -85.9242 -4654.74 86.3172 -92.862 2.18279e-11 -86.3172 92.862 -17171.1 23.6037 -8.5616 11281 -23.6037 8.5616 -15624.2 38.3998 26.8258 -6684.74 -38.3998 -26.8258 -4749.9
212.971 597.5 3.63798e-11 -212.971 -597.5 -47714.3 119.569 332.255 -4149.72 -119.569 -332.255 -18581.2 34.3725 85.1643 -5816.14 -34.3725 -85.1643 -4527.13 92.6648 -86.5481 -7.27596e-12 -92.6648 86.5481 -18504.1 13.0148 -1.70296 12403.7 -13.0148 1.70296 -14805.2 37.7707 27.5857 -6622.79 -37.7707 -27.5857 -4625.41
217.595 592.002 7.27596e-12 -217.595 -592.002 -48676.1 112.311 326.043 -3345.28 -112.311 -326.043 -18021.2 33.2005 84.1567 -5626.55 -33.2005 -84.1567 -4362.75 97.8146 -81.0506 0 -97.8146 81.0506 -19588.6 4.97691 4.50855 13277.8 -4.97691 -4.50855 -14207 36.6702 28.5933 -6458.26 -36.6702 -28.5933 -4463.86
218.88 586.665 2.18279e-11 -218.88 -586.665 -48943 108.683 320.731 -2949.09 -108.683 -320.731 -17729.4 31.5082 82.8859 -5321.73 -31.5082 -82.8859 -4158.41 101.557 -75.7134 3.45608e-11 -101.557 75.7134 -20385.3 -0.420229 9.82057 13899.6 0.420229 -9.82057 -13842.4 35.0933 29.8641 -6189.29 -35.0933 -29.8641 -4265.6
219.15 582.38 -3.63798e-11 -219.15 -582.38 -48996.6 107.859 316.157 -2831.83 -107.859 -316.157 -17682.5 29.3632 81.3737 -4915.82 -29.3632 -81.3737 -3920.13 103.846 -71.4283 2.72848e-11 -103.846 71.4283 -20879 -2.90322 14.3941 14243.8 2.90322 -14.3941 -13737 33.0373 31.3763 -5819.18 -33.0373 -31.3763 -4026.43
219.307 579.582 8.00355e-11 -219.307 -579.582 -49024.8 109.391 312.506 -2928.66 -109.391 -312.506 -17862.6 26.8035 79.6091 -4420.47 -26.8035 -79.6091 -3647.66 104.878 -68.6301 -5.45697e-12 -104.878 68.6301 -21106.8 -2.30643 18.0451 14270.7 2.30643 -18.0451 -13881.9 30.4761 33.1409 -5333.01 -30.4761 -33.1409 -3753.45
219.005 578.075 -2.18279e-11 -219.005 -578.075 -48955.4 112.883 309.597 -3195.34 -112.883 -309.597 -18239.7 23.8788 77.6368 -3847.07 -23.8788 -77.6368 -3344.53 104.443 -67.1233 -7.27596e-12 -104.443 67.1233 -21026.7 1.33974 20.9542 13991.4 -1.33974 -20.9542 -14282.7 27.4567 35.1132 -4744.85 -27.4567 -35.1132 -3446.4
217.3 577.432 -2.91038e-11 -217.3 -577.432 -48592.2 118.882 307.602 -3713.42 -118.882 -307.602 -18834.1 20.5928 75.471 -3194.66 -20.5928 -75.471 -3013.02 102.461 -66.4803 4.54747e-11 -102.461 66.4803 -20624.7 7.82825 22.9491 13423 -7.82825 -22.9491 -14918.2 24.0268 37.279 -4062.02 -24.0268 -37.279 -3112.09
214.283 577.564 -7.27596e-12 -214.283 -577.564 -47954.1 127.517 306.499 -4506.31 -127.517 -306.499 -19645.4 16.9821 73.1499 -2468.42 -16.9821 -73.1499 -2659.01 99.0386 -66.6124 2.36469e-11 -99.0386 66.6124 -19923.4 16.9737 24.0529 12587.5 -16.9737 -24.0529 -15776 20.2613 39.6001 -3303.07 -20.2613 -39.6001 -2754.01
210.112 578.341 7.27596e-12 -210.112 -578.341 -47073.5 138.416 306.246 -5536.03 -138.416 -306.246 -20642.7 13.1267 70.7141 -1685.11 -13.1267 -70.7141 -2289.68 94.3313 -67.3897 2.54659e-11 -94.3313 67.3897 -18955.3 28.3671 24.3057 11524.7 -28.3671 -24.3057 -16820.4 16.2372 42.0359 -2483.64 -16.2372 -42.0359 -2379.36
205.021 578.566 -2.91038e-11 -205.021 -578.566 -45992.5 150.796 306.581 -6719.66 -150.796 -306.581 -21762.8 9.13845 68.223 -869.298 -9.13845 -68.223 -1913.81 87.9067 -67.6147 2.00089e-11 -87.9067 67.6147 -17638.9 40.6671 23.9709 10396.5 -40.6671 -23.9709 -17965.8 12.1052 44.527 -1637.13 -12.1052 -44.527 -1999.37
199.07 578.478 1.81899e-11 -199.07 -578.478 -44727.4 163.637 307.165 -7944.97 -163.637 -307.165 -22928.1 5.1436 65.7532 -48.9489 -5.1436 -65.7532 -1541.1 79.992 -67.5267 -3.63798e-12 -79.992 67.5267 -16019.3 53.5398 23.3862 9239.06 -53.5398 -23.3862 -19187.3 7.96139 46.9968 -788.38 -7.96139 -46.9968 -1617.71
192.487 578.726 -4.36557e-11 -192.487 -578.726 -43330 177.102 308.311 -9234.45 -177.102 -308.311 -24146.5 1.19467 63.3194 763.631 -1.19467 -63.3194 -1174.9 71.5255 -67.7739 -1.81899e-12 -71.5255 67.7739 -14285 67.2152 22.2404 7988.2 -67.2152 -22.2404 -20462.4 3.83174 49.4306 66.5737 -3.83174 -49.4306 -1246.09
185.667 579.571 2.18279e-11 -185.667 -579.571 -41883.8 191.414 309.956 -10629.5 -191.414 -309.956 -25418 -2.66616 60.979 1563.71 2.66616 -60.979 -823.139 62.9693 -68.6194 -1.81899e-11 -62.9693 68.6194 -12529 81.6273 20.5951 6647.71 -81.6273 -20.5951 -21782.7 -0.176805 51.771 899.847 0.176805 -51.771 -888.438
178.793 580.882 0 -178.793 -580.882 -40427.5 205.934 312.021 -12060.7 -205.934 -312.021 -26693 -6.32369 58.7836 2325.37 6.32369 -58.7836 -494.111 54.6414 -69.9303 -4.54747e-12 -54.6414 69.9303 -10817.5 96.2352 18.5301 5264.87 -96.2352 -18.5301 -23095.6 -3.97954 53.9664 1694.8 3.97954 -53.9664 -553.345
172.041 582.165 -4.72937e-11 -172.041 -582.165 -38996.7 219.608 314.191 -13412.8 -219.608 -314.191 -27890.1 -9.64064 56.806 3018.04 9.64064 -56.806 -198.006 46.4922 -71.2131 -2.72848e-12 -46.4922 71.2131 -9143.12 110.075 16.3606 3949.41 -110.075 -16.3606 -24333.2 -7.43888 55.944 2421.28 7.43888 -55.944 -251.576
165.62 583.338 -2.54659e-11 -165.62 -583.338 -37635.2 231.758 316.454 -14617.6 -231.758 -316.454 -28951.4 -12.3924 55.2367 3608.78 12.3924 -55.2367 31.3875 38.7031 -72.3866 1.09139e-11 -38.7031 72.3866 -7543.22 122.517 14.0974 2765.73 -122.517 -14.0974 -25443.9 -10.3509 57.5133 3047.13 10.3509 -57.5133 -11.5322
159.743 584.383 0 -159.743 -584.383 -36388 242.354 318.625 -15675.7 -242.354 -318.625 -29870.2 -14.6944 53.9348 4103.36 14.6944 -53.9348 222.67 31.7173 -73.431 -4.54747e-12 -31.7173 73.431 -6108.75 133.434 11.9261 1714.39 -133.434 -11.9261 -26404.8 -12.7589 58.8152 3570.05 12.7589 -58.8152 181.649
154.575 585.351 -7.27596e-12 -154.575 -585.351 -35289.6 251.304 320.653 -16584.8 -251.304 -320.653 -30631 -16.472 52.9365 4490.12 16.472 -52.9365 365.379 25.8574 -74.3996 -1.40972e-11 -25.8574 74.3996 -4905.49 142.78 9.89826 791.998 -142.78 -9.89826 -27204.6 -14.6633 59.8135 3982.6 14.6633 -59.8135 335.435
150.157 585.886 3.63798e-12 -150.157 -585.886 -34346.5 258.271 322.459 -17309.5 -258.271 -322.459 -31206.4 -17.6909 52.2642 4756.7 17.6909 -52.2642 461.675 21.1084 -74.9343 1.40972e-11 -21.1084 74.9343 -3932.21 150.104 8.09301 42.3656 -150.104 -8.09301 -27803.7 -15.9656 60.4858 4269.72 15.9656 -60.4858 435.495
146.468 585.471 -2.54659e-11 -146.468 -585.471 -33551.5 262.697 323.802 -17790.8 -262.697 -323.802 -31550.9 -18.2906 51.9544 4889.46 18.2906 -51.9544 507.313 17.1038 -74.5193 1.36424e-12 -17.1038 74.5193 -3116.42 154.748 6.74994 -453.08 -154.748 -6.74994 -28163 -16.6059 60.7956 4414.21 16.6059 -60.7956 481.274
143.426 583.943 -1.09139e-11 -143.426 -583.943 -32886.3 264.343 324.684 -18003.3 -264.343 -324.684 -31645.3 -18.2266 52.0299 4880.58 18.2266 -52.0299 496.905 13.903 -72.9916 1.00044e-11 -13.903 72.9916 -2471.05 156.716 5.86796 -703.008 -156.716 -5.86796 -28274.2 -16.5738 60.7201 4415.05 16.5738 -60.7201 470.653
141.028 581.204 3.63798e-11 -141.028 -581.204 -32349.4 263.388 325.152 -17972 -263.388 -325.152 -31498 -17.4835 52.5076 4731.57 17.4835 -52.5076 424.35 11.4227 -70.2524 1.59162e-12 -11.4227 70.2524 -1979.43 155.906 5.39933 -697.058 -155.906 -5.39933 -28129.1 -15.8193 60.2424 4265.65 15.8193 -60.2424 395.409
139.244 577.295 -1.09139e-11 -139.244 -577.295 -31934.1 259.934 325.201 -17709.9 -259.934 -325.201 -31114.6 -16.0734 53.3871 4445.48 16.0734 -53.3871 290.12 9.62743 -66.3437 -8.6402e-12 -9.62743 66.3437 -1634.02 152.43 5.35096 -447.517 -152.43 -5.35096 -27736 -14.3736 59.3629 3969.61 14.3736 -59.3629 261.201
137.953 572.548 2.91038e-11 -137.953 -572.548 -31616.9 253.966 324.883 -17211.4 -253.966 -324.883 -30498.3 -14.0157 54.6458 4024.14 14.0157 -54.6458 98.1943 8.69096 -61.5962 -1.25056e-11 -8.69096 61.5962 -1468.73 146.724 5.66839 -11.9481 -146.724 -5.66839 -27117.9 -12.285 58.1042 3540.57 12.285 -58.1042 68.9036
137.028 567.961 -3.63798e-12 -137.028 -567.961 -31376.6 245.943 324.303 -16525.4 -245.943 -324.303 -29685.8 -11.4021 56.2242 3483.71 11.4021 -56.2242 -140.503 8.95011 -57.0089 -1.3415e-11 -8.95011 57.0089 -1547.64 139.555 6.2486 515.149 -139.555 -6.2486 -26321.3 -9.64971 56.5258 2997.9 9.64971 -56.5258 -172.261
136.468 563.952 -1.09139e-11 -136.468 -563.952 -31213.8 236.83 323.771 -15760.1 -236.83 -323.771 -28749.2 -8.36212 58.0454 2851.06 8.36212 -58.0454 -414.372 10.8392 -53.0001 -2.50111e-12 -10.8392 53.0001 -1957.89 131.806 6.78064 1021.92 -131.806 -6.78064 -25397.2 -6.60555 54.7046 2369.65 6.60555 -54.7046 -449.328
136.323 559.859 -2.91038e-11 -136.323 -559.859 -31135.3 226.739 323.187 -14927.4 -226.739 -323.187 -27696.6 -4.91291 60.1205 2134.8 4.91291 -60.1205 -727.008 13.7402 -48.9073 2.77396e-11 -13.7402 48.9073 -2576.02 122.959 7.36436 1592.06 -122.959 -7.36436 -24333.4 -3.09883 52.6295 1646.24 3.09883 -52.6295 -768.466
136.465 555.08 7.27596e-12 -136.465 -555.08 -31112.9 214.855 322.258 -13924 -214.855 -322.258 -26480.1 -1.04252 62.4405 1328.77 1.04252 -62.4405 -1075.81 17.0583 -44.1281 -6.36646e-12 -17.0583 44.1281 -3282.91 112.47 8.29336 2308.53 -112.47 -8.29336 -23113.2 0.825594 50.3095 833.044 -0.825594 -50.3095 -1121.54
136.83 549.561 2.18279e-11 -136.83 -549.561 -31134.5 201.047 320.932 -12725.6 -201.047 -320.932 -25099.7 3.19928 64.9585 441.751 -3.19928 -64.9585 -1454.75 20.6333 -38.6097 3.63798e-12 -20.6333 38.6097 -4045.89 100.356 9.61932 3177.95 -100.356 -9.61932 -21746.4 5.10638 47.7915 -54.601 -5.10638 -47.7915 -1505.56
137.471 543.707 -3.63798e-11 -137.471 -543.707 -31212.3 186.168 319.39 -11426.1 -186.168 -319.39 -23620.7 7.68337 67.6197 -496.648 -7.68337 -67.6197 -1855.09 24.6388 -32.7558 -3.18323e-12 -24.6388 32.7558 -4898.53 87.2462 11.1619 4134.42 -87.2462 -11.1619 -20282.7 9.63879 45.1303 -995.537 -9.63879 -45.1303 -1910.49
138.392 537.923 -3.63798e-12 -138.392 -537.923 -31349.4 171.035 317.833 -10112.9 -171.035 -317.833 -22108.2 12.285 70.361 -1458.95 -12.285 -70.361 -2267.19 29.2036 -26.9708 -2.45564e-11 -29.2036 26.9708 -5865.32 73.7686 12.7184 5110.41 -73.7686 -12.7184 -18770.4 14.3169 42.389 -1966.23 -14.3169 -42.389 -2328.37
139.474 532.345 -7.27596e-12 -139.474 -532.345 -31521.6 155.822 316.278 -8796.39 -155.822 -316.278 -20584 16.928 73.1318 -2430.15 -16.928 -73.1318 -2683.33 34.1606 -21.3938 1.09139e-11 -34.1606 21.3938 -6911.34 60.2579 14.2736 6078.12 -60.2579 -14.2736 -17243.4 19.0435 39.6182 -2946.31 -19.0435 -39.6182 -2750.64
140.556 526.698 1.45519e-11 -140.556 -526.698 -31694.4 140.52 314.662 -7466.67 -140.52 -314.662 -19056.9 21.547 75.883 -3397.68 -21.547 -75.883 -3096.49 39.0432 -15.7461 -5.45697e-12 -39.0432 15.7461 -7942.19 46.663 15.8897 7059.56 -46.663 -15.8897 -15714.4 23.7434 36.867 -3920.34 -23.7434 -36.867 -3170.46
141.508 520.993 1.81899e-11 -141.508 -520.993 -31840.4 125.402 312.993 -6148.13 -125.402 -312.993 -17553.3 26.0537 78.5648 -4342.44 -26.0537 -78.5648 -3499.33 43.6171 -10.0418 -9.09495e-13 -43.6171 10.0418 -8909.69 33.3092 17.559 8030.25 -33.3092 -17.559 -14219 28.3229 34.1852 -4870.1 -28.3229 -34.1852 -3578.28
142.244 515.543 2.18279e-11 -142.244 -515.543 -31943.2 111.076 311.436 -4903.03 -111.076 -311.436 -16124 30.3388 81.1147 -5240.81 -30.3388 -81.1147 -3882.78 47.8991 -4.59165 -8.18545e-12 -47.8991 4.59165 -9815.78 20.7485 19.1156 8930.89 -20.7485 -19.1156 -12799.7 32.674 31.6353 -5771.13 -32.674 -31.6353 -3966.62
142.718 510.492 -1.81899e-11 -142.718 -510.492 -31993.4 98.0461 310.083 -3782.94 -98.0461 -310.083 -14811.7 34.3055 83.4818 -6071.7 -34.3055 -83.4818 -4238.95 51.8168 0.460117 -2.91038e-11 -51.8168 -0.460117 -10644.9 9.37875 20.4681 9724.84 -9.37875 -20.4681 -11493.3 36.7061 29.2682 -6604.83 -36.7061 -29.2682 -4327.35
