0 0 0
0 0 0
0 0 0
0 0 0
0 0 0
0 0 0
0 0 0
0 0 0
0 0 0
0 0 0
0 0 0
0 0 0
0 0 0
0 0 0
0 0 0
0 0 0
0 0 0
0 0 0
0 0 0
0 0 0
0 0 0
0 0 0
0 0 0
0 0 0
0 0 0
0 0 0
0 0 0
0 0 0
0 0 0
0 0 0
0 0 0
0 0 0
0 0 0
0 0 0
0 0 0
0 0 0
0 0 0
0 0 0
0 0 0
0 0 0
0 0 0
0 0 0
0 0 0
0 0 0
0 0 0
0 0 0
0 0 0
0 0 0
0 0 0
0 0 0
0 0 0
0 0 0
0 0 0
0 0 0
0 0 0
0 0 0
0 0 0
0 0 0
0 0 0
0 0 0
0 0 0
0 0 0
0 0 0
0 0 0
0 0 0
0 0 0
0 0 0
0 0 0
0 0 0
0 0 0
0 0 0
0 0 0
0 0 0
0 0 0
0 0 0
0 0 0
0 0 0
0 0 0
0 0 0
0 0 0
0 0 0
0 0 0
0 0 0
0 0 0
0 0 0
0 0 0
0 0 0
0 0 0
0 0 0
0 0 0
0 0 0
0 0 0
0 0 0
0 0 0
0 0 0
0 0 0
0 0 0
0 0 0
0 0 0
0 0 0
0 0 0
0 0 0
0 0 0
0 0 0
0 0 0
0 0 0
0 0 0
0 0 0
0 0 0
0 0 0
0 0 0
0 0 0
0 0 0
0 0 0
0 0 0
0 0 0
0 0 0
0 0 0
0 0 0
0 0 0
0 0 0
0 0 0
0 0 0
0 0 0
0 0 0
0 0 0
0 0 0
0.00548147 0 0
0.0138851 0 0
0.024128 0 0
0.03581 0 0
0.0488405 0 0
0.0626848 0 0
0.0770945 0 0
0.0916207 0 0
0.10589 0 0
0.112829 0 0
0.117321 0 0
0.121542 0.00624844 0
0.123178 0.0122181 0
0.126011 0.0177949 0
0.129077 0.0218436 0
0.130404 0.0249565 0
0.131438 0.0269021 0
0.132313 0.0274306 0
0.13214 0.0266478 0
0.131394 0.024844 0
0.130218 0.0220785 0
0.127793 0.018291 0
0.12463 0.0136686 0
0.121047 0.00842324 0
0.117348 0.00619604 0
0.114021 0.00619604 0
0.109941 0.00619604 0
0.102706 0.00619604 0
0.0947278 0.00619604 0
0.0888362 0.00619604 0
0.0848857 0.00619604 0
0.0819895 0.00619604 0
0.0810366 0.00619604 0
0.0823033 0.00619604 0
0.0854665 0.00619604 0
0.090198 0.00619604 0
0.0955831 0.00619604 0
0.101133 0.00619604 0
0.106611 0.00619604 0
0.111586 0.00619604 0
0.115578 0.00619604 0
0.118284 0.00619604 0
0.119449 0.00619604 0
0.119205 0.00619604 0
0.118032 0.00619604 0
0.115913 0.00619604 0
0.112833 0.00619604 0
0.108798 0.00619604 0
0.103835 0.00619604 0
0.0979759 0.00619604 0
0.0912525 0.00619604 0
0.08369 0.00619604 0
0.0753057 0.00619604 0
0.0661114 0.00619604 0
0.0561306 0.00619604 0
0.0454198 0.00619604 0
0.0369665 0.00619604 0
0.0369665 0.00619604 0
0.0369665 0.00619604 0
0.0369665 0.00619604 0
0.0369665 0.00619604 0
0.0369665 0.00619604 0
0.0369665 0.00619604 0
0.0369665 0.00619604 0
0.0369665 0.00619604 0
0.0369665 0.00619604 0
0.0369665 0.00619604 0
0.0369665 0.00619604 0
0.0369665 0.00619604 0
0.0369665 0.00619604 0
0.0369665 0.00619604 0
0.0369665 0.00619604 0
0.0369665 0.00619604 0
0.0369665 0.00619604 0
0.0369665 0.00619604 0
0.0369665 0.00619604 0
0.0369665 0.00619604 0
0.0369665 0.00619604 0
0.0369665 0.00619604 0
0.0369665 0.00619604 0
0.0369665 0.00619604 0
0.0369665 0.00619604 0
0.0369665 0.00619604 0
0.0369665 0.00619604 0
0.0369665 0.00619604 0
0.0369665 0.00619604 0
0.0369665 0.00619604 0
0.0369665 0.00619604 0
0.0369665 0.00619604 0
0.0346378 0.00619604 0
0.0346378 0.00619604 0
0.0346378 0.00619604 0
0.0346378 0.00619604 0
0.0346378 0.00619604 0
0.0346378 0.00619604 0
0.0346378 0.00619604 0
0.0346378 0.00619604 0
0.0346378 0.00619604 0
0.0346378 0.00619604 0
0.0346378 0.00619604 0
0.0346378 0.00619604 0
0.0346378 0.00619604 0
0.0346378 0.00619604 0
0.0346378 0.00619604 0
0.0346378 0.00550522 0
0.0343262 0.00550522 0
0.0341676 0.00550522 0
0.0341676 0.00549634 0
0.0341676 0.00549634 0
0.0341676 0.00549634 0
0.0341662 0.00549634 0
0.0341662 0.00549634 0
0.0341662 0.00549634 0
0.0341662 0.00549634 0
0.0341662 0.00549634 0
0.0341662 0.00549634 0
0.0341662 0.00549634 0
0.0341662 0.00549634 0
0.0341662 0.00549634 0
0.0341662 0.00549634 0
0.0341662 0.00549634 0
0.0341662 0.00549634 0
0.0341662 0.00549634 0
0.0341662 0.00549634 0
0.0341662 0.00549634 0
0.0341662 0.00549634 0
0.0341662 0.00549634 0
0.0341662 0.00549634 0
0.0341662 0.00549634 0
0.0341662 0.00549634 0
0.0341662 0.00549634 0
0.0341662 0.00549634 0
0.0341662 0.00549634 0
0.0341662 0.00549634 0
0.034165 0.00549634 0
0.034165 0.00549634 0
0.034165 0.00549634 0
0.034165 0.00549634 0
0.034165 0.00549634 0
0.034165 0.00549634 0
0.034165 0.00549634 0
0.034165 0.00549634 0
0.034165 0.00549634 0
0.034165 0.00549634 0
0.034165 0.00549634 0
0.034165 0.00549634 0
0.034165 0.00549634 0
0.034165 0.00549634 0
0.034165 0.00549634 0
0.034165 0.00549634 0
0.034165 0.00549634 0
0.034165 0.00549634 0
0.034165 0.00549634 0
0.034165 0.00549634 0
0.034165 0.00549634 0
0.034165 0.00549634 0
0.034165 0.00549634 0
0.034165 0.00549634 0
0.034165 0.00549634 0
0.034165 0.00549634 0
0.034165 0.00549634 0
0.034165 0.00549634 0
0.034165 0.00549634 0
0.034165 0.00549634 0
0.034165 0.00549634 0
0.034165 0.00549634 0
0.034165 0.00549634 0
0.034165 0.00549634 0
0.034165 0.00549634 0
0.034165 0.00549634 0
0.034165 0.00549634 0
0.034165 0.00549634 0
0.034165 0.00549634 0
0.034165 0.00549634 0
0.034165 0.00549634 0
0.034165 0.00549634 0
0.034165 0.00549634 0
0.034165 0.00549634 0
0.034165 0.00549634 0
0.034165 0.00549634 0
0.034165 0.00549634 0
0.034165 0.00549634 0
0.034165 0.00549634 0
0.034165 0.00549634 0
0.034165 0.00549634 0
0.034165 0.00549634 0
0.034165 0.00549634 0
0.034165 0.00549634 0
0.034165 0.00549634 0
0.034165 0.00549634 0
0.034165 0.00549634 0
0.0360024 0.00549634 0
0.0435669 0.00549634 0
0.0514264 0.00549634 0
0.0595095 0.00549634 0
0.0615557 0.00549634 0
0.111985 0.00549634 0
0.149231 0.00549634 0
0.110075 0.00549634 0
0.101351 0.00549634 0
0.130933 0.00549634 0
0.164795 0.00549634 0
0.165485 0.00549634 0
0.155321 0.0141659 0
0.163152 0.0198348 0
0.176691 0.0239788 0
0.188057 0.0274754 0
0.190953 0.0325384 0
0.189353 0.0358795 0
0.192452 0.037333 0
0.200267 0.0375544 0
0.205957 0.0374308 0
0.206537 0.0370058 0
0.205767 0.0356075 0
0.207238 0.0332021 0
0.210119 0.0302546 0
0.211495 0.0271997 0
0.209379 0.0239619 0
0.207476 0.0200331 0
0.207339 0.015958 0
0.206738 0.0128735 0
0.204797 0.0128735 0
0.20323 0.0128735 0
0.202575 0.0128735 0
0.201951 0.0128735 0
0.201115 0.0128735 0
0.20074 0.0128735 0
0.200276 0.0128735 0
0.200019 0.0128735 0
0.200557 0.0128735 0
0.202088 0.0128735 0
0.204026 0.0128735 0
0.205799 0.0128735 0
0.207436 0.0128735 0
0.208727 0.0128735 0
0.211084 0.0128735 0
0.21347 0.0128735 0
0.215021 0.0128735 0
0.21611 0.0128735 0
0.217367 0.0128735 0
0.218722 0.0128735 0
0.219676 0.0128735 0
0.219884 0.0128735 0
0.219373 0.0128735 0
0.218545 0.0128735 0
0.217309 0.0128735 0
0.215181 0.0128735 0
0.212213 0.0128735 0
0.208966 0.0128735 0
0.205728 0.0128735 0
0.201397 0.0128735 0
0.195862 0.0128735 0
0.190482 0.0128735 0
0.18549 0.0128735 0
0.180143 0.0128735 0
0.174175 0.0128735 0
0.168119 0.0128735 0
0.16234 0.0128735 0
0.15692 0.0128735 0
0.151661 0.0128735 0
0.146434 0.0128735 0
0.141543 0.0128735 0
0.137264 0.0128735 0
0.13359 0.0128735 0
0.132751 0.0128735 0
0.132751 0.0128735 0
0.132751 0.0128735 0
0.132751 0.0128735 0
0.132751 0.0128735 0
0.132751 0.0128735 0
0.132751 0.0128735 0
0.132751 0.0128735 0
0.132751 0.0128735 0
0.132751 0.0128735 0
0.132751 0.0128735 0
0.132751 0.0128735 0
0.132751 0.0128735 0
0.132751 0.0128735 0
0.132751 0.0128735 0
0.132751 0.0128735 0
0.132751 0.0128735 0
0.132751 0.0128735 0
0.132751 0.0128735 0
0.132751 0.0128735 0
0.132751 0.0128735 0
0.132751 0.0128735 0
0.132751 0.0128735 0
0.132751 0.0128735 0
0.132751 0.0128735 0
0.132751 0.0128735 0
0.132751 0.0128735 0
0.132751 0.0128735 0
0.132751 0.0128735 0
0.132751 0.0128735 0
0.132751 0.0128735 0
0.132751 0.0128735 0
0.132751 0.0128735 0
0.132751 0.0128735 0
0.132751 0.0128735 0
0.132751 0.0128735 0
0.132751 0.0128735 0
0.132751 0.0128735 0
0.132751 0.0128735 0
0.132751 0.0128735 0
0.132751 0.0128735 0
0.132751 0.0128735 0
0.132751 0.0128735 0
0.132751 0.0128735 0
0.132751 0.0128735 0
0.132751 0.0128735 0
0.132751 0.0128735 0
0.132751 0.0128735 0
0.132751 0.0128735 0
0.132751 0.0128735 0
0.132751 0.0128735 0
0.132751 0.0128735 0
0.132751 0.0128735 0
0.132751 0.0128735 0
0.132751 0.0128735 0
0.132751 0.0128735 0
0.132751 0.0128735 0
0.127629 0.0128735 0
0.12154 0.0128735 0
0.114524 0.0128735 0
0.106541 0.0128735 0
0.0975897 0.0128735 0
0.0877344 0.0128735 0
0.0877344 0.0128735 0
0.0877344 0.0128735 0
0.0877344 0.0128735 0
0.0877344 0.0128735 0
0.0877344 0.0128735 0
0.0877344 0.0128735 0
0.0877344 0.0128735 0
0.0877344 0.0128735 0
0.0870457 0.0128735 0
0.0870457 0.0128735 0
0.0870457 0.0128735 0
0.0870457 0.0128735 0
0.0869639 0.0128735 0
0.0868261 0.0119117 0
0.0868261 0.0119117 0
0.0868261 0.0119117 0
0.0868261 0.0119117 0
0.0868261 0.0119117 0
0.0867224 0.0119117 0
0.0867224 0.0119117 0
0.0867224 0.0119117 0
0.0867224 0.0119117 0
0.0867224 0.0119117 0
0.0867224 0.0119117 0
0.0867224 0.0119117 0
0.0867224 0.0119117 0
0.0867224 0.0119117 0
0.0867224 0.0119117 0
0.0867224 0.0119117 0
0.0867224 0.0119117 0
0.0867224 0.0119117 0
0.0867224 0.0119117 0
0.0867224 0.0119117 0
0.0867224 0.0119117 0
0.0867224 0.0119116 0
0.0867224 0.0119116 0
0.0867224 0.0119116 0
0.0867224 0.0119116 0
0.0867224 0.0119116 0
0.0867224 0.0119116 0
0.0867224 0.0119116 0
0.0867224 0.0119116 0
0.0867224 0.0119116 0
0.0867224 0.0119116 0
0.0867224 0.0119116 0
0.0867224 0.0119116 0
0.0867224 0.0119116 0
0.0867224 0.0119116 0
0.0867224 0.0119116 0
0.0867224 0.0119116 0
0.0867224 0.0119116 0
0.0867224 0.0119116 0
0.0867224 0.0119116 0
0.0867224 0.0119116 0
0.0867224 0.0119116 0
0.0867224 0.0119116 0
0.0867224 0.0119116 0
0.0867224 0.0119116 0
0.0867224 0.0119116 0
0.0867224 0.0119116 0
0.0867224 0.0119116 0
0.0867224 0.0119116 0
0.0867224 0.0119116 0
0.0867224 0.0119116 0
0.0867224 0.0119116 0
0.0867224 0.0119116 0
0.0867224 0.0119116 0
0.0867224 0.0119116 0
0.0867224 0.0119116 0
0.0867224 0.0119116 0
0.0867224 0.0119116 0
0.0867224 0.0119116 0
0.0867224 0.0119116 0
0.0867224 0.0119116 0
0.0867224 0.0119116 0
0.0867224 0.0119116 0
0.0867224 0.0119116 0
0.0867224 0.0119116 0
0.0867224 0.0119116 0
0.0867224 0.0119116 0
0.0867224 0.0119116 0
0.0867224 0.0119116 0
0.0867224 0.0119116 0
0.0867224 0.0119116 0
0.0867224 0.0119116 0
0.0867224 0.0119116 0
0.0867224 0.0119116 0
0.0867224 0.0119116 0
0.0867224 0.0119116 0
0.0867224 0.0119116 0
0.0867224 0.0119116 0
0.0867224 0.0119116 0
0.0867224 0.0119116 0
0.0867224 0.0119116 0
0.0867224 0.0119116 0
0.0867224 0.0119116 0
0.0867224 0.0119116 0
0.0867224 0.0119116 0
0.0867224 0.0119116 0
0.0867224 0.0119116 0
0.0867224 0.0119116 0
0.0867224 0.0119116 0
0.0867224 0.0119116 0
0.0867224 0.0119116 0
0.0867224 0.0119116 0
0.0867224 0.0119116 0
0.0867224 0.0119116 0
0.0867224 0.0119116 0
0.0867224 0.0119116 0
0.0867224 0.0119116 0
0.0867224 0.0119116 0
0.0867224 0.0119116 0
0.0867224 0.0119116 0
0.0867224 0.0119116 0
0.0867224 0.0119116 0
0.0867224 0.0119116 0
0.0867224 0.0119116 0
0.0896636 0.0119116 0
0.0925331 0.0119116 0
0.0949691 0.0119116 0
0.0969838 0.0119116 0
0.0991387 0.0119116 0
0.101368 0.0119116 0
0.103568 0.0119116 0
0.105677 0.0119116 0
0.107789 0.0119116 0
0.110125 0.0119116 0
0.11276 0.0119116 0
0.115662 0.0119116 0
0.118744 0.0119116 0
0.122095 0.0119116 0
0.125596 0.0119116 0
0.129544 0.0119116 0
0.134135 0.0119116 0
0.138851 0.0119116 0
0.143524 0.0119116 0
0.148458 0.0119116 0
0.153839 0.0119116 0
0.159186 0.0119116 0
0.164406 0.0119116 0
0.169554 0.0119116 0
0.174639 0.0119116 0
0.179592 0.0119116 0
0.184329 0.0119116 0
0.188824 0.01328 0
0.193083 0.0185962 0
0.197069 0.0235826 0
0.200711 0.0281608 0
0.203947 0.0322602 0
0.206749 0.0358252 0
0.209109 0.0387855 0
0.211 0.0410979 0
0.211078 0.0427132 0
0.211012 0.0437007 0
0.210759 0.0440658 0
0.210235 0.0439584 0
0.209361 0.0434356 0
0.208442 0.0424736 0
0.207282 0.0411443 0
0.205677 0.0394888 0
0.203667 0.0375848 0
0.201067 0.0355519 0
0.198515 0.0333974 0
0.19599 0.0313113 0
0.193393 0.0292927 0
0.190718 0.027369 0
0.1883 0.0255384 0
0.186283 0.0238164 0
0.18453 0.0222353 0
0.182748 0.0208326 0
0.180951 0.0196209 0
0.179296 0.0190845 0
0.177775 0.0190845 0
0.176232 0.0190845 0
0.174542 0.0190845 0
0.172719 0.0190845 0
0.170821 0.0190845 0
0.168833 0.0190845 0
0.166682 0.0190845 0
0.164284 0.0190845 0
0.161631 0.0190845 0
0.158711 0.0190845 0
0.155473 0.0190845 0
0.151859 0.0190845 0
0.147794 0.0190845 0
0.143334 0.0190845 0
0.138607 0.0190845 0
0.133225 0.0190845 0
0.127294 0.0190845 0
0.120974 0.0190845 0
0.114365 0.0190845 0
0.112666 0.0190845 0
0.112666 0.0190845 0
0.112666 0.0190845 0
0.112666 0.0190845 0
0.112666 0.0190845 0
0.112666 0.0190845 0
0.112666 0.0190845 0
0.112666 0.0190845 0
0.112666 0.0190845 0
0.112666 0.0190845 0
0.112666 0.0190845 0
0.112666 0.0190845 0
0.112666 0.0190845 0
0.112666 0.0190845 0
0.112666 0.0190845 0
0.112666 0.0190845 0
0.112666 0.0190845 0
0.112666 0.0190845 0
0.112666 0.0190845 0
0.112666 0.0190845 0
0.112666 0.0190845 0
0.112666 0.0190845 0
0.112666 0.0190845 0
0.112666 0.0190845 0
0.112666 0.0190845 0
0.112666 0.0190845 0
0.112666 0.0190845 0
0.112666 0.0190845 0
0.112666 0.0190845 0
0.112666 0.0190845 0
0.112666 0.0190845 0
0.112666 0.0190845 0
0.112666 0.0190845 0
0.112666 0.0190845 0
0.112666 0.0190845 0
0.112666 0.0190845 0
0.112666 0.0190845 0
0.112666 0.0190845 0
0.112666 0.0190845 0
0.112666 0.0190845 0
0.112666 0.0190845 0
0.112666 0.0190845 0
0.111853 0.0190845 0
0.111853 0.0190845 0
0.111853 0.0190845 0
0.111853 0.0190845 0
0.111853 0.0190845 0
0.111853 0.0190845 0
0.111853 0.0190845 0
0.111853 0.0190845 0
0.111853 0.0190845 0
0.111853 0.0190845 0
0.111853 0.0190845 0
0.111853 0.0190845 0
0.111853 0.0190845 0
0.111853 0.0190845 0
0.111853 0.0190845 0
0.111853 0.0183513 0
0.111853 0.0183513 0
0.111853 0.0183513 0
0.111853 0.0183513 0
0.111853 0.0183513 0
0.111853 0.0183513 0
0.111853 0.0183513 0
0.111853 0.0183513 0
0.111853 0.0183513 0
0.111853 0.0183513 0
0.111853 0.0183513 0
0.111853 0.0183513 0
0.111853 0.0183513 0
0.111853 0.0183513 0
0.111853 0.0183513 0
0.111853 0.0183513 0
0.111853 0.0183513 0
0.111853 0.0183513 0
0.111853 0.0183513 0
0.111853 0.0183513 0
0.111853 0.0183513 0
0.111853 0.0183513 0
0.111853 0.0183513 0
0.111853 0.0183513 0
0.111853 0.0183513 0
0.111853 0.0183513 0
0.111853 0.0183513 0
0.111853 0.0183513 0
0.111853 0.0183513 0
0.111853 0.0183513 0
0.111853 0.0183513 0
0.111853 0.0183513 0
0.111853 0.0183513 0
0.111853 0.0183513 0
0.111853 0.0183513 0
0.111853 0.0183513 0
0.111853 0.0183513 0
0.111853 0.0183513 0
0.111853 0.0183513 0
0.111853 0.0183513 0
0.111853 0.0183513 0
0.111853 0.0183513 0
0.111853 0.0183513 0
0.111853 0.0183513 0
0.111853 0.0183513 0
0.111853 0.0183513 0
0.111853 0.0183513 0
0.111853 0.0183513 0
0.111853 0.0183513 0
0.111853 0.0183513 0
0.111853 0.0183513 0
0.111853 0.0183513 0
0.111853 0.0183513 0
0.111853 0.0183513 0
0.111853 0.0183513 0
0.111853 0.0183513 0
0.111853 0.0183513 0
0.111853 0.0183513 0
0.111853 0.0183513 0
0.111853 0.0183513 0
0.111853 0.0183513 0
0.111853 0.0183513 0
0.111853 0.0183513 0
0.111853 0.0183513 0
0.111853 0.0183513 0
0.111853 0.0183513 0
0.111853 0.0183513 0
0.111853 0.0183513 0
0.111853 0.0183513 0
0.111853 0.0183513 0
0.111853 0.0183513 0
0.111853 0.0183513 0
0.111853 0.0183513 0
0.111853 0.0183513 0
0.111853 0.0183513 0
0.111853 0.0183513 0
0.111853 0.0183513 0
0.111853 0.0183513 0
0.111853 0.0183513 0
0.111853 0.0183513 0
0.111853 0.0183513 0
0.111853 0.0183513 0
0.111853 0.0183513 0
0.111853 0.0183513 0
0.111853 0.0183513 0
0.111853 0.0183513 0
0.111853 0.0183513 0
0.111853 0.0183513 0
0.111853 0.0183513 0
0.111853 0.0183513 0
0.111853 0.0183513 0
0.111853 0.0183513 0
0.111853 0.0183513 0
0.111853 0.0183513 0
0.111853 0.0183513 0
0.111853 0.0183513 0
0.111853 0.0183513 0
0.111853 0.0183513 0
0.111853 0.0183513 0
0.111853 0.0183513 0
0.111853 0.0183513 0
0.111853 0.0183513 0
0.111853 0.0183513 0
0.111853 0.0183513 0
0.111853 0.0183513 0
0.111853 0.0183513 0
0.111853 0.0183513 0
0.111853 0.0183513 0
0.111853 0.0183513 0
0.111853 0.0183513 0
0.111853 0.0183513 0
0.111853 0.0183513 0
0.111853 0.0183513 0
0.111853 0.0183513 0
0.111853 0.0183513 0
0.111853 0.0183513 0
0.111853 0.0183513 0
0.111853 0.0183513 0
0.111853 0.0183513 0
0.111853 0.0183513 0
0.111853 0.0183513 0
0.111853 0.0183513 0
0.119882 0.0183513 0
0.136574 0.0183513 0
0.152645 0.0183513 0
0.164849 0.0183513 0
0.177067 0.0183513 0
0.192663 0.0183513 0
0.208376 0.0183513 0
0.220969 0.0183513 0
0.232004 0.0183513 0
0.243591 0.0183513 0
0.254254 0.0183513 0
0.262647 0.0183513 0
0.26983 0.0183513 0
0.27661 0.0183513 0
0.282205 0.0183513 0
0.286209 0.0183513 0
0.289288 0.0183513 0
0.291644 0.0183513 0
0.293227 0.0183513 0
0.294025 0.0183513 0
0.294341 0.0183513 0
0.294526 0.0183513 0
0.294714 0.0183513 0
0.2946 0.0183513 0
0.294816 0.0183513 0
0.295337 0.0183513 0
0.29575 0.0183513 0
0.296445 0.0183513 0
0.29748 0.0183513 0
0.29838 0.0183513 0
0.299678 0.0183513 0
0.301708 0.0183513 0
0.303463 0.0183513 0
0.304778 0.0183513 0
0.306217 0.0183513 0
0.307667 0.0183513 0
0.308081 0.0183513 0
0.307186 0.0183513 0
0.305624 0.0183513 0
0.303071 0.0183513 0
0.299038 0.0183513 0
0.294233 0.0183513 0
0.289271 0.0183513 0
0.283102 0.0183513 0
0.275743 0.0183513 0
0.268487 0.0183513 0
0.261176 0.0183513 0
0.253145 0.0183513 0
0.245037 0.0183513 0
0.237665 0.0183513 0
0.230394 0.0183513 0
0.222866 0.0183513 0
0.216582 0.0183513 0
0.211064 0.0183513 0
0.206035 0.0183513 0
0.20195 0.0183513 0
0.199302 0.0183513 0
0.19754 0.0183513 0
0.196108 0.0183513 0
0.195317 0.0183513 0
0.19598 0.0183513 0
0.197598 0.0183513 0
0.199305 0.0183513 0
0.202213 0.0183513 0
0.205683 0.0183513 0
0.208831 0.0183513 0
0.211772 0.0183513 0
0.214519 0.0183513 0
0.217354 0.0183513 0
0.219843 0.0183513 0
0.221087 0.0183513 0
0.222296 0.0183513 0
0.22292 0.0183513 0
0.222789 0.0183513 0
0.222273 0.0183513 0
0.222069 0.0183513 0
0.221485 0.0183513 0
0.221137 0.0183513 0
0.220296 0.0183513 0
0.219389 0.0183513 0
0.21889 0.0183513 0
0.218558 0.0183513 0
0.218074 0.0183513 0
0.21768 0.0183513 0
0.217709 0.0183513 0
0.218245 0.0183513 0
0.219613 0.0183513 0
0.221747 0.0183513 0
0.224553 0.0183513 0
0.227605 0.0183513 0
0.232581 0.0183513 0
0.238067 0.0183513 0
0.242561 0.0290353 0
0.247302 0.0427383 0
0.252651 0.0564427 0
0.258332 0.0645043 0
0.272437 0.113828 0
0.265783 0.194934 0
0.278211 0.169213 0
0.280514 0.123966 0
0.287149 0.140687 0
0.286915 0.199243 0
0.289576 0.205498 0
0.292845 0.189004 0
0.296051 0.185991 0
0.296973 0.206717 0
0.297909 0.21249 0
0.300256 0.206511 0
0.301646 0.200954 0
0.302041 0.205102 0
0.303198 0.208124 0
0.30459 0.204551 0
0.305935 0.201165 0
0.307935 0.202618 0
0.310872 0.204792 0
0.3141 0.204271 0
0.318769 0.204138 0
0.3246 0.207099 0
0.331006 0.211162 0
0.338279 0.214363 0
0.344434 0.217228 0
0.351718 0.219755 0
0.359312 0.225332 0
0.366885 0.231973 0
0.375223 0.236267 0
0.383762 0.239766 0
0.39198 0.243861 0
0.399723 0.249119 0
0.406936 0.254617 0
0.413368 0.259119 0
0.418659 0.262733 0
0.422829 0.265413 0
0.425823 0.268192 0
0.42748 0.27103 0
0.427682 0.272775 0
0.426058 0.273288 0
0.423311 0.272153 0
0.419019 0.270522 0
0.414383 0.268986 0
0.408006 0.267229 0
0.400145 0.264621 0
0.392971 0.261422 0
0.385564 0.258423 0
0.37718 0.255407 0
0.369011 0.251576 0
0.361837 0.24767 0
0.354924 0.244481 0
0.348248 0.241615 0
0.341948 0.239262 0
0.336741 0.23277 0
0.332469 0.229034 0
0.325907 0.232009 0
0.321538 0.23532 0
0.317073 0.234351 0
0.312582 0.232733 0
0.307829 0.234573 0
0.303533 0.23868 0
0.299268 0.240919 0
0.294474 0.240223 0
0.290366 0.23904 0
0.285521 0.239525 0
0.279695 0.239348 0
0.273444 0.237013 0
0.266429 0.233574 0
0.258136 0.229526 0
0.248246 0.225518 0
0.236994 0.220344 0
0.224755 0.213614 0
0.209594 0.205823 0
0.203028 0.197537 0
0.203028 0.188652 0
0.203028 0.178397 0
0.203028 0.167504 0
0.203028 0.156142 0
0.203028 0.151461 0
0.203028 0.151461 0
0.203028 0.151461 0
0.203028 0.151461 0
0.203028 0.151461 0
0.203028 0.151461 0
0.203028 0.151461 0
0.203028 0.151461 0
0.203028 0.151461 0
0.203028 0.151461 0
0.203028 0.151461 0
0.203028 0.151461 0
0.203028 0.151461 0
0.203028 0.151461 0
0.203028 0.151461 0
0.203028 0.151461 0
0.203028 0.151461 0
0.203028 0.151461 0
0.203028 0.151461 0
0.203028 0.151461 0
0.203028 0.151461 0
0.203028 0.151461 0
0.203028 0.151461 0
0.203028 0.151461 0
0.203028 0.151461 0
0.203028 0.151461 0
0.203028 0.151461 0
0.203028 0.151461 0
0.203028 0.151461 0
0.203028 0.151461 0
0.203028 0.151461 0
0.203028 0.151461 0
0.203028 0.151461 0
0.203028 0.151461 0
0.203028 0.151461 0
0.203028 0.151461 0
0.203028 0.151461 0
0.203028 0.151461 0
0.203028 0.151461 0
0.203028 0.151461 0
0.203028 0.151461 0
0.203028 0.151461 0
0.203028 0.151461 0
0.203028 0.151461 0
0.203028 0.151461 0
0.203028 0.151461 0
0.203028 0.151461 0
0.203028 0.151461 0
0.203028 0.151461 0
0.203028 0.151461 0
0.203028 0.151461 0
0.203028 0.151461 0
0.203028 0.151461 0
0.203028 0.151461 0
0.203028 0.151461 0
0.203028 0.151461 0
0.203028 0.155309 0
0.203028 0.173863 0
0.203028 0.189205 0
0.203028 0.200825 0
0.203028 0.211494 0
0.203028 0.222492 0
0.203028 0.23187 0
0.203028 0.237878 0
0.203028 0.24025 0
0.203028 0.242726 0
0.203028 0.242333 0
0.203028 0.239659 0
0.203028 0.237008 0
0.203028 0.235281 0
0.203028 0.232352 0
0.203028 0.228156 0
0.203028 0.223191 0
0.203028 0.218105 0
0.203028 0.215349 0
0.203028 0.213701 0
0.203028 0.210828 0
0.203028 0.207227 0
0.203028 0.204834 0
0.203028 0.203976 0
0.203028 0.202914 0
0.203028 0.200825 0
0.203028 0.198483 0
0.203028 0.196906 0
0.203028 0.19552 0
0.203028 0.192243 0
0.203028 0.187943 0
0.203028 0.183737 0
0.203028 0.179253 0
0.203028 0.174272 0
0.203028 0.172093 0
0.203028 0.172093 0
0.203028 0.172093 0
0.203028 0.172093 0
0.203028 0.172093 0
0.203028 0.172093 0
0.203028 0.172093 0
0.203028 0.172093 0
0.203028 0.172093 0
0.203028 0.172093 0
0.203028 0.172093 0
0.203028 0.172093 0
0.203028 0.172093 0
0.203028 0.172093 0
0.203028 0.172093 0
0.203028 0.172093 0
0.203028 0.172093 0
0.203028 0.172093 0
0.203028 0.172093 0
0.203028 0.172093 0
0.203028 0.172093 0
0.203028 0.172093 0
0.203028 0.172093 0
0.203028 0.172093 0
0.203028 0.172093 0
0.203028 0.172093 0
0.203028 0.172093 0
0.203028 0.172093 0
0.203028 0.172093 0
0.203028 0.172093 0
0.203028 0.172093 0
0.203028 0.172093 0
0.203028 0.172093 0
0.203028 0.175589 0
0.203028 0.183661 0
0.203028 0.190898 0
0.203028 0.197452 0
0.203028 0.202791 0
0.203028 0.206527 0
0.203028 0.209003 0
0.203028 0.210695 0
0.203028 0.211724 0
0.203028 0.211764 0
0.203028 0.211611 0
0.203028 0.211647 0
0.203028 0.211982 0
0.203028 0.211564 0
0.203028 0.210738 0
0.203028 0.210531 0
0.203028 0.210789 0
0.203028 0.21065 0
0.203028 0.210051 0
0.203028 0.20937 0
0.203028 0.20839 0
0.203028 0.206259 0
0.203028 0.203133 0
0.203028 0.199647 0
0.203028 0.194186 0
0.203028 0.187344 0
0.203028 0.181723 0
0.203028 0.181723 0
0.203028 0.181723 0
0.203028 0.181723 0
0.203028 0.181723 0
0.203028 0.181723 0
0.203028 0.181723 0
0.203028 0.181723 0
0.203028 0.181723 0
0.203028 0.181723 0
0.203028 0.181723 0
0.203028 0.181723 0
0.203028 0.181723 0
0.203028 0.181723 0
0.203028 0.181723 0
0.203028 0.181723 0
0.203028 0.181723 0
0.203028 0.181723 0
0.203028 0.181723 0
0.203028 0.181723 0
0.203028 0.181723 0
0.203028 0.181723 0
0.203028 0.181723 0
0.203028 0.181723 0
0.203028 0.181723 0
0.203028 0.181723 0
0.203028 0.181723 0
0.203028 0.181723 0
0.203028 0.181723 0
0.203028 0.181723 0
0.203028 0.181723 0
0.203028 0.181723 0
0.203028 0.181723 0
0.203028 0.181723 0
0.203028 0.181723 0
0.203028 0.181723 0
0.203028 0.181723 0
0.203028 0.181723 0
0.203028 0.181723 0
0.203028 0.181723 0
0.203028 0.181723 0
0.203028 0.181723 0
0.203028 0.181723 0
0.203028 0.181723 0
0.203028 0.181723 0
0.203028 0.181723 0
0.203028 0.181723 0
0.203028 0.181723 0
0.203028 0.181723 0
0.203028 0.181723 0
0.203028 0.181723 0
0.203028 0.181723 0
0.203028 0.181723 0
0.203028 0.181723 0
0.203028 0.181723 0
0.203028 0.181723 0
0.203028 0.181723 0
0.203028 0.181723 0
0.203028 0.181723 0
0.203028 0.181723 0
0.203028 0.181723 0
0.203028 0.181723 0
0.203028 0.181723 0
0.203028 0.181723 0
0.203028 0.181723 0
0.203028 0.181723 0
0.203028 0.181723 0
0.203028 0.181723 0
0.203028 0.181723 0
0.203028 0.181723 0
0.203028 0.181723 0
0.203028 0.181723 0
0.203028 0.181723 0
0.203028 0.181723 0
0.203028 0.181723 0
0.203028 0.181723 0
0.203028 0.181723 0
0.203028 0.181723 0
0.203028 0.181723 0
0.203028 0.181723 0
0.203028 0.181723 0
0.203028 0.181723 0
0.203028 0.181723 0
0.203028 0.181723 0
0.203028 0.181723 0
0.203028 0.181723 0
0.203028 0.181723 0
0.203028 0.181723 0
0.203028 0.181723 0
0.203028 0.181723 0
0.203028 0.181723 0
0.203028 0.181723 0
0.203028 0.181723 0
0.203028 0.181723 0
0.203028 0.181723 0
0.203028 0.181723 0
0.203028 0.181723 0
0.203028 0.181723 0
0.203028 0.181723 0
0.203028 0.181723 0
0.203028 0.181723 0
0.203028 0.181723 0
0.203028 0.181723 0
0.203028 0.181723 0
0.203028 0.181723 0
0.203028 0.181723 0
0.203028 0.181723 0
0.203028 0.181723 0
0.203028 0.181723 0
0.203028 0.181723 0
0.203028 0.181723 0
0.210043 0.181723 0
0.218453 0.181723 0
0.225711 0.181723 0
0.230406 0.181723 0
0.234549 0.181723 0
0.239152 0.181723 0
0.243162 0.181723 0
0.247163 0.181723 0
0.254092 0.181723 0
0.262014 0.185695 0
0.267113 0.2052 0
0.271107 0.222703 0
0.275978 0.238614 0
0.280017 0.255027 0
0.281499 0.272473 0
0.281324 0.289738 0
0.280828 0.304739 0
0.277977 0.317011 0
0.274 0.330575 0
0.269711 0.344324 0
0.26274 0.357172 0
0.255739 0.366868 0
0.249413 0.373869 0
0.240835 0.380845 0
0.229881 0.386881 0
0.220982 0.39073 0
0.220982 0.392868 0
0.220982 0.392615 0
0.220982 0.391218 0
0.220982 0.38955 0
0.220982 0.387312 0
0.220982 0.383783 0
0.220982 0.378817 0
0.220982 0.373294 0
0.220982 0.36821 0
0.220982 0.361188 0
0.220982 0.351978 0
0.220982 0.342698 0
0.220982 0.33289 0
0.220982 0.322535 0
0.220982 0.311021 0
0.220982 0.299145 0
0.220982 0.287179 0
0.220982 0.275237 0
0.220982 0.262871 0
0.220982 0.249536 0
0.220982 0.235578 0
0.220982 0.227131 0
0.220982 0.227131 0
0.220982 0.227131 0
0.220982 0.227131 0
0.220982 0.227131 0
0.220982 0.227131 0
0.220982 0.227131 0
0.220982 0.227131 0
0.220982 0.227131 0
0.220982 0.227131 0
0.220982 0.227131 0
0.220982 0.227131 0
0.220982 0.227131 0
0.220982 0.227131 0
0.220982 0.227131 0
0.220982 0.227131 0
0.220982 0.227131 0
0.220982 0.227131 0
0.220982 0.227131 0
0.220982 0.227131 0
0.220982 0.227131 0
0.220982 0.227131 0
0.220982 0.227131 0
0.220982 0.227131 0
0.220982 0.227131 0
0.220982 0.227131 0
0.220982 0.227131 0
0.220982 0.227131 0
0.220982 0.227131 0
0.220982 0.227131 0
0.220982 0.227131 0
0.220982 0.227131 0
0.220982 0.227131 0
0.220982 0.227131 0
0.220982 0.227131 0
0.220982 0.227131 0
0.220982 0.227131 0
0.220982 0.227131 0
0.220982 0.227131 0
0.220982 0.227131 0
0.220982 0.227131 0
0.220982 0.227131 0
0.220982 0.227131 0
0.220982 0.227131 0
0.220982 0.227131 0
0.220982 0.227131 0
0.220982 0.227131 0
0.220982 0.227131 0
0.220982 0.227131 0
0.220982 0.227131 0
0.220982 0.227131 0
0.220982 0.227131 0
0.220982 0.227131 0
0.220982 0.227131 0
0.220982 0.227131 0
0.220982 0.227131 0
0.220982 0.227131 0
0.220982 0.227131 0
0.220982 0.227131 0
0.220982 0.227131 0
0.220982 0.227131 0
0.220982 0.227131 0
0.220982 0.227131 0
0.220982 0.227131 0
0.220982 0.227131 0
0.220982 0.227131 0
0.220982 0.227131 0
0.220982 0.227131 0
0.220982 0.227131 0
0.220982 0.227131 0
0.220982 0.227131 0
0.220982 0.227131 0
0.220982 0.227131 0
0.220982 0.227131 0
0.220982 0.227131 0
0.220982 0.227131 0
0.220982 0.227131 0
0.220982 0.227131 0
0.220982 0.227131 0
0.220982 0.227131 0
0.220982 0.227131 0
0.220982 0.227131 0
0.220982 0.227131 0
0.220982 0.227131 0
0.220982 0.227131 0
0.220982 0.227131 0
0.220982 0.227131 0
0.220982 0.227131 0
0.220982 0.227131 0
0.220982 0.227131 0
0.220982 0.227131 0
0.220982 0.227131 0
0.220982 0.227131 0
0.220982 0.227131 0
0.220982 0.227131 0
0.220982 0.227131 0
0.220982 0.227131 0
0.220982 0.227131 0
0.220982 0.227131 0
0.220982 0.227131 0
0.220982 0.227131 0
0.220982 0.227131 0
0.220982 0.227131 0
0.220982 0.227131 0
0.220982 0.227131 0
0.220982 0.227131 0
0.220982 0.227131 0
0.220982 0.227131 0
0.220982 0.227131 0
0.220982 0.227131 0
0.220982 0.227131 0
0.220982 0.227131 0
0.220982 0.227131 0
0.220982 0.227131 0
0.220982 0.227131 0
0.220982 0.227131 0
0.220982 0.227131 0
0.220982 0.227131 0
0.220982 0.227131 0
0.220982 0.227131 0
0.220982 0.227131 0
0.220982 0.227131 0
0.220982 0.227131 0
0.220982 0.227131 0
0.220982 0.227131 0
0.220982 0.227131 0
0.220982 0.227131 0
0.220982 0.227131 0
0.220982 0.227131 0
0.220982 0.227131 0
0.220982 0.227131 0
0.220982 0.227131 0
0.220982 0.227131 0
0.220982 0.227131 0
0.220982 0.227131 0
0.220982 0.227131 0
0.220982 0.227131 0
0.220982 0.227131 0
0.220982 0.227131 0
0.220982 0.227131 0
0.220982 0.227131 0
0.220982 0.227131 0
0.220982 0.227131 0
0.220982 0.227131 0
0.220982 0.227131 0
0.220982 0.227131 0
0.220982 0.227131 0
0.220982 0.227131 0
0.220982 0.227131 0
0.220982 0.227131 0
0.220982 0.227131 0
0.220982 0.227131 0
0.220982 0.227131 0
0.220982 0.227131 0
0.220982 0.227131 0
0.220982 0.227131 0
0.220982 0.227131 0
0.220982 0.227131 0
0.220982 0.227131 0
0.220982 0.227131 0
0.220982 0.227131 0
0.220982 0.227131 0
0.220982 0.227131 0
0.220982 0.227131 0
0.220982 0.227131 0
0.220982 0.227131 0
0.220982 0.227131 0
0.220982 0.227131 0
0.220982 0.227131 0
0.220982 0.227131 0
0.220982 0.227131 0
0.220982 0.227131 0
0.220982 0.227131 0
0.220982 0.227131 0
0.220982 0.227131 0
0.220982 0.227131 0
0.220982 0.227131 0
0.220982 0.227131 0
0.220982 0.227131 0
0.220982 0.227131 0
0.220982 0.227131 0
0.220982 0.227131 0
0.220982 0.227131 0
0.220982 0.227131 0
0.220982 0.227131 0
0.220982 0.227131 0
0.220982 0.227131 0
0.220982 0.227131 0
0.220982 0.227131 0
0.220982 0.227131 0
0.220982 0.227131 0
0.220982 0.227131 0
0.220982 0.227131 0
0.220982 0.227131 0
0.220982 0.227131 0
0.220982 0.227131 0
0.220982 0.227131 0
0.220982 0.227131 0
0.220982 0.227131 0
0.220982 0.227131 0
0.220982 0.227131 0
0.220982 0.227131 0
0.220982 0.227131 0
0.220982 0.227131 0
0.220982 0.227131 0
0.220982 0.227131 0
0.220982 0.227131 0
0.220982 0.227131 0
0.220982 0.227131 0
0.220982 0.227131 0
0.220982 0.227131 0
0.220982 0.227131 0
0.220982 0.227131 0
0.220982 0.227131 0
0.220982 0.227131 0
0.220982 0.227131 0
0.220982 0.227131 0
0.220982 0.227131 0
0.220982 0.227131 0
0.220982 0.227131 0
0.220982 0.227131 0
0.220982 0.227131 0
0.220982 0.227131 0
0.220982 0.227131 0
0.220982 0.227131 0
0.220982 0.227131 0
0.220982 0.227131 0
0.220982 0.227131 0
0.220982 0.227131 0
0.220982 0.227131 0
0.220982 0.227131 0
0.220982 0.227131 0
0.220982 0.227131 0
0.220982 0.227131 0
0.220982 0.227131 0
0.220982 0.227131 0
0.220982 0.227131 0
0.220982 0.227131 0
0.220982 0.227131 0
0.220982 0.227131 0
0.220982 0.227131 0
0.220982 0.227131 0
0.220982 0.227131 0
0.220982 0.227131 0
0.220982 0.227131 0
0.220982 0.227131 0
0.220982 0.227131 0
0.220982 0.227131 0
0.220982 0.227131 0
0.220982 0.227131 0
0.220982 0.227131 0
0.220982 0.227131 0
0.220982 0.227131 0
0.220982 0.227131 0
0.220982 0.227131 0
0.220982 0.227131 0
0.220982 0.227131 0
0.220982 0.227131 0
0.220982 0.227131 0
0.220982 0.227131 0
0.220982 0.227131 0
0.220982 0.227131 0
0.220982 0.227131 0
0.220982 0.227131 0
0.220982 0.227131 0
0.220982 0.227131 0
0.220982 0.227131 0
0.220982 0.227131 0
0.220982 0.227131 0
0.220982 0.227131 0
0.220982 0.227131 0
0.220982 0.227131 0
0.220982 0.227131 0
0.220982 0.227131 0
0.220982 0.227131 0
0.220982 0.227131 0
0.220982 0.227131 0
0.220982 0.227131 0
0.220982 0.227131 0
0.220982 0.227131 0
0.220982 0.227131 0
0.220982 0.227131 0
0.220982 0.227131 0
0.220982 0.227131 0
0.220982 0.227131 0
0.220982 0.227131 0
0.220982 0.227131 0
0.220982 0.227131 0
0.220982 0.227131 0
0.220982 0.227131 0
0.220982 0.227131 0
0.220982 0.227131 0
0.220982 0.227131 0
0.220982 0.227131 0
0.220982 0.227131 0
0.220982 0.227131 0
0.220982 0.227131 0
0.220982 0.227131 0
0.220982 0.227131 0
0.220982 0.227131 0
0.220982 0.227131 0
0.220982 0.227131 0
0.220982 0.227131 0
0.220982 0.227131 0
0.220982 0.227131 0
0.220982 0.227131 0
0.220982 0.227131 0
0.220982 0.227131 0
0.220982 0.227131 0
0.220982 0.227131 0
0.220982 0.227131 0
0.220982 0.227131 0
0.220982 0.227131 0
0.220982 0.227131 0
0.220982 0.227131 0
0.220982 0.227131 0
0.220982 0.227131 0
0.220982 0.227131 0
0.220982 0.227131 0
0.220982 0.227131 0
0.220982 0.227131 0
0.220982 0.227131 0
0.220982 0.227131 0
0.220982 0.227131 0
0.220982 0.227131 0
0.220982 0.227131 0
0.220982 0.227131 0
0.220982 0.227131 0
0.220982 0.227131 0
0.220982 0.227131 0
0.220982 0.227131 0
0.220982 0.227131 0
0.220982 0.227131 0
0.220982 0.227131 0
0.220982 0.227131 0
0.220982 0.227131 0
0.220982 0.227131 0
0.220982 0.227131 0
0.220982 0.227131 0
0.220982 0.227131 0
0.220982 0.227131 0
0.220982 0.227131 0
0.220982 0.227131 0
0.220982 0.227131 0
0.220982 0.227131 0
0.220982 0.227131 0
0.220982 0.227131 0
0.220982 0.227131 0
0.220982 0.227131 0
0.220982 0.227131 0
0.220982 0.227131 0
0.220982 0.227131 0
0.220982 0.227131 0
0.220982 0.227131 0
0.220982 0.227131 0
0.220982 0.227131 0
0.220982 0.227131 0
0.220982 0.227131 0
0.220982 0.227131 0
0.220982 0.227131 0
0.220982 0.227131 0
0.220982 0.227131 0
0.220982 0.227131 0
0.220982 0.227131 0
0.220982 0.227131 0
0.222758 0.227131 0
0.225697 0.227131 0
0.23063 0.227131 0
0.236466 0.227131 0
0.243639 0.227131 0
0.2527 0.227131 0
0.262756 0.242255 0
0.271493 0.257394 0
0.279277 0.270659 0
0.287129 0.281287 0
0.295295 0.291127 0
0.303062 0.302657 0
0.309827 0.314105 0
0.315459 0.325157 0
0.320629 0.335255 0
0.32577 0.34404 0
0.330348 0.351766 0
0.333981 0.358869 0
0.336951 0.365559 0
0.33972 0.372121 0
0.342428 0.378567 0
0.344799 0.383873 0
0.346647 0.387682 0
0.348266 0.390223 0
0.349978 0.392116 0
0.35175 0.393931 0
0.35342 0.395393 0
0.355164 0.396622 0
0.356688 0.398178 0
0.358327 0.399241 0
0.360241 0.399363 0
0.362202 0.399268 0
0.364163 0.399492 0
0.366301 0.400143 0
0.368692 0.401226 0
0.371224 0.402527 0
0.373831 0.403717 0
0.376532 0.404757 0
0.379333 0.406054 0
0.382153 0.407732 0
0.384966 0.409601 0
0.387704 0.411477 0
0.390275 0.413136 0
0.392682 0.414451 0
0.394921 0.415816 0
0.396671 0.417142 0
0.3981 0.418719 0
0.398713 0.419037 0
0.399298 0.417673 0
0.399799 0.416036 0
0.399646 0.414835 0
0.398488 0.413312 0
0.397042 0.410502 0
0.395473 0.406597 0
0.393161 0.402818 0
0.389973 0.398787 0
0.386459 0.393261 0
0.382646 0.386489 0
0.378189 0.379565 0
0.373187 0.372775 0
0.368142 0.365968 0
0.363112 0.358779 0
0.357805 0.350989 0
0.351868 0.34276 0
0.346029 0.334494 0
0.340602 0.326705 0
0.335537 0.319231 0
0.330328 0.311684 0
0.325153 0.304051 0
0.320465 0.295838 0
0.315849 0.288683 0
0.311726 0.28264 0
0.30818 0.277589 0
0.305115 0.273125 0
0.302303 0.268672 0
0.299606 0.267512 0
0.297128 0.267512 0
0.295183 0.267512 0
0.293888 0.267512 0
0.293077 0.267512 0
0.292478 0.267512 0
0.292128 0.267512 0
0.292598 0.267512 0
0.293527 0.267512 0
0.294697 0.267512 0
0.296221 0.267512 0
0.297868 0.267512 0
0.299551 0.267512 0
0.301635 0.267512 0
0.303903 0.267512 0
0.305885 0.267512 0
0.307744 0.267512 0
0.309772 0.267512 0
0.311911 0.267512 0
0.313824 0.267512 0
0.315555 0.267512 0
0.316827 0.267512 0
0.317815 0.267512 0
0.318689 0.267512 0
0.319437 0.267512 0
0.31977 0.267512 0
0.319733 0.267512 0
0.319672 0.267512 0
0.31952 0.267512 0
0.31915 0.267512 0
0.318646 0.267512 0
0.318121 0.267512 0
0.317601 0.267512 0
0.317094 0.267512 0
0.316619 0.267512 0
0.316205 0.267512 0
0.315902 0.267512 0
0.315784 0.267512 0
0.31582 0.267512 0
0.315926 0.267512 0
0.316289 0.267512 0
0.316885 0.267512 0
0.317533 0.271207 0
0.318206 0.276138 0
0.318953 0.281136 0
0.319844 0.286385 0
0.320986 0.292028 0
0.322306 0.298053 0
0.323766 0.3043 0
0.325414 0.310519 0
0.327184 0.316504 0
0.32924 0.322145 0
0.331404 0.327581 0
0.3335 0.332975 0
0.335504 0.338398 0
0.33747 0.343831 0
0.339471 0.349113 0
0.341238 0.35411 0
0.342576 0.35881 0
0.343494 0.363195 0
0.344113 0.367282 0
0.344413 0.371161 0
0.344272 0.37491 0
0.343536 0.378496 0
0.342442 0.381775 0
0.341027 0.384634 0
0.339126 0.387034 0
0.336748 0.38898 0
0.334216 0.390548 0
0.331717 0.391751 0
0.32883 0.392504 0
0.325398 0.39315 0
0.321834 0.393487 0
0.318549 0.393107 0
0.315477 0.391725 0
0.312309 0.389928 0
0.308778 0.388151 0
0.305221 0.386195 0
0.301995 0.383696 0
0.299003 0.381 0
0.295942 0.378204 0
0.292845 0.374749 0
0.289982 0.370593 0
0.287454 0.366296 0
0.285174 0.362271 0
0.283077 0.357999 0
0.28122 0.353934 0
0.279636 0.350076 0
0.27838 0.346228 0
0.277281 0.342281 0
0.276356 0.338151 0
0.275759 0.33366 0
0.275766 0.329029 0
0.276085 0.324698 0
0.276658 0.32078 0
0.277698 0.317117 0
0.27897 0.313442 0
0.280158 0.30973 0
0.281454 0.306018 0
0.282959 0.302491 0
0.284437 0.298874 0
0.28572 0.295106 0
0.286698 0.294152 0
0.287384 0.294152 0
0.287964 0.294152 0
0.288558 0.294152 0
0.288967 0.294152 0
0.288828 0.294152 0
0.288354 0.294152 0
0.287724 0.294152 0
0.28686 0.294152 0
0.285703 0.294152 0
0.284328 0.294152 0
0.282761 0.294152 0
0.281169 0.294152 0
0.279372 0.294152 0
0.276976 0.294152 0
0.274422 0.294152 0
0.271954 0.294152 0
0.27132 0.294152 0
0.27132 0.294152 0
0.27132 0.294152 0
0.27132 0.294152 0
0.27132 0.294152 0
0.27132 0.294152 0
0.27132 0.294152 0
0.27132 0.294152 0
0.27132 0.294152 0
0.27132 0.294152 0
0.27132 0.294152 0
0.27132 0.294152 0
0.27132 0.294152 0
0.27132 0.294152 0
0.27132 0.294152 0
0.27132 0.294152 0
0.27132 0.294152 0
0.27132 0.294152 0
0.27132 0.294152 0
0.27132 0.294152 0
0.27132 0.294152 0
0.27132 0.294152 0
0.27132 0.294152 0
0.27132 0.294152 0
0.27132 0.294152 0
0.27132 0.294152 0
0.27132 0.294152 0
0.27132 0.294152 0
0.27132 0.294152 0
0.27132 0.294152 0
0.27132 0.294152 0
0.27132 0.294152 0
0.27132 0.294152 0
0.27132 0.294152 0
0.27132 0.294152 0
0.27132 0.294152 0
0.27132 0.294152 0
0.27132 0.294152 0
0.27132 0.294152 0
0.27132 0.294152 0
0.27132 0.294152 0
0.27132 0.294152 0
0.27132 0.294152 0
0.27132 0.294152 0
0.27132 0.294152 0
0.27132 0.294152 0
0.27132 0.294152 0
0.27132 0.294152 0
0.27132 0.294152 0
0.27132 0.294152 0
0.27132 0.294152 0
0.27132 0.294152 0
0.27132 0.294152 0
0.27132 0.294152 0
0.27132 0.294152 0
0.27132 0.294152 0
0.27132 0.294152 0
0.27132 0.294152 0
0.27132 0.294152 0
0.27132 0.294152 0
0.27132 0.294152 0
0.27132 0.294152 0
0.27132 0.294152 0
0.27132 0.294152 0
0.27132 0.294152 0
0.27132 0.294152 0
0.27132 0.294152 0
0.27132 0.294152 0
0.27132 0.294152 0
0.27132 0.294152 0
0.27132 0.294152 0
0.27132 0.294152 0
0.27132 0.294152 0
0.27132 0.294152 0
0.27132 0.294152 0
0.27132 0.294152 0
0.27132 0.294152 0
0.27132 0.294152 0
0.27132 0.294152 0
0.27132 0.294152 0
0.27132 0.294152 0
0.27132 0.294152 0
0.27132 0.294152 0
0.27132 0.294152 0
0.27132 0.294152 0
0.27132 0.294152 0
0.27132 0.294152 0
0.27132 0.294152 0
0.27132 0.294152 0
0.27132 0.294152 0
0.27132 0.294152 0
0.27132 0.294152 0
0.27132 0.294152 0
0.27132 0.294152 0
0.27132 0.294152 0
0.27132 0.294152 0
0.27132 0.294152 0
0.27132 0.294152 0
0.27132 0.294152 0
0.27132 0.294152 0
0.27132 0.294152 0
0.27132 0.294152 0
0.27132 0.294152 0
0.27132 0.294152 0
0.27132 0.294152 0
0.27132 0.294152 0
0.27132 0.294152 0
0.27132 0.294152 0
0.27132 0.294152 0
0.27132 0.294152 0
0.27132 0.294152 0
0.27132 0.294152 0
0.27132 0.294152 0
0.27132 0.294152 0
0.27132 0.294152 0
0.27132 0.294152 0
0.27132 0.294152 0
0.27132 0.294152 0
0.27132 0.294152 0
0.27132 0.294152 0
0.27132 0.294152 0
0.27132 0.294152 0
0.27132 0.294152 0
0.27132 0.294152 0
0.27132 0.294152 0
0.27132 0.294152 0
0.27132 0.294152 0
0.27132 0.294152 0
0.27132 0.294152 0
0.27132 0.294152 0
0.27132 0.294152 0
0.27132 0.294152 0
0.27132 0.294152 0
0.27132 0.294152 0
0.27132 0.294152 0
0.27132 0.294152 0
0.27132 0.294152 0
0.27132 0.294152 0
0.27132 0.294152 0
0.27132 0.294152 0
0.27132 0.294152 0
0.27132 0.294152 0
0.27132 0.294152 0
0.27132 0.294152 0
0.27132 0.294152 0
0.27132 0.294152 0
0.27132 0.294152 0
0.27132 0.294152 0
0.27132 0.294152 0
0.27132 0.294152 0
0.27132 0.294152 0
0.27132 0.294152 0
0.27132 0.294152 0
0.27132 0.294152 0
0.27132 0.294152 0
0.27132 0.294152 0
0.27132 0.294152 0
0.27132 0.294152 0
0.27132 0.294152 0
0.27132 0.294152 0
0.27132 0.294152 0
0.27132 0.294152 0
0.27132 0.294152 0
0.27132 0.294152 0
0.27132 0.294152 0
0.27132 0.294152 0
0.27132 0.294152 0
0.27132 0.294152 0
0.27132 0.294152 0
0.27132 0.294152 0
0.27132 0.294152 0
0.27132 0.294152 0
0.27132 0.294152 0
0.27132 0.294152 0
0.27132 0.294152 0
0.27132 0.294152 0
0.27132 0.294152 0
0.27132 0.294152 0
0.27132 0.294152 0
0.27132 0.294152 0
0.27132 0.294152 0
0.27132 0.294152 0
0.27132 0.294152 0
0.27132 0.294152 0
0.27132 0.294152 0
0.27132 0.294152 0
0.27132 0.294152 0
0.27132 0.294152 0
0.27132 0.294152 0
0.27132 0.294152 0
0.27132 0.294152 0
0.27132 0.294152 0
0.27132 0.294152 0
0.27132 0.294152 0
0.27132 0.294152 0
0.27132 0.294152 0
0.27132 0.294152 0
0.27132 0.294152 0
0.27132 0.294152 0
0.27132 0.294152 0
0.27132 0.294152 0
0.27132 0.294152 0
0.27132 0.294152 0
0.27132 0.294152 0
0.27132 0.294152 0
0.27132 0.294152 0
0.27132 0.294152 0
0.27132 0.294152 0
0.27132 0.294152 0
0.27132 0.294152 0
0.27132 0.294152 0
0.27132 0.294152 0
0.27132 0.294152 0
0.27132 0.294152 0
0.27132 0.294152 0
0.27132 0.294152 0
0.27132 0.294152 0
0.27132 0.294152 0
0.27132 0.294152 0
0.27132 0.294152 0
0.27132 0.294152 0
0.27132 0.294152 0
0.27132 0.294152 0
0.27132 0.294152 0
0.27132 0.294152 0
0.27132 0.294152 0
0.27132 0.294152 0
0.27132 0.294152 0
0.27132 0.294152 0
0.27132 0.294152 0
0.27132 0.294152 0
0.27132 0.294152 0
0.27132 0.294152 0
0.27132 0.294152 0
0.27132 0.294152 0
0.27132 0.294152 0
0.27132 0.294152 0
0.27132 0.294152 0
0.27132 0.294152 0
0.27132 0.294152 0
0.27132 0.294152 0
0.27132 0.294152 0
0.27132 0.294152 0
0.27132 0.294152 0
0.27132 0.294152 0
0.27132 0.294152 0
0.27132 0.294152 0
0.27132 0.294152 0
0.27132 0.294152 0
0.27132 0.294152 0
0.27132 0.294152 0
0.27132 0.294152 0
0.27132 0.294152 0
0.27132 0.294152 0
0.27132 0.294152 0
0.27132 0.294152 0
0.27132 0.294152 0
0.27132 0.294152 0
0.27132 0.294152 0
0.27132 0.294152 0
0.27132 0.294152 0
0.27132 0.294152 0
0.27132 0.294152 0
0.27132 0.294152 0
0.27132 0.294152 0
0.27132 0.294152 0
0.27132 0.294152 0
0.27132 0.294152 0
0.27132 0.294152 0
0.27132 0.294152 0
0.27132 0.294152 0
0.27132 0.294152 0
0.27132 0.294152 0
0.27132 0.294152 0
0.27132 0.294152 0
0.27132 0.294152 0
0.27132 0.294152 0
0.27132 0.294152 0
0.27132 0.294152 0
0.27132 0.294152 0
0.27132 0.294152 0
0.27132 0.294152 0
0.27132 0.294152 0
0.27132 0.294152 0
0.27132 0.294152 0
0.27132 0.294152 0
0.27132 0.294152 0
0.27132 0.294152 0
0.27132 0.294152 0
0.27132 0.294152 0
0.27132 0.294152 0
0.27132 0.294152 0
0.27132 0.294152 0
0.27132 0.294152 0
0.27132 0.294152 0
0.27132 0.294152 0
0.27132 0.294152 0
0.27132 0.294152 0
0.27132 0.294152 0
0.27132 0.294152 0
0.27132 0.294152 0
0.27132 0.294152 0
0.27132 0.294152 0
0.27132 0.294152 0
0.27132 0.294152 0
0.27132 0.294152 0
0.27132 0.294152 0
0.27132 0.294152 0
0.27132 0.294152 0
0.27132 0.294152 0
0.27132 0.294152 0
0.27132 0.294152 0
0.27132 0.294152 0
0.27132 0.294152 0
0.27132 0.294152 0
0.27132 0.294152 0
0.27132 0.294152 0
0.27132 0.294152 0
0.27132 0.294152 0
0.27132 0.294152 0
0.27132 0.294152 0
0.27132 0.294152 0
0.27132 0.294152 0
0.27132 0.294152 0
0.27132 0.294152 0
0.27132 0.294152 0
0.27132 0.294152 0
0.27132 0.294152 0
0.27132 0.294152 0
0.27132 0.294152 0
0.27132 0.294152 0
0.27132 0.294152 0
0.27132 0.294152 0
0.27132 0.294152 0
0.27132 0.294152 0
0.27132 0.294152 0
0.27132 0.294152 0
0.27132 0.294152 0
0.27132 0.294152 0
0.27132 0.294152 0
0.27132 0.294152 0
0.27132 0.294152 0
0.27132 0.294152 0
0.27132 0.294152 0
0.27132 0.294152 0
0.27132 0.294152 0
0.27132 0.294152 0
0.27132 0.294152 0
0.27132 0.294152 0
0.27132 0.294152 0
0.27132 0.294152 0
0.27132 0.294152 0
0.27132 0.294152 0
0.27132 0.294152 0
0.27132 0.294152 0
0.27132 0.294152 0
0.27132 0.294152 0
0.27132 0.294152 0
0.27132 0.294152 0
0.27132 0.294152 0
0.27132 0.294152 0
0.27132 0.294152 0
0.27132 0.294152 0
0.27132 0.294152 0
0.27132 0.294152 0
0.27132 0.294152 0
0.27132 0.294152 0
0.27132 0.294152 0
0.27132 0.294152 0
0.27132 0.294152 0
0.27132 0.294152 0
0.27132 0.294152 0
0.27132 0.294152 0
0.27132 0.294152 0
0.27132 0.294152 0
0.27132 0.294152 0
0.27132 0.294152 0
0.27132 0.294152 0
0.27132 0.294152 0
0.27132 0.294152 0
0.27132 0.294152 0
0.27132 0.294152 0
0.27132 0.294152 0
0.27132 0.294152 0
0.27132 0.294152 0
0.27132 0.294152 0
0.27132 0.294152 0
0.27132 0.294152 0
0.27132 0.294152 0
0.27132 0.294152 0
0.27132 0.294152 0
0.27132 0.294152 0
0.27132 0.294152 0
0.27132 0.294152 0
0.27132 0.294152 0
0.27132 0.294152 0
0.27132 0.294152 0
0.27132 0.294152 0
0.27132 0.294152 0
0.27132 0.294152 0
0.27132 0.294152 0
0.27132 0.294152 0
0.27132 0.294152 0
0.27132 0.294152 0
0.27132 0.294152 0
0.27132 0.294152 0
0.27132 0.294152 0
0.27132 0.294152 0
0.27132 0.294152 0
0.27132 0.294152 0
0.27132 0.294152 0
0.27132 0.294152 0
0.27132 0.294152 0
0.27132 0.294152 0
0.27132 0.294152 0
0.27132 0.294152 0
0.27132 0.294152 0
0.27132 0.294152 0
0.27132 0.294152 0
0.27132 0.294152 0
0.27132 0.294152 0
0.27132 0.294152 0
0.27132 0.294152 0
0.27132 0.294152 0
0.27132 0.294152 0
0.27132 0.294152 0
0.27132 0.294152 0
0.27132 0.294152 0
0.27132 0.294152 0
0.27132 0.294152 0
0.27132 0.294152 0
0.27132 0.294152 0
0.27132 0.294152 0
0.27132 0.294152 0
0.27132 0.294152 0
0.27132 0.294152 0
0.27132 0.294152 0
0.27132 0.294152 0
0.27132 0.294152 0
0.27132 0.294152 0
0.27132 0.294152 0
0.27132 0.294152 0
0.27132 0.294152 0
0.27132 0.294152 0
0.27132 0.294152 0
0.27132 0.294152 0
0.27132 0.294152 0
0.27132 0.294152 0
0.27132 0.294152 0
0.27132 0.294152 0
0.27132 0.294152 0
0.27132 0.294152 0
0.27132 0.294152 0
0.27132 0.294152 0
0.27132 0.294152 0
0.27132 0.294152 0
0.27132 0.294152 0
0.27132 0.294152 0
0.27132 0.294152 0
0.27132 0.294152 0
0.27132 0.294152 0
0.27132 0.294152 0
0.27132 0.294152 0
0.27132 0.294152 0
0.27132 0.294152 0
0.27132 0.294152 0
0.27132 0.294152 0
0.27132 0.294152 0
0.27132 0.294152 0
0.27132 0.294152 0
0.27132 0.294152 0
0.27132 0.294152 0
0.27132 0.294152 0
0.27132 0.294152 0
0.27132 0.294152 0
0.27132 0.294152 0
0.27132 0.294152 0
0.27132 0.294152 0
0.27132 0.294152 0
0.27132 0.294152 0
0.27132 0.294152 0
0.27132 0.294152 0
0.27132 0.294152 0
0.27132 0.294152 0
0.27132 0.294152 0
0.27132 0.294152 0
0.27132 0.294152 0
0.27132 0.294152 0
0.27132 0.294152 0
0.27132 0.294152 0
0.27132 0.294152 0
0.27132 0.294152 0
0.27132 0.294152 0
0.27132 0.294152 0
0.27132 0.294152 0
0.27132 0.294152 0
0.27132 0.294152 0
0.27132 0.294152 0
0.27132 0.294152 0
0.27132 0.294152 0
0.27132 0.294152 0
0.27132 0.294152 0
0.27132 0.294152 0
0.27132 0.294152 0
0.27132 0.294152 0
0.27132 0.294152 0
0.27132 0.294152 0
0.27132 0.294152 0
0.27132 0.294152 0
0.27132 0.294152 0
0.27132 0.294152 0
0.27132 0.294152 0
0.27132 0.294152 0
0.27132 0.294152 0
0.27132 0.294152 0
0.27132 0.294152 0
0.27132 0.294152 0
0.27132 0.294152 0
0.27132 0.294152 0
0.27132 0.294152 0
0.27132 0.294152 0
0.27132 0.294152 0
0.27132 0.294152 0
0.27132 0.294152 0
0.27132 0.294152 0
0.27132 0.294152 0
0.27132 0.294152 0
0.27132 0.294152 0
0.27132 0.294152 0
0.27132 0.294152 0
0.27132 0.294152 0
0.27132 0.294152 0
0.27132 0.294152 0
0.27132 0.294152 0
0.27132 0.294152 0
0.27132 0.294152 0
0.27132 0.294152 0
0.27132 0.294152 0
0.27132 0.294152 0
0.27132 0.294152 0
0.27132 0.294152 0
0.27132 0.294152 0
0.27132 0.294152 0
0.27132 0.294152 0
0.27132 0.294152 0
0.27132 0.294152 0
0.27132 0.294152 0
0.27132 0.294152 0
0.27132 0.294152 0
0.27132 0.294152 0
0.27132 0.294152 0
0.27132 0.294152 0
0.27132 0.294152 0
0.27132 0.294152 0
0.27132 0.294152 0
0.27132 0.294152 0
0.27132 0.294152 0
0.27132 0.294152 0
0.27132 0.294152 0
0.27132 0.294152 0
0.27132 0.294152 0
0.27132 0.294152 0
0.27132 0.294152 0
0.27132 0.294152 0
0.27132 0.294152 0
0.27132 0.294152 0
0.27132 0.294152 0
0.27132 0.294152 0
0.27132 0.294152 0
0.27132 0.294152 0
0.27132 0.294152 0
0.27132 0.294152 0
0.27132 0.294152 0
0.27132 0.294152 0
0.27132 0.294152 0
0.27132 0.294152 0
0.27132 0.294152 0
0.27132 0.294152 0
0.27132 0.294152 0
0.27132 0.294152 0
0.27132 0.294152 0
0.27132 0.294152 0
0.27132 0.294152 0
0.27132 0.294152 0
0.27132 0.294152 0
0.27132 0.294152 0
0.27132 0.294152 0
0.27132 0.294152 0
0.27132 0.294152 0
0.27132 0.294152 0
0.27132 0.294152 0
0.27132 0.294152 0
0.27132 0.294152 0
0.27132 0.294152 0
0.27132 0.294152 0
0.27132 0.294152 0
0.27132 0.294152 0
0.27132 0.294152 0
0.27132 0.294152 0
0.27132 0.294152 0
0.27132 0.294152 0
0.27132 0.294152 0
0.27132 0.294152 0
0.27132 0.294152 0
0.27132 0.294152 0
0.27132 0.294152 0
0.27132 0.294152 0
0.27132 0.294152 0
0.27132 0.294152 0
0.27132 0.294152 0
0.27132 0.294152 0
0.27132 0.294152 0
0.27132 0.294152 0
0.27132 0.294152 0
0.27132 0.294152 0
0.27132 0.294152 0
0.27132 0.294152 0
0.27132 0.294152 0
0.27132 0.294152 0
0.27132 0.294152 0
0.27132 0.294152 0
0.27132 0.294152 0
0.27132 0.294152 0
0.27132 0.294152 0
0.27132 0.294152 0
0.27132 0.294152 0
0.27132 0.294152 0
0.27132 0.294152 0
0.27132 0.294152 0
0.27132 0.294152 0
0.27132 0.294152 0
0.27132 0.294152 0
0.27132 0.294152 0
0.27132 0.294152 0
0.27132 0.294152 0
0.27132 0.294152 0
0.27132 0.294152 0
0.27132 0.294152 0
0.27132 0.294152 0
0.27132 0.294152 0
0.27132 0.294152 0
0.27132 0.294152 0
0.27132 0.294152 0
0.27132 0.294152 0
0.27132 0.294152 0
0.27132 0.294152 0
0.27132 0.294152 0
0.27132 0.294152 0
0.27132 0.294152 0
0.27132 0.294152 0
0.27132 0.294152 0
0.27132 0.294152 0
0.27132 0.294152 0
0.27132 0.294152 0
0.27132 0.294152 0
0.27132 0.294152 0
0.27132 0.294152 0
0.27132 0.294152 0
0.27132 0.294152 0
0.27132 0.294152 0
0.27132 0.294152 0
0.27132 0.294152 0
0.27132 0.294152 0
0.27132 0.294152 0
0.27132 0.294152 0
0.27132 0.294152 0
0.27132 0.294152 0
0.27132 0.294152 0
0.27132 0.294152 0
0.27132 0.294152 0
0.27132 0.294152 0
0.27132 0.294152 0
0.27132 0.294152 0
0.27132 0.294152 0
0.27132 0.294152 0
0.27132 0.294152 0
0.27132 0.294152 0
0.27132 0.294152 0
0.27132 0.294152 0
0.27132 0.294152 0
0.27132 0.294152 0
0.27132 0.294152 0
0.27132 0.294152 0
0.27132 0.294152 0
0.27132 0.294152 0
0.27132 0.294152 0
0.27132 0.294152 0
0.27132 0.294152 0
0.27132 0.294152 0
0.27132 0.294152 0
0.27132 0.294152 0
0.27132 0.294152 0
0.27132 0.294152 0
0.27132 0.294152 0
0.27132 0.294152 0
0.27132 0.294152 0
0.27132 0.294152 0
0.27132 0.294152 0
0.27206 0.294152 0
0.272473 0.294152 0
0.272882 0.294152 0
0.273463 0.294152 0
0.273995 0.294152 0
0.274228 0.294152 0
0.274266 0.294152 0
0.274259 0.294152 0
0.274246 0.294152 0
0.274199 0.294152 0
0.274056 0.294152 0
0.273811 0.294152 0
0.273526 0.294152 0
0.273257 0.294152 0
0.272981 0.294152 0
0.27265 0.294152 0
0.272348 0.294152 0
0.272099 0.294152 0
0.272099 0.294152 0
0.272099 0.294152 0
0.272099 0.294152 0
0.272099 0.294152 0
0.272099 0.294152 0
0.272099 0.294152 0
0.272099 0.294152 0
0.272099 0.294152 0
0.272099 0.294152 0
0.272099 0.294152 0
0.272099 0.294152 0
0.272099 0.294152 0
0.272099 0.294152 0
0.272099 0.294152 0
0.272099 0.294152 0
0.272545 0.294152 0
0.274082 0.294152 0
0.275498 0.294152 0
0.277145 0.294152 0
0.278187 0.296686 0
0.27885 0.301679 0
0.27943 0.306298 0
0.280099 0.310305 0
0.280589 0.31371 0
0.280631 0.316629 0
0.280227 0.319127 0
0.279859 0.321251 0
0.279395 0.323126 0
0.278516 0.32474 0
0.277322 0.325769 0
0.27603 0.326023 0
0.274595 0.325364 0
0.274202 0.324474 0
0.274202 0.3238 0
0.274202 0.322977 0
0.274202 0.321575 0
0.274202 0.319677 0
0.274202 0.317617 0
0.274202 0.31565 0
0.274202 0.313794 0
0.274202 0.311621 0
0.274202 0.30942 0
0.274202 0.307146 0
0.274202 0.304857 0
0.274202 0.30253 0
0.274202 0.301243 0
0.274202 0.301243 0
0.274202 0.301243 0
0.274202 0.301243 0
0.274202 0.301243 0
0.274202 0.301243 0
0.274202 0.301243 0
0.274202 0.301243 0
0.274202 0.301243 0
0.274202 0.301243 0
0.274202 0.301243 0
0.274202 0.301243 0
0.274202 0.301243 0
0.274202 0.301243 0
0.274202 0.301243 0
0.274202 0.301243 0
0.274202 0.301243 0
0.274202 0.301243 0
0.274202 0.301243 0
0.274202 0.301243 0
0.274202 0.301243 0
0.274202 0.301243 0
0.274202 0.301243 0
0.274202 0.301243 0
0.274202 0.301243 0
0.274202 0.301243 0
0.274202 0.301243 0
0.274202 0.301243 0
0.274202 0.301243 0
0.274202 0.301243 0
0.274202 0.301243 0
0.274202 0.301243 0
0.274202 0.301243 0
0.274202 0.301243 0
0.274202 0.301243 0
0.274202 0.301243 0
0.274202 0.301243 0
0.274202 0.301243 0
0.274202 0.301243 0
0.274202 0.301243 0
0.274202 0.301243 0
0.274202 0.301243 0
0.274202 0.301243 0
0.274202 0.301243 0
0.274202 0.301243 0
0.274202 0.301243 0
0.274202 0.301243 0
0.274202 0.301243 0
0.274202 0.301243 0
0.274202 0.301243 0
0.274202 0.301243 0
0.274202 0.301243 0
0.274202 0.301243 0
0.274202 0.301243 0
0.274202 0.301243 0
0.274202 0.301243 0
0.274202 0.301243 0
0.274202 0.301243 0
0.274202 0.301243 0
0.274202 0.301243 0
0.274202 0.301243 0
0.274202 0.301243 0
0.274202 0.301243 0
0.274202 0.301243 0
0.274202 0.301243 0
0.274202 0.301243 0
0.274202 0.301243 0
0.274202 0.301243 0
0.274202 0.301243 0
0.274202 0.301243 0
0.274202 0.301243 0
0.274202 0.301243 0
0.274202 0.301243 0
0.274202 0.301243 0
0.274202 0.301243 0
0.274202 0.301243 0
0.274202 0.301243 0
0.274202 0.301243 0
0.274202 0.301243 0
0.274202 0.301243 0
0.274202 0.301243 0
0.274202 0.301243 0
0.274202 0.301243 0
0.274202 0.301243 0
0.274202 0.301243 0
0.274202 0.301243 0
0.274202 0.301243 0
0.274202 0.301243 0
0.274202 0.301243 0
0.274202 0.301243 0
0.274202 0.301243 0
0.274202 0.301243 0
0.274202 0.301243 0
0.274202 0.301243 0
0.274202 0.301243 0
0.274202 0.301243 0
0.274202 0.301243 0
0.274202 0.301243 0
0.274202 0.301243 0
0.274202 0.301243 0
0.274202 0.301243 0
0.274202 0.301243 0
0.274202 0.301243 0
0.274202 0.301243 0
0.274202 0.301243 0
0.274202 0.301243 0
0.274202 0.301243 0
0.274202 0.301243 0
0.274202 0.301243 0
0.274202 0.301243 0
0.274202 0.301243 0
0.274202 0.301243 0
0.274202 0.301243 0
0.274202 0.301243 0
0.274202 0.301243 0
0.274202 0.301243 0
0.274202 0.301243 0
0.274202 0.301243 0
0.274202 0.301243 0
0.274202 0.301243 0
0.274202 0.301243 0
0.274202 0.301243 0
0.274202 0.301243 0
0.274202 0.301243 0
0.274202 0.301243 0
0.274202 0.301243 0
0.274202 0.301243 0
0.274202 0.301243 0
0.274202 0.301243 0
0.274202 0.301243 0
0.274202 0.301243 0
0.274202 0.301243 0
0.274202 0.301243 0
0.274202 0.301243 0
0.274202 0.301243 0
0.274202 0.301243 0
0.274202 0.301243 0
0.274202 0.301243 0
0.274202 0.301243 0
0.274202 0.301243 0
0.274202 0.301243 0
0.274202 0.301243 0
0.274202 0.301243 0
0.274202 0.301243 0
0.274202 0.301243 0
0.274202 0.301243 0
0.274202 0.301243 0
0.274202 0.301243 0
0.274202 0.301243 0
0.274202 0.301243 0
0.274202 0.301243 0
0.274202 0.301243 0
0.274202 0.301243 0
0.274202 0.301243 0
0.274202 0.301243 0
0.274202 0.301243 0
0.274202 0.301243 0
0.274202 0.301243 0
0.274202 0.301243 0
0.274202 0.301243 0
0.274202 0.301243 0
0.274202 0.301243 0
0.274202 0.301243 0
0.274202 0.301243 0
0.274202 0.301243 0
0.274202 0.301243 0
0.274202 0.301243 0
0.274202 0.301243 0
0.274202 0.301243 0
0.274202 0.301243 0
0.274202 0.301243 0
0.274202 0.301243 0
0.274202 0.301243 0
0.274202 0.301243 0
0.274202 0.301243 0
0.274202 0.301243 0
0.274202 0.301243 0
0.274202 0.301243 0
0.274202 0.301243 0
0.274202 0.301243 0
0.274202 0.301243 0
0.274202 0.301243 0
0.274202 0.301243 0
0.274202 0.301243 0
0.274202 0.301243 0
0.274202 0.301243 0
0.274202 0.301243 0
0.274202 0.301243 0
0.274202 0.301243 0
0.274202 0.301243 0
0.274202 0.301243 0
0.274202 0.301243 0
0.274202 0.301243 0
0.274202 0.301243 0
0.274202 0.301243 0
0.274202 0.301243 0
0.274202 0.301243 0
0.274202 0.301243 0
0.274202 0.301243 0
0.274202 0.301243 0
0.274202 0.301243 0
0.274202 0.301243 0
0.274202 0.301243 0
0.274202 0.301243 0
0.274202 0.301243 0
0.274202 0.301243 0
0.274202 0.301243 0
0.274202 0.301243 0
0.274202 0.301243 0
0.274202 0.301243 0
0.274202 0.301243 0
0.274202 0.301243 0
0.274202 0.301243 0
0.274202 0.301243 0
0.274202 0.301243 0
0.274202 0.301243 0
0.274202 0.301243 0
0.274202 0.301243 0
0.274202 0.301243 0
0.274202 0.301243 0
0.274202 0.301243 0
0.274202 0.301243 0
0.274202 0.301243 0
0.274202 0.301243 0
0.274202 0.301243 0
0.274202 0.301243 0
0.274202 0.301243 0
0.274202 0.301243 0
0.274202 0.301243 0
0.274202 0.301243 0
0.274202 0.301243 0
0.274202 0.301243 0
0.274202 0.301243 0
0.274202 0.301243 0
0.274202 0.301243 0
0.274202 0.301243 0
0.274202 0.301243 0
0.274202 0.301243 0
0.274202 0.301243 0
0.274202 0.301243 0
0.274202 0.301243 0
0.274202 0.301243 0
0.274202 0.301243 0
0.274202 0.301243 0
0.274202 0.301243 0
0.274202 0.301243 0
0.274202 0.301243 0
0.274202 0.301243 0
0.274202 0.301243 0
0.274202 0.301243 0
0.274202 0.301243 0
0.274202 0.301243 0
0.274202 0.301243 0
0.274202 0.301243 0
0.274202 0.301243 0
0.274202 0.301243 0
0.274202 0.301243 0
0.274202 0.301243 0
0.274202 0.301243 0
0.274202 0.301243 0
0.274202 0.301243 0
0.274202 0.301243 0
0.274202 0.301243 0
0.274202 0.301243 0
0.274202 0.301243 0
0.274202 0.301243 0
0.274202 0.301243 0
0.274202 0.301243 0
0.274202 0.301243 0
0.274202 0.301243 0
0.274202 0.301243 0
0.274202 0.301243 0
0.274202 0.301243 0
0.274202 0.301243 0
0.274202 0.301243 0
0.274202 0.301243 0
0.274202 0.301243 0
0.274202 0.301243 0
0.274202 0.301243 0
0.274202 0.301243 0
0.274202 0.301243 0
0.274202 0.301243 0
0.274202 0.301243 0
0.274202 0.301243 0
0.274202 0.301243 0
0.274202 0.301243 0
0.274202 0.301243 0
0.274202 0.301243 0
0.274202 0.301243 0
0.274202 0.301243 0
0.274202 0.301243 0
0.274202 0.301243 0
0.274202 0.301243 0
0.274202 0.301243 0
0.274202 0.301243 0
0.274202 0.301243 0
0.274202 0.301243 0
0.274202 0.301243 0
0.274202 0.301243 0
0.274202 0.301243 0
0.274202 0.301243 0
0.274202 0.301243 0
0.274202 0.301243 0
0.274202 0.301243 0
0.274202 0.301243 0
0.274202 0.301243 0
0.274202 0.301243 0
0.274202 0.301243 0
0.274202 0.301243 0
0.274202 0.301243 0
0.274202 0.301243 0
0.274202 0.301243 0
0.274202 0.301243 0
0.274202 0.301243 0
0.274202 0.301243 0
0.274202 0.301243 0
0.274202 0.301243 0
0.274202 0.301243 0
0.274202 0.301243 0
0.274202 0.301243 0
0.274202 0.301243 0
0.274202 0.301243 0
0.274202 0.301243 0
0.274202 0.301243 0
0.274202 0.301243 0
0.274202 0.301243 0
0.274202 0.301243 0
0.274202 0.301243 0
0.274202 0.301243 0
0.274202 0.301243 0
0.274202 0.301243 0
0.274202 0.301243 0
0.274202 0.301243 0
0.274202 0.301243 0
0.274202 0.301243 0
0.274202 0.301243 0
0.274202 0.301243 0
0.274202 0.301243 0
0.274202 0.301243 0
0.274202 0.301243 0
0.274202 0.301243 0
0.274202 0.301243 0
0.274202 0.301243 0
0.274202 0.301243 0
0.274202 0.301243 0
0.274202 0.301243 0
0.274202 0.301243 0
0.274202 0.301243 0
0.274202 0.301243 0
0.274202 0.301243 0
0.274202 0.301243 0
0.274202 0.301243 0
0.274202 0.301243 0
0.274202 0.301243 0
0.274202 0.301243 0
0.274202 0.301243 0
0.274202 0.301243 0
0.274202 0.301243 0
0.274202 0.301243 0
0.274202 0.301243 0
0.274202 0.301243 0
0.274202 0.301243 0
0.274202 0.301243 0
0.274202 0.301243 0
0.274202 0.301243 0
0.274202 0.301243 0
0.274202 0.301243 0
0.274202 0.301243 0
0.274202 0.301243 0
0.274202 0.301243 0
0.274202 0.301243 0
0.274202 0.301243 0
0.274202 0.301243 0
0.274202 0.301243 0
0.274202 0.301243 0
0.274202 0.301243 0
0.274202 0.301243 0
0.274202 0.301243 0
0.274202 0.301243 0
0.274202 0.301243 0
0.274202 0.301243 0
0.274202 0.301243 0
0.274202 0.301243 0
0.274202 0.301243 0
0.274202 0.301243 0
0.274202 0.301243 0
0.274202 0.301243 0
0.274202 0.301243 0
0.274202 0.301243 0
0.274202 0.301243 0
0.274202 0.301243 0
0.274202 0.301243 0
0.274202 0.301243 0
0.274202 0.301243 0
0.274202 0.301243 0
0.274202 0.301243 0
0.274202 0.301243 0
0.274202 0.301243 0
0.274202 0.301243 0
0.274202 0.301243 0
0.274202 0.301243 0
0.274202 0.301243 0
0.274202 0.301243 0
0.274202 0.301243 0
0.274202 0.301243 0
0.274202 0.301243 0
0.274202 0.301243 0
0.274202 0.301243 0
0.274202 0.301243 0
0.274202 0.301243 0
0.274202 0.301243 0
0.274202 0.301243 0
0.274202 0.301243 0
0.274202 0.301243 0
0.274202 0.301243 0
0.274202 0.301243 0
0.274202 0.301243 0
0.274202 0.301243 0
0.274202 0.301243 0
0.274202 0.301243 0
0.274202 0.301243 0
0.274202 0.301243 0
0.274202 0.301243 0
0.274202 0.301243 0
0.274202 0.301243 0
0.274202 0.301243 0
0.274202 0.301243 0
0.274202 0.301243 0
0.274202 0.301243 0
0.274202 0.301243 0
0.274202 0.301243 0
0.274202 0.301243 0
0.274202 0.301243 0
0.274202 0.301243 0
0.274202 0.301243 0
0.274202 0.301243 0
0.274202 0.301243 0
0.274202 0.301243 0
0.274202 0.301243 0
0.274202 0.301243 0
0.274202 0.301243 0
0.274202 0.301243 0
0.274202 0.301243 0
0.274202 0.301243 0
0.274202 0.301243 0
0.274202 0.301243 0
0.274202 0.301243 0
0.274202 0.301243 0
0.274202 0.301243 0
0.274202 0.301243 0
0.274202 0.301243 0
0.274202 0.301243 0
0.274202 0.301243 0
0.274202 0.301243 0
0.274202 0.301243 0
0.274202 0.301243 0
0.274202 0.301243 0
0.274202 0.301243 0
0.274202 0.301243 0
0.274202 0.301243 0
0.274202 0.301243 0
0.274202 0.301243 0
0.274202 0.301243 0
0.274202 0.301243 0
0.274202 0.301243 0
0.274202 0.301243 0
0.274202 0.301243 0
0.274202 0.301243 0
0.274202 0.301243 0
0.274202 0.301243 0
0.274202 0.301243 0
0.274202 0.301243 0
0.274202 0.301243 0
0.274202 0.301243 0
0.274202 0.301243 0
0.274202 0.301243 0
0.274202 0.301243 0
0.274202 0.301243 0
0.274202 0.301243 0
0.274202 0.301243 0
0.274202 0.301243 0
0.274202 0.301243 0
0.274202 0.301243 0
0.274202 0.301243 0
0.274202 0.301243 0
0.274202 0.301243 0
0.274202 0.301243 0
0.274202 0.301243 0
0.274202 0.301243 0
0.274202 0.301243 0
0.274202 0.301243 0
0.274202 0.301243 0
0.274202 0.301243 0
0.274202 0.301243 0
0.274202 0.301243 0
0.274202 0.301243 0
0.274202 0.301243 0
0.274202 0.301243 0
0.274202 0.301243 0
0.274202 0.301243 0
0.274202 0.301243 0
0.274202 0.301243 0
0.274202 0.301243 0
0.274202 0.301243 0
0.274202 0.301243 0
0.274202 0.301243 0
0.274202 0.301243 0
0.274202 0.301243 0
0.274202 0.301243 0
0.274202 0.301243 0
0.274202 0.301243 0
0.274202 0.301243 0
0.274202 0.301243 0
0.274202 0.301243 0
0.274202 0.301243 0
0.274202 0.301243 0
0.274202 0.301243 0
0.274202 0.301243 0
0.274202 0.301243 0
0.274202 0.301243 0
0.274202 0.301243 0
0.274202 0.301243 0
0.274202 0.301243 0
0.274202 0.301243 0
0.274202 0.301243 0
0.274202 0.301243 0
0.274202 0.301243 0
0.274202 0.301243 0
0.274202 0.301243 0
0.274202 0.301243 0
0.274202 0.301243 0
0.274202 0.301243 0
0.274202 0.301243 0
0.274202 0.301243 0
0.274202 0.301243 0
0.274202 0.301243 0
0.274202 0.301243 0
0.274202 0.301243 0
0.274202 0.301243 0
0.274202 0.301243 0
0.274202 0.301243 0
0.274202 0.301243 0
0.274202 0.301243 0
0.274202 0.301243 0
0.274202 0.301243 0
0.274202 0.301243 0
0.274202 0.301243 0
0.274202 0.301243 0
0.274202 0.301243 0
0.274202 0.301243 0
0.274202 0.301243 0
0.274202 0.301243 0
0.274202 0.301243 0
0.274202 0.301243 0
0.274202 0.301243 0
0.274202 0.301243 0
0.274202 0.301243 0
0.274202 0.301243 0
0.274202 0.301243 0
0.274202 0.301243 0
0.274202 0.301243 0
0.274202 0.301243 0
0.274202 0.301243 0
0.274202 0.301243 0
0.274202 0.301243 0
0.274202 0.301243 0
0.274202 0.301243 0
0.274202 0.301243 0
0.274202 0.301243 0
0.274202 0.301243 0
0.274202 0.301243 0
0.274202 0.301243 0
0.274202 0.301243 0
0.274202 0.301243 0
0.274202 0.301243 0
0.274202 0.301243 0
0.274202 0.301243 0
0.274202 0.301243 0
0.274202 0.301243 0
0.274202 0.301243 0
0.274202 0.301243 0
0.274202 0.301243 0
0.274202 0.301243 0
0.274202 0.301243 0
0.274202 0.301243 0
0.274202 0.301243 0
0.274202 0.301243 0
0.274202 0.301243 0
0.274202 0.301243 0
0.274202 0.301243 0
0.274202 0.301243 0
0.274202 0.301243 0
0.274202 0.301243 0
0.274202 0.301243 0
0.274202 0.301243 0
0.274202 0.301243 0
0.274202 0.301243 0
0.274202 0.301243 0
0.274202 0.301243 0
0.274202 0.301243 0
0.274202 0.301243 0
0.274202 0.301243 0
0.274202 0.301243 0
0.274202 0.301243 0
0.274202 0.301243 0
0.274202 0.301243 0
0.274202 0.301243 0
0.274202 0.301243 0
0.274202 0.301243 0
0.274202 0.301243 0
0.274202 0.301243 0
0.274202 0.301243 0
0.274202 0.301243 0
0.274202 0.301243 0
0.274202 0.301243 0
0.274202 0.301243 0
0.274202 0.301243 0
0.274202 0.301243 0
0.274202 0.301243 0
0.274202 0.301243 0
0.274202 0.301243 0
0.274202 0.301243 0
0.274202 0.301243 0
0.274202 0.301243 0
0.274202 0.301243 0
0.274202 0.301243 0
0.274202 0.301243 0
0.274202 0.301243 0
0.274202 0.301243 0
0.274202 0.301243 0
0.274202 0.301243 0
0.274202 0.301243 0
0.274202 0.301243 0
0.274202 0.301243 0
0.274202 0.301243 0
0.274202 0.301243 0
0.274202 0.301243 0
0.274202 0.301243 0
0.274202 0.301243 0
0.274202 0.301243 0
0.274202 0.301243 0
0.274202 0.301243 0
0.274202 0.301243 0
0.274202 0.301243 0
0.274202 0.301243 0
0.274202 0.301243 0
0.274202 0.301243 0
0.274202 0.301243 0
0.274202 0.301243 0
0.274202 0.301243 0
0.274202 0.301243 0
0.274202 0.301243 0
0.274202 0.301243 0
0.274202 0.301243 0
0.274202 0.301243 0
0.274202 0.301243 0
0.274202 0.301243 0
0.274202 0.301243 0
0.274202 0.301243 0
0.274202 0.301243 0
0.274202 0.301243 0
0.274202 0.301243 0
0.274202 0.301243 0
0.274202 0.301243 0
0.274202 0.301243 0
0.274202 0.301243 0
0.274202 0.301243 0
0.274202 0.301243 0
0.274202 0.301243 0
0.274202 0.301243 0
0.274202 0.301243 0
0.274202 0.301243 0
0.274202 0.301243 0
0.274202 0.301243 0
0.274202 0.301243 0
0.274202 0.301243 0
0.274202 0.301243 0
0.274202 0.301243 0
0.274202 0.301243 0
0.274202 0.301243 0
0.274202 0.301243 0
0.274202 0.301243 0
0.274202 0.301243 0
0.274202 0.301243 0
0.274202 0.301243 0
0.274202 0.301243 0
0.274202 0.301243 0
0.274202 0.301243 0
0.274202 0.301243 0
0.274202 0.301243 0
0.274202 0.301243 0
0.274202 0.301243 0
0.274202 0.301243 0
0.274202 0.301243 0
0.274202 0.301243 0
0.274202 0.301243 0
0.274202 0.301243 0
0.274202 0.301243 0
0.274202 0.301243 0
0.274202 0.301243 0
0.274202 0.301243 0
0.274202 0.301243 0
0.274202 0.301243 0
0.274202 0.301243 0
0.274202 0.301243 0
0.274202 0.301243 0
0.274202 0.301243 0
0.274202 0.301243 0
0.274202 0.301243 0
0.274202 0.301243 0
0.274202 0.301243 0
0.274202 0.301243 0
0.274202 0.301243 0
0.274202 0.301243 0
0.274202 0.301243 0
0.274202 0.301243 0
0.274202 0.301243 0
0.274202 0.301243 0
0.274202 0.301243 0
0.274202 0.301243 0
0.274202 0.301243 0
0.274202 0.301243 0
0.274202 0.301243 0
0.274202 0.301243 0
0.274202 0.301243 0
0.274202 0.301243 0
0.274202 0.301243 0
0.274202 0.301243 0
0.274202 0.301243 0
0.274202 0.301243 0
0.274202 0.301243 0
0.274202 0.301243 0
0.274202 0.301243 0
0.274202 0.301243 0
0.274202 0.301243 0
0.274202 0.301243 0
0.274202 0.301243 0
0.274202 0.301243 0
0.274202 0.301243 0
0.274202 0.301243 0
0.274202 0.301243 0
0.274202 0.301243 0
0.274202 0.301243 0
0.274202 0.301243 0
0.274202 0.301243 0
0.274202 0.301243 0
0.274202 0.301243 0
0.274202 0.301243 0
0.274202 0.301243 0
0.274202 0.301243 0
0.274202 0.301243 0
0.274202 0.301243 0
0.274202 0.301243 0
0.274202 0.301243 0
0.274202 0.301243 0
0.274202 0.301243 0
0.274202 0.301243 0
0.274202 0.301243 0
