0 0 0
0 0 0
0 0 0
0 0 0
0 0 0
0 0 0
0 0 0
0 0 0
0 0 0
0 0 0
0 0 0
0 0 0
0 0 0
0 0 0
0 0 0
0 0 0
0 0 0
0 0 0
0 0 0
0 0 0
0 0 0
0 0 0
0 0 0
0 0 0
0 0 0
0 0 0
0 0 0
0 0 0
0 0 0
0 0 0
0 0 0
0 0 0
0 0 0
0 0 0
0 0 0
0 0 0
0 0 0
0 0 0
0 0 0
0 0 0
0 0 0
0 0 0
0 0 0
0 0 0
0 0 0
0 0 0
0 0 0
0 0 0
0 0 0
0 0 0
0 0 0
0 0 0
0 0 0
0 0 0
0 0 0
0 0 0
0 0 0
0 0 0
0 0 0
0 0 0
0.00891647 0 0
0.0295166 0 0
0.0477105 0 0
0.0636953 0 0
0.0777566 0 0
0.0901052 0 0
0.100867 0 0
0.110246 0 0
0.118665 0.00610398 0
0.126735 0.0354014 0
0.135082 0.0618429 0
0.144104 0.0844989 0
0.153833 0.102733 0
0.164069 0.116198 0
0.174572 0.124808 0
0.185119 0.128716 0
0.19552 0.128669 0
0.205631 0.126585 0.00385996
0.215364 0.122989 0.0235899
0.224668 0.118305 0.0435552
0.233491 0.112994 0.0630715
0.241784 0.107534 0.0814485
0.249546 0.102383 0.0980256
0.256894 0.0979523 0.112205
0.264059 0.0945825 0.12348
0.271277 0.0925432 0.131454
0.278588 0.0920731 0.135856
0.285651 0.0944571 0.136632
0.291762 0.100407 0.135123
0.296047 0.109905 0.131841
0.297592 0.119887 0.128041
0.297133 0.134904 0.122015
0.294814 0.152003 0.114842
0.290598 0.170151 0.106865
0.284487 0.188141 0.0984615
0.276505 0.204683 0.0900241
0.266697 0.218472 0.0819377
0.255122 0.228255 0.0745582
0.241835 0.232905 0.0705997
0.226897 0.232305 0.0705997
0.210382 0.228193 0.0705997
0.192366 0.220457 0.0705997
0.172949 0.20901 0.0705997
0.152329 0.193893 0.0705997
0.152329 0.17526 0.0705997
0.152329 0.153386 0.0705997
0.152329 0.138873 0.0705997
0.152329 0.138873 0.0705997
0.152329 0.138873 0.0705997
0.152329 0.138873 0.0736153
0.152329 0.138873 0.0738544
0.152329 0.138873 0.0729996
0.152329 0.138873 0.0729996
0.152329 0.138873 0.0729996
0.152329 0.138873 0.0729996
0.152329 0.135514 0.0729996
0.152329 0.135514 0.0729996
0.152329 0.135514 0.0729996
0.149889 0.135514 0.0729996
0.149889 0.135514 0.0729996
0.149889 0.13513 0.0729996
0.149889 0.13513 0.0729996
0.149889 0.13513 0.0729996
0.149889 0.13513 0.0729996
0.149889 0.13513 0.0729996
0.149889 0.13513 0.0729996
0.149889 0.13513 0.0729996
0.149889 0.135107 0.0729996
0.149889 0.135107 0.0701768
0.149889 0.135107 0.0701647
0.149889 0.135107 0.0701647
0.149889 0.135107 0.0701077
0.149889 0.135107 0.0701077
0.149889 0.135107 0.0701077
0.149889 0.135107 0.0701077
0.149889 0.135107 0.0701077
0.149796 0.135107 0.0701077
0.149444 0.135107 0.0701077
0.148927 0.135107 0.0701077
0.148927 0.135107 0.0701077
0.148927 0.135107 0.0701077
0.148927 0.135107 0.0701077
0.148927 0.135107 0.0701077
0.148927 0.135107 0.0701077
0.14887 0.135107 0.0701077
0.148868 0.135107 0.0701077
0.148868 0.135107 0.0701047
0.148868 0.135107 0.0701047
0.148868 0.135107 0.0701047
0.148868 0.135107 0.0701047
0.148868 0.135107 0.0701047
0.148868 0.135107 0.0701047
0.148868 0.135107 0.0701047
0.148868 0.135107 0.0701047
0.148868 0.135107 0.0701047
0.148868 0.135107 0.0701047
0.148868 0.135107 0.0701047
0.148868 0.135107 0.0701047
0.148868 0.135107 0.0701047
0.148868 0.135107 0.0701047
0.148868 0.135107 0.0701047
0.148868 0.135107 0.0701047
0.148868 0.135107 0.0701047
0.148868 0.135107 0.0701047
0.148868 0.135107 0.0701047
0.148868 0.135107 0.0701047
0.148849 0.135107 0.0701047
0.148849 0.135107 0.0701047
0.148849 0.135107 0.0701047
0.148849 0.135107 0.0701047
0.148849 0.135107 0.0701047
0.148849 0.135107 0.0701047
0.148849 0.135107 0.0701047
0.148849 0.135107 0.0701047
0.148849 0.135107 0.0701047
0.148849 0.135107 0.0701047
0.148849 0.135107 0.0701047
0.148849 0.135107 0.0701047
0.148849 0.135107 0.0701047
0.148849 0.135107 0.0701047
0.148849 0.135107 0.0701047
0.148849 0.135107 0.0701047
0.148849 0.135107 0.0701047
0.148849 0.135107 0.0701047
0.148849 0.135107 0.0701047
0.148849 0.135107 0.0701047
0.148849 0.135107 0.0701047
0.148849 0.135107 0.0701047
0.148849 0.135107 0.0701047
0.148849 0.135107 0.0701047
0.148849 0.135107 0.0701047
0.148849 0.135107 0.0701047
0.148849 0.135107 0.0700994
0.148849 0.135107 0.0700994
0.148849 0.135107 0.0700994
0.148849 0.135107 0.0700994
0.148849 0.135107 0.0700994
0.148849 0.135107 0.0700994
0.148849 0.135107 0.0700994
0.148849 0.135107 0.0700994
0.148849 0.135107 0.0700994
0.148849 0.135107 0.0700994
0.148849 0.135107 0.0700994
0.148849 0.135107 0.0700994
0.148849 0.135107 0.0700994
0.148849 0.135107 0.0700994
0.148849 0.135107 0.0700994
0.148849 0.135107 0.0700994
0.148849 0.135107 0.0700994
0.16311 0.135107 0.0700994
0.17768 0.135107 0.0700994
0.192806 0.135107 0.0842066
0.208795 0.135107 0.11053
0.225878 0.135107 0.134254
0.24419 0.135107 0.155486
0.263782 0.135107 0.17437
0.284616 0.135107 0.19095
0.306569 0.135107 0.205215
0.329463 0.164625 0.217228
0.353115 0.204432 0.227194
0.377353 0.244266 0.235407
0.402028 0.283592 0.242145
0.427005 0.321881 0.247622
0.452144 0.358625 0.25203
0.477273 0.393352 0.255596
0.502166 0.42565 0.258585
0.526548 0.455183 0.261251
0.550107 0.481692 0.263785
0.572527 0.50498 0.266318
0.5935 0.524912 0.268957
0.612731 0.541413 0.271804
0.628169 0.55352 0.275104
0.635398 0.559193 0.279042
0.637294 0.56098 0.283444
0.638444 0.560683 0.287836
0.641294 0.560044 0.291964
0.644268 0.558751 0.295696
0.64543 0.556062 0.299308
0.645787 0.552511 0.302608
0.645317 0.54808 0.30549
0.643788 0.54253 0.307856
0.641316 0.535889 0.309538
0.638266 0.528435 0.310422
0.634821 0.520348 0.310445
0.631044 0.511665 0.30983
0.627124 0.502518 0.308507
0.623289 0.493087 0.306381
0.619651 0.483518 0.303409
0.616261 0.473952 0.29956
0.613178 0.464562 0.294783
0.610424 0.455511 0.289026
0.607978 0.446928 0.282268
0.605819 0.438939 0.274525
0.603938 0.431656 0.265836
0.602317 0.42516 0.256249
0.600854 0.419511 0.245828
0.599453 0.414744 0.234659
0.598069 0.410862 0.222857
0.596665 0.407832 0.210562
0.595234 0.405581 0.197928
0.59381 0.404006 0.191535
0.592455 0.402981 0.191535
0.591231 0.40237 0.191535
0.590166 0.402032 0.191535
0.589229 0.401844 0.191535
0.588315 0.401697 0.191535
0.587264 0.401507 0.191535
0.585897 0.401199 0.191535
0.584025 0.400774 0.191535
0.581481 0.400101 0.191535
0.578066 0.399134 0.191535
0.57359 0.397859 0.191535
0.567854 0.396246 0.191535
0.560667 0.394277 0.191535
0.551857 0.391931 0.191535
0.541311 0.389199 0.191535
0.529015 0.386036 0.191535
0.515057 0.38238 0.191535
0.499589 0.378158 0.191535
0.482796 0.373307 0.191535
0.464883 0.367746 0.191535
0.446064 0.361449 0.191535
0.426564 0.354381 0.191535
0.406625 0.352491 0.191535
0.401603 0.352491 0.191535
0.401603 0.352491 0.191535
0.401603 0.352491 0.191535
0.401603 0.352491 0.191535
0.401603 0.352491 0.201766
0.401603 0.352491 0.221161
0.401603 0.352491 0.238723
0.401603 0.352491 0.253496
0.401603 0.352491 0.265796
0.401603 0.352491 0.275279
0.401603 0.352491 0.281437
0.401603 0.352491 0.284103
0.401603 0.352491 0.283623
0.401603 0.352491 0.281216
0.401603 0.352491 0.276858
0.401603 0.352491 0.270549
0.401603 0.352491 0.26237
0.401603 0.352491 0.252415
0.401603 0.352491 0.240788
0.401603 0.352491 0.240788
0.401603 0.352491 0.240788
0.398407 0.352491 0.240788
0.398407 0.352491 0.240788
0.398407 0.352491 0.240788
0.398407 0.352491 0.240788
0.398407 0.352491 0.240788
0.398407 0.352491 0.240788
0.398407 0.352491 0.240788
0.398407 0.352491 0.240788
0.398407 0.352491 0.240788
0.398407 0.352491 0.237444
0.398407 0.352491 0.237444
0.398407 0.352491 0.237444
0.398407 0.349782 0.237444
0.398407 0.349782 0.237444
0.398407 0.349782 0.237444
0.398407 0.349782 0.237444
0.398407 0.349782 0.237444
0.398174 0.349738 0.237444
0.398174 0.349738 0.237444
0.398174 0.349301 0.23685
0.398174 0.349301 0.23685
0.398174 0.349301 0.23685
0.397448 0.348333 0.236671
0.397448 0.348333 0.236671
0.397448 0.348333 0.236671
0.397448 0.348333 0.236671
0.397418 0.348333 0.236671
0.397418 0.348333 0.236671
0.397418 0.348333 0.236671
0.397418 0.348333 0.236671
0.397418 0.348333 0.236671
0.397418 0.348333 0.236671
0.397418 0.348045 0.236671
0.397418 0.348045 0.236671
0.397418 0.348045 0.236671
0.397418 0.348045 0.236649
0.397418 0.348045 0.236649
0.397418 0.348045 0.236649
0.397418 0.348045 0.236649
0.397418 0.348045 0.236649
0.397418 0.348045 0.236649
0.397418 0.348045 0.236649
0.397418 0.348045 0.236649
0.397418 0.348045 0.236634
0.397418 0.348045 0.236634
0.397418 0.348045 0.236634
0.397418 0.348045 0.236634
0.397418 0.348045 0.236634
0.397418 0.348045 0.236634
0.397418 0.348045 0.236634
0.397364 0.348045 0.236634
0.397364 0.348045 0.236634
0.397364 0.348042 0.236634
0.397364 0.348042 0.236634
0.397348 0.348042 0.236634
0.397348 0.348042 0.236634
0.397348 0.348042 0.236634
0.397348 0.348042 0.236634
0.397348 0.348042 0.236634
0.397348 0.348042 0.236634
0.397348 0.348042 0.236634
0.397348 0.348042 0.236634
0.397348 0.348042 0.236634
0.397348 0.348042 0.236634
0.397348 0.348042 0.236634
0.397348 0.348042 0.236634
0.397348 0.348042 0.236634
0.397348 0.348042 0.236634
0.397348 0.348032 0.236634
0.397348 0.348032 0.236634
0.397348 0.348032 0.236634
0.397348 0.348032 0.236634
0.397348 0.348032 0.236634
0.397348 0.348032 0.236634
0.397348 0.348032 0.236634
0.397348 0.348032 0.236634
0.397348 0.348032 0.236634
0.397348 0.348032 0.236634
0.397348 0.348032 0.236634
0.397348 0.348032 0.236634
0.397348 0.348032 0.236634
0.397348 0.348032 0.236634
0.397348 0.348032 0.236634
0.397348 0.348032 0.236634
0.397348 0.348032 0.236634
0.397348 0.348032 0.236634
0.397348 0.348032 0.236634
0.397348 0.348032 0.236634
0.397348 0.348032 0.236634
0.397348 0.348032 0.236634
0.397348 0.348032 0.236634
0.397348 0.348032 0.236634
0.397348 0.348032 0.236634
0.397348 0.348032 0.236634
0.397348 0.348032 0.236634
0.397348 0.348032 0.236634
0.397348 0.348032 0.236634
0.397348 0.348032 0.236634
0.397348 0.348032 0.236634
0.397348 0.348032 0.236634
0.397348 0.348032 0.236634
0.397348 0.348032 0.236634
0.397348 0.348032 0.236634
0.397348 0.348032 0.236634
0.397348 0.348028 0.236634
0.397348 0.348028 0.236634
0.397348 0.348028 0.236634
0.397348 0.348028 0.236634
0.397348 0.348028 0.236634
0.397348 0.348028 0.236634
0.397348 0.348028 0.236634
0.397348 0.348028 0.236634
0.397348 0.348028 0.236634
0.397348 0.348028 0.236634
0.397348 0.348028 0.236634
0.397348 0.348028 0.236634
0.397348 0.348028 0.236634
0.397348 0.348028 0.236634
0.397348 0.348028 0.236634
0.397348 0.348028 0.236634
0.397348 0.348028 0.236634
0.397348 0.348028 0.236634
0.397348 0.348028 0.236634
0.397348 0.348028 0.236634
0.397348 0.348028 0.236634
0.397348 0.348028 0.236634
0.397348 0.348028 0.236634
0.397348 0.359043 0.236634
0.397348 0.374954 0.236634
0.397348 0.385969 0.236634
0.397348 0.392924 0.236634
0.397348 0.393739 0.236634
0.399956 0.39107 0.236634
0.411204 0.386407 0.236634
0.423413 0.379997 0.236634
0.435797 0.374011 0.251518
0.448862 0.374011 0.281122
0.46341 0.374011 0.309941
0.479297 0.374011 0.337379
0.496222 0.374011 0.362789
0.514344 0.374011 0.3855
0.533789 0.374011 0.404938
0.55433 0.374011 0.420675
0.575728 0.374011 0.432356
0.597885 0.374011 0.439679
0.620644 0.374011 0.442451
0.643801 0.374011 0.441388
0.667261 0.374011 0.437806
0.691071 0.374011 0.431814
0.715289 0.374011 0.423615
0.739921 0.374011 0.41348
0.764959 0.402728 0.401734
0.79013 0.443995 0.38873
0.815289 0.487838 0.374857
0.840402 0.53322 0.360541
0.865349 0.579091 0.346223
0.889964 0.624431 0.342695
0.902559 0.665837 0.342695
0.901961 0.69702 0.342695
0.900644 0.725267 0.342695
0.902143 0.753225 0.342695
0.904292 0.777883 0.342695
0.904708 0.798084 0.342695
0.905024 0.813681 0.342695
0.90701 0.825759 0.342695
0.909695 0.833751 0.342695
0.911869 0.836714 0.342695
0.914292 0.835846 0.342695
0.917797 0.832877 0.342695
0.921976 0.827859 0.342695
0.926277 0.820916 0.342695
0.930843 0.812429 0.357789
0.931435 0.803239 0.38933
0.931089 0.793094 0.422417
0.930135 0.78241 0.456249
0.928744 0.771733 0.4901
0.922654 0.76227 0.523069
0.915405 0.7538 0.553044
0.908729 0.746072 0.57971
0.902744 0.73944 0.602757
0.897719 0.733284 0.608306
0.893679 0.728627 0.60958
0.890812 0.725829 0.609735
0.888095 0.724827 0.609854
0.885397 0.72683 0.611056
0.882827 0.732791 0.612588
0.880414 0.742507 0.61327
0.878194 0.755549 0.612373
0.8762 0.771158 0.609719
0.874423 0.788876 0.605558
0.872822 0.808128 0.600132
0.871362 0.828262 0.593534
0.870006 0.848562 0.585876
0.868703 0.868282 0.577408
0.867383 0.886726 0.568469
0.865963 0.90324 0.559363
0.864351 0.917212 0.550295
0.862447 0.92808 0.541414
0.860161 0.935366 0.532893
0.857408 0.938698 0.524934
0.854123 0.938342 0.517717
0.850262 0.935694 0.511348
0.84581 0.930809 0.505864
0.840781 0.923709 0.501268
0.83521 0.914474 0.497556
0.829135 0.903241 0.494702
0.822588 0.890201 0.492634
0.815579 0.8756 0.49123
0.808087 0.859729 0.490336
0.800073 0.842918 0.489784
0.791501 0.825516 0.489408
0.782359 0.807871 0.489034
0.77265 0.790326 0.48848
0.762396 0.773208 0.487567
0.751631 0.756815 0.486128
0.740388 0.741415 0.484023
0.728696 0.727232 0.481138
0.716571 0.714448 0.481138
0.704033 0.714448 0.481138
0.691121 0.714448 0.481138
0.677921 0.714448 0.481138
0.66792 0.714448 0.481138
0.66792 0.714448 0.481138
0.66792 0.714448 0.481138
0.66792 0.714448 0.481138
0.66792 0.714448 0.481138
0.66792 0.714448 0.481138
0.66792 0.714448 0.481138
0.66792 0.714448 0.481138
0.66792 0.714448 0.481138
0.66792 0.714448 0.481138
0.66792 0.714448 0.481138
0.66792 0.714448 0.481138
0.66792 0.714448 0.481138
0.66792 0.714448 0.481138
0.66792 0.714448 0.481138
0.66792 0.714448 0.481138
0.66792 0.714448 0.481138
0.66792 0.714448 0.481138
0.66792 0.714448 0.481138
0.66792 0.714448 0.481138
0.66792 0.714448 0.481138
0.66792 0.714448 0.481138
0.66792 0.714448 0.481138
0.66792 0.714448 0.481138
0.66792 0.714448 0.481138
0.66792 0.714448 0.481138
0.66792 0.714448 0.481138
0.66792 0.714448 0.481138
0.66792 0.714448 0.481138
0.66792 0.714448 0.481138
0.66792 0.714448 0.481138
0.66792 0.714448 0.481138
0.666093 0.714448 0.481138
0.666093 0.714448 0.481138
0.666093 0.714448 0.481138
0.666093 0.714448 0.481138
0.666093 0.714448 0.481138
0.666093 0.714448 0.481138
0.666093 0.710716 0.481138
0.666093 0.710716 0.481138
0.666093 0.710716 0.481138
0.666093 0.709435 0.481138
0.666093 0.709435 0.481138
0.666093 0.709435 0.481138
0.666093 0.709435 0.481138
0.666093 0.709435 0.481138
0.666093 0.709435 0.481138
0.666093 0.709435 0.481138
0.666093 0.709435 0.481138
0.666093 0.709435 0.481138
0.666093 0.709435 0.481138
0.666093 0.709435 0.481138
0.666093 0.709435 0.481138
0.666093 0.709435 0.481138
0.666093 0.709435 0.481138
0.666093 0.709435 0.481138
0.666093 0.709435 0.481138
0.666093 0.709435 0.481138
0.666093 0.709435 0.481138
0.666093 0.709435 0.476095
0.666093 0.709435 0.474913
0.666093 0.709435 0.474913
0.666093 0.709435 0.474913
0.666093 0.709435 0.474913
0.666093 0.709435 0.474913
0.666093 0.709435 0.474913
0.666093 0.709435 0.474913
0.666093 0.709435 0.474864
0.666093 0.709435 0.474859
0.666093 0.709435 0.474859
0.666093 0.709435 0.474859
0.666093 0.709435 0.474859
0.666093 0.709435 0.474859
0.666093 0.709435 0.474859
0.666093 0.709435 0.474859
0.666093 0.709435 0.474859
0.666093 0.709435 0.474859
0.666093 0.709435 0.474859
0.666093 0.709435 0.474859
0.666093 0.709435 0.474859
0.665887 0.709435 0.474859
0.665887 0.709435 0.474859
0.665887 0.709435 0.474859
0.665887 0.709435 0.474859
0.665887 0.709435 0.474859
0.665887 0.709435 0.474859
0.665887 0.709435 0.474859
0.665887 0.709435 0.474859
0.665839 0.709435 0.474859
0.665839 0.709435 0.474859
0.665839 0.709435 0.474859
0.665839 0.709435 0.474859
0.665839 0.709435 0.474859
0.665839 0.709435 0.474859
0.665839 0.709435 0.474859
0.665839 0.709435 0.474859
0.665839 0.709435 0.474859
0.665839 0.709435 0.474859
0.665839 0.709435 0.474859
0.665839 0.709435 0.474859
0.665839 0.709405 0.474859
0.665839 0.709405 0.474859
0.665839 0.709405 0.474859
0.665839 0.709405 0.474859
0.665839 0.709405 0.474859
0.665839 0.709405 0.474859
0.665839 0.709405 0.474859
0.665839 0.709405 0.474859
0.665839 0.709405 0.474859
0.665839 0.709405 0.474859
0.665839 0.709405 0.474859
0.665839 0.709405 0.474859
0.665839 0.709405 0.474859
0.665839 0.709405 0.474859
0.665839 0.709405 0.474859
0.665839 0.709405 0.474859
0.665839 0.709405 0.474859
0.665839 0.709405 0.474859
0.665839 0.709405 0.474859
0.665839 0.709405 0.474859
0.665839 0.709405 0.474859
0.665839 0.709405 0.474859
0.665839 0.709405 0.474859
0.665839 0.709405 0.474859
0.665839 0.709405 0.474859
0.665839 0.709405 0.474859
0.665839 0.709405 0.474859
0.665839 0.709405 0.474859
0.665839 0.709405 0.474859
0.665839 0.709405 0.474859
0.665839 0.709405 0.474859
0.665839 0.709405 0.474859
0.665839 0.709405 0.474859
0.665839 0.709405 0.474859
0.665839 0.709405 0.474859
0.665839 0.709405 0.474859
0.665839 0.709405 0.474859
0.665839 0.709405 0.474859
0.665839 0.709405 0.474859
0.665839 0.709405 0.474859
0.665839 0.709405 0.474859
0.665839 0.709405 0.474859
0.665839 0.709405 0.474859
0.665839 0.709405 0.474859
0.665839 0.709405 0.474859
0.665839 0.709405 0.474859
0.665839 0.709405 0.474859
0.665839 0.709405 0.474859
0.665839 0.709405 0.474859
0.665839 0.709405 0.474859
0.665839 0.709405 0.474859
0.665839 0.709405 0.474859
0.665839 0.709405 0.474859
0.665839 0.709405 0.474859
0.683637 0.709405 0.474859
0.701915 0.709405 0.474859
0.720577 0.709405 0.474859
0.739517 0.709405 0.474859
0.758566 0.709405 0.474859
0.777535 0.709405 0.474859
0.795585 0.709405 0.474859
0.820383 0.709405 0.474859
0.847431 0.709405 0.474859
0.866947 0.735504 0.474859
0.886 0.770694 0.474859
0.909232 0.808994 0.474859
0.931549 0.846223 0.474859
0.950575 0.880005 0.474859
0.96948 0.912047 0.474859
0.989263 0.942659 0.474859
1.00781 0.97003 0.474859
1.0246 0.993493 0.474859
1.04085 1.01372 0.474859
1.0567 1.03071 0.474859
1.07135 1.04389 0.474859
1.08478 1.05333 0.474859
1.0975 1.05954 0.474859
1.10952 1.06278 0.474859
1.1207 1.0629 0.474859
1.13104 1.06169 0.486101
3.72497 0.987434 0.524353
3.72497 1.06208 0.551447
3.72497 1.04254 0.585696
3.72497 1.02601 0.610119
3.72497 1.03082 0.632399
3.72497 1.04396 0.647697
3.72497 1.04186 0.662651
3.72497 1.03914 0.677579
3.72497 1.04774 0.690476
3.72497 1.06237 0.699955
3.72497 1.07347 0.705876
3.72497 3.2567 0.685855
3.72497 3.2567 0.70865
3.72497 3.2567 0.702962
3.72497 3.2567 0.69812
3.72497 3.2567 0.687161
3.72497 3.2567 0.678198
3.72497 3.2567 0.671844
3.72497 3.2567 0.663389
3.72497 3.2567 0.65212
3.72497 3.2567 0.639715
3.72497 3.2567 0.630475
3.72497 3.2567 0.624389
3.72497 3.2567 0.624389
3.72497 3.2567 0.624389
3.72497 3.2567 0.624389
3.72497 3.2567 0.624389
3.72497 3.2567 0.624389
3.72497 3.2567 0.624389
3.72497 3.2567 0.624389
3.72497 3.2567 0.624389
3.72497 3.2567 0.624389
3.72497 3.2567 0.624389
3.72497 3.2567 0.628863
3.72497 3.2567 0.649401
3.72497 3.2567 0.674083
3.72497 3.2567 0.703214
3.72497 3.2567 0.735368
3.72497 3.2567 0.768821
3.72497 3.2567 0.801585
3.72497 3.2567 0.825873
3.72497 3.2567 0.849769
3.72497 3.2567 0.862478
3.72497 3.2567 0.866346
3.72497 3.2567 0.867763
3.72497 3.2567 0.86942
3.72497 3.2567 0.873067
3.72497 3.2567 0.878079
3.72497 3.2567 0.882404
3.72497 3.2567 0.884988
3.72497 3.2567 0.886556
3.72497 3.2567 0.888503
3.72497 3.2567 0.891247
3.72497 3.2567 0.89405
3.72497 3.2567 0.89613
3.72497 3.2567 0.897135
3.72497 3.2567 0.897563
3.72497 3.2567 0.897895
3.72497 3.2567 0.898589
3.72497 3.2567 0.899111
3.72497 3.2567 0.899021
3.72497 3.2567 0.897625
3.72497 3.2567 0.895142
3.72497 3.2567 0.891793
3.72497 3.2567 0.88769
3.72497 3.2567 0.8817
3.72497 3.2567 0.875447
3.72497 3.2567 0.869021
3.72497 3.2567 0.862999
3.72497 3.2567 0.857505
3.72497 3.2567 0.852664
3.72497 3.2567 0.848165
3.72497 3.2567 0.844216
3.72497 3.2567 0.841052
3.72497 3.2567 0.83933
3.72497 3.2567 0.837954
3.72497 3.2567 0.837118
3.72497 3.2567 0.836593
3.72497 3.2567 0.835985
3.72497 3.2567 0.834865
3.72497 3.2567 0.833178
3.72497 3.2567 0.830645
3.72497 3.2567 0.826869
3.72497 3.2567 0.82164
3.72497 3.2567 0.814876
3.72497 3.2567 0.806418
3.72497 3.2567 0.796092
3.72497 3.2567 0.783857
3.72497 3.2567 0.769752
3.72497 3.2567 0.763592
3.72497 3.2567 0.763592
3.72497 3.2567 0.763592
3.72497 3.2567 0.763592
3.72497 3.2567 0.763592
3.72497 3.2567 0.763592
3.72497 3.2567 0.763592
3.72497 3.2567 0.763592
3.72497 3.2567 0.763592
3.72497 3.2567 0.763592
3.72497 3.2567 0.763592
3.72497 3.2567 0.763592
3.72497 3.2567 0.763592
3.72497 3.2567 0.763592
3.72497 3.2567 0.760739
3.72497 3.2567 0.759378
3.72497 3.2567 0.759378
3.72497 3.2567 0.759378
3.72497 3.2567 0.759378
3.72497 3.2567 0.759378
3.72497 3.2567 0.759378
3.72497 3.2567 0.759378
3.72497 3.2567 0.759274
3.72497 3.2567 0.759261
3.72497 3.2567 0.759261
3.72497 3.2567 0.759261
3.72497 3.2567 0.759261
3.72497 3.2567 0.759261
3.72497 3.2567 0.759261
3.72497 3.2567 0.759261
3.72497 3.2567 0.759261
3.72497 3.2567 0.759261
3.72497 3.2567 0.759261
3.72497 3.2567 0.759261
3.72497 3.2567 0.759261
3.72497 3.2567 0.759261
3.72497 3.2567 0.759261
3.72497 3.2567 0.759261
3.72497 3.2567 0.759261
3.72497 3.2567 0.759261
3.72497 3.2567 0.759261
3.72497 3.2567 0.759261
3.72497 3.2567 0.759261
3.72497 3.2567 0.759261
3.72497 3.2567 0.759261
3.72497 3.2567 0.759261
3.72497 3.2567 0.759261
3.72497 3.2567 0.759261
3.72497 3.2567 0.759261
3.72497 3.2567 0.759261
3.72497 3.2567 0.759261
3.72497 3.2567 0.759261
3.72497 3.2567 0.759261
3.72497 3.2567 0.759261
3.72497 3.2567 0.759261
3.72497 3.2567 0.759261
3.72497 3.2567 0.759261
3.72497 3.2567 0.759261
3.72497 3.2567 0.759261
3.72497 3.2567 0.759261
3.72497 3.2567 0.759261
3.72497 3.2567 0.759261
3.72497 3.2567 0.759261
3.72497 3.2567 0.759261
3.72497 3.2567 0.759261
3.72497 3.2567 0.759261
3.72497 3.2567 0.759261
3.72497 3.2567 0.759261
3.72497 3.2567 0.759261
3.72497 3.2567 0.759261
3.72497 3.2567 0.759261
3.72497 3.2567 0.759261
3.72497 3.2567 0.759261
3.72497 3.2567 0.759261
3.72497 3.2567 0.759261
3.72497 3.2567 0.759253
3.72497 3.2567 0.759253
3.72497 3.2567 0.759253
3.72497 3.2567 0.759253
3.72497 3.2567 0.759253
3.72497 3.2567 0.759253
3.72497 3.2567 0.759253
3.72497 3.2567 0.759253
3.72497 3.2567 0.759253
3.72497 3.2567 0.759253
3.72497 3.2567 0.759253
3.72497 3.2567 0.759253
3.72497 3.2567 0.759253
3.72497 3.2567 0.759253
3.72497 3.2567 0.759253
3.72497 3.2567 0.759253
3.72497 3.2567 0.759253
3.72497 3.2567 0.759253
3.72497 3.2567 0.759253
3.72497 3.2567 0.759253
3.72497 3.2567 0.759253
3.72497 3.2567 0.759253
3.72497 3.2567 0.759253
3.72497 3.2567 0.759253
3.72497 3.2567 0.759253
3.72497 3.2567 0.759253
3.72497 3.2567 0.759253
3.72497 3.2567 0.759253
3.72497 3.2567 0.759253
3.72497 3.2567 0.759253
3.72497 3.2567 0.759253
3.72497 3.2567 0.759253
3.72497 3.2567 0.759253
3.72497 3.2567 0.759253
3.72497 3.2567 0.759253
3.72497 3.2567 0.759253
3.72497 3.2567 0.759253
3.72497 3.2567 0.759253
3.72497 3.2567 0.759253
3.72497 3.2567 0.759253
3.72497 3.2567 0.759253
3.72497 3.2567 0.759253
3.72497 3.2567 0.759253
3.72497 3.2567 0.759253
3.72497 3.2567 0.759253
3.72497 3.2567 0.759253
3.72497 3.2567 0.759253
3.72497 3.2567 0.759253
3.72497 3.2567 0.759253
3.72497 3.2567 0.759253
3.72497 3.2567 0.759253
3.72497 3.2567 0.759253
3.72497 3.2567 0.759253
3.72497 3.2567 0.759253
3.72497 3.2567 0.759253
3.72497 3.2567 0.759253
3.72497 3.2567 0.759253
3.72497 3.2567 0.759253
3.72497 3.2567 0.759253
3.72497 3.2567 0.759253
3.72497 3.2567 0.759253
3.72497 3.2567 0.759253
3.72497 3.2567 0.759253
3.72497 3.2567 0.759253
3.72497 3.2567 0.759253
3.72497 3.2567 0.759253
3.72497 3.2567 0.759253
3.72497 3.2567 0.759253
3.72497 3.2567 0.759253
3.72497 3.2567 0.759253
3.72497 3.2567 0.759253
3.72497 3.2567 0.759253
3.72497 3.2567 0.759253
3.72497 3.2567 0.759253
3.72497 3.2567 0.759253
3.72497 3.2567 0.759253
3.72497 3.2567 0.759253
3.72497 3.2567 0.759253
3.72497 3.2567 0.759253
3.72497 3.2567 0.759253
3.72497 3.2567 0.759253
3.72497 3.2567 0.759253
3.72497 3.2567 0.759253
3.72497 3.2567 0.759253
3.72497 3.2567 0.759253
3.72497 3.2567 0.759253
3.72497 3.2567 0.759253
3.72497 3.2567 0.759253
3.72497 3.2567 0.759253
3.72497 3.2567 0.759253
3.72497 3.2567 0.759253
3.72497 3.2567 0.759253
3.72497 3.2567 0.759253
3.72497 3.2567 0.759253
3.72497 3.2567 0.759253
3.72497 3.2567 0.759253
3.72497 3.2567 0.759253
3.72497 3.2567 0.759253
3.72497 3.2567 0.759253
3.72497 3.2567 0.759253
3.72497 3.2567 0.759253
3.72497 3.2567 0.759253
3.72497 3.2567 0.759253
3.72497 3.2567 0.759253
3.72497 3.2567 0.759253
3.72497 3.2567 0.759253
3.72497 3.2567 0.759253
3.72497 3.2567 0.759253
3.72497 3.2567 0.759253
3.72497 3.2567 0.759253
3.72497 3.2567 0.759253
3.72497 3.2567 0.759253
3.72497 3.2567 0.759253
3.72497 3.2567 0.759253
3.72497 3.2567 0.759253
3.72497 3.2567 0.759253
3.72497 3.2567 0.759253
3.72497 3.2567 0.759253
3.72497 3.2567 0.759253
3.72497 3.2567 0.759253
3.72497 3.2567 0.759253
3.72497 3.2567 0.759253
3.72497 3.2567 0.759253
3.72497 3.2567 0.759253
3.72497 3.2567 0.75925
3.72497 3.2567 0.75925
3.72497 3.2567 0.75925
3.72497 3.2567 0.75925
3.72497 3.2567 0.75925
3.72497 3.2567 0.75925
3.72497 3.2567 0.75925
3.72497 3.2567 0.75925
3.72497 3.2567 0.75925
3.72497 3.2567 0.75925
3.72497 3.2567 0.75925
3.72497 3.2567 0.75925
3.72497 3.2567 0.75925
3.72497 3.2567 0.75925
3.72497 3.2567 0.75925
3.72497 3.2567 0.75925
3.72497 3.2567 0.75925
3.72497 3.2567 0.75925
3.72497 3.2567 0.75925
3.72497 3.2567 0.75925
3.72497 3.2567 0.75925
3.72497 3.2567 0.75925
3.72497 3.2567 0.75925
3.72497 3.2567 0.75925
3.72497 3.2567 0.75925
3.72497 3.2567 0.75925
3.72497 3.2567 0.75925
3.72497 3.2567 0.75925
3.72497 3.2567 0.775054
3.72497 3.2567 0.793455
3.72497 3.2567 0.810133
3.72497 3.2567 0.824985
3.72497 3.2567 0.838239
3.72497 3.2567 0.849836
3.72497 3.2567 0.858984
3.72497 3.2567 0.865221
3.72497 3.2567 0.869377
3.72497 3.2567 0.871741
3.72497 3.2567 0.871362
3.72497 3.2567 0.868011
3.72497 3.2567 0.861872
3.72497 3.2567 0.853323
3.72497 3.2567 0.842564
3.72497 3.2567 0.829676
3.72497 3.2567 0.817886
3.72497 3.2567 0.817886
3.72497 3.2567 0.817886
3.72497 3.2567 0.817886
3.72497 3.2567 0.817886
3.72497 3.2567 0.817886
3.72497 3.2567 0.817886
3.72497 3.2567 0.817886
3.72497 3.2567 0.817886
3.72497 3.2567 0.817886
3.72497 3.2567 0.817886
3.72497 3.2567 0.817886
3.72497 3.2567 0.817886
3.72497 3.2567 0.817886
3.72497 3.2567 0.817886
3.72497 3.2567 0.815886
3.72497 3.2567 0.815886
3.72497 3.2567 0.815886
3.72497 3.2567 0.815886
3.72497 3.2567 0.815886
3.72497 3.2567 0.815886
3.72497 3.2567 0.815886
3.72497 3.2567 0.815886
3.72497 3.2567 0.815886
3.72497 3.2567 0.815886
3.72497 3.2567 0.815886
3.72497 3.2567 0.815633
3.72497 3.2567 0.815633
3.72497 3.2567 0.815633
3.72497 3.2567 0.815633
3.72497 3.2567 0.815633
3.72497 3.2567 0.815633
3.72497 3.2567 0.815633
3.72497 3.2567 0.815633
3.72497 3.2567 0.815633
3.72497 3.2567 0.815633
3.72497 3.2567 0.815633
3.72497 3.2567 0.815633
3.72497 3.2567 0.815633
3.72497 3.2567 0.815633
3.72497 3.2567 0.815633
3.72497 3.2567 0.815633
3.72497 3.2567 0.815633
3.72497 3.2567 0.815633
3.72497 3.2567 0.815633
3.72497 3.2567 0.815633
3.72497 3.2567 0.815633
3.72497 3.2567 0.815633
3.72497 3.2567 0.815633
3.72497 3.2567 0.815633
3.72497 3.2567 0.815633
3.72497 3.2567 0.815633
3.72497 3.2567 0.815633
3.72497 3.2567 0.815633
3.72497 3.2567 0.815633
3.72497 3.2567 0.815633
3.72497 3.2567 0.815633
3.72497 3.2567 0.815633
3.72497 3.2567 0.815633
3.72497 3.2567 0.815633
3.72497 3.2567 0.815633
3.72497 3.2567 0.815633
3.72497 3.2567 0.815633
3.72497 3.2567 0.815633
3.72497 3.2567 0.815633
3.72497 3.2567 0.815633
3.72497 3.2567 0.815633
3.72497 3.2567 0.815633
3.72497 3.2567 0.815633
3.72497 3.2567 0.815633
3.72497 3.2567 0.815633
3.72497 3.2567 0.815633
3.72497 3.2567 0.815633
3.72497 3.2567 0.815633
3.72497 3.2567 0.815633
3.72497 3.2567 0.815633
3.72497 3.2567 0.815633
3.72497 3.2567 0.815633
3.72497 3.2567 0.815633
3.72497 3.2567 0.815633
3.72497 3.2567 0.815633
3.72497 3.2567 0.815633
3.72497 3.2567 0.815633
3.72497 3.2567 0.815633
3.72497 3.2567 0.815633
3.72497 3.2567 0.815633
3.72497 3.2567 0.815633
3.72497 3.2567 0.815633
3.72497 3.2567 0.815633
3.72497 3.2567 0.815633
3.72497 3.2567 0.815633
3.72497 3.2567 0.815633
3.72497 3.2567 0.815633
3.72497 3.2567 0.815633
3.72497 3.2567 0.815633
3.72497 3.2567 0.815633
3.72497 3.2567 0.815633
3.72497 3.2567 0.815633
3.72497 3.2567 0.815633
3.72497 3.2567 0.815633
3.72497 3.2567 0.815633
3.72497 3.2567 0.815633
3.72497 3.2567 0.815633
3.72497 3.2567 0.815633
3.72497 3.2567 0.815633
3.72497 3.2567 0.815633
3.72497 3.2567 0.815633
3.72497 3.2567 0.815633
3.72497 3.2567 0.815633
3.72497 3.2567 0.815633
3.72497 3.2567 0.815633
3.72497 3.2567 0.815633
3.72497 3.2567 0.815633
3.72497 3.2567 0.815633
3.72497 3.2567 0.815633
3.72497 3.2567 0.815633
3.72497 3.2567 0.815633
3.72497 3.2567 0.815633
3.72497 3.2567 0.815633
3.72497 3.2567 0.815633
3.72497 3.2567 0.815633
3.72497 3.2567 0.815633
3.72497 3.2567 0.815633
3.72497 3.2567 0.815633
3.72497 3.2567 0.815633
3.72497 3.2567 0.815633
3.72497 3.2567 0.815633
3.72497 3.2567 0.815633
3.72497 3.2567 0.815633
3.72497 3.2567 0.815633
3.72497 3.2567 0.815633
3.72497 3.2567 0.834783
3.72497 3.2567 0.855211
3.72497 3.2567 0.872587
3.72497 3.2567 0.884764
3.72497 3.2567 0.898707
3.72497 3.2567 0.917134
3.72497 3.2567 0.932751
3.72497 3.2567 0.941838
3.72497 3.2567 0.949462
3.72497 3.2567 0.959056
3.72497 3.2567 0.968058
3.72497 3.2567 0.973299
3.72497 3.2567 0.975618
3.72497 3.2567 0.977233
3.72497 3.2567 0.979139
3.72497 3.2567 0.979195
3.72497 3.2567 0.977362
3.72497 3.2567 0.974509
3.72497 3.2567 0.97106
3.72497 3.2567 0.966768
3.72497 3.2567 0.961666
3.72497 3.2567 0.956095
3.72497 3.2567 0.950283
3.72497 3.2567 0.944303
3.72497 3.2567 0.938046
3.72497 3.2567 0.931586
3.72497 3.2567 0.925061
3.72497 3.2567 0.918856
3.72497 3.2567 0.91315
3.72497 3.2567 0.907584
3.72497 3.2567 0.902352
3.72497 3.2567 0.898417
3.72497 3.2567 0.898417
3.72497 3.2567 0.898417
3.72497 3.2567 0.898417
3.72497 3.2567 0.898417
3.72497 3.2567 0.898417
3.72497 3.2567 0.898417
3.72497 3.2567 0.898417
3.72497 3.2567 0.898417
3.72497 3.2567 0.898417
3.72497 3.2567 0.898417
3.72497 3.2567 0.898417
3.72497 3.2567 0.898417
3.72497 3.2567 0.898417
3.72497 3.2567 0.898417
3.72497 3.2567 0.898417
3.72497 3.2567 0.898417
3.72497 3.2567 0.898417
3.72497 3.2567 0.898417
3.72497 3.2567 0.898417
3.72497 3.2567 0.898417
3.72497 3.2567 0.898417
3.72497 3.2567 0.898417
3.72497 3.2567 0.898417
3.72497 3.2567 0.898417
3.72497 3.2567 0.898417
3.72497 3.2567 0.898417
3.72497 3.2567 0.898417
3.72497 3.2567 0.898417
3.72497 3.2567 0.898417
3.72497 3.2567 0.898417
3.72497 3.2567 0.898417
3.72497 3.2567 0.898417
3.72497 3.2567 0.898417
3.72497 3.2567 0.898417
3.72497 3.2567 0.898417
3.72497 3.2567 0.898417
3.72497 3.2567 0.898417
3.72497 3.2567 0.898417
3.72497 3.2567 0.898417
3.72497 3.2567 0.898417
3.72497 3.2567 0.898417
3.72497 3.2567 0.898417
3.72497 3.2567 0.898417
3.72497 3.2567 0.898417
3.72497 3.2567 0.898417
3.72497 3.2567 0.898417
3.72497 3.2567 0.898417
3.72497 3.2567 0.898417
3.72497 3.2567 0.898417
3.72497 3.2567 0.898417
3.72497 3.2567 0.898417
3.72497 3.2567 0.898417
3.72497 3.2567 0.898417
3.72497 3.2567 0.898417
3.72497 3.2567 0.898417
3.72497 3.2567 0.898417
3.72497 3.2567 0.898417
3.72497 3.2567 0.898417
3.72497 3.2567 0.898417
3.72497 3.2567 0.898417
3.72497 3.2567 0.898417
3.72497 3.2567 0.898417
3.72497 3.2567 0.898417
3.72497 3.2567 0.898417
3.72497 3.2567 0.898417
3.72497 3.2567 0.898417
3.72497 3.2567 0.898417
3.72497 3.2567 0.898417
3.72497 3.2567 0.898417
3.72497 3.2567 0.898417
3.72497 3.2567 0.898417
3.72497 3.2567 0.898417
3.72497 3.2567 0.898417
3.72497 3.2567 0.898417
3.72497 3.2567 0.898417
3.72497 3.2567 0.898417
3.72497 3.2567 0.898417
3.72497 3.2567 0.898417
3.72497 3.2567 0.898417
3.72497 3.2567 0.898417
3.72497 3.2567 0.898417
3.72497 3.2567 0.897858
3.72497 3.2567 0.897563
3.72497 3.2567 0.897563
3.72497 3.2567 0.897554
3.72497 3.2567 0.897554
3.72497 3.2567 0.897554
3.72497 3.2567 0.897554
3.72497 3.2567 0.897554
3.72497 3.2567 0.897554
3.72497 3.2567 0.897554
3.72497 3.2567 0.897554
3.72497 3.2567 0.897554
3.72497 3.2567 0.897554
3.72497 3.2567 0.897554
3.72497 3.2567 0.897554
3.72497 3.2567 0.897554
3.72497 3.2567 0.897554
3.72497 3.2567 0.897554
3.72497 3.2567 0.897554
3.72497 3.2567 0.897554
3.72497 3.2567 0.897554
3.72497 3.2567 0.897554
3.72497 3.2567 0.897554
3.72497 3.2567 0.897554
3.72497 3.2567 0.897554
3.72497 3.2567 0.897554
3.72497 3.2567 0.897554
3.72497 3.2567 0.897554
3.72497 3.2567 0.897554
3.72497 3.2567 0.897554
3.72497 3.2567 0.897554
3.72497 3.2567 0.897554
3.72497 3.2567 0.897554
3.72497 3.2567 0.897554
3.72497 3.2567 0.897554
3.72497 3.2567 0.897554
3.72497 3.2567 0.904001
3.72497 3.2567 0.913383
3.72497 3.2567 0.926481
3.72497 3.2567 0.935395
3.72497 3.2567 0.944035
3.72497 3.2567 0.95298
3.72497 3.2567 0.966052
3.72497 3.2567 0.978437
3.72497 3.2567 0.984791
3.72497 3.2567 0.999771
3.72497 3.2567 1.02407
3.72497 3.2567 1.04396
3.72497 3.2567 1.05779
3.72497 3.2567 1.07553
3.72497 3.2567 1.10015
3.72497 3.2567 1.12461
3.72497 3.2567 1.14537
3.72497 3.2567 1.16418
3.72497 3.2567 1.17042
3.72497 3.2567 1.17543
3.72497 3.2567 1.17935
3.72497 3.2567 1.18331
3.72497 3.2567 1.18792
3.72497 3.2567 1.19266
3.72497 3.2567 1.14337
3.72497 3.2567 1.17626
3.72497 3.2567 1.21447
3.72497 3.2567 1.23604
3.72497 3.2567 1.25305
3.72497 3.2567 1.27016
3.72497 3.2567 1.27274
3.72497 3.2567 1.27129
3.72497 3.2567 1.2705
3.72497 3.2567 1.27277
3.72497 3.2567 1.2472
3.72497 3.2567 1.26866
3.72497 3.2567 1.29232
3.72497 3.2567 1.28411
3.72497 3.2567 1.27755
3.72497 3.2567 1.27637
3.72497 3.2567 1.28472
3.72497 3.2567 1.28719
3.72497 3.2567 1.28456
3.72497 3.2567 1.2886
3.72497 3.2567 1.30501
3.72497 3.2567 1.32167
3.72497 3.2567 1.32246
3.72497 3.2567 1.32099
3.72497 3.2567 1.3222
3.72497 3.2567 1.32778
3.72497 3.2567 1.33119
3.72497 3.2567 1.33663
3.72497 3.2567 1.34188
3.72497 3.2567 1.34626
3.72497 3.2567 1.3513
3.72497 3.2567 1.35782
3.72497 3.2567 1.36465
3.72497 3.2567 1.37069
3.72497 3.2567 1.37645
3.72497 3.2567 1.38264
3.72497 3.2567 1.38897
3.72497 3.2567 1.39496
3.72497 3.2567 1.4001
3.72497 3.2567 1.40451
3.72497 3.2567 1.40871
3.72497 3.2567 1.4127
3.72497 3.2567 1.41547
3.72497 3.2567 1.41725
3.72497 3.2567 1.41854
3.72497 3.2567 1.41941
3.72497 3.2567 1.41966
3.72497 3.2567 1.41129
3.72497 3.2567 1.44975
3.72497 3.2567 1.44975
3.72497 3.2567 1.44975
3.72497 3.2567 1.44975
3.72497 3.2567 1.44975
3.72497 3.2567 1.44975
3.72497 3.2567 1.44975
3.72497 3.2567 1.44975
3.72497 3.2567 1.44975
3.72497 3.2567 1.44975
3.72497 3.2567 1.44975
3.72497 3.2567 1.44975
3.72497 3.2567 1.44975
3.72497 3.2567 1.44975
3.72497 3.2567 1.44975
3.72497 3.2567 1.44975
3.72497 3.2567 1.44975
3.72497 3.2567 1.44975
3.72497 3.2567 1.44975
3.72497 3.2567 1.44975
3.72497 3.2567 1.44975
3.72497 3.2567 1.44975
3.72497 3.2567 1.44975
3.72497 3.2567 1.44975
3.72497 3.2567 1.44975
3.72497 3.2567 1.44975
3.72497 3.2567 1.44975
3.72497 3.2567 1.44975
3.72497 3.2567 1.44975
3.72497 3.2567 1.44975
3.72497 3.2567 1.44975
3.72497 3.2567 1.44975
3.72497 3.2567 1.44975
3.72497 3.2567 1.44975
3.72497 3.2567 1.44975
3.72497 3.2567 1.44975
3.72497 3.2567 1.44975
3.72497 3.2567 1.44975
3.72497 3.2567 1.44975
3.72497 3.2567 1.44975
3.72497 3.2567 1.44975
3.72497 3.2567 1.44975
3.72497 3.2567 1.44975
3.72497 3.2567 1.44975
3.72497 3.2567 1.44975
3.72497 3.2567 1.44975
3.72497 3.2567 1.44975
3.72497 3.2567 1.44975
3.72497 3.2567 1.44975
3.72497 3.2567 1.44975
3.72497 3.2567 1.44975
3.72497 3.2567 1.44975
3.72497 3.2567 1.44975
3.72497 3.2567 1.44975
3.72497 3.2567 1.44975
3.72497 3.2567 1.44975
3.72497 3.2567 1.44975
3.72497 3.2567 1.44975
3.72497 3.2567 1.44975
3.72497 3.2567 1.44975
3.72497 3.2567 1.44975
3.72497 3.2567 1.44975
3.72497 3.2567 1.44975
3.72497 3.2567 1.44975
3.72497 3.2567 1.44975
3.72497 3.2567 1.44975
3.72497 3.2567 1.44975
3.72497 3.2567 1.44975
3.72497 3.2567 1.44975
3.72497 3.2567 1.44975
3.72497 3.2567 1.44975
3.72497 3.2567 1.44975
3.72497 3.2567 1.44975
3.72497 3.2567 1.44975
3.72497 3.2567 1.44975
3.72497 3.2567 1.44975
3.72497 3.2567 1.44975
3.72497 3.2567 1.44975
3.72497 3.2567 1.44975
3.72497 3.2567 1.44975
3.72497 3.2567 1.44975
3.72497 3.2567 1.44975
3.72497 3.2567 1.44975
3.72497 3.2567 1.44975
3.72497 3.2567 1.44975
3.72497 3.2567 1.44975
3.72497 3.2567 1.44975
3.72497 3.2567 1.44975
3.72497 3.2567 1.44975
3.72497 3.2567 1.44975
3.72497 3.2567 1.44975
3.72497 3.2567 1.44975
3.72497 3.2567 1.44975
3.72497 3.2567 1.44975
3.72497 3.2567 1.44975
3.72497 3.2567 1.44975
3.72497 3.2567 1.44975
3.72497 3.2567 1.44934
3.72497 3.2567 1.44891
3.72497 3.2567 1.44843
3.72497 3.2567 1.44843
3.72497 3.2567 1.44843
3.72497 3.2567 1.44843
3.72497 3.2567 1.44843
3.72497 3.2567 1.44843
3.72497 3.2567 1.44843
3.72497 3.2567 1.44843
3.72497 3.2567 1.44843
3.72497 3.2567 1.44843
3.72497 3.2567 1.44843
3.72497 3.2567 1.44843
3.72497 3.2567 1.44843
3.72497 3.2567 1.44843
3.72497 3.2567 1.44843
3.72497 3.2567 1.44843
3.72497 3.2567 1.44843
3.72497 3.2567 1.44843
3.72497 3.2567 1.44843
3.72497 3.2567 1.44843
3.72497 3.2567 1.44843
3.72497 3.2567 1.44843
3.72497 3.2567 1.44843
3.72497 3.2567 1.44843
3.72497 3.2567 1.44843
3.72497 3.2567 1.44843
3.72497 3.2567 1.44843
3.72497 3.2567 1.44843
3.72497 3.2567 1.44843
3.72497 3.2567 1.44843
3.72497 3.2567 1.44843
3.72497 3.2567 1.44843
3.72497 3.2567 1.44843
3.72497 3.2567 1.44843
3.72497 3.2567 1.44843
3.72497 3.2567 1.44843
3.72497 3.2567 1.44843
3.72497 3.2567 1.44843
3.72497 3.2567 1.44843
3.72497 3.2567 1.44843
3.72497 3.2567 1.44843
3.72497 3.2567 1.44843
3.72497 3.2567 1.44843
3.72497 3.2567 1.44843
3.72497 3.2567 1.44843
3.72497 3.2567 1.44843
3.72497 3.2567 1.44843
3.72497 3.2567 1.44843
3.72497 3.2567 1.44843
3.72497 3.2567 1.44843
3.72497 3.2567 1.44843
3.72497 3.2567 1.44843
3.72497 3.2567 1.44843
3.72497 3.2567 1.44843
3.72497 3.2567 1.44843
3.72497 3.2567 1.44843
3.72497 3.2567 1.44843
3.72497 3.2567 1.44843
3.72497 3.2567 1.44843
3.72497 3.2567 1.44843
3.72497 3.2567 1.44843
3.72497 3.2567 1.44843
3.72497 3.2567 1.44843
3.72497 3.2567 1.44843
3.72497 3.2567 1.44843
3.72497 3.2567 1.44843
3.72497 3.2567 1.44843
3.72497 3.2567 1.44843
3.72497 3.2567 1.44843
3.72497 3.2567 1.44843
3.72497 3.2567 1.44843
3.72497 3.2567 1.44843
3.72497 3.2567 1.44843
3.72497 3.2567 1.44843
3.72497 3.2567 1.44843
3.72497 3.2567 1.44843
3.72497 3.2567 1.44843
3.72497 3.2567 1.44843
3.72497 3.2567 1.44843
3.72497 3.2567 1.44843
3.72497 3.2567 1.44843
3.72497 3.2567 1.44843
3.72497 3.2567 1.44843
3.72497 3.2567 1.44843
3.72497 3.2567 1.44843
3.72497 3.2567 1.44843
3.72497 3.2567 1.44843
3.72497 3.2567 1.44843
3.72497 3.2567 1.44843
3.72497 3.2567 1.44761
3.72497 3.2567 1.44739
3.72497 3.2567 1.44711
3.72497 3.2567 1.44695
3.72497 3.2567 1.44639
3.72497 3.2567 1.44571
3.72497 3.2567 1.44541
3.72497 3.2567 1.44509
3.72497 3.2567 1.44438
3.72497 3.2567 1.44382
3.72497 3.2567 1.44371
3.72497 3.2567 1.44364
3.72497 3.2567 1.44361
3.72497 3.2567 1.44358
3.72497 3.2567 1.44345
3.72497 3.2567 1.44338
3.72497 3.2567 1.44318
3.72497 3.2567 1.44271
3.72497 3.2567 1.44207
3.72497 3.2567 1.44127
3.72497 3.2567 1.44037
3.72497 3.2567 1.43951
3.72497 3.2567 1.43867
3.72497 3.2567 1.43776
3.72497 3.2567 1.43678
3.72497 3.2567 1.43564
3.72497 3.2567 1.43441
3.72497 3.2567 1.43326
3.72497 3.2567 1.43235
3.72497 3.2567 1.43167
3.72497 3.2567 1.43103
3.72497 3.2567 1.43037
3.72497 3.2567 1.42972
3.72497 3.2567 1.42922
3.72497 3.2567 1.42904
3.72497 3.2567 1.42892
3.72497 3.2567 1.42811
3.72497 3.2567 1.4265
3.72497 3.2567 1.42392
3.72497 3.2567 1.42036
3.72497 3.2567 1.41595
3.72497 3.2567 1.41463
3.72497 3.2567 1.41463
3.72497 3.2567 1.41463
3.72497 3.2567 1.41463
3.72497 3.2567 1.41463
3.72497 3.2567 1.41463
3.72497 3.2567 1.41463
3.72497 3.2567 1.41463
3.72497 3.2567 1.41463
3.72497 3.2567 1.41463
3.72497 3.2567 1.41463
3.72497 3.2567 1.41463
3.72497 3.2567 1.41463
3.72497 3.2567 1.41463
3.72497 3.2567 1.41463
3.72497 3.2567 1.41463
3.72497 3.2567 1.41463
3.72497 3.2567 1.41463
3.72497 3.2567 1.41463
3.72497 3.2567 1.41463
3.72497 3.2567 1.41463
3.72497 3.2567 1.41463
3.72497 3.2567 1.41463
3.72497 3.2567 1.41463
3.72497 3.2567 1.41463
3.72497 3.2567 1.41463
3.72497 3.2567 1.41463
3.72497 3.2567 1.41463
3.72497 3.2567 1.40746
3.72497 3.2567 1.40261
3.72497 3.2567 1.4
3.72497 3.2567 1.39841
3.72497 3.2567 1.39714
3.72497 3.2567 1.39537
3.72497 3.2567 1.39279
3.72497 3.2567 1.38953
3.72497 3.2567 1.38602
3.72497 3.2567 1.38313
3.72497 3.2567 1.38195
3.72497 3.2567 1.38175
3.72497 3.2567 1.38092
3.72497 3.2567 1.37864
3.72497 3.2567 1.37524
3.72497 3.2567 1.37204
3.72497 3.2567 1.37001
3.72497 3.2567 1.36907
3.72497 3.2567 1.36834
3.72497 3.2567 1.36702
3.72497 3.2567 1.365
3.72497 3.2567 1.36278
3.72497 3.2567 1.36098
3.72497 3.2567 1.35981
3.72497 3.2567 1.35903
3.72497 3.2567 1.35823
3.72497 3.2567 1.35697
3.72497 3.2567 1.35477
3.72497 3.2567 1.35281
3.72497 3.2567 1.35157
3.72497 3.2567 1.35054
3.72497 3.2567 1.34898
3.72497 3.2567 1.34709
3.72497 3.2567 1.34535
3.72497 3.2567 1.34364
3.72497 3.2567 1.34198
3.72497 3.2567 1.34029
3.72497 3.2567 1.3385
3.72497 3.2567 1.33663
3.72497 3.2567 1.33472
3.72497 3.2567 1.33281
3.72497 3.2567 1.33096
3.72497 3.2567 1.32915
3.72497 3.2567 1.32734
3.72497 3.2567 1.32549
3.72497 3.2567 1.32354
3.72497 3.2567 1.32154
3.72497 3.2567 1.31959
3.72497 3.2567 1.31776
3.72497 3.2567 1.31611
3.72497 3.2567 1.31464
3.72497 3.2567 1.31326
3.72497 3.2567 1.3119
3.72497 3.2567 1.31059
3.72497 3.2567 1.30939
3.72497 3.2567 1.30839
3.72497 3.2567 1.30767
3.72497 3.2567 1.30726
3.72497 3.2567 1.30717
3.72497 3.2567 1.3071
3.72497 3.2567 1.30638
3.72497 3.2567 1.30458
3.72497 3.2567 1.30133
3.72497 3.2567 1.29671
3.72497 3.2567 1.29111
3.72497 3.2567 1.28498
3.72497 3.2567 1.2788
3.72497 3.2567 1.27312
3.72497 3.2567 1.26787
3.72497 3.2567 1.2623
3.72497 3.2567 1.25603
3.72497 3.2567 1.24932
3.72497 3.2567 1.2442
3.72497 3.2567 1.2442
3.72497 3.2567 1.2442
3.72497 3.2567 1.2442
3.72497 3.2567 1.2442
3.72497 3.2567 1.2442
3.72497 3.2567 1.2442
3.72497 3.2567 1.2442
3.72497 3.2567 1.2442
3.72497 3.2567 1.2442
3.72497 3.2567 1.2442
3.72497 3.2567 1.2442
3.72497 3.2567 1.2442
3.72497 3.2567 1.2442
3.72497 3.2567 1.2442
3.72497 3.2567 1.2442
3.72497 3.2567 1.2442
3.72497 3.2567 1.2442
3.72497 3.2567 1.2442
3.72497 3.2567 1.2442
3.72497 3.2567 1.2442
3.72497 3.2567 1.2442
3.72497 3.2567 1.2442
3.72497 3.2567 1.2442
3.72497 3.2567 1.2442
3.72497 3.2567 1.2442
3.72497 3.2567 1.2442
3.72497 3.2567 1.2442
3.72497 3.2567 1.2442
3.72497 3.2567 1.2442
3.72497 3.2567 1.2442
3.72497 3.2567 1.2442
3.72497 3.2567 1.2442
3.72497 3.2567 1.2442
3.72497 3.2567 1.2442
3.72497 3.2567 1.2442
3.72497 3.2567 1.2442
3.72497 3.2567 1.2442
3.72497 3.2567 1.2442
3.72497 3.2567 1.2442
3.72497 3.2567 1.2442
3.72497 3.2567 1.2442
3.72497 3.2567 1.2442
3.72497 3.2567 1.2442
3.72497 3.2567 1.2442
3.72497 3.2567 1.2442
3.72497 3.2567 1.2442
3.72497 3.2567 1.2442
3.72497 3.2567 1.2442
3.72497 3.2567 1.2442
3.72497 3.2567 1.2442
3.72497 3.2567 1.2442
3.72497 3.2567 1.2442
3.72497 3.2567 1.2442
3.72497 3.2567 1.2442
3.72497 3.2567 1.2442
3.72497 3.2567 1.2442
3.72497 3.2567 1.2442
3.72497 3.2567 1.2442
3.72497 3.2567 1.2442
3.72497 3.2567 1.2442
3.72497 3.2567 1.2442
3.72497 3.2567 1.2442
3.72497 3.2567 1.2442
3.72497 3.2567 1.2442
3.72497 3.2567 1.2442
3.72497 3.2567 1.2442
3.72497 3.2567 1.2442
3.72497 3.2567 1.2442
3.72497 3.2567 1.2442
3.72497 3.2567 1.2442
3.72497 3.2567 1.2442
3.72497 3.2567 1.2442
3.72497 3.2567 1.2442
3.72497 3.2567 1.2442
3.72497 3.2567 1.2442
3.72497 3.2567 1.2442
3.72497 3.2567 1.2442
3.72497 3.2567 1.2442
3.72497 3.2567 1.2442
3.72497 3.2567 1.2442
3.72497 3.2567 1.2442
3.72497 3.2567 1.2442
3.72497 3.2567 1.2442
3.72497 3.2567 1.2442
3.72497 3.2567 1.2435
3.72497 3.2567 1.2435
3.72497 3.2567 1.2435
3.72497 3.2567 1.2435
3.72497 3.2567 1.2435
3.72497 3.2567 1.2435
3.72497 3.2567 1.2435
3.72497 3.2567 1.2435
3.72497 3.2567 1.2435
3.72497 3.2567 1.2435
3.72497 3.2567 1.2435
3.72497 3.2567 1.2435
3.72497 3.2567 1.2435
3.72497 3.2567 1.2435
3.72497 3.2567 1.2435
3.72497 3.2567 1.2435
3.72497 3.2567 1.2435
3.72497 3.2567 1.2435
3.72497 3.2567 1.2435
3.72497 3.2567 1.2435
3.72497 3.2567 1.2435
3.72497 3.2567 1.2435
3.72497 3.2567 1.2435
3.72497 3.2567 1.2435
3.72497 3.2567 1.2435
3.72497 3.2567 1.2435
3.72497 3.2567 1.2435
3.72497 3.2567 1.2435
3.72497 3.2567 1.2435
3.72497 3.2567 1.2435
3.72497 3.2567 1.2435
3.72497 3.2567 1.2435
3.72497 3.2567 1.2435
3.72497 3.2567 1.2435
3.72497 3.2567 1.2435
3.72497 3.2567 1.2435
3.72497 3.2567 1.2435
3.72497 3.2567 1.2435
3.72497 3.2567 1.2435
3.72497 3.2567 1.2435
3.72497 3.2567 1.2435
3.72497 3.2567 1.2435
3.72497 3.2567 1.2435
3.72497 3.2567 1.2435
3.72497 3.2567 1.2435
3.72497 3.2567 1.2435
3.72497 3.2567 1.2435
3.72497 3.2567 1.2435
3.72497 3.2567 1.2435
3.72497 3.2567 1.2435
3.72497 3.2567 1.2435
3.72497 3.2567 1.2435
3.72497 3.2567 1.2435
3.72497 3.2567 1.2435
3.72497 3.2567 1.2435
3.72497 3.2567 1.2435
3.72497 3.2567 1.2435
3.72497 3.2567 1.2435
3.72497 3.2567 1.2435
3.72497 3.2567 1.2435
3.72497 3.2567 1.2435
3.72497 3.2567 1.2435
3.72497 3.2567 1.2435
3.72497 3.2567 1.2435
3.72497 3.2567 1.2435
3.72497 3.2567 1.2435
3.72497 3.2567 1.2435
3.72497 3.2567 1.2435
3.72497 3.2567 1.2435
3.72497 3.2567 1.2435
3.72497 3.2567 1.2435
3.72497 3.2567 1.2435
3.72497 3.2567 1.2435
3.72497 3.2567 1.2435
3.72497 3.2567 1.2435
3.72497 3.2567 1.2435
3.72497 3.2567 1.2435
3.72497 3.2567 1.2435
3.72497 3.2567 1.2435
3.72497 3.2567 1.2435
3.72497 3.2567 1.2435
3.72497 3.2567 1.2435
3.72497 3.2567 1.2435
3.72497 3.2567 1.2435
3.72497 3.2567 1.2435
3.72497 3.2567 1.2435
3.72497 3.2567 1.2435
3.72497 3.2567 1.2435
3.72497 3.2567 1.2435
3.72497 3.2567 1.2435
3.72497 3.2567 1.2435
3.72497 3.2567 1.2435
3.72497 3.2567 1.2435
3.72497 3.2567 1.2435
3.72497 3.2567 1.2435
3.72497 3.2567 1.2435
3.72497 3.2567 1.2435
3.72497 3.2567 1.2435
3.72497 3.2567 1.2435
3.72497 3.2567 1.2435
3.72497 3.2567 1.2435
3.72497 3.2567 1.2435
3.72497 3.2567 1.2435
3.72497 3.2567 1.2435
3.72497 3.2567 1.2435
3.72497 3.2567 1.2435
3.72497 3.2567 1.2435
3.72497 3.2567 1.2435
3.72497 3.2567 1.2435
3.72497 3.2567 1.2435
3.72497 3.2567 1.2435
3.72497 3.2567 1.2435
3.72497 3.2567 1.2435
3.72497 3.2567 1.2435
3.72497 3.2567 1.2435
3.72497 3.2567 1.2435
3.72497 3.2567 1.2435
3.72497 3.2567 1.2435
3.72497 3.2567 1.2435
3.72497 3.2567 1.2435
3.72497 3.2567 1.2435
3.72497 3.2567 1.2435
3.72497 3.2567 1.2435
3.72497 3.2567 1.2435
3.72497 3.2567 1.2435
3.72497 3.2567 1.2435
3.72497 3.2567 1.2435
3.72497 3.2567 1.2435
3.72497 3.2567 1.2435
3.72497 3.2567 1.2435
3.72497 3.2567 1.2435
3.72497 3.2567 1.2435
3.72497 3.2567 1.2435
3.72497 3.2567 1.2435
3.72497 3.2567 1.2435
3.72497 3.2567 1.2435
3.72497 3.2567 1.2435
3.72497 3.2567 1.2435
3.72497 3.2567 1.2435
3.72497 3.2567 1.2435
3.72497 3.2567 1.2435
3.72497 3.2567 1.2435
3.72497 3.2567 1.2435
3.72497 3.2567 1.2435
3.72497 3.2567 1.2435
3.72497 3.2567 1.2435
3.72497 3.2567 1.2435
3.72497 3.2567 1.2435
3.72497 3.2567 1.2435
3.72497 3.2567 1.2435
3.72497 3.2567 1.2435
3.72497 3.2567 1.2435
3.72497 3.2567 1.2435
3.72497 3.2567 1.2435
3.72497 3.2567 1.2435
3.72497 3.2567 1.2435
3.72497 3.2567 1.2435
3.72497 3.2567 1.2435
3.72497 3.2567 1.2435
3.72497 3.2567 1.2435
3.72497 3.2567 1.2435
3.72497 3.2567 1.2435
3.72497 3.2567 1.2435
3.72497 3.2567 1.2435
3.72497 3.2567 1.2435
3.72497 3.2567 1.2435
3.72497 3.2567 1.2435
3.72497 3.2567 1.2435
3.72497 3.2567 1.2435
3.72497 3.2567 1.2435
3.72497 3.2567 1.2435
3.72497 3.2567 1.2435
3.72497 3.2567 1.2435
3.72497 3.2567 1.2435
3.72497 3.2567 1.2435
3.72497 3.2567 1.2435
3.72497 3.2567 1.2435
3.72497 3.2567 1.2435
3.72497 3.2567 1.2435
3.72497 3.2567 1.2435
3.72497 3.2567 1.2435
3.72497 3.2567 1.2435
3.72497 3.2567 1.2435
3.72497 3.2567 1.2435
3.72497 3.2567 1.2435
3.72497 3.2567 1.2435
3.72497 3.2567 1.2435
3.72497 3.2567 1.2435
3.72497 3.2567 1.2435
3.72497 3.2567 1.2435
3.72497 3.2567 1.2435
3.72497 3.2567 1.2435
3.72497 3.2567 1.2435
3.72497 3.2567 1.2435
3.72497 3.2567 1.2435
3.72497 3.2567 1.2435
3.72497 3.2567 1.2435
3.72497 3.2567 1.2435
3.72497 3.2567 1.2435
3.72497 3.2567 1.2435
3.72497 3.2567 1.2435
3.72497 3.2567 1.2435
3.72497 3.2567 1.2435
3.72497 3.2567 1.2435
3.72497 3.2567 1.2435
3.72497 3.2567 1.2435
3.72497 3.2567 1.2435
3.72497 3.2567 1.2435
3.72497 3.2567 1.2435
3.72497 3.2567 1.2435
3.72497 3.2567 1.2435
3.72497 3.2567 1.2435
3.72497 3.2567 1.2435
3.72497 3.2567 1.2435
3.72497 3.2567 1.2435
3.72497 3.2567 1.2435
3.72497 3.2567 1.2435
3.72497 3.2567 1.2435
3.72497 3.2567 1.2435
3.72497 3.2567 1.2435
3.72497 3.2567 1.2435
3.72497 3.2567 1.2435
3.72497 3.2567 1.2435
3.72497 3.2567 1.2435
3.72497 3.2567 1.2435
3.72497 3.2567 1.2435
3.72497 3.2567 1.2435
3.72497 3.2567 1.2435
3.72497 3.2567 1.2435
3.72497 3.2567 1.2435
3.72497 3.2567 1.2435
3.72497 3.2567 1.2435
3.72497 3.2567 1.2435
3.72497 3.2567 1.2435
3.72497 3.2567 1.2435
3.72497 3.2567 1.2435
3.72497 3.2567 1.2435
3.72497 3.2567 1.2435
3.72497 3.2567 1.2435
3.72497 3.2567 1.2435
3.72497 3.2567 1.2435
3.72497 3.2567 1.2435
3.72497 3.2567 1.2435
3.72497 3.2567 1.2435
3.72497 3.2567 1.2435
3.72497 3.2567 1.2435
3.72497 3.2567 1.2435
3.72497 3.2567 1.2435
3.72497 3.2567 1.2435
3.72497 3.2567 1.2435
3.72497 3.2567 1.2435
3.72497 3.2567 1.2435
3.72497 3.2567 1.2435
3.72497 3.2567 1.2435
3.72497 3.2567 1.2435
3.72497 3.2567 1.2435
3.72497 3.2567 1.2435
3.72497 3.2567 1.2435
3.72497 3.2567 1.2435
3.72497 3.2567 1.2435
3.72497 3.2567 1.2435
3.72497 3.2567 1.2435
3.72497 3.2567 1.2435
3.72497 3.2567 1.2435
3.72497 3.2567 1.2435
3.72497 3.2567 1.2435
3.72497 3.2567 1.2435
3.72497 3.2567 1.2435
3.72497 3.2567 1.2435
3.72497 3.2567 1.2435
3.72497 3.2567 1.2435
3.72497 3.2567 1.2435
3.72497 3.2567 1.2435
3.72497 3.2567 1.2435
3.72497 3.2567 1.2435
3.72497 3.2567 1.2435
3.72497 3.2567 1.2435
3.72497 3.2567 1.2435
3.72497 3.2567 1.2435
3.72497 3.2567 1.2435
3.72497 3.2567 1.2435
3.72497 3.2567 1.2435
3.72497 3.2567 1.2435
3.72497 3.2567 1.2435
3.72497 3.2567 1.2435
3.72497 3.2567 1.2435
3.72497 3.2567 1.2435
3.72497 3.2567 1.2435
3.72497 3.2567 1.2435
3.72497 3.2567 1.2435
3.72497 3.2567 1.2435
3.72497 3.2567 1.2435
3.72497 3.2567 1.2435
3.72497 3.2567 1.2435
3.72497 3.2567 1.2435
3.72497 3.2567 1.2435
3.72497 3.2567 1.2435
3.72497 3.2567 1.2435
3.72497 3.2567 1.2435
3.72497 3.2567 1.2435
3.72497 3.2567 1.2435
3.72497 3.2567 1.2435
3.72497 3.2567 1.2435
3.72497 3.2567 1.2435
3.72497 3.2567 1.2435
3.72497 3.2567 1.2435
3.72497 3.2567 1.2435
3.72497 3.2567 1.2435
3.72497 3.2567 1.2435
3.72497 3.2567 1.2435
3.72497 3.2567 1.2435
3.72497 3.2567 1.2435
3.72497 3.2567 1.2435
3.72497 3.2567 1.2435
3.72497 3.2567 1.2435
3.72497 3.2567 1.2435
3.72497 3.2567 1.2435
3.72497 3.2567 1.2435
3.72497 3.2567 1.2435
3.72497 3.2567 1.2435
3.72497 3.2567 1.2435
3.72497 3.2567 1.2435
3.72497 3.2567 1.2435
3.72497 3.2567 1.2435
3.72497 3.2567 1.2435
3.72497 3.2567 1.2435
3.72497 3.2567 1.2435
3.72497 3.2567 1.2435
3.72497 3.2567 1.2435
3.72497 3.2567 1.2435
3.72497 3.2567 1.2435
3.72497 3.2567 1.2435
3.72497 3.2567 1.2435
3.72497 3.2567 1.2435
3.72497 3.2567 1.2435
3.72497 3.2567 1.2435
3.72497 3.2567 1.2435
3.72497 3.2567 1.2435
3.72497 3.2567 1.2435
3.72497 3.2567 1.2435
3.72497 3.2567 1.2435
3.72497 3.2567 1.2435
3.72497 3.2567 1.2435
3.72497 3.2567 1.2435
3.72497 3.2567 1.2435
3.72497 3.2567 1.2435
3.72497 3.2567 1.2435
3.72497 3.2567 1.2435
3.72497 3.2567 1.2435
3.72497 3.2567 1.2435
3.72497 3.2567 1.2435
3.72497 3.2567 1.2435
3.72497 3.2567 1.2435
3.72497 3.2567 1.2435
3.72497 3.2567 1.2435
3.72497 3.2567 1.2435
3.72497 3.2567 1.2435
3.72497 3.2567 1.2435
3.72497 3.2567 1.2435
3.72497 3.2567 1.2435
3.72497 3.2567 1.2435
3.72497 3.2567 1.2435
3.72497 3.2567 1.2435
3.72497 3.2567 1.2435
3.72497 3.2567 1.2435
3.72497 3.2567 1.2435
3.72497 3.2567 1.2435
3.72497 3.2567 1.2435
3.72497 3.2567 1.2435
3.72497 3.2567 1.2435
3.72497 3.2567 1.2435
3.72497 3.2567 1.2435
3.72497 3.2567 1.2435
3.72497 3.2567 1.2435
3.72497 3.2567 1.2435
3.72497 3.2567 1.2435
3.72497 3.2567 1.2435
3.72497 3.2567 1.2435
3.72497 3.2567 1.2435
3.72497 3.2567 1.2435
3.72497 3.2567 1.2435
3.72497 3.2567 1.2435
3.72497 3.2567 1.2435
3.72497 3.2567 1.2435
3.72497 3.2567 1.2435
3.72497 3.2567 1.2435
3.72497 3.2567 1.2435
3.72497 3.2567 1.2435
3.72497 3.2567 1.2435
3.72497 3.2567 1.2435
3.72497 3.2567 1.2435
3.72497 3.2567 1.2435
3.72497 3.2567 1.2435
3.72497 3.2567 1.2435
3.72497 3.2567 1.2435
3.72497 3.2567 1.2435
3.72497 3.2567 1.2435
3.72497 3.2567 1.2435
3.72497 3.2567 1.2435
3.72497 3.2567 1.2435
3.72497 3.2567 1.2435
3.72497 3.2567 1.2435
3.72497 3.2567 1.2435
3.72497 3.2567 1.2435
3.72497 3.2567 1.2435
3.72497 3.2567 1.2435
3.72497 3.2567 1.2435
3.72497 3.2567 1.2435
3.72497 3.2567 1.2435
3.72497 3.2567 1.2435
3.72497 3.2567 1.2435
3.72497 3.2567 1.2435
3.72497 3.2567 1.2435
3.72497 3.2567 1.2435
3.72497 3.2567 1.2435
3.72497 3.2567 1.2435
3.72497 3.2567 1.2435
3.72497 3.2567 1.2435
3.72497 3.2567 1.2435
3.72497 3.2567 1.2435
3.72497 3.2567 1.2435
3.72497 3.2567 1.2435
3.72497 3.2567 1.2435
3.72497 3.2567 1.2435
3.72497 3.2567 1.2435
3.72497 3.2567 1.2435
3.72497 3.2567 1.2435
3.72497 3.2567 1.2435
3.72497 3.2567 1.2435
3.72497 3.2567 1.2435
3.72497 3.2567 1.2435
3.72497 3.2567 1.2435
3.72497 3.2567 1.2435
3.72497 3.2567 1.2435
3.72497 3.2567 1.2435
3.72497 3.2567 1.2435
3.72497 3.2567 1.2435
3.72497 3.2567 1.2435
3.72497 3.2567 1.2435
3.72497 3.2567 1.2435
3.72497 3.2567 1.2435
3.72497 3.2567 1.2435
3.72497 3.2567 1.2435
3.72497 3.2567 1.2435
3.72497 3.2567 1.2435
3.72497 3.2567 1.2435
3.72497 3.2567 1.2435
3.72497 3.2567 1.2435
3.72497 3.2567 1.2435
3.72497 3.2567 1.2435
3.72497 3.2567 1.2435
3.72497 3.2567 1.2435
3.72497 3.2567 1.2435
3.72497 3.2567 1.2435
3.72497 3.2567 1.2435
3.72497 3.2567 1.2435
3.72497 3.2567 1.2435
3.72497 3.2567 1.2435
3.72497 3.2567 1.2435
3.72497 3.2567 1.2435
3.72497 3.2567 1.2435
3.72497 3.2567 1.2435
3.72497 3.2567 1.2435
3.72497 3.2567 1.2435
3.72497 3.2567 1.2435
3.72497 3.2567 1.2435
3.72497 3.2567 1.2435
3.72497 3.2567 1.2435
3.72497 3.2567 1.2435
3.72497 3.2567 1.2435
3.72497 3.2567 1.2435
3.72497 3.2567 1.2435
3.72497 3.2567 1.2435
3.72497 3.2567 1.2435
3.72497 3.2567 1.2435
3.72497 3.2567 1.2435
3.72497 3.2567 1.2435
3.72497 3.2567 1.2435
3.72497 3.2567 1.2435
3.72497 3.2567 1.2435
3.72497 3.2567 1.2435
3.72497 3.2567 1.2435
3.72497 3.2567 1.2435
3.72497 3.2567 1.2435
3.72497 3.2567 1.2435
3.72497 3.2567 1.2435
3.72497 3.2567 1.2435
3.72497 3.2567 1.2435
3.72497 3.2567 1.2435
3.72497 3.2567 1.2435
3.72497 3.2567 1.2435
3.72497 3.2567 1.2435
3.72497 3.2567 1.2435
3.72497 3.2567 1.2435
3.72497 3.2567 1.2435
3.72497 3.2567 1.2435
3.72497 3.2567 1.2435
3.72497 3.2567 1.2435
3.72497 3.2567 1.2435
3.72497 3.2567 1.2435
3.72497 3.2567 1.2435
3.72497 3.2567 1.2435
3.72497 3.2567 1.2435
3.72497 3.2567 1.2435
3.72497 3.2567 1.2435
3.72497 3.2567 1.2435
3.72497 3.2567 1.2435
3.72497 3.2567 1.2435
3.72497 3.2567 1.2435
3.72497 3.2567 1.2435
3.72497 3.2567 1.2435
3.72497 3.2567 1.2435
3.72497 3.2567 1.2435
3.72497 3.2567 1.2435
3.72497 3.2567 1.2435
3.72497 3.2567 1.2435
3.72497 3.2567 1.2435
3.72497 3.2567 1.2435
3.72497 3.2567 1.2435
3.72497 3.2567 1.2435
3.72497 3.2567 1.2435
3.72497 3.2567 1.2435
3.72497 3.2567 1.2435
3.72497 3.2567 1.2435
3.72497 3.2567 1.2435
3.72497 3.2567 1.2435
3.72497 3.2567 1.2435
3.72497 3.2567 1.2435
3.72497 3.2567 1.2435
3.72497 3.2567 1.2435
3.72497 3.2567 1.2435
3.72497 3.2567 1.2435
3.72497 3.2567 1.2435
3.72497 3.2567 1.2435
3.72497 3.2567 1.2435
3.72497 3.2567 1.2435
3.72497 3.2567 1.2435
3.72497 3.2567 1.2435
3.72497 3.2567 1.2435
3.72497 3.2567 1.2435
3.72497 3.2567 1.2435
3.72497 3.2567 1.2435
3.72497 3.2567 1.2435
3.72497 3.2567 1.2435
3.72497 3.2567 1.2435
3.72497 3.2567 1.2435
3.72497 3.2567 1.2435
3.72497 3.2567 1.2435
3.72497 3.2567 1.2435
3.72497 3.2567 1.2435
3.72497 3.2567 1.2435
3.72497 3.2567 1.2435
3.72497 3.2567 1.2435
3.72497 3.2567 1.2435
3.72497 3.2567 1.2435
3.72497 3.2567 1.2435
3.72497 3.2567 1.2435
3.72497 3.2567 1.2435
3.72497 3.2567 1.2435
3.72497 3.2567 1.2435
3.72497 3.2567 1.2435
3.72497 3.2567 1.2435
3.72497 3.2567 1.2435
3.72497 3.2567 1.2435
3.72497 3.2567 1.2435
3.72497 3.2567 1.2435
3.72497 3.2567 1.2435
3.72497 3.2567 1.2435
3.72497 3.2567 1.2435
3.72497 3.2567 1.2435
3.72497 3.2567 1.2435
3.72497 3.2567 1.2435
3.72497 3.2567 1.2435
3.72497 3.2567 1.2435
3.72497 3.2567 1.2435
3.72497 3.2567 1.2435
3.72497 3.2567 1.2435
3.72497 3.2567 1.2435
3.72497 3.2567 1.2435
3.72497 3.2567 1.2435
3.72497 3.2567 1.2435
3.72497 3.2567 1.2435
3.72497 3.2567 1.2435
3.72497 3.2567 1.2435
3.72497 3.2567 1.2435
3.72497 3.2567 1.2435
3.72497 3.2567 1.2435
3.72497 3.2567 1.2435
3.72497 3.2567 1.2435
3.72497 3.2567 1.2435
3.72497 3.2567 1.2435
3.72497 3.2567 1.2435
3.72497 3.2567 1.2435
3.72497 3.2567 1.2435
3.72497 3.2567 1.2435
3.72497 3.2567 1.2435
3.72497 3.2567 1.2435
3.72497 3.2567 1.2435
3.72497 3.2567 1.2435
3.72497 3.2567 1.2435
3.72497 3.2567 1.2435
3.72497 3.2567 1.2435
3.72497 3.2567 1.2435
3.72497 3.2567 1.2435
3.72497 3.2567 1.2435
3.72497 3.2567 1.2435
3.72497 3.2567 1.2435
3.72497 3.2567 1.2435
3.72497 3.2567 1.2435
3.72497 3.2567 1.2435
3.72497 3.2567 1.2435
3.72497 3.2567 1.2435
3.72497 3.2567 1.2435
3.72497 3.2567 1.2435
3.72497 3.2567 1.2435
3.72497 3.2567 1.2435
3.72497 3.2567 1.2435
3.72497 3.2567 1.2435
3.72497 3.2567 1.2435
3.72497 3.2567 1.2435
3.72497 3.2567 1.2435
3.72497 3.2567 1.2435
3.72497 3.2567 1.2435
3.72497 3.2567 1.2435
3.72497 3.2567 1.2435
3.72497 3.2567 1.2435
3.72497 3.2567 1.2435
3.72497 3.2567 1.2435
3.72497 3.2567 1.2435
3.72497 3.2567 1.2435
3.72497 3.2567 1.2435
3.72497 3.2567 1.2435
3.72497 3.2567 1.2435
3.72497 3.2567 1.2435
3.72497 3.2567 1.2435
3.72497 3.2567 1.2435
3.72497 3.2567 1.2435
3.72497 3.2567 1.2435
3.72497 3.2567 1.2435
3.72497 3.2567 1.2435
3.72497 3.2567 1.2435
3.72497 3.2567 1.2435
3.72497 3.2567 1.2435
3.72497 3.2567 1.2435
3.72497 3.2567 1.2435
3.72497 3.2567 1.2435
3.72497 3.2567 1.2435
3.72497 3.2567 1.2435
3.72497 3.2567 1.2435
3.72497 3.2567 1.2435
3.72497 3.2567 1.2435
3.72497 3.2567 1.2435
3.72497 3.2567 1.2435
3.72497 3.2567 1.2435
3.72497 3.2567 1.2435
3.72497 3.2567 1.2435
3.72497 3.2567 1.2435
3.72497 3.2567 1.2435
3.72497 3.2567 1.2435
3.72497 3.2567 1.2435
3.72497 3.2567 1.2435
3.72497 3.2567 1.2435
3.72497 3.2567 1.2435
3.72497 3.2567 1.2435
3.72497 3.2567 1.2435
3.72497 3.2567 1.2435
3.72497 3.2567 1.2435
3.72497 3.2567 1.2435
3.72497 3.2567 1.2435
3.72497 3.2567 1.2435
3.72497 3.2567 1.2435
3.72497 3.2567 1.2435
3.72497 3.2567 1.2435
3.72497 3.2567 1.2435
3.72497 3.2567 1.2435
3.72497 3.2567 1.2435
3.72497 3.2567 1.2435
3.72497 3.2567 1.2435
3.72497 3.2567 1.2435
3.72497 3.2567 1.2435
3.72497 3.2567 1.2435
3.72497 3.2567 1.2435
3.72497 3.2567 1.2435
3.72497 3.2567 1.2435
3.72497 3.2567 1.2435
3.72497 3.2567 1.2435
3.72497 3.2567 1.2435
3.72497 3.2567 1.2435
3.72497 3.2567 1.2435
3.72497 3.2567 1.2435
3.72497 3.2567 1.2435
3.72497 3.2567 1.2435
3.72497 3.2567 1.2435
3.72497 3.2567 1.2435
3.72497 3.2567 1.2435
3.72497 3.2567 1.2435
3.72497 3.2567 1.2435
3.72497 3.2567 1.2435
3.72497 3.2567 1.2435
3.72497 3.2567 1.2435
3.72497 3.2567 1.2435
3.72497 3.2567 1.2435
3.72497 3.2567 1.2435
3.72497 3.2567 1.2435
3.72497 3.2567 1.2435
3.72497 3.2567 1.2435
3.72497 3.2567 1.2435
3.72497 3.2567 1.2435
3.72497 3.2567 1.2435
3.72497 3.2567 1.2435
3.72497 3.2567 1.2435
3.72497 3.2567 1.2435
3.72497 3.2567 1.2435
3.72497 3.2567 1.2435
3.72497 3.2567 1.2435
3.72497 3.2567 1.2435
3.72497 3.2567 1.2435
3.72497 3.2567 1.2435
3.72497 3.2567 1.2435
3.72497 3.2567 1.2435
3.72497 3.2567 1.2435
3.72497 3.2567 1.2435
3.72497 3.2567 1.2435
3.72497 3.2567 1.2435
3.72497 3.2567 1.2435
3.72497 3.2567 1.2435
3.72497 3.2567 1.2435
3.72497 3.2567 1.2435
3.72497 3.2567 1.2435
3.72497 3.2567 1.2435
3.72497 3.2567 1.2435
3.72497 3.2567 1.2435
3.72497 3.2567 1.2435
3.72497 3.2567 1.2435
3.72497 3.2567 1.2435
3.72497 3.2567 1.2435
3.72497 3.2567 1.2435
3.72497 3.2567 1.2435
3.72497 3.2567 1.2435
3.72497 3.2567 1.2435
3.72497 3.2567 1.2435
3.72497 3.2567 1.2435
3.72497 3.2567 1.2435
3.72497 3.2567 1.2435
3.72497 3.2567 1.2435
3.72497 3.2567 1.2435
3.72497 3.2567 1.2435
3.72497 3.2567 1.2435
3.72497 3.2567 1.2435
3.72497 3.2567 1.2435
3.72497 3.2567 1.2435
3.72497 3.2567 1.2435
3.72497 3.2567 1.2435
3.72497 3.2567 1.2435
3.72497 3.2567 1.2435
3.72497 3.2567 1.2435
3.72497 3.2567 1.2435
3.72497 3.2567 1.2435
3.72497 3.2567 1.2435
3.72497 3.2567 1.2435
3.72497 3.2567 1.2435
3.72497 3.2567 1.2435
3.72497 3.2567 1.2435
3.72497 3.2567 1.2435
3.72497 3.2567 1.2435
3.72497 3.2567 1.2435
3.72497 3.2567 1.2435
3.72497 3.2567 1.2435
3.72497 3.2567 1.2435
3.72497 3.2567 1.2435
3.72497 3.2567 1.2435
3.72497 3.2567 1.2435
3.72497 3.2567 1.2435
3.72497 3.2567 1.2435
3.72497 3.2567 1.2435
3.72497 3.2567 1.2435
3.72497 3.2567 1.2435
3.72497 3.2567 1.2435
3.72497 3.2567 1.2435
3.72497 3.2567 1.2435
3.72497 3.2567 1.2435
3.72497 3.2567 1.2435
3.72497 3.2567 1.2435
3.72497 3.2567 1.2435
3.72497 3.2567 1.2435
3.72497 3.2567 1.2435
3.72497 3.2567 1.2435
3.72497 3.2567 1.2435
3.72497 3.2567 1.2435
3.72497 3.2567 1.2435
3.72497 3.2567 1.2435
3.72497 3.2567 1.2435
3.72497 3.2567 1.2435
3.72497 3.2567 1.2435
3.72497 3.2567 1.2435
3.72497 3.2567 1.2435
3.72497 3.2567 1.2435
3.72497 3.2567 1.2435
3.72497 3.2567 1.2435
3.72497 3.2567 1.2435
3.72497 3.2567 1.2435
3.72497 3.2567 1.2435
3.72497 3.2567 1.2435
3.72497 3.2567 1.2435
3.72497 3.2567 1.2435
3.72497 3.2567 1.2435
3.72497 3.2567 1.2435
3.72497 3.2567 1.2435
3.72497 3.2567 1.2435
3.72497 3.2567 1.2435
3.72497 3.2567 1.2435
3.72497 3.2567 1.2435
3.72497 3.2567 1.2435
3.72497 3.2567 1.2435
3.72497 3.2567 1.2435
3.72497 3.2567 1.2435
3.72497 3.2567 1.2435
3.72497 3.2567 1.2435
3.72497 3.2567 1.2435
3.72497 3.2567 1.2435
3.72497 3.2567 1.2435
3.72497 3.2567 1.2435
3.72497 3.2567 1.2435
3.72497 3.2567 1.2435
3.72497 3.2567 1.2435
3.72497 3.2567 1.2435
3.72497 3.2567 1.2435
3.72497 3.2567 1.2435
3.72497 3.2567 1.2435
3.72497 3.2567 1.2435
3.72497 3.2567 1.2435
3.72497 3.2567 1.2435
3.72497 3.2567 1.2435
3.72497 3.2567 1.2435
3.72497 3.2567 1.2435
3.72497 3.2567 1.2435
3.72497 3.2567 1.2435
3.72497 3.2567 1.2435
3.72497 3.2567 1.2435
3.72497 3.2567 1.2435
3.72497 3.2567 1.2435
3.72497 3.2567 1.2435
3.72497 3.2567 1.2435
3.72497 3.2567 1.2435
3.72497 3.2567 1.2435
3.72497 3.2567 1.2435
3.72497 3.2567 1.2435
3.72497 3.2567 1.2435
3.72497 3.2567 1.2435
3.72497 3.2567 1.2435
3.72497 3.2567 1.2435
3.72497 3.2567 1.2435
3.72497 3.2567 1.2435
3.72497 3.2567 1.2435
3.72497 3.2567 1.2435
3.72497 3.2567 1.2435
3.72497 3.2567 1.2435
3.72497 3.2567 1.2435
3.72497 3.2567 1.2435
3.72497 3.2567 1.2435
3.72497 3.2567 1.2435
3.72497 3.2567 1.2435
3.72497 3.2567 1.2435
3.72497 3.2567 1.2435
3.72497 3.2567 1.2435
3.72497 3.2567 1.2435
3.72497 3.2567 1.2435
3.72497 3.2567 1.2435
3.72497 3.2567 1.2435
3.72497 3.2567 1.2435
3.72497 3.2567 1.2435
3.72497 3.2567 1.2435
3.72497 3.2567 1.2435
3.72497 3.2567 1.2435
3.72497 3.2567 1.2435
3.72497 3.2567 1.2435
3.72497 3.2567 1.2435
3.72497 3.2567 1.2435
3.72497 3.2567 1.2435
3.72497 3.2567 1.2435
3.72497 3.2567 1.2435
3.72497 3.2567 1.2435
3.72497 3.2567 1.2435
3.72497 3.2567 1.2435
3.72497 3.2567 1.2435
3.72497 3.2567 1.2435
3.72497 3.2567 1.2435
3.72497 3.2567 1.2435
3.72497 3.2567 1.2435
3.72497 3.2567 1.2435
3.72497 3.2567 1.2435
3.72497 3.2567 1.2435
3.72497 3.2567 1.2435
3.72497 3.2567 1.2435
3.72497 3.2567 1.2435
3.72497 3.2567 1.2435
3.72497 3.2567 1.2435
3.72497 3.2567 1.2435
3.72497 3.2567 1.2435
3.72497 3.2567 1.2435
3.72497 3.2567 1.2435
3.72497 3.2567 1.2435
3.72497 3.2567 1.2435
3.72497 3.2567 1.2435
3.72497 3.2567 1.2435
3.72497 3.2567 1.2435
3.72497 3.2567 1.2435
3.72497 3.2567 1.2435
3.72497 3.2567 1.2435
3.72497 3.2567 1.2435
3.72497 3.2567 1.2435
3.72497 3.2567 1.2435
3.72497 3.2567 1.2435
3.72497 3.2567 1.2435
3.72497 3.2567 1.2435
3.72497 3.2567 1.2435
3.72497 3.2567 1.2435
3.72497 3.2567 1.2435
3.72497 3.2567 1.2435
3.72497 3.2567 1.2435
3.72497 3.2567 1.2435
3.72497 3.2567 1.2435
3.72497 3.2567 1.2435
3.72497 3.2567 1.2435
3.72497 3.2567 1.2435
3.72497 3.2567 1.2435
3.72497 3.2567 1.2435
3.72497 3.2567 1.2435
3.72497 3.2567 1.2435
3.72497 3.2567 1.2435
3.72497 3.2567 1.2435
3.72497 3.2567 1.2435
3.72497 3.2567 1.2435
3.72497 3.2567 1.2435
3.72497 3.2567 1.2435
3.72497 3.2567 1.2435
3.72497 3.2567 1.2435
3.72497 3.2567 1.2435
3.72497 3.2567 1.2435
3.72497 3.2567 1.2435
3.72497 3.2567 1.2435
3.72497 3.2567 1.2435
3.72497 3.2567 1.2435
3.72497 3.2567 1.2435
3.72497 3.2567 1.2435
3.72497 3.2567 1.2435
3.72497 3.2567 1.2435
3.72497 3.2567 1.2435
3.72497 3.2567 1.2435
3.72497 3.2567 1.2435
3.72497 3.2567 1.2435
3.72497 3.2567 1.2435
3.72497 3.2567 1.2435
3.72497 3.2567 1.2435
3.72497 3.2567 1.2435
3.72497 3.2567 1.2435
3.72497 3.2567 1.2435
3.72497 3.2567 1.2435
3.72497 3.2567 1.2435
3.72497 3.2567 1.2435
3.72497 3.2567 1.2435
3.72497 3.2567 1.2435
3.72497 3.2567 1.2435
3.72497 3.2567 1.2435
3.72497 3.2567 1.2435
3.72497 3.2567 1.2435
3.72497 3.2567 1.2435
3.72497 3.2567 1.2435
3.72497 3.2567 1.2435
3.72497 3.2567 1.2435
3.72497 3.2567 1.2435
3.72497 3.2567 1.2435
3.72497 3.2567 1.2435
3.72497 3.2567 1.2435
3.72497 3.2567 1.2435
3.72497 3.2567 1.2435
3.72497 3.2567 1.2435
3.72497 3.2567 1.2435
3.72497 3.2567 1.2435
3.72497 3.2567 1.2435
3.72497 3.2567 1.2435
3.72497 3.2567 1.2435
3.72497 3.2567 1.2435
3.72497 3.2567 1.2435
3.72497 3.2567 1.2435
3.72497 3.2567 1.2435
3.72497 3.2567 1.2435
3.72497 3.2567 1.2435
3.72497 3.2567 1.2435
3.72497 3.2567 1.2435
3.72497 3.2567 1.2435
3.72497 3.2567 1.2435
3.72497 3.2567 1.2435
3.72497 3.2567 1.2435
3.72497 3.2567 1.2435
3.72497 3.2567 1.2435
3.72497 3.2567 1.2435
3.72497 3.2567 1.2435
3.72497 3.2567 1.2435
3.72497 3.2567 1.2435
3.72497 3.2567 1.2435
3.72497 3.2567 1.2435
3.72497 3.2567 1.2435
3.72497 3.2567 1.2435
3.72497 3.2567 1.2435
3.72497 3.2567 1.2435
3.72497 3.2567 1.2435
3.72497 3.2567 1.2435
3.72497 3.2567 1.2435
3.72497 3.2567 1.2435
3.72497 3.2567 1.2435
3.72497 3.2567 1.2435
3.72497 3.2567 1.2435
3.72497 3.2567 1.2435
3.72497 3.2567 1.2435
3.72497 3.2567 1.2435
3.72497 3.2567 1.2435
3.72497 3.2567 1.2435
3.72497 3.2567 1.2435
3.72497 3.2567 1.2435
3.72497 3.2567 1.2435
3.72497 3.2567 1.2435
3.72497 3.2567 1.2435
3.72497 3.2567 1.2435
3.72497 3.2567 1.2435
3.72497 3.2567 1.2435
3.72497 3.2567 1.2435
3.72497 3.2567 1.2435
3.72497 3.2567 1.2435
3.72497 3.2567 1.2435
3.72497 3.2567 1.2435
3.72497 3.2567 1.2435
3.72497 3.2567 1.2435
3.72497 3.2567 1.2435
3.72497 3.2567 1.2435
3.72497 3.2567 1.2435
3.72497 3.2567 1.2435
3.72497 3.2567 1.2435
3.72497 3.2567 1.2435
3.72497 3.2567 1.2435
3.72497 3.2567 1.2435
3.72497 3.2567 1.2435
3.72497 3.2567 1.2435
3.72497 3.2567 1.2435
3.72497 3.2567 1.2435
3.72497 3.2567 1.2435
3.72497 3.2567 1.2435
3.72497 3.2567 1.2435
3.72497 3.2567 1.2435
3.72497 3.2567 1.2435
3.72497 3.2567 1.2435
3.72497 3.2567 1.2435
3.72497 3.2567 1.2435
3.72497 3.2567 1.2435
3.72497 3.2567 1.2435
3.72497 3.2567 1.2435
3.72497 3.2567 1.2435
3.72497 3.2567 1.2435
3.72497 3.2567 1.2435
3.72497 3.2567 1.2435
3.72497 3.2567 1.2435
3.72497 3.2567 1.2435
3.72497 3.2567 1.2435
3.72497 3.2567 1.2435
3.72497 3.2567 1.2435
3.72497 3.2567 1.2435
3.72497 3.2567 1.2435
3.72497 3.2567 1.2435
3.72497 3.2567 1.2435
3.72497 3.2567 1.2435
3.72497 3.2567 1.2435
3.72497 3.2567 1.2435
3.72497 3.2567 1.2435
3.72497 3.2567 1.2435
3.72497 3.2567 1.2435
3.72497 3.2567 1.2435
3.72497 3.2567 1.2435
3.72497 3.2567 1.2435
3.72497 3.2567 1.2435
3.72497 3.2567 1.2435
3.72497 3.2567 1.2435
3.72497 3.2567 1.2435
3.72497 3.2567 1.2435
3.72497 3.2567 1.2435
3.72497 3.2567 1.2435
3.72497 3.2567 1.2435
3.72497 3.2567 1.2435
3.72497 3.2567 1.2435
3.72497 3.2567 1.2435
3.72497 3.2567 1.2435
3.72497 3.2567 1.2435
3.72497 3.2567 1.2435
3.72497 3.2567 1.2435
3.72497 3.2567 1.2435
3.72497 3.2567 1.2435
3.72497 3.2567 1.2435
3.72497 3.2567 1.2435
3.72497 3.2567 1.2435
3.72497 3.2567 1.2435
3.72497 3.2567 1.2435
3.72497 3.2567 1.2435
3.72497 3.2567 1.2435
3.72497 3.2567 1.2435
3.72497 3.2567 1.2435
3.72497 3.2567 1.2435
3.72497 3.2567 1.2435
3.72497 3.2567 1.2435
3.72497 3.2567 1.2435
3.72497 3.2567 1.2435
3.72497 3.2567 1.2435
3.72497 3.2567 1.2435
3.72497 3.2567 1.2435
3.72497 3.2567 1.2435
3.72497 3.2567 1.2435
3.72497 3.2567 1.2435
3.72497 3.2567 1.2435
3.72497 3.2567 1.2435
3.72497 3.2567 1.2435
3.72497 3.2567 1.2435
3.72497 3.2567 1.2435
3.72497 3.2567 1.2435
3.72497 3.2567 1.2435
3.72497 3.2567 1.2435
3.72497 3.2567 1.2435
3.72497 3.2567 1.2435
3.72497 3.2567 1.2435
3.72497 3.2567 1.2435
3.72497 3.2567 1.2435
3.72497 3.2567 1.2435
3.72497 3.2567 1.2435
3.72497 3.2567 1.2435
3.72497 3.2567 1.2435
3.72497 3.2567 1.2435
3.72497 3.2567 1.2435
3.72497 3.2567 1.2435
3.72497 3.2567 1.2435
3.72497 3.2567 1.2435
3.72497 3.2567 1.2435
3.72497 3.2567 1.2435
3.72497 3.2567 1.2435
3.72497 3.2567 1.2435
3.72497 3.2567 1.2435
3.72497 3.2567 1.2435
3.72497 3.2567 1.2435
3.72497 3.2567 1.2435
3.72497 3.2567 1.2435
3.72497 3.2567 1.2435
3.72497 3.2567 1.2435
3.72497 3.2567 1.2435
3.72497 3.2567 1.2435
3.72497 3.2567 1.2435
3.72497 3.2567 1.2435
3.72497 3.2567 1.2435
3.72497 3.2567 1.2435
3.72497 3.2567 1.2435
3.72497 3.2567 1.2435
3.72497 3.2567 1.2435
3.72497 3.2567 1.2435
3.72497 3.2567 1.2435
3.72497 3.2567 1.2435
3.72497 3.2567 1.2435
3.72497 3.2567 1.2435
3.72497 3.2567 1.2435
3.72497 3.2567 1.2435
3.72497 3.2567 1.2435
3.72497 3.2567 1.2435
3.72497 3.2567 1.2435
3.72497 3.2567 1.2435
3.72497 3.2567 1.2435
3.72497 3.2567 1.2435
3.72497 3.2567 1.2435
3.72497 3.2567 1.2435
3.72497 3.2567 1.2435
3.72497 3.2567 1.2435
3.72497 3.2567 1.2435
3.72497 3.2567 1.2435
3.72497 3.2567 1.2435
3.72497 3.2567 1.2435
3.72497 3.2567 1.2435
3.72497 3.2567 1.2435
3.72497 3.2567 1.2435
3.72497 3.2567 1.2435
3.72497 3.2567 1.2435
3.72497 3.2567 1.2435
3.72497 3.2567 1.2435
3.72497 3.2567 1.2435
3.72497 3.2567 1.2435
3.72497 3.2567 1.2435
3.72497 3.2567 1.2435
3.72497 3.2567 1.2435
3.72497 3.2567 1.2435
3.72497 3.2567 1.2435
3.72497 3.2567 1.2435
3.72497 3.2567 1.2435
3.72497 3.2567 1.2435
3.72497 3.2567 1.2435
3.72497 3.2567 1.2435
3.72497 3.2567 1.2435
3.72497 3.2567 1.2435
3.72497 3.2567 1.2435
3.72497 3.2567 1.2435
3.72497 3.2567 1.2435
3.72497 3.2567 1.2435
3.72497 3.2567 1.2435
3.72497 3.2567 1.2435
3.72497 3.2567 1.2435
3.72497 3.2567 1.2435
3.72497 3.2567 1.2435
3.72497 3.2567 1.2435
3.72497 3.2567 1.2435
3.72497 3.2567 1.2435
3.72497 3.2567 1.2435
3.72497 3.2567 1.2435
3.72497 3.2567 1.2435
3.72497 3.2567 1.2435
3.72497 3.2567 1.2435
3.72497 3.2567 1.2435
3.72497 3.2567 1.2435
3.72497 3.2567 1.2435
3.72497 3.2567 1.2435
3.72497 3.2567 1.2435
3.72497 3.2567 1.2435
3.72497 3.2567 1.2435
3.72497 3.2567 1.2435
3.72497 3.2567 1.2435
3.72497 3.2567 1.2435
3.72497 3.2567 1.2435
3.72497 3.2567 1.2435
3.72497 3.2567 1.2435
3.72497 3.2567 1.2435
3.72497 3.2567 1.2435
3.72497 3.2567 1.2435
3.72497 3.2567 1.2435
3.72497 3.2567 1.2435
3.72497 3.2567 1.2435
3.72497 3.2567 1.2435
3.72497 3.2567 1.2435
3.72497 3.2567 1.2435
3.72497 3.2567 1.2435
3.72497 3.2567 1.2435
3.72497 3.2567 1.2435
3.72497 3.2567 1.2435
3.72497 3.2567 1.2435
3.72497 3.2567 1.2435
3.72497 3.2567 1.2435
3.72497 3.2567 1.2435
3.72497 3.2567 1.2435
3.72497 3.2567 1.2435
3.72497 3.2567 1.2435
3.72497 3.2567 1.2435
3.72497 3.2567 1.2435
3.72497 3.2567 1.2435
3.72497 3.2567 1.2435
3.72497 3.2567 1.2435
3.72497 3.2567 1.2435
3.72497 3.2567 1.2435
3.72497 3.2567 1.2435
3.72497 3.2567 1.2435
3.72497 3.2567 1.2435
3.72497 3.2567 1.2435
3.72497 3.2567 1.2435
3.72497 3.2567 1.2435
3.72497 3.2567 1.2435
3.72497 3.2567 1.2435
3.72497 3.2567 1.2435
3.72497 3.2567 1.2435
3.72497 3.2567 1.2435
3.72497 3.2567 1.2435
3.72497 3.2567 1.2435
3.72497 3.2567 1.2435
3.72497 3.2567 1.2435
3.72497 3.2567 1.2435
3.72497 3.2567 1.2435
3.72497 3.2567 1.2435
3.72497 3.2567 1.2435
3.72497 3.2567 1.2435
3.72497 3.2567 1.2435
3.72497 3.2567 1.2435
3.72497 3.2567 1.2435
3.72497 3.2567 1.2435
3.72497 3.2567 1.2435
3.72497 3.2567 1.2435
3.72497 3.2567 1.2435
3.72497 3.2567 1.2435
3.72497 3.2567 1.2435
3.72497 3.2567 1.2435
3.72497 3.2567 1.2435
3.72497 3.2567 1.2435
3.72497 3.2567 1.2435
3.72497 3.2567 1.2435
3.72497 3.2567 1.2435
3.72497 3.2567 1.2435
3.72497 3.2567 1.2435
3.72497 3.2567 1.2435
3.72497 3.2567 1.2435
3.72497 3.2567 1.2435
3.72497 3.2567 1.2435
3.72497 3.2567 1.2435
3.72497 3.2567 1.2435
3.72497 3.2567 1.2435
3.72497 3.2567 1.2435
3.72497 3.2567 1.2435
3.72497 3.2567 1.2435
3.72497 3.2567 1.2435
3.72497 3.2567 1.2435
3.72497 3.2567 1.2435
3.72497 3.2567 1.2435
3.72497 3.2567 1.2435
3.72497 3.2567 1.2435
3.72497 3.2567 1.2435
3.72497 3.2567 1.2435
3.72497 3.2567 1.2435
3.72497 3.2567 1.2435
3.72497 3.2567 1.2435
3.72497 3.2567 1.2435
3.72497 3.2567 1.2435
3.72497 3.2567 1.2435
3.72497 3.2567 1.2435
3.72497 3.2567 1.2435
3.72497 3.2567 1.2435
3.72497 3.2567 1.2435
3.72497 3.2567 1.2435
3.72497 3.2567 1.2435
3.72497 3.2567 1.2435
3.72497 3.2567 1.2435
3.72497 3.2567 1.2435
3.72497 3.2567 1.2435
3.72497 3.2567 1.2435
3.72497 3.2567 1.2435
3.72497 3.2567 1.2435
3.72497 3.2567 1.2435
3.72497 3.2567 1.2435
3.72497 3.2567 1.2435
3.72497 3.2567 1.2435
3.72497 3.2567 1.2435
3.72497 3.2567 1.2435
3.72497 3.2567 1.2435
3.72497 3.2567 1.2435
3.72497 3.2567 1.2435
3.72497 3.2567 1.2435
3.72497 3.2567 1.2435
3.72497 3.2567 1.2435
3.72497 3.2567 1.2435
3.72497 3.2567 1.2435
3.72497 3.2567 1.2435
3.72497 3.2567 1.2435
3.72497 3.2567 1.2435
3.72497 3.2567 1.2435
3.72497 3.2567 1.2435
3.72497 3.2567 1.2435
3.72497 3.2567 1.2435
3.72497 3.2567 1.2435
3.72497 3.2567 1.2435
3.72497 3.2567 1.2435
3.72497 3.2567 1.2435
3.72497 3.2567 1.2435
3.72497 3.2567 1.2435
3.72497 3.2567 1.2435
3.72497 3.2567 1.2435
3.72497 3.2567 1.2435
3.72497 3.2567 1.2435
3.72497 3.2567 1.2435
3.72497 3.2567 1.2435
3.72497 3.2567 1.2435
3.72497 3.2567 1.2435
3.72497 3.2567 1.2435
3.72497 3.2567 1.2435
3.72497 3.2567 1.2435
3.72497 3.2567 1.2435
3.72497 3.2567 1.2435
3.72497 3.2567 1.2435
3.72497 3.2567 1.2435
3.72497 3.2567 1.2435
3.72497 3.2567 1.2435
3.72497 3.2567 1.2435
3.72497 3.2567 1.2435
3.72497 3.2567 1.2435
3.72497 3.2567 1.2435
3.72497 3.2567 1.2435
3.72497 3.2567 1.2435
3.72497 3.2567 1.2435
3.72497 3.2567 1.2435
3.72497 3.2567 1.2435
3.72497 3.2567 1.2435
3.72497 3.2567 1.2435
3.72497 3.2567 1.2435
3.72497 3.2567 1.2435
3.72497 3.2567 1.2435
3.72497 3.2567 1.2435
3.72497 3.2567 1.2435
3.72497 3.2567 1.2435
3.72497 3.2567 1.2435
3.72497 3.2567 1.2435
3.72497 3.2567 1.2435
3.72497 3.2567 1.2435
3.72497 3.2567 1.2435
3.72497 3.2567 1.2435
3.72497 3.2567 1.2435
3.72497 3.2567 1.2435
3.72497 3.2567 1.2435
3.72497 3.2567 1.2435
3.72497 3.2567 1.2435
3.72497 3.2567 1.2435
3.72497 3.2567 1.2435
3.72497 3.2567 1.2435
3.72497 3.2567 1.2435
3.72497 3.2567 1.2435
3.72497 3.2567 1.2435
3.72497 3.2567 1.2435
3.72497 3.2567 1.2435
3.72497 3.2567 1.2435
3.72497 3.2567 1.2435
3.72497 3.2567 1.2435
3.72497 3.2567 1.2435
3.72497 3.2567 1.2435
3.72497 3.2567 1.2435
3.72497 3.2567 1.2435
3.72497 3.2567 1.2435
3.72497 3.2567 1.2435
3.72497 3.2567 1.2435
3.72497 3.2567 1.2435
3.72497 3.2567 1.2435
3.72497 3.2567 1.2435
3.72497 3.2567 1.2435
3.72497 3.2567 1.2435
3.72497 3.2567 1.2435
3.72497 3.2567 1.2435
3.72497 3.2567 1.2435
3.72497 3.2567 1.2435
3.72497 3.2567 1.2435
3.72497 3.2567 1.2435
3.72497 3.2567 1.2435
3.72497 3.2567 1.2435
3.72497 3.2567 1.2435
3.72497 3.2567 1.2435
3.72497 3.2567 1.2435
3.72497 3.2567 1.2435
3.72497 3.2567 1.2435
3.72497 3.2567 1.2435
3.72497 3.2567 1.2435
3.72497 3.2567 1.2435
3.72497 3.2567 1.2435
3.72497 3.2567 1.2435
3.72497 3.2567 1.2435
3.72497 3.2567 1.2435
3.72497 3.2567 1.2435
3.72497 3.2567 1.2435
3.72497 3.2567 1.2435
3.72497 3.2567 1.2435
3.72497 3.2567 1.2435
3.72497 3.2567 1.2435
3.72497 3.2567 1.2435
3.72497 3.2567 1.2435
3.72497 3.2567 1.2435
3.72497 3.2567 1.2435
3.72497 3.2567 1.2435
3.72497 3.2567 1.2435
3.72497 3.2567 1.2435
3.72497 3.2567 1.2435
3.72497 3.2567 1.2435
3.72497 3.2567 1.2435
3.72497 3.2567 1.2435
3.72497 3.2567 1.2435
3.72497 3.2567 1.2435
3.72497 3.2567 1.2435
3.72497 3.2567 1.2435
3.72497 3.2567 1.2435
3.72497 3.2567 1.2435
3.72497 3.2567 1.2435
3.72497 3.2567 1.2435
3.72497 3.2567 1.2435
3.72497 3.2567 1.2435
3.72497 3.2567 1.2435
3.72497 3.2567 1.2435
3.72497 3.2567 1.2435
3.72497 3.2567 1.2435
3.72497 3.2567 1.2435
3.72497 3.2567 1.2435
3.72497 3.2567 1.2435
3.72497 3.2567 1.2435
3.72497 3.2567 1.2435
3.72497 3.2567 1.2435
3.72497 3.2567 1.2435
3.72497 3.2567 1.2435
3.72497 3.2567 1.2435
3.72497 3.2567 1.2435
3.72497 3.2567 1.2435
3.72497 3.2567 1.2435
3.72497 3.2567 1.2435
3.72497 3.2567 1.2435
3.72497 3.2567 1.2435
3.72497 3.2567 1.2435
3.72497 3.2567 1.2435
3.72497 3.2567 1.2435
3.72497 3.2567 1.2435
3.72497 3.2567 1.2435
3.72497 3.2567 1.2435
3.72497 3.2567 1.2435
3.72497 3.2567 1.2435
3.72497 3.2567 1.2435
3.72497 3.2567 1.2435
3.72497 3.2567 1.2435
3.72497 3.2567 1.2435
3.72497 3.2567 1.2435
3.72497 3.2567 1.2435
3.72497 3.2567 1.2435
3.72497 3.2567 1.2435
3.72497 3.2567 1.2435
3.72497 3.2567 1.2435
3.72497 3.2567 1.2435
3.72497 3.2567 1.2435
3.72497 3.2567 1.2435
3.72497 3.2567 1.2435
3.72497 3.2567 1.2435
3.72497 3.2567 1.2435
3.72497 3.2567 1.2435
3.72497 3.2567 1.2435
3.72497 3.2567 1.2435
3.72497 3.2567 1.2435
3.72497 3.2567 1.2435
3.72497 3.2567 1.2435
3.72497 3.2567 1.2435
3.72497 3.2567 1.2435
3.72497 3.2567 1.2435
3.72497 3.2567 1.2435
3.72497 3.2567 1.2435
3.72497 3.2567 1.2435
3.72497 3.2567 1.2435
3.72497 3.2567 1.2435
3.72497 3.2567 1.2435
3.72497 3.2567 1.2435
3.72497 3.2567 1.2435
3.72497 3.2567 1.2435
3.72497 3.2567 1.2435
3.72497 3.2567 1.2435
3.72497 3.2567 1.2435
3.72497 3.2567 1.2435
3.72497 3.2567 1.2435
3.72497 3.2567 1.2435
3.72497 3.2567 1.2435
3.72497 3.2567 1.2435
3.72497 3.2567 1.2435
3.72497 3.2567 1.2435
3.72497 3.2567 1.2435
3.72497 3.2567 1.2435
3.72497 3.2567 1.2435
3.72497 3.2567 1.2435
3.72497 3.2567 1.2435
3.72497 3.2567 1.2435
3.72497 3.2567 1.2435
3.72497 3.2567 1.2435
3.72497 3.2567 1.2435
3.72497 3.2567 1.2435
3.72497 3.2567 1.2435
3.72497 3.2567 1.2435
3.72497 3.2567 1.2435
3.72497 3.2567 1.2435
3.72497 3.2567 1.2435
3.72497 3.2567 1.2435
3.72497 3.2567 1.2435
3.72497 3.2567 1.2435
3.72497 3.2567 1.2435
3.72497 3.2567 1.2435
3.72497 3.2567 1.2435
3.72497 3.2567 1.2435
3.72497 3.2567 1.2435
3.72497 3.2567 1.2435
3.72497 3.2567 1.2435
3.72497 3.2567 1.2435
3.72497 3.2567 1.2435
3.72497 3.2567 1.2435
3.72497 3.2567 1.2435
3.72497 3.2567 1.2435
3.72497 3.2567 1.2435
3.72497 3.2567 1.2435
3.72497 3.2567 1.2435
3.72497 3.2567 1.2435
3.72497 3.2567 1.2435
3.72497 3.2567 1.2435
