0 0 0
0 0 0
0 0 0
0 0 0
0 0 0
0 0 0
0 0 0
0 0 0
0 0 0
0 0 0
0 0 0
0 0 0
0 0 0
0 0 0
0 0 0
0 0 0
0 0 0
0 0 0
0 0 0
0 0 0
0 0 0
0 0 0
0 0 0
0 0 0
0 0 0
0 0 0
0 0 0
0 0 0
0 0 0
0 0 0
0 0 0
0 0 0
0 0 0
0 0 0
0 0 0
0 0 0
0 0 0
0 0 0
0 0 0
0 0 0
0 0 0
0 0 0
0 0 0
0 0 0
0 0 0
0 0 0
0 0 0
0 0 0
0 0 0
0 0 0
0 0 0
0 0 0
0 0 0
0 0 0
0 0 0
0 0 0
0 0 0
0 0 0
0 0 0
0 0 0
0 0 0
0 0 0
0 0 0
0 0 0
0 0 0
0 0 0
0 0 0
0 0 0
0 0 0
0 0 0
0 0 0
0 0 0
0 0 0
0 0 0
0 0 0
0 0 0
0 0 0
0 0 0
0 0 0
0 0 0
0 0 0
0 0 0
0 0 0
0 0 0
0 0 0
0 0 0
0 0 0
0 0 0
0 0 0
0 0 0
0 0 0
0 0 0
0 0 0
0 0 0
0 0 0
0 0 0
0 0 0
0 0 0
0 0 0
0 0 0
0 0 0
0 0 0
0 0 0
0 0 0
0 0 0
0 0 0
0 0 0
0 0 0
0 0 0
0 0 0
0 0 0
0 0 0
0 0 0
0 0 0
0 0 0
0 0 0
0.00495184 0 0
0.0275589 0 0
0.0464709 0 0
0.061786 0 0
0.073984 0 0
0.0839265 0 0
0.0926607 0.00262184 0.00902511
0.101229 0.00831273 0.0534846
0.110679 0.0133825 0.0960287
0.122068 0.0185971 0.135526
0.136427 0.0246391 0.170929
0.154666 0.0321276 0.201284
0.17761 0.0409078 0.209637
0.205979 0.0483818 0.211748
0.237987 0.0622585 0.214417
0.274103 0.0793095 0.214999
0.31246 0.101589 0.21318
0.352502 0.126134 0.209364
0.392867 0.153395 0.203895
0.432622 0.182819 0.196197
0.464121 0.213467 0.186035
0.497731 0.243877 0.174761
0.512482 0.271328 0.163683
0.519151 0.292779 0.153682
0.528079 0.315536 0.142789
0.537398 0.332449 0.133242
0.542127 0.3452 0.125224
0.545879 0.352935 0.119295
0.548861 0.355642 0.115051
0.549035 0.353929 0.112795
0.54799 0.349634 0.112922
0.545823 0.342983 0.116881
0.541636 0.333741 0.124389
0.536014 0.322502 0.134545
0.529633 0.309697 0.146795
0.523084 0.295824 0.160311
0.517146 0.281462 0.173921
0.505592 0.268469 0.186126
0.491039 0.258429 0.194655
0.476907 0.247217 0.202746
0.466236 0.238362 0.206263
0.458543 0.231124 0.206633
0.453372 0.225194 0.204719
0.451511 0.221226 0.200768
0.454653 0.219362 0.194788
0.463676 0.219523 0.186887
0.476978 0.223327 0.177293
0.492001 0.231386 0.166278
0.50766 0.242962 0.15917
0.523119 0.257449 0.15917
0.537191 0.274029 0.15917
0.548596 0.291801 0.15917
0.55643 0.309741 0.15917
0.559969 0.326719 0.15917
0.55973 0.338867 0.15917
0.557808 0.349183 0.15917
0.55423 0.357195 0.15917
0.54897 0.362494 0.15917
0.542037 0.364767 0.15917
0.533472 0.364324 0.15917
0.523333 0.362185 0.15917
0.511674 0.358398 0.15917
0.498541 0.353031 0.15917
0.483965 0.346212 0.15917
0.467971 0.338118 0.15917
0.450601 0.32896 0.15917
0.43196 0.318962 0.15917
0.412225 0.308354 0.171664
0.391658 0.297357 0.196376
0.370585 0.286182 0.220152
0.349347 0.275028 0.242328
0.333503 0.264083 0.26228
0.333503 0.253518 0.279427
0.333503 0.253518 0.293254
0.333503 0.253518 0.303324
0.333503 0.253518 0.309288
0.333503 0.253518 0.310905
0.333503 0.253518 0.309457
0.333503 0.253518 0.305736
0.333503 0.253518 0.29969
0.333503 0.253518 0.291399
0.333503 0.253518 0.281272
0.333503 0.253518 0.269185
0.333503 0.253518 0.255787
0.333503 0.253518 0.240715
0.333503 0.253518 0.236781
0.333503 0.253518 0.236781
0.333503 0.253518 0.236781
0.333503 0.253518 0.236781
0.333503 0.253518 0.236781
0.333503 0.253518 0.236781
0.333503 0.253518 0.236781
0.333503 0.253518 0.236781
0.333503 0.253518 0.236781
0.333503 0.253518 0.236781
0.333503 0.253518 0.236781
0.33118 0.253518 0.231223
0.33118 0.253518 0.231223
0.33118 0.253518 0.231223
0.33118 0.253518 0.231223
0.33118 0.253518 0.231223
0.33118 0.253518 0.231223
0.33118 0.253518 0.231223
0.33118 0.253518 0.231223
0.33118 0.253518 0.231223
0.33118 0.253518 0.231223
0.33118 0.253518 0.231223
0.33118 0.253518 0.231223
0.33118 0.253518 0.231223
0.33118 0.253518 0.231223
0.33118 0.250726 0.231223
0.33118 0.250726 0.231223
0.33118 0.250726 0.231223
0.33118 0.250726 0.231223
0.33118 0.250726 0.231223
0.329388 0.250726 0.231223
0.329067 0.250687 0.231223
0.328937 0.250687 0.231223
0.328937 0.250687 0.231223
0.328937 0.250687 0.231223
0.328937 0.250687 0.231223
0.328937 0.250687 0.231223
0.328937 0.250687 0.231223
0.328937 0.250687 0.231223
0.328937 0.250687 0.231223
0.328937 0.250687 0.231021
0.328937 0.250687 0.231021
0.328937 0.250687 0.231018
0.328937 0.250687 0.231018
0.328937 0.250687 0.231018
0.328937 0.250687 0.231018
0.328937 0.250687 0.231018
0.328937 0.250687 0.231018
0.328937 0.250687 0.231018
0.328937 0.250687 0.231018
0.328937 0.250687 0.231018
0.328937 0.250687 0.231018
0.328937 0.250687 0.231018
0.328937 0.250687 0.231018
0.328937 0.250687 0.231018
0.328937 0.250687 0.231018
0.328937 0.250687 0.231018
0.328937 0.250687 0.231018
0.328937 0.250687 0.231018
0.328923 0.250687 0.231018
0.328923 0.250687 0.231018
0.328923 0.250687 0.231018
0.328923 0.250687 0.231018
0.328923 0.250687 0.231018
0.328923 0.250687 0.231018
0.328923 0.250687 0.231018
0.328923 0.250687 0.231018
0.328923 0.250687 0.231018
0.328923 0.250687 0.231018
0.328923 0.250687 0.231018
0.328923 0.250687 0.231018
0.328923 0.250687 0.231018
0.328923 0.250687 0.231018
0.328923 0.250687 0.231018
0.328923 0.250687 0.231018
0.328923 0.250687 0.231018
0.328923 0.250687 0.231018
0.328923 0.250687 0.231018
0.328923 0.250687 0.231018
0.328923 0.250687 0.231018
0.328923 0.250687 0.231018
0.328923 0.250687 0.231018
0.328923 0.250687 0.231018
0.328923 0.250687 0.231018
0.328923 0.250687 0.231018
0.328923 0.250687 0.231018
0.328923 0.250687 0.231018
0.328923 0.250687 0.231018
0.328923 0.250687 0.231018
0.328923 0.250687 0.231018
0.328923 0.250687 0.231018
0.328923 0.250687 0.231018
0.328923 0.250687 0.231018
0.328923 0.250687 0.231018
0.328923 0.250687 0.231018
0.328923 0.250687 0.231018
0.328923 0.250687 0.231018
0.328923 0.250687 0.231018
0.328923 0.250687 0.231018
0.328923 0.250687 0.231018
0.328923 0.250687 0.231018
0.328923 0.250687 0.231018
0.328923 0.250687 0.231018
0.333086 0.250687 0.231018
0.340961 0.250687 0.231018
0.348522 0.250687 0.231018
0.356057 0.250687 0.231018
0.363828 0.250687 0.231018
0.372244 0.250687 0.231018
0.381503 0.250687 0.231018
0.391845 0.250687 0.231018
0.403562 0.250687 0.231018
0.416699 0.250687 0.231018
0.431388 0.250687 0.231018
0.447587 0.250687 0.247834
0.465252 0.250687 0.268814
0.484273 0.250687 0.287844
0.504522 0.274118 0.304767
0.525844 0.298882 0.319642
0.548059 0.324817 0.332606
0.570962 0.351716 0.34374
2.49365 0.351328 0.359292
2.49365 0.318815 0.398276
2.49365 0.400383 0.389113
2.49365 0.402967 0.402476
2.49365 0.444624 0.40007
2.49365 0.470379 0.398945
2.49365 0.494358 0.397674
2.49365 0.52107 0.393844
2.49365 0.550079 0.389458
2.49365 0.572138 0.384901
2.49365 0.589444 0.381066
2.49365 0.597741 0.378781
2.49365 0.616926 0.374319
2.49365 0.627625 0.370776
2.49365 0.633322 0.368103
2.49365 0.634539 0.36631
2.49365 0.633747 0.365324
2.49365 0.632242 0.364374
2.49365 0.628644 0.363981
2.49365 0.623022 0.364542
2.49365 0.616017 0.366363
2.49365 0.608812 0.36841
2.49365 0.600822 0.370235
2.49365 0.590938 0.372587
2.49365 0.581508 0.373958
2.49365 0.571657 0.374972
2.49365 0.561731 0.375158
2.49365 0.551917 0.374517
2.49365 0.542621 0.373008
2.49365 0.534018 0.37058
2.49365 0.526238 0.367214
2.49365 0.519476 0.362803
2.49365 0.513702 0.357318
2.49365 0.508888 0.350858
2.49365 0.505684 0.34324
2.49365 0.503712 0.334798
2.49365 0.503063 0.330258
2.49365 0.503883 0.330258
2.49365 0.506819 0.330258
2.49365 0.510791 0.330258
2.49365 0.515411 0.330258
2.49365 0.521802 0.330258
2.49365 0.528765 0.330258
2.49365 0.53648 0.330258
2.49365 0.544055 0.330258
2.49365 0.551316 0.330258
2.49365 0.558148 0.330258
2.49365 0.564102 0.330258
2.49365 0.569027 0.330258
2.49365 0.572163 0.330258
2.49365 0.573966 0.330258
2.49365 0.574204 0.330258
2.49365 0.573473 0.330258
2.49365 0.572193 0.330258
2.49365 0.570561 0.330258
2.49365 0.568972 0.330258
2.49365 0.566892 0.330258
2.49365 0.564283 0.330258
2.49365 0.561253 0.330258
2.49365 0.557926 0.330258
2.49365 0.554479 0.330258
2.49365 0.551007 0.330258
2.49365 0.547491 0.33592
2.49365 0.544012 0.358043
2.49365 0.540819 0.378938
2.49365 0.537944 0.398256
2.49365 0.535407 0.415651
2.49365 0.53326 0.430795
2.49365 0.531537 0.443407
2.49365 0.530303 0.453242
2.49365 0.529558 0.46014
2.49365 0.529285 0.464015
2.49365 0.529699 0.46486
2.49365 0.531085 0.463681
2.49365 0.533463 0.460954
2.49365 0.536791 0.456744
2.49365 0.541265 0.451119
2.49365 0.546559 0.444226
2.49365 0.552484 0.436243
2.49365 0.558839 0.427335
2.49365 0.565251 0.417739
2.49365 0.571355 0.407678
2.49365 0.576572 0.399973
2.49365 0.578899 0.399973
2.49365 0.581322 0.399973
2.49365 0.581331 0.399973
2.49365 0.580249 0.399973
2.49365 0.578548 0.399973
2.49365 0.576377 0.399973
2.49365 0.572593 0.399973
2.49365 0.567767 0.399973
2.49365 0.561426 0.399973
2.49365 0.553958 0.399973
2.49365 0.545441 0.399973
2.49365 0.535444 0.399973
2.49365 0.535444 0.399973
2.49365 0.535444 0.399973
2.49365 0.535444 0.399973
2.49365 0.535444 0.399973
2.49365 0.535444 0.399973
2.49365 0.535444 0.399973
2.49365 0.535444 0.399973
2.49365 0.535444 0.399973
2.49365 0.535444 0.399973
2.49365 0.535444 0.399973
2.49365 0.535444 0.399973
2.49365 0.535444 0.399973
2.49365 0.535444 0.399973
2.49365 0.535444 0.399973
2.49365 0.535444 0.399973
2.49365 0.535444 0.399973
2.49365 0.535444 0.399973
2.49365 0.535444 0.399973
2.49365 0.535444 0.399973
2.49365 0.535444 0.399973
2.49365 0.535444 0.399973
2.49365 0.535444 0.399973
2.49365 0.535444 0.399973
2.49365 0.535444 0.399973
2.49365 0.535444 0.3968
2.49365 0.535444 0.3968
2.49365 0.535444 0.3968
2.49365 0.535444 0.3968
2.49365 0.535444 0.3968
2.49365 0.535444 0.3968
2.49365 0.535444 0.3968
2.49365 0.535444 0.3968
2.49365 0.535444 0.396199
2.49365 0.535444 0.396199
2.49365 0.535444 0.396192
2.49365 0.535444 0.396192
2.49365 0.535444 0.396192
2.49365 0.533108 0.396192
2.49365 0.533108 0.396192
2.49365 0.533108 0.396192
2.49365 0.533108 0.396192
2.49365 0.533108 0.396192
2.49365 0.533108 0.396192
2.49365 0.533108 0.396192
2.49365 0.533108 0.396192
2.49365 0.533108 0.396192
2.49365 0.533108 0.396192
2.49365 0.533108 0.396192
2.49365 0.533108 0.396192
2.49365 0.533108 0.396192
2.49365 0.533108 0.396192
2.49365 0.533108 0.396192
2.49365 0.533108 0.396192
2.49365 0.533108 0.396192
2.49365 0.533108 0.396192
2.49365 0.533108 0.396192
2.49365 0.533101 0.396192
2.49365 0.533101 0.396192
2.49365 0.533101 0.396192
2.49365 0.533101 0.396192
2.49365 0.533101 0.396192
2.49365 0.533101 0.396192
2.49365 0.533101 0.396192
2.49365 0.533101 0.396192
2.49365 0.533101 0.396192
2.49365 0.533101 0.396192
2.49365 0.533101 0.396192
2.49365 0.533101 0.396192
2.49365 0.533101 0.396192
2.49365 0.533101 0.396127
2.49365 0.533101 0.396127
2.49365 0.533101 0.396127
2.49365 0.533101 0.396127
2.49365 0.533101 0.396127
2.49365 0.533101 0.396127
2.49365 0.533101 0.396127
2.49365 0.533101 0.396127
2.49365 0.533101 0.396127
2.49365 0.533101 0.396127
2.49365 0.533101 0.396127
2.49365 0.533101 0.396127
2.49365 0.533101 0.396127
2.49365 0.533101 0.396127
2.49365 0.533101 0.396127
2.49365 0.533101 0.396127
2.49365 0.533101 0.396127
2.49365 0.533101 0.396127
2.49365 0.533092 0.396127
2.49365 0.533092 0.396127
2.49365 0.533092 0.396127
2.49365 0.533092 0.396127
2.49365 0.533092 0.396127
2.49365 0.533092 0.396127
2.49365 0.533092 0.396127
2.49365 0.533092 0.396127
2.49365 0.533092 0.396127
2.49365 0.533092 0.396127
2.49365 0.533092 0.396127
2.49365 0.533092 0.396127
2.49365 0.533092 0.396127
2.49365 0.533092 0.396127
2.49365 0.533092 0.396127
2.49365 0.533092 0.396127
2.49365 0.533092 0.396127
2.49365 0.533092 0.396127
2.49365 0.533092 0.396127
2.49365 0.533092 0.396127
2.49365 0.533092 0.396127
2.49365 0.533092 0.396127
2.49365 0.533092 0.396127
2.49365 0.533092 0.396127
2.49365 0.533092 0.396127
2.49365 0.533092 0.396127
2.49365 0.533092 0.396127
2.49365 0.533092 0.396127
2.49365 0.533092 0.396127
2.49365 0.533092 0.396127
2.49365 0.533092 0.396127
2.49365 0.533092 0.396127
2.49365 0.533092 0.396127
2.49365 0.533092 0.396127
2.49365 0.533092 0.396127
2.49365 0.533092 0.396127
2.49365 0.533092 0.396127
2.49365 0.533092 0.396127
2.49365 0.533092 0.396127
2.49365 0.533092 0.396127
2.49365 0.533092 0.396127
2.49365 0.533092 0.396127
2.49365 0.533092 0.396127
2.49365 0.533092 0.396127
2.49365 0.533092 0.396127
2.49365 0.533092 0.396127
2.49365 0.533092 0.396127
2.49365 0.533092 0.396127
2.49365 0.533092 0.396127
2.49365 0.533092 0.396127
2.49365 0.533092 0.396127
2.49365 0.533092 0.396127
2.49365 0.533092 0.396127
2.49365 0.533092 0.396127
2.49365 0.533092 0.396127
2.49365 0.533092 0.396127
2.49365 0.533092 0.396127
2.49365 0.533092 0.396127
2.49365 0.533092 0.396127
2.49365 0.533092 0.396127
2.49365 0.533092 0.396127
2.49365 0.533092 0.396127
2.49365 0.533092 0.396127
2.49365 0.533092 0.396127
2.49365 0.533092 0.396127
2.49365 0.533092 0.396127
2.49365 0.533092 0.396127
2.49365 0.533092 0.396127
2.49365 0.533092 0.396127
2.49365 0.533092 0.396127
2.49365 0.533092 0.396127
2.49365 0.533092 0.396127
2.49365 0.533092 0.396127
2.49365 0.533092 0.396127
2.49365 0.533092 0.396127
2.49365 0.533092 0.396127
2.49365 0.533092 0.396127
2.49365 0.533092 0.396127
2.49365 0.533092 0.396127
2.49365 0.533092 0.396127
2.49365 0.533092 0.403203
2.49365 0.536798 0.411966
2.49365 0.54454 0.419965
2.49365 0.553446 0.427049
2.49365 0.56375 0.433063
2.49365 0.575557 0.438024
2.49365 0.58909 0.441838
2.49365 0.604634 0.444514
2.49365 0.621815 0.446158
2.49365 0.640366 0.446966
2.49365 0.660124 0.446957
2.49365 0.680578 0.446566
2.49365 0.701406 0.445955
2.49365 0.722171 0.445289
2.49365 0.742475 0.444715
2.49365 0.761924 0.444365
2.49365 0.78013 0.444425
2.49365 0.796799 0.445385
2.49365 0.811653 0.447493
2.49365 0.824483 0.450722
2.49365 0.835046 0.454332
2.49365 0.843101 0.459015
2.49365 0.849006 0.46464
2.49365 0.852651 0.47122
2.49365 0.853715 0.478733
2.49365 0.853279 0.486932
2.49365 0.851734 0.495769
2.49365 0.849051 0.505162
2.49365 0.845586 0.514733
2.49365 0.841317 0.524343
2.49365 0.836468 0.533707
2.49365 0.831158 0.542593
2.49365 0.825545 0.550779
2.49365 0.820347 0.557723
2.49365 0.815396 0.563408
2.49365 0.810769 0.56765
2.49365 0.806471 0.570341
2.49365 0.802567 0.571346
2.49365 0.799115 0.570769
2.49365 0.79614 0.568995
2.49365 0.79367 0.566018
2.49365 0.791706 0.561879
2.49365 0.790228 0.556614
2.49365 0.789242 0.550285
2.49365 0.788672 0.543009
2.49365 0.788418 0.534943
2.49365 0.788331 0.52626
2.49365 0.788261 0.517133
2.49365 0.788072 0.507731
2.49365 0.787626 0.498233
2.49365 0.786771 0.488834
2.49365 0.785388 0.48652
2.49365 0.783349 0.48652
2.49365 0.780574 0.48652
2.49365 0.776927 0.48652
2.49365 0.77212 0.48652
2.49365 0.766777 0.48652
2.49365 0.760548 0.48652
2.49365 0.753496 0.48652
2.49365 0.745657 0.48652
2.49365 0.736955 0.48652
2.49365 0.727591 0.48652
2.49365 0.717609 0.48652
2.49365 0.707609 0.48652
2.49365 0.697283 0.48652
2.49365 0.694592 0.48652
2.49365 0.694592 0.48652
2.49365 0.694592 0.48652
2.49365 0.694592 0.48652
2.49365 0.694592 0.48652
2.49365 0.694592 0.48652
2.49365 0.694592 0.48652
2.49365 0.694592 0.48652
2.49365 0.694592 0.48652
2.49365 0.694592 0.48652
2.49365 0.694592 0.48652
2.49365 0.694592 0.48652
2.49365 0.694592 0.48652
2.49365 0.694592 0.48652
2.49365 0.694592 0.48652
2.49365 0.694592 0.48652
2.49365 0.694592 0.48652
2.49365 0.694592 0.48652
2.49365 0.694592 0.48652
2.49365 0.694592 0.48652
2.49365 0.694592 0.48652
2.49365 0.694592 0.48652
2.49365 0.694592 0.48652
2.49365 0.694592 0.48652
2.49365 0.694592 0.48652
2.49365 0.694592 0.48652
2.49365 0.694592 0.48652
2.49365 0.694592 0.48652
2.49365 0.694592 0.48652
2.49365 0.694592 0.48652
2.49365 0.694592 0.48652
2.49365 0.694592 0.48652
2.49365 0.694592 0.48652
2.49365 0.694592 0.48652
2.49365 0.694592 0.48652
2.49365 0.694592 0.48652
2.49365 0.694592 0.48652
2.49365 0.694592 0.48652
2.49365 0.694592 0.48652
2.49365 0.694592 0.48652
2.49365 0.694592 0.48652
2.49365 0.694592 0.48652
2.49365 0.694592 0.48652
2.49365 0.694592 0.48652
2.49365 0.694592 0.48652
2.49365 0.694592 0.48652
2.49365 0.694592 0.48652
2.49365 0.694592 0.48652
2.49365 0.694592 0.48652
2.49365 0.694592 0.48652
2.49365 0.694592 0.48652
2.49365 0.694592 0.48652
2.49365 0.694592 0.48652
2.49365 0.693402 0.48652
2.49365 0.693402 0.48652
2.49365 0.693402 0.48652
2.49365 0.693402 0.48652
2.49365 0.693402 0.48652
2.49365 0.693402 0.48652
2.49365 0.693402 0.48652
2.49365 0.693402 0.485261
2.49365 0.693402 0.485261
2.49365 0.693402 0.485261
2.49365 0.693402 0.485261
2.49365 0.693402 0.485261
2.49365 0.693402 0.485261
2.49365 0.693402 0.485261
2.49365 0.693402 0.485261
2.49365 0.693402 0.485261
2.49365 0.693402 0.485261
2.49365 0.693402 0.485123
2.49365 0.693402 0.485123
2.49365 0.693402 0.485123
2.49365 0.693402 0.485123
2.49365 0.693402 0.485123
2.49365 0.693402 0.485123
2.49365 0.693402 0.485123
2.49365 0.693402 0.485123
2.49365 0.693402 0.485123
2.49365 0.693402 0.485123
2.49365 0.693402 0.485123
2.49365 0.693402 0.485123
2.49365 0.693402 0.485123
2.49365 0.693402 0.485123
2.49365 0.693402 0.485123
2.49365 0.693402 0.485123
2.49365 0.693402 0.485123
2.49365 0.693402 0.485123
2.49365 0.693402 0.485123
2.49365 0.693402 0.485123
2.49365 0.693399 0.485123
2.49365 0.693399 0.485123
2.49365 0.693399 0.485123
2.49365 0.693399 0.485123
2.49365 0.693399 0.485123
2.49365 0.693399 0.485123
2.49365 0.693399 0.485123
2.49365 0.693399 0.485123
2.49365 0.693399 0.485123
2.49365 0.693399 0.485123
2.49365 0.693399 0.485123
2.49365 0.693399 0.485123
2.49365 0.693399 0.485123
2.49365 0.693399 0.485112
2.49365 0.693399 0.485112
2.49365 0.693399 0.485112
2.49365 0.693399 0.485108
2.49365 0.693399 0.485108
2.49365 0.693399 0.485106
2.49365 0.693399 0.485106
2.49365 0.693399 0.485106
2.49365 0.693399 0.485106
2.49365 0.693377 0.485106
2.49365 0.693377 0.485106
2.49365 0.693377 0.485106
2.49365 0.693377 0.485106
2.49365 0.693377 0.485106
2.49365 0.693377 0.485103
2.49365 0.693377 0.485103
2.49365 0.693377 0.485103
2.49365 0.693377 0.485103
2.49365 0.693377 0.485103
2.49365 0.693377 0.485103
2.49365 0.693377 0.485103
2.49365 0.693377 0.485103
2.49365 0.693377 0.485103
2.49365 0.693377 0.485103
2.49365 0.693377 0.485103
2.49365 0.693377 0.485103
2.49365 0.693377 0.485103
2.49365 0.693377 0.485103
2.49365 0.693377 0.485103
2.49365 0.693377 0.485103
2.49365 0.693377 0.485103
2.49365 0.693377 0.485103
2.49365 0.693377 0.485103
2.49365 0.693377 0.485103
2.49365 0.693377 0.485103
2.49365 0.693377 0.485103
2.49365 0.693377 0.485103
2.49365 0.693377 0.485103
2.49365 0.693377 0.485103
2.49365 0.693377 0.485103
2.49365 0.693377 0.485103
2.49365 0.693377 0.485103
2.49365 0.693377 0.485103
2.49365 0.693377 0.485103
2.49365 0.693377 0.485103
2.49365 0.693377 0.485103
2.49365 0.693377 0.485103
2.49365 0.693377 0.485103
2.49365 0.693377 0.485103
2.49365 0.693377 0.485103
2.49365 0.693377 0.485103
2.49365 0.693377 0.485103
2.49365 0.693377 0.485103
2.49365 0.693377 0.485103
2.49365 0.693377 0.485103
2.49365 0.693377 0.485103
2.49365 0.693377 0.485103
2.49365 0.693377 0.485103
2.49365 0.693377 0.485103
2.49365 0.693377 0.491065
2.49365 0.693377 0.499651
2.49365 0.693377 0.506872
2.49365 0.693377 0.513264
2.49365 0.693377 0.518718
2.49365 0.693377 0.522895
2.49365 0.693377 0.525712
2.49365 0.693377 0.527564
2.49365 0.693377 0.528055
2.49365 0.697506 0.527245
2.49365 0.707292 0.525436
2.49365 0.716256 0.522785
2.49365 0.724358 0.5195
2.49365 0.731634 0.515754
2.49365 0.738075 0.511564
2.49365 0.742338 0.507701
2.49365 0.748263 0.507701
2.49365 0.751675 0.507701
2.49365 0.75592 0.507701
2.49365 0.762792 0.507701
2.49365 0.767861 0.507701
2.49365 0.771102 0.507701
2.49365 0.775394 0.507701
2.49365 0.780633 0.507701
2.49365 0.785054 0.507701
2.49365 0.788866 0.507701
2.49365 0.793246 0.507701
2.49365 0.797937 0.507701
2.49365 0.80221 0.507701
2.49365 0.806167 0.507701
2.49365 0.809926 0.507701
2.49365 0.813396 0.517063
2.49365 0.816144 0.529658
2.49365 0.818325 0.543039
2.49365 0.819946 0.556987
2.49365 0.821907 0.564087
2.49365 0.821666 0.569557
2.49365 0.822034 0.573464
2.49365 0.821753 0.578245
2.49365 0.821964 0.582483
2.49365 0.822609 0.585589
2.49365 0.824138 0.588013
2.49365 0.826275 0.590406
2.49365 0.828903 0.592456
2.49365 0.832527 0.593597
2.49365 0.835577 0.593817
2.49365 0.839452 0.593103
2.49365 0.843411 0.59182
2.49365 0.847756 0.589753
2.49365 0.852227 0.587015
2.49365 0.856818 0.583777
2.49365 0.8608 0.580443
2.49365 0.864235 0.5771
2.49365 0.864808 0.574369
2.49365 0.865373 0.571702
2.49365 0.865118 0.569385
2.49365 0.864345 0.567468
2.49365 0.862647 0.566014
2.49365 0.859425 0.565181
2.49365 0.854729 0.56488
2.49365 0.848514 0.56539
2.49365 0.840943 0.566732
2.49365 0.832269 0.568505
2.49365 0.823585 0.569738
2.49365 0.8137 0.570951
2.49365 0.803807 0.571105
2.49365 0.793672 0.57059
2.49365 0.783865 0.569138
2.49365 0.78005 0.566707
2.49365 0.78005 0.563202
2.49365 0.78005 0.558415
2.49365 0.78005 0.554864
2.49365 0.78005 0.554864
2.49365 0.78005 0.554864
2.49365 0.78005 0.554864
2.49365 0.78005 0.554864
2.49365 0.78005 0.554864
2.49365 0.78005 0.554864
2.49365 0.78005 0.554864
2.49365 0.78005 0.554864
2.49365 0.78005 0.554864
2.49365 0.78005 0.554864
2.49365 0.78005 0.554864
2.49365 0.78005 0.554864
2.49365 0.78005 0.554864
2.49365 0.78005 0.554864
2.49365 0.78005 0.554864
2.49365 0.78005 0.554864
2.49365 0.78005 0.554864
2.49365 0.78005 0.554864
2.49365 0.78005 0.554864
2.49365 0.78005 0.554864
2.49365 0.78005 0.554864
2.49365 0.78005 0.554864
2.49365 0.78005 0.554864
2.49365 0.78005 0.554864
2.49365 0.78005 0.554864
2.49365 0.78005 0.554864
2.49365 0.78005 0.554864
2.49365 0.78005 0.554864
2.49365 0.78005 0.554864
2.49365 0.78005 0.554864
2.49365 0.786453 0.554864
2.49365 0.803776 0.554864
2.49365 0.823062 0.554864
2.49365 0.843648 0.554864
2.49365 0.86506 0.554864
2.49365 0.886547 0.556639
2.49365 2.72964 0.557153
2.49365 2.72964 0.557153
2.49365 2.72964 0.557153
2.49365 2.72964 0.557153
2.49365 2.72964 0.557153
2.49365 2.72964 0.557153
2.49365 2.72964 0.557153
2.49365 2.72964 0.557153
2.49365 2.72964 0.557153
2.49365 2.72964 0.557153
2.49365 2.72964 0.568961
2.49365 2.72964 0.576074
2.49365 2.72964 0.582636
2.49365 2.72964 0.597526
2.49365 2.72964 0.612242
2.49365 2.72964 0.622133
2.49365 2.72964 0.628722
2.49365 2.72964 0.638263
2.49365 2.72964 0.648701
2.49365 2.72964 0.655227
2.49365 2.72964 0.657928
2.49365 2.72964 0.660314
2.49365 2.72964 0.662814
2.49365 2.72964 0.662519
2.49365 2.72964 0.659781
2.49365 2.72964 0.655769
2.49365 2.72964 0.650495
2.49365 2.72964 0.643567
2.49365 2.72964 0.635477
2.49365 2.72964 0.626616
2.49365 2.72964 0.618212
2.49365 2.72964 0.611565
2.49365 2.72964 0.611565
2.49365 2.72964 0.611565
2.49365 2.72964 0.611565
2.49365 2.72964 0.611565
2.49365 2.72964 0.611565
2.49365 2.72964 0.611565
2.49365 2.72964 0.611565
2.49365 2.72964 0.611565
2.49365 2.72964 0.611565
2.49365 2.72964 0.611565
2.49365 2.72964 0.611565
2.49365 2.72964 0.611565
2.49365 2.72964 0.611565
2.49365 2.72964 0.611565
2.49365 2.72964 0.626062
2.49365 2.72964 0.644826
2.49365 2.72964 0.663774
2.49365 2.72964 0.682315
2.49365 2.72964 0.699693
2.49365 2.72964 0.714511
2.49365 2.72964 0.722987
2.49365 2.72964 1.94377
2.49365 2.72964 1.94377
2.49365 2.72964 1.94377
2.49365 2.72964 1.94377
2.49365 2.72964 1.94377
2.49365 2.72964 1.94377
2.49365 2.72964 1.94377
2.49365 2.72964 1.94377
2.49365 2.72964 1.94377
2.49365 2.72964 1.94377
2.49365 2.72964 1.94377
2.49365 2.72964 1.94377
2.49365 2.72964 1.94377
2.49365 2.72964 1.94377
2.49365 2.72964 1.94377
2.49365 2.72964 1.94377
2.49365 2.72964 1.94377
2.49365 2.72964 1.94377
2.49365 2.72964 1.94377
2.49365 2.72964 1.94377
2.49365 2.72964 1.94377
2.49365 2.72964 1.94377
2.49365 2.72964 1.94377
2.49365 2.72964 1.94377
2.49365 2.72964 1.94377
2.49365 2.72964 1.94377
2.49365 2.72964 1.94377
2.49365 2.72964 1.94377
2.49365 2.72964 1.94377
2.49365 2.72964 1.94377
2.49365 2.72964 1.94377
2.49365 2.72964 1.94377
2.49365 2.72964 1.94377
2.49365 2.72964 1.94377
2.49365 2.72964 1.94377
2.49365 2.72964 1.94377
2.49365 2.72964 1.94377
2.49365 2.72964 1.94377
2.49365 2.72964 1.94377
2.49365 2.72964 1.94377
2.49365 2.72964 1.94377
2.49365 2.72964 1.94377
2.49365 2.72964 1.94377
2.49365 2.72964 1.94377
2.49365 2.72964 1.94377
2.49365 2.72964 1.94377
2.49365 2.72964 1.94377
2.49365 2.72964 1.94377
2.49365 2.72964 1.94377
2.49365 2.72964 1.94377
2.49365 2.72964 1.94377
2.49365 2.72964 1.94377
2.49365 2.72964 1.94377
2.49365 2.72964 1.94377
2.49365 2.72964 1.94377
2.49365 2.72964 1.94377
2.49365 2.72964 1.94377
2.49365 2.72964 1.94377
2.49365 2.72964 1.94377
2.49365 2.72964 1.94377
2.49365 2.72964 1.94377
2.49365 2.72964 1.94377
2.49365 2.72964 1.94377
2.49365 2.72964 1.94377
2.49365 2.72964 1.94377
2.49365 2.72964 1.94377
2.49365 2.72964 1.94377
2.49365 2.72964 1.94377
2.49365 2.72964 1.94377
2.49365 2.72964 1.94377
2.49365 2.72964 1.94377
2.49365 2.72964 1.94377
2.49365 2.72964 1.94377
2.49365 2.72964 1.94377
2.49365 2.72964 1.94377
2.49365 2.72964 1.94377
2.49365 2.72964 1.94377
2.49365 2.72964 1.94377
2.49365 2.72964 1.94377
2.49365 2.72964 1.94377
2.49365 2.72964 1.94377
2.49365 2.72964 1.94377
2.49365 2.72964 1.94377
2.49365 2.72964 1.94377
2.49365 2.72964 1.94377
2.49365 2.72964 1.94377
2.49365 2.72964 1.94377
2.49365 2.72964 1.94377
2.49365 2.72964 1.94377
2.49365 2.72964 1.94377
2.49365 2.72964 1.94377
2.49365 2.72964 1.94377
2.49365 2.72964 1.94377
2.49365 2.72964 1.94377
2.49365 2.72964 1.94377
2.49365 2.72964 1.94377
2.49365 2.72964 1.94377
2.49365 2.72964 1.94377
2.49365 2.72964 1.94377
2.49365 2.72964 1.94377
2.49365 2.72964 1.94377
2.49365 2.72964 1.94377
2.49365 2.72964 1.94377
2.49365 2.72964 1.94377
2.49365 2.72964 1.94377
2.49365 2.72964 1.94377
2.49365 2.72964 1.94377
2.49365 2.72964 1.94377
2.49365 2.72964 1.94377
2.49365 2.72964 1.94377
2.49365 2.72964 1.94377
2.49365 2.72964 1.94377
2.49365 2.72964 1.94377
2.49365 2.72964 1.94377
2.49365 2.72964 1.94377
2.49365 2.72964 1.94377
2.49365 2.72964 1.94377
2.49365 2.72964 1.94377
2.49365 2.72964 1.94377
2.49365 2.72964 1.94377
2.49365 2.72964 1.94377
2.49365 2.72964 1.94377
2.49365 2.72964 1.94377
2.49365 2.72964 1.94377
2.49365 2.72964 1.94377
2.49365 2.72964 1.94377
2.49365 2.72964 1.94377
2.49365 2.72964 1.94377
2.49365 2.72964 1.94377
2.49365 2.72964 1.94377
2.49365 2.72964 1.94377
2.49365 2.72964 1.94377
2.49365 2.72964 1.94377
2.49365 2.72964 1.94377
2.49365 2.72964 1.94377
2.49365 2.72964 1.94377
2.49365 2.72964 1.94377
2.49365 2.72964 1.94377
2.49365 2.72964 1.94377
2.49365 2.72964 1.94377
2.49365 2.72964 1.94377
2.49365 2.72964 1.94377
2.49365 2.72964 1.94377
2.49365 2.72964 1.94377
2.49365 2.72964 1.94377
2.49365 2.72964 1.94377
2.49365 2.72964 1.94377
2.49365 2.72964 1.94377
2.49365 2.72964 1.94377
2.49365 2.72964 1.94377
2.49365 2.72964 1.94377
2.49365 2.72964 1.94377
2.49365 2.72964 1.94377
2.49365 2.72964 1.94377
2.49365 2.72964 1.94377
2.49365 2.72964 1.94377
2.49365 2.72964 1.94377
2.49365 2.72964 1.94377
2.49365 2.72964 1.94377
2.49365 2.72964 1.94377
2.49365 2.72964 1.94377
2.49365 2.72964 1.94377
2.49365 2.72964 1.94377
2.49365 2.72964 1.94377
2.49365 2.72964 1.94377
2.49365 2.72964 1.94377
2.49365 2.72964 1.94377
2.49365 2.72964 1.94377
2.49365 2.72964 1.94377
2.49365 2.72964 1.94377
2.49365 2.72964 1.94377
2.49365 2.72964 1.94377
2.49365 2.72964 1.94377
2.49365 2.72964 1.94377
2.49365 2.72964 1.94377
2.49365 2.72964 1.94377
2.49365 2.72964 1.94377
2.49365 2.72964 1.94377
2.49365 2.72964 1.94377
2.49365 2.72964 1.94377
2.49365 2.72964 1.94377
2.49365 2.72964 1.94377
2.49365 2.72964 1.94377
2.49365 2.72964 1.94377
2.49365 2.72964 1.94377
2.49365 2.72964 1.94377
2.49365 2.72964 1.94377
2.49365 2.72964 1.94377
2.49365 2.72964 1.94377
2.49365 2.72964 1.94377
2.49365 2.72964 1.94377
2.49365 2.72964 1.94377
2.49365 2.72964 1.94377
2.49365 2.72964 1.94377
2.49365 2.72964 1.94377
2.49365 2.72964 1.94377
2.49365 2.72964 1.94377
2.49365 2.72964 1.94377
2.49365 2.72964 1.94377
2.49365 2.72964 1.94377
2.49365 2.72964 1.94377
2.49365 2.72964 1.94377
2.49365 2.72964 1.94377
2.49365 2.72964 1.94377
2.49365 2.72964 1.94377
2.49365 2.72964 1.94377
2.49365 2.72964 1.94377
2.49365 2.72964 1.94377
2.49365 2.72964 1.94377
2.49365 2.72964 1.94377
2.49365 2.72964 1.94377
2.49365 2.72964 1.94377
2.49365 2.72964 1.94377
2.49365 2.72964 1.94377
2.49365 2.72964 1.94377
2.49365 2.72964 1.94377
2.49365 2.72964 1.94377
2.49365 2.72964 1.94377
2.49365 2.72964 1.94377
2.49365 2.72964 1.94377
2.49365 2.72964 1.94377
2.49365 2.72964 1.94377
2.49365 2.72964 1.94377
2.49365 2.72964 1.94377
2.49365 2.72964 1.94377
2.49365 2.72964 1.94377
2.49365 2.72964 1.94377
2.49365 2.72964 1.94377
2.49365 2.72964 1.94377
2.49365 2.72964 1.94377
2.49365 2.72964 1.94377
2.49365 2.72964 1.94377
2.49365 2.72964 1.94377
2.49365 2.72964 1.94377
2.49365 2.72964 1.94377
2.49365 2.72964 1.94377
2.49365 2.72964 1.94377
2.49365 2.72964 1.94377
2.49365 2.72964 1.94377
2.49365 2.72964 1.94377
2.49365 2.72964 1.94377
2.49365 2.72964 1.94377
2.49365 2.72964 1.94377
2.49365 2.72964 1.94377
2.49365 2.72964 1.94377
2.49365 2.72964 1.94377
2.49365 2.72964 1.94377
2.49365 2.72964 1.94377
2.49365 2.72964 1.94377
2.49365 2.72964 1.94377
2.49365 2.72964 1.94377
2.49365 2.72964 1.94377
2.49365 2.72964 1.94377
2.49365 2.72964 1.94377
2.49365 2.72964 1.94377
2.49365 2.72964 1.94377
2.49365 2.72964 1.94377
2.49365 2.72964 1.94377
2.49365 2.72964 1.94377
2.49365 2.72964 1.94377
2.49365 2.72964 1.94377
2.49365 2.72964 1.94377
2.49365 2.72964 1.94377
2.49365 2.72964 1.94377
2.49365 2.72964 1.94377
2.49365 2.72964 1.94377
2.49365 2.72964 1.94377
2.49365 2.72964 1.94377
2.49365 2.72964 1.94377
2.49365 2.72964 1.94377
2.49365 2.72964 1.94377
2.49365 2.72964 1.94377
2.49365 2.72964 1.94377
2.49365 2.72964 1.94377
2.49365 2.72964 1.94377
2.49365 2.72964 1.94377
2.49365 2.72964 1.94377
2.49365 2.72964 1.94377
2.49365 2.72964 1.94377
2.49365 2.72964 1.94377
2.49365 2.72964 1.94377
2.49365 2.72964 1.94377
2.49365 2.72964 1.94377
2.49365 2.72964 1.94377
2.49365 2.72964 1.94377
2.49365 2.72964 1.94377
2.49365 2.72964 1.94377
2.49365 2.72964 1.94377
2.49365 2.72964 1.94377
2.49365 2.72964 1.94377
2.49365 2.72964 1.94377
2.49365 2.72964 1.94377
2.49365 2.72964 1.94377
2.49365 2.72964 1.94377
2.49365 2.72964 1.94377
2.49365 2.72964 1.94377
2.49365 2.72964 1.94377
2.49365 2.72964 1.94377
2.49365 2.72964 1.94377
2.49365 2.72964 1.94377
2.49365 2.72964 1.94377
2.49365 2.72964 1.94377
2.49365 2.72964 1.94377
2.49365 2.72964 1.94377
2.49365 2.72964 1.94377
2.49365 2.72964 1.94377
2.49365 2.72964 1.94377
2.49365 2.72964 1.94377
2.49365 2.72964 1.94377
2.49365 2.72964 1.94377
2.49365 2.72964 1.94377
2.49365 2.72964 1.94377
2.49365 2.72964 1.94377
2.49365 2.72964 1.94377
2.49365 2.72964 1.94377
2.49365 2.72964 1.94377
2.49365 2.72964 1.94377
2.49365 2.72964 1.94377
2.49365 2.72964 1.94377
2.49365 2.72964 1.94377
2.49365 2.72964 1.94377
2.49365 2.72964 1.94377
2.49365 2.72964 1.94377
2.49365 2.72964 1.94377
2.49365 2.72964 1.94377
2.49365 2.72964 1.94377
2.49365 2.72964 1.94377
2.49365 2.72964 1.94377
2.49365 2.72964 1.94377
2.49365 2.72964 1.94377
2.49365 2.72964 1.94377
2.49365 2.72964 1.94377
2.49365 2.72964 1.94377
2.49365 2.72964 1.94377
2.49365 2.72964 1.94377
2.49365 2.72964 1.94377
2.49365 2.72964 1.94377
2.49365 2.72964 1.94377
2.49365 2.72964 1.94377
2.49365 2.72964 1.94377
2.49365 2.72964 1.94377
2.49365 2.72964 1.94377
2.49365 2.72964 1.94377
2.49365 2.72964 1.94377
2.49365 2.72964 1.94377
2.49365 2.72964 1.94377
2.49365 2.72964 1.94377
2.49365 2.72964 1.94377
2.49365 2.72964 1.94377
2.49365 2.72964 1.94377
2.49365 2.72964 1.94377
2.49365 2.72964 1.94377
2.49365 2.72964 1.94377
2.49365 2.72964 1.94377
2.49365 2.72964 1.94377
2.49365 2.72964 1.94377
2.49365 2.72964 1.94377
2.49365 2.72964 1.94377
2.49365 2.72964 1.94377
2.49365 2.72964 1.94377
2.49365 2.72964 1.94377
2.49365 2.72964 1.94377
2.49365 2.72964 1.94377
2.49365 2.72964 1.94377
2.49365 2.72964 1.94377
2.49365 2.72964 1.94377
2.49365 2.72964 1.94377
2.49365 2.72964 1.94377
2.49365 2.72964 1.94377
2.49365 2.72964 1.94377
2.49365 2.72964 1.94377
2.49365 2.72964 1.94377
2.49365 2.72964 1.94377
2.49365 2.72964 1.94377
2.49365 2.72964 1.94377
2.49365 2.72964 1.94377
2.49365 2.72964 1.94377
2.49365 2.72964 1.94377
2.49365 2.72964 1.94377
2.49365 2.72964 1.94377
2.49365 2.72964 1.94377
2.49365 2.72964 1.94377
2.49365 2.72964 1.94377
2.49365 2.72964 1.94377
2.49365 2.72964 1.94377
2.49365 2.72964 1.94377
2.49365 2.72964 1.94377
2.49365 2.72964 1.94377
2.49365 2.72964 1.94377
2.49365 2.72964 1.94377
2.49365 2.72964 1.94377
2.49365 2.72964 1.94377
2.49365 2.72964 1.94377
2.49365 2.72964 1.94377
2.49365 2.72964 1.94377
2.49365 2.72964 1.94377
2.49365 2.72964 1.94377
2.49365 2.72964 1.94377
2.49365 2.72964 1.94377
2.49365 2.72964 1.94377
2.49365 2.72964 1.94377
2.49365 2.72964 1.94377
2.49365 2.72964 1.94377
2.49365 2.72964 1.94377
2.49365 2.72964 1.94377
2.49365 2.72964 1.94377
2.49365 2.72964 1.94377
2.49365 2.72964 1.94377
2.49365 2.72964 1.94377
2.49365 2.72964 1.94377
2.49365 2.72964 1.94377
2.49365 2.72964 1.94377
2.49365 2.72964 1.94377
2.49365 2.72964 1.94377
2.49365 2.72964 1.94377
2.49365 2.72964 1.94377
2.49365 2.72964 1.94377
2.49365 2.72964 1.94377
2.49365 2.72964 1.94377
2.49365 2.72964 1.94377
2.49365 2.72964 1.94377
2.49365 2.72964 1.94377
2.49365 2.72964 1.94377
2.49365 2.72964 1.94377
2.49365 2.72964 1.94377
2.49365 2.72964 1.94377
2.49365 2.72964 1.94377
2.49365 2.72964 1.94377
2.49365 2.72964 1.94377
2.49365 2.72964 1.94377
2.49365 2.72964 1.94377
2.49365 2.72964 1.94377
2.49365 2.72964 1.94377
2.49365 2.72964 1.94377
2.49365 2.72964 1.94377
2.49365 2.72964 1.94377
2.49365 2.72964 1.94377
2.49365 2.72964 1.94377
2.49365 2.72964 1.94377
2.49365 2.72964 1.94377
2.49365 2.72964 1.94377
2.49365 2.72964 1.94377
2.49365 2.72964 1.94377
2.49365 2.72964 1.94377
2.49365 2.72964 1.94377
2.49365 2.72964 1.94377
2.49365 2.72964 1.94377
2.49365 2.72964 1.94377
2.49365 2.72964 1.94377
2.49365 2.72964 1.94377
2.49365 2.72964 1.94377
2.49365 2.72964 1.94377
2.49365 2.72964 1.94377
2.49365 2.72964 1.94377
2.49365 2.72964 1.94377
2.49365 2.72964 1.94377
2.49365 2.72964 1.94377
2.49365 2.72964 1.94377
2.49365 2.72964 1.94377
2.49365 2.72964 1.94377
2.49365 2.72964 1.94377
2.49365 2.72964 1.94377
2.49365 2.72964 1.94377
2.49365 2.72964 1.94377
2.49365 2.72964 1.94377
2.49365 2.72964 1.94377
2.49365 2.72964 1.94377
2.49365 2.72964 1.94377
2.49365 2.72964 1.94377
2.49365 2.72964 1.94377
2.49365 2.72964 1.94377
2.49365 2.72964 1.94377
2.49365 2.72964 1.94377
2.49365 2.72964 1.94377
2.49365 2.72964 1.94377
2.49365 2.72964 1.94377
2.49365 2.72964 1.94377
2.49365 2.72964 1.94377
2.49365 2.72964 1.94377
2.49365 2.72964 1.94377
2.49365 2.72964 1.94377
2.49365 2.72964 1.94377
2.49365 2.72964 1.94377
2.49365 2.72964 1.94377
2.49365 2.72964 1.94377
2.49365 2.72964 1.94377
2.49365 2.72964 1.94377
2.49365 2.72964 1.94377
2.49365 2.72964 1.94377
2.49365 2.72964 1.94377
2.49365 2.72964 1.94377
2.49365 2.72964 1.94377
2.49365 2.72964 1.94377
2.49365 2.72964 1.94377
2.49365 2.72964 1.94377
2.49365 2.72964 1.94377
2.49365 2.72964 1.94377
2.49365 2.72964 1.94377
2.49365 2.72964 1.94377
2.49365 2.72964 1.94377
2.49365 2.72964 1.94377
2.49365 2.72964 1.94377
2.49365 2.72964 1.94377
2.49365 2.72964 1.94377
2.49365 2.72964 1.94377
2.49365 2.72964 1.94377
2.49365 2.72964 1.94377
2.49365 2.72964 1.94377
2.49365 2.72964 1.94377
2.49365 2.72964 1.94377
2.49365 2.72964 1.94377
2.49365 2.72964 1.94377
2.49365 2.72964 1.94377
2.49365 2.72964 1.94377
2.49365 2.72964 1.94377
2.49365 2.72964 1.94377
2.49365 2.72964 1.94377
2.49365 2.72964 1.94377
2.49365 2.72964 1.94377
2.49365 2.72964 1.94377
2.49365 2.72964 1.94377
2.49365 2.72964 1.94377
2.49365 2.72964 1.94377
2.49365 2.72964 1.94377
2.49365 2.72964 1.94377
2.49365 2.72964 1.94377
2.49365 2.72964 1.94377
2.49365 2.72964 1.94377
2.49365 2.72964 1.94377
2.49365 2.72964 1.94377
2.49365 2.72964 1.94377
2.49365 2.72964 1.94377
2.49365 2.72964 1.94377
2.49365 2.72964 1.94377
2.49365 2.72964 1.94377
2.49365 2.72964 1.94377
2.49365 2.72964 1.94377
2.49365 2.72964 1.94377
2.49365 2.72964 1.94377
2.49365 2.72964 1.94377
2.49365 2.72964 1.94377
2.49365 2.72964 1.94377
2.49365 2.72964 1.94377
2.49365 2.72964 1.94377
2.49365 2.72964 1.94377
2.49365 2.72964 1.94377
2.49365 2.72964 1.94377
2.49365 2.72964 1.94377
2.49365 2.72964 1.94377
2.49365 2.72964 1.94377
2.49365 2.72964 1.94377
2.49365 2.72964 1.94377
2.49365 2.72964 1.94377
2.49365 2.72964 1.94377
2.49365 2.72964 1.94377
2.49365 2.72964 1.94377
2.49365 2.72964 1.94377
2.49365 2.72964 1.94377
2.49365 2.72964 1.94377
2.49365 2.72964 1.94377
2.49365 2.72964 1.94377
2.49365 2.72964 1.94377
2.49365 2.72964 1.94377
2.49365 2.72964 1.94377
2.49365 2.72964 1.94377
2.49365 2.72964 1.94377
2.49365 2.72964 1.94377
2.49365 2.72964 1.94377
2.49365 2.72964 1.94377
2.49365 2.72964 1.94377
2.49365 2.72964 1.94377
2.49365 2.72964 1.94377
2.49365 2.72964 1.94377
2.49365 2.72964 1.94377
2.49365 2.72964 1.94377
2.49365 2.72964 1.94377
2.49365 2.72964 1.94377
2.49365 2.72964 1.94377
2.49365 2.72964 1.94377
2.49365 2.72964 1.94377
2.49365 2.72964 1.94377
2.49365 2.72964 1.94377
2.49365 2.72964 1.94377
2.49365 2.72964 1.94377
2.49365 2.72964 1.94377
2.49365 2.72964 1.94377
2.49365 2.72964 1.94377
2.49365 2.72964 1.94377
2.49365 2.72964 1.94377
2.49365 2.72964 1.94377
2.49365 2.72964 1.94377
2.49365 2.72964 1.94377
2.49365 2.72964 1.94377
2.49365 2.72964 1.94377
2.49365 2.72964 1.94377
2.49365 2.72964 1.94377
2.49365 2.72964 1.94377
2.49365 2.72964 1.94377
2.49365 2.72964 1.94377
2.49365 2.72964 1.94377
2.49365 2.72964 1.94377
2.49365 2.72964 1.94377
2.49365 2.72964 1.94377
2.49365 2.72964 1.94377
2.49365 2.72964 1.94377
2.49365 2.72964 1.94377
2.49365 2.72964 1.94377
2.49365 2.72964 1.94377
2.49365 2.72964 1.94377
2.49365 2.72964 1.94377
2.49365 2.72964 1.94377
2.49365 2.72964 1.94377
2.49365 2.72964 1.94377
2.49365 2.72964 1.94377
2.49365 2.72964 1.94377
2.49365 2.72964 1.94377
2.49365 2.72964 1.94377
2.49365 2.72964 1.94377
2.49365 2.72964 1.94377
2.49365 2.72964 1.94377
2.49365 2.72964 1.94377
2.49365 2.72964 1.94377
2.49365 2.72964 1.94377
2.49365 2.72964 1.94377
2.49365 2.72964 1.94377
2.49365 2.72964 1.94377
2.49365 2.72964 1.94377
2.49365 2.72964 1.94377
2.49365 2.72964 1.94377
2.49365 2.72964 1.94377
2.49365 2.72964 1.94377
2.49365 2.72964 1.94377
2.49365 2.72964 1.94377
2.49365 2.72964 1.94377
2.49365 2.72964 1.94377
2.49365 2.72964 1.94377
2.49365 2.72964 1.94377
2.49365 2.72964 1.94377
2.49365 2.72964 1.94377
2.49365 2.72964 1.94377
2.49365 2.72964 1.94377
2.49365 2.72964 1.94377
2.49365 2.72964 1.94377
2.49365 2.72964 1.94377
2.49365 2.72964 1.94377
2.49365 2.72964 1.94377
2.49365 2.72964 1.94377
2.49365 2.72964 1.94377
2.49365 2.72964 1.94377
2.49365 2.72964 1.94377
2.49365 2.72964 1.94377
2.49365 2.72964 1.94377
2.49365 2.72964 1.94377
2.49365 2.72964 1.94377
2.49365 2.72964 1.94377
2.49365 2.72964 1.94377
2.49365 2.72964 1.94377
2.49365 2.72964 1.94377
2.49365 2.72964 1.94377
2.49365 2.72964 1.94377
2.49365 2.72964 1.94377
2.49365 2.72964 1.94377
2.49365 2.72964 1.94377
2.49365 2.72964 1.94377
2.49365 2.72964 1.94377
2.49365 2.72964 1.94377
2.49365 2.72964 1.94377
2.49365 2.72964 1.94377
2.49365 2.72964 1.94377
2.49365 2.72964 1.94377
2.49365 2.72964 1.94377
2.49365 2.72964 1.94377
2.49365 2.72964 1.94377
2.49365 2.72964 1.94377
2.49365 2.72964 1.94377
2.49365 2.72964 1.94377
2.49365 2.72964 1.94377
2.49365 2.72964 1.94377
2.49365 2.72964 1.94377
2.49365 2.72964 1.94377
2.49365 2.72964 1.94377
2.49365 2.72964 1.94377
2.49365 2.72964 1.94377
2.49365 2.72964 1.94377
2.49365 2.72964 1.94377
2.49365 2.72964 1.94377
2.49365 2.72964 1.94377
2.49365 2.72964 1.94377
2.49365 2.72964 1.94377
2.49365 2.72964 1.94377
2.49365 2.72964 1.94377
2.49365 2.72964 1.94377
2.49365 2.72964 1.94377
2.49365 2.72964 1.94377
2.49365 2.72964 1.94377
2.49365 2.72964 1.94377
2.49365 2.72964 1.94377
2.49365 2.72964 1.94377
2.49365 2.72964 1.94377
2.49365 2.72964 1.94377
2.49365 2.72964 1.94377
2.49365 2.72964 1.94377
2.49365 2.72964 1.94377
2.49365 2.72964 1.94377
2.49365 2.72964 1.94377
2.49365 2.72964 1.94377
2.49365 2.72964 1.94377
2.49365 2.72964 1.94377
2.49365 2.72964 1.94377
2.49365 2.72964 1.94377
2.49365 2.72964 1.94377
2.49365 2.72964 1.94377
2.49365 2.72964 1.94377
2.49365 2.72964 1.94377
2.49365 2.72964 1.94377
2.49365 2.72964 1.94377
2.49365 2.72964 1.94377
2.49365 2.72964 1.94377
2.49365 2.72964 1.94377
2.49365 2.72964 1.94377
2.49365 2.72964 1.94377
2.49365 2.72964 1.94377
2.49365 2.72964 1.94377
2.49365 2.72964 1.94377
2.49365 2.72964 1.94377
2.49365 2.72964 1.94377
2.49365 2.72964 1.94377
2.49365 2.72964 1.94377
2.49365 2.72964 1.94377
2.49365 2.72964 1.94377
2.49365 2.72964 1.94377
2.49365 2.72964 1.94377
2.49365 2.72964 1.94377
2.49365 2.72964 1.94377
2.49365 2.72964 1.94377
2.49365 2.72964 1.94377
2.49365 2.72964 1.94377
2.49365 2.72964 1.94377
2.49365 2.72964 1.94377
2.49365 2.72964 1.94377
2.49365 2.72964 1.94377
2.49365 2.72964 1.94377
2.49365 2.72964 1.94377
2.49365 2.72964 1.94377
2.49365 2.72964 1.94377
2.49365 2.72964 1.94377
2.49365 2.72964 1.94377
2.49365 2.72964 1.94377
2.49365 2.72964 1.94377
2.49365 2.72964 1.94377
2.49365 2.72964 1.94377
2.49365 2.72964 1.94377
2.49365 2.72964 1.94377
2.49365 2.72964 1.94377
2.49365 2.72964 1.94377
2.49365 2.72964 1.94377
2.49365 2.72964 1.94377
2.49365 2.72964 1.94377
2.49365 2.72964 1.94377
2.49365 2.72964 1.94377
2.49365 2.72964 1.94377
2.49365 2.72964 1.94377
2.49365 2.72964 1.94377
2.49365 2.72964 1.94377
2.49365 2.72964 1.94377
2.49365 2.72964 1.94377
2.49365 2.72964 1.94377
2.49365 2.72964 1.94377
2.49365 2.72964 1.94377
2.49365 2.72964 1.94377
2.49365 2.72964 1.94377
2.49365 2.72964 1.94377
2.49365 2.72964 1.94377
2.49365 2.72964 1.94377
2.49365 2.72964 1.94377
2.49365 2.72964 1.94377
2.49365 2.72964 1.94377
2.49365 2.72964 1.94377
2.49365 2.72964 1.94377
2.49365 2.72964 1.94377
2.49365 2.72964 1.94377
2.49365 2.72964 1.94377
2.49365 2.72964 1.94377
2.49365 2.72964 1.94377
2.49365 2.72964 1.94377
2.49365 2.72964 1.94377
2.49365 2.72964 1.94377
2.49365 2.72964 1.94377
2.49365 2.72964 1.94377
2.49365 2.72964 1.94377
2.49365 2.72964 1.94377
2.49365 2.72964 1.94377
2.49365 2.72964 1.94377
2.49365 2.72964 1.94377
2.49365 2.72964 1.94377
2.49365 2.72964 1.94377
2.49365 2.72964 1.94377
2.49365 2.72964 1.94377
2.49365 2.72964 1.94377
2.49365 2.72964 1.94377
2.49365 2.72964 1.94377
2.49365 2.72964 1.94377
2.49365 2.72964 1.94377
2.49365 2.72964 1.94377
2.49365 2.72964 1.94377
2.49365 2.72964 1.94377
2.49365 2.72964 1.94377
2.49365 2.72964 1.94377
2.49365 2.72964 1.94377
2.49365 2.72964 1.94377
2.49365 2.72964 1.94377
2.49365 2.72964 1.94377
2.49365 2.72964 1.94377
2.49365 2.72964 1.94377
2.49365 2.72964 1.94377
2.49365 2.72964 1.94377
2.49365 2.72964 1.94377
2.49365 2.72964 1.94377
2.49365 2.72964 1.94377
2.49365 2.72964 1.94377
2.49365 2.72964 1.94377
2.49365 2.72964 1.94377
2.49365 2.72964 1.94377
2.49365 2.72964 1.94377
2.49365 2.72964 1.94377
2.49365 2.72964 1.94377
2.49365 2.72964 1.94377
2.49365 2.72964 1.94377
2.49365 2.72964 1.94377
2.49365 2.72964 1.94377
2.49365 2.72964 1.94377
2.49365 2.72964 1.94377
2.49365 2.72964 1.94377
2.49365 2.72964 1.94377
2.49365 2.72964 1.94377
2.49365 2.72964 1.94377
2.49365 2.72964 1.94377
2.49365 2.72964 1.94377
2.49365 2.72964 1.94377
2.49365 2.72964 1.94377
2.49365 2.72964 1.94377
2.49365 2.72964 1.94377
2.49365 2.72964 1.94377
2.49365 2.72964 1.94377
2.49365 2.72964 1.94377
2.49365 2.72964 1.94377
2.49365 2.72964 1.94377
2.49365 2.72964 1.94377
2.49365 2.72964 1.94377
2.49365 2.72964 1.94377
2.49365 2.72964 1.94377
2.49365 2.72964 1.94377
2.49365 2.72964 1.94377
2.49365 2.72964 1.94377
2.49365 2.72964 1.94377
2.49365 2.72964 1.94377
2.49365 2.72964 1.94377
2.49365 2.72964 1.94377
2.49365 2.72964 1.94377
2.49365 2.72964 1.94377
2.49365 2.72964 1.94377
2.49365 2.72964 1.94377
2.49365 2.72964 1.94377
2.49365 2.72964 1.94377
2.49365 2.72964 1.94377
2.49365 2.72964 1.94377
2.49365 2.72964 1.94377
2.49365 2.72964 1.94377
2.49365 2.72964 1.94377
2.49365 2.72964 1.94377
2.49365 2.72964 1.94377
2.49365 2.72964 1.94377
2.49365 2.72964 1.94377
2.49365 2.72964 1.94377
2.49365 2.72964 1.94377
2.49365 2.72964 1.94377
2.49365 2.72964 1.94377
2.49365 2.72964 1.94377
2.49365 2.72964 1.94377
2.49365 2.72964 1.94377
2.49365 2.72964 1.94377
2.49365 2.72964 1.94377
2.49365 2.72964 1.94377
2.49365 2.72964 1.94377
2.49365 2.72964 1.94377
2.49365 2.72964 1.94377
2.49365 2.72964 1.94377
2.49365 2.72964 1.94377
2.49365 2.72964 1.94377
2.49365 2.72964 1.94377
2.49365 2.72964 1.94377
2.49365 2.72964 1.94377
2.49365 2.72964 1.94377
2.49365 2.72964 1.94377
2.49365 2.72964 1.94377
2.49365 2.72964 1.94377
2.49365 2.72964 1.94377
2.49365 2.72964 1.94377
2.49365 2.72964 1.94377
2.49365 2.72964 1.94377
2.49365 2.72964 1.94377
2.49365 2.72964 1.94377
2.49365 2.72964 1.94377
2.49365 2.72964 1.94377
2.49365 2.72964 1.94377
2.49365 2.72964 1.94377
2.49365 2.72964 1.94377
2.49365 2.72964 1.94377
2.49365 2.72964 1.94377
2.49365 2.72964 1.94377
2.49365 2.72964 1.94377
2.49365 2.72964 1.94377
2.49365 2.72964 1.94377
2.49365 2.72964 1.94377
2.49365 2.72964 1.94377
2.49365 2.72964 1.94377
2.49365 2.72964 1.94377
2.49365 2.72964 1.94377
2.49365 2.72964 1.94377
2.49365 2.72964 1.94377
2.49365 2.72964 1.94377
2.49365 2.72964 1.94377
2.49365 2.72964 1.94377
2.49365 2.72964 1.94377
2.49365 2.72964 1.94377
2.49365 2.72964 1.94377
2.49365 2.72964 1.94377
2.49365 2.72964 1.94377
2.49365 2.72964 1.94377
2.49365 2.72964 1.94377
2.49365 2.72964 1.94377
2.49365 2.72964 1.94377
2.49365 2.72964 1.94377
2.49365 2.72964 1.94377
2.49365 2.72964 1.94377
2.49365 2.72964 1.94377
2.49365 2.72964 1.94377
2.49365 2.72964 1.94377
2.49365 2.72964 1.94377
2.49365 2.72964 1.94377
2.49365 2.72964 1.94377
2.49365 2.72964 1.94377
2.49365 2.72964 1.94377
2.49365 2.72964 1.94377
2.49365 2.72964 1.94377
2.49365 2.72964 1.94377
2.49365 2.72964 1.94377
2.49365 2.72964 1.94377
2.49365 2.72964 1.94377
2.49365 2.72964 1.94377
2.49365 2.72964 1.94377
2.49365 2.72964 1.94377
2.49365 2.72964 1.94377
2.49365 2.72964 1.94377
2.49365 2.72964 1.94377
2.49365 2.72964 1.94377
2.49365 2.72964 1.94377
2.49365 2.72964 1.94377
2.49365 2.72964 1.94377
2.49365 2.72964 1.94377
2.49365 2.72964 1.94377
2.49365 2.72964 1.94377
2.49365 2.72964 1.94377
2.49365 2.72964 1.94377
2.49365 2.72964 1.94377
2.49365 2.72964 1.94377
2.49365 2.72964 1.94377
2.49365 2.72964 1.94377
2.49365 2.72964 1.94377
2.49365 2.72964 1.94377
2.49365 2.72964 1.94377
2.49365 2.72964 1.94377
2.49365 2.72964 1.94377
2.49365 2.72964 1.94377
2.49365 2.72964 1.94377
2.49365 2.72964 1.94377
2.49365 2.72964 1.94377
2.49365 2.72964 1.94377
2.49365 2.72964 1.94377
2.49365 2.72964 1.94377
2.49365 2.72964 1.94377
2.49365 2.72964 1.94377
2.49365 2.72964 1.94377
2.49365 2.72964 1.94377
2.49365 2.72964 1.94377
2.49365 2.72964 1.94377
2.49365 2.72964 1.94377
2.49365 2.72964 1.94377
2.49365 2.72964 1.94377
2.49365 2.72964 1.94377
2.49365 2.72964 1.94377
2.49365 2.72964 1.94377
2.49365 2.72964 1.94377
2.49365 2.72964 1.94377
2.49365 2.72964 1.94377
2.49365 2.72964 1.94377
2.49365 2.72964 1.94377
2.49365 2.72964 1.94377
2.49365 2.72964 1.94377
2.49365 2.72964 1.94377
2.49365 2.72964 1.94377
2.49365 2.72964 1.94377
2.49365 2.72964 1.94377
2.49365 2.72964 1.94377
2.49365 2.72964 1.94377
2.49365 2.72964 1.94377
2.49365 2.72964 1.94377
2.49365 2.72964 1.94377
2.49365 2.72964 1.94377
2.49365 2.72964 1.94377
2.49365 2.72964 1.94377
2.49365 2.72964 1.94377
2.49365 2.72964 1.94377
2.49365 2.72964 1.94377
2.49365 2.72964 1.94377
2.49365 2.72964 1.94377
2.49365 2.72964 1.94377
2.49365 2.72964 1.94377
2.49365 2.72964 1.94377
2.49365 2.72964 1.94377
2.49365 2.72964 1.94377
2.49365 2.72964 1.94377
2.49365 2.72964 1.94377
2.49365 2.72964 1.94377
2.49365 2.72964 1.94377
2.49365 2.72964 1.94377
2.49365 2.72964 1.94377
2.49365 2.72964 1.94377
2.49365 2.72964 1.94377
2.49365 2.72964 1.94377
2.49365 2.72964 1.94377
2.49365 2.72964 1.94377
2.49365 2.72964 1.94377
2.49365 2.72964 1.94377
2.49365 2.72964 1.94377
2.49365 2.72964 1.94377
2.49365 2.72964 1.94377
2.49365 2.72964 1.94377
2.49365 2.72964 1.94377
2.49365 2.72964 1.94377
2.49365 2.72964 1.94377
2.49365 2.72964 1.94377
2.49365 2.72964 1.94377
2.49365 2.72964 1.94377
2.49365 2.72964 1.94377
2.49365 2.72964 1.94377
2.49365 2.72964 1.94377
2.49365 2.72964 1.94377
2.49365 2.72964 1.94377
2.49365 2.72964 1.94377
2.49365 2.72964 1.94377
2.49365 2.72964 1.94377
2.49365 2.72964 1.94377
2.49365 2.72964 1.94377
2.49365 2.72964 1.94377
2.49365 2.72964 1.94377
2.49365 2.72964 1.94377
2.49365 2.72964 1.94377
2.49365 2.72964 1.94377
2.49365 2.72964 1.94377
2.49365 2.72964 1.94377
2.49365 2.72964 1.94377
2.49365 2.72964 1.94377
2.49365 2.72964 1.94377
2.49365 2.72964 1.94377
2.49365 2.72964 1.94377
2.49365 2.72964 1.94377
2.49365 2.72964 1.94377
2.49365 2.72964 1.94377
2.49365 2.72964 1.94377
2.49365 2.72964 1.94377
2.49365 2.72964 1.94377
2.49365 2.72964 1.94377
2.49365 2.72964 1.94377
2.49365 2.72964 1.94377
2.49365 2.72964 1.94377
2.49365 2.72964 1.94377
2.49365 2.72964 1.94377
2.49365 2.72964 1.94377
2.49365 2.72964 1.94377
2.49365 2.72964 1.94377
2.49365 2.72964 1.94377
2.49365 2.72964 1.94377
2.49365 2.72964 1.94377
2.49365 2.72964 1.94377
2.49365 2.72964 1.94377
2.49365 2.72964 1.94377
2.49365 2.72964 1.94377
2.49365 2.72964 1.94377
2.49365 2.72964 1.94377
2.49365 2.72964 1.94377
2.49365 2.72964 1.94377
2.49365 2.72964 1.94377
2.49365 2.72964 1.94377
2.49365 2.72964 1.94377
2.49365 2.72964 1.94377
2.49365 2.72964 1.94377
2.49365 2.72964 1.94377
2.49365 2.72964 1.94377
2.49365 2.72964 1.94377
2.49365 2.72964 1.94377
2.49365 2.72964 1.94377
2.49365 2.72964 1.94377
2.49365 2.72964 1.94377
2.49365 2.72964 1.94377
2.49365 2.72964 1.94377
2.49365 2.72964 1.94377
2.49365 2.72964 1.94377
2.49365 2.72964 1.94377
2.49365 2.72964 1.94377
2.49365 2.72964 1.94377
2.49365 2.72964 1.94377
2.49365 2.72964 1.94377
2.49365 2.72964 1.94377
2.49365 2.72964 1.94377
2.49365 2.72964 1.94377
2.49365 2.72964 1.94377
2.49365 2.72964 1.94377
2.49365 2.72964 1.94377
2.49365 2.72964 1.94377
2.49365 2.72964 1.94377
2.49365 2.72964 1.94377
2.49365 2.72964 1.94377
2.49365 2.72964 1.94377
2.49365 2.72964 1.94377
2.49365 2.72964 1.94377
2.49365 2.72964 1.94377
2.49365 2.72964 1.94377
2.49365 2.72964 1.94377
2.49365 2.72964 1.94377
2.49365 2.72964 1.94377
2.49365 2.72964 1.94377
2.49365 2.72964 1.94377
2.49365 2.72964 1.94377
2.49365 2.72964 1.94377
2.49365 2.72964 1.94377
2.49365 2.72964 1.94377
2.49365 2.72964 1.94377
2.49365 2.72964 1.94377
2.49365 2.72964 1.94377
2.49365 2.72964 1.94377
2.49365 2.72964 1.94377
2.49365 2.72964 1.94377
2.49365 2.72964 1.94377
2.49365 2.72964 1.94377
2.49365 2.72964 1.94377
2.49365 2.72964 1.94377
2.49365 2.72964 1.94377
2.49365 2.72964 1.94377
2.49365 2.72964 1.94377
2.49365 2.72964 1.94377
2.49365 2.72964 1.94377
2.49365 2.72964 1.94377
2.49365 2.72964 1.94377
2.49365 2.72964 1.94377
2.49365 2.72964 1.94377
2.49365 2.72964 1.94377
2.49365 2.72964 1.94377
2.49365 2.72964 1.94377
2.49365 2.72964 1.94377
2.49365 2.72964 1.94377
2.49365 2.72964 1.94377
2.49365 2.72964 1.94377
2.49365 2.72964 1.94377
2.49365 2.72964 1.94377
2.49365 2.72964 1.94377
2.49365 2.72964 1.94377
2.49365 2.72964 1.94377
2.49365 2.72964 1.94377
2.49365 2.72964 1.94377
2.49365 2.72964 1.94377
2.49365 2.72964 1.94377
2.49365 2.72964 1.94377
2.49365 2.72964 1.94377
2.49365 2.72964 1.94377
2.49365 2.72964 1.94377
2.49365 2.72964 1.94377
2.49365 2.72964 1.94377
2.49365 2.72964 1.94377
2.49365 2.72964 1.94377
2.49365 2.72964 1.94377
2.49365 2.72964 1.94377
2.49365 2.72964 1.94377
2.49365 2.72964 1.94377
2.49365 2.72964 1.94377
2.49365 2.72964 1.94377
2.49365 2.72964 1.94377
2.49365 2.72964 1.94377
2.49365 2.72964 1.94377
2.49365 2.72964 1.94377
2.49365 2.72964 1.94377
2.49365 2.72964 1.94377
2.49365 2.72964 1.94377
2.49365 2.72964 1.94377
2.49365 2.72964 1.94377
2.49365 2.72964 1.94377
2.49365 2.72964 1.94377
2.49365 2.72964 1.94377
2.49365 2.72964 1.94377
2.49365 2.72964 1.94377
2.49365 2.72964 1.94377
2.49365 2.72964 1.94377
2.49365 2.72964 1.94377
2.49365 2.72964 1.94377
2.49365 2.72964 1.94377
2.49365 2.72964 1.94377
2.49365 2.72964 1.94377
2.49365 2.72964 1.94377
2.49365 2.72964 1.94377
2.49365 2.72964 1.94377
2.49365 2.72964 1.94377
2.49365 2.72964 1.94377
2.49365 2.72964 1.94377
2.49365 2.72964 1.94377
2.49365 2.72964 1.94377
2.49365 2.72964 1.94377
2.49365 2.72964 1.94377
2.49365 2.72964 1.94377
2.49365 2.72964 1.94377
2.49365 2.72964 1.94377
2.49365 2.72964 1.94377
2.49365 2.72964 1.94377
2.49365 2.72964 1.94377
2.49365 2.72964 1.94377
2.49365 2.72964 1.94377
2.49365 2.72964 1.94377
2.49365 2.72964 1.94377
2.49365 2.72964 1.94377
2.49365 2.72964 1.94377
2.49365 2.72964 1.94377
2.49365 2.72964 1.94377
2.49365 2.72964 1.94377
2.49365 2.72964 1.94377
2.49365 2.72964 1.94377
2.49365 2.72964 1.94377
2.49365 2.72964 1.94377
2.49365 2.72964 1.94377
2.49365 2.72964 1.94377
2.49365 2.72964 1.94377
2.49365 2.72964 1.94377
2.49365 2.72964 1.94377
2.49365 2.72964 1.94377
2.49365 2.72964 1.94377
2.49365 2.72964 1.94377
2.49365 2.72964 1.94377
2.49365 2.72964 1.94377
2.49365 2.72964 1.94377
2.49365 2.72964 1.94377
2.49365 2.72964 1.94377
2.49365 2.72964 1.94377
2.49365 2.72964 1.94377
2.49365 2.72964 1.94377
2.49365 2.72964 1.94377
2.49365 2.72964 1.94377
2.49365 2.72964 1.94377
2.49365 2.72964 1.94377
2.49365 2.72964 1.94377
2.49365 2.72964 1.94377
2.49365 2.72964 1.94377
2.49365 2.72964 1.94377
2.49365 2.72964 1.94377
2.49365 2.72964 1.94377
2.49365 2.72964 1.94377
2.49365 2.72964 1.94377
2.49365 2.72964 1.94377
2.49365 2.72964 1.94377
2.49365 2.72964 1.94377
2.49365 2.72964 1.94377
2.49365 2.72964 1.94377
2.49365 2.72964 1.94377
2.49365 2.72964 1.94377
2.49365 2.72964 1.94377
2.49365 2.72964 1.94377
2.49365 2.72964 1.94377
2.49365 2.72964 1.94377
2.49365 2.72964 1.94377
2.49365 2.72964 1.94377
2.49365 2.72964 1.94377
2.49365 2.72964 1.94377
2.49365 2.72964 1.94377
2.49365 2.72964 1.94377
2.49365 2.72964 1.94377
2.49365 2.72964 1.94377
2.49365 2.72964 1.94377
2.49365 2.72964 1.94377
2.49365 2.72964 1.94377
2.49365 2.72964 1.94377
2.49365 2.72964 1.94377
2.49365 2.72964 1.94377
2.49365 2.72964 1.94377
2.49365 2.72964 1.94377
2.49365 2.72964 1.94377
2.49365 2.72964 1.94377
2.49365 2.72964 1.94377
2.49365 2.72964 1.94377
2.49365 2.72964 1.94377
2.49365 2.72964 1.94377
2.49365 2.72964 1.94377
2.49365 2.72964 1.94377
2.49365 2.72964 1.94377
2.49365 2.72964 1.94377
2.49365 2.72964 1.94377
2.49365 2.72964 1.94377
2.49365 2.72964 1.94377
2.49365 2.72964 1.94377
2.49365 2.72964 1.94377
2.49365 2.72964 1.94377
2.49365 2.72964 1.94377
2.49365 2.72964 1.94377
2.49365 2.72964 1.94377
2.49365 2.72964 1.94377
2.49365 2.72964 1.94377
2.49365 2.72964 1.94377
2.49365 2.72964 1.94377
2.49365 2.72964 1.94377
2.49365 2.72964 1.94377
2.49365 2.72964 1.94377
2.49365 2.72964 1.94377
2.49365 2.72964 1.94377
2.49365 2.72964 1.94377
2.49365 2.72964 1.94377
2.49365 2.72964 1.94377
2.49365 2.72964 1.94377
2.49365 2.72964 1.94377
2.49365 2.72964 1.94377
2.49365 2.72964 1.94377
2.49365 2.72964 1.94377
2.49365 2.72964 1.94377
2.49365 2.72964 1.94377
2.49365 2.72964 1.94377
2.49365 2.72964 1.94377
2.49365 2.72964 1.94377
2.49365 2.72964 1.94377
2.49365 2.72964 1.94377
2.49365 2.72964 1.94377
2.49365 2.72964 1.94377
2.49365 2.72964 1.94377
2.49365 2.72964 1.94377
2.49365 2.72964 1.94377
2.49365 2.72964 1.94377
2.49365 2.72964 1.94377
2.49365 2.72964 1.94377
2.49365 2.72964 1.94377
2.49365 2.72964 1.94377
2.49365 2.72964 1.94377
2.49365 2.72964 1.94377
2.49365 2.72964 1.94377
2.49365 2.72964 1.94377
2.49365 2.72964 1.94377
2.49365 2.72964 1.94377
2.49365 2.72964 1.94377
2.49365 2.72964 1.94377
2.49365 2.72964 1.94377
2.49365 2.72964 1.94377
2.49365 2.72964 1.94377
2.49365 2.72964 1.94377
2.49365 2.72964 1.94377
2.49365 2.72964 1.94377
2.49365 2.72964 1.94377
2.49365 2.72964 1.94377
2.49365 2.72964 1.94377
2.49365 2.72964 1.94377
2.49365 2.72964 1.94377
2.49365 2.72964 1.94377
2.49365 2.72964 1.94377
2.49365 2.72964 1.94377
2.49365 2.72964 1.94377
2.49365 2.72964 1.94377
2.49365 2.72964 1.94377
2.49365 2.72964 1.94377
2.49365 2.72964 1.94377
2.49365 2.72964 1.94377
2.49365 2.72964 1.94377
2.49365 2.72964 1.94377
2.49365 2.72964 1.94377
2.49365 2.72964 1.94377
2.49365 2.72964 1.94377
2.49365 2.72964 1.94377
2.49365 2.72964 1.94377
2.49365 2.72964 1.94377
2.49365 2.72964 1.94377
2.49365 2.72964 1.94377
2.49365 2.72964 1.94377
2.49365 2.72964 1.94377
2.49365 2.72964 1.94377
2.49365 2.72964 1.94377
2.49365 2.72964 1.94377
2.49365 2.72964 1.94377
2.49365 2.72964 1.94377
2.49365 2.72964 1.94377
2.49365 2.72964 1.94377
2.49365 2.72964 1.94377
2.49365 2.72964 1.94377
2.49365 2.72964 1.94377
2.49365 2.72964 1.94377
2.49365 2.72964 1.94377
2.49365 2.72964 1.94377
2.49365 2.72964 1.94377
2.49365 2.72964 1.94377
2.49365 2.72964 1.94377
2.49365 2.72964 1.94377
2.49365 2.72964 1.94377
2.49365 2.72964 1.94377
2.49365 2.72964 1.94377
2.49365 2.72964 1.94377
2.49365 2.72964 1.94377
2.49365 2.72964 1.94377
2.49365 2.72964 1.94377
2.49365 2.72964 1.94377
2.49365 2.72964 1.94377
2.49365 2.72964 1.94377
2.49365 2.72964 1.94377
2.49365 2.72964 1.94377
2.49365 2.72964 1.94377
2.49365 2.72964 1.94377
2.49365 2.72964 1.94377
2.49365 2.72964 1.94377
2.49365 2.72964 1.94377
2.49365 2.72964 1.94377
2.49365 2.72964 1.94377
2.49365 2.72964 1.94377
2.49365 2.72964 1.94377
2.49365 2.72964 1.94377
2.49365 2.72964 1.94377
2.49365 2.72964 1.94377
2.49365 2.72964 1.94377
2.49365 2.72964 1.94377
2.49365 2.72964 1.94377
2.49365 2.72964 1.94377
2.49365 2.72964 1.94377
2.49365 2.72964 1.94377
2.49365 2.72964 1.94377
2.49365 2.72964 1.94377
2.49365 2.72964 1.94377
2.49365 2.72964 1.94377
2.49365 2.72964 1.94377
2.49365 2.72964 1.94377
2.49365 2.72964 1.94377
2.49365 2.72964 1.94377
2.49365 2.72964 1.94377
2.49365 2.72964 1.94377
2.49365 2.72964 1.94377
2.49365 2.72964 1.94377
2.49365 2.72964 1.94377
2.49365 2.72964 1.94377
2.49365 2.72964 1.94377
2.49365 2.72964 1.94377
2.49365 2.72964 1.94377
2.49365 2.72964 1.94377
2.49365 2.72964 1.94377
2.49365 2.72964 1.94377
2.49365 2.72964 1.94377
2.49365 2.72964 1.94377
2.49365 2.72964 1.94377
2.49365 2.72964 1.94377
2.49365 2.72964 1.94377
2.49365 2.72964 1.94377
2.49365 2.72964 1.94377
2.49365 2.72964 1.94377
2.49365 2.72964 1.94377
2.49365 2.72964 1.94377
2.49365 2.72964 1.94377
2.49365 2.72964 1.94377
2.49365 2.72964 1.94377
2.49365 2.72964 1.94377
2.49365 2.72964 1.94377
2.49365 2.72964 1.94377
2.49365 2.72964 1.94377
2.49365 2.72964 1.94377
2.49365 2.72964 1.94377
2.49365 2.72964 1.94377
2.49365 2.72964 1.94377
2.49365 2.72964 1.94377
2.49365 2.72964 1.94377
2.49365 2.72964 1.94377
2.49365 2.72964 1.94377
2.49365 2.72964 1.94377
2.49365 2.72964 1.94377
2.49365 2.72964 1.94377
2.49365 2.72964 1.94377
2.49365 2.72964 1.94377
2.49365 2.72964 1.94377
2.49365 2.72964 1.94377
2.49365 2.72964 1.94377
2.49365 2.72964 1.94377
2.49365 2.72964 1.94377
2.49365 2.72964 1.94377
2.49365 2.72964 1.94377
2.49365 2.72964 1.94377
2.49365 2.72964 1.94377
2.49365 2.72964 1.94377
2.49365 2.72964 1.94377
2.49365 2.72964 1.94377
2.49365 2.72964 1.94377
2.49365 2.72964 1.94377
2.49365 2.72964 1.94377
2.49365 2.72964 1.94377
2.49365 2.72964 1.94377
2.49365 2.72964 1.94377
2.49365 2.72964 1.94377
2.49365 2.72964 1.94377
2.49365 2.72964 1.94377
2.49365 2.72964 1.94377
2.49365 2.72964 1.94377
2.49365 2.72964 1.94377
2.49365 2.72964 1.94377
2.49365 2.72964 1.94377
2.49365 2.72964 1.94377
2.49365 2.72964 1.94377
2.49365 2.72964 1.94377
2.49365 2.72964 1.94377
2.49365 2.72964 1.94377
2.49365 2.72964 1.94377
2.49365 2.72964 1.94377
2.49365 2.72964 1.94377
2.49365 2.72964 1.94377
2.49365 2.72964 1.94377
2.49365 2.72964 1.94377
2.49365 2.72964 1.94377
2.49365 2.72964 1.94377
2.49365 2.72964 1.94377
2.49365 2.72964 1.94377
2.49365 2.72964 1.94377
2.49365 2.72964 1.94377
2.49365 2.72964 1.94377
2.49365 2.72964 1.94377
2.49365 2.72964 1.94377
2.49365 2.72964 1.94377
2.49365 2.72964 1.94377
2.49365 2.72964 1.94377
2.49365 2.72964 1.94377
2.49365 2.72964 1.94377
2.49365 2.72964 1.94377
2.49365 2.72964 1.94377
2.49365 2.72964 1.94377
2.49365 2.72964 1.94377
2.49365 2.72964 1.94377
2.49365 2.72964 1.94377
2.49365 2.72964 1.94377
2.49365 2.72964 1.94377
2.49365 2.72964 1.94377
2.49365 2.72964 1.94377
2.49365 2.72964 1.94377
2.49365 2.72964 1.94377
2.49365 2.72964 1.94377
2.49365 2.72964 1.94377
2.49365 2.72964 1.94377
2.49365 2.72964 1.94377
2.49365 2.72964 1.94377
2.49365 2.72964 1.94377
2.49365 2.72964 1.94377
2.49365 2.72964 1.94377
2.49365 2.72964 1.94377
2.49365 2.72964 1.94377
2.49365 2.72964 1.94377
2.49365 2.72964 1.94377
2.49365 2.72964 1.94377
2.49365 2.72964 1.94377
2.49365 2.72964 1.94377
2.49365 2.72964 1.94377
2.49365 2.72964 1.94377
2.49365 2.72964 1.94377
2.49365 2.72964 1.94377
2.49365 2.72964 1.94377
2.49365 2.72964 1.94377
2.49365 2.72964 1.94377
2.49365 2.72964 1.94377
2.49365 2.72964 1.94377
2.49365 2.72964 1.94377
2.49365 2.72964 1.94377
2.49365 2.72964 1.94377
2.49365 2.72964 1.94377
2.49365 2.72964 1.94377
2.49365 2.72964 1.94377
2.49365 2.72964 1.94377
2.49365 2.72964 1.94377
2.49365 2.72964 1.94377
2.49365 2.72964 1.94377
2.49365 2.72964 1.94377
2.49365 2.72964 1.94377
2.49365 2.72964 1.94377
2.49365 2.72964 1.94377
2.49365 2.72964 1.94377
2.49365 2.72964 1.94377
2.49365 2.72964 1.94377
2.49365 2.72964 1.94377
2.49365 2.72964 1.94377
2.49365 2.72964 1.94377
2.49365 2.72964 1.94377
2.49365 2.72964 1.94377
2.49365 2.72964 1.94377
2.49365 2.72964 1.94377
2.49365 2.72964 1.94377
2.49365 2.72964 1.94377
2.49365 2.72964 1.94377
2.49365 2.72964 1.94377
2.49365 2.72964 1.94377
2.49365 2.72964 1.94377
2.49365 2.72964 1.94377
2.49365 2.72964 1.94377
2.49365 2.72964 1.94377
2.49365 2.72964 1.94377
2.49365 2.72964 1.94377
2.49365 2.72964 1.94377
2.49365 2.72964 1.94377
2.49365 2.72964 1.94377
2.49365 2.72964 1.94377
2.49365 2.72964 1.94377
2.49365 2.72964 1.94377
2.49365 2.72964 1.94377
2.49365 2.72964 1.94377
2.49365 2.72964 1.94377
2.49365 2.72964 1.94377
2.49365 2.72964 1.94377
2.49365 2.72964 1.94377
2.49365 2.72964 1.94377
2.49365 2.72964 1.94377
2.49365 2.72964 1.94377
2.49365 2.72964 1.94377
2.49365 2.72964 1.94377
2.49365 2.72964 1.94377
2.49365 2.72964 1.94377
2.49365 2.72964 1.94377
2.49365 2.72964 1.94377
2.49365 2.72964 1.94377
2.49365 2.72964 1.94377
2.49365 2.72964 1.94377
2.49365 2.72964 1.94377
2.49365 2.72964 1.94377
2.49365 2.72964 1.94377
2.49365 2.72964 1.94377
2.49365 2.72964 1.94377
2.49365 2.72964 1.94377
2.49365 2.72964 1.94377
2.49365 2.72964 1.94377
2.49365 2.72964 1.94377
2.49365 2.72964 1.94377
2.49365 2.72964 1.94377
2.49365 2.72964 1.94377
2.49365 2.72964 1.94377
2.49365 2.72964 1.94377
2.49365 2.72964 1.94377
2.49365 2.72964 1.94377
2.49365 2.72964 1.94377
2.49365 2.72964 1.94377
2.49365 2.72964 1.94377
2.49365 2.72964 1.94377
2.49365 2.72964 1.94377
2.49365 2.72964 1.94377
2.49365 2.72964 1.94377
2.49365 2.72964 1.94377
2.49365 2.72964 1.94377
2.49365 2.72964 1.94377
2.49365 2.72964 1.94377
2.49365 2.72964 1.94377
2.49365 2.72964 1.94377
2.49365 2.72964 1.94377
2.49365 2.72964 1.94377
2.49365 2.72964 1.94377
2.49365 2.72964 1.94377
2.49365 2.72964 1.94377
2.49365 2.72964 1.94377
2.49365 2.72964 1.94377
2.49365 2.72964 1.94377
2.49365 2.72964 1.94377
2.49365 2.72964 1.94377
2.49365 2.72964 1.94377
2.49365 2.72964 1.94377
2.49365 2.72964 1.94377
2.49365 2.72964 1.94377
2.49365 2.72964 1.94377
2.49365 2.72964 1.94377
2.49365 2.72964 1.94377
2.49365 2.72964 1.94377
2.49365 2.72964 1.94377
2.49365 2.72964 1.94377
2.49365 2.72964 1.94377
2.49365 2.72964 1.94377
2.49365 2.72964 1.94377
2.49365 2.72964 1.94377
2.49365 2.72964 1.94377
2.49365 2.72964 1.94377
2.49365 2.72964 1.94377
2.49365 2.72964 1.94377
2.49365 2.72964 1.94377
2.49365 2.72964 1.94377
2.49365 2.72964 1.94377
2.49365 2.72964 1.94377
2.49365 2.72964 1.94377
2.49365 2.72964 1.94377
2.49365 2.72964 1.94377
2.49365 2.72964 1.94377
2.49365 2.72964 1.94377
2.49365 2.72964 1.94377
2.49365 2.72964 1.94377
2.49365 2.72964 1.94377
2.49365 2.72964 1.94377
2.49365 2.72964 1.94377
2.49365 2.72964 1.94377
2.49365 2.72964 1.94377
2.49365 2.72964 1.94377
2.49365 2.72964 1.94377
2.49365 2.72964 1.94377
2.49365 2.72964 1.94377
2.49365 2.72964 1.94377
2.49365 2.72964 1.94377
2.49365 2.72964 1.94377
2.49365 2.72964 1.94377
2.49365 2.72964 1.94377
2.49365 2.72964 1.94377
2.49365 2.72964 1.94377
2.49365 2.72964 1.94377
2.49365 2.72964 1.94377
2.49365 2.72964 1.94377
2.49365 2.72964 1.94377
2.49365 2.72964 1.94377
2.49365 2.72964 1.94377
2.49365 2.72964 1.94377
2.49365 2.72964 1.94377
2.49365 2.72964 1.94377
2.49365 2.72964 1.94377
2.49365 2.72964 1.94377
2.49365 2.72964 1.94377
2.49365 2.72964 1.94377
2.49365 2.72964 1.94377
2.49365 2.72964 1.94377
2.49365 2.72964 1.94377
2.49365 2.72964 1.94377
2.49365 2.72964 1.94377
2.49365 2.72964 1.94377
2.49365 2.72964 1.94377
2.49365 2.72964 1.94377
2.49365 2.72964 1.94377
2.49365 2.72964 1.94377
2.49365 2.72964 1.94377
2.49365 2.72964 1.94377
2.49365 2.72964 1.94377
2.49365 2.72964 1.94377
2.49365 2.72964 1.94377
2.49365 2.72964 1.94377
2.49365 2.72964 1.94377
2.49365 2.72964 1.94377
2.49365 2.72964 1.94377
2.49365 2.72964 1.94377
2.49365 2.72964 1.94377
2.49365 2.72964 1.94377
2.49365 2.72964 1.94377
2.49365 2.72964 1.94377
2.49365 2.72964 1.94377
2.49365 2.72964 1.94377
2.49365 2.72964 1.94377
2.49365 2.72964 1.94377
2.49365 2.72964 1.94377
2.49365 2.72964 1.94377
2.49365 2.72964 1.94377
2.49365 2.72964 1.94377
2.49365 2.72964 1.94377
2.49365 2.72964 1.94377
2.49365 2.72964 1.94377
2.49365 2.72964 1.94377
2.49365 2.72964 1.94377
2.49365 2.72964 1.94377
2.49365 2.72964 1.94377
2.49365 2.72964 1.94377
2.49365 2.72964 1.94377
2.49365 2.72964 1.94377
2.49365 2.72964 1.94377
2.49365 2.72964 1.94377
2.49365 2.72964 1.94377
2.49365 2.72964 1.94377
2.49365 2.72964 1.94377
2.49365 2.72964 1.94377
2.49365 2.72964 1.94377
2.49365 2.72964 1.94377
2.49365 2.72964 1.94377
2.49365 2.72964 1.94377
2.49365 2.72964 1.94377
2.49365 2.72964 1.94377
2.49365 2.72964 1.94377
2.49365 2.72964 1.94377
2.49365 2.72964 1.94377
2.49365 2.72964 1.94377
2.49365 2.72964 1.94377
2.49365 2.72964 1.94377
2.49365 2.72964 1.94377
2.49365 2.72964 1.94377
2.49365 2.72964 1.94377
2.49365 2.72964 1.94377
2.49365 2.72964 1.94377
2.49365 2.72964 1.94377
2.49365 2.72964 1.94377
2.49365 2.72964 1.94377
2.49365 2.72964 1.94377
2.49365 2.72964 1.94377
2.49365 2.72964 1.94377
2.49365 2.72964 1.94377
2.49365 2.72964 1.94377
2.49365 2.72964 1.94377
2.49365 2.72964 1.94377
2.49365 2.72964 1.94377
2.49365 2.72964 1.94377
2.49365 2.72964 1.94377
2.49365 2.72964 1.94377
2.49365 2.72964 1.94377
2.49365 2.72964 1.94377
2.49365 2.72964 1.94377
2.49365 2.72964 1.94377
2.49365 2.72964 1.94377
2.49365 2.72964 1.94377
2.49365 2.72964 1.94377
2.49365 2.72964 1.94377
2.49365 2.72964 1.94377
2.49365 2.72964 1.94377
2.49365 2.72964 1.94377
2.49365 2.72964 1.94377
2.49365 2.72964 1.94377
2.49365 2.72964 1.94377
2.49365 2.72964 1.94377
2.49365 2.72964 1.94377
2.49365 2.72964 1.94377
2.49365 2.72964 1.94377
2.49365 2.72964 1.94377
2.49365 2.72964 1.94377
2.49365 2.72964 1.94377
2.49365 2.72964 1.94377
2.49365 2.72964 1.94377
2.49365 2.72964 1.94377
2.49365 2.72964 1.94377
2.49365 2.72964 1.94377
2.49365 2.72964 1.94377
2.49365 2.72964 1.94377
2.49365 2.72964 1.94377
2.49365 2.72964 1.94377
2.49365 2.72964 1.94377
2.49365 2.72964 1.94377
2.49365 2.72964 1.94377
2.49365 2.72964 1.94377
2.49365 2.72964 1.94377
2.49365 2.72964 1.94377
2.49365 2.72964 1.94377
2.49365 2.72964 1.94377
2.49365 2.72964 1.94377
2.49365 2.72964 1.94377
2.49365 2.72964 1.94377
2.49365 2.72964 1.94377
2.49365 2.72964 1.94377
2.49365 2.72964 1.94377
2.49365 2.72964 1.94377
2.49365 2.72964 1.94377
2.49365 2.72964 1.94377
2.49365 2.72964 1.94377
2.49365 2.72964 1.94377
2.49365 2.72964 1.94377
2.49365 2.72964 1.94377
2.49365 2.72964 1.94377
2.49365 2.72964 1.94377
2.49365 2.72964 1.94377
2.49365 2.72964 1.94377
2.49365 2.72964 1.94377
2.49365 2.72964 1.94377
2.49365 2.72964 1.94377
2.49365 2.72964 1.94377
2.49365 2.72964 1.94377
2.49365 2.72964 1.94377
2.49365 2.72964 1.94377
2.49365 2.72964 1.94377
2.49365 2.72964 1.94377
2.49365 2.72964 1.94377
2.49365 2.72964 1.94377
2.49365 2.72964 1.94377
2.49365 2.72964 1.94377
2.49365 2.72964 1.94377
2.49365 2.72964 1.94377
2.49365 2.72964 1.94377
2.49365 2.72964 1.94377
2.49365 2.72964 1.94377
2.49365 2.72964 1.94377
2.49365 2.72964 1.94377
2.49365 2.72964 1.94377
2.49365 2.72964 1.94377
2.49365 2.72964 1.94377
2.49365 2.72964 1.94377
2.49365 2.72964 1.94377
2.49365 2.72964 1.94377
2.49365 2.72964 1.94377
2.49365 2.72964 1.94377
2.49365 2.72964 1.94377
2.49365 2.72964 1.94377
2.49365 2.72964 1.94377
2.49365 2.72964 1.94377
2.49365 2.72964 1.94377
2.49365 2.72964 1.94377
2.49365 2.72964 1.94377
2.49365 2.72964 1.94377
2.49365 2.72964 1.94377
2.49365 2.72964 1.94377
2.49365 2.72964 1.94377
2.49365 2.72964 1.94377
2.49365 2.72964 1.94377
2.49365 2.72964 1.94377
2.49365 2.72964 1.94377
2.49365 2.72964 1.94377
2.49365 2.72964 1.94377
2.49365 2.72964 1.94377
2.49365 2.72964 1.94377
2.49365 2.72964 1.94377
2.49365 2.72964 1.94377
2.49365 2.72964 1.94377
2.49365 2.72964 1.94377
2.49365 2.72964 1.94377
2.49365 2.72964 1.94377
2.49365 2.72964 1.94377
2.49365 2.72964 1.94377
2.49365 2.72964 1.94377
2.49365 2.72964 1.94377
2.49365 2.72964 1.94377
2.49365 2.72964 1.94377
2.49365 2.72964 1.94377
2.49365 2.72964 1.94377
2.49365 2.72964 1.94377
2.49365 2.72964 1.94377
2.49365 2.72964 1.94377
2.49365 2.72964 1.94377
2.49365 2.72964 1.94377
2.49365 2.72964 1.94377
2.49365 2.72964 1.94377
2.49365 2.72964 1.94377
2.49365 2.72964 1.94377
2.49365 2.72964 1.94377
2.49365 2.72964 1.94377
2.49365 2.72964 1.94377
2.49365 2.72964 1.94377
2.49365 2.72964 1.94377
2.49365 2.72964 1.94377
2.49365 2.72964 1.94377
2.49365 2.72964 1.94377
2.49365 2.72964 1.94377
2.49365 2.72964 1.94377
2.49365 2.72964 1.94377
2.49365 2.72964 1.94377
2.49365 2.72964 1.94377
2.49365 2.72964 1.94377
2.49365 2.72964 1.94377
2.49365 2.72964 1.94377
2.49365 2.72964 1.94377
2.49365 2.72964 1.94377
2.49365 2.72964 1.94377
2.49365 2.72964 1.94377
2.49365 2.72964 1.94377
2.49365 2.72964 1.94377
2.49365 2.72964 1.94377
2.49365 2.72964 1.94377
2.49365 2.72964 1.94377
2.49365 2.72964 1.94377
2.49365 2.72964 1.94377
2.49365 2.72964 1.94377
2.49365 2.72964 1.94377
2.49365 2.72964 1.94377
2.49365 2.72964 1.94377
2.49365 2.72964 1.94377
2.49365 2.72964 1.94377
2.49365 2.72964 1.94377
2.49365 2.72964 1.94377
2.49365 2.72964 1.94377
2.49365 2.72964 1.94377
2.49365 2.72964 1.94377
2.49365 2.72964 1.94377
2.49365 2.72964 1.94377
2.49365 2.72964 1.94377
2.49365 2.72964 1.94377
2.49365 2.72964 1.94377
2.49365 2.72964 1.94377
2.49365 2.72964 1.94377
2.49365 2.72964 1.94377
2.49365 2.72964 1.94377
2.49365 2.72964 1.94377
2.49365 2.72964 1.94377
2.49365 2.72964 1.94377
2.49365 2.72964 1.94377
2.49365 2.72964 1.94377
2.49365 2.72964 1.94377
2.49365 2.72964 1.94377
2.49365 2.72964 1.94377
2.49365 2.72964 1.94377
2.49365 2.72964 1.94377
2.49365 2.72964 1.94377
2.49365 2.72964 1.94377
2.49365 2.72964 1.94377
2.49365 2.72964 1.94377
2.49365 2.72964 1.94377
2.49365 2.72964 1.94377
2.49365 2.72964 1.94377
2.49365 2.72964 1.94377
2.49365 2.72964 1.94377
2.49365 2.72964 1.94377
2.49365 2.72964 1.94377
2.49365 2.72964 1.94377
2.49365 2.72964 1.94377
2.49365 2.72964 1.94377
2.49365 2.72964 1.94377
2.49365 2.72964 1.94377
2.49365 2.72964 1.94377
2.49365 2.72964 1.94377
2.49365 2.72964 1.94377
2.49365 2.72964 1.94377
2.49365 2.72964 1.94377
2.49365 2.72964 1.94377
2.49365 2.72964 1.94377
2.49365 2.72964 1.94377
2.49365 2.72964 1.94377
2.49365 2.72964 1.94377
2.49365 2.72964 1.94377
2.49365 2.72964 1.94377
2.49365 2.72964 1.94377
2.49365 2.72964 1.94377
2.49365 2.72964 1.94377
2.49365 2.72964 1.94377
2.49365 2.72964 1.94377
2.49365 2.72964 1.94377
2.49365 2.72964 1.94377
2.49365 2.72964 1.94377
2.49365 2.72964 1.94377
2.49365 2.72964 1.94377
2.49365 2.72964 1.94377
2.49365 2.72964 1.94377
2.49365 2.72964 1.94377
2.49365 2.72964 1.94377
2.49365 2.72964 1.94377
2.49365 2.72964 1.94377
2.49365 2.72964 1.94377
2.49365 2.72964 1.94377
2.49365 2.72964 1.94377
2.49365 2.72964 1.94377
2.49365 2.72964 1.94377
2.49365 2.72964 1.94377
2.49365 2.72964 1.94377
2.49365 2.72964 1.94377
2.49365 2.72964 1.94377
2.49365 2.72964 1.94377
2.49365 2.72964 1.94377
2.49365 2.72964 1.94377
2.49365 2.72964 1.94377
2.49365 2.72964 1.94377
2.49365 2.72964 1.94377
2.49365 2.72964 1.94377
2.49365 2.72964 1.94377
2.49365 2.72964 1.94377
2.49365 2.72964 1.94377
2.49365 2.72964 1.94377
2.49365 2.72964 1.94377
2.49365 2.72964 1.94377
2.49365 2.72964 1.94377
2.49365 2.72964 1.94377
2.49365 2.72964 1.94377
2.49365 2.72964 1.94377
2.49365 2.72964 1.94377
2.49365 2.72964 1.94377
2.49365 2.72964 1.94377
2.49365 2.72964 1.94377
2.49365 2.72964 1.94377
2.49365 2.72964 1.94377
2.49365 2.72964 1.94377
2.49365 2.72964 1.94377
2.49365 2.72964 1.94377
2.49365 2.72964 1.94377
2.49365 2.72964 1.94377
2.49365 2.72964 1.94377
2.49365 2.72964 1.94377
2.49365 2.72964 1.94377
2.49365 2.72964 1.94377
2.49365 2.72964 1.94377
2.49365 2.72964 1.94377
2.49365 2.72964 1.94377
2.49365 2.72964 1.94377
2.49365 2.72964 1.94377
2.49365 2.72964 1.94377
2.49365 2.72964 1.94377
2.49365 2.72964 1.94377
2.49365 2.72964 1.94377
2.49365 2.72964 1.94377
2.49365 2.72964 1.94377
2.49365 2.72964 1.94377
2.49365 2.72964 1.94377
2.49365 2.72964 1.94377
2.49365 2.72964 1.94377
2.49365 2.72964 1.94377
2.49365 2.72964 1.94377
2.49365 2.72964 1.94377
2.49365 2.72964 1.94377
2.49365 2.72964 1.94377
2.49365 2.72964 1.94377
2.49365 2.72964 1.94377
2.49365 2.72964 1.94377
2.49365 2.72964 1.94377
2.49365 2.72964 1.94377
2.49365 2.72964 1.94377
2.49365 2.72964 1.94377
2.49365 2.72964 1.94377
2.49365 2.72964 1.94377
2.49365 2.72964 1.94377
2.49365 2.72964 1.94377
2.49365 2.72964 1.94377
2.49365 2.72964 1.94377
2.49365 2.72964 1.94377
2.49365 2.72964 1.94377
2.49365 2.72964 1.94377
2.49365 2.72964 1.94377
2.49365 2.72964 1.94377
2.49365 2.72964 1.94377
2.49365 2.72964 1.94377
2.49365 2.72964 1.94377
2.49365 2.72964 1.94377
2.49365 2.72964 1.94377
2.49365 2.72964 1.94377
2.49365 2.72964 1.94377
2.49365 2.72964 1.94377
2.49365 2.72964 1.94377
2.49365 2.72964 1.94377
2.49365 2.72964 1.94377
2.49365 2.72964 1.94377
2.49365 2.72964 1.94377
2.49365 2.72964 1.94377
2.49365 2.72964 1.94377
2.49365 2.72964 1.94377
2.49365 2.72964 1.94377
2.49365 2.72964 1.94377
2.49365 2.72964 1.94377
2.49365 2.72964 1.94377
2.49365 2.72964 1.94377
2.49365 2.72964 1.94377
2.49365 2.72964 1.94377
2.49365 2.72964 1.94377
2.49365 2.72964 1.94377
2.49365 2.72964 1.94377
2.49365 2.72964 1.94377
2.49365 2.72964 1.94377
2.49365 2.72964 1.94377
2.49365 2.72964 1.94377
2.49365 2.72964 1.94377
2.49365 2.72964 1.94377
2.49365 2.72964 1.94377
2.49365 2.72964 1.94377
2.49365 2.72964 1.94377
2.49365 2.72964 1.94377
2.49365 2.72964 1.94377
2.49365 2.72964 1.94377
2.49365 2.72964 1.94377
2.49365 2.72964 1.94377
2.49365 2.72964 1.94377
2.49365 2.72964 1.94377
2.49365 2.72964 1.94377
2.49365 2.72964 1.94377
2.49365 2.72964 1.94377
2.49365 2.72964 1.94377
2.49365 2.72964 1.94377
2.49365 2.72964 1.94377
2.49365 2.72964 1.94377
2.49365 2.72964 1.94377
2.49365 2.72964 1.94377
2.49365 2.72964 1.94377
2.49365 2.72964 1.94377
2.49365 2.72964 1.94377
2.49365 2.72964 1.94377
2.49365 2.72964 1.94377
2.49365 2.72964 1.94377
2.49365 2.72964 1.94377
2.49365 2.72964 1.94377
2.49365 2.72964 1.94377
2.49365 2.72964 1.94377
2.49365 2.72964 1.94377
2.49365 2.72964 1.94377
2.49365 2.72964 1.94377
2.49365 2.72964 1.94377
2.49365 2.72964 1.94377
2.49365 2.72964 1.94377
2.49365 2.72964 1.94377
2.49365 2.72964 1.94377
2.49365 2.72964 1.94377
2.49365 2.72964 1.94377
2.49365 2.72964 1.94377
2.49365 2.72964 1.94377
2.49365 2.72964 1.94377
2.49365 2.72964 1.94377
2.49365 2.72964 1.94377
2.49365 2.72964 1.94377
2.49365 2.72964 1.94377
2.49365 2.72964 1.94377
2.49365 2.72964 1.94377
2.49365 2.72964 1.94377
2.49365 2.72964 1.94377
2.49365 2.72964 1.94377
2.49365 2.72964 1.94377
2.49365 2.72964 1.94377
2.49365 2.72964 1.94377
2.49365 2.72964 1.94377
2.49365 2.72964 1.94377
2.49365 2.72964 1.94377
2.49365 2.72964 1.94377
2.49365 2.72964 1.94377
2.49365 2.72964 1.94377
2.49365 2.72964 1.94377
2.49365 2.72964 1.94377
2.49365 2.72964 1.94377
2.49365 2.72964 1.94377
2.49365 2.72964 1.94377
2.49365 2.72964 1.94377
2.49365 2.72964 1.94377
2.49365 2.72964 1.94377
2.49365 2.72964 1.94377
2.49365 2.72964 1.94377
2.49365 2.72964 1.94377
2.49365 2.72964 1.94377
2.49365 2.72964 1.94377
2.49365 2.72964 1.94377
2.49365 2.72964 1.94377
2.49365 2.72964 1.94377
2.49365 2.72964 1.94377
2.49365 2.72964 1.94377
2.49365 2.72964 1.94377
2.49365 2.72964 1.94377
2.49365 2.72964 1.94377
2.49365 2.72964 1.94377
2.49365 2.72964 1.94377
2.49365 2.72964 1.94377
2.49365 2.72964 1.94377
2.49365 2.72964 1.94377
2.49365 2.72964 1.94377
2.49365 2.72964 1.94377
2.49365 2.72964 1.94377
2.49365 2.72964 1.94377
2.49365 2.72964 1.94377
2.49365 2.72964 1.94377
2.49365 2.72964 1.94377
2.49365 2.72964 1.94377
2.49365 2.72964 1.94377
2.49365 2.72964 1.94377
2.49365 2.72964 1.94377
2.49365 2.72964 1.94377
2.49365 2.72964 1.94377
2.49365 2.72964 1.94377
2.49365 2.72964 1.94377
2.49365 2.72964 1.94377
2.49365 2.72964 1.94377
2.49365 2.72964 1.94377
2.49365 2.72964 1.94377
2.49365 2.72964 1.94377
2.49365 2.72964 1.94377
2.49365 2.72964 1.94377
2.49365 2.72964 1.94377
2.49365 2.72964 1.94377
2.49365 2.72964 1.94377
2.49365 2.72964 1.94377
2.49365 2.72964 1.94377
2.49365 2.72964 1.94377
2.49365 2.72964 1.94377
2.49365 2.72964 1.94377
2.49365 2.72964 1.94377
2.49365 2.72964 1.94377
2.49365 2.72964 1.94377
2.49365 2.72964 1.94377
2.49365 2.72964 1.94377
2.49365 2.72964 1.94377
2.49365 2.72964 1.94377
2.49365 2.72964 1.94377
2.49365 2.72964 1.94377
2.49365 2.72964 1.94377
2.49365 2.72964 1.94377
2.49365 2.72964 1.94377
2.49365 2.72964 1.94377
2.49365 2.72964 1.94377
2.49365 2.72964 1.94377
2.49365 2.72964 1.94377
2.49365 2.72964 1.94377
2.49365 2.72964 1.94377
2.49365 2.72964 1.94377
2.49365 2.72964 1.94377
2.49365 2.72964 1.94377
2.49365 2.72964 1.94377
2.49365 2.72964 1.94377
2.49365 2.72964 1.94377
2.49365 2.72964 1.94377
2.49365 2.72964 1.94377
2.49365 2.72964 1.94377
2.49365 2.72964 1.94377
2.49365 2.72964 1.94377
2.49365 2.72964 1.94377
2.49365 2.72964 1.94377
2.49365 2.72964 1.94377
2.49365 2.72964 1.94377
2.49365 2.72964 1.94377
2.49365 2.72964 1.94377
2.49365 2.72964 1.94377
2.49365 2.72964 1.94377
2.49365 2.72964 1.94377
2.49365 2.72964 1.94377
2.49365 2.72964 1.94377
2.49365 2.72964 1.94377
2.49365 2.72964 1.94377
2.49365 2.72964 1.94377
2.49365 2.72964 1.94377
2.49365 2.72964 1.94377
2.49365 2.72964 1.94377
2.49365 2.72964 1.94377
2.49365 2.72964 1.94377
2.49365 2.72964 1.94377
2.49365 2.72964 1.94377
2.49365 2.72964 1.94377
2.49365 2.72964 1.94377
2.49365 2.72964 1.94377
2.49365 2.72964 1.94377
2.49365 2.72964 1.94377
2.49365 2.72964 1.94377
2.49365 2.72964 1.94377
2.49365 2.72964 1.94377
2.49365 2.72964 1.94377
2.49365 2.72964 1.94377
2.49365 2.72964 1.94377
2.49365 2.72964 1.94377
2.49365 2.72964 1.94377
2.49365 2.72964 1.94377
2.49365 2.72964 1.94377
2.49365 2.72964 1.94377
2.49365 2.72964 1.94377
2.49365 2.72964 1.94377
2.49365 2.72964 1.94377
2.49365 2.72964 1.94377
2.49365 2.72964 1.94377
2.49365 2.72964 1.94377
2.49365 2.72964 1.94377
2.49365 2.72964 1.94377
2.49365 2.72964 1.94377
2.49365 2.72964 1.94377
2.49365 2.72964 1.94377
2.49365 2.72964 1.94377
2.49365 2.72964 1.94377
2.49365 2.72964 1.94377
2.49365 2.72964 1.94377
2.49365 2.72964 1.94377
2.49365 2.72964 1.94377
2.49365 2.72964 1.94377
2.49365 2.72964 1.94377
2.49365 2.72964 1.94377
2.49365 2.72964 1.94377
2.49365 2.72964 1.94377
2.49365 2.72964 1.94377
2.49365 2.72964 1.94377
2.49365 2.72964 1.94377
2.49365 2.72964 1.94377
2.49365 2.72964 1.94377
2.49365 2.72964 1.94377
2.49365 2.72964 1.94377
2.49365 2.72964 1.94377
2.49365 2.72964 1.94377
2.49365 2.72964 1.94377
2.49365 2.72964 1.94377
2.49365 2.72964 1.94377
2.49365 2.72964 1.94377
2.49365 2.72964 1.94377
2.49365 2.72964 1.94377
2.49365 2.72964 1.94377
2.49365 2.72964 1.94377
2.49365 2.72964 1.94377
2.49365 2.72964 1.94377
2.49365 2.72964 1.94377
2.49365 2.72964 1.94377
2.49365 2.72964 1.94377
2.49365 2.72964 1.94377
2.49365 2.72964 1.94377
2.49365 2.72964 1.94377
2.49365 2.72964 1.94377
2.49365 2.72964 1.94377
2.49365 2.72964 1.94377
2.49365 2.72964 1.94377
2.49365 2.72964 1.94377
2.49365 2.72964 1.94377
2.49365 2.72964 1.94377
2.49365 2.72964 1.94377
2.49365 2.72964 1.94377
2.49365 2.72964 1.94377
2.49365 2.72964 1.94377
2.49365 2.72964 1.94377
2.49365 2.72964 1.94377
2.49365 2.72964 1.94377
2.49365 2.72964 1.94377
2.49365 2.72964 1.94377
2.49365 2.72964 1.94377
2.49365 2.72964 1.94377
2.49365 2.72964 1.94377
2.49365 2.72964 1.94377
2.49365 2.72964 1.94377
2.49365 2.72964 1.94377
2.49365 2.72964 1.94377
2.49365 2.72964 1.94377
2.49365 2.72964 1.94377
2.49365 2.72964 1.94377
2.49365 2.72964 1.94377
2.49365 2.72964 1.94377
2.49365 2.72964 1.94377
2.49365 2.72964 1.94377
2.49365 2.72964 1.94377
2.49365 2.72964 1.94377
2.49365 2.72964 1.94377
2.49365 2.72964 1.94377
2.49365 2.72964 1.94377
2.49365 2.72964 1.94377
2.49365 2.72964 1.94377
2.49365 2.72964 1.94377
2.49365 2.72964 1.94377
2.49365 2.72964 1.94377
2.49365 2.72964 1.94377
2.49365 2.72964 1.94377
