0 0 0
0 0 0
0 0 0
0 0 0
0 0 0
0 0 0
0 0 0
0 0 0
0 0 0
0 0 0
0 0 0
0 0 0
0 0 0
0 0 0
0 0 0
0 0 0
0 0 0
0 0 0
0 0 0
0 0 0
0 0 0
0 0 0
0 0 0
0 0 0
0 0 0
0 0 0
0 0 0
0 0 0
0 0 0
0 0 0
0 0 0
0 0 0
0 0 0
0 0 0
0 0 0
0 0 0
0 0 0
0 0 0
0 0 0
0 0 0
0 0 0
0 0 0
0 0 0
0 0 0
0 0 0
0 0 0
0 0 0
0 0 0
0 0 0
0 0 0
0 0 0
0 0 0
0 0 0
0 0 0
0 0 0
0 0 0
0 0 0
0 0 0
0 0 0
0 0 0
0 0 0
0 0 0
0 0 0
0 0 0
0 0 0
0 0 0
0 0 0
0 0 0
0 0 0
0 0 0
0 0 0
0 0 0
0 0 0
0.00216785 0 0
0.00583852 0 0
0.00951459 0 0
0.0131308 0 0
0.0166376 0 0
0.0200061 0 0
0.0232206 0 0
0.0262655 0 0
0.0291248 0 0
0.031801 0 0
0.0343369 0 0
0.0368149 0 0
0.0393203 0 0
0.0418679 0 0
0.044339 0 0
0.0464861 0 0
0.048003 0 0
0.0485636 0 0
0.0483168 0 0
0.0470482 0 0
0.0447207 0 0
0.0413343 0 0
0.0368998 0 0
0.0314401 0 0
0.024986 0 0
0.0175655 0 0
0.0109549 0 0
0.0109549 0 0
0.0109549 0 0
0.0109549 0 0
0.0109549 0 0
0.0109549 0 0
0.0109549 0 0
0.0109549 0 0
0.0109549 0 0
0.0109549 0 0
0.0109549 0 0
0.0109549 0 0
0.0109549 0 0
0.0109549 0 0
0.0109549 0 0
0.0109549 0 0
0.0109549 0 0
0.0109549 0 0
0.0109549 0 0
0.0109549 0 0
0.0109549 0 0
0.0109549 0 0
0.0109549 0 0
0.0109549 0 0
0.0109549 0 0
0.0109549 0 0
0.0109549 0 0
0.0109549 0 0
0.0109549 0 0
0.0109549 0 0
0.0109549 0 0
0.0109549 0 0
0.0109549 0 0
0.0109549 0 0
0.0109549 0 0
0.0109549 0 0
0.0109549 0 0
0.0109549 0 0
0.0097923 0 0
0.0097923 0 0
0.00971972 0 0
0.00971972 0 0
0.00971972 0 0
0.00971972 0 0
0.00971972 0 0
0.00971972 0 0
0.00971972 0 0
0.00971972 0 0
0.00971972 0 0
0.00971972 0 0
0.00971972 0 0
0.00971972 0 0
0.00971972 0 0
0.00971972 0 0
0.00971972 0 0
0.00971972 0 0
0.00971972 0 0
0.00971972 0 0
0.00971972 0 0
0.00971972 0 0
0.00971972 0 0
0.00971972 0 0
0.00971972 0 0
0.00971972 0 0
0.00971972 0 0
0.00971972 0 0
0.00971972 0 0
0.00971972 0 0
0.00971972 0 0
0.00971972 0 0
0.00971972 0 0
0.00971972 0 0
0.00971972 0 0
0.00971972 0 0
0.00971972 0 0
0.00971972 0 0
0.00971972 0 0
0.00971972 0 0
0.00971972 0 0
0.00971972 0 0
0.00971972 0 0
0.00971972 0 0
0.00971972 0 0
0.00971972 0 0
0.00971972 0 0
0.00971972 0 0
0.00971972 0 0
0.00971972 0 0
0.00971972 0 0
0.00971972 0 0
0.00971972 0 0
0.00971972 0 0
0.00971972 0 0
0.00971972 0 0
0.00971972 0 0
0.00971972 0 0
0.00971972 0 0
0.00971972 0 0
0.00971972 0 0
0.00971972 0 0
0.00971972 0 0
0.00971972 0 0
0.00971972 0 0
0.00971972 0 0
0.00971972 0 0
0.00971972 0 0
0.00971972 0 0
0.00971972 0 0
0.00971972 0 0
0.00971972 0 0
0.00971972 0 0
0.00971972 0 0
0.00971972 0 0
0.00971972 0 0
0.00971972 0 0
0.00971972 0 0
0.00971972 0 0
0.00971972 0 0
0.00971972 0 0
0.0139951 0 0
0.0227485 0 0
0.0317193 0 0
0.0408482 0 0
0.0500801 0 0
0.0593587 0 0
0.068617 0.010476 0
0.0777706 0.0202249 0
0.0867165 0.0291423 0
0.09534 0.0371496 0
0.103526 0.0441876 0
0.111163 0.0502131 0
0.118144 0.0552014 0
0.119611 0.0586803 0
0.120682 0.0591733 0
0.120792 0.0599062 0
0.120714 0.0599334 0
0.121533 0.0594215 0
0.122531 0.0588263 0
0.122868 0.057481 0
0.122789 0.0557809 0
0.122617 0.053632 0
0.121744 0.0509481 0
0.120224 0.047781 0
0.118453 0.0441805 0
0.116527 0.0402776 0
0.114371 0.0361247 0
0.112107 0.0317681 0
0.109923 0.0272665 0
0.107862 0.0226992 0
0.105923 0.0181565 0
0.104154 0.0137178 0
0.102587 0.0126323 0
0.101201 0.0126323 0
0.0999769 0.0126323 0
0.09892 0.0126323 0
0.0980233 0.0126323 0
0.0972231 0.0126323 0
0.0964572 0.0126323 0
0.0957051 0.0126323 0
0.0949447 0.0126323 0
0.094171 0.0126323 0
0.0934028 0.0126323 0
0.0926752 0.0126323 0
0.0920218 0.0126323 0
0.0914573 0.0126323 0
0.0909639 0.0126323 0
0.0904821 0.0126323 0
0.0899213 0.0126323 0
0.0891805 0.0126323 0
0.0881547 0.0126323 0
0.0867415 0.0126323 0
0.0848475 0.0126323 0
0.0823476 0.0126323 0
0.0791398 0.0126323 0
0.0751137 0.0126323 0
0.0701752 0.0126323 0
0.0642589 0.0126323 0
0.0573565 0.0126323 0
0.0495183 0.0126323 0
0.0408294 0.0126323 0
0.0338163 0.0126323 0
0.0338163 0.0126323 0
0.0338163 0.0126323 0
0.0338163 0.0126323 0
0.0338163 0.0126323 0
0.0338163 0.0126323 0
0.0338163 0.0126323 0
0.0338163 0.0126323 0
0.0338163 0.0126323 0
0.0338163 0.0126323 0
0.0338163 0.0126323 0
0.0338163 0.0126323 0
0.0338163 0.0126323 0
0.0338163 0.0126323 0
0.0338163 0.0126323 0
0.0338163 0.0126323 0
0.0338163 0.0126323 0
0.0338163 0.0126323 0
0.0338163 0.0126323 0
0.0338163 0.0126323 0
0.0338163 0.0126323 0
0.0338163 0.0126323 0
0.0338163 0.0126323 0
0.0338163 0.0126323 0
0.0338163 0.0126323 0
0.0338163 0.0126323 0
0.0338163 0.0126323 0
0.0338163 0.0126323 0
0.0338163 0.0126323 0
0.0338163 0.0126323 0
0.0338163 0.0126323 0
0.0338163 0.0126323 0
0.0338163 0.0126323 0
0.0324662 0.0126323 0
0.0324662 0.0126323 0
0.0324662 0.0126323 0
0.0324662 0.0126323 0
0.0324662 0.0126323 0
0.0324662 0.0126323 0
0.0324662 0.0126323 0
0.0324662 0.0126323 0
0.0324662 0.0126323 0
0.0324662 0.0126323 0
0.0324662 0.0126323 0
0.0324662 0.0126323 0
0.0324662 0.0126323 0
0.0324662 0.0126323 0
0.0324662 0.0126323 0
0.0324662 0.0126323 0
0.0324662 0.0126323 0
0.0324662 0.0126323 0
0.0324662 0.0126323 0
0.0324662 0.0126323 0
0.0324662 0.0126323 0
0.0324662 0.0126323 0
0.0324662 0.0126323 0
0.0324662 0.0126323 0
0.0324662 0.0126323 0
0.0324662 0.0121055 0
0.0324662 0.0121055 0
0.0324662 0.0121055 0
0.0324662 0.0121055 0
0.0324662 0.0121055 0
0.0324662 0.0121055 0
0.0324662 0.0121055 0
0.0324662 0.0121055 0
0.0324662 0.0121055 0
0.0324662 0.0121055 0
0.0324662 0.0121055 0
0.0324662 0.0121055 0
0.0324662 0.0121055 0
0.0324662 0.0121055 0
0.0324662 0.0121055 0
0.0324662 0.0121055 0
0.0324662 0.0121055 0
0.0324662 0.0121055 0
0.0324662 0.0121055 0
0.0324662 0.0121055 0
0.0324662 0.0121055 0
0.0324662 0.0121055 0
0.0324662 0.0121055 0
0.0324662 0.0121055 0
0.0324662 0.0121055 0
0.0324662 0.0121055 0
0.0324662 0.0121055 0
0.0324662 0.0121055 0
0.0324662 0.0121055 0
0.0324662 0.0121055 0
0.0324662 0.0121055 0
0.0324662 0.0121055 0
0.0324662 0.0121055 0
0.0324662 0.0121055 0
0.0324662 0.0121055 0
0.0324662 0.0120324 0
0.0324662 0.0120276 0
0.0324662 0.0120276 0
0.0324662 0.0120276 0
0.0324662 0.0120276 0
0.0324662 0.0120276 0
0.0324662 0.0120276 0
0.0324662 0.0120276 0
0.0324662 0.0120276 0
0.0324662 0.0120276 0
0.0324662 0.0120276 0
0.0324662 0.0120276 0
0.0324662 0.0120276 0
0.0324662 0.0120276 0
0.0324662 0.0120276 0
0.0324662 0.0120276 0
0.0324662 0.0120276 0
0.0324662 0.0120276 0
0.0324662 0.0120276 0
0.0324662 0.0120276 0
0.0324662 0.0120276 0
0.0324662 0.0120276 0
0.0324662 0.0120276 0
0.0324662 0.0120276 0
0.0324662 0.0120276 0
0.0324662 0.0120276 0
0.0324662 0.0120276 0
0.0324662 0.0120276 0
0.0324662 0.0120276 0
0.0324662 0.0120276 0
0.0324662 0.0120276 0
0.0324662 0.0120276 0
0.0324662 0.0120276 0
0.0324662 0.0120276 0
0.0324662 0.0120276 0
0.0324662 0.0120276 0
0.0324662 0.0120276 0
0.0324662 0.0120276 0
0.0324662 0.0120234 0
0.0324662 0.0120234 0
0.0324662 0.0120234 0
0.0324662 0.0120234 0
0.0324662 0.0120234 0
0.0324662 0.0120234 0
0.0324662 0.0120234 0
0.0324662 0.0120234 0
0.0324662 0.0120234 0
0.0324662 0.0120234 0
0.0324662 0.0120234 0
0.0324662 0.0120234 0
0.0324662 0.0120234 0
0.0324662 0.0120234 0
0.0324662 0.0120234 0
0.0324662 0.0120234 0
0.0324662 0.0120234 0
0.0324662 0.0120234 0
0.0324662 0.0120234 0
0.0324662 0.0120234 0
0.0324662 0.0120234 0
0.0324662 0.0120234 0
0.0447481 0.0120234 0
0.0518909 0.0120234 0
0.0606349 0.0120234 0
0.0715449 0.0120234 0
0.0805754 0.0120234 0
0.0864597 0.0120234 0
0.0938336 0.0120234 0
0.101915 0.0120234 0
0.109849 0.0120234 0
0.118055 0.0120234 0
0.127431 0.0120234 0
0.137789 0.0120234 0
0.148751 0.0120234 0
0.16054 0.0120234 0
0.173347 0.0120234 0
0.186969 0.0120234 0
0.20121 0.0120234 0
0.216052 0.0120234 0
0.231423 0.0120234 0
0.247157 0.0120234 0
0.263191 0.0120234 0
0.279565 0.0120234 0
0.296316 0.0120234 0
0.313428 0.0120234 0
0.330881 0.0120234 0
0.348519 0.0120234 0
0.366214 0.0120234 0
0.383923 0.0120234 0
0.40153 0.0120234 0
0.418897 0.0224555 0
0.429492 0.0354548 0
0.427044 0.0445784 0
0.424144 0.0529864 0
0.423532 0.0616161 0
0.423583 0.0684693 0
0.42269 0.0747491 0
0.421717 0.0794296 0
0.421924 0.0828306 0
0.42281 0.0850395 0
0.4235 0.0858001 0
0.424485 0.08531 0
0.42631 0.0837179 0
0.428676 0.0810908 0
0.431185 0.0775701 0
0.433592 0.0733113 0
0.433976 0.0685583 0
0.43325 0.063427 0
0.431957 0.0580017 0
0.430155 0.0526103 0
0.421529 0.0480398 0
0.413686 0.0438941 0
0.406296 0.0399986 0
0.399744 0.0366995 0
0.394214 0.0335409 0
0.390025 0.0310675 0
0.386833 0.0298912 0
0.384124 0.0293138 0
0.381417 0.0298407 0
0.378939 0.031533 0
0.376686 0.0344347 0
0.374648 0.038451 0
0.372912 0.0432107 0
0.37145 0.0486159 0
0.370198 0.0545079 0
0.369115 0.0607012 0
0.368147 0.0669707 0
0.367238 0.0730697 0
0.366304 0.0787856 0
0.365246 0.0839261 0
0.363968 0.0883029 0
0.362357 0.0917421 0
0.360309 0.0940957 0
0.357743 0.0952487 0
0.354579 0.0951659 0
0.350775 0.093991 0
0.346315 0.091726 0
0.341209 0.0883827 0
0.335497 0.0839993 0
0.329218 0.0786438 0
0.322414 0.0724062 0
0.315101 0.0654056 0
0.307266 0.0577874 0
0.298886 0.0497125 0
0.28993 0.0413526 0
0.2804 0.0413526 0
0.270315 0.0413526 0
0.259697 0.0413526 0
0.2486 0.0413526 0
0.237059 0.0413526 0
0.225107 0.0413526 0
0.212772 0.0413526 0
0.200067 0.0413526 0
0.187036 0.0413526 0
0.173755 0.0413526 0
0.160362 0.0413526 0
0.147033 0.0413526 0
0.133926 0.0413526 0
0.121071 0.0413526 0
0.117841 0.0413526 0
0.117841 0.0413526 0
0.117841 0.0413526 0
0.117841 0.0413526 0
0.117841 0.0413526 0
0.117841 0.0413526 0
0.117841 0.0413526 0
0.117841 0.0413526 0
0.117841 0.0413526 0
0.117841 0.0413526 0
0.117841 0.0413526 0
0.117841 0.0413526 0
0.117841 0.0413526 0
0.117841 0.0413526 0
0.117841 0.0413526 0
0.117841 0.0413526 0
0.117841 0.0413526 0
0.117841 0.0413526 0
0.117841 0.0413526 0
0.117841 0.0413526 0
0.117841 0.0413526 0
0.117841 0.0413526 0
0.117841 0.0413526 0
0.117841 0.0413526 0
0.117841 0.0413526 0
0.117841 0.0413526 0
0.117841 0.0413526 0
0.117841 0.0413526 0
0.117841 0.0413526 0
0.117841 0.0413526 0
0.117841 0.0413526 0
0.117841 0.0413526 0
0.117841 0.0413526 0
0.117841 0.0413526 0
0.117841 0.0413526 0
0.117841 0.0413526 0
0.117841 0.0413526 0
0.117841 0.0413526 0
0.117841 0.0413526 0
0.117841 0.0413526 0
0.117841 0.0413526 0
0.117841 0.0413526 0
0.117841 0.0413526 0
0.117841 0.0413526 0
0.117841 0.0413526 0
0.117841 0.0413526 0
0.117841 0.0413526 0
0.117841 0.0413526 0
0.117841 0.0413526 0
0.117841 0.0413526 0
0.117841 0.0413526 0
0.117841 0.0413526 0
0.117841 0.0413526 0
0.117841 0.0413526 0
0.117841 0.0413526 0
0.117841 0.0413526 0
0.117841 0.0413526 0
0.117841 0.0413526 0
0.117841 0.0413526 0
0.117841 0.0413526 0
0.117841 0.0413526 0
0.117841 0.0413526 0
0.117841 0.0413526 0
0.117841 0.0413526 0
0.117841 0.0413526 0
0.117841 0.0413526 0
0.117841 0.0413526 0
0.117841 0.0413526 0
0.117841 0.0413526 0
0.117841 0.0413526 0
0.117841 0.0413526 0
0.117841 0.0413526 0
0.117841 0.0413526 0
0.117841 0.0399952 0
0.117841 0.0399952 0
0.117841 0.0399952 0
0.117841 0.0399952 0
0.117841 0.0399952 0
0.117841 0.0399952 0
0.117841 0.0399952 0
0.117841 0.0399952 0
0.117841 0.0399952 0
0.117841 0.0399952 0
0.117841 0.0399952 0
0.117841 0.0399952 0
0.117841 0.0399952 0
0.117841 0.0399952 0
0.117841 0.0399952 0
0.117841 0.0399952 0
0.117841 0.0399952 0
0.117841 0.0399952 0
0.117841 0.0399952 0
0.117841 0.0399952 0
0.117841 0.0399952 0
0.117841 0.0399952 0
0.117841 0.0399952 0
0.117841 0.0399952 0
0.117841 0.0399952 0
0.117841 0.0399952 0
0.117841 0.0399952 0
0.117841 0.0399952 0
0.117841 0.0399952 0
0.117841 0.0399952 0
0.117841 0.0399952 0
0.117841 0.0399952 0
0.117841 0.0399952 0
0.117841 0.0399952 0
0.117841 0.0399952 0
0.117841 0.0399952 0
0.117841 0.0399952 0
0.117841 0.0399952 0
0.117841 0.0399952 0
0.117841 0.0399952 0
0.117841 0.0399952 0
0.117841 0.0399952 0
0.117841 0.0399952 0
0.117841 0.0399952 0
0.117841 0.0399952 0
0.117841 0.0399952 0
0.117841 0.0399952 0
0.117841 0.0399952 0
0.117841 0.0399952 0
0.117841 0.0399952 0
0.117841 0.0399952 0
0.117841 0.0399952 0
0.117841 0.0399952 0
0.117841 0.0399952 0
0.117841 0.0399952 0
0.117841 0.0399952 0
0.117841 0.0399952 0
0.117841 0.0399952 0
0.117841 0.0399952 0
0.117841 0.0399952 0
0.117841 0.0399952 0
0.117841 0.0399952 0
0.117841 0.0399952 0
0.117841 0.0399952 0
0.117841 0.0399952 0
0.117841 0.0399952 0
0.117841 0.0399952 0
0.117841 0.0399952 0
0.117841 0.0399952 0
0.117841 0.0399952 0
0.117841 0.0399952 0
0.117841 0.0399952 0
0.117841 0.0399952 0
0.117841 0.0399952 0
0.120063 0.0399952 0
0.124536 0.0399952 0
0.128981 0.0399952 0
0.133205 0.0399952 0
0.137082 0.0399952 0
0.140631 0.0399952 0
0.143875 0.0399952 0
0.14675 0.0399952 0
0.149146 0.0399952 0
0.160593 0.0399952 0
0.182609 0.0399952 0
0.208925 0.0399952 0
0.226125 0.0399952 0
0.242906 0.0399952 0
0.264265 0.0399952 0
0.284717 0.0399952 0
0.301728 0.0399952 0
0.318572 0.0399952 0
0.336424 0.0422694 0
0.353027 0.0507221 0
0.367772 0.0580774 0
0.381975 0.0643507 0
0.395801 0.0695033 0
0.408406 0.0734737 0
0.419765 0.0762976 0
0.430413 0.0780748 0
0.44039 0.0788791 0
0.449497 0.0787379 0
0.457859 0.0779508 0
0.347932 0.0560669 0
0.446306 0.0677653 0
0.464297 0.0630098 0
0.420306 0.0630098 0
0.435952 0.0630098 0
0.474484 0.0630098 0
0.478363 0.0630098 0
0.471464 0.0630098 0
0.483432 0.0630098 0
0.501855 0.0673962 0
0.508475 0.0710596 0
0.506833 0.0728817 0
0.539372 0.0728817 0
0.55251 0.0789591 0
0.550725 0.0808019 0
0.564569 0.0779229 0
0.584382 0.0858141 0
0.596911 0.102669 0
0.593553 0.116745 0
0.592224 0.121639 0
0.593312 0.126422 0
0.592415 0.136184 0
0.590157 0.142767 0
0.588517 0.146102 0
0.58793 0.14679 0
0.58696 0.147022 0
0.585422 0.151036 0
0.584393 0.156248 0
0.583901 0.159881 0
0.583275 0.16198 0
0.582526 0.163267 0
0.582161 0.164181 0
0.582146 0.165321 0
0.582076 0.165918 0
0.582126 0.165663 0
0.58267 0.165066 0
0.583307 0.164657 0
0.584019 0.164368 0
0.585046 0.163732 0
0.586296 0.162673 0
0.587586 0.161527 0
0.588974 0.160213 0
0.590303 0.159343 0
0.5917 0.157892 0
0.592583 0.156438 0
0.593152 0.154888 0
0.593362 0.15333 0
0.593127 0.152036 0
0.592439 0.151045 0
0.591431 0.150407 0
0.590149 0.150171 0
0.588587 0.150485 0
0.586745 0.151383 0
0.584601 0.151592 0
0.581577 0.151526 0
0.578264 0.151662 0
0.575049 0.152116 0
0.57165 0.152257 0
0.568306 0.152914 0
0.564702 0.153908 0
0.560612 0.154824 0
0.556492 0.155626 0
0.552359 0.156567 0
0.547864 0.157757 0
0.543059 0.159053 0
0.536974 0.16053 0
0.530985 0.161758 0
0.524941 0.162823 0
0.518834 0.163796 0
0.512642 0.164569 0
0.506148 0.164381 0
0.4989 0.162851 0
0.491023 0.16002 0
0.482438 0.156377 0
0.472903 0.151965 0
0.462621 0.14618 0
0.451554 0.1397 0
0.439416 0.132798 0
0.426199 0.125181 0
0.41203 0.116816 0
0.397067 0.108191 0
0.381426 0.0994664 0
0.365314 0.0994664 0
0.348943 0.0994664 0
0.332499 0.0994664 0
0.316193 0.0994664 0
0.300226 0.0994664 0
0.284679 0.0994664 0
0.26954 0.0994664 0
0.257398 0.0994664 0
0.257398 0.0994664 0
0.257398 0.0994664 0
0.257398 0.0994664 0
0.257398 0.0994664 0
0.257398 0.0994664 0
0.257398 0.0994664 0
0.257398 0.0994664 0
0.257398 0.0994664 0
0.257398 0.0994664 0
0.257398 0.0994664 0
0.257398 0.0994664 0
0.257398 0.0994664 0
0.257398 0.0994664 0
0.257398 0.0994664 0
0.257398 0.0994664 0
0.257398 0.0994664 0
0.257398 0.0994664 0
0.257398 0.0994664 0
0.257398 0.0994664 0
0.257398 0.0994664 0
0.257398 0.0994664 0
0.257398 0.0994664 0
0.257398 0.0994664 0
0.257398 0.0994664 0
0.257398 0.0994664 0
0.257398 0.0994664 0
0.257398 0.0994664 0
0.257398 0.0994664 0
0.257398 0.0994664 0
0.257398 0.0994664 0
0.257398 0.0994664 0
0.257398 0.0994664 0
0.257398 0.0994664 0
0.257398 0.0994664 0
0.257398 0.0994664 0
0.257398 0.0994664 0
0.257398 0.0994664 0
0.257398 0.0979082 0
0.257398 0.0957326 0
0.257398 0.093331 0
0.257398 0.0909721 0
0.257398 0.0892099 0
0.257398 0.0878172 0
0.257398 0.0864496 0
0.257398 0.0853036 0
0.257398 0.0846703 0
0.257398 0.0844258 0
0.257398 0.0843598 0
0.257398 0.0840125 0
0.257398 0.0832333 0
0.257398 0.0823606 0
0.257398 0.0809829 0
0.257398 0.0797327 0
0.257398 0.0784674 0
0.257398 0.077547 0
0.257398 0.0768961 0
0.257398 0.0767166 0
0.257398 0.0763272 0
0.257398 0.0755334 0
0.257398 0.0745576 0
0.257398 0.0745576 0
0.257398 0.0745576 0
0.257398 0.0745576 0
0.257398 0.0745576 0
0.257398 0.0745576 0
0.257398 0.0745576 0
0.257398 0.0745576 0
0.257398 0.0745576 0
0.257398 0.0745576 0
0.257398 0.0745576 0
0.257398 0.0745305 0
0.257398 0.0744969 0
0.257398 0.0744969 0
0.257398 0.0744969 0
0.257398 0.0744969 0
0.257398 0.0744969 0
0.257398 0.0744969 0
0.257398 0.0744969 0
0.257398 0.0744969 0
0.257398 0.0744969 0
0.257398 0.0744969 0
0.257398 0.0744969 0
0.257398 0.0744969 0
0.257398 0.0744969 0
0.257398 0.0744969 0
0.257398 0.0744969 0
0.257398 0.0744969 0
0.257398 0.0744969 0
0.257398 0.0744969 0
0.257398 0.0744969 0
0.257398 0.0744969 0
0.257398 0.0744969 0
0.257398 0.0744969 0
0.257398 0.0744969 0
0.257398 0.0744969 0
0.257398 0.0744969 0
0.257398 0.0744969 0
0.257398 0.0744969 0
0.257398 0.0744969 0
0.257398 0.0744969 0
0.257398 0.0744969 0
0.257398 0.0744969 0
0.257398 0.0744969 0
0.257398 0.0744969 0
0.257398 0.0744969 0
0.257398 0.0744969 0
0.257398 0.0744969 0
0.257398 0.0744969 0
0.257398 0.0744969 0
0.257398 0.0744969 0
0.257398 0.0744969 0
0.257398 0.0744969 0
0.257398 0.0744969 0
0.257398 0.0744969 0
0.257398 0.0744969 0
0.257398 0.0744969 0
0.257398 0.0744969 0
0.257398 0.0744969 0
0.257398 0.0744969 0
0.257398 0.0744969 0
0.257398 0.0744969 0
0.257398 0.0744969 0
0.257398 0.0744969 0
0.257398 0.0744969 0
0.257398 0.0744969 0
0.257398 0.0744969 0
0.257398 0.0744969 0
0.257398 0.0744969 0
0.257398 0.0744969 0
0.257398 0.0744969 0
0.257398 0.0744969 0
0.257398 0.0744969 0
0.257398 0.0744969 0
0.257398 0.0744969 0
0.257398 0.0744969 0
0.257398 0.0744969 0
0.257398 0.0744969 0
0.257398 0.0744969 0
0.257398 0.0744969 0
0.257398 0.0744969 0
0.257398 0.0744969 0
0.257398 0.0744969 0
0.257398 0.0744969 0
0.257398 0.0744969 0
0.257398 0.0744969 0
0.257398 0.0744969 0
0.257398 0.0744969 0
0.257398 0.0744969 0
0.257398 0.0744969 0
0.257398 0.0744969 0
0.257398 0.0744969 0
0.257398 0.0744969 0
0.257398 0.0744969 0
0.257398 0.0744969 0
0.257398 0.0744969 0
0.257398 0.0744969 0
0.257398 0.0744969 0
0.257398 0.0744969 0
0.257398 0.0744969 0
0.257398 0.0744969 0
0.257398 0.0744969 0
0.257398 0.0744923 0
0.257398 0.0744923 0
0.257398 0.0744923 0
0.257398 0.0744923 0
0.257398 0.0744923 0
0.257398 0.0744923 0
0.257398 0.0744923 0
0.257398 0.0744923 0
0.257398 0.0744923 0
0.257398 0.0744923 0
0.257398 0.0744923 0
0.257398 0.0744923 0
0.257398 0.0744923 0
0.257398 0.0744923 0
0.257398 0.0744923 0
0.257398 0.0744923 0
0.257398 0.0744923 0
0.257398 0.0744923 0
0.257398 0.0744923 0
0.257398 0.0744923 0
0.257398 0.0744923 0
0.257398 0.0744923 0
0.257398 0.0744923 0
0.257398 0.0744923 0
0.257398 0.0744923 0
0.257398 0.0744923 0
0.257398 0.0744923 0
0.257398 0.0744923 0
0.257398 0.0744923 0
0.257398 0.0744923 0
0.257398 0.0744923 0
0.257398 0.0744923 0
0.257398 0.0744923 0
0.257398 0.0744923 0
0.257398 0.0744923 0
0.257398 0.0744923 0
0.257398 0.0744923 0
0.257398 0.0744923 0
0.257398 0.0744923 0
0.257398 0.0744923 0
0.257398 0.0744923 0
0.257398 0.0744923 0
0.257398 0.0744923 0
0.257398 0.0744923 0
0.257398 0.0744923 0
0.257398 0.0744923 0
0.257398 0.0744923 0
0.257398 0.0744923 0
0.257398 0.0744923 0
0.257398 0.0744923 0
0.257398 0.0744923 0
0.257398 0.0744923 0
0.257398 0.0744923 0
0.257398 0.0744923 0
0.257398 0.0744923 0
0.257398 0.0744923 0
0.257398 0.0744923 0
0.257398 0.0744923 0
0.257398 0.0744923 0
0.257398 0.0744923 0
0.257398 0.0744923 0
0.257398 0.0744923 0
0.257398 0.0744923 0
0.257398 0.0744923 0
0.257398 0.0744923 0
0.257398 0.0744923 0
0.257398 0.0744923 0
0.257398 0.0744923 0
0.257398 0.0744923 0
0.257398 0.0744923 0
0.257398 0.0744923 0
0.257398 0.0744923 0
0.257398 0.0744923 0
0.257398 0.0744923 0
0.257398 0.0744923 0
0.257398 0.0744923 0
0.257398 0.0744923 0
0.257398 0.0744923 0
0.257398 0.0744923 0
0.257398 0.0744923 0
0.257398 0.0744923 0
0.257398 0.0744923 0
0.257398 0.0744923 0
0.257398 0.0744923 0
0.257398 0.0744923 0
0.257398 0.0744923 0
0.257398 0.0744923 0
0.257398 0.0744923 0
0.257398 0.0744923 0
0.257398 0.0744923 0
0.257398 0.0744923 0
0.257398 0.0744923 0
0.257398 0.0744923 0
0.257398 0.0744923 0
0.257398 0.0744923 0
0.257398 0.0744923 0
0.257398 0.0744923 0
0.257398 0.0744923 0
0.257398 0.0744923 0
0.257398 0.0744923 0
0.257398 0.0744923 0
0.257398 0.0744923 0
0.257398 0.0744923 0
0.257398 0.0744923 0
0.257398 0.0744923 0
0.257398 0.0744923 0
0.257398 0.0744923 0
0.257398 0.0744923 0
0.257398 0.0744923 0
0.257398 0.0744923 0
0.257398 0.0744923 0
0.257398 0.0744923 0
0.257398 0.0744923 0
0.257398 0.0744923 0
0.257398 0.0744923 0
0.257398 0.0744923 0
0.257398 0.0744923 0
0.257398 0.0744923 0
0.257398 0.0744923 0
0.257398 0.0744923 0
0.257398 0.0744923 0
0.257398 0.0744923 0
0.257398 0.0744923 0
0.257398 0.0744923 0
0.257398 0.0744923 0
0.257398 0.0744923 0
0.257398 0.0744923 0
0.257398 0.0744923 0
0.257398 0.0744923 0
0.257398 0.0744923 0
0.257398 0.0744923 0
0.257398 0.0744923 0.00541332
0.257398 0.0744923 0.0113478
0.257398 0.0744923 0.0167712
0.257398 0.0744923 0.0219128
0.257398 0.0744923 0.0263739
0.257398 0.0744923 0.02972
0.257398 0.0744923 0.0319935
0.257398 0.0744923 0.0335529
0.257398 0.0744923 0.0349791
0.257398 0.0744923 0.0359875
0.257398 0.0744923 0.0363423
0.257398 0.0744923 0.0358816
0.257398 0.0744923 0.0349736
0.257398 0.0744923 0.0337322
0.257398 0.0744923 0.0321535
0.257398 0.0744923 0.0303831
0.257398 0.0744923 0.0288078
0.257398 0.0744923 0.0279206
0.257398 0.0744923 0.0272776
0.257398 0.0744923 0.0264259
0.257398 0.0744923 0.0257165
0.257398 0.0744923 0.0250588
0.257398 0.0744923 0.0242348
0.257398 0.0744923 0.0228165
0.257398 0.0744923 0.0212024
0.257398 0.0744923 0.0200173
0.257398 0.0744923 0.0182131
0.257398 0.0744923 0.0146575
0.257398 0.0744923 0.00819007
0.257398 0.0744923 0.00819007
0.257398 0.0744923 0.00819007
0.257398 0.0744923 0.00819007
0.257398 0.0744923 0.00819007
0.257398 0.0744923 0.00819007
0.257398 0.0744923 0.00819007
0.257398 0.0744923 0.00819007
0.257398 0.0744923 0.00819007
0.257398 0.0744923 0.00819007
0.257398 0.0744923 0.00819007
0.257398 0.0744923 0.00819007
0.257398 0.0744923 0.00819007
0.257398 0.0744923 0.00819007
0.257398 0.0744923 0.00819007
0.257398 0.0744923 0.00819007
0.257398 0.0744923 0.00819007
0.257398 0.0744923 0.00819007
0.257398 0.0744923 0.00726907
0.257398 0.0744923 0.00726907
0.257398 0.0744923 0.00726907
0.257398 0.0744923 0.00726907
0.257398 0.0744923 0.00726907
0.257398 0.0744923 0.00726907
0.257398 0.0744923 0.00726907
0.257398 0.0744923 0.00726907
0.257398 0.0744923 0.00726907
0.257398 0.0744923 0.00726907
0.257398 0.0744923 0.00726907
0.257398 0.0744923 0.00726907
0.257398 0.0744923 0.00726907
0.257398 0.0744923 0.00726907
0.257398 0.0744923 0.00726907
0.257398 0.0744923 0.00726907
0.257398 0.0744923 0.00726907
0.257398 0.0744923 0.00726907
0.257398 0.0744923 0.00726907
0.257398 0.0744923 0.00726907
0.257398 0.0744923 0.00726907
0.257398 0.0744923 0.00726907
0.257398 0.0744923 0.00726907
0.257398 0.0744923 0.00726907
0.257398 0.0744923 0.00726907
0.257398 0.0744923 0.00726907
0.257398 0.0744923 0.00726907
0.257398 0.0744923 0.013557
0.257398 0.0744923 0.0221703
0.257398 0.0744923 0.0309357
0.257398 0.0744923 0.0393992
0.257398 0.0744923 0.0480152
0.257398 0.0744923 0.0581696
0.257398 0.0866308 0.0662164
0.257398 0.0952639 0.0547629
0.257398 0.104897 0.0463967
0.257398 0.117605 0.0402663
0.257398 0.130509 0.0318298
0.257398 0.140875 0.0229095
0.257398 0.151857 0.0296148
0.257398 0.164143 0.0399222
0.257398 0.176087 0.0486216
0.257398 0.186501 0.0537151
0.257398 0.196375 0.058034
0.257398 0.206643 0.0634715
0.257398 0.216136 0.0687322
0.260109 0.224844 0.0719011
0.267346 0.234235 0.0733754
0.279431 0.244099 0.074433
0.287715 0.253006 0.0758559
0.295073 0.26112 0.0760656
0.303681 0.268331 0.0757691
0.311473 0.27527 0.0753794
0.318077 0.281118 0.0750362
0.324783 0.285644 0.0746332
0.331207 0.289142 0.0740978
0.336487 0.291804 0.0735112
0.341064 0.293259 0.0729754
0.345085 0.293311 0.0725056
0.347997 0.292053 0.0720541
0.349803 0.289692 0.0716384
0.350638 0.286133 0.0713341
0.350209 0.281815 0.0712317
0.348466 0.276483 0.0713735
0.345761 0.269844 0.0717655
0.34221 0.26237 0.0725317
0.337744 0.254058 0.0737744
0.332817 0.244745 0.0754981
0.327747 0.234644 0.0703481
0.322462 0.224141 0.0639058
0.317278 0.213218 0.0571817
0.312201 0.201814 0.0501541
0.307206 0.190194 0.0427822
0.30242 0.178671 0.0349409
0.29788 0.167368 0.0316511
0.293632 0.156396 0.0316511
0.289717 0.146001 0.0316511
0.28618 0.13638 0.0316511
0.283032 0.127717 0.0316511
0.280282 0.120173 0.0316511
0.277924 0.120173 0.0316511
0.276733 0.120173 0.0316511
0.276733 0.120173 0.0316511
0.276733 0.120173 0.0316511
0.276733 0.120173 0.0316511
0.276733 0.120173 0.0316511
0.276733 0.120173 0.0316511
0.276733 0.120173 0.0316511
0.276733 0.120173 0.0316511
0.276733 0.120173 0.0316511
0.276733 0.120173 0.0316511
0.276733 0.120173 0.0316511
0.276733 0.120173 0.0316511
0.276733 0.120173 0.0316511
0.276733 0.120173 0.0316511
0.276733 0.120173 0.0316511
0.276733 0.120173 0.0316511
0.276733 0.120173 0.0316511
0.276733 0.120173 0.0316511
0.276733 0.120173 0.0316511
0.276733 0.120173 0.0316511
0.276733 0.120173 0.0316511
0.276733 0.120173 0.0316511
0.276733 0.120173 0.0316511
0.276733 0.120173 0.0316511
0.276733 0.120173 0.0316511
0.276733 0.120173 0.0316511
0.276733 0.120173 0.0316511
0.276733 0.120173 0.0316511
0.276733 0.120173 0.0316511
0.276733 0.120173 0.0316511
0.276733 0.120173 0.0316511
0.276733 0.120173 0.0371666
0.276733 0.120173 0.0416988
0.276733 0.120173 0.0450909
0.276733 0.120173 0.0469348
0.276733 0.120173 0.0471059
0.276733 0.120173 0.0450209
0.276733 0.120173 0.0405654
0.276733 0.120173 0.0353077
0.276733 0.120173 0.0353077
0.276733 0.120173 0.0353077
0.276733 0.120173 0.0353077
0.276733 0.120173 0.0353077
0.276733 0.120173 0.0353077
0.276733 0.120173 0.0353077
0.276733 0.120173 0.0353077
0.276733 0.120173 0.0353077
0.276733 0.120173 0.0353077
0.276733 0.120173 0.0353077
0.276733 0.120173 0.0353077
0.276733 0.120173 0.0353077
0.276733 0.120173 0.0353077
0.276733 0.120173 0.0353077
0.276733 0.120173 0.0353077
0.276733 0.120173 0.0353077
0.276733 0.120173 0.0353077
0.276733 0.120173 0.0353077
0.276733 0.120173 0.03414
0.276733 0.120173 0.03414
0.276733 0.120173 0.03414
0.276733 0.120173 0.03414
0.276733 0.120173 0.03414
0.276733 0.120173 0.03414
0.276733 0.120173 0.0337256
0.276733 0.120173 0.0337256
0.276733 0.120173 0.0337256
0.276733 0.120173 0.0337256
0.276733 0.120173 0.0337256
0.276733 0.120173 0.0337256
0.276733 0.120173 0.0337256
0.276733 0.120173 0.0337256
0.276733 0.120173 0.0337054
0.276733 0.120173 0.0337054
0.276733 0.120173 0.0337054
0.276733 0.120173 0.0337054
0.276733 0.120173 0.0337054
0.276733 0.120173 0.0337005
0.276733 0.120173 0.0337005
0.276733 0.120173 0.0336979
0.276733 0.120173 0.0336979
0.276733 0.120173 0.0336979
0.276733 0.120173 0.0336979
0.276733 0.120173 0.0336979
0.276733 0.120173 0.0336979
0.276733 0.120173 0.0336979
0.276733 0.120173 0.0336979
0.276733 0.120173 0.0336979
0.276733 0.120173 0.0336979
0.276733 0.120173 0.0336979
0.276733 0.120173 0.0336979
0.276733 0.120173 0.0336979
0.276733 0.120173 0.0336979
0.276733 0.120173 0.0336979
0.276733 0.120173 0.0336979
0.276733 0.120173 0.0336979
0.276733 0.120173 0.0336979
0.276733 0.120173 0.0387236
0.276733 0.120173 0.0470478
0.276733 0.120173 0.0546814
0.277753 0.120173 0.0609549
0.282576 0.120173 0.0661478
0.287718 0.120173 0.0711709
0.293133 0.120173 0.0764202
0.306915 0.120173 0.0810594
0.3365 0.120173 0.0846545
0.36665 0.159671 0.0917415
0.390316 0.209143 0.0929302
0.417593 0.238075 0.0970042
0.445887 0.271117 0.100937
0.472189 0.31067 0.1076
0.498125 0.35088 0.112964
0.52528 0.383294 0.119446
0.550816 0.416834 0.132953
0.575459 0.45104 0.152598
0.59926 0.483965 0.169417
0.622454 0.511982 0.182971
0.64386 0.538814 0.198747
0.661614 0.544755 0.217929
0.672861 0.544347 0.234246
0.685877 0.543092 0.251471
0.688389 0.542657 0.267809
0.689958 0.542831 0.27297
0.691763 0.542011 0.274441
0.69415 0.540681 0.275349
0.695901 0.539905 0.276302
0.697738 0.539353 0.277602
0.373952 0.462113 0.278967
0.364336 0.483115 0.108772
0.364336 0.468693 0.108291
0.364336 0.533713 0.108328
0.364336 0.536428 0.110033
0.368779 0.55749 0.110411
0.379768 0.576799 0.11082
0.377438 0.58434 0.110992
0.377426 0.584439 0.110352
0.376993 0.583486 0.10997
0.375628 0.587403 0.110364
0.375116 0.263916 0.103274
0.375116 0.263916 0.103274
0.375116 0.263916 0.110979
0.375116 0.263916 0.110979
0.375116 0.267623 0.110979
0.375116 0.276105 0.110979
0.375116 0.28478 0.110979
0.375116 0.289534 0.110979
0.375116 0.287649 0.110979
0.375116 0.289569 0.110979
0.375116 0.294306 0.110979
0.375116 0.295865 0.110979
0.375116 0.294933 0.110979
0.375116 0.295725 0.110979
0.375116 0.297378 0.110979
0.375116 0.297052 0.123751
0.375116 0.295437 0.124813
0.375116 0.294302 0.125377
0.375116 0.293287 0.125837
0.375116 0.291446 0.126061
0.375116 0.288972 0.126383
0.375116 0.286569 0.126992
0.375116 0.284167 0.127645
0.375116 0.281364 0.12812
0.375116 0.278485 0.128538
0.375116 0.275813 0.129063
0.375116 0.27327 0.129643
0.375116 0.27327 0.130187
0.375116 0.27327 0.130594
0.375116 0.27327 0.130892
0.375116 0.27327 0.131226
0.375116 0.27327 0.131584
0.375116 0.27327 0.131751
0.375116 0.27327 0.131785
0.375116 0.27327 0.13179
0.375116 0.27327 0.131779
0.375116 0.27327 0.131716
0.375116 0.27327 0.128289
0.375116 0.282005 0.128289
0.375116 0.288797 0.128289
0.375116 0.284366 0.128289
0.375116 0.284124 0.128289
0.375116 0.291163 0.128289
0.375116 0.295696 0.128289
0.375116 0.295011 0.128289
0.375116 0.295185 0.128289
0.375116 0.298397 0.128289
0.375116 0.300074 0.128289
0.375116 0.299401 0.128289
0.375116 0.299414 0.128289
0.375116 0.299994 0.128289
0.375116 0.299541 0.128289
0.375116 0.297503 0.128289
0.375116 0.295021 0.128289
0.375116 0.291373 0.128289
0.375116 0.286238 0.141351
0.375116 0.280976 0.141606
0.375116 0.280976 0.1421
0.375116 0.280976 0.14257
0.375116 0.280976 0.142846
0.375116 0.280976 0.143061
0.375116 0.280976 0.143294
0.375116 0.280976 0.143602
0.375116 0.280976 0.143933
0.375116 0.280976 0.144193
0.375116 0.280976 0.144344
0.375116 0.280976 0.144441
0.375116 0.280976 0.14455
0.375116 0.280976 0.143352
0.375116 0.280976 0.139776
0.375116 0.280976 0.134218
0.375116 0.280976 0.134218
0.375116 0.280976 0.134218
0.375116 0.280976 0.134218
0.375116 0.280976 0.134218
0.375116 0.280976 0.134218
0.375116 0.280976 0.134218
0.375116 0.280976 0.134218
0.375116 0.280976 0.134218
0.375116 0.280976 0.134218
0.375116 0.280976 0.134218
0.375116 0.280976 0.134218
0.375116 0.280976 0.134218
0.375116 0.280976 0.134218
0.375116 0.280976 0.134218
0.375116 0.280976 0.134218
0.375116 0.280976 0.134218
0.375116 0.280976 0.134218
0.375116 0.280976 0.134218
0.375116 0.280976 0.134218
0.375116 0.280976 0.134218
0.375116 0.280976 0.134218
0.375116 0.280976 0.134218
0.375116 0.280976 0.134218
0.375116 0.280976 0.134218
0.375116 0.280976 0.134218
0.375116 0.280976 0.134218
0.375116 0.280976 0.134218
0.375116 0.280976 0.134218
0.375116 0.280976 0.134218
0.375116 0.280976 0.134218
0.375116 0.280976 0.134218
0.375116 0.280976 0.134218
0.375116 0.280976 0.134218
0.375116 0.280976 0.134218
0.375116 0.280976 0.134218
0.375116 0.280976 0.134218
0.375116 0.280976 0.134218
0.375116 0.280976 0.134218
0.375116 0.280976 0.134218
0.375116 0.280976 0.134218
0.375116 0.280976 0.134218
0.375116 0.280976 0.134218
0.375116 0.280976 0.134218
0.375116 0.280976 0.134218
0.375116 0.280976 0.134218
0.375116 0.280976 0.134218
0.375116 0.280976 0.134218
0.375116 0.280976 0.134218
0.375116 0.280976 0.134218
0.375116 0.280976 0.134218
0.375116 0.280976 0.134218
0.375116 0.280976 0.134218
0.375116 0.280976 0.134218
0.375116 0.280976 0.134218
0.375116 0.280976 0.134218
0.375116 0.280976 0.134218
0.375116 0.280976 0.134218
0.375116 0.280976 0.134218
0.375116 0.280976 0.134218
0.375116 0.280976 0.134218
0.375116 0.280976 0.134218
0.375116 0.280976 0.134218
0.375116 0.280976 0.134218
0.375116 0.280976 0.134218
0.375116 0.280976 0.133364
0.375116 0.280976 0.132948
0.375116 0.280976 0.132331
0.375116 0.280976 0.131981
0.375116 0.280976 0.131981
0.375116 0.280976 0.131981
0.375116 0.280976 0.131981
0.375116 0.280976 0.131981
0.375116 0.280976 0.131981
0.375116 0.280976 0.131981
0.375116 0.280976 0.131981
0.375116 0.280976 0.131981
0.375116 0.280976 0.131981
0.375116 0.280976 0.131981
0.375116 0.280976 0.131981
0.375116 0.280976 0.131981
0.375116 0.280976 0.131981
0.375116 0.280976 0.131981
0.375116 0.280976 0.131981
0.375116 0.280976 0.131981
0.375116 0.280976 0.131981
0.375116 0.280976 0.131981
0.375116 0.280976 0.131981
0.375116 0.280976 0.131981
0.375116 0.280976 0.131981
0.375116 0.280976 0.131981
0.375116 0.280976 0.131981
0.375116 0.280976 0.131981
0.375116 0.280976 0.131981
0.375116 0.280976 0.131981
0.375116 0.280976 0.131981
0.375116 0.280976 0.131981
0.375116 0.280976 0.131981
0.375116 0.280976 0.131981
0.375116 0.280976 0.131981
0.375116 0.280976 0.131981
0.375116 0.280976 0.131981
0.375116 0.280976 0.131981
0.375116 0.280976 0.131981
0.375116 0.280976 0.131981
0.375116 0.280976 0.131981
0.375116 0.280976 0.131981
0.375116 0.280976 0.131981
0.375116 0.280976 0.131981
0.375116 0.280976 0.131981
0.375116 0.280976 0.131981
0.375116 0.280976 0.131981
0.375116 0.280976 0.131981
0.375116 0.280976 0.131981
0.375116 0.280976 0.131981
0.375116 0.280976 0.131981
0.375116 0.280976 0.131981
0.375116 0.280976 0.131981
0.375116 0.280976 0.131981
0.375116 0.280976 0.131981
0.375116 0.280976 0.131981
0.375116 0.280976 0.131981
0.375116 0.280976 0.131981
0.375116 0.280976 0.131981
0.375116 0.280976 0.131981
0.375116 0.280976 0.131981
0.375116 0.280976 0.131981
0.375116 0.280976 0.131981
0.375116 0.280976 0.131981
0.375116 0.280976 0.131981
0.375116 0.280976 0.131981
0.375116 0.280976 0.131981
0.375116 0.280976 0.131981
0.375116 0.280976 0.131981
0.375116 0.280976 0.131981
0.375116 0.280976 0.131981
0.375116 0.280976 0.131981
0.375116 0.280976 0.131981
0.375116 0.280976 0.131981
0.375116 0.280976 0.131981
0.375116 0.280976 0.131981
0.375116 0.280976 0.131981
0.375116 0.280976 0.131981
0.375116 0.280976 0.131981
0.375116 0.280976 0.131981
0.375116 0.280976 0.131981
0.375116 0.280976 0.129874
0.375116 0.280976 0.12865
0.375116 0.280976 0.12801
0.375116 0.280976 0.127777
0.375116 0.280976 0.127695
0.375116 0.280976 0.12743
0.375116 0.280976 0.126797
0.375116 0.280976 0.125809
0.375116 0.280976 0.124717
0.375116 0.280976 0.123872
0.375116 0.280976 0.123587
0.375116 0.280976 0.122528
0.375116 0.280976 0.120975
0.375116 0.280976 0.120153
0.375116 0.280976 0.119909
0.375116 0.280976 0.119388
0.375116 0.280976 0.119178
0.375116 0.280976 0.118328
0.375116 0.280976 0.116948
0.375116 0.280976 0.115917
0.375116 0.280976 0.115736
0.375116 0.280976 0.115672
0.375116 0.280976 0.115477
0.375116 0.280976 0.11516
0.375116 0.280976 0.11454
0.375116 0.280976 0.113922
0.375116 0.280976 0.113816
0.375116 0.280976 0.113759
0.375116 0.280976 0.113456
0.375116 0.280976 0.113034
0.375116 0.280976 0.112613
0.375116 0.280976 0.112417
0.375116 0.280976 0.112025
0.375116 0.280976 0.111112
0.375116 0.280976 0.111112
0.375116 0.280976 0.111112
0.375116 0.280976 0.111112
0.375116 0.280976 0.111112
0.375116 0.280976 0.111112
0.375116 0.280976 0.111112
0.375116 0.280976 0.111112
0.375116 0.280976 0.111112
0.375116 0.280976 0.111112
0.375116 0.280976 0.111112
0.375116 0.280976 0.111112
0.375116 0.280976 0.111112
0.375116 0.280976 0.111112
0.375116 0.280976 0.111112
0.375116 0.280976 0.111112
0.375116 0.280976 0.111112
0.375116 0.280976 0.111112
0.375116 0.280976 0.111112
0.375116 0.280976 0.111112
0.375116 0.280976 0.111112
0.375116 0.280976 0.111112
0.375116 0.280976 0.111112
0.375116 0.280976 0.111112
0.375116 0.280976 0.111112
0.375116 0.280976 0.111112
0.375116 0.280976 0.111112
0.375116 0.280976 0.111112
0.375116 0.280976 0.111112
0.375116 0.280976 0.111112
0.375116 0.280976 0.111112
0.375116 0.280976 0.111112
0.375116 0.280976 0.111112
0.375116 0.280976 0.111112
0.375116 0.280976 0.111112
0.375116 0.280976 0.111112
0.375116 0.280976 0.111112
0.375116 0.280976 0.111112
0.375116 0.280976 0.111112
0.375116 0.280976 0.111112
0.375116 0.280976 0.111112
0.375116 0.280976 0.111112
0.375116 0.280976 0.111112
0.375116 0.280976 0.111112
0.375116 0.280976 0.111112
0.375116 0.280976 0.111112
0.375116 0.280976 0.111112
0.375116 0.280976 0.111112
0.375116 0.280976 0.111112
0.375116 0.280976 0.111112
0.375116 0.280976 0.111112
0.375116 0.280976 0.111112
0.375116 0.280976 0.111112
0.375116 0.280976 0.111112
0.375116 0.280976 0.111112
0.375116 0.280976 0.111112
0.375116 0.280976 0.111112
0.375116 0.280976 0.111112
0.375116 0.280976 0.111112
0.375116 0.280976 0.111112
0.375116 0.280976 0.111112
0.375116 0.280976 0.111112
0.375116 0.280976 0.111112
0.375116 0.280976 0.111112
0.375116 0.280976 0.111112
0.375116 0.280976 0.111112
0.375116 0.280976 0.111112
0.375116 0.280976 0.111112
0.375116 0.280976 0.111112
0.375116 0.280976 0.111112
0.375116 0.280976 0.111112
0.375116 0.280976 0.111112
0.375116 0.280976 0.111112
0.375116 0.280976 0.111112
0.375116 0.280976 0.111112
0.375116 0.280976 0.111112
0.375116 0.280976 0.111112
0.375116 0.280976 0.111112
0.375116 0.280976 0.111112
0.375116 0.280976 0.111112
0.375116 0.280976 0.111112
0.375116 0.280976 0.111112
0.375116 0.280976 0.111112
0.375116 0.280976 0.111112
0.375116 0.280976 0.111112
0.375116 0.280976 0.111112
0.375116 0.280976 0.111112
0.375116 0.280976 0.111112
0.375116 0.280976 0.111112
0.375116 0.280976 0.111112
0.375116 0.280976 0.111112
0.375116 0.280976 0.111112
0.375116 0.280976 0.111112
0.375116 0.280976 0.111112
0.375116 0.280976 0.111112
0.375116 0.280976 0.111112
0.375116 0.280976 0.111112
0.375116 0.280976 0.111112
0.375116 0.280976 0.111112
0.375116 0.280976 0.111112
0.375116 0.280976 0.111112
0.375116 0.280976 0.111112
0.375116 0.280976 0.111112
0.375116 0.280976 0.111112
0.375116 0.280976 0.111112
0.375116 0.280976 0.111112
0.375116 0.280976 0.111112
0.375116 0.280976 0.111112
0.375116 0.280976 0.111112
0.375116 0.280976 0.111112
0.375116 0.280976 0.111112
0.375116 0.280976 0.111112
0.375116 0.280976 0.111112
0.375116 0.280976 0.111112
0.375116 0.280976 0.111112
0.375116 0.280976 0.111112
0.375116 0.280976 0.111112
0.375116 0.280976 0.111112
0.375116 0.280976 0.111112
0.375116 0.280976 0.111112
0.375116 0.280976 0.111112
0.375116 0.280976 0.111112
0.375116 0.280976 0.111112
0.375116 0.280976 0.111112
0.375116 0.280976 0.111112
0.375116 0.280976 0.111112
0.375116 0.280976 0.111112
0.375116 0.280976 0.111112
0.375116 0.280976 0.111112
0.375116 0.280976 0.111112
0.375116 0.280976 0.111112
0.375116 0.280976 0.111112
0.375116 0.280976 0.111112
0.375116 0.280976 0.111112
0.375116 0.280976 0.111112
0.375116 0.280976 0.111112
0.375116 0.280976 0.111112
0.375116 0.280976 0.111112
0.375116 0.280976 0.111112
0.375116 0.280976 0.111112
0.375116 0.280976 0.111112
0.375116 0.280976 0.111112
0.375116 0.280976 0.111112
0.375116 0.280976 0.111112
0.375116 0.280976 0.111112
0.375116 0.280976 0.111112
0.375116 0.280976 0.111112
0.375116 0.280976 0.111112
0.375116 0.280976 0.111112
0.375116 0.280976 0.111112
0.375116 0.280976 0.111112
0.375116 0.280976 0.111112
0.375116 0.280976 0.111112
0.375116 0.280976 0.111112
0.375116 0.280976 0.111112
0.375116 0.280976 0.111112
0.375116 0.280976 0.111112
0.375116 0.280976 0.111112
0.375116 0.280976 0.111112
0.375116 0.280976 0.111112
0.375116 0.280976 0.111112
0.375116 0.280976 0.111112
0.375116 0.280976 0.111112
0.375116 0.280976 0.111112
0.375116 0.280976 0.111112
0.375116 0.280976 0.111112
0.375116 0.280976 0.111112
0.375116 0.280976 0.111112
0.375116 0.280976 0.111112
0.375116 0.280976 0.111112
0.375116 0.280976 0.111112
0.375116 0.280976 0.111112
0.375116 0.280976 0.111112
0.375116 0.280976 0.111112
0.375116 0.280976 0.111112
0.375116 0.280976 0.111112
0.375116 0.280976 0.111112
0.375116 0.280976 0.111112
0.375116 0.280976 0.111112
0.375116 0.280976 0.111112
0.375116 0.280976 0.111112
0.375116 0.280976 0.111112
0.375116 0.280976 0.111112
0.375116 0.280976 0.111112
0.375116 0.280976 0.111112
0.375116 0.280976 0.111112
0.375116 0.280976 0.111112
0.375116 0.280976 0.111112
0.375116 0.280976 0.111112
0.375116 0.280976 0.111112
0.375116 0.280976 0.111112
0.375116 0.280976 0.111112
0.375116 0.280976 0.111112
0.375116 0.280976 0.111112
0.375116 0.280976 0.111112
0.375116 0.280976 0.111112
0.375116 0.280976 0.111112
0.375116 0.280976 0.111112
0.375116 0.280976 0.111112
0.375116 0.280976 0.111112
0.375116 0.280976 0.111112
0.375116 0.280976 0.111112
0.375116 0.280976 0.111112
0.375116 0.280976 0.111112
0.375116 0.280976 0.111112
0.375116 0.280976 0.111112
0.375116 0.280976 0.111112
0.375116 0.280976 0.111112
0.375116 0.280976 0.111112
0.375116 0.280976 0.111112
0.375116 0.280976 0.111112
0.375116 0.280976 0.111112
0.375116 0.280976 0.111112
0.375116 0.280976 0.111112
0.375116 0.280976 0.111112
0.375116 0.280976 0.111112
0.375116 0.280976 0.111112
0.375116 0.280976 0.111112
0.375116 0.280976 0.111112
0.375116 0.280976 0.111112
0.375116 0.280976 0.111112
0.375116 0.280976 0.111112
0.375116 0.280976 0.111112
0.375116 0.280976 0.111112
0.375116 0.280976 0.111112
0.375116 0.280976 0.111112
0.375116 0.280976 0.111112
0.375116 0.280976 0.111112
0.375116 0.280976 0.111112
0.375116 0.280976 0.111112
0.375116 0.280976 0.111112
0.375116 0.280976 0.111112
0.375116 0.280976 0.111112
0.375116 0.280976 0.111112
0.375116 0.280976 0.111112
0.375116 0.280976 0.111112
0.375116 0.280976 0.111112
0.375116 0.280976 0.111112
0.375116 0.280976 0.111112
0.375116 0.280976 0.111112
0.375116 0.280976 0.111112
0.375116 0.280976 0.111112
0.375116 0.280976 0.111112
0.375116 0.280976 0.111112
0.375116 0.280976 0.111112
0.375116 0.280976 0.111112
0.375116 0.280976 0.111112
0.375116 0.280976 0.111112
0.375116 0.280976 0.111112
0.375116 0.280976 0.111112
0.375116 0.280976 0.111112
0.375116 0.280976 0.111112
0.375116 0.280976 0.111112
0.375116 0.280976 0.111112
0.375116 0.280976 0.111112
0.375116 0.280976 0.111112
0.375116 0.280976 0.111112
0.375116 0.280976 0.111112
0.375116 0.280976 0.111112
0.375116 0.280976 0.111112
0.375116 0.280976 0.111112
0.375116 0.280976 0.111112
0.375116 0.280976 0.111112
0.375116 0.280976 0.111112
0.375116 0.280976 0.111112
0.375116 0.280976 0.111112
0.375116 0.280976 0.111112
0.375116 0.280976 0.111112
0.375116 0.280976 0.111112
0.375116 0.280976 0.111112
0.375116 0.280976 0.111112
0.375116 0.280976 0.111112
0.375116 0.280976 0.111112
0.375116 0.280976 0.111112
0.375116 0.280976 0.111112
0.375116 0.280976 0.111112
0.375116 0.280976 0.111112
0.375116 0.280976 0.111112
0.375116 0.280976 0.111112
0.375116 0.280976 0.111112
0.375116 0.280976 0.111112
0.375116 0.280976 0.111112
0.375116 0.280976 0.111112
0.375116 0.280976 0.111112
0.375116 0.280976 0.111112
0.375116 0.280976 0.111112
0.375116 0.280976 0.111112
0.375116 0.280976 0.111112
0.375116 0.280976 0.111112
0.375116 0.280976 0.111112
0.375116 0.280976 0.111112
0.375116 0.280976 0.111112
0.375116 0.280976 0.111112
0.375116 0.280976 0.111112
0.375116 0.280976 0.111112
0.375116 0.280976 0.111112
0.375116 0.280976 0.111112
0.375116 0.280976 0.111112
0.375116 0.280976 0.111112
0.375116 0.280976 0.111112
0.375116 0.280976 0.111112
0.375116 0.280976 0.111112
0.375116 0.280976 0.111112
0.375116 0.280976 0.111112
0.375116 0.280976 0.111112
0.375116 0.280976 0.111112
0.375116 0.280976 0.111112
0.375116 0.280976 0.111112
0.375116 0.280976 0.111112
0.375116 0.280976 0.111112
0.375116 0.280976 0.111112
0.375116 0.280976 0.111112
0.375116 0.280976 0.111112
0.375116 0.280976 0.111112
0.375116 0.280976 0.111112
0.375116 0.280976 0.111112
0.375116 0.280976 0.111112
0.375116 0.280976 0.111112
0.375116 0.280976 0.111112
0.375116 0.280976 0.111112
0.375116 0.280976 0.111112
0.375116 0.280976 0.111112
0.375116 0.280976 0.111112
0.375116 0.280976 0.111112
0.375116 0.280976 0.111112
0.375116 0.280976 0.111112
0.375116 0.280976 0.111112
0.375116 0.280976 0.111112
0.375116 0.280976 0.111112
0.375116 0.280976 0.111112
0.375116 0.280976 0.111112
0.375116 0.280976 0.111112
0.375116 0.280976 0.111112
0.375116 0.280976 0.111112
0.375116 0.280976 0.111112
0.375116 0.280976 0.111112
0.375116 0.280976 0.111112
0.375116 0.280976 0.111112
0.375116 0.280976 0.111112
0.375116 0.280976 0.111112
0.375116 0.280976 0.111112
0.375116 0.280976 0.111112
0.375116 0.280976 0.111112
0.375116 0.280976 0.111112
0.375116 0.280976 0.111112
0.375116 0.280976 0.111112
0.375116 0.280976 0.111112
0.375116 0.280976 0.111112
0.375116 0.280976 0.111112
0.375116 0.280976 0.111112
0.375116 0.280976 0.111112
0.375116 0.280976 0.111112
0.375116 0.280976 0.111112
0.375116 0.280976 0.111112
0.375116 0.280976 0.111112
0.375116 0.280976 0.111112
0.375116 0.280976 0.111112
0.375116 0.280976 0.111112
0.375116 0.280976 0.111112
0.375116 0.280976 0.111112
0.375116 0.280976 0.111112
0.375116 0.280976 0.111112
0.375116 0.280976 0.111112
0.375116 0.280976 0.111112
0.375116 0.280976 0.111112
0.375116 0.280976 0.111112
0.375116 0.280976 0.111112
0.375116 0.280976 0.111112
0.375116 0.280976 0.111112
0.375116 0.280976 0.111112
0.375116 0.280976 0.111112
0.375116 0.280976 0.111112
0.375116 0.280976 0.111112
0.375116 0.280976 0.111112
0.375116 0.280976 0.111112
0.375116 0.280976 0.111112
0.375116 0.280976 0.111112
0.375116 0.280976 0.111112
0.375116 0.280976 0.111112
0.375116 0.280976 0.111112
0.375116 0.280976 0.111112
0.375116 0.280976 0.111112
0.375116 0.280976 0.111112
0.375116 0.280976 0.111112
0.375116 0.280976 0.111112
0.375116 0.280976 0.111112
0.375116 0.280976 0.111112
0.375116 0.280976 0.111112
0.375116 0.280976 0.111112
0.375116 0.280976 0.111112
0.375116 0.280976 0.111112
0.375116 0.280976 0.111112
0.375116 0.280976 0.111112
0.375116 0.280976 0.111112
0.375116 0.280976 0.111112
0.375116 0.280976 0.111112
0.375116 0.280976 0.111112
0.375116 0.280976 0.111112
0.375116 0.280976 0.111112
0.375116 0.280976 0.111112
0.375116 0.280976 0.111112
0.375116 0.280976 0.111112
0.375116 0.280976 0.111112
0.375116 0.280976 0.111112
0.375116 0.280976 0.111112
0.375116 0.280976 0.111112
0.375116 0.280976 0.111112
0.375116 0.280976 0.111112
0.375116 0.280976 0.111112
0.375116 0.280976 0.111112
0.375116 0.280976 0.111112
0.375116 0.280976 0.111112
0.375116 0.280976 0.111112
0.375116 0.280976 0.111112
0.375116 0.280976 0.111112
0.375116 0.280976 0.111112
0.375116 0.280976 0.111112
0.375116 0.280976 0.111112
0.375116 0.280976 0.111112
0.375116 0.280976 0.111112
0.375116 0.280976 0.111112
0.375116 0.280976 0.111112
0.375116 0.280976 0.111112
0.375116 0.280976 0.111112
0.375116 0.280976 0.111112
0.375116 0.280976 0.111112
0.375116 0.280976 0.111112
0.375116 0.280976 0.111112
0.375116 0.280976 0.111112
0.375116 0.280976 0.111112
0.375116 0.280976 0.111112
0.375116 0.280976 0.111112
0.375116 0.280976 0.111112
0.375116 0.280976 0.111112
0.375116 0.280976 0.111112
0.375116 0.280976 0.111112
0.375116 0.280976 0.111112
0.375116 0.280976 0.111112
0.375116 0.280976 0.111112
0.375116 0.280976 0.111112
0.375116 0.280976 0.111112
0.375116 0.280976 0.111112
0.375116 0.280976 0.111112
0.375116 0.280976 0.111112
0.375116 0.280976 0.111112
0.375116 0.280976 0.111112
0.375116 0.280976 0.111112
0.375116 0.280976 0.111112
0.375116 0.280976 0.111112
0.375116 0.280976 0.111112
0.375116 0.280976 0.111112
0.375116 0.280976 0.111112
0.375116 0.280976 0.111112
0.375116 0.280976 0.111112
0.375116 0.280976 0.111112
0.375116 0.280976 0.111112
0.375116 0.280976 0.111112
0.375116 0.280976 0.111112
0.375116 0.280976 0.111112
0.375116 0.280976 0.111112
0.375116 0.280976 0.111112
0.375116 0.280976 0.111112
0.375116 0.280976 0.111112
0.375116 0.280976 0.111112
0.375116 0.280976 0.111112
0.375116 0.280976 0.111112
0.375116 0.280976 0.111112
0.375116 0.280976 0.111112
0.375116 0.280976 0.111112
0.375116 0.280976 0.111112
0.375116 0.280976 0.111112
0.375116 0.280976 0.111112
0.375116 0.280976 0.111112
0.375116 0.280976 0.111112
0.375116 0.280976 0.111112
0.375116 0.280976 0.111112
0.375116 0.280976 0.111112
0.375116 0.280976 0.111112
0.375116 0.280976 0.111112
0.375116 0.280976 0.111112
0.375116 0.280976 0.111112
0.375116 0.280976 0.111112
0.375116 0.280976 0.111112
0.375116 0.280976 0.112567
0.375116 0.280976 0.115005
0.375116 0.280976 0.11689
0.375116 0.280976 0.118435
0.375116 0.280976 0.1199
0.375116 0.280976 0.121454
0.375116 0.280976 0.123097
0.375116 0.280976 0.124591
0.375116 0.280976 0.124578
0.375116 0.280976 0.124574
0.375116 0.280976 0.124679
0.375116 0.280976 0.124769
0.375116 0.280976 0.12472
0.375116 0.280976 0.124311
0.375116 0.280976 0.122386
0.375116 0.280976 0.119111
0.375116 0.280976 0.114526
0.375116 0.280976 0.114526
0.375116 0.280976 0.114526
0.375116 0.280976 0.114526
0.375116 0.280976 0.114526
0.375116 0.280976 0.114526
0.375116 0.280976 0.114526
0.375116 0.280976 0.114526
0.375116 0.280976 0.114526
0.375116 0.280976 0.114526
0.375116 0.280976 0.114526
0.375116 0.280976 0.114526
0.375116 0.280976 0.114526
0.375116 0.280976 0.114526
0.375116 0.280976 0.114526
0.375116 0.280976 0.114526
0.375116 0.280976 0.114526
0.375116 0.280976 0.114526
0.375116 0.280976 0.114526
0.375116 0.280976 0.114526
0.375116 0.280976 0.114526
0.375116 0.280976 0.114526
0.375116 0.280976 0.114526
0.375116 0.280976 0.114526
0.375116 0.280976 0.114526
0.375116 0.280976 0.114526
0.375116 0.280976 0.114526
0.375116 0.280976 0.114526
0.375116 0.280976 0.114526
0.375116 0.280976 0.114526
0.375116 0.280976 0.114526
0.375116 0.280976 0.114526
0.375116 0.280976 0.114526
0.375116 0.280976 0.114526
0.375116 0.280976 0.114526
0.375116 0.280976 0.114526
0.375116 0.280976 0.114526
0.375116 0.280976 0.114526
0.375116 0.280976 0.114526
0.375116 0.280976 0.114526
0.375116 0.280976 0.114526
0.375116 0.280976 0.114526
0.375116 0.280976 0.114526
0.375116 0.280976 0.114526
0.375116 0.280976 0.114526
0.375116 0.280976 0.114526
0.375116 0.280976 0.114526
0.375116 0.280976 0.114526
0.375116 0.280976 0.114526
0.375116 0.280976 0.114526
0.375116 0.280976 0.114526
0.375116 0.280976 0.114526
0.375116 0.280976 0.114526
0.375116 0.280976 0.114526
0.375116 0.280976 0.114526
0.375116 0.280976 0.114526
0.375116 0.280976 0.114526
0.375116 0.280976 0.114526
0.375116 0.280976 0.114526
0.375116 0.280976 0.114526
0.375116 0.280976 0.114526
0.375116 0.280976 0.114526
0.375116 0.280976 0.114526
0.375116 0.280976 0.114526
0.375116 0.280976 0.114526
0.375116 0.280976 0.114526
0.375116 0.280976 0.114526
0.375116 0.280976 0.114526
0.375116 0.280976 0.114526
0.375116 0.280976 0.114526
0.375116 0.280976 0.114526
0.375116 0.280976 0.114526
0.375116 0.280976 0.114526
0.375116 0.280976 0.114526
0.375116 0.280976 0.114526
0.375116 0.280976 0.114526
0.375116 0.280976 0.114526
0.375116 0.280976 0.114526
0.375116 0.280976 0.114526
0.375116 0.280976 0.114526
0.375116 0.280976 0.114526
0.375116 0.280976 0.114526
0.375116 0.280976 0.114526
0.375116 0.280976 0.114526
0.375116 0.280976 0.114526
0.375116 0.280976 0.114526
0.375116 0.280976 0.114526
0.375116 0.280976 0.114526
0.375116 0.280976 0.114526
0.375116 0.280976 0.114526
0.375116 0.280976 0.114526
0.375116 0.280976 0.114526
0.375116 0.280976 0.114526
0.375116 0.280976 0.114526
0.375116 0.280976 0.114526
0.375116 0.280976 0.117489
0.375116 0.280976 0.121135
0.375116 0.280976 0.124389
0.375116 0.280976 0.127482
0.375116 0.280976 0.127439
0.375116 0.280976 0.127411
0.375116 0.280976 0.12835
0.375116 0.280976 0.129651
0.375116 0.280976 0.130261
0.375116 0.280976 0.13006
0.375116 0.280976 0.129733
0.375116 0.280976 0.129868
0.375116 0.280976 0.130506
0.375116 0.280976 0.131129
0.375116 0.280976 0.131312
0.375116 0.280976 0.131162
0.375116 0.280976 0.131026
0.375116 0.280976 0.131128
0.375116 0.280976 0.13139
0.375116 0.280976 0.130762
0.375116 0.280976 0.127308
0.375116 0.280976 0.120729
0.375116 0.280976 0.118664
0.375116 0.280976 0.118664
0.375116 0.280976 0.118664
0.375116 0.280976 0.118664
0.375116 0.280976 0.118664
0.375116 0.280976 0.118664
0.375116 0.280976 0.118664
0.375116 0.280976 0.118664
0.375116 0.280976 0.118664
0.375116 0.280976 0.118664
0.375116 0.280976 0.118664
0.375116 0.280976 0.118664
0.375116 0.280976 0.118664
0.375116 0.280976 0.118664
0.375116 0.280976 0.118664
0.375116 0.280976 0.118664
0.375116 0.280976 0.118664
0.375116 0.280976 0.118664
0.375116 0.280976 0.118664
0.375116 0.280976 0.118664
0.375116 0.280976 0.118664
0.375116 0.280976 0.118664
0.375116 0.280976 0.118664
0.375116 0.280976 0.118664
0.375116 0.280976 0.118664
0.375116 0.280976 0.118664
0.375116 0.280976 0.118664
0.375116 0.280976 0.118664
0.375116 0.280976 0.118664
0.375116 0.280976 0.118664
0.375116 0.280976 0.118664
0.375116 0.280976 0.118664
0.375116 0.280976 0.118664
0.375116 0.280976 0.118664
0.375116 0.280976 0.118664
0.375116 0.280976 0.118664
0.375116 0.280976 0.118664
0.375116 0.280976 0.118664
0.375116 0.280976 0.118664
0.375116 0.280976 0.118664
0.375116 0.280976 0.118664
0.375116 0.280976 0.118664
0.375116 0.280976 0.118664
0.375116 0.280976 0.118664
0.375116 0.280976 0.118664
0.375116 0.280976 0.118664
0.375116 0.280976 0.118664
0.375116 0.280976 0.118664
0.375116 0.280976 0.118664
0.375116 0.280976 0.118664
0.375116 0.280976 0.118664
0.375116 0.280976 0.118664
0.375116 0.280976 0.118664
0.375116 0.280976 0.118664
0.375116 0.280976 0.118664
0.375116 0.280976 0.118664
0.375116 0.280976 0.118664
0.375116 0.280976 0.118664
0.375116 0.280976 0.118664
0.375116 0.280976 0.118664
0.375116 0.280976 0.118664
0.375116 0.280976 0.118664
0.375116 0.280976 0.118664
0.375116 0.280976 0.118664
0.375116 0.280976 0.118664
0.375116 0.280976 0.118664
0.375116 0.280976 0.118664
0.375116 0.280976 0.118664
0.375116 0.280976 0.118664
0.375116 0.280976 0.118664
0.375116 0.280976 0.118664
0.375116 0.280976 0.118664
0.375116 0.280976 0.118664
0.375116 0.280976 0.118664
0.375116 0.280976 0.118664
0.375116 0.280976 0.118664
0.375116 0.280976 0.118664
0.375116 0.280976 0.118664
0.375116 0.280976 0.118664
0.375116 0.280976 0.118664
0.375116 0.280976 0.118664
0.375116 0.280976 0.118664
0.375116 0.280976 0.118664
0.375116 0.280976 0.118664
0.375116 0.280976 0.118664
0.375116 0.280976 0.118664
0.375116 0.280976 0.118664
0.375116 0.280976 0.118664
0.375116 0.280976 0.118664
0.375116 0.280976 0.120138
0.375116 0.280976 0.121591
0.375116 0.280976 0.122649
0.375116 0.280976 0.123114
0.375116 0.280976 0.122829
0.375116 0.280976 0.122114
0.375116 0.280976 0.121686
0.375116 0.280976 0.121676
0.375116 0.280976 0.121786
0.375116 0.280976 0.121945
0.375116 0.280976 0.121666
0.375116 0.280976 0.120874
0.375116 0.280976 0.120104
0.375116 0.280976 0.119737
0.375116 0.280976 0.11966
0.375116 0.280976 0.119989
0.375116 0.280976 0.120449
0.375116 0.280976 0.120628
0.375116 0.280976 0.120646
0.375116 0.280976 0.120537
0.375116 0.280976 0.120758
0.375116 0.280976 0.121735
0.375116 0.280976 0.122894
0.375116 0.280976 0.123585
0.375116 0.280976 0.123893
0.375116 0.280976 0.124032
0.375116 0.280976 0.124248
0.375116 0.280976 0.124334
0.375116 0.280976 0.124037
0.375116 0.280976 0.123519
0.375116 0.280976 0.121983
0.375116 0.280976 0.120702
0.375116 0.280976 0.120702
0.375116 0.280976 0.120702
0.375116 0.280976 0.120702
0.375116 0.280976 0.120702
0.375116 0.280976 0.120702
0.375116 0.280976 0.120702
0.375116 0.280976 0.120702
0.375116 0.280976 0.120702
0.375116 0.280976 0.120702
0.375116 0.280976 0.120702
0.375116 0.280976 0.120702
0.375116 0.280976 0.120702
0.375116 0.280976 0.120702
0.375116 0.280976 0.120702
0.375116 0.280976 0.120702
0.375116 0.280976 0.120702
0.375116 0.280976 0.120702
0.375116 0.280976 0.120702
0.375116 0.280976 0.120702
0.375116 0.280976 0.120702
0.375116 0.280976 0.120702
0.375116 0.280976 0.120702
0.375116 0.280976 0.120702
0.375116 0.280976 0.120702
0.375116 0.280976 0.120702
0.375116 0.280976 0.120702
0.375116 0.280976 0.120702
0.375116 0.280976 0.120702
0.375116 0.280976 0.120702
0.375116 0.280976 0.120702
0.375116 0.280976 0.120702
0.375116 0.280976 0.120702
0.375116 0.280976 0.120702
0.375116 0.280976 0.120702
0.375116 0.280976 0.120702
0.375116 0.280976 0.120702
0.375116 0.280976 0.120702
0.375116 0.280976 0.120702
0.375116 0.280976 0.120702
0.375116 0.280976 0.120702
0.375116 0.280976 0.120702
0.375116 0.280976 0.120702
0.375116 0.280976 0.120702
0.375116 0.280976 0.120702
0.375116 0.280976 0.120702
0.375116 0.280976 0.120702
0.375116 0.280976 0.120702
0.375116 0.280976 0.120702
0.375116 0.280976 0.120702
0.375116 0.280976 0.120702
0.375116 0.280976 0.120702
0.375116 0.280976 0.120702
0.375116 0.280976 0.120702
0.375116 0.280976 0.120702
0.375116 0.280976 0.120702
0.375116 0.280976 0.120702
0.375116 0.280976 0.120702
0.375116 0.280976 0.120702
0.375116 0.280976 0.120702
0.375116 0.280976 0.120702
0.375116 0.280976 0.120702
0.375116 0.280976 0.120702
0.375116 0.280976 0.120702
0.375116 0.280976 0.120702
0.375116 0.280976 0.120702
0.375116 0.280976 0.120702
0.375116 0.280976 0.120702
0.375116 0.280976 0.120702
0.375116 0.280976 0.120702
0.375116 0.280976 0.120702
0.375116 0.280976 0.120702
0.375116 0.280976 0.120702
0.375116 0.280976 0.120702
0.375116 0.280976 0.120702
0.375116 0.280976 0.120702
0.375116 0.280976 0.120702
0.375116 0.280976 0.120702
0.375116 0.280976 0.120702
0.375116 0.280976 0.120702
0.375116 0.280976 0.120702
0.375116 0.280976 0.120702
0.375116 0.280976 0.120702
0.375116 0.280976 0.120702
0.375116 0.280976 0.120702
0.375116 0.280976 0.120702
0.375116 0.280976 0.120702
0.375116 0.280976 0.120702
0.375116 0.280976 0.120702
0.375116 0.280976 0.120702
0.375116 0.280976 0.120702
0.375116 0.280976 0.120702
0.375116 0.280976 0.120702
0.375116 0.280976 0.120702
0.375116 0.280976 0.120702
0.375116 0.280976 0.120702
0.375116 0.280976 0.120702
0.375116 0.280976 0.120702
0.375116 0.280976 0.120702
0.375116 0.280976 0.120702
0.375116 0.280976 0.120702
0.375116 0.280976 0.120702
0.375116 0.280976 0.120702
0.375116 0.280976 0.120702
0.375116 0.280976 0.120702
0.375116 0.280976 0.120702
0.375116 0.280976 0.120702
0.375116 0.280976 0.120702
0.375116 0.280976 0.120702
0.375116 0.280976 0.120702
0.375116 0.280976 0.120702
0.375116 0.280976 0.120702
0.375116 0.280976 0.120702
0.375116 0.280976 0.120702
0.375116 0.280976 0.120702
0.375116 0.280976 0.120702
0.375116 0.280976 0.120702
0.375116 0.280976 0.120702
0.375116 0.280976 0.120702
0.375116 0.280976 0.120702
0.375116 0.280976 0.120702
0.375116 0.280976 0.120702
0.375116 0.280976 0.120702
0.375116 0.280976 0.120702
0.375116 0.280976 0.120702
0.375116 0.280976 0.120702
0.375116 0.280976 0.120702
0.375116 0.280976 0.120702
0.375116 0.280976 0.120702
0.375116 0.280976 0.120702
0.375116 0.280976 0.120702
0.375116 0.280976 0.120702
0.375116 0.280976 0.120702
0.375116 0.280976 0.120702
0.375116 0.280976 0.120702
0.375116 0.280976 0.120702
0.375116 0.280976 0.120702
0.375116 0.280976 0.120702
0.375116 0.280976 0.120702
0.375116 0.280976 0.120702
0.375116 0.280976 0.120702
0.375116 0.280976 0.120702
0.375116 0.280976 0.120702
0.375116 0.280976 0.120702
0.375116 0.280976 0.120702
0.375116 0.280976 0.120702
0.375116 0.280976 0.120702
0.375116 0.280976 0.120702
0.375116 0.280976 0.120702
0.375116 0.280976 0.120702
0.375116 0.280976 0.120702
0.375116 0.280976 0.120702
0.375116 0.280976 0.120702
0.375116 0.280976 0.120702
0.375116 0.280976 0.120702
0.375116 0.280976 0.120702
0.375116 0.280976 0.120702
0.375116 0.280976 0.120702
0.375116 0.280976 0.120702
0.375116 0.280976 0.120702
0.375116 0.280976 0.120702
0.375116 0.280976 0.120702
0.375116 0.280976 0.120702
0.375116 0.280976 0.120702
0.375116 0.280976 0.120702
0.375116 0.280976 0.120702
0.375116 0.280976 0.120702
0.375116 0.280976 0.120702
0.375116 0.280976 0.120702
0.375116 0.280976 0.120702
0.375116 0.280976 0.120702
0.375116 0.280976 0.120702
0.375116 0.280976 0.120702
0.375116 0.280976 0.120702
0.375116 0.280976 0.120702
0.375116 0.280976 0.120702
0.375116 0.280976 0.120702
0.375116 0.280976 0.120702
0.375116 0.280976 0.120702
0.375116 0.280976 0.120702
0.375116 0.280976 0.120702
0.375116 0.280976 0.120702
0.375116 0.280976 0.120702
0.375116 0.280976 0.120702
0.375116 0.280976 0.120702
0.375116 0.280976 0.120702
0.375116 0.280976 0.120702
0.375116 0.280976 0.120702
0.375116 0.280976 0.120702
0.375116 0.280976 0.120702
0.375116 0.280976 0.120702
0.375116 0.280976 0.120702
0.375116 0.280976 0.120702
0.375116 0.280976 0.120702
0.375116 0.280976 0.120702
0.375116 0.280976 0.120702
0.375116 0.280976 0.120702
0.375116 0.280976 0.120702
0.375116 0.280976 0.120702
0.375116 0.280976 0.120702
0.375116 0.280976 0.120702
0.375116 0.280976 0.120702
0.375116 0.280976 0.120702
0.375116 0.280976 0.120702
0.375116 0.280976 0.120702
0.375116 0.280976 0.120702
0.375116 0.280976 0.120702
0.375116 0.280976 0.120702
0.375116 0.280976 0.120702
0.375116 0.280976 0.120702
0.375116 0.280976 0.120702
0.375116 0.280976 0.120702
0.375116 0.280976 0.120702
0.375116 0.280976 0.120702
0.375116 0.280976 0.120702
0.375116 0.280976 0.120702
0.375116 0.280976 0.120702
0.375116 0.280976 0.120702
0.375116 0.280976 0.120702
0.375116 0.280976 0.120702
0.375116 0.280976 0.120702
0.375116 0.280976 0.120702
0.375116 0.280976 0.120702
0.375116 0.280976 0.120702
0.375116 0.280976 0.120702
0.375116 0.280976 0.120702
0.375116 0.280976 0.120702
0.375116 0.280976 0.120702
0.375116 0.280976 0.120702
0.375116 0.280976 0.120702
0.375116 0.280976 0.120702
0.375116 0.280976 0.120702
0.375116 0.280976 0.120702
0.375116 0.280976 0.120702
0.375116 0.280976 0.120702
0.375116 0.280976 0.120702
0.375116 0.280976 0.120702
0.375116 0.280976 0.120702
0.375116 0.280976 0.120702
0.375116 0.280976 0.120702
0.375116 0.280976 0.120702
0.375116 0.280976 0.120702
0.375116 0.280976 0.120702
0.375116 0.280976 0.120702
0.375116 0.280976 0.120702
0.375116 0.280976 0.120702
0.375116 0.280976 0.120702
0.375116 0.280976 0.120702
0.375116 0.280976 0.120702
0.375116 0.280976 0.120702
0.375116 0.280976 0.120702
0.375116 0.280976 0.120702
0.375116 0.280976 0.120702
0.375116 0.280976 0.120702
0.375116 0.280976 0.120702
0.375116 0.280976 0.120702
0.375116 0.280976 0.120702
0.375116 0.280976 0.120702
0.375116 0.280976 0.120702
0.375116 0.280976 0.120702
0.375116 0.280976 0.120702
0.375116 0.280976 0.120702
0.375116 0.280976 0.120702
0.375116 0.280976 0.120702
0.375116 0.280976 0.120702
0.375116 0.280976 0.120702
0.375116 0.280976 0.120702
0.375116 0.280976 0.120702
0.375116 0.280976 0.120702
0.375116 0.280976 0.120702
0.375116 0.280976 0.120702
0.375116 0.280976 0.120702
0.375116 0.280976 0.120702
0.375116 0.280976 0.120702
0.375116 0.280976 0.120702
0.375116 0.280976 0.120702
0.375116 0.280976 0.120702
0.375116 0.280976 0.120702
0.375116 0.280976 0.120702
0.375116 0.280976 0.120702
0.375116 0.280976 0.120702
0.375116 0.280976 0.120702
0.375116 0.280976 0.120702
0.375116 0.280976 0.120702
0.375116 0.280976 0.120702
0.375116 0.280976 0.120702
0.375116 0.280976 0.120702
0.375116 0.280976 0.120702
0.375116 0.280976 0.120702
0.375116 0.280976 0.120702
0.375116 0.280976 0.120702
0.375116 0.280976 0.120702
0.375116 0.280976 0.120702
0.375116 0.280976 0.120702
0.375116 0.280976 0.120702
0.375116 0.280976 0.120702
0.375116 0.280976 0.120702
0.375116 0.280976 0.120702
0.375116 0.280976 0.120702
0.375116 0.280976 0.120702
0.375116 0.280976 0.120702
0.375116 0.280976 0.120702
0.375116 0.280976 0.120702
0.375116 0.280976 0.120702
0.375116 0.280976 0.120702
0.375116 0.280976 0.120702
0.375116 0.280976 0.120702
0.375116 0.280976 0.120702
0.375116 0.280976 0.120702
0.375116 0.280976 0.120702
0.375116 0.280976 0.120702
0.375116 0.280976 0.120702
0.375116 0.280976 0.120702
0.375116 0.280976 0.120702
0.375116 0.280976 0.120702
0.375116 0.280976 0.120702
0.375116 0.280976 0.120702
0.375116 0.280976 0.120702
0.375116 0.280976 0.120702
0.375116 0.280976 0.120702
0.375116 0.280976 0.120702
0.375116 0.280976 0.120702
0.375116 0.280976 0.120702
0.375116 0.280976 0.120702
0.375116 0.280976 0.120702
0.375116 0.280976 0.120702
0.375116 0.280976 0.120702
0.375116 0.280976 0.120702
0.375116 0.280976 0.120702
0.375116 0.280976 0.120702
0.375116 0.280976 0.120702
0.375116 0.280976 0.120702
0.375116 0.280976 0.120702
0.375116 0.280976 0.120702
0.375116 0.280976 0.120702
0.375116 0.280976 0.120702
0.375116 0.280976 0.120702
0.375116 0.280976 0.120702
0.375116 0.280976 0.120702
0.375116 0.280976 0.120702
0.375116 0.280976 0.120702
0.375116 0.280976 0.120702
0.375116 0.280976 0.120702
0.375116 0.280976 0.120702
0.375116 0.280976 0.120702
0.375116 0.280976 0.120702
0.375116 0.280976 0.120702
0.375116 0.280976 0.120702
0.375116 0.280976 0.120702
0.375116 0.280976 0.120702
0.375116 0.280976 0.120702
0.375116 0.280976 0.120702
0.375116 0.280976 0.120702
0.375116 0.280976 0.120702
0.375116 0.280976 0.120702
0.375116 0.280976 0.120702
0.375116 0.280976 0.120702
0.375116 0.280976 0.120702
0.375116 0.280976 0.120702
0.375116 0.280976 0.120702
0.375116 0.280976 0.120702
0.375116 0.280976 0.120702
0.375116 0.280976 0.120702
0.375116 0.280976 0.120702
0.375116 0.280976 0.120702
0.375116 0.280976 0.120702
0.375116 0.280976 0.120702
0.375116 0.280976 0.120702
0.375116 0.280976 0.120702
0.375116 0.280976 0.120702
0.375116 0.280976 0.120702
0.375116 0.280976 0.120702
0.375116 0.280976 0.120702
0.375116 0.280976 0.120702
0.375116 0.280976 0.120702
0.375116 0.280976 0.120702
0.375116 0.280976 0.120702
0.375116 0.280976 0.120702
0.375116 0.280976 0.120702
0.375116 0.280976 0.120702
0.375116 0.280976 0.120702
0.375116 0.280976 0.120702
0.375116 0.280976 0.120702
0.375116 0.280976 0.120702
0.375116 0.280976 0.120702
0.375116 0.280976 0.120702
0.375116 0.280976 0.120702
0.375116 0.280976 0.120702
0.375116 0.280976 0.120702
0.375116 0.280976 0.120702
0.375116 0.280976 0.120702
0.375116 0.280976 0.120702
0.375116 0.280976 0.120702
0.375116 0.280976 0.120702
0.375116 0.280976 0.120702
0.375116 0.280976 0.120702
0.375116 0.280976 0.120702
0.375116 0.280976 0.120702
0.375116 0.280976 0.120702
0.375116 0.280976 0.120702
0.375116 0.280976 0.120702
0.375116 0.280976 0.120702
0.375116 0.280976 0.120702
0.375116 0.280976 0.120702
0.375116 0.280976 0.120702
0.375116 0.280976 0.120702
0.375116 0.280976 0.120702
0.375116 0.280976 0.120702
0.375116 0.280976 0.120702
0.375116 0.280976 0.120702
0.375116 0.280976 0.120702
0.375116 0.280976 0.120702
0.375116 0.280976 0.120702
0.375116 0.280976 0.120702
0.375116 0.280976 0.120702
0.375116 0.280976 0.120702
0.375116 0.280976 0.120702
0.375116 0.280976 0.120702
0.375116 0.280976 0.120702
0.375116 0.280976 0.120702
0.375116 0.280976 0.120702
0.375116 0.280976 0.120702
0.375116 0.280976 0.120702
0.375116 0.280976 0.120702
0.375116 0.280976 0.120702
0.375116 0.280976 0.120702
0.375116 0.280976 0.120702
0.375116 0.280976 0.120702
0.375116 0.280976 0.120702
0.375116 0.280976 0.120702
0.375116 0.280976 0.120702
0.375116 0.280976 0.120702
0.375116 0.280976 0.120702
0.375116 0.280976 0.120702
0.375116 0.280976 0.120702
0.375116 0.280976 0.120702
0.375116 0.280976 0.120702
0.375116 0.280976 0.120702
0.375116 0.280976 0.120702
0.375116 0.280976 0.120702
0.375116 0.280976 0.120702
0.375116 0.280976 0.120702
0.375116 0.280976 0.120702
0.375116 0.280976 0.120702
0.375116 0.280976 0.120702
0.375116 0.280976 0.120702
0.375116 0.280976 0.120702
0.375116 0.280976 0.120702
0.375116 0.280976 0.120702
0.375116 0.280976 0.120702
0.375116 0.280976 0.120702
0.375116 0.280976 0.120702
0.375116 0.280976 0.120702
0.375116 0.280976 0.120702
0.375116 0.280976 0.120702
0.375116 0.280976 0.120702
0.375116 0.280976 0.120702
0.375116 0.280976 0.120702
0.375116 0.280976 0.120702
0.375116 0.280976 0.120702
0.375116 0.280976 0.120702
0.375116 0.280976 0.120702
0.375116 0.280976 0.120702
0.375116 0.280976 0.120702
0.375116 0.280976 0.120702
0.375116 0.280976 0.120702
0.375116 0.280976 0.120702
0.375116 0.280976 0.120702
0.375116 0.280976 0.120702
0.375116 0.280976 0.120702
0.375116 0.280976 0.120702
0.375116 0.280976 0.120702
0.375116 0.280976 0.120702
0.375116 0.280976 0.120702
0.375116 0.280976 0.120702
0.375116 0.280976 0.120702
0.375116 0.280976 0.120702
0.375116 0.280976 0.120702
0.375116 0.280976 0.120702
0.375116 0.280976 0.120702
0.375116 0.280976 0.120702
0.375116 0.280976 0.120702
0.375116 0.280976 0.120702
0.375116 0.280976 0.120702
0.375116 0.280976 0.120702
0.375116 0.280976 0.120702
0.375116 0.280976 0.120702
0.375116 0.280976 0.120702
0.375116 0.280976 0.120702
0.375116 0.280976 0.120702
0.375116 0.280976 0.120702
0.375116 0.280976 0.120702
0.375116 0.280976 0.120702
0.375116 0.280976 0.120702
0.375116 0.280976 0.120702
0.375116 0.280976 0.120702
0.375116 0.280976 0.120702
0.375116 0.280976 0.120702
0.375116 0.280976 0.120702
0.375116 0.280976 0.120702
0.375116 0.280976 0.120702
0.375116 0.280976 0.120702
0.375116 0.280976 0.120702
0.375116 0.280976 0.120702
0.375116 0.280976 0.120702
0.375116 0.280976 0.120702
0.375116 0.280976 0.120702
0.375116 0.280976 0.120702
0.375116 0.280976 0.120702
0.375116 0.280976 0.120702
0.375116 0.280976 0.120702
0.375116 0.280976 0.120702
0.375116 0.280976 0.120702
0.375116 0.280976 0.120702
0.375116 0.280976 0.120702
0.375116 0.280976 0.120702
0.375116 0.280976 0.120702
0.375116 0.280976 0.120702
0.375116 0.280976 0.120702
0.375116 0.280976 0.120702
0.375116 0.280976 0.120702
0.375116 0.280976 0.120702
0.375116 0.280976 0.120702
0.375116 0.280976 0.120702
0.375116 0.280976 0.120702
0.375116 0.280976 0.120702
0.375116 0.280976 0.120702
0.375116 0.280976 0.120702
0.375116 0.280976 0.120702
0.375116 0.280976 0.120702
0.375116 0.280976 0.120702
0.375116 0.280976 0.120702
0.375116 0.280976 0.120702
0.375116 0.280976 0.120702
0.375116 0.280976 0.120702
0.375116 0.280976 0.120702
0.375116 0.280976 0.120702
0.375116 0.280976 0.120702
0.375116 0.280976 0.120702
0.375116 0.280976 0.120702
0.375116 0.280976 0.120702
0.375116 0.280976 0.120702
0.375116 0.280976 0.120702
0.375116 0.280976 0.120702
0.375116 0.280976 0.120702
0.375116 0.280976 0.120702
0.375116 0.280976 0.120702
0.375116 0.280976 0.120702
0.375116 0.280976 0.120702
0.375116 0.280976 0.120702
0.375116 0.280976 0.120702
0.375116 0.280976 0.120702
0.375116 0.280976 0.120702
0.375116 0.280976 0.120702
0.375116 0.280976 0.120702
0.375116 0.280976 0.120702
0.375116 0.280976 0.120702
0.375116 0.280976 0.120702
0.375116 0.280976 0.120702
0.375116 0.280976 0.120702
0.375116 0.280976 0.120702
0.375116 0.280976 0.120702
0.375116 0.280976 0.120702
0.375116 0.280976 0.120702
0.375116 0.280976 0.120702
0.375116 0.280976 0.120702
0.375116 0.280976 0.120702
0.375116 0.280976 0.120702
0.375116 0.280976 0.120702
0.375116 0.280976 0.120702
0.375116 0.280976 0.120702
0.375116 0.280976 0.120702
0.375116 0.280976 0.120702
0.375116 0.280976 0.120702
0.375116 0.280976 0.120702
0.375116 0.280976 0.120702
0.375116 0.280976 0.120702
0.375116 0.280976 0.120702
0.375116 0.280976 0.120702
0.375116 0.280976 0.120702
0.375116 0.280976 0.120702
0.375116 0.280976 0.120702
0.375116 0.280976 0.120702
0.375116 0.280976 0.120702
0.375116 0.280976 0.120702
0.375116 0.280976 0.120702
0.375116 0.280976 0.120702
0.375116 0.280976 0.120702
0.375116 0.280976 0.120702
0.375116 0.280976 0.120702
0.375116 0.280976 0.120702
0.375116 0.280976 0.120702
0.375116 0.280976 0.120702
0.375116 0.280976 0.120702
0.375116 0.280976 0.120702
0.375116 0.280976 0.120702
0.375116 0.280976 0.120702
0.375116 0.280976 0.120702
0.375116 0.280976 0.120702
0.375116 0.280976 0.120702
0.375116 0.280976 0.120702
0.375116 0.280976 0.120702
0.375116 0.280976 0.120702
0.375116 0.280976 0.120702
0.375116 0.280976 0.120702
0.375116 0.280976 0.120702
0.375116 0.280976 0.120702
0.375116 0.280976 0.120702
0.375116 0.280976 0.120702
0.375116 0.280976 0.120702
0.375116 0.280976 0.120702
0.375116 0.280976 0.120702
0.375116 0.280976 0.120702
0.375116 0.280976 0.120702
0.375116 0.280976 0.120702
0.375116 0.280976 0.120702
0.375116 0.280976 0.120702
0.375116 0.280976 0.120702
0.375116 0.280976 0.120702
0.375116 0.280976 0.120702
0.375116 0.280976 0.120702
0.375116 0.280976 0.120702
0.375116 0.280976 0.120702
0.375116 0.280976 0.120702
0.375116 0.280976 0.120702
0.375116 0.280976 0.120702
0.375116 0.280976 0.120702
0.375116 0.280976 0.120702
0.375116 0.280976 0.120702
0.375116 0.280976 0.120702
0.375116 0.280976 0.120702
0.375116 0.280976 0.120702
0.375116 0.280976 0.120702
0.375116 0.280976 0.120702
0.375116 0.280976 0.120702
0.375116 0.280976 0.120702
0.375116 0.280976 0.120702
0.375116 0.280976 0.120702
0.375116 0.280976 0.120702
0.375116 0.280976 0.120702
0.375116 0.280976 0.120702
0.375116 0.280976 0.120702
0.375116 0.280976 0.120702
0.375116 0.280976 0.120702
0.375116 0.280976 0.120702
0.375116 0.280976 0.120702
0.375116 0.280976 0.120702
0.375116 0.280976 0.120702
0.375116 0.280976 0.120702
0.375116 0.280976 0.120702
0.375116 0.280976 0.120702
0.375116 0.280976 0.120702
0.375116 0.280976 0.120702
0.375116 0.280976 0.120702
0.375116 0.280976 0.120702
0.375116 0.280976 0.120702
0.375116 0.280976 0.120702
0.375116 0.280976 0.120702
0.375116 0.280976 0.120702
0.375116 0.280976 0.120702
0.375116 0.280976 0.120702
0.375116 0.280976 0.120702
0.375116 0.280976 0.120702
0.375116 0.280976 0.120702
0.375116 0.280976 0.120702
0.375116 0.280976 0.120702
0.375116 0.280976 0.120702
0.375116 0.280976 0.120702
0.375116 0.280976 0.120702
0.375116 0.280976 0.120702
0.375116 0.280976 0.120702
0.375116 0.280976 0.120702
0.375116 0.280976 0.120702
0.375116 0.280976 0.120702
0.375116 0.280976 0.120702
0.375116 0.280976 0.120702
0.375116 0.280976 0.120702
0.375116 0.280976 0.120702
0.375116 0.280976 0.120702
0.375116 0.280976 0.120702
0.375116 0.280976 0.120702
0.375116 0.280976 0.120702
0.375116 0.280976 0.120702
0.375116 0.280976 0.120702
0.375116 0.280976 0.120702
0.375116 0.280976 0.120702
0.375116 0.280976 0.120702
0.375116 0.280976 0.120702
0.375116 0.280976 0.120702
0.375116 0.280976 0.120702
0.375116 0.280976 0.120702
0.375116 0.280976 0.120702
0.375116 0.280976 0.120702
0.375116 0.280976 0.120702
0.375116 0.280976 0.120702
0.375116 0.280976 0.120702
0.375116 0.280976 0.120702
0.375116 0.280976 0.120702
0.375116 0.280976 0.120702
0.375116 0.280976 0.120702
0.375116 0.280976 0.120702
0.375116 0.280976 0.120702
0.375116 0.280976 0.120702
0.375116 0.280976 0.120702
0.375116 0.280976 0.120702
0.375116 0.280976 0.120702
0.375116 0.280976 0.120702
0.375116 0.280976 0.120702
0.375116 0.280976 0.120702
0.375116 0.280976 0.120702
0.375116 0.280976 0.120702
0.375116 0.280976 0.120702
0.375116 0.280976 0.120702
0.375116 0.280976 0.120702
0.375116 0.280976 0.120702
0.375116 0.280976 0.120702
0.375116 0.280976 0.120702
0.375116 0.280976 0.120702
0.375116 0.280976 0.120702
0.375116 0.280976 0.120702
0.375116 0.280976 0.120702
0.375116 0.280976 0.120702
0.375116 0.280976 0.120702
0.375116 0.280976 0.120702
0.375116 0.280976 0.120702
0.375116 0.280976 0.120702
0.375116 0.280976 0.120702
0.375116 0.280976 0.120702
0.375116 0.280976 0.120702
0.375116 0.280976 0.120702
0.375116 0.280976 0.120702
0.375116 0.280976 0.120702
0.375116 0.280976 0.120702
0.375116 0.280976 0.120702
0.375116 0.280976 0.120702
0.375116 0.280976 0.120702
0.375116 0.280976 0.120702
0.375116 0.280976 0.120702
0.375116 0.280976 0.120702
0.375116 0.280976 0.120702
0.375116 0.280976 0.120702
0.375116 0.280976 0.120702
0.375116 0.280976 0.120702
0.375116 0.280976 0.120702
0.375116 0.280976 0.120702
0.375116 0.280976 0.120702
0.375116 0.280976 0.120702
0.375116 0.280976 0.120702
0.375116 0.280976 0.120702
0.375116 0.280976 0.120702
0.375116 0.280976 0.120702
0.375116 0.280976 0.120702
0.375116 0.280976 0.120702
0.375116 0.280976 0.120702
0.375116 0.280976 0.120702
0.375116 0.280976 0.120702
0.375116 0.280976 0.120702
0.375116 0.280976 0.120702
0.375116 0.280976 0.120702
0.375116 0.280976 0.120702
0.375116 0.280976 0.120702
0.375116 0.280976 0.120702
0.375116 0.280976 0.120702
0.375116 0.280976 0.120702
0.375116 0.280976 0.120702
0.375116 0.280976 0.120702
0.375116 0.280976 0.120702
0.375116 0.280976 0.120702
0.375116 0.280976 0.120702
0.375116 0.280976 0.120702
0.375116 0.280976 0.120702
0.375116 0.280976 0.120702
0.375116 0.280976 0.120702
0.375116 0.280976 0.120702
0.375116 0.280976 0.120702
0.375116 0.280976 0.120702
0.375116 0.280976 0.120702
0.375116 0.280976 0.120702
0.375116 0.280976 0.120702
0.375116 0.280976 0.120702
0.375116 0.280976 0.120702
0.375116 0.280976 0.120702
0.375116 0.280976 0.120702
0.375116 0.280976 0.120702
0.375116 0.280976 0.120702
0.375116 0.280976 0.120702
0.375116 0.280976 0.120702
0.375116 0.280976 0.120702
0.375116 0.280976 0.120702
0.375116 0.280976 0.120702
0.375116 0.280976 0.120702
0.375116 0.280976 0.120702
0.375116 0.280976 0.120702
0.375116 0.280976 0.120702
0.375116 0.280976 0.120702
0.375116 0.280976 0.120702
0.375116 0.280976 0.120702
0.375116 0.280976 0.120702
0.375116 0.280976 0.120702
0.375116 0.280976 0.120702
0.375116 0.280976 0.120702
0.375116 0.280976 0.120702
0.375116 0.280976 0.120702
0.375116 0.280976 0.120702
0.375116 0.280976 0.120702
0.375116 0.280976 0.120702
0.375116 0.280976 0.120702
0.375116 0.280976 0.120702
0.375116 0.280976 0.120702
0.375116 0.280976 0.120702
0.375116 0.280976 0.120702
0.375116 0.280976 0.120702
0.375116 0.280976 0.120702
0.375116 0.280976 0.120702
0.375116 0.280976 0.120702
0.375116 0.280976 0.120702
0.375116 0.280976 0.120702
0.375116 0.280976 0.120702
0.375116 0.280976 0.120702
0.375116 0.280976 0.120702
0.375116 0.280976 0.120702
0.375116 0.280976 0.120702
0.375116 0.280976 0.120702
0.375116 0.280976 0.120702
0.375116 0.280976 0.120702
0.375116 0.280976 0.120702
0.375116 0.280976 0.120702
0.375116 0.280976 0.120702
0.375116 0.280976 0.120702
0.375116 0.280976 0.120702
0.375116 0.280976 0.120702
0.375116 0.280976 0.120702
0.375116 0.280976 0.120702
0.375116 0.280976 0.120702
0.375116 0.280976 0.120702
0.375116 0.280976 0.120702
0.375116 0.280976 0.120702
0.375116 0.280976 0.120702
0.375116 0.280976 0.120702
0.375116 0.280976 0.120702
0.375116 0.280976 0.120702
0.375116 0.280976 0.120702
0.375116 0.280976 0.120702
0.375116 0.280976 0.120702
0.375116 0.280976 0.120702
0.375116 0.280976 0.120702
0.375116 0.280976 0.120702
0.375116 0.280976 0.120702
0.375116 0.280976 0.120702
0.375116 0.280976 0.120702
0.375116 0.280976 0.120702
0.375116 0.280976 0.120702
0.375116 0.280976 0.120702
0.375116 0.280976 0.120702
0.375116 0.280976 0.120702
0.375116 0.280976 0.120702
0.375116 0.280976 0.120702
0.375116 0.280976 0.120702
0.375116 0.280976 0.120702
0.375116 0.280976 0.120702
0.375116 0.280976 0.120702
0.375116 0.280976 0.120702
0.375116 0.280976 0.120702
0.375116 0.280976 0.120702
0.375116 0.280976 0.120702
0.375116 0.280976 0.120702
0.375116 0.280976 0.120702
0.375116 0.280976 0.120702
0.375116 0.280976 0.120702
0.375116 0.280976 0.120702
0.375116 0.280976 0.120702
0.375116 0.280976 0.120702
0.375116 0.280976 0.120702
0.375116 0.280976 0.120702
0.375116 0.280976 0.120702
0.375116 0.280976 0.120702
0.375116 0.280976 0.120702
0.375116 0.280976 0.120702
0.375116 0.280976 0.120702
0.375116 0.280976 0.120702
0.375116 0.280976 0.120702
0.375116 0.280976 0.120702
0.375116 0.280976 0.120702
0.375116 0.280976 0.120702
0.375116 0.280976 0.120702
0.375116 0.280976 0.120702
0.375116 0.280976 0.120702
0.375116 0.280976 0.120702
0.375116 0.280976 0.120702
0.375116 0.280976 0.120702
0.375116 0.280976 0.120702
0.375116 0.280976 0.120702
0.375116 0.280976 0.120702
0.375116 0.280976 0.120702
0.375116 0.280976 0.120702
0.375116 0.280976 0.120702
0.375116 0.280976 0.120702
0.375116 0.280976 0.120702
0.375116 0.280976 0.120702
0.375116 0.280976 0.120702
0.375116 0.280976 0.120702
0.375116 0.280976 0.120702
0.375116 0.280976 0.120702
0.375116 0.280976 0.120702
0.375116 0.280976 0.120702
0.375116 0.280976 0.120702
0.375116 0.280976 0.120702
0.375116 0.280976 0.120702
0.375116 0.280976 0.120702
0.375116 0.280976 0.120702
0.375116 0.280976 0.120702
0.375116 0.280976 0.120702
0.375116 0.280976 0.120702
0.375116 0.280976 0.120702
0.375116 0.280976 0.120702
0.375116 0.280976 0.120702
0.375116 0.280976 0.120702
0.375116 0.280976 0.120702
0.375116 0.280976 0.120702
0.375116 0.280976 0.120702
0.375116 0.280976 0.120702
0.375116 0.280976 0.120702
0.375116 0.280976 0.120702
0.375116 0.280976 0.120702
0.375116 0.280976 0.120702
0.375116 0.280976 0.120702
0.375116 0.280976 0.120702
0.375116 0.280976 0.120702
0.375116 0.280976 0.120702
0.375116 0.280976 0.120702
0.375116 0.280976 0.120702
0.375116 0.280976 0.120702
0.375116 0.280976 0.120702
0.375116 0.280976 0.120702
0.375116 0.280976 0.120702
0.375116 0.280976 0.120702
0.375116 0.280976 0.120702
0.375116 0.280976 0.120702
0.375116 0.280976 0.120702
0.375116 0.280976 0.120702
0.375116 0.280976 0.120702
0.375116 0.280976 0.120702
0.375116 0.280976 0.120702
0.375116 0.280976 0.120702
0.375116 0.280976 0.120702
0.375116 0.280976 0.120702
0.375116 0.280976 0.120702
0.375116 0.280976 0.120702
0.375116 0.280976 0.120702
0.375116 0.280976 0.120702
0.375116 0.280976 0.120702
0.375116 0.280976 0.120702
0.375116 0.280976 0.120702
0.375116 0.280976 0.120702
0.375116 0.280976 0.120702
0.375116 0.280976 0.120702
0.375116 0.280976 0.120702
0.375116 0.280976 0.120702
0.375116 0.280976 0.120702
0.375116 0.280976 0.120702
0.375116 0.280976 0.120702
0.375116 0.280976 0.120702
0.375116 0.280976 0.120702
0.375116 0.280976 0.120702
0.375116 0.280976 0.120702
0.375116 0.280976 0.120702
0.375116 0.280976 0.120702
0.375116 0.280976 0.120702
0.375116 0.280976 0.120702
0.375116 0.280976 0.120702
0.375116 0.280976 0.120702
0.375116 0.280976 0.120702
0.375116 0.280976 0.120702
0.375116 0.280976 0.120702
0.375116 0.280976 0.120702
0.375116 0.280976 0.120702
0.375116 0.280976 0.120702
0.375116 0.280976 0.120702
0.375116 0.280976 0.120702
0.375116 0.280976 0.120702
0.375116 0.280976 0.120702
0.375116 0.280976 0.120702
0.375116 0.280976 0.120702
0.375116 0.280976 0.120702
0.375116 0.280976 0.120702
0.375116 0.280976 0.120702
0.375116 0.280976 0.120702
0.375116 0.280976 0.120702
0.375116 0.280976 0.120702
0.375116 0.280976 0.120702
0.375116 0.280976 0.120702
0.375116 0.280976 0.120702
0.375116 0.280976 0.120702
0.375116 0.280976 0.120702
0.375116 0.280976 0.120702
0.375116 0.280976 0.120702
0.375116 0.280976 0.120702
0.375116 0.280976 0.120702
0.375116 0.280976 0.120702
0.375116 0.280976 0.120702
0.375116 0.280976 0.120702
0.375116 0.280976 0.120702
0.375116 0.280976 0.120702
0.375116 0.280976 0.120702
0.375116 0.280976 0.120702
0.375116 0.280976 0.120702
0.375116 0.280976 0.120702
0.375116 0.280976 0.120702
0.375116 0.280976 0.120702
0.375116 0.280976 0.120702
0.375116 0.280976 0.120702
0.375116 0.280976 0.120702
0.375116 0.280976 0.120702
0.375116 0.280976 0.120702
0.375116 0.280976 0.120702
0.375116 0.280976 0.120702
0.375116 0.280976 0.120702
0.375116 0.280976 0.120702
0.375116 0.280976 0.120702
0.375116 0.280976 0.120702
0.375116 0.280976 0.120702
0.375116 0.280976 0.120702
0.375116 0.280976 0.120702
0.375116 0.280976 0.120702
0.375116 0.280976 0.120702
0.375116 0.280976 0.120702
0.375116 0.280976 0.120702
0.375116 0.280976 0.120702
0.375116 0.280976 0.120702
0.375116 0.280976 0.120702
0.375116 0.280976 0.120702
0.375116 0.280976 0.120702
0.375116 0.280976 0.120702
0.375116 0.280976 0.120702
0.375116 0.280976 0.120702
0.375116 0.280976 0.120702
0.375116 0.280976 0.120702
0.375116 0.280976 0.120702
0.375116 0.280976 0.120702
0.375116 0.280976 0.120702
0.375116 0.280976 0.120702
0.375116 0.280976 0.120702
0.375116 0.280976 0.120702
0.375116 0.280976 0.120702
0.375116 0.280976 0.120702
0.375116 0.280976 0.120702
