-7.80747e-06 -1.01294e-05 -2.51716e-06
-7.87695e-06 -1.01159e-05 -2.52124e-06
-8.03685e-06 -1.00874e-05 -2.52934e-06
-8.36703e-06 -1.00367e-05 -2.53985e-06
-8.74165e-06 -9.98709e-06 -2.54573e-06
-9.2227e-06 -9.93445e-06 -2.54515e-06
-9.81797e-06 -9.88522e-06 -2.53352e-06
-1.05356e-05 -9.84732e-06 -2.50537e-06
-1.13845e-05 -9.829e-06 -2.45539e-06
-1.23744e-05 -9.83897e-06 -2.37876e-06
-1.35137e-05 -9.88717e-06 -2.27099e-06
-1.48056e-05 -9.98511e-06 -2.12802e-06
-1.62442e-05 -1.01442e-05 -1.94751e-06
-1.78194e-05 -1.03817e-05 -1.72548e-06
-1.95011e-05 -1.07135e-05 -1.46193e-06
-2.12497e-05 -1.11565e-05 -1.15879e-06
-2.30152e-05 -1.17267e-05 -8.21319e-07
-2.47406e-05 -1.24381e-05 -4.58892e-07
-2.63683e-05 -1.32993e-05 -8.38691e-08
-2.7843e-05 -1.4313e-05 2.80875e-07
-2.91097e-05 -1.54758e-05 6.07819e-07
-3.01084e-05 -1.67787e-05 8.64705e-07
-3.07695e-05 -1.82073e-05 1.01476e-06
-3.10105e-05 -1.97425e-05 1.01788e-06
-3.07351e-05 -2.13548e-05 8.33647e-07
-2.98451e-05 -2.30191e-05 4.12946e-07
-2.82626e-05 -2.46916e-05 -2.83399e-07
-2.59645e-05 -2.63103e-05 -1.31798e-06
-2.30084e-05 -2.77948e-05 -2.74289e-06
-1.95248e-05 -2.90511e-05 -4.60295e-06
-1.5678e-05 -2.99818e-05 -6.93984e-06
-1.16143e-05 -3.04932e-05 -9.78336e-06
-7.49402e-06 -3.05181e-05 -1.31286e-05
-3.43188e-06 -3.00029e-05 -1.69514e-05
5.1318e-07 -2.8915e-05 -2.12025e-05
4.29404e-06 -2.72625e-05 -2.58e-05
7.86687e-06 -2.50715e-05 -3.06364e-05
1.12324e-05 -2.23884e-05 -3.55804e-05
1.44061e-05 -1.92775e-05 -4.04833e-05
1.74057e-05 -1.58119e-05 -4.51718e-05
2.02373e-05 -1.20956e-05 -4.94904e-05
2.28995e-05 -8.21715e-06 -5.32643e-05
2.53681e-05 -4.26998e-06 -5.63293e-05
2.75873e-05 -3.42664e-07 -5.85294e-05
2.94881e-05 3.50393e-06 -5.97142e-05
3.10236e-05 7.18024e-06 -5.9764e-05
3.21944e-05 1.05874e-05 -5.85872e-05
3.30758e-05 1.36308e-05 -5.6102e-05
3.3814e-05 1.62228e-05 -5.2255e-05
3.46181e-05 1.82897e-05 -4.70303e-05
3.61194e-05 2.0044e-05 -3.85996e-05
3.87133e-05 2.08107e-05 -2.8186e-05
4.29413e-05 2.0605e-05 -1.60333e-05
4.91923e-05 1.95667e-05 -2.48882e-06
5.76326e-05 1.79672e-05 1.21651e-05
6.81698e-05 1.61811e-05 2.71575e-05
8.04306e-05 1.46824e-05 4.19003e-05
9.3796e-05 1.40101e-05 5.5766e-05
0.000107549 1.46894e-05 6.82048e-05
0.000121074 1.71543e-05 7.87796e-05
0.000133974 2.16954e-05 8.72019e-05
0.000146072 2.84444e-05 9.33584e-05
0.00015734 3.73729e-05 9.73241e-05
0.000167846 4.83029e-05 9.93604e-05
0.000177674 6.09364e-05 9.98768e-05
0.000186853 7.489e-05 9.94048e-05
0.000195345 8.97142e-05 9.85639e-05
0.000203146 0.000104901 9.80361e-05
0.000210359 0.0001199 9.85167e-05
0.000217188 0.000134156 0.000100668
0.000223859 0.000147155 0.000105068
0.000230492 0.000158474 0.000112167
0.000237042 0.000167822 0.000122249
0.000243368 0.000175035 0.000135416
0.000249334 0.000180063 0.000151585
0.00025484 0.000182967 0.000170494
0.000259829 0.000183905 0.000191715
0.000264289 0.000183123 0.000214672
0.000268253 0.000180935 0.000238672
0.000271792 0.000177709 0.000262938
0.000274979 0.00017385 0.000286642
0.000277892 0.000169772 0.000308954
0.000280634 0.000165877 0.000329077
0.000283358 0.000162524 0.00034629
0.000286264 0.000160015 0.000359981
0.00028954 0.000158587 0.000369673
0.000293252 0.000158424 0.000375039
0.000297248 0.000159666 0.000375912
0.000301164 0.000162392 0.000372298
0.000304521 0.000166596 0.000364391
0.000306476 0.000170949 0.000355226
0.000307648 0.000177434 0.000340677
0.000307111 0.000184754 0.000323349
0.000304671 0.000192451 0.000304065
0.000300203 0.000199992 0.000283737
0.000293593 0.000206806 0.000263308
0.00028475 0.00021231 0.000243704
0.000273604 0.000215946 0.000225782
0.000260097 0.00021721 0.000210277
0.000244194 0.000215678 0.000197766
0.000225902 0.000211023 0.00018863
0.000205258 0.000203036 0.000183034
0.000182356 0.000191631 0.000180907
0.000157424 0.000176835 0.000181952
0.000130899 0.000158773 0.000185657
0.00010338 0.000137682 0.000191302
7.54638e-05 0.000113927 0.000197982
4.76696e-05 8.80034e-05 0.00020464
2.04618e-05 6.05102e-05 0.000210114
-5.61022e-06 3.21318e-05 0.000213192
-3.01373e-05 3.64186e-06 0.000212651
-5.2944e-05 -2.4056e-05 0.000207563
-7.3987e-05 -5.03139e-05 0.000196804
-9.33131e-05 -7.46992e-05 0.000179556
-0.000111167 -9.66068e-05 0.000155293
-0.000127798 -0.000115531 0.000123707
-0.000143307 -0.000131226 8.48948e-05
-0.000157617 -0.000143693 3.9287e-05
-0.000170559 -0.000153073 -1.19531e-05
-0.000182071 -0.000159607 -6.78031e-05
-0.00019231 -0.000163713 -0.000127296
-0.00020166 -0.000165869 -0.000189039
-0.000210597 -0.000166581 -0.000251485
-0.000219585 -0.000166421 -0.00031294
-0.000229078 -0.000166003 -0.00037175
-0.000239543 -0.00016594 -0.000426333
-0.000251444 -0.000166789 -0.000475226
-0.000265185 -0.000169061 -0.000517143
-0.00028116 -0.0001726 -0.000864362
-0.000299381 -0.000177436 -0.00138337
-0.000319328 -0.000185558 -0.00175095
-0.000340562 -0.000196902 -0.00192391
-0.000362294 -0.000211666 -0.00193331
-0.000383957 -0.00022888 -0.00192372
-0.00040491 -0.000248349 -0.00190787
-0.000424676 -0.000269693 -0.00188589
-0.000666408 -0.000291101 -0.00185895
-0.00138859 -0.0003096 -0.00183048
-0.00198423 -0.000327687 -0.00180106
-0.00240811 -0.000345598 -0.00177151
-0.00281142 -0.000361456 -0.00174257
-0.00319353 -0.000373905 -0.00171688
-0.00347863 -0.000383789 -0.00169495
-0.00371236 -0.000389888 -0.00167808
-0.00391022 -0.000391767 -0.0016665
-0.00403673 -0.000389688 -0.00166049
-0.0040971 -0.000383785 -0.00166018
-0.00410813 -0.000374167 -0.00166535
-0.00410644 -0.000360975 -0.00167534
-0.0041038 -0.000344731 -0.00168921
-0.00410085 -0.00032614 -0.0017059
-0.00409822 -0.000306013 -0.00172414
-0.00409654 -0.000285197 -0.00174248
-0.00409391 -0.000264938 -0.00175935
-0.00408034 -0.000248373 -0.00177246
-0.00406719 -0.000233351 -0.00178261
-0.00405708 -0.000220705 -0.00178763
-0.00404987 -0.000210351 -0.00178771
-0.00404511 -0.000202718 -0.00178233
-0.00404353 -0.000197995 -0.00177133
-0.00404518 -0.00019632 -0.00175471
-0.00404968 -0.000197642 -0.00173283
-0.00405598 -0.000201943 -0.00170634
-0.00406243 -0.000209278 -0.00167598
-0.00406857 -0.000219266 -0.00164284
-0.00407395 -0.000231341 -0.00160816
-0.00407802 -0.000244869 -0.00157342
-0.00408025 -0.00025915 -0.00154011
-0.00408028 -0.000273373 -0.00150977
-0.00407792 -0.000286684 -0.00148385
-0.00407428 -0.000296117 -0.0014672
-0.00406911 -0.00030404 -0.00145482
-0.00406246 -0.000310098 -0.00144719
-0.00405438 -0.000313993 -0.00144465
-0.00404497 -0.0003155 -0.0014474
-0.0040343 -0.000314475 -0.00145548
-0.00402247 -0.00031086 -0.00146877
-0.00400952 -0.000304687 -0.001487
-0.00399546 -0.000296082 -0.00150972
-0.00398024 -0.000285257 -0.00153635
-0.00396379 -0.000272499 -0.00156619
-0.00394605 -0.000258146 -0.00159842
-0.00392701 -0.000242564 -0.00163216
-0.00390676 -0.000226124 -0.0016665
-0.00388552 -0.000209187 -0.00170047
-0.00386357 -0.000192097 -0.00173315
-0.00384124 -0.000175181 -0.00176363
-0.00381882 -0.000158746 -0.00179103
-0.00379655 -0.000143076 -0.00181456
-0.00377461 -0.000128425 -0.00183352
-0.00375316 -0.000114998 -0.0018473
-0.00373234 -0.000102949 -0.00185543
-0.00371227 -9.23727e-05 -0.00185755
-0.00369301 -8.33078e-05 -0.00185347
-0.00367462 -7.57337e-05 -0.00184313
-0.00357594 -7.01722e-05 -0.00182632
-0.00344301 -6.61166e-05 -0.00180345
-0.00331667 -6.29654e-05 -0.00177513
-0.00321187 -6.01498e-05 -0.00174181
-0.00312548 -5.7481e-05 -0.00170427
-0.00304249 -5.53174e-05 -0.00166265
-0.00296408 -5.30346e-05 -0.00161795
-0.00288976 -5.05105e-05 -0.00157076
-0.00281797 -4.74849e-05 -0.00152187
-0.00274786 -4.37411e-05 -0.00147199
-0.00267906 -3.89888e-05 -0.0014219
-0.00261055 -3.31296e-05 -0.00129865
-0.00254119 -2.60476e-05 -0.00114047
-0.00247003 -1.74566e-05 -0.000987038
-0.00239555 -7.31084e-06 -0.000840727
-0.00231621 4.54031e-06 -0.000703556
-0.00223034 1.79807e-05 -0.000576144
-0.00213671 3.28306e-05 -0.000458555
-0.0020344 4.89432e-05 -0.000351098
-0.00192282 6.61847e-05 -0.000254404
-0.001802 8.4418e-05 -0.000168922
-0.00167253 0.000103459 -9.44292e-05
-0.00153544 0.000123085 -3.01528e-05
-0.00139199 0.000143062 2.47806e-05
-0.00124358 0.000163174 7.10759e-05
-0.0010916 0.0001832 0.000109407
-0.000937342 0.000202897 0.00014068
-0.000781968 0.000222013 0.000166079
-0.000626688 0.000240308 0.000186862
-0.000472852 0.000257574 0.000204143
-0.000322001 0.000273633 0.000218852
-0.000175877 0.000288336 0.000231831
-3.63381e-05 0.000301561 0.00024391
9.48004e-05 0.000313218 0.000255867
0.000215844 0.000323246 0.000268325
0.000325217 0.000331617 0.000281697
0.000409837 0.000337818 0.00029699
0.000605982 0.000340732 0.00031586
0.00090372 0.000342697 0.000334539
0.00115536 0.000343045 0.000353258
0.00131659 0.000342483 0.000372623
0.00140685 0.000341541 0.000389439
0.00146288 0.000339356 0.000405394
0.00147535 0.000336294 0.00041939
0.0014736 0.000332137 0.000431541
0.00147074 0.000326822 0.00044182
0.0014671 0.000320537 0.000449046
0.00146255 0.000313441 0.000452643
0.00145729 0.000305622 0.000452535
0.00145175 0.000297108 0.000450775
0.00144612 0.000288064 0.000447333
0.00144049 0.000278683 0.000442009
0.00143507 0.000269083 0.000434626
0.00143003 0.00025937 0.000425045
0.00142543 0.000249698 0.000413163
0.00142128 0.000240238 0.000398916
0.0014176 0.000231129 0.000382279
0.00141443 0.00022248 0.000363267
0.00141173 0.000214389 0.000341939
0.00140951 0.000206943 0.000318414
0.00140766 0.000200217 0.000292867
0.00140608 0.000194259 0.000265526
0.00140472 0.000189074 0.000236673
0.00140351 0.000184643 0.00020663
0.00140243 0.000180919 0.00017576
0.00140149 0.000177829 0.000144469
0.00140071 0.000175273 0.00011319
0.00140013 0.000173137 8.23708e-05
0.00139975 0.000171313 5.24531e-05
0.0013995 0.000169701 2.38667e-05
0.00139923 0.00016822 -2.97865e-06
0.00139874 0.000166801 -2.7699e-05
0.00139783 0.000165387 -4.99433e-05
0.00139626 0.000163997 -9.89727e-05
0.00139383 0.000162563 -0.000150159
0.00139034 0.000160984 -0.000191485
0.00138555 0.000159243 -0.000222185
0.00137926 0.000157293 -0.00024174
0.00137124 0.00015515 -0.000250211
0.00136131 0.000152804 -0.000249642
0.00134935 0.00015024 -0.00024533
0.00133532 0.000147398 -0.000237615
0.00131933 0.000144212 -0.0002266
0.00130151 0.000140614 -0.000212459
0.00128208 0.000136539 -0.000195154
0.00126124 0.000131897 -0.000168516
0.00123922 0.000126641 -0.000138728
0.00121628 0.000120721 -0.000106313
0.00119268 0.00011411 -7.18808e-05
0.00116873 0.000106796 -3.60709e-05
0.00114472 9.87766e-05 4.57654e-07
0.00112097 9.00773e-05 3.7008e-05
0.00109773 8.07553e-05 7.28405e-05
0.00107518 7.09035e-05 0.000107181
0.00105345 6.06387e-05 0.000139251
0.0010073 5.01879e-05 0.000168241
0.000831108 4.07631e-05 0.000192627
0.000668138 3.11176e-05 0.000212859
0.000515835 2.14368e-05 0.000228472
0.000374216 1.19986e-05 0.000238408
0.00023792 3.01945e-06 0.000242664
0.000109548 -5.48088e-06 0.000241219
-8.81044e-06 -1.34824e-05 0.000235165
-0.000118987 -2.08728e-05 0.000224378
-0.000222614 -2.76059e-05 0.000208887
-0.000319276 -3.3767e-05 0.000188837
-0.000409183 -3.94414e-05 0.00016444
-0.000493808 -4.46426e-05 0.000135979
-0.000574238 -4.944e-05 0.000103815
-0.000650999 -5.39737e-05 6.83969e-05
-0.00072507 -5.83915e-05 3.02265e-05
-0.000797935 -6.28231e-05 -1.01594e-05
-0.000871003 -6.74017e-05 -5.2194e-05
-0.000945719 -7.2236e-05 -0.000128848
-0.00102402 -7.72484e-05 -0.000263774
-0.00110703 -8.2852e-05 -0.000397392
-0.00119604 -8.91858e-05 -0.000529426
-0.00129204 -9.63856e-05 -0.000657508
-0.00139528 -0.000104565 -0.000780324
-0.00150575 -0.000113785 -0.000897046
-0.00162285 -0.000124143 -0.00100672
-0.00174576 -0.000135712 -0.00110825
-0.00187347 -0.000148518 -0.00120064
-0.00200494 -0.000162527 -0.00128335
-0.00213919 -0.000177655 -0.00135637
-0.0022752 -0.000193786 -0.00141995
-0.00241195 -0.000210767 -0.00147441
-0.0023956 -0.000213856 -0.00154065
-0.00242266 -0.000184037 -0.00165223
-0.00244421 -0.000197231 -0.00167277
-0.00242819 -0.000231475 -0.00167061
-0.0024258 -0.000266061 -0.00166218
-0.00248605 -0.000278165 -0.00166089
-0.00271126 -0.000287134 -0.00165851
-0.00277469 -0.000308897 -0.00164707
-0.00277554 -0.000334969 -0.00163276
-0.00287831 -0.00035218 -0.00162092
-0.00298875 -0.000362648 -0.00161149
-0.0030884 -0.000371278 -0.00160249
-0.00315574 -0.000383677 -0.0015909
-0.00320266 -0.000394515 -0.00158037
-0.00327007 -0.000399907 -0.0015729
-0.0033557 -0.000400174 -0.00156816
-0.00343111 -0.000398707 -0.00156478
-0.0034841 -0.000396992 -0.00156184
-0.00352885 -0.000393056 -0.00156051
-0.0035806 -0.00038545 -0.00156132
-0.00363464 -0.000375141 -0.00156364
-0.00367927 -0.000364117 -0.00156622
-0.00368762 -0.000353335 -0.00156841
-0.00369281 -0.00034093 -0.00157092
-0.00370759 -0.000327393 -0.001573
-0.00371733 -0.000313719 -0.00157409
-0.00371759 -0.000300571 -0.00157361
-0.00371764 -0.000287676 -0.00157136
-0.00372286 -0.00027522 -0.00156703
-0.00372937 -0.000263899 -0.00156014
-0.00373486 -0.000254081 -0.00155047
-0.00374423 -0.000245737 -0.00153795
-0.00374382 -0.000239661 -0.00152228
-0.00374353 -0.000235183 -0.00150388
-0.00374453 -0.000232449 -0.0014827
-0.00376038 -0.000231166 -0.00145928
-0.00378078 -0.000231705 -0.00143374
-0.00379797 -0.000234026 -0.00140651
-0.00381181 -0.000237913 -0.00137807
-0.00381845 -0.000242774 -0.00134918
-0.00382717 -0.00024807 -0.00132061
-0.00383405 -0.000254167 -0.00129262
-0.00383565 -0.000261014 -0.00126583
-0.00383544 -0.000268196 -0.00124086
-0.00383515 -0.000275042 -0.00121483
-0.00383473 -0.000281339 -0.00115775
-0.003834 -0.000286982 -0.00111066
-0.00383277 -0.000291877 -0.00107504
-0.00383085 -0.000295748 -0.00105238
-0.00382832 -0.000298187 -0.00104376
-0.00382499 -0.000299198 -0.00104569
-0.00382049 -0.00029887 -0.00105225
-0.00381485 -0.000297211 -0.00106337
-0.00380847 -0.000294241 -0.00107887
-0.00380179 -0.000290325 -0.00109833
-0.00379415 -0.000286077 -0.00113284
-0.00378536 -0.000281277 -0.00117198
-0.00377626 -0.000275383 -0.0012155
-0.00376706 -0.000268451 -0.00126251
-0.0037575 -0.000261045 -0.00131189
-0.00374755 -0.000253569 -0.00136249
-0.0037376 -0.000246039 -0.00141346
-0.00372785 -0.000238412 -0.00146391
-0.00371841 -0.00023088 -0.00151285
-0.00370923 -0.000223829 -0.00155915
-0.00370033 -0.000217483 -0.00160191
-0.00369195 -0.000211858 -0.00164041
-0.00368432 -0.000206967 -0.00167399
-0.00367752 -0.000202931 -0.001702
-0.00367156 -0.000199909 -0.00172388
-0.00366651 -0.000197941 -0.00173927
-0.00366246 -0.00019698 -0.001748
-0.0036594 -0.000197005 -0.00175001
-0.00365718 -0.000198046 -0.00174686
-0.00365561 -0.000200122 -0.00173939
-0.00365463 -0.000203174 -0.0017278
-0.00365403 -0.000207201 -0.00171233
-0.00365344 -0.000212091 -0.00169335
-0.00365266 -0.000217616 -0.00167134
-0.00365148 -0.000223537 -0.00164684
-0.00364958 -0.000229613 -0.00162044
-0.00364673 -0.000235572 -0.00159276
-0.00364288 -0.000241059 -0.00156447
-0.00363824 -0.000245594 -0.00153631
-0.00363216 -0.00024929 -0.00150867
-0.00362486 -0.000251518 -0.00148229
-0.00361652 -0.000252108 -0.00145775
-0.00360788 -0.00025124 -0.00143521
-0.00359761 -0.00024926 -0.00141485
-0.00358614 -0.00024533 -0.00139739
-0.00357406 -0.000239013 -0.00138311
-0.00356121 -0.000230255 -0.0013722
-0.00354743 -0.000219515 -0.00136444
-0.00353339 -0.000206753 -0.00135979
-0.00351832 -0.000191949 -0.00135812
-0.00350262 -0.000175094 -0.00135923
-0.00348622 -0.000156577 -0.00136261
-0.00346909 -0.00013681 -0.00136777
-0.00345146 -0.000116024 -0.0013742
-0.00343381 -9.43089e-05 -0.00138143
-0.00339191 -7.19973e-05 -0.00138884
-0.00323216 -5.00628e-05 -0.00139548
-0.00307721 -2.84195e-05 -0.00140103
-0.00292905 -7.22278e-06 -0.0014049
-0.0027883 1.34572e-05 -0.00140655
-0.00265485 3.319e-05 -0.00140557
-0.00252968 5.15332e-05 -0.00140149
-0.00241261 6.82204e-05 -0.00139398
-0.00226292 8.39206e-05 -0.0013832
-0.00216588 0.000100078 -0.00136995
-0.00206987 0.000112409 -0.0013514
-0.00196295 0.000121706 -0.00131152
-0.00187874 0.00012847 -0.00122753
-0.0018177 0.000133221 -0.00113341
-0.00175765 0.000135115 -0.00102814
-0.00170148 0.000134529 -0.000914199
-0.00165315 0.000131982 -0.000793922
-0.0016108 0.000127765 -0.000668932
-0.00156403 0.000121967 -0.000541816
-0.00151189 0.000115006 -0.000414966
-0.00145596 0.000107479 -0.00029167
-0.00139309 9.97907e-05 -0.000174582
-0.00131975 9.23481e-05 -6.63309e-05
-0.00123581 8.566e-05 3.05727e-05
-0.00114154 8.0216e-05 0.000113768
-0.0010357 7.63939e-05 0.000181212
-0.000917733 7.45384e-05 0.000231235
-0.000788552 7.49765e-05 0.000262624
-0.000649051 7.79362e-05 0.00027472
-0.000499552 8.35221e-05 0.000272213
-0.000340362 9.17241e-05 0.000263625
-0.000171906 0.000102477 0.000249256
5.5743e-06 0.000115621 0.000229592
0.000191686 0.000130909 0.000205246
0.000385454 0.000148039 0.000176974
0.000584314 0.00016669 0.000145649
0.000785973 0.000186472 0.000112239
0.000989095 0.000206937 7.7783e-05
0.00119183 0.000227638 4.33298e-05
0.00139179 0.000248133 9.92595e-06
0.00176065 0.000266983 -2.09574e-05
0.00241983 0.000280927 -4.68595e-05
0.0030638 0.000294292 -6.93813e-05
0.00361426 0.000307696 -8.89071e-05
0.00409651 0.000318867 -0.000102758
0.00454704 0.000328477 -0.00011183
0.00494887 0.000336194 -0.000115332
0.00526877 0.000342471 -0.000113408
0.00551824 0.000346964 -0.000105949
0.00572313 0.000349178 -9.27057e-05
0.00588345 0.000349387 -7.40131e-05
0.00599351 0.000347835 -5.02592e-05
0.00606343 0.000344549 -2.18853e-05
0.00610669 0.000339587 1.05592e-05
0.00612405 0.000333242 4.63929e-05
0.00612152 0.000326262 8.47039e-05
0.00611806 0.000318517 0.000124865
0.00611417 0.000310273 0.00016594
0.00610977 0.000302035 0.000207013
0.00610027 0.000295003 0.000246963
0.0060902 0.000288588 0.000303685
0.00608053 0.000282626 0.000417493
0.00607197 0.000277723 0.000516446
0.00606498 0.000273026 0.000845727
0.0060594 0.000269128 0.00129637
0.00605526 0.000266858 0.00168756
0.00605191 0.000266184 0.00200065
0.00604897 0.000267626 0.00221511
0.00604655 0.000270839 0.00233846
0.00604473 0.000275544 0.00238908
0.00604353 0.000281615 0.00239
0.00604292 0.000288754 0.00238432
0.00604281 0.000296788 0.00237453
0.00604312 0.000305383 0.00236116
0.00604374 0.000314215 0.00234488
0.00604456 0.000322999 0.00232639
0.00604542 0.000331439 0.00230621
0.0060462 0.000339222 0.00228481
0.00604671 0.000346044 0.00226271
0.0060468 0.000351629 0.00224052
0.00604629 0.000355744 0.00221886
0.00604503 0.000358189 0.00219823
0.00604288 0.000358797 0.00217898
0.00603975 0.000357448 0.0021614
0.00603556 0.000354071 0.00214573
0.00603029 0.000348646 0.00213216
0.00602395 0.000341194 0.00212079
0.0060166 0.000331787 0.00211161
0.0060083 0.000320551 0.00210446
0.00599913 0.000307662 0.00209913
0.00598915 0.000293346 0.00209536
0.0059784 0.000277865 0.00209283
0.0059669 0.000261509 0.00209116
0.00595469 0.000244593 0.00208992
0.00594182 0.000227431 0.00208866
0.00592837 0.000210332 0.00208693
0.00591444 0.000193591 0.00208434
0.00590011 0.000177473 0.00208049
0.00588548 0.000162219 0.00207506
0.00587063 0.000148035 0.00206774
0.00585562 0.000135082 0.00205832
0.00584047 0.000123482 0.00204666
0.00582527 0.000113292 0.00203271
0.00581008 0.000104517 0.0020165
0.00579507 9.70996e-05 0.00199814
0.0057804 9.09279e-05 0.00197781
0.0057663 8.58572e-05 0.00195578
0.00575299 8.17267e-05 0.00193235
0.00574076 7.84636e-05 0.00190782
0.00572906 7.59166e-05 0.00188257
0.00571823 7.35678e-05 0.00185841
0.00570825 7.15893e-05 0.00173014
0.00569877 6.95456e-05 0.00160007
0.0056896 6.73533e-05 0.00147272
0.00568096 6.48025e-05 0.00135266
0.00567258 6.18266e-05 0.00124163
0.00566612 5.80011e-05 0.00114054
0.00558541 5.41402e-05 0.00104797
0.00548209 5.01257e-05 0.000964666
0.0053742 4.56279e-05 0.000893077
0.00526154 4.06195e-05 0.000834271
0.00514106 3.52907e-05 0.00078806
0.00500889 2.97527e-05 0.000753735
0.00486542 2.3947e-05 0.000731207
0.0047096 1.7818e-05 0.000720672
0.00454268 1.13021e-05 0.000720502
0.0043643 4.54728e-06 0.000723074
0.00417369 -2.31894e-06 0.000727594
0.00397217 -9.34522e-06 0.000733911
0.00376187 -1.65785e-05 0.000741824
0.00354494 -2.40641e-05 0.000751225
0.00332334 -3.1782e-05 0.000761909
0.00309891 -3.97189e-05 0.000773583
0.00287408 -4.78694e-05 0.000785954
0.0026512 -5.62301e-05 0.000798735
0.00243183 -6.47663e-05 0.000811646
0.00221681 -7.33796e-05 0.000824373
0.00200675 -8.1958e-05 0.00083658
0.00180241 -9.04127e-05 0.000847931
0.00160463 -9.86629e-05 0.000858116
0.00141414 -0.000106628 0.000866856
0.00123151 -0.000114227 0.000873905
0.00105727 -0.000121387 0.00087941
0.000891805 -0.000128065 0.000887482
0.000734957 -0.000134198 0.000889712
0.000586945 -0.000139767 0.000888195
0.000447196 -0.000144742 0.00087973
0.000315063 -0.000149071 0.00085129
0.000190065 -0.000152799 0.000812477
7.1675e-05 -0.000155976 0.000763545
-4.21669e-05 -0.000158754 0.000705467
-0.000150138 -0.000161349 0.000639524
-0.00025245 -0.000163505 0.000565535
-0.000355041 -0.000165356 0.000485043
-0.000458291 -0.000166864 0.00039902
-0.000562649 -0.000168221 0.000308844
-0.000668735 -0.000169635 0.000216346
-0.000777985 -0.000171147 0.000124731
-0.000892935 -0.000172709 3.71698e-05
-0.00101467 -0.000174534 -4.80931e-05
-0.00114385 -0.000176772 -0.000131001
-0.00128019 -0.000179571 -0.000209814
-0.00142455 -0.000183047 -0.000283466
-0.0015744 -0.000187261 -0.000351118
-0.00173097 -0.000192108 -0.000412311
-0.00189545 -0.000197767 -0.000466289
-0.00206239 -0.000204591 -0.000511871
-0.00222896 -0.000212719 -0.000548745
-0.00239602 -0.000222069 -0.000577013
-0.00256473 -0.0002326 -0.000597107
-0.00272852 -0.00024433 -0.000609412
-0.00288221 -0.000257189 -0.000614816
-0.00302614 -0.000270929 -0.000615002
-0.00316095 -0.00028523 -0.000613896
-0.00328726 -0.000299814 -0.000612208
-0.00340566 -0.000314382 -0.000610357
-0.00351691 -0.000328617 -0.000608749
-0.00362169 -0.000342196 -0.000607778
-0.00372017 -0.000354836 -0.000607807
-0.00381201 -0.000366308 -0.000609154
-0.00389671 -0.000376417 -0.000612081
-0.00397387 -0.000384994 -0.000621127
-0.00404317 -0.000391868 -0.00064938
-0.00410401 -0.000396965 -0.000685552
-0.00422463 -0.000399988 -0.000730357
-0.0043494 -0.000401221 -0.000783005
-0.00444804 -0.000400784 -0.000842592
-0.00451761 -0.000398957 -0.000907676
-0.00454901 -0.000395806 -0.00097723
-0.00455384 -0.000391223 -0.0010504
-0.00455325 -0.000385365 -0.00112547
-0.00455199 -0.00037849 -0.00120055
-0.00455015 -0.000370875 -0.00127361
-0.00454665 -0.000363025 -0.00134229
-0.00454308 -0.000354933 -0.00140503
-0.00453948 -0.00034715 -0.00145915
-0.00453584 -0.000339867 -0.00150327
-0.00453214 -0.000333161 -0.00153617
-0.00452855 -0.000326962 -0.00155705
-0.00452518 -0.000321305 -0.00156513
-0.00452196 -0.000316363 -0.00156369
-0.00451857 -0.000312353 -0.0015589
-0.00451496 -0.000309311 -0.00155077
-0.00451117 -0.000307159 -0.0015394
-0.00450713 -0.00030585 -0.00152495
-0.00450269 -0.00030538 -0.00150761
-0.00449777 -0.000305669 -0.00148768
-0.00449237 -0.000306529 -0.00146559
-0.00448656 -0.000307702 -0.00144179
-0.00448039 -0.000308948 -0.00141677
-0.00447383 -0.000310055 -0.00139101
-0.00446687 -0.000310805 -0.00136501
-0.00445948 -0.000310952 -0.0013393
-0.00445167 -0.000310271 -0.00131435
-0.00444342 -0.000308572 -0.00129062
-0.00443468 -0.000305707 -0.00126848
-0.00442541 -0.000301534 -0.00124827
-0.00441561 -0.000295874 -0.00123031
-0.00440532 -0.000288851 -0.00121469
-0.00439432 -0.00028048 -0.00120152
-0.00438269 -0.000270759 -0.00119088
-0.00437054 -0.000259664 -0.00118274
-0.00435799 -0.000247211 -0.00117706
-0.00434505 -0.00023359 -0.00117359
-0.00433173 -0.000218985 -0.00117209
-0.00431812 -0.000203711 -0.00117222
-0.00430407 -0.000187941 -0.00117364
-0.00428976 -0.000171721 -0.00117613
-0.00427526 -0.000155357 -0.00117916
-0.00426048 -0.000139066 -0.00118241
-0.00424543 -0.000123157 -0.00118541
-0.0042302 -0.000107785 -0.00118783
-0.00421494 -9.30734e-05 -0.00118937
-0.00419973 -7.91747e-05 -0.00118969
-0.00418463 -6.62407e-05 -0.00118853
-0.0041697 -5.43857e-05 -0.00118567
-0.00415506 -4.36528e-05 -0.00118098
-0.00414083 -3.40778e-05 -0.00117436
-0.00412706 -2.56906e-05 -0.00116576
-0.00410409 -1.84811e-05 -0.00115522
-0.00391762 -1.31393e-05 -0.00114245
-0.00373109 -8.87457e-06 -0.00112804
-0.00355292 -5.52804e-06 -0.00111209
-0.00338411 -2.80543e-06 -0.00105811
-0.00324501 -4.41948e-07 -0.000966142
-0.00311676 1.30824e-06 -0.000871712
-0.00299053 2.73361e-06 -0.000775404
-0.00286828 4.00462e-06 -0.000679638
-0.00274612 4.93994e-06 -0.000584543
-0.00261893 5.69647e-06 -0.00049185
-0.00248586 6.30367e-06 -0.000402462
-0.00234581 7.02547e-06 -0.000318418
-0.00219754 8.02238e-06 -0.000241641
-0.00203878 9.35537e-06 -0.000173248
-0.0018675 1.11234e-05 -0.00011425
-0.00168309 1.34693e-05 -6.54975e-05
-0.00148548 1.65567e-05 -2.79789e-05
-0.00127453 2.05078e-05 -2.51107e-06
-0.00105021 2.54005e-05 1.04582e-05
-0.000813286 3.13244e-05 1.18792e-05
-0.000565451 3.83585e-05 9.39296e-06
-0.000308734 4.65676e-05 4.53912e-06
-4.49007e-05 5.59763e-05 -2.51086e-06
0.000224434 6.6558e-05 -1.15454e-05
0.000601827 7.83889e-05 -2.25367e-05
0.000893066 9.66602e-05 -3.73095e-05
0.00119085 0.000114182 -5.15056e-05
0.00155128 0.000131278 -6.55937e-05
0.00191242 0.000148282 -7.89769e-05
0.0022254 0.000166431 -9.14548e-05
0.00253045 0.000184123 -0.000102006
0.00284993 0.000200487 -0.000109766
0.00315319 0.00021614 -0.000114609
0.00342636 0.000231125 -0.000116142
0.00368571 0.000244755 -0.000113867
0.00393523 0.000256745 -0.000107469
0.0041624 0.000267318 -9.68958e-05
0.00436438 0.00027648 -8.2114e-05
0.00454812 0.000284029 -6.31287e-05
0.00471468 0.000289973 -4.01156e-05
0.00486056 0.000294501 -1.33877e-05
0.00498714 0.000297721 3.04563e-05
0.00509955 0.00029942 0.000196343
0.00519888 0.000299935 0.000375083
0.00491849 0.000239465 0.000651364
0.00466324 0.000258253 0.00090147
0.00433201 0.000246598 0.00108573
0.00445752 0.000234651 0.00123934
0.00447959 0.000232701 0.00141167
0.00445461 0.000237932 0.00155392
0.00445774 0.000241382 0.0016823
0.0044732 0.000243153 0.00179302
0.00446944 0.00024637 0.00188581
0.00446004 0.000251781 0.00196002
0.00446279 0.000258795 0.00201238
0.00445506 0.000105573 0.00198901
0.00434939 6.97676e-05 0.00197957
0.00432457 4.3003e-05 0.00196379
0.00436695 5.17479e-05 0.00195374
0.00437768 6.54085e-05 0.00193434
0.00437092 6.02442e-05 0.00191255
0.0043716 4.18442e-05 0.0018937
0.00437652 2.97058e-05 0.00187349
0.00437864 3.07738e-05 0.00185144
0.00437806 3.47532e-05 0.00182546
0.00438173 3.1135e-05 0.0018026
0.00439293 2.02866e-05 0.00178739
0.00440108 1.42312e-05 0.001773
0.00440501 1.49921e-05 0.0017582
0.00441115 1.49851e-05 0.00174795
0.00441986 1.17297e-05 0.0017417
0.00442618 6.9328e-06 0.00173965
0.00442997 4.61894e-06 0.00174156
0.00443425 5.06136e-06 0.00174715
0.00443892 4.83181e-06 0.00175675
0.00444173 3.15641e-06 0.00176933
0.00444273 1.43083e-06 0.00178419
0.00444371 5.55031e-07 0.00180545
0.00444439 1.04169e-06 0.00183272
0.00444403 2.27313e-06 0.00186327
0.00444352 3.1755e-06 0.001898
0.00444294 4.00836e-06 0.00193665
0.00444206 5.46872e-06 0.0019779
0.00444094 7.72675e-06 0.00201804
0.00443978 1.00854e-05 0.00213707
0.00443857 1.14498e-05 0.00232167
0.00443698 1.24806e-05 0.00280802
0.0044355 1.2033e-05 0.00372459
0.00443402 1.12498e-05 0.00466155
0.00443248 1.04972e-05 0.00559181
0.00443101 1.02376e-05 0.00647842
0.00442973 1.08021e-05 0.00732017
0.00442839 1.18534e-05 0.00813127
0.00442677 1.30513e-05 0.00891706
0.00442486 1.42455e-05 0.00966259
0.00442281 1.58072e-05 0.0103468
0.00442071 1.79367e-05 0.0109573
0.0044185 2.02275e-05 0.0114953
0.00441604 2.30385e-05 0.0119634
0.00440572 2.62045e-05 0.0123707
0.00436996 2.97206e-05 0.0127125
0.00433353 3.00849e-05 0.0129608
0.00430847 2.93386e-05 0.0131165
0.00430446 2.80724e-05 0.0132089
0.00430501 2.69493e-05 0.0132386
0.00430545 2.60199e-05 0.013236
0.0043058 2.48609e-05 0.0132307
0.00430631 2.33005e-05 0.013223
0.00430692 2.15637e-05 0.0132133
0.00430752 1.95809e-05 0.0131993
0.00430801 1.79356e-05 0.0131846
0.00430838 1.64856e-05 0.0131694
0.00430861 1.51007e-05 0.0131549
0.00430857 1.39448e-05 0.0131416
0.00430825 1.27612e-05 0.0131299
0.00430751 9.9357e-06 0.0131189
0.0043062 4.75325e-06 0.0131091
0.00430448 -4.76315e-07 0.013101
0.00428018 -1.79529e-06 0.013096
0.00424801 -1.79541e-06 0.013092
0.00420787 -2.28169e-06 0.013089
0.00416399 -3.39252e-06 0.0130865
0.00411862 -3.71725e-06 0.0130838
0.00407055 -3.563e-06 0.01308
0.00401972 -3.77219e-06 0.0130745
0.00396828 -4.45369e-06 0.0130668
0.0039173 -5.09959e-06 0.0130562
0.00386709 -5.69324e-06 0.0130422
0.00381872 -6.60815e-06 0.0130242
0.00377306 -7.87058e-06 0.0130021
0.00373055 -9.24795e-06 0.0129756
0.00369183 -1.07371e-05 0.0129445
0.00365778 -1.24969e-05 0.0129088
0.00363346 -1.45216e-05 0.0128685
0.00360652 -1.66955e-05 0.0128238
0.00357629 -1.89489e-05 0.0127749
0.0035631 -2.1725e-05 0.0127251
0.00355672 -2.40889e-05 0.0126821
0.00354333 -2.65484e-05 0.0122525
0.0035316 -2.86555e-05 0.0116115
0.00352127 -3.08514e-05 0.010952
0.00351206 -3.32174e-05 0.0103093
0.00350909 -3.53732e-05 0.00968099
0.00350356 -3.76248e-05 0.00906578
0.00349957 -3.9651e-05 0.00846081
0.00349152 -4.16694e-05 0.00788463
0.00348037 -4.36307e-05 0.00735068
0.00347099 -4.53903e-05 0.0068555
0.00345747 -4.70125e-05 0.00640048
0.00344007 -4.8482e-05 0.00599417
0.003418 -4.97495e-05 0.00564581
0.00339366 -5.07843e-05 0.00535692
0.00336591 -5.16112e-05 0.0051252
0.00333484 -5.22103e-05 0.00495092
0.00330046 -5.25684e-05 0.00483513
0.0032629 -5.27464e-05 0.0047752
0.00322311 -5.27826e-05 0.00476303
0.00318138 -5.26978e-05 0.00476572
0.00313752 -5.2477e-05 0.00477153
0.00309176 -5.21918e-05 0.00478003
0.00304503 -5.18878e-05 0.00479073
0.00299795 -5.23964e-05 0.00480292
0.00277389 -5.38476e-05 0.00481724
0.00250303 -5.48575e-05 0.00483118
0.00223869 -5.5671e-05 0.00484541
0.00199505 -5.68475e-05 0.00486104
0.00175392 -5.96829e-05 0.00487553
0.00148801 -6.80538e-05 0.00488568
0.00123181 -7.68155e-05 0.00489539
0.00100035 -8.51918e-05 0.00490381
0.00078826 -9.26046e-05 0.00491017
0.000587502 -9.9412e-05 0.00491436
0.000405073 -0.000105944 0.00491651
0.000247109 -0.000111958 0.00491639
0.000109243 -0.000117226 0.00491368
-1.20378e-05 -0.00012192 0.00490842
-0.000113718 -0.000126182 0.0049008
-0.000194723 -0.000129907 0.00489089
-0.00025913 -0.000133005 0.00487872
-0.000309208 -0.000135533 0.00486449
-0.000346832 -0.000137504 0.00484855
-0.000374458 -0.000138858 0.00483116
-0.000396045 -0.000139626 0.00481271
-0.000415484 -0.000139838 0.00479361
-0.000434691 -0.000139624 0.00477736
-0.000453864 -0.000138799 0.00475781
-0.000476695 -0.000137728 0.00456874
-0.000502143 -0.00013656 0.0043748
-0.000527018 -0.000135816 0.00419796
-0.000553122 -0.000135569 0.00404677
-0.000580704 -0.000135947 0.00392043
-0.000606733 -0.000137001 0.00381667
-0.000633103 -0.000138594 0.00373772
-0.000661171 -0.000140826 0.0036879
-0.000683446 -0.000143831 0.00367034
-0.000698397 -0.000147732 0.00367168
-0.000706788 -0.000152108 0.00367508
-0.000708043 -0.000156878 0.00368045
-0.00070703 -0.000162006 0.00368756
-0.000704745 -0.000167254 0.0036959
-0.000701353 -0.000172044 0.00370469
-0.000696761 -0.00017614 0.0037135
-0.000690803 -0.000178974 0.00372155
-0.000683962 -0.000180769 0.00372903
-0.000676807 -0.000181154 0.00373537
-0.000669082 -0.000180338 0.00374053
-0.0006608 -0.000177903 0.00374431
-0.000652522 -0.000173125 0.00374637
-0.000644389 -0.000166036 0.00374681
-0.000636359 -0.000156918 0.00374587
-0.000628777 -0.00014585 0.00374385
-0.000621963 -0.000132994 0.00374122
-0.000615724 -0.000119183 0.00373876
-0.000609962 -0.000104522 0.00373682
-0.000605188 -8.94201e-05 0.00373611
-0.000601204 -7.43647e-05 0.00373719
-0.000597916 -6.01695e-05 0.00374075
-0.000595479 -4.78577e-05 0.00374695
-0.00059398 -3.82433e-05 0.00375606
-0.000592937 -3.0105e-05 0.00376897
-0.00059208 -2.34232e-05 0.00378575
-0.000591535 -1.88083e-05 0.00380619
-0.000591597 -1.59805e-05 0.00383014
-0.000592098 -1.47223e-05 0.00385738
-0.000592762 -1.47982e-05 0.00388714
-0.000593876 -1.6232e-05 0.00391858
-0.000595101 -1.89519e-05 0.00395082
-0.00059604 -2.26679e-05 0.00398283
-0.00059667 -2.71128e-05 0.0041453
-0.00059711 -3.38162e-05 0.00439309
-0.000597424 -4.12459e-05 0.00460842
-0.00059752 -4.80639e-05 0.00478416
-0.000597275 -5.36799e-05 0.0049121
-0.000597088 -5.79617e-05 0.00499478
-0.0005969 -6.08655e-05 0.00503169
-0.000596733 -6.21086e-05 0.00503051
-0.000596732 -6.15271e-05 0.00502188
-0.000597269 -5.92694e-05 0.00500755
-0.00059811 -5.57667e-05 0.00498842
-0.000599375 -5.11301e-05 0.00495903
-0.000600755 -4.57167e-05 0.00475262
-0.000602236 -4.0076e-05 0.00451348
-0.000603863 -3.48159e-05 0.0042595
-0.000605481 -3.08185e-05 0.00399881
-0.000606894 -2.82365e-05 0.00373707
-0.000608133 -2.6837e-05 0.00347879
-0.000609343 -2.67148e-05 0.00323132
-0.0006106 -2.81098e-05 0.00300255
-0.000612119 -3.11677e-05 0.00279628
-0.000613959 -3.59787e-05 0.00261383
-0.000616117 -4.29869e-05 0.00245574
-0.000618346 -5.26476e-05 0.00232017
-0.000621004 -6.38623e-05 0.00220741
-0.000623718 -7.65741e-05 0.00211674
-0.000626052 -9.06545e-05 0.00204603
-0.000628289 -0.000105378 0.00199133
-0.000630473 -0.00012009 0.00194839
-0.000632573 -8.80931e-05 0.00192085
-0.000638426 -0.00012384 0.00198442
-0.000637003 -0.000155844 0.00200864
-0.000641222 -0.00015279 0.00200669
-0.00064184 -0.000139908 0.00196951
-0.000644563 -0.000152227 0.00195846
-0.000645685 -0.000178035 0.00196064
-0.000647765 -0.000183888 0.0019518
-0.000649928 -0.000179468 0.001924
-0.000652526 -0.00017955 0.00171947
-0.000654845 -0.000187439 0.00154258
-0.000657391 -0.0001885 0.00137092
-0.000660397 -0.000184219 0.00115421
-0.000663229 -0.000179558 0.000901914
-0.000665769 -0.000178547 0.000680548
-0.000668551 -0.000176873 0.000487195
-0.000671377 -0.000172778 0.00030066
-0.000674198 -0.000169088 0.000117305
-0.000677408 -0.000167886 -3.7739e-05
-0.000681149 -0.000167614 -0.000152868
-0.00068516 -0.00016715 -0.000235437
-0.000689842 -0.000167549 -0.000291565
-0.000695136 -0.000169905 -0.000315425
-0.00070089 -0.000173623 -0.000313316
-0.000707192 -0.000177929 -0.000306541
-0.000788756 -0.000182508 -0.00029622
-0.000897695 -0.000187257 -0.000281788
-0.00101315 -0.000193532 -0.000262566
-0.00113165 -0.00020061 -0.000240362
-0.00125487 -0.000207143 -0.00021734
-0.00137849 -0.000213545 -0.000194669
-0.00149854 -0.000220183 -0.000171769
-0.00161186 -0.000227072 -0.000148584
-0.00171516 -0.000233754 -0.000126583
-0.00180489 -0.000239778 -0.000107534
-0.00187787 -0.000245122 -9.24632e-05
-0.00193359 -0.000249553 -8.12825e-05
-0.00197178 -0.000253257 -7.3729e-05
-0.00199182 -0.000256128 -7.02774e-05
-0.00199505 -0.00025772 -7.16524e-05
-0.00199353 -0.000257866 -7.82801e-05
-0.00199069 -0.000256136 -8.99101e-05
-0.00198639 -0.000253146 -0.000105405
-0.00198147 -0.000249401 -0.000124163
-0.00197553 -0.00024533 -0.000145406
-0.00196859 -0.00024042 -0.000169057
-0.00196151 -0.000234447 -0.000194434
-0.00195414 -0.000228184 -0.000220606
-0.00194643 -0.000221983 -0.000246914
-0.00193891 -0.000215396 -0.000272782
-0.00193196 -0.000208757 -0.000297044
-0.00192534 -0.000202757 -0.000332267
-0.00191906 -0.000197321 -0.000479856
-0.0019131 -0.000191899 -0.000439636
-0.00190743 -0.000185646 -0.000456691
-0.00190197 -0.000182298 -0.000462638
-0.00189548 -0.00018275 -0.000451251
-0.0018895 -0.000184062 -0.000441358
-0.00188323 -0.000184297 -0.00044714
-0.00187677 -0.000185119 -0.000448257
-0.00187005 -0.000187848 -0.000434498
-0.00186342 -0.000191553 -0.000414203
-0.00185676 -0.000194522 -0.000400869
-0.00184991 -0.000196136 -0.000391194
-0.00184322 -0.000196943 -0.000376866
-0.00183613 -0.000197959 -0.000357263
-0.0018285 -0.000198026 -0.000340145
-0.00182036 -0.000196251 -0.000327783
-0.00181143 -0.000193029 -0.000316723
-0.00180138 -0.000188677 -0.000304481
-0.00179003 -0.000183441 -0.000293386
-0.00177749 -0.000176659 -0.000286214
-0.00176493 -0.000168062 -0.000282065
-0.0017528 -0.000158147 -0.000278827
-0.00174016 -0.00014694 -0.000276241
-0.00172671 -0.000134496 -0.000275338
-0.0017128 -0.000120613 -0.000276392
-0.00170029 -0.000105879 -0.000277885
-0.00169136 -9.05397e-05 -0.000278545
-0.00168623 -7.46753e-05 -0.000278187
-0.00168298 -5.84375e-05 -0.000276684
-0.00165848 -4.25859e-05 -0.000273966
-0.001609 -2.90357e-05 -0.00026976
-0.00156809 -1.90166e-05 -0.00026388
-0.00154318 -1.28441e-05 -0.000255865
-0.00152594 -1.18187e-05 -0.00024617
-0.0015111 -1.23338e-05 -0.000233477
-0.00149746 -1.26829e-05 -0.000217256
-0.00148532 -1.24118e-05 -0.000198258
-0.00147784 -1.16691e-05 -0.0001775
-0.00147047 -1.10984e-05 -0.000153962
-0.00146516 -1.08325e-05 -0.000127223
-0.00146428 -1.03015e-05 -9.71096e-05
-0.00146589 -9.24572e-06 -6.36782e-05
-0.00146809 -7.77824e-06 0.000346883
-0.00146968 -6.64301e-06 0.000838553
-0.00147182 -5.80966e-06 0.00138613
-0.00147453 -4.73578e-06 0.00194878
-0.0014799 -3.01231e-06 0.00251826
-0.00150045 -1.04605e-06 0.00310068
-0.00152281 4.05536e-07 0.00369094
-0.00154394 2.09313e-06 0.00427185
-0.00156589 3.84905e-06 0.00482828
-0.00158781 6.28025e-06 0.00535175
-0.00161053 7.85352e-06 0.00585655
-0.00163315 8.01288e-06 0.00632964
-0.00165585 8.97459e-06 0.00674967
-0.00167761 1.05564e-05 0.00710723
-0.00169799 1.11159e-05 0.00740863
-0.00171805 1.05672e-05 0.00765661
-0.00173686 9.95712e-06 0.00784113
-0.00175347 9.92869e-06 0.00795931
-0.0017671 9.63262e-06 0.00801107
-0.00177867 8.8055e-06 0.00801112
-0.00178908 7.70959e-06 0.00800268
-0.00179806 6.40361e-06 0.00798788
-0.00180517 4.73401e-06 0.0079669
-0.00181094 2.77065e-06 0.00794007
-0.00181614 3.56153e-07 0.00790814
-0.00182065 -2.417e-06 0.0078715
-0.00182438 -5.30449e-06 0.00783065
-0.00182726 -8.37882e-06 0.0077864
-0.00182979 -1.12504e-05 0.00774018
-0.00183268 -1.41008e-05 0.00769355
-0.0018356 -1.75201e-05 0.00753929
-0.00183831 -2.14343e-05 0.00712112
-0.00184057 -2.46923e-05 0.0066933
-0.00184007 -2.7551e-05 0.00626458
-0.00183866 -3.04386e-05 0.0058464
-0.00183661 -3.38693e-05 0.00543741
-0.00183385 -3.77352e-05 0.00502982
-0.00183027 -4.13983e-05 0.00462232
-0.00182548 -4.47305e-05 0.00421945
-0.00182041 -5.38521e-05 0.00381498
-0.00181765 -6.9934e-05 0.00335768
-0.00181639 -8.66449e-05 0.0029128
-0.00181363 -0.000103048 0.00247383
-0.00181062 -0.00011754 0.00202632
-0.00180828 -0.000129381 0.00156575
-0.0018065 -0.000139616 0.00112656
-0.00180466 -0.000148651 0.000705877
-0.00180329 -0.000155559 0.000285717
-0.00180237 -0.000159662 -0.000130832
-0.00180125 -0.000161106 -0.000425197
-0.00179957 -0.00016069 -0.000576863
-0.00179773 -0.000157826 -0.000872534
-0.00179609 -0.000152828 -0.00115835
-0.00179468 -0.000147466 -0.00144196
-0.00179346 -0.000142059 -0.00166643
-0.00179263 -0.000135774 -0.00184722
-0.00179232 -0.0001289 -0.00201007
-0.00179215 -0.000122118 -0.00220065
-0.00179234 -0.000116205 -0.00226155
-0.00179318 -0.00011209 -0.00225116
-0.00179484 -0.000109141 -0.0022349
-0.00179712 -0.000106558 -0.00221681
-0.00180007 -0.000104553 -0.00219347
-0.00180313 -0.000103935 -0.00216177
-0.00180623 -0.000104559 -0.00212503
-0.00181015 -0.000105268 -0.00208745
-0.00181424 -0.000105871 -0.00204776
-0.00181787 -0.000106854 -0.00200595
-0.00182159 -0.000108005 -0.00196214
-0.00182585 -0.000108548 -0.00191728
-0.00182985 -0.000107905 -0.00187296
-0.00183338 -0.000106397 -0.00182952
-0.00183667 -0.000104114 -0.00178717
-0.00183985 -0.000100746 -0.00174654
-0.00185273 -9.64208e-05 -0.00144827
-0.00186584 -9.08544e-05 -0.000961638
-0.00187686 -8.38823e-05 -0.000518356
-0.00188428 -7.57075e-05 -0.000124082
-0.00188815 -6.62642e-05 0.000216369
-0.00188864 -5.58464e-05 0.000505037
-0.00188834 -4.47869e-05 0.000747335
-0.00188778 -3.39957e-05 0.00094389
-0.00188712 -2.43456e-05 0.00109074
-0.00188678 -1.48594e-05 0.00119986
-0.00188646 -6.15039e-06 0.00127533
-0.00188633 -5.64008e-07 0.0013145
-0.00188708 1.2746e-06 0.00132197
-0.00188971 8.27626e-07 0.0013205
-0.00190236 -2.74504e-07 0.00131804
-0.00191388 -1.07356e-06 0.00131526
-0.00192622 -1.32464e-06 0.0013123
-0.00194162 -1.45364e-06 0.00130951
-0.0019552 -1.74378e-06 0.00130776
-0.00196733 -3.00143e-06 0.00130667
-0.00198023 -4.15698e-06 0.00130547
-0.00199184 -5.7019e-06 0.00130419
-0.00199986 -8.30912e-06 0.00130303
-0.0020059 -1.18848e-05 0.00130166
-0.00201093 -1.57264e-05 0.00129933
-0.00201376 -1.92852e-05 0.00129618
-0.00201399 -2.33443e-05 0.00129295
-0.00201355 -2.8754e-05 0.00128891
-0.00201263 -3.48191e-05 0.00128225
-0.0020123 -4.8238e-05 0.00126869
-0.00201149 -6.1305e-05 0.00125106
-0.00201027 -7.40327e-05 0.00122988
-0.00200767 -8.64452e-05 0.00120373
-0.0020049 -9.73945e-05 0.00106211
-0.00200217 -0.000106346 0.000909941
-0.00199937 -0.000113614 0.000748305
-0.00199583 -0.000119454 0.000573326
-0.0019916 -0.000123853 0.000386239
-0.00198654 -0.000126756 0.000189709
-0.00198072 -0.000128127 -1.54953e-05
-0.00197425 -0.000128149 -0.00022771
-0.00196726 -0.0001271 -0.000442928
-0.00195983 -0.00012521 -0.000655775
-0.00195243 -0.000122567 -0.000861122
-0.00194605 -0.000119974 -0.0010547
-0.00194193 -0.000117481 -0.00123234
-0.00193978 -0.000115349 -0.00139249
-0.00193814 -0.000113206 -0.00153466
-0.00192745 -0.00011131 -0.00165474
-0.00191077 -0.000110205 -0.00174879
-0.00190323 -0.000109741 -0.00181601
-0.00190266 -0.000109562 -0.0018577
-0.00190288 -0.000109446 -0.001874
-0.00190309 -0.000109379 -0.00187159
-0.0019034 -0.000109088 -0.00186269
-0.00190381 -0.000107787 -0.00184873
-0.00190522 -0.000105459 -0.0018305
-0.0019072 -0.000102382 -0.00180964
-0.00190746 -9.75574e-05 -0.0017863
-0.00190794 -9.09876e-05 -0.00176009
-0.0019078 -8.31574e-05 -0.00173348
-0.00190538 -7.37167e-05 -0.00170635
-0.00188912 -6.22126e-05 -0.00167792
-0.00186874 -4.91287e-05 -0.00164875
-0.00184673 -3.63946e-05 -0.001619
-0.00182389 -2.36648e-05 -0.00158816
-0.00179902 -1.15381e-05 -0.00155608
-0.00177676 -6.40174e-06 -0.00152519
-0.00177008 -5.64929e-06 -0.00149386
-0.00177017 -6.06961e-06 -0.00146084
-0.00176194 -6.23794e-06 -0.00142654
-0.0017475 -5.17504e-06 -0.00127242
-0.00174089 -3.65966e-06 -0.000770581
-0.00173947 -2.91676e-06 -0.000250029
-0.00173552 -2.83917e-06 0.000291918
-0.00173013 -2.40624e-06 0.000843511
-0.00172838 -1.08288e-06 0.0013952
-0.00172848 5.96125e-07 0.00195037
-0.00172866 5.80301e-06 0.00251903
-0.00172889 3.40528e-06 0.00313536
-0.0017288 2.01734e-06 0.00374421
-0.00172951 5.29771e-06 0.00434133
-0.00172961 8.83894e-06 0.00490485
-0.00172954 8.59467e-06 0.00545815
-0.0017297 8.51902e-06 0.00599222
-0.00172999 1.04745e-05 0.00650713
-0.00172982 1.22279e-05 0.00701897
-0.00172956 1.23212e-05 0.00745277
-0.00172953 1.26303e-05 0.00784783
-0.00172939 1.36276e-05 0.00823191
-0.00172901 1.42662e-05 0.00857786
-0.00172855 1.43084e-05 0.00885254
-0.00172641 1.4397e-05 0.00907117
-0.0017188 1.47525e-05 0.00925637
-0.00167901 1.495e-05 0.00940249
-0.00168058 1.4401e-05 0.009483
-0.00167946 1.38629e-05 0.0095207
-0.00166057 1.37936e-05 0.00952215
-0.00165687 1.34269e-05 0.00951924
-0.00164929 1.2643e-05 0.00951353
-0.00162829 1.19137e-05 0.00950519
-0.00161731 1.1451e-05 0.00949459
-0.00161183 1.09015e-05 0.00948264
-0.00160004 1.01872e-05 0.00946968
-0.00159025 9.56178e-06 0.00945566
-0.00158667 9.06509e-06 0.00944086
-0.0015831 7.71444e-06 0.00942549
-0.00158149 5.12715e-06 0.00940983
-0.00158174 1.4867e-06 0.00939391
-0.00158205 -1.2448e-06 0.00937843
-0.0015828 -2.19854e-06 0.00936401
-0.00158458 -2.83241e-06 0.00935006
-0.0015873 -3.82201e-06 0.00933682
-0.00159063 -5.01988e-06 0.0093242
-0.00159418 -5.81402e-06 0.00931202
-0.0015966 -6.35751e-06 0.00930013
-0.00159798 -7.10527e-06 0.00928838
-0.00159928 -7.99229e-06 0.00927662
-0.00160378 -8.75486e-06 0.00926442
-0.00161236 -9.4948e-06 0.00925166
-0.00162071 -1.03653e-05 0.00923809
-0.00162856 -1.13002e-05 0.0092235
-0.00163563 -1.22186e-05 0.00920778
-0.00164183 -1.31713e-05 0.00919089
-0.00164703 -1.42217e-05 0.00917319
-0.00165112 -1.53196e-05 0.00915519
-0.00165403 -1.64104e-05 0.00913752
-0.00165582 -1.74999e-05 0.00911982
-0.00165639 -1.86873e-05 0.00910162
-0.00165633 -1.9831e-05 0.0089011
-0.00165618 -2.08782e-05 0.0086548
-0.00165593 -2.19824e-05 0.00839818
-0.00165562 -2.32567e-05 0.00813754
-0.00165531 -2.38388e-05 0.00787848
-0.0016549 -2.34047e-05 0.00762531
-0.00165449 -2.22079e-05 0.00738268
-0.0016542 -2.08627e-05 0.00715969
-0.00165404 -1.93906e-05 0.00696015
-0.00165398 -1.80559e-05 0.00679012
-0.00165406 -1.73373e-05 0.00665315
-0.00165462 -1.7168e-05 0.00655257
-0.00165541 -1.78011e-05 0.00649192
-0.00165716 -1.91301e-05 0.00647323
-0.00166712 -2.11236e-05 0.00647645
-0.00167838 -2.36843e-05 0.00648397
-0.00169254 -2.64239e-05 0.00649449
-0.00170557 -2.65096e-05 0.00650873
-0.0017177 -2.5924e-05 0.00652542
-0.00173286 -2.52804e-05 0.0065437
-0.00175201 -2.50235e-05 0.00656351
-0.00177105 -2.48071e-05 0.00658448
-0.00178843 -2.41868e-05 0.00667553
-0.00180567 -2.35557e-05 0.00686418
-0.00182593 -2.33309e-05 0.00705689
-0.0018464 -2.30423e-05 0.00724584
-0.00186575 -2.2581e-05 0.00742752
-0.00188412 -2.21083e-05 0.00759952
-0.00190309 -2.18068e-05 0.00776003
-0.00192201 -2.17843e-05 0.00790474
-0.0019396 -2.16918e-05 0.00802761
-0.00195602 -2.17194e-05 0.00812392
-0.00197249 -2.19433e-05 0.0081919
-0.00198837 -2.24013e-05 0.00823062
-0.00200297 -2.30706e-05 0.00823928
-0.00201677 -2.37838e-05 0.0082353
-0.0020293 -2.46572e-05 0.00822691
-0.00204081 -2.57891e-05 0.00821451
-0.00205179 -2.71506e-05 0.00819821
-0.00206207 -2.86716e-05 0.00817805
-0.00207167 -3.02199e-05 0.00815473
-0.00209125 -3.1799e-05 0.00813044
-0.00213853 -3.35562e-05 0.00810867
-0.00218576 -3.51978e-05 0.00795154
-0.00222669 -3.64997e-05 0.00765112
-0.00225848 -3.76719e-05 0.00733904
-0.00228542 -3.93235e-05 0.00701914
-0.00230962 -4.13936e-05 0.0066845
-0.00232989 -4.3489e-05 0.00632795
-0.00235439 -5.49967e-05 0.00591825
-0.00238468 -7.17862e-05 0.00547036
-0.00241542 -8.89222e-05 0.00501621
-0.0024399 -0.000106533 0.00455283
-0.00246014 -0.000123459 0.00406513
-0.00247847 -0.000139268 0.00355019
-0.00249135 -0.000154875 0.00302109
-0.00249517 -0.000170706 0.00248917
-0.00249422 -0.000185948 0.0019539
-0.00249209 -0.000199608 0.00140865
-0.00248785 -0.000211644 0.000855877
-0.00248218 -0.000223277 0.000309412
-0.0024758 -0.000234369 -0.000228551
-0.00246784 -0.000244947 -0.000731043
-0.00246016 -0.000253186 -0.00125091
-0.00245256 -0.0002592 -0.00176719
-0.00244453 -0.000264291 -0.00225744
-0.00243621 -0.000267942 -0.00320398
-0.00242769 -0.000269825 -0.00416495
-0.00241871 -0.000269977 -0.00507965
-0.00240903 -0.000268513 -0.00593684
-0.0023989 -0.000265746 -0.00675406
-0.00238951 -0.000262075 -0.00746479
-0.00238189 -0.000257565 -0.00805694
-0.00237685 -0.000252037 -0.00853457
-0.00237407 -0.000245291 -0.00889304
-0.00237227 -0.000237691 -0.0091172
-0.00237065 -0.0002299 -0.0091996
-0.00236891 -0.000220694 -0.00919661
-0.00236752 -0.000209938 -0.00918743
-0.00236624 -0.000198606 -0.00917207
-0.00236493 -0.000186657 -0.00914941
-0.00236372 -0.000174332 -0.00912368
-0.00236277 -0.000161528 -0.00909316
-0.00236022 -0.000148619 -0.00905743
-0.00235037 -0.000135794 -0.00901789
-0.00234315 -0.000123101 -0.00897349
-0.00233821 -0.000110256 -0.00892479
-0.00233838 -9.69809e-05 -0.00887283
-0.00233854 -8.33531e-05 -0.00881806
-0.00233855 -6.94702e-05 -0.00876102
-0.0023386 -5.516e-05 -0.00870225
-0.00233866 -4.11204e-05 -0.0084135
-0.0023385 -2.81582e-05 -0.00742509
-0.00233681 -1.46724e-05 -0.00644204
-0.00232568 -3.13747e-06 -0.00548501
-0.00231692 3.25674e-06 -0.00459569
-0.00231652 5.84251e-06 -0.00376478
-0.00231656 6.56382e-06 -0.00297133
-0.00230621 6.84511e-06 -0.00221661
-0.00228335 7.44664e-06 -0.00151625
-0.00226072 8.24714e-06 -0.000876893
-0.0022376 8.62061e-06 -0.000290815
-0.0021184 7.86846e-06 0.00024906
-0.00211996 1.62435e-05 0.00073295
-0.00211977 9.15286e-06 0.00132202
-0.00207142 1.63536e-06 0.00192013
-0.00202796 5.59427e-06 0.00244626
-0.00201294 1.02871e-05 0.0029461
-0.00196057 6.71907e-06 0.00351443
-0.00191405 3.18386e-06 0.00411719
-0.00189102 5.22985e-06 0.00483753
-0.00185902 7.53255e-06 0.00559947
-0.00182396 6.28287e-06 0.00638021
-0.00182054 5.94336e-06 0.00724752
-0.00182068 7.9726e-06 0.00822165
-0.00182047 9.92052e-06 0.00923337
-0.00182129 9.15872e-06 0.0102373
-0.00182154 1.11462e-05 0.0112112
-0.00182178 1.35578e-05 0.0123035
-0.00182338 1.50941e-05 0.0134466
-0.00182398 1.56999e-05 0.0149172
-0.00182482 1.70778e-05 0.016304
-0.00182627 1.90504e-05 0.0176779
-0.00182716 2.03704e-05 0.019034
-0.00182832 2.14063e-05 0.0203424
-0.0019654 3.39161e-07 0.0218143
-0.00177658 2.96096e-05 0.0225532
-0.00178104 2.37746e-05 0.0225747
-0.00177191 2.08627e-05 0.0226209
-0.00166706 1.86228e-05 0.0226477
-0.00166202 2.71617e-05 0.0226684
-0.00164512 2.47374e-05 0.0226886
-0.00160093 1.89412e-05 0.023091
-0.00159753 2.00828e-05 0.0234706
-0.00159685 2.20608e-05 0.0237315
-0.00157245 1.95765e-05 0.0239085
-0.00156843 1.0436e-05 0.0238925
-0.0013807 1.12564e-05 0.0238956
-0.00133433 3.76417e-06 0.023895
-0.00133505 1.82357e-06 0.0239009
-0.00132819 9.47129e-06 0.0239069
-0.00132813 8.02774e-06 0.0238999
-0.00132633 3.40495e-07 0.0238925
-0.00127186 -3.86867e-06 0.0238956
-0.00123388 -1.77434e-06 0.0239028
-0.00120976 -3.45438e-06 0.023914
-0.00117703 -7.67188e-06 0.0239288
-0.00115121 -9.06197e-06 0.0239954
-0.00113489 -8.02255e-06 0.0246258
-0.00111963 -8.72559e-06 0.0254858
-0.00111122 -1.0201e-05 0.0265109
-0.00111078 -9.80515e-06 0.0276343
-0.00111108 -8.0035e-06 0.0287517
-0.00111164 -6.73908e-06 0.0299484
-0.00111269 -5.60884e-06 0.031272
-0.00111395 -3.56021e-06 0.0327087
-0.00111542 -8.1258e-07 0.0342245
-0.00111716 1.85348e-06 0.0357934
-0.00111905 4.36196e-06 0.0374056
-0.00112108 6.57841e-06 0.0390416
-0.00112321 8.50463e-06 0.0406751
-0.00112529 1.028e-05 0.0422762
-0.00112722 1.23674e-05 0.0438218
-0.00112903 1.52779e-05 0.0452935
-0.00113042 1.88178e-05 0.0466825
-0.00113138 2.29792e-05 0.047973
-0.00113224 2.50256e-05 0.0491059
-0.00113283 2.583e-05 0.0500981
-0.00113288 2.59638e-05 0.0509508
-0.00113264 2.61642e-05 0.0516513
-0.00113202 2.58774e-05 0.0521989
-0.00113085 2.47657e-05 0.0526023
-0.00112957 2.32799e-05 0.0528659
-0.00112821 2.19575e-05 0.0581773
-0.00112452 9.34364e-06 0.0672751
-0.00112413 3.33832e-06 0.0673095
-0.00112327 8.24249e-06 0.0673029
-0.00112092 8.74234e-06 0.0672903
-0.00112011 2.50917e-06 0.067294
-0.00111904 -1.5136e-06 0.0672972
-0.00111776 -7.27371e-07 0.0673032
-0.00111791 -8.05447e-07 0.0673009
-0.00111876 -3.66002e-06 0.0673048
-0.00112022 -5.15191e-06 0.0673166
-0.00112233 -4.40232e-06 0.0676307
-0.00112498 -4.37758e-06 0.0681338
-0.00112669 -4.89303e-06 0.0686974
-0.00112806 -4.38977e-06 0.0693307
-0.00112891 -3.86423e-06 0.0701001
-0.00113032 -5.12698e-06 0.0709566
-0.00113227 -8.83656e-06 0.0718433
-0.00113438 -1.18238e-05 0.0727386
-0.00113626 -1.06161e-05 0.0735788
-0.00113809 -8.04849e-06 0.0743857
-0.00114021 -6.03292e-06 0.0751801
-0.00114179 -4.88162e-06 0.075805
-0.00114353 -3.46741e-06 0.0763996
-0.00114537 -1.78105e-06 0.076947
-0.0011469 -8.23605e-08 0.0774373
-0.00114803 1.39512e-06 0.077865
-0.0011493 2.55857e-06 0.0782249
-0.00115086 3.37677e-06 0.0785092
-0.00115195 4.09222e-06 0.0787084
-0.00115264 4.8702e-06 0.0788092
-0.001153 5.52173e-06 0.0788169
-0.00115318 5.6888e-06 0.0788102
-0.00115323 5.40097e-06 0.0787991
-0.00115298 4.84168e-06 0.0787826
-0.00115267 3.7928e-06 0.0787609
-0.00115223 2.44629e-06 0.0787361
-0.00115138 1.67352e-06 0.0787119
-0.00115007 1.79382e-06 0.0786863
-0.00114851 1.4126e-06 0.0786273
-0.00114715 1.80832e-07 0.0779388
-0.00114603 -1.41143e-06 0.0771419
-0.00114467 -3.33784e-06 0.0763205
-0.00114306 -5.35042e-06 0.0754874
-0.00114149 -7.18864e-06 0.0746456
-0.00114017 -8.80278e-06 0.0738098
-0.00113893 -1.04395e-05 0.0729909
-0.00113765 -1.23216e-05 0.0722031
-0.00113658 -1.42244e-05 0.0714516
-0.00113579 -1.55502e-05 0.070744
-0.00113531 -1.72176e-05 0.0700859
-0.00113516 -2.02663e-05 0.0694799
-0.00113533 -2.23053e-05 0.0689504
-0.00113559 -2.31123e-05 0.0685179
-0.00113608 -2.3438e-05 0.0681622
-0.001137 -2.33082e-05 0.0678913
-0.00113825 -2.26682e-05 0.067702
-0.00113952 -2.18155e-05 0.0675926
-0.00114073 -2.09627e-05 0.0675554
-0.00114322 -1.99333e-05 0.0675566
-0.00114572 -1.84761e-05 0.0675609
-0.00114788 -1.67086e-05 0.0675674
-0.00115028 -1.47127e-05 0.0675749
-0.00115306 -1.32989e-05 0.0675818
-0.00115581 -1.24606e-05 0.0675879
-0.00115797 -1.06383e-05 0.0675922
-0.00115944 -8.02011e-06 0.0675939
-0.00116468 -5.00076e-06 0.0675929
-0.00117316 -2.34103e-06 0.0675893
-0.00118132 -7.77507e-07 0.0675838
-0.00118927 -4.857e-07 0.0675763
-0.00119698 -1.12043e-06 0.0675657
-0.00120393 -2.15467e-06 0.0675049
-0.00121342 -2.91865e-06 0.0670539
-0.00122032 -2.90802e-06 0.0664747
-0.0012233 -2.44945e-06 0.0657766
-0.0012234 -2.14724e-06 0.0649846
-0.00122342 -2.87929e-06 0.0641193
-0.00122394 -5.38072e-06 0.0631934
-0.00122399 -8.19975e-06 0.0622083
-0.00122275 -9.61943e-06 0.0611632
-0.00122054 -9.30135e-06 0.0600461
-0.00121823 -7.63243e-06 0.0588694
-0.00121589 -5.62631e-06 0.0576577
-0.00118821 -6.51052e-06 0.0564289
-0.00115732 -9.55664e-06 0.0551999
-0.00112601 -1.26154e-05 0.0539928
-0.00109365 -1.44904e-05 0.0528184
-0.00106054 -1.61143e-05 0.0516983
-0.00102404 -1.85425e-05 0.05065
-0.000987987 -2.12772e-05 0.0496753
-0.00095327 -2.36247e-05 0.0487683
-0.000918135 -2.53536e-05 0.0479315
-0.000882173 -2.6604e-05 0.0471735
-0.000848732 -2.75467e-05 0.0465012
-0.000818772 -2.77559e-05 0.0459447
-0.000797179 -2.81788e-05 0.0455043
-0.000785919 -2.87033e-05 0.0451842
-0.000784627 -2.89909e-05 0.0449721
-0.000785323 -2.8725e-05 0.0448553
-0.000786154 -2.78684e-05 0.0448269
-0.00078714 -2.67377e-05 0.0448311
-0.000788729 -2.56476e-05 0.0448406
-0.000790444 -2.46075e-05 0.0448546
-0.000792205 -2.34754e-05 0.0448715
-0.000793914 -2.29448e-05 0.0448883
-0.000795556 -2.19013e-05 0.0449064
-0.000797295 -1.95521e-05 0.0449259
-0.000798847 -1.65257e-05 0.0449457
-0.000800244 -1.48461e-05 0.0449655
-0.00080159 -1.45037e-05 0.0449853
-0.000802699 -1.39553e-05 0.045004
-0.000804239 -1.25121e-05 0.0450215
-0.000806482 -1.08143e-05 0.0451075
-0.000807946 -9.81579e-06 0.0455363
-0.00080836 -9.76266e-06 0.0459799
-0.000808677 -9.8937e-06 0.0464229
-0.000809492 -9.52246e-06 0.0468278
-0.000810545 -8.57003e-06 0.0471835
-0.000811271 -7.28443e-06 0.0475016
-0.000811548 -5.76784e-06 0.0477894
-0.000812351 -3.88802e-06 0.0480727
-0.000811057 -2.70393e-06 0.0483471
-0.000808725 -2.59705e-06 0.0485814
-0.000808533 -2.76314e-06 0.0487891
-0.000808963 -3.0394e-06 0.0489647
-0.0008103 -3.30504e-06 0.049111
-0.00081016 -3.97304e-06 0.0492328
-0.000805504 -4.90215e-06 0.0493416
-0.000799796 -5.78202e-06 0.0494535
-0.000795714 -6.44205e-06 0.049556
-0.000794515 -6.88637e-06 0.0496493
-0.000794643 -7.28896e-06 0.0497425
-0.000794689 -7.85379e-06 0.0498441
-0.000794549 -8.66e-06 0.0499598
-0.000793373 -9.40337e-06 0.0500896
-0.000793473 -9.83755e-06 0.0502346
-0.000793893 -9.94349e-06 0.0503964
-0.000794999 -9.80229e-06 0.0505793
-0.000801114 -1.05903e-05 0.0507834
-0.000807767 -1.12716e-05 0.0510072
-0.000814669 -1.11651e-05 0.051258
-0.00082301 -1.03184e-05 0.0515186
-0.000833568 -9.55952e-06 0.0517979
-0.000845633 -9.08236e-06 0.0520965
-0.000858489 -8.58998e-06 0.0524104
-0.000871375 -8.71174e-06 0.0527301
-0.000884873 -7.89191e-06 0.0530373
-0.000898253 -6.21944e-06 0.0533194
-0.000911876 -4.39388e-06 0.0535749
-0.000926866 -3.05299e-06 0.053807
-0.000942038 -2.34873e-06 0.0540123
-0.00095623 -2.04912e-06 0.0541834
-0.000969564 -1.58876e-06 0.0543066
-0.000982385 -6.52402e-07 0.0543636
-0.000994263 5.68905e-07 0.0543637
-0.00100481 1.66837e-06 0.0543574
-0.00101401 2.17252e-06 0.0543473
-0.00102164 1.88942e-06 0.0543335
-0.00102763 1.07271e-06 0.0542825
-0.00103215 2.00094e-07 0.0538972
-0.0010353 5.96441e-07 0.0534025
-0.00103719 1.1046e-06 0.0528032
-0.00103712 4.87042e-07 0.0521317
-0.00103648 -1.47754e-06 0.0514005
-0.00103568 -3.95861e-06 0.0506075
-0.0010346 -5.87359e-06 0.0497436
-0.00103298 -6.85076e-06 0.0488083
-0.00103127 -7.53496e-06 0.0478034
-0.00102962 -8.85367e-06 0.0467424
-0.0010278 -1.11075e-05 0.0456409
-0.00102588 -1.39672e-05 0.0445083
-0.00102403 -1.67112e-05 0.0433514
-0.00102223 -1.88183e-05 0.0421809
-0.00102034 -2.03728e-05 0.0410122
-0.00101839 -2.18882e-05 0.0398595
-0.00101658 -2.37987e-05 0.038731
-0.00101507 -2.60404e-05 0.0376303
-0.00101382 -2.82647e-05 0.0365624
-0.00101272 -2.96646e-05 0.0355593
-0.00101197 -3.10085e-05 0.0346085
-0.00101137 -3.23759e-05 0.0337172
-0.00101118 -3.33382e-05 0.0328891
-0.00101145 -3.4304e-05 0.032134
-0.0010122 -3.543e-05 0.0314576
-0.00101321 -3.65599e-05 0.0308591
-0.00101457 -3.70441e-05 0.0303294
-0.00101636 -3.6543e-05 0.0298608
-0.0010181 -3.57167e-05 0.029455
-0.00102025 -3.53579e-05 0.0291119
-0.00102316 -3.56223e-05 0.0288267
-0.00102628 -3.57298e-05 0.0285955
-0.00102813 -3.54709e-05 0.0284131
-0.00102926 -3.4721e-05 0.0282641
-0.00103058 -3.35938e-05 0.028147
-0.00103226 -3.23805e-05 0.0280518
-0.00103406 -3.13618e-05 0.0279795
-0.00103567 -3.06647e-05 0.0279304
-0.00103684 -3.03938e-05 0.0278999
-0.00104768 -3.03988e-05 0.0278734
-0.00106265 -3.00724e-05 0.0278377
-0.00107472 -2.94427e-05 0.0277868
-0.00108236 -2.87386e-05 0.0277179
-0.00108915 -2.80448e-05 0.0276292
-0.0010977 -2.74979e-05 0.0275221
-0.00110589 -2.73996e-05 0.0274015
-0.00111204 -2.8009e-05 0.027269
-0.00111551 -2.89724e-05 0.0271186
-0.00111739 -2.98775e-05 0.0269397
-0.00111878 -3.04357e-05 0.0267255
-0.00112015 -3.06732e-05 0.0264784
-0.0011205 -3.10077e-05 0.0262114
-0.00112031 -3.13249e-05 0.025943
-0.00111995 -3.13686e-05 0.0256803
-0.00111959 -3.10042e-05 0.0254209
-0.00111912 -3.01822e-05 0.0251642
-0.00111854 -2.89602e-05 0.0249139
-0.00111808 -2.76479e-05 0.0246778
-0.00111772 -2.66418e-05 0.0244644
-0.0011174 -2.59367e-05 0.0242788
-0.00111712 -2.54405e-05 0.0241208
-0.001117 -2.51162e-05 0.023991
-0.00111707 -2.50892e-05 0.0238949
-0.00111733 -2.56569e-05 0.0238379
-0.00111776 -2.68925e-05 0.023823
-0.00111837 -2.8747e-05 0.0238254
-0.00111929 -3.11581e-05 0.0238301
-0.00112028 -3.4018e-05 0.0238366
-0.00112787 -3.72981e-05 0.0238449
-0.0011398 -4.03741e-05 0.0238553
-0.00115343 -4.0105e-05 0.0238692
-0.0011649 -3.93236e-05 0.0238832
-0.00117403 -3.81474e-05 0.0238969
-0.0011849 -3.67829e-05 0.0239115
-0.00119894 -3.56369e-05 0.0239266
-0.00121422 -3.47485e-05 0.0239409
-0.00122842 -3.39083e-05 0.0239547
-0.00124065 -3.30634e-05 0.0239673
-0.0012526 -3.2056e-05 0.0239786
-0.00126471 -3.09206e-05 0.0239892
-0.00127785 -3.05418e-05 0.0239993
-0.00129077 -3.00027e-05 0.0240072
-0.00130086 -2.92894e-05 0.024013
-0.00130869 -2.85358e-05 0.0240165
-0.00131632 -2.79069e-05 0.0240177
-0.00132451 -2.75843e-05 0.0240168
-0.00133221 -2.76809e-05 0.0240138
-0.00133841 -2.83172e-05 0.0240091
-0.00134293 -2.91794e-05 0.024002
-0.0013463 -2.98691e-05 0.0239921
-0.00134918 -3.02994e-05 0.0239802
-0.00135147 -3.06202e-05 0.0239667
-0.00135349 -3.10695e-05 0.0239518
-0.00135443 -3.19516e-05 0.0239354
-0.00135442 -3.31944e-05 0.0239173
-0.00135436 -3.44906e-05 0.0238973
-0.00135429 -3.56158e-05 0.0238758
-0.00135421 -3.65398e-05 0.0238532
-0.00135408 -3.74086e-05 0.0238298
-0.00135392 -3.84028e-05 0.0235319
-0.00135383 -3.94272e-05 0.0229669
-0.00135379 -4.03337e-05 0.0223766
-0.00135378 -4.104e-05 0.0217608
-0.00135372 -4.16542e-05 0.0211442
-0.00135365 -4.23353e-05 0.0205401
-0.00135361 -4.31769e-05 0.0199492
-0.00135363 -4.41559e-05 0.0193737
-0.00135367 -4.51512e-05 0.0187918
-0.00135374 -4.60064e-05 0.0182034
-0.00135384 -4.66863e-05 0.0176114
-0.00135401 -4.72037e-05 0.0170283
-0.00135426 -4.76794e-05 0.0164548
-0.00135519 -4.83242e-05 0.0159048
-0.00135766 -4.91992e-05 0.0153727
-0.00136078 -5.00851e-05 0.014851
-0.0013648 -5.07371e-05 0.0143364
-0.0013695 -5.10607e-05 0.0138333
-0.00137458 -5.11785e-05 0.0133488
-0.00137985 -5.13493e-05 0.012888
-0.00138543 -5.17475e-05 0.01245
-0.00139156 -5.23125e-05 0.0120292
-0.00139852 -5.28303e-05 0.0116192
-0.00141962 -5.30602e-05 0.0112185
-0.00145415 -5.29334e-05 0.0108363
-0.0014925 -5.27483e-05 0.010455
-0.00154364 -6.35e-05 0.0100338
-0.00159999 -7.73722e-05 0.00959136
-0.00165921 -9.11341e-05 0.00917558
-0.00171562 -0.000104953 0.00877074
-0.00176931 -0.000118113 0.00835354
-0.001822 -0.000130139 0.00791372
-0.0018737 -0.000141422 0.00746243
-0.00192221 -0.000152759 0.0070189
-0.00196652 -0.000163785 0.0065803
-0.002006 -0.000174389 0.00613864
-0.00204174 -0.000184147 0.00568726
-0.00207468 -0.000192826 0.00522183
-0.00210412 -0.000200601 0.00474505
-0.00212987 -0.000207693 0.00426344
-0.00215311 -0.000214126 0.00378204
-0.00217517 -0.000219846 0.0033041
-0.00219641 -0.000224801 0.00283109
-0.00221672 -0.000228753 0.00235686
-0.00223602 -0.00023167 0.00187974
-0.00225521 -0.000233623 0.0014033
-0.00227514 -0.000234815 0.000935731
-0.00229579 -0.000235514 0.000486211
-0.00231693 -0.000235834 6.01886e-05
-0.00233885 -0.000235881 -0.000339142
-0.00236039 -0.000235876 -0.000704174
-0.00238203 -0.000235609 -0.00103723
-0.00240405 -0.000235041 -0.00133981
-0.00242596 -0.000234502 -0.00160487
-0.00244768 -0.000234258 -0.00182449
-0.00246955 -0.000234385 -0.00199506
-0.0024915 -0.000234912 -0.00211523
-0.00251297 -0.000235819 -0.00218534
-0.00253357 -0.000237055 -0.00220678
-0.00255317 -0.00023861 -0.0022043
-0.0025716 -0.000240565 -0.00219871
-0.00258853 -0.00024293 -0.00219033
-0.00260381 -0.00024561 -0.00217945
-0.00261715 -0.000248491 -0.00216627
-0.00262829 -0.000251445 -0.00215201
-0.00263718 -0.000254365 -0.00213835
-0.00264368 -0.000257253 -0.00212437
-0.00264716 -0.000260035 -0.00210924
-0.00264805 -0.000262552 -0.00209346
-0.00264769 -0.000264267 -0.00207768
-0.00264714 -0.000264737 -0.00206237
-0.00264642 -0.00026452 -0.00204715
-0.00264539 -0.000263967 -0.00203171
-0.00264382 -0.000262649 -0.00201636
-0.00264198 -0.000259959 -0.0020017
-0.00263988 -0.000255949 -0.00198803
-0.00263728 -0.000251305 -0.00197537
-0.00263417 -0.000245934 -0.00196396
-0.00263079 -0.000239319 -0.00195409
-0.00262711 -0.00023154 -0.00194565
-0.00262298 -0.000223041 -0.00193808
-0.00261849 -0.000214029 -0.00193107
-0.00261389 -0.000204499 -0.00192461
-0.00260925 -0.000194465 -0.0019187
-0.00260456 -0.000184097 -0.00191302
-0.00259967 -0.000173582 -0.00190753
-0.00259483 -0.000162967 -0.00190189
-0.00259012 -0.00015241 -0.00189581
-0.00258555 -0.000141975 -0.00188933
-0.00258097 -0.000131768 -0.00188253
-0.00257646 -0.000121877 -0.0018754
-0.00257225 -0.000112235 -0.00186786
-0.00256819 -0.000103563 -0.00185912
-0.00256446 -9.58127e-05 -0.00184904
-0.00256106 -8.89219e-05 -0.00183763
-0.00255793 -8.27228e-05 -0.00182522
-0.00255495 -7.70423e-05 -0.00181223
-0.00255207 -7.17732e-05 -0.00179897
-0.00254941 -6.68965e-05 -0.00178552
-0.0025471 -6.28289e-05 -0.00177139
-0.00254525 -5.97794e-05 -0.00175631
-0.0025438 -5.77207e-05 -0.00174039
-0.00254266 -5.64406e-05 -0.00165085
-0.00254178 -5.59497e-05 -0.00122344
-0.00254147 -5.56093e-05 -0.000793406
-0.00254156 -5.56793e-05 -0.000356624
-0.00254197 -5.62881e-05 8.33014e-05
-0.00254269 -5.73112e-05 0.000520911
-0.00254361 -5.83401e-05 0.000935949
-0.00254463 -5.91951e-05 0.00131688
-0.00254588 -5.97502e-05 0.00165688
-0.00254728 -6.01246e-05 0.00195737
-0.00254873 -6.05311e-05 0.00222622
-0.00255023 -6.10327e-05 0.00247902
-0.00255185 -6.15169e-05 0.00270939
-0.00255353 -6.19003e-05 0.0029092
-0.00255515 -6.20751e-05 0.00307467
-0.00255669 -6.19555e-05 0.00319586
-0.00255803 -6.16081e-05 0.00326885
-0.00255921 -6.10266e-05 0.00329409
-0.00256027 -6.0304e-05 0.00329247
-0.00256118 -5.96418e-05 0.00328924
-0.00256186 -5.91231e-05 0.00328476
-0.00256232 -5.86203e-05 0.00322467
-0.00256267 -5.8041e-05 0.00312643
-0.00256288 -5.74117e-05 0.00300805
-0.00256292 -5.69393e-05 0.00288958
-0.00256281 -5.67707e-05 0.00276727
-0.00256261 -5.69779e-05 0.00263517
-0.00256236 -5.74665e-05 0.00249511
-0.00256206 -5.82389e-05 0.00234869
-0.00256178 -5.94442e-05 0.00219798
-0.00256152 -6.11801e-05 0.00204337
-0.00256131 -6.32031e-05 0.00188384
-0.00256118 -6.55152e-05 0.00172029
-0.00256115 -6.8231e-05 0.00155446
-0.00256118 -7.15142e-05 0.00138968
-0.0025613 -7.52706e-05 0.00122741
-0.00256149 -7.93849e-05 0.00106751
-0.00256169 -8.38032e-05 0.000908796
-0.00256188 -8.84872e-05 0.000749591
-0.0025621 -9.34263e-05 0.00058889
-0.00256238 -9.86369e-05 0.000427183
-0.00256279 -0.000104122 0.000266053
-0.00256335 -0.000109849 0.000107278
-0.00256407 -0.000115721 -4.83056e-05
-0.00256498 -0.000121594 -0.000201356
-0.00256605 -0.00012735 -0.000353519
-0.00256732 -0.000132905 -0.000506683
-0.00256871 -0.000138311 -0.00066137
-0.00257014 -0.00014363 -0.000817041
-0.00257157 -0.000148867 -0.000972405
-0.00257298 -0.000153972 -0.00112612
-0.00257433 -0.000158861 -0.00127748
-0.00257549 -0.00016352 -0.00142614
-0.00257636 -0.000167954 -0.00157233
-0.00257692 -0.00017214 -0.0017169
-0.00257717 -0.000176052 -0.00186041
-0.00257707 -0.00017971 -0.00200245
-0.00257654 -0.000183153 -0.00214168
-0.00257547 -0.000186368 -0.00227673
-0.00257394 -0.000189249 -0.00240695
-0.00257198 -0.000191731 -0.00253215
-0.00256953 -0.000193809 -0.0026524
-0.00256662 -0.000195465 -0.00276803
-0.00256346 -0.000196678 -0.0028793
-0.0025602 -0.00019748 -0.0029856
-0.00255676 -0.000197963 -0.0030856
-0.00255309 -0.000198182 -0.00317683
-0.00254938 -0.000197914 -0.00325927
-0.00254578 -0.000196886 -0.00333452
-0.00254231 -0.000194941 -0.00340253
-0.00253888 -0.000192472 -0.00346075
-0.00253543 -0.000189729 -0.00350642
-0.00253209 -0.000186585 -0.00353986
-0.00252899 -0.000182844 -0.00356199
-0.00252608 -0.000178768 -0.00357215
-0.00252326 -0.000174523 -0.00357234
-0.00252056 -0.000169901 -0.00357085
-0.00251809 -0.000164863 -0.00356811
-0.00251591 -0.000159634 -0.00356379
-0.00251397 -0.000154442 -0.00355741
-0.00251226 -0.000149238 -0.00354882
-0.00251077 -0.000144196 -0.00353836
-0.0025095 -0.000139315 -0.00352719
-0.00250846 -0.00013453 -0.00351576
-0.00250758 -0.000129832 -0.00350306
-0.0025069 -0.000125174 -0.00348908
-0.00250649 -0.00012048 -0.00347411
-0.0025065 -0.000115847 -0.0034582
-0.00250681 -0.000111503 -0.00344112
-0.00250737 -0.000107507 -0.00342276
-0.00250824 -0.000103761 -0.00340324
-0.00250921 -0.000100127 -0.00338291
-0.00251018 -9.66506e-05 -0.00336229
-0.00251121 -9.32314e-05 -0.00334188
-0.00251226 -8.99072e-05 -0.00332183
-0.00251327 -8.65919e-05 -0.00330262
-0.00251417 -8.32932e-05 -0.00328359
-0.00251487 -8.03217e-05 -0.00300767
-0.00251535 -7.78366e-05 -0.00246045
-0.00251571 -7.55155e-05 -0.00192046
-0.00251596 -7.33497e-05 -0.00138048
-0.00251599 -7.118e-05 -0.00085097
-0.0025157 -6.8811e-05 -0.000348787
-0.00251514 -6.61342e-05 0.000113684
-0.00251439 -6.31515e-05 0.000535678
-0.00251342 -5.98756e-05 0.000916525
-0.00251224 -5.64689e-05 0.00127309
-0.00251091 -5.3067e-05 0.00162144
-0.00250942 -4.95129e-05 0.00194429
-0.00250787 -4.5757e-05 0.00223995
-0.00250621 -4.1853e-05 0.00250163
-0.00250428 -3.80127e-05 0.00272518
-0.00250226 -3.43537e-05 0.00290896
-0.00250024 -3.08177e-05 0.0030568
-0.00249814 -2.73325e-05 0.00316772
-0.00249585 -2.36926e-05 0.00325108
-0.00249333 -2.03443e-05 0.00332294
-0.00249067 -1.71986e-05 0.00338366
-0.00248793 -1.4201e-05 0.00341846
-0.00248512 -1.14722e-05 0.00342585
-0.00248221 -9.08671e-06 0.00342438
-0.00247914 -7.07514e-06 0.00342185
-0.00247592 -5.4307e-06 0.00341855
-0.00247263 -4.14632e-06 0.00341454
-0.00246935 -3.34929e-06 0.0033796
-0.00246605 -2.86289e-06 0.00331617
-0.00246271 -2.92774e-06 0.00325248
-0.00245934 -2.90572e-06 0.00319138
-0.00245595 -2.69784e-06 0.00312986
-0.00245268 -2.60422e-06 0.00306532
-0.00244961 -2.73482e-06 0.00300071
-0.00244668 -3.02579e-06 0.0029375
-0.00244386 -3.27074e-06 0.00287497
-0.00244126 -3.41934e-06 0.00281182
-0.00243892 -3.63248e-06 0.0027473
-0.00243687 -4.07118e-06 0.00268234
-0.00243509 -4.71535e-06 0.00261732
-0.00243378 -5.45787e-06 0.00255216
-0.00243285 -6.24475e-06 0.00248724
-0.00243207 -7.04666e-06 0.00242398
-0.00243162 -7.94223e-06 0.00236274
-0.00242712 -8.9022e-06 0.00230258
-0.00242677 -9.98396e-06 0.00224398
-0.00242677 -1.10441e-05 0.00218406
-0.00242666 -1.20121e-05 0.00212217
-0.00242681 -1.28755e-05 0.00205817
-0.00242708 -1.36252e-05 0.00199219
-0.00242767 -1.4255e-05 0.00192397
-0.00242797 -1.48048e-05 0.00185492
-0.00242794 -1.52219e-05 0.00178412
-0.00242785 -1.54901e-05 0.00171179
-0.00242785 -1.55679e-05 0.00163729
-0.00242787 -1.54361e-05 0.00156131
-0.00242781 -1.49972e-05 0.00148446
-0.00242607 -1.42349e-05 0.00140676
-0.00242129 -1.31696e-05 0.00132964
-0.00241505 -1.17942e-05 0.00125371
-0.00240786 -1.00712e-05 0.00117921
-0.00239987 -7.95164e-06 0.00110641
-0.00239054 -5.7793e-06 0.00103513
-0.00237984 -5.10987e-06 0.000960333
-0.00237008 -5.14784e-06 0.00088597
-0.002362 -5.30547e-06 0.000817238
-0.00235422 -5.7667e-06 0.000751904
-0.00234446 -6.1684e-06 0.000693701
-0.0023318 -6.66036e-06 0.000643366
-0.00231903 -7.17436e-06 0.000602126
-0.00230821 -7.68128e-06 0.000573482
-0.00229888 -8.22704e-06 0.000559578
-0.00228948 -8.80707e-06 0.000559282
-0.00227961 -9.3746e-06 0.000561735
-0.00227021 -9.86781e-06 0.00056614
-0.00226258 -1.02044e-05 0.000571813
-0.00225695 -1.03171e-05 0.000577943
-0.00225261 -1.02056e-05 0.000585761
-0.00224874 -9.99528e-06 0.000595484
-0.00224562 -9.7411e-06 0.000607052
-0.00224505 -9.4298e-06 0.000620344
-0.00224516 -9.03483e-06 0.000635275
-0.00224532 -8.4892e-06 0.000651801
-0.00224544 -7.7311e-06 0.000670053
-0.00224572 -6.85036e-06 0.000829165
-0.00224606 -6.12305e-06 0.00136878
-0.00224633 -5.69776e-06 0.00192319
-0.00224654 -5.37554e-06 0.00250695
-0.00224675 -4.92784e-06 0.00310518
-0.00224703 -4.24758e-06 0.00371608
-0.00224735 -3.40868e-06 0.00433846
-0.00224763 -2.62689e-06 0.00497369
-0.00224782 -2.05879e-06 0.00562051
-0.00224793 -1.69348e-06 0.00627337
-0.00224801 -1.39674e-06 0.00692391
-0.00224809 -1.03864e-06 0.00756487
-0.00224815 -5.92988e-07 0.00819315
-0.00224813 -1.44594e-07 0.00881004
-0.00224802 1.58527e-07 0.00941874
-0.00224783 2.68051e-07 0.0100207
-0.00224763 3.76556e-07 0.0106148
-0.00224745 4.75352e-07 0.0111997
-0.00224719 5.23635e-07 0.0117747
-0.00224687 5.44409e-07 0.0123356
-0.00224651 5.27138e-07 0.0128823
-0.00224612 4.31999e-07 0.0134147
-0.00224575 2.81901e-07 0.0139343
-0.00224548 3.09152e-07 0.0144438
-0.00224528 3.71927e-07 0.0149482
-0.00224519 2.33563e-07 0.0154545
-0.00224535 -1.05371e-07 0.0159617
-0.00224573 -5.45905e-07 0.0164675
-0.00224626 -9.57597e-07 0.0169681
-0.00224661 -1.21862e-06 0.0174598
-0.0022466 -1.29814e-06 0.0179404
-0.00224655 -1.2557e-06 0.0184145
-0.00224656 -1.18739e-06 0.0188883
-0.00224669 -1.19235e-06 0.0193675
-0.00224694 -1.3132e-06 0.0198559
-0.00224729 -1.5044e-06 0.0203537
-0.00224775 -1.66485e-06 0.0208581
-0.00224831 -1.69312e-06 0.0213645
-0.00224896 -1.52849e-06 0.0218692
-0.0022497 -1.09385e-06 0.0223701
-0.00225043 -6.68745e-07 0.0228684
-0.00225123 -1.67779e-07 0.0233664
-0.00225217 3.98189e-07 0.0238654
-0.00225318 7.79217e-07 0.0243666
-0.00225418 1.18945e-06 0.0248665
-0.00225661 1.75599e-06 0.0253592
-0.00226222 1.95632e-06 0.0258354
-0.00226797 1.63534e-06 0.0262901
-0.0022739 1.13743e-06 0.0267215
-0.00227967 1.10904e-06 0.0271348
-0.00228547 1.4179e-06 0.0275156
-0.00229028 2.10841e-06 0.0278558
-0.00229409 2.84662e-06 0.0281561
-0.0022974 3.28265e-06 0.0284162
-0.00230063 3.40939e-06 0.028632
-0.00230256 3.47819e-06 0.0287958
-0.00230262 3.63095e-06 0.0289015
-0.00230202 3.86983e-06 0.0289469
-0.00230065 3.96494e-06 0.0289469
-0.00229911 3.85376e-06 0.0289417
-0.00229712 3.45343e-06 0.0289336
-0.0022946 2.9138e-06 0.0289227
-0.00227597 2.39468e-06 0.0289082
-0.00225722 1.87307e-06 0.0288917
-0.00225388 1.31559e-06 0.0286216
-0.00225392 6.55506e-07 0.0282641
-0.00225244 -2.09644e-07 0.0278586
-0.00224705 -1.11322e-06 0.0274094
-0.00223681 -2.07299e-06 0.0269239
-0.0022243 -2.99913e-06 0.0264059
-0.00221234 -3.93612e-06 0.025856
-0.00220118 -4.8928e-06 0.0252788
-0.00218939 -5.80784e-06 0.024684
-0.00217571 -6.55595e-06 0.0240716
-0.0021597 -7.23553e-06 0.0234479
-0.0021445 -8.23412e-06 0.0228243
-0.00213233 -9.54008e-06 0.0222046
-0.00212184 -1.11433e-05 0.0215914
-0.00211165 -1.29381e-05 0.0209844
-0.0021015 -1.47566e-05 0.0203838
-0.0020909 -1.56457e-05 0.019796
-0.00208304 -1.61349e-05 0.0192289
-0.00207637 -1.67963e-05 0.0186888
-0.00207048 -1.77045e-05 0.0181823
-0.00206801 -1.86701e-05 0.0177104
-0.00206748 -1.96506e-05 0.017272
-0.00206749 -2.05924e-05 0.0168643
-0.00206756 -2.12678e-05 0.0164845
-0.0020677 -2.14106e-05 0.0161322
-0.0020679 -2.1459e-05 0.0158112
-0.00206815 -2.16609e-05 0.0155261
-0.00206846 -2.20376e-05 0.0152783
-0.00206874 -2.26124e-05 0.0150655
-0.00206927 -2.3023e-05 0.0148816
-0.00206979 -2.29793e-05 0.0147233
-0.00207024 -2.27698e-05 0.0145911
-0.00207061 -2.25817e-05 0.0144865
-0.00207102 -2.25035e-05 0.0144095
-0.0020715 -2.25363e-05 0.014354
-0.00207192 -2.2591e-05 0.0143256
-0.00207229 -2.24959e-05 0.0143177
-0.0020726 -2.22106e-05 0.0143188
-0.0020729 -2.18403e-05 0.0143207
-0.00207321 -2.132e-05 0.0143235
-0.00207351 -2.06882e-05 0.0143273
-0.00207371 -1.95893e-05 0.0143326
-0.00207374 -1.81346e-05 0.0143391
-0.00207357 -1.5999e-05 0.0143457
-0.00207328 -1.27631e-05 0.0143517
-0.00207296 -8.66657e-06 0.0143573
-0.00207256 -5.54524e-06 0.0143631
-0.00207211 -4.72427e-06 0.0143689
-0.00207174 -5.17817e-06 0.0143752
-0.00207146 -5.94429e-06 0.014382
-0.0020711 -6.61093e-06 0.0143889
-0.00207046 -6.76034e-06 0.0143961
-0.00206962 -6.56138e-06 0.0144037
-0.00206881 -6.51473e-06 0.0144122
-0.00206811 -6.86312e-06 0.0144218
-0.00206651 -7.65161e-06 0.0144327
-0.00205235 -8.66084e-06 0.0144449
-0.00203626 -9.56965e-06 0.0144583
-0.00201976 -1.01371e-05 0.0144727
-0.00200437 -1.03096e-05 0.0144879
-0.00198976 -1.02194e-05 0.0145044
-0.00197539 -1.01212e-05 0.0145223
-0.00196266 -1.02193e-05 0.0149255
-0.0019507 -1.06747e-05 0.0154957
-0.00194768 -1.14959e-05 0.0161337
-0.00194823 -1.23612e-05 0.0168363
-0.00194937 -1.29158e-05 0.017596
-0.00195085 -1.29406e-05 0.0184043
-0.00195164 -1.24449e-05 0.0192561
-0.00195172 -1.16938e-05 0.0201496
-0.00195186 -1.09799e-05 0.0210976
-0.00195226 -1.04661e-05 0.0221091
-0.00195286 -1.01424e-05 0.023189
-0.00195355 -9.81829e-06 0.0243337
-0.00195436 -9.19935e-06 0.0255309
-0.00195526 -8.10102e-06 0.0267654
-0.00195623 -6.31207e-06 0.0280253
-0.00195733 -4.4809e-06 0.0293074
-0.00195851 -3.38747e-06 0.03061
-0.00195972 -2.4058e-06 0.0319248
-0.00196094 -8.70977e-07 0.033243
-0.0019621 9.20524e-07 0.0345593
-0.00196321 2.64841e-06 0.0358675
-0.00196481 4.27756e-06 0.0371582
-0.00196643 5.65621e-06 0.0384226
-0.00197296 6.83813e-06 0.0396513
-0.00197795 8.06124e-06 0.0408313
-0.00198324 9.33896e-06 0.0419522
-0.00198945 1.05764e-05 0.0430096
-0.00199555 1.16878e-05 0.0440046
-0.00200022 1.2586e-05 0.0449382
-0.00200335 1.32164e-05 0.045807
-0.00200589 1.36273e-05 0.0466021
-0.0020084 1.3921e-05 0.0473148
-0.00201053 1.41645e-05 0.0479397
-0.00201162 1.43516e-05 0.0484756
-0.00201166 1.4411e-05 0.0489269
-0.00201159 1.42857e-05 0.0492955
-0.0020114 1.3984e-05 0.0495843
-0.00201106 1.33789e-05 0.0497945
-0.00201052 1.26555e-05 0.0499305
-0.00201002 1.20321e-05 0.0500017
-0.00200957 1.15189e-05 0.0500144
-0.00200919 1.09333e-05 0.050011
-0.00200861 1.02275e-05 0.0500047
-0.00200758 9.2907e-06 0.0499961
-0.00200617 8.23037e-06 0.0499852
-0.00200452 7.22766e-06 0.0499722
-0.00198706 6.33941e-06 0.0499572
-0.00195529 5.49693e-06 0.0499409
-0.00191493 4.4878e-06 0.049899
-0.00186934 3.51823e-06 0.0495705
-0.00182228 2.12108e-06 0.0492143
-0.00177833 -3.50951e-08 0.0488414
-0.00174903 -2.16338e-06 0.0484572
-0.00173969 -3.09648e-06 0.0480838
-0.00173958 -3.36639e-06 0.047698
-0.00173994 -3.00357e-06 0.047297
-0.00174032 -2.53331e-06 0.0468834
-0.00174063 -2.41794e-06 0.046464
-0.001741 -2.95275e-06 0.0460423
-0.00174149 -3.8654e-06 0.0456142
-0.00174184 -4.5813e-06 0.0451692
-0.00174223 -4.69509e-06 0.0446959
-0.00174285 -4.81975e-06 0.0441889
-0.00174347 -4.75573e-06 0.0436492
-0.00174382 -4.68873e-06 0.0430856
-0.00174392 -4.79466e-06 0.0425019
-0.00174398 -5.19857e-06 0.0419006
-0.00174416 -6.07547e-06 0.0412799
-0.00174441 -7.13097e-06 0.0406351
-0.00174448 -8.01065e-06 0.0399605
-0.00174426 -8.62888e-06 0.0392542
-0.00174375 -9.1944e-06 0.0385184
-0.00174335 -9.95496e-06 0.0377579
-0.00174306 -1.0735e-05 0.0369798
-0.00174262 -1.17093e-05 0.0361946
-0.00174192 -1.30272e-05 0.0354116
-0.00174101 -1.43595e-05 0.0346343
-0.0017402 -1.54965e-05 0.0338653
-0.00173948 -1.66807e-05 0.0331085
-0.00172598 -1.75217e-05 0.03237
-0.00171003 -1.78484e-05 0.0316483
-0.00169089 -1.77599e-05 0.0309475
-0.00167063 -1.74027e-05 0.030275
-0.00165297 -1.68091e-05 0.0296388
-0.00163795 -1.64578e-05 0.0290456
-0.00162423 -1.68459e-05 0.0285008
-0.00161118 -1.77806e-05 0.0280108
-0.00159991 -1.87488e-05 0.0275807
-0.00159076 -1.95696e-05 0.0272113
-0.00158318 -2.01791e-05 0.0269031
-0.00157703 -2.05435e-05 0.0266572
-0.00157257 -2.05913e-05 0.0264763
-0.00157001 -2.04444e-05 0.0263652
-0.00156953 -2.03976e-05 0.0263294
-0.00156965 -2.03599e-05 0.0263329
-0.0015699 -2.00349e-05 0.026341
-0.00157026 -1.93552e-05 0.0263529
-0.00157063 -1.87056e-05 0.0263657
-0.00157124 -1.7779e-05 0.0263797
-0.00157201 -1.63764e-05 0.0263964
-0.00157261 -1.49404e-05 0.026416
-0.00157317 -1.37167e-05 0.0264378
-0.00157391 -1.26257e-05 0.0264612
-0.00157472 -1.14749e-05 0.0264859
-0.00157541 -1.01053e-05 0.0265115
-0.00157597 -8.54282e-06 0.0265379
-0.0015765 -7.09634e-06 0.0269636
-0.00157689 -6.14747e-06 0.0276856
-0.00157715 -5.67726e-06 0.0284169
-0.00157739 -5.42681e-06 0.029167
-0.00157757 -5.05319e-06 0.0299171
-0.00157763 -4.45288e-06 0.030656
-0.00157778 -3.79374e-06 0.0313799
-0.00157813 -3.32339e-06 0.0320911
-0.00157869 -3.17134e-06 0.0327961
-0.0015794 -3.26906e-06 0.0335003
-0.00158028 -3.43885e-06 0.0342051
-0.00158136 -3.55596e-06 0.034908
-0.00158254 -3.63091e-06 0.0356061
-0.00158317 -3.73316e-06 0.0362963
-0.00158305 -4.0388e-06 0.0369802
-0.00158245 -4.0066e-06 0.0376649
-0.00158183 -4.43699e-06 0.0383626
-0.00158126 -5.16889e-06 0.0390811
-0.00158073 -6.01833e-06 0.0398215
-0.0015802 -6.72975e-06 0.0405801
-0.0015797 -7.08964e-06 0.0413521
-0.00157928 -7.12456e-06 0.0421366
-0.00157897 -7.02457e-06 0.0429386
-0.00157875 -6.96903e-06 0.0437668
-0.00157866 -7.09405e-06 0.0446291
-0.00157883 -7.28769e-06 0.0455281
-0.00157894 -7.3132e-06 0.046461
-0.00157915 -7.11094e-06 0.0474219
-0.00157953 -6.40491e-06 0.048405
-0.00158011 -5.26301e-06 0.0494048
-0.00158076 -4.14906e-06 0.0504244
-0.00158151 -3.13913e-06 0.0514653
-0.0015824 -2.17074e-06 0.0525263
-0.00158344 -1.16776e-06 0.0536013
-0.00158452 5.98021e-08 0.054681
-0.00158563 1.60578e-06 0.0557541
-0.00158668 3.28245e-06 0.0568019
-0.00158776 4.7967e-06 0.0578062
-0.00158913 5.83887e-06 0.0587251
-0.00159075 6.53273e-06 0.0595712
-0.00159221 6.85088e-06 0.0604018
-0.00159336 6.77432e-06 0.0612296
-0.00159619 6.7978e-06 0.0620171
-0.00160334 7.44233e-06 0.0627223
-0.00161048 8.32966e-06 0.0633252
-0.00161618 9.3138e-06 0.0638436
-0.00162019 1.03331e-05 0.0642995
-0.00162185 1.12146e-05 0.0646903
-0.00162162 1.176e-05 0.064992
-0.00162067 1.19636e-05 0.0651857
-0.00161927 1.20135e-05 0.0652692
-0.00161399 1.22728e-05 0.0652727
-0.00157858 1.2224e-05 0.0652662
-0.00153425 1.1934e-05 0.0652546
-0.00149277 1.11316e-05 0.0652381
-0.00146812 9.89472e-06 0.0652169
-0.00145593 8.59987e-06 0.0651929
-0.00144415 7.38451e-06 0.065169
-0.00142656 6.09321e-06 0.0649606
-0.00140579 4.77441e-06 0.0642983
-0.00138675 3.5912e-06 0.0635922
-0.00136759 2.23474e-06 0.0628343
-0.00134908 8.2768e-07 0.0620464
-0.00132993 -6.66184e-07 0.0612328
-0.0013087 -2.43899e-06 0.0603965
-0.00128622 -4.20554e-06 0.0595381
-0.00126537 -5.72041e-06 0.0586645
-0.00124742 -7.01872e-06 0.0577911
-0.00123149 -8.32828e-06 0.0569335
-0.00121607 -1.00291e-05 0.0561042
-0.00120152 -1.19282e-05 0.0553031
-0.0011893 -1.32387e-05 0.0545402
-0.00117973 -1.42304e-05 0.0538024
-0.0011725 -1.49497e-05 0.0530914
-0.00116766 -1.53323e-05 0.0524097
-0.0011655 -1.53616e-05 0.0517684
-0.00116552 -1.54003e-05 0.0511822
-0.00116583 -1.59531e-05 0.0506648
-0.00116628 -1.67823e-05 0.0502132
-0.00116686 -1.73057e-05 0.0498137
-0.00116754 -1.71545e-05 0.0494533
-0.0011683 -1.63147e-05 0.0491205
-0.00116917 -1.52421e-05 0.0488134
-0.00117011 -1.45239e-05 0.0485322
-0.00117108 -1.42795e-05 0.0482765
-0.00117206 -1.41661e-05 0.0480424
-0.00117303 -1.37902e-05 0.0478218
-0.00117392 -1.30805e-05 0.0476053
-0.00117449 -1.24547e-05 0.0473843
-0.00117534 -1.20058e-05 0.0471501
-0.00117622 -1.13611e-05 0.0469003
-0.00117675 -1.11074e-05 0.0466404
-0.00117688 -1.12341e-05 0.0463726
-0.00117686 -1.13365e-05 0.0460911
-0.00117689 -1.14132e-05 0.0457924
-0.00117686 -1.17216e-05 0.0454774
-0.00117658 -1.20796e-05 0.0451476
-0.00117596 -1.15602e-05 0.0448096
-0.00117499 -9.91917e-06 0.0444683
-0.00117382 -7.14305e-06 0.044125
-0.00117259 -6.65286e-06 0.0437704
-0.00117146 -7.92596e-06 0.043401
-0.00117049 -9.28958e-06 0.043042
-0.00116946 -1.05032e-05 0.0426982
-0.00116804 -1.18376e-05 0.0423807
-0.00116651 -1.32175e-05 0.0420952
-0.00116308 -1.44993e-05 0.0418471
-0.0011455 -1.57349e-05 0.0416447
-0.00112974 -1.70289e-05 0.0414943
-0.00112016 -1.82341e-05 0.0414006
-0.00111801 -1.922e-05 0.0413721
-0.00111842 -2.00354e-05 0.0413756
-0.00111922 -2.06447e-05 0.0413835
-0.00112039 -2.09308e-05 0.0413948
-0.00112207 -2.08303e-05 0.0414073
-0.00112358 -2.03427e-05 0.0414236
-0.00112427 -1.98404e-05 0.041444
-0.00112458 -1.93113e-05 0.0414684
-0.00112509 -1.85343e-05 0.0414962
-0.00112592 -1.73901e-05 0.0415269
-0.00112684 -1.58108e-05 0.041805
-0.00112766 -1.41687e-05 0.0427029
-0.00112859 -1.28609e-05 0.043649
-0.00112986 -1.17106e-05 0.0446772
-0.00113136 -1.04175e-05 0.0457617
-0.00113265 -9.12284e-06 0.046885
-0.00113391 -7.77566e-06 0.048023
-0.00113538 -6.26912e-06 0.0491604
-0.00113694 -5.01724e-06 0.0502981
-0.00113827 -3.51555e-06 0.051429
-0.00113947 -1.59858e-06 0.0525482
-0.0011406 6.0233e-07 0.0536549
-0.00114166 3.19154e-06 0.054741
-0.00114274 5.27899e-06 0.0557872
-0.00114375 6.56571e-06 0.0567681
-0.00114455 7.56479e-06 0.0576926
-0.00114509 8.45204e-06 0.0585506
-0.00114545 9.18765e-06 0.0593438
-0.00114567 9.74899e-06 0.0600729
-0.00114579 1.01514e-05 0.0607377
-0.00114578 1.03288e-05 0.0613365
-0.0011457 1.02281e-05 0.0618654
-0.00114518 9.91691e-06 0.0623221
-0.00114435 9.49017e-06 0.0627054
-0.00114381 8.95353e-06 0.0630168
-0.00114326 8.38537e-06 0.0632656
-0.00114241 7.75431e-06 0.0634638
-0.00114128 6.79133e-06 0.0636197
-0.00114018 5.66239e-06 0.0637333
-0.00113927 4.57159e-06 0.0638044
-0.00113841 4.14043e-06 0.0638389
-0.00113743 3.34599e-06 0.063852
-0.00113643 2.18969e-06 0.0638612
-0.00113561 8.45035e-07 0.0638685
-0.00113495 -4.141e-07 0.0638701
-0.00113437 -1.26907e-06 0.0638698
-0.0011338 -1.63411e-06 0.0638693
-0.00113329 -1.71162e-06 0.0638688
-0.00113297 -1.75504e-06 0.0638691
-0.00113296 -1.92128e-06 0.0638715
-0.00113309 -2.29249e-06 0.0639126
-0.00113325 -3.31261e-06 0.063975
-0.00113368 -5.17596e-06 0.0640343
-0.00113451 -7.78191e-06 0.0640893
-0.00113545 -8.65342e-06 0.0641609
-0.00113609 -8.42841e-06 0.0642542
-0.00113662 -7.67045e-06 0.0643405
-0.00113714 -6.72751e-06 0.0644178
-0.00113799 -5.94263e-06 0.064479
-0.00113947 -5.08221e-06 0.064515
-0.00114099 -4.20922e-06 0.0645249
-0.00114183 -3.38596e-06 0.0645245
-0.00114248 -3.05568e-06 0.0645236
-0.0011434 -3.19879e-06 0.064521
-0.0011446 -3.20265e-06 0.0645155
-0.00114573 -2.95991e-06 0.0645067
-0.00114653 -2.41391e-06 0.0644949
-0.00114705 -1.7788e-06 0.0644802
-0.00114753 -1.37349e-06 0.0644633
-0.00115173 -1.42832e-06 0.0644454
-0.00115644 -2.23498e-06 0.0644281
-0.00115981 -3.57652e-06 0.0640956
-0.00116197 -4.41879e-06 0.0636163
-0.00116307 -4.49096e-06 0.0630682
-0.00116361 -4.21676e-06 0.0624626
-0.00116364 -4.27357e-06 0.0618156
-0.00116325 -5.1536e-06 0.0611362
-0.00116287 -6.76077e-06 0.0604207
-0.00116233 -8.41246e-06 0.0596609
-0.00116031 -9.6441e-06 0.0588546
-0.00114748 -1.04398e-05 0.0580077
-0.00113342 -1.11313e-05 0.0571334
-0.00111903 -1.19814e-05 0.0562467
-0.00110426 -1.33056e-05 0.0553645
-0.00108949 -1.50198e-05 0.0544899
-0.00107474 -1.68303e-05 0.0536196
-0.00105989 -1.84235e-05 0.0527473
-0.00104495 -1.96198e-05 0.05187
-0.00103022 -2.04878e-05 0.050992
-0.00101639 -2.12748e-05 0.0501243
-0.00100441 -2.2206e-05 0.0492807
-0.000994708 -2.32924e-05 0.0484733
-0.000988139 -2.42667e-05 0.0477104
-0.000984343 -2.53859e-05 0.0469954
-0.000982385 -2.6505e-05 0.0463271
-0.000982516 -2.72061e-05 0.045697
-0.000982929 -2.7408e-05 0.045101
-0.000983553 -2.75191e-05 0.04454
-0.000984479 -2.76777e-05 0.0440165
-0.000985786 -2.79067e-05 0.0435334
-0.000987437 -2.82041e-05 0.0430944
-0.000989152 -2.83601e-05 0.0427021
-0.000990854 -2.82477e-05 0.0423508
-0.000992196 -2.8024e-05 0.0420327
-0.000993336 -2.78026e-05 0.0417428
-0.000998327 -2.75473e-05 0.0414877
-0.00100356 -2.73452e-05 0.0412611
-0.00100891 -2.72402e-05 0.0410588
-0.00101622 -2.70926e-05 0.0408752
-0.00102464 -2.68067e-05 0.0407092
-0.00103214 -2.6426e-05 0.0405606
-0.00103802 -2.60758e-05 0.0404279
-0.00104331 -2.58641e-05 0.0403071
-0.00104907 -2.57972e-05 0.0401935
-0.00105521 -2.57735e-05 0.0400833
-0.00106073 -2.56933e-05 0.0399752
-0.00106502 -2.57548e-05 0.0398686
-0.00106837 -2.57044e-05 0.0397615
-0.00107119 -2.56166e-05 0.0396523
-0.00107392 -2.55743e-05 0.0395418
-0.00107645 -2.56467e-05 0.0394322
-0.00107829 -2.60088e-05 0.0393265
-0.00107936 -2.64969e-05 0.0392253
-0.00107992 -2.69381e-05 0.0391269
-0.00108013 -2.72173e-05 0.0390309
-0.00108013 -2.72343e-05 0.0389397
-0.00108008 -2.68861e-05 0.0388604
-0.00107994 -2.62675e-05 0.0387948
-0.00107972 -2.54443e-05 0.0387454
-0.00107949 -2.43897e-05 0.0387129
-0.0010793 -2.30449e-05 0.0386976
-0.00107914 -2.15623e-05 0.0386973
-0.00107898 -2.00676e-05 0.0386992
-0.00107885 -1.85846e-05 0.0387025
-0.00107878 -1.70819e-05 0.0387073
-0.00107881 -1.56686e-05 0.0387134
-0.00107894 -1.44795e-05 0.0387211
-0.00107915 -1.3591e-05 0.0387296
-0.00107947 -1.29755e-05 0.0387381
-0.00107988 -1.2455e-05 0.0387473
-0.00108186 -1.20472e-05 0.0387576
-0.001086 -1.16866e-05 0.0387689
-0.00109129 -1.13354e-05 0.0387808
-0.00109737 -1.11219e-05 0.0387933
-0.00110382 -1.10826e-05 0.0388063
-0.00111064 -1.11347e-05 0.0388198
-0.001118 -1.11728e-05 0.0388338
-0.00112589 -1.09104e-05 0.0388484
-0.00113371 -1.01824e-05 0.0388636
-0.00114116 -9.40266e-06 0.0388786
-0.00114843 -8.62759e-06 0.039047
-0.00115572 -7.99863e-06 0.0394131
-0.0011631 -7.55152e-06 0.0397573
-0.00117038 -7.30281e-06 0.0400921
-0.00117745 -7.18668e-06 0.0404078
-0.00118415 -6.8525e-06 0.040696
-0.00119022 -6.19666e-06 0.0409495
-0.00119597 -5.57654e-06 0.0411661
-0.00120154 -5.09856e-06 0.0413472
-0.0012068 -4.8371e-06 0.0414953
-0.0012117 -4.78427e-06 0.041612
-0.00121623 -4.90168e-06 0.0416969
-0.0012203 -5.10706e-06 0.0417467
-0.00122383 -5.30977e-06 0.0417573
-0.00122685 -5.45391e-06 0.0417547
-0.00122935 -5.54692e-06 0.0417496
-0.00123132 -5.67952e-06 0.0417013
-0.00123291 -6.04617e-06 0.0415338
-0.00123441 -6.63443e-06 0.0413571
-0.00123576 -7.28852e-06 0.0411581
-0.00123663 -7.85131e-06 0.0409243
-0.00123724 -8.26024e-06 0.040659
-0.0012377 -8.65407e-06 0.0403692
-0.00123814 -9.18181e-06 0.0400604
-0.00123861 -9.89987e-06 0.0397346
-0.00123908 -1.07368e-05 0.0393909
-0.00123961 -1.15418e-05 0.0390284
-0.00124036 -1.22055e-05 0.0386481
-0.00124138 -1.27453e-05 0.0382541
-0.00124265 -1.3273e-05 0.0378523
-0.0012442 -1.38895e-05 0.037447
-0.00124609 -1.45864e-05 0.0370432
-0.00124844 -1.52639e-05 0.0366388
-0.00125115 -1.59019e-05 0.0362319
-0.00125422 -1.64564e-05 0.0358192
-0.0012577 -1.70255e-05 0.0353991
-0.00126151 -1.75396e-05 0.0349713
-0.0012656 -1.80093e-05 0.0345374
-0.00127002 -1.84401e-05 0.0341002
-0.0012748 -1.88454e-05 0.0336627
-0.00127987 -1.92473e-05 0.0332262
-0.00128515 -1.96629e-05 0.03279
-0.00129061 -2.00964e-05 0.0323512
-0.00129621 -2.0543e-05 0.0319061
-0.00130189 -2.09906e-05 0.0314509
-0.00130759 -2.14262e-05 0.0309833
-0.00131323 -2.1845e-05 0.0305032
-0.00131875 -2.22559e-05 0.0300118
-0.00132412 -2.26792e-05 0.029511
-0.00132932 -2.31397e-05 0.0290019
-0.0013343 -2.3658e-05 0.0284841
-0.00133903 -2.4242e-05 0.0279559
-0.00134343 -2.48848e-05 0.0274144
-0.00134749 -2.55688e-05 0.0268572
-0.00135116 -2.62749e-05 0.0262831
-0.00135442 -2.69916e-05 0.0256926
-0.00135726 -2.77212e-05 0.0250884
-0.00135971 -2.8478e-05 0.0244735
-0.00136177 -2.9317e-05 0.0238513
-0.00136347 -3.02502e-05 0.0232235
-0.0013648 -3.12232e-05 0.0225903
-0.00136573 -3.21903e-05 0.0219512
-0.00136634 -3.31316e-05 0.0213066
-0.00136672 -3.40665e-05 0.0206583
-0.0013669 -3.50284e-05 0.0200095
-0.00136692 -3.60272e-05 0.0193648
-0.00136687 -3.6974e-05 0.0187287
-0.00136687 -3.77676e-05 0.0181061
-0.00136691 -3.88442e-05 0.017502
-0.00136687 -4.00586e-05 0.0169175
-0.00136688 -4.10552e-05 0.0163503
-0.00136691 -4.18379e-05 0.0158
-0.00136715 -4.25647e-05 0.0152688
-0.00136776 -4.32628e-05 0.01476
-0.00136876 -4.39797e-05 0.0142776
-0.00137 -4.4745e-05 0.0138254
-0.00137151 -4.5466e-05 0.0134054
-0.00137342 -4.60475e-05 0.0130218
-0.00137571 -4.65032e-05 0.0126702
-0.00137835 -4.68743e-05 0.0123498
-0.00138138 -4.72066e-05 0.0120606
-0.00138476 -4.75292e-05 0.0118035
-0.00138848 -4.78117e-05 0.0115788
-0.00139257 -4.79898e-05 0.0113877
-0.00139655 -4.80817e-05 0.01123
-0.00140117 -4.81581e-05 0.0111039
-0.00140674 -4.81487e-05 0.0110065
-0.00141211 -4.80969e-05 0.0109368
-0.00141711 -4.80392e-05 0.0108938
-0.00142214 -4.79304e-05 0.0108764
-0.00142763 -4.77703e-05 0.0108763
-0.00143337 -4.75871e-05 0.0108783
-0.00143898 -4.74798e-05 0.0108813
-0.00144439 -4.74487e-05 0.0108851
-0.00144949 -4.72206e-05 0.0108895
-0.00145406 -4.68231e-05 0.0108945
-0.00145861 -4.6271e-05 0.0109001
-0.00146318 -4.57522e-05 0.0109064
-0.00146738 -4.55606e-05 0.0109131
-0.00147124 -4.54167e-05 0.01092
-0.00147459 -4.5385e-05 0.0109269
-0.00147767 -4.53177e-05 0.0109335
-0.00148062 -4.49972e-05 0.0109395
-0.00148305 -4.45813e-05 0.0109453
-0.00148497 -4.40029e-05 0.0109509
-0.00148611 -4.3171e-05 0.0109567
-0.00148654 -4.19128e-05 0.0109624
-0.00148662 -4.02174e-05 0.0109681
-0.0014866 -3.82361e-05 0.0109738
-0.00148654 -3.61311e-05 0.0109797
-0.00148648 -3.40502e-05 0.0109857
-0.0014863 -3.19384e-05 0.0109918
-0.0014861 -2.96499e-05 0.0109977
-0.00148598 -2.73791e-05 0.0110037
-0.00148596 -2.51242e-05 0.0110097
-0.00148588 -2.29707e-05 0.011016
-0.00148576 -2.10157e-05 0.0110225
-0.0014857 -1.9231e-05 0.0110292
-0.00148574 -1.76081e-05 0.0110361
-0.00148585 -1.61809e-05 0.011043
-0.001486 -1.50228e-05 0.0110499
-0.0014862 -1.40801e-05 0.011057
-0.00148646 -1.34086e-05 0.0110643
-0.00148806 -1.30275e-05 0.0110718
-0.00149143 -1.29305e-05 0.0110796
-0.00149527 -1.31113e-05 0.0110874
-0.00149945 -1.36132e-05 0.0110951
-0.00150394 -1.43311e-05 0.0111025
-0.00150898 -1.516e-05 0.0111095
-0.00151433 -1.62252e-05 0.0111161
-0.00151931 -1.7592e-05 0.0111223
-0.00152459 -1.91202e-05 0.0111279
-0.00153039 -2.07598e-05 0.0111329
-0.00153612 -2.25437e-05 0.0111373
-0.00154149 -2.45523e-05 0.011141
-0.00154671 -2.67421e-05 0.0111438
-0.00155177 -2.89601e-05 0.0111455
-0.00155662 -3.11152e-05 0.0111461
-0.00156091 -3.13889e-05 0.0111459
-0.00156364 -3.15132e-05 0.0111447
-0.00156518 -3.17517e-05 0.0111423
-0.0015667 -3.20899e-05 0.0111384
-0.00156885 -3.24861e-05 0.0111331
-0.00157081 -3.29295e-05 0.0111272
-0.00157169 -3.34183e-05 0.0111202
-0.00157185 -3.39055e-05 0.011112
-0.00157185 -3.44037e-05 0.011103
-0.00157185 -3.49909e-05 0.0110933
-0.00157182 -3.56784e-05 0.0110829
-0.00157175 -3.64329e-05 0.0110717
-0.00157161 -3.72249e-05 0.0110594
-0.00157145 -3.80189e-05 0.0110461
-0.0015713 -3.88038e-05 0.0110321
-0.00157115 -3.96024e-05 0.0110177
-0.00157096 -4.04422e-05 0.0110031
-0.0015708 -4.13282e-05 0.0109886
-0.00157066 -4.22333e-05 0.0109739
-0.00157052 -4.31282e-05 0.0109591
-0.0015704 -4.39932e-05 0.0109441
-0.00157027 -4.48253e-05 0.0109291
-0.00157013 -4.56394e-05 0.0109143
-0.00156997 -4.6451e-05 0.0109001
-0.0015698 -4.72603e-05 0.0108864
-0.00156964 -4.80523e-05 0.0108516
-0.00156958 -4.87489e-05 0.0105873
-0.00156952 -4.92841e-05 0.0103159
-0.00156946 -4.96895e-05 0.0100439
-0.00156937 -5.007e-05 0.0097816
-0.0015693 -5.05226e-05 0.00953489
-0.00156925 -5.1053e-05 0.00930738
-0.00156919 -5.16348e-05 0.0090963
-0.00156911 -5.32083e-05 0.00889373
-0.00156978 -5.87848e-05 0.00865933
-0.00157044 -6.42406e-05 0.00842501
-0.00157104 -6.94805e-05 0.00818907
-0.00157171 -7.45478e-05 0.00796249
-0.00157401 -7.95456e-05 0.00774974
-0.00157615 -8.43734e-05 0.00755082
-0.00157786 -8.88066e-05 0.00735953
-0.00157956 -9.2689e-05 0.0071689
-0.00158049 -9.60521e-05 0.00697557
-0.00158042 -9.8973e-05 0.00678118
-0.0015801 -0.00010144 0.00659021
-0.00157977 -0.000103393 0.00640747
-0.00157935 -0.000104868 0.00623634
-0.00157869 -0.000105902 0.00607708
-0.00157784 -0.000106387 0.00592467
-0.00157692 -0.000106248 0.00577498
-0.0015759 -0.000105371 0.00562859
-0.00157475 -0.000104095 0.00549258
-0.00157356 -0.000102701 0.00537481
-0.00157231 -0.000100963 0.00527813
-0.00157104 -9.87492e-05 0.00520191
-0.00156978 -9.61698e-05 0.00514612
-0.00156855 -9.33962e-05 0.00510827
-0.00156739 -9.06019e-05 0.00508974
-0.0015663 -8.78524e-05 0.00508958
-0.00156536 -8.51146e-05 0.00509159
-0.00156451 -8.23241e-05 0.00509507
-0.0015638 -7.95151e-05 0.0051003
-0.00156314 -7.67391e-05 0.00510696
-0.0015625 -7.39977e-05 0.00511489
-0.00156198 -7.1185e-05 0.00512433
-0.00156155 -6.83371e-05 0.00513501
-0.00156122 -6.55565e-05 0.00514611
-0.00156097 -6.29144e-05 0.00515707
-0.00156078 -6.04717e-05 0.00516845
-0.00156068 -5.82038e-05 0.0051809
-0.00156058 -5.59734e-05 0.00519411
-0.00156055 -5.36599e-05 0.00520768
-0.00156056 -5.12651e-05 0.00522148
-0.00156055 -4.88831e-05 0.00523557
-0.00156051 -4.65143e-05 0.00525
-0.00156049 -4.41824e-05 0.00526474
-0.00156043 -4.19695e-05 0.00527957
-0.0015603 -3.97218e-05 0.00529407
-0.00156008 -3.73299e-05 0.00530792
-0.00155975 -3.47382e-05 0.0053209
-0.00155933 -3.19196e-05 0.00533301
-0.00155879 -2.89481e-05 0.00534516
-0.00155817 -2.59041e-05 0.00535749
-0.00155751 -2.28277e-05 0.00536922
-0.00155669 -1.9743e-05 0.00538066
-0.00155574 -1.65278e-05 0.00539146
-0.00155467 -1.31484e-05 0.00540135
-0.00155354 -9.68931e-06 0.00541011
-0.00155232 -6.43445e-06 0.00541787
-0.00155106 -3.65507e-06 0.00542474
-0.0015498 -1.54399e-06 0.00543084
-0.00154858 -1.10927e-07 0.00543638
-0.0015474 6.64371e-07 0.00544126
-0.0015462 9.91743e-07 0.00544552
-0.00154492 1.29225e-06 0.00544908
-0.00154357 1.33642e-06 0.00545182
-0.00154214 1.4027e-06 0.0054539
-0.00154068 1.38739e-06 0.00545543
-0.0015392 1.17943e-06 0.00545657
-0.00153769 8.22049e-07 0.00545738
-0.00153612 4.27324e-07 0.00545801
-0.00153449 6.94733e-08 0.00545841
-0.00153283 -1.99682e-07 0.00545851
-0.00153112 -3.89898e-07 0.00545836
-0.00152938 -5.37707e-07 0.00545791
-0.00152762 -6.80671e-07 0.00545742
-0.00152585 -8.52942e-07 0.0054571
-0.00152415 -1.05219e-06 0.00545694
-0.00152245 -1.23568e-06 0.00545678
-0.00152084 -1.35764e-06 0.00545656
-0.00151921 -1.39202e-06 0.00545628
-0.0015177 -1.33071e-06 0.00545605
-0.00151618 -1.22117e-06 0.00545591
-0.00151487 -1.16221e-06 0.00545588
-0.00151365 -1.35089e-06 0.00545576
-0.00151268 -1.68212e-06 0.00545545
-0.00151169 -1.82797e-06 0.00545501
-0.00151092 -1.94986e-06 0.00545441
-0.00151015 -2.12853e-06 0.00545358
-0.00150961 -2.42555e-06 0.00545251
-0.00150921 -2.75184e-06 0.00545103
-0.00150897 -3.0595e-06 0.00544925
-0.00150879 -3.32773e-06 0.00544713
-0.00150852 -3.58614e-06 0.00544472
-0.00150823 -3.89423e-06 0.00544212
-0.00150816 -4.24851e-06 0.00543951
-0.00150813 -4.58254e-06 0.00543689
-0.00150758 -4.84512e-06 0.005434
-0.00150585 -5.00166e-06 0.00543074
-0.00150255 -5.12787e-06 0.00542724
-0.00149959 -5.23929e-06 0.00542345
-0.00149738 -5.31356e-06 0.00541941
-0.00149574 -5.26969e-06 0.00541517
-0.00149378 -5.09543e-06 0.00541078
-0.00149041 -4.7844e-06 0.00540628
-0.00148546 -4.31136e-06 0.00540169
-0.00147972 -3.65838e-06 0.00539707
-0.00147419 -2.97888e-06 0.0053925
-0.00146969 -2.62352e-06 0.00538793
-0.00146547 -2.74589e-06 0.00538331
-0.00146133 -3.07661e-06 0.00537883
-0.00145748 -3.439e-06 0.00537463
-0.00145379 -3.74654e-06 0.00537075
-0.00144989 -4.06925e-06 0.00536721
-0.00144623 -4.36223e-06 0.00536405
-0.00144297 -4.58883e-06 0.0053613
-0.00143999 -4.76992e-06 0.00535901
-0.00143715 -4.92726e-06 0.00535726
-0.00143445 -5.07678e-06 0.00535613
-0.00143202 -5.2248e-06 0.00535568
-0.00143004 -5.3574e-06 0.00535603
-0.00142857 -5.45035e-06 0.00535725
-0.00142752 -5.48113e-06 0.00535931
-0.00142675 -5.43418e-06 0.00536201
-0.00142622 -5.29443e-06 0.00536488
-0.00142602 -5.09591e-06 0.00536841
-0.00142603 -4.94958e-06 0.00537274
-0.00142607 -4.84706e-06 0.00537777
-0.00142613 -4.71842e-06 0.00538337
-0.00142619 -4.51703e-06 0.00538945
-0.00142627 -4.22439e-06 0.00539599
-0.00142635 -3.87412e-06 0.005403
-0.00142644 -3.53643e-06 0.0054105
-0.00142653 -3.25213e-06 0.00541842
-0.00142662 -3.00458e-06 0.0054266
-0.0014267 -2.74922e-06 0.0054349
-0.00142677 -2.4691e-06 0.00544313
-0.00142682 -2.17032e-06 0.00545128
-0.00142685 -1.86745e-06 0.00545939
-0.00142688 -1.59573e-06 0.00546759
-0.00142689 -1.36645e-06 0.00548912
-0.00142687 -1.20321e-06 0.00569551
-0.0014268 -1.16158e-06 0.00592569
-0.00142668 -1.1949e-06 0.00616078
-0.00142657 -1.24006e-06 0.00639407
-0.00142645 -1.24615e-06 0.0066211
-0.00142633 -1.21105e-06 0.00683976
-0.00142617 -1.17458e-06 0.00705048
-0.00142551 -1.19021e-06 0.00725707
-0.0014223 -1.26599e-06 0.00746346
-0.00141897 -1.37037e-06 0.00767295
-0.0014156 -1.36892e-06 0.0078871
-0.00141222 -1.42316e-06 0.00810652
-0.001409 -1.52416e-06 0.00832969
-0.00140573 -1.65832e-06 0.00855382
-0.00140229 -1.79472e-06 0.00877637
-0.00139926 -1.88471e-06 0.00899597
-0.00139609 -1.90571e-06 0.00921418
-0.00139274 -1.89535e-06 0.00943441
-0.00138986 -1.88165e-06 0.00966022
-0.0013875 -1.88052e-06 0.00989426
-0.00138549 -1.89164e-06 0.0101371
-0.00138358 -1.90608e-06 0.010387
-0.00138178 -1.90129e-06 0.010641
-0.00138033 -1.85465e-06 0.0108958
-0.00137932 -1.75844e-06 0.0111496
-0.00137866 -1.62139e-06 0.0114025
-0.00137823 -1.46064e-06 0.0116565
-0.00137801 -1.29449e-06 0.0119138
-0.001378 -1.13386e-06 0.0121758
-0.00137803 -9.76553e-07 0.0124423
-0.00137807 -8.05495e-07 0.0127112
-0.00137812 -6.10553e-07 0.0129793
-0.00137818 -3.94869e-07 0.0132434
-0.00137824 -1.70331e-07 0.0135008
-0.00137831 5.18482e-08 0.0137504
-0.00137838 2.67338e-07 0.0139923
-0.00137843 4.78653e-07 0.0142271
-0.0013785 6.86266e-07 0.0144555
-0.00137859 8.78272e-07 0.0146773
-0.00137866 1.05548e-06 0.0148916
-0.0013787 1.21705e-06 0.015096
-0.00137872 1.3569e-06 0.0152877
-0.00137873 1.47496e-06 0.0154642
-0.00137874 1.57549e-06 0.0156239
-0.00137875 1.6597e-06 0.015767
-0.00137873 1.72493e-06 0.0158949
-0.00137868 1.76621e-06 0.0160091
-0.0013786 1.77741e-06 0.0161107
-0.00137852 1.75474e-06 0.0161997
-0.00137844 1.6989e-06 0.016275
-0.00137834 1.62071e-06 0.0163349
-0.00137822 1.56071e-06 0.0163787
-0.00137807 1.49864e-06 0.0164074
-0.00137695 1.39166e-06 0.016423
-0.0013747 1.24409e-06 0.0164279
-0.00137227 1.06519e-06 0.0164276
-0.0013694 8.7361e-07 0.0164267
-0.00136649 6.89412e-07 0.0164254
-0.00136371 5.1671e-07 0.0164235
-0.00136104 3.44931e-07 0.0164213
-0.00135852 1.65753e-07 0.0164188
-0.00135608 -2.61612e-08 0.0164162
-0.00135372 -2.26724e-07 0.0164134
-0.00135155 -4.21083e-07 0.0164104
-0.00134969 -5.92812e-07 0.0164075
-0.00134817 -7.33741e-07 0.0164046
-0.00134698 -8.42555e-07 0.0163701
-0.00134615 -9.15483e-07 0.0163246
-0.0013457 -9.49225e-07 0.016282
-0.00134555 -9.62144e-07 0.0162431
-0.00134555 -1.12381e-06 0.0162066
-0.00134558 -1.42495e-06 0.0161723
-0.00134565 -1.84232e-06 0.0161388
-0.00134576 -2.35529e-06 0.0161061
-0.00134588 -2.83808e-06 0.0160747
-0.001346 -3.08364e-06 0.0160459
-0.00134608 -3.16745e-06 0.0160187
-0.00134615 -3.1771e-06 0.0159917
-0.00134622 -3.199e-06 0.0159645
-0.00134632 -3.26276e-06 0.0159367
-0.00134644 -3.34707e-06 0.015908
-0.00134655 -3.41662e-06 0.015878
-0.00134662 -3.45939e-06 0.0158468
-0.00134667 -3.49293e-06 0.0158143
-0.00134671 -3.54958e-06 0.0157806
-0.00134674 -3.63492e-06 0.0157454
-0.00134682 -3.71687e-06 0.0157079
-0.00134687 -3.77911e-06 0.0156684
-0.00134685 -3.84564e-06 0.015627
-0.00134679 -3.90763e-06 0.015584
-0.00134673 -3.93354e-06 0.0155395
-0.00134668 -3.84584e-06 0.0154946
-0.00134662 -3.64267e-06 0.0154494
-0.00134651 -3.3309e-06 0.0154044
-0.00134635 -3.06599e-06 0.0153597
-0.00134619 -3.07625e-06 0.0153137
-0.00134609 -3.2373e-06 0.0152684
-0.00134601 -3.44412e-06 0.015225
-0.0013459 -3.61325e-06 0.0151841
-0.00134577 -3.77812e-06 0.0151464
-0.00134561 -3.91653e-06 0.0151123
-0.00134461 -4.03214e-06 0.0150823
-0.00134302 -4.19501e-06 0.0150573
-0.00134096 -4.43304e-06 0.0150373
-0.00133875 -4.56769e-06 0.0150218
-0.00133698 -4.57508e-06 0.0150109
-0.00133554 -4.57222e-06 0.0150063
-0.00133425 -4.62853e-06 0.0150066
-0.00133317 -4.72594e-06 0.0150075
-0.00133227 -4.81513e-06 0.0150091
-0.00133162 -4.83452e-06 0.0150108
-0.00133134 -4.74229e-06 0.0150126
-0.00133134 -4.59739e-06 0.0150149
-0.00133134 -4.49145e-06 0.0150176
-0.00133136 -4.4231e-06 0.0150208
-0.0013314 -4.35626e-06 0.0150243
-0.00133147 -4.24533e-06 0.0150281
-0.00133154 -4.05882e-06 0.0150321
-0.0013316 -3.82191e-06 0.0150445
-0.00133165 -3.62033e-06 0.0151529
-0.0013317 -3.5055e-06 0.0152741
-0.00133177 -3.43784e-06 0.0154034
-0.00133185 -3.36138e-06 0.0155386
-0.00133194 -3.22767e-06 0.0156783
-0.00133204 -3.06464e-06 0.0158202
-0.00133218 -2.87333e-06 0.0159624
-0.00133234 -2.69116e-06 0.016104
-0.00133251 -2.57108e-06 0.0162449
-0.00133271 -2.4942e-06 0.0163849
-0.00133292 -2.41046e-06 0.016524
-0.00133314 -2.30377e-06 0.0166622
-0.00133337 -2.18406e-06 0.0167995
-0.0013336 -2.07576e-06 0.0169353
-0.00133383 -2.00534e-06 0.0170686
-0.00133407 -1.97263e-06 0.0171982
-0.00133431 -1.96108e-06 0.0173229
-0.00133455 -1.94724e-06 0.0174424
-0.00133478 -1.91863e-06 0.017557
-0.00133502 -1.88688e-06 0.0176681
-0.00133524 -1.87346e-06 0.0177767
-0.00133544 -1.89001e-06 0.0178833
-0.0013356 -1.93152e-06 0.0179878
-0.00133573 -1.98171e-06 0.0180892
-0.0013358 -2.02463e-06 0.0181866
-0.00133585 -2.05537e-06 0.0182799
-0.00133586 -2.08065e-06 0.0183698
-0.00133587 -2.10976e-06 0.0184574
-0.00133587 -2.14634e-06 0.0185439
-0.00133588 -2.18468e-06 0.0186303
-0.00133589 -2.21647e-06 0.0187167
-0.00133591 -2.23659e-06 0.0188028
-0.00133594 -2.24264e-06 0.0188881
-0.00133598 -2.23606e-06 0.0189719
-0.00133603 -2.22041e-06 0.0190541
-0.00133609 -2.19582e-06 0.0191349
-0.00133616 -2.15995e-06 0.0192147
-0.00133625 -2.11109e-06 0.019294
-0.00133634 -2.04972e-06 0.019373
-0.00133645 -1.97837e-06 0.0194514
-0.00133656 -1.89987e-06 0.0195283
-0.00133669 -1.81562e-06 0.0196028
-0.00133682 -1.72467e-06 0.0196737
-0.00133696 -1.68269e-06 0.0197401
-0.00133711 -1.72725e-06 0.0198009
-0.00133728 -1.87265e-06 0.0198566
-0.00133746 -2.05579e-06 0.0199072
-0.00133761 -2.08585e-06 0.0199533
-0.00133774 -2.02216e-06 0.0199929
-0.00133787 -1.94067e-06 0.0200247
-0.001338 -1.90872e-06 0.0200482
-0.00133812 -1.93686e-06 0.0200629
-0.00133822 -1.97861e-06 0.0200669
-0.00133831 -1.99995e-06 0.0200665
-0.00133838 -2.00615e-06 0.0200656
-0.00133844 -2.0321e-06 0.0200643
-0.00133848 -2.14424e-06 0.0200626
-0.00133851 -2.34174e-06 0.0200603
-0.00133852 -2.53263e-06 0.0200575
-0.00133851 -2.67574e-06 0.0200547
-0.00133848 -2.80234e-06 0.0200135
-0.00133846 -2.92414e-06 0.0199552
-0.00133841 -3.05322e-06 0.0198903
-0.00133833 -3.22362e-06 0.0198208
-0.00133824 -3.43577e-06 0.0197479
-0.00133813 -3.64461e-06 0.0196717
-0.00133801 -3.87219e-06 0.0195919
-0.00133788 -4.08341e-06 0.0195089
-0.00133774 -4.28565e-06 0.0194235
-0.0013376 -4.48961e-06 0.0193361
-0.00133746 -4.7083e-06 0.0192479
-0.00133732 -4.92872e-06 0.0191591
-0.00133719 -5.16283e-06 0.0190701
-0.00133707 -5.40543e-06 0.0189809
-0.00133696 -5.63704e-06 0.0188915
-0.00133687 -5.85261e-06 0.0188025
-0.00133679 -6.06029e-06 0.0187145
-0.00133674 -6.26828e-06 0.0186284
-0.00133671 -6.48135e-06 0.0185449
-0.0013367 -6.69765e-06 0.0184641
-0.00133672 -6.90907e-06 0.018386
-0.00133676 -7.10906e-06 0.0183104
-0.00133682 -7.29745e-06 0.0182369
-0.00133692 -7.47841e-06 0.0181656
-0.00133703 -7.65656e-06 0.0180966
-0.00133717 -7.83376e-06 0.01803
-0.00133733 -8.00809e-06 0.0179661
-0.00133752 -8.17676e-06 0.0179047
-0.00133772 -8.33883e-06 0.0178456
-0.00133794 -8.49585e-06 0.0177884
-0.00133818 -8.65042e-06 0.0177325
-0.00133844 -8.80391e-06 0.0176778
-0.0013387 -8.95584e-06 0.0176237
-0.00133898 -9.10488e-06 0.0175704
-0.00133925 -9.25046e-06 0.0175177
-0.00133939 -9.39552e-06 0.0174653
-0.00133949 -9.54508e-06 0.0174137
-0.0013396 -9.69587e-06 0.0173626
-0.00133972 -9.84715e-06 0.0173116
-0.00133983 -9.99731e-06 0.0172606
-0.00133992 -1.01453e-05 0.0172095
-0.00134001 -1.02883e-05 0.0171583
-0.00134009 -1.04298e-05 0.0171075
-0.00134016 -1.05721e-05 0.0170573
-0.00134023 -1.07154e-05 0.0170081
-0.0013403 -1.08553e-05 0.0169602
-0.00134035 -1.10011e-05 0.0169137
-0.00134039 -1.11345e-05 0.0168688
-0.00134044 -1.12419e-05 0.0168255
-0.0013405 -1.1354e-05 0.0167843
-0.00134055 -1.14706e-05 0.0167458
-0.0013406 -1.15821e-05 0.0167106
-0.00134067 -1.16844e-05 0.016679
-0.00134074 -1.17734e-05 0.0166513
-0.00134082 -1.18465e-05 0.0166279
-0.00134091 -1.19088e-05 0.016609
-0.001341 -1.19651e-05 0.0165947
-0.00134112 -1.20141e-05 0.0165852
-0.00134124 -1.20522e-05 0.0165805
-0.00134139 -1.20756e-05 0.0165802
-0.00134153 -1.20827e-05 0.0165807
-0.00134171 -1.20755e-05 0.0165816
-0.0013419 -1.20487e-05 0.0165828
-0.00134294 -1.20035e-05 0.0165843
-0.00134434 -1.19463e-05 0.0165861
-0.00134602 -1.18793e-05 0.0165882
-0.00134785 -1.18007e-05 0.0165905
-0.00134944 -1.17096e-05 0.0165928
-0.00135123 -1.16079e-05 0.016595
-0.00135305 -1.15065e-05 0.0165973
-0.00135487 -1.14207e-05 0.0165997
-0.00135687 -1.13391e-05 0.0166021
-0.00135864 -1.12423e-05 0.0166046
-0.00136047 -1.1134e-05 0.016607
-0.0013624 -1.10172e-05 0.0166092
-0.00136412 -1.09112e-05 0.0166115
-0.00136579 -1.08228e-05 0.0166136
-0.00136755 -1.07404e-05 0.0166157
-0.00136931 -1.06568e-05 0.0166177
-0.00137092 -1.05723e-05 0.0166197
-0.00137229 -1.04951e-05 0.0166216
-0.00137367 -1.04277e-05 0.0166233
-0.0013751 -1.03465e-05 0.0166248
-0.00137649 -1.02481e-05 0.0166261
-0.00137774 -1.01398e-05 0.0166272
-0.00137881 -1.00299e-05 0.0166282
-0.00137975 -9.92831e-06 0.016629
-0.00138067 -9.83047e-06 0.0166297
-0.00138164 -9.73684e-06 0.0166303
-0.0013826 -9.65455e-06 0.0166306
-0.00138349 -9.59314e-06 0.0166308
-0.00138428 -9.56464e-06 0.0166308
-0.00138501 -9.57463e-06 0.0166305
-0.00138579 -9.63004e-06 0.0166301
-0.00138658 -9.73578e-06 0.0166296
-0.00138742 -9.89292e-06 0.0166289
-0.00138832 -1.01106e-05 0.0166281
-0.00138923 -1.03294e-05 0.0166273
-0.00139018 -1.05936e-05 0.0166264
-0.00139112 -1.07307e-05 0.0166255
-0.00139223 -1.08749e-05 0.0166244
-0.00139332 -1.10022e-05 0.0166232
-0.00139444 -1.1096e-05 0.0166219
-0.00139571 -1.11955e-05 0.0166205
-0.00139707 -1.12916e-05 0.0166191
-0.0013984 -1.14025e-05 0.0166176
-0.00139972 -1.15316e-05 0.016616
-0.00140113 -1.16739e-05 0.0166144
-0.0014026 -1.18195e-05 0.0166126
-0.00140404 -1.19601e-05 0.0166107
-0.00140543 -1.2098e-05 0.0166086
-0.00140682 -1.22431e-05 0.0166064
-0.00140822 -1.24055e-05 0.016604
-0.00140957 -1.2589e-05 0.0166015
-0.00141085 -1.27885e-05 0.0165988
-0.00141205 -1.29956e-05 0.0165958
-0.00141318 -1.32048e-05 0.0165926
-0.00141421 -1.34181e-05 0.0165893
-0.00141514 -1.3643e-05 0.0165857
-0.00141597 -1.38863e-05 0.0165819
-0.00141673 -1.41475e-05 0.0165469
-0.0014175 -1.43935e-05 0.0164685
-0.00141816 -1.46155e-05 0.0163857
-0.00141866 -1.48147e-05 0.0162988
-0.00141903 -1.50175e-05 0.0162093
-0.00141939 -1.52662e-05 0.0161189
-0.00141972 -1.55514e-05 0.0160281
-0.00141995 -1.58209e-05 0.0159365
-0.00142009 -1.60534e-05 0.0158435
-0.00142023 -1.62712e-05 0.0157498
-0.00142039 -1.6508e-05 0.015657
-0.00142054 -1.6762e-05 0.0155664
-0.00142069 -1.70077e-05 0.015479
-0.00142088 -1.72277e-05 0.0153951
-0.00142113 -1.7429e-05 0.0153151
-0.00142144 -1.76279e-05 0.0152389
-0.00142181 -1.78272e-05 0.0151672
-0.00142226 -1.80143e-05 0.0151005
-0.00142281 -1.81782e-05 0.0150395
-0.00142344 -1.83221e-05 0.0149849
-0.00142415 -1.84569e-05 0.0149367
-0.00142494 -1.85866e-05 0.0148946
-0.00142582 -1.8704e-05 0.014858
-0.00142676 -1.8801e-05 0.0148266
-0.00142777 -1.88784e-05 0.0148006
-0.00142882 -1.89446e-05 0.0147802
-0.00142991 -1.90058e-05 0.0147652
-0.00143103 -1.90938e-05 0.014755
-0.00143213 -1.9148e-05 0.0147483
-0.00143318 -1.91583e-05 0.0147442
-0.00143422 -1.9141e-05 0.0147428
-0.00143526 -1.91275e-05 0.014743
-0.00143627 -1.914e-05 0.0147434
-0.00143724 -1.91699e-05 0.014744
-0.00143818 -1.91913e-05 0.0147447
-0.00143903 -1.91752e-05 0.0147454
-0.00143979 -1.90926e-05 0.0147463
-0.0014405 -1.9017e-05 0.0147472
-0.00144111 -1.88806e-05 0.0147483
-0.00144154 -1.86062e-05 0.0147495
-0.00144184 -1.82047e-05 0.0147508
-0.00144208 -1.77414e-05 0.0147521
-0.00144226 -1.72356e-05 0.0147534
-0.00144234 -1.67158e-05 0.0147547
-0.00144246 -1.61533e-05 0.014756
-0.00144282 -1.55827e-05 0.0147573
-0.00144286 -1.50162e-05 0.0147588
-0.00144285 -1.44603e-05 0.0147604
-0.00144291 -1.39045e-05 0.014762
-0.00144334 -1.33598e-05 0.0147638
-0.00144382 -1.28548e-05 0.0147656
-0.00144416 -1.24051e-05 0.0147675
-0.00144448 -1.20049e-05 0.0147695
-0.00144501 -1.16407e-05 0.0147715
-0.0014458 -1.13234e-05 0.0147735
-0.00144664 -1.10771e-05 0.0147756
-0.00144738 -1.09128e-05 0.0147776
-0.00144818 -1.08106e-05 0.0147796
-0.00144915 -1.07425e-05 0.0147814
-0.00145016 -1.07061e-05 0.0147833
-0.00145109 -1.07152e-05 0.014785
-0.00145199 -1.07827e-05 0.0147867
-0.00145288 -1.08768e-05 0.0147882
-0.00145375 -1.09589e-05 0.0147894
-0.00145449 -1.1058e-05 0.0147903
-0.0014551 -1.11832e-05 0.014791
-0.00145563 -1.1315e-05 0.0147916
-0.00145604 -1.14339e-05 0.0147918
-0.00145631 -1.15407e-05 0.0147917
-0.00145643 -1.16468e-05 0.0147912
-0.00145643 -1.17586e-05 0.0147902
-0.00145639 -1.18738e-05 0.0147891
-0.00145632 -1.19683e-05 0.014788
-0.0014562 -1.20414e-05 0.0147865
-0.00145604 -1.21099e-05 0.0147849
-0.00145586 -1.22036e-05 0.0147831
-0.00145564 -1.23221e-05 0.0147811
-0.0014554 -1.24599e-05 0.014779
-0.00145515 -1.26139e-05 0.0147768
-0.00145489 -1.28001e-05 0.0147746
-0.00145464 -1.30375e-05 0.0147723
-0.00145439 -1.33343e-05 0.0147701
-0.00145416 -1.3686e-05 0.014768
-0.00145395 -1.40846e-05 0.0147658
-0.00145375 -1.4527e-05 0.0147638
-0.00145356 -1.50123e-05 0.0147619
-0.00145339 -1.55371e-05 0.0147601
-0.00145322 -1.60934e-05 0.0147584
-0.00145306 -1.66692e-05 0.0147568
-0.0014529 -1.72553e-05 0.0147553
-0.00145275 -1.78449e-05 0.0147539
-0.0014526 -1.84283e-05 0.0147527
-0.00145245 -1.89927e-05 0.0147515
-0.00145227 -1.92394e-05 0.0147505
-0.00145202 -1.92807e-05 0.0147497
-0.00145176 -1.92863e-05 0.0147488
-0.00145153 -1.93039e-05 0.0147481
-0.0014513 -1.93593e-05 0.0147473
-0.00145105 -1.94247e-05 0.0147467
-0.00145079 -1.94617e-05 0.0147461
-0.00145054 -1.94717e-05 0.0147456
-0.00145029 -1.94755e-05 0.014745
-0.00145002 -1.94272e-05 0.0147446
-0.00144974 -1.92914e-05 0.0147443
-0.00144944 -1.90609e-05 0.014744
-0.00144914 -1.87721e-05 0.0147439
-0.00144883 -1.84387e-05 0.0147439
-0.00144852 -1.80228e-05 0.014744
-0.00144821 -1.75368e-05 0.0147442
-0.00144789 -1.7018e-05 0.0147447
-0.00144759 -1.64731e-05 0.0147454
-0.00144729 -1.58954e-05 0.0147464
-0.00144701 -1.52802e-05 0.0147475
-0.00144673 -1.46313e-05 0.0147486
-0.00144646 -1.39729e-05 0.0147499
-0.00144622 -1.33229e-05 0.0147515
-0.00144599 -1.26821e-05 0.0147532
-0.00144578 -1.20428e-05 0.0147552
-0.00144558 -1.1395e-05 0.0147573
-0.0014454 -1.07434e-05 0.0147595
-0.00144524 -1.01094e-05 0.014762
-0.00144509 -9.50219e-06 0.0147646
-0.00144496 -8.91068e-06 0.0147672
-0.00144483 -8.31898e-06 0.01477
-0.0014447 -7.73448e-06 0.0147727
-0.00144458 -7.18796e-06 0.0147754
-0.00144446 -6.66522e-06 0.014778
-0.00144434 -6.15845e-06 0.0147806
-0.00144422 -5.66031e-06 0.0147832
-0.00144408 -5.1696e-06 0.0147857
-0.00144395 -4.71835e-06 0.0147881
-0.0014438 -4.28774e-06 0.0147904
-0.00144364 -3.91107e-06 0.0147925
-0.00144346 -3.54444e-06 0.0147943
-0.00144328 -3.24516e-06 0.0147959
-0.00144308 -2.96182e-06 0.0147973
-0.00144287 -2.77806e-06 0.0147986
-0.00144265 -2.6111e-06 0.0147997
-0.00144242 -2.50044e-06 0.0148006
-0.00144218 -2.42375e-06 0.0148013
-0.00144193 -2.35718e-06 0.0148017
-0.00144166 -2.33015e-06 0.0148019
-0.0014414 -2.36451e-06 0.0148021
-0.00144113 -2.40335e-06 0.0148022
-0.00144086 -2.4325e-06 0.0148021
-0.00143799 -2.45779e-06 0.0148018
-0.00143424 -2.48354e-06 0.0148014
-0.00143053 -2.51621e-06 0.014801
-0.0014269 -2.55708e-06 0.0148005
-0.00142324 -2.59561e-06 0.0148
-0.00141958 -2.63328e-06 0.0147995
-0.00141621 -2.65715e-06 0.0147989
-0.00141295 -2.67367e-06 0.0147985
-0.00140973 -2.70211e-06 0.0147981
-0.00140662 -2.77582e-06 0.0147977
-0.00140398 -2.80628e-06 0.0147974
-0.00140137 -2.82418e-06 0.014797
-0.00139871 -2.84671e-06 0.0147967
-0.00139627 -2.87787e-06 0.0147963
-0.00139425 -2.90126e-06 0.014796
-0.00139233 -2.91199e-06 0.0147956
-0.00139034 -2.93747e-06 0.0147952
-0.00138866 -2.99404e-06 0.0147948
-0.00138729 -3.05475e-06 0.0147943
-0.00138593 -3.09358e-06 0.0147937
-0.00138435 -3.11422e-06 0.0147931
-0.00138293 -3.14567e-06 0.0147924
-0.00138186 -3.20092e-06 0.0147916
-0.00138079 -3.266e-06 0.0147908
-0.00137946 -3.31924e-06 0.0147899
-0.00137795 -3.36113e-06 0.0147889
-0.00137664 -3.40701e-06 0.0147878
-0.00137565 -3.46254e-06 0.0147868
-0.00137455 -3.4982e-06 0.0147857
-0.0013732 -3.49974e-06 0.0147846
-0.00137177 -3.45917e-06 0.0147835
-0.00137042 -3.39278e-06 0.0147824
-0.00136906 -3.32169e-06 0.0147814
-0.00136765 -3.26016e-06 0.0147805
-0.00136637 -3.23437e-06 0.0147797
-0.00136558 -3.24616e-06 0.0147789
-0.00136502 -3.28618e-06 0.0147783
-0.00136444 -3.33888e-06 0.0147779
-0.00136386 -3.37555e-06 0.0147776
-0.00136349 -3.3853e-06 0.0147775
-0.00136333 -3.37807e-06 0.0147775
-0.00136325 -3.37004e-06 0.0147778
-0.00136323 -3.36079e-06 0.0147783
-0.00136324 -3.33683e-06 0.014779
-0.00136326 -3.28851e-06 0.0147797
-0.00136329 -3.23542e-06 0.0147805
-0.00136332 -3.18761e-06 0.0147816
-0.00136339 -3.13612e-06 0.0147827
-0.00136347 -3.07269e-06 0.0147839
-0.00136354 -2.99556e-06 0.0147852
-0.0013636 -2.92089e-06 0.0147865
-0.00136365 -2.85883e-06 0.0147879
-0.00136371 -2.80549e-06 0.0147892
-0.00136377 -2.75051e-06 0.0147906
-0.00136382 -2.69275e-06 0.0147918
-0.00136387 -2.64691e-06 0.014793
-0.00136391 -2.61479e-06 0.0147941
-0.00136395 -2.59144e-06 0.0147952
-0.00136399 -2.57288e-06 0.0147962
-0.00136402 -2.55926e-06 0.0147972
-0.00136404 -2.5558e-06 0.014798
-0.00136406 -2.56337e-06 0.0147988
-0.00136408 -2.57776e-06 0.0147995
-0.00136409 -2.59432e-06 0.0148001
-0.0013641 -2.61202e-06 0.0148007
-0.00136411 -2.63296e-06 0.0148012
-0.00136412 -2.65783e-06 0.0148018
-0.00136413 -2.68334e-06 0.0148023
-0.00136415 -2.70569e-06 0.0148028
-0.00136417 -2.72266e-06 0.0148032
-0.00136419 -2.73392e-06 0.0148037
-0.00136422 -2.74119e-06 0.0148041
-0.00136425 -2.74298e-06 0.0148046
-0.00136429 -2.73851e-06 0.0148052
-0.00136434 -2.72653e-06 0.0148057
-0.00136439 -2.70731e-06 0.0148063
-0.00136445 -2.68388e-06 0.0148068
-0.00136452 -2.69891e-06 0.0148073
-0.00136459 -2.73307e-06 0.0148078
-0.00136466 -2.72683e-06 0.0148083
-0.00136473 -2.7042e-06 0.0148087
-0.0013648 -2.68943e-06 0.0148091
-0.00136488 -2.6742e-06 0.0148094
-0.00136496 -2.67762e-06 0.0148097
-0.00136503 -2.71413e-06 0.0148098
-0.0013651 -2.75118e-06 0.0148099
-0.00136517 -2.76908e-06 0.0148098
-0.00136524 -2.78204e-06 0.0148095
-0.00136529 -2.81898e-06 0.014809
-0.00136534 -2.88503e-06 0.0148084
-0.00136538 -2.96073e-06 0.0148076
-0.00136542 -3.0325e-06 0.0148068
-0.00136545 -3.09545e-06 0.0148058
-0.00136547 -3.15991e-06 0.0148047
-0.00136548 -3.25029e-06 0.0148035
-0.00136549 -3.3564e-06 0.0148022
-0.0013655 -3.46253e-06 0.0148008
-0.0013655 -3.56251e-06 0.0147993
-0.00136549 -3.66294e-06 0.0147978
-0.00136549 -3.77418e-06 0.0147961
-0.00136548 -3.89458e-06 0.0147944
-0.00136548 -4.01445e-06 0.0147927
-0.00136548 -4.12894e-06 0.014791
-0.00136548 -4.24122e-06 0.0147893
-0.00136548 -4.35702e-06 0.0147877
-0.0013655 -4.47476e-06 0.0147861
-0.00136552 -4.58832e-06 0.0147846
-0.00136554 -4.69527e-06 0.0147831
-0.00136557 -4.7977e-06 0.0147818
-0.00136561 -4.89889e-06 0.0147805
-0.00136566 -4.99841e-06 0.0147794
-0.00136571 -5.09314e-06 0.0147783
-0.00136578 -5.18111e-06 0.0147773
-0.00136585 -5.2631e-06 0.0147764
-0.00136592 -5.34135e-06 0.0147756
-0.001366 -5.41692e-06 0.0147749
-0.00136608 -5.48898e-06 0.0147743
-0.00136617 -5.55621e-06 0.0147738
-0.00136626 -5.61849e-06 0.0147733
-0.00136634 -5.67698e-06 0.0147728
-0.00136643 -5.73276e-06 0.0147724
-0.00136652 -5.78595e-06 0.014772
-0.0013666 -5.83611e-06 0.0147716
-0.00136669 -5.88317e-06 0.0147713
-0.00136677 -5.92751e-06 0.0147709
-0.00136684 -5.96939e-06 0.0147706
-0.00136691 -6.00865e-06 0.0147703
-0.00136698 -6.04498e-06 0.01477
-0.00136705 -6.07839e-06 0.0147696
-0.00136711 -6.10907e-06 0.0147694
-0.00136717 -6.13697e-06 0.0147691
-0.00136723 -6.1603e-06 0.0147688
-0.00136729 -6.16034e-06 0.0147686
-0.00136734 -6.12828e-06 0.0147685
-0.00136739 -6.07391e-06 0.0147684
-0.00136744 -6.00852e-06 0.0147684
-0.00136749 -5.93186e-06 0.0147685
-0.00136754 -5.84323e-06 0.0147687
-0.0013676 -5.75168e-06 0.014769
-0.00136766 -5.66677e-06 0.0147694
-0.00136773 -5.59141e-06 0.01477
-0.00136781 -5.52724e-06 0.0147707
-0.0013679 -5.47836e-06 0.0147714
-0.00136837 -5.44899e-06 0.014772
-0.00136909 -5.44232e-06 0.0147728
-0.00136986 -5.45946e-06 0.0147736
-0.00137067 -5.49487e-06 0.0147744
-0.00137152 -5.54273e-06 0.0147752
-0.0013724 -5.60331e-06 0.014776
-0.0013733 -5.68048e-06 0.0147769
-0.00137419 -5.77225e-06 0.0147777
-0.00137508 -5.86215e-06 0.0147786
-0.00137592 -5.83705e-06 0.0147793
-0.00137666 -5.79743e-06 0.0147801
-0.00137737 -5.77919e-06 0.0147807
-0.00137811 -5.77553e-06 0.0147813
-0.00137881 -5.77386e-06 0.0147818
-0.00137941 -5.76765e-06 0.0147821
-0.00137997 -5.76299e-06 0.0147823
-0.00138051 -5.76965e-06 0.0147824
-0.00138101 -5.78868e-06 0.0147824
-0.00138144 -5.8137e-06 0.0147823
-0.00138182 -5.84133e-06 0.014782
-0.00138217 -5.87062e-06 0.0147816
-0.0013825 -5.90424e-06 0.0147812
-0.00138279 -5.94802e-06 0.0147807
-0.00138305 -5.9987e-06 0.01478
-0.0013833 -6.05243e-06 0.0147793
-0.00138354 -6.10698e-06 0.0147786
-0.00138378 -6.16414e-06 0.0147778
-0.00138401 -6.22685e-06 0.0147769
-0.00138425 -6.29471e-06 0.0147761
-0.00138451 -6.36533e-06 0.0147752
-0.00138477 -6.43591e-06 0.0147743
-0.00138506 -6.50644e-06 0.0147734
-0.00138537 -6.57918e-06 0.0147725
-0.0013857 -6.6547e-06 0.0147716
-0.00138605 -6.73224e-06 0.0147708
-0.00138642 -6.81024e-06 0.0147699
-0.00138681 -6.888e-06 0.0147691
-0.00138721 -6.96601e-06 0.0147682
-0.00138762 -7.04501e-06 0.0147673
-0.00138803 -7.12535e-06 0.0147665
-0.00138845 -7.20687e-06 0.0147656
-0.00138886 -7.2893e-06 0.0147648
-0.00138926 -7.37251e-06 0.0147639
-0.00138964 -7.45641e-06 0.014763
-0.00139 -7.54092e-06 0.0147621
-0.00139033 -7.62608e-06 0.0147611
-0.00139064 -7.71207e-06 0.0147601
-0.00139091 -7.79903e-06 0.0147591
-0.00139114 -7.8867e-06 0.0147581
-0.00139134 -7.9744e-06 0.014757
-0.0013915 -8.06142e-06 0.0147559
-0.00139163 -8.14741e-06 0.0147548
-0.00139172 -8.23234e-06 0.0147536
-0.00139179 -8.31615e-06 0.0147525
-0.00139183 -8.3983e-06 0.0147513
-0.00139185 -8.47791e-06 0.0147502
-0.00139185 -8.55401e-06 0.0147491
-0.00139185 -8.62599e-06 0.0147481
-0.00139185 -8.69353e-06 0.0147471
-0.00139185 -8.75641e-06 0.0147462
-0.00139186 -8.81421e-06 0.0147453
-0.00139189 -8.86631e-06 0.0147446
-0.00139194 -8.91207e-06 0.0147439
-0.00139202 -8.95098e-06 0.0147434
