-7.91205e-06 -1.01548e-05 -2.41106e-06
-7.84519e-06 -1.01671e-05 -2.40747e-06
-7.68871e-06 -1.01977e-05 -2.39696e-06
-7.36638e-06 -1.02519e-05 -2.38286e-06
-7.00056e-06 -1.03052e-05 -2.37271e-06
-6.53044e-06 -1.03613e-05 -2.36925e-06
-5.94826e-06 -1.04141e-05 -2.37684e-06
-5.24574e-06 -1.04557e-05 -2.40119e-06
-4.41379e-06 -1.04775e-05 -2.44786e-06
-3.44264e-06 -1.04703e-05 -2.52226e-06
-2.32368e-06 -1.04235e-05 -2.62951e-06
-1.05661e-06 -1.03257e-05 -2.77405e-06
3.41697e-07 -1.01669e-05 -2.95752e-06
1.87863e-06 -9.92686e-06 -3.18623e-06
3.52235e-06 -9.58968e-06 -3.45996e-06
5.23427e-06 -9.13727e-06 -3.77826e-06
6.96637e-06 -8.55226e-06 -4.1368e-06
8.66427e-06 -7.82054e-06 -4.5267e-06
1.02723e-05 -6.93271e-06 -4.93412e-06
1.17364e-05 -5.88569e-06 -5.33755e-06
1.30031e-05 -4.683e-06 -5.70944e-06
1.40139e-05 -3.33424e-06 -6.01699e-06
1.47009e-05 -1.8554e-06 -6.22269e-06
1.49826e-05 -2.64429e-07 -6.28565e-06
1.47633e-05 1.39458e-06 -6.1679e-06
1.39486e-05 3.10729e-06 -5.81299e-06
1.2459e-05 4.83028e-06 -5.17701e-06
1.02709e-05 6.50116e-06 -4.19636e-06
7.43695e-06 8.03739e-06 -2.81558e-06
4.08188e-06 9.33888e-06 -9.93082e-07
3.59956e-07 1.03031e-05 1.31955e-06
-3.63375e-06 1.08257e-05 4.16848e-06
-7.69623e-06 1.08479e-05 7.54639e-06
-1.17178e-05 1.03097e-05 1.14332e-05
-1.56239e-05 9.18201e-06 1.5779e-05
-1.93719e-05 7.46925e-06 2.05001e-05
-2.29376e-05 5.19819e-06 2.54892e-05
-2.63224e-05 2.42162e-06 3.06079e-05
-2.95343e-05 -8.00604e-07 3.57033e-05
-3.25871e-05 -4.42122e-06 4.05866e-05
-3.54833e-05 -8.29454e-06 4.51099e-05
-3.82177e-05 -1.23332e-05 4.90846e-05
-4.07617e-05 -1.64367e-05 5.23417e-05
-4.30562e-05 -2.05145e-05 5.47199e-05
-4.50305e-05 -2.44865e-05 5.60707e-05
-4.66332e-05 -2.8262e-05 5.62659e-05
-4.78636e-05 -3.17525e-05 5.52043e-05
-4.8793e-05 -3.48643e-05 5.2801e-05
-4.95589e-05 -3.75084e-05 4.89998e-05
-5.03617e-05 -3.96036e-05 4.37782e-05
-5.18078e-05 -4.13507e-05 3.52831e-05
-5.42709e-05 -4.20613e-05 2.47268e-05
-5.82784e-05 -4.17531e-05 1.23566e-05
-6.42143e-05 -4.05671e-05 -1.50328e-06
-7.22504e-05 -3.87831e-05 -1.65175e-05
-8.23114e-05 -3.67915e-05 -3.18816e-05
-9.40528e-05 -3.50885e-05 -4.6999e-05
-0.000106892 -3.42375e-05 -6.1191e-05
-0.000120153 -3.47848e-05 -7.38903e-05
-0.000133254 -3.7187e-05 -8.46037e-05
-0.000145825 -4.17477e-05 -9.30397e-05
-0.000157699 -4.8601e-05 -9.90734e-05
-0.000168852 -5.77144e-05 -0.000102792
-0.000179343 -6.89034e-05 -0.000104458
-0.000189245 -8.18577e-05 -0.000104505
-0.000198568 -9.61773e-05 -0.00010349
-0.000207257 -0.000111396 -0.000102064
-0.000215287 -0.000126989 -0.000100937
-0.000222735 -0.000142386 -0.000100839
-0.000229778 -0.000157008 -0.000102469
-0.000236613 -0.00017032 -0.000106438
-0.000243342 -0.000181885 -0.000113223
-0.000249906 -0.000191402 -0.000123123
-0.000256161 -0.000198704 -0.000136245
-0.000261973 -0.000203743 -0.000152509
-0.00026725 -0.000206581 -0.000171644
-0.000271944 -0.000207387 -0.000193207
-0.000276055 -0.000206415 -0.000216603
-0.000279634 -0.000203994 -0.000241115
-0.000282763 -0.000200506 -0.000265936
-0.000285535 -0.000196371 -0.000290213
-0.000288045 -0.000192021 -0.00031308
-0.000290411 -0.000187876 -0.000333713
-0.000292798 -0.000184308 -0.000351363
-0.000295415 -0.000181629 -0.000365399
-0.000298456 -0.000180084 -0.000375327
-0.000301995 -0.000179865 -0.000380806
-0.000305891 -0.000181116 -0.000381663
-0.00030979 -0.000183922 -0.000377896
-0.000313229 -0.000188279 -0.000369702
-0.000315326 -0.000192804 -0.000360213
-0.000316774 -0.000199561 -0.00034516
-0.000316617 -0.000207203 -0.000327236
-0.000314649 -0.000215254 -0.0003073
-0.000310723 -0.00022316 -0.000286299
-0.000304704 -0.000230328 -0.000265217
-0.000296478 -0.000236154 -0.000245016
-0.000285953 -0.000240058 -0.000226592
-0.000273046 -0.000241518 -0.000210712
-0.000257707 -0.000240095 -0.00019798
-0.000239928 -0.000235451 -0.000188798
-0.000219734 -0.000227369 -0.000183339
-0.000197213 -0.000215762 -0.000181538
-0.000172588 -0.000200657 -0.000183091
-0.00014629 -0.000182186 -0.000187474
-0.000118915 -0.000160589 -0.00019395
-9.10612e-05 -0.000136243 -0.000201589
-6.32541e-05 -0.00010966 -0.000209296
-3.59723e-05 -8.14648e-05 -0.000215868
-9.70105e-06 -5.23581e-05 -0.000220048
1.49452e-05 -2.31578e-05 -0.00022056
3.78914e-05 5.38932e-06 -0.000216349
5.90126e-05 3.22358e-05 -0.000206459
7.83714e-05 5.71288e-05 -0.000189862
9.61824e-05 7.94038e-05 -0.000166017
0.000112666 9.8584e-05 -0.000134607
0.000127919 0.000114419 -9.57334e-05
0.000141864 0.000126875 -4.98045e-05
0.000154347 0.000136109 1.89821e-06
0.000165321 0.000142408 5.84756e-05
0.00017496 0.0001462 0.000118787
0.00018366 0.000147965 0.000181463
0.000191915 0.000148235 0.000244915
0.000200201 0.000147625 0.000307375
0.000208991 0.000146765 0.000367199
0.000218769 0.000146286 0.00042271
0.000230014 0.000146777 0.000472403
0.000243145 0.000148771 0.000514954
0.000258535 0.000152288 0.000775743
0.000276414 0.000156679 0.00130876
0.000295858 0.000165516 0.00157406
0.000316885 0.000176803 0.0017326
0.000338477 0.000191814 0.00174183
0.000360168 0.000209381 0.00173203
0.000381245 0.000229561 0.00171455
0.000401283 0.000251603 0.00169098
0.000417987 0.000274324 0.0016629
0.000432004 0.000296033 0.00163241
0.000755017 0.00031642 0.00160061
0.0012138 0.000333688 0.00157062
0.00156871 0.000350647 0.00154024
0.00189254 0.000363966 0.00151391
0.00215753 0.000374323 0.00149109
0.00237643 0.000380595 0.00147366
0.00253549 0.00038284 0.00146171
0.00264254 0.000380778 0.00145581
0.00269088 0.000374697 0.00145579
0.00269323 0.000364822 0.00146133
0.00269125 0.000351131 0.00147201
0.0026881 0.000334348 0.0014868
0.00268454 0.00031511 0.00150456
0.00268128 0.000294254 0.00152392
0.00267891 0.000272708 0.00154338
0.00267046 0.000252671 0.0015611
0.00265454 0.000237211 0.00157385
0.00264085 0.000221536 0.00158517
0.00263009 0.000208609 0.00159051
0.00262187 0.000198205 0.00159099
0.00261687 0.000190495 0.00158578
0.00261502 0.000185818 0.00157469
0.00261648 0.00018422 0.00155787
0.00262115 0.000185635 0.00153568
0.00262763 0.000190181 0.00150865
0.00263431 0.000197937 0.00147749
0.00264084 0.00020838 0.00144343
0.00264668 0.000221009 0.00140773
0.00265127 0.000235158 0.00137189
0.0026541 0.000250073 0.00133747
0.00265476 0.000264921 0.00130603
0.00265303 0.000278823 0.00127912
0.00264987 0.000288677 0.00126179
0.00264515 0.000296951 0.00124885
0.00263891 0.00030328 0.0012408
0.00263118 0.000307354 0.00123801
0.00262204 0.000308942 0.00124069
0.00261157 0.000307891 0.00124889
0.00259986 0.00030414 0.00126248
0.00258695 0.000297726 0.00128119
0.00257285 0.000288783 0.00130457
0.00255754 0.000277533 0.001332
0.00254095 0.000264278 0.00136277
0.00252303 0.000249374 0.00139603
0.0025038 0.000233205 0.00143088
0.00248336 0.000216159 0.00146635
0.00246194 0.000198613 0.00150147
0.00243984 0.000180926 0.00153527
0.00241739 0.000163435 0.00156683
0.00239489 0.00014646 0.00159524
0.00237259 0.000130298 0.00161969
0.00235067 0.000115214 0.00163946
0.00232932 0.000101422 0.00165391
0.00230866 8.90818e-05 0.00166257
0.00228881 7.82925e-05 0.00166507
0.00226986 6.90934e-05 0.00166121
0.00225184 6.14634e-05 0.00165093
0.00216803 5.58784e-05 0.00163405
0.00208114 5.1826e-05 0.00161087
0.00199765 4.85529e-05 0.0015824
0.00193191 4.58663e-05 0.00154854
0.0018782 4.28865e-05 0.00151082
0.00182688 4.08668e-05 0.00146856
0.00177876 3.85168e-05 0.00142344
0.0017332 3.61283e-05 0.00137559
0.00168924 3.31652e-05 0.00132611
0.00164639 2.9442e-05 0.00127568
0.00160401 2.47006e-05 0.00122507
0.00156134 1.88182e-05 0.00110421
0.00151735 1.18205e-05 0.000958194
0.00147203 2.99067e-06 0.000818748
0.00142351 -7.41053e-06 0.000685199
0.00137128 -1.94864e-05 0.000560059
0.00131409 -3.31347e-05 0.000443704
0.00125121 -4.82654e-05 0.000336901
0.00118202 -6.47477e-05 0.00024003
0.00110624 -8.2425e-05 0.000153318
0.00102392 -0.000101124 7.681e-05
0.000935508 -0.00012065 1.02636e-05
0.000841751 -0.000140797 -4.67635e-05
0.000743576 -0.000161344 -9.49007e-05
0.000641979 -0.000182056 -0.000134903
0.000537948 -0.000202687 -0.000167633
0.000432407 -0.000222984 -0.000194048
0.000326235 -0.000242695 -0.000215174
0.000220318 -0.00026158 -0.000232063
0.000115621 -0.000279421 -0.000245743
1.32239e-05 -0.000296027 -0.000257179
-8.5675e-05 -0.000311239 -0.000267246
-0.000179816 -0.000324934 -0.000276722
-0.000267982 -0.000337017 -0.000286272
-0.000349049 -0.000347425 -0.000296436
-0.000421982 -0.000356122 -0.000307616
-0.00070709 -0.000362211 -0.000321093
-0.00122661 -0.000362781 -0.000342271
-0.00151012 -0.000365376 -0.000359184
-0.00173854 -0.000366177 -0.000374937
-0.00194114 -0.000365098 -0.00039426
-0.00203842 -0.000364253 -0.000409106
-0.00208759 -0.000361957 -0.000424286
-0.00209207 -0.000358903 -0.00043762
-0.00209035 -0.000354623 -0.000449237
-0.00208736 -0.000349151 -0.000459478
-0.0020834 -0.000342804 -0.000466499
-0.00207867 -0.000335517 -0.000470685
-0.00207336 -0.000327475 -0.000471177
-0.00206769 -0.000318791 -0.000469724
-0.00206187 -0.000309602 -0.000466541
-0.00205612 -0.000300033 -0.000461461
-0.0020506 -0.000290228 -0.000454313
-0.00204542 -0.000280345 -0.00044494
-0.00204069 -0.00027053 -0.000433232
-0.00203644 -0.000260934 -0.000419113
-0.00203269 -0.000251698 -0.000402547
-0.00202945 -0.000242949 -0.000383544
-0.00202673 -0.000234788 -0.000362172
-0.00202453 -0.000227296 -0.00033855
-0.00202274 -0.000220548 -0.00031285
-0.00202124 -0.000214603 -0.000285289
-0.00201999 -0.00020946 -0.000256156
-0.00201892 -0.000205102 -0.000225781
-0.002018 -0.000201479 -0.000194539
-0.00201724 -0.000198506 -0.000162847
-0.00201666 -0.00019608 -0.000131145
-0.00201628 -0.000194084 -9.9891e-05
-0.00201609 -0.000192401 -6.95407e-05
-0.00201603 -0.000190926 -4.05379e-05
-0.00201593 -0.000189572 -1.33033e-05
-0.00201562 -0.000188269 1.17732e-05
-0.00201487 -0.000186957 3.4336e-05
-0.00201347 -0.000185642 7.93606e-05
-0.0020112 -0.000184311 0.00012662
-0.00200788 -0.000182725 0.000164262
-0.00200327 -0.000181023 0.00019243
-0.00199717 -0.000179086 0.000210441
-0.00198936 -0.000176946 0.000218284
-0.00197968 -0.000174569 0.000217603
-0.00196799 -0.000171953 0.000213158
-0.00195426 -0.000169044 0.000205241
-0.00193859 -0.000165774 0.000193991
-0.00192111 -0.00016207 0.000179584
-0.00190203 -0.000157863 0.000161819
-0.00188155 -0.000153057 0.000135754
-0.00185989 -0.000147613 0.00010664
-0.0018373 -0.000141485 7.49467e-05
-0.00181403 -0.000134636 4.12618e-05
-0.00179038 -0.000127057 6.19528e-06
-0.00176666 -0.000118747 -2.96151e-05
-0.00174315 -0.000109738 -6.54814e-05
-0.00172013 -0.000100088 -0.000100681
-0.00169776 -8.9894e-05 -0.000134461
-0.0016762 -7.92798e-05 -0.000166063
-0.00165383 -6.8422e-05 -0.000194706
-0.00150185 -5.87087e-05 -0.000218945
-0.0013729 -4.84055e-05 -0.00023899
-0.00124125 -3.83914e-05 -0.000254844
-0.00112023 -2.87031e-05 -0.000264708
-0.00100578 -1.93273e-05 -0.00026946
-0.000898857 -1.0501e-05 -0.000268325
-0.000799405 -2.24419e-06 -0.000262487
-0.000707194 5.38173e-06 -0.000251774
-0.000621941 1.23351e-05 -0.000236312
-0.000543045 1.86323e-05 -0.000216202
-0.000469833 2.43648e-05 -0.000191633
-0.000401605 2.95947e-05 -0.000162917
-0.000337615 3.44223e-05 -0.000130437
-0.000276959 3.89634e-05 -9.46397e-05
-0.000218662 4.33531e-05 -5.6031e-05
-0.000161615 4.77419e-05 -1.51713e-05
-0.000104563 5.22803e-05 2.73539e-05
-4.60878e-05 5.7096e-05 8.24055e-05
1.56055e-05 6.20441e-05 0.00020815
8.13957e-05 6.76995e-05 0.000330067
0.00015232 7.40862e-05 0.000450935
0.000229691 8.1306e-05 0.000568332
0.000313457 8.95499e-05 0.000681021
0.000403891 9.88736e-05 0.000787889
0.000500455 0.000109403 0.000887798
0.000602619 0.000121175 0.000979938
0.000709567 0.000134216 0.00106363
0.000820471 0.000148495 0.00113845
0.000934473 0.000163939 0.00120425
0.0010507 0.000180428 0.0012611
0.00116821 0.0001978 0.00130931
0.00104469 0.000190719 0.00137535
0.000923432 0.000141071 0.00153475
0.000740375 0.000178974 0.00152423
0.000810773 0.000194343 0.00153481
0.000910635 0.000228228 0.00152402
0.000905623 0.000243922 0.00152033
0.000885658 0.000256191 0.00151693
0.000889067 0.000275708 0.00150539
0.000898593 0.000299609 0.00149176
0.000903221 0.000317145 0.00147882
0.000890571 0.000328872 0.00146805
0.00088107 0.000334984 0.0014605
0.000883154 0.000347864 0.00144808
0.000908488 0.00035746 0.00143784
0.000913002 0.000362799 0.00143023
0.000908295 0.000363297 0.00142512
0.000905816 0.000361421 0.00142205
0.000908917 0.000359152 0.00141941
0.000913496 0.000354665 0.00141854
0.000919679 0.0003469 0.00141965
0.000919575 0.000336424 0.00142234
0.000924553 0.000325346 0.00142531
0.000932005 0.000313953 0.00142803
0.000939738 0.00030048 0.00143156
0.000943271 0.000286887 0.00143405
0.000946774 0.000272756 0.00143574
0.000950258 0.000258834 0.001436
0.000953141 0.000245299 0.00143438
0.000955528 0.000232547 0.00143049
0.000958452 0.000220922 0.00142399
0.000962279 0.000210674 0.00141468
0.000966743 0.000202022 0.00140239
0.000969493 0.000195275 0.00138698
0.000974574 0.000190143 0.00136884
0.000980731 0.000187207 0.00134756
0.000987422 0.000186027 0.00132388
0.000993567 0.000186846 0.00129782
0.000999491 0.000189397 0.00127007
0.00100356 0.000193533 0.00124103
0.00100226 0.000198487 0.00121159
0.000999612 0.000203838 0.00118256
0.000996785 0.000210249 0.00115386
0.000994735 0.00021719 0.00112652
0.000993045 0.000224536 0.00110094
0.000991042 0.000231561 0.00107818
0.000988693 0.000238046 0.00103029
0.000986667 0.000243897 0.000985525
0.000985316 0.00024893 0.000951824
0.000983866 0.000252981 0.000930056
0.000981835 0.000255503 0.000921536
0.000978901 0.000256659 0.000923336
0.000975132 0.00025636 0.000929943
0.000958364 0.000254633 0.00094133
0.000927033 0.000251757 0.000957099
0.000907563 0.000248078 0.000978114
0.000902763 0.000244231 0.00101018
0.000902906 0.000239657 0.00104657
0.000900554 0.00023407 0.00108709
0.000892536 0.000227589 0.00113078
0.000885989 0.000220594 0.00117675
0.000884232 0.000213457 0.00122388
0.000884421 0.000206289 0.00127133
0.000884347 0.000199056 0.00131826
0.000882879 0.000191917 0.00136382
0.000881478 0.000185278 0.00140689
0.000881391 0.000179299 0.00144666
0.000881179 0.000174019 0.00148245
0.000878954 0.00016949 0.0015136
0.000875497 0.000165795 0.00153957
0.000872182 0.000163075 0.00155982
0.000869115 0.000161362 0.00157403
0.000865295 0.000160625 0.00158202
0.000860161 0.000160859 0.00158372
0.000854081 0.000162084 0.00158041
0.000847511 0.000164323 0.00157271
0.000841937 0.000167539 0.00156081
0.000838034 0.000171815 0.00154492
0.00083509 0.000176953 0.00152543
0.00083107 0.000182761 0.00150286
0.000824522 0.000189036 0.0014777
0.000814213 0.000195502 0.00145061
0.000798997 0.000201869 0.0014222
0.000780681 0.00020771 0.0013932
0.000767314 0.000211857 0.00136473
0.000741606 0.000215653 0.00133663
0.000711216 0.000217709 0.0013099
0.000676187 0.000218287 0.00128505
0.00065403 0.000217707 0.0012621
0.000640718 0.000216245 0.00124118
0.000630678 0.000212537 0.00122351
0.000615832 0.000206872 0.00120885
0.000599118 0.000198806 0.00119766
0.000586429 0.000188877 0.00118967
0.000580147 0.00017717 0.00118472
0.000574615 0.000163272 0.00118292
0.000567013 0.000147355 0.001184
0.00055996 0.000129767 0.00118741
0.000556116 0.000110828 0.00119273
0.000554501 9.08388e-05 0.00119936
0.000552899 6.99166e-05 0.00120682
0.000549384 4.83832e-05 0.00121448
0.000547494 2.66576e-05 0.00122165
0.000547775 5.27215e-06 0.00122771
0.000547765 -1.54941e-05 0.00123193
0.000547581 -3.56459e-05 0.00123368
0.000546733 -5.50137e-05 0.00123301
0.00054414 -7.28324e-05 0.00122903
0.00054123 -8.91248e-05 0.00122163
0.000459866 -0.000105335 0.00121118
0.000380681 -0.000122242 0.00119901
0.000308994 -0.000133353 0.0011794
0.0002434 -0.000143784 0.00115163
0.000184877 -0.000150319 0.00107274
0.000132214 -0.000154256 0.000985187
8.50623e-05 -0.000155557 0.000886981
5.42403e-05 -0.000155036 0.000781362
2.23057e-05 -0.000152127 0.000669283
-6.72498e-06 -0.000147286 0.000551874
-3.67901e-05 -0.000140987 0.000433088
-6.91501e-05 -0.000133551 0.00031433
-0.000105421 -0.000125445 0.000198716
-0.000146888 -0.000117137 8.86153e-05
-0.000194469 -0.000109173 -1.31353e-05
-0.000249046 -0.000102023 -0.00010418
-0.000311203 -9.61515e-05 -0.000182336
-0.000381291 -9.19955e-05 -0.000245641
-0.000459338 -8.99397e-05 -0.000292504
-0.000545111 -9.02999e-05 -0.000321789
-0.000638221 -9.3296e-05 -0.000332831
-0.000738214 -9.90654e-05 -0.000330086
-0.000844866 -0.000107593 -0.000321079
-0.000958008 -0.00011881 -0.000306044
-0.0010775 -0.00013254 -0.000285514
-0.00120299 -0.000148518 -0.000260133
-0.00133375 -0.000166429 -0.000230692
-0.0014683 -0.000185919 -0.000198094
-0.00160499 -0.000206588 -0.000163322
-0.00174286 -0.000227962 -0.000127455
-0.00188051 -0.000249575 -9.15775e-05
-0.00201625 -0.000270962 -5.67826e-05
-0.00222691 -0.000291177 -2.44403e-05
-0.00303715 -0.000304765 2.29667e-06
-0.00375205 -0.000318238 2.48495e-05
-0.00435717 -0.0003324 4.57931e-05
-0.00497712 -0.000342594 5.91825e-05
-0.00548284 -0.000352826 6.90615e-05
-0.00592309 -0.000360745 7.28941e-05
-0.00629534 -0.000366789 7.09109e-05
-0.00658694 -0.000371111 6.33578e-05
-0.00681403 -0.000373253 4.98886e-05
-0.00697792 -0.000373464 3.09395e-05
-0.00708923 -0.000371689 6.71833e-06
-0.0071563 -0.000368057 -2.23079e-05
-0.00718332 -0.000362819 -5.54783e-05
-0.00718434 -0.000356196 -9.21219e-05
-0.00718204 -0.00034854 -0.000131475
-0.00717827 -0.00034033 -0.000172618
-0.00717411 -0.000331525 -0.000214729
-0.00716936 -0.000322802 -0.000256822
-0.0071572 -0.000315915 -0.0002975
-0.00714672 -0.000309467 -0.000339216
-0.00713648 -0.000303171 -0.000445775
-0.0071275 -0.000298135 -0.000566165
-0.00712011 -0.000293043 -0.00111267
-0.00711451 -0.000288569 -0.00165562
-0.00711011 -0.000286744 -0.00203104
-0.00710685 -0.000285863 -0.00236764
-0.00710397 -0.000287271 -0.0026056
-0.00710171 -0.00029042 -0.00275377
-0.00710012 -0.000295203 -0.00281868
-0.00709915 -0.000301572 -0.00281733
-0.00709883 -0.00030895 -0.00281115
-0.00709908 -0.000317247 -0.00280081
-0.00709976 -0.000326139 -0.00278701
-0.00710079 -0.000335313 -0.00277024
-0.00710201 -0.00034447 -0.00275107
-0.00710329 -0.00035327 -0.00273012
-0.00710448 -0.000361392 -0.00270798
-0.00710538 -0.000368533 -0.00268526
-0.00710583 -0.000374408 -0.00266254
-0.00710566 -0.000378773 -0.00264039
-0.0071047 -0.000381421 -0.00261927
-0.00710281 -0.000382174 -0.00259963
-0.0070999 -0.000380916 -0.00258178
-0.00709587 -0.000377565 -0.00256599
-0.00709073 -0.000372099 -0.00255242
-0.00708446 -0.000364546 -0.00254114
-0.00707714 -0.000354973 -0.00253213
-0.00706882 -0.000343518 -0.00252526
-0.0070596 -0.000330354 -0.00252033
-0.00704954 -0.000315711 -0.00251705
-0.00703868 -0.000299869 -0.00251507
-0.00702706 -0.000283124 -0.00251398
-0.00701474 -0.000265807 -0.00251334
-0.00700177 -0.000248239 -0.0025127
-0.00698825 -0.000230737 -0.00251158
-0.00697427 -0.000213613 -0.00250957
-0.00695995 -0.000197135 -0.00250625
-0.00694538 -0.000181559 -0.00250127
-0.00693064 -0.000167096 -0.00249434
-0.00691581 -0.000153911 -0.00248522
-0.00690091 -0.000142132 -0.00247378
-0.00688602 -0.000131819 -0.00245994
-0.00687122 -0.000122978 -0.00244374
-0.00685665 -0.00011555 -0.00242529
-0.00684251 -0.000109414 -0.0024048
-0.00682902 -0.000104425 -0.00238253
-0.00681659 -0.000100424 -0.0023588
-0.00680596 -9.74038e-05 -0.00233388
-0.00679629 -9.5142e-05 -0.00230816
-0.00678734 -9.29386e-05 -0.00226005
-0.00677883 -9.13596e-05 -0.00211091
-0.00677083 -8.95524e-05 -0.00197336
-0.00676326 -8.74575e-05 -0.00183898
-0.00675642 -8.51497e-05 -0.0017115
-0.00675023 -8.2462e-05 -0.00159244
-0.00674631 -7.88093e-05 -0.00148395
-0.0067426 -7.48207e-05 -0.00138689
-0.00670165 -7.08885e-05 -0.00129896
-0.00666072 -6.65513e-05 -0.0012237
-0.00662879 -6.17639e-05 -0.00116111
-0.00660415 -5.67502e-05 -0.00111126
-0.0065877 -5.14913e-05 -0.00107433
-0.00657941 -4.59873e-05 -0.00105035
-0.00657106 -4.02524e-05 -0.00103902
-0.00656205 -3.4142e-05 -0.00103871
-0.00655285 -2.78673e-05 -0.00104117
-0.00654626 -2.14423e-05 -0.00104561
-0.00654163 -1.48332e-05 -0.00105189
-0.00653666 -8.05228e-06 -0.00105981
-0.00653077 -1.07869e-06 -0.00106923
-0.00652549 6.07061e-06 -0.00107991
-0.0065227 1.3485e-05 -0.00109161
-0.00652186 2.1163e-05 -0.00110406
-0.0065216 2.90767e-05 -0.00111697
-0.00652153 3.71951e-05 -0.00113004
-0.00652157 4.54135e-05 -0.00114292
-0.00652166 5.36167e-05 -0.00115526
-0.00652176 6.17138e-05 -0.00116675
-0.00652183 6.9607e-05 -0.00117707
-0.00652185 7.72095e-05 -0.00118592
-0.00652181 8.44388e-05 -0.00119304
-0.00652172 9.12133e-05 -0.0011982
-0.00652153 9.74868e-05 -0.00120116
-0.00651605 0.000103186 -0.00120188
-0.00650755 0.000108272 -0.00120022
-0.00649651 0.000112742 -0.00119629
-0.00648334 0.000116531 -0.00119004
-0.00646813 0.000119699 -0.00118159
-0.00645045 0.000122284 -0.00117098
-0.0064355 0.000124725 -0.00115851
-0.00641394 0.000127326 -0.00114462
-0.00638494 0.000129055 -0.00112873
-0.00636014 0.000130769 -0.00111164
-0.00633684 0.000132063 -0.00109335
-0.00631181 0.000133179 -0.00107413
-0.00628287 0.0001344 -0.00105449
-0.00625136 0.000135656 -0.00102266
-0.00622139 0.000136858 -0.000899556
-0.00619403 0.000138317 -0.000782371
-0.00616788 0.000140224 -0.000667814
-0.00614063 0.000142626 -0.000558955
-0.00611411 0.000145699 -0.000457203
-0.00609869 0.000149469 -0.000363636
-0.00609661 0.000153752 -0.000278633
-0.00609725 0.000158908 -0.000203663
-0.006098 0.0001652 -0.000140504
-0.00609871 0.000172746 -8.91294e-05
-0.00609965 0.000181618 -5.0128e-05
-0.00610075 0.000191936 -2.33165e-05
-0.00610198 0.000203552 -7.94247e-06
-0.00610343 0.000216299 -2.09885e-06
-0.00610515 0.000229982 -2.51655e-06
-0.00610712 0.000244243 -3.95214e-06
-0.00610924 0.000258823 -6.01764e-06
-0.00611135 0.000273399 -8.2663e-06
-0.0061134 0.000287644 -1.02679e-05
-0.00611536 0.000301238 -1.16041e-05
-0.00611718 0.000313885 -1.18931e-05
-0.00611877 0.00032536 -1.0812e-05
-0.00612007 0.000335456 -8.0948e-06
-0.00612105 0.000344008 -3.71181e-06
-0.00612171 0.000350849 2.34453e-05
-0.00612204 0.000355852 7.25934e-05
-0.00612184 0.000359057 0.000132604
-0.00612158 0.000360522 0.000203536
-0.00612103 0.000360155 0.000284991
-0.0061201 0.000358357 0.000374336
-0.00611951 0.000355046 0.000470489
-0.00611943 0.000350154 0.000572493
-0.00611998 0.000344067 0.0006769
-0.00612103 0.000336892 0.000781816
-0.0061225 0.000328954 0.00088423
-0.00612465 0.000320562 0.000981225
-0.00612629 0.000311873 0.00107066
-0.00612702 0.000303776 0.00114717
-0.00612044 0.00029624 0.00120977
-0.00610412 0.000289358 0.00125656
-0.00609193 0.000283083 0.00128655
-0.00608863 0.000277483 0.0012985
-0.00608874 0.000272706 0.00129713
-0.00608895 0.000268881 0.00129232
-0.00608931 0.000266044 0.00128405
-0.00609004 0.000264149 0.00127244
-0.00609212 0.00026315 0.00125767
-0.0060957 0.000263048 0.00123993
-0.00609972 0.000263746 0.00121954
-0.00610424 0.000265063 0.0011969
-0.00610933 0.000266739 0.0011725
-0.00611487 0.000268522 0.00114684
-0.0061206 0.000270188 0.00112042
-0.00612627 0.000271516 0.00109377
-0.00613185 0.000272254 0.00106742
-0.00613735 0.000272185 0.00104185
-0.0061426 0.000271105 0.00101752
-0.00614746 0.000268866 0.000994846
-0.0061517 0.000265282 0.000974169
-0.00615542 0.000259995 0.000955927
-0.00615904 0.000253607 0.000939982
-0.00616166 0.000245855 0.000926506
-0.00616354 0.000236792 0.00091566
-0.00616505 0.000226409 0.000907301
-0.00616634 0.000214625 0.000901518
-0.00616724 0.000201703 0.000897986
-0.00616758 0.000187787 0.000896493
-0.00616815 0.000173571 0.000896509
-0.00616799 0.000158878 0.000897734
-0.00616787 0.000143628 0.000900212
-0.00616798 0.000128391 0.000903084
-0.00616813 0.000113133 0.000906274
-0.00616841 9.83007e-05 0.000909169
-0.00616886 8.39932e-05 0.000911466
-0.00616982 7.03108e-05 0.000912858
-0.00617138 5.74139e-05 0.000913018
-0.00617335 4.54281e-05 0.000911681
-0.00617563 3.44748e-05 0.000908622
-0.00617833 2.45935e-05 0.000903698
-0.00618167 1.58776e-05 0.00089679
-0.00618542 8.35593e-06 0.000887838
-0.0061897 1.9573e-06 0.000876916
-0.00619445 -3.22503e-06 0.000863982
-0.00619843 -7.3356e-06 0.000849437
-0.0062028 -1.04403e-05 0.000833192
-0.0062082 -1.30059e-05 0.000780244
-0.0062128 -1.46843e-05 0.000680189
-0.00621774 -1.5624e-05 0.000579473
-0.00622168 -1.6638e-05 0.000476442
-0.00622654 -1.75473e-05 0.000374576
-0.00623178 -1.78113e-05 0.000271324
-0.00623655 -1.81347e-05 0.000172081
-0.00624126 -1.81874e-05 7.61187e-05
-0.0062462 -1.83687e-05 -1.4045e-05
-0.00625148 -1.88128e-05 -9.66444e-05
-0.00625681 -1.95511e-05 -0.000170845
-0.00626191 -2.07317e-05 -0.000235021
-0.00626689 -2.24793e-05 -0.000288196
-0.0062719 -2.49574e-05 -0.000329277
-0.00627688 -2.82961e-05 -0.000357549
-0.00628162 -3.2573e-05 -0.000372641
-0.00628598 -3.78901e-05 -0.000374934
-0.00628998 -4.43339e-05 -0.00037261
-0.00629364 -5.19659e-05 -0.000367825
-0.00629689 -6.08364e-05 -0.000360739
-0.00629962 -7.09151e-05 -0.000351597
-0.00634085 -8.31367e-05 -0.000340204
-0.00638377 -0.000104844 -0.000322824
-0.00643721 -0.000120662 -0.000309116
-0.00648748 -0.000140681 -0.000292846
-0.00653757 -0.000159719 -0.000277822
-0.00658694 -0.000178742 -0.00026437
-0.0066347 -0.000197395 -0.000252778
-0.00668088 -0.000215402 -0.00024374
-0.0067251 -0.000232517 -0.000237707
-0.00676712 -0.000248339 -0.000235389
-0.00680656 -0.000262819 -0.000236954
-0.00684321 -0.000275818 -0.000242665
-0.00687698 -0.000287169 -0.000252756
-0.00690775 -0.000296808 -0.000267295
-0.00693547 -0.00030476 -0.000286167
-0.00696023 -0.000311059 -0.000309184
-0.00698215 -0.000315774 -0.000336092
-0.00700145 -0.00031902 -0.000365843
-0.00701844 -0.000320736 -0.00049109
-0.00703351 -0.000321037 -0.000681212
-0.00696326 -0.000295687 -0.000922916
-0.00695919 -0.000290184 -0.00113767
-0.006974 -0.000280707 -0.0014142
-0.0069777 -0.000285248 -0.00152133
-0.00698539 -0.000285807 -0.00170165
-0.00698936 -0.000283962 -0.00186939
-0.0069955 -0.000287106 -0.00200453
-0.00700332 -0.000292594 -0.00211237
-0.00701045 -0.000297213 -0.00220731
-0.00701775 -0.000302442 -0.00228581
-0.00702661 -0.000310568 -0.00233537
-0.0070302 -0.000273681 -0.00233272
-0.00703529 -0.000287639 -0.00231312
-0.00705945 -0.000289189 -0.00230914
-0.00708575 -0.000307993 -0.00229338
-0.00712203 -0.00032178 -0.00228391
-0.00715126 -0.000336491 -0.0022645
-0.00718241 -0.000350967 -0.00224386
-0.00757183 -0.000366664 -0.00222207
-0.00828043 -0.000380031 -0.00220398
-0.00885326 -0.000397697 -0.00218345
-0.00944872 -0.000413583 -0.00216385
-0.00988792 -0.000413184 -0.00215487
-0.0102557 -0.000414008 -0.0021494
-0.0106875 -0.000418073 -0.00214261
-0.0110583 -0.000419403 -0.00214265
-0.0114427 -0.000423213 -0.00214322
-0.0117975 -0.000427446 -0.00214703
-0.0121218 -0.000431703 -0.00215496
-0.0124263 -0.000436546 -0.00216675
-0.0126996 -0.000473117 -0.0021822
-0.0129386 -0.000755963 -0.00219697
-0.0131232 -0.00130022 -0.00220869
-0.0132562 -0.0017861 -0.0022279
-0.0134211 -0.00212924 -0.00225536
-0.0135256 -0.00248574 -0.00228531
-0.0135728 -0.00283184 -0.00231931
-0.0136219 -0.00309085 -0.00238323
-0.0136505 -0.00329956 -0.00263084
-0.0136568 -0.00348021 -0.00295246
-0.0136588 -0.00359987 -0.00407846
-0.0136875 -0.00360466 -0.00534531
-0.0136978 -0.00360532 -0.00645337
-0.0136976 -0.00360418 -0.00746367
-0.0136968 -0.00360289 -0.00845864
-0.0136958 -0.00360153 -0.00943625
-0.0136945 -0.00360021 -0.0104085
-0.0136929 -0.00359938 -0.0113535
-0.0136911 -0.00359907 -0.0122604
-0.013689 -0.00359934 -0.0131158
-0.0136868 -0.00360029 -0.0139121
-0.0136845 -0.00360205 -0.0146484
-0.0136821 -0.0036047 -0.0153221
-0.0136797 -0.00366474 -0.0159251
-0.0136764 -0.00385765 -0.0164068
-0.0136733 -0.00408186 -0.0167883
-0.0136703 -0.00431132 -0.0171243
-0.013667 -0.00456441 -0.0173593
-0.0136637 -0.00483627 -0.017506
-0.0136605 -0.0051143 -0.017589
-0.0136572 -0.00541317 -0.0176019
-0.0136537 -0.00572671 -0.0175984
-0.0136501 -0.006028 -0.0175924
-0.0136463 -0.00631911 -0.0175839
-0.0136423 -0.00659946 -0.0175734
-0.0136371 -0.00691395 -0.0175586
-0.0136317 -0.0071805 -0.017543
-0.013626 -0.00738866 -0.0175271
-0.0136202 -0.00752043 -0.0175121
-0.013614 -0.0075717 -0.0174987
-0.0136072 -0.00757017 -0.017487
-0.0135992 -0.0075662 -0.017476
-0.01359 -0.00755924 -0.0174664
-0.0135797 -0.00755006 -0.0174582
-0.0135685 -0.00753921 -0.0174525
-0.0135563 -0.00752658 -0.017448
-0.0135428 -0.00751189 -0.0174442
-0.013528 -0.00749545 -0.0174406
-0.013512 -0.00747768 -0.0174367
-0.0134948 -0.00745879 -0.0174317
-0.0134768 -0.00743887 -0.0174249
-0.013458 -0.00741814 -0.0174158
-0.0134388 -0.0073969 -0.0174037
-0.0134193 -0.00737533 -0.0173882
-0.0134 -0.00735361 -0.0173687
-0.0133809 -0.00733188 -0.017345
-0.0133624 -0.00731033 -0.0173168
-0.0133447 -0.00728911 -0.017284
-0.0133279 -0.00726835 -0.0172466
-0.013313 -0.0072483 -0.0172046
-0.0132998 -0.00722946 -0.017158
-0.0132878 -0.00721307 -0.0171067
-0.0132759 -0.00719667 -0.0170223
-0.013265 -0.00718263 -0.0162011
-0.0132568 -0.00716861 -0.0154438
-0.0132509 -0.00715575 -0.0146823
-0.01324 -0.00714341 -0.0139149
-0.0131612 -0.00713181 -0.0131461
-0.0130963 -0.007108 -0.0123815
-0.0130404 -0.00695302 -0.0116665
-0.0129916 -0.00681749 -0.0109681
-0.0129476 -0.00668152 -0.0102975
-0.0129074 -0.00654245 -0.00967067
-0.0128659 -0.00640801 -0.00908324
-0.0128307 -0.00627543 -0.00854734
-0.0128008 -0.00614313 -0.00806512
-0.0127784 -0.00600972 -0.00764274
-0.0127594 -0.00587526 -0.00728313
-0.0127464 -0.00573796 -0.0069887
-0.0127396 -0.00559741 -0.00676115
-0.0127384 -0.00545588 -0.0065961
-0.0127386 -0.00531391 -0.00649158
-0.0127388 -0.00517416 -0.00644185
-0.012739 -0.00503818 -0.00643875
-0.0127392 -0.00490963 -0.00644258
-0.0127394 -0.00478914 -0.00644917
-0.0127395 -0.00467739 -0.00645797
-0.0127395 -0.00457193 -0.0064684
-0.012712 -0.00447135 -0.00648048
-0.0127116 -0.00437742 -0.00649319
-0.0127126 -0.00430451 -0.00650533
-0.0127112 -0.00421974 -0.00651913
-0.0127001 -0.00414225 -0.00653174
-0.0126959 -0.00405938 -0.00654169
-0.012697 -0.00398368 -0.00655033
-0.0126967 -0.00390692 -0.00655795
-0.0126959 -0.00383232 -0.00656398
-0.0126962 -0.00376677 -0.00656774
-0.0126966 -0.00370646 -0.00656931
-0.0126962 -0.00364688 -0.00656877
-0.0126957 -0.00359108 -0.00656585
-0.0126957 -0.00354152 -0.0065604
-0.0126956 -0.00349605 -0.00655258
-0.0126942 -0.0034531 -0.00654257
-0.0126775 -0.00341518 -0.00653039
-0.0126635 -0.00338614 -0.00651601
-0.012647 -0.00336456 -0.00649984
-0.0126238 -0.0033508 -0.00648215
-0.012596 -0.00334493 -0.00646333
-0.0125681 -0.00334497 -0.00644378
-0.0125556 -0.00334516 -0.00626778
-0.0125278 -0.00334655 -0.00597189
-0.012507 -0.00334756 -0.00573565
-0.0124782 -0.00334886 -0.00551343
-0.0124509 -0.00334962 -0.00531123
-0.0124198 -0.00335001 -0.00513189
-0.0123879 -0.00334969 -0.0049812
-0.0123629 -0.0033487 -0.00486082
-0.0123565 -0.00334721 -0.00477144
-0.0123569 -0.00334498 -0.00471436
-0.0123573 -0.00331033 -0.00469491
-0.0123577 -0.00325835 -0.00469674
-0.0123585 -0.00320079 -0.00470058
-0.0123599 -0.00313605 -0.00470662
-0.0123612 -0.00306661 -0.00471435
-0.0123631 -0.00299418 -0.0047234
-0.0123661 -0.00292807 -0.00473285
-0.0123702 -0.00286973 -0.00474238
-0.0123754 -0.00284244 -0.00475032
-0.012381 -0.00282354 -0.00475775
-0.0123927 -0.00281787 -0.00476415
-0.0123984 -0.00281834 -0.00476957
-0.0124013 -0.00282031 -0.00477365
-0.0124046 -0.00282467 -0.00477581
-0.0124075 -0.00283129 -0.00477631
-0.0124081 -0.00284004 -0.00477531
-0.0124077 -0.00285081 -0.00477317
-0.0124075 -0.00286332 -0.00477033
-0.0124069 -0.00287612 -0.00476802
-0.0124056 -0.00289022 -0.00476594
-0.0124045 -0.00290454 -0.00476532
-0.0124033 -0.00291904 -0.00476632
-0.0124019 -0.00293282 -0.00476991
-0.0124006 -0.00294553 -0.00477627
-0.0123998 -0.00295677 -0.00478567
-0.0123993 -0.0029664 -0.0047988
-0.0123989 -0.00297409 -0.00481587
-0.0123945 -0.00297969 -0.00483665
-0.0123946 -0.00298327 -0.00486089
-0.0123913 -0.00298443 -0.00488849
-0.0123729 -0.00298363 -0.0049186
-0.0123491 -0.00298084 -0.00495049
-0.0123222 -0.00297641 -0.00498314
-0.0122965 -0.00297065 -0.00501555
-0.0122796 -0.00296391 -0.00504401
-0.0122787 -0.00295584 -0.00533386
-0.01228 -0.00294818 -0.00560124
-0.0122818 -0.00294114 -0.00582943
-0.012285 -0.00293546 -0.00599986
-0.0122886 -0.00293116 -0.00610831
-0.0122906 -0.00292833 -0.00615468
-0.0122911 -0.00292714 -0.0061529
-0.012291 -0.00292773 -0.00614434
-0.0122905 -0.0029301 -0.00612986
-0.0122891 -0.00293385 -0.00611024
-0.0122735 -0.00293857 -0.00591978
-0.0122143 -0.00294391 -0.00568523
-0.0121513 -0.00294954 -0.00542182
-0.0120966 -0.00295493 -0.00514294
-0.0120469 -0.00295956 -0.00485173
-0.0119978 -0.00296293 -0.00456017
-0.0119554 -0.00296487 -0.00427494
-0.0119245 -0.00296519 -0.00400284
-0.0119024 -0.00296369 -0.00374924
-0.0118785 -0.00296023 -0.00351885
-0.0118429 -0.00295461 -0.00331581
-0.0118001 -0.0029467 -0.00314154
-0.0117876 -0.00293676 -0.002994
-0.0117892 -0.00292553 -0.00287049
-0.011791 -0.00291274 -0.00277286
-0.0117924 -0.00289859 -0.00269843
-0.0117941 -0.00288379 -0.0026424
-0.0117964 -0.002869 -0.00259895
-0.0117991 -0.00296557 -0.00257279
-0.0118377 -0.00298655 -0.00267678
-0.0118232 -0.00304759 -0.00266151
-0.0118524 -0.00303028 -0.00268242
-0.011855 -0.00302373 -0.00264686
-0.0118684 -0.00301451 -0.00264364
-0.0118682 -0.00301908 -0.00263601
-0.0118685 -0.00302108 -0.00262578
-0.0118691 -0.00301732 -0.00260157
-0.0118692 -0.00301418 -0.00257971
-0.0118677 -0.00301412 -0.00248457
-0.0118659 -0.00301893 -0.00225112
-0.0118651 -0.00302009 -0.00201748
-0.0118635 -0.00302247 -0.00175589
-0.0118622 -0.00302515 -0.00152346
-0.0118606 -0.00302852 -0.00128754
-0.0118591 -0.00303094 -0.00107172
-0.0118252 -0.00303339 -0.000874782
-0.0117814 -0.00303544 -0.000710457
-0.0117303 -0.00303667 -0.000577786
-0.0116915 -0.00303687 -0.000477595
-0.0116693 -0.00303631 -0.000414766
-0.0116577 -0.00303483 -0.000392787
-0.0116458 -0.00303228 -0.000395016
-0.0116391 -0.00302863 -0.000401506
-0.0116378 -0.0030248 -0.000412009
-0.0116384 -0.00302311 -0.000427657
-0.011639 -0.00302269 -0.000448188
-0.0116394 -0.0030223 -0.000470853
-0.0116402 -0.00302065 -0.000494929
-0.0116411 -0.00301827 -0.000518818
-0.011642 -0.00301623 -0.00054312
-0.0116427 -0.00301513 -0.000567456
-0.0116436 -0.00301448 -0.000590259
-0.0116447 -0.00301328 -0.00061024
-0.0116481 -0.00301123 -0.000626228
-0.0116512 -0.00300926 -0.000638242
-0.0116538 -0.00300808 -0.00064635
-0.0116555 -0.00300777 -0.000650033
-0.0116569 -0.00300799 -0.000648868
-0.011662 -0.00300838 -0.00064228
-0.0116722 -0.00300981 -0.000630461
-0.0116874 -0.00301234 -0.000614819
-0.0116964 -0.00301585 -0.000595579
-0.0116967 -0.00301922 -0.000574178
-0.0116959 -0.00302331 -0.000550245
-0.011696 -0.00302817 -0.000524663
-0.0116962 -0.00303311 -0.000498081
-0.0116957 -0.00303734 -0.000471222
-0.0116952 -0.00304128 -0.000444889
-0.0116951 -0.00304522 -0.000420262
-0.0116948 -0.00304909 -0.000399052
-0.0116945 -0.0030526 -0.000300629
-0.011694 -0.0030584 -0.000433406
-0.0116942 -0.00306106 -0.000477504
-0.0116956 -0.00306042 -0.00048028
-0.0116953 -0.00306221 -0.000478205
-0.011697 -0.00306139 -0.000479067
-0.0117048 -0.00306029 -0.000483452
-0.0117136 -0.00305755 -0.00049065
-0.0117222 -0.00305565 -0.000500333
-0.0117326 -0.00305383 -0.000512805
-0.0117433 -0.00305158 -0.000527419
-0.0117515 -0.0030493 -0.000542283
-0.0117623 -0.00304785 -0.000556924
-0.0117715 -0.00304709 -0.000572081
-0.0117788 -0.00304724 -0.000587006
-0.0117867 -0.00304773 -0.000601316
-0.0117948 -0.00304864 -0.000613483
-0.0118022 -0.00305007 -0.000623773
-0.0118086 -0.00305197 -0.000632342
-0.011815 -0.00305427 -0.000638796
-0.0118206 -0.00305653 -0.000643431
-0.0118253 -0.00305916 -0.000645836
-0.0118302 -0.00306245 -0.000646661
-0.0118338 -0.00306637 -0.000646278
-0.0118358 -0.00309147 -0.000644798
-0.0118367 -0.00313436 -0.000642294
-0.0118371 -0.00317967 -0.000639778
-0.011837 -0.00322303 -0.000638519
-0.0118369 -0.00326827 -0.000639302
-0.0118365 -0.00331642 -0.000640645
-0.0118359 -0.00335658 -0.000643676
-0.0118356 -0.00339215 -0.000647989
-0.0118359 -0.003425 -0.000653962
-0.0118365 -0.00345436 -0.000662028
-0.0118371 -0.00348424 -0.000671224
-0.011839 -0.00350906 -0.000682312
-0.0118404 -0.00352876 -0.000693879
-0.0118422 -0.00354373 -0.000938293
-0.011843 -0.00355887 -0.00125433
-0.0118432 -0.00357577 -0.00160566
-0.0118433 -0.00358911 -0.00198408
-0.0118421 -0.00359706 -0.00239032
-0.0118396 -0.00359961 -0.00279511
-0.0118361 -0.00360327 -0.00321769
-0.0118317 -0.0036076 -0.00376016
-0.0118265 -0.00360873 -0.00435396
-0.0118207 -0.00360805 -0.00497324
-0.0118144 -0.00360703 -0.00559364
-0.0118082 -0.00360652 -0.00619288
-0.0118023 -0.00360567 -0.00678292
-0.0117672 -0.00360466 -0.00736715
-0.0117004 -0.00360634 -0.00791063
-0.0116806 -0.00360707 -0.00845246
-0.011672 -0.00361843 -0.00892803
-0.0116717 -0.00363481 -0.0093589
-0.0116694 -0.00364725 -0.00974063
-0.0116622 -0.00365645 -0.0100604
-0.0116578 -0.0036583 -0.0103146
-0.0116539 -0.00365797 -0.0104975
-0.0116491 -0.00365696 -0.0106172
-0.0116385 -0.00365525 -0.0106717
-0.0116261 -0.00365278 -0.0106712
-0.011616 -0.00364941 -0.0106625
-0.0116048 -0.00364533 -0.0106474
-0.0115885 -0.00364058 -0.0106262
-0.0115691 -0.00363563 -0.0105995
-0.0115505 -0.00363027 -0.0105676
-0.0115317 -0.0036244 -0.0105309
-0.0115124 -0.0036178 -0.0104901
-0.0114926 -0.00361047 -0.0104461
-0.0114753 -0.00360392 -0.0104013
-0.0114653 -0.00359876 -0.0103578
-0.0114609 -0.0035842 -0.0100002
-0.0114603 -0.00358401 -0.00963515
-0.0114609 -0.00357781 -0.0092987
-0.0114615 -0.00356508 -0.00895085
-0.011463 -0.00354961 -0.00858648
-0.0114655 -0.00353655 -0.00822788
-0.0114683 -0.00352542 -0.0078859
-0.0114706 -0.00351021 -0.00755704
-0.0114797 -0.0034902 -0.00722622
-0.0114893 -0.00345914 -0.00687782
-0.0115057 -0.00342979 -0.00650009
-0.0115226 -0.00341596 -0.00614861
-0.0115343 -0.00340437 -0.00580275
-0.011544 -0.00338659 -0.00543145
-0.0115566 -0.00336502 -0.0050459
-0.0115674 -0.00335131 -0.00476918
-0.0115739 -0.00334992 -0.00462746
-0.0115788 -0.00335069 -0.00454568
-0.0115829 -0.00335148 -0.00443585
-0.0115835 -0.00335185 -0.00439504
-0.0115829 -0.00335535 -0.0044478
-0.0115818 -0.00335833 -0.00448451
-0.0115807 -0.00336277 -0.00450663
-0.0115792 -0.00336622 -0.00449897
-0.0115776 -0.00337071 -0.00448168
-0.0115757 -0.0033758 -0.00447769
-0.0115741 -0.00340708 -0.00449379
-0.0115727 -0.00344199 -0.00451296
-0.0115714 -0.00346291 -0.00451806
-0.0115695 -0.00348444 -0.00452349
-0.0115668 -0.00350526 -0.00453568
-0.0115634 -0.00351081 -0.00455462
-0.0115391 -0.00351031 -0.0045757
-0.0114576 -0.00350937 -0.00459464
-0.0114343 -0.00350811 -0.00460989
-0.0114358 -0.0035064 -0.00462233
-0.0114375 -0.00350393 -0.00463667
-0.0114396 -0.0035009 -0.00490412
-0.0114443 -0.00349845 -0.00519637
-0.0114534 -0.00349731 -0.00548257
-0.0114595 -0.0034873 -0.00576957
-0.0114631 -0.00346848 -0.00605708
-0.011466 -0.00345754 -0.0063354
-0.0114697 -0.0034529 -0.00660144
-0.0114707 -0.00345177 -0.00683351
-0.0114703 -0.00345214 -0.00701807
-0.0114696 -0.00345317 -0.00717674
-0.0114689 -0.00345495 -0.00732136
-0.0114677 -0.00345989 -0.00745757
-0.0114662 -0.00348269 -0.00757549
-0.0114645 -0.00351048 -0.00766439
-0.0114348 -0.0035409 -0.00772548
-0.0114265 -0.00357106 -0.00776767
-0.0114157 -0.00360391 -0.00780563
-0.0113888 -0.00363585 -0.0078322
-0.0113404 -0.00366047 -0.00784192
-0.0113011 -0.00368272 -0.00784132
-0.0112839 -0.0037061 -0.00783989
-0.0112638 -0.00372786 -0.00783774
-0.0112292 -0.00374348 -0.00783507
-0.0111967 -0.00375278 -0.00783215
-0.0111626 -0.00375873 -0.00782949
-0.0111286 -0.00376223 -0.0078279
-0.0111071 -0.00376131 -0.00782672
-0.0111061 -0.00375907 -0.00782524
-0.0111068 -0.00375496 -0.00782398
-0.0111072 -0.00374912 -0.0078227
-0.0111079 -0.00374171 -0.00782111
-0.0111092 -0.0037335 -0.00781852
-0.0111108 -0.00370866 -0.00781561
-0.0111123 -0.00366747 -0.00781339
-0.0111138 -0.00364496 -0.00781004
-0.0111157 -0.00362708 -0.00780369
-0.011121 -0.00358671 -0.00779252
-0.0111341 -0.00355397 -0.00777683
-0.0111498 -0.00352955 -0.00775797
-0.0111637 -0.00350862 -0.00773681
-0.0111745 -0.00349349 -0.00771614
-0.0111844 -0.00347838 -0.00763047
-0.0111912 -0.00346977 -0.00749784
-0.0111971 -0.00346794 -0.00740192
-0.0112032 -0.00346868 -0.00729095
-0.0112081 -0.00346997 -0.00714392
-0.0112118 -0.00347152 -0.00697574
-0.011215 -0.00347344 -0.00681565
-0.011218 -0.00347583 -0.00667413
-0.0112207 -0.00347855 -0.00653643
-0.0112232 -0.00348171 -0.00638749
-0.011225 -0.00348349 -0.00623794
-0.0112287 -0.00348582 -0.00610194
-0.0112326 -0.00348814 -0.00598609
-0.0112381 -0.00348976 -0.00589182
-0.0112442 -0.00349117 -0.00580941
-0.0112517 -0.00349203 -0.00573857
-0.0112614 -0.00349258 -0.00568243
-0.0112738 -0.00349272 -0.00564852
-0.0112875 -0.00349262 -0.0056388
-0.0113015 -0.00349239 -0.00564154
-0.0113159 -0.00349249 -0.00564971
-0.0113292 -0.00349374 -0.00566287
-0.0113447 -0.00349523 -0.00567991
-0.0113566 -0.00350363 -0.00569598
-0.0113664 -0.00351672 -0.00571037
-0.0113757 -0.00353674 -0.00572532
-0.0113828 -0.00356029 -0.00573712
-0.0113872 -0.00358103 -0.00574619
-0.0113887 -0.00359984 -0.00575433
-0.0113886 -0.00362113 -0.00588124
-0.0113882 -0.00364779 -0.00606135
-0.0113877 -0.00368257 -0.00626718
-0.011387 -0.00371641 -0.00646684
-0.0113863 -0.00373778 -0.00663134
-0.0113863 -0.0037633 -0.00679433
-0.0113867 -0.00379561 -0.00699381
-0.0113866 -0.00382588 -0.00721214
-0.0113864 -0.00384738 -0.00741801
-0.0113866 -0.00386559 -0.00759664
-0.0113871 -0.00388881 -0.007768
-0.0113877 -0.00391561 -0.00795806
-0.0113882 -0.003939 -0.00816781
-0.0113909 -0.00395577 -0.00838105
-0.0113968 -0.00396969 -0.00858754
-0.011404 -0.00406889 -0.00879799
-0.0114138 -0.00415329 -0.00904547
-0.0114206 -0.00426423 -0.00924291
-0.0114325 -0.00436293 -0.00956624
-0.0114411 -0.00447258 -0.00990987
-0.0114493 -0.00457142 -0.0102632
-0.0114584 -0.00467345 -0.0105679
-0.0114684 -0.0047741 -0.0108871
-0.0114763 -0.00487799 -0.0113362
-0.0114838 -0.00497679 -0.0117684
-0.0114927 -0.00507486 -0.0121539
-0.0115012 -0.00516703 -0.0125022
-0.0115088 -0.0052515 -0.0128177
-0.0115162 -0.00533359 -0.0130858
-0.0115249 -0.00540986 -0.0133161
-0.0115351 -0.00548235 -0.0135005
-0.011583 -0.005559 -0.0136374
-0.0116348 -0.00563231 -0.0137176
-0.0116828 -0.00569809 -0.0137774
-0.0117293 -0.00576203 -0.0137843
-0.0117737 -0.00581585 -0.0137822
-0.0118157 -0.00586368 -0.0137769
-0.0118559 -0.00590334 -0.0137692
-0.0118933 -0.00593492 -0.0137594
-0.0119275 -0.0059575 -0.0137478
-0.0119579 -0.00597195 -0.0137349
-0.0119842 -0.00597763 -0.0137209
-0.0120055 -0.00597725 -0.0137062
-0.0120212 -0.00597558 -0.0136908
-0.0120306 -0.00597265 -0.0136749
-0.0120333 -0.00596843 -0.0136587
-0.0120325 -0.00596325 -0.0136428
-0.0120305 -0.0059572 -0.0136278
-0.0120273 -0.00595012 -0.0136133
-0.0120229 -0.0059419 -0.0135993
-0.0120175 -0.00593268 -0.0135859
-0.0120114 -0.00592263 -0.0135729
-0.0120051 -0.00591191 -0.0135605
-0.0119987 -0.0059006 -0.0135483
-0.0119922 -0.00588873 -0.0135361
-0.0119857 -0.00587649 -0.0135235
-0.0119795 -0.00586407 -0.0135104
-0.0119735 -0.00585162 -0.0134966
-0.0119678 -0.00583935 -0.0134817
-0.0119625 -0.00582743 -0.0134659
-0.0119578 -0.00581608 -0.0134496
-0.0119536 -0.00580545 -0.0134338
-0.01195 -0.00579576 -0.0134204
-0.0119471 -0.00578723 -0.0133262
-0.0119448 -0.00578002 -0.0131804
-0.0119432 -0.00577376 -0.0130749
-0.0119419 -0.0057689 -0.0129859
-0.0119407 -0.00576519 -0.0129089
-0.0119393 -0.00576279 -0.0128264
-0.0119376 -0.00576154 -0.0127301
-0.0119353 -0.00576155 -0.0126245
-0.0119324 -0.00576263 -0.0125235
-0.0119289 -0.00576452 -0.0124353
-0.0119247 -0.00576681 -0.0123596
-0.0119199 -0.00576912 -0.0122882
-0.0119147 -0.00577108 -0.0122202
-0.0119104 -0.00577164 -0.0121637
-0.011905 -0.00577174 -0.0121236
-0.0118992 -0.00577052 -0.0121056
-0.0118927 -0.00576818 -0.0121033
-0.0118855 -0.00576471 -0.0121064
-0.0118783 -0.00576056 -0.0121137
-0.0118525 -0.0057561 -0.012123
-0.011726 -0.00575223 -0.0121332
-0.0116454 -0.0057479 -0.0121434
-0.0116084 -0.00574335 -0.012181
-0.0116045 -0.0057386 -0.0122725
-0.0116045 -0.00573364 -0.0123765
-0.0116045 -0.00572978 -0.0124785
-0.0116031 -0.00572576 -0.0125721
-0.0116033 -0.00572142 -0.0126645
-0.0116036 -0.00571718 -0.0127559
-0.0116037 -0.00571267 -0.0128505
-0.0116037 -0.00570835 -0.0129405
-0.0116039 -0.00570406 -0.0130213
-0.0116042 -0.00566347 -0.0130924
-0.0116042 -0.00562777 -0.0131551
-0.0116041 -0.00559971 -0.0132062
-0.0116039 -0.00557679 -0.0132443
-0.0116037 -0.00556061 -0.013265
-0.0116032 -0.00554778 -0.0132688
-0.0115906 -0.00553773 -0.0132649
-0.0115696 -0.00552932 -0.013257
-0.0115465 -0.0055236 -0.0132451
-0.0115244 -0.00551983 -0.0132295
-0.0115035 -0.00551691 -0.0132103
-0.0114847 -0.0055126 -0.0131886
-0.0114543 -0.00550619 -0.0131689
-0.0114245 -0.00549823 -0.0131583
-0.0114247 -0.00548918 -0.0130899
-0.011425 -0.00547424 -0.0130398
-0.0114238 -0.00545363 -0.0129637
-0.0114119 -0.00543698 -0.0128222
-0.0114124 -0.00542443 -0.0126488
-0.0114129 -0.00541076 -0.0124995
-0.0114128 -0.00536587 -0.0123685
-0.0114144 -0.0053297 -0.0122311
-0.0114169 -0.00531233 -0.0120749
-0.0114178 -0.00529056 -0.0118756
-0.0114183 -0.00525597 -0.0116523
-0.0114199 -0.00521873 -0.0114452
-0.0114216 -0.00519023 -0.0112669
-0.011423 -0.00517023 -0.0110904
-0.0114252 -0.0051561 -0.0108775
-0.011437 -0.00514569 -0.0106304
-0.0114595 -0.00514631 -0.0103966
-0.0114846 -0.00514849 -0.0101967
-0.0115011 -0.00515094 -0.0100087
-0.0115095 -0.00515187 -0.00995155
-0.0115171 -0.00515233 -0.00987851
-0.0115298 -0.00515269 -0.00983673
-0.0115398 -0.00515438 -0.00978208
-0.0115472 -0.00515664 -0.00975241
-0.0115565 -0.00515867 -0.00975537
-0.0115659 -0.00516068 -0.00976075
-0.0115731 -0.00516192 -0.00976694
-0.0115796 -0.00516311 -0.0097671
-0.0115866 -0.0051651 -0.00976431
-0.0115933 -0.00516804 -0.00976121
-0.0115993 -0.00517193 -0.00976027
-0.0116055 -0.00517686 -0.00976118
-0.0116116 -0.00518232 -0.00976176
-0.0116157 -0.00519132 -0.0097607
-0.0116184 -0.0052109 -0.00976208
-0.0116214 -0.0052278 -0.00976997
-0.0116239 -0.00524454 -0.00978423
-0.0116257 -0.00526192 -0.00980429
-0.0116275 -0.0052749 -0.00981884
-0.0116302 -0.0052825 -0.0098296
-0.011634 -0.00528849 -0.00983926
-0.0116387 -0.00529355 -0.0098485
-0.0116446 -0.00529806 -0.00985958
-0.0116509 -0.00530142 -0.00987128
-0.0116596 -0.00530217 -0.00998983
-0.0116687 -0.00530209 -0.0101575
-0.0116779 -0.00530237 -0.0103475
-0.0116881 -0.00530375 -0.010543
-0.0116989 -0.00530469 -0.0107185
-0.0117098 -0.00530756 -0.0108654
-0.0117208 -0.00531575 -0.0109988
-0.0117315 -0.00532341 -0.011133
-0.0117433 -0.00532713 -0.0112663
-0.011758 -0.00533323 -0.011398
-0.0117732 -0.00534509 -0.0115192
-0.0117862 -0.00536007 -0.0116196
-0.0117977 -0.00537484 -0.0117035
-0.01181 -0.00539018 -0.0117843
-0.0118229 -0.00540887 -0.0118681
-0.011911 -0.00543461 -0.0119423
-0.0120312 -0.00561488 -0.0120004
-0.0121668 -0.00577818 -0.0121131
-0.0122963 -0.00596848 -0.0121351
-0.0124304 -0.00612422 -0.0122025
-0.012561 -0.00630388 -0.0122667
-0.0126932 -0.00646897 -0.0123722
-0.0128221 -0.00663745 -0.0124581
-0.0129499 -0.00679967 -0.0127676
-0.0130728 -0.00696895 -0.0132096
-0.0131929 -0.00712191 -0.0137099
-0.0133035 -0.00727401 -0.0142199
-0.0134102 -0.00741601 -0.0147618
-0.0135104 -0.00755218 -0.015326
-0.0135884 -0.00821137 -0.0158882
-0.0136392 -0.00941128 -0.0163477
-0.0136993 -0.0102367 -0.0169385
-0.0142109 -0.0110779 -0.0174885
-0.0148392 -0.011741 -0.0185754
-0.0154494 -0.0123225 -0.0201165
-0.0159896 -0.0129217 -0.0215299
-0.0165227 -0.0134694 -0.0229508
-0.0170372 -0.0139788 -0.0243391
-0.0351566 -0.0140896 -0.0262599
-0.0377509 -0.0141203 -0.0329145
-0.0378348 -0.0140853 -0.0417806
-0.0378312 -0.0141415 -0.042238
-0.0378648 -0.0141415 -0.0437284
-0.0378891 -0.0141696 -0.0446476
-0.0380272 -0.0142146 -0.0455823
-0.0387874 -0.0148509 -0.0461058
-0.0393309 -0.0157049 -0.0463431
-0.0400543 -0.0164259 -0.0466404
-0.0407299 -0.0171747 -0.0468217
-0.0408186 -0.036123 -0.0464449
-0.0408592 -0.0391657 -0.0459714
-0.0408646 -0.0389877 -0.0466539
-0.040879 -0.0391732 -0.0466386
-0.0414417 -0.0392196 -0.0466455
-0.0420631 -0.0400485 -0.0466363
-0.0427162 -0.0411622 -0.0466305
-0.0433947 -0.0421614 -0.0466327
-0.0439979 -0.043268 -0.0466308
-0.0445252 -0.0443334 -0.0466344
-0.0450327 -0.0453029 -0.0466455
-0.0454482 -0.0462805 -0.0466589
-0.0458146 -0.0471999 -0.0466693
-0.046136 -0.0480106 -0.0466815
-0.0463742 -0.0487666 -0.0466983
-0.0465493 -0.0494482 -0.0468316
-0.0466749 -0.0500313 -0.0478465
-0.0467672 -0.0504899 -0.0491812
-0.0468067 -0.0508857 -0.05062
-0.0468089 -0.0512059 -0.0521753
-0.0468083 -0.0514497 -0.0538442
-0.0468072 -0.0516331 -0.0555942
-0.046806 -0.0517624 -0.0574028
-0.0468046 -0.0518529 -0.0592357
-0.0468034 -0.0519234 -0.0610642
-0.0468024 -0.0519907 -0.0628637
-0.0468019 -0.0520806 -0.0646019
-0.0468021 -0.0523446 -0.0661824
-0.0468022 -0.052702 -0.0675908
-0.0468027 -0.0530105 -0.0689702
-0.0468035 -0.053413 -0.0701589
-0.0468047 -0.0538791 -0.0711773
-0.0468067 -0.0543515 -0.0720717
-0.0468089 -0.0549145 -0.0727758
-0.0468965 -0.0555385 -0.0733072
-0.0470807 -0.0561671 -0.0737113
-0.0473163 -0.0568519 -0.0739514
-0.0475115 -0.0574485 -0.0739376
-0.047874 -0.0579275 -0.0739099
-0.0481807 -0.0586479 -0.0739115
-0.048322 -0.0595883 -0.0738979
-0.0486361 -0.0603331 -0.0739214
-0.0487986 -0.0611519 -0.0739189
-0.0489508 -0.0618786 -0.0739119
-0.049137 -0.0624903 -0.073906
-0.0492003 -0.0631848 -0.0739078
-0.0492159 -0.063778 -0.0739129
-0.0492218 -0.06426 -0.0739197
-0.0492198 -0.0647096 -0.0739206
-0.0492145 -0.0649654 -0.0739276
-0.0492106 -0.0651417 -0.0739394
-0.0492058 -0.0653035 -0.0739513
-0.0492007 -0.0653233 -0.073963
-0.0491944 -0.0653223 -0.0739741
-0.0491872 -0.0653195 -0.0739873
-0.0491793 -0.0653155 -0.0740161
-0.0491712 -0.06531 -0.0746948
-0.0491631 -0.0653033 -0.0754698
-0.0491551 -0.065296 -0.0761913
-0.0491495 -0.0652894 -0.0767522
-0.0491446 -0.0652828 -0.0772646
-0.0491402 -0.0652759 -0.0777404
-0.0491362 -0.065269 -0.0781704
-0.0490667 -0.0652626 -0.0785376
-0.0489871 -0.0652571 -0.0788327
-0.0489517 -0.0652515 -0.0790532
-0.0489281 -0.0652462 -0.0792021
-0.0489045 -0.0652417 -0.0792509
-0.0488849 -0.0652376 -0.0792486
-0.0488737 -0.0651772 -0.0792421
-0.048873 -0.0650364 -0.0792324
-0.0488732 -0.0649573 -0.0792171
-0.0488732 -0.0649444 -0.0791961
-0.0488736 -0.0649446 -0.0791753
-0.0488739 -0.0649457 -0.0791631
-0.048874 -0.0649521 -0.0791581
-0.048874 -0.064961 -0.0791566
-0.0488739 -0.0649712 -0.0791562
-0.0488735 -0.0649834 -0.0791545
-0.0488729 -0.0649959 -0.0791503
-0.0488417 -0.0650084 -0.0791237
-0.048782 -0.0650215 -0.0787772
-0.0487069 -0.0650335 -0.0783621
-0.048626 -0.0650427 -0.0779104
-0.0485718 -0.0650464 -0.0774488
-0.0484625 -0.0650488 -0.0770116
-0.0483315 -0.0650509 -0.0766267
-0.0481816 -0.0650504 -0.0763409
-0.0480007 -0.0650497 -0.0761306
-0.0477906 -0.0650496 -0.075981
-0.0475734 -0.0650492 -0.0758919
-0.0473403 -0.0650485 -0.0758043
-0.0470869 -0.0650475 -0.0757084
-0.0468374 -0.0650459 -0.0756331
-0.0466078 -0.0650439 -0.0756128
-0.0464609 -0.0650418 -0.0756137
-0.0463634 -0.0650393 -0.0756155
-0.0463228 -0.0650363 -0.0756195
-0.0463233 -0.065033 -0.0756253
-0.0463248 -0.0650293 -0.0756321
-0.0463268 -0.0649805 -0.0756725
-0.0463292 -0.0646427 -0.0757951
-0.0463314 -0.0641798 -0.0758988
-0.046333 -0.063628 -0.0759534
-0.0463349 -0.0630341 -0.0759675
-0.0463369 -0.0624916 -0.0759669
-0.0463387 -0.0620952 -0.0759661
-0.0463401 -0.0618672 -0.0759656
-0.0463412 -0.0617665 -0.0759648
-0.0463418 -0.061736 -0.0759633
-0.0463428 -0.0616987 -0.0759609
-0.0463434 -0.0615825 -0.0759587
-0.0463432 -0.0614308 -0.0758824
-0.0463426 -0.0613185 -0.0756673
-0.0463424 -0.0613018 -0.0753264
-0.0463429 -0.061304 -0.0748298
-0.0463431 -0.061307 -0.074208
-0.046343 -0.0613098 -0.0735161
-0.046343 -0.0613118 -0.0728202
-0.0463429 -0.0613138 -0.0721866
-0.0463434 -0.0613165 -0.0716413
-0.0463439 -0.0613192 -0.0711541
-0.0463443 -0.0613221 -0.0706398
-0.046345 -0.0613252 -0.0700538
-0.0463457 -0.0613584 -0.0693897
-0.0463467 -0.0614295 -0.0686962
-0.0463633 -0.0615342 -0.068007
-0.0463879 -0.0616497 -0.0674017
-0.0464218 -0.0617454 -0.0669351
-0.0464548 -0.0618133 -0.0665862
-0.0464829 -0.0618476 -0.0663139
-0.0465101 -0.0618496 -0.0660773
-0.0465398 -0.0618494 -0.0658544
-0.0465683 -0.0618494 -0.0656251
-0.0465937 -0.0618494 -0.0654127
-0.0466158 -0.0618491 -0.0652499
-0.0466232 -0.0618481 -0.0651716
-0.0466227 -0.0618465 -0.0651697
-0.0466213 -0.0618446 -0.0651741
-0.0466191 -0.0618427 -0.0651829
-0.046616 -0.0618408 -0.0651961
-0.0465431 -0.0618388 -0.0652109
-0.0463565 -0.0617595 -0.0652212
-0.0461701 -0.0615313 -0.0652296
-0.0459606 -0.0612297 -0.065237
-0.0457283 -0.0609682 -0.0652427
-0.0455051 -0.0607153 -0.0655194
-0.0453264 -0.060474 -0.0659731
-0.0452401 -0.0603239 -0.0665142
-0.0452341 -0.0602217 -0.0670466
-0.0452354 -0.0601135 -0.0675521
-0.0452359 -0.0600374 -0.0678763
-0.0452353 -0.0599966 -0.0680306
-0.0452346 -0.0599629 -0.068107
-0.0452344 -0.0599512 -0.0681935
-0.0452345 -0.0599522 -0.068365
-0.0452343 -0.0599535 -0.0686523
-0.0452269 -0.0599553 -0.06895
-0.0451447 -0.0599575 -0.0692186
-0.0450399 -0.0599594 -0.0694
-0.0449363 -0.0599608 -0.0694394
-0.0448525 -0.0599622 -0.0694393
-0.0447885 -0.0599638 -0.0694572
-0.0447156 -0.0600074 -0.0695459
-0.0446079 -0.0600998 -0.0696622
-0.0444739 -0.0601966 -0.0697665
-0.0443331 -0.0602846 -0.0698646
-0.0441988 -0.0603673 -0.0698876
-0.0440803 -0.0604421 -0.0698872
-0.0439819 -0.0605101 -0.0698873
-0.0438731 -0.0605756 -0.0699069
-0.0437416 -0.0606456 -0.0699861
-0.0436117 -0.0607049 -0.0700858
-0.0435039 -0.0607424 -0.0701921
-0.0434272 -0.0607597 -0.0702846
-0.0433729 -0.0607614 -0.0703702
-0.0433268 -0.0607604 -0.0704673
-0.0432876 -0.0607594 -0.0705825
-0.0432534 -0.0607578 -0.0707352
-0.0432393 -0.060756 -0.0709293
-0.0432395 -0.0607539 -0.0711443
-0.0432399 -0.0607517 -0.0713559
-0.0432404 -0.0607489 -0.0715591
-0.043241 -0.0606091 -0.0717533
-0.0432417 -0.0603397 -0.0719506
-0.0432424 -0.0600185 -0.0721479
-0.0432433 -0.0596876 -0.0723425
-0.0432444 -0.0593488 -0.0725553
-0.0432455 -0.0590238 -0.0727568
-0.0432467 -0.0587101 -0.0729148
-0.0432477 -0.0583833 -0.0730206
-0.0432488 -0.0580291 -0.0730743
-0.0432498 -0.0576641 -0.0730771
-0.0432508 -0.0573178 -0.0730719
-0.0432516 -0.0570104 -0.0730631
-0.0432523 -0.0567519 -0.0730505
-0.0432528 -0.0565333 -0.0730401
-0.0432533 -0.056337 -0.0730346
-0.0432536 -0.0562069 -0.0730318
-0.0432538 -0.0561428 -0.0730303
-0.0432541 -0.0561427 -0.0730276
-0.0432549 -0.0561448 -0.0730219
-0.0432564 -0.056147 -0.0727539
-0.0432579 -0.0561487 -0.0721218
-0.0432596 -0.0561495 -0.0713475
-0.0432607 -0.0561501 -0.070527
-0.0432609 -0.0561513 -0.0697607
-0.0432603 -0.0561535 -0.0690914
-0.0432597 -0.0561563 -0.0684728
-0.0432592 -0.056159 -0.0678144
-0.0432589 -0.056161 -0.0670528
-0.0432585 -0.0561625 -0.0661909
-0.0432579 -0.056164 -0.0652928
-0.0432573 -0.0561658 -0.0644424
-0.043257 -0.0561681 -0.0636953
-0.0432567 -0.0561705 -0.0630601
-0.0432563 -0.0561721 -0.0626828
-0.0432562 -0.0561736 -0.0624725
-0.0432559 -0.0561916 -0.0623734
-0.0432558 -0.0563053 -0.062351
-0.0432557 -0.0564185 -0.062351
-0.0432554 -0.0565202 -0.0623228
-0.0432546 -0.0565818 -0.0622178
-0.0432532 -0.0565916 -0.0620432
-0.0432514 -0.0565904 -0.061847
-0.0432504 -0.0565888 -0.0616963
-0.0432508 -0.0565822 -0.0616521
-0.0432521 -0.0565192 -0.0616536
-0.0432533 -0.0564325 -0.0616557
-0.0432541 -0.0562946 -0.0616568
-0.0432546 -0.0560912 -0.0616566
-0.0432553 -0.0558374 -0.0616559
-0.0432562 -0.0555736 -0.0616559
-0.0432573 -0.0553373 -0.0616571
-0.0432582 -0.0551453 -0.0616589
-0.0432586 -0.0550127 -0.0616603
-0.0432595 -0.0549223 -0.0616605
-0.0432604 -0.0547941 -0.0616606
-0.043261 -0.0546312 -0.0616609
-0.0432611 -0.0544645 -0.0616613
-0.0432611 -0.0543065 -0.0616621
-0.0432612 -0.0541868 -0.061663
-0.0432613 -0.0541365 -0.0616634
-0.0432611 -0.0541365 -0.0616632
-0.0432605 -0.0541373 -0.0616628
-0.0432598 -0.0541381 -0.0616623
-0.0432589 -0.0541386 -0.0616618
-0.043258 -0.0541388 -0.0616616
-0.0432569 -0.0541392 -0.0616617
-0.0432556 -0.0541401 -0.0616622
-0.0432542 -0.0541416 -0.0616626
-0.0432528 -0.0541432 -0.0616625
-0.0432513 -0.0541444 -0.0616622
-0.0432496 -0.0541458 -0.061662
-0.0432481 -0.0541472 -0.0616622
-0.0432467 -0.0541485 -0.0616627
-0.0432453 -0.0541496 -0.061663
-0.043244 -0.0541503 -0.0616631
-0.0432427 -0.0541505 -0.0616628
-0.0432417 -0.0541509 -0.0616626
-0.0432408 -0.0541512 -0.0616627
-0.0432401 -0.0541515 -0.0616631
-0.0432395 -0.0541516 -0.0616656
-0.0432227 -0.0541516 -0.0616699
-0.0431953 -0.054151 -0.0616761
-0.0431776 -0.05415 -0.0616844
-0.0431765 -0.0541489 -0.0616947
-0.0431769 -0.0541484 -0.0617072
-0.043177 -0.0541474 -0.0617178
-0.0431769 -0.0541459 -0.061724
-0.043177 -0.0541442 -0.061729
-0.0431774 -0.0541428 -0.0617425
-0.043178 -0.0541415 -0.0619265
-0.0431785 -0.0541404 -0.0622364
-0.0431788 -0.0541392 -0.0626366
-0.043179 -0.0541378 -0.0630159
-0.0431797 -0.0541363 -0.0633588
-0.0431807 -0.0540609 -0.0636559
-0.0431816 -0.0539366 -0.0638603
-0.0431821 -0.0537913 -0.0639979
-0.0431824 -0.0536425 -0.0641101
-0.0431826 -0.0535126 -0.0641742
-0.0431829 -0.0534257 -0.0641834
-0.0431832 -0.0533963 -0.0641806
-0.0431833 -0.0533967 -0.0641772
-0.0431832 -0.0533972 -0.0641728
-0.043183 -0.0533977 -0.0641245
-0.0431828 -0.0533978 -0.0638704
-0.0431827 -0.0533979 -0.0635335
-0.0431825 -0.0533981 -0.0631262
-0.0431822 -0.0533988 -0.062671
-0.0431818 -0.0533998 -0.0621919
-0.0431815 -0.0534008 -0.0616932
-0.0431811 -0.0534017 -0.061162
-0.0431808 -0.0534024 -0.0605851
-0.0431804 -0.053403 -0.0599666
-0.0431801 -0.0534037 -0.0593819
-0.0431798 -0.0534045 -0.0588617
-0.0431796 -0.0534052 -0.0583819
-0.0431795 -0.0534056 -0.057907
-0.0431793 -0.0534059 -0.057402
-0.0431791 -0.0534063 -0.0568551
-0.0431789 -0.0534068 -0.0563099
-0.0431788 -0.0534074 -0.0559228
-0.0431787 -0.0534081 -0.0557671
-0.0431786 -0.0534086 -0.05577
-0.0431786 -0.0534089 -0.0557752
-0.0431785 -0.053409 -0.0557785
-0.0431786 -0.0534091 -0.0557774
-0.0431787 -0.0534093 -0.0557738
-0.0431787 -0.0534097 -0.0557706
-0.0431789 -0.0534101 -0.0557697
-0.0431791 -0.0534103 -0.0557711
-0.0431795 -0.0534101 -0.0557729
-0.0431798 -0.0534097 -0.0557733
-0.0431802 -0.0534093 -0.0557721
-0.0431806 -0.0534092 -0.0557703
-0.0431811 -0.0534092 -0.0557692
-0.0431817 -0.0534091 -0.0557695
-0.0431817 -0.0534088 -0.0557705
-0.0431823 -0.053408 -0.0557713
-0.0431832 -0.0534072 -0.0557712
-0.0431838 -0.0534043 -0.0557693
-0.0431855 -0.0534028 -0.055768
-0.0431878 -0.0534026 -0.0557682
-0.0431891 -0.0534025 -0.0557687
-0.04319 -0.0534013 -0.0557681
-0.043191 -0.053399 -0.0557589
-0.0431924 -0.0533967 -0.0556725
-0.0431938 -0.0533375 -0.0555849
-0.0431948 -0.0532541 -0.0555097
-0.0431954 -0.0531788 -0.0554271
-0.0431959 -0.0531017 -0.0553261
-0.0431968 -0.0530109 -0.0552154
-0.0431975 -0.0529138 -0.0551032
-0.0431978 -0.0528312 -0.0549977
-0.0431978 -0.0527844 -0.0549048
-0.0431978 -0.0527809 -0.0548202
-0.0431978 -0.0527817 -0.0547342
-0.0431976 -0.0527825 -0.0546352
-0.0431971 -0.0527831 -0.0545145
-0.0431964 -0.0527834 -0.0543791
-0.0431956 -0.0527839 -0.0542475
-0.0431949 -0.0527848 -0.0541349
-0.0431939 -0.0527858 -0.0540501
-0.043193 -0.0527868 -0.0539925
-0.0431919 -0.0527882 -0.0539291
-0.0431909 -0.0527894 -0.0538449
-0.0431901 -0.05279 -0.0537482
-0.0431894 -0.0527904 -0.0536484
-0.0431887 -0.0527909 -0.0535648
-0.0431881 -0.0527913 -0.053517
-0.0431878 -0.0527917 -0.0535064
-0.0431876 -0.052792 -0.0535067
-0.0431876 -0.0527918 -0.053507
-0.0431878 -0.0527912 -0.0535094
-0.0431882 -0.0527905 -0.0535145
-0.0431888 -0.0527897 -0.0535226
-0.0431896 -0.0527887 -0.0535335
-0.0431905 -0.0527876 -0.0535465
-0.0431915 -0.0527862 -0.0535585
-0.0431927 -0.0527845 -0.0535651
-0.043194 -0.0527829 -0.0535674
-0.0431951 -0.0527814 -0.053568
-0.0431963 -0.0527501 -0.0535689
-0.0431973 -0.0526688 -0.0535713
-0.0431983 -0.0526283 -0.0535748
-0.0431995 -0.0526192 -0.0535785
-0.0432003 -0.0526188 -0.0535817
-0.0432013 -0.0526199 -0.0535836
-0.0432024 -0.0526218 -0.0535848
-0.0432041 -0.0526243 -0.0535863
-0.0432061 -0.0526265 -0.0535884
-0.0432197 -0.052628 -0.0535907
-0.0432905 -0.0526287 -0.0535991
-0.0433648 -0.0526291 -0.053702
-0.0434454 -0.0526301 -0.0538195
-0.0435323 -0.0526317 -0.0539721
-0.0436143 -0.0526338 -0.0541569
-0.0436665 -0.0526359 -0.0543268
-0.0436706 -0.0526378 -0.0544791
-0.0436694 -0.0526394 -0.054583
-0.0436681 -0.052641 -0.0546524
-0.043667 -0.052643 -0.0547049
-0.0436662 -0.0526453 -0.0547596
-0.0436652 -0.0526473 -0.0548445
-0.0436586 -0.0526489 -0.054973
-0.0435864 -0.0527202 -0.0551455
-0.0435055 -0.0528442 -0.0553654
-0.0434456 -0.0530052 -0.0556315
-0.0434115 -0.0531958 -0.0559185
-0.0434 -0.0533829 -0.056194
-0.0433983 -0.0535073 -0.056455
-0.0433976 -0.0535351 -0.0567142
-0.0433969 -0.0535342 -0.0569853
-0.0433971 -0.0535333 -0.0572918
-0.0433976 -0.0535328 -0.0576619
-0.0433982 -0.0535328 -0.0580992
-0.0433987 -0.0535326 -0.0585593
-0.0433991 -0.053532 -0.058967
-0.0433993 -0.0535311 -0.059276
-0.0433992 -0.0535299 -0.0594865
-0.0433988 -0.0535246 -0.0596224
-0.0433982 -0.0534715 -0.0597368
-0.0433978 -0.0533998 -0.0598806
-0.0433976 -0.0533096 -0.0600798
-0.0433978 -0.0532016 -0.0603429
-0.0433979 -0.0530841 -0.0606434
-0.0433979 -0.0529788 -0.0609208
-0.0433976 -0.0529058 -0.0611642
-0.0433974 -0.0528722 -0.0613239
-0.0433973 -0.0528673 -0.0613922
-0.043397 -0.0528675 -0.0614016
-0.04338 -0.0528674 -0.0614013
-0.043345 -0.0528599 -0.0614014
-0.0433069 -0.0528463 -0.0614017
-0.0432732 -0.0528403 -0.0614005
-0.0432448 -0.0528406 -0.0613975
-0.0432205 -0.0528412 -0.0613929
-0.0432031 -0.0528419 -0.0613875
-0.0431901 -0.0528425 -0.0613808
-0.0431829 -0.052843 -0.0613743
-0.0431801 -0.0528434 -0.0613708
-0.0431797 -0.0528438 -0.0613529
-0.0431799 -0.052844 -0.0612751
-0.0431801 -0.052844 -0.0611645
-0.0431802 -0.0528435 -0.0609942
-0.0431802 -0.0528427 -0.0607715
-0.0431802 -0.0528415 -0.0605272
-0.0431801 -0.0528405 -0.0603
-0.0431801 -0.0528172 -0.0601198
-0.0431802 -0.0527956 -0.0599849
-0.0431803 -0.0527919 -0.0598602
-0.0431806 -0.0527912 -0.0597154
-0.0431809 -0.0527758 -0.0595351
-0.0431813 -0.052737 -0.0593205
-0.0431816 -0.0526722 -0.0590964
-0.043182 -0.0525869 -0.0588944
-0.0431825 -0.0524961 -0.0587311
-0.043183 -0.0524122 -0.058601
-0.0431835 -0.0523368 -0.0584825
-0.0431839 -0.0522661 -0.058348
-0.0431843 -0.0521933 -0.0581806
-0.0431974 -0.0521127 -0.0579843
-0.0432138 -0.0520227 -0.0577808
-0.0432271 -0.0519313 -0.0575945
-0.043235 -0.0518459 -0.0574383
-0.0432386 -0.051772 -0.057309
-0.0432391 -0.0517135 -0.0571853
-0.0432458 -0.0516646 -0.0570443
-0.0432537 -0.0516138 -0.0568789
-0.0432602 -0.0515607 -0.0566922
-0.043267 -0.0515064 -0.0565012
-0.0432792 -0.0514544 -0.0563278
-0.0432983 -0.0514105 -0.0561815
-0.0433222 -0.0513779 -0.0560578
-0.0433565 -0.0513546 -0.0559415
-0.0434024 -0.0513388 -0.0558148
-0.0434605 -0.0513277 -0.0556686
-0.0435297 -0.0513184 -0.0555092
-0.0436089 -0.0513132 -0.0553516
-0.0436907 -0.0513132 -0.0552112
-0.0437547 -0.0513134 -0.0550973
-0.0437843 -0.0513135 -0.0550101
-0.0437904 -0.0513138 -0.0549345
-0.0437904 -0.0513143 -0.0548482
-0.0437972 -0.0513149 -0.0547486
-0.0438143 -0.051316 -0.0546432
-0.043822 -0.0513174 -0.0545523
-0.0438218 -0.0513193 -0.0544899
-0.0438214 -0.0513216 -0.0544575
-0.0438212 -0.0513242 -0.0544474
-0.043821 -0.0513265 -0.0544453
-0.0438206 -0.0513281 -0.0544437
-0.0438201 -0.051329 -0.0544445
-0.0438195 -0.0513295 -0.0544467
-0.0438191 -0.0513301 -0.0544506
-0.0438187 -0.0513309 -0.0544563
-0.0438182 -0.0513693 -0.054464
-0.0438177 -0.0514613 -0.0544725
-0.0438174 -0.0515624 -0.0544794
-0.0438171 -0.0516498 -0.0544829
-0.0438169 -0.05171 -0.0544844
-0.0438166 -0.0517378 -0.0544851
-0.0438163 -0.0517389 -0.0544864
-0.0438158 -0.0517386 -0.054489
-0.0438151 -0.0517383 -0.0544927
-0.0438141 -0.051738 -0.0544967
-0.043813 -0.0517378 -0.0544999
-0.0437828 -0.0517375 -0.054515
-0.0437434 -0.051737 -0.0546914
-0.0437223 -0.0517259 -0.0550115
-0.0437185 -0.0516766 -0.0555361
-0.043718 -0.0516175 -0.0561887
-0.043713 -0.0515389 -0.0568473
-0.0437064 -0.0514459 -0.0574178
-0.0436988 -0.0513671 -0.0578956
-0.0436947 -0.0513309 -0.0581362
-0.0436944 -0.051327 -0.0582645
-0.0436946 -0.0513272 -0.0583649
-0.0436946 -0.0513271 -0.0585133
-0.0436946 -0.0513191 -0.058753
-0.0436947 -0.0512825 -0.0590928
-0.0436949 -0.0512457 -0.0594593
-0.0436953 -0.0512306 -0.0597948
-0.0437092 -0.0512309 -0.0600882
-0.0437375 -0.0512315 -0.0602507
-0.0437599 -0.0512322 -0.0603216
-0.0437633 -0.0512327 -0.0603301
-0.0437629 -0.0512329 -0.0603324
-0.0437625 -0.0512333 -0.0603754
-0.043761 -0.051234 -0.0604756
-0.0437544 -0.0512352 -0.0605788
-0.0437362 -0.0512961 -0.0606565
-0.0437052 -0.0513869 -0.0606974
-0.0436767 -0.0514966 -0.0607179
-0.0436599 -0.0516248 -0.0607175
-0.0436554 -0.051761 -0.0607167
-0.0436554 -0.051884 -0.060715
-0.0436554 -0.0519804 -0.0607124
-0.0436528 -0.0520543 -0.0607089
-0.0436519 -0.0521156 -0.0607047
-0.0436521 -0.0521771 -0.0607006
-0.0436524 -0.052246 -0.0606967
-0.0436527 -0.0523034 -0.0606937
-0.0436532 -0.0523512 -0.0606919
-0.0436664 -0.0523907 -0.0606737
-0.0436872 -0.0524198 -0.0606252
-0.0437119 -0.0524413 -0.0605648
-0.0437368 -0.0524541 -0.0604857
-0.0437589 -0.0524568 -0.0603932
-0.0437795 -0.0524565 -0.0602985
-0.0438023 -0.0524561 -0.0602133
-0.04383 -0.0524554 -0.0601468
-0.0438574 -0.0524548 -0.0600949
-0.0438912 -0.0524539 -0.0600453
-0.0439252 -0.0524529 -0.05999
-0.0439574 -0.0524519 -0.0599203
-0.0439891 -0.0524511 -0.0598407
-0.0440263 -0.0524506 -0.0597607
-0.0440634 -0.0524504 -0.0596889
-0.0441035 -0.0524502 -0.0596274
-0.0441433 -0.05245 -0.0595733
-0.0441803 -0.0524496 -0.0595191
-0.0442176 -0.0524493 -0.059458
-0.0442547 -0.0524413 -0.0593851
-0.0442899 -0.0524305 -0.0593032
-0.0443211 -0.0524256 -0.0592147
-0.0443493 -0.0524233 -0.0591261
-0.0443793 -0.0524196 -0.059046
-0.0444119 -0.0524197 -0.0589686
-0.0444406 -0.0524304 -0.0588884
-0.0444658 -0.0524577 -0.0588036
-0.0444859 -0.0524962 -0.058713
-0.0445024 -0.0525497 -0.0586175
-0.0445164 -0.05262 -0.0585193
-0.0445282 -0.0527068 -0.0584233
-0.0445358 -0.0528076 -0.058332
-0.0445383 -0.0529087 -0.058238
-0.0445423 -0.0530119 -0.0581415
-0.0445498 -0.0531306 -0.0580464
-0.0445569 -0.0532465 -0.0579513
-0.044558 -0.0533599 -0.0578587
-0.0445578 -0.053466 -0.0577711
-0.0445576 -0.0535655 -0.0576945
-0.0445574 -0.0536659 -0.0576387
-0.0445574 -0.0537728 -0.0576095
-0.0445572 -0.053885 -0.057607
-0.0445571 -0.0539963 -0.0576092
-0.0445569 -0.0540994 -0.0576133
-0.0445568 -0.0541839 -0.0576176
-0.0445568 -0.0542403 -0.0576196
-0.0445569 -0.0542671 -0.0576207
-0.0445569 -0.0542812 -0.0576212
-0.044557 -0.054289 -0.0576219
-0.0445573 -0.0542899 -0.0576237
-0.0445576 -0.0542898 -0.0576265
-0.0445586 -0.0542895 -0.0576297
-0.0445796 -0.0542891 -0.0576328
-0.0446087 -0.0542885 -0.0577838
-0.0446405 -0.054288 -0.0580056
-0.0446679 -0.0542878 -0.0582851
-0.0446911 -0.0542878 -0.0586417
-0.0447138 -0.0542876 -0.059031
-0.044739 -0.0542872 -0.059411
-0.0447648 -0.0542867 -0.0597507
-0.0447877 -0.0542862 -0.0600428
-0.0448046 -0.0542859 -0.0603014
-0.0448164 -0.0542859 -0.0605533
-0.0448259 -0.0542859 -0.0608246
-0.0448345 -0.0542859 -0.0611303
-0.044841 -0.0542859 -0.0614699
-0.0448434 -0.0542858 -0.061827
-0.0448433 -0.0542859 -0.0621751
-0.0448432 -0.0542863 -0.0624845
-0.0448431 -0.0542866 -0.0627468
-0.044843 -0.0542869 -0.0629685
-0.0448428 -0.0542874 -0.0631661
-0.0448425 -0.0542878 -0.0633662
-0.0448422 -0.0542883 -0.0635914
-0.0448419 -0.0542889 -0.0638453
-0.0448416 -0.0542896 -0.0641167
-0.0448413 -0.0543065 -0.0643852
-0.0448409 -0.0543637 -0.0646301
-0.0448404 -0.0544455 -0.0648432
-0.0448399 -0.0545518 -0.0650247
-0.0448395 -0.0546698 -0.0651885
-0.0448391 -0.0547837 -0.065353
-0.0448386 -0.0548779 -0.0655358
-0.0448381 -0.0549487 -0.0657458
-0.0448373 -0.055003 -0.0659816
-0.0448364 -0.0550518 -0.0662331
-0.0448352 -0.0551069 -0.0664838
-0.0448337 -0.0551732 -0.066718
-0.0448321 -0.0552448 -0.0669307
-0.0448302 -0.0553089 -0.0671277
-0.044828 -0.0553529 -0.0673236
-0.0448256 -0.0553694 -0.0675362
-0.044773 -0.0553692 -0.0677787
-0.0446531 -0.0553691 -0.0680494
-0.0445452 -0.0553688 -0.0683399
-0.0444316 -0.0553684 -0.0686512
-0.0443191 -0.0553682 -0.0689499
-0.0442058 -0.0553679 -0.0692193
-0.0440993 -0.0553674 -0.069464
-0.0440049 -0.0553665 -0.0696865
-0.0439305 -0.0553655 -0.0699037
-0.0438905 -0.0553646 -0.0701351
-0.0438873 -0.0553635 -0.0703936
-0.0438877 -0.0553622 -0.0706536
-0.0438881 -0.0553605 -0.0708949
-0.0438885 -0.0553584 -0.0711082
-0.0438888 -0.0553561 -0.071278
-0.0438893 -0.0553536 -0.0714008
-0.04389 -0.055351 -0.0714819
-0.0438906 -0.0553255 -0.0715311
-0.0438912 -0.0552096 -0.0715701
-0.0438924 -0.0550738 -0.0715854
-0.0438931 -0.0549683 -0.0715805
-0.0438939 -0.0548516 -0.0715732
-0.0438944 -0.0547234 -0.071563
-0.0438947 -0.0546176 -0.0715493
-0.0438949 -0.054528 -0.0715356
-0.0438954 -0.0544683 -0.0715285
-0.0438984 -0.0544595 -0.071526
-0.0439218 -0.05446 -0.0715261
-0.0439388 -0.0544606 -0.0715266
-0.0439437 -0.0544614 -0.0715251
-0.0439438 -0.0544622 -0.0715212
-0.0439472 -0.0544631 -0.0714748
-0.043954 -0.0544642 -0.0711957
-0.0439599 -0.0544655 -0.0708937
-0.043962 -0.0544726 -0.0705565
-0.0439619 -0.0545537 -0.0701839
-0.0439619 -0.0546741 -0.0697966
-0.0439671 -0.0548263 -0.0694247
-0.0439818 -0.0549979 -0.0690792
-0.0439973 -0.0551639 -0.0687566
-0.0440129 -0.0552935 -0.0684509
-0.0440257 -0.0553675 -0.0681608
-0.0440473 -0.0553904 -0.0678889
-0.0440723 -0.0554299 -0.0675968
-0.0440976 -0.055494 -0.0672943
-0.0441338 -0.0555571 -0.0670189
-0.0441752 -0.0556152 -0.0667771
-0.0442177 -0.0556652 -0.066563
-0.0442617 -0.0556814 -0.0663828
-0.0443089 -0.055681 -0.066236
-0.0443567 -0.0556804 -0.0661068
-0.044406 -0.05568 -0.0659896
-0.0444557 -0.0556798 -0.0658852
-0.0444984 -0.0556797 -0.0657834
-0.0445531 -0.0556796 -0.0656787
-0.0446059 -0.0556789 -0.0655917
-0.0446542 -0.0556782 -0.0655301
-0.0446975 -0.0556774 -0.065499
-0.0447438 -0.0556769 -0.0654971
-0.0447931 -0.0556765 -0.0654973
-0.0448397 -0.0556762 -0.0654974
-0.0448843 -0.0556758 -0.0654973
-0.0449269 -0.0556752 -0.065498
-0.0449693 -0.0556747 -0.0654997
-0.0450127 -0.0556745 -0.0655023
-0.0450573 -0.0556749 -0.0655063
-0.0450987 -0.0556761 -0.0655113
-0.0451328 -0.055677 -0.0655172
-0.0451575 -0.0556776 -0.0655225
-0.0451765 -0.0556776 -0.065526
-0.0451952 -0.0556774 -0.0655278
-0.0452106 -0.0556773 -0.0655285
-0.0452238 -0.0556776 -0.0655286
-0.0452401 -0.0556785 -0.0655289
-0.0452612 -0.0556797 -0.0655298
-0.0452774 -0.0556808 -0.0655309
-0.0452799 -0.0556907 -0.0655317
-0.0452797 -0.0557371 -0.0655325
-0.0452795 -0.0558039 -0.0655333
-0.0452794 -0.0559152 -0.0655344
-0.0452793 -0.0560758 -0.0655357
-0.045279 -0.0562622 -0.0655371
-0.0452786 -0.0564409 -0.0655387
-0.0452782 -0.0565879 -0.0655403
-0.0452778 -0.0566977 -0.06561
-0.0452773 -0.0567832 -0.0657694
-0.0452768 -0.0568694 -0.066013
-0.0452765 -0.0569754 -0.0663077
-0.0452756 -0.0571156 -0.0666032
-0.0452748 -0.0572935 -0.0668396
-0.0452743 -0.0574749 -0.0669966
-0.0452739 -0.0576227 -0.0671143
-0.0452728 -0.0577135 -0.0672585
-0.0452713 -0.0577476 -0.0674969
-0.0452693 -0.0577527 -0.0678551
-0.0452669 -0.0577582 -0.0683156
-0.0452642 -0.0577792 -0.0688232
-0.045261 -0.0578145 -0.0693109
-0.0452576 -0.0578447 -0.0697366
-0.0451498 -0.0578493 -0.0701047
-0.0449794 -0.0578488 -0.0704526
-0.0448171 -0.0578476 -0.0708511
-0.0446442 -0.0578463 -0.0713625
-0.0444841 -0.0578457 -0.0719605
-0.044324 -0.0578453 -0.0725949
-0.0441917 -0.0578442 -0.0732238
-0.0441039 -0.0578429 -0.0737818
-0.0440727 -0.0578417 -0.0742494
-0.0440733 -0.0578406 -0.0746655
-0.0440741 -0.0578396 -0.0750832
-0.0440745 -0.0578389 -0.0755392
-0.0440746 -0.0578381 -0.0760461
-0.0440748 -0.0578373 -0.0765752
-0.0440752 -0.0578365 -0.0770768
-0.0440756 -0.0578358 -0.0775118
-0.0440757 -0.0578354 -0.0778627
-0.0440756 -0.0578352 -0.0781378
-0.0440754 -0.0578352 -0.0783654
-0.0440752 -0.0578354 -0.0785802
-0.044075 -0.0578356 -0.0788049
-0.0440747 -0.0578358 -0.0790392
-0.0440742 -0.0578362 -0.0792646
-0.0440737 -0.0578368 -0.0795667
-0.0440732 -0.0578375 -0.0798678
-0.0440671 -0.0578384 -0.080116
-0.0440467 -0.0578395 -0.0802792
-0.0440385 -0.0578405 -0.0803628
-0.0440386 -0.0578414 -0.080377
-0.0440358 -0.0578423 -0.0803738
-0.0440036 -0.0578433 -0.0803682
-0.0439525 -0.0578444 -0.0803602
-0.0439083 -0.0578456 -0.0803499
-0.0438941 -0.0578468 -0.0803375
-0.0438944 -0.0578477 -0.0803232
-0.0438946 -0.0578484 -0.080308
-0.0438947 -0.0578482 -0.080295
-0.0438948 -0.0578475 -0.0802873
-0.0438954 -0.057846 -0.080284
-0.0438964 -0.0578437 -0.0802842
-0.0438972 -0.0578408 -0.080285
-0.0438979 -0.057837 -0.080285
-0.0438989 -0.0578326 -0.0802829
-0.0439 -0.0578283 -0.08028
-0.0439013 -0.0578247 -0.0802779
-0.0439025 -0.0578228 -0.0802774
-0.0439039 -0.0578223 -0.0802777
-0.0439055 -0.0578225 -0.0802773
-0.0439193 -0.0578226 -0.0802756
-0.0440014 -0.0578221 -0.080273
-0.0440946 -0.0577661 -0.0802156
-0.0441904 -0.0576762 -0.0800882
-0.044275 -0.0575867 -0.0799509
-0.0443499 -0.0575206 -0.0797738
-0.0444256 -0.0574953 -0.079541
-0.0445087 -0.0574956 -0.0792512
-0.0445959 -0.0574962 -0.0789214
-0.044676 -0.0574966 -0.078576
-0.0447419 -0.0574968 -0.0782379
-0.044791 -0.057497 -0.0779249
-0.0448445 -0.0574974 -0.0776351
-0.044905 -0.0575111 -0.0773589
-0.0449578 -0.0575778 -0.0770702
-0.0449983 -0.0576787 -0.0767397
-0.0450276 -0.0577835 -0.0763721
-0.045061 -0.0578721 -0.0759874
-0.0450989 -0.0579931 -0.0755641
-0.0451287 -0.0581353 -0.0751271
-0.0451527 -0.0582547 -0.0747376
-0.0451672 -0.0583527 -0.074409
-0.0451758 -0.0584536 -0.0741264
-0.0451898 -0.0585538 -0.073882
-0.0452087 -0.0586473 -0.0736603
-0.045228 -0.0587437 -0.0734255
-0.0452452 -0.058843 -0.073165
-0.0452643 -0.0589329 -0.072897
-0.0452862 -0.0590055 -0.0726441
-0.0453086 -0.0590603 -0.0724307
-0.0453314 -0.059094 -0.0722816
-0.0453557 -0.0591122 -0.0722102
-0.0453826 -0.0591298 -0.0722019
-0.0454129 -0.0591475 -0.0722025
-0.0454473 -0.0591664 -0.0722056
-0.0454846 -0.059187 -0.0722125
-0.0455243 -0.0592072 -0.0722233
-0.0455592 -0.0592087 -0.0722321
-0.045592 -0.0592079 -0.0722372
-0.045623 -0.0592067 -0.07224
-0.0456458 -0.0592054 -0.0722414
-0.0456626 -0.0592044 -0.0722433
-0.0456753 -0.0592036 -0.0722473
-0.0456827 -0.0592027 -0.0722531
-0.0456842 -0.0592016 -0.0724619
-0.0456842 -0.0592005 -0.0727691
-0.0456841 -0.0591995 -0.0730727
-0.045684 -0.059199 -0.0733385
-0.0456841 -0.059199 -0.0735343
-0.0456842 -0.0591993 -0.0736695
-0.0456848 -0.0591996 -0.0737802
-0.0456847 -0.0591997 -0.0739176
-0.0456844 -0.0591999 -0.0741123
-0.0456841 -0.0592003 -0.0743568
-0.0456836 -0.0592011 -0.0746115
-0.045683 -0.0592022 -0.0748295
-0.0456823 -0.0592034 -0.0749855
-0.0456814 -0.0592046 -0.075091
-0.0456803 -0.0592059 -0.0751858
-0.0456799 -0.0592072 -0.0753118
-0.0456792 -0.0592087 -0.0754891
-0.0456784 -0.0592932 -0.0756998
-0.0456773 -0.0594281 -0.0759129
-0.0456762 -0.0595839 -0.0761043
-0.0456748 -0.0597475 -0.0762565
-0.0456729 -0.0599011 -0.0763778
-0.0456707 -0.0600276 -0.076504
-0.0456682 -0.0601283 -0.0766676
-0.0456653 -0.0602169 -0.0768814
-0.045662 -0.0603049 -0.0771352
-0.0456587 -0.0604028 -0.0773983
-0.0456419 -0.0605022 -0.0776403
-0.0454954 -0.0605836 -0.077859
-0.0453323 -0.0606469 -0.0780595
-0.0451703 -0.0606665 -0.0782784
-0.044997 -0.0606663 -0.0785448
-0.04482 -0.060666 -0.0788491
-0.0446356 -0.0606657 -0.0791827
-0.04446 -0.0606654 -0.0795187
-0.0442889 -0.060665 -0.0798289
-0.0441293 -0.0606642 -0.0801078
-0.0439918 -0.0606632 -0.0803736
-0.0438897 -0.0606619 -0.0809335
-0.0438419 -0.0606606 -0.0818252
-0.0438397 -0.0606595 -0.0828614
-0.0438406 -0.0606583 -0.08387
-0.0438415 -0.060657 -0.0848147
-0.0438422 -0.0606555 -0.0856844
-0.0438428 -0.0606541 -0.0864881
-0.0438436 -0.0606531 -0.087238
-0.0438445 -0.0606521 -0.0879265
-0.0438452 -0.0606511 -0.0885279
-0.0438457 -0.0606501 -0.0890288
-0.0438462 -0.0606492 -0.0894304
-0.0438467 -0.0606486 -0.0897365
-0.0438476 -0.0606484 -0.0899489
-0.0438485 -0.0606485 -0.090062
-0.0438493 -0.0606486 -0.0900754
-0.0438499 -0.0606487 -0.0900694
-0.0438504 -0.060649 -0.0900582
-0.0438509 -0.0606495 -0.0900423
-0.0438517 -0.0606501 -0.0900225
-0.0438526 -0.0606508 -0.0900027
-0.0438535 -0.060652 -0.0899911
-0.0438542 -0.0606538 -0.0899872
-0.0438549 -0.0606557 -0.0899869
-0.0438556 -0.0606576 -0.0899882
-0.0438734 -0.0606593 -0.0899876
-0.0439148 -0.0606608 -0.0899839
-0.0439551 -0.0606622 -0.0899785
-0.0439906 -0.0606635 -0.0899738
-0.0440213 -0.0606646 -0.0899711
-0.0440544 -0.0606652 -0.0898995
-0.0440921 -0.0606655 -0.0897856
-0.0441315 -0.0606651 -0.0895332
-0.0441688 -0.0606641 -0.0890922
-0.0442041 -0.0606623 -0.0884897
-0.0442416 -0.0606599 -0.087835
-0.044282 -0.0606567 -0.0872465
-0.0443245 -0.060653 -0.0868299
-0.0443705 -0.0606494 -0.0866315
-0.0444223 -0.0606467 -0.08661
-0.0444839 -0.0606451 -0.0866113
-0.0445565 -0.0606449 -0.0866113
-0.0446347 -0.0606452 -0.0865924
-0.0447187 -0.0606451 -0.0863658
-0.0448055 -0.0606444 -0.0860654
-0.0448949 -0.0606429 -0.08578
-0.0449894 -0.0606411 -0.085603
-0.0450883 -0.0606397 -0.0855734
-0.0451902 -0.0606388 -0.0855752
-0.0452943 -0.060638 -0.0855768
-0.0453981 -0.0606369 -0.0855767
-0.0454984 -0.0606356 -0.0855751
-0.0455669 -0.0606344 -0.0855733
-0.0456473 -0.0606334 -0.0855313
-0.0457339 -0.0606323 -0.0855274
-0.045807 -0.0606316 -0.0855282
-0.0458663 -0.0606314 -0.0855281
-0.0459213 -0.0606312 -0.085527
-0.0459807 -0.0606311 -0.0854263
-0.0460379 -0.0606313 -0.0852545
-0.0460846 -0.0606317 -0.0850437
-0.0461206 -0.0606325 -0.0848276
-0.0461411 -0.0606338 -0.0846273
-0.0461521 -0.0606362 -0.0844508
-0.04616 -0.0606377 -0.0842903
-0.046166 -0.0606395 -0.0841027
-0.0461746 -0.0606414 -0.0839025
-0.0461796 -0.0606432 -0.0836951
-0.0461793 -0.0606452 -0.0834629
-0.0461788 -0.0606474 -0.0832136
-0.0461785 -0.0606495 -0.0829811
-0.0461783 -0.0606517 -0.0827984
-0.0461777 -0.0606539 -0.0826705
-0.046177 -0.060656 -0.0825986
-0.0461764 -0.060658 -0.082588
-0.0461758 -0.0606598 -0.0825917
-0.0461751 -0.0606614 -0.0825993
-0.0461743 -0.0606628 -0.0826088
-0.046173 -0.0606637 -0.0826141
-0.0461715 -0.0606642 -0.0826176
-0.0461696 -0.0606646 -0.0826198
-0.0461673 -0.0606649 -0.0826222
-0.0461646 -0.0606648 -0.0826265
-0.0461613 -0.0606643 -0.0827127
-0.0461576 -0.0606634 -0.0830494
-0.0461537 -0.0606623 -0.083447
-0.0461494 -0.0606614 -0.0838182
-0.0461451 -0.0606606 -0.0841347
-0.0461145 -0.0606596 -0.0843864
-0.045938 -0.0606583 -0.084616
-0.0457619 -0.0606567 -0.0848801
-0.0456005 -0.0606547 -0.0852334
-0.0454602 -0.0606536 -0.0856494
-0.0453207 -0.0606524 -0.0860743
-0.0452175 -0.060651 -0.086472
-0.0451464 -0.0606498 -0.0867897
-0.0451124 -0.0606491 -0.0870387
-0.0451091 -0.0606483 -0.0872663
-0.0451094 -0.0606478 -0.087509
-0.0451097 -0.0606475 -0.0877927
-0.0451098 -0.0606475 -0.0881034
-0.0451097 -0.0606476 -0.0883939
-0.0451096 -0.060648 -0.0886203
-0.0451093 -0.0606486 -0.0887722
-0.0451068 -0.0606495 -0.0888704
-0.0450666 -0.0606507 -0.0889518
-0.0450028 -0.0606521 -0.0890474
-0.0449449 -0.0606537 -0.0891628
-0.0448828 -0.0606555 -0.0892753
-0.0448328 -0.0606573 -0.0893577
-0.0447867 -0.0606592 -0.0893958
-0.0447291 -0.0606614 -0.0893974
-0.044678 -0.0606637 -0.0893965
-0.0446366 -0.060666 -0.0893959
-0.044597 -0.0607469 -0.0893959
-0.0445479 -0.0608924 -0.089396
-0.0444993 -0.0610532 -0.0893962
-0.0444625 -0.0612175 -0.0893958
-0.0444259 -0.0613698 -0.0893948
-0.0443883 -0.0614872 -0.0893938
-0.0443483 -0.0615623 -0.0893932
-0.0443056 -0.0616091 -0.089393
-0.0442658 -0.0616436 -0.0893934
-0.0442272 -0.0616747 -0.089394
-0.044184 -0.0616952 -0.0893942
-0.044135 -0.0616943 -0.0893942
-0.0440731 -0.0616923 -0.0893941
-0.0440023 -0.0616889 -0.0893944
-0.0439254 -0.061685 -0.0893954
-0.0438426 -0.0616801 -0.0893967
-0.0437577 -0.0616745 -0.0893974
-0.0437034 -0.0616682 -0.0893977
-0.0437025 -0.0616616 -0.0894079
-0.0437038 -0.0616559 -0.0894159
-0.0437052 -0.0616519 -0.0894161
-0.0437058 -0.0616493 -0.0894153
-0.0437063 -0.0616377 -0.0894142
-0.043707 -0.0615669 -0.0894115
-0.0437081 -0.0614957 -0.0894062
-0.043709 -0.0613908 -0.089398
-0.0437097 -0.0612436 -0.0893872
-0.04371 -0.0610838 -0.0893739
-0.0437104 -0.060956 -0.0893584
-0.0437109 -0.0608926 -0.089344
-0.0437114 -0.0608893 -0.0893355
-0.0437118 -0.0608902 -0.0893329
-0.043712 -0.0608906 -0.0893336
-0.0437121 -0.0608902 -0.089335
-0.0437121 -0.0608895 -0.0893349
-0.0437122 -0.0608892 -0.0893326
-0.0437126 -0.0608897 -0.089329
-0.0437129 -0.060891 -0.0893258
-0.0437131 -0.0608923 -0.0893236
-0.0437132 -0.0608932 -0.0893223
-0.0437133 -0.0608937 -0.0893209
-0.0437134 -0.0608942 -0.0892461
-0.0437136 -0.060914 -0.0889986
-0.0437138 -0.0609667 -0.0886036
-0.043714 -0.0610389 -0.0880767
-0.0437143 -0.0611158 -0.0874831
-0.0437146 -0.0611817 -0.0869073
-0.0437148 -0.0612275 -0.0864302
-0.043715 -0.0612562 -0.0860966
-0.0437152 -0.0612803 -0.0858972
-0.0437154 -0.0613107 -0.0857746
-0.0437155 -0.0613477 -0.0856477
-0.0437157 -0.0613773 -0.0854549
-0.0437159 -0.0614131 -0.0851459
-0.0437159 -0.0614482 -0.084721
-0.0437159 -0.0614614 -0.0842656
-0.0437156 -0.0614612 -0.0838713
-0.0437149 -0.0614608 -0.0836055
-0.0437138 -0.0614605 -0.083503
-0.0437125 -0.0614602 -0.0835025
-0.0437109 -0.0614599 -0.0835035
-0.0437095 -0.0614595 -0.0835032
-0.0437089 -0.0614589 -0.0834979
-0.0437095 -0.0614581 -0.0833652
-0.0437104 -0.0614574 -0.0832053
-0.043711 -0.0614566 -0.0830899
-0.0437114 -0.0614558 -0.0830472
-0.0437118 -0.0614552 -0.0830478
-0.0437124 -0.0614545 -0.0830486
-0.0437132 -0.0614538 -0.0830491
-0.0437137 -0.0614529 -0.0830488
-0.0437141 -0.0614521 -0.0830482
-0.0437144 -0.0614515 -0.0830479
-0.0437147 -0.061451 -0.083048
-0.0437151 -0.0614506 -0.0830485
-0.0437154 -0.0614502 -0.0830488
-0.0437155 -0.0614233 -0.0830488
-0.0437155 -0.0613812 -0.0830485
-0.0437154 -0.0613391 -0.0830481
-0.0437153 -0.0613082 -0.0830478
-0.0437152 -0.0612978 -0.0830479
-0.0437149 -0.0612981 -0.083048
-0.0437146 -0.0612985 -0.0830479
-0.0437142 -0.0612988 -0.0830475
-0.0437137 -0.0613086 -0.0830315
-0.0437133 -0.0613225 -0.0829874
-0.0437127 -0.06134 -0.0829468
-0.0437121 -0.0613629 -0.0829121
-0.0437114 -0.0613916 -0.0828838
-0.0437106 -0.0614231 -0.0828632
-0.0437099 -0.0614588 -0.0828513
-0.0437093 -0.0614972 -0.0828501
-0.0437086 -0.0615387 -0.0828517
-0.0437079 -0.0615827 -0.0828546
-0.0437073 -0.0616259 -0.0828589
-0.0437068 -0.0616657 -0.0828646
-0.0437063 -0.0617015 -0.0828717
-0.0437059 -0.061731 -0.0828786
-0.0437056 -0.0617496 -0.0828828
-0.0437054 -0.0617551 -0.0828848
-0.0437053 -0.0617551 -0.0828857
-0.0437051 -0.0617548 -0.0828867
-0.0437051 -0.0617542 -0.0829238
-0.0437052 -0.0617536 -0.0830613
-0.0437054 -0.0617528 -0.0832537
-0.0437055 -0.061752 -0.0834671
-0.0437058 -0.0617511 -0.0836595
-0.0437061 -0.0617501 -0.0838098
-0.0437063 -0.0617492 -0.0839299
-0.0437066 -0.0617482 -0.0840446
-0.0437068 -0.0617472 -0.0841735
-0.043707 -0.0617463 -0.0843215
-0.0437073 -0.0617456 -0.0844638
-0.0437075 -0.0617407 -0.084584
-0.0437077 -0.0616916 -0.0846693
-0.0437079 -0.0616128 -0.0847278
-0.043708 -0.0615163 -0.0847765
-0.0437081 -0.061407 -0.0848372
-0.0437082 -0.061308 -0.0849171
-0.0437082 -0.0612349 -0.085003
-0.0437083 -0.0611951 -0.0850737
-0.0437082 -0.0611798 -0.0851123
-0.0437082 -0.061177 -0.0851177
-0.043708 -0.0611746 -0.0851172
-0.0437079 -0.0611649 -0.0851147
-0.0437076 -0.0611482 -0.0851104
-0.0437074 -0.0611364 -0.085105
-0.0437071 -0.0611364 -0.0850995
-0.0437067 -0.0611367 -0.0850964
-0.0437064 -0.0611372 -0.0850953
-0.0437061 -0.0611375 -0.0850953
-0.0437057 -0.0611377 -0.0850955
-0.0437053 -0.0611379 -0.0850948
-0.0437049 -0.0611381 -0.085093
-0.0437046 -0.0611385 -0.0850909
-0.0437042 -0.0611391 -0.0850891
-0.0437039 -0.0611395 -0.0850878
-0.0437036 -0.0611398 -0.0850869
-0.0437033 -0.06114 -0.0850858
-0.0437031 -0.0611401 -0.0850471
-0.0437029 -0.0611402 -0.0849022
-0.0437028 -0.0611404 -0.0846875
-0.0437028 -0.0611417 -0.0844147
-0.0437027 -0.061144 -0.0841224
-0.0437028 -0.0611442 -0.0838576
-0.0437029 -0.0611312 -0.0836547
-0.043703 -0.0611057 -0.0835195
-0.0437032 -0.0610695 -0.083427
-0.0437035 -0.0610235 -0.0833361
-0.0437038 -0.0609698 -0.0832074
-0.0437041 -0.0609116 -0.0830197
-0.0437045 -0.0608515 -0.0827789
-0.0437048 -0.0607906 -0.0825143
-0.0437053 -0.0607288 -0.0822636
-0.0437057 -0.0606651 -0.082056
-0.0437061 -0.0605982 -0.0818992
-0.0437066 -0.0605281 -0.0817766
-0.043707 -0.0604564 -0.0816551
-0.0437074 -0.0603865 -0.0815001
-0.0437078 -0.060322 -0.0812904
-0.0437082 -0.0602662 -0.0810266
-0.0437086 -0.0602206 -0.0807296
-0.0437089 -0.0601847 -0.0804302
-0.0437092 -0.0601566 -0.0801553
-0.0437094 -0.0601341 -0.0799154
-0.0437096 -0.060116 -0.0797014
-0.0437097 -0.0601027 -0.0794889
-0.0437098 -0.0600965 -0.0792503
-0.0437099 -0.0600964 -0.0789669
-0.0437099 -0.0600965 -0.0786371
-0.0437099 -0.0600968 -0.078276
-0.0437098 -0.0600971 -0.0779087
-0.0437097 -0.0600973 -0.0775606
-0.0437095 -0.0600976 -0.0772467
-0.0437094 -0.0600979 -0.0769654
-0.0437092 -0.0600983 -0.0767002
-0.0437089 -0.0600987 -0.0764298
-0.0437087 -0.0600989 -0.0761459
-0.0437085 -0.0600994 -0.075833
-0.0437083 -0.0601 -0.0754898
-0.0437081 -0.0601005 -0.075149
-0.0437079 -0.0601007 -0.0748347
-0.0437077 -0.0601009 -0.0745631
-0.0437075 -0.0601011 -0.074343
-0.0437074 -0.0601013 -0.0741656
-0.0437073 -0.0601015 -0.0740052
-0.0437072 -0.0601017 -0.0738374
-0.0437072 -0.0601018 -0.0736819
-0.0437072 -0.0601017 -0.0735368
-0.0437072 -0.0601016 -0.0734287
-0.0437073 -0.0601014 -0.073379
-0.0437074 -0.0601012 -0.0733769
-0.0437075 -0.060101 -0.0733776
-0.0437077 -0.0601007 -0.073378
-0.0437078 -0.0601003 -0.0733779
-0.043708 -0.0600999 -0.0733774
-0.0437083 -0.0600994 -0.0733771
-0.0437086 -0.0600989 -0.0733774
-0.0437088 -0.0600984 -0.0733781
-0.043709 -0.0600979 -0.0733787
-0.0437093 -0.0600973 -0.0733793
-0.0437095 -0.0600967 -0.0733809
-0.0437098 -0.0600916 -0.0733835
-0.04371 -0.0600436 -0.0733872
-0.0437102 -0.059973 -0.0733918
-0.0437103 -0.0598843 -0.0733969
-0.0437105 -0.0597889 -0.0734024
-0.0437106 -0.0597049 -0.0734085
-0.0437106 -0.0596357 -0.0734151
-0.0437106 -0.0595986 -0.0734216
-0.0437106 -0.059582 -0.0734276
-0.0437105 -0.0595662 -0.0734324
-0.0437104 -0.0595576 -0.0734354
-0.0437103 -0.0595576 -0.0734371
-0.04371 -0.0595581 -0.0734378
-0.0437097 -0.059559 -0.0734384
-0.0437093 -0.0595602 -0.0734391
-0.0437089 -0.0595617 -0.0734401
-0.0437085 -0.0595635 -0.0734413
-0.043708 -0.0595655 -0.0734423
-0.0437075 -0.0595673 -0.0734431
-0.0437069 -0.0595687 -0.0734438
-0.0437063 -0.0596033 -0.0734445
-0.0437057 -0.0596351 -0.0734453
-0.0437053 -0.0596576 -0.0734465
-0.0437048 -0.0596789 -0.0734476
-0.0437042 -0.0596983 -0.0734619
-0.0437038 -0.0597143 -0.0735268
-0.0437034 -0.0597265 -0.0736177
-0.0437031 -0.0597342 -0.0737462
-0.0437028 -0.0597351 -0.0739085
-0.0437026 -0.059735 -0.0740873
-0.0437025 -0.0597348 -0.0742595
-0.0437024 -0.0597346 -0.0744091
-0.0437024 -0.0597343 -0.0745321
-0.0437025 -0.0597339 -0.0746375
-0.0437026 -0.0597332 -0.0747423
-0.0437028 -0.059726 -0.0748622
-0.043703 -0.0596807 -0.0750097
-0.0437033 -0.0596151 -0.0751812
-0.0437035 -0.0595426 -0.0753468
-0.0437038 -0.0594613 -0.0754894
-0.0437042 -0.0593678 -0.0756005
-0.0437046 -0.059272 -0.0756748
-0.0437049 -0.0591768 -0.0757211
-0.0437052 -0.0590756 -0.0757568
-0.0437056 -0.058971 -0.0757925
-0.0437059 -0.0588719 -0.075827
-0.0437061 -0.05881 -0.0758372
-0.0437062 -0.0587631 -0.0758364
-0.0437062 -0.0587281 -0.0758341
-0.0437062 -0.0587043 -0.0758302
-0.0437063 -0.0586875 -0.0758258
-0.0437063 -0.0586772 -0.0758231
-0.0437063 -0.0586742 -0.0757792
-0.0437062 -0.058672 -0.0756615
-0.043706 -0.0586708 -0.0754929
-0.0437059 -0.0586709 -0.0752527
-0.0437058 -0.0586711 -0.0749571
-0.0437056 -0.0586713 -0.0746434
-0.0437054 -0.0586716 -0.0743417
-0.0437052 -0.0586719 -0.0740599
-0.043705 -0.0586721 -0.0737812
-0.0437048 -0.0586724 -0.073479
-0.0437047 -0.0586727 -0.0731371
-0.0437047 -0.058673 -0.0727611
-0.0437047 -0.0586733 -0.0723752
-0.0437048 -0.0586735 -0.0720058
-0.0437049 -0.0586737 -0.0716656
-0.043705 -0.0586738 -0.071348
-0.0437052 -0.0586739 -0.0710347
-0.0437053 -0.0586739 -0.0707104
-0.0437055 -0.0586739 -0.070374
-0.0437057 -0.0586738 -0.0700414
-0.0437058 -0.0586736 -0.0697633
-0.043706 -0.0586733 -0.0695499
-0.0437061 -0.0586728 -0.0693879
-0.0437062 -0.0586722 -0.069249
-0.0437063 -0.0586717 -0.0690948
-0.0437065 -0.0586712 -0.0689062
-0.0437066 -0.0586688 -0.0686943
-0.0437068 -0.0586235 -0.0684889
-0.0437069 -0.0584923 -0.0682958
-0.0437074 -0.0583579 -0.0681459
-0.0437081 -0.0582426 -0.068022
-0.043709 -0.058149 -0.0678953
-0.0437096 -0.0580628 -0.0677512
-0.04371 -0.0579894 -0.0675776
-0.0437104 -0.0579257 -0.0673859
-0.043711 -0.0578657 -0.0672069
-0.0437115 -0.0578072 -0.0670578
-0.0437118 -0.0577528 -0.0669384
-0.0437122 -0.0577096 -0.06683
-0.0437127 -0.0576893 -0.0667075
-0.0437134 -0.0576883 -0.0665596
-0.0437142 -0.0576886 -0.0663972
-0.043715 -0.0576889 -0.0662371
-0.0437159 -0.0576893 -0.0660962
-0.0437169 -0.05769 -0.0659844
-0.0437179 -0.057691 -0.0659007
-0.0437189 -0.057692 -0.0658301
-0.04372 -0.0576934 -0.0657549
-0.043721 -0.0576951 -0.0656685
-0.043722 -0.057697 -0.0656031
-0.0437228 -0.057699 -0.0655613
-0.0437233 -0.0577012 -0.0655464
-0.0437236 -0.057704 -0.0655472
-0.0437236 -0.0577681 -0.0655489
-0.0437234 -0.0578488 -0.0655513
-0.0437234 -0.0579095 -0.0655558
-0.0437232 -0.0579564 -0.0655619
-0.043723 -0.0579912 -0.065569
-0.0437229 -0.058003 -0.0655778
-0.0437228 -0.0580029 -0.0655874
-0.0437227 -0.0580027 -0.0655958
-0.0437226 -0.0580024 -0.0656011
-0.0437225 -0.0580023 -0.0656034
-0.0437224 -0.0580022 -0.0656042
-0.0437225 -0.0580021 -0.0656048
-0.0437226 -0.0580017 -0.0656064
-0.0437227 -0.0580013 -0.0656091
-0.0437228 -0.0580008 -0.0656123
-0.0437229 -0.0580003 -0.0656151
-0.043723 -0.0579998 -0.0656263
-0.0437231 -0.0579954 -0.0657445
-0.0437233 -0.0579758 -0.0659339
-0.0437233 -0.0579491 -0.066241
-0.0437234 -0.0579136 -0.0666574
-0.0437234 -0.0578718 -0.0670824
-0.0437236 -0.0578327 -0.0674942
-0.0437237 -0.0578117 -0.0678741
-0.0437238 -0.0578104 -0.0681228
-0.0437237 -0.0578107 -0.0683098
-0.0437236 -0.0578111 -0.0684583
-0.0437235 -0.0578113 -0.0686
-0.0437234 -0.0578115 -0.0687634
-0.0437233 -0.0578116 -0.0689627
-0.0437231 -0.0578169 -0.0691845
-0.0437229 -0.0578434 -0.069392
-0.0437228 -0.057884 -0.069563
-0.0437228 -0.0579308 -0.0696615
-0.0437227 -0.0579747 -0.0696899
-0.0437227 -0.0580124 -0.0696894
-0.0437226 -0.0580382 -0.0696891
-0.0437225 -0.0580618 -0.0696892
-0.0437224 -0.0580915 -0.0696898
-0.0437224 -0.0581271 -0.069717
-0.0437224 -0.0581674 -0.0697416
-0.0437224 -0.0582099 -0.069744
-0.0437224 -0.0582488 -0.0697436
-0.0437224 -0.05828 -0.0697431
-0.0437225 -0.0583043 -0.0697428
-0.0437226 -0.0583246 -0.0697425
-0.0437227 -0.0583435 -0.0697423
-0.0437228 -0.0583636 -0.069742
-0.043723 -0.0583848 -0.0697417
-0.0437232 -0.0584038 -0.0697415
-0.0437234 -0.0584169 -0.0697413
-0.0437237 -0.0584223 -0.0697412
-0.043724 -0.0584225 -0.0697411
-0.0437305 -0.0584224 -0.069741
-0.0437485 -0.0584223 -0.0697409
-0.0437721 -0.058422 -0.0697409
-0.0437959 -0.0584216 -0.0697406
-0.04382 -0.058421 -0.0697403
-0.0438402 -0.0584203 -0.0697397
-0.0438611 -0.0584195 -0.0697389
-0.0438781 -0.0584187 -0.0697378
-0.043902 -0.058418 -0.0697363
-0.0439295 -0.0584172 -0.0697345
-0.0439519 -0.0584166 -0.0697324
-0.0439696 -0.058416 -0.0697301
-0.0439859 -0.0584157 -0.0697278
-0.044003 -0.0584155 -0.0697185
-0.0440235 -0.0584155 -0.069653
-0.0440439 -0.0584154 -0.0695827
-0.0440608 -0.0584154 -0.0695023
-0.044073 -0.0584133 -0.0694175
-0.0440813 -0.0584144 -0.0693308
-0.0440911 -0.0584233 -0.0692437
-0.0441031 -0.0584404 -0.0691559
-0.0441144 -0.058463 -0.0690639
-0.0441214 -0.0584869 -0.0689647
-0.0441236 -0.058511 -0.0688579
-0.0441235 -0.0585398 -0.0687462
-0.0441236 -0.058566 -0.068638
-0.0441271 -0.0585867 -0.0685385
-0.0441313 -0.0586147 -0.0684362
-0.0441353 -0.0586465 -0.0683355
-0.0441402 -0.0586762 -0.0682422
-0.0441433 -0.0587082 -0.0681524
-0.0441454 -0.0587396 -0.0680656
-0.0441481 -0.0587654 -0.0679866
-0.0441518 -0.0587868 -0.0679182
-0.044156 -0.0588052 -0.0678621
-0.0441602 -0.0588222 -0.0678195
-0.0441645 -0.0588388 -0.0677906
-0.0441694 -0.0588553 -0.0677758
-0.0441752 -0.0588708 -0.0677753
-0.0441823 -0.0588838 -0.0677764
-0.0441901 -0.0588926 -0.0677784
-0.0441983 -0.0588962 -0.0677807
-0.0442068 -0.0588963 -0.0677819
-0.0442161 -0.0588962 -0.0677825
-0.0442261 -0.0588961 -0.0677827
-0.0442368 -0.0588961 -0.0677829
-0.0442486 -0.0588961 -0.0677835
-0.0442605 -0.058896 -0.0677846
-0.0442722 -0.0588958 -0.0677859
-0.0442839 -0.0588956 -0.0677871
-0.0442956 -0.0588953 -0.0677882
-0.0443073 -0.0588952 -0.0677891
-0.0443187 -0.058895 -0.067822
-0.0443297 -0.0588949 -0.0679282
-0.0443396 -0.0588948 -0.068097
-0.0443484 -0.0588946 -0.0683268
-0.0443564 -0.0588945 -0.0685895
-0.0443636 -0.0588944 -0.0688443
-0.0443703 -0.0588943 -0.069055
-0.0443754 -0.0588943 -0.0691891
-0.0443775 -0.0588944 -0.0692422
-0.0443778 -0.0588947 -0.0692471
-0.0443778 -0.0588949 -0.0692471
-0.0443779 -0.0588951 -0.0692672
-0.0443779 -0.0588952 -0.0693557
-0.0443779 -0.0588954 -0.0695033
-0.0443778 -0.0588956 -0.0696843
-0.0443778 -0.0588959 -0.0698578
-0.0443777 -0.0588963 -0.0699866
-0.0443776 -0.0589099 -0.0700535
-0.0443775 -0.0589305 -0.0700685
-0.0443774 -0.0589545 -0.0700684
-0.0443774 -0.0589807 -0.0700848
-0.0443773 -0.0590071 -0.0701515
-0.0443772 -0.0590301 -0.0702736
-0.0443771 -0.059048 -0.0704363
-0.044377 -0.0590635 -0.070607
-0.044377 -0.0590786 -0.0707524
-0.0443769 -0.0590944 -0.0708539
-0.0443769 -0.0591105 -0.0709126
-0.0443769 -0.0591265 -0.0709488
-0.0443769 -0.0591406 -0.0709926
-0.0443769 -0.0591514 -0.0710714
-0.0443769 -0.0591582 -0.0711982
-0.0443769 -0.0591618 -0.0713661
-0.044377 -0.0591632 -0.0715525
-0.0443771 -0.0591638 -0.0717288
-0.0443771 -0.0591642 -0.0718721
-0.0443772 -0.0591643 -0.0719752
-0.0443773 -0.0591643 -0.0720487
-0.0443774 -0.0591643 -0.0721159
-0.0443775 -0.0591642 -0.0722019
-0.0443777 -0.0591641 -0.072323
-0.0443778 -0.059164 -0.0724791
-0.0443779 -0.0591639 -0.0726543
-0.0443839 -0.0591639 -0.0728238
-0.044392 -0.0591638 -0.0729644
-0.0444009 -0.0591637 -0.0730645
-0.0444091 -0.0591636 -0.073128
-0.0444158 -0.0591636 -0.0731726
-0.0444214 -0.0591636 -0.0732201
-0.0444271 -0.0591635 -0.0732873
-0.0444332 -0.0591635 -0.0733793
-0.0444391 -0.0591636 -0.073487
-0.044444 -0.0591636 -0.0735919
-0.0444474 -0.0591637 -0.0736735
-0.0444501 -0.0591638 -0.0737188
-0.0444527 -0.0591639 -0.0737279
-0.0444553 -0.059164 -0.0737276
-0.0444574 -0.0591642 -0.0737275
-0.0444586 -0.0591669 -0.0737276
-0.0444589 -0.0591786 -0.0737279
-0.0444594 -0.0591934 -0.0737379
-0.0444607 -0.0592108 -0.073743
-0.0444618 -0.0592301 -0.0737426
-0.0444618 -0.05925 -0.0737417
-0.0444618 -0.059269 -0.0737404
-0.0444618 -0.0592868 -0.0737386
-0.0444627 -0.0593042 -0.0737365
-0.0444641 -0.0593217 -0.0737341
-0.0444659 -0.0593396 -0.0737315
-0.0444678 -0.0593576 -0.0737287
-0.0444704 -0.0593746 -0.0737259
-0.0444739 -0.0593894 -0.0737231
-0.0444783 -0.0594015 -0.0737205
-0.0444836 -0.0594109 -0.0737186
-0.0444899 -0.0594173 -0.0737172
-0.0444971 -0.0594203 -0.0737163
-0.0445052 -0.059421 -0.0737158
-0.0445139 -0.0594209 -0.0737154
-0.0445236 -0.0594206 -0.0737151
-0.044535 -0.0594202 -0.0737148
-0.0445481 -0.0594197 -0.0736989
-0.0445619 -0.0594191 -0.0736784
-0.0445754 -0.0594184 -0.0736561
-0.0445873 -0.0594177 -0.0736319
-0.0445977 -0.059417 -0.0736069
-0.0446086 -0.0594163 -0.0735846
-0.044621 -0.0594155 -0.0735663
-0.0446342 -0.0594148 -0.073551
-0.0446466 -0.0594141 -0.0735362
-0.0446573 -0.0594134 -0.0735186
-0.0446667 -0.0594128 -0.0734961
-0.0446753 -0.0594123 -0.0734686
-0.0446829 -0.059412 -0.0734364
-0.0446936 -0.0594118 -0.0734027
-0.0447027 -0.0594116 -0.0733713
-0.0447086 -0.0594116 -0.0733406
-0.0447123 -0.0594115 -0.0733103
-0.044716 -0.0594116 -0.0732786
-0.0447204 -0.0594117 -0.0732433
-0.0447244 -0.059412 -0.0732044
-0.0447259 -0.0594123 -0.0731628
-0.0447259 -0.0594126 -0.0731206
-0.0447258 -0.059413 -0.0730781
-0.0447259 -0.0594134 -0.0730382
-0.0447274 -0.0594139 -0.0730021
-0.0447283 -0.0594143 -0.0729706
-0.0447284 -0.0594147 -0.07294
-0.0447284 -0.0594152 -0.0729057
-0.0447284 -0.0594157 -0.0728732
-0.0447284 -0.0594161 -0.0728442
-0.0447284 -0.0594163 -0.0728193
-0.0447283 -0.0594165 -0.0727989
-0.0447283 -0.0594166 -0.0727872
-0.0447283 -0.0594166 -0.0727833
-0.0447283 -0.0594168 -0.0727836
-0.0447283 -0.0594169 -0.0727845
-0.0447283 -0.059417 -0.0727859
-0.0447283 -0.0594171 -0.0727872
-0.0447284 -0.0594171 -0.0727878
-0.0447284 -0.059417 -0.0727881
-0.0447301 -0.059417 -0.0727883
-0.0447328 -0.0594169 -0.0727885
-0.0447367 -0.0594169 -0.072789
-0.0447407 -0.0594169 -0.0727898
-0.0447435 -0.0594167 -0.0728366
-0.044745 -0.0594166 -0.0729093
-0.0447454 -0.0594164 -0.0729946
-0.0447454 -0.0594164 -0.0730803
-0.0447454 -0.0594163 -0.0731558
-0.0447453 -0.0594163 -0.0732114
-0.0447452 -0.0594162 -0.07325
-0.0447451 -0.0594161 -0.0732826
-0.0447449 -0.059416 -0.0733238
-0.0447448 -0.0594159 -0.073386
-0.0447446 -0.0594159 -0.073468
-0.0447444 -0.0594159 -0.0735593
-0.0447441 -0.0594158 -0.0736461
-0.0447439 -0.0594158 -0.0737158
-0.0447437 -0.0594158 -0.0737646
-0.0447435 -0.0594158 -0.0737987
-0.0447432 -0.0594158 -0.07383
-0.044743 -0.0594158 -0.07387
-0.0447428 -0.0594159 -0.0739246
-0.0447426 -0.059416 -0.0739909
-0.0447425 -0.0594161 -0.0740604
-0.0447423 -0.0594161 -0.0741223
-0.0447421 -0.0594162 -0.0741693
-0.0447419 -0.0594164 -0.0742003
-0.0447418 -0.0594165 -0.0742209
-0.0447416 -0.0594167 -0.0742404
-0.0447414 -0.0594168 -0.0742675
-0.0447413 -0.0594169 -0.0743064
-0.0447411 -0.0594171 -0.0743552
-0.044741 -0.0594172 -0.0744069
-0.0447408 -0.0594173 -0.0744531
-0.0447406 -0.0594174 -0.0744882
-0.0447404 -0.0594176 -0.0745117
-0.0447402 -0.0594177 -0.0745288
-0.04474 -0.0594177 -0.0745476
-0.0447398 -0.0594178 -0.0745751
-0.0447395 -0.0594179 -0.0746141
-0.0447392 -0.0594179 -0.0746618
-0.0447389 -0.0594179 -0.0747117
-0.0447386 -0.0594179 -0.0747565
-0.0447383 -0.0594179 -0.0747918
-0.044738 -0.0594178 -0.074818
-0.0447376 -0.0594178 -0.0748398
-0.0447373 -0.0594177 -0.0748635
-0.0447369 -0.0594176 -0.0748941
-0.0447366 -0.0594175 -0.0749323
-0.0447362 -0.0594174 -0.0749744
-0.0447359 -0.0594172 -0.0750147
-0.0447355 -0.059417 -0.0750473
-0.0447351 -0.0594167 -0.0750694
-0.0447348 -0.0594164 -0.075082
-0.0447345 -0.059416 -0.0750883
-0.0447342 -0.0594156 -0.0750942
-0.0447339 -0.0594151 -0.0751026
-0.0447336 -0.0594146 -0.0751056
-0.0447333 -0.0594141 -0.0751052
-0.0447331 -0.0594136 -0.0751043
-0.0447329 -0.0594132 -0.075103
-0.0447328 -0.0594128 -0.0751012
-0.0447327 -0.0594124 -0.075099
-0.0447326 -0.0594121 -0.0750966
-0.0447326 -0.0594117 -0.0750946
-0.0447326 -0.0594113 -0.0750936
-0.0447325 -0.059411 -0.0750934
-0.0447325 -0.0594108 -0.0750934
-0.0447326 -0.0594106 -0.0750933
-0.0447327 -0.0594105 -0.0750928
-0.0447328 -0.0594105 -0.075092
-0.0447329 -0.0594105 -0.0750847
-0.0447331 -0.0594106 -0.0750397
-0.0447332 -0.0594107 -0.0749922
-0.0447334 -0.0594107 -0.074937
-0.0447335 -0.0594108 -0.0748723
-0.0447337 -0.0594109 -0.0748017
-0.0447339 -0.059411 -0.0747308
-0.044734 -0.0594111 -0.0746647
-0.0447341 -0.0594111 -0.0746063
-0.0447343 -0.0594112 -0.0745551
-0.0447343 -0.0594112 -0.0745074
-0.0447344 -0.0594112 -0.0744588
-0.0447345 -0.0594112 -0.0744065
-0.0447345 -0.0594112 -0.0743501
-0.0447345 -0.0594112 -0.0742924
-0.0447345 -0.0594112 -0.0742376
-0.0447344 -0.0594111 -0.0741895
-0.0447343 -0.059411 -0.0741495
-0.0447342 -0.0594109 -0.0741158
-0.0447341 -0.0594108 -0.0740849
-0.044734 -0.0594107 -0.0740527
-0.0447338 -0.0594106 -0.0740169
-0.0447336 -0.0594105 -0.073978
-0.0447334 -0.0594104 -0.0739387
-0.0447332 -0.0594103 -0.0739023
-0.0447329 -0.0594101 -0.073871
-0.0447327 -0.05941 -0.073845
-0.0447324 -0.0594099 -0.0738218
-0.0447321 -0.0594098 -0.073798
-0.0447319 -0.0594097 -0.0737704
-0.0447316 -0.0594096 -0.0737385
-0.0447313 -0.0594096 -0.0737033
-0.0447311 -0.0594095 -0.0736675
-0.0447308 -0.0594095 -0.0736336
-0.0447305 -0.0594094 -0.073603
-0.0447303 -0.0594094 -0.0735753
-0.04473 -0.0594094 -0.0735485
-0.0447297 -0.0594094 -0.0735203
-0.0447295 -0.0594095 -0.0734889
-0.0447262 -0.0594095 -0.0734545
-0.0447144 -0.0594096 -0.0734187
-0.0447028 -0.0594096 -0.0733836
-0.0446909 -0.0594097 -0.0733529
-0.0446784 -0.0594098 -0.0733268
-0.0446651 -0.0594098 -0.0733045
-0.0446512 -0.0594099 -0.0732847
-0.0446367 -0.05941 -0.0732652
-0.0446214 -0.05941 -0.073245
-0.0446053 -0.0594101 -0.0732252
-0.0445883 -0.0594101 -0.073208
-0.0445702 -0.0594102 -0.0731956
-0.0445513 -0.0594102 -0.0731896
-0.0445313 -0.0594102 -0.073189
-0.0445102 -0.0594102 -0.0731891
-0.0444887 -0.0594102 -0.0731895
-0.0444665 -0.0594102 -0.0731903
-0.0444433 -0.0594101 -0.0731914
-0.044419 -0.05941 -0.0731929
-0.0443952 -0.0594099 -0.0731946
-0.0443716 -0.0594098 -0.0731966
-0.0443477 -0.0594097 -0.0731986
-0.0443256 -0.0594096 -0.0732001
-0.044304 -0.0594094 -0.0732009
-0.0442842 -0.0594093 -0.0732012
-0.0442672 -0.0594092 -0.0732014
-0.044251 -0.059409 -0.0732016
-0.0442375 -0.0594089 -0.0732021
-0.0442257 -0.0594088 -0.073234
-0.044215 -0.0594086 -0.0732873
-0.044206 -0.0594085 -0.0733522
-0.0441985 -0.0594084 -0.0734187
-0.0441923 -0.0594083 -0.0734756
-0.0441863 -0.0594082 -0.0735163
-0.0441793 -0.059407 -0.0735413
-0.0441726 -0.0594059 -0.0735579
-0.0441663 -0.0594059 -0.073575
-0.0441611 -0.0594071 -0.0736001
-0.044156 -0.0594093 -0.0736351
-0.0441492 -0.059412 -0.0736723
-0.0441404 -0.0594151 -0.0737043
-0.0441304 -0.0594183 -0.07373
-0.0441205 -0.0594219 -0.0737394
-0.0441117 -0.0594252 -0.0737401
-0.0441034 -0.0594283 -0.07374
-0.0440945 -0.059431 -0.07374
-0.0440845 -0.059433 -0.07374
-0.0440742 -0.0594338 -0.0737398
-0.0440652 -0.0594338 -0.0737395
-0.0440571 -0.0594337 -0.0737389
-0.0440501 -0.0594336 -0.0737382
-0.0440442 -0.0594327 -0.0737376
-0.0440386 -0.0594266 -0.0737374
-0.0440339 -0.0594216 -0.0737374
-0.0440295 -0.0594206 -0.0737374
-0.0440241 -0.0594212 -0.0737373
-0.0440187 -0.0594226 -0.073737
-0.0440145 -0.0594225 -0.0737306
-0.0440127 -0.0594173 -0.073715
-0.0440126 -0.0594092 -0.0736984
-0.0440127 -0.0594005 -0.0736769
-0.0440127 -0.0593918 -0.073651
-0.0440127 -0.0593825 -0.0736232
-0.0440127 -0.0593719 -0.0735964
-0.0440128 -0.0593588 -0.0735716
-0.0440128 -0.0593438 -0.0735465
-0.0440129 -0.0593285 -0.0735176
-0.0440129 -0.0593144 -0.0734826
-0.044013 -0.0593022 -0.073442
-0.044013 -0.0592916 -0.0733979
-0.0440131 -0.0592817 -0.0733524
-0.0440131 -0.0592722 -0.0733055
-0.0440132 -0.0592636 -0.0732554
-0.0440132 -0.0592569 -0.0731997
-0.0440132 -0.0592531 -0.0731374
-0.0440132 -0.0592525 -0.0730723
-0.0440133 -0.0592524 -0.073012
-0.0440133 -0.05925 -0.0729611
-0.0440133 -0.0592458 -0.0729162
-0.0440133 -0.0592432 -0.0728677
-0.0440132 -0.0592432 -0.0728078
-0.0440132 -0.0592433 -0.0727368
-0.0440132 -0.0592434 -0.0726615
-0.0440132 -0.0592434 -0.0725911
-0.0440131 -0.0592435 -0.072531
-0.0440131 -0.0592435 -0.072478
-0.044013 -0.0592436 -0.0724242
-0.044013 -0.0592437 -0.0723633
-0.044013 -0.0592437 -0.0722965
-0.0440129 -0.0592437 -0.0722315
-0.0440129 -0.0592438 -0.0721765
-0.0440129 -0.0592438 -0.0721339
-0.0440129 -0.0592438 -0.0720989
-0.0440129 -0.0592438 -0.0720641
-0.0440129 -0.0592438 -0.0720261
-0.0440129 -0.0592437 -0.0719875
-0.044013 -0.0592437 -0.0719546
-0.044013 -0.0592436 -0.0719322
-0.044013 -0.0592435 -0.0719201
-0.0440131 -0.0592434 -0.0719134
-0.0440131 -0.0592433 -0.0719065
-0.0440131 -0.0592432 -0.0718973
-0.0440132 -0.0592383 -0.0718881
-0.0440132 -0.0592273 -0.0718833
-0.0440133 -0.0592125 -0.0718832
-0.0440133 -0.0591959 -0.0718833
-0.0440133 -0.0591816 -0.0718835
-0.0440133 -0.0591726 -0.0718839
-0.0440133 -0.059168 -0.0718845
-0.0440133 -0.0591645 -0.0718851
-0.0440133 -0.0591598 -0.0718859
-0.0440133 -0.0591576 -0.0718867
-0.0440132 -0.0591576 -0.0718876
-0.0440132 -0.0591578 -0.0718886
-0.0440131 -0.0591581 -0.0718897
-0.044013 -0.0591585 -0.0718909
-0.044013 -0.0591589 -0.071892
-0.0440129 -0.0591595 -0.0718929
-0.0440127 -0.0591729 -0.0718933
-0.0440124 -0.0591927 -0.0718935
-0.044006 -0.0592105 -0.0718937
-0.0439946 -0.0592299 -0.0718939
-0.0439816 -0.059248 -0.0718942
-0.0439723 -0.0592646 -0.0718945
-0.0439668 -0.0592801 -0.0718947
-0.0439621 -0.0592923 -0.071895
-0.0439553 -0.059301 -0.0718953
-0.0439482 -0.0593056 -0.0718956
-0.0439444 -0.0593065 -0.071896
-0.0439439 -0.0593065 -0.0719019
-0.0439439 -0.0593064 -0.0719295
-0.0439439 -0.0593063 -0.0719732
-0.0439439 -0.0593063 -0.0720296
-0.0439439 -0.0593062 -0.0720859
-0.043944 -0.0593061 -0.0721297
-0.043944 -0.0593059 -0.0721577
-0.043944 -0.0593058 -0.0721763
-0.0439441 -0.0593057 -0.0721955
-0.0439441 -0.0593055 -0.0722225
-0.0439442 -0.0593054 -0.0722547
-0.0439442 -0.0593053 -0.0722805
-0.0439442 -0.0593053 -0.0722974
-0.0439442 -0.0593053 -0.0722989
-0.0439443 -0.0593052 -0.0722987
-0.0439443 -0.0593052 -0.0722983
-0.0439443 -0.0593052 -0.0722974
-0.0439443 -0.0593053 -0.0722939
-0.0439444 -0.0593054 -0.0722595
-0.0439445 -0.0593054 -0.0722193
-0.0439447 -0.0593055 -0.0721785
-0.0439449 -0.0593056 -0.0721429
-0.0439451 -0.0593057 -0.0721101
-0.0439453 -0.0593058 -0.0720761
-0.0439456 -0.0593059 -0.0720369
-0.0439459 -0.059306 -0.0719921
-0.0439461 -0.0593061 -0.0719451
-0.0439463 -0.0593062 -0.0719009
-0.0439464 -0.0593062 -0.0718619
-0.0439465 -0.0593063 -0.071827
-0.0439466 -0.0593063 -0.0717931
-0.0439466 -0.0593063 -0.0717581
-0.0439467 -0.0593062 -0.0717223
-0.0439468 -0.0593062 -0.0716885
-0.0439469 -0.0593062 -0.0716593
-0.043947 -0.0593061 -0.0716353
-0.0439471 -0.059306 -0.0716147
-0.0439472 -0.0593059 -0.0715948
-0.0439474 -0.0593059 -0.071574
-0.0439475 -0.0593058 -0.0715543
-0.0439475 -0.0593058 -0.0715384
-0.0439476 -0.0593057 -0.0715249
-0.0439477 -0.0593057 -0.0715144
-0.0439478 -0.0593057 -0.0715055
-0.0439478 -0.0593057 -0.0714956
-0.0439478 -0.0593057 -0.0714833
-0.0439479 -0.0593057 -0.0714698
-0.0439479 -0.0593057 -0.0714583
-0.043948 -0.0593057 -0.0714508
-0.043948 -0.0593059 -0.0714465
-0.043948 -0.0593061 -0.0714431
-0.043948 -0.0593064 -0.0714396
-0.043948 -0.0593094 -0.0714376
-0.043948 -0.0593157 -0.0714368
-0.0439479 -0.0593208 -0.071437
-0.0439479 -0.0593273 -0.0714374
-0.0439479 -0.0593353 -0.071438
-0.0439478 -0.0593437 -0.0714388
-0.0439478 -0.0593509 -0.0714395
-0.0439478 -0.0593558 -0.0714398
-0.0439477 -0.0593599 -0.0714399
-0.0439477 -0.0593646 -0.07144
-0.0439477 -0.0593697 -0.0714402
-0.0439477 -0.0593738 -0.0714407
-0.0439477 -0.0593756 -0.071441
-0.0439476 -0.0593757 -0.0714414
-0.0439476 -0.0593757 -0.0714417
-0.0439477 -0.0593757 -0.0714421
-0.0439477 -0.0593757 -0.0714426
-0.0439477 -0.0593756 -0.0714492
-0.0439477 -0.0593756 -0.0714847
-0.0439477 -0.0593756 -0.0715385
-0.0439477 -0.0593755 -0.0716098
-0.0439478 -0.0593755 -0.0716843
-0.0439478 -0.0593755 -0.0717455
-0.0439478 -0.0593754 -0.0717868
-0.0439478 -0.0593754 -0.0718143
-0.0439478 -0.0593754 -0.0718423
-0.0439478 -0.0593754 -0.0718807
-0.0439478 -0.0593754 -0.0719298
-0.0439478 -0.0593754 -0.0719788
-0.0439479 -0.0593755 -0.0720155
-0.0439479 -0.0593755 -0.0720331
-0.0439479 -0.0593756 -0.0720362
-0.0439479 -0.0593756 -0.0720363
-0.0439478 -0.0593764 -0.0720426
-0.0439478 -0.0593809 -0.0720565
-0.0439478 -0.0593869 -0.072067
-0.0439478 -0.0593933 -0.0720728
-0.0439478 -0.0593999 -0.0720733
-0.0439478 -0.0594055 -0.0720731
-0.0439479 -0.0594106 -0.0720729
-0.0439479 -0.0594154 -0.0720725
-0.0439479 -0.0594202 -0.0720721
-0.0439479 -0.0594251 -0.0720716
-0.0439479 -0.0594294 -0.0720711
-0.0439479 -0.0594325 -0.0720706
-0.043948 -0.0594344 -0.0720701
-0.043948 -0.0594356 -0.0720688
-0.0439481 -0.0594358 -0.0720579
-0.0439481 -0.0594357 -0.0720475
-0.0439482 -0.0594356 -0.0720368
-0.0439482 -0.0594354 -0.0720266
-0.0439483 -0.0594352 -0.0720166
-0.0439484 -0.059435 -0.0720066
-0.0439484 -0.0594347 -0.0719967
-0.0439485 -0.0594345 -0.0719875
-0.0439486 -0.0594344 -0.071979
-0.0439487 -0.0594344 -0.0719713
-0.0439487 -0.0594344 -0.0719636
-0.0439488 -0.0594344 -0.0719548
-0.0439489 -0.0594343 -0.0719451
-0.0439489 -0.0594343 -0.0719342
-0.043949 -0.0594343 -0.0719215
-0.043949 -0.0594343 -0.0719064
-0.0439491 -0.0594343 -0.0718889
-0.0439491 -0.0594343 -0.0718701
-0.0439491 -0.0594344 -0.0718508
-0.0439491 -0.0594344 -0.0718313
-0.0439491 -0.0594345 -0.0718114
-0.0439491 -0.0594346 -0.0717905
-0.0439491 -0.0594346 -0.0717689
-0.0439491 -0.0594348 -0.071748
-0.0439491 -0.0594349 -0.0717287
-0.0439491 -0.059435 -0.0717113
-0.0439491 -0.059435 -0.0716951
-0.0439491 -0.0594351 -0.0716803
-0.0439491 -0.0594351 -0.0716677
-0.0439491 -0.0594352 -0.0716579
-0.0439491 -0.0594352 -0.071651
-0.0439491 -0.0594352 -0.0716472
-0.0439491 -0.0594352 -0.0716467
-0.0439491 -0.0594352 -0.071647
-0.0439491 -0.0594352 -0.0716475
-0.0439491 -0.0594352 -0.0716479
-0.0439491 -0.0594352 -0.0716481
-0.0439491 -0.0594351 -0.0716482
-0.0439491 -0.0594351 -0.0716482
-0.043949 -0.059435 -0.0716484
-0.0439489 -0.059435 -0.0716487
-0.0439488 -0.0594349 -0.071649
-0.0439487 -0.0594349 -0.0716492
-0.0439486 -0.0594348 -0.0716493
-0.0439485 -0.0594348 -0.0716496
-0.0439484 -0.0594347 -0.0716555
-0.0439483 -0.0594347 -0.0716764
-0.0439482 -0.0594346 -0.0717047
-0.0439481 -0.0594346 -0.0717368
-0.043948 -0.0594346 -0.071765
-0.0439479 -0.0594346 -0.0717837
-0.0439478 -0.0594346 -0.0717933
-0.0439477 -0.0594347 -0.0717995
-0.0439476 -0.0594347 -0.0718088
-0.0439475 -0.0594347 -0.0718239
-0.0439474 -0.0594348 -0.0718421
-0.0439473 -0.0594348 -0.0718576
-0.0439472 -0.0594349 -0.0718662
-0.0439471 -0.0594349 -0.0718681
-0.043947 -0.059435 -0.0718681
-0.0439469 -0.059435 -0.0718714
-0.0439468 -0.0594351 -0.0718808
-0.0439467 -0.0594351 -0.0718945
-0.0439466 -0.0594351 -0.0719081
-0.0439465 -0.0594351 -0.0719178
-0.0439465 -0.0594351 -0.0719231
-0.0439464 -0.0594351 -0.0719273
-0.0439463 -0.0594351 -0.0719347
-0.0439463 -0.0594351 -0.0719474
-0.0439462 -0.059435 -0.0719638
-0.0439462 -0.059435 -0.0719797
-0.0439462 -0.0594348 -0.0719917
-0.0439462 -0.0594347 -0.0719987
-0.0439462 -0.0594345 -0.0720032
-0.0439462 -0.0594343 -0.0720088
-0.0439463 -0.0594343 -0.0720171
-0.0439463 -0.0594342 -0.0720233
-0.0439463 -0.0594342 -0.0720259
-0.0439463 -0.0594341 -0.0720259
-0.0439464 -0.0594341 -0.0720256
-0.0439464 -0.059434 -0.0720251
-0.0439464 -0.059434 -0.0720245
-0.0439464 -0.059434 -0.0720239
-0.0439464 -0.059434 -0.0720147
-0.0439464 -0.059434 -0.0720023
-0.0439464 -0.059434 -0.0719896
-0.0439464 -0.059434 -0.0719724
-0.0439464 -0.059434 -0.0719485
-0.0439464 -0.0594341 -0.0719194
-0.0439464 -0.0594341 -0.0718888
-0.0439463 -0.0594341 -0.0718607
-0.0439463 -0.0594342 -0.0718353
-0.0439463 -0.0594342 -0.07181
-0.0439463 -0.0594343 -0.0717816
-0.0439463 -0.0594343 -0.0717495
-0.0439462 -0.0594343 -0.0717161
-0.0439462 -0.0594344 -0.0716851
-0.0439462 -0.0594344 -0.0716586
-0.0439462 -0.0594344 -0.0716357
-0.0439462 -0.0594344 -0.0716138
-0.0439462 -0.0594344 -0.071591
-0.0439462 -0.0594344 -0.0715674
-0.0439462 -0.0594344 -0.0715453
-0.0439463 -0.0594343 -0.0715272
-0.0439463 -0.0594343 -0.0715135
-0.0439463 -0.0594343 -0.0715028
-0.0439463 -0.0594342 -0.0714927
-0.0439463 -0.0594342 -0.0714819
-0.0439464 -0.0594341 -0.0714708
-0.0439464 -0.0594341 -0.0714613
-0.0439464 -0.059434 -0.0714546
-0.0439464 -0.0594339 -0.0714504
-0.0439465 -0.0594339 -0.0714472
-0.0439465 -0.0594339 -0.071443
-0.0439465 -0.0594338 -0.0714372
-0.0439465 -0.0594338 -0.0714307
-0.0439465 -0.0594338 -0.0714248
-0.0439465 -0.0594337 -0.0714205
-0.0439465 -0.0594337 -0.0714172
-0.0439465 -0.0594337 -0.0714136
-0.0439464 -0.0594337 -0.0714086
-0.0439464 -0.0594337 -0.0714024
-0.0439464 -0.0594338 -0.0713962
-0.0439463 -0.0594338 -0.0713911
-0.0439463 -0.0594338 -0.071388
-0.0439463 -0.0594338 -0.0713863
-0.0439462 -0.0594339 -0.0713854
-0.0439462 -0.059434 -0.0713848
-0.0439461 -0.0594341 -0.0713849
-0.0439461 -0.0594342 -0.0713851
-0.043946 -0.0594343 -0.0713854
-0.043946 -0.0594344 -0.0713858
-0.043946 -0.0594344 -0.0713863
-0.0439459 -0.0594345 -0.0713869
-0.0439459 -0.0594345 -0.0713875
-0.0439459 -0.0594345 -0.0713878
-0.0439459 -0.0594345 -0.0713879
-0.0439459 -0.0594345 -0.0713879
-0.0439459 -0.0594344 -0.071388
-0.0439459 -0.0594343 -0.0713882
-0.0439459 -0.0594342 -0.0713884
-0.0439459 -0.0594341 -0.0713886
-0.0439459 -0.059434 -0.0713887
-0.0439459 -0.0594339 -0.0713888
-0.0439459 -0.0594338 -0.071389
-0.0439459 -0.0594337 -0.0713892
-0.0439459 -0.0594337 -0.0713893
-0.0439459 -0.0594337 -0.0713894
-0.0439459 -0.0594336 -0.0713905
-0.0439459 -0.0594336 -0.071397
-0.0439459 -0.0594336 -0.0714044
-0.0439458 -0.0594336 -0.0714083
-0.0439458 -0.0594336 -0.0714089
-0.0439458 -0.0594336 -0.0714078
-0.0439458 -0.0594336 -0.071401
-0.0439457 -0.0594336 -0.0713909
-0.0439457 -0.0594336 -0.0713777
-0.0439457 -0.0594336 -0.0713616
-0.0439457 -0.0594336 -0.0713432
-0.0439456 -0.0594337 -0.0713225
-0.0439456 -0.0594337 -0.0712999
-0.0439456 -0.0594337 -0.0712759
-0.0439456 -0.0594337 -0.0712515
-0.0439455 -0.0594337 -0.071229
-0.0439455 -0.0594338 -0.0712119
-0.0439455 -0.0594338 -0.0711992
-0.0439455 -0.0594338 -0.0711887
-0.0439455 -0.0594338 -0.0711768
-0.0439455 -0.0594337 -0.0711615
-0.0439455 -0.0594337 -0.0711438
-0.0439455 -0.0594337 -0.0711268
-0.0439455 -0.0594337 -0.0711132
-0.0439455 -0.0594336 -0.0711028
-0.0439456 -0.0594336 -0.0710933
-0.0439456 -0.0594336 -0.0710817
-0.0439456 -0.0594335 -0.0710671
-0.0439456 -0.0594335 -0.0710509
-0.0439457 -0.0594334 -0.0710355
-0.0439457 -0.0594334 -0.0710225
-0.0439457 -0.0594334 -0.0710107
-0.0439457 -0.0594333 -0.070998
-0.0439458 -0.0594333 -0.0709824
-0.0439458 -0.0594333 -0.0709639
-0.0439458 -0.0594333 -0.0709444
-0.0439458 -0.0594332 -0.0709257
-0.0439458 -0.0594332 -0.0709084
-0.0439458 -0.0594332 -0.0708914
-0.0439458 -0.0594333 -0.0708731
-0.0439458 -0.0594333 -0.0708528
-0.0439458 -0.0594333 -0.0708311
-0.0439458 -0.0594333 -0.0708098
-0.0439457 -0.0594333 -0.0707905
-0.0439457 -0.0594334 -0.0707733
-0.0439457 -0.0594334 -0.0707572
-0.0439457 -0.0594334 -0.0707412
-0.0439457 -0.0594335 -0.0707251
-0.0439457 -0.0594335 -0.0707101
-0.0439456 -0.0594335 -0.0706975
-0.0439456 -0.0594335 -0.0706883
