0 0 1089.77 0 0 -1089.77 0 0 1020.31 0 0 -1020.31 0 0 36.7596 0 0 -36.7596
0 0 1099.46 0 0 -1099.46 0 0 1018.96 0 0 -1018.96 0 0 36.8192 0 0 -36.8192
0 0 1121.78 0 0 -1121.78 0 0 1016.09 0 0 -1016.09 0 0 36.9374 0 0 -36.9374
0 0 1167.87 0 0 -1167.87 0 0 1010.97 0 0 -1010.97 0 0 37.091 0 0 -37.091
0 0 1220.16 0 0 -1220.16 0 0 1005.98 0 0 -1005.98 0 0 37.1768 0 0 -37.1768
0 0 1287.3 0 0 -1287.3 0 0 1000.68 0 0 -1000.68 0 0 37.1683 0 0 -37.1683
0 0 1370.39 0 0 -1370.39 0 0 995.72 0 0 -995.72 0 0 36.9986 0 0 -36.9986
0 0 1470.56 0 0 -1470.56 0 0 991.902 0 0 -991.902 0 0 36.5874 0 0 -36.5874
0 0 1589.05 0 0 -1589.05 0 0 990.058 0 0 -990.058 0 0 35.8576 0 0 -35.8576
0 0 1727.21 0 0 -1727.21 0 0 991.062 0 0 -991.062 0 0 34.7385 0 0 -34.7385
0 0 1886.23 0 0 -1886.23 0 0 995.916 0 0 -995.916 0 0 33.1647 0 0 -33.1647
0 0 2066.57 0 0 -2066.57 0 0 1005.78 0 0 -1005.78 0 0 31.0767 0 0 -31.0767
0 0 2267.37 0 0 -2267.37 0 0 1021.81 0 0 -1021.81 0 0 28.4407 0 0 -28.4407
0 0 2487.23 0 0 -2487.23 0 0 1045.73 0 0 -1045.73 0 0 25.1983 0 0 -25.1983
0 0 2721.97 0 0 -2721.97 0 0 1079.16 0 0 -1079.16 0 0 21.3494 0 0 -21.3494
0 0 2966.03 0 0 -2966.03 0 0 1123.77 0 0 -1123.77 0 0 16.9225 0 0 -16.9225
0 0 3212.45 0 0 -3212.45 0 0 1181.21 0 0 -1181.21 0 0 11.9942 0 0 -11.9942
0 0 3453.28 0 0 -3453.28 0 0 1252.86 0 0 -1252.86 0 0 6.70149 0 0 -6.70149
0 0 3680.49 0 0 -3680.49 0 0 1339.61 0 0 -1339.61 0 0 1.22479 0 0 -1.22479
0 0 3886.33 0 0 -3886.33 0 0 1441.73 0 0 -1441.73 0 0 -4.10179 0 0 4.10179
0 0 4063.13 0 0 -4063.13 0 0 1558.85 0 0 -1558.85 0 0 -8.87635 0 0 8.87635
0 0 4202.52 0 0 -4202.52 0 0 1690.09 0 0 -1690.09 0 0 -12.6278 0 0 12.6278
0 0 4294.81 0 0 -4294.81 0 0 1833.99 0 0 -1833.99 0 0 -14.8191 0 0 14.8191
0 0 4328.45 0 0 -4328.45 0 0 1988.63 0 0 -1988.63 0 0 -14.8647 0 0 14.8647
0 0 4290 0 0 -4290 0 0 2151.03 0 0 -2151.03 0 0 -12.1742 0 0 12.1742
0 0 4165.78 0 0 -4165.78 0 0 2318.67 0 0 -2318.67 0 0 -6.03051 0 0 6.03051
0 0 3944.9 0 0 -3944.9 0 0 2487.14 0 0 -2487.14 0 0 4.13864 0 0 -4.13864
0 0 3624.12 0 0 -3624.12 0 0 2650.19 0 0 -2650.19 0 0 19.2472 0 0 -19.2472
0 0 3211.51 0 0 -3211.51 0 0 2799.72 0 0 -2799.72 0 0 40.0561 0 0 -40.0561
0 0 2725.28 0 0 -2725.28 0 0 2926.26 0 0 -2926.26 0 0 67.2197 0 0 -67.2197
0 0 2188.33 0 0 -2188.33 0 0 3020.01 0 0 -3020.01 0 0 101.347 0 0 -101.347
0 0 1621.13 0 0 -1621.13 0 0 3071.52 0 0 -3071.52 0 0 142.872 0 0 -142.872
0 0 1046.01 0 0 -1046.01 0 0 3074.04 0 0 -3074.04 0 0 191.725 0 0 -191.725
0 0 479.021 0 0 -479.021 0 0 3022.14 0 0 -3022.14 0 0 247.552 0 0 -247.552
0 0 -71.6295 0 0 71.6295 0 0 2912.56 0 0 -2912.56 0 0 309.633 0 0 -309.633
0 0 -599.362 0 0 599.362 0 0 2746.1 0 0 -2746.1 0 0 376.773 0 0 -376.773
0 0 -1098.06 0 0 1098.06 0 0 2525.41 0 0 -2525.41 0 0 447.402 0 0 -447.402
0 0 -1567.81 0 0 1567.81 0 0 2255.14 0 0 -2255.14 0 0 519.602 0 0 -519.602
0 0 -2010.8 0 0 2010.8 0 0 1941.79 0 0 -1941.79 0 0 591.203 0 0 -591.203
0 0 -2429.48 0 0 2429.48 0 0 1592.71 0 0 -1592.71 0 0 659.671 0 0 -659.671
0 0 -2824.71 0 0 2824.71 0 0 1218.36 0 0 -1218.36 0 0 722.739 0 0 -722.739
0 0 -3196.31 0 0 3196.31 0 0 827.699 0 0 -827.699 0 0 777.851 0 0 -777.851
0 0 -3540.87 0 0 3540.87 0 0 430.108 0 0 -430.108 0 0 822.611 0 0 -822.611
0 0 -3850.63 0 0 3850.63 0 0 34.5159 0 0 -34.5159 0 0 854.74 0 0 -854.74
0 0 -4115.94 0 0 4115.94 0 0 -352.945 0 0 352.945 0 0 872.043 0 0 -872.043
0 0 -4330.27 0 0 4330.27 0 0 -723.253 0 0 723.253 0 0 872.77 0 0 -872.77
0 0 -4493.69 0 0 4493.69 0 0 -1066.45 0 0 1066.45 0 0 855.584 0 0 -855.584
0 0 -4616.71 0 0 4616.71 0 0 -1373 0 0 1373 0 0 819.292 0 0 -819.292
0 0 -4719.76 0 0 4719.76 0 0 -1634.1 0 0 1634.1 0 0 763.111 0 0 -763.111
0 0 -4832 0 0 4832 0 0 -1842.28 0 0 1842.28 0 0 686.812 0 0 -686.812
0 0 -5041.54 0 0 5041.54 0 0 -2019 0 0 2019 0 0 563.694 0 0 -563.694
0 0 -5403.6 0 0 5403.6 0 0 -2096.22 0 0 2096.22 0 0 411.617 0 0 -411.617
0 0 -5993.75 0 0 5993.75 0 0 -2075.51 0 0 2075.51 0 0 234.144 0 0 -234.144
0 0 -6866.26 0 0 6866.26 0 0 -1970.91 0 0 1970.91 0 0 36.3458 0 0 -36.3458
0 0 -8044.35 0 0 8044.35 0 0 -1809.81 0 0 1809.81 0 0 -177.655 0 0 177.655
0 0 -9515.13 0 0 9515.13 0 0 -1629.9 0 0 1629.9 0 0 -396.598 0 0 396.598
0 0 -11226.5 0 0 11226.5 0 0 -1478.94 0 0 1478.94 0 0 -611.895 0 0 611.895
0 0 -13092 0 0 13092 0 0 -1411.21 0 0 1411.21 0 0 -814.385 0 0 814.385
0 0 -15011.7 0 0 15011.7 0 0 -1479.64 0 0 1479.64 0 0 -996.036 0 0 996.036
0 0 -16899.5 0 0 16899.5 0 0 -1727.92 0 0 1727.92 0 0 -1150.47 0 0 1150.47
0 0 -18700.1 0 0 18700.1 0 0 -2185.34 0 0 2185.34 0 0 -1273.46 0 0 1273.46
0 0 -20388.7 0 0 20388.7 0 0 -2865.15 0 0 2865.15 0 0 -1363.37 0 0 1363.37
0 0 -21961.5 0 0 21961.5 0 0 -3764.5 0 0 3764.5 0 0 -1421.28 0 0 1421.28
0 0 -23427.9 0 0 23427.9 0 0 -4865.47 0 0 4865.47 0 0 -1451.02 0 0 1451.02
0 0 -24799.8 0 0 24799.8 0 0 -6138.01 0 0 6138.01 0 0 -1458.56 0 0 1458.56
0 0 -26080.9 0 0 26080.9 0 0 -7543.54 0 0 7543.54 0 0 -1451.67 0 0 1451.67
0 0 -27266.2 0 0 27266.2 0 0 -9036.75 0 0 9036.75 0 0 -1439.39 0 0 1439.39
0 0 -28355.1 0 0 28355.1 0 0 -10566.5 0 0 10566.5 0 0 -1431.68 0 0 1431.68
0 0 -29361.8 0 0 29361.8 0 0 -12077.3 0 0 12077.3 0 0 -1438.7 0 0 1438.7
0 0 -30315.1 0 0 30315.1 0 0 -13513.3 0 0 13513.3 0 0 -1470.12 0 0 1470.12
0 0 -31246.1 0 0 31246.1 0 0 -14822.6 0 0 14822.6 0 0 -1534.38 0 0 1534.38
0 0 -32172 0 0 32172 0 0 -15962.8 0 0 15962.8 0 0 -1638.05 0 0 1638.05
0 0 -33086.3 0 0 33086.3 0 0 -16904.5 0 0 16904.5 0 0 -1785.28 0 0 1785.28
0 0 -33969.2 0 0 33969.2 0 0 -17631 0 0 17631 0 0 -1977.56 0 0 1977.56
0 0 -34802 0 0 34802 0 0 -18137.5 0 0 18137.5 0 0 -2213.68 0 0 2213.68
0 0 -35570.5 0 0 35570.5 0 0 -18430 0 0 18430 0 0 -2489.83 0 0 2489.83
0 0 -36266.9 0 0 36266.9 0 0 -18524.5 0 0 18524.5 0 0 -2799.73 0 0 2799.73
0 0 -36889.4 0 0 36889.4 0 0 -18445.7 0 0 18445.7 0 0 -3134.99 0 0 3134.99
0 0 -37442.8 0 0 37442.8 0 0 -18225.3 0 0 18225.3 0 0 -3485.48 0 0 3485.48
0 0 -37936.6 0 0 37936.6 0 0 -17900.4 0 0 17900.4 0 0 -3839.84 0 0 3839.84
0 0 -38381.5 0 0 38381.5 0 0 -17511.6 0 0 17511.6 0 0 -4186.01 0 0 4186.01
0 0 -38788.2 0 0 38788.2 0 0 -17100.8 0 0 17100.8 0 0 -4511.85 0 0 4511.85
0 0 -39170.9 0 0 39170.9 0 0 -16708.5 0 0 16708.5 0 0 -4805.72 0 0 4805.72
0 0 -39551.1 0 0 39551.1 0 0 -16370.8 0 0 16370.8 0 0 -5057.08 0 0 5057.08
0 0 -39956.7 0 0 39956.7 0 0 -16118 0 0 16118 0 0 -5257.02 0 0 5257.02
0 0 -40413.9 0 0 40413.9 0 0 -15974.2 0 0 15974.2 0 0 -5398.57 0 0 5398.57
0 0 -40932 0 0 40932 0 0 -15957.8 0 0 15957.8 0 0 -5476.93 0 0 5476.93
0 0 -41489.9 0 0 41489.9 0 0 -16082.8 0 0 16082.8 0 0 -5489.67 0 0 5489.67
0 0 -42036.5 0 0 42036.5 0 0 -16357.5 0 0 16357.5 0 0 -5436.89 0 0 5436.89
0 0 -42505 0 0 42505 0 0 -16780.9 0 0 16780.9 0 0 -5321.42 0 0 5321.42
0 0 -42777.9 0 0 42777.9 0 0 -17219.4 0 0 17219.4 0 0 -5187.58 0 0 5187.58
0 0 -42941.5 0 0 42941.5 0 0 -17872.7 0 0 17872.7 0 0 -4975.12 0 0 4975.12
0 0 -42866.5 0 0 42866.5 0 0 -18609.9 0 0 18609.9 0 0 -4722.06 0 0 4722.06
0 0 -42526 0 0 42526 0 0 -19385.2 0 0 19385.2 0 0 -4440.45 0 0 4440.45
0 0 -41902.3 0 0 41902.3 0 0 -20144.8 0 0 20144.8 0 0 -4143.59 0 0 4143.59
0 0 -40979.6 0 0 40979.6 0 0 -20831.2 0 0 20831.2 0 0 -3845.25 0 0 3845.25
0 0 -39745.3 0 0 39745.3 0 0 -21385.6 0 0 21385.6 0 0 -3558.96 0 0 3558.96
0 0 -38189.6 0 0 38189.6 0 0 -21751.8 0 0 21751.8 0 0 -3297.23 0 0 3297.23
0 0 -36304.2 0 0 36304.2 0 0 -21879.2 0 0 21879.2 0 0 -3070.8 0 0 3070.8
0 0 -34084.5 0 0 34084.5 0 0 -21724.9 0 0 21724.9 0 0 -2888.09 0 0 2888.09
0 0 -31531.4 0 0 31531.4 0 0 -21255.9 0 0 21255.9 0 0 -2754.68 0 0 2754.68
0 0 -28649.9 0 0 28649.9 0 0 -20451.4 0 0 20451.4 0 0 -2672.95 0 0 2672.95
0 0 -25453.2 0 0 25453.2 0 0 -19302.6 0 0 19302.6 0 0 -2641.89 0 0 2641.89
0 0 -21973.2 0 0 21973.2 0 0 -17812.2 0 0 17812.2 0 0 -2657.16 0 0 2657.16
0 0 -18270.8 0 0 18270.8 0 0 -15993 0 0 15993 0 0 -2711.26 0 0 2711.26
0 0 -14429.7 0 0 14429.7 0 0 -13868.5 0 0 13868.5 0 0 -2793.7 0 0 2793.7
0 0 -10533.2 0 0 10533.2 0 0 -11475.6 0 0 11475.6 0 0 -2891.26 0 0 2891.26
0 0 -6653.72 0 0 6653.72 0 0 -8864.42 0 0 8864.42 0 0 -2988.48 0 0 2988.48
0 0 -2856.06 0 0 2856.06 0 0 -6095.09 0 0 6095.09 0 0 -3068.42 0 0 3068.42
0 0 783.074 0 0 -783.074 0 0 -3236.58 0 0 3236.58 0 0 -3113.38 0 0 3113.38
0 0 4206.56 0 0 -4206.56 0 0 -366.838 0 0 366.838 0 0 -3105.47 0 0 3105.47
0 0 7389.92 0 0 -7389.92 0 0 2423.12 0 0 -2423.12 0 0 -3031.17 0 0 3031.17
0 0 10327.1 0 0 -10327.1 0 0 5068.03 0 0 -5068.03 0 0 -2874.05 0 0 2874.05
0 0 13024.6 0 0 -13024.6 0 0 7524.32 0 0 -7524.32 0 0 -2622.16 0 0 2622.16
0 0 15516.6 0 0 -15516.6 0 0 9731.02 0 0 -9731.02 0 0 -2267.83 0 0 2267.83
0 0 17838 0 0 -17838 0 0 11637.2 0 0 -11637.2 0 0 -1806.57 0 0 1806.57
0 0 20002.7 0 0 -20002.7 0 0 13218.2 0 0 -13218.2 0 0 -1239.77 0 0 1239.77
0 0 22000.2 0 0 -22000.2 0 0 14474 0 0 -14474 0 0 -573.732 0 0 573.732
0 0 23806.6 0 0 -23806.6 0 0 15418.7 0 0 -15418.7 0 0 174.559 0 0 -174.559
0 0 25413.5 0 0 -25413.5 0 0 16076.9 0 0 -16076.9 0 0 990.171 0 0 -990.171
0 0 26842.7 0 0 -26842.7 0 0 16490.5 0 0 -16490.5 0 0 1858.98 0 0 -1858.98
0 0 28147.6 0 0 -28147.6 0 0 16707.7 0 0 -16707.7 0 0 2760.65 0 0 -2760.65
0 0 29395.1 0 0 -29395.1 0 0 16779.4 0 0 -16779.4 0 0 3672.59 0 0 -3672.59
0 0 30649.6 0 0 -30649.6 0 0 16763.2 0 0 -16763.2 0 0 4570.06 0 0 -4570.06
0 0 31974.7 0 0 -31974.7 0 0 16721.2 0 0 -16721.2 0 0 5428.9 0 0 -5428.9
0 0 33435.4 0 0 -33435.4 0 0 16714.8 0 0 -16714.8 0 0 6226 0 0 -6226
0 0 35096.5 0 0 -35096.5 0 0 16800.4 0 0 -16800.4 0 0 6940.02 0 0 -6940.02
0 0 37014.5 0 0 -37014.5 0 0 17029.2 0 0 -17029.2 0 0 7552.15 0 0 -7552.15
0 0 39244.3 0 0 -39244.3 0 0 17385.7 0 0 -17385.7 0 0 7718.29 0 0 -7718.29
0 0 41787.6 0 0 -41787.6 0 0 17872.8 0 0 -17872.8 0 0 7725.21 0 0 -7725.21
0 0 44571.8 0 0 -44571.8 0 0 18690.9 0 0 -18690.9 0 0 7730.11 0 0 -7730.11
0 0 47535.5 0 0 -47535.5 0 0 19833.6 0 0 -19833.6 0 0 7732.42 0 0 -7732.42
0 0 50568.9 0 0 -50568.9 0 0 21320.7 0 0 -21320.7 0 0 7693.77 0 0 -7693.77
0 0 53592.7 0 0 -53592.7 0 0 23054.6 0 0 -23054.6 0 0 7553.73 0 0 -7553.73
0 0 56517.3 0 0 -56517.3 0 0 25015.7 0 0 -25015.7 0 0 7322.21 0 0 -7322.21
0 0 59276.2 0 0 -59276.2 0 0 27165.7 0 0 -27165.7 0 0 7001.29 0 0 -7001.29
0 0 60586.2 0 0 -60586.2 0 0 29322.1 0 0 -29322.1 0 0 6607.91 0 0 -6607.91
0 0 60717 0 0 -60717 0 0 31185.4 0 0 -31185.4 0 0 6192.1 0 0 -6192.1
0 0 60825 0 0 -60825 0 0 33007.4 0 0 -33007.4 0 0 5762.43 0 0 -5762.43
0 0 60901.8 0 0 -60901.8 0 0 34811.5 0 0 -34811.5 0 0 5330.88 0 0 -5330.88
0 0 60974.9 0 0 -60974.9 0 0 36408.8 0 0 -36408.8 0 0 4908.37 0 0 -4908.37
0 0 61044.1 0 0 -61044.1 0 0 37662.8 0 0 -37662.8 0 0 4533.19 0 0 -4533.19
0 0 61095.8 0 0 -61095.8 0 0 38658.4 0 0 -38658.4 0 0 4212.87 0 0 -4212.87
0 0 61138.2 0 0 -61138.2 0 0 39272.7 0 0 -39272.7 0 0 3966.46 0 0 -3966.46
0 0 61174 0 0 -61174 0 0 39461.9 0 0 -39461.9 0 0 3797.42 0 0 -3797.42
0 0 61197 0 0 -61197 0 0 39252.6 0 0 -39252.6 0 0 3709.61 0 0 -3709.61
0 0 61207.9 0 0 -61207.9 0 0 38657.9 0 0 -38657.9 0 0 3705.16 0 0 -3705.16
0 0 61173.2 0 0 -61173.2 0 0 37689.1 0 0 -37689.1 0 0 3780.54 0 0 -3780.54
0 0 60936.7 0 0 -60936.7 0 0 36360.3 0 0 -36360.3 0 0 3926.55 0 0 -3926.55
0 0 60568.9 0 0 -60568.9 0 0 34724.1 0 0 -34724.1 0 0 4129.07 0 0 -4129.07
0 0 60157.1 0 0 -60157.1 0 0 32851.5 0 0 -32851.5 0 0 4372.74 0 0 -4372.74
0 0 59789.2 0 0 -59789.2 0 0 30824.1 0 0 -30824.1 0 0 4639.13 0 0 -4639.13
0 0 59554.5 0 0 -59554.5 0 0 28727.4 0 0 -28727.4 0 0 4906.92 0 0 -4906.92
0 0 59187.8 0 0 -59187.8 0 0 26686.7 0 0 -26686.7 0 0 5153.27 0 0 -5153.27
0 0 57294.1 0 0 -57294.1 0 0 25018.1 0 0 -25018.1 0 0 5344.76 0 0 -5344.76
0 0 55458.9 0 0 -55458.9 0 0 23505 0 0 -23505 0 0 5493.04 0 0 -5493.04
0 0 54046.7 0 0 -54046.7 0 0 22231.2 0 0 -22231.2 0 0 5566.27 0 0 -5566.27
0 0 53040.7 0 0 -53040.7 0 0 21188.2 0 0 -21188.2 0 0 5567.44 0 0 -5567.44
0 0 52376.4 0 0 -52376.4 0 0 20419.4 0 0 -20419.4 0 0 5489 0 0 -5489
0 0 52155.5 0 0 -52155.5 0 0 19943.6 0 0 -19943.6 0 0 5328.3 0 0 -5328.3
0 0 52386.2 0 0 -52386.2 0 0 19774.9 0 0 -19774.9 0 0 5085.55 0 0 -5085.55
0 0 53014.2 0 0 -53014.2 0 0 19908.2 0 0 -19908.2 0 0 4766.08 0 0 -4766.08
0 0 53893 0 0 -53893 0 0 20341.3 0 0 -20341.3 0 0 4379.25 0 0 -4379.25
0 0 54794.4 0 0 -54794.4 0 0 21080.2 0 0 -21080.2 0 0 3935.91 0 0 -3935.91
0 0 55651.2 0 0 -55651.2 0 0 22086.3 0 0 -22086.3 0 0 3451.81 0 0 -3451.81
0 0 56402.1 0 0 -56402.1 0 0 23302.6 0 0 -23302.6 0 0 2945.47 0 0 -2945.47
0 0 56970.6 0 0 -56970.6 0 0 24665.2 0 0 -24665.2 0 0 2438.06 0 0 -2438.06
0 0 57280.9 0 0 -57280.9 0 0 26103.7 0 0 -26103.7 0 0 1951.71 0 0 -1951.71
0 0 57284.9 0 0 -57284.9 0 0 27536.4 0 0 -27536.4 0 0 1508.64 0 0 -1508.64
0 0 56956.3 0 0 -56956.3 0 0 28877.1 0 0 -28877.1 0 0 1130.11 0 0 -1130.11
0 0 56448 0 0 -56448 0 0 29827.4 0 0 -29827.4 0 0 886.895 0 0 -886.895
0 0 55726 0 0 -55726 0 0 30625.4 0 0 -30625.4 0 0 706.085 0 0 -706.085
0 0 54797.4 0 0 -54797.4 0 0 31235.6 0 0 -31235.6 0 0 594.657 0 0 -594.657
0 0 53670.7 0 0 -53670.7 0 0 31627.9 0 0 -31627.9 0 0 557.604 0 0 -557.604
0 0 52356.7 0 0 -52356.7 0 0 31779.8 0 0 -31779.8 0 0 597.766 0 0 -597.766
0 0 50868 0 0 -50868 0 0 31676.5 0 0 -31676.5 0 0 715.749 0 0 -715.749
0 0 49216.3 0 0 -49216.3 0 0 31312.3 0 0 -31312.3 0 0 909.844 0 0 -909.844
0 0 47408.7 0 0 -47408.7 0 0 30690.6 0 0 -30690.6 0 0 1175.99 0 0 -1175.99
0 0 45445.8 0 0 -45445.8 0 0 29823.8 0 0 -29823.8 0 0 1507.79 0 0 -1507.79
0 0 43321.8 0 0 -43321.8 0 0 28733.4 0 0 -28733.4 0 0 1896.74 0 0 -1896.74
0 0 41026.1 0 0 -41026.1 0 0 27448.3 0 0 -27448.3 0 0 2332.45 0 0 -2332.45
0 0 38549.4 0 0 -38549.4 0 0 26002.6 0 0 -26002.6 0 0 2803.14 0 0 -2803.14
0 0 35891.5 0 0 -35891.5 0 0 24433 0 0 -24433 0 0 3295.94 0 0 -3295.94
0 0 33065.7 0 0 -33065.7 0 0 22777 0 0 -22777 0 0 3797.34 0 0 -3797.34
0 0 30100.6 0 0 -30100.6 0 0 21071 0 0 -21071 0 0 4293.52 0 0 -4293.52
0 0 27037.1 0 0 -27037.1 0 0 19349.6 0 0 -19349.6 0 0 4770.78 0 0 -4770.78
0 0 23920.3 0 0 -23920.3 0 0 17645.7 0 0 -17645.7 0 0 5215.8 0 0 -5215.8
0 0 20790.9 0 0 -20790.9 0 0 15990.2 0 0 -15990.2 0 0 5615.96 0 0 -5615.96
0 0 17682.1 0 0 -17682.1 0 0 14411.8 0 0 -14411.8 0 0 5959.63 0 0 -5959.63
0 0 14619.8 0 0 -14619.8 0 0 12936 0 0 -12936 0 0 6236.48 0 0 -6236.48
0 0 11626 0 0 -11626 0 0 11583.6 0 0 -11583.6 0 0 6437.74 0 0 -6437.74
0 0 8720.16 0 0 -8720.16 0 0 10369.8 0 0 -10369.8 0 0 6556.4 0 0 -6556.4
0 0 5918.2 0 0 -5918.2 0 0 9304.53 0 0 -9304.53 0 0 6587.44 0 0 -6587.44
0 0 3230.74 0 0 -3230.74 0 0 8391.45 0 0 -8391.45 0 0 6527.88 0 0 -6527.88
0 0 663.807 0 0 -663.807 0 0 7628.51 0 0 -7628.51 0 0 6376.81 0 0 -6376.81
0 0 -1385.84 0 0 1385.84 0 0 7068.32 0 0 -7068.32 0 0 6131.38 0 0 -6131.38
0 0 -3346.97 0 0 3346.97 0 0 6659.8 0 0 -6659.8 0 0 5797.3 0 0 -5797.3
0 0 -5210.97 0 0 5210.97 0 0 6342.39 0 0 -6342.39 0 0 5383.84 0 0 -5383.84
0 0 -6757.22 0 0 6757.22 0 0 6058.78 0 0 -6058.78 0 0 4897.17 0 0 -4897.17
0 0 -8031.74 0 0 8031.74 0 0 5789.96 0 0 -5789.96 0 0 4349.02 0 0 -4349.02
0 0 -9256.21 0 0 9256.21 0 0 5572.02 0 0 -5572.02 0 0 3741.19 0 0 -3741.19
0 0 -10413.1 0 0 10413.1 0 0 5342.08 0 0 -5342.08 0 0 3088.44 0 0 -3088.44
0 0 -11509.5 0 0 11509.5 0 0 5087.83 0 0 -5087.83 0 0 2399.22 0 0 -2399.22
0 0 -12568.7 0 0 12568.7 0 0 4783.07 0 0 -4783.07 0 0 1685.25 0 0 -1685.25
0 0 -13603.1 0 0 13603.1 0 0 4405.96 0 0 -4405.96 0 0 956.855 0 0 -956.855
0 0 -14618.2 0 0 14618.2 0 0 3927.27 0 0 -3927.27 0 0 225.342 0 0 -225.342
0 0 -15628.9 0 0 15628.9 0 0 3337.09 0 0 -3337.09 0 0 -429.899 0 0 429.899
0 0 -16652.3 0 0 16652.3 0 0 2623.73 0 0 -2623.73 0 0 -1060.55 0 0 1060.55
0 0 -17702.2 0 0 17702.2 0 0 1758.37 0 0 -1758.37 0 0 -1672.32 0 0 1672.32
0 0 -18800.9 0 0 18800.9 0 0 736.408 0 0 -736.408 0 0 -2255.68 0 0 2255.68
0 0 -19971.5 0 0 19971.5 0 0 -457.337 0 0 457.337 0 0 -2802.6 0 0 2802.6
0 0 -21238.5 0 0 21238.5 0 0 -1811.16 0 0 1811.16 0 0 -3310.6 0 0 3310.6
0 0 -22619.8 0 0 22619.8 0 0 -3306.97 0 0 3306.97 0 0 -3779.44 0 0 3779.44
0 0 -24129.3 0 0 24129.3 0 0 -4929.96 0 0 4929.96 0 0 -4207.89 0 0 4207.89
0 0 -25775.5 0 0 25775.5 0 0 -6666.66 0 0 6666.66 0 0 -4593.42 0 0 4593.42
0 0 -27558.2 0 0 27558.2 0 0 -8503.27 0 0 8503.27 0 0 -4934.24 0 0 4934.24
0 0 -29468.3 0 0 29468.3 0 0 -10421.3 0 0 10421.3 0 0 -5231.26 0 0 5231.26
0 0 -31490.9 0 0 31490.9 0 0 -12398.1 0 0 12398.1 0 0 -5487.54 0 0 5487.54
0 0 -33607.3 0 0 33607.3 0 0 -14410.4 0 0 14410.4 0 0 -5706.56 0 0 5706.56
0 0 -35796.9 0 0 35796.9 0 0 -16436.2 0 0 16436.2 0 0 -5891.15 0 0 5891.15
0 0 -38039.1 0 0 38039.1 0 0 -18453.4 0 0 18453.4 0 0 -6043.98 0 0 6043.98
0 0 -40315.1 0 0 40315.1 0 0 -20437.5 0 0 20437.5 0 0 -6168.67 0 0 6168.67
0 0 -42607.4 0 0 42607.4 0 0 -22363 0 0 22363 0 0 -6269.94 0 0 6269.94
0 0 -44898.4 0 0 44898.4 0 0 -24205.8 0 0 24205.8 0 0 -6352.8 0 0 6352.8
0 0 -47168.1 0 0 47168.1 0 0 -25944.9 0 0 25944.9 0 0 -6421.7 0 0 6421.7
0 0 -49393.7 0 0 49393.7 0 0 -27562.5 0 0 27562.5 0 0 -6480.35 0 0 6480.35
0 0 -51549.6 0 0 51549.6 0 0 -29043.5 0 0 29043.5 0 0 -6532.1 0 0 6532.1
0 0 -53608.3 0 0 53608.3 0 0 -30375.7 0 0 30375.7 0 0 -6580.26 0 0 6580.26
0 0 -55543.1 0 0 55543.1 0 0 -31549.9 0 0 31549.9 0 0 -6627.93 0 0 6627.93
0 0 -57328.9 0 0 57328.9 0 0 -32560 0 0 32560 0 0 -6677.6 0 0 6677.6
0 0 -58942.6 0 0 58942.6 0 0 -33403.2 0 0 33403.2 0 0 -6730.92 0 0 6730.92
0 0 -60191.1 0 0 60191.1 0 0 -34027.8 0 0 34027.8 0 0 -6791.89 0 0 6791.89
0 0 -60649.3 0 0 60649.3 0 0 -34321.3 0 0 34321.3 0 0 -6867.13 0 0 6867.13
0 0 -60831.4 0 0 60831.4 0 0 -34519.3 0 0 34519.3 0 0 -6941.6 0 0 6941.6
0 0 -60985.3 0 0 60985.3 0 0 -34554.3 0 0 34554.3 0 0 -7016.24 0 0 7016.24
0 0 -61083.9 0 0 61083.9 0 0 -34497.6 0 0 34497.6 0 0 -7093.45 0 0 7093.45
0 0 -61139.1 0 0 61139.1 0 0 -34402.8 0 0 34402.8 0 0 -7160.5 0 0 7160.5
0 0 -61173.4 0 0 61173.4 0 0 -34182.7 0 0 34182.7 0 0 -7224.11 0 0 7224.11
0 0 -61132.7 0 0 61132.7 0 0 -33874.2 0 0 33874.2 0 0 -7279.91 0 0 7279.91
0 0 -60888.5 0 0 60888.5 0 0 -33455.6 0 0 33455.6 0 0 -7328.36 0 0 7328.36
0 0 -60488.5 0 0 60488.5 0 0 -32920.2 0 0 32920.2 0 0 -7369.34 0 0 7369.34
0 0 -59980.2 0 0 59980.2 0 0 -32287.1 0 0 32287.1 0 0 -7398.16 0 0 7398.16
0 0 -59345.1 0 0 59345.1 0 0 -31572.4 0 0 31572.4 0 0 -7412.5 0 0 7412.5
0 0 -58612 0 0 58612 0 0 -30784.8 0 0 30784.8 0 0 -7408.48 0 0 7408.48
0 0 -57838.8 0 0 57838.8 0 0 -29927.1 0 0 29927.1 0 0 -7382.78 0 0 7382.78
0 0 -57052.2 0 0 57052.2 0 0 -29016.2 0 0 29016.2 0 0 -7332.5 0 0 7332.5
0 0 -56266.3 0 0 56266.3 0 0 -28071.3 0 0 28071.3 0 0 -7254.75 0 0 7254.75
0 0 -55509.7 0 0 55509.7 0 0 -27104.2 0 0 27104.2 0 0 -7146.94 0 0 7146.94
0 0 -54806.8 0 0 54806.8 0 0 -26125.8 0 0 26125.8 0 0 -7007.02 0 0 7007.02
0 0 -54164.7 0 0 54164.7 0 0 -25151.6 0 0 25151.6 0 0 -6833.5 0 0 6833.5
0 0 -53584.8 0 0 53584.8 0 0 -24198.8 0 0 24198.8 0 0 -6625.44 0 0 6625.44
0 0 -53072 0 0 53072 0 0 -23281.2 0 0 23281.2 0 0 -6382.48 0 0 6382.48
0 0 -52628.5 0 0 52628.5 0 0 -22410 0 0 22410 0 0 -6104.83 0 0 6104.83
0 0 -52252.6 0 0 52252.6 0 0 -21595 0 0 21595 0 0 -5793.38 0 0 5793.38
0 0 -51941.9 0 0 51941.9 0 0 -20844.9 0 0 20844.9 0 0 -5449.83 0 0 5449.83
0 0 -51683.8 0 0 51683.8 0 0 -20167.5 0 0 20167.5 0 0 -5076.74 0 0 5076.74
0 0 -51463.9 0 0 51463.9 0 0 -19567.4 0 0 19567.4 0 0 -4677.46 0 0 4677.46
0 0 -51273.5 0 0 51273.5 0 0 -19045.1 0 0 19045.1 0 0 -4256.11 0 0 4256.11
0 0 -51104.7 0 0 51104.7 0 0 -18598.8 0 0 18598.8 0 0 -3817.37 0 0 3817.37
0 0 -50954 0 0 50954 0 0 -18223.7 0 0 18223.7 0 0 -3366.57 0 0 3366.57
0 0 -50822.4 0 0 50822.4 0 0 -17912.4 0 0 17912.4 0 0 -2909.6 0 0 2909.6
0 0 -50714.2 0 0 50714.2 0 0 -17654.9 0 0 17654.9 0 0 -2452.82 0 0 2452.82
0 0 -50633.7 0 0 50633.7 0 0 -17439.8 0 0 17439.8 0 0 -2002.74 0 0 2002.74
0 0 -50580.4 0 0 50580.4 0 0 -17256 0 0 17256 0 0 -1565.84 0 0 1565.84
0 0 -50544.7 0 0 50544.7 0 0 -17093.6 0 0 17093.6 0 0 -1148.37 0 0 1148.37
0 0 -50506.8 0 0 50506.8 0 0 -16944.4 0 0 16944.4 0 0 -756.332 0 0 756.332
0 0 -50439.1 0 0 50439.1 0 0 -16801.6 0 0 16801.6 0 0 -395.325 0 0 395.325
0 0 -50311.5 0 0 50311.5 0 0 -16659.1 0 0 16659.1 0 0 -70.4778 0 0 70.4778
0 0 -50092.6 0 0 50092.6 0 0 -16519.1 0 0 16519.1 0 0 181.696 0 0 -181.696
0 0 -49753.9 0 0 49753.9 0 0 -16374.7 0 0 16374.7 0 0 392.093 0 0 -392.093
0 0 -49266.4 0 0 49266.4 0 0 -16215.6 0 0 16215.6 0 0 561.965 0 0 -561.965
0 0 -48598.2 0 0 48598.2 0 0 -16040.2 0 0 16040.2 0 0 688.156 0 0 -688.156
0 0 -47719.7 0 0 47719.7 0 0 -15843.8 0 0 15843.8 0 0 768.535 0 0 -768.535
0 0 -46600.8 0 0 46600.8 0 0 -15627.9 0 0 15627.9 0 0 803.353 0 0 -803.353
0 0 -45215.3 0 0 45215.3 0 0 -15391.7 0 0 15391.7 0 0 790.6 0 0 -790.6
0 0 -43545.1 0 0 43545.1 0 0 -15133.4 0 0 15133.4 0 0 727.64 0 0 -727.64
0 0 -41587.5 0 0 41587.5 0 0 -14847.1 0 0 14847.1 0 0 614.973 0 0 -614.973
0 0 -39354.6 0 0 39354.6 0 0 -14526.3 0 0 14526.3 0 0 454.104 0 0 -454.104
0 0 -36868.3 0 0 36868.3 0 0 -14163.8 0 0 14163.8 0 0 247.601 0 0 -247.601
0 0 -34155.3 0 0 34155.3 0 0 -13753.4 0 0 13753.4 0 0 -3.73393 0 0 3.73393
0 0 -31246.4 0 0 31246.4 0 0 -13285.7 0 0 13285.7 0 0 -287.656 0 0 287.656
0 0 -28173.5 0 0 28173.5 0 0 -12756.3 0 0 12756.3 0 0 -605.154 0 0 605.154
0 0 -24971.4 0 0 24971.4 0 0 -12160 0 0 12160 0 0 -950.658 0 0 950.658
0 0 -21677.8 0 0 21677.8 0 0 -11494.1 0 0 11494.1 0 0 -1317.65 0 0 1317.65
0 0 -18333.8 0 0 18333.8 0 0 -10757.3 0 0 10757.3 0 0 -1699.34 0 0 1699.34
0 0 -14983 0 0 14983 0 0 -9949.59 0 0 9949.59 0 0 -2088.68 0 0 2088.68
0 0 -11667.9 0 0 11667.9 0 0 -9073.32 0 0 9073.32 0 0 -2478.25 0 0 2478.25
0 0 -8423.62 0 0 8423.62 0 0 -8134.34 0 0 8134.34 0 0 -2860.18 0 0 2860.18
0 0 -5275.97 0 0 5275.97 0 0 -7141.98 0 0 7141.98 0 0 -3226.2 0 0 3226.2
0 0 -2243.74 0 0 2243.74 0 0 -6108.02 0 0 6108.02 0 0 -3568.02 0 0 3568.02
0 0 357.789 0 0 -357.789 0 0 -5055.33 0 0 5055.33 0 0 -3877.01 0 0 3877.01
0 0 2453.61 0 0 -2453.61 0 0 -4106 0 0 4106 0 0 -4136.94 0 0 4136.94
0 0 4392.16 0 0 -4392.16 0 0 -3134.42 0 0 3134.42 0 0 -4352.58 0 0 4352.58
0 0 6203.83 0 0 -6203.83 0 0 -2159.29 0 0 2159.29 0 0 -4519 0 0 4519
0 0 7888.42 0 0 -7888.42 0 0 -1208.6 0 0 1208.6 0 0 -4624.9 0 0 4624.9
0 0 9509.69 0 0 -9509.69 0 0 -304.144 0 0 304.144 0 0 -4670.26 0 0 4670.26
0 0 11036.7 0 0 -11036.7 0 0 552.079 0 0 -552.079 0 0 -4648.8 0 0 4648.8
0 0 12444.6 0 0 -12444.6 0 0 1358.05 0 0 -1358.05 0 0 -4560.4 0 0 4560.4
0 0 13755.2 0 0 -13755.2 0 0 2102.48 0 0 -2102.48 0 0 -4402.88 0 0 4402.88
0 0 14987.8 0 0 -14987.8 0 0 2780.69 0 0 -2780.69 0 0 -4176.65 0 0 4176.65
0 0 16137.6 0 0 -16137.6 0 0 3401.29 0 0 -3401.29 0 0 -3883.84 0 0 3883.84
0 0 17207.1 0 0 -17207.1 0 0 3972.87 0 0 -3972.87 0 0 -3527.57 0 0 3527.57
0 0 18213.7 0 0 -18213.7 0 0 4496.77 0 0 -4496.77 0 0 -3111.92 0 0 3111.92
0 0 19170.5 0 0 -19170.5 0 0 4980 0 0 -4980 0 0 -2642.21 0 0 2642.21
0 0 20083.5 0 0 -20083.5 0 0 5436.68 0 0 -5436.68 0 0 -2124.98 0 0 2124.98
0 0 20964.6 0 0 -20964.6 0 0 5881.66 0 0 -5881.66 0 0 -1567.56 0 0 1567.56
0 0 21831.4 0 0 -21831.4 0 0 6328.06 0 0 -6328.06 0 0 -977.778 0 0 977.778
0 0 22700.5 0 0 -22700.5 0 0 6789.26 0 0 -6789.26 0 0 -363.922 0 0 363.922
0 0 23589.3 0 0 -23589.3 0 0 7276.2 0 0 -7276.2 0 0 215.207 0 0 -215.207
0 0 24520.7 0 0 -24520.7 0 0 7781.1 0 0 -7781.1 0 0 776.482 0 0 -776.482
0 0 25508.1 0 0 -25508.1 0 0 8345.53 0 0 -8345.53 0 0 1332.31 0 0 -1332.31
0 0 26566.9 0 0 -26566.9 0 0 8983.53 0 0 -8983.53 0 0 1881.56 0 0 -1881.56
0 0 27708.8 0 0 -27708.8 0 0 9708.75 0 0 -9708.75 0 0 2414.36 0 0 -2414.36
0 0 28937 0 0 -28937 0 0 10532.7 0 0 -10532.7 0 0 2925.26 0 0 -2925.26
0 0 30250.9 0 0 -30250.9 0 0 11461.3 0 0 -11461.3 0 0 3410.81 0 0 -3410.81
0 0 31643.9 0 0 -31643.9 0 0 12504.7 0 0 -12504.7 0 0 3867.05 0 0 -3867.05
0 0 33106 0 0 -33106 0 0 13670 0 0 -13670 0 0 4289.41 0 0 -4289.41
0 0 34625 0 0 -34625 0 0 14960 0 0 -14960 0 0 4673.71 0 0 -4673.71
0 0 36189 0 0 -36189 0 0 16371.1 0 0 -16371.1 0 0 5017.78 0 0 -5017.78
0 0 37785.8 0 0 -37785.8 0 0 17894.9 0 0 -17894.9 0 0 5321.54 0 0 -5321.54
0 0 39403.8 0 0 -39403.8 0 0 19519.7 0 0 -19519.7 0 0 5586.03 0 0 -5586.03
0 0 41030.4 0 0 -41030.4 0 0 21230.2 0 0 -21230.2 0 0 5812.56 0 0 -5812.56
0 0 34386.1 0 0 -34386.1 0 0 21541.3 0 0 -21541.3 0 0 6088.12 0 0 -6088.12
0 0 38162.3 0 0 -38162.3 0 0 18537.7 0 0 -18537.7 0 0 6552.26 0 0 -6552.26
0 0 41170.3 0 0 -41170.3 0 0 19866.7 0 0 -19866.7 0 0 6601.66 0 0 -6601.66
0 0 38934.3 0 0 -38934.3 0 0 23316.1 0 0 -23316.1 0 0 6570.17 0 0 -6570.17
0 0 38600.9 0 0 -38600.9 0 0 26799.8 0 0 -26799.8 0 0 6446.94 0 0 -6446.94
0 0 41911.8 0 0 -41911.8 0 0 28019 0 0 -28019 0 0 6428.17 0 0 -6428.17
0 0 44590.8 0 0 -44590.8 0 0 28922.5 0 0 -28922.5 0 0 6393.45 0 0 -6393.45
0 0 45345.2 0 0 -45345.2 0 0 31114.6 0 0 -31114.6 0 0 6226.4 0 0 -6226.4
0 0 45349.6 0 0 -45349.6 0 0 33740.8 0 0 -33740.8 0 0 6017.43 0 0 -6017.43
0 0 46577.9 0 0 -46577.9 0 0 35474.5 0 0 -35474.5 0 0 5844.5 0 0 -5844.5
0 0 47891.6 0 0 -47891.6 0 0 36528.9 0 0 -36528.9 0 0 5706.8 0 0 -5706.8
0 0 49076.8 0 0 -49076.8 0 0 37398.2 0 0 -37398.2 0 0 5575.37 0 0 -5575.37
0 0 49877.9 0 0 -49877.9 0 0 38647.1 0 0 -38647.1 0 0 5406.02 0 0 -5406.02
0 0 50436.1 0 0 -50436.1 0 0 39738.7 0 0 -39738.7 0 0 5252.25 0 0 -5252.25
0 0 51237.8 0 0 -51237.8 0 0 40281.9 0 0 -40281.9 0 0 5143.21 0 0 -5143.21
0 0 52256.4 0 0 -52256.4 0 0 40308.8 0 0 -40308.8 0 0 5074.02 0 0 -5074.02
0 0 53153.5 0 0 -53153.5 0 0 40161.1 0 0 -40161.1 0 0 5024.54 0 0 -5024.54
0 0 53783.8 0 0 -53783.8 0 0 39988.2 0 0 -39988.2 0 0 4981.7 0 0 -4981.7
0 0 54316.2 0 0 -54316.2 0 0 39591.8 0 0 -39591.8 0 0 4962.23 0 0 -4962.23
0 0 54931.7 0 0 -54931.7 0 0 38825.7 0 0 -38825.7 0 0 4974.11 0 0 -4974.11
0 0 55574.5 0 0 -55574.5 0 0 37787.3 0 0 -37787.3 0 0 5007.91 0 0 -5007.91
0 0 56105.4 0 0 -56105.4 0 0 36676.8 0 0 -36676.8 0 0 5045.71 0 0 -5045.71
0 0 56194.7 0 0 -56194.7 0 0 35590.8 0 0 -35590.8 0 0 5077.6 0 0 -5077.6
0 0 56266.4 0 0 -56266.4 0 0 34341.3 0 0 -34341.3 0 0 5114.3 0 0 -5114.3
0 0 56442.2 0 0 -56442.2 0 0 32977.7 0 0 -32977.7 0 0 5144.63 0 0 -5144.63
0 0 56558.1 0 0 -56558.1 0 0 31600.3 0 0 -31600.3 0 0 5160.52 0 0 -5160.52
0 0 56540.8 0 0 -56540.8 0 0 30276 0 0 -30276 0 0 5153.58 0 0 -5153.58
0 0 56548.1 0 0 -56548.1 0 0 28977.1 0 0 -28977.1 0 0 5120.77 0 0 -5120.77
0 0 56623.9 0 0 -56623.9 0 0 27722.4 0 0 -27722.4 0 0 5057.44 0 0 -5057.44
0 0 56701.4 0 0 -56701.4 0 0 26582.1 0 0 -26582.1 0 0 4956.85 0 0 -4956.85
0 0 56766.6 0 0 -56766.6 0 0 25593.2 0 0 -25593.2 0 0 4815.59 0 0 -4815.59
0 0 56878.1 0 0 -56878.1 0 0 24752.6 0 0 -24752.6 0 0 4632.83 0 0 -4632.83
0 0 56713.3 0 0 -56713.3 0 0 24140.6 0 0 -24140.6 0 0 4404.02 0 0 -4404.02
0 0 56673.7 0 0 -56673.7 0 0 23689.6 0 0 -23689.6 0 0 4135.3 0 0 -4135.3
0 0 56813.4 0 0 -56813.4 0 0 23414.2 0 0 -23414.2 0 0 3825.89 0 0 -3825.89
0 0 57070.2 0 0 -57070.2 0 0 23284.9 0 0 -23284.9 0 0 3483.91 0 0 -3483.91
0 0 57312.9 0 0 -57312.9 0 0 23339.2 0 0 -23339.2 0 0 3110.9 0 0 -3110.9
0 0 57517.3 0 0 -57517.3 0 0 23573 0 0 -23573 0 0 2713.32 0 0 -2713.32
0 0 57682 0 0 -57682 0 0 23964.6 0 0 -23964.6 0 0 2297.97 0 0 -2297.97
0 0 57760.9 0 0 -57760.9 0 0 24454.1 0 0 -24454.1 0 0 1876.01 0 0 -1876.01
0 0 57864.6 0 0 -57864.6 0 0 24987.6 0 0 -24987.6 0 0 1458.79 0 0 -1458.79
0 0 57946.5 0 0 -57946.5 0 0 25601.8 0 0 -25601.8 0 0 1050.04 0 0 -1050.04
0 0 57964.5 0 0 -57964.5 0 0 26291.4 0 0 -26291.4 0 0 658.802 0 0 -658.802
0 0 57935.6 0 0 -57935.6 0 0 27014.9 0 0 -27014.9 0 0 294.196 0 0 -294.196
0 0 57895.1 0 0 -57895.1 0 0 27704.5 0 0 -27704.5 0 0 -25.95 0 0 25.95
0 0 57835.9 0 0 -57835.9 0 0 28338.7 0 0 -28338.7 0 0 -277.708 0 0 277.708
0 0 57733.5 0 0 -57733.5 0 0 28907.2 0 0 -28907.2 0 0 -485.386 0 0 485.386
0 0 57562.9 0 0 -57562.9 0 0 29400.2 0 0 -29400.2 0 0 -642.495 0 0 642.495
0 0 57294.6 0 0 -57294.6 0 0 29790.2 0 0 -29790.2 0 0 -742.469 0 0 742.469
0 0 56940.9 0 0 -56940.9 0 0 30035.9 0 0 -30035.9 0 0 -780.474 0 0 780.474
0 0 56476.5 0 0 -56476.5 0 0 30137.6 0 0 -30137.6 0 0 -752.252 0 0 752.252
0 0 55847.7 0 0 -55847.7 0 0 30104.6 0 0 -30104.6 0 0 -656.446 0 0 656.446
0 0 55060.9 0 0 -55060.9 0 0 29937.5 0 0 -29937.5 0 0 -494.021 0 0 494.021
0 0 54170.9 0 0 -54170.9 0 0 29638.3 0 0 -29638.3 0 0 -267.675 0 0 267.675
0 0 53238.8 0 0 -53238.8 0 0 29243.9 0 0 -29243.9 0 0 10.4245 0 0 -10.4245
0 0 52171.7 0 0 -52171.7 0 0 28816 0 0 -28816 0 0 328.517 0 0 -328.517
0 0 50945 0 0 -50945 0 0 28332.5 0 0 -28332.5 0 0 689.398 0 0 -689.398
0 0 49674 0 0 -49674 0 0 27738.8 0 0 -27738.8 0 0 1090.61 0 0 -1090.61
0 0 48390.9 0 0 -48390.9 0 0 27040.6 0 0 -27040.6 0 0 1524.01 0 0 -1524.01
0 0 47055.8 0 0 -47055.8 0 0 26294.6 0 0 -26294.6 0 0 1979.18 0 0 -1979.18
0 0 45666.9 0 0 -45666.9 0 0 25541.6 0 0 -25541.6 0 0 2445.73 0 0 -2445.73
0 0 44278.4 0 0 -44278.4 0 0 24783 0 0 -24783 0 0 2915.59 0 0 -2915.59
0 0 42918.2 0 0 -42918.2 0 0 24014.8 0 0 -24014.8 0 0 3380.68 0 0 -3380.68
0 0 41599.4 0 0 -41599.4 0 0 23256.1 0 0 -23256.1 0 0 3831.84 0 0 -3831.84
0 0 40319.1 0 0 -40319.1 0 0 22545.8 0 0 -22545.8 0 0 4258.71 0 0 -4258.71
0 0 39076.6 0 0 -39076.6 0 0 21906.6 0 0 -21906.6 0 0 4652.93 0 0 -4652.93
0 0 37906.6 0 0 -37906.6 0 0 21340 0 0 -21340 0 0 5007.86 0 0 -5007.86
0 0 36841.6 0 0 -36841.6 0 0 20847.4 0 0 -20847.4 0 0 5317.39 0 0 -5317.39
0 0 35892.3 0 0 -35892.3 0 0 20440.9 0 0 -20440.9 0 0 5575.6 0 0 -5575.6
0 0 35060.7 0 0 -35060.7 0 0 20136.5 0 0 -20136.5 0 0 5777.32 0 0 -5777.32
0 0 34356 0 0 -34356 0 0 19938.3 0 0 -19938.3 0 0 5919.24 0 0 -5919.24
0 0 33790.6 0 0 -33790.6 0 0 19841.4 0 0 -19841.4 0 0 5999.68 0 0 -5999.68
0 0 33362.9 0 0 -33362.9 0 0 19844 0 0 -19844 0 0 6017.69 0 0 -6017.69
0 0 33053 0 0 -33053 0 0 19948.8 0 0 -19948.8 0 0 5971.66 0 0 -5971.66
0 0 32833.8 0 0 -32833.8 0 0 20157.9 0 0 -20157.9 0 0 5862.6 0 0 -5862.6
0 0 32697.6 0 0 -32697.6 0 0 20465.4 0 0 -20465.4 0 0 5693.35 0 0 -5693.35
0 0 32614 0 0 -32614 0 0 20871 0 0 -20871 0 0 5467.45 0 0 -5467.45
0 0 32531.5 0 0 -32531.5 0 0 21363.5 0 0 -21363.5 0 0 5190.22 0 0 -5190.22
0 0 32422.7 0 0 -32422.7 0 0 21920.1 0 0 -21920.1 0 0 4868.87 0 0 -4868.87
0 0 32257.6 0 0 -32257.6 0 0 22516.4 0 0 -22516.4 0 0 4511.05 0 0 -4511.05
0 0 31992.6 0 0 -31992.6 0 0 23128.5 0 0 -23128.5 0 0 4125.49 0 0 -4125.49
0 0 31594.4 0 0 -31594.4 0 0 23728.7 0 0 -23728.7 0 0 3721.28 0 0 -3721.28
0 0 31057.7 0 0 -31057.7 0 0 24281.5 0 0 -24281.5 0 0 3308.22 0 0 -3308.22
0 0 30410.3 0 0 -30410.3 0 0 24738.2 0 0 -24738.2 0 0 2896.88 0 0 -2896.88
0 0 29561.9 0 0 -29561.9 0 0 25110.5 0 0 -25110.5 0 0 2493.33 0 0 -2493.33
0 0 28542 0 0 -28542 0 0 25334.9 0 0 -25334.9 0 0 2108.05 0 0 -2108.05
0 0 27377.8 0 0 -27377.8 0 0 25394.3 0 0 -25394.3 0 0 1749.61 0 0 -1749.61
0 0 26172.7 0 0 -26172.7 0 0 25306.9 0 0 -25306.9 0 0 1420.45 0 0 -1420.45
0 0 24738.3 0 0 -24738.3 0 0 25107.5 0 0 -25107.5 0 0 1123.13 0 0 -1123.13
0 0 23137.9 0 0 -23137.9 0 0 24711.7 0 0 -24711.7 0 0 868.161 0 0 -868.161
0 0 21451.6 0 0 -21451.6 0 0 24075.3 0 0 -24075.3 0 0 659.724 0 0 -659.724
0 0 19657.6 0 0 -19657.6 0 0 23193.2 0 0 -23193.2 0 0 500.298 0 0 -500.298
0 0 17734 0 0 -17734 0 0 22111.3 0 0 -22111.3 0 0 386.947 0 0 -386.947
0 0 15774.6 0 0 -15774.6 0 0 20825.9 0 0 -20825.9 0 0 319.056 0 0 -319.056
0 0 13671.7 0 0 -13671.7 0 0 19334.7 0 0 -19334.7 0 0 294.655 0 0 -294.655
0 0 11479.4 0 0 -11479.4 0 0 17636.9 0 0 -17636.9 0 0 310.872 0 0 -310.872
0 0 9190.68 0 0 -9190.68 0 0 15771.7 0 0 -15771.7 0 0 360.319 0 0 -360.319
0 0 6799.66 0 0 -6799.66 0 0 13780.7 0 0 -13780.7 0 0 435.683 0 0 -435.683
0 0 4339.83 0 0 -4339.83 0 0 11686.9 0 0 -11686.9 0 0 529.53 0 0 -529.53
0 0 1875.28 0 0 -1875.28 0 0 9499.56 0 0 -9499.56 0 0 635.072 0 0 -635.072
0 0 -355.716 0 0 355.716 0 0 7252.16 0 0 -7252.16 0 0 743.373 0 0 -743.373
0 0 -2351.94 0 0 2351.94 0 0 5042.74 0 0 -5042.74 0 0 840.272 0 0 -840.272
0 0 -4288.11 0 0 4288.11 0 0 2862.65 0 0 -2862.65 0 0 921.384 0 0 -921.384
0 0 -6139.61 0 0 6139.61 0 0 727.538 0 0 -727.538 0 0 977.892 0 0 -977.892
0 0 -7898.41 0 0 7898.41 0 0 -1355.52 0 0 1355.52 0 0 1002 0 0 -1002
0 0 -9565.91 0 0 9565.91 0 0 -3343.17 0 0 3343.17 0 0 987.669 0 0 -987.669
0 0 -11130.1 0 0 11130.1 0 0 -5190.85 0 0 5190.85 0 0 928.022 0 0 -928.022
0 0 -12592.9 0 0 12592.9 0 0 -6871.71 0 0 6871.71 0 0 818.357 0 0 -818.357
0 0 -14463.6 0 0 14463.6 0 0 -8453.17 0 0 8453.17 0 0 661.026 0 0 -661.026
0 0 -15676.1 0 0 15676.1 0 0 -10080.7 0 0 10080.7 0 0 467.439 0 0 -467.439
0 0 -16875.9 0 0 16875.9 0 0 -11322.8 0 0 11322.8 0 0 196.547 0 0 -196.547
0 0 -18211.9 0 0 18211.9 0 0 -12259.2 0 0 12259.2 0 0 -109.194 0 0 109.194
0 0 -19264.2 0 0 19264.2 0 0 -12940.5 0 0 12940.5 0 0 -456.377 0 0 456.377
0 0 -20026.9 0 0 20026.9 0 0 -13419.1 0 0 13419.1 0 0 -845.43 0 0 845.43
0 0 -20777.4 0 0 20777.4 0 0 -13609.9 0 0 13609.9 0 0 -1280.58 0 0 1280.58
0 0 -21479.3 0 0 21479.3 0 0 -13550.9 0 0 13550.9 0 0 -1751.54 0 0 1751.54
0 0 -22083.2 0 0 22083.2 0 0 -13294.3 0 0 13294.3 0 0 -2248.72 0 0 2248.72
0 0 -22612.4 0 0 22612.4 0 0 -12869.5 0 0 12869.5 0 0 -2765.36 0 0 2765.36
0 0 -23196.8 0 0 23196.8 0 0 -12285.6 0 0 12285.6 0 0 -3290.81 0 0 3290.81
0 0 -23848.4 0 0 23848.4 0 0 -11584.3 0 0 11584.3 0 0 -3815.14 0 0 3815.14
0 0 -24547.2 0 0 24547.2 0 0 -10826.1 0 0 10826.1 0 0 -4324.79 0 0 4324.79
0 0 -25332.9 0 0 25332.9 0 0 -10051.7 0 0 10051.7 0 0 -4808.78 0 0 4808.78
0 0 -26249.3 0 0 26249.3 0 0 -9302.06 0 0 9302.06 0 0 -5256.24 0 0 5256.24
0 0 -27298.2 0 0 27298.2 0 0 -8628.38 0 0 8628.38 0 0 -5656.79 0 0 5656.79
0 0 -28476.3 0 0 28476.3 0 0 -8080.01 0 0 8080.01 0 0 -6000.68 0 0 6000.68
0 0 -29798.9 0 0 29798.9 0 0 -7695.02 0 0 7695.02 0 0 -6279.47 0 0 6279.47
0 0 -31272.9 0 0 31272.9 0 0 -7508.12 0 0 7508.12 0 0 -6486.24 0 0 6486.24
0 0 -32887.2 0 0 32887.2 0 0 -7552.25 0 0 7552.25 0 0 -6615.99 0 0 6615.99
0 0 -34630.4 0 0 34630.4 0 0 -7850.38 0 0 7850.38 0 0 -6665.98 0 0 6665.98
0 0 -36498.5 0 0 36498.5 0 0 -8413.03 0 0 8413.03 0 0 -6629.37 0 0 6629.37
0 0 -38487.8 0 0 38487.8 0 0 -9239.2 0 0 9239.2 0 0 -6503.96 0 0 6503.96
0 0 -40592.8 0 0 40592.8 0 0 -10322.4 0 0 10322.4 0 0 -6294.11 0 0 6294.11
0 0 -42810.6 0 0 42810.6 0 0 -11646.3 0 0 11646.3 0 0 -6006.94 0 0 6006.94
0 0 -45136.2 0 0 45136.2 0 0 -13186.2 0 0 13186.2 0 0 -5651.41 0 0 5651.41
0 0 -47557.6 0 0 47557.6 0 0 -14911.7 0 0 14911.7 0 0 -5238.54 0 0 5238.54
0 0 -50042.5 0 0 50042.5 0 0 -16790.3 0 0 16790.3 0 0 -4781.08 0 0 4781.08
0 0 -52562.4 0 0 52562.4 0 0 -18782.9 0 0 18782.9 0 0 -4293.18 0 0 4293.18
0 0 -55100.6 0 0 55100.6 0 0 -20844.4 0 0 20844.4 0 0 -3789.99 0 0 3789.99
0 0 -57634 0 0 57634 0 0 -22929.5 0 0 22929.5 0 0 -3286.85 0 0 3286.85
0 0 -60132.7 0 0 60132.7 0 0 -24994 0 0 24994 0 0 -2799.03 0 0 2799.03
0 0 -61355.5 0 0 61355.5 0 0 -26892.7 0 0 26892.7 0 0 -2348.03 0 0 2348.03
0 0 -61758.7 0 0 61758.7 0 0 -28297.3 0 0 28297.3 0 0 -1969.76 0 0 1969.76
0 0 -62152.5 0 0 62152.5 0 0 -29643.5 0 0 29643.5 0 0 -1640.86 0 0 1640.86
0 0 -62489.2 0 0 62489.2 0 0 -30993.7 0 0 30993.7 0 0 -1355.71 0 0 1355.71
0 0 -62784.1 0 0 62784.1 0 0 -32118.9 0 0 32118.9 0 0 -1153.44 0 0 1153.44
0 0 -63059.7 0 0 63059.7 0 0 -33086.9 0 0 33086.9 0 0 -1020.95 0 0 1020.95
0 0 -63305.5 0 0 63305.5 0 0 -33864.2 0 0 33864.2 0 0 -969.816 0 0 969.816
0 0 -63501.1 0 0 63501.1 0 0 -34496.5 0 0 34496.5 0 0 -997.91 0 0 997.91
0 0 -63653.7 0 0 63653.7 0 0 -34949.1 0 0 34949.1 0 0 -1106.84 0 0 1106.84
0 0 -63779 0 0 63779 0 0 -35172.1 0 0 35172.1 0 0 -1300.24 0 0 1300.24
0 0 -63877 0 0 63877 0 0 -35193.1 0 0 35193.1 0 0 -1573.22 0 0 1573.22
0 0 -63944.4 0 0 63944.4 0 0 -35036.8 0 0 35036.8 0 0 -1920.11 0 0 1920.11
0 0 -63987.1 0 0 63987.1 0 0 -34705.8 0 0 34705.8 0 0 -2334.48 0 0 2334.48
0 0 -64013.6 0 0 64013.6 0 0 -34206 0 0 34206 0 0 -2808.28 0 0 2808.28
0 0 -64024.2 0 0 64024.2 0 0 -33566.8 0 0 33566.8 0 0 -3331.58 0 0 3331.58
0 0 -63670.9 0 0 63670.9 0 0 -32863.8 0 0 32863.8 0 0 -3891.06 0 0 3891.06
0 0 -63188.3 0 0 63188.3 0 0 -32083.7 0 0 32083.7 0 0 -4477.56 0 0 4477.56
0 0 -62646 0 0 62646 0 0 -31253.2 0 0 31253.2 0 0 -5077.4 0 0 5077.4
0 0 -62031.1 0 0 62031.1 0 0 -30423.4 0 0 30423.4 0 0 -5677.22 0 0 5677.22
0 0 -60704.7 0 0 60704.7 0 0 -29715.2 0 0 29715.2 0 0 -6260.64 0 0 6260.64
0 0 -59299.2 0 0 59299.2 0 0 -29068.9 0 0 29068.9 0 0 -6785.71 0 0 6785.71
0 0 -57949.5 0 0 57949.5 0 0 -28468.4 0 0 28468.4 0 0 -7256.14 0 0 7256.14
0 0 -56754.7 0 0 56754.7 0 0 -27974.5 0 0 27974.5 0 0 -7665.17 0 0 7665.17
0 0 -55779.6 0 0 55779.6 0 0 -27501.4 0 0 27501.4 0 0 -7727.82 0 0 7727.82
0 0 -55000.1 0 0 55000.1 0 0 -27108.7 0 0 27108.7 0 0 -7747.72 0 0 7747.72
0 0 -54423.3 0 0 54423.3 0 0 -26880.2 0 0 26880.2 0 0 -7764.99 0 0 7764.99
0 0 -53955.7 0 0 53955.7 0 0 -26812.2 0 0 26812.2 0 0 -7778.82 0 0 7778.82
0 0 -53544.7 0 0 53544.7 0 0 -26957.5 0 0 26957.5 0 0 -7788.29 0 0 7788.29
0 0 -53206.8 0 0 53206.8 0 0 -27281.1 0 0 27281.1 0 0 -7793.74 0 0 7793.74
0 0 -52953.4 0 0 52953.4 0 0 -27755.1 0 0 27755.1 0 0 -7795.97 0 0 7795.97
0 0 -52785.7 0 0 52785.7 0 0 -28366.5 0 0 28366.5 0 0 -7770.2 0 0 7770.2
0 0 -52700 0 0 52700 0 0 -29085.6 0 0 29085.6 0 0 -7687.23 0 0 7687.23
0 0 -52684.5 0 0 52684.5 0 0 -29894.9 0 0 29894.9 0 0 -7544.25 0 0 7544.25
0 0 -52727.8 0 0 52727.8 0 0 -30760.7 0 0 30760.7 0 0 -7349.03 0 0 7349.03
0 0 -52815.4 0 0 52815.4 0 0 -31650.3 0 0 31650.3 0 0 -7111.36 0 0 7111.36
0 0 -52928.6 0 0 52928.6 0 0 -32535.1 0 0 32535.1 0 0 -6841.25 0 0 6841.25
0 0 -53049.5 0 0 53049.5 0 0 -33385.2 0 0 33385.2 0 0 -6546.61 0 0 6546.61
0 0 -53157.7 0 0 53157.7 0 0 -34169.2 0 0 34169.2 0 0 -6234.11 0 0 6234.11
0 0 -53229.4 0 0 53229.4 0 0 -34856.4 0 0 34856.4 0 0 -5911.35 0 0 5911.35
0 0 -53241.5 0 0 53241.5 0 0 -35418.9 0 0 35418.9 0 0 -5587.3 0 0 5587.3
0 0 -53170.2 0 0 53170.2 0 0 -35833.5 0 0 35833.5 0 0 -5270.96 0 0 5270.96
0 0 -52994.2 0 0 52994.2 0 0 -36079.8 0 0 36079.8 0 0 -4969.63 0 0 4969.63
0 0 -52695.3 0 0 52695.3 0 0 -36140.9 0 0 36140.9 0 0 -4688.59 0 0 4688.59
0 0 -52257.9 0 0 52257.9 0 0 -36005.1 0 0 36005.1 0 0 -4431.84 0 0 4431.84
0 0 -51673.1 0 0 51673.1 0 0 -35665 0 0 35665 0 0 -4202.93 0 0 4202.93
0 0 -50937.4 0 0 50937.4 0 0 -35118.4 0 0 35118.4 0 0 -4004.76 0 0 4004.76
0 0 -50052.7 0 0 50052.7 0 0 -34367.9 0 0 34367.9 0 0 -3838.82 0 0 3838.82
0 0 -49026.5 0 0 49026.5 0 0 -33420.3 0 0 33420.3 0 0 -3704.7 0 0 3704.7
0 0 -47868.2 0 0 47868.2 0 0 -32288.5 0 0 32288.5 0 0 -3600.31 0 0 3600.31
0 0 -46588.4 0 0 46588.4 0 0 -30990.3 0 0 30990.3 0 0 -3522.51 0 0 3522.51
0 0 -45195.4 0 0 45195.4 0 0 -29548.2 0 0 29548.2 0 0 -3467.45 0 0 3467.45
0 0 -43694.4 0 0 43694.4 0 0 -27988.8 0 0 27988.8 0 0 -3430.51 0 0 3430.51
0 0 -42089.5 0 0 42089.5 0 0 -26341.3 0 0 26341.3 0 0 -3406.13 0 0 3406.13
0 0 -40384.7 0 0 40384.7 0 0 -24637.4 0 0 24637.4 0 0 -3388 0 0 3388
0 0 -38588.5 0 0 38588.5 0 0 -22908.7 0 0 22908.7 0 0 -3369.53 0 0 3369.53
0 0 -36711.7 0 0 36711.7 0 0 -21186.4 0 0 21186.4 0 0 -3344.33 0 0 3344.33
0 0 -34766.3 0 0 34766.3 0 0 -19500.1 0 0 19500.1 0 0 -3306.41 0 0 3306.41
0 0 -32766.7 0 0 32766.7 0 0 -17876.5 0 0 17876.5 0 0 -3250.26 0 0 3250.26
0 0 -30725.2 0 0 30725.2 0 0 -16340 0 0 16340 0 0 -3170.88 0 0 3170.88
0 0 -28652.4 0 0 28652.4 0 0 -14911.2 0 0 14911.2 0 0 -3064.01 0 0 3064.01
0 0 -26556.4 0 0 26556.4 0 0 -13606.6 0 0 13606.6 0 0 -2926.46 0 0 2926.46
0 0 -24443 0 0 24443 0 0 -12438.1 0 0 12438.1 0 0 -2756.21 0 0 2756.21
0 0 -22320.3 0 0 22320.3 0 0 -11411.7 0 0 11411.7 0 0 -2552.49 0 0 2552.49
0 0 -20200.8 0 0 20200.8 0 0 -10527.8 0 0 10527.8 0 0 -2315.76 0 0 2315.76
0 0 -18104.7 0 0 18104.7 0 0 -9780.67 0 0 9780.67 0 0 -2047.61 0 0 2047.61
0 0 -16058.3 0 0 16058.3 0 0 -9159 0 0 9159 0 0 -1750.79 0 0 1750.79
0 0 -14089.2 0 0 14089.2 0 0 -8648.24 0 0 8648.24 0 0 -1429.05 0 0 1429.05
0 0 -12232.1 0 0 12232.1 0 0 -8232.19 0 0 8232.19 0 0 -1086.86 0 0 1086.86
0 0 -10524.7 0 0 10524.7 0 0 -7903.5 0 0 7903.5 0 0 -728.639 0 0 728.639
0 0 -8891.39 0 0 8891.39 0 0 -7646.94 0 0 7646.94 0 0 -359.917 0 0 359.917
0 0 -7379.82 0 0 7379.82 0 0 -7410.35 0 0 7410.35 0 0 -7.0525 0 0 7.0525
0 0 -5987.07 0 0 5987.07 0 0 -7211.06 0 0 7211.06 0 0 260.45 0 0 -260.45
0 0 -4664.15 0 0 4664.15 0 0 -7005.21 0 0 7005.21 0 0 525.543 0 0 -525.543
0 0 -3383.35 0 0 3383.35 0 0 -6784.37 0 0 6784.37 0 0 785.121 0 0 -785.121
0 0 -2177.68 0 0 2177.68 0 0 -6527.44 0 0 6527.44 0 0 1029.81 0 0 -1029.81
0 0 -1007.98 0 0 1007.98 0 0 -6227.68 0 0 6227.68 0 0 1256.11 0 0 -1256.11
0 0 -105.929 0 0 105.929 0 0 -5842.34 0 0 5842.34 0 0 1462.15 0 0 -1462.15
0 0 500.679 0 0 -500.679 0 0 -5453.45 0 0 5453.45 0 0 1650.83 0 0 -1650.83
0 0 1147.71 0 0 -1147.71 0 0 -5049.08 0 0 5049.08 0 0 1820.61 0 0 -1820.61
0 0 1823.39 0 0 -1823.39 0 0 -4596.02 0 0 4596.02 0 0 1966.52 0 0 -1966.52
0 0 2529 0 0 -2529 0 0 -4091.53 0 0 4091.53 0 0 2086.38 0 0 -2086.38
0 0 3283.5 0 0 -3283.5 0 0 -3554.76 0 0 3554.76 0 0 2180.56 0 0 -2180.56
0 0 4111.25 0 0 -4111.25 0 0 -2996.93 0 0 2996.93 0 0 2250.52 0 0 -2250.52
0 0 5009.77 0 0 -5009.77 0 0 -2412.14 0 0 2412.14 0 0 2296.44 0 0 -2296.44
0 0 5985.59 0 0 -5985.59 0 0 -1794.78 0 0 1794.78 0 0 2317.91 0 0 -2317.91
0 0 7031 0 0 -7031 0 0 -1138.44 0 0 1138.44 0 0 2311.45 0 0 -2311.45
0 0 8148.12 0 0 -8148.12 0 0 -458.039 0 0 458.039 0 0 2273.89 0 0 -2273.89
0 0 9341.85 0 0 -9341.85 0 0 233.583 0 0 -233.583 0 0 2207.89 0 0 -2207.89
0 0 10603.9 0 0 -10603.9 0 0 941.327 0 0 -941.327 0 0 2115.64 0 0 -2115.64
0 0 11921 0 0 -11921 0 0 1669.92 0 0 -1669.92 0 0 2000.07 0 0 -2000.07
0 0 13279.5 0 0 -13279.5 0 0 2423.94 0 0 -2423.94 0 0 1862.79 0 0 -1862.79
0 0 14667.3 0 0 -14667.3 0 0 3201.34 0 0 -3201.34 0 0 1706.76 0 0 -1706.76
0 0 16072.9 0 0 -16072.9 0 0 4000.81 0 0 -4000.81 0 0 1536.27 0 0 -1536.27
0 0 17480.9 0 0 -17480.9 0 0 4821.79 0 0 -4821.79 0 0 1355.61 0 0 -1355.61
0 0 18876.7 0 0 -18876.7 0 0 5663.96 0 0 -5663.96 0 0 1168.97 0 0 -1168.97
0 0 20250.6 0 0 -20250.6 0 0 6523.79 0 0 -6523.79 0 0 980.425 0 0 -980.425
0 0 21597.2 0 0 -21597.2 0 0 7391.4 0 0 -7391.4 0 0 794.567 0 0 -794.567
0 0 22912.7 0 0 -22912.7 0 0 8255.48 0 0 -8255.48 0 0 616.3 0 0 -616.3
0 0 24192.4 0 0 -24192.4 0 0 9107.11 0 0 -9107.11 0 0 450.521 0 0 -450.521
0 0 25431.1 0 0 -25431.1 0 0 9938.14 0 0 -9938.14 0 0 301.784 0 0 -301.784
0 0 26624 0 0 -26624 0 0 10740.5 0 0 -10740.5 0 0 174.149 0 0 -174.149
0 0 27767.8 0 0 -27767.8 0 0 11505.9 0 0 -11505.9 0 0 71.2142 0 0 -71.2142
0 0 28859 0 0 -28859 0 0 12227.1 0 0 -12227.1 0 0 -3.23966 0 0 3.23966
0 0 29895.3 0 0 -29895.3 0 0 12899.8 0 0 -12899.8 0 0 -44.8307 0 0 44.8307
0 0 30877.5 0 0 -30877.5 0 0 13517.5 0 0 -13517.5 0 0 -56.3246 0 0 56.3246
0 0 31804.5 0 0 -31804.5 0 0 14078.4 0 0 -14078.4 0 0 -34.1582 0 0 34.1582
0 0 32679.7 0 0 -32679.7 0 0 14579.6 0 0 -14579.6 0 0 16.7852 0 0 -16.7852
0 0 33507.2 0 0 -33507.2 0 0 15015.6 0 0 -15015.6 0 0 94.72 0 0 -94.72
0 0 34290 0 0 -34290 0 0 15391.1 0 0 -15391.1 0 0 201.077 0 0 -201.077
0 0 35031.5 0 0 -35031.5 0 0 15711.2 0 0 -15711.2 0 0 335.165 0 0 -335.165
0 0 35744.4 0 0 -35744.4 0 0 15991 0 0 -15991 0 0 494.314 0 0 -494.314
0 0 36420.6 0 0 -36420.6 0 0 16252.4 0 0 -16252.4 0 0 675.017 0 0 -675.017
0 0 37061.4 0 0 -37061.4 0 0 16469.5 0 0 -16469.5 0 0 877.767 0 0 -877.767
0 0 37703.9 0 0 -37703.9 0 0 16656 0 0 -16656 0 0 1098.34 0 0 -1098.34
0 0 38350.5 0 0 -38350.5 0 0 16807.9 0 0 -16807.9 0 0 1334.06 0 0 -1334.06
0 0 39004 0 0 -39004 0 0 16944.6 0 0 -16944.6 0 0 1581.17 0 0 -1581.17
0 0 39668.4 0 0 -39668.4 0 0 17087 0 0 -17087 0 0 1834.64 0 0 -1834.64
0 0 40352.6 0 0 -40352.6 0 0 17239.4 0 0 -17239.4 0 0 2085.7 0 0 -2085.7
0 0 41072.5 0 0 -41072.5 0 0 17396.7 0 0 -17396.7 0 0 2325.64 0 0 -2325.64
0 0 41834.9 0 0 -41834.9 0 0 17580.5 0 0 -17580.5 0 0 2559.28 0 0 -2559.28
0 0 42643.9 0 0 -42643.9 0 0 17806 0 0 -17806 0 0 2786.47 0 0 -2786.47
0 0 43497.8 0 0 -43497.8 0 0 18087.9 0 0 -18087.9 0 0 3002.44 0 0 -3002.44
0 0 44401.9 0 0 -44401.9 0 0 18438 0 0 -18438 0 0 3204.27 0 0 -3204.27
0 0 45340.3 0 0 -45340.3 0 0 18862.4 0 0 -18862.4 0 0 3389.65 0 0 -3389.65
0 0 46320.9 0 0 -46320.9 0 0 19350.7 0 0 -19350.7 0 0 3557.34 0 0 -3557.34
0 0 47351 0 0 -47351 0 0 19920.7 0 0 -19920.7 0 0 3705.25 0 0 -3705.25
0 0 48396.4 0 0 -48396.4 0 0 20608 0 0 -20608 0 0 3830.16 0 0 -3830.16
0 0 49439.6 0 0 -49439.6 0 0 21426.8 0 0 -21426.8 0 0 3931.21 0 0 -3931.21
0 0 50485.9 0 0 -50485.9 0 0 22368.6 0 0 -22368.6 0 0 4008.67 0 0 -4008.67
0 0 51542.4 0 0 -51542.4 0 0 23429.3 0 0 -23429.3 0 0 4063.73 0 0 -4063.73
0 0 52568.2 0 0 -52568.2 0 0 24610.9 0 0 -24610.9 0 0 4097.45 0 0 -4097.45
0 0 53530.7 0 0 -53530.7 0 0 25906.2 0 0 -25906.2 0 0 4112.26 0 0 -4112.26
0 0 54432.1 0 0 -54432.1 0 0 27290.2 0 0 -27290.2 0 0 4110.07 0 0 -4110.07
0 0 55276.4 0 0 -55276.4 0 0 28730.7 0 0 -28730.7 0 0 4093.92 0 0 -4093.92
0 0 56067.4 0 0 -56067.4 0 0 30199.7 0 0 -30199.7 0 0 4069.28 0 0 -4069.28
0 0 56808.9 0 0 -56808.9 0 0 31667.1 0 0 -31667.1 0 0 4042.24 0 0 -4042.24
0 0 57505.6 0 0 -57505.6 0 0 33100.9 0 0 -33100.9 0 0 4018.76 0 0 -4018.76
0 0 58161.9 0 0 -58161.9 0 0 34468.8 0 0 -34468.8 0 0 4004.58 0 0 -4004.58
0 0 58778.6 0 0 -58778.6 0 0 35742 0 0 -35742 0 0 4005.01 0 0 -4005.01
0 0 59353.7 0 0 -59353.7 0 0 36897.6 0 0 -36897.6 0 0 4024.68 0 0 -4024.68
0 0 59884.2 0 0 -59884.2 0 0 37915.8 0 0 -37915.8 0 0 4067.41 0 0 -4067.41
0 0 60367.4 0 0 -60367.4 0 0 38779.8 0 0 -38779.8 0 0 4129.55 0 0 -4129.55
0 0 60801.4 0 0 -60801.4 0 0 39472.1 0 0 -39472.1 0 0 4206.97 0 0 -4206.97
0 0 61182.5 0 0 -61182.5 0 0 39985.6 0 0 -39985.6 0 0 4306.1 0 0 -4306.1
0 0 61231 0 0 -61231 0 0 40290 0 0 -40290 0 0 4428.87 0 0 -4428.87
0 0 61253.6 0 0 -61253.6 0 0 40414.3 0 0 -40414.3 0 0 4573.14 0 0 -4573.14
0 0 61271.5 0 0 -61271.5 0 0 40370.3 0 0 -40370.3 0 0 4736.43 0 0 -4736.43
0 0 61284.1 0 0 -61284.1 0 0 40186.2 0 0 -40186.2 0 0 4914.78 0 0 -4914.78
0 0 61289.8 0 0 -61289.8 0 0 39868.8 0 0 -39868.8 0 0 5105.37 0 0 -5105.37
0 0 61280.5 0 0 -61280.5 0 0 39407.2 0 0 -39407.2 0 0 5305.88 0 0 -5305.88
0 0 61198 0 0 -61198 0 0 38817.1 0 0 -38817.1 0 0 5511.59 0 0 -5511.59
0 0 61022.9 0 0 -61022.9 0 0 38124.6 0 0 -38124.6 0 0 5717.32 0 0 -5717.32
0 0 60765.6 0 0 -60765.6 0 0 37357.6 0 0 -37357.6 0 0 5917.55 0 0 -5917.55
0 0 60277.8 0 0 -60277.8 0 0 36566.8 0 0 -36566.8 0 0 6105.75 0 0 -6105.75
0 0 59779.4 0 0 -59779.4 0 0 35751.7 0 0 -35751.7 0 0 6277.67 0 0 -6277.67
0 0 59275.7 0 0 -59275.7 0 0 34967.8 0 0 -34967.8 0 0 6425.97 0 0 -6425.97
0 0 58768.6 0 0 -58768.6 0 0 34234.2 0 0 -34234.2 0 0 6546.87 0 0 -6546.87
0 0 58251.8 0 0 -58251.8 0 0 33558.7 0 0 -33558.7 0 0 6637.02 0 0 -6637.02
0 0 57751.4 0 0 -57751.4 0 0 32934.3 0 0 -32934.3 0 0 6694.24 0 0 -6694.24
0 0 57280.7 0 0 -57280.7 0 0 32364.5 0 0 -32364.5 0 0 6716.39 0 0 -6716.39
0 0 56831.5 0 0 -56831.5 0 0 31866.6 0 0 -31866.6 0 0 6695.39 0 0 -6695.39
0 0 56357.9 0 0 -56357.9 0 0 31462.7 0 0 -31462.7 0 0 6625.45 0 0 -6625.45
0 0 55854.3 0 0 -55854.3 0 0 31156.3 0 0 -31156.3 0 0 6506.58 0 0 -6506.58
0 0 55325.3 0 0 -55325.3 0 0 30939.5 0 0 -30939.5 0 0 6340.57 0 0 -6340.57
0 0 54761 0 0 -54761 0 0 30807.7 0 0 -30807.7 0 0 6129.52 0 0 -6129.52
0 0 54141.7 0 0 -54141.7 0 0 30760.4 0 0 -30760.4 0 0 5876.31 0 0 -5876.31
0 0 53453.8 0 0 -53453.8 0 0 30789.5 0 0 -30789.5 0 0 5585.35 0 0 -5585.35
0 0 52700.1 0 0 -52700.1 0 0 30876.1 0 0 -30876.1 0 0 5262.69 0 0 -5262.69
0 0 51889.9 0 0 -51889.9 0 0 30994.2 0 0 -30994.2 0 0 4915.16 0 0 -4915.16
0 0 51028 0 0 -51028 0 0 31119.8 0 0 -31119.8 0 0 4549.77 0 0 -4549.77
0 0 50113.2 0 0 -50113.2 0 0 31231.3 0 0 -31231.3 0 0 4173.6 0 0 -4173.6
0 0 49140.8 0 0 -49140.8 0 0 31306.8 0 0 -31306.8 0 0 3793.94 0 0 -3793.94
0 0 48110.1 0 0 -48110.1 0 0 31321.6 0 0 -31321.6 0 0 3418.38 0 0 -3418.38
0 0 47020.1 0 0 -47020.1 0 0 31253 0 0 -31253 0 0 3054.07 0 0 -3054.07
0 0 45867.6 0 0 -45867.6 0 0 31081.9 0 0 -31081.9 0 0 2707.47 0 0 -2707.47
0 0 44648.2 0 0 -44648.2 0 0 30793.3 0 0 -30793.3 0 0 2384.17 0 0 -2384.17
0 0 43354.7 0 0 -43354.7 0 0 30373 0 0 -30373 0 0 2089.08 0 0 -2089.08
0 0 41986.8 0 0 -41986.8 0 0 29802.9 0 0 -29802.9 0 0 1826.77 0 0 -1826.77
0 0 40550.8 0 0 -40550.8 0 0 29095.4 0 0 -29095.4 0 0 1598.71 0 0 -1598.71
0 0 39015 0 0 -39015 0 0 28252.2 0 0 -28252.2 0 0 1406.29 0 0 -1406.29
0 0 37390.9 0 0 -37390.9 0 0 27273.1 0 0 -27273.1 0 0 1251.01 0 0 -1251.01
0 0 35696.3 0 0 -35696.3 0 0 26155.5 0 0 -26155.5 0 0 1132.16 0 0 -1132.16
0 0 33944 0 0 -33944 0 0 24901.1 0 0 -24901.1 0 0 1049.1 0 0 -1049.1
0 0 32137.7 0 0 -32137.7 0 0 23529.1 0 0 -23529.1 0 0 998.391 0 0 -998.391
0 0 30278.1 0 0 -30278.1 0 0 22057.9 0 0 -22057.9 0 0 976.541 0 0 -976.541
0 0 28379.2 0 0 -28379.2 0 0 20519.5 0 0 -20519.5 0 0 978.459 0 0 -978.459
0 0 26418.1 0 0 -26418.1 0 0 18931 0 0 -18931 0 0 999.177 0 0 -999.177
0 0 24421 0 0 -24421 0 0 17297.1 0 0 -17297.1 0 0 1035.62 0 0 -1035.62
0 0 22396.5 0 0 -22396.5 0 0 15648.9 0 0 -15648.9 0 0 1079.86 0 0 -1079.86
0 0 20333.2 0 0 -20333.2 0 0 14007.9 0 0 -14007.9 0 0 1127.21 0 0 -1127.21
0 0 18232.7 0 0 -18232.7 0 0 12405.4 0 0 -12405.4 0 0 1171.02 0 0 -1171.02
0 0 16107.7 0 0 -16107.7 0 0 10857 0 0 -10857 0 0 1206.44 0 0 -1206.44
0 0 13977 0 0 -13977 0 0 9375.11 0 0 -9375.11 0 0 1228.87 0 0 -1228.87
0 0 11854.3 0 0 -11854.3 0 0 7975.13 0 0 -7975.13 0 0 1233.62 0 0 -1233.62
0 0 9746.2 0 0 -9746.2 0 0 6672.3 0 0 -6672.3 0 0 1216.67 0 0 -1216.67
0 0 7662.66 0 0 -7662.66 0 0 5478.18 0 0 -5478.18 0 0 1174.9 0 0 -1174.9
0 0 5619.36 0 0 -5619.36 0 0 4397.07 0 0 -4397.07 0 0 1106.34 0 0 -1106.34
0 0 3633.23 0 0 -3633.23 0 0 3432.6 0 0 -3432.6 0 0 1009.65 0 0 -1009.65
0 0 1710.88 0 0 -1710.88 0 0 2587.77 0 0 -2587.77 0 0 884.12 0 0 -884.12
0 0 -66.9902 0 0 66.9902 0 0 1861.57 0 0 -1861.57 0 0 730.208 0 0 -730.208
0 0 -1232.98 0 0 1232.98 0 0 1323.5 0 0 -1323.5 0 0 543.643 0 0 -543.643
0 0 -2399.37 0 0 2399.37 0 0 893.919 0 0 -893.919 0 0 333.273 0 0 -333.273
0 0 -3513.49 0 0 3513.49 0 0 556.83 0 0 -556.83 0 0 100.29 0 0 -100.29
0 0 -4569.06 0 0 4569.06 0 0 282.586 0 0 -282.586 0 0 -105.014 0 0 105.014
0 0 -5438.86 0 0 5438.86 0 0 44.5166 0 0 -44.5166 0 0 -310.053 0 0 310.053
0 0 -6240.83 0 0 6240.83 0 0 -131.776 0 0 131.776 0 0 -520.574 0 0 520.574
0 0 -7030.12 0 0 7030.12 0 0 -275.352 0 0 275.352 0 0 -735.28 0 0 735.28
0 0 -7794.6 0 0 7794.6 0 0 -403.378 0 0 403.378 0 0 -948.777 0 0 948.777
0 0 -8558.47 0 0 8558.47 0 0 -497.591 0 0 497.591 0 0 -1160.78 0 0 1160.78
0 0 -9353.79 0 0 9353.79 0 0 -573.796 0 0 573.796 0 0 -1367.43 0 0 1367.43
0 0 -10185.9 0 0 10185.9 0 0 -634.957 0 0 634.957 0 0 -1566.71 0 0 1566.71
0 0 -11061.7 0 0 11061.7 0 0 -707.663 0 0 707.663 0 0 -1754.07 0 0 1754.07
0 0 -11988.8 0 0 11988.8 0 0 -808.08 0 0 808.08 0 0 -1925.24 0 0 1925.24
0 0 -12981.5 0 0 12981.5 0 0 -942.349 0 0 942.349 0 0 -2077.71 0 0 2077.71
0 0 -14052.5 0 0 14052.5 0 0 -1120.44 0 0 1120.44 0 0 -2209.24 0 0 2209.24
0 0 -15205.7 0 0 15205.7 0 0 -1356.74 0 0 1356.74 0 0 -2317.92 0 0 2317.92
0 0 -16441.3 0 0 16441.3 0 0 -1667.73 0 0 1667.73 0 0 -2401.57 0 0 2401.57
0 0 -17760.4 0 0 17760.4 0 0 -2065.71 0 0 2065.71 0 0 -2458.35 0 0 2458.35
0 0 -19163.1 0 0 19163.1 0 0 -2558.55 0 0 2558.55 0 0 -2487.26 0 0 2487.26
0 0 -20644.6 0 0 20644.6 0 0 -3155.25 0 0 3155.25 0 0 -2486.23 0 0 2486.23
0 0 -22194.3 0 0 22194.3 0 0 -3863.78 0 0 3863.78 0 0 -2449.92 0 0 2449.92
0 0 -23799.6 0 0 23799.6 0 0 -4690.67 0 0 4690.67 0 0 -2379.04 0 0 2379.04
0 0 -25449.4 0 0 25449.4 0 0 -5638.39 0 0 5638.39 0 0 -2276.08 0 0 2276.08
0 0 -27133.5 0 0 27133.5 0 0 -6704.26 0 0 6704.26 0 0 -2144.14 0 0 2144.14
0 0 -29493.4 0 0 29493.4 0 0 -7895.97 0 0 7895.97 0 0 -1983.63 0 0 1983.63
0 0 -31314.5 0 0 31314.5 0 0 -9736.4 0 0 9736.4 0 0 -1767.89 0 0 1767.89
0 0 -33176.6 0 0 33176.6 0 0 -11501.3 0 0 11501.3 0 0 -1560.58 0 0 1560.58
0 0 -35430.4 0 0 35430.4 0 0 -13223.4 0 0 13223.4 0 0 -1354.84 0 0 1354.84
0 0 -37688.6 0 0 37688.6 0 0 -14936.1 0 0 14936.1 0 0 -1159.4 0 0 1159.4
0 0 -39645.7 0 0 39645.7 0 0 -16764.3 0 0 16764.3 0 0 -977.179 0 0 977.179
0 0 -41553.2 0 0 41553.2 0 0 -18546.4 0 0 18546.4 0 0 -823.095 0 0 823.095
0 0 -43550.9 0 0 43550.9 0 0 -20194.7 0 0 20194.7 0 0 -709.765 0 0 709.765
0 0 -45447.2 0 0 45447.2 0 0 -21771.4 0 0 21771.4 0 0 -639.04 0 0 639.04
0 0 -47155.4 0 0 47155.4 0 0 -23280.8 0 0 23280.8 0 0 -616.649 0 0 616.649
0 0 -48777.1 0 0 48777.1 0 0 -24653.7 0 0 24653.7 0 0 -649.881 0 0 649.881
0 0 -50337.4 0 0 50337.4 0 0 -25861.5 0 0 25861.5 0 0 -743.313 0 0 743.313
0 0 -51757.9 0 0 51757.9 0 0 -26926.4 0 0 26926.4 0 0 -897.72 0 0 897.72
0 0 -53020.8 0 0 53020.8 0 0 -27849.3 0 0 27849.3 0 0 -1113.59 0 0 1113.59
0 0 -54169.8 0 0 54169.8 0 0 -28609.7 0 0 28609.7 0 0 -1390.84 0 0 1390.84
0 0 -55211.3 0 0 55211.3 0 0 -29208.4 0 0 29208.4 0 0 -1726.92 0 0 1726.92
0 0 -56123.5 0 0 56123.5 0 0 -29664.6 0 0 29664.6 0 0 -2117.24 0 0 2117.24
0 0 -56915.1 0 0 56915.1 0 0 -29988.9 0 0 29988.9 0 0 -2531.84 0 0 2531.84
0 0 -57617.9 0 0 57617.9 0 0 -30160 0 0 30160 0 0 -2901.66 0 0 2901.66
0 0 -58239 0 0 58239 0 0 -30211.9 0 0 30211.9 0 0 -3300.14 0 0 3300.14
0 0 -13138.3 0 0 13138.3 0 0 -24120.9 0 0 24120.9 0 0 -3916.08 0 0 3916.08
0 0 1052.95 0 0 -1052.95 0 0 -26013.3 0 0 26013.3 0 0 -4291.12 0 0 4291.12
0 0 1284.83 0 0 -1284.83 0 0 -24839.3 0 0 24839.3 0 0 -4884.45 0 0 4884.45
0 0 -4176.59 0 0 4176.59 0 0 -23636 0 0 23636 0 0 -5226.88 0 0 5226.88
0 0 -4500.84 0 0 4500.84 0 0 -23439.6 0 0 23439.6 0 0 -5611.07 0 0 5611.07
0 0 -1013.7 0 0 1013.7 0 0 -23966.5 0 0 23966.5 0 0 -5928.2 0 0 5928.2
0 0 -1450.96 0 0 1450.96 0 0 -24314 0 0 24314 0 0 -6214.41 0 0 6214.41
0 0 -3608.47 0 0 3608.47 0 0 -24492.3 0 0 24492.3 0 0 -6461.25 0 0 6461.25
0 0 -3083.28 0 0 3083.28 0 0 -24816.4 0 0 24816.4 0 0 -6668.12 0 0 6668.12
0 0 -1771.17 0 0 1771.17 0 0 -25361.4 0 0 25361.4 0 0 -6833.56 0 0 6833.56
0 0 -2156.13 0 0 2156.13 0 0 -26067.9 0 0 26067.9 0 0 -6950.27 0 0 6950.27
0 0 -1076.25 0 0 1076.25 0 0 -10634.2 0 0 10634.2 0 0 -6389.54 0 0 6389.54
0 0 422.611 0 0 -422.611 0 0 -7027.56 0 0 7027.56 0 0 -6251.75 0 0 6251.75
0 0 327.22 0 0 -327.22 0 0 -4331.61 0 0 4331.61 0 0 -6021.24 0 0 6021.24
0 0 -1426.14 0 0 1426.14 0 0 -5212.47 0 0 5212.47 0 0 -5874.56 0 0 5874.56
0 0 -1693.91 0 0 1693.91 0 0 -6588.48 0 0 6588.48 0 0 -5591.17 0 0 5591.17
0 0 -750.566 0 0 750.566 0 0 -6068.29 0 0 6068.29 0 0 -5272.91 0 0 5272.91
0 0 -844.687 0 0 844.687 0 0 -4214.89 0 0 4214.89 0 0 -4997.74 0 0 4997.74
0 0 -1531.75 0 0 1531.75 0 0 -2992.22 0 0 2992.22 0 0 -4702.62 0 0 4702.62
0 0 -1827.57 0 0 1827.57 0 0 -3099.79 0 0 3099.79 0 0 -4380.57 0 0 4380.57
0 0 -1746.67 0 0 1746.67 0 0 -3500.62 0 0 3500.62 0 0 -4001.17 0 0 4001.17
0 0 -1952.68 0 0 1952.68 0 0 -3136.17 0 0 3136.17 0 0 -3667.31 0 0 3667.31
0 0 -2351.8 0 0 2351.8 0 0 -2043.43 0 0 2043.43 0 0 -3445.23 0 0 3445.23
0 0 -2642.08 0 0 2642.08 0 0 -1433.49 0 0 1433.49 0 0 -3235.08 0 0 3235.08
0 0 -2782.1 0 0 2782.1 0 0 -1510.12 0 0 1510.12 0 0 -3018.92 0 0 3018.92
0 0 -3000.9 0 0 3000.9 0 0 -1509.42 0 0 1509.42 0 0 -2869.24 0 0 2869.24
0 0 -3311.18 0 0 3311.18 0 0 -1181.51 0 0 1181.51 0 0 -2777.93 0 0 2777.93
0 0 -3536.23 0 0 3536.23 0 0 -698.328 0 0 698.328 0 0 -2747.97 0 0 2747.97
0 0 -3671.32 0 0 3671.32 0 0 -465.258 0 0 465.258 0 0 -2775.97 0 0 2775.97
0 0 -3823.97 0 0 3823.97 0 0 -509.822 0 0 509.822 0 0 -2857.49 0 0 2857.49
0 0 -3990.37 0 0 3990.37 0 0 -486.7 0 0 486.7 0 0 -2997.74 0 0 2997.74
0 0 -4090.27 0 0 4090.27 0 0 -317.939 0 0 317.939 0 0 -3181.47 0 0 3181.47
0 0 -4125.99 0 0 4125.99 0 0 -144.125 0 0 144.125 0 0 -3398.48 0 0 3398.48
0 0 -4160.84 0 0 4160.84 0 0 -55.9072 0 0 55.9072 0 0 -3709 0 0 3709
0 0 -4185 0 0 4185 0 0 -104.928 0 0 104.928 0 0 -4107.22 0 0 4107.22
0 0 -4135.41 0 0 4135.41 0 0 -228.968 0 0 228.968 0 0 -4553.38 0 0 4553.38
0 0 -4063.92 0 0 4063.92 0 0 -319.862 0 0 319.862 0 0 -5060.49 0 0 5060.49
0 0 -3983.33 0 0 3983.33 0 0 -403.755 0 0 403.755 0 0 -5625 0 0 5625
0 0 -3859.46 0 0 3859.46 0 0 -550.855 0 0 550.855 0 0 -6227.39 0 0 6227.39
0 0 -3703.63 0 0 3703.63 0 0 -778.302 0 0 778.302 0 0 -6813.49 0 0 6813.49
0 0 -3541.89 0 0 3541.89 0 0 -1015.89 0 0 1015.89 0 0 -7228.27 0 0 7228.27
0 0 -3372.71 0 0 3372.71 0 0 -1153.32 0 0 1153.32 0 0 -7639.8 0 0 7639.8
0 0 -3150.59 0 0 3150.59 0 0 -1257.14 0 0 1257.14 0 0 -7814.47 0 0 7814.47
0 0 -2945.09 0 0 2945.09 0 0 -1212.06 0 0 1212.06 0 0 -7854.94 0 0 7854.94
0 0 -2737.41 0 0 2737.41 0 0 -1133.17 0 0 1133.17 0 0 -7896.32 0 0 7896.32
0 0 -2523.3 0 0 2523.3 0 0 -1057.36 0 0 1057.36 0 0 -7937.39 0 0 7937.39
0 0 -2317.85 0 0 2317.85 0 0 -1031.22 0 0 1031.22 0 0 -7976.54 0 0 7976.54
0 0 -2138.97 0 0 2138.97 0 0 -1088.07 0 0 1088.07 0 0 -8013.71 0 0 8013.71
0 0 -1952.22 0 0 1952.22 0 0 -1193.98 0 0 1193.98 0 0 -8049.53 0 0 8049.53
0 0 -1725.86 0 0 1725.86 0 0 -1314.63 0 0 1314.63 0 0 -8084.22 0 0 8084.22
0 0 -1458.83 0 0 1458.83 0 0 -1434.92 0 0 1434.92 0 0 -8117.14 0 0 8117.14
0 0 -1173.35 0 0 1173.35 0 0 -1592.23 0 0 1592.23 0 0 -8147.36 0 0 8147.36
0 0 -879.454 0 0 879.454 0 0 -1806.73 0 0 1806.73 0 0 -8174.31 0 0 8174.31
0 0 -571.563 0 0 571.563 0 0 -2037.48 0 0 2037.48 0 0 -8198.07 0 0 8198.07
0 0 -227.735 0 0 227.735 0 0 -2320.63 0 0 2320.63 0 0 -8218.74 0 0 8218.74
0 0 59.3846 0 0 -59.3846 0 0 -2639.53 0 0 2639.53 0 0 -8236.72 0 0 8236.72
0 0 303.713 0 0 -303.713 0 0 -2993.7 0 0 2993.7 0 0 -8251.82 0 0 8251.82
0 0 552.712 0 0 -552.712 0 0 -3030.4 0 0 3030.4 0 0 -8262.78 0 0 8262.78
0 0 723.978 0 0 -723.978 0 0 -2955.22 0 0 2955.22 0 0 -8269.66 0 0 8269.66
0 0 738.401 0 0 -738.401 0 0 -2827.68 0 0 2827.68 0 0 -8273.74 0 0 8273.74
0 0 661.53 0 0 -661.53 0 0 -2714.56 0 0 2714.56 0 0 -8275.05 0 0 8275.05
0 0 599.578 0 0 -599.578 0 0 -2620.94 0 0 2620.94 0 0 -8236.79 0 0 8236.79
0 0 550.683 0 0 -550.683 0 0 -2504.19 0 0 2504.19 0 0 -8159.34 0 0 8159.34
0 0 479.568 0 0 -479.568 0 0 -2347.01 0 0 2347.01 0 0 -8046.52 0 0 8046.52
0 0 395.261 0 0 -395.261 0 0 -2172.07 0 0 2172.07 0 0 -7904.92 0 0 7904.92
0 0 310.525 0 0 -310.525 0 0 -1972.35 0 0 1972.35 0 0 -7700.37 0 0 7700.37
0 0 242.087 0 0 -242.087 0 0 -1806.62 0 0 1806.62 0 0 -7486.48 0 0 7486.48
0 0 191.504 0 0 -191.504 0 0 -1660.56 0 0 1660.56 0 0 -7264.53 0 0 7264.53
0 0 159.398 0 0 -159.398 0 0 -1521.06 0 0 1521.06 0 0 -7053.1 0 0 7053.1
0 0 164.935 0 0 -164.935 0 0 -1404.64 0 0 1404.64 0 0 -6858.61 0 0 6858.61
0 0 209.559 0 0 -209.559 0 0 -1285.41 0 0 1285.41 0 0 -6687.16 0 0 6687.16
0 0 313.172 0 0 -313.172 0 0 -1000.8 0 0 1000.8 0 0 -6526.18 0 0 6526.18
0 0 495.589 0 0 -495.589 0 0 -478.787 0 0 478.787 0 0 -6383.27 0 0 6383.27
0 0 735.178 0 0 -735.178 0 0 47.9783 0 0 -47.9783 0 0 -6264.61 0 0 6264.61
0 0 917.301 0 0 -917.301 0 0 180.836 0 0 -180.836 0 0 -6192.76 0 0 6192.76
0 0 1137.17 0 0 -1137.17 0 0 180.849 0 0 -180.849 0 0 -6134.44 0 0 6134.44
0 0 1411.47 0 0 -1411.47 0 0 229.83 0 0 -229.83 0 0 -6090.36 0 0 6090.36
0 0 1711.35 0 0 -1711.35 0 0 341.723 0 0 -341.723 0 0 -6053.54 0 0 6053.54
0 0 2021.45 0 0 -2021.45 0 0 374.432 0 0 -374.432 0 0 -6014.78 0 0 6014.78
0 0 2349.95 0 0 -2349.95 0 0 358.895 0 0 -358.895 0 0 -5958.35 0 0 5958.35
0 0 2697.36 0 0 -2697.36 0 0 379.966 0 0 -379.966 0 0 -5878.03 0 0 5878.03
0 0 3048.89 0 0 -3048.89 0 0 448.612 0 0 -448.612 0 0 -5765.79 0 0 5765.79
0 0 3397.31 0 0 -3397.31 0 0 513.673 0 0 -513.673 0 0 -5611.37 0 0 5611.37
0 0 3740.41 0 0 -3740.41 0 0 573.469 0 0 -573.469 0 0 -5405.94 0 0 5405.94
0 0 4070.98 0 0 -4070.98 0 0 665.627 0 0 -665.627 0 0 -5143.94 0 0 5143.94
0 0 4383.07 0 0 -4383.07 0 0 792.789 0 0 -792.789 0 0 -4821.11 0 0 4821.11
0 0 4673.57 0 0 -4673.57 0 0 931.53 0 0 -931.53 0 0 -4433.62 0 0 4433.62
0 0 4938.17 0 0 -4938.17 0 0 1081.53 0 0 -1081.53 0 0 -3979.24 0 0 3979.24
0 0 5170.86 0 0 -5170.86 0 0 1258.79 0 0 -1258.79 0 0 -3457.86 0 0 3457.86
0 0 5337.08 0 0 -5337.08 0 0 1462.74 0 0 -1462.74 0 0 -2870.47 0 0 2870.47
0 0 5521.18 0 0 -5521.18 0 0 1681.71 0 0 -1681.71 0 0 -2217.41 0 0 2217.41
0 0 5727.79 0 0 -5727.79 0 0 1908.69 0 0 -1908.69 0 0 -1503.64 0 0 1503.64
0 0 5817.94 0 0 -5817.94 0 0 2188.32 0 0 -2188.32 0 0 -775.497 0 0 775.497
0 0 5861.52 0 0 -5861.52 0 0 2426.43 0 0 -2426.43 0 0 -148.051 0 0 148.051
0 0 5953.07 0 0 -5953.07 0 0 2674.17 0 0 -2674.17 0 0 222.051 0 0 -222.051
0 0 6033.2 0 0 -6033.2 0 0 2886.42 0 0 -2886.42 0 0 561.348 0 0 -561.348
0 0 6103.81 0 0 -6103.81 0 0 3107.61 0 0 -3107.61 0 0 910.439 0 0 -910.439
0 0 6166.75 0 0 -6166.75 0 0 3345.93 0 0 -3345.93 0 0 1250.67 0 0 -1250.67
0 0 6187.07 0 0 -6187.07 0 0 3563.08 0 0 -3563.08 0 0 1583.25 0 0 -1583.25
0 0 6224.81 0 0 -6224.81 0 0 3789.87 0 0 -3789.87 0 0 1908.91 0 0 -1908.91
0 0 6252.14 0 0 -6252.14 0 0 3993.98 0 0 -3993.98 0 0 2229.14 0 0 -2229.14
0 0 6307.14 0 0 -6307.14 0 0 4197.28 0 0 -4197.28 0 0 2534.14 0 0 -2534.14
0 0 6383.34 0 0 -6383.34 0 0 4394.84 0 0 -4394.84 0 0 2816.78 0 0 -2816.78
0 0 6447.44 0 0 -6447.44 0 0 4572.08 0 0 -4572.08 0 0 3078.9 0 0 -3078.9
0 0 6539.82 0 0 -6539.82 0 0 4735.48 0 0 -4735.48 0 0 3319.76 0 0 -3319.76
0 0 6658.72 0 0 -6658.72 0 0 4883.5 0 0 -4883.5 0 0 3534.84 0 0 -3534.84
0 0 6809.54 0 0 -6809.54 0 0 5011.17 0 0 -5011.17 0 0 3719.24 0 0 -3719.24
0 0 6975.93 0 0 -6975.93 0 0 5115.41 0 0 -5115.41 0 0 3872.16 0 0 -3872.16
0 0 7165.56 0 0 -7165.56 0 0 5198.7 0 0 -5198.7 0 0 3994.82 0 0 -3994.82
0 0 7377.92 0 0 -7377.92 0 0 5259.05 0 0 -5259.05 0 0 4087.07 0 0 -4087.07
0 0 7612.82 0 0 -7612.82 0 0 5295.12 0 0 -5295.12 0 0 4148.36 0 0 -4148.36
0 0 7869.54 0 0 -7869.54 0 0 5313.05 0 0 -5313.05 0 0 4180.09 0 0 -4180.09
0 0 8141.46 0 0 -8141.46 0 0 5316.7 0 0 -5316.7 0 0 4184.05 0 0 -4184.05
0 0 8426.65 0 0 -8426.65 0 0 5308.15 0 0 -5308.15 0 0 4144.78 0 0 -4144.78
0 0 8726.38 0 0 -8726.38 0 0 5285.91 0 0 -5285.91 0 0 4060 0 0 -4060
0 0 9039.1 0 0 -9039.1 0 0 5257.19 0 0 -5257.19 0 0 3935.9 0 0 -3935.9
0 0 9358.46 0 0 -9358.46 0 0 5226.57 0 0 -5226.57 0 0 3779.57 0 0 -3779.57
0 0 9680.26 0 0 -9680.26 0 0 5277.79 0 0 -5277.79 0 0 3601.53 0 0 -3601.53
0 0 11211.5 0 0 -11211.5 0 0 5423.97 0 0 -5423.97 0 0 3392.39 0 0 -3392.39
0 0 13062.6 0 0 -13062.6 0 0 5525.7 0 0 -5525.7 0 0 3188.84 0 0 -3188.84
0 0 14869.1 0 0 -14869.1 0 0 5607.64 0 0 -5607.64 0 0 2981.05 0 0 -2981.05
0 0 16534.2 0 0 -16534.2 0 0 5726.15 0 0 -5726.15 0 0 2752.81 0 0 -2752.81
0 0 18182.1 0 0 -18182.1 0 0 6011.75 0 0 -6011.75 0 0 2541.15 0 0 -2541.15
0 0 19999.4 0 0 -19999.4 0 0 6854.93 0 0 -6854.93 0 0 2392.91 0 0 -2392.91
0 0 21750.3 0 0 -21750.3 0 0 7737.48 0 0 -7737.48 0 0 2251.21 0 0 -2251.21
0 0 23332.1 0 0 -23332.1 0 0 8581.21 0 0 -8581.21 0 0 2128.24 0 0 -2128.24
0 0 24781.6 0 0 -24781.6 0 0 9327.9 0 0 -9327.9 0 0 2035.28 0 0 -2035.28
0 0 26153.6 0 0 -26153.6 0 0 10013.6 0 0 -10013.6 0 0 1974.1 0 0 -1974.1
0 0 27400.3 0 0 -27400.3 0 0 10671.6 0 0 -10671.6 0 0 1942.7 0 0 -1942.7
0 0 28479.9 0 0 -28479.9 0 0 11277.3 0 0 -11277.3 0 0 1944.5 0 0 -1944.5
0 0 29422.1 0 0 -29422.1 0 0 11807.9 0 0 -11807.9 0 0 1984.02 0 0 -1984.02
0 0 30250.9 0 0 -30250.9 0 0 12280.8 0 0 -12280.8 0 0 2060.84 0 0 -2060.84
0 0 30945.8 0 0 -30945.8 0 0 12710.1 0 0 -12710.1 0 0 2172.17 0 0 -2172.17
0 0 31499.4 0 0 -31499.4 0 0 13085.3 0 0 -13085.3 0 0 2316.95 0 0 -2316.95
0 0 31939.6 0 0 -31939.6 0 0 13397.3 0 0 -13397.3 0 0 2494.6 0 0 -2494.6
0 0 32281.8 0 0 -32281.8 0 0 13652 0 0 -13652 0 0 2702.37 0 0 -2702.37
0 0 32538.9 0 0 -32538.9 0 0 13850.6 0 0 -13850.6 0 0 2935.28 0 0 -2935.28
0 0 32727.7 0 0 -32727.7 0 0 13986.9 0 0 -13986.9 0 0 3189.18 0 0 -3189.18
0 0 32875.3 0 0 -32875.3 0 0 14064.3 0 0 -14064.3 0 0 3458.67 0 0 -3458.67
0 0 33008.1 0 0 -33008.1 0 0 14085.6 0 0 -14085.6 0 0 3737.56 0 0 -3737.56
0 0 33139.4 0 0 -33139.4 0 0 14064.1 0 0 -14064.1 0 0 3974.89 0 0 -3974.89
0 0 33270.4 0 0 -33270.4 0 0 13981 0 0 -13981 0 0 4189.29 0 0 -4189.29
0 0 33426.4 0 0 -33426.4 0 0 13873.1 0 0 -13873.1 0 0 4289.38 0 0 -4289.38
0 0 33600.4 0 0 -33600.4 0 0 13755.4 0 0 -13755.4 0 0 4392.03 0 0 -4392.03
0 0 33770.3 0 0 -33770.3 0 0 13680.5 0 0 -13680.5 0 0 4485.65 0 0 -4485.65
0 0 33948.7 0 0 -33948.7 0 0 13655.6 0 0 -13655.6 0 0 4565.68 0 0 -4565.68
0 0 34137.2 0 0 -34137.2 0 0 13693.7 0 0 -13693.7 0 0 4632.55 0 0 -4632.55
0 0 34315.1 0 0 -34315.1 0 0 13799.9 0 0 -13799.9 0 0 4687.47 0 0 -4687.47
0 0 34495.3 0 0 -34495.3 0 0 13960.3 0 0 -13960.3 0 0 4729.27 0 0 -4729.27
0 0 34687.2 0 0 -34687.2 0 0 14185.2 0 0 -14185.2 0 0 4755.64 0 0 -4755.64
0 0 34839.4 0 0 -34839.4 0 0 14487.9 0 0 -14487.9 0 0 4764.94 0 0 -4764.94
0 0 34941.6 0 0 -34941.6 0 0 14880.7 0 0 -14880.7 0 0 4745.25 0 0 -4745.25
0 0 34998.9 0 0 -34998.9 0 0 15321.6 0 0 -15321.6 0 0 4695.67 0 0 -4695.67
0 0 34991.3 0 0 -34991.3 0 0 15802 0 0 -15802 0 0 4617.18 0 0 -4617.18
0 0 34850 0 0 -34850 0 0 16318.5 0 0 -16318.5 0 0 4513.38 0 0 -4513.38
0 0 34531.1 0 0 -34531.1 0 0 16847.2 0 0 -16847.2 0 0 4391.61 0 0 -4391.61
0 0 34057.5 0 0 -34057.5 0 0 17329.7 0 0 -17329.7 0 0 4263.27 0 0 -4263.27
0 0 33416.6 0 0 -33416.6 0 0 17742.3 0 0 -17742.3 0 0 4134.58 0 0 -4134.58
0 0 32585 0 0 -32585 0 0 18027.7 0 0 -18027.7 0 0 4017.01 0 0 -4017.01
0 0 31630.1 0 0 -31630.1 0 0 18208.5 0 0 -18208.5 0 0 3907.83 0 0 -3907.83
0 0 30631.3 0 0 -30631.3 0 0 18247.3 0 0 -18247.3 0 0 3815.17 0 0 -3815.17
0 0 29553.2 0 0 -29553.2 0 0 18165.2 0 0 -18165.2 0 0 3739.79 0 0 -3739.79
0 0 28397.2 0 0 -28397.2 0 0 17919.8 0 0 -17919.8 0 0 3684.67 0 0 -3684.67
0 0 27241.7 0 0 -27241.7 0 0 17438.6 0 0 -17438.6 0 0 3654.62 0 0 -3654.62
0 0 26106.5 0 0 -26106.5 0 0 16724.5 0 0 -16724.5 0 0 3648.08 0 0 -3648.08
0 0 24985.6 0 0 -24985.6 0 0 15806 0 0 -15806 0 0 3661.87 0 0 -3661.87
0 0 23927.4 0 0 -23927.4 0 0 14691.2 0 0 -14691.2 0 0 3691.3 0 0 -3691.3
0 0 22976.3 0 0 -22976.3 0 0 13396.2 0 0 -13396.2 0 0 3729.83 0 0 -3729.83
0 0 22105.4 0 0 -22105.4 0 0 12005.1 0 0 -12005.1 0 0 3765.64 0 0 -3765.64
0 0 21301.2 0 0 -21301.2 0 0 10528.3 0 0 -10528.3 0 0 3794.05 0 0 -3794.05
0 0 20634.9 0 0 -20634.9 0 0 9007.13 0 0 -9007.13 0 0 3804.36 0 0 -3804.36
0 0 20078.8 0 0 -20078.8 0 0 7490.62 0 0 -7490.62 0 0 3788.61 0 0 -3788.61
0 0 19619.8 0 0 -19619.8 0 0 6060.77 0 0 -6060.77 0 0 3736.69 0 0 -3736.69
0 0 19279.7 0 0 -19279.7 0 0 4820.62 0 0 -4820.62 0 0 3646.11 0 0 -3646.11
0 0 19070.4 0 0 -19070.4 0 0 3852.18 0 0 -3852.18 0 0 3513.11 0 0 -3513.11
0 0 18924.8 0 0 -18924.8 0 0 3032.42 0 0 -3032.42 0 0 3324.53 0 0 -3324.53
0 0 18805.2 0 0 -18805.2 0 0 2359.37 0 0 -2359.37 0 0 3079.52 0 0 -3079.52
0 0 18729.1 0 0 -18729.1 0 0 1894.53 0 0 -1894.53 0 0 2781.04 0 0 -2781.04
0 0 18737.8 0 0 -18737.8 0 0 1609.68 0 0 -1609.68 0 0 2431.26 0 0 -2431.26
0 0 18807.7 0 0 -18807.7 0 0 1482.95 0 0 -1482.95 0 0 2033.46 0 0 -2033.46
0 0 18900.4 0 0 -18900.4 0 0 1490.6 0 0 -1490.6 0 0 1598.86 0 0 -1598.86
0 0 19055.9 0 0 -19055.9 0 0 1635.02 0 0 -1635.02 0 0 1139.73 0 0 -1139.73
0 0 19226.9 0 0 -19226.9 0 0 1908.99 0 0 -1908.99 0 0 668.891 0 0 -668.891
0 0 19357.9 0 0 -19357.9 0 0 2283.29 0 0 -2283.29 0 0 201.321 0 0 -201.321
0 0 19445.9 0 0 -19445.9 0 0 2731.02 0 0 -2731.02 0 0 -133.126 0 0 133.126
0 0 19507.3 0 0 -19507.3 0 0 3406.24 0 0 -3406.24 0 0 -354.988 0 0 354.988
0 0 19551.2 0 0 -19551.2 0 0 4154.62 0 0 -4154.62 0 0 -547.79 0 0 547.79
0 0 19564.6 0 0 -19564.6 0 0 4841.39 0 0 -4841.39 0 0 -705.145 0 0 705.145
0 0 19530.3 0 0 -19530.3 0 0 5407.08 0 0 -5407.08 0 0 -819.699 0 0 819.699
0 0 19504.2 0 0 -19504.2 0 0 5838.38 0 0 -5838.38 0 0 -893.728 0 0 893.728
0 0 19478 0 0 -19478 0 0 6130.87 0 0 -6130.87 0 0 -926.777 0 0 926.777
0 0 19454.7 0 0 -19454.7 0 0 6256.09 0 0 -6256.09 0 0 -892.579 0 0 892.579
0 0 19454.6 0 0 -19454.6 0 0 6197.51 0 0 -6197.51 0 0 -766.625 0 0 766.625
0 0 19529.5 0 0 -19529.5 0 0 5970.1 0 0 -5970.1 0 0 -557.37 0 0 557.37
0 0 19646.9 0 0 -19646.9 0 0 5617.28 0 0 -5617.28 0 0 -277.981 0 0 277.981
0 0 19823.4 0 0 -19823.4 0 0 5150.24 0 0 -5150.24 0 0 11.5973 0 0 -11.5973
0 0 20016.1 0 0 -20016.1 0 0 4604.96 0 0 -4604.96 0 0 242.737 0 0 -242.737
0 0 20222.8 0 0 -20222.8 0 0 4036.79 0 0 -4036.79 0 0 510.52 0 0 -510.52
0 0 20449.9 0 0 -20449.9 0 0 3506.94 0 0 -3506.94 0 0 794.923 0 0 -794.923
0 0 20675.7 0 0 -20675.7 0 0 3104.29 0 0 -3104.29 0 0 1086.84 0 0 -1086.84
0 0 20872.9 0 0 -20872.9 0 0 2844.21 0 0 -2844.21 0 0 1379.94 0 0 -1379.94
0 0 21045.9 0 0 -21045.9 0 0 2703.24 0 0 -2703.24 0 0 1669.16 0 0 -1669.16
0 0 21214.9 0 0 -21214.9 0 0 2690.93 0 0 -2690.93 0 0 1946.27 0 0 -1946.27
0 0 21390.3 0 0 -21390.3 0 0 2831.45 0 0 -2831.45 0 0 2202.46 0 0 -2202.46
0 0 21602.3 0 0 -21602.3 0 0 3139.46 0 0 -3139.46 0 0 2433.43 0 0 -2433.43
0 0 21859.1 0 0 -21859.1 0 0 3624.07 0 0 -3624.07 0 0 2637.74 0 0 -2637.74
0 0 22160.2 0 0 -22160.2 0 0 4329.99 0 0 -4329.99 0 0 2814.77 0 0 -2814.77
0 0 22471.4 0 0 -22471.4 0 0 5303.1 0 0 -5303.1 0 0 2966.58 0 0 -2966.58
0 0 22842.5 0 0 -22842.5 0 0 6432.74 0 0 -6432.74 0 0 3092.84 0 0 -3092.84
0 0 23221.2 0 0 -23221.2 0 0 7713.17 0 0 -7713.17 0 0 3194.38 0 0 -3194.38
0 0 23547 0 0 -23547 0 0 9131.46 0 0 -9131.46 0 0 3273.56 0 0 -3273.56
0 0 23859.2 0 0 -23859.2 0 0 10614.6 0 0 -10614.6 0 0 3334.81 0 0 -3334.81
0 0 24164.1 0 0 -24164.1 0 0 12096.4 0 0 -12096.4 0 0 3382.89 0 0 -3382.89
0 0 24457.2 0 0 -24457.2 0 0 8873.46 0 0 -8873.46 0 0 3386.25 0 0 -3386.25
0 0 25274.2 0 0 -25274.2 0 0 12474.2 0 0 -12474.2 0 0 2457.85 0 0 -2457.85
0 0 25075.6 0 0 -25075.6 0 0 15697.9 0 0 -15697.9 0 0 2104.15 0 0 -2104.15
0 0 25664.4 0 0 -25664.4 0 0 15390.3 0 0 -15390.3 0 0 2132.64 0 0 -2132.64
0 0 25750.7 0 0 -25750.7 0 0 14092.7 0 0 -14092.7 0 0 2675.66 0 0 -2675.66
0 0 26130.8 0 0 -26130.8 0 0 15333.5 0 0 -15333.5 0 0 2836.98 0 0 -2836.98
0 0 26287.4 0 0 -26287.4 0 0 17933.1 0 0 -17933.1 0 0 2805.25 0 0 -2805.25
0 0 26577.8 0 0 -26577.8 0 0 18522.7 0 0 -18522.7 0 0 2934.27 0 0 -2934.27
0 0 26879.7 0 0 -26879.7 0 0 18077.5 0 0 -18077.5 0 0 3340.3 0 0 -3340.3
0 0 27242.2 0 0 -27242.2 0 0 18085.8 0 0 -18085.8 0 0 3639.24 0 0 -3639.24
0 0 27565.9 0 0 -27565.9 0 0 18880.4 0 0 -18880.4 0 0 3837.31 0 0 -3837.31
0 0 27921.3 0 0 -27921.3 0 0 18987.3 0 0 -18987.3 0 0 4029.55 0 0 -4029.55
0 0 28340.9 0 0 -28340.9 0 0 18556 0 0 -18556 0 0 4272.22 0 0 -4272.22
0 0 28736.2 0 0 -28736.2 0 0 18086.5 0 0 -18086.5 0 0 4554.73 0 0 -4554.73
0 0 29090.7 0 0 -29090.7 0 0 17984.7 0 0 -17984.7 0 0 4802.62 0 0 -4802.62
0 0 29479.1 0 0 -29479.1 0 0 17816.1 0 0 -17816.1 0 0 5019.14 0 0 -5019.14
0 0 29873.5 0 0 -29873.5 0 0 17403.6 0 0 -17403.6 0 0 5228.02 0 0 -5228.02
0 0 30267.3 0 0 -30267.3 0 0 17032 0 0 -17032 0 0 5433.34 0 0 -5433.34
0 0 30715.3 0 0 -30715.3 0 0 16910.8 0 0 -16910.8 0 0 5606.95 0 0 -5606.95
0 0 31237.4 0 0 -31237.4 0 0 16883.5 0 0 -16883.5 0 0 5735.88 0 0 -5735.88
0 0 31797.4 0 0 -31797.4 0 0 16836.7 0 0 -16836.7 0 0 5828.34 0 0 -5828.34
0 0 32450.8 0 0 -32450.8 0 0 16876.9 0 0 -16876.9 0 0 5891.19 0 0 -5891.19
0 0 33189.7 0 0 -33189.7 0 0 17114.3 0 0 -17114.3 0 0 5917.91 0 0 -5917.91
0 0 33992.9 0 0 -33992.9 0 0 17488.8 0 0 -17488.8 0 0 5885.72 0 0 -5885.72
0 0 34872.6 0 0 -34872.6 0 0 17922.4 0 0 -17922.4 0 0 5786.78 0 0 -5786.78
0 0 35559.1 0 0 -35559.1 0 0 18383.7 0 0 -18383.7 0 0 5636.06 0 0 -5636.06
0 0 36303.6 0 0 -36303.6 0 0 18862.1 0 0 -18862.1 0 0 5425.29 0 0 -5425.29
0 0 37092.6 0 0 -37092.6 0 0 19494.1 0 0 -19494.1 0 0 5144.58 0 0 -5144.58
0 0 37902.5 0 0 -37902.5 0 0 20207.1 0 0 -20207.1 0 0 4820.33 0 0 -4820.33
0 0 38744.6 0 0 -38744.6 0 0 20865.2 0 0 -20865.2 0 0 4484.13 0 0 -4484.13
0 0 39589.4 0 0 -39589.4 0 0 21510 0 0 -21510 0 0 4153.04 0 0 -4153.04
0 0 40409.9 0 0 -40409.9 0 0 22178.6 0 0 -22178.6 0 0 3818.62 0 0 -3818.62
0 0 41184.3 0 0 -41184.3 0 0 22872.5 0 0 -22872.5 0 0 3480.04 0 0 -3480.04
0 0 41890.3 0 0 -41890.3 0 0 23545.6 0 0 -23545.6 0 0 3158.75 0 0 -3158.75
0 0 42503.5 0 0 -42503.5 0 0 24152.4 0 0 -24152.4 0 0 2880.57 0 0 -2880.57
0 0 43002.3 0 0 -43002.3 0 0 24690.7 0 0 -24690.7 0 0 2660.47 0 0 -2660.47
0 0 43383 0 0 -43383 0 0 25137.1 0 0 -25137.1 0 0 2497.19 0 0 -2497.19
0 0 43644 0 0 -43644 0 0 25510.1 0 0 -25510.1 0 0 2386.89 0 0 -2386.89
0 0 43781 0 0 -43781 0 0 25799.3 0 0 -25799.3 0 0 2336.48 0 0 -2336.48
0 0 43780.1 0 0 -43780.1 0 0 25959.6 0 0 -25959.6 0 0 2356.56 0 0 -2356.56
0 0 43568.6 0 0 -43568.6 0 0 25974.4 0 0 -25974.4 0 0 2453.35 0 0 -2453.35
0 0 43172 0 0 -43172 0 0 25800.1 0 0 -25800.1 0 0 2623.19 0 0 -2623.19
0 0 42571.7 0 0 -42571.7 0 0 25498.9 0 0 -25498.9 0 0 2849.47 0 0 -2849.47
0 0 41884.3 0 0 -41884.3 0 0 25121.7 0 0 -25121.7 0 0 3123.4 0 0 -3123.4
0 0 41055.1 0 0 -41055.1 0 0 24711.7 0 0 -24711.7 0 0 3433.63 0 0 -3433.63
0 0 40086.6 0 0 -40086.6 0 0 24217.1 0 0 -24217.1 0 0 3779.02 0 0 -3779.02
0 0 39098.1 0 0 -39098.1 0 0 23615.4 0 0 -23615.4 0 0 4149.61 0 0 -4149.61
0 0 38069.8 0 0 -38069.8 0 0 22984.6 0 0 -22984.6 0 0 4531.83 0 0 -4531.83
0 0 36993.1 0 0 -36993.1 0 0 22360 0 0 -22360 0 0 4916.01 0 0 -4916.01
0 0 35944.1 0 0 -35944.1 0 0 21696.4 0 0 -21696.4 0 0 5293.78 0 0 -5293.78
0 0 34973.5 0 0 -34973.5 0 0 21027.7 0 0 -21027.7 0 0 5648.09 0 0 -5648.09
0 0 34050 0 0 -34050 0 0 20423.3 0 0 -20423.3 0 0 5936.77 0 0 -5936.77
0 0 33173.8 0 0 -33173.8 0 0 19875.8 0 0 -19875.8 0 0 6102.03 0 0 -6102.03
0 0 32341 0 0 -32341 0 0 19329.6 0 0 -19329.6 0 0 5514.68 0 0 -5514.68
0 0 31549.9 0 0 -31549.9 0 0 18699.8 0 0 -18699.8 0 0 5763.74 0 0 -5763.74
0 0 30787.6 0 0 -30787.6 0 0 18362.5 0 0 -18362.5 0 0 5850.59 0 0 -5850.59
0 0 29882 0 0 -29882 0 0 18408.1 0 0 -18408.1 0 0 5684.3 0 0 -5684.3
0 0 29047.9 0 0 -29047.9 0 0 18540.3 0 0 -18540.3 0 0 5539.83 0 0 -5539.83
0 0 28172.4 0 0 -28172.4 0 0 18563.9 0 0 -18563.9 0 0 5624.26 0 0 -5624.26
0 0 27270 0 0 -27270 0 0 18646.7 0 0 -18646.7 0 0 5640.57 0 0 -5640.57
0 0 26332.9 0 0 -26332.9 0 0 18921.6 0 0 -18921.6 0 0 5439.64 0 0 -5439.64
0 0 25407.4 0 0 -25407.4 0 0 19294.8 0 0 -19294.8 0 0 5143.27 0 0 -5143.27
0 0 24477 0 0 -24477 0 0 19593.9 0 0 -19593.9 0 0 4948.55 0 0 -4948.55
0 0 23521.6 0 0 -23521.6 0 0 19756.4 0 0 -19756.4 0 0 4807.26 0 0 -4807.26
0 0 22587 0 0 -22587 0 0 19837.7 0 0 -19837.7 0 0 4598.02 0 0 -4598.02
0 0 21598.7 0 0 -21598.7 0 0 19940 0 0 -19940 0 0 4311.73 0 0 -4311.73
0 0 20533 0 0 -20533 0 0 19946.8 0 0 -19946.8 0 0 4061.75 0 0 -4061.75
0 0 19397.3 0 0 -19397.3 0 0 19768 0 0 -19768 0 0 3881.22 0 0 -3881.22
0 0 18150.1 0 0 -18150.1 0 0 19443.5 0 0 -19443.5 0 0 3719.71 0 0 -3719.71
0 0 16748.3 0 0 -16748.3 0 0 19005 0 0 -19005 0 0 3540.92 0 0 -3540.92
0 0 15163.5 0 0 -15163.5 0 0 18477.7 0 0 -18477.7 0 0 3378.91 0 0 -3378.91
0 0 13412.6 0 0 -13412.6 0 0 17794.5 0 0 -17794.5 0 0 3274.17 0 0 -3274.17
0 0 11659.8 0 0 -11659.8 0 0 16928.6 0 0 -16928.6 0 0 3213.58 0 0 -3213.58
0 0 9966.88 0 0 -9966.88 0 0 15929.8 0 0 -15929.8 0 0 3166.29 0 0 -3166.29
0 0 8202.01 0 0 -8202.01 0 0 14801 0 0 -14801 0 0 3128.52 0 0 -3128.52
0 0 6324.96 0 0 -6324.96 0 0 13547.5 0 0 -13547.5 0 0 3115.34 0 0 -3115.34
0 0 4383.68 0 0 -4383.68 0 0 12149.1 0 0 -12149.1 0 0 3130.73 0 0 -3130.73
0 0 2637.89 0 0 -2637.89 0 0 10665 0 0 -10665 0 0 3152.53 0 0 -3152.53
0 0 1391.72 0 0 -1391.72 0 0 9119.9 0 0 -9119.9 0 0 3162.18 0 0 -3162.18
0 0 675.497 0 0 -675.497 0 0 7521.91 0 0 -7521.91 0 0 3156.94 0 0 -3156.94
0 0 220.895 0 0 -220.895 0 0 5886.31 0 0 -5886.31 0 0 3134.99 0 0 -3134.99
0 0 -187.93 0 0 187.93 0 0 4289.6 0 0 -4289.6 0 0 3095.29 0 0 -3095.29
0 0 -593.844 0 0 593.844 0 0 2924.71 0 0 -2924.71 0 0 3033.87 0 0 -3033.87
0 0 -929.41 0 0 929.41 0 0 1915.51 0 0 -1915.51 0 0 2948.01 0 0 -2948.01
0 0 -1133.73 0 0 1133.73 0 0 1293.76 0 0 -1293.76 0 0 2830.96 0 0 -2830.96
0 0 -1275.1 0 0 1275.1 0 0 1190.48 0 0 -1190.48 0 0 2689.38 0 0 -2689.38
0 0 -1396.85 0 0 1396.85 0 0 1242.36 0 0 -1242.36 0 0 2504.01 0 0 -2504.01
0 0 -1508.75 0 0 1508.75 0 0 1277.53 0 0 -1277.53 0 0 2267.13 0 0 -2267.13
0 0 -1608.32 0 0 1608.32 0 0 1250.22 0 0 -1250.22 0 0 1989.69 0 0 -1989.69
0 0 -1669.66 0 0 1669.66 0 0 1175.41 0 0 -1175.41 0 0 1686.54 0 0 -1686.54
0 0 -1730.08 0 0 1730.08 0 0 1117.92 0 0 -1117.92 0 0 1342.81 0 0 -1342.81
0 0 -1773.68 0 0 1773.68 0 0 1091.13 0 0 -1091.13 0 0 952.329 0 0 -952.329
0 0 -1758.4 0 0 1758.4 0 0 1037.65 0 0 -1037.65 0 0 512.558 0 0 -512.558
0 0 -1534.51 0 0 1534.51 0 0 931.305 0 0 -931.305 0 0 24.3388 0 0 -24.3388
0 0 -1226.54 0 0 1226.54 0 0 783.488 0 0 -783.488 0 0 -254.396 0 0 254.396
0 0 -1004.73 0 0 1004.73 0 0 669.138 0 0 -669.138 0 0 -560.291 0 0 560.291
0 0 -705.807 0 0 705.807 0 0 585.196 0 0 -585.196 0 0 -900.966 0 0 900.966
0 0 -327.777 0 0 327.777 0 0 477.027 0 0 -477.027 0 0 -1251.02 0 0 1251.02
0 0 60.101 0 0 -60.101 0 0 303.424 0 0 -303.424 0 0 -1605.33 0 0 1605.33
0 0 469.482 0 0 -469.482 0 0 105.366 0 0 -105.366 0 0 -1967.68 0 0 1967.68
0 0 914.823 0 0 -914.823 0 0 -40.8489 0 0 40.8489 0 0 -2334.92 0 0 2334.92
0 0 1335.67 0 0 -1335.67 0 0 -210.837 0 0 210.837 0 0 -2696.33 0 0 2696.33
0 0 1772.95 0 0 -1772.95 0 0 -387.708 0 0 387.708 0 0 -3042.52 0 0 3042.52
0 0 2209.58 0 0 -2209.58 0 0 -632.598 0 0 632.598 0 0 -3368.2 0 0 3368.2
0 0 2662.24 0 0 -2662.24 0 0 -791.071 0 0 791.071 0 0 -3682.26 0 0 3682.26
0 0 3112.66 0 0 -3112.66 0 0 -807.123 0 0 807.123 0 0 -3976.59 0 0 3976.59
0 0 3564.8 0 0 -3564.8 0 0 -903.994 0 0 903.994 0 0 -4237.92 0 0 4237.92
0 0 3998.21 0 0 -3998.21 0 0 -1063.32 0 0 1063.32 0 0 -4460.38 0 0 4460.38
0 0 4404.27 0 0 -4404.27 0 0 -1119.68 0 0 1119.68 0 0 -4647.89 0 0 4647.89
0 0 4803.82 0 0 -4803.82 0 0 -1064.42 0 0 1064.42 0 0 -4802.18 0 0 4802.18
0 0 5178.51 0 0 -5178.51 0 0 -1002.96 0 0 1002.96 0 0 -4916.98 0 0 4916.98
0 0 5509.33 0 0 -5509.33 0 0 -1000.1 0 0 1000.1 0 0 -4990.5 0 0 4990.5
0 0 5780.83 0 0 -5780.83 0 0 -970.277 0 0 970.277 0 0 -5022.7 0 0 5022.7
0 0 6011.21 0 0 -6011.21 0 0 -886.962 0 0 886.962 0 0 -4991.63 0 0 4991.63
0 0 6218.7 0 0 -6218.7 0 0 -776.573 0 0 776.573 0 0 -4868.36 0 0 4868.36
0 0 6397.54 0 0 -6397.54 0 0 -645.025 0 0 645.025 0 0 -4652.22 0 0 4652.22
0 0 6539.04 0 0 -6539.04 0 0 -476.848 0 0 476.848 0 0 -4345.76 0 0 4345.76
0 0 6654.03 0 0 -6654.03 0 0 -279.083 0 0 279.083 0 0 -3954.07 0 0 3954.07
0 0 6757.62 0 0 -6757.62 0 0 -35.8747 0 0 35.8747 0 0 -3487.67 0 0 3487.67
0 0 6847.43 0 0 -6847.43 0 0 243.46 0 0 -243.46 0 0 -2952.56 0 0 2952.56
0 0 6921.77 0 0 -6921.77 0 0 534.312 0 0 -534.312 0 0 -2356.13 0 0 2356.13
0 0 6979.22 0 0 -6979.22 0 0 843.984 0 0 -843.984 0 0 -1709.81 0 0 1709.81
0 0 7029.46 0 0 -7029.46 0 0 1133.24 0 0 -1133.24 0 0 -1034.89 0 0 1034.89
0 0 7087.11 0 0 -7087.11 0 0 1420.35 0 0 -1420.35 0 0 -353.897 0 0 353.897
0 0 7145.18 0 0 -7145.18 0 0 1764.77 0 0 -1764.77 0 0 104.675 0 0 -104.675
0 0 7199.19 0 0 -7199.19 0 0 2159.04 0 0 -2159.04 0 0 441.314 0 0 -441.314
0 0 7244.32 0 0 -7244.32 0 0 2487.21 0 0 -2487.21 0 0 785.723 0 0 -785.723
0 0 7174.16 0 0 -7174.16 0 0 2775.16 0 0 -2775.16 0 0 1130.86 0 0 -1130.86
0 0 6976.87 0 0 -6976.87 0 0 3066.03 0 0 -3066.03 0 0 1467.51 0 0 -1467.51
0 0 6691.77 0 0 -6691.77 0 0 3411.59 0 0 -3411.59 0 0 1796.76 0 0 -1796.76
0 0 6305.29 0 0 -6305.29 0 0 3801 0 0 -3801 0 0 2124.88 0 0 -2124.88
0 0 5806.06 0 0 -5806.06 0 0 4169.97 0 0 -4169.97 0 0 2452.94 0 0 -2452.94
0 0 5136.97 0 0 -5136.97 0 0 4505.62 0 0 -4505.62 0 0 2777.26 0 0 -2777.26
0 0 4430.53 0 0 -4430.53 0 0 5424.43 0 0 -5424.43 0 0 3102.87 0 0 -3102.87
0 0 4044.28 0 0 -4044.28 0 0 7044.33 0 0 -7044.33 0 0 3471.01 0 0 -3471.01
0 0 3868.19 0 0 -3868.19 0 0 8727.58 0 0 -8727.58 0 0 3829.15 0 0 -3829.15
0 0 3483.04 0 0 -3483.04 0 0 10379.9 0 0 -10379.9 0 0 4182.54 0 0 -4182.54
0 0 3063.03 0 0 -3063.03 0 0 11839.6 0 0 -11839.6 0 0 4542.8 0 0 -4542.8
0 0 2737.15 0 0 -2737.15 0 0 13032.3 0 0 -13032.3 0 0 4913.58 0 0 -4913.58
0 0 2487.83 0 0 -2487.83 0 0 14063.2 0 0 -14063.2 0 0 5267.14 0 0 -5267.14
0 0 2231.6 0 0 -2231.6 0 0 14973.4 0 0 -14973.4 0 0 5605.81 0 0 -5605.81
0 0 2040.67 0 0 -2040.67 0 0 15669.2 0 0 -15669.2 0 0 5944.05 0 0 -5944.05
0 0 1911.43 0 0 -1911.43 0 0 16082.5 0 0 -16082.5 0 0 6279.39 0 0 -6279.39
0 0 1755.65 0 0 -1755.65 0 0 16227.9 0 0 -16227.9 0 0 6516.36 0 0 -6516.36
0 0 1521.14 0 0 -1521.14 0 0 16186 0 0 -16186 0 0 6638.46 0 0 -6638.46
0 0 1263.85 0 0 -1263.85 0 0 15897.5 0 0 -15897.5 0 0 6876.48 0 0 -6876.48
0 0 1035.39 0 0 -1035.39 0 0 15394.1 0 0 -15394.1 0 0 7106.58 0 0 -7106.58
0 0 839.195 0 0 -839.195 0 0 14854 0 0 -14854 0 0 7334.89 0 0 -7334.89
0 0 667.872 0 0 -667.872 0 0 14309.3 0 0 -14309.3 0 0 7515.6 0 0 -7515.6
0 0 552.491 0 0 -552.491 0 0 13676.3 0 0 -13676.3 0 0 7661.13 0 0 -7661.13
0 0 508.489 0 0 -508.489 0 0 12983.9 0 0 -12983.9 0 0 7733.57 0 0 -7733.57
0 0 485.735 0 0 -485.735 0 0 12300.7 0 0 -12300.7 0 0 7736.11 0 0 -7736.11
0 0 511.444 0 0 -511.444 0 0 11705.1 0 0 -11705.1 0 0 7736.92 0 0 -7736.92
0 0 628.659 0 0 -628.659 0 0 11290.6 0 0 -11290.6 0 0 7585.19 0 0 -7585.19
0 0 860.319 0 0 -860.319 0 0 10993.6 0 0 -10993.6 0 0 7347.75 0 0 -7347.75
0 0 1178.85 0 0 -1178.85 0 0 10733.4 0 0 -10733.4 0 0 7083.63 0 0 -7083.63
0 0 1591.46 0 0 -1591.46 0 0 10531.4 0 0 -10531.4 0 0 6742.78 0 0 -6742.78
0 0 2018.31 0 0 -2018.31 0 0 10469.2 0 0 -10469.2 0 0 6279.84 0 0 -6279.84
0 0 2450.39 0 0 -2450.39 0 0 10532 0 0 -10532 0 0 5743.32 0 0 -5743.32
0 0 2997.98 0 0 -2997.98 0 0 10603.5 0 0 -10603.5 0 0 5194.53 0 0 -5194.53
0 0 3568.43 0 0 -3568.43 0 0 10664.1 0 0 -10664.1 0 0 4614.82 0 0 -4614.82
0 0 4074.77 0 0 -4074.77 0 0 10763.2 0 0 -10763.2 0 0 4004.26 0 0 -4004.26
0 0 4594.54 0 0 -4594.54 0 0 10879.1 0 0 -10879.1 0 0 3364.56 0 0 -3364.56
0 0 5189.28 0 0 -5189.28 0 0 10933.8 0 0 -10933.8 0 0 2709.34 0 0 -2709.34
0 0 5747.03 0 0 -5747.03 0 0 10869.1 0 0 -10869.1 0 0 2062.15 0 0 -2062.15
0 0 6239.84 0 0 -6239.84 0 0 10717.1 0 0 -10717.1 0 0 1427.83 0 0 -1427.83
0 0 6699.2 0 0 -6699.2 0 0 10487.2 0 0 -10487.2 0 0 809.363 0 0 -809.363
0 0 7143.76 0 0 -7143.76 0 0 10148 0 0 -10148 0 0 215.913 0 0 -215.913
0 0 7486.5 0 0 -7486.5 0 0 9712.29 0 0 -9712.29 0 0 -156.696 0 0 156.696
0 0 7747.65 0 0 -7747.65 0 0 9151.6 0 0 -9151.6 0 0 -425.689 0 0 425.689
0 0 7967.19 0 0 -7967.19 0 0 8449.31 0 0 -8449.31 0 0 -670.718 0 0 670.718
0 0 8114.91 0 0 -8114.91 0 0 7625.88 0 0 -7625.88 0 0 -888.658 0 0 888.658
0 0 8191.91 0 0 -8191.91 0 0 6674.68 0 0 -6674.68 0 0 -1076.85 0 0 1076.85
0 0 8196.96 0 0 -8196.96 0 0 5625.3 0 0 -5625.3 0 0 -1236.41 0 0 1236.41
0 0 8153.81 0 0 -8153.81 0 0 4511.31 0 0 -4511.31 0 0 -1370.34 0 0 1370.34
0 0 8075.61 0 0 -8075.61 0 0 3424.33 0 0 -3424.33 0 0 -1478.99 0 0 1478.99
0 0 7984.16 0 0 -7984.16 0 0 2452.29 0 0 -2452.29 0 0 -1560.16 0 0 1560.16
0 0 7936.04 0 0 -7936.04 0 0 1496.76 0 0 -1496.76 0 0 -1620.48 0 0 1620.48
0 0 7891.73 0 0 -7891.73 0 0 619.517 0 0 -619.517 0 0 -1662.2 0 0 1662.2
0 0 7873.7 0 0 -7873.7 0 0 56.8115 0 0 -56.8115 0 0 -1683.85 0 0 1683.85
0 0 7978.26 0 0 -7978.26 0 0 -128.388 0 0 128.388 0 0 -1686.47 0 0 1686.47
0 0 8223.13 0 0 -8223.13 0 0 -83.3652 0 0 83.3652 0 0 -1664.95 0 0 1664.95
0 0 8474.95 0 0 -8474.95 0 0 27.6503 0 0 -27.6503 0 0 -1629.05 0 0 1629.05
0 0 8704.47 0 0 -8704.47 0 0 108.137 0 0 -108.137 0 0 -1588.42 0 0 1588.42
0 0 8950.37 0 0 -8950.37 0 0 133.429 0 0 -133.429 0 0 -1545.31 0 0 1545.31
0 0 9257.01 0 0 -9257.01 0 0 146.423 0 0 -146.423 0 0 -1504.49 0 0 1504.49
0 0 9527.56 0 0 -9527.56 0 0 175.647 0 0 -175.647 0 0 -1478.99 0 0 1478.99
0 0 9769.13 0 0 -9769.13 0 0 302.329 0 0 -302.329 0 0 -1463.08 0 0 1463.08
0 0 10026.2 0 0 -10026.2 0 0 418.725 0 0 -418.725 0 0 -1445.56 0 0 1445.56
0 0 10257.5 0 0 -10257.5 0 0 574.342 0 0 -574.342 0 0 -1426.8 0 0 1426.8
0 0 10417.1 0 0 -10417.1 0 0 836.962 0 0 -836.962 0 0 -1409.92 0 0 1409.92
0 0 10537.3 0 0 -10537.3 0 0 1197.13 0 0 -1197.13 0 0 -1389.84 0 0 1389.84
0 0 10637.6 0 0 -10637.6 0 0 1584.09 0 0 -1584.09 0 0 -1355.78 0 0 1355.78
0 0 10694 0 0 -10694 0 0 1942.56 0 0 -1942.56 0 0 -1309.83 0 0 1309.83
0 0 10691.2 0 0 -10691.2 0 0 2351.43 0 0 -2351.43 0 0 -1262.66 0 0 1262.66
0 0 10629.3 0 0 -10629.3 0 0 2896.34 0 0 -2896.34 0 0 -1203.63 0 0 1203.63
0 0 10501.6 0 0 -10501.6 0 0 3507.27 0 0 -3507.27 0 0 -1106.39 0 0 1106.39
0 0 10455.9 0 0 -10455.9 0 0 4858.93 0 0 -4858.93 0 0 -908.382 0 0 908.382
0 0 10343.1 0 0 -10343.1 0 0 6175.14 0 0 -6175.14 0 0 -650.948 0 0 650.948
0 0 10172.4 0 0 -10172.4 0 0 7457.18 0 0 -7457.18 0 0 -341.673 0 0 341.673
0 0 9809.82 0 0 -9809.82 0 0 8707.46 0 0 -8707.46 0 0 6.15198 0 0 -6.15198
0 0 9422.37 0 0 -9422.37 0 0 9810.37 0 0 -9810.37 0 0 322.084 0 0 -322.084
0 0 9041.51 0 0 -9041.51 0 0 10712.1 0 0 -10712.1 0 0 661.572 0 0 -661.572
0 0 8650.11 0 0 -8650.11 0 0 11444.1 0 0 -11444.1 0 0 1022.17 0 0 -1022.17
0 0 8156.49 0 0 -8156.49 0 0 12032.4 0 0 -12032.4 0 0 1412.53 0 0 -1412.53
0 0 7566.13 0 0 -7566.13 0 0 12475.5 0 0 -12475.5 0 0 1829.91 0 0 -1829.91
0 0 6859.26 0 0 -6859.26 0 0 12767.9 0 0 -12767.9 0 0 2268.36 0 0 -2268.36
0 0 6047.01 0 0 -6047.01 0 0 12906 0 0 -12906 0 0 2726.15 0 0 -2726.15
0 0 5144.75 0 0 -5144.75 0 0 12908.2 0 0 -12908.2 0 0 3199.59 0 0 -3199.59
0 0 4169.48 0 0 -4169.48 0 0 12802.5 0 0 -12802.5 0 0 3679.72 0 0 -3679.72
0 0 3131.9 0 0 -3131.9 0 0 12612.2 0 0 -12612.2 0 0 4154.57 0 0 -4154.57
0 0 2098.26 0 0 -2098.26 0 0 12345.9 0 0 -12345.9 0 0 4612.68 0 0 -4612.68
0 0 1208.04 0 0 -1208.04 0 0 12084.8 0 0 -12084.8 0 0 5044.55 0 0 -5044.55
0 0 632.818 0 0 -632.818 0 0 11833.6 0 0 -11833.6 0 0 5440.85 0 0 -5440.85
0 0 333.341 0 0 -333.341 0 0 11618.9 0 0 -11618.9 0 0 5798.13 0 0 -5798.13
0 0 104.938 0 0 -104.938 0 0 11403.1 0 0 -11403.1 0 0 6115.29 0 0 -6115.29
0 0 -78.9562 0 0 78.9562 0 0 11212 0 0 -11212 0 0 6383.19 0 0 -6383.19
0 0 -211.413 0 0 211.413 0 0 11100.8 0 0 -11100.8 0 0 6593 0 0 -6593
0 0 -271.359 0 0 271.359 0 0 11054.1 0 0 -11054.1 0 0 6742.97 0 0 -6742.97
0 0 -268.161 0 0 268.161 0 0 11035.9 0 0 -11035.9 0 0 6835.97 0 0 -6835.97
0 0 -238.253 0 0 238.253 0 0 11024.3 0 0 -11024.3 0 0 6872.34 0 0 -6872.34
0 0 -208.338 0 0 208.338 0 0 11017.6 0 0 -11017.6 0 0 6832.69 0 0 -6832.69
0 0 -165.731 0 0 165.731 0 0 10988.2 0 0 -10988.2 0 0 6702.59 0 0 -6702.59
0 0 -107.578 0 0 107.578 0 0 10857.1 0 0 -10857.1 0 0 6498.72 0 0 -6498.72
0 0 14.7992 0 0 -14.7992 0 0 10622.7 0 0 -10622.7 0 0 6232.55 0 0 -6232.55
0 0 60.5424 0 0 -60.5424 0 0 10312.7 0 0 -10312.7 0 0 5927.86 0 0 -5927.86
0 0 66.4771 0 0 -66.4771 0 0 9826.78 0 0 -9826.78 0 0 5587.1 0 0 -5587.1
0 0 77.5586 0 0 -77.5586 0 0 9165.02 0 0 -9165.02 0 0 5204.25 0 0 -5204.25
0 0 58.6788 0 0 -58.6788 0 0 8376.29 0 0 -8376.29 0 0 4815.7 0 0 -4815.7
0 0 -15.9828 0 0 15.9828 0 0 7425.35 0 0 -7425.35 0 0 4419.46 0 0 -4419.46
0 0 -145.561 0 0 145.561 0 0 6266.56 0 0 -6266.56 0 0 4004.39 0 0 -4004.39
0 0 -308.07 0 0 308.07 0 0 4948.64 0 0 -4948.64 0 0 3578.32 0 0 -3578.32
0 0 -483.479 0 0 483.479 0 0 3665.96 0 0 -3665.96 0 0 3143.89 0 0 -3143.89
0 0 -665.573 0 0 665.573 0 0 2383.71 0 0 -2383.71 0 0 2693.48 0 0 -2693.48
0 0 -863.806 0 0 863.806 0 0 1162.21 0 0 -1162.21 0 0 2224.96 0 0 -2224.96
0 0 -1041.31 0 0 1041.31 0 0 644.836 0 0 -644.836 0 0 1773.95 0 0 -1773.95
0 0 -1093.58 0 0 1093.58 0 0 569.042 0 0 -569.042 0 0 1316.46 0 0 -1316.46
0 0 -1080.13 0 0 1080.13 0 0 611.381 0 0 -611.381 0 0 834.137 0 0 -834.137
0 0 -1159.41 0 0 1159.41 0 0 628.337 0 0 -628.337 0 0 333.233 0 0 -333.233
0 0 -1274.51 0 0 1274.51 0 0 521.272 0 0 -521.272 0 0 -74.2025 0 0 74.2025
0 0 -1327.22 0 0 1327.22 0 0 368.631 0 0 -368.631 0 0 -357.815 0 0 357.815
0 0 -1338.53 0 0 1338.53 0 0 293.8 0 0 -293.8 0 0 -652.002 0 0 652.002
0 0 -1370.04 0 0 1370.04 0 0 285.984 0 0 -285.984 0 0 -958.281 0 0 958.281
0 0 -1413.02 0 0 1413.02 0 0 242.376 0 0 -242.376 0 0 -1270.01 0 0 1270.01
0 0 -1426.15 0 0 1426.15 0 0 109.077 0 0 -109.077 0 0 -1581.8 0 0 1581.8
0 0 -1412.35 0 0 1412.35 0 0 -60.0466 0 0 60.0466 0 0 -1895.55 0 0 1895.55
0 0 -1387.05 0 0 1387.05 0 0 -584.527 0 0 584.527 0 0 -2216.92 0 0 2216.92
0 0 -1354.31 0 0 1354.31 0 0 -343.007 0 0 343.007 0 0 -2565.24 0 0 2565.24
0 0 -1366.94 0 0 1366.94 0 0 -203.203 0 0 203.203 0 0 -2909.33 0 0 2909.33
0 0 -1268.24 0 0 1268.24 0 0 -533.628 0 0 533.628 0 0 -3246.79 0 0 3246.79
0 0 -1254.51 0 0 1254.51 0 0 -890.331 0 0 890.331 0 0 -3565.26 0 0 3565.26
0 0 -1264.58 0 0 1264.58 0 0 -865.726 0 0 865.726 0 0 -3877.95 0 0 3877.95
0 0 -1242.02 0 0 1242.02 0 0 -858.105 0 0 858.105 0 0 -4179.78 0 0 4179.78
0 0 -1201.55 0 0 1201.55 0 0 -1055.07 0 0 1055.07 0 0 -4470.78 0 0 4470.78
0 0 -1224.73 0 0 1224.73 0 0 -1231.69 0 0 1231.69 0 0 -4760.04 0 0 4760.04
0 0 -1261.29 0 0 1261.29 0 0 -1241.09 0 0 1241.09 0 0 -5005.2 0 0 5005.2
0 0 -1266.02 0 0 1266.02 0 0 -1272.22 0 0 1272.22 0 0 -5228.47 0 0 5228.47
0 0 -1284.61 0 0 1284.61 0 0 -1372.68 0 0 1372.68 0 0 -5445.53 0 0 5445.53
0 0 -1338.21 0 0 1338.21 0 0 -1437.01 0 0 1437.01 0 0 -5641.04 0 0 5641.04
0 0 -1402.66 0 0 1402.66 0 0 -1441.26 0 0 1441.26 0 0 -5796.28 0 0 5796.28
0 0 -1442.61 0 0 1442.61 0 0 -1450.18 0 0 1450.18 0 0 -5919.83 0 0 5919.83
0 0 -1503.28 0 0 1503.28 0 0 -1485.99 0 0 1485.99 0 0 -6024.5 0 0 6024.5
0 0 -1803.07 0 0 1803.07 0 0 -1505.89 0 0 1505.89 0 0 -6107.08 0 0 6107.08
0 0 -1583.32 0 0 1583.32 0 0 -1450.58 0 0 1450.58 0 0 -6152.58 0 0 6152.58
0 0 -1739.89 0 0 1739.89 0 0 -1396.38 0 0 1396.38 0 0 -6173.88 0 0 6173.88
0 0 -1967.49 0 0 1967.49 0 0 -1389.4 0 0 1389.4 0 0 -6167.62 0 0 6167.62
0 0 -1992.26 0 0 1992.26 0 0 -1352.47 0 0 1352.47 0 0 -6125.2 0 0 6125.2
0 0 -2057.46 0 0 2057.46 0 0 -1273.51 0 0 1273.51 0 0 -6041.83 0 0 6041.83
0 0 -2224.83 0 0 2224.83 0 0 -1200.05 0 0 1200.05 0 0 -5919.94 0 0 5919.94
0 0 -2312.35 0 0 2312.35 0 0 -1153.43 0 0 1153.43 0 0 -5765.17 0 0 5765.17
0 0 -2356.01 0 0 2356.01 0 0 -1098.09 0 0 1098.09 0 0 -5590.69 0 0 5590.69
0 0 -2450.07 0 0 2450.07 0 0 -1026.14 0 0 1026.14 0 0 -5401.38 0 0 5401.38
0 0 -2528.08 0 0 2528.08 0 0 -963.14 0 0 963.14 0 0 -5196.69 0 0 5196.69
0 0 -2556.65 0 0 2556.65 0 0 -913.11 0 0 913.11 0 0 -4980.47 0 0 4980.47
0 0 -2585.06 0 0 2585.06 0 0 -777.061 0 0 777.061 0 0 -4756.11 0 0 4756.11
0 0 -2596.41 0 0 2596.41 0 0 -516.449 0 0 516.449 0 0 -4527.37 0 0 4527.37
0 0 -2561.61 0 0 2561.61 0 0 -149.752 0 0 149.752 0 0 -4294.93 0 0 4294.93
0 0 -2517.84 0 0 2517.84 0 0 125.386 0 0 -125.386 0 0 -4068.81 0 0 4068.81
0 0 -2413.95 0 0 2413.95 0 0 221.455 0 0 -221.455 0 0 -3858.23 0 0 3858.23
0 0 -2164.71 0 0 2164.71 0 0 285.303 0 0 -285.303 0 0 -3654.55 0 0 3654.55
0 0 -1785.72 0 0 1785.72 0 0 384.984 0 0 -384.984 0 0 -3461.12 0 0 3461.12
0 0 -1319.88 0 0 1319.88 0 0 505.644 0 0 -505.644 0 0 -3276.84 0 0 3276.84
0 0 -825.226 0 0 825.226 0 0 585.636 0 0 -585.636 0 0 -3099.03 0 0 3099.03
0 0 -486.502 0 0 486.502 0 0 640.38 0 0 -640.38 0 0 -2925.3 0 0 2925.3
0 0 -294.584 0 0 294.584 0 0 715.701 0 0 -715.701 0 0 -2753.8 0 0 2753.8
0 0 -113.751 0 0 113.751 0 0 805.049 0 0 -805.049 0 0 -2582.07 0 0 2582.07
0 0 76.5138 0 0 -76.5138 0 0 881.861 0 0 -881.861 0 0 -2403.91 0 0 2403.91
0 0 254.694 0 0 -254.694 0 0 956.394 0 0 -956.394 0 0 -2217.54 0 0 2217.54
0 0 427.795 0 0 -427.795 0 0 1044.07 0 0 -1044.07 0 0 -2019.34 0 0 2019.34
0 0 590.668 0 0 -590.668 0 0 1138.25 0 0 -1138.25 0 0 -1806.23 0 0 1806.23
0 0 737.532 0 0 -737.532 0 0 1230.76 0 0 -1230.76 0 0 -1576.69 0 0 1576.69
0 0 865.987 0 0 -865.987 0 0 1326.72 0 0 -1326.72 0 0 -1330.08 0 0 1330.08
0 0 974.061 0 0 -974.061 0 0 1432.52 0 0 -1432.52 0 0 -1071.55 0 0 1071.55
0 0 1058.9 0 0 -1058.9 0 0 1543.12 0 0 -1543.12 0 0 -808.745 0 0 808.745
0 0 1119.19 0 0 -1119.19 0 0 1652.99 0 0 -1652.99 0 0 -550.653 0 0 550.653
0 0 1156.39 0 0 -1156.39 0 0 1762.73 0 0 -1762.73 0 0 -292.211 0 0 292.211
0 0 1168.13 0 0 -1168.13 0 0 1882.34 0 0 -1882.34 0 0 -26.3213 0 0 26.3213
0 0 1159.87 0 0 -1159.87 0 0 1997.54 0 0 -1997.54 0 0 135.32 0 0 -135.32
0 0 1139.7 0 0 -1139.7 0 0 2103.02 0 0 -2103.02 0 0 303.047 0 0 -303.047
0 0 1104.15 0 0 -1104.15 0 0 2214.25 0 0 -2214.25 0 0 477.8 0 0 -477.8
0 0 1061.25 0 0 -1061.25 0 0 2342.61 0 0 -2342.61 0 0 655.292 0 0 -655.292
0 0 1017.16 0 0 -1017.16 0 0 2401.24 0 0 -2401.24 0 0 831.713 0 0 -831.713
0 0 960.561 0 0 -960.561 0 0 2357.52 0 0 -2357.52 0 0 1004.12 0 0 -1004.12
0 0 904.029 0 0 -904.029 0 0 2236.96 0 0 -2236.96 0 0 1169.34 0 0 -1169.34
0 0 862.611 0 0 -862.611 0 0 2101.46 0 0 -2101.46 0 0 1321.2 0 0 -1321.2
0 0 841.275 0 0 -841.275 0 0 1953.18 0 0 -1953.18 0 0 1457.08 0 0 -1457.08
0 0 831.656 0 0 -831.656 0 0 1818.74 0 0 -1818.74 0 0 1572.87 0 0 -1572.87
0 0 843.889 0 0 -843.889 0 0 1746.35 0 0 -1746.35 0 0 1666.14 0 0 -1666.14
0 0 921.636 0 0 -921.636 0 0 1729.3 0 0 -1729.3 0 0 1734.64 0 0 -1734.64
0 0 1031.44 0 0 -1031.44 0 0 1793.08 0 0 -1793.08 0 0 1775.94 0 0 -1775.94
0 0 1184.23 0 0 -1184.23 0 0 1926.94 0 0 -1926.94 0 0 1788.67 0 0 -1788.67
0 0 1390.87 0 0 -1390.87 0 0 2127.74 0 0 -2127.74 0 0 1741.66 0 0 -1741.66
0 0 1624.56 0 0 -1624.56 0 0 2385.67 0 0 -2385.67 0 0 1631.78 0 0 -1631.78
0 0 1918.34 0 0 -1918.34 0 0 2661.63 0 0 -2661.63 0 0 1478.2 0 0 -1478.2
0 0 2188.58 0 0 -2188.58 0 0 2670.27 0 0 -2670.27 0 0 1270.18 0 0 -1270.18
0 0 2440.37 0 0 -2440.37 0 0 2611.27 0 0 -2611.27 0 0 1026.49 0 0 -1026.49
0 0 2754.97 0 0 -2754.97 0 0 2546.45 0 0 -2546.45 0 0 759.591 0 0 -759.591
0 0 3152.37 0 0 -3152.37 0 0 2520.57 0 0 -2520.57 0 0 470.275 0 0 -470.275
0 0 3547.33 0 0 -3547.33 0 0 2498.77 0 0 -2498.77 0 0 163.946 0 0 -163.946
0 0 3907.98 0 0 -3907.98 0 0 2436.29 0 0 -2436.29 0 0 -99.4279 0 0 99.4279
0 0 4265.74 0 0 -4265.74 0 0 2372.72 0 0 -2372.72 0 0 -334.43 0 0 334.43
0 0 4686.01 0 0 -4686.01 0 0 2350.08 0 0 -2350.08 0 0 -574.484 0 0 574.484
0 0 5110.92 0 0 -5110.92 0 0 2321.01 0 0 -2321.01 0 0 -809.867 0 0 809.867
0 0 5512.4 0 0 -5512.4 0 0 2274.54 0 0 -2274.54 0 0 -1036.18 0 0 1036.18
0 0 5893.6 0 0 -5893.6 0 0 2226.93 0 0 -2226.93 0 0 -1250.44 0 0 1250.44
0 0 6287.2 0 0 -6287.2 0 0 2196.56 0 0 -2196.56 0 0 -1450.38 0 0 1450.38
0 0 6679.67 0 0 -6679.67 0 0 2194.29 0 0 -2194.29 0 0 -1630.65 0 0 1630.65
0 0 7044.72 0 0 -7044.72 0 0 2184.98 0 0 -2184.98 0 0 -1783.71 0 0 1783.71
0 0 7385.42 0 0 -7385.42 0 0 2187.76 0 0 -2187.76 0 0 -1903.69 0 0 1903.69
0 0 7727.07 0 0 -7727.07 0 0 2210.31 0 0 -2210.31 0 0 -1988.37 0 0 1988.37
0 0 8056.76 0 0 -8056.76 0 0 2256.44 0 0 -2256.44 0 0 -2036.6 0 0 2036.6
0 0 8359.65 0 0 -8359.65 0 0 2323.86 0 0 -2323.86 0 0 -2043.58 0 0 2043.58
0 0 8645.9 0 0 -8645.9 0 0 2395.7 0 0 -2395.7 0 0 -1985.46 0 0 1985.46
0 0 8905.99 0 0 -8905.99 0 0 2483.68 0 0 -2483.68 0 0 -1862.96 0 0 1862.96
0 0 9144.76 0 0 -9144.76 0 0 2597.69 0 0 -2597.69 0 0 -1681.95 0 0 1681.95
0 0 9372.54 0 0 -9372.54 0 0 2734.83 0 0 -2734.83 0 0 -1443.83 0 0 1443.83
0 0 9585.98 0 0 -9585.98 0 0 2888.04 0 0 -2888.04 0 0 -1149.44 0 0 1149.44
0 0 9785.01 0 0 -9785.01 0 0 3043.99 0 0 -3043.99 0 0 -808.941 0 0 808.941
0 0 10191.5 0 0 -10191.5 0 0 3203.06 0 0 -3203.06 0 0 -454.17 0 0 454.17
0 0 11172.3 0 0 -11172.3 0 0 3380.06 0 0 -3380.06 0 0 -136.236 0 0 136.236
0 0 12152.5 0 0 -12152.5 0 0 3545.42 0 0 -3545.42 0 0 110.37 0 0 -110.37
0 0 13001.6 0 0 -13001.6 0 0 3676.55 0 0 -3676.55 0 0 334.703 0 0 -334.703
0 0 13661.4 0 0 -13661.4 0 0 3794.62 0 0 -3794.62 0 0 567.749 0 0 -567.749
0 0 14220.4 0 0 -14220.4 0 0 3960.98 0 0 -3960.98 0 0 806.63 0 0 -806.63
0 0 14722.5 0 0 -14722.5 0 0 4169.5 0 0 -4169.5 0 0 1056.52 0 0 -1056.52
0 0 15143 0 0 -15143 0 0 4380.57 0 0 -4380.57 0 0 1322.77 0 0 -1322.77
0 0 15651.5 0 0 -15651.5 0 0 5539.72 0 0 -5539.72 0 0 1628.71 0 0 -1628.71
0 0 16279.9 0 0 -16279.9 0 0 7230.9 0 0 -7230.9 0 0 1963.17 0 0 -1963.17
0 0 16917.7 0 0 -16917.7 0 0 8956.97 0 0 -8956.97 0 0 2302.31 0 0 -2302.31
0 0 17425.8 0 0 -17425.8 0 0 10730.9 0 0 -10730.9 0 0 2648.33 0 0 -2648.33
0 0 17845.7 0 0 -17845.7 0 0 12435.8 0 0 -12435.8 0 0 3012.52 0 0 -3012.52
0 0 18226 0 0 -18226 0 0 14028.2 0 0 -14028.2 0 0 3397.05 0 0 -3397.05
0 0 18493.3 0 0 -18493.3 0 0 15600.2 0 0 -15600.2 0 0 3792.15 0 0 -3792.15
0 0 18564.6 0 0 -18564.6 0 0 17194.9 0 0 -17194.9 0 0 4189.36 0 0 -4189.36
0 0 18431.4 0 0 -18431.4 0 0 18730.2 0 0 -18730.2 0 0 4589.07 0 0 -4589.07
0 0 18133.6 0 0 -18133.6 0 0 20106.2 0 0 -20106.2 0 0 4996.23 0 0 -4996.23
0 0 17542.2 0 0 -17542.2 0 0 21318.5 0 0 -21318.5 0 0 5409.01 0 0 -5409.01
0 0 16751.3 0 0 -16751.3 0 0 22490.3 0 0 -22490.3 0 0 5817.08 0 0 -5817.08
0 0 15861.1 0 0 -15861.1 0 0 23607.6 0 0 -23607.6 0 0 6218.8 0 0 -6218.8
0 0 14749.1 0 0 -14749.1 0 0 24673 0 0 -24673 0 0 6594.03 0 0 -6594.03
0 0 13677.4 0 0 -13677.4 0 0 25503 0 0 -25503 0 0 6982.24 0 0 -6982.24
0 0 12616 0 0 -12616 0 0 26108.7 0 0 -26108.7 0 0 7367.76 0 0 -7367.76
0 0 11496.2 0 0 -11496.2 0 0 26621.5 0 0 -26621.5 0 0 7733.86 0 0 -7733.86
0 0 10334 0 0 -10334 0 0 26989.3 0 0 -26989.3 0 0 7749.49 0 0 -7749.49
0 0 9145.59 0 0 -9145.59 0 0 27179 0 0 -27179 0 0 7762.31 0 0 -7762.31
0 0 7891.41 0 0 -7891.41 0 0 27194.3 0 0 -27194.3 0 0 7774.51 0 0 -7774.51
0 0 6540.89 0 0 -6540.89 0 0 27046.8 0 0 -27046.8 0 0 7785.95 0 0 -7785.95
0 0 5127.24 0 0 -5127.24 0 0 26768.1 0 0 -26768.1 0 0 7796.85 0 0 -7796.85
0 0 3816.64 0 0 -3816.64 0 0 26398.4 0 0 -26398.4 0 0 7806.33 0 0 -7806.33
0 0 2752.23 0 0 -2752.23 0 0 25944 0 0 -25944 0 0 7814.23 0 0 -7814.23
0 0 2049.08 0 0 -2049.08 0 0 25387.2 0 0 -25387.2 0 0 7820.6 0 0 -7820.6
0 0 1660.48 0 0 -1660.48 0 0 24707.7 0 0 -24707.7 0 0 7825.38 0 0 -7825.38
0 0 1409.99 0 0 -1409.99 0 0 23942.2 0 0 -23942.2 0 0 7828.37 0 0 -7828.37
0 0 1183.85 0 0 -1183.85 0 0 23157.4 0 0 -23157.4 0 0 7829.47 0 0 -7829.47
0 0 941.293 0 0 -941.293 0 0 22230.1 0 0 -22230.1 0 0 7781.78 0 0 -7781.78
0 0 747.145 0 0 -747.145 0 0 21146.7 0 0 -21146.7 0 0 7647.76 0 0 -7647.76
0 0 567.736 0 0 -567.736 0 0 20005.2 0 0 -20005.2 0 0 7423.45 0 0 -7423.45
0 0 385.347 0 0 -385.347 0 0 18801.6 0 0 -18801.6 0 0 7092.51 0 0 -7092.51
0 0 216.191 0 0 -216.191 0 0 17560.1 0 0 -17560.1 0 0 6716.87 0 0 -6716.87
0 0 83.1947 0 0 -83.1947 0 0 16270.4 0 0 -16270.4 0 0 6271.1 0 0 -6271.1
0 0 -14.6858 0 0 14.6858 0 0 14970.1 0 0 -14970.1 0 0 5749.3 0 0 -5749.3
0 0 -89.0517 0 0 89.0517 0 0 13678.3 0 0 -13678.3 0 0 5171.87 0 0 -5171.87
0 0 -143.481 0 0 143.481 0 0 12399.7 0 0 -12399.7 0 0 4523.44 0 0 -4523.44
0 0 -180.74 0 0 180.74 0 0 11105.9 0 0 -11105.9 0 0 3812.35 0 0 -3812.35
0 0 -157.681 0 0 157.681 0 0 9768.71 0 0 -9768.71 0 0 3053.47 0 0 -3053.47
0 0 -134.895 0 0 134.895 0 0 8396.01 0 0 -8396.01 0 0 2253.64 0 0 -2253.64
0 0 -133.319 0 0 133.319 0 0 6997.61 0 0 -6997.61 0 0 1420.64 0 0 -1420.64
0 0 -126.622 0 0 126.622 0 0 5556.16 0 0 -5556.16 0 0 562.413 0 0 -562.413
0 0 -119.011 0 0 119.011 0 0 4141.98 0 0 -4141.98 0 0 -94.5425 0 0 94.5425
0 0 -140.225 0 0 140.225 0 0 2836.32 0 0 -2836.32 0 0 -467.981 0 0 467.981
0 0 -191.344 0 0 191.344 0 0 1477.92 0 0 -1477.92 0 0 -839.391 0 0 839.391
0 0 -275.287 0 0 275.287 0 0 316.031 0 0 -316.031 0 0 -1200.97 0 0 1200.97
0 0 -341.378 0 0 341.378 0 0 -328.045 0 0 328.045 0 0 -1536.97 0 0 1536.97
0 0 -328.187 0 0 328.187 0 0 -588.505 0 0 588.505 0 0 -1850.9 0 0 1850.9
0 0 -323.329 0 0 323.329 0 0 -661.162 0 0 661.162 0 0 -2150.68 0 0 2150.68
0 0 -422.192 0 0 422.192 0 0 -689.495 0 0 689.495 0 0 -2435.83 0 0 2435.83
0 0 -594.638 0 0 594.638 0 0 -750.087 0 0 750.087 0 0 -2700.43 0 0 2700.43
0 0 -765.414 0 0 765.414 0 0 -830.72 0 0 830.72 0 0 -2941.99 0 0 2941.99
0 0 -939.795 0 0 939.795 0 0 -868.338 0 0 868.338 0 0 -3163.42 0 0 3163.42
0 0 -1839.12 0 0 1839.12 0 0 -792.576 0 0 792.576 0 0 -3367.39 0 0 3367.39
0 0 -1519.23 0 0 1519.23 0 0 -1636.18 0 0 1636.18 0 0 -3550.21 0 0 3550.21
0 0 -1545.55 0 0 1545.55 0 0 -921.951 0 0 921.951 0 0 -3772.77 0 0 3772.77
0 0 -2193.6 0 0 2193.6 0 0 -164.727 0 0 164.727 0 0 -3998.75 0 0 3998.75
0 0 -2521.44 0 0 2521.44 0 0 -563.501 0 0 563.501 0 0 -4197.53 0 0 4197.53
0 0 -2634.79 0 0 2634.79 0 0 -1036.2 0 0 1036.2 0 0 -4386.37 0 0 4386.37
0 0 -3029.84 0 0 3029.84 0 0 -676.8 0 0 676.8 0 0 -4601.1 0 0 4601.1
0 0 -3380.82 0 0 3380.82 0 0 -320.704 0 0 320.704 0 0 -4828.83 0 0 4828.83
0 0 -3554.58 0 0 3554.58 0 0 -526.793 0 0 526.793 0 0 -5100.99 0 0 5100.99
0 0 -3796.03 0 0 3796.03 0 0 -758.741 0 0 758.741 0 0 -5388.86 0 0 5388.86
0 0 -4060.52 0 0 4060.52 0 0 -632.863 0 0 632.863 0 0 -5683.83 0 0 5683.83
0 0 -4069.97 0 0 4069.97 0 0 -598.664 0 0 598.664 0 0 -6011.52 0 0 6011.52
0 0 -4050.61 0 0 4050.61 0 0 -803.065 0 0 803.065 0 0 -6379.56 0 0 6379.56
0 0 -4079.93 0 0 4079.93 0 0 -999.276 0 0 999.276 0 0 -6761.8 0 0 6761.8
0 0 -3966.13 0 0 3966.13 0 0 -922.541 0 0 922.541 0 0 -7141.1 0 0 7141.1
0 0 -3930.45 0 0 3930.45 0 0 -1122.74 0 0 1122.74 0 0 -7509.05 0 0 7509.05
0 0 -3897.28 0 0 3897.28 0 0 -1365.65 0 0 1365.65 0 0 -7921.73 0 0 7921.73
0 0 -3674 0 0 3674 0 0 -1520.4 0 0 1520.4 0 0 -8284.23 0 0 8284.23
0 0 -3590.08 0 0 3590.08 0 0 -1581.43 0 0 1581.43 0 0 -8349.17 0 0 8349.17
0 0 -3473.15 0 0 3473.15 0 0 -1720.21 0 0 1720.21 0 0 -8410.41 0 0 8410.41
0 0 -3270.51 0 0 3270.51 0 0 -1918.92 0 0 1918.92 0 0 -8471.07 0 0 8471.07
0 0 -3146.48 0 0 3146.48 0 0 -2051.87 0 0 2051.87 0 0 -8530.95 0 0 8530.95
0 0 -2984.1 0 0 2984.1 0 0 -2156.22 0 0 2156.22 0 0 -8588.73 0 0 8588.73
0 0 -127.898 0 0 127.898 0 0 -34.1631 0 0 34.1631 0 0 -8653.72 0 0 8653.72
0 0 -903.054 0 0 903.054 0 0 -2982.52 0 0 2982.52 0 0 -6697.92 0 0 6697.92
0 0 -280.774 0 0 280.774 0 0 -2394.77 0 0 2394.77 0 0 -7011.32 0 0 7011.32
0 0 -1554.51 0 0 1554.51 0 0 -2101.46 0 0 2101.46 0 0 -7686.74 0 0 7686.74
0 0 -2484.41 0 0 2484.41 0 0 -1875.84 0 0 1875.84 0 0 -8076.95 0 0 8076.95
0 0 -2524.18 0 0 2524.18 0 0 -2735.95 0 0 2735.95 0 0 -8379.43 0 0 8379.43
0 0 -2657.73 0 0 2657.73 0 0 -2491.75 0 0 2491.75 0 0 -8674.56 0 0 8674.56
0 0 -3006.76 0 0 3006.76 0 0 -1907.92 0 0 1907.92 0 0 -8710.1 0 0 8710.1
0 0 -2992.84 0 0 2992.84 0 0 -2022.9 0 0 2022.9 0 0 -8726.86 0 0 8726.86
0 0 -3038.99 0 0 3038.99 0 0 -2222.14 0 0 2222.14 0 0 -8738.38 0 0 8738.38
0 0 -3231.71 0 0 3231.71 0 0 -1971.91 0 0 1971.91 0 0 -8746.19 0 0 8746.19
0 0 -2583.23 0 0 2583.23 0 0 -1051.2 0 0 1051.2 0 0 -7997.7 0 0 7997.7
0 0 -4746.28 0 0 4746.28 0 0 -1133.83 0 0 1133.83 0 0 -8043.46 0 0 8043.46
0 0 -4048.15 0 0 4048.15 0 0 -379.158 0 0 379.158 0 0 -8034.3 0 0 8034.3
0 0 -3948.62 0 0 3948.62 0 0 -183.685 0 0 183.685 0 0 -8120.75 0 0 8120.75
0 0 -4906.32 0 0 4906.32 0 0 -954.026 0 0 954.026 0 0 -8209.24 0 0 8209.24
0 0 -4914.11 0 0 4914.11 0 0 -808.619 0 0 808.619 0 0 -8106.24 0 0 8106.24
0 0 -5165.94 0 0 5165.94 0 0 -34.2975 0 0 34.2975 0 0 -7998.1 0 0 7998.1
0 0 -5605.98 0 0 5605.98 0 0 389.684 0 0 -389.684 0 0 -8044.14 0 0 8044.14
0 0 -5905.94 0 0 5905.94 0 0 178.726 0 0 -178.726 0 0 -8148.82 0 0 8148.82
0 0 -6096.46 0 0 6096.46 0 0 347.954 0 0 -347.954 0 0 -8312.72 0 0 8312.72
0 0 -6355.03 0 0 6355.03 0 0 772.774 0 0 -772.774 0 0 -8528.78 0 0 8528.78
0 0 -6558.97 0 0 6558.97 0 0 912.796 0 0 -912.796 0 0 -8750.03 0 0 8750.03
0 0 -6687.87 0 0 6687.87 0 0 808.096 0 0 -808.096 0 0 -8777.87 0 0 8777.87
0 0 -6808.42 0 0 6808.42 0 0 878.913 0 0 -878.913 0 0 -8815.84 0 0 8815.84
0 0 -6874.8 0 0 6874.8 0 0 1027.53 0 0 -1027.53 0 0 -8861.11 0 0 8861.11
0 0 -6865.81 0 0 6865.81 0 0 987.655 0 0 -987.655 0 0 -8910.71 0 0 8910.71
0 0 -6823.31 0 0 6823.31 0 0 806.179 0 0 -806.179 0 0 -8960.05 0 0 8960.05
0 0 -6745.8 0 0 6745.8 0 0 678.816 0 0 -678.816 0 0 -9012.9 0 0 9012.9
0 0 -6598.52 0 0 6598.52 0 0 564.968 0 0 -564.968 0 0 -9071.34 0 0 9071.34
0 0 -6423.09 0 0 6423.09 0 0 358.613 0 0 -358.613 0 0 -9134.78 0 0 9134.78
0 0 -6217.45 0 0 6217.45 0 0 81.8497 0 0 -81.8497 0 0 -9201.71 0 0 9201.71
0 0 -5975.43 0 0 5975.43 0 0 -186.698 0 0 186.698 0 0 -9270.99 0 0 9270.99
0 0 -5711.46 0 0 5711.46 0 0 -439.372 0 0 439.372 0 0 -9342.18 0 0 9342.18
0 0 -5428.35 0 0 5428.35 0 0 -662.631 0 0 662.631 0 0 -9414.42 0 0 9414.42
0 0 -5130.75 0 0 5130.75 0 0 -856.656 0 0 856.656 0 0 -9486.55 0 0 9486.55
0 0 -4840.25 0 0 4840.25 0 0 -1035.49 0 0 1035.49 0 0 -9557.25 0 0 9557.25
0 0 -4571.1 0 0 4571.1 0 0 -1245.75 0 0 1245.75 0 0 -9625.5 0 0 9625.5
0 0 -4318.49 0 0 4318.49 0 0 -1538.92 0 0 1538.92 0 0 -9690.48 0 0 9690.48
0 0 -4124.43 0 0 4124.43 0 0 -1895.48 0 0 1895.48 0 0 -9751.82 0 0 9751.82
0 0 -3990.3 0 0 3990.3 0 0 -2314.65 0 0 2314.65 0 0 -9808.8 0 0 9808.8
0 0 -3870.05 0 0 3870.05 0 0 -2520.78 0 0 2520.78 0 0 -9858.83 0 0 9858.83
0 0 -3787.8 0 0 3787.8 0 0 -2601.81 0 0 2601.81 0 0 -9902.64 0 0 9902.64
0 0 -3780.06 0 0 3780.06 0 0 -2615.29 0 0 2615.29 0 0 -9940.29 0 0 9940.29
0 0 -3813.83 0 0 3813.83 0 0 -2635.47 0 0 2635.47 0 0 -9971.22 0 0 9971.22
0 0 -3900.35 0 0 3900.35 0 0 -2606.59 0 0 2606.59 0 0 -9995.4 0 0 9995.4
0 0 -4064.67 0 0 4064.67 0 0 -2494.61 0 0 2494.61 0 0 -10013.2 0 0 10013.2
0 0 -4242.55 0 0 4242.55 0 0 -2344.95 0 0 2344.95 0 0 -10024.9 0 0 10024.9
0 0 -4433.07 0 0 4433.07 0 0 -2211.74 0 0 2211.74 0 0 -2314.14 0 0 2314.14
0 0 -4948.19 0 0 4948.19 0 0 -941.168 0 0 941.168 0 0 -1954.97 0 0 1954.97
0 0 -5002.58 0 0 5002.58 0 0 -336.263 0 0 336.263 0 0 -2182.92 0 0 2182.92
0 0 -5121.67 0 0 5121.67 0 0 -830.251 0 0 830.251 0 0 -2085.1 0 0 2085.1
0 0 -5450.62 0 0 5450.62 0 0 -880.6 0 0 880.6 0 0 -1901.41 0 0 1901.41
0 0 -5563.38 0 0 5563.38 0 0 -252.744 0 0 252.744 0 0 -1955.56 0 0 1955.56
0 0 -5712.43 0 0 5712.43 0 0 152.462 0 0 -152.462 0 0 -2002.83 0 0 2002.83
0 0 -5890.65 0 0 5890.65 0 0 73.2668 0 0 -73.2668 0 0 -2089.71 0 0 2089.71
0 0 -5870.37 0 0 5870.37 0 0 81.1312 0 0 -81.1312 0 0 -2056.67 0 0 2056.67
0 0 -5751.45 0 0 5751.45 0 0 368.667 0 0 -368.667 0 0 -2114.08 0 0 2114.08
0 0 -5548.2 0 0 5548.2 0 0 518.942 0 0 -518.942 0 0 -2285.4 0 0 2285.4
0 0 -5253.3 0 0 5253.3 0 0 443.437 0 0 -443.437 0 0 -2314.14 0 0 2314.14
0 0 -4883.81 0 0 4883.81 0 0 440.945 0 0 -440.945 0 0 -2314.14 0 0 2314.14
0 0 -4644.8 0 0 4644.8 0 0 492.866 0 0 -492.866 0 0 -2314.14 0 0 2314.14
0 0 -4453.38 0 0 4453.38 0 0 442.174 0 0 -442.174 0 0 -2314.14 0 0 2314.14
0 0 -4334.71 0 0 4334.71 0 0 389.237 0 0 -389.237 0 0 -2314.14 0 0 2314.14
0 0 -4138.69 0 0 4138.69 0 0 516.431 0 0 -516.431 0 0 -2314.14 0 0 2314.14
0 0 -3865.67 0 0 3865.67 0 0 890.091 0 0 -890.091 0 0 -2314.14 0 0 2314.14
0 0 -3570.96 0 0 3570.96 0 0 1190.99 0 0 -1190.99 0 0 -2314.14 0 0 2314.14
0 0 -3308.95 0 0 3308.95 0 0 1069.34 0 0 -1069.34 0 0 -2314.14 0 0 2314.14
0 0 -3053.44 0 0 3053.44 0 0 810.709 0 0 -810.709 0 0 -2314.14 0 0 2314.14
0 0 -2757.67 0 0 2757.67 0 0 607.685 0 0 -607.685 0 0 -2314.14 0 0 2314.14
0 0 -2536.46 0 0 2536.46 0 0 491.716 0 0 -491.716 0 0 -2314.14 0 0 2314.14
0 0 -2293.82 0 0 2293.82 0 0 349.266 0 0 -349.266 0 0 -2314.14 0 0 2314.14
0 0 -2037.91 0 0 2037.91 0 0 179.402 0 0 -179.402 0 0 -2314.14 0 0 2314.14
0 0 -1824.42 0 0 1824.42 0 0 8.29603 0 0 -8.29603 0 0 -2314.14 0 0 2314.14
0 0 -1665.86 0 0 1665.86 0 0 -140.528 0 0 140.528 0 0 -2314.14 0 0 2314.14
0 0 -1488.14 0 0 1488.14 0 0 -257.72 0 0 257.72 0 0 -2314.14 0 0 2314.14
0 0 -1271.55 0 0 1271.55 0 0 -340.135 0 0 340.135 0 0 -2314.14 0 0 2314.14
0 0 -1118.86 0 0 1118.86 0 0 -412.202 0 0 412.202 0 0 -2314.14 0 0 2314.14
0 0 -1022.86 0 0 1022.86 0 0 -490.567 0 0 490.567 0 0 -2314.14 0 0 2314.14
0 0 -972.587 0 0 972.587 0 0 -556.193 0 0 556.193 0 0 -2290.85 0 0 2290.85
0 0 -946.568 0 0 946.568 0 0 -573.022 0 0 573.022 0 0 -2193.17 0 0 2193.17
0 0 -940.298 0 0 940.298 0 0 -544.03 0 0 544.03 0 0 -2029.8 0 0 2029.8
0 0 -975.57 0 0 975.57 0 0 -487.694 0 0 487.694 0 0 -1789.57 0 0 1789.57
0 0 -1018.17 0 0 1018.17 0 0 -382.042 0 0 382.042 0 0 -1472.39 0 0 1472.39
0 0 -1080.35 0 0 1080.35 0 0 -246.41 0 0 246.41 0 0 -1110.25 0 0 1110.25
0 0 -1198.45 0 0 1198.45 0 0 -168.571 0 0 168.571 0 0 -756.435 0 0 756.435
0 0 -1380.85 0 0 1380.85 0 0 -180.688 0 0 180.688 0 0 -382.729 0 0 382.729
0 0 -1599.21 0 0 1599.21 0 0 -142.289 0 0 142.289 0 0 2.9223 0 0 -2.9223
0 0 -1789.59 0 0 1789.59 0 0 -18.2149 0 0 18.2149 0 0 64.2704 0 0 -64.2704
0 0 -1945.03 0 0 1945.03 0 0 142.17 0 0 -142.17 0 0 135.291 0 0 -135.291
0 0 -2135.57 0 0 2135.57 0 0 336.215 0 0 -336.215 0 0 208.486 0 0 -208.486
0 0 -2360.19 0 0 2360.19 0 0 538.938 0 0 -538.938 0 0 282.725 0 0 -282.725
0 0 -2579.59 0 0 2579.59 0 0 724.099 0 0 -724.099 0 0 357.742 0 0 -357.742
0 0 -2763.63 0 0 2763.63 0 0 886.688 0 0 -886.688 0 0 432.22 0 0 -432.22
0 0 -2936.22 0 0 2936.22 0 0 1051.56 0 0 -1051.56 0 0 505.194 0 0 -505.194
0 0 -3115.38 0 0 3115.38 0 0 1241.13 0 0 -1241.13 0 0 575.397 0 0 -575.397
0 0 -3264.53 0 0 3264.53 0 0 1432.8 0 0 -1432.8 0 0 642.371 0 0 -642.371
0 0 -3374.14 0 0 3374.14 0 0 1566.34 0 0 -1566.34 0 0 705.422 0 0 -705.422
0 0 -3441.73 0 0 3441.73 0 0 1734.29 0 0 -1734.29 0 0 764.075 0 0 -764.075
0 0 -3462.55 0 0 3462.55 0 0 2041.39 0 0 -2041.39 0 0 818.074 0 0 -818.074
0 0 -3438.43 0 0 3438.43 0 0 2246.77 0 0 -2246.77 0 0 865.255 0 0 -865.255
0 0 -3402.49 0 0 3402.49 0 0 2328.06 0 0 -2328.06 0 0 903.798 0 0 -903.798
0 0 -3334.07 0 0 3334.07 0 0 2360.87 0 0 -2360.87 0 0 935.501 0 0 -935.501
0 0 -3205.91 0 0 3205.91 0 0 2347.79 0 0 -2347.79 0 0 959.635 0 0 -959.635
0 0 -3030.95 0 0 3030.95 0 0 2283.33 0 0 -2283.33 0 0 976.508 0 0 -976.508
0 0 -2854.02 0 0 2854.02 0 0 2197.44 0 0 -2197.44 0 0 986.258 0 0 -986.258
0 0 -2684.58 0 0 2684.58 0 0 2111.53 0 0 -2111.53 0 0 989.571 0 0 -989.571
0 0 -2336.9 0 0 2336.9 0 0 2007.84 0 0 -2007.84 0 0 971.63 0 0 -971.63
0 0 -1988.18 0 0 1988.18 0 0 1861.07 0 0 -1861.07 0 0 909.607 0 0 -909.607
0 0 -1687.14 0 0 1687.14 0 0 1683.03 0 0 -1683.03 0 0 814.477 0 0 -814.477
0 0 -1352.23 0 0 1352.23 0 0 1481.98 0 0 -1481.98 0 0 704.163 0 0 -704.163
0 0 -964.428 0 0 964.428 0 0 1339.57 0 0 -1339.57 0 0 603.539 0 0 -603.539
0 0 -580.758 0 0 580.758 0 0 1255.13 0 0 -1255.13 0 0 514.628 0 0 -514.628
0 0 -278.147 0 0 278.147 0 0 1071.58 0 0 -1071.58 0 0 452.358 0 0 -452.358
0 0 -72.9824 0 0 72.9824 0 0 807.852 0 0 -807.852 0 0 426.836 0 0 -426.836
0 0 85.1704 0 0 -85.1704 0 0 503.717 0 0 -503.717 0 0 442.232 0 0 -442.232
0 0 238.251 0 0 -238.251 0 0 235.807 0 0 -235.807 0 0 494.625 0 0 -494.625
0 0 385.713 0 0 -385.713 0 0 78.3169 0 0 -78.3169 0 0 574.305 0 0 -574.305
0 0 529.105 0 0 -529.105 0 0 48.9237 0 0 -48.9237 0 0 684.44 0 0 -684.44
0 0 668.411 0 0 -668.411 0 0 112.859 0 0 -112.859 0 0 839.892 0 0 -839.892
0 0 794.001 0 0 -794.001 0 0 217.036 0 0 -217.036 0 0 994.074 0 0 -994.074
0 0 965.34 0 0 -965.34 0 0 293.99 0 0 -293.99 0 0 1034.26 0 0 -1034.26
0 0 1089.96 0 0 -1089.96 0 0 292.92 0 0 -292.92 0 0 1085.88 0 0 -1085.88
0 0 1143.7 0 0 -1143.7 0 0 246.729 0 0 -246.729 0 0 1148.08 0 0 -1148.08
0 0 1132.09 0 0 -1132.09 0 0 216.287 0 0 -216.287 0 0 1218.67 0 0 -1218.67
0 0 1134.49 0 0 -1134.49 0 0 290.025 0 0 -290.025 0 0 1295.77 0 0 -1295.77
0 0 1155.31 0 0 -1155.31 0 0 541.99 0 0 -541.99 0 0 1378.28 0 0 -1378.28
0 0 1140.96 0 0 -1140.96 0 0 825.946 0 0 -825.946 0 0 1466.07 0 0 -1466.07
0 0 968.594 0 0 -968.594 0 0 968.948 0 0 -968.948 0 0 1559.2 0 0 -1559.2
0 0 659.353 0 0 -659.353 0 0 936.908 0 0 -936.908 0 0 1658.75 0 0 -1658.75
0 0 337.163 0 0 -337.163 0 0 768.801 0 0 -768.801 0 0 1763.61 0 0 -1763.61
0 0 10.2693 0 0 -10.2693 0 0 566.728 0 0 -566.728 0 0 1871.59 0 0 -1871.59
0 0 -240.754 0 0 240.754 0 0 655.793 0 0 -655.793 0 0 1981.09 0 0 -1981.09
0 0 -510.249 0 0 510.249 0 0 962.623 0 0 -962.623 0 0 2090.6 0 0 -2090.6
0 0 -783.33 0 0 783.33 0 0 1270.73 0 0 -1270.73 0 0 2198.18 0 0 -2198.18
0 0 -1065.57 0 0 1065.57 0 0 1459.6 0 0 -1459.6 0 0 2302.83 0 0 -2302.83
0 0 -1354.43 0 0 1354.43 0 0 1623.16 0 0 -1623.16 0 0 2402.64 0 0 -2402.64
0 0 -1672.79 0 0 1672.79 0 0 1867.76 0 0 -1867.76 0 0 2496.06 0 0 -2496.06
0 0 -1987.28 0 0 1987.28 0 0 2143.22 0 0 -2143.22 0 0 2582.92 0 0 -2582.92
0 0 -2290.11 0 0 2290.11 0 0 2379.67 0 0 -2379.67 0 0 2663.75 0 0 -2663.75
0 0 -2596.58 0 0 2596.58 0 0 2553.82 0 0 -2553.82 0 0 2738.32 0 0 -2738.32
0 0 -2910.28 0 0 2910.28 0 0 2679.77 0 0 -2679.77 0 0 2805.87 0 0 -2805.87
0 0 -3201.97 0 0 3201.97 0 0 2774.73 0 0 -2774.73 0 0 2865.77 0 0 -2865.77
0 0 -3463.31 0 0 3463.31 0 0 2795.8 0 0 -2795.8 0 0 2915.37 0 0 -2915.37
0 0 -3651.66 0 0 3651.66 0 0 2838.4 0 0 -2838.4 0 0 2954.61 0 0 -2954.61
0 0 -3749.87 0 0 3749.87 0 0 2891.23 0 0 -2891.23 0 0 2983.14 0 0 -2983.14
0 0 -3748.05 0 0 3748.05 0 0 2920.2 0 0 -2920.2 0 0 3002.04 0 0 -3002.04
0 0 -3650.91 0 0 3650.91 0 0 2893.42 0 0 -2893.42 0 0 3012.45 0 0 -3012.45
0 0 -3535.01 0 0 3535.01 0 0 2807.13 0 0 -2807.13 0 0 3012.6 0 0 -3012.6
0 0 -3397.33 0 0 3397.33 0 0 2693.24 0 0 -2693.24 0 0 2950.97 0 0 -2950.97
0 0 -3175.57 0 0 3175.57 0 0 2583.44 0 0 -2583.44 0 0 2811.86 0 0 -2811.86
0 0 -2936.23 0 0 2936.23 0 0 2478.66 0 0 -2478.66 0 0 2606.92 0 0 -2606.92
0 0 -2690.41 0 0 2690.41 0 0 2364.64 0 0 -2364.64 0 0 2360.15 0 0 -2360.15
0 0 -2451.9 0 0 2451.9 0 0 2311.19 0 0 -2311.19 0 0 2115.4 0 0 -2115.4
0 0 -2222.67 0 0 2222.67 0 0 2206.08 0 0 -2206.08 0 0 1850.74 0 0 -1850.74
0 0 -1979.95 0 0 1979.95 0 0 1969.44 0 0 -1969.44 0 0 1566.3 0 0 -1566.3
0 0 -1763.24 0 0 1763.24 0 0 1664.6 0 0 -1664.6 0 0 1277.64 0 0 -1277.64
0 0 -1568.25 0 0 1568.25 0 0 1495.42 0 0 -1495.42 0 0 987.965 0 0 -987.965
0 0 -1380.42 0 0 1380.42 0 0 1460.93 0 0 -1460.93 0 0 699.401 0 0 -699.401
0 0 -1225.67 0 0 1225.67 0 0 1405.69 0 0 -1405.69 0 0 425.469 0 0 -425.469
0 0 -1010.66 0 0 1010.66 0 0 1260.32 0 0 -1260.32 0 0 170.312 0 0 -170.312
0 0 -697.606 0 0 697.606 0 0 1089.31 0 0 -1089.31 0 0 -5.09494 0 0 5.09494
0 0 -493.272 0 0 493.272 0 0 988.726 0 0 -988.726 0 0 -34.4616 0 0 34.4616
0 0 -435.516 0 0 435.516 0 0 983.375 0 0 -983.375 0 0 -64.8466 0 0 64.8466
0 0 -391.23 0 0 391.23 0 0 996.574 0 0 -996.574 0 0 -95.1889 0 0 95.1889
0 0 -277.403 0 0 277.403 0 0 959.18 0 0 -959.18 0 0 -122.925 0 0 122.925
0 0 -130.458 0 0 130.458 0 0 863.244 0 0 -863.244 0 0 -147.286 0 0 147.286
0 0 -29.1187 0 0 29.1187 0 0 733.747 0 0 -733.747 0 0 -169.08 0 0 169.08
0 0 1.11598 0 0 -1.11598 0 0 580.984 0 0 -580.984 0 0 -188.792 0 0 188.792
0 0 14.2708 0 0 -14.2708 0 0 391.633 0 0 -391.633 0 0 -208.195 0 0 208.195
0 0 -11.0004 0 0 11.0004 0 0 272.362 0 0 -272.362 0 0 -226.987 0 0 226.987
0 0 -32.5289 0 0 32.5289 0 0 261.597 0 0 -261.597 0 0 -243.04 0 0 243.04
0 0 -27.9368 0 0 27.9368 0 0 278.327 0 0 -278.327 0 0 -257.264 0 0 257.264
0 0 3.76003 0 0 -3.76003 0 0 306.153 0 0 -306.153 0 0 -269.295 0 0 269.295
0 0 25.635 0 0 -25.635 0 0 332.911 0 0 -332.911 0 0 -279.311 0 0 279.311
0 0 6.09561 0 0 -6.09561 0 0 400.197 0 0 -400.197 0 0 -287.656 0 0 287.656
0 0 -42.5827 0 0 42.5827 0 0 493.784 0 0 -493.784 0 0 -295.111 0 0 295.111
0 0 -95.2844 0 0 95.2844 0 0 582.412 0 0 -582.412 0 0 -302.777 0 0 302.777
0 0 -132.977 0 0 132.977 0 0 648.896 0 0 -648.896 0 0 -309.798 0 0 309.798
0 0 -144.046 0 0 144.046 0 0 693.652 0 0 -693.652 0 0 -316.186 0 0 316.186
0 0 -126.211 0 0 126.211 0 0 734.204 0 0 -734.204 0 0 -322.568 0 0 322.568
0 0 -119.764 0 0 119.764 0 0 791.098 0 0 -791.098 0 0 -329.528 0 0 329.528
0 0 -139.363 0 0 139.363 0 0 872.306 0 0 -872.306 0 0 -337.454 0 0 337.454
0 0 -154.596 0 0 154.596 0 0 947.185 0 0 -947.185 0 0 -346.341 0 0 346.341
0 0 -138.987 0 0 138.987 0 0 990.919 0 0 -990.919 0 0 -356.274 0 0 356.274
0 0 -80.4613 0 0 80.4613 0 0 1001.59 0 0 -1001.59 0 0 -367.359 0 0 367.359
0 0 8.63404 0 0 -8.63404 0 0 987.366 0 0 -987.366 0 0 -379.884 0 0 379.884
0 0 108.342 0 0 -108.342 0 0 1066.74 0 0 -1066.74 0 0 -393.867 0 0 393.867
0 0 216.793 0 0 -216.793 0 0 1135.37 0 0 -1135.37 0 0 -409.192 0 0 409.192
0 0 329.324 0 0 -329.324 0 0 1124.64 0 0 -1124.64 0 0 -426.371 0 0 426.371
0 0 465.305 0 0 -465.305 0 0 1039.35 0 0 -1039.35 0 0 -444.222 0 0 444.222
0 0 637.436 0 0 -637.436 0 0 962.913 0 0 -962.913 0 0 -463.358 0 0 463.358
0 0 834.134 0 0 -834.134 0 0 914.85 0 0 -914.85 0 0 -483.804 0 0 483.804
0 0 1043.73 0 0 -1043.73 0 0 865.253 0 0 -865.253 0 0 -505.306 0 0 505.306
0 0 1253.81 0 0 -1253.81 0 0 877.518 0 0 -877.518 0 0 -527.204 0 0 527.204
0 0 1473.87 0 0 -1473.87 0 0 794.938 0 0 -794.938 0 0 -548.249 0 0 548.249
0 0 1692 0 0 -1692 0 0 626.473 0 0 -626.473 0 0 -567.567 0 0 567.567
0 0 1914.11 0 0 -1914.11 0 0 442.587 0 0 -442.587 0 0 -585.071 0 0 585.071
0 0 2158.49 0 0 -2158.49 0 0 307.523 0 0 -307.523 0 0 -600.968 0 0 600.968
0 0 2405.84 0 0 -2405.84 0 0 236.583 0 0 -236.583 0 0 -615.03 0 0 615.03
0 0 2637.22 0 0 -2637.22 0 0 206.404 0 0 -206.404 0 0 -626.752 0 0 626.752
0 0 2854.6 0 0 -2854.6 0 0 160.033 0 0 -160.033 0 0 -635.188 0 0 635.188
0 0 3063.62 0 0 -3063.62 0 0 65.7153 0 0 -65.7153 0 0 -639.093 0 0 639.093
0 0 3257.27 0 0 -3257.27 0 0 -57.3048 0 0 57.3048 0 0 -610.2 0 0 610.2
0 0 3429.15 0 0 -3429.15 0 0 -168.051 0 0 168.051 0 0 -519.142 0 0 519.142
0 0 3579.18 0 0 -3579.18 0 0 -218.834 0 0 218.834 0 0 -371.29 0 0 371.29
0 0 3703.59 0 0 -3703.59 0 0 -190.318 0 0 190.318 0 0 -170.07 0 0 170.07
0 0 3801.31 0 0 -3801.31 0 0 -108.052 0 0 108.052 0 0 4.85605 0 0 -4.85605
0 0 3874.88 0 0 -3874.88 0 0 -20.1551 0 0 20.1551 0 0 52.3408 0 0 -52.3408
0 0 3926.27 0 0 -3926.27 0 0 -60.0784 0 0 60.0784 0 0 113.313 0 0 -113.313
0 0 3957.12 0 0 -3957.12 0 0 -111.265 0 0 111.265 0 0 187.189 0 0 -187.189
0 0 3932.58 0 0 -3932.58 0 0 -49.0589 0 0 49.0589 0 0 269.949 0 0 -269.949
0 0 3843.35 0 0 -3843.35 0 0 148.83 0 0 -148.83 0 0 360.076 0 0 -360.076
0 0 3730.9 0 0 -3730.9 0 0 398.744 0 0 -398.744 0 0 457.818 0 0 -457.818
0 0 3580.55 0 0 -3580.55 0 0 591.636 0 0 -591.636 0 0 564.298 0 0 -564.298
0 0 3354.23 0 0 -3354.23 0 0 690.065 0 0 -690.065 0 0 679.585 0 0 -679.585
0 0 3115.45 0 0 -3115.45 0 0 758.983 0 0 -758.983 0 0 803.446 0 0 -803.446
0 0 2884.96 0 0 -2884.96 0 0 891.814 0 0 -891.814 0 0 934.218 0 0 -934.218
0 0 2631.09 0 0 -2631.09 0 0 1118.84 0 0 -1118.84 0 0 1069.99 0 0 -1069.99
0 0 2363.48 0 0 -2363.48 0 0 1406.89 0 0 -1406.89 0 0 1209.59 0 0 -1209.59
0 0 2105.67 0 0 -2105.67 0 0 1683.29 0 0 -1683.29 0 0 1352.18 0 0 -1352.18
0 0 1854.13 0 0 -1854.13 0 0 1895.53 0 0 -1895.53 0 0 1496.45 0 0 -1496.45
0 0 1589.92 0 0 -1589.92 0 0 2052.12 0 0 -2052.12 0 0 1640.51 0 0 -1640.51
0 0 1317.55 0 0 -1317.55 0 0 2204.75 0 0 -2204.75 0 0 1782.59 0 0 -1782.59
0 0 1065.38 0 0 -1065.38 0 0 2397.2 0 0 -2397.2 0 0 1921.67 0 0 -1921.67
0 0 854.238 0 0 -854.238 0 0 2623 0 0 -2623 0 0 2057.35 0 0 -2057.35
0 0 680.371 0 0 -680.371 0 0 2847.05 0 0 -2847.05 0 0 2188.97 0 0 -2188.97
0 0 526.744 0 0 -526.744 0 0 2988.06 0 0 -2988.06 0 0 2312.61 0 0 -2312.61
0 0 421.676 0 0 -421.676 0 0 3123.43 0 0 -3123.43 0 0 2429.81 0 0 -2429.81
0 0 337.997 0 0 -337.997 0 0 3261.17 0 0 -3261.17 0 0 2539.67 0 0 -2539.67
0 0 311.574 0 0 -311.574 0 0 3358.1 0 0 -3358.1 0 0 2641.74 0 0 -2641.74
0 0 349.992 0 0 -349.992 0 0 3455.38 0 0 -3455.38 0 0 2734.8 0 0 -2734.8
0 0 453.62 0 0 -453.62 0 0 3568.79 0 0 -3568.79 0 0 2818.17 0 0 -2818.17
0 0 594.811 0 0 -594.811 0 0 3682.61 0 0 -3682.61 0 0 2891.94 0 0 -2891.94
0 0 785.016 0 0 -785.016 0 0 3731.39 0 0 -3731.39 0 0 2957.24 0 0 -2957.24
0 0 1034.33 0 0 -1034.33 0 0 3680.91 0 0 -3680.91 0 0 3014.99 0 0 -3014.99
0 0 1278.01 0 0 -1278.01 0 0 3597.68 0 0 -3597.68 0 0 3065.01 0 0 -3065.01
0 0 1577.67 0 0 -1577.67 0 0 3561.54 0 0 -3561.54 0 0 3107.3 0 0 -3107.3
0 0 1983.56 0 0 -1983.56 0 0 3588.17 0 0 -3588.17 0 0 3142.44 0 0 -3142.44
0 0 2419.81 0 0 -2419.81 0 0 3599 0 0 -3599 0 0 3170.94 0 0 -3170.94
0 0 2677.23 0 0 -2677.23 0 0 3572.92 0 0 -3572.92 0 0 3193.42 0 0 -3193.42
0 0 2835.07 0 0 -2835.07 0 0 3497.38 0 0 -3497.38 0 0 3211.79 0 0 -3211.79
0 0 3019.08 0 0 -3019.08 0 0 3383.85 0 0 -3383.85 0 0 3226.23 0 0 -3226.23
0 0 3253.77 0 0 -3253.77 0 0 3261.63 0 0 -3261.63 0 0 3237.96 0 0 -3237.96
0 0 3505.57 0 0 -3505.57 0 0 3159.02 0 0 -3159.02 0 0 3246.88 0 0 -3246.88
0 0 3729.82 0 0 -3729.82 0 0 3088.8 0 0 -3088.8 0 0 3252.92 0 0 -3252.92
0 0 3893.22 0 0 -3893.22 0 0 3061.51 0 0 -3061.51 0 0 3256.68 0 0 -3256.68
0 0 4128.06 0 0 -4128.06 0 0 3062.01 0 0 -3062.01 0 0 3259.95 0 0 -3259.95
0 0 4372.2 0 0 -4372.2 0 0 3029.14 0 0 -3029.14 0 0 3264.35 0 0 -3264.35
0 0 4568.95 0 0 -4568.95 0 0 2965.71 0 0 -2965.71 0 0 3270.62 0 0 -3270.62
0 0 4693.51 0 0 -4693.51 0 0 2894.79 0 0 -2894.79 0 0 3279.11 0 0 -3279.11
0 0 4804.21 0 0 -4804.21 0 0 2824.9 0 0 -2824.9 0 0 3290.05 0 0 -3290.05
0 0 4943.54 0 0 -4943.54 0 0 2769.81 0 0 -2769.81 0 0 3303.25 0 0 -3303.25
0 0 5077.11 0 0 -5077.11 0 0 2759.91 0 0 -2759.91 0 0 3318.11 0 0 -3318.11
0 0 5177.39 0 0 -5177.39 0 0 2821.29 0 0 -2821.29 0 0 3334.44 0 0 -3334.44
0 0 5234.04 0 0 -5234.04 0 0 2918.33 0 0 -2918.33 0 0 3352.98 0 0 -3352.98
0 0 5264.63 0 0 -5264.63 0 0 3009.51 0 0 -3009.51 0 0 3375.04 0 0 -3375.04
0 0 5287.29 0 0 -5287.29 0 0 3065.73 0 0 -3065.73 0 0 3401.44 0 0 -3401.44
0 0 5309.54 0 0 -5309.54 0 0 3089.66 0 0 -3089.66 0 0 3431.89 0 0 -3431.89
0 0 5313.61 0 0 -5313.61 0 0 3123.35 0 0 -3123.35 0 0 3464.81 0 0 -3464.81
0 0 5287.16 0 0 -5287.16 0 0 3155.3 0 0 -3155.3 0 0 3497.88 0 0 -3497.88
0 0 5237.14 0 0 -5237.14 0 0 3159.7 0 0 -3159.7 0 0 3530.27 0 0 -3530.27
0 0 5187.12 0 0 -5187.12 0 0 3122.99 0 0 -3122.99 0 0 3562.24 0 0 -3562.24
0 0 5121.94 0 0 -5121.94 0 0 3040.2 0 0 -3040.2 0 0 3593.88 0 0 -3593.88
0 0 5040.1 0 0 -5040.1 0 0 2917.11 0 0 -2917.11 0 0 3624.73 0 0 -3624.73
0 0 4976.21 0 0 -4976.21 0 0 2784.93 0 0 -2784.93 0 0 3653.83 0 0 -3653.83
0 0 4926.47 0 0 -4926.47 0 0 2683.58 0 0 -2683.58 0 0 3680.13 0 0 -3680.13
0 0 4881.1 0 0 -4881.1 0 0 2612.56 0 0 -2612.56 0 0 3703.01 0 0 -3703.01
0 0 4842.76 0 0 -4842.76 0 0 2562.57 0 0 -2562.57 0 0 3722.49 0 0 -3722.49
0 0 4825.28 0 0 -4825.28 0 0 2529.91 0 0 -2529.91 0 0 3738.48 0 0 -3738.48
0 0 4835.88 0 0 -4835.88 0 0 2527.19 0 0 -2527.19 0 0 3750.32 0 0 -3750.32
0 0 4872.33 0 0 -4872.33 0 0 2584.37 0 0 -2584.37 0 0 3757.35 0 0 -3757.35
0 0 4931.91 0 0 -4931.91 0 0 2708.83 0 0 -2708.83 0 0 3758.7 0 0 -3758.7
0 0 5016.32 0 0 -5016.32 0 0 2895.63 0 0 -2895.63 0 0 3723.72 0 0 -3723.72
0 0 5145.52 0 0 -5145.52 0 0 3138.5 0 0 -3138.5 0 0 3655.6 0 0 -3655.6
0 0 5283.17 0 0 -5283.17 0 0 3426.57 0 0 -3426.57 0 0 3559.92 0 0 -3559.92
