0 1.52624e-05 8.10566e-06 0 -1.5205e-05 -8.15132e-06
0 1.51948e-05 8.1154e-06 0 -1.52728e-05 -8.14221e-06
0 1.50518e-05 8.13238e-06 0 -1.54167e-05 -8.12086e-06
0 1.47762e-05 8.15961e-06 0 -1.56931e-05 -8.08529e-06
0 1.44875e-05 8.18202e-06 0 -1.59814e-05 -8.0543e-06
0 1.41488e-05 8.20014e-06 0 -1.63184e-05 -8.02735e-06
0 1.37731e-05 8.20732e-06 0 -1.66899e-05 -8.01116e-06
0 1.33765e-05 8.19591e-06 0 -1.7079e-05 -8.01321e-06
0 1.29766e-05 8.15849e-06 0 -1.74668e-05 -8.04175e-06
0 1.25929e-05 8.08778e-06 0 -1.78329e-05 -8.10535e-06
0 1.22472e-05 7.97614e-06 0 -1.81542e-05 -8.21274e-06
0 1.19661e-05 7.81534e-06 0 -1.84124e-05 -8.37194e-06
0 1.17782e-05 7.59763e-06 0 -1.85757e-05 -8.58905e-06
0 1.1732e-05 7.31463e-06 0 -1.85847e-05 -8.87742e-06
0 1.18804e-05 6.95913e-06 0 -1.83917e-05 -9.24625e-06
0 1.22795e-05 6.52607e-06 0 -1.79375e-05 -9.70156e-06
0 1.29868e-05 6.01325e-06 0 -1.71596e-05 -1.02476e-05
0 1.40556e-05 5.42253e-06 0 -1.60051e-05 -1.0884e-05
0 1.55253e-05 4.76177e-06 0 -1.44353e-05 -1.16035e-05
0 1.74177e-05 4.04703e-06 0 -1.24284e-05 -1.23913e-05
0 1.9737e-05 3.30038e-06 0 -9.98102e-06 -1.32247e-05
0 2.24747e-05 2.55012e-06 0 -7.10406e-06 -1.40738e-05
0 2.56121e-05 1.83031e-06 0 -3.81892e-06 -1.49031e-05
0 2.91235e-05 1.18041e-06 0 -1.54625e-07 -1.56728e-05
0 3.29733e-05 6.41691e-07 0 3.84649e-06 -1.63555e-05
0 3.71137e-05 2.63947e-07 0 8.13601e-06 -1.68779e-05
0 4.14547e-05 1.0362e-07 0 1.26181e-05 -1.71845e-05
0 4.58386e-05 2.29915e-07 0 1.71278e-05 -1.72023e-05
0 5.00246e-05 7.17129e-07 0 2.14139e-05 -1.68463e-05
0 5.37079e-05 1.64053e-06 0 2.51612e-05 -1.60303e-05
0 5.65689e-05 3.06779e-06 0 2.80375e-05 -1.46655e-05
0 5.8305e-05 5.05438e-06 0 2.96832e-05 -1.26821e-05
0 5.86958e-05 7.62964e-06 0 2.99136e-05 -1.00514e-05
0 5.75817e-05 1.07942e-05 0 2.85972e-05 -6.76632e-06
0 5.48415e-05 1.45261e-05 0 2.5624e-05 -2.85852e-06
0 5.05545e-05 1.8751e-05 0 2.10205e-05 1.61027e-06
0 4.48074e-05 2.33765e-05 0 1.49134e-05 6.54098e-06
0 3.77728e-05 2.82878e-05 0 7.47897e-06 1.18027e-05
0 2.96815e-05 3.33417e-05 0 -1.05797e-06 1.72269e-05
0 2.07945e-05 3.83699e-05 0 -1.04202e-05 2.26394e-05
0 1.14069e-05 4.32164e-05 0 -2.03002e-05 2.78759e-05
0 1.81e-06 4.77119e-05 0 -3.03851e-05 3.27667e-05
0 -7.71505e-06 5.16943e-05 0 -4.03851e-05 3.71257e-05
0 -1.69189e-05 5.50077e-05 0 -5.00394e-05 4.07896e-05
0 -2.55889e-05 5.74684e-05 0 -5.91127e-05 4.36035e-05
0 -3.34833e-05 5.89957e-05 0 -6.73696e-05 4.54296e-05
0 -4.03601e-05 5.94737e-05 0 -7.45475e-05 4.61515e-05
0 -4.59446e-05 5.8804e-05 0 -8.03609e-05 4.56641e-05
0 -4.99498e-05 5.69134e-05 0 -8.45157e-05 4.38864e-05
0 -5.20959e-05 5.37643e-05 0 -8.67267e-05 4.07642e-05
0 -5.17869e-05 4.80561e-05 0 -8.63706e-05 3.49488e-05
0 -4.78344e-05 4.04541e-05 0 -8.22275e-05 2.70798e-05
0 -4.0165e-05 3.11566e-05 0 -7.42367e-05 1.73626e-05
0 -2.90969e-05 2.0503e-05 0 -6.2741e-05 6.13892e-06
0 -1.5381e-05 8.92941e-06 0 -4.85319e-05 -6.09358e-06
0 -2.0094e-07 -2.94419e-06 0 -3.28479e-05 -1.86942e-05
0 1.48979e-05 -1.448e-05 0 -1.72937e-05 -3.09419e-05
0 2.81368e-05 -2.50039e-05 0 -3.71753e-06 -4.20874e-05
0 3.77535e-05 -3.38905e-05 0 6.05953e-06 -5.14395e-05
0 4.22898e-05 -4.06398e-05 0 1.05301e-05 -5.84348e-05
0 4.07844e-05 -4.4928e-05 0 8.7045e-06 -6.27113e-05
0 3.28239e-05 -4.66263e-05 0 1.58854e-07 -6.41245e-05
0 1.85097e-05 -4.58088e-05 0 -1.49981e-05 -6.27595e-05
0 -1.603e-06 -4.27432e-05 0 -3.61856e-05 -5.89063e-05
0 -2.66057e-05 -3.78612e-05 0 -6.24562e-05 -5.30379e-05
0 -5.5362e-05 -3.17204e-05 0 -9.26236e-05 -4.57626e-05
0 -8.65701e-05 -2.49734e-05 0 -0.000125329 -3.77901e-05
0 -0.000118757 -1.83383e-05 0 -0.000159034 -2.98999e-05
0 -0.000150301 -1.25596e-05 0 -0.000192047 -2.2905e-05
0 -0.000179532 -8.35652e-06 0 -0.000222629 -1.75974e-05
0 -0.000204912 -6.36845e-06 0 -0.000249179 -1.46824e-05
0 -0.000225224 -7.09839e-06 0 -0.000270432 -1.47143e-05
0 -0.000239698 -1.08733e-05 0 -0.000285581 -1.80514e-05
0 -0.000247974 -1.78335e-05 0 -0.000294253 -2.48469e-05
0 -0.000250037 -2.79348e-05 0 -0.000296428 -3.50552e-05
0 -0.000246186 -4.09525e-05 0 -0.000292417 -4.84383e-05
0 -0.000237003 -5.64967e-05 0 -0.000282827 -6.45795e-05
0 -0.000223314 -7.40335e-05 0 -0.000268522 -8.29066e-05
0 -0.000206137 -9.29125e-05 0 -0.000250568 -0.000102722
0 -0.000186635 -0.000112399 0 -0.000230181 -0.000123237
0 -0.000166069 -0.000131707 0 -0.000208685 -0.000143609
0 -0.000145732 -0.000150044 0 -0.000187431 -0.000162986
0 -0.000126855 -0.000166651 0 -0.000167711 -0.000180549
0 -0.000110513 -0.000180842 0 -0.000150652 -0.000195561
0 -9.758e-05 -0.000192037 0 -0.000137172 -0.000207404
0 -8.87317e-05 -0.000199784 0 -0.000127982 -0.000215591
0 -8.45118e-05 -0.000203763 0 -0.000123652 -0.000219781
0 -8.53815e-05 -0.000203796 0 -0.000124661 -0.000219777
0 -9.16818e-05 -0.000199864 0 -0.000131354 -0.000215547
0 -0.000103517 -0.000192122 0 -0.000143828 -0.000207246
0 -0.000116825 -0.00018341 0 -0.000157807 -0.000197908
0 -0.000137762 -0.0001698 0 -0.000179749 -0.000183319
0 -0.000162556 -0.000153798 0 -0.000205684 -0.000166165
0 -0.000189868 -0.000136214 0 -0.000234202 -0.000147317
0 -0.000218117 -0.000117948 0 -0.000263649 -0.000127751
0 -0.000245612 -9.99429e-05 0 -0.000292255 -0.000108484
0 -0.000270643 -8.31291e-05 0 -0.00031823 -9.05236e-05
0 -0.000291572 -6.83747e-05 0 -0.000339862 -7.48091e-05
0 -0.00030694 -5.64335e-05 0 -0.000355628 -6.21591e-05
0 -0.000315528 -4.79067e-05 0 -0.000364254 -5.32271e-05
0 -0.000316416 -4.32089e-05 0 -0.00036478 -4.84663e-05
0 -0.000309037 -4.2541e-05 0 -0.000356618 -4.8101e-05
0 -0.000293182 -4.58809e-05 0 -0.000339555 -5.2115e-05
0 -0.000268945 -5.29891e-05 0 -0.000313699 -6.02592e-05
0 -0.000236655 -6.3421e-05 0 -0.000279407 -7.20684e-05
0 -0.000196912 -7.65324e-05 0 -0.000237323 -8.68677e-05
0 -0.000150707 -9.14851e-05 0 -0.000188503 -0.000103772
0 -9.94331e-05 -0.000107277 0 -0.000134417 -0.000121709
0 -4.47899e-05 -0.000122788 0 -7.68571e-05 -0.000139479
0 1.1205e-05 -0.000136824 0 -1.78369e-05 -0.000155805
0 6.63548e-05 -0.000148153 0 4.01395e-05 -0.00016935
0 0.000118816 -0.000156038 0 9.51979e-05 -0.000178986
0 0.000166547 -0.000159135 0 0.000145238 -0.000183965
0 0.000207723 -0.000156532 0 0.000188331 -0.000182869
0 0.000240591 -0.000147603 0 0.000222709 -0.000174923
0 0.000263896 -0.000131913 0 0.000247028 -0.000159819
0 0.000277055 -0.000109433 0 0.0002607 -0.000137445
0 0.000280218 -8.05186e-05 0 0.000263888 -0.000108131
0 0.000274157 -4.58625e-05 0 0.000257407 -7.26578e-05
0 0.000260037 -6.33616e-06 0 0.000242466 -3.18853e-05
0 0.000239218 3.69912e-05 0 0.000220502 1.2909e-05
0 0.000213224 8.2796e-05 0 0.000193122 6.04559e-05
0 0.000183755 0.000129676 0 0.000162101 0.000109228
0 0.000152683 0.000176155 0 0.000129424 0.000157626
0 0.00012196 0.000220714 0 9.71377e-05 0.000204051
0 9.34823e-05 0.000261877 0 6.72367e-05 0.000246937
0 6.90094e-05 0.000298298 0 4.15742e-05 0.000284856
0 5.01255e-05 0.000328796 0 2.18118e-05 0.000316532
0 3.86689e-05 0.000348417 0 9.70195e-06 0.000337791
0 3.52024e-05 0.000359694 0 6.73451e-06 0.000348402
0 4.08518e-05 0.000364888 0 1.24707e-05 0.000353974
0 5.59687e-05 0.000363783 0 2.86772e-05 0.000352308
0 8.11408e-05 0.000356408 0 5.51723e-05 0.000343995
0 0.000116122 0.00034188 0 9.20604e-05 0.000327766
0 0.00016007 0.00032093 0 0.000138237 0.000304818
0 0.000211395 0.00029463 0 0.000192137 0.000276249
0 0.000260344 0.000265844 0 0.000249395 0.000243723
0 0.000297663 0.00023785 0 0.000306839 0.000208682
0 0.000337151 0.000208341 0 0.000354134 0.000174618
0 0.000381178 0.000177262 0 0.000398032 0.000142913
0 0.000418533 0.000149135 0 0.000438806 0.00011224
0 0.000448487 0.000124768 0 0.000473333 8.51632e-05
0 0.00047349 0.000104054 0 0.000499367 6.30585e-05
0 0.000488481 8.85917e-05 0 0.000515568 4.67609e-05
0 0.000492201 7.92768e-05 0 0.000521233 3.66122e-05
0 0.000486602 7.58585e-05 0 0.000515815 3.31259e-05
0 0.000471289 7.83029e-05 0 0.000499986 3.61055e-05
0 0.000446151 8.63826e-05 0 0.000474185 4.51477e-05
0 0.00041155 9.95877e-05 0 0.000437894 5.99241e-05
0 0.000368464 0.000117106 0 0.000392899 7.92601e-05
0 0.000318744 0.0001377 0 0.000341056 0.000101988
0 0.000264667 0.000160002 0 0.000284536 0.000126681
0 0.000208586 0.000182612 0 0.000225995 0.000151716
0 0.000152492 0.000204335 0 0.000179716 0.00017351
0 0.000112954 0.000222255 0 0.000142003 0.000191197
0 7.97243e-05 0.000235773 0 0.00010752 0.000206057
0 5.17503e-05 0.000244992 0 7.94661e-05 0.000216569
0 3.00498e-05 0.000249481 0 5.82783e-05 0.000221447
0 1.67307e-05 0.000248546 0 4.48471e-05 0.000220831
0 1.12256e-05 0.00024209 0 3.95089e-05 0.000214301
0 1.3646e-05 0.000230073 0 4.26563e-05 0.000201907
0 2.42937e-05 0.000212786 0 5.37592e-05 0.000184031
0 4.334e-05 0.00019075 0 7.38682e-05 0.000160912
0 7.1033e-05 0.000164537 0 0.000103111 0.000133166
0 0.000106275 0.000135089 0 0.000140139 0.000101951
0 0.000147399 0.000103681 0 0.00018331 6.84944e-05
0 0.000192531 7.1665e-05 0 0.000230675 3.42444e-05
0 0.000239594 4.04565e-05 0 0.00027996 7.78141e-07
0 0.000286156 1.15666e-05 0 0.000328676 -3.03046e-05
0 0.000329676 -1.35256e-05 0 0.000374161 -5.74227e-05
0 0.000360621 -2.99554e-05 0 0.000406443 -7.52644e-05
0 0.00038681 -4.24855e-05 0 0.000433713 -8.89567e-05
0 0.000407184 -5.0612e-05 0 0.000454873 -9.79483e-05
0 0.000420884 -5.39535e-05 0 0.000469018 -0.000101822
0 0.000427268 -5.22694e-05 0 0.000475478 -0.000100312
0 0.000425938 -4.54722e-05 0 0.000473846 -9.33136e-05
0 0.000416775 -3.3635e-05 0 0.000464001 -8.08949e-05
0 0.000399966 -1.69912e-05 0 0.000446138 -6.3299e-05
0 0.000376002 4.07133e-06 0 0.000420775 -4.09417e-05
0 0.000345661 2.90194e-05 0 0.000388724 -1.43961e-05
0 0.000309961 5.71935e-05 0 0.000351051 1.56288e-05
0 0.000270076 8.78369e-05 0 0.000308985 4.83193e-05
0 0.000227249 0.000120128 0 0.000263822 8.27922e-05
0 0.000182707 0.000153209 0 0.000216851 0.000118128
0 0.000137616 0.000186212 0 0.000169294 0.000153399
0 9.30575e-05 0.000218279 0 0.000122285 0.000187697
0 5.0047e-05 0.000248582 0 7.68948e-05 0.000220143
0 9.55289e-06 0.000276336 0 3.41414e-05 0.000249904
0 -2.75146e-05 0.00030082 0 -5.01716e-06 0.000276212
0 -6.03395e-05 0.000321393 0 -3.97224e-05 0.000298385
0 -8.82484e-05 0.000337516 0 -6.92658e-05 0.000315852
0 -0.000110739 0.000348766 0 -9.31189e-05 0.000328163
0 -0.000127492 0.000354844 0 -0.000110944 0.000335005
0 -0.000138366 0.000355584 0 -0.000122591 0.000336203
0 -0.000143398 0.00035095 0 -0.0001281 0.000331723
0 -0.00013994 0.000340478 0 -0.000124485 0.000321107
0 -0.00013019 0.000324871 0 -0.000116607 0.00030534
0 -0.000116344 0.000304687 0 -0.000103364 0.000284791
0 -0.000101611 0.000280762 0 -9.00659e-05 0.000260322
0 -8.49008e-05 0.000253191 0 -7.43854e-05 0.000232405
0 -6.605e-05 0.000222596 0 -5.70108e-05 0.000201068
0 -4.62507e-05 0.000189614 0 -3.7805e-05 0.000167406
0 -2.62778e-05 0.000154963 0 -1.84653e-05 0.000131789
0 -6.92948e-06 0.000119215 0 2.05804e-07 9.51342e-05
0 1.09372e-05 8.30376e-05 0 1.74007e-05 5.81589e-05
0 2.63973e-05 4.7155e-05 0 3.22421e-05 2.15248e-05
0 3.86239e-05 1.31341e-05 0 4.38233e-05 -1.32282e-05
0 4.72252e-05 -1.94141e-05 0 5.15641e-05 -4.63154e-05
0 5.16735e-05 -5.00028e-05 0 5.51757e-05 -7.74046e-05
0 5.17902e-05 -7.83765e-05 0 5.42789e-05 -0.000106134
0 4.74678e-05 -0.000104358 0 4.87945e-05 -0.000132137
0 3.88751e-05 -0.000127561 0 3.88147e-05 -0.000155185
0 2.6188e-05 -0.000147872 0 2.45328e-05 -0.00017517
0 9.70538e-06 -0.000165263 0 6.24578e-06 -0.00019203
0 -1.0196e-05 -0.000179745 0 -1.5698e-05 -0.000205767
0 -3.3113e-05 -0.000191372 0 -4.08981e-05 -0.000216469
0 -5.863e-05 -0.000200268 0 -6.8913e-05 -0.00022429
0 -8.62956e-05 -0.000206629 0 -9.92616e-05 -0.000229437
0 -0.000115614 -0.000210696 0 -0.000131422 -0.000232165
0 -0.000146052 -0.000212733 0 -0.000164828 -0.00023277
0 -0.000177036 -0.000213039 0 -0.00019887 -0.000231586
0 -0.000207953 -0.000211946 0 -0.000232905 -0.000228969
0 -0.000238175 -0.000209807 0 -0.000266274 -0.000225291
0 -0.000267104 -0.000206964 0 -0.000298346 -0.000220928
0 -0.000294206 -0.000203741 0 -0.000328552 -0.000216238
0 -0.000319033 -0.000200441 0 -0.000356409 -0.00021155
0 -0.000341239 -0.000197337 0 -0.000381532 -0.000207154
0 -0.000360575 -0.000194668 0 -0.000403634 -0.000203302
0 -0.000376873 -0.000192626 0 -0.000422508 -0.000200206
0 -0.000390042 -0.00019136 0 -0.000438027 -0.000198031
0 -0.000400064 -0.000190977 0 -0.000450147 -0.000196896
0 -0.000405112 -0.000191813 0 -0.000450188 -0.000198251
0 -0.000402105 -0.000193721 0 -0.000437946 -0.000203709
0 -0.000394247 -0.000197384 0 -0.000433601 -0.000206397
0 -0.000385103 -0.000201717 0 -0.000425662 -0.000210481
0 -0.000377757 -0.000205878 0 -0.000416646 -0.000215331
0 -0.000370765 -0.000210116 0 -0.000409172 -0.000219793
0 -0.000361946 -0.00021461 0 -0.000400668 -0.000224583
0 -0.000352598 -0.000219123 0 -0.000391965 -0.000229266
0 -0.0003422 -0.00022362 0 -0.000380661 -0.000234266
0 -0.000329929 -0.000228114 0 -0.000367818 -0.000239209
0 -0.000315857 -0.000232374 0 -0.00035347 -0.000243897
0 -0.000300743 -0.000236088 0 -0.000337821 -0.000248199
0 -0.000284884 -0.000239122 0 -0.000321117 -0.000251897
0 -0.000268238 -0.00024135 0 -0.000303759 -0.000254682
0 -0.000251124 -0.000242522 0 -0.000286034 -0.00025637
0 -0.00023401 -0.000242374 0 -0.000268216 -0.00025679
0 -0.000217169 -0.000240755 0 -0.000250662 -0.000255738
0 -0.000200856 -0.000237557 0 -0.000233756 -0.000253009
0 -0.000185475 -0.000232625 0 -0.000217861 -0.000248453
0 -0.000171427 -0.000225816 0 -0.000203332 -0.000241959
0 -0.000159011 -0.000217049 0 -0.000190514 -0.000233436
0 -0.000148478 -0.000206305 0 -0.000179688 -0.000222834
0 -0.000140056 -0.000193599 0 -0.000171058 -0.000210156
0 -0.000133896 -0.000178987 0 -0.000164766 -0.000195462
0 -0.000130125 -0.000162561 0 -0.000160969 -0.000178848
0 -0.000128782 -0.000144476 0 -0.000159735 -0.00016046
0 -0.000129803 -0.000124942 0 -0.000160974 -0.000140516
0 -0.000133028 -0.000104216 0 -0.000164516 -0.000119275
0 -0.00013819 -8.25925e-05 0 -0.000170087 -9.70526e-05
0 -0.000144931 -6.0405e-05 0 -0.000177309 -7.42024e-05
0 -0.000152823 -3.80157e-05 0 -0.000185731 -5.11106e-05
0 -0.000161405 -1.58043e-05 0 -0.000194871 -2.81771e-05
0 -0.000170232 5.85093e-06 0 -0.000204264 -5.80146e-06
0 -0.000178919 2.65874e-05 0 -0.000213504 1.56308e-05
0 -0.000187162 4.60644e-05 0 -0.000222268 3.57604e-05
0 -0.000194724 6.39667e-05 0 -0.000230302 5.4259e-05
0 -0.000201415 8.00073e-05 0 -0.000237403 7.08298e-05
0 -0.000207032 9.35176e-05 0 -0.000243361 8.48145e-05
0 -0.000211538 0.000104782 0 -0.000248063 9.64203e-05
0 -0.000214819 0.000113611 0 -0.000251504 0.000105506
0 -0.000216881 0.000119899 0 -0.000253586 0.000111985
0 -0.000217711 0.000123556 0 -0.000254336 0.000115727
0 -0.000217347 0.000124544 0 -0.000253767 0.000116696
0 -0.000215816 0.000122826 0 -0.000251916 0.000114855
0 -0.000213115 0.000118355 0 -0.000248769 0.000110156
0 -0.000209176 0.000111172 0 -0.000244257 0.000102662
0 -0.000203861 0.000101352 0 -0.00023824 9.24294e-05
0 -0.000197009 8.90061e-05 0 -0.000230552 7.95597e-05
0 -0.000188457 7.42426e-05 0 -0.000221034 6.41625e-05
0 -0.000178089 5.73581e-05 0 -0.000209573 4.65336e-05
0 -0.000165799 3.84873e-05 0 -0.000196069 2.67901e-05
0 -0.000151542 1.79071e-05 0 -0.000180479 5.25023e-06
0 -0.000135309 -4.07186e-06 0 -0.000162809 -1.77866e-05
0 -0.000117135 -2.71072e-05 0 -0.000143105 -4.19667e-05
0 -9.71055e-05 -5.08244e-05 0 -0.000121468 -6.69091e-05
0 -7.53801e-05 -7.4817e-05 0 -9.80754e-05 -9.21912e-05
0 -5.22266e-05 -9.86446e-05 0 -7.32144e-05 -0.000117355
0 -2.80236e-05 -0.000121842 0 -4.72889e-05 -0.000141913
0 -3.23167e-06 -0.000143932 0 -2.07869e-05 -0.000165362
0 2.06635e-05 -0.000164335 0 5.38835e-06 -0.000187168
0 3.98478e-05 -0.000181943 0 2.50844e-05 -0.000205759
0 5.78399e-05 -0.000196934 0 4.76881e-05 -0.000222685
0 7.57079e-05 -0.000209501 0 6.68905e-05 -0.000236176
0 9.19418e-05 -0.000218945 0 8.47448e-05 -0.000246637
0 0.000105486 -0.000224894 0 0.000100149 -0.00025351
0 0.000116427 -0.000227241 0 0.000112971 -0.000256707
0 0.000124951 -0.000226055 0 0.000122808 -0.000255934
0 0.000130615 -0.000221056 0 0.000129589 -0.000251224
0 0.000133143 -0.00021223 0 0.000133292 -0.000242701
0 0.000132786 -0.000199768 0 0.000133967 -0.000230299
0 0.000129796 -0.000183868 0 0.00013172 -0.000214238
0 0.00012427 -0.000164723 0 0.000126835 -0.000194794
0 0.000116491 -0.000142624 0 0.00011967 -0.000172319
0 0.000106944 -0.000117985 0 0.000110616 -0.000147199
0 9.60948e-05 -9.12533e-05 0 0.000100148 -0.000119876
0 8.4378e-05 -6.28824e-05 0 8.87889e-05 -9.08494e-05
0 7.22872e-05 -3.33496e-05 0 7.70601e-05 -6.06413e-05
0 6.03868e-05 -3.60833e-06 0 6.54954e-05 -3.0023e-05
0 4.91601e-05 2.56644e-05 0 5.47172e-05 -3.15193e-07
0 3.90157e-05 5.46934e-05 0 4.50225e-05 2.94468e-05
0 3.04079e-05 8.29801e-05 0 3.69893e-05 5.81958e-05
0 2.38159e-05 0.000110037 0 3.10676e-05 8.57224e-05
0 1.97041e-05 0.000135518 0 2.77523e-05 0.000111504
0 1.85044e-05 0.000159072 0 2.74775e-05 0.000135216
0 2.06136e-05 0.000180386 0 3.06384e-05 0.000156526
0 2.63418e-05 0.000199201 0 3.75407e-05 0.000175195
0 3.58857e-05 0.000215354 0 4.83791e-05 0.000191037
0 4.93031e-05 0.000228769 0 6.32031e-05 0.000203957
0 6.65086e-05 0.000239444 0 8.19148e-05 0.000213953
0 8.7278e-05 0.000247437 0 0.000104274 0.00022111
0 0.000111261 0.000252886 0 0.000129916 0.000225593
0 0.000104557 0.00026536 0 -7.69074e-05 0.000267884
0 -6.2535e-06 0.000292387 0 -0.000186456 0.00031018
0 -2.308e-05 0.000301669 0 -0.00018565 0.000291863
0 8.53829e-05 0.000273625 0 -0.000122657 0.000286882
0 0.000176617 0.000252463 0 -5.53739e-05 0.000267984
0 0.000186962 0.000248319 0 -3.56754e-05 0.00025701
0 0.000185757 0.000243396 0 -2.31833e-05 0.000244704
0 0.0002365 0.000223982 0 1.1638e-05 0.000229014
0 0.00030548 0.000200796 0 6.43976e-05 0.000208609
0 0.00034491 0.000184722 0 0.000103593 0.000190825
0 0.00036179 0.000173595 0 0.000108189 0.000177707
0 0.00037672 0.000161429 0 0.000112253 0.000168041
0 0.000403333 0.000147515 0 0.000134201 0.000153513
0 0.000431252 0.000134317 0 0.000153851 0.000141986
0 0.000442456 0.00012636 0 0.00015987 0.00013369
0 0.000437141 0.000122775 0 0.000150926 0.000129668
0 0.000427889 0.00012055 0 0.000138852 0.000127942
0 0.000420826 0.000118862 0 0.000128117 0.000127459
0 0.000409674 0.000119428 0 0.000113306 0.000129179
0 0.000387995 0.000123379 0 8.92588e-05 0.000133737
0 0.000358369 0.000129536 0 5.87306e-05 0.000140548
0 0.000327428 0.00013623 0 2.97023e-05 0.000147757
0 0.000300816 0.000142295 0 -7.98871e-07 0.000155674
0 0.000271476 0.000149118 0 -3.43271e-05 0.000164653
0 0.000238002 0.000156631 0 -6.86248e-05 0.000172923
0 0.00020502 0.000163161 0 -0.000102943 0.000180795
0 0.000174777 0.00016808 0 -0.000136345 0.000187591
0 0.000145932 0.000171625 0 -0.000167894 0.000192721
0 0.000118531 0.00017356 0 -0.000196554 0.000195579
0 9.48444e-05 0.000173038 0 -0.000221509 0.000195927
0 7.59389e-05 0.00016966 0 -0.000242106 0.000193509
0 6.13948e-05 0.000163529 0 -0.000257821 0.000188021
0 5.55623e-05 0.000153828 0 -0.000268844 0.000179553
0 5.43169e-05 0.000141342 0 -0.000274053 0.000167966
0 5.69654e-05 0.000126298 0 -0.000273402 0.000153064
0 6.29023e-05 0.000109027 0 -0.000266775 0.000135179
0 7.39257e-05 8.94076e-05 0 -0.000254759 0.000114646
0 9.0215e-05 6.76963e-05 0 -0.000237708 9.19578e-05
0 0.000110803 4.44415e-05 0 -0.000216519 6.76217e-05
0 0.000133888 2.04084e-05 0 -0.000195049 4.27883e-05
0 0.0001575 -3.6043e-06 0 -0.000172415 1.7821e-05
0 0.000182664 -2.73906e-05 0 -0.000148082 -7.18167e-06
0 0.000209794 -5.07097e-05 0 -0.000122003 -3.14441e-05
0 0.000237167 -7.27086e-05 0 -9.55181e-05 -5.44251e-05
0 0.000262606 -9.24936e-05 0 -7.07218e-05 -7.52221e-05
0 0.000285106 -0.000109186 0 -4.85813e-05 -9.28647e-05
0 0.000304831 -0.000123049 0 -2.88946e-05 -0.00010761
0 0.000321634 -0.000133697 0 -1.17719e-05 -0.000118956
0 0.000334678 -0.000140722 0 1.71671e-06 -0.000126546
0 0.00034283 -0.000143757 0 1.02112e-05 -0.000129876
0 0.000345865 -0.000142616 0 1.39811e-05 -0.000129004
0 0.00034432 -0.000137396 0 1.28467e-05 -0.000123696
0 0.000338379 -0.000128171 0 7.18866e-06 -0.000114144
0 0.000327863 -0.000115 0 -1.85921e-06 -0.000100786
0 0.000314149 -9.8497e-05 0 -1.1949e-05 -8.4263e-05
0 0.00029929 -7.94327e-05 0 -2.17014e-05 -6.53283e-05
0 0.000282844 -5.79026e-05 0 -3.31322e-05 -4.35114e-05
0 0.000262743 -3.37093e-05 0 -4.7534e-05 -1.91579e-05
0 0.000239095 -7.28008e-06 0 -6.47432e-05 7.27481e-06
0 0.000213975 2.04551e-05 0 -8.32796e-05 3.51182e-05
0 0.000188781 4.87637e-05 0 -0.000102025 6.37039e-05
0 0.000163468 7.72638e-05 0 -0.000120569 9.24405e-05
0 0.00013791 0.000105558 0 -0.000139472 0.000120926
0 0.000112767 0.00013305 0 -0.000157938 0.000148542
0 8.92948e-05 0.000159033 0 -0.000174833 0.000174599
0 6.8351e-05 0.000182931 0 -0.000189624 0.000198583
0 4.99689e-05 0.000204398 0 -0.000202283 0.00022009
0 3.41325e-05 0.000223122 0 -0.000212809 0.000238746
0 2.12679e-05 0.00023872 0 -0.000220887 0.000254204
0 1.19252e-05 0.000250843 0 -0.000226122 0.000266154
0 6.27958e-06 0.000259297 0 -0.000228407 0.000274403
0 4.19135e-06 0.000264021 0 -0.000227845 0.000278854
0 5.61553e-06 0.000264983 0 -0.000224426 0.000279459
0 1.0735e-05 0.000262145 0 -0.000217898 0.000276186
0 1.97011e-05 0.000255564 0 -0.000208063 0.000269093
0 3.24165e-05 0.000245424 0 -0.000194739 0.000258322
0 4.88608e-05 0.000231955 0 -0.000177392 0.000243973
0 6.88822e-05 0.000215453 0 -0.000156623 0.000226514
0 9.1789e-05 0.000196411 0 -0.000132774 0.00020635
0 0.00011686 0.00017536 0 -0.000106487 0.000184007
0 0.00014346 0.000152833 0 -7.84753e-05 0.000160079
0 0.000170796 0.000129422 0 -4.95921e-05 0.000135213
0 0.00019793 0.000105757 0 -2.25608e-05 0.000110315
0 0.000224083 8.22388e-05 0 1.11315e-06 8.66671e-05
0 0.000247984 5.979e-05 0 2.36161e-05 6.3408e-05
0 0.000268826 3.88354e-05 0 4.26587e-05 4.21978e-05
0 0.000285596 2.00525e-05 0 5.8456e-05 2.29335e-05
0 0.000298598 3.56867e-06 0 7.44728e-05 5.45744e-06
0 0.000309052 -1.0612e-05 0 8.87277e-05 -9.78795e-06
0 0.000314793 -2.18625e-05 0 9.92745e-05 -2.17014e-05
0 0.00031359 -2.93928e-05 0 0.000104731 -3.03822e-05
0 0.000305715 -3.33037e-05 0 0.000104919 -3.54376e-05
0 0.000292315 -3.39014e-05 0 0.000101414 -3.72387e-05
0 0.000273051 -3.11615e-05 0 9.42144e-05 -3.59221e-05
0 0.000248598 -2.52799e-05 0 8.15616e-05 -3.11376e-05
0 0.000218529 -1.63999e-05 0 6.38224e-05 -2.33035e-05
0 0.000184039 -5.07879e-06 0 4.1863e-05 -1.28675e-05
0 0.00014649 8.06771e-06 0 1.68183e-05 -3.67458e-07
0 0.000106439 2.25956e-05 0 -1.07845e-05 1.36592e-05
0 6.39418e-05 3.81136e-05 0 -4.07299e-05 2.87163e-05
0 2.02462e-05 5.40033e-05 0 -7.24172e-05 4.41981e-05
0 -2.06613e-05 6.89025e-05 0 -0.000104867 5.96352e-05
0 -6.08257e-05 8.27391e-05 0 -0.000136292 7.39706e-05
0 -9.99683e-05 9.5249e-05 0 -0.000164829 8.63483e-05
0 -0.000137202 0.000105748 0 -0.00019189 9.64158e-05
0 -0.000171593 0.000113538 0 -0.000217141 0.000104123
0 -0.000202076 0.000118427 0 -0.000238891 0.000108718
0 -0.000227851 0.000119945 0 -0.000256925 0.00011
0 -0.000250468 0.000118335 0 -0.000286121 0.000110245
0 -0.000275264 0.000114499 0 -0.000305922 0.000106833
0 -0.000290961 0.000106222 0 -0.000321161 9.74545e-05
0 -0.000295422 9.26085e-05 0 -0.000328056 8.49831e-05
0 -0.000295145 7.61073e-05 0 -0.000327303 6.81459e-05
0 -0.00029062 5.64586e-05 0 -0.000317874 4.65373e-05
0 -0.000277857 3.29387e-05 0 -0.000301799 2.14506e-05
0 -0.000257388 5.97608e-06 0 -0.000282241 -6.10905e-06
0 -0.00023253 -2.31093e-05 0 -0.000255385 -3.67174e-05
0 -0.000203631 -5.38047e-05 0 -0.000223913 -6.93381e-05
0 -0.000170336 -8.56944e-05 0 -0.000188529 -0.000103142
0 -0.00013405 -0.000117937 0 -0.000150397 -0.000137226
0 -9.68003e-05 -0.000149522 0 -0.000110728 -0.000170879
0 -5.96199e-05 -0.000179695 0 -7.10488e-05 -0.000203119
0 -2.34735e-05 -0.000207723 0 -3.28897e-05 -0.000232995
0 1.00552e-05 -0.000232754 0 2.32747e-06 -0.000259683
0 3.94564e-05 -0.000254019 0 3.32569e-05 -0.000282428
0 6.36967e-05 -0.000270934 0 5.85958e-05 -0.00030051
0 8.18256e-05 -0.000283005 0 7.7193e-05 -0.000313336
0 9.28625e-05 -0.000289804 0 8.81415e-05 -0.000320489
0 9.61181e-05 -0.000291074 0 9.0773e-05 -0.000321703
0 9.13023e-05 -0.000286685 0 8.47058e-05 -0.000316816
0 7.84074e-05 -0.000276666 0 6.98963e-05 -0.000305812
0 5.76918e-05 -0.000261281 0 4.66905e-05 -0.000289024
0 2.97352e-05 -0.000240959 0 1.57202e-05 -0.000266908
0 -4.63729e-06 -0.000216279 0 -2.21675e-05 -0.000240084
0 -4.44529e-05 -0.000187942 0 -6.5922e-05 -0.000209307
0 -8.87998e-05 -0.00015672 0 -0.000114457 -0.000175431
0 -0.000136482 -0.0001235 0 -0.000166506 -0.000139396
0 -0.000186107 -8.92354e-05 0 -0.000220584 -0.000102238
0 -0.000236285 -5.49039e-05 0 -0.000275245 -6.49956e-05
0 -0.000285692 -2.14733e-05 0 -0.000329069 -2.87154e-05
0 -0.00032583 8.89122e-06 0 -0.000376834 5.15572e-06
0 -0.000350755 3.46951e-05 0 -0.000395905 3.09583e-05
0 -0.000371972 5.7441e-05 0 -0.000422046 5.54449e-05
0 -0.000393935 7.72469e-05 0 -0.000443353 7.63784e-05
0 -0.000412425 9.30099e-05 0 -0.000458809 9.1669e-05
0 -0.000424955 0.000103567 0 -0.000472222 0.000103475
0 -0.000432436 0.000109379 0 -0.00048049 0.000109914
0 -0.000436704 0.000110686 0 -0.000483965 0.000111015
0 -0.000436397 0.000106956 0 -0.000482562 0.000106916
0 -0.000429845 9.78702e-05 0 -0.000475652 9.75476e-05
0 -0.000417641 8.3817e-05 0 -0.000463352 8.31118e-05
0 -0.000400633 6.53365e-05 0 -0.000445509 6.37222e-05
0 -0.00037871 4.26997e-05 0 -0.000422464 3.984e-05
0 -0.00035193 1.62451e-05 0 -0.000394884 1.21176e-05
0 -0.000321315 -1.33334e-05 0 -0.000363293 -1.8846e-05
0 -0.000289936 -4.48253e-05 0 -0.000328905 -5.24531e-05
0 -0.000256243 -7.81095e-05 0 -0.000292707 -8.75987e-05
0 -0.000221194 -0.000112243 0 -0.000255542 -0.000123753
0 -0.000186315 -0.000146379 0 -0.000218668 -0.000159756
0 -0.000155808 -0.000179389 0 -0.000191265 -0.000193446
0 -0.000128729 -0.000210629 0 -0.000163211 -0.000225997
0 -0.000104285 -0.000239016 0 -0.00013805 -0.00025537
0 -8.27766e-05 -0.000264743 0 -0.000115584 -0.000282398
0 -6.48658e-05 -0.000283373 0 -9.7533e-05 -0.000300628
0 -5.08464e-05 -0.000298721 0 -8.32554e-05 -0.000316158
0 -4.11118e-05 -0.000311205 0 -7.27627e-05 -0.000329322
0 -3.64635e-05 -0.00032033 0 -6.78585e-05 -0.000338503
0 -3.72219e-05 -0.000326254 0 -6.85896e-05 -0.000344489
0 -4.32582e-05 -0.000328949 0 -7.47648e-05 -0.000346971
0 -5.42292e-05 -0.000328461 0 -8.61408e-05 -0.000345995
0 -6.97456e-05 -0.000324619 0 -0.000102239 -0.00034161
0 -8.93041e-05 -0.000317119 0 -0.000122638 -0.000333283
0 -0.00011225 -0.000306373 0 -0.000146565 -0.000321644
0 -0.000137774 -0.000292897 0 -0.000173233 -0.000307044
0 -0.000165022 -0.000277181 0 -0.000201736 -0.000290061
0 -0.000193106 -0.00025972 0 -0.000231115 -0.000271284
0 -0.000221097 -0.000241054 0 -0.000260408 -0.000251333
0 -0.000248078 -0.000221778 0 -0.000288662 -0.000230803
0 -0.000273184 -0.000202479 0 -0.000314964 -0.000210284
0 -0.000295622 -0.000183688 0 -0.00033848 -0.000190349
0 -0.000314682 -0.000165875 0 -0.000358458 -0.000171536
0 -0.000329752 -0.00014947 0 -0.000374256 -0.000154315
0 -0.000340338 -0.000134851 0 -0.000385357 -0.000139075
0 -0.000346069 -0.000122327 0 -0.000391363 -0.000126121
0 -0.000346698 -0.00011211 0 -0.000392022 -0.00011568
0 -0.000342115 -0.000104316 0 -0.000387214 -0.00010789
0 -0.000332342 -9.89818e-05 0 -0.000376958 -0.000102792
0 -0.000317541 -9.60597e-05 0 -0.000361429 -0.000100329
0 -0.000298025 -9.54157e-05 0 -0.000340952 -0.000100344
0 -0.000274257 -9.68264e-05 0 -0.000316015 -0.000102596
0 -0.000246848 -9.99901e-05 0 -0.000287261 -0.000106762
0 -0.000216544 -0.000104542 0 -0.000255465 -0.000112448
0 -0.000184189 -0.000110072 0 -0.000221514 -0.000119204
0 -0.000150672 -0.000116138 0 -0.000186335 -0.000126549
0 -0.000116889 -0.000122283 0 -0.000150867 -0.000133984
0 -8.3709e-05 -0.000128053 0 -0.000116023 -0.00014102
0 -5.19545e-05 -0.000133016 0 -8.26577e-05 -0.000147188
0 -2.23735e-05 -0.000136772 0 -5.15611e-05 -0.000152056
0 4.37094e-06 -0.000138971 0 -2.34243e-05 -0.000155242
0 2.77156e-05 -0.000139317 0 1.16161e-06 -0.000156426
0 4.72126e-05 -0.000137584 0 2.17229e-05 -0.00015536
0 6.25522e-05 -0.000133622 0 3.79393e-05 -0.000151883
0 7.35922e-05 -0.000127367 0 4.96544e-05 -0.000145918
0 8.03817e-05 -0.000118841 0 5.6917e-05 -0.000137492
0 8.31689e-05 -0.000108153 0 5.99791e-05 -0.000126722
0 8.23729e-05 -9.54935e-05 0 5.92592e-05 -0.000113814
0 7.85268e-05 -8.11162e-05 0 5.52815e-05 -9.90408e-05
0 7.21871e-05 -6.5318e-05 0 4.84557e-05 -8.26987e-05
0 6.36871e-05 -4.83844e-05 0 3.83887e-05 -6.49568e-05
0 5.34321e-05 -3.06494e-05 0 2.6889e-05 -4.63981e-05
0 4.29481e-05 -1.27781e-05 0 1.51701e-05 -2.78686e-05
0 3.31878e-05 3.52853e-06 0 3.86379e-06 -1.09311e-05
0 2.39103e-05 1.97161e-05 0 -6.84175e-06 6.14251e-06
0 1.54826e-05 3.52137e-05 0 -1.63559e-05 2.21263e-05
0 8.49683e-06 4.9654e-05 0 -2.48733e-05 3.72549e-05
0 2.99875e-06 6.28811e-05 0 -3.22254e-05 5.11537e-05
0 7.45792e-07 7.45262e-05 0 -3.53142e-05 6.3151e-05
0 -1.76979e-06 8.5077e-05 0 -3.85077e-05 7.36738e-05
0 -3.77591e-06 9.40801e-05 0 -4.19988e-05 8.28801e-05
0 -4.32423e-06 0.000101278 0 -4.47881e-05 9.04676e-05
0 -3.22456e-06 0.00010664 0 -4.66962e-05 9.62278e-05
0 -8.63423e-07 0.000110233 0 -4.83179e-05 0.000100287
0 2.19777e-06 0.00011216 0 -4.9842e-05 0.000102593
0 6.04864e-06 0.000112332 0 -5.12236e-05 0.000103184
0 1.08563e-05 0.000110694 0 -5.22313e-05 0.000102066
0 1.67986e-05 0.000107272 0 -5.26317e-05 9.91708e-05
0 2.36213e-05 0.000102123 0 -5.28443e-05 9.45848e-05
0 3.09693e-05 9.54069e-05 0 -5.28791e-05 8.84001e-05
0 3.88393e-05 8.71599e-05 0 -5.2792e-05 8.07322e-05
0 4.75031e-05 7.75422e-05 0 -5.2323e-05 7.17227e-05
0 5.70534e-05 6.66787e-05 0 -5.13199e-05 6.13832e-05
0 6.74205e-05 5.47573e-05 0 -4.9645e-05 5.00173e-05
0 7.85227e-05 4.20277e-05 0 -4.71115e-05 3.77206e-05
0 9.03991e-05 2.86882e-05 0 -4.36213e-05 2.47155e-05
0 0.000103071 1.49414e-05 0 -3.91308e-05 1.12372e-05
0 0.000116384 1.03905e-06 0 -3.37616e-05 -2.45282e-06
0 0.000130002 -1.27212e-05 0 -2.78331e-05 -1.6044e-05
0 0.000143567 -2.60356e-05 0 -2.17094e-05 -2.9224e-05
0 0.000156792 -3.86281e-05 0 -1.57231e-05 -4.16872e-05
0 0.000169424 -5.02435e-05 0 -1.01602e-05 -5.3146e-05
0 0.000181193 -6.0635e-05 0 -5.30637e-06 -6.33318e-05
0 0.000191829 -6.95708e-05 0 -1.43691e-06 -7.20027e-05
0 0.000201108 -7.685e-05 0 1.2173e-06 -7.89503e-05
0 0.000208856 -8.22822e-05 0 2.44769e-06 -8.3979e-05
0 0.000214908 -8.58246e-05 0 2.0289e-06 -8.69869e-05
0 0.00021919 -8.7378e-05 0 -1.49631e-07 -8.78551e-05
0 0.000221581 -8.69255e-05 0 -4.22723e-06 -8.65555e-05
0 0.000222021 -8.4561e-05 0 -1.02792e-05 -8.31465e-05
0 0.000220541 -8.02397e-05 0 -1.82853e-05 -7.76139e-05
0 0.000217283 -7.40848e-05 0 -2.81234e-05 -7.00918e-05
0 0.000212212 -6.61536e-05 0 -3.65567e-05 -6.12593e-05
0 0.000206233 -5.67002e-05 0 -4.54483e-05 -5.12016e-05
0 0.000199235 -4.60067e-05 0 -5.61536e-05 -3.93106e-05
0 0.000190582 -3.39926e-05 0 -6.76086e-05 -2.63967e-05
0 0.000180602 -2.0987e-05 0 -8.0481e-05 -1.23109e-05
0 0.000169892 -7.29108e-06 0 -9.40625e-05 2.48186e-06
0 0.00015902 6.77344e-06 0 -0.00010787 1.76441e-05
0 0.000148169 2.08953e-05 0 -0.000121889 3.29388e-05
0 0.000137343 3.46384e-05 0 -0.000135932 4.71494e-05
0 0.000126791 4.80472e-05 0 -0.000150049 6.1408e-05
0 0.000117058 6.07944e-05 0 -0.00016356 7.47861e-05
0 0.000108692 7.25621e-05 0 -0.00017621 8.73061e-05
0 0.00010194 8.31514e-05 0 -0.000187653 9.86236e-05
0 9.70725e-05 9.23731e-05 0 -0.000198034 0.000108624
0 9.38522e-05 0.000100162 0 -0.000207979 0.000117339
0 9.26683e-05 0.000106371 0 -0.000216039 0.000124303
0 9.48914e-05 0.000110626 0 -0.000221285 0.000129352
0 0.000101064 0.000112808 0 -0.00022295 0.00013232
0 0.000110774 0.000113068 0 -0.000220479 0.000133119
0 0.000123815 0.00011155 0 -0.000213189 0.000131624
0 0.000140663 0.000108246 0 -0.000201637 0.000128139
0 0.000161361 0.000103292 0 -0.000186097 0.000122916
0 0.000185119 9.70314e-05 0 -0.000167313 0.000116265
0 0.000211054 8.98266e-05 0 -0.000146133 0.000108562
0 0.000238332 8.20936e-05 0 -0.000123407 0.000100266
0 0.000266088 7.42591e-05 0 -0.000100008 9.18417e-05
0 0.000293355 6.67729e-05 0 -7.68961e-05 8.37797e-05
0 0.00031917 6.00824e-05 0 -5.49952e-05 7.65452e-05
0 0.000342722 5.45849e-05 0 -3.50877e-05 7.056e-05
0 0.000363386 5.06119e-05 0 -1.77867e-05 6.61816e-05
0 0.000380643 4.84369e-05 0 -3.58484e-06 6.37059e-05
0 0.000394054 4.8234e-05 0 7.10515e-06 6.33558e-05
0 0.000403313 4.99732e-05 0 1.40086e-05 6.50314e-05
0 0.000408228 5.38831e-05 0 1.69795e-05 6.89146e-05
0 0.000406834 6.03203e-05 0 1.61444e-05 7.50075e-05
0 0.000401015 6.88616e-05 0 1.12656e-05 8.32336e-05
0 0.000391575 7.92223e-05 0 2.63942e-06 9.35725e-05
0 0.00037925 9.11217e-05 0 -8.93354e-06 0.000105616
0 0.000364495 0.000104268 0 -2.40378e-05 0.000119316
0 0.000346753 0.000118558 0 -4.25043e-05 0.000134407
0 0.00032605 0.000133754 0 -6.37462e-05 0.00015037
0 0.000303338 0.000149341 0 -8.70673e-05 0.000166852
0 0.000279396 0.000164879 0 -0.000111756 0.000183362
0 0.000256462 0.000179622 0 -0.000137303 0.000199518
0 0.000233951 0.000193451 0 -0.000161901 0.000214692
0 0.000213023 0.000205822 0 -0.000183598 0.000228017
0 0.000194477 0.000216274 0 -0.000201799 0.000239252
0 0.000178479 0.000224595 0 -0.000217011 0.000248207
0 0.000164657 0.000230706 0 -0.000229396 0.00025471
0 0.000153017 0.000234475 0 -0.000239033 0.000258595
0 0.000144182 0.000235599 0 -0.000245375 0.000259599
0 0.000139106 0.000233758 0 -0.000247952 0.000257474
0 0.000137873 0.000228949 0 -0.000246726 0.000252272
0 0.000140165 0.000221317 0 -0.000241875 0.000244058
0 0.000145836 0.000211008 0 -0.000233475 0.000232981
0 0.000154883 0.000198189 0 -0.000221468 0.000219209
0 0.000167102 0.000183116 0 -0.000206081 0.000203032
0 0.000181852 0.000166182 0 -0.000187919 0.000184851
0 0.000198278 0.000147848 0 -0.000167822 0.000165148
0 0.00021559 0.000128584 0 -0.000146575 0.000144426
0 0.000233101 0.000108853 0 -0.000124883 0.000123188
0 0.000250135 8.91306e-05 0 -0.000103422 0.000101936
0 0.000265909 6.99088e-05 0 -8.29032e-05 8.11895e-05
0 0.000279683 5.16574e-05 0 -6.40316e-05 6.14202e-05
0 0.000290856 3.47864e-05 0 -4.73941e-05 4.30753e-05
0 0.000298941 1.96542e-05 0 -3.34616e-05 2.65348e-05
0 0.000303564 6.55878e-06 0 -2.32614e-05 1.22171e-05
0 0.000304287 -4.27738e-06 0 -1.71889e-05 5.40328e-07
0 0.000300915 -1.26005e-05 0 -1.36717e-05 -8.94823e-06
0 0.000293919 -1.84803e-05 0 -1.32104e-05 -1.58289e-05
0 0.000283156 -2.18325e-05 0 -1.56159e-05 -2.02028e-05
0 0.00026843 -2.26487e-05 0 -2.1549e-05 -2.19902e-05
0 0.000249775 -2.10366e-05 0 -3.10013e-05 -2.12302e-05
0 0.000227671 -1.72146e-05 0 -4.34994e-05 -1.81997e-05
0 0.000202734 -1.14754e-05 0 -5.82045e-05 -1.31927e-05
0 0.000175429 -4.03951e-06 0 -7.23576e-05 -7.10997e-06
0 0.000146848 4.59477e-06 0 -8.83352e-05 3.17429e-07
0 0.000117025 1.41527e-05 0 -0.000104915 8.73738e-06
0 8.65592e-05 2.42767e-05 0 -0.000121849 1.75781e-05
0 5.64282e-05 3.44678e-05 0 -0.000138528 2.65591e-05
0 2.74868e-05 4.43201e-05 0 -0.000154014 3.5157e-05
0 2.25434e-07 5.34792e-05 0 -0.000168036 4.30536e-05
0 -2.50708e-05 6.16416e-05 0 -0.00018049 4.99582e-05
0 -4.80161e-05 6.8508e-05 0 -0.000191065 5.55736e-05
0 -6.81251e-05 7.37946e-05 0 -0.000199388 5.96317e-05
0 -8.50633e-05 7.72918e-05 0 -0.000205234 6.19169e-05
0 -9.87505e-05 7.88731e-05 0 -0.000208515 6.2295e-05
0 -0.000109229 7.84814e-05 0 -0.000208841 6.05985e-05
0 -0.000116428 7.60691e-05 0 -0.000206308 5.68127e-05
0 -0.000120201 7.16363e-05 0 -0.000201052 5.09923e-05
0 -0.000116594 6.44205e-05 0 -0.000193564 4.34581e-05
0 -0.000109996 5.54091e-05 0 -0.000182992 3.40192e-05
0 -0.000101341 4.49567e-05 0 -0.000170571 2.30105e-05
0 -9.1462e-05 3.3877e-05 0 -0.000157006 1.11319e-05
0 -8.30447e-05 2.26846e-05 0 -0.000141787 -1.30369e-06
0 -7.34445e-05 1.07528e-05 0 -0.000124687 -1.50744e-05
0 -6.25457e-05 -1.81775e-06 0 -0.000109676 -2.85839e-05
0 -5.15431e-05 -1.44969e-05 0 -9.37439e-05 -4.22848e-05
0 -4.00254e-05 -2.70797e-05 0 -7.70144e-05 -5.61552e-05
0 -2.77666e-05 -3.94963e-05 0 -5.98581e-05 -6.96583e-05
0 -1.52252e-05 -5.13637e-05 0 -4.20867e-05 -8.27383e-05
0 -3.01696e-06 -6.23917e-05 0 -2.44011e-05 -9.49534e-05
0 8.425e-06 -7.23012e-05 0 -7.14055e-06 -0.000106072
0 1.90067e-05 -8.08953e-05 0 9.61307e-06 -0.000115863
0 2.85739e-05 -8.79821e-05 0 2.57032e-05 -0.000124103
0 3.67061e-05 -9.33325e-05 0 4.07625e-05 -0.000130581
0 4.29288e-05 -9.67473e-05 0 5.43409e-05 -0.000135093
0 4.69319e-05 -9.80959e-05 0 6.61387e-05 -0.000137487
0 4.85305e-05 -9.73041e-05 0 7.59234e-05 -0.000137665
0 4.74799e-05 -9.43064e-05 0 8.3389e-05 -0.000135552
0 4.34408e-05 -8.89786e-05 0 8.81474e-05 -0.000130997
0 3.61599e-05 -8.13638e-05 0 8.98907e-05 -0.000124039
0 2.55713e-05 -7.15841e-05 0 8.84872e-05 -0.000114784
0 1.1776e-05 -5.98366e-05 0 8.38457e-05 -0.00010341
0 -3.76239e-06 -4.65102e-05 0 6.01062e-05 -8.78125e-05
0 -3.75878e-05 -2.9304e-05 0 2.02067e-05 -6.53555e-05
0 -7.41884e-05 -1.00649e-05 0 -1.79349e-05 -4.70277e-05
0 -0.000103017 6.46469e-06 0 -5.86556e-05 -2.51206e-05
0 -0.000132144 2.28586e-05 0 -0.000100956 -4.51133e-06
0 -0.000166527 3.9613e-05 0 -0.000141125 1.47109e-05
0 -0.000199105 5.4589e-05 0 -0.000179796 3.21536e-05
0 -0.000226326 6.65802e-05 0 -0.000216801 4.77207e-05
0 -0.000251511 7.61813e-05 0 -0.00025047 6.0423e-05
0 -0.000275343 8.33008e-05 0 -0.000279882 6.95661e-05
0 -0.000294821 8.6925e-05 0 -0.000304956 7.51083e-05
0 -0.000309029 8.66621e-05 0 -0.000325349 7.68741e-05
0 -0.000319287 8.27774e-05 0 -0.000340496 7.44953e-05
0 -0.000325656 7.52775e-05 0 -0.000350225 6.78652e-05
0 -0.000327181 6.39606e-05 0 -0.000354706 5.71559e-05
0 -0.000323976 4.8954e-05 0 -0.000354103 4.2538e-05
0 -0.000316872 3.06387e-05 0 -0.000348608 2.41956e-05
0 -0.000306198 9.47646e-06 0 -0.000338652 2.50613e-06
0 -0.0002922 -1.29453e-05 0 -0.000324962 -2.06846e-05
0 -0.000275278 -3.764e-05 0 -0.000308145 -4.59824e-05
0 0.000212272 -0.000135766 0 -0.000212453 -7.92386e-05
0 0.000123331 -0.000125199 0 -0.000133651 -0.000121216
0 0.000167719 -0.000156183 0 -0.000104454 -0.000148078
0 0.000239038 -0.000199366 0 -0.000110902 -0.000165981
0 0.000253274 -0.000223662 0 -9.40896e-05 -0.000185157
0 0.00025253 -0.000237407 0 -7.1091e-05 -0.000210387
0 0.000271754 -0.000253294 0 -6.39783e-05 -0.000227187
0 0.000293919 -0.000269947 0 -6.69199e-05 -0.000238118
0 0.000301504 -0.000282094 0 -6.51588e-05 -0.000248219
0 0.00030135 -0.000289643 0 -6.53051e-05 -0.000255912
0 0.000302969 -0.00029414 0 -7.55296e-05 -0.000258452
0 0.000404272 -0.000116433 0 -7.66963e-05 -0.000230829
0 0.000392506 -0.000140538 0 -7.75806e-05 -0.000203415
0 0.000395647 -0.000117583 0 -9.94175e-05 -0.000186136
0 0.000385577 -9.23795e-05 0 -0.000136705 -0.000169123
0 0.000365909 -5.3188e-05 0 -0.000175623 -0.000153688
0 0.000344069 -1.46184e-05 0 -0.000213229 -0.000130016
0 0.000324496 1.66496e-05 0 -0.000255792 -9.82467e-05
0 0.000302994 5.10262e-05 0 -0.000291802 -6.79377e-05
0 0.000274995 9.39091e-05 0 -0.000323364 -4.51817e-05
0 0.0002444 0.000141156 0 -0.000362033 -1.96492e-05
0 0.000215082 0.000181687 0 -0.000395362 5.05593e-06
0 0.000187579 0.00021664 0 -0.000425473 1.11223e-05
0 0.000160029 0.000254206 0 -0.000454747 1.60013e-05
0 0.00013166 0.000293009 0 -0.000480156 1.77704e-05
0 0.000104885 0.000327758 0 -0.000507292 1.63493e-05
0 8.06598e-05 0.000355517 0 -0.000531279 1.63154e-05
0 5.86786e-05 0.000378787 0 -0.000554149 1.52218e-05
0 3.81562e-05 0.000399237 0 -0.000575145 1.04845e-05
0 1.96314e-05 0.000416414 0 -0.00059411 2.28874e-06
0 4.2004e-06 0.000428989 0 -0.000611069 -7.30626e-06
0 -8.2036e-06 0.000435912 0 -0.000624503 -7.47269e-06
0 -1.76228e-05 0.000437797 0 -0.000633597 2.42148e-07
0 -2.39339e-05 0.000434518 0 -0.000641938 -5.08159e-07
0 -2.71766e-05 0.000426263 0 -0.000645895 -1.02527e-05
0 -2.72967e-05 0.00041311 0 -0.000646699 -2.23479e-05
0 -2.39571e-05 0.000394561 0 -0.000644142 -3.84084e-05
0 -1.7379e-05 0.000370929 0 -0.00063806 -6.0899e-05
0 -7.97222e-06 0.000343823 0 -0.000629166 -8.55539e-05
0 4.14235e-06 0.000313735 0 -0.000617212 -0.000114128
0 1.81864e-05 0.000283399 0 -0.00060371 -0.000137683
0 3.48012e-05 0.000250849 0 -0.000588267 -0.000167733
0 5.28511e-05 0.000219201 0 -0.000570446 -0.000197472
0 7.20423e-05 0.000189384 0 -0.000551463 -0.000227443
0 9.16432e-05 0.00015934 0 -0.000531737 -0.000257817
0 0.000110805 0.000129685 0 -0.000512005 -0.000287943
0 0.00012866 0.000100446 0 -0.000493245 -0.000317308
0 0.00014446 7.17966e-05 0 -0.000476097 -0.000345694
0 0.000158175 4.45212e-05 0 -0.000461055 -0.00037264
0 0.000169666 1.94456e-05 0 -0.000448405 -0.000397825
0 0.000178733 -3.09291e-06 0 -0.000438491 -0.000420903
0 0.000184985 -2.33399e-05 0 -0.000431712 -0.000441631
0 0.000188237 -4.11285e-05 0 -0.000428317 -0.000459851
0 0.000188495 -5.58889e-05 0 -0.000427667 -0.00047416
0 0.000185809 -6.75302e-05 0 -0.000428318 -0.000482285
0 0.000179905 -7.61165e-05 0 -0.000432523 -0.000488107
0 0.000170129 -8.15689e-05 0 -0.000440403 -0.000490759
0 0.000159381 -8.11402e-05 0 -0.000450441 -0.000489728
0 0.000145741 -7.77033e-05 0 -0.000463045 -0.000485398
0 0.000129433 -7.14714e-05 0 -0.000478525 -0.000478367
0 0.00011088 -6.25698e-05 0 -0.000496052 -0.00046863
0 9.03203e-05 -5.07596e-05 0 -0.000515106 -0.000456209
0 6.83321e-05 -3.67572e-05 0 -0.000535579 -0.000442094
0 4.55975e-05 -2.13402e-05 0 -0.000556762 -0.000426266
0 2.26003e-05 -4.98052e-06 0 -0.000578043 -0.000409313
0 -5.83797e-06 1.61563e-05 0 -0.000604006 -0.000388066
0 -2.92944e-05 3.53878e-05 0 -0.000628085 -0.000367661
0 -5.0386e-05 5.34039e-05 0 -0.000649086 -0.000349182
0 -6.83785e-05 6.86226e-05 0 -0.000666221 -0.00033379
0 -8.28426e-05 8.05765e-05 0 -0.000678658 -0.000322139
0 -9.34005e-05 8.90524e-05 0 -0.000685522 -0.000314053
0 -9.90056e-05 9.53997e-05 0 -0.000685547 -0.00030806
0 -9.95399e-05 9.93296e-05 0 -0.000678672 -0.000304449
0 -9.62823e-05 9.91382e-05 0 -0.00066518 -0.000303516
0 -9.12371e-05 9.19844e-05 0 -0.000646346 -0.000306427
0 -8.28317e-05 8.19173e-05 0 -0.000621998 -0.000311964
0 -7.15152e-05 6.88382e-05 0 -0.000592709 -0.000319325
0 -5.80308e-05 5.32635e-05 0 -0.000559441 -0.000327774
0 -4.36742e-05 3.60392e-05 0 -0.000523404 -0.000337123
0 -2.8868e-05 1.86507e-05 0 -0.000485395 -0.000346612
0 -1.39824e-05 1.3901e-06 0 -0.000446078 -0.000355373
0 6.14857e-07 -1.50888e-05 0 -0.000406193 -0.000362711
0 1.44078e-05 -2.97832e-05 0 -0.00036654 -0.000368193
0 2.70315e-05 -4.20197e-05 0 -0.000327766 -0.000371278
0 3.83512e-05 -5.14753e-05 0 -0.000290358 -0.000371382
0 4.82503e-05 -5.77388e-05 0 -0.000254742 -0.000368123
0 5.65743e-05 -6.03411e-05 0 -0.000221321 -0.000361302
0 6.31738e-05 -5.90289e-05 0 -0.000190469 -0.000350724
0 6.78418e-05 -5.37107e-05 0 -0.000162617 -0.000336217
0 7.02128e-05 -4.4237e-05 0 -0.000139004 -0.000317613
0 6.96446e-05 -3.02611e-05 0 -0.000120826 -0.000294694
0 6.64974e-05 -1.24307e-05 0 -0.000106535 -0.000265919
0 6.17798e-05 7.90325e-06 0 -9.5277e-05 -0.000235482
0 5.55305e-05 2.91121e-05 0 -8.60731e-05 -0.000209451
0 4.74924e-05 5.01821e-05 0 -7.7938e-05 -0.000180867
0 3.76585e-05 7.27563e-05 0 -7.47783e-05 -0.000152101
0 2.65464e-05 9.65518e-05 0 -7.50088e-05 -0.00012202
0 1.66306e-05 0.000120293 0 -7.86158e-05 -9.13383e-05
0 6.44327e-06 0.000144154 0 -8.24433e-05 -6.14081e-05
0 -3.8761e-06 0.000167227 0 -8.79471e-05 -3.63074e-05
0 -1.41101e-05 0.000189118 0 -9.31453e-05 -1.07337e-05
0 -2.42864e-05 0.000209676 0 -9.87379e-05 1.31043e-05
0 -3.40783e-05 0.000228378 0 -0.000103762 3.47425e-05
0 -4.29404e-05 0.000244484 0 -0.000108415 5.4479e-05
0 -5.05476e-05 0.000257543 0 -0.000111649 7.19567e-05
0 -5.64859e-05 0.000267225 0 -0.000113891 8.67352e-05
0 -6.03514e-05 0.00027324 0 -0.000114095 9.8426e-05
0 -6.17316e-05 0.000275224 0 -0.000112149 0.000106919
0 -6.04685e-05 0.00027301 0 -0.000107102 0.000111959
0 -5.6545e-05 0.000266655 0 -9.91482e-05 0.000113579
0 -5.0112e-05 0.000256371 0 -8.86751e-05 0.000111968
0 -4.18411e-05 0.000242605 0 -7.64527e-05 0.000107402
0 -3.25492e-05 0.00022586 0 -6.33019e-05 0.000100307
0 -2.30629e-05 0.000206538 0 -5.01246e-05 9.09746e-05
0 -1.41749e-05 0.000185235 0 -3.77067e-05 7.96306e-05
0 -6.50078e-06 0.000162575 0 -2.67161e-05 6.67562e-05
0 -3.78728e-07 0.000139081 0 -1.74661e-05 5.27821e-05
0 4.54969e-06 0.000115886 0 -1.00615e-05 3.8139e-05
0 1.71399e-05 9.0269e-05 0 -1.57028e-06 2.29591e-05
0 2.73703e-05 6.7449e-05 0 7.89152e-07 7.83082e-06
0 3.68054e-05 4.45804e-05 0 2.03662e-06 -6.2361e-06
0 4.88444e-05 2.01881e-05 0 4.96002e-06 -2.14061e-05
0 6.05591e-05 -1.61656e-06 0 6.73866e-06 -3.53095e-05
0 7.26049e-05 -1.46557e-05 0 6.06023e-06 -4.59635e-05
0 8.21385e-05 -2.79042e-05 0 3.40232e-06 -5.52898e-05
0 9.32395e-05 -3.97085e-05 0 2.69144e-06 -6.38821e-05
0 0.000103793 -4.91428e-05 0 1.86675e-06 -7.13943e-05
0 0.000111153 -5.66162e-05 0 -7.16415e-07 -7.67665e-05
0 0.000117014 -6.2394e-05 0 -3.82135e-06 -8.0181e-05
0 0.000122912 -6.59488e-05 0 -6.29345e-06 -8.21017e-05
0 0.000127507 -6.69737e-05 0 -9.13915e-06 -8.21685e-05
0 0.000129832 -6.57326e-05 0 -1.30745e-05 -8.00573e-05
0 0.000130874 -6.24076e-05 0 -1.73787e-05 -7.59997e-05
0 0.000131187 -5.68923e-05 0 -2.1693e-05 -7.02577e-05
0 0.00013007 -4.92474e-05 0 -2.68299e-05 -6.26422e-05
0 0.000127276 -3.98134e-05 0 -3.28478e-05 -5.29032e-05
0 0.000123015 -2.87941e-05 0 -3.99696e-05 -4.13529e-05
0 0.000117457 -1.63647e-05 0 -4.82053e-05 -2.82736e-05
0 0.000110441 -2.84396e-06 0 -5.7836e-05 -1.39015e-05
0 0.000101847 1.13711e-05 0 -6.87704e-05 1.38448e-06
0 9.20618e-05 2.53833e-05 0 -7.75834e-05 1.47847e-05
0 8.1839e-05 3.89982e-05 0 -8.82379e-05 2.78762e-05
0 7.1421e-05 5.08962e-05 0 -9.83692e-05 3.98667e-05
0 6.14327e-05 6.20811e-05 0 -0.00010835 5.14489e-05
0 5.2903e-05 7.2125e-05 0 -0.000116898 6.16787e-05
0 4.60935e-05 8.07757e-05 0 -0.000123832 7.05442e-05
0 4.1402e-05 8.78372e-05 0 -0.000128543 7.76808e-05
0 3.93129e-05 9.30395e-05 0 -0.000131181 8.30275e-05
0 3.92565e-05 9.64607e-05 0 -0.00013241 8.66455e-05
0 4.12875e-05 9.81012e-05 0 -0.000131209 8.82333e-05
0 4.67299e-05 9.75013e-05 0 -0.000126881 8.68028e-05
0 5.57419e-05 9.46551e-05 0 -0.000118947 8.29437e-05
0 6.72667e-05 8.98786e-05 0 -0.000108507 7.69066e-05
0 8.09686e-05 8.34719e-05 0 -9.55122e-05 6.89034e-05
0 9.69035e-05 7.56583e-05 0 -7.97807e-05 5.93116e-05
0 0.000114258 6.69507e-05 0 -6.23528e-05 4.86608e-05
0 0.000131303 5.8086e-05 0 -4.48575e-05 3.79709e-05
0 0.000147175 4.95786e-05 0 -2.84581e-05 2.77797e-05
0 0.000160949 4.17515e-05 0 -1.44104e-05 2.09489e-05
0 0.000171754 3.51905e-05 0 -3.23482e-06 1.44654e-05
0 0.00017944 3.02793e-05 0 6.69266e-06 9.45349e-06
0 0.00018458 2.69419e-05 0 1.56382e-05 5.48046e-06
0 0.000185691 2.54764e-05 0 2.14858e-05 3.25316e-06
0 0.000180457 2.63612e-05 0 2.16813e-05 3.49723e-06
0 0.000169003 2.95242e-05 0 1.60756e-05 6.06588e-06
0 0.000152401 3.45332e-05 0 5.09157e-06 1.07724e-05
0 0.000130565 4.11558e-05 0 -1.13366e-05 1.73199e-05
0 0.000103621 4.90594e-05 0 -3.12325e-05 2.49997e-05
0 7.36778e-05 5.75772e-05 0 -5.10027e-05 3.23798e-05
0 4.22292e-05 6.58146e-05 0 -7.34308e-05 4.00328e-05
0 9.26526e-06 7.34575e-05 0 -9.69762e-05 4.68021e-05
0 -2.33411e-05 7.96604e-05 0 -0.00012086 5.22695e-05
0 -5.35364e-05 8.38023e-05 0 -0.000143165 5.55469e-05
0 -7.98274e-05 8.59343e-05 0 -0.000163274 5.63621e-05
0 -0.000101286 8.57326e-05 0 -0.000180518 5.44696e-05
0 -0.000117655 8.16394e-05 0 -0.000193883 4.89505e-05
0 -0.000127692 7.33867e-05 0 -0.000202052 3.94359e-05
0 -0.000131106 6.12072e-05 0 -0.000205195 2.61296e-05
0 -0.000128716 4.50325e-05 0 -0.000202958 9.1786e-06
0 -0.000120385 2.48953e-05 0 -0.000193928 -1.16185e-05
0 -0.000106167 1.43981e-06 0 -0.000179446 -3.54049e-05
0 -8.74606e-05 -2.43776e-05 0 -0.00015979 -6.15936e-05
0 -6.4947e-05 -5.1866e-05 0 -0.000135867 -8.91911e-05
0 -3.9409e-05 -7.99927e-05 0 -0.00010881 -0.000117257
0 -1.26506e-05 -0.000106163 0 -8.01488e-05 -0.000144263
0 1.47919e-05 -0.000128236 0 -5.21153e-05 -0.000166407
0 4.05568e-05 -0.00014743 0 -2.65446e-05 -0.000186363
0 6.32357e-05 -0.000163446 0 -4.35471e-06 -0.000202676
0 8.23456e-05 -0.000175749 0 1.20171e-05 -0.000215051
0 9.60036e-05 -0.000183768 0 2.42603e-05 -0.000223223
0 0.000103912 -0.000187363 0 3.12287e-05 -0.000226786
0 0.00010573 -0.000186038 0 3.29431e-05 -0.000225471
0 0.000100813 -0.00017934 0 2.7583e-05 -0.000218484
0 8.91078e-05 -0.000167583 0 1.57852e-05 -0.000206245
0 7.20385e-05 -0.000151436 0 -1.49875e-06 -0.000189273
0 5.03531e-05 -0.000132053 0 -1.99393e-05 -0.000170496
0 2.62975e-05 -0.000111146 0 -4.13442e-05 -0.000149185
0 5.89461e-07 -8.80898e-05 0 -6.35973e-05 -0.000125969
0 -2.56184e-05 -6.36004e-05 0 -8.6767e-05 -0.000101303
0 -5.01633e-05 -3.83028e-05 0 -0.000108541 -7.62555e-05
0 -7.14971e-05 -1.34488e-05 0 -0.000127724 -5.16101e-05
0 -8.90828e-05 9.9503e-06 0 -0.000143571 -2.82171e-05
0 -0.00010236 3.13479e-05 0 -0.000155602 -6.705e-06
0 -0.000110623 5.01365e-05 0 -0.000163273 1.24089e-05
0 -0.000113355 6.5822e-05 0 -0.000166013 2.87012e-05
0 -0.000110075 7.80663e-05 0 -0.000163001 4.17713e-05
0 -0.00010047 8.71826e-05 0 -0.000153846 5.15275e-05
0 -8.49395e-05 9.3988e-05 0 -0.000139994 5.84521e-05
0 -6.59429e-05 9.84147e-05 0 -0.00012337 6.28761e-05
0 -4.2581e-05 0.000100389 0 -0.000102386 6.45772e-05
0 -1.45342e-05 0.000100045 0 -7.70257e-05 6.38838e-05
0 1.56891e-05 9.81252e-05 0 -4.94467e-05 6.15091e-05
0 4.61819e-05 9.52906e-05 0 -2.13333e-05 5.81325e-05
0 7.53043e-05 8.16302e-05 0 -1.85927e-05 1.0056e-05
0 0.000121805 2.21792e-05 0 -2.54852e-05 -0.000128229
0 0.000162471 -3.99687e-05 0 -2.07212e-05 -0.000155699
0 0.000186069 -2.44705e-05 0 4.8349e-06 -0.000181465
0 0.000202905 8.82684e-06 0 1.80363e-05 -0.000160528
0 0.000220739 9.67673e-06 0 3.16156e-05 -0.000166045
0 0.000239447 -1.03799e-05 0 4.07192e-05 -0.000165438
0 0.000249437 -4.59579e-06 0 4.21406e-05 -0.000170337
0 0.000249518 2.03657e-05 0 4.31317e-05 -0.000153863
0 0.000245509 3.87362e-05 0 3.61822e-05 -0.000138952
0 0.00023904 4.73473e-05 0 2.71204e-05 -0.000121847
0 0.000227726 6.19726e-05 0 1.18749e-05 -0.000106855
0 0.000210966 8.52183e-05 0 -3.42693e-06 -8.65416e-05
0 0.000192611 0.000107798 0 -2.10299e-05 -6.62575e-05
0 0.000173966 0.000125396 0 -3.88329e-05 -4.56787e-05
0 0.000154749 0.000142943 0 -5.65754e-05 -2.5614e-05
0 0.00013634 0.000162606 0 -7.34038e-05 -7.37751e-06
0 0.000120026 0.000179822 0 -8.93448e-05 9.10683e-06
0 0.000106541 0.000192117 0 -0.000102789 2.31138e-05
0 9.6254e-05 0.00020163 0 -0.000113616 3.41436e-05
0 8.95503e-05 0.000209597 0 -0.000121806 4.17683e-05
0 8.62282e-05 0.000214203 0 -0.000127565 4.6011e-05
0 8.69535e-05 0.000214088 0 -0.000130322 4.6653e-05
0 9.22907e-05 0.000210054 0 -0.000129508 4.34532e-05
0 0.000101743 0.000203029 0 -0.000125086 3.6191e-05
0 0.000112515 0.000193045 0 -0.000117715 2.5091e-05
0 0.00012583 0.000178879 0 -0.000109568 7.53081e-06
0 0.000142482 0.000159842 0 -9.94033e-05 -1.52054e-05
0 0.000161519 0.000138266 0 -8.72259e-05 -3.97377e-05
0 0.000181293 0.000116966 0 -7.40336e-05 -6.54726e-05
0 0.000201472 9.57805e-05 0 -5.99293e-05 -9.05897e-05
0 0.000222167 7.40559e-05 0 -4.55466e-05 -0.000116279
0 0.00024284 5.20083e-05 0 -3.15336e-05 -0.000142409
0 0.000262587 3.10879e-05 0 -1.81493e-05 -0.000167171
0 0.000280816 1.29174e-05 0 -5.39832e-06 -0.000189005
0 0.000297062 -1.76147e-06 0 6.70997e-06 -0.000206419
0 0.000310708 -1.28473e-05 0 1.70135e-05 -0.000220031
0 0.000321282 -2.06954e-05 0 2.49026e-05 -0.00022999
0 0.000328403 -2.50295e-05 0 2.99967e-05 -0.00023573
0 0.000331616 -2.49999e-05 0 3.20112e-05 -0.000236738
0 0.00032998 -2.00942e-05 0 2.98216e-05 -0.000231947
0 0.000322959 -1.03949e-05 0 2.33464e-05 -0.000222057
0 0.000311499 2.95185e-06 0 1.25783e-05 -0.000208387
0 0.000296888 1.90049e-05 0 1.20831e-06 -0.000191719
0 0.000281483 3.73244e-05 0 -8.53676e-06 -0.000173351
0 0.000264402 5.78107e-05 0 -1.95932e-05 -0.000152653
0 0.000243876 8.01998e-05 0 -3.32641e-05 -0.000130267
0 0.000221786 0.00010335 0 -4.7883e-05 -0.000106557
0 0.000199968 0.000126711 0 -6.18432e-05 -8.20839e-05
0 0.000178039 0.000150032 0 -7.58762e-05 -5.77643e-05
0 0.000156252 0.000172137 0 -8.98594e-05 -3.47794e-05
0 0.000136468 0.000191486 0 -0.000102493 -1.42682e-05
0 0.000119838 0.000206584 0 -0.000112676 1.98995e-06
0 0.000105837 0.0002165 0 -0.000115164 -2.12962e-05
0 9.49469e-05 0.000223892 0 -0.000122451 1.65724e-06
0 8.89231e-05 0.000232559 0 -0.000120244 -1.56094e-06
0 8.93393e-05 0.000235582 0 -0.000117863 4.18604e-06
0 9.29385e-05 0.000235527 0 -0.000108962 1.46673e-06
0 0.000100742 0.000231918 0 -9.75967e-05 -1.59727e-06
0 0.000112636 0.000226075 0 -8.18885e-05 -8.67295e-06
0 0.000127392 0.000217457 0 -6.34603e-05 -1.9361e-05
0 0.000143537 0.000206308 0 -4.3856e-05 -3.30797e-05
0 0.000160287 0.000193656 0 -2.35994e-05 -4.69999e-05
0 0.000176805 0.00018106 0 -7.75857e-06 -5.94357e-05
0 0.000190976 0.000169115 0 7.60997e-06 -7.23539e-05
0 0.00020363 0.000156885 0 2.15764e-05 -8.52169e-05
0 0.000214327 0.000144975 0 3.42631e-05 -9.71472e-05
0 0.000221767 0.000134781 0 4.47781e-05 -0.000107367
0 0.000225525 0.000126848 0 5.32795e-05 -0.000114385
0 0.0002261 0.000121154 0 6.0005e-05 -0.000119711
0 0.000223575 0.000117218 0 6.53013e-05 -0.000122341
0 0.000217428 0.000115586 0 6.8609e-05 -0.000121786
0 0.000206617 0.000116994 0 7.01847e-05 -0.000118141
0 0.000193272 0.00012079 0 7.00258e-05 -0.000111574
0 0.000176122 0.000126684 0 6.71614e-05 -0.000102512
0 0.000155576 0.000134151 0 6.17969e-05 -9.09785e-05
0 0.000132033 0.000143351 0 5.38265e-05 -7.6913e-05
0 0.00010754 0.000153457 0 4.33644e-05 -6.06217e-05
0 8.36845e-05 0.000163801 0 3.06006e-05 -4.32656e-05
0 6.06011e-05 0.000174067 0 1.6469e-05 -2.81262e-05
0 3.69591e-05 0.000183519 0 7.01788e-07 -1.39524e-05
0 1.33871e-05 0.000191944 0 -1.57529e-05 5.6161e-07
0 -7.56272e-06 0.000201075 0 -3.16564e-05 1.38659e-05
0 -2.58737e-05 0.000210794 0 -4.71549e-05 2.64336e-05
0 -4.15236e-05 0.000220169 0 -6.22344e-05 3.68894e-05
0 -5.34558e-05 0.000230284 0 -7.60989e-05 4.55244e-05
0 -6.36172e-05 0.000237384 0 -8.9032e-05 5.13816e-05
0 -7.29406e-05 0.000241202 0 -0.000100882 5.40513e-05
0 -8.1868e-05 0.000241843 0 -0.000111681 5.51638e-05
0 -9.04898e-05 0.000239535 0 -0.000120811 5.37113e-05
0 -9.83894e-05 0.000233008 0 -0.000129618 4.84651e-05
0 -0.000105738 0.00022244 0 -0.00013777 4.01259e-05
0 -0.000112643 0.000208515 0 -0.0001454 2.85134e-05
0 -0.000117928 0.000190992 0 -0.000150827 1.40172e-05
0 -0.000121927 0.000172304 0 -0.000153674 -3.82544e-06
0 -0.000125009 0.000150121 0 -0.000154498 -2.50453e-05
0 -0.000126223 0.000124616 0 -0.000152789 -5.01465e-05
0 -0.000125593 9.62824e-05 0 -0.000148331 -7.78999e-05
0 -0.000123124 6.57134e-05 0 -0.000141309 -0.000107738
0 -0.000119171 3.36004e-05 0 -0.000132728 -0.000138599
0 -0.000113974 3.52504e-07 0 -0.000122015 -0.000167737
0 -0.00010789 -3.33247e-05 0 -0.000111691 -0.000197722
0 -0.000101999 -6.63773e-05 0 -0.000103357 -0.000226708
0 -9.67528e-05 -9.80846e-05 0 -9.81867e-05 -0.000253764
0 -9.21397e-05 -0.000128609 0 -9.58388e-05 -0.000284401
0 -8.83016e-05 -0.000157538 0 -9.45399e-05 -0.00030999
0 -8.58951e-05 -0.000183166 0 -9.45699e-05 -0.000333306
0 -8.44934e-05 -0.000205071 0 -9.55718e-05 -0.000354233
0 -8.36492e-05 -0.000224234 0 -9.71353e-05 -0.000371702
0 -8.32617e-05 -0.000240313 0 -9.86485e-05 -0.000385754
0 -8.3124e-05 -0.000252324 0 -0.000100377 -0.000396391
0 -8.34612e-05 -0.000261075 0 -0.000101733 -0.000403748
0 -8.38611e-05 -0.000266683 0 -0.000102661 -0.00040748
0 -8.4462e-05 -0.000268547 0 -0.000103371 -0.000407184
0 -8.57503e-05 -0.000265893 0 -0.000104352 -0.000402362
0 -8.7808e-05 -0.000258876 0 -0.000105666 -0.000393198
0 -9.04788e-05 -0.000247959 0 -0.000107255 -0.000379939
0 -9.36259e-05 -0.000233466 0 -0.000109234 -0.000363114
0 -9.71192e-05 -0.00021579 0 -0.000111466 -0.000343079
0 -0.000100747 -0.00019525 0 -0.00011365 -0.000319792
0 -0.000104156 -0.000172293 0 -0.000115315 -0.000293954
0 -0.000106876 -0.000147628 0 -0.000116067 -0.000266136
0 -0.0001084 -0.000122134 0 -0.000115899 -0.000238162
0 -0.000107994 -9.72296e-05 0 -0.000114884 -0.000212876
0 -0.000104366 -7.64624e-05 0 -0.000112396 -0.000195112
0 -9.74409e-05 -5.91539e-05 0 -0.000107134 -0.000179566
0 -8.79382e-05 -4.25726e-05 0 -9.9317e-05 -0.000166092
0 -7.58196e-05 -2.67228e-05 0 -8.79172e-05 -0.000152745
0 -6.11083e-05 -1.19423e-05 0 -7.39986e-05 -0.000140746
0 -4.40835e-05 1.35394e-06 0 -5.79524e-05 -0.000130353
0 -2.46899e-05 1.30641e-05 0 -3.94919e-05 -0.000121406
0 -2.88112e-06 2.36582e-05 0 -1.70406e-05 -0.000113879
0 2.08965e-05 3.37461e-05 0 6.84181e-06 -0.000106745
0 4.80625e-05 4.72883e-05 0 2.80502e-05 -9.74427e-05
0 7.92136e-05 7.06446e-05 0 5.01609e-05 -8.51734e-05
0 0.00010504 9.22388e-05 0 6.96095e-05 -7.47904e-05
0 0.000130721 0.000113823 0 8.88826e-05 -6.38632e-05
0 0.000153186 0.000137939 0 0.000106171 -4.94543e-05
0 0.000170229 0.00016503 0 0.000119154 -3.17566e-05
0 0.000183097 0.000193267 0 0.000128375 -1.25869e-05
0 0.000192195 0.000220894 0 0.000134099 6.52465e-06
0 0.000196053 0.000249103 0 0.000134871 2.75156e-05
0 0.000193554 0.00027919 0 0.000130854 5.14908e-05
0 0.000184566 0.000311812 0 0.000121506 7.26451e-05
0 0.000169338 0.000342523 0 0.000110207 8.70868e-05
0 0.000149368 0.000370803 0 9.27967e-05 0.000106088
0 0.000125327 0.000399098 0 7.31216e-05 0.000123524
0 9.92877e-05 0.000426736 0 4.90842e-05 0.000147145
0 7.22544e-05 0.000451524 0 2.53024e-05 0.00016902
0 4.5942e-05 0.000471578 0 1.3982e-06 0.000185689
0 2.1538e-05 0.000486092 0 -1.98594e-05 0.000196612
0 1.60957e-06 0.000495054 0 -3.59911e-05 0.000204769
0 -1.41585e-05 0.000500235 0 -4.90379e-05 0.000208779
0 -2.52185e-05 0.000498883 0 -5.7747e-05 0.000207958
0 -3.11848e-05 0.000489975 0 -6.12735e-05 0.000200642
0 -3.15912e-05 0.000474774 0 -5.94625e-05 0.00018644
0 -2.68027e-05 0.000454056 0 -5.25224e-05 0.000167118
0 -1.70306e-05 0.000427726 0 -4.35749e-05 0.000143575
0 -3.52186e-06 0.000396106 0 -3.17715e-05 0.000115293
0 1.18796e-05 0.000360591 0 -1.98068e-05 8.5374e-05
0 2.96534e-05 0.000322233 0 -5.24178e-06 5.22738e-05
0 5.0044e-05 0.000281909 0 1.10437e-05 1.7591e-05
0 7.08004e-05 0.000239258 0 2.45842e-05 -1.77283e-05
0 8.955e-05 0.000195769 0 3.83024e-05 -4.99345e-05
0 0.00010644 0.000153688 0 5.04242e-05 -8.20835e-05
0 0.000121474 0.000113045 0 6.22893e-05 -0.000112915
0 0.000133303 7.38516e-05 0 7.13791e-05 -0.000141586
0 0.000141062 3.70223e-05 0 7.70995e-05 -0.00016838
0 0.000144161 5.91725e-06 0 7.99942e-05 -0.000191662
0 0.000142551 -2.07158e-05 0 7.96316e-05 -0.000211115
0 0.000135894 -4.33856e-05 0 7.49702e-05 -0.000227071
0 0.000125197 -6.2433e-05 0 6.61178e-05 -0.000239066
0 0.000110302 -7.75658e-05 0 5.3839e-05 -0.000247319
0 9.18672e-05 -8.88503e-05 0 3.85488e-05 -0.000251675
0 7.01693e-05 -9.66325e-05 0 2.03216e-05 -0.000252355
0 4.62975e-05 -0.000100687 0 -4.01409e-07 -0.000249664
0 2.17677e-05 -0.000100763 0 -2.02452e-05 -0.000244691
0 -3.8892e-06 -9.86334e-05 0 -4.20081e-05 -0.000237629
0 -2.90758e-05 -9.45788e-05 0 -6.28409e-05 -0.000229377
0 -5.08408e-05 -8.74129e-05 0 -8.2061e-05 -0.000219944
0 -6.98656e-05 -7.72078e-05 0 -0.000101045 -0.000209481
0 -8.75151e-05 -6.55305e-05 0 -0.000119882 -0.000198983
0 -0.000103164 -5.45912e-05 0 -0.000137053 -0.000189262
0 -0.000115804 -4.51678e-05 0 -0.00015134 -0.000180624
0 -0.000126067 -3.72531e-05 0 -0.000162903 -0.000173327
0 -0.000133655 -3.14952e-05 0 -0.000171033 -0.000168144
0 -0.000137051 -2.92845e-05 0 -0.000175441 -0.000166003
0 -0.000136122 -2.95829e-05 0 -0.000175987 -0.000165625
0 -0.000132313 -3.13875e-05 0 -0.00017281 -0.000166436
0 -0.000124415 -3.47763e-05 0 -0.000164776 -0.000168858
0 -0.00011152 -4.0476e-05 0 -0.000151394 -0.000172682
0 -9.49165e-05 -4.76438e-05 0 -0.000133877 -0.00017739
0 -7.59139e-05 -5.51579e-05 0 -0.000113482 -0.000182441
0 -5.44537e-05 -6.31684e-05 0 -9.12759e-05 -0.000189797
0 -3.03219e-05 -7.2442e-05 0 -6.80418e-05 -0.000200866
0 -4.51784e-06 -8.25347e-05 0 -4.4427e-05 -0.000212202
0 2.12934e-05 -9.09887e-05 0 -2.05033e-05 -0.000221445
0 5.19181e-05 -8.89849e-05 0 3.92924e-06 -0.000226047
0 7.97135e-05 -8.36107e-05 0 2.15728e-05 -0.000226389
0 0.000104289 -7.55598e-05 0 3.86925e-05 -0.00022434
0 0.00012693 -6.45758e-05 0 5.28715e-05 -0.000219789
0 0.000144882 -5.03246e-05 0 6.46652e-05 -0.000210809
0 0.000156956 -3.14168e-05 0 7.34065e-05 -0.000199152
0 0.0001638 -8.72978e-06 0 7.9697e-05 -0.00018442
0 0.000165987 1.71306e-05 0 8.20103e-05 -0.00016632
0 0.000163302 4.60403e-05 0 8.07179e-05 -0.00014469
0 0.000156332 7.79981e-05 0 7.59048e-05 -0.000119388
0 0.000145543 0.000112675 0 6.81402e-05 -9.08823e-05
0 0.000131462 0.000149127 0 5.79108e-05 -6.01902e-05
0 0.000114781 0.000186321 0 4.58098e-05 -2.8296e-05
0 9.63975e-05 0.000223543 0 3.25951e-05 4.09778e-06
0 7.76213e-05 0.00026011 0 1.89782e-05 3.61581e-05
0 6.05823e-05 0.000295299 0 6.65729e-06 6.33902e-05
0 4.6458e-05 0.000327504 0 -4.16672e-06 8.9023e-05
0 3.61631e-05 0.000356266 0 -1.33189e-05 0.000112459
0 2.89174e-05 0.000381876 0 -1.97245e-05 0.000132924
0 2.56981e-05 0.000403504 0 -2.28162e-05 0.000150483
0 2.69309e-05 0.000420395 0 -2.22187e-05 0.000164285
0 3.2667e-05 0.00043237 0 -1.7815e-05 0.000174336
0 4.2818e-05 0.000439718 0 -9.56647e-06 0.000180461
0 5.58993e-05 0.000442611 0 2.42474e-06 0.000182613
0 7.14323e-05 0.000440846 0 1.75983e-05 0.000180564
0 8.87738e-05 0.000434545 0 3.42087e-05 0.000174105
0 0.00010637 0.000424388 0 4.78647e-05 0.000164891
0 0.000123011 0.000411126 0 6.17267e-05 0.00015211
0 0.000137904 0.000395361 0 7.46741e-05 0.000139506
0 0.000149659 0.000378376 0 8.52006e-05 0.000126347
0 0.000157172 0.000360125 0 9.233e-05 0.000112288
0 0.000160104 0.000340505 0 9.57687e-05 9.97699e-05
0 0.00015826 0.000320715 0 9.61778e-05 8.84532e-05
0 0.000151194 0.00030162 0 9.31083e-05 7.87994e-05
0 0.000139255 0.000283114 0 8.62475e-05 7.04474e-05
0 0.000123993 0.000265182 0 7.58783e-05 6.2263e-05
0 0.000105733 0.0002468 0 6.25622e-05 5.42842e-05
0 8.58872e-05 0.000229088 0 4.73468e-05 4.63573e-05
0 6.91752e-05 0.000218211 0 3.16267e-05 4.03201e-05
0 5.35986e-05 0.000209433 0 1.45532e-05 3.44207e-05
0 3.86133e-05 0.000198779 0 -3.01794e-06 2.64225e-05
0 2.49876e-05 0.000186524 0 -1.89628e-05 1.74166e-05
0 1.23937e-05 0.00017462 0 -3.30021e-05 8.09257e-06
0 4.95624e-07 0.000163888 0 -4.58253e-05 -1.69818e-06
0 -9.37781e-06 0.000151052 0 -5.73687e-05 -1.32949e-05
0 -1.67629e-05 0.000135879 0 -6.71868e-05 -2.68108e-05
0 -2.21911e-05 0.000119359 0 -7.50543e-05 -4.13468e-05
0 -2.6512e-05 0.000102606 0 -8.12138e-05 -5.61132e-05
0 -2.96664e-05 8.54408e-05 0 -8.59805e-05 -7.12969e-05
0 -3.08152e-05 6.62952e-05 0 -9.35569e-05 -9.48835e-05
0 -2.90437e-05 4.26673e-05 0 -9.87773e-05 -0.000119286
0 -2.68813e-05 1.95525e-05 0 -0.000105395 -0.000143292
0 -2.6024e-05 7.86909e-08 0 -0.00011153 -0.000168746
0 -2.49874e-05 -1.88968e-05 0 -0.000117798 -0.000193473
0 -2.35021e-05 -3.85128e-05 0 -0.000123755 -0.000216312
0 -2.29183e-05 -5.60503e-05 0 -0.000130719 -0.000237096
0 -2.3629e-05 -7.01533e-05 0 -0.000138577 -0.000256817
0 -2.47811e-05 -8.25452e-05 0 -0.000146386 -0.000276846
0 -2.60694e-05 -9.42663e-05 0 -0.00015481 -0.000293319
0 -2.82177e-05 -0.000103351 0 -0.00016384 -0.000307788
0 -3.1123e-05 -0.000109191 0 -0.000172938 -0.000321211
0 -3.41671e-05 -0.000113032 0 -0.000181908 -0.000332705
0 -3.71735e-05 -0.000115361 0 -0.000190874 -0.000341506
0 -4.03188e-05 -0.000115513 0 -0.000199716 -0.00034801
0 -4.35064e-05 -0.000113237 0 -0.000207983 -0.000352535
0 -4.79578e-05 -0.000107974 0 -0.00022716 -0.000352697
0 -5.4373e-05 -9.95278e-05 0 -0.00024242 -0.000351246
0 -5.99933e-05 -9.05706e-05 0 -0.000259934 -0.000346976
0 -6.56838e-05 -8.00857e-05 0 -0.00027744 -0.000341412
0 -7.21652e-05 -6.75174e-05 0 -0.000293688 -0.000334241
0 -7.81423e-05 -5.4315e-05 0 -0.000308949 -0.000325353
0 -8.30886e-05 -4.09697e-05 0 -0.000323206 -0.000315313
0 -8.74546e-05 -2.71048e-05 0 -0.000335533 -0.000304618
0 -9.09475e-05 -1.33588e-05 0 -0.000345835 -0.000293516
0 -9.315e-05 -4.56046e-07 0 -0.000354211 -0.000282099
0 -9.42917e-05 1.16429e-05 0 -0.000360369 -0.000270796
0 -9.44412e-05 2.28614e-05 0 -0.000364104 -0.000259811
0 -9.2964e-05 3.35378e-05 0 -0.000365437 -0.000248893
0 -8.99606e-05 4.36159e-05 0 -0.000364358 -0.000238106
0 -8.57233e-05 5.30847e-05 0 -0.000360794 -0.00022775
0 -8.12816e-05 6.03328e-05 0 -0.000354938 -0.000218536
0 -7.62584e-05 6.4659e-05 0 -0.000346851 -0.000210943
0 -6.96778e-05 6.7496e-05 0 -0.000336064 -0.000204585
0 -6.14034e-05 6.8542e-05 0 -0.000322606 -0.000199295
0 -5.13471e-05 6.78583e-05 0 -0.000306727 -0.000194985
0 -4.02954e-05 6.5839e-05 0 -0.00028875 -0.000191694
0 -2.92645e-05 6.30948e-05 0 -0.000269278 -0.000189197
0 -1.76997e-05 5.9496e-05 0 -0.000248481 -0.000187069
0 -5.19771e-06 5.52929e-05 0 -0.000226337 -0.000185196
0 7.13132e-06 5.13233e-05 0 -0.000203268 -0.000183377
0 1.97843e-05 4.75336e-05 0 -0.000179861 -0.00018124
0 3.24438e-05 4.43267e-05 0 -0.000156632 -0.000178438
0 4.47275e-05 4.21007e-05 0 -0.000134153 -0.000174689
0 5.62697e-05 4.12547e-05 0 -0.000112967 -0.000169757
0 6.67612e-05 4.20566e-05 0 -9.35066e-05 -0.000163576
0 7.59469e-05 4.4688e-05 0 -7.61576e-05 -0.000156083
0 8.36198e-05 4.92777e-05 0 -6.12103e-05 -0.000147558
0 8.96542e-05 5.56791e-05 0 -4.88553e-05 -0.000138579
0 9.38176e-05 6.42386e-05 0 -3.93124e-05 -0.000128781
0 9.58662e-05 7.50814e-05 0 -3.29231e-05 -0.000117427
0 9.56422e-05 8.68653e-05 0 -2.97639e-05 -0.00010486
0 9.23304e-05 0.000100964 0 -3.03216e-05 -9.0923e-05
0 8.57603e-05 0.000117153 0 -3.46616e-05 -7.56718e-05
0 7.57885e-05 0.000135166 0 -4.27594e-05 -5.92298e-05
0 6.20398e-05 0.000154058 0 -5.43822e-05 -4.21453e-05
0 4.49114e-05 0.000173155 0 -6.89843e-05 -2.50344e-05
0 2.54785e-05 0.000191839 0 -8.56185e-05 -8.46071e-06
0 6.36212e-06 0.000209054 0 -0.000103166 7.14883e-06
0 -1.31696e-05 0.000224601 0 -0.000120441 2.11506e-05
0 -3.18029e-05 0.000237945 0 -0.000135544 3.2991e-05
0 -4.85615e-05 0.00024873 0 -0.000146019 4.15856e-05
0 -6.26016e-05 0.000256316 0 -0.000153645 4.75214e-05
0 -7.32345e-05 0.000260212 0 -0.000157705 5.00755e-05
0 -8.01918e-05 0.000260271 0 -0.000157663 4.91299e-05
0 -8.35808e-05 0.000256309 0 -0.000153514 4.42525e-05
0 -8.3761e-05 0.000248253 0 -0.000146483 3.52712e-05
0 -8.17096e-05 0.000236332 0 -0.000138404 2.30419e-05
0 -7.97189e-05 0.000218325 0 -0.000133454 8.57651e-06
0 -7.67112e-05 0.00019794 0 -0.000127059 -8.60931e-06
0 -7.35215e-05 0.00017553 0 -0.00012203 -2.68275e-05
0 -7.04183e-05 0.000151275 0 -0.000117415 -4.6599e-05
0 -6.69873e-05 0.000125153 0 -0.000112657 -6.76714e-05
0 -6.32366e-05 9.82376e-05 0 -0.000108117 -8.68827e-05
0 -5.92848e-05 7.09185e-05 0 -0.000103689 -0.000106914
0 -5.50947e-05 4.31538e-05 0 -9.85978e-05 -0.000126909
0 -5.0312e-05 1.51805e-05 0 -9.3198e-05 -0.000147021
0 -4.46827e-05 -1.27541e-05 0 -8.66001e-05 -0.000167383
0 -3.84435e-05 -4.01657e-05 0 -7.94601e-05 -0.000187295
0 -3.22497e-05 -6.63972e-05 0 -7.26144e-05 -0.000206733
0 -2.67259e-05 -9.09012e-05 0 -6.68694e-05 -0.000225749
0 -2.22727e-05 -0.000113133 0 -6.23433e-05 -0.000243267
0 -1.93976e-05 -0.000132622 0 -5.96878e-05 -0.000258683
0 -1.85064e-05 -0.000148908 0 -5.93673e-05 -0.000271855
0 -1.95567e-05 -0.000161841 0 -6.13056e-05 -0.000282489
0 -2.22775e-05 -0.000171399 0 -6.50202e-05 -0.000290395
0 -2.64122e-05 -0.000177408 0 -7.03651e-05 -0.000295291
0 -3.15173e-05 -0.000180104 0 -7.68068e-05 -0.000297459
0 -3.71589e-05 -0.000179816 0 -8.39256e-05 -0.0002971
0 -4.28984e-05 -0.000176878 0 -9.12782e-05 -0.00029452
0 -4.82138e-05 -0.000171673 0 -9.81936e-05 -0.000289703
0 -5.25552e-05 -0.000164632 0 -0.000103415 -0.000283337
0 -5.397e-05 -0.000156631 0 -0.000106229 -0.000276914
0 -4.77614e-05 -0.000150059 0 -0.000105976 -0.000271643
0 -4.25324e-05 -0.000142464 0 -0.000106111 -0.000265936
0 -3.54947e-05 -0.000134503 0 -0.000103038 -0.00025988
0 -2.55589e-05 -0.000126889 0 -9.64333e-05 -0.000254342
0 -1.42663e-05 -0.000118866 0 -8.80725e-05 -0.000248371
0 -2.62196e-06 -0.000109891 0 -7.89722e-05 -0.000241952
0 9.82084e-06 -0.000100214 0 -6.87098e-05 -0.00023512
0 3.10386e-05 -8.09087e-05 0 -5.60294e-05 -0.000226375
0 5.19487e-05 -5.87723e-05 0 -4.48123e-05 -0.000215139
0 7.22674e-05 -3.58193e-05 0 -3.55038e-05 -0.000204357
0 9.43161e-05 -1.17585e-05 0 -2.46171e-05 -0.000192501
0 0.000115807 1.50186e-05 0 -1.32726e-05 -0.000178181
0 0.000134489 4.4306e-05 0 -3.51015e-06 -0.000161808
0 0.000152192 7.42507e-05 0 5.89134e-06 -0.000144574
0 0.000170411 0.000104172 0 1.58873e-05 -0.000127177
0 0.000187191 0.000135153 0 2.37854e-05 -0.000107985
0 0.000201363 0.000168148 0 3.0594e-05 -8.6458e-05
0 0.000214294 0.000202153 0 3.51374e-05 -6.53953e-05
0 0.000225426 0.000235354 0 3.85328e-05 -4.38558e-05
0 0.000235507 0.00026819 0 4.43891e-05 -2.30397e-05
0 0.000245467 0.000302012 0 5.21754e-05 -1.64238e-06
0 0.000250631 0.000337269 0 5.90061e-05 2.29088e-05
0 0.000251049 0.000373501 0 6.31802e-05 4.75147e-05
0 0.000250328 0.00040819 0 6.61362e-05 7.24499e-05
0 0.000249195 0.000437209 0 6.88671e-05 9.4588e-05
0 0.000244972 0.0004662 0 6.89962e-05 0.000114371
0 0.000237786 0.000494303 0 6.84554e-05 0.000135713
0 0.000228995 0.000521623 0 6.75754e-05 0.000157134
0 0.000218545 0.000547271 0 6.56458e-05 0.00017866
0 0.000207318 0.000570657 0 6.24409e-05 0.000198794
0 0.000197181 0.000590942 0 5.842e-05 0.000216683
0 0.000189367 0.0006078 0 5.3987e-05 0.00023157
0 0.000182596 0.000621256 0 4.87476e-05 0.000243322
0 0.000175629 0.000631254 0 4.27072e-05 0.000252186
0 0.000168115 0.000637983 0 3.68391e-05 0.000260299
0 0.000159423 0.000641839 0 3.11258e-05 0.000267225
0 0.000149906 0.000641732 0 2.51643e-05 0.000270135
0 0.000140046 0.000636231 0 1.96092e-05 0.000269978
0 0.000130664 0.000625399 0 1.47715e-05 0.000265273
0 0.000122439 0.000609941 0 1.14975e-05 0.000258742
0 0.000116145 0.000590365 0 9.95824e-06 0.000249665
0 0.000112479 0.000565947 0 1.12227e-05 0.000236728
0 0.00011212 0.000536242 0 1.50071e-05 0.000220226
0 0.000115113 0.000501607 0 2.18415e-05 0.000199208
0 0.000120909 0.000463072 0 2.95743e-05 0.000175873
0 0.000128795 0.000422033 0 3.9588e-05 0.000150478
0 0.000138559 0.000378353 0 5.09764e-05 0.000123018
0 0.000149625 0.00033233 0 6.35651e-05 9.40489e-05
0 0.000161145 0.000285195 0 7.64679e-05 6.44416e-05
0 0.000171039 0.000241432 0 8.91519e-05 3.56599e-05
0 0.00017997 0.000203478 0 0.000101012 8.81449e-06
0 0.000187264 0.000165539 0 0.000111066 -1.73559e-05
0 0.000193551 0.00013166 0 0.000118987 -4.06753e-05
0 0.000199709 0.00010657 0 0.00012431 -5.91493e-05
0 0.000203918 8.81631e-05 0 0.00012543 -7.34124e-05
0 0.000205176 7.43335e-05 0 0.000122369 -8.42436e-05
0 0.000203071 6.49643e-05 0 0.000115837 -9.09105e-05
0 0.000196775 6.11806e-05 0 0.000105465 -9.24461e-05
0 0.000186066 6.31254e-05 0 9.07817e-05 -8.88779e-05
0 0.000171581 6.98966e-05 0 7.19546e-05 -8.11138e-05
0 0.000152112 8.19936e-05 0 2.89784e-05 -6.55525e-05
0 0.00012561 0.000100196 0 -2.67395e-05 -6.79476e-05
0 0.000101547 0.000111435 0 -9.10838e-05 -6.13948e-05
0 7.80282e-05 0.000123045 0 -0.00015541 -6.35158e-05
0 5.05573e-05 0.000141821 0 -0.000222558 -6.73722e-05
0 2.22416e-05 0.000161514 0 -0.000287249 -7.38052e-05
0 -2.28861e-06 0.000174636 0 -0.000351545 -7.7743e-05
0 -2.52923e-05 0.000185757 0 -0.000412953 -8.31076e-05
0 -4.78641e-05 0.000198362 0 -0.000471725 -9.47881e-05
0 -6.68911e-05 0.000205788 0 -0.000525751 -0.000111678
0 -8.1292e-05 0.000206218 0 -0.000575542 -0.000130099
0 -9.11562e-05 0.000202735 0 -0.00062008 -0.000151613
0 -9.79304e-05 0.000196441 0 -0.000659356 -0.000178024
0 -0.000100462 0.000184498 0 -0.000693139 -0.000207414
0 -9.82994e-05 0.0001675 0 -0.000868287 -0.000225384
0 -9.21777e-05 0.000146805 0 -0.00112742 -0.000235046
0 -8.39263e-05 0.0001234 0 -0.00141305 -0.000260116
0 -7.31669e-05 9.69862e-05 0 -0.00146303 -0.000284991
0 -6.0625e-05 7.11969e-05 0 -0.00145376 -0.000311318
0 -4.68324e-05 4.45827e-05 0 -0.00143986 -0.000336496
0 -3.25978e-05 1.7761e-05 0 -0.0014274 -0.000361706
0 -1.7984e-05 -9.46786e-06 0 -0.00141353 -0.000387802
0 -3.74816e-06 -3.60674e-05 0 -0.00140079 -0.00041289
0 5.59921e-05 -7.34539e-05 0 -0.000659137 -0.000583193
0 6.53723e-05 -7.34542e-05 0 -0.000846089 -0.000533066
0 4.79224e-05 -7.7422e-05 0 -0.000813706 -0.000539305
0 5.10789e-05 -9.96074e-05 0 -0.00082828 -0.000534152
0 4.69306e-05 -0.000106598 0 -0.000861652 -0.000557867
0 3.23704e-05 -0.000101438 0 -0.000893395 -0.000565703
0 2.41709e-05 -0.000100402 0 -0.000928439 -0.000570204
0 1.57059e-05 -9.43941e-05 0 -0.000931998 -0.000558916
0 2.77502e-06 -8.01027e-05 0 -0.000950331 -0.00054335
0 -1.20384e-05 -6.2157e-05 0 -0.000964122 -0.000529123
0 -2.69413e-05 -4.45823e-05 0 -0.000982799 -0.000509447
0 -3.59069e-05 1.62899e-05 0 -0.000772585 4.91781e-05
0 -6.20447e-05 4.70375e-05 0 -0.000835866 -4.87968e-05
0 -9.31464e-05 6.33635e-05 0 -0.000897156 1.75402e-05
0 -0.000128522 9.51704e-05 0 -0.000956032 2.74904e-05
0 -0.000162183 0.000132851 0 -0.00101025 4.99809e-05
0 -0.000199263 0.000171562 0 -0.00105525 8.48273e-05
0 -0.000234465 0.000203436 0 -0.00108993 0.000120783
0 -0.000269461 0.000234493 0 -0.00112775 0.000153411
0 -0.0003046 0.000265898 0 -0.00116298 0.000182751
0 -0.000337024 0.00029024 0 -0.00119695 0.000209223
0 -0.000365124 0.000305732 0 -0.00122658 0.000228105
0 -0.000389867 0.000316177 0 -0.0012535 0.000242892
0 -0.000411382 0.000324558 0 -0.00127547 0.000251145
0 -0.000427595 0.000325093 0 -0.00129269 0.000251828
0 -0.000438337 0.000317274 0 -0.00130471 0.000246257
0 -0.000444134 0.000302496 0 -0.00131129 0.000232505
0 -0.000445143 0.000281935 0 -0.00131319 0.000214578
0 -0.00044078 0.000253924 0 -0.00130982 0.000189035
0 -0.000431631 0.000219547 0 -0.00130139 0.000158308
0 -0.000418285 0.000180021 0 -0.00128857 0.000121356
0 -0.000401127 0.000135877 0 -0.00127118 7.92415e-05
0 -0.000380602 8.76214e-05 0 -0.00124981 3.31285e-05
0 -0.000357384 3.66097e-05 0 -0.00122557 -1.59214e-05
0 -0.000332134 -1.51418e-05 0 -0.00119946 -6.6652e-05
0 -0.000305985 -6.68108e-05 0 -0.00117262 -0.000117631
0 -0.00028013 -0.00011763 0 -0.00114634 -0.000167493
0 -0.000255851 -0.000166401 0 -0.00112299 -0.000213983
0 -0.000234496 -0.000212037 0 -0.00110153 -0.000249744
0 -0.000217151 -0.000253977 0 -0.00108392 -0.00028191
0 -0.00020484 -0.000290998 0 -0.00107388 -0.000311274
0 -0.000196345 -0.000319463 0 -0.00106764 -0.000332836
0 -0.000193385 -0.000341408 0 -0.00106711 -0.000348143
0 -0.000196241 -0.000356027 0 -0.00107352 -0.000358338
0 -0.000205113 -0.000362925 0 -0.00108576 -0.000360784
0 -0.000219537 -0.000362652 0 -0.0011015 -0.000357185
0 -0.000239145 -0.000355682 0 -0.00112026 -0.000348736
0 -0.000263647 -0.000342198 0 -0.00114233 -0.000334055
0 -0.000290672 -0.000277851 0 -0.0011633 -0.000314781
0 -0.000328353 -0.000225917 0 -0.00119515 -0.000281623
0 -0.000364548 -0.000196323 0 -0.00122263 -0.000253567
0 -0.000400069 -0.000165927 0 -0.00125657 -0.000224366
0 -0.000433383 -0.0001418 0 -0.0012869 -0.000203746
0 -0.000464993 -0.000119406 0 -0.00131982 -0.000175048
0 -0.000495651 -9.67947e-05 0 -0.00135395 -0.000149752
0 -0.000524483 -7.5376e-05 0 -0.00138607 -0.000130929
0 -0.000550333 -5.94037e-05 0 -0.00141581 -0.000111583
0 -0.000571644 -5.02771e-05 0 -0.00144204 -9.7991e-05
0 -0.000588949 -4.53217e-05 0 -0.0014636 -9.08073e-05
0 -0.00060234 -4.24204e-05 0 -0.00149132 -8.65801e-05
0 -0.000610181 -4.63963e-05 0 -0.00171235 -9.39256e-05
0 -0.000614251 -5.66692e-05 0 -0.00179464 -0.000105027
0 -0.000614868 -7.16427e-05 0 -0.0017901 -0.00012031
0 -0.000610703 -9.04799e-05 0 -0.00178142 -0.000142627
0 -0.000600852 -0.00011248 0 -0.00176684 -0.000165354
0 -0.000585633 -0.000138155 0 -0.0017463 -0.000189927
0 -0.000566753 -0.000167828 0 -0.00172062 -0.00021655
0 -0.000546999 -0.000201722 0 -0.00169157 -0.000243045
0 -0.000524754 -0.000237725 0 -0.00165928 -0.000270439
0 -0.000500251 -0.000274823 0 -0.00162425 -0.000297575
0 -0.000479431 -0.000304616 0 -0.00159557 -0.000318548
0 -0.000458088 -0.000333622 0 -0.00156686 -0.000338689
0 -0.000436526 -0.000361384 0 -0.00153788 -0.00035788
0 -0.000414956 -0.000387719 0 -0.00150948 -0.000375625
0 -0.00039401 -0.000412102 0 -0.00148453 -0.000391469
0 -0.000374438 -0.000433761 0 -0.00146272 -0.000404776
0 -0.000356737 -0.000452123 0 -0.00144136 -0.000416418
0 -0.000341091 -0.000466967 0 -0.00142334 -0.00042491
0 -0.00032792 -0.000477947 0 -0.00140765 -0.000430421
0 -0.000317758 -0.000484488 0 -0.00139539 -0.000432707
0 -0.000311212 -0.000485779 0 -0.0013873 -0.000431859
0 -0.000308369 -0.000481788 0 -0.00138436 -0.000429714
0 -0.000309048 -0.000472552 0 -0.00138499 -0.000420965
0 -0.000313359 -0.00045813 0 -0.00138963 -0.000406092
0 -0.000321647 -0.00043873 0 -0.0013988 -0.000387963
0 -0.00033435 -0.000415647 0 -0.0014118 -0.000367701
0 -0.00035092 -0.000389297 0 -0.00142771 -0.000345624
0 -0.000369941 -0.000358862 0 -0.00144668 -0.00032083
0 -0.00039024 -0.000329328 0 -0.00146821 -0.000294139
0 -0.00041308 -0.000297154 0 -0.00149193 -0.000265459
0 -0.000437402 -0.000263609 0 -0.00151729 -0.000235246
0 -0.00046281 -0.000229296 0 -0.00154422 -0.000203964
0 -0.000488705 -0.000195445 0 -0.0015718 -0.000172874
0 -0.000514772 -0.000161861 0 -0.00159897 -0.000142175
0 -0.000540137 -0.00012962 0 -0.00162323 -0.000112803
0 -0.000564139 -9.94669e-05 0 -0.0016431 -8.60838e-05
0 -0.000586298 -7.18831e-05 0 -0.00166296 -6.01766e-05
0 -0.000604295 -4.79663e-05 0 -0.00167947 -3.74184e-05
0 -0.000619346 -2.69028e-05 0 -0.00169341 -1.86419e-05
0 -0.000630222 -9.37405e-06 0 -0.0017036 -2.95955e-06
0 -0.000637743 2.2233e-06 0 -0.00171027 7.85091e-06
0 -0.000641297 7.95093e-06 0 -0.0017127 1.30135e-05
0 -0.000640002 8.52596e-06 0 -0.00171045 1.36095e-05
0 -0.000633384 3.81318e-06 0 -0.00170292 9.95239e-06
0 -0.000621245 -6.21386e-06 0 -0.00168936 1.01215e-06
0 -0.000603544 -2.15651e-05 0 -0.0016703 -1.29332e-05
0 -0.000580848 -4.17392e-05 0 -0.00164662 -3.12574e-05
0 -0.00055387 -6.59336e-05 0 -0.00161807 -5.35314e-05
0 -0.00052254 -9.40058e-05 0 -0.00158499 -7.96558e-05
0 -0.000487358 -0.000125239 0 -0.00154872 -0.00010844
0 -0.000449314 -0.000158546 0 -0.00151005 -0.000138665
0 -0.000409334 -0.000192889 0 -0.00146971 -0.00016993
0 -0.000368564 -0.000226929 0 -0.00142943 -0.000202919
0 -0.00032818 -0.000258835 0 -0.00138772 -0.000235196
0 -0.000289145 -0.000287655 0 -0.00134607 -0.000264091
0 -0.00025256 -0.000312828 0 -0.00130623 -0.000290379
0 -0.00021862 -0.000334601 0 -0.00126951 -0.000313797
0 -0.000187171 -0.00035341 0 -0.00123633 -0.00033356
0 -0.000158589 -0.000368888 0 -0.00120728 -0.000349944
0 -0.000133824 -0.000379776 0 -0.0011843 -0.000361697
0 -0.000113971 -0.000384803 0 -0.00116965 -0.000366599
0 -9.98078e-05 -0.000384548 0 -0.00115797 -0.000365455
0 -9.13969e-05 -0.000376987 0 -0.00115109 -0.000359326
0 -8.75753e-05 -0.000363434 0 -0.00114677 -0.000347507
0 -8.8192e-05 -0.000344499 0 -0.00114682 -0.000330533
0 -9.34996e-05 -0.000320602 0 -0.00115324 -0.000308002
0 -0.000103382 -0.000292183 0 -0.00116538 -0.00028172
0 -0.00011721 -0.00025975 0 -0.00118189 -0.000251647
0 -0.000135044 -0.000223769 0 -0.00120031 -0.000217755
0 -0.000156518 -0.000184022 0 -0.00122031 -0.000180118
0 -0.000181128 -0.000141463 0 -0.00124283 -0.000139303
0 -0.000208336 -9.73749e-05 0 -0.00126766 -9.76787e-05
0 -0.000234323 -5.16216e-05 0 -0.00129339 -5.49638e-05
0 -0.000259116 -5.15722e-06 0 -0.00131907 -1.17312e-05
0 -0.0002837 4.11139e-05 0 -0.00134481 3.08174e-05
0 -0.000307475 8.64651e-05 0 -0.00136844 6.89999e-05
0 -0.000329531 0.000129502 0 -0.00139132 0.000104064
0 -0.000348769 0.000168905 0 -0.00141117 0.00013752
0 -0.000365291 0.000204604 0 -0.00142881 0.000167579
0 -0.000379174 0.000236716 0 -0.00144359 0.000193729
0 -0.000390044 0.000265013 0 -0.00145491 0.000217046
0 -0.000397452 0.000289282 0 -0.00146224 0.000237543
0 -0.000401059 0.000309439 0 -0.00146582 0.00025415
0 -0.000401661 0.000323925 0 -0.00146588 0.000266249
0 -0.000398159 0.000332858 0 -0.00146216 0.000273745
0 -0.00039075 0.000336305 0 -0.00145499 0.000276543
0 -0.000380012 0.000334793 0 -0.00144447 0.000275112
0 -0.00036661 0.000328887 0 -0.00143068 0.000269654
0 -0.000350859 0.000318638 0 -0.00141366 0.000260113
0 -0.000332991 0.000303671 0 -0.00139397 0.00024626
0 -0.000313457 0.000284286 0 -0.00137196 0.000227977
0 -0.000293493 0.000261488 0 -0.00134851 0.000206049
0 -0.000273148 0.000235602 0 -0.00132553 0.000181496
0 -0.00025304 0.000207661 0 -0.00130543 0.000157542
0 -0.000234177 0.000179263 0 -0.0012845 0.00013152
0 -0.000216711 0.000151154 0 -0.00126486 0.000104989
0 -0.000200419 0.000122852 0 -0.00124607 7.91638e-05
0 -0.000185396 9.43008e-05 0 -0.00122925 5.37616e-05
0 -0.00017209 6.56881e-05 0 -0.00121535 2.92021e-05
0 -0.00016148 3.86941e-05 0 -0.00120319 8.8848e-06
0 -0.00015424 1.43988e-05 0 -0.00119573 -1.03175e-05
0 -0.000150038 -6.94918e-06 0 -0.00119179 -2.91448e-05
0 -0.000148013 -2.51316e-05 0 -0.00118928 -4.57339e-05
0 -0.000147141 -4.28119e-05 0 -0.00118783 -6.05073e-05
0 -0.000148421 -5.85626e-05 0 -0.00118868 -7.42061e-05
0 -0.000152292 -7.16622e-05 0 -0.00119236 -8.60189e-05
0 -0.000158481 -8.26603e-05 0 -0.00119846 -9.63411e-05
0 -0.000166397 -9.27805e-05 0 -0.00120611 -0.00010623
0 -0.00017554 -0.000102351 0 -0.0012146 -0.000115051
0 -0.000185977 -0.000110626 0 -0.00122496 -0.000122755
0 -0.000197115 -0.000116526 0 -0.00123612 -0.000128631
0 -0.000209086 -0.000119784 0 -0.0012484 -0.000131933
0 -0.00022268 -0.00012095 0 -0.0012623 -0.000133556
0 -0.000237829 -0.000120612 0 -0.00127789 -0.000134365
0 -0.000254107 -0.000119283 0 -0.00129468 -0.000133961
0 -0.00027114 -0.000117594 0 -0.00131237 -0.000132066
0 -0.000288929 -0.000115476 0 -0.00133114 -0.000129832
0 -0.000307676 -0.000112543 0 -0.00135067 -0.000127178
0 -0.000327302 -0.000109031 0 -0.00137088 -0.000123816
0 -0.000347457 -0.000105186 0 -0.0013914 -0.000120237
0 -0.00036742 -0.00010184 0 -0.00140983 -0.000117801
0 -0.000386362 -9.97891e-05 0 -0.00142781 -0.000116806
0 -0.000403829 -9.93445e-05 0 -0.00144463 -0.000116468
0 -0.000419725 -0.000100456 0 -0.00145966 -0.000117819
0 -0.000434075 -0.000102949 0 -0.00147313 -0.000120666
0 -0.000446704 -0.000106907 0 -0.00148465 -0.000124975
0 -0.000457196 -0.000112718 0 -0.00149404 -0.000131002
0 -0.00046458 -0.000120137 0 -0.00150098 -0.000138504
0 -0.000469397 -0.000130284 0 -0.00150463 -0.00014611
0 -0.000471713 -0.000142973 0 -0.00150606 -0.000155852
0 -0.000471161 -0.000157688 0 -0.00150448 -0.000167936
0 -0.000467665 -0.000174604 0 -0.00149986 -0.000181713
0 -0.00046112 -0.000193746 0 -0.00149239 -0.000196779
0 -0.00045158 -0.000214812 0 -0.0014819 -0.000213449
0 -0.000439446 -0.000237307 0 -0.00146886 -0.00023223
0 -0.000425156 -0.000260233 0 -0.00145365 -0.000253464
0 -0.000408989 -0.000283251 0 -0.00143582 -0.000274306
0 -0.000391075 -0.000306452 0 -0.00141613 -0.000294954
0 -0.000371577 -0.000329903 0 -0.00139515 -0.000316001
0 -0.000350738 -0.000353372 0 -0.00137331 -0.000337064
0 -0.000329098 -0.000376059 0 -0.00135069 -0.000356904
0 -0.000307394 -0.00039691 0 -0.00132786 -0.00037528
0 -0.000286257 -0.000415188 0 -0.00130535 -0.000391838
0 -0.000266088 -0.000430424 0 -0.00128361 -0.000405834
0 -0.000247189 -0.000442227 0 -0.00126321 -0.000416496
0 -0.000229691 -0.000450662 0 -0.00124465 -0.000424408
0 -0.000213864 -0.000455504 0 -0.00122816 -0.000428914
0 -0.00020008 -0.000456601 0 -0.00121389 -0.000430386
0 -0.000188284 -0.000455353 0 -0.00120167 -0.000429688
0 -0.000179318 -0.00044945 0 -0.00119208 -0.000424617
0 -0.000172894 -0.00043966 0 -0.00118559 -0.000416816
0 -0.000168821 -0.00042644 0 -0.00118221 -0.000405191
0 -0.00016744 -0.000409459 0 -0.00118348 -0.000390153
0 -0.000169311 -0.000388488 0 -0.00118816 -0.000370952
0 -0.000174434 -0.000362813 0 -0.00119531 -0.000347501
0 -0.000182502 -0.000332631 0 -0.00120483 -0.000318999
0 -0.000192861 -0.000298993 0 -0.00121605 -0.000287639
0 -0.000204537 -0.000263402 0 -0.00122804 -0.000254739
0 -0.000216774 -0.000226889 0 -0.00124123 -0.000221354
0 -0.000229663 -0.000189443 0 -0.00125554 -0.000187204
0 -0.00024353 -0.000150659 0 -0.00127069 -0.000151726
0 -0.000258129 -0.00011068 0 -0.00128594 -0.000114981
0 -0.000272622 -7.04368e-05 0 -0.00130061 -7.78199e-05
0 -0.000286207 -3.11077e-05 0 -0.00131438 -4.14517e-05
0 -0.000298465 6.43299e-06 0 -0.00132728 -6.88922e-06
0 -0.000309179 4.17196e-05 0 -0.00133911 2.5317e-05
0 -0.000318071 7.45086e-05 0 -0.00134849 5.44804e-05
0 -0.000324801 0.000105024 0 -0.00135654 7.70639e-05
0 -0.000329118 0.000132215 0 -0.0013614 9.67583e-05
0 -0.000330564 0.000155657 0 -0.0013637 0.000114504
0 -0.000329167 0.000175305 0 -0.00136305 0.000129884
0 -0.000324923 0.000190854 0 -0.00136007 0.000141151
0 -0.000317607 0.000202146 0 -0.00135384 0.000148846
0 -0.000307198 0.000209349 0 -0.00134413 0.000153763
0 -0.000294132 0.000213076 0 -0.00133095 0.000155899
0 -0.000278666 0.000213616 0 -0.00131434 0.00015552
0 -0.000260901 0.000210759 0 -0.00129607 0.000152327
0 -0.000241507 0.000204693 0 -0.00127788 0.000146336
0 -0.000220877 0.000195603 0 -0.00125887 0.000136727
0 -0.000198555 0.000183747 0 -0.00123823 0.000124432
0 -0.000175995 0.000170184 0 -0.00121585 0.000110464
0 -0.000153153 0.000155526 0 -0.00119252 9.53213e-05
0 -0.000130421 0.00014012 0 -0.00116874 7.9164e-05
0 -0.000108053 0.000124036 0 -0.00114543 6.23924e-05
0 -8.60155e-05 0.000107147 0 -0.00112265 4.50409e-05
0 -6.43434e-05 8.95545e-05 0 -0.00110144 2.72822e-05
0 -4.35581e-05 7.19631e-05 0 -0.00108573 1.20296e-05
0 -2.46476e-05 5.55694e-05 0 -0.00104654 -8.93094e-07
0 -7.82298e-06 4.07738e-05 0 -0.00101342 -1.42979e-05
0 6.91639e-06 2.76716e-05 0 -0.000983166 -2.62628e-05
0 1.93879e-05 1.64092e-05 0 -0.000954888 -3.61864e-05
0 2.9193e-05 7.17502e-06 0 -0.000932588 -4.45527e-05
0 3.60946e-05 5.51692e-08 0 -0.000916763 -5.16649e-05
0 4.02113e-05 -5.15257e-06 0 -0.000907596 -5.68594e-05
0 4.1617e-05 -8.54025e-06 0 -0.000904301 -6.04384e-05
0 4.01193e-05 -9.77384e-06 0 -0.000906277 -6.27468e-05
0 3.53634e-05 -8.27817e-06 0 -0.000911149 -6.23584e-05
0 2.72017e-05 -3.77434e-06 0 -0.000918908 -5.89848e-05
0 1.59649e-05 3.37646e-06 0 -0.000929367 -5.31766e-05
0 2.3551e-06 1.23779e-05 0 -0.000942141 -4.57582e-05
0 -1.32437e-05 2.21034e-05 0 -0.00095682 -3.75088e-05
0 -3.04669e-05 3.20181e-05 0 -0.000973022 -2.88056e-05
0 -4.88546e-05 4.22462e-05 0 -0.000991217 -1.97886e-05
0 -6.78409e-05 5.27824e-05 0 -0.00100954 -1.06928e-05
0 -8.70307e-05 6.32316e-05 0 -0.00102825 -1.34189e-06
0 -0.000106072 7.30954e-05 0 -0.00104682 7.07857e-06
0 -0.000124548 8.18361e-05 0 -0.00106489 1.48262e-05
0 -0.000142045 8.93422e-05 0 -0.001082 2.15658e-05
0 -0.000158183 9.56769e-05 0 -0.00109756 2.68579e-05
0 -0.000172696 0.000100726 0 -0.00111177 3.07892e-05
0 -0.000185338 0.000104044 0 -0.00112426 3.29996e-05
0 -0.000195774 0.000105206 0 -0.00113495 3.31216e-05
0 -0.000203765 0.000104069 0 -0.00114359 3.07706e-05
0 -0.000209181 0.000100467 0 -0.00115013 2.58891e-05
0 -0.000212036 9.45146e-05 0 -0.0011542 1.90296e-05
0 -0.000212185 8.64113e-05 0 -0.00115599 1.03092e-05
0 -0.000209706 7.63078e-05 0 -0.00115498 -6.75648e-07
0 -0.000205226 6.38517e-05 0 -0.00115196 -1.38931e-05
0 -0.000200953 4.51825e-05 0 -0.00114751 -3.03122e-05
0 -0.000194394 2.49554e-05 0 -0.00114053 -4.82452e-05
0 -0.000185996 2.9714e-06 0 -0.00113147 -6.60419e-05
0 -0.000176231 -2.01656e-05 0 -0.00112116 -8.51069e-05
0 -0.000165445 -4.42755e-05 0 -0.0011101 -0.000105072
0 -0.000153841 -6.88438e-05 0 -0.00109856 -0.000125077
0 -0.000141539 -9.38035e-05 0 -0.00108645 -0.000146046
0 -0.000129049 -0.000118539 0 -0.0010739 -0.000166745
0 -0.00011704 -0.000142336 0 -0.00106171 -0.000186393
0 -0.000106118 -0.000164471 0 -0.00105076 -0.000204969
0 -9.66691e-05 -0.000184625 0 -0.00104156 -0.000222335
0 -8.87461e-05 -0.000202542 0 -0.00103359 -0.000238421
0 -8.22923e-05 -0.000218036 0 -0.00102673 -0.000252273
0 -7.73271e-05 -0.000231032 0 -0.001021 -0.000264121
0 -7.38534e-05 -0.000241622 0 -0.00101689 -0.000273965
0 -7.17523e-05 -0.000249908 0 -0.00101451 -0.000281943
0 -7.08095e-05 -0.000255937 0 -0.00101368 -0.000287622
0 -7.08528e-05 -0.000259787 0 -0.0010142 -0.000291779
0 -7.19176e-05 -0.000261187 0 -0.00101577 -0.000294217
0 -7.40731e-05 -0.00025993 0 -0.00101823 -0.00029415
0 -7.71996e-05 -0.00025618 0 -0.00102125 -0.000292373
0 -8.11549e-05 -0.00024987 0 -0.00102492 -0.000287937
0 -8.5496e-05 -0.000241568 0 -0.00102912 -0.000282177
0 -8.98245e-05 -0.000231856 0 -0.00103351 -0.000275285
0 -9.39601e-05 -0.000220949 0 -0.00103795 -0.000267366
0 -9.79169e-05 -0.00020876 0 -0.00104222 -0.000258435
0 -0.000101699 -0.000195238 0 -0.00104616 -0.000248316
0 -0.000105196 -0.000180562 0 -0.00104962 -0.00023717
0 -0.000108216 -0.000165131 0 -0.00105254 -0.000225418
0 -0.000110224 -0.000151606 0 -0.0010549 -0.000213586
0 -0.000111391 -0.000138711 0 -0.00105673 -0.000201879
0 -0.00011215 -0.000125785 0 -0.00105812 -0.000189658
0 -0.000112498 -0.000112701 0 -0.00105896 -0.000177318
0 -0.000112429 -9.95476e-05 0 -0.00105929 -0.000164896
0 -0.000111944 -8.64778e-05 0 -0.00105924 -0.0001527
0 -0.000111073 -7.36242e-05 0 -0.00105893 -0.000140919
0 -0.000109936 -6.08852e-05 0 -0.00105837 -0.000129899
0 -0.000108544 -4.84501e-05 0 -0.00105748 -0.000119512
0 -0.000106912 -3.6617e-05 0 -0.00105618 -0.000110095
0 -0.000105012 -2.54216e-05 0 -0.00105438 -0.000101448
0 -0.000102849 -1.46456e-05 0 -0.00105228 -9.29113e-05
0 -0.000100256 -4.41233e-06 0 -0.00104991 -8.44671e-05
0 -9.70156e-05 4.95219e-06 0 -0.00104712 -7.685e-05
0 -9.29816e-05 1.30639e-05 0 -0.00104369 -7.03703e-05
0 -8.81731e-05 1.98723e-05 0 -0.00103953 -6.52572e-05
0 -8.26802e-05 2.55995e-05 0 -0.00103452 -6.12411e-05
0 -7.65401e-05 3.04762e-05 0 -0.00102864 -5.79303e-05
0 -6.97032e-05 3.45264e-05 0 -0.00102195 -5.52691e-05
0 -6.21009e-05 3.75736e-05 0 -0.00101463 -5.34617e-05
0 -5.3753e-05 3.94559e-05 0 -0.0010068 -5.27411e-05
0 -4.48065e-05 4.02254e-05 0 -0.000996975 -5.31033e-05
0 -3.54697e-05 4.01513e-05 0 -0.000976553 -5.41902e-05
0 -2.40261e-05 3.90637e-05 0 -0.000954734 -5.58303e-05
0 -1.16181e-05 3.72903e-05 0 -0.000931069 -5.7935e-05
0 5.94228e-07 3.55912e-05 0 -0.000909563 -5.98572e-05
0 2.211e-05 4.3521e-05 0 -0.000884606 -6.01778e-05
0 4.21977e-05 4.96553e-05 0 -0.000862209 -6.04087e-05
0 6.19811e-05 5.49286e-05 0 -0.000845422 -6.28825e-05
0 8.23688e-05 6.02271e-05 0 -0.000831192 -6.48137e-05
0 0.000102544 6.68369e-05 0 -0.00081382 -6.48441e-05
0 0.000121358 7.53255e-05 0 -0.00079781 -6.3443e-05
0 0.000138388 8.44688e-05 0 -0.000784828 -6.10332e-05
0 0.000153913 9.31268e-05 0 -0.00077383 -5.87436e-05
0 0.000169067 0.000101907 0 -0.000762884 -5.69835e-05
0 0.000183509 0.000111114 0 -0.000751474 -5.42291e-05
0 0.00019617 0.000121312 0 -0.000742371 -4.9999e-05
0 0.000206462 0.000132792 0 -0.000736052 -4.44678e-05
0 0.00021487 0.000145277 0 -0.000731766 -3.77637e-05
0 0.000221839 0.000158355 0 -0.000728739 -2.99932e-05
0 0.000227162 0.000171808 0 -0.000728128 -2.13927e-05
0 0.000230278 0.000185496 0 -0.000729918 -1.17472e-05
0 0.0002308 0.000199512 0 -0.000733824 -1.24841e-06
0 0.000229118 0.000214267 0 -0.000739321 1.03923e-05
0 0.000225504 0.000229893 0 -0.000746051 2.34283e-05
0 0.000219912 0.000246151 0 -0.000754147 3.75939e-05
0 0.000212402 0.000262517 0 -0.000763788 5.22588e-05
0 0.000203443 0.000278426 0 -0.000774722 6.68698e-05
0 0.000193812 0.000293712 0 -0.000785205 7.9285e-05
0 0.000183908 0.000308102 0 -0.000796128 9.00007e-05
0 0.000174007 0.00032124 0 -0.000806946 0.00010068
0 0.000164238 0.000333441 0 -0.000817463 0.000110989
0 0.000154971 0.000344773 0 -0.000827385 0.000120388
0 0.000146738 0.000354684 0 -0.000836302 0.000128801
0 0.000139955 0.000362669 0 -0.00084511 0.000135747
0 0.000134838 0.000368533 0 -0.000853732 0.000140568
0 0.000131518 0.000372209 0 -0.000860412 0.00014336
0 0.000130222 0.000373741 0 -0.000864799 0.000144406
0 0.000131146 0.00037331 0 -0.000866383 0.000143591
0 0.000134416 0.000370659 0 -0.000865478 0.000140291
0 0.00013998 0.000365427 0 -0.000862228 0.000134101
0 0.000147787 0.000357531 0 -0.000856895 0.000125324
0 0.000157639 0.000347255 0 -0.000849547 0.000113973
0 0.000169218 0.00033501 0 -0.000833096 0.000100671
0 0.000182161 0.000321307 0 -0.000810222 8.62727e-05
0 0.000196069 0.000306589 0 -0.000786158 7.21264e-05
0 0.000210426 0.000290991 0 -0.000759932 5.86806e-05
0 0.000225049 0.000274752 0 -0.000733582 4.46684e-05
0 0.000239099 0.000257909 0 -0.000707075 3.0385e-05
0 0.000252233 0.000241243 0 -0.000686741 1.56046e-05
0 0.000263624 0.000225359 0 -0.000669239 2.42947e-06
0 0.000272965 0.000209927 0 -0.000653377 -1.03026e-05
0 0.000280518 0.000194713 0 -0.000640426 -2.21593e-05
0 0.00028589 0.000180285 0 -0.000630959 -3.31685e-05
0 0.000288238 0.000167357 0 -0.000627592 -4.28983e-05
0 0.000287181 0.000156088 0 -0.000628379 -5.16054e-05
0 0.000283133 0.000146221 0 -0.000631322 -5.78175e-05
0 0.000276294 0.00013821 0 -0.000635734 -6.08688e-05
0 0.000266551 0.000132792 0 -0.000640175 -6.16599e-05
0 0.000253837 0.000129848 0 -0.000647535 -6.00642e-05
0 0.000238618 0.000128012 0 -0.000656541 -5.66544e-05
0 0.000221269 0.000126932 0 -0.00066777 -5.23206e-05
0 0.000201968 0.000126565 0 -0.000680474 -4.70594e-05
0 0.000181341 0.000126978 0 -0.000693918 -4.08128e-05
0 0.000160453 0.000128122 0 -0.000707057 -3.36835e-05
0 0.000139828 0.000129589 0 -0.000718744 -2.63815e-05
0 0.00011891 0.000131058 0 -0.000731309 -1.9443e-05
0 9.75628e-05 0.000132055 0 -0.000749616 -1.26141e-05
0 7.62657e-05 0.000132518 0 -0.000767458 -6.22024e-06
0 5.60861e-05 0.000132504 0 -0.000784242 -5.28912e-07
0 3.73243e-05 0.000131921 0 -0.000799129 4.47203e-06
0 2.03847e-05 0.000130757 0 -0.000812932 8.92828e-06
0 5.68785e-06 0.000127713 0 -0.000824769 1.19698e-05
0 -6.86917e-06 0.000122621 0 -0.000834559 1.25786e-05
0 -1.74467e-05 0.000115646 0 -0.000842872 1.14932e-05
0 -2.61387e-05 0.000107261 0 -0.000848794 9.31952e-06
0 -3.28351e-05 9.80728e-05 0 -0.000852059 5.7448e-06
0 -3.74085e-05 8.84705e-05 0 -0.000852484 6.07863e-07
0 -3.96356e-05 7.85389e-05 0 -0.000850544 -5.40655e-06
0 -3.99386e-05 6.73123e-05 0 -0.000847147 -1.21467e-05
0 -3.84014e-05 5.42994e-05 0 -0.000842939 -2.09216e-05
0 -3.49741e-05 3.96487e-05 0 -0.000837868 -3.17348e-05
0 -2.98723e-05 2.4658e-05 0 -0.000831701 -4.35124e-05
0 -2.38877e-05 1.21296e-05 0 -0.000824615 -5.52375e-05
0 -1.69013e-05 -9.78045e-07 0 -0.000816598 -6.72535e-05
0 -9.05374e-06 -1.40988e-05 0 -0.000807972 -7.96546e-05
0 -5.20436e-07 -2.75594e-05 0 -0.000799116 -9.23395e-05
0 8.06777e-06 -4.11369e-05 0 -0.000790476 -0.000105602
0 1.64642e-05 -5.40362e-05 0 -0.000782254 -0.000118489
0 2.41152e-05 -6.58506e-05 0 -0.000775017 -0.000130195
0 3.06591e-05 -7.63967e-05 0 -0.000768196 -0.000140737
0 3.63553e-05 -8.58615e-05 0 -0.000757097 -0.000150418
0 4.16081e-05 -9.45687e-05 0 -0.000747493 -0.000159169
0 4.62125e-05 -0.000102428 0 -0.000739686 -0.000166966
0 4.98296e-05 -0.000109506 0 -0.000734325 -0.000173694
0 5.23194e-05 -0.000115577 0 -0.000731422 -0.000179157
0 5.37343e-05 -0.000120341 0 -0.000730498 -0.000183297
0 5.40773e-05 -0.000123453 0 -0.00073106 -0.000185907
0 5.34689e-05 -0.000125105 0 -0.000732514 -0.000186833
0 5.18865e-05 -0.000125328 0 -0.000734673 -0.00018653
0 4.93276e-05 -0.000124064 0 -0.000737712 -0.000184677
0 4.58806e-05 -0.000121446 0 -0.000741565 -0.000181425
0 4.18549e-05 -0.000117594 0 -0.00074612 -0.000177113
0 3.74035e-05 -0.000112949 0 -0.000752158 -0.000171754
0 3.24354e-05 -0.000107036 0 -0.000760006 -0.000165111
0 2.72262e-05 -9.99632e-05 0 -0.000767912 -0.000157545
0 2.2057e-05 -9.19647e-05 0 -0.000775632 -0.000149933
0 1.70885e-05 -8.35144e-05 0 -0.000782976 -0.000142195
0 1.24545e-05 -7.475e-05 0 -0.000789893 -0.000134079
0 8.27452e-06 -6.54084e-05 0 -0.000796076 -0.00012547
0 4.77308e-06 -5.55584e-05 0 -0.000801183 -0.000116574
0 2.12153e-06 -4.54142e-05 0 -0.000804997 -0.000107462
0 3.86454e-07 -3.51872e-05 0 -0.000807442 -9.82817e-05
0 -4.30035e-07 -2.49979e-05 0 -0.000808926 -8.94944e-05
0 -4.06153e-07 -1.51282e-05 0 -0.000809988 -8.20076e-05
0 7.79565e-07 -5.61815e-06 0 -0.000810146 -7.54538e-05
0 3.14139e-06 3.34999e-06 0 -0.000809411 -6.9248e-05
0 6.49786e-06 1.19127e-05 0 -0.000808004 -6.36075e-05
0 1.07707e-05 2.02653e-05 0 -0.000805871 -5.85536e-05
0 1.60074e-05 2.85244e-05 0 -0.000802832 -5.38915e-05
0 2.21734e-05 3.67203e-05 0 -0.000798834 -4.96366e-05
0 2.91606e-05 4.47858e-05 0 -0.0007941 -4.59119e-05
0 3.68162e-05 5.25775e-05 0 -0.000788931 -4.26197e-05
0 4.49861e-05 5.99886e-05 0 -0.000783404 -3.97202e-05
0 5.35674e-05 6.70241e-05 0 -0.000777751 -3.71949e-05
0 6.23608e-05 7.38245e-05 0 -0.000772096 -3.48473e-05
0 7.10806e-05 8.06101e-05 0 -0.000764517 -3.24366e-05
0 7.95288e-05 8.75563e-05 0 -0.000753587 -2.9862e-05
0 8.75013e-05 9.47532e-05 0 -0.000743575 -2.71788e-05
0 9.50844e-05 0.000102075 0 -0.000734288 -2.4255e-05
0 0.000102405 0.000109369 0 -0.000725674 -2.12351e-05
0 0.00010945 0.000116565 0 -0.000718272 -1.8105e-05
0 0.000116091 0.00012369 0 -0.000712472 -1.46294e-05
0 0.000122197 0.000130859 0 -0.000706647 -1.10124e-05
0 0.00012794 0.000138125 0 -0.000701461 -7.33045e-06
0 0.000133423 0.000145479 0 -0.000696158 -3.37803e-06
0 0.000138605 0.000152916 0 -0.000690938 7.5456e-07
0 0.00014339 0.0001604 0 -0.00068586 4.97889e-06
0 0.000147804 0.000167833 0 -0.000680837 9.24633e-06
0 0.000151968 0.000175113 0 -0.000675737 1.35686e-05
0 0.000155917 0.000182235 0 -0.000670659 1.79162e-05
0 0.000159397 0.00018931 0 -0.000665905 2.24144e-05
0 0.000162278 0.000196407 0 -0.000661305 2.70943e-05
0 0.000164611 0.000203514 0 -0.000657125 3.19475e-05
0 0.000166321 0.0002106 0 -0.000653515 3.70064e-05
0 0.000167204 0.000217607 0 -0.000650591 4.22232e-05
0 0.000167346 0.000224441 0 -0.000647351 4.71641e-05
0 0.000167278 0.000231001 0 -0.000644351 5.13057e-05
0 0.00016679 0.000237114 0 -0.000641193 5.54802e-05
0 0.000165171 0.000242993 0 -0.000639693 5.98482e-05
0 0.000161864 0.000248959 0 -0.00064011 6.44401e-05
0 0.000157025 0.000254936 0 -0.000641603 6.88524e-05
0 0.000151278 0.000260475 0 -0.000644211 7.27853e-05
0 0.000144999 0.000265175 0 -0.000647427 7.63226e-05
0 0.000137937 0.000269152 0 -0.00065143 7.9297e-05
0 0.000129811 0.000272628 0 -0.000656493 8.17836e-05
0 0.00012086 0.000275611 0 -0.000662115 8.4331e-05
0 0.00011152 0.000278077 0 -0.00066762 8.76694e-05
0 0.000102003 0.000280077 0 -0.000672928 9.12481e-05
0 9.23069e-05 0.000281389 0 -0.000678263 9.43455e-05
0 8.25651e-05 0.000281412 0 -0.00068372 9.64733e-05
0 7.31367e-05 0.000279697 0 -0.000689091 9.72286e-05
0 6.45977e-05 0.000276434 0 -0.000693965 9.66448e-05
0 5.69333e-05 0.000271347 0 -0.000697643 9.52251e-05
0 5.01214e-05 0.000264558 0 -0.00070124 9.2492e-05
0 4.40765e-05 0.000256376 0 -0.000705835 8.90908e-05
0 3.88607e-05 0.000247071 0 -0.00070965 8.46516e-05
0 3.43973e-05 0.000236743 0 -0.000712357 7.93707e-05
0 3.06337e-05 0.000225405 0 -0.000714275 7.29473e-05
0 2.76824e-05 0.000212801 0 -0.000714811 6.53394e-05
0 2.57965e-05 0.000198618 0 -0.00071424 5.62567e-05
0 2.49815e-05 0.000182947 0 -0.00071305 4.58457e-05
0 2.49624e-05 0.000166191 0 -0.000711212 3.44824e-05
0 2.54347e-05 0.000148806 0 -0.000709659 2.26673e-05
0 2.64995e-05 0.000131283 0 -0.00070787 1.10082e-05
0 2.79006e-05 0.000113498 0 -0.000704974 -1.52183e-06
0 2.92744e-05 9.55841e-05 0 -0.000700497 -1.40784e-05
0 3.08748e-05 7.76953e-05 0 -0.000694931 -2.6541e-05
0 3.28147e-05 5.9909e-05 0 -0.000688892 -3.90963e-05
0 3.47735e-05 4.46006e-05 0 -0.000682157 -5.17332e-05
0 3.67831e-05 3.08112e-05 0 -0.000675256 -6.39334e-05
0 3.90258e-05 1.62632e-05 0 -0.000669101 -7.60216e-05
0 4.11137e-05 1.74611e-06 0 -0.000664321 -8.77191e-05
0 4.28638e-05 -1.235e-05 0 -0.000659462 -9.92799e-05
0 4.43812e-05 -2.54706e-05 0 -0.000654622 -0.000109849
0 4.52784e-05 -3.73865e-05 0 -0.00064985 -0.000119346
0 4.5171e-05 -4.81011e-05 0 -0.00064633 -0.000128073
0 4.41345e-05 -5.78253e-05 0 -0.000644123 -0.00013577
0 4.22231e-05 -6.66238e-05 0 -0.000643727 -0.000142297
0 3.93451e-05 -7.45405e-05 0 -0.000644188 -0.000148016
0 3.54463e-05 -8.17098e-05 0 -0.000645474 -0.000153066
0 3.05399e-05 -8.76272e-05 0 -0.000647704 -0.000156793
0 2.50354e-05 -9.21955e-05 0 -0.000649976 -0.000159075
0 1.93993e-05 -9.53713e-05 0 -0.00065235 -0.000160189
0 1.32672e-05 -9.72705e-05 0 -0.000655284 -0.000160365
0 6.3073e-06 -9.82264e-05 0 -0.000659053 -0.000159637
0 -1.10405e-06 -9.85147e-05 0 -0.00066335 -0.000158127
0 -8.24654e-06 -9.78343e-05 0 -0.00066745 -0.000155463
0 -1.52022e-05 -9.65933e-05 0 -0.000671203 -0.000152023
0 -2.20404e-05 -9.48028e-05 0 -0.000674987 -0.000148364
0 -2.88799e-05 -9.25856e-05 0 -0.000680976 -0.000144172
0 -3.56391e-05 -8.9723e-05 0 -0.000686834 -0.000139385
0 -4.20832e-05 -8.59627e-05 0 -0.000692303 -0.000134003
0 -4.79626e-05 -8.13128e-05 0 -0.000697058 -0.000128309
0 -5.3208e-05 -7.5935e-05 0 -0.000700937 -0.00012226
0 -5.7805e-05 -6.99633e-05 0 -0.000704082 -0.000116005
0 -6.17043e-05 -6.39953e-05 0 -0.000706644 -0.000109834
0 -6.49623e-05 -5.8321e-05 0 -0.000708467 -0.000103829
0 -6.74102e-05 -5.26024e-05 0 -0.000709349 -9.80426e-05
0 -6.9398e-05 -4.68888e-05 0 -0.000709303 -9.27345e-05
0 -7.09801e-05 -4.11777e-05 0 -0.00070869 -8.77499e-05
0 -7.22042e-05 -3.54508e-05 0 -0.000707763 -8.31045e-05
0 -7.29648e-05 -2.99811e-05 0 -0.000706489 -7.85213e-05
0 -7.31796e-05 -2.48711e-05 0 -0.000704722 -7.42167e-05
0 -7.26914e-05 -2.01168e-05 0 -0.000702399 -7.02197e-05
0 -7.14539e-05 -1.56134e-05 0 -0.00069942 -6.64584e-05
0 -6.94566e-05 -1.1271e-05 0 -0.000695816 -6.28459e-05
0 -6.67361e-05 -7.16906e-06 0 -0.000691928 -5.93908e-05
0 -6.32096e-05 -3.39171e-06 0 -0.000688374 -5.57948e-05
0 -5.87979e-05 1.54184e-07 0 -0.000680832 -5.24366e-05
0 -5.35215e-05 3.56162e-06 0 -0.000671674 -4.92119e-05
0 -4.7658e-05 6.83168e-06 0 -0.000661861 -4.61388e-05
0 -4.0923e-05 9.77046e-06 0 -0.00065141 -4.34246e-05
0 -3.39228e-05 1.25549e-05 0 -0.000641021 -4.10517e-05
0 -2.63602e-05 1.51038e-05 0 -0.000630327 -3.88788e-05
0 -1.87157e-05 1.77183e-05 0 -0.000619513 -3.67365e-05
0 -1.09873e-05 2.05233e-05 0 -0.000608584 -3.4379e-05
0 -3.02128e-06 2.35343e-05 0 -0.000597346 -3.17256e-05
0 4.79136e-06 2.68657e-05 0 -0.000586261 -2.87635e-05
0 1.11224e-05 3.07928e-05 0 -0.000575624 -2.55502e-05
0 1.73777e-05 3.48607e-05 0 -0.000565409 -2.21158e-05
0 2.32746e-05 3.93023e-05 0 -0.000555628 -1.81845e-05
0 2.88035e-05 4.41321e-05 0 -0.000546212 -1.42141e-05
0 3.39786e-05 4.93666e-05 0 -0.00053793 -1.02807e-05
0 3.85135e-05 5.49293e-05 0 -0.000530234 -5.7967e-06
0 4.24231e-05 6.086e-05 0 -0.000523826 -7.43455e-07
0 4.5648e-05 6.71357e-05 0 -0.000518139 4.8788e-06
0 4.80982e-05 7.37069e-05 0 -0.000513886 1.08404e-05
0 4.96452e-05 8.05305e-05 0 -0.000510984 1.73111e-05
0 5.01655e-05 8.76036e-05 0 -0.000509756 2.42403e-05
0 4.95262e-05 9.49268e-05 0 -0.000510049 3.1589e-05
0 4.78037e-05 0.000102734 0 -0.000511354 3.92949e-05
0 4.58949e-05 0.000112218 0 -0.000513809 4.7512e-05
0 4.30504e-05 0.000122369 0 -0.00051736 5.64008e-05
0 3.90098e-05 0.000132826 0 -0.000522179 6.558e-05
0 3.41065e-05 0.000143829 0 -0.000528025 7.48857e-05
0 2.83304e-05 0.000154806 0 -0.000534651 8.43158e-05
0 2.19529e-05 0.000165744 0 -0.000541801 9.37385e-05
0 1.50165e-05 0.000176453 0 -0.000549468 0.000102899
0 7.61071e-06 0.000186657 0 -0.000557628 0.000111629
0 -5.13227e-09 0.000196055 0 -0.000566025 0.000119773
0 -7.27114e-06 0.0002042 0 -0.000574381 0.000127036
0 -1.42386e-05 0.00021091 0 -0.000582422 0.00013298
0 -2.08023e-05 0.000216135 0 -0.00058994 0.000137789
0 -2.68851e-05 0.000219908 0 -0.000596825 0.000141469
0 -3.23358e-05 0.000222177 0 -0.00060504 0.000144529
0 -3.69168e-05 0.00022277 0 -0.000613799 0.000146038
0 -4.03939e-05 0.000221441 0 -0.000620363 0.00014635
0 -4.26209e-05 0.000217981 0 -0.000624977 0.00014501
0 -4.35843e-05 0.000212354 0 -0.000627537 0.00014162
0 -4.33123e-05 0.000204661 0 -0.00062813 0.000136553
0 -4.19167e-05 0.000195119 0 -0.000627307 0.000130071
0 -3.96139e-05 0.00018398 0 -0.000625344 0.000122268
0 -3.69306e-05 0.000173112 0 -0.00062281 0.000113642
0 -3.42886e-05 0.000163139 0 -0.000619926 0.000104037
0 -3.10069e-05 0.000151702 0 -0.000616744 9.31428e-05
0 -2.76032e-05 0.000139432 0 -0.000613514 8.14556e-05
0 -2.44107e-05 0.000126815 0 -0.00060966 6.93998e-05
0 -2.17368e-05 0.000114199 0 -0.000604409 5.7431e-05
0 -1.9687e-05 0.000101687 0 -0.000600142 4.55713e-05
0 -1.82567e-05 8.92301e-05 0 -0.000597016 3.37883e-05
0 -1.74674e-05 7.68328e-05 0 -0.000595336 2.20593e-05
0 -1.74418e-05 6.46745e-05 0 -0.00059519 1.05209e-05
0 -1.83497e-05 5.3039e-05 0 -0.000596098 -5.83042e-07
0 -2.02956e-05 4.21522e-05 0 -0.00059794 -1.1029e-05
0 -2.32561e-05 3.20764e-05 0 -0.000600687 -2.07398e-05
0 -2.71177e-05 2.27385e-05 0 -0.000604578 -2.97718e-05
0 -3.17829e-05 1.4054e-05 0 -0.000612206 -3.788e-05
0 -3.72495e-05 6.05393e-06 0 -0.000620822 -4.49976e-05
0 -4.35628e-05 -1.15029e-06 0 -0.000631208 -5.16228e-05
0 -5.04781e-05 -7.61544e-06 0 -0.000642844 -5.7552e-05
0 -5.81205e-05 -1.33537e-05 0 -0.000655764 -6.27318e-05
0 -6.64398e-05 -1.83868e-05 0 -0.000669785 -6.7307e-05
0 -7.5401e-05 -2.27696e-05 0 -0.00068494 -7.143e-05
0 -8.4941e-05 -2.65832e-05 0 -0.000701081 -7.50724e-05
0 -9.49673e-05 -2.99011e-05 0 -0.00071812 -7.82972e-05
0 -0.000105379 -3.28116e-05 0 -0.00073485 -8.12073e-05
0 -0.000115901 -3.56026e-05 0 -0.000750904 -8.3835e-05
0 -0.000126387 -3.85133e-05 0 -0.000768141 -8.63513e-05
0 -0.000136988 -4.14637e-05 0 -0.000785753 -8.88448e-05
0 -0.00014767 -4.44309e-05 0 -0.000804093 -9.13301e-05
0 -0.000158374 -4.7386e-05 0 -0.000822396 -9.37578e-05
0 -0.000169374 -5.02145e-05 0 -0.000840642 -9.62468e-05
0 -0.000180713 -5.29432e-05 0 -0.000858642 -9.88181e-05
0 -0.000191921 -5.59135e-05 0 -0.000875725 -0.00010167
0 -0.000202715 -5.94145e-05 0 -0.000891835 -0.000105095
0 -0.000212904 -6.36846e-05 0 -0.000906824 -0.000109212
0 -0.000222361 -6.88599e-05 0 -0.000920509 -0.00011409
0 -0.000231023 -7.49548e-05 0 -0.000932733 -0.000119781
0 -0.000238878 -8.18886e-05 0 -0.000943307 -0.000126283
0 -0.000245919 -8.95647e-05 0 -0.000951993 -0.000133536
0 -0.000252092 -9.79441e-05 0 -0.000958624 -0.000141539
0 -0.000257362 -0.00010706 0 -0.000965055 -0.000150134
0 -0.000261458 -0.00011711 0 -0.000972547 -0.000158393
0 -0.000264273 -0.000128146 0 -0.00097542 -0.000167841
0 -0.000265696 -0.000140217 0 -0.000977657 -0.000178606
0 -0.000265678 -0.000153324 0 -0.000977255 -0.000189971
0 -0.000264263 -0.000167262 0 -0.000975684 -0.000201974
0 -0.000261526 -0.000181734 0 -0.000972664 -0.000214454
0 -0.000257259 -0.000196077 0 -0.000968221 -0.000227155
0 -0.000251569 -0.000210285 0 -0.000962593 -0.000239879
0 -0.00024483 -0.000224539 0 -0.00095609 -0.000252898
0 -0.00023786 -0.000239369 0 -0.000948943 -0.000265953
0 -0.000230348 -0.000253736 0 -0.000941186 -0.000278086
0 -0.000222204 -0.000267333 0 -0.000932583 -0.000289556
0 -0.000213513 -0.000280121 0 -0.000923224 -0.000300106
0 -0.000204494 -0.000291987 0 -0.000913459 -0.000309464
0 -0.000195419 -0.000302639 0 -0.000903614 -0.000317442
0 -0.00018666 -0.000311691 0 -0.000893851 -0.000323946
0 -0.000178228 -0.000319015 0 -0.000884123 -0.000329088
0 -0.000170208 -0.000324552 0 -0.0008753 -0.000335189
0 -0.00016277 -0.000327996 0 -0.000867199 -0.000339186
0 -0.000156404 -0.000328599 0 -0.000859225 -0.000339419
0 -0.000150987 -0.000326513 0 -0.000851853 -0.000338021
0 -0.000146235 -0.000321867 0 -0.000845163 -0.000334525
0 -0.000141452 -0.000314771 0 -0.00083905 -0.000327736
0 -0.000136869 -0.000305195 0 -0.000834152 -0.000318823
0 -0.000132677 -0.000295107 0 -0.000830385 -0.000309333
0 -0.000129728 -0.000282628 0 -0.000827984 -0.000297947
0 -0.000127872 -0.000268316 0 -0.000826763 -0.000285132
0 -0.000127158 -0.00025191 0 -0.000826914 -0.000270874
0 -0.000127594 -0.00023324 0 -0.000828248 -0.000254079
0 -0.000129209 -0.000212315 0 -0.000830722 -0.000235084
0 -0.000131876 -0.000189618 0 -0.000834288 -0.000214533
0 -0.000135339 -0.000166074 0 -0.000838666 -0.000193212
0 -0.000139442 -0.000141447 0 -0.000843625 -0.000170551
0 -0.00014369 -0.000116049 0 -0.0008488 -0.000147316
0 -0.000147601 -9.00879e-05 0 -0.000853634 -0.000123027
0 -0.000151158 -6.43787e-05 0 -0.00085849 -9.86301e-05
0 -0.000154154 -3.9168e-05 0 -0.000863214 -7.48796e-05
0 -0.000156418 -1.45348e-05 0 -0.000867408 -5.17324e-05
0 -0.000157827 9.58206e-06 0 -0.000870831 -2.91114e-05
0 -0.000158311 3.32852e-05 0 -0.000873199 -7.25361e-06
0 -0.000158207 5.58619e-05 0 -0.000873759 1.11305e-05
0 -0.000157058 7.72904e-05 0 -0.000873796 2.70181e-05
0 -0.000154539 9.70167e-05 0 -0.000871929 4.28639e-05
0 -0.000150491 0.000114756 0 -0.000869016 5.76447e-05
0 -0.000144954 0.0001305 0 -0.000864724 6.9876e-05
0 -0.000138025 0.000144333 0 -0.000859274 8.03455e-05
0 -0.000129899 0.000156453 0 -0.000852328 9.00349e-05
0 -0.000120823 0.000167114 0 -0.000844213 9.8348e-05
0 -0.00011096 0.000176427 0 -0.000835039 0.000105331
0 -0.000100392 0.000184204 0 -0.000824989 0.00011148
0 -8.92075e-05 0.000190301 0 -0.00081444 0.000116284
0 -7.75381e-05 0.000194758 0 -0.00080456 0.000119488
0 -6.5629e-05 0.000197837 0 -0.000796215 0.000122227
0 -5.37428e-05 0.000199981 0 -0.000786694 0.000124379
0 -4.18251e-05 0.000201315 0 -0.000777531 0.000125694
0 -2.9778e-05 0.000201722 0 -0.000767795 0.000126608
0 -1.75787e-05 0.000201136 0 -0.000758018 0.000126683
0 -5.50984e-06 0.000199664 0 -0.000741705 0.000125911
0 4.66683e-06 0.000198199 0 -0.000722183 0.000124357
0 1.50281e-05 0.000195892 0 -0.000703517 0.000122489
0 2.50555e-05 0.000193416 0 -0.000685071 0.000120455
0 3.45868e-05 0.000190791 0 -0.00066749 0.000118306
0 4.34609e-05 0.000188127 0 -0.000650984 0.000116183
0 5.15573e-05 0.000185473 0 -0.000636283 0.000113973
0 5.87732e-05 0.000182764 0 -0.000623686 0.000111224
0 6.47907e-05 0.00017947 0 -0.00061333 0.000108151
0 6.94555e-05 0.000175947 0 -0.00060494 0.000105398
0 7.25521e-05 0.000172828 0 -0.000598197 0.000104201
0 7.38851e-05 0.000170631 0 -0.000593916 0.000104558
0 7.33851e-05 0.000169202 0 -0.000592168 0.000106083
0 7.1783e-05 0.000169287 0 -0.000592766 0.000108509
0 6.97319e-05 0.000171315 0 -0.000595026 0.000111804
0 6.64219e-05 0.0001742 0 -0.000599246 0.000115028
0 6.14129e-05 0.000177785 0 -0.000605625 0.000118058
0 5.46508e-05 0.000182302 0 -0.000613456 0.000122172
0 4.62076e-05 0.000187811 0 -0.000622641 0.00012768
0 3.62278e-05 0.000193992 0 -0.000632934 0.000134256
0 2.48658e-05 0.000200309 0 -0.00064489 0.000140836
0 1.23606e-05 0.000206272 0 -0.000658441 0.000147257
0 -1.0634e-06 0.000211588 0 -0.000674478 0.000153454
0 -1.52702e-05 0.000216252 0 -0.000699438 0.000159267
0 -2.96956e-05 0.000220209 0 -0.000725372 0.000164782
0 -4.51703e-05 0.00022405 0 -0.000752321 0.000170175
0 -6.1564e-05 0.000227707 0 -0.000780052 0.000175523
0 -7.85428e-05 0.000230562 0 -0.00080834 0.000180263
0 -9.57088e-05 0.00023198 0 -0.000836096 0.000183786
0 -0.000113233 0.00023435 0 -0.000860918 0.000185427
0 -0.000129736 0.000234153 0 -0.000886776 0.000185023
0 -0.000145659 0.000231848 0 -0.000911433 0.000183141
0 -0.000161084 0.000227677 0 -0.000936675 0.00017954
0 -0.000175919 0.000221795 0 -0.0009609 0.000174248
0 -0.000189685 0.000213953 0 -0.000982174 0.000166797
0 -0.000202976 0.000204166 0 -0.0010008 0.000156934
0 -0.0002157 0.000192168 0 -0.00101667 0.000144635
0 -0.000226915 0.00017731 0 -0.00102941 0.000129536
0 -0.00023635 0.000159411 0 -0.00103918 0.000111475
0 -0.000243851 0.000138508 0 -0.00104584 9.06658e-05
0 -0.000249479 0.000114945 0 -0.00104929 6.74347e-05
0 -0.000253538 8.92511e-05 0 -0.00105399 4.26248e-05
0 -0.000256043 6.1754e-05 0 -0.00105689 1.7614e-05
0 -0.000257075 3.2619e-05 0 -0.00105588 -9.7893e-06
0 -0.000256577 1.64792e-06 0 -0.00105418 -3.88185e-05
0 -0.000254652 -3.11044e-05 0 -0.00105125 -6.72105e-05
0 -0.000251617 -6.49841e-05 0 -0.00104729 -9.61812e-05
0 -0.000247865 -9.92731e-05 0 -0.00104253 -0.000126216
0 -0.000243777 -0.000133503 0 -0.00103724 -0.000156101
0 -0.000239728 -0.000167296 0 -0.00103216 -0.000185172
0 -0.000235988 -0.000200356 0 -0.00102778 -0.000214054
0 -0.00023239 -0.000232757 0 -0.00102413 -0.000242443
0 -0.000228879 -0.000264393 0 -0.00102023 -0.000270068
0 -0.000225845 -0.000294719 0 -0.00101687 -0.000296659
0 -0.000223888 -0.000323056 0 -0.00101445 -0.000321541
0 -0.00022333 -0.00034904 0 -0.00101346 -0.000344315
0 -0.00022412 -0.000372636 0 -0.00101387 -0.000364996
0 -0.000226098 -0.000393903 0 -0.00101553 -0.00038371
0 -0.000229277 -0.000412734 0 -0.00101848 -0.000400309
0 -0.000233826 -0.000428854 0 -0.00102288 -0.000414588
0 -0.000239579 -0.00044215 0 -0.00102882 -0.00042637
0 -0.000246744 -0.000452466 0 -0.00103616 -0.000435591
0 -0.000255132 -0.000459971 0 -0.00104469 -0.000442352
0 -0.000264594 -0.000464791 0 -0.00105433 -0.000446807
0 -0.000275077 -0.000466794 0 -0.001068 -0.00044906
0 -0.000286288 -0.0004665 0 -0.00108399 -0.000449807
0 -0.000298036 -0.000464135 0 -0.00110134 -0.000448329
0 -0.000310248 -0.000459637 0 -0.00112046 -0.000444553
0 -0.00032284 -0.000452924 0 -0.00113965 -0.000438781
0 -0.000335508 -0.000444263 0 -0.00115902 -0.000431436
0 -0.000347801 -0.000433856 0 -0.00117737 -0.000422168
0 -0.000359126 -0.000422407 0 -0.00119453 -0.00041197
0 -0.000369229 -0.000410302 0 -0.00121025 -0.000400883
0 -0.000378527 -0.000397288 0 -0.00122441 -0.000388962
0 -0.000387253 -0.000383266 0 -0.00123707 -0.000376356
0 -0.000394832 -0.000368654 0 -0.00124804 -0.000363201
0 -0.000400613 -0.000354245 0 -0.00125622 -0.000349899
0 -0.000404159 -0.000340713 0 -0.00126015 -0.000336901
0 -0.000405202 -0.000329558 0 -0.00126057 -0.000324975
0 -0.000404452 -0.000317452 0 -0.00125856 -0.000313537
0 -0.000401235 -0.000305375 0 -0.00125421 -0.00030276
0 -0.000395013 -0.000294789 0 -0.00124698 -0.000292236
0 -0.000386471 -0.000286346 0 -0.00123728 -0.00028226
0 -0.000375984 -0.000277932 0 -0.0012255 -0.000271927
0 -0.000363857 -0.0002696 0 -0.00121227 -0.000261825
0 -0.00034997 -0.000262037 0 -0.00119775 -0.000253144
0 -0.000334272 -0.000255709 0 -0.00118254 -0.000246572
0 -0.000317078 -0.000250366 0 -0.00116696 -0.00024169
0 -0.000298945 -0.000245175 0 -0.00115104 -0.000237136
0 -0.0002804 -0.000239244 0 -0.00113462 -0.000231816
0 -0.000261969 -0.000231964 0 -0.00111699 -0.00022541
0 -0.000243957 -0.000223428 0 -0.00109992 -0.00021824
0 -0.000226294 -0.000213721 0 -0.00108288 -0.000210302
0 -0.000208924 -0.000202993 0 -0.00106621 -0.000201073
0 -0.000191964 -0.000191335 0 -0.00105018 -0.000190831
0 -0.000175773 -0.000178594 0 -0.00103528 -0.000179344
0 -0.000160744 -0.000164497 0 -0.00102191 -0.000166498
0 -0.000147155 -0.000148713 0 -0.00101014 -0.000152258
0 -0.000135149 -0.000131011 0 -0.000999782 -0.000136162
0 -0.000124853 -0.000111334 0 -0.000990956 -0.000118054
0 -0.00011644 -8.97513e-05 0 -0.000985534 -9.77435e-05
0 -0.000110106 -6.63633e-05 0 -0.000981368 -7.57251e-05
0 -0.0001057 -4.14683e-05 0 -0.000978978 -5.30012e-05
0 -0.000102825 -1.56115e-05 0 -0.000978159 -2.88051e-05
0 -0.000101252 1.0847e-05 0 -0.000978575 -3.83029e-06
0 -0.000100968 3.78869e-05 0 -0.000979397 1.90121e-05
0 -0.000102022 6.5497e-05 0 -0.000982921 3.9821e-05
0 -0.000104417 9.32452e-05 0 -0.000986681 6.24485e-05
0 -0.000108049 0.000120652 0 -0.000991819 8.58739e-05
0 -0.000112467 0.000147772 0 -0.000997308 0.00010828
0 -0.000117408 0.000174353 0 -0.00100326 0.000129987
0 -0.000122828 0.000199975 0 -0.00100908 0.000151905
0 -0.000128584 0.000224381 0 -0.00101468 0.000172661
0 -0.000134139 0.000247532 0 -0.00102055 0.000191706
0 -0.000138981 0.000269298 0 -0.00102601 0.000209644
0 -0.000143004 0.000289279 0 -0.00103099 0.000226264
0 -0.000146294 0.000307119 0 -0.00103533 0.000240885
0 -0.000148799 0.00032269 0 -0.00103883 0.00025351
0 -0.000150427 0.000335835 0 -0.00104129 0.000264393
0 -0.000151042 0.000346417 0 -0.00104256 0.000273234
0 -0.000150501 0.000354256 0 -0.00104253 0.000279676
0 -0.00014864 0.000359091 0 -0.00104116 0.000283504
0 -0.00014537 0.000360706 0 -0.00103846 0.000284758
0 -0.000140696 0.000358913 0 -0.00103439 0.000283296
0 -0.000134712 0.000353807 0 -0.00102892 0.000278252
0 -0.000127558 0.000345511 0 -0.00102227 0.000270152
0 -0.000119464 0.000334375 0 -0.00101623 0.000260574
0 -0.000110784 0.000321029 0 -0.00100936 0.000251127
0 -0.00010164 0.000305803 0 -0.00100153 0.000239504
0 -9.20238e-05 0.000288512 0 -0.0009936 0.000226827
0 -8.22046e-05 0.000269273 0 -0.000985567 0.000212589
0 -7.25895e-05 0.000248493 0 -0.000977659 0.000196863
0 -6.35394e-05 0.000226764 0 -0.000970106 0.000180259
0 -5.54612e-05 0.000205214 0 -0.000963192 0.000163872
0 -4.84981e-05 0.000183625 0 -0.000957173 0.00014757
0 -4.34954e-05 0.000165698 0 -0.000952262 0.000131439
0 -4.01243e-05 0.000148709 0 -0.000948899 0.000115796
0 -3.82533e-05 0.000132369 0 -0.000947359 0.000100356
0 -3.82201e-05 0.000117015 0 -0.000947564 8.58714e-05
0 -4.02432e-05 0.000103078 0 -0.000949519 7.26312e-05
0 -4.43226e-05 9.06583e-05 0 -0.000953388 6.08035e-05
0 -5.02912e-05 7.96119e-05 0 -0.000959158 5.02193e-05
0 -5.81377e-05 6.9841e-05 0 -0.000967029 4.07009e-05
0 -6.77865e-05 6.12552e-05 0 -0.000977055 3.22147e-05
0 -7.91548e-05 5.38628e-05 0 -0.000989149 2.48802e-05
0 -9.22136e-05 4.77409e-05 0 -0.00100312 1.88174e-05
0 -0.00010689 4.28672e-05 0 -0.00101875 1.39735e-05
0 -0.000123098 3.90474e-05 0 -0.00103566 1.00777e-05
0 -0.00014121 3.6175e-05 0 -0.00105263 6.39667e-06
0 -0.000161072 3.39006e-05 0 -0.00107153 2.96306e-06
0 -0.000182047 3.18179e-05 0 -0.00109075 2.57791e-07
0 -0.000203686 2.9434e-05 0 -0.00111059 -2.38022e-06
0 -0.000225781 2.66116e-05 0 -0.00113102 -5.76373e-06
0 -0.000248141 2.33205e-05 0 -0.00115158 -9.53658e-06
0 -0.000270614 1.95716e-05 0 -0.00117168 -1.37196e-05
0 -0.000292991 1.52511e-05 0 -0.00119113 -1.87165e-05
0 -0.000314937 1.00309e-05 0 -0.00120956 -2.48239e-05
0 -0.000336 3.41949e-06 0 -0.00122667 -3.23316e-05
0 -0.000355726 -5.04548e-06 0 -0.00124241 -4.1583e-05
0 -0.000373788 -1.5622e-05 0 -0.00125651 -5.19216e-05
0 -0.000390002 -2.83096e-05 0 -0.00127307 -6.39104e-05
0 -0.000404324 -4.29943e-05 0 -0.00129533 -7.71434e-05
0 -0.000416531 -5.96075e-05 0 -0.00131212 -9.09348e-05
0 -0.000426232 -7.82255e-05 0 -0.00132554 -0.000107282
0 -0.000433832 -9.87368e-05 0 -0.00133566 -0.000125157
0 -0.000439064 -0.000121466 0 -0.00134148 -0.00014463
0 -0.000441838 -0.000146436 0 -0.00134423 -0.00016598
0 -0.000442279 -0.000173367 0 -0.00134364 -0.000189315
0 -0.000440572 -0.000201842 0 -0.00134107 -0.000213787
0 -0.000436891 -0.000231441 0 -0.00133634 -0.000238945
0 -0.000431503 -0.000261768 0 -0.00132976 -0.000264761
0 -0.000424843 -0.000291864 0 -0.00132183 -0.000290516
0 -0.000417102 -0.000321859 0 -0.00131307 -0.000316554
0 -0.000408409 -0.000351852 0 -0.00130387 -0.000342529
0 -0.000398945 -0.000381291 0 -0.00129479 -0.000367634
0 -0.000388691 -0.000409032 0 -0.00128497 -0.000391855
0 -0.000377809 -0.000434731 0 -0.00127446 -0.000414865
0 -0.000366985 -0.000459017 0 -0.00126392 -0.000436646
0 -0.000356925 -0.000482444 0 -0.00125402 -0.000457108
0 -0.000347452 -0.000504068 0 -0.00124468 -0.000475614
0 -0.000338596 -0.000523112 0 -0.00123575 -0.000491648
0 -0.0003305 -0.000539026 0 -0.0012274 -0.000505131
0 -0.000323558 -0.000551629 0 -0.00122 -0.000516083
0 -0.000318 -0.00056102 0 -0.00121392 -0.00052438
0 -0.000313922 -0.000567229 0 -0.00120948 -0.000529875
0 -0.000311688 -0.000569874 0 -0.00120719 -0.0005321
0 -0.000311488 -0.000568694 0 -0.00120555 -0.000531132
0 -0.000312056 -0.000562889 0 -0.00120568 -0.000525598
0 -0.000314092 -0.000552812 0 -0.00120714 -0.000516066
0 -0.000317282 -0.000538756 0 -0.00121041 -0.000502684
0 -0.000321069 -0.000521019 0 -0.00121512 -0.000485332
0 -0.000325889 -0.000499507 0 -0.0012214 -0.000465126
0 -0.00033188 -0.000474657 0 -0.00122877 -0.000443917
0 -0.000338494 -0.000448852 0 -0.0012368 -0.000421963
0 -0.000345249 -0.000423459 0 -0.00124568 -0.000398549
0 -0.000353191 -0.000395704 0 -0.00125557 -0.000373614
0 -0.000361972 -0.000365848 0 -0.00126611 -0.000346456
0 -0.000371366 -0.000334282 0 -0.00127678 -0.000317479
0 -0.000380887 -0.000301764 0 -0.00128794 -0.000287684
0 -0.000390099 -0.000269093 0 -0.0012986 -0.000257391
0 -0.000398793 -0.000236655 0 -0.00130866 -0.000227261
0 -0.000406848 -0.000204736 0 -0.00131776 -0.00019766
0 -0.000414131 -0.000173364 0 -0.0013258 -0.00016841
