0 0 888.309 0 0 -888.309 0 0 -900.267 0 0 900.267 0 0 838.417 0 0 -838.417 0 0 -841.136 0 0 841.136 0 0 24.5347 0 0 -24.5347 0 0 -22.9871 0 0 22.9871
0 0 897.075 0 0 -897.075 0 0 -891.059 0 0 891.059 0 0 837.676 0 0 -837.676 0 0 -842.047 0 0 842.047 0 0 24.5767 0 0 -24.5767 0 0 -22.937 0 0 22.937
0 0 917.176 0 0 -917.176 0 0 -870.035 0 0 870.035 0 0 836.005 0 0 -836.005 0 0 -843.866 0 0 843.866 0 0 24.6508 0 0 -24.6508 0 0 -22.8451 0 0 22.8451
0 0 958.623 0 0 -958.623 0 0 -826.829 0 0 826.829 0 0 832.868 0 0 -832.868 0 0 -847.229 0 0 847.229 0 0 24.744 0 0 -24.744 0 0 -22.7046 0 0 22.7046
0 0 1005.6 0 0 -1005.6 0 0 -777.775 0 0 777.775 0 0 829.931 0 0 -829.931 0 0 -850.361 0 0 850.361 0 0 24.7828 0 0 -24.7828 0 0 -22.6315 0 0 22.6315
0 0 1065.86 0 0 -1065.86 0 0 -714.878 0 0 714.878 0 0 827.061 0 0 -827.061 0 0 -853.518 0 0 853.518 0 0 24.743 0 0 -24.743 0 0 -22.6358 0 0 22.6358
0 0 1140.33 0 0 -1140.33 0 0 -637.158 0 0 637.158 0 0 824.712 0 0 -824.712 0 0 -856.186 0 0 856.186 0 0 24.5673 0 0 -24.5673 0 0 -22.7757 0 0 22.7757
0 0 1229.98 0 0 -1229.98 0 0 -543.609 0 0 543.609 0 0 823.422 0 0 -823.422 0 0 -857.764 0 0 857.764 0 0 24.1939 0 0 -24.1939 0 0 -23.1117 0 0 23.1117
0 0 1335.88 0 0 -1335.88 0 0 -433.117 0 0 433.117 0 0 823.836 0 0 -823.836 0 0 -857.591 0 0 857.591 0 0 23.5672 0 0 -23.5672 0 0 -23.7087 0 0 23.7087
0 0 1459.18 0 0 -1459.18 0 0 -304.511 0 0 304.511 0 0 826.68 0 0 -826.68 0 0 -854.95 0 0 854.95 0 0 22.637 0 0 -22.637 0 0 -24.627 0 0 24.627
0 0 1600.87 0 0 -1600.87 0 0 -156.751 0 0 156.751 0 0 832.736 0 0 -832.736 0 0 -849.043 0 0 849.043 0 0 21.3537 0 0 -21.3537 0 0 -25.9205 0 0 25.9205
0 0 1761.36 0 0 -1761.36 0 0 8.4433 0 0 -8.4433 0 0 842.855 0 0 -842.855 0 0 -839.016 0 0 839.016 0 0 19.6725 0 0 -19.6725 0 0 -27.6328 0 0 27.6328
0 0 1939.74 0 0 -1939.74 0 0 193.931 0 0 -193.931 0 0 857.888 0 0 -857.888 0 0 -823.832 0 0 823.832 0 0 17.5725 0 0 -17.5725 0 0 -29.7913 0 0 29.7913
0 0 2134.58 0 0 -2134.58 0 0 395.038 0 0 -395.038 0 0 879.045 0 0 -879.045 0 0 -802.532 0 0 802.532 0 0 15.0235 0 0 -15.0235 0 0 -32.4211 0 0 32.4211
0 0 2342.35 0 0 -2342.35 0 0 608.774 0 0 -608.774 0 0 907.547 0 0 -907.547 0 0 -773.557 0 0 773.557 0 0 12.0361 0 0 -12.0361 0 0 -35.5306 0 0 35.5306
0 0 2557.84 0 0 -2557.84 0 0 830.717 0 0 -830.717 0 0 944.605 0 0 -944.605 0 0 -735.662 0 0 735.662 0 0 8.64737 0 0 -8.64737 0 0 -39.1114 0 0 39.1114
0 0 2774.66 0 0 -2774.66 0 0 1054.09 0 0 -1054.09 0 0 991.346 0 0 -991.346 0 0 -687.754 0 0 687.754 0 0 4.93136 0 0 -4.93136 0 0 -43.097 0 0 43.097
0 0 2985.74 0 0 -2985.74 0 0 1271.34 0 0 -1271.34 0 0 1048.71 0 0 -1048.71 0 0 -628.85 0 0 628.85 0 0 1.01366 0 0 -1.01366 0 0 -47.3418 0 0 47.3418
0 0 3183.93 0 0 -3183.93 0 0 1475.1 0 0 -1475.1 0 0 1117.29 0 0 -1117.29 0 0 -558.31 0 0 558.31 0 0 -2.95633 0 0 2.95633 0 0 -51.6587 0 0 51.6587
0 0 3362.26 0 0 -3362.26 0 0 1658.26 0 0 -1658.26 0 0 1197.26 0 0 -1197.26 0 0 -475.958 0 0 475.958 0 0 -6.66816 0 0 6.66816 0 0 -55.7871 0 0 55.7871
0 0 3513.9 0 0 -3513.9 0 0 1813.75 0 0 -1813.75 0 0 1288.29 0 0 -1288.29 0 0 -382.111 0 0 382.111 0 0 -9.78667 0 0 9.78667 0 0 -59.4025 0 0 59.4025
0 0 3631.5 0 0 -3631.5 0 0 1933.93 0 0 -1933.93 0 0 1389.63 0 0 -1389.63 0 0 -277.52 0 0 277.52 0 0 -11.9334 0 0 11.9334 0 0 -62.1042 0 0 62.1042
0 0 3706.53 0 0 -3706.53 0 0 2010.01 0 0 -2010.01 0 0 1500.07 0 0 -1500.07 0 0 -163.388 0 0 163.388 0 0 -12.6664 0 0 12.6664 0 0 -63.432 0 0 63.432
0 0 3728.79 0 0 -3728.79 0 0 2031.5 0 0 -2031.5 0 0 1618.13 0 0 -1618.13 0 0 -41.3826 0 0 41.3826 0 0 -11.4963 0 0 11.4963 0 0 -62.8911 0 0 62.8911
0 0 3686.46 0 0 -3686.46 0 0 1986.14 0 0 -1986.14 0 0 1741.58 0 0 -1741.58 0 0 85.8044 0 0 -85.8044 0 0 -7.9218 0 0 7.9218 0 0 -60.0602 0 0 60.0602
0 0 3567.53 0 0 -3567.53 0 0 1861.79 0 0 -1861.79 0 0 1868.12 0 0 -1868.12 0 0 215.022 0 0 -215.022 0 0 -1.38154 0 0 1.38154 0 0 -54.2021 0 0 54.2021
0 0 3362.58 0 0 -3362.58 0 0 1648.79 0 0 -1648.79 0 0 1994.47 0 0 -1994.47 0 0 344.44 0 0 -344.44 0 0 8.55261 0 0 -8.55261 0 0 -44.7315 0 0 44.7315
0 0 3069.04 0 0 -3069.04 0 0 1344.44 0 0 -1344.44 0 0 2116.3 0 0 -2116.3 0 0 469.332 0 0 -469.332 0 0 22.6475 0 0 -22.6475 0 0 -31.0947 0 0 31.0947
0 0 2694.64 0 0 -2694.64 0 0 956.787 0 0 -956.787 0 0 2227.78 0 0 -2227.78 0 0 583.606 0 0 -583.606 0 0 41.4933 0 0 -41.4933 0 0 -12.639 0 0 12.639
0 0 2256.23 0 0 -2256.23 0 0 503.219 0 0 -503.219 0 0 2321.98 0 0 -2321.98 0 0 680.131 0 0 -680.131 0 0 65.5609 0 0 -65.5609 0 0 11.0963 0 0 -11.0963
0 0 1774.75 0 0 -1774.75 0 0 5.1544 0 0 -5.1544 0 0 2391.77 0 0 -2391.77 0 0 751.718 0 0 -751.718 0 0 95.2544 0 0 -95.2544 0 0 40.7466 0 0 -40.7466
0 0 1269.52 0 0 -1269.52 0 0 -525.79 0 0 525.79 0 0 2430.51 0 0 -2430.51 0 0 791.575 0 0 -791.575 0 0 130.874 0 0 -130.874 0 0 76.4678 0 0 -76.4678
0 0 759.566 0 0 -759.566 0 0 -1055.06 0 0 1055.06 0 0 2433.23 0 0 -2433.23 0 0 794.103 0 0 -794.103 0 0 172.363 0 0 -172.363 0 0 118.251 0 0 -118.251
0 0 260.651 0 0 -260.651 0 0 -1574.68 0 0 1574.68 0 0 2396.2 0 0 -2396.2 0 0 755.621 0 0 -755.621 0 0 219.39 0 0 -219.39 0 0 165.902 0 0 -165.902
0 0 -220.32 0 0 220.32 0 0 -2073.71 0 0 2073.71 0 0 2317.15 0 0 -2317.15 0 0 674.172 0 0 -674.172 0 0 271.283 0 0 -271.283 0 0 218.806 0 0 -218.806
0 0 -677.105 0 0 677.105 0 0 -2543.77 0 0 2543.77 0 0 2195.94 0 0 -2195.94 0 0 549.65 0 0 -549.65 0 0 327.035 0 0 -327.035 0 0 275.923 0 0 -275.923
0 0 -1104.57 0 0 1104.57 0 0 -2983.49 0 0 2983.49 0 0 2034.6 0 0 -2034.6 0 0 383.937 0 0 -383.937 0 0 385.319 0 0 -385.319 0 0 335.845 0 0 -335.845
0 0 -1504.41 0 0 1504.41 0 0 -3394.12 0 0 3394.12 0 0 1836.28 0 0 -1836.28 0 0 180.365 0 0 -180.365 0 0 444.561 0 0 -444.561 0 0 396.954 0 0 -396.954
0 0 -1878.14 0 0 1878.14 0 0 -3777.22 0 0 3777.22 0 0 1605.56 0 0 -1605.56 0 0 -60.3338 0 0 60.3338 0 0 502.984 0 0 -502.984 0 0 457.344 0 0 -457.344
0 0 -2228.17 0 0 2228.17 0 0 -4135.45 0 0 4135.45 0 0 1347.43 0 0 -1347.43 0 0 -326.37 0 0 326.37 0 0 558.505 0 0 -558.505 0 0 515.105 0 0 -515.105
0 0 -2556.49 0 0 2556.49 0 0 -4471.34 0 0 4471.34 0 0 1068.89 0 0 -1068.89 0 0 -614.242 0 0 614.242 0 0 609.215 0 0 -609.215 0 0 567.827 0 0 -567.827
0 0 -2863.92 0 0 2863.92 0 0 -4784.9 0 0 4784.9 0 0 776.689 0 0 -776.689 0 0 -916.46 0 0 916.46 0 0 653.037 0 0 -653.037 0 0 613.672 0 0 -613.672
0 0 -3147.69 0 0 3147.69 0 0 -5073.75 0 0 5073.75 0 0 477.724 0 0 -477.724 0 0 -1226.04 0 0 1226.04 0 0 688.012 0 0 -688.012 0 0 650.615 0 0 -650.615
0 0 -3401.46 0 0 3401.46 0 0 -5331.79 0 0 5331.79 0 0 178.339 0 0 -178.339 0 0 -1535.98 0 0 1535.98 0 0 712.273 0 0 -712.273 0 0 676.789 0 0 -676.789
0 0 -3617.52 0 0 3617.52 0 0 -5550.84 0 0 5550.84 0 0 -118.034 0 0 118.034 0 0 -1840.16 0 0 1840.16 0 0 724.076 0 0 -724.076 0 0 690.371 0 0 -690.371
0 0 -3790.16 0 0 3790.16 0 0 -5725.35 0 0 5725.35 0 0 -404.009 0 0 404.009 0 0 -2132.24 0 0 2132.24 0 0 721.877 0 0 -721.877 0 0 689.767 0 0 -689.767
0 0 -3920.3 0 0 3920.3 0 0 -5856.5 0 0 5856.5 0 0 -671.556 0 0 671.556 0 0 -2405.42 0 0 2405.42 0 0 704.684 0 0 -704.684 0 0 673.773 0 0 -673.773
0 0 -4018.19 0 0 4018.19 0 0 -5954.61 0 0 5954.61 0 0 -914.989 0 0 914.989 0 0 -2653.11 0 0 2653.11 0 0 671.524 0 0 -671.524 0 0 641.413 0 0 -641.413
0 0 -4102.28 0 0 4102.28 0 0 -6038.98 0 0 6038.98 0 0 -1128.28 0 0 1128.28 0 0 -2868.94 0 0 2868.94 0 0 621.774 0 0 -621.774 0 0 592.084 0 0 -592.084
0 0 -4198.92 0 0 4198.92 0 0 -6136.96 0 0 6136.96 0 0 -1305.68 0 0 1305.68 0 0 -3047.35 0 0 3047.35 0 0 555.322 0 0 -555.322 0 0 525.6 0 0 -525.6
0 0 -4388.4 0 0 4388.4 0 0 -6331.21 0 0 6331.21 0 0 -1470.22 0 0 1470.22 0 0 -3211.1 0 0 3211.1 0 0 449.307 0 0 -449.307 0 0 418.841 0 0 -418.841
0 0 -4721.84 0 0 4721.84 0 0 -6675.07 0 0 6675.07 0 0 -1567.32 0 0 1567.32 0 0 -3304.6 0 0 3304.6 0 0 319.384 0 0 -319.384 0 0 287.381 0 0 -287.381
0 0 -5266.08 0 0 5266.08 0 0 -7237.69 0 0 7237.69 0 0 -1598.99 0 0 1598.99 0 0 -3329.64 0 0 3329.64 0 0 168.546 0 0 -168.546 0 0 134.258 0 0 -134.258
0 0 -6068.49 0 0 6068.49 0 0 -8067.94 0 0 8067.94 0 0 -1575.22 0 0 1575.22 0 0 -3296.96 0 0 3296.96 0 0 1.05364 0 0 -1.05364 0 0 -38.5543 0 0 38.5543
0 0 -7147.79 0 0 7147.79 0 0 -9185.09 0 0 9185.09 0 0 -1515.64 0 0 1515.64 0 0 -3226.77 0 0 3226.77 0 0 -180.436 0 0 180.436 0 0 -220.362 0 0 220.362
0 0 -8489.69 0 0 8489.69 0 0 -10574.3 0 0 10574.3 0 0 -1446.76 0 0 1446.76 0 0 -3146.07 0 0 3146.07 0 0 -365.419 0 0 365.419 0 0 -411.423 0 0 411.423
0 0 -10044.2 0 0 10044.2 0 0 -12183.5 0 0 12183.5 0 0 -1402.97 0 0 1402.97 0 0 -3091.44 0 0 3091.44 0 0 -547.721 0 0 547.721 0 0 -596.425 0 0 596.425
0 0 -11730.8 0 0 11730.8 0 0 -13929.4 0 0 13929.4 0 0 -1422.3 0 0 1422.3 0 0 -3101.07 0 0 3101.07 0 0 -719.949 0 0 719.949 0 0 -772.728 0 0 772.728
0 0 -13456.6 0 0 13456.6 0 0 -15715.5 0 0 15715.5 0 0 -1541.61 0 0 1541.61 0 0 -3213.75 0 0 3213.75 0 0 -875.646 0 0 875.646 0 0 -930.337 0 0 930.337
0 0 -15142.1 0 0 15142.1 0 0 -17459.2 0 0 17459.2 0 0 -1791.98 0 0 1791.98 0 0 -3461.45 0 0 3461.45 0 0 -1009.31 0 0 1009.31 0 0 -1065.68 0 0 1065.68
0 0 -16736.2 0 0 16736.2 0 0 -19106.8 0 0 19106.8 0 0 -2194.31 0 0 2194.31 0 0 -3865.31 0 0 3865.31 0 0 -1117.75 0 0 1117.75 0 0 -1174.23 0 0 1174.23
0 0 -18216.1 0 0 18216.1 0 0 -20634.2 0 0 20634.2 0 0 -2757.76 0 0 2757.76 0 0 -4435.38 0 0 4435.38 0 0 -1199.74 0 0 1199.74 0 0 -1255 0 0 1255
0 0 -19578.6 0 0 19578.6 0 0 -22037.9 0 0 22037.9 0 0 -3480.1 0 0 3480.1 0 0 -5169.21 0 0 5169.21 0 0 -1256.25 0 0 1256.25 0 0 -1308.84 0 0 1308.84
0 0 -20833.4 0 0 20833.4 0 0 -23327.7 0 0 23327.7 0 0 -4348.75 0 0 4348.75 0 0 -6053.98 0 0 6053.98 0 0 -1290.21 0 0 1290.21 0 0 -1338.9 0 0 1338.9
0 0 -21993.3 0 0 21993.3 0 0 -24517.1 0 0 24517.1 0 0 -5342.3 0 0 5342.3 0 0 -7067.42 0 0 7067.42 0 0 -1306.48 0 0 1306.48 0 0 -1350.36 0 0 1350.36
0 0 -23064.2 0 0 23064.2 0 0 -25612.6 0 0 25612.6 0 0 -6432.74 0 0 6432.74 0 0 -8180.9 0 0 8180.9 0 0 -1311.43 0 0 1311.43 0 0 -1349.69 0 0 1349.69
0 0 -24044.9 0 0 24044.9 0 0 -26613.5 0 0 26613.5 0 0 -7587.34 0 0 7587.34 0 0 -9360.56 0 0 9360.56 0 0 -1312.49 0 0 1312.49 0 0 -1344.65 0 0 1344.65
0 0 -24938.1 0 0 24938.1 0 0 -27523.3 0 0 27523.3 0 0 -8769.33 0 0 8769.33 0 0 -10568.3 0 0 10568.3 0 0 -1317.67 0 0 1317.67 0 0 -1343.59 0 0 1343.59
0 0 -25760.3 0 0 25760.3 0 0 -28359.7 0 0 28359.7 0 0 -9938.95 0 0 9938.95 0 0 -11763.1 0 0 11763.1 0 0 -1335.18 0 0 1335.18 0 0 -1355.15 0 0 1355.15
0 0 -26540.8 0 0 26540.8 0 0 -29153.4 0 0 29153.4 0 0 -11055.8 0 0 11055.8 0 0 -12903.3 0 0 12903.3 0 0 -1372.84 0 0 1372.84 0 0 -1387.48 0 0 1387.48
0 0 -27310.7 0 0 27310.7 0 0 -29937.2 0 0 29937.2 0 0 -12082.4 0 0 12082.4 0 0 -13950.4 0 0 13950.4 0 0 -1437.5 0 0 1437.5 0 0 -1447.74 0 0 1447.74
0 0 -28087.9 0 0 28087.9 0 0 -30730.2 0 0 30730.2 0 0 -12988.1 0 0 12988.1 0 0 -14872.6 0 0 14872.6 0 0 -1534.45 0 0 1534.45 0 0 -1541.46 0 0 1541.46
0 0 -28868.4 0 0 28868.4 0 0 -31528.8 0 0 31528.8 0 0 -13751 0 0 13751 0 0 -15647.7 0 0 15647.7 0 0 -1666.96 0 0 1666.96 0 0 -1672.14 0 0 1672.14
0 0 -29635.6 0 0 29635.6 0 0 -32316.3 0 0 32316.3 0 0 -14358.7 0 0 14358.7 0 0 -16262.6 0 0 16262.6 0 0 -1836.18 0 0 1836.18 0 0 -1841 0 0 1841
0 0 -30372.7 0 0 30372.7 0 0 -33075.5 0 0 33075.5 0 0 -14807 0 0 14807 0 0 -16713.1 0 0 16713.1 0 0 -2041.07 0 0 2041.07 0 0 -2047 0 0 2047
0 0 -31066.7 0 0 31066.7 0 0 -33792.9 0 0 33792.9 0 0 -15099.4 0 0 15099.4 0 0 -17002.9 0 0 17002.9 0 0 -2278.43 0 0 2278.43 0 0 -2286.84 0 0 2286.84
0 0 -31709.2 0 0 31709.2 0 0 -34459.5 0 0 34459.5 0 0 -15246.6 0 0 15246.6 0 0 -17143.2 0 0 17143.2 0 0 -2543.05 0 0 2543.05 0 0 -2555.17 0 0 2555.17
0 0 -32296.6 0 0 32296.6 0 0 -35071.3 0 0 35071.3 0 0 -15265.7 0 0 15265.7 0 0 -17151.8 0 0 17151.8 0 0 -2827.96 0 0 2827.96 0 0 -2844.81 0 0 2844.81
0 0 -32830.8 0 0 32830.8 0 0 -35629.7 0 0 35629.7 0 0 -15178.8 0 0 15178.8 0 0 -17051.5 0 0 17051.5 0 0 -3124.78 0 0 3124.78 0 0 -3147.14 0 0 3147.14
0 0 -33317.4 0 0 33317.4 0 0 -36140.3 0 0 36140.3 0 0 -15012 0 0 15012 0 0 -16869.3 0 0 16869.3 0 0 -3424.13 0 0 3424.13 0 0 -3452.46 0 0 3452.46
0 0 -33762.8 0 0 33762.8 0 0 -36608.9 0 0 36608.9 0 0 -14793.9 0 0 14793.9 0 0 -16635 0 0 16635 0 0 -3716.05 0 0 3716.05 0 0 -3750.51 0 0 3750.51
0 0 -34173.5 0 0 34173.5 0 0 -37041.8 0 0 37041.8 0 0 -14554 0 0 14554 0 0 -16379.2 0 0 16379.2 0 0 -3990.51 0 0 3990.51 0 0 -4030.91 0 0 4030.91
0 0 -34559.2 0 0 34559.2 0 0 -37448.7 0 0 37448.7 0 0 -14321.3 0 0 14321.3 0 0 -16131.5 0 0 16131.5 0 0 -4237.91 0 0 4237.91 0 0 -4283.76 0 0 4283.76
0 0 -34936.2 0 0 34936.2 0 0 -37845.9 0 0 37845.9 0 0 -14121.3 0 0 14121.3 0 0 -15918.6 0 0 15918.6 0 0 -4449.55 0 0 4449.55 0 0 -4500.1 0 0 4500.1
0 0 -35327 0 0 35327 0 0 -38256.3 0 0 38256.3 0 0 -13976 0 0 13976 0 0 -15763 0 0 15763 0 0 -4618.06 0 0 4618.06 0 0 -4672.3 0 0 4672.3
0 0 -35753.3 0 0 35753.3 0 0 -38701.9 0 0 38701.9 0 0 -13902.3 0 0 13902.3 0 0 -15682.4 0 0 15682.4 0 0 -4737.68 0 0 4737.68 0 0 -4794.44 0 0 4794.44
0 0 -36222 0 0 36222 0 0 -39189.5 0 0 39189.5 0 0 -13913.6 0 0 13913.6 0 0 -15690.6 0 0 15690.6 0 0 -4804.48 0 0 4804.48 0 0 -4862.44 0 0 4862.44
0 0 -36713.2 0 0 36713.2 0 0 -39698.6 0 0 39698.6 0 0 -14019.6 0 0 14019.6 0 0 -15797.9 0 0 15797.9 0 0 -4816.47 0 0 4816.47 0 0 -4874.22 0 0 4874.22
0 0 -37181.3 0 0 37181.3 0 0 -40181.7 0 0 40181.7 0 0 -14225.8 0 0 14225.8 0 0 -16009.8 0 0 16009.8 0 0 -4773.8 0 0 4773.8 0 0 -4829.89 0 0 4829.89
0 0 -37567 0 0 37567 0 0 -40577.7 0 0 40577.7 0 0 -14531.3 0 0 14531.3 0 0 -16325.4 0 0 16325.4 0 0 -4678.86 0 0 4678.86 0 0 -4731.84 0 0 4731.84
0 0 -37776.3 0 0 37776.3 0 0 -40790.4 0 0 40790.4 0 0 -14841.6 0 0 14841.6 0 0 -16646.7 0 0 16646.7 0 0 -4568.32 0 0 4568.32 0 0 -4617.85 0 0 4617.85
0 0 -37870.8 0 0 37870.8 0 0 -40881.5 0 0 40881.5 0 0 -15297.7 0 0 15297.7 0 0 -17119.8 0 0 17119.8 0 0 -4392.46 0 0 4392.46 0 0 -4436.61 0 0 4436.61
0 0 -37745.3 0 0 37745.3 0 0 -40743.4 0 0 40743.4 0 0 -15805.7 0 0 15805.7 0 0 -17647.9 0 0 17647.9 0 0 -4182.6 0 0 4182.6 0 0 -4220.44 0 0 4220.44
0 0 -37379.1 0 0 37379.1 0 0 -40354.8 0 0 40354.8 0 0 -16332.9 0 0 16332.9 0 0 -18196.8 0 0 18196.8 0 0 -3948.65 0 0 3948.65 0 0 -3979.6 0 0 3979.6
0 0 -36760.4 0 0 36760.4 0 0 -39703.8 0 0 39703.8 0 0 -16840.5 0 0 16840.5 0 0 -18726.9 0 0 18726.9 0 0 -3701.54 0 0 3701.54 0 0 -3725.37 0 0 3725.37
0 0 -35879 0 0 35879 0 0 -38780.7 0 0 38780.7 0 0 -17287.3 0 0 17287.3 0 0 -19195.5 0 0 19195.5 0 0 -3452.54 0 0 3452.54 0 0 -3469.47 0 0 3469.47
0 0 -34727.6 0 0 34727.6 0 0 -37578.9 0 0 37578.9 0 0 -17631.3 0 0 17631.3 0 0 -19559 0 0 19559 0 0 -3212.74 0 0 3212.74 0 0 -3223.38 0 0 3223.38
0 0 -33301.5 0 0 33301.5 0 0 -36093.9 0 0 36093.9 0 0 -17831.9 0 0 17831.9 0 0 -19775.8 0 0 19775.8 0 0 -2992.36 0 0 2992.36 0 0 -2997.71 0 0 2997.71
0 0 -31596.4 0 0 31596.4 0 0 -34322.4 0 0 34322.4 0 0 -17852.5 0 0 17852.5 0 0 -19808.1 0 0 19808.1 0 0 -2800.17 0 0 2800.17 0 0 -2801.59 0 0 2801.59
0 0 -29611.1 0 0 29611.1 0 0 -32263.6 0 0 32263.6 0 0 -17662.3 0 0 17662.3 0 0 -19623.9 0 0 19623.9 0 0 -2643.02 0 0 2643.02 0 0 -2642.15 0 0 2642.15
0 0 -27348.3 0 0 27348.3 0 0 -29921 0 0 29921 0 0 -17237.2 0 0 17237.2 0 0 -19198.5 0 0 19198.5 0 0 -2525.43 0 0 2525.43 0 0 -2524.11 0 0 2524.11
0 0 -24813.5 0 0 24813.5 0 0 -27301 0 0 27301 0 0 -16561.9 0 0 16561.9 0 0 -18516 0 0 18516 0 0 -2449.26 0 0 2449.26 0 0 -2449.45 0 0 2449.45
0 0 -22018.8 0 0 22018.8 0 0 -24416.2 0 0 24416.2 0 0 -15629.6 0 0 15629.6 0 0 -17569.7 0 0 17569.7 0 0 -2413.61 0 0 2413.61 0 0 -2417.3 0 0 2417.3
0 0 -18992 0 0 18992 0 0 -21295.9 0 0 21295.9 0 0 -14442 0 0 14442 0 0 -16361.1 0 0 16361.1 0 0 -2414.81 0 0 2414.81 0 0 -2423.95 0 0 2423.95
0 0 -15785.8 0 0 15785.8 0 0 -17994.6 0 0 17994.6 0 0 -13008.2 0 0 13008.2 0 0 -14899.7 0 0 14899.7 0 0 -2446.58 0 0 2446.58 0 0 -2462.97 0 0 2462.97
0 0 -12472.9 0 0 12472.9 0 0 -14587.1 0 0 14587.1 0 0 -11345.3 0 0 11345.3 0 0 -13203.3 0 0 13203.3 0 0 -2500.18 0 0 2500.18 0 0 -2525.42 0 0 2525.42
0 0 -9124.54 0 0 9124.54 0 0 -11146.7 0 0 11146.7 0 0 -9479.57 0 0 9479.57 0 0 -11299.2 0 0 11299.2 0 0 -2564.65 0 0 2564.65 0 0 -2600.05 0 0 2600.05
0 0 -5801.38 0 0 5801.38 0 0 -7735.88 0 0 7735.88 0 0 -7446.98 0 0 7446.98 0 0 -9224.61 0 0 9224.61 0 0 -2627.23 0 0 2627.23 0 0 -2673.7 0 0 2673.7
0 0 -2556.9 0 0 2556.9 0 0 -4409.36 0 0 4409.36 0 0 -5291.18 0 0 5291.18 0 0 -7024.45 0 0 7024.45 0 0 -2673.94 0 0 2673.94 0 0 -2731.94 0 0 2731.94
0 0 537.878 0 0 -537.878 0 0 -1216.92 0 0 1216.92 0 0 -3061.14 0 0 3061.14 0 0 -4749.4 0 0 4749.4 0 0 -2690.26 0 0 2690.26 0 0 -2759.78 0 0 2759.78
0 0 3460.13 0 0 -3460.13 0 0 1749.8 0 0 -1749.8 0 0 -813.855 0 0 813.855 0 0 -2456.14 0 0 2456.14 0 0 -2661.54 0 0 2661.54 0 0 -2741.97 0 0 2741.97
0 0 6170.26 0 0 -6170.26 0 0 4534.42 0 0 -4534.42 0 0 1374.83 0 0 -1374.83 0 0 -206.253 0 0 206.253 0 0 -2576.7 0 0 2576.7 0 0 -2666.12 0 0 2666.12
0 0 8674.17 0 0 -8674.17 0 0 7086.53 0 0 -7086.53 0 0 3476.42 0 0 -3476.42 0 0 1917.47 0 0 -1917.47 0 0 -2421.45 0 0 2421.45 0 0 -2518.89 0 0 2518.89
0 0 10984.9 0 0 -10984.9 0 0 9443.53 0 0 -9443.53 0 0 5445.8 0 0 -5445.8 0 0 3924.58 0 0 -3924.58 0 0 -2187.58 0 0 2187.58 0 0 -2294.22 0 0 2294.22
0 0 13133.9 0 0 -13133.9 0 0 11638.7 0 0 -11638.7 0 0 7238.81 0 0 -7238.81 0 0 5737.2 0 0 -5737.2 0 0 -1868.62 0 0 1868.62 0 0 -1976.95 0 0 1976.95
0 0 15155.1 0 0 -15155.1 0 0 13701.6 0 0 -13701.6 0 0 8824.68 0 0 -8824.68 0 0 7339.46 0 0 -7339.46 0 0 -1460.66 0 0 1460.66 0 0 -1572.18 0 0 1572.18
0 0 17063.5 0 0 -17063.5 0 0 15652 0 0 -15652 0 0 10184.6 0 0 -10184.6 0 0 8705.98 0 0 -8705.98 0 0 -965.284 0 0 965.284 0 0 -1075.38 0 0 1075.38
0 0 18848.2 0 0 -18848.2 0 0 17477.6 0 0 -17477.6 0 0 11311.8 0 0 -11311.8 0 0 9832.54 0 0 -9832.54 0 0 -388.113 0 0 388.113 0 0 -494.879 0 0 494.879
0 0 20486.3 0 0 -20486.3 0 0 19155.8 0 0 -19155.8 0 0 12215 0 0 -12215 0 0 10729.3 0 0 -10729.3 0 0 255.826 0 0 -255.826 0 0 155.954 0 0 -155.954
0 0 21967.3 0 0 -21967.3 0 0 20675.3 0 0 -20675.3 0 0 12913.2 0 0 -12913.2 0 0 11414.1 0 0 -11414.1 0 0 954.693 0 0 -954.693 0 0 862.894 0 0 -862.894
0 0 23307 0 0 -23307 0 0 22051.6 0 0 -22051.6 0 0 13434.9 0 0 -13434.9 0 0 11918.5 0 0 -11918.5 0 0 1698.44 0 0 -1698.44 0 0 1609.99 0 0 -1609.99
0 0 24549.1 0 0 -24549.1 0 0 23330.2 0 0 -23330.2 0 0 13809.7 0 0 -13809.7 0 0 12269.1 0 0 -12269.1 0 0 2467.66 0 0 -2467.66 0 0 2392.83 0 0 -2392.83
0 0 25748.3 0 0 -25748.3 0 0 24565.1 0 0 -24565.1 0 0 14073.9 0 0 -14073.9 0 0 12509.5 0 0 -12509.5 0 0 3243.91 0 0 -3243.91 0 0 3177.42 0 0 -3177.42
0 0 26957.2 0 0 -26957.2 0 0 25811.2 0 0 -25811.2 0 0 14269.5 0 0 -14269.5 0 0 12678.8 0 0 -12678.8 0 0 4007.45 0 0 -4007.45 0 0 3952.81 0 0 -3952.81
0 0 28227.2 0 0 -28227.2 0 0 27120.2 0 0 -27120.2 0 0 14438.7 0 0 -14438.7 0 0 12820.9 0 0 -12820.9 0 0 4738.7 0 0 -4738.7 0 0 4694.06 0 0 -4694.06
0 0 29611.6 0 0 -29611.6 0 0 28546.2 0 0 -28546.2 0 0 14623.5 0 0 -14623.5 0 0 12981.8 0 0 -12981.8 0 0 5417.64 0 0 -5417.64 0 0 5381.75 0 0 -5381.75
0 0 31163.4 0 0 -31163.4 0 0 30143.2 0 0 -30143.2 0 0 14864.4 0 0 -14864.4 0 0 13201.2 0 0 -13201.2 0 0 6026.27 0 0 -6026.27 0 0 5999.23 0 0 -5999.23
0 0 32929 0 0 -32929 0 0 31957.9 0 0 -31957.9 0 0 15197.9 0 0 -15197.9 0 0 13517.5 0 0 -13517.5 0 0 6549.29 0 0 -6549.29 0 0 6528.7 0 0 -6528.7
0 0 34955.1 0 0 -34955.1 0 0 34032.3 0 0 -34032.3 0 0 15576.3 0 0 -15576.3 0 0 13904.8 0 0 -13904.8 0 0 6702.5 0 0 -6702.5 0 0 6700.89 0 0 -6700.89
0 0 37224.2 0 0 -37224.2 0 0 36375 0 0 -36375 0 0 16083.2 0 0 -16083.2 0 0 14396.2 0 0 -14396.2 0 0 6665.75 0 0 -6665.75 0 0 6666.96 0 0 -6666.96
0 0 39701.1 0 0 -39701.1 0 0 38902.9 0 0 -38902.9 0 0 16813 0 0 -16813 0 0 15116.5 0 0 -15116.5 0 0 6624.51 0 0 -6624.51 0 0 6694.21 0 0 -6694.21
0 0 42304 0 0 -42304 0 0 41571.6 0 0 -41571.6 0 0 17748.1 0 0 -17748.1 0 0 16073.2 0 0 -16073.2 0 0 6627.78 0 0 -6627.78 0 0 6693.88 0 0 -6693.88
0 0 44955.3 0 0 -44955.3 0 0 44277.9 0 0 -44277.9 0 0 18905.8 0 0 -18905.8 0 0 17252 0 0 -17252 0 0 6638.39 0 0 -6638.39 0 0 6681.75 0 0 -6681.75
0 0 47568 0 0 -47568 0 0 46944.6 0 0 -46944.6 0 0 20247.5 0 0 -20247.5 0 0 18621.2 0 0 -18621.2 0 0 6548.35 0 0 -6548.35 0 0 6564.1 0 0 -6564.1
0 0 50069.7 0 0 -50069.7 0 0 49493.7 0 0 -49493.7 0 0 21751.5 0 0 -21751.5 0 0 20148.3 0 0 -20148.3 0 0 6349 0 0 -6349 0 0 6373.8 0 0 -6373.8
0 0 52406 0 0 -52406 0 0 51869.7 0 0 -51869.7 0 0 23370 0 0 -23370 0 0 21803.8 0 0 -21803.8 0 0 6077.33 0 0 -6077.33 0 0 6103.5 0 0 -6103.5
0 0 53674.7 0 0 -53674.7 0 0 53835.2 0 0 -53835.2 0 0 25004.6 0 0 -25004.6 0 0 23497.9 0 0 -23497.9 0 0 5768.18 0 0 -5768.18 0 0 5772.15 0 0 -5772.15
0 0 53383.5 0 0 -53383.5 0 0 55384.8 0 0 -55384.8 0 0 26419.6 0 0 -26419.6 0 0 25121.2 0 0 -25121.2 0 0 5443.39 0 0 -5443.39 0 0 5408.41 0 0 -5408.41
0 0 53121 0 0 -53121 0 0 55651.2 0 0 -55651.2 0 0 27806.8 0 0 -27806.8 0 0 26565.3 0 0 -26565.3 0 0 5087.48 0 0 -5087.48 0 0 5041.94 0 0 -5041.94
0 0 53292.9 0 0 -53292.9 0 0 55628 0 0 -55628 0 0 29165.4 0 0 -29165.4 0 0 27966 0 0 -27966 0 0 4720.43 0 0 -4720.43 0 0 4673.21 0 0 -4673.21
0 0 53199.3 0 0 -53199.3 0 0 55685.1 0 0 -55685.1 0 0 30333.6 0 0 -30333.6 0 0 29170.5 0 0 -29170.5 0 0 4378.75 0 0 -4378.75 0 0 4321.62 0 0 -4321.62
0 0 53001.2 0 0 -53001.2 0 0 55725.5 0 0 -55725.5 0 0 31279.3 0 0 -31279.3 0 0 30171.6 0 0 -30171.6 0 0 4077.56 0 0 -4077.56 0 0 3997.38 0 0 -3997.38
0 0 53041.3 0 0 -53041.3 0 0 55760.8 0 0 -55760.8 0 0 32027.2 0 0 -32027.2 0 0 30923.4 0 0 -30923.4 0 0 3811.8 0 0 -3811.8 0 0 3726.55 0 0 -3726.55
0 0 53041.9 0 0 -53041.9 0 0 55802.8 0 0 -55802.8 0 0 32474.5 0 0 -32474.5 0 0 31391.3 0 0 -31391.3 0 0 3599.81 0 0 -3599.81 0 0 3515.67 0 0 -3515.67
0 0 52974.4 0 0 -52974.4 0 0 55879.3 0 0 -55879.3 0 0 32605 0 0 -32605 0 0 31546 0 0 -31546 0 0 3456.94 0 0 -3456.94 0 0 3370.12 0 0 -3370.12
0 0 53008.5 0 0 -53008.5 0 0 55955.1 0 0 -55955.1 0 0 32453.6 0 0 -32453.6 0 0 31390 0 0 -31390 0 0 3384.56 0 0 -3384.56 0 0 3293.27 0 0 -3293.27
0 0 53073.1 0 0 -53073.1 0 0 56046.2 0 0 -56046.2 0 0 32011.5 0 0 -32011.5 0 0 30935 0 0 -30935 0 0 3377.1 0 0 -3377.1 0 0 3287.2 0 0 -3287.2
0 0 53083.2 0 0 -53083.2 0 0 56103.9 0 0 -56103.9 0 0 31284.7 0 0 -31284.7 0 0 30196.3 0 0 -30196.3 0 0 3430.56 0 0 -3430.56 0 0 3348.13 0 0 -3348.13
0 0 52970.9 0 0 -52970.9 0 0 55990.7 0 0 -55990.7 0 0 30299.9 0 0 -30299.9 0 0 29185.4 0 0 -29185.4 0 0 3542.4 0 0 -3542.4 0 0 3469.11 0 0 -3469.11
0 0 52743.8 0 0 -52743.8 0 0 55776.6 0 0 -55776.6 0 0 29091.1 0 0 -29091.1 0 0 27944.1 0 0 -27944.1 0 0 3703.33 0 0 -3703.33 0 0 3637.6 0 0 -3637.6
0 0 52487 0 0 -52487 0 0 55540.2 0 0 -55540.2 0 0 27706.8 0 0 -27706.8 0 0 26525.9 0 0 -26525.9 0 0 3897.29 0 0 -3897.29 0 0 3840.77 0 0 -3840.77
0 0 52292.5 0 0 -52292.5 0 0 55360.7 0 0 -55360.7 0 0 26209 0 0 -26209 0 0 24990 0 0 -24990 0 0 4107.14 0 0 -4107.14 0 0 4063.2 0 0 -4063.2
0 0 52215.4 0 0 -52215.4 0 0 55306.1 0 0 -55306.1 0 0 24662.5 0 0 -24662.5 0 0 23403.4 0 0 -23403.4 0 0 4317.31 0 0 -4317.31 0 0 4286.48 0 0 -4286.48
0 0 52098.6 0 0 -52098.6 0 0 54281.7 0 0 -54281.7 0 0 23154.5 0 0 -23154.5 0 0 21985.2 0 0 -21985.2 0 0 4510.9 0 0 -4510.9 0 0 4482.24 0 0 -4482.24
0 0 50355.5 0 0 -50355.5 0 0 52684.3 0 0 -52684.3 0 0 21881.5 0 0 -21881.5 0 0 20657.5 0 0 -20657.5 0 0 4661.76 0 0 -4661.76 0 0 4645.91 0 0 -4645.91
0 0 48912.4 0 0 -48912.4 0 0 51204.3 0 0 -51204.3 0 0 20760.2 0 0 -20760.2 0 0 19538 0 0 -19538 0 0 4773.44 0 0 -4773.44 0 0 4756.19 0 0 -4756.19
0 0 47734.3 0 0 -47734.3 0 0 50007.2 0 0 -50007.2 0 0 19769.2 0 0 -19769.2 0 0 18529.6 0 0 -18529.6 0 0 4826.77 0 0 -4826.77 0 0 4819.3 0 0 -4819.3
0 0 46828.1 0 0 -46828.1 0 0 49160.6 0 0 -49160.6 0 0 18942.8 0 0 -18942.8 0 0 17717.6 0 0 -17717.6 0 0 4820.94 0 0 -4820.94 0 0 4815.59 0 0 -4815.59
0 0 46302.3 0 0 -46302.3 0 0 48611.1 0 0 -48611.1 0 0 18340.9 0 0 -18340.9 0 0 17100.5 0 0 -17100.5 0 0 4748.4 0 0 -4748.4 0 0 4743.07 0 0 -4743.07
0 0 46120.4 0 0 -46120.4 0 0 48459 0 0 -48459 0 0 17947.7 0 0 -17947.7 0 0 16703.6 0 0 -16703.6 0 0 4607.11 0 0 -4607.11 0 0 4603.57 0 0 -4603.57
0 0 46292.4 0 0 -46292.4 0 0 48656 0 0 -48656 0 0 17764.1 0 0 -17764.1 0 0 16531.8 0 0 -16531.8 0 0 4398.97 0 0 -4398.97 0 0 4393.29 0 0 -4393.29
0 0 46831.6 0 0 -46831.6 0 0 49224.6 0 0 -49224.6 0 0 17806 0 0 -17806 0 0 16582.8 0 0 -16582.8 0 0 4129.1 0 0 -4129.1 0 0 4119.22 0 0 -4119.22
0 0 47563.7 0 0 -47563.7 0 0 49965.8 0 0 -49965.8 0 0 18072.4 0 0 -18072.4 0 0 16862.8 0 0 -16862.8 0 0 3804.17 0 0 -3804.17 0 0 3787.69 0 0 -3787.69
0 0 48284 0 0 -48284 0 0 50700.8 0 0 -50700.8 0 0 18557 0 0 -18557 0 0 17369.8 0 0 -17369.8 0 0 3432.62 0 0 -3432.62 0 0 3408.37 0 0 -3408.37
0 0 48961.3 0 0 -48961.3 0 0 51383 0 0 -51383 0 0 19235.5 0 0 -19235.5 0 0 18075.4 0 0 -18075.4 0 0 3028.12 0 0 -3028.12 0 0 2994.95 0 0 -2994.95
0 0 49526.2 0 0 -49526.2 0 0 51948.7 0 0 -51948.7 0 0 20069.1 0 0 -20069.1 0 0 18940.2 0 0 -18940.2 0 0 2607.12 0 0 -2607.12 0 0 2563.09 0 0 -2563.09
0 0 49915.6 0 0 -49915.6 0 0 52334.8 0 0 -52334.8 0 0 21012.3 0 0 -21012.3 0 0 19917.1 0 0 -19917.1 0 0 2186.54 0 0 -2186.54 0 0 2130.48 0 0 -2130.48
0 0 50076.1 0 0 -50076.1 0 0 52482 0 0 -52482 0 0 22013.2 0 0 -22013.2 0 0 20952.7 0 0 -20952.7 0 0 1783.86 0 0 -1783.86 0 0 1716.31 0 0 -1716.31
0 0 49964.5 0 0 -49964.5 0 0 52350.6 0 0 -52350.6 0 0 23013.3 0 0 -23013.3 0 0 21987.5 0 0 -21987.5 0 0 1417.59 0 0 -1417.59 0 0 1339.16 0 0 -1339.16
0 0 49563.5 0 0 -49563.5 0 0 51923.8 0 0 -51923.8 0 0 23952.3 0 0 -23952.3 0 0 22958.5 0 0 -22958.5 0 0 1105.74 0 0 -1105.74 0 0 1017.18 0 0 -1017.18
0 0 49035.7 0 0 -49035.7 0 0 51370 0 0 -51370 0 0 24619.1 0 0 -24619.1 0 0 23647.5 0 0 -23647.5 0 0 906.169 0 0 -906.169 0 0 810.416 0 0 -810.416
0 0 48329.5 0 0 -48329.5 0 0 50634.7 0 0 -50634.7 0 0 25179.1 0 0 -25179.1 0 0 24226.4 0 0 -24226.4 0 0 758.389 0 0 -758.389 0 0 656.813 0 0 -656.813
0 0 47453.5 0 0 -47453.5 0 0 49727.3 0 0 -49727.3 0 0 25606.5 0 0 -25606.5 0 0 24668.8 0 0 -24668.8 0 0 667.961 0 0 -667.961 0 0 562.259 0 0 -562.259
0 0 46418.1 0 0 -46418.1 0 0 48658.4 0 0 -48658.4 0 0 25880.1 0 0 -25880.1 0 0 24952.4 0 0 -24952.4 0 0 639.009 0 0 -639.009 0 0 530.964 0 0 -530.964
0 0 45234.6 0 0 -45234.6 0 0 47439.8 0 0 -47439.8 0 0 25983.4 0 0 -25983.4 0 0 25060.3 0 0 -25060.3 0 0 673.93 0 0 -673.93 0 0 565.312 0 0 -565.312
0 0 43914.7 0 0 -43914.7 0 0 46083.9 0 0 -46083.9 0 0 25905.4 0 0 -25905.4 0 0 24981.2 0 0 -24981.2 0 0 773.167 0 0 -773.167 0 0 665.793 0 0 -665.793
0 0 42469 0 0 -42469 0 0 44601.8 0 0 -44601.8 0 0 25641.2 0 0 -25641.2 0 0 24710.4 0 0 -24710.4 0 0 935.14 0 0 -935.14 0 0 830.931 0 0 -830.931
0 0 40903.7 0 0 -40903.7 0 0 42999.4 0 0 -42999.4 0 0 25192.5 0 0 -25192.5 0 0 24249.9 0 0 -24249.9 0 0 1156.34 0 0 -1156.34 0 0 1057.24 0 0 -1057.24
0 0 39217.9 0 0 -39217.9 0 0 41276 0 0 -41276 0 0 24567.9 0 0 -24567.9 0 0 23608.2 0 0 -23608.2 0 0 1431.45 0 0 -1431.45 0 0 1339.26 0 0 -1339.26
0 0 37404.5 0 0 -37404.5 0 0 39423.9 0 0 -39423.9 0 0 23781.7 0 0 -23781.7 0 0 22800.5 0 0 -22800.5 0 0 1753.46 0 0 -1753.46 0 0 1669.73 0 0 -1669.73
0 0 35451.4 0 0 -35451.4 0 0 37430.8 0 0 -37430.8 0 0 22853.8 0 0 -22853.8 0 0 21847.1 0 0 -21847.1 0 0 2113.83 0 0 -2113.83 0 0 2039.82 0 0 -2039.82
0 0 33347.6 0 0 -33347.6 0 0 35284.8 0 0 -35284.8 0 0 21807.4 0 0 -21807.4 0 0 20772.2 0 0 -20772.2 0 0 2502.75 0 0 -2502.75 0 0 2439.48 0 0 -2439.48
0 0 31089.8 0 0 -31089.8 0 0 32982 0 0 -32982 0 0 20668.3 0 0 -20668.3 0 0 19602.3 0 0 -19602.3 0 0 2909.54 0 0 -2909.54 0 0 2857.75 0 0 -2857.75
0 0 28686.7 0 0 -28686.7 0 0 30531 0 0 -30531 0 0 19462.4 0 0 -19462.4 0 0 18364 0 0 -18364 0 0 3322.95 0 0 -3322.95 0 0 3283.1 0 0 -3283.1
0 0 26161 0 0 -26161 0 0 27954.2 0 0 -27954.2 0 0 18215.1 0 0 -18215.1 0 0 17083.9 0 0 -17083.9 0 0 3731.56 0 0 -3731.56 0 0 3703.78 0 0 -3703.78
0 0 23546.3 0 0 -23546.3 0 0 25285.7 0 0 -25285.7 0 0 16950.7 0 0 -16950.7 0 0 15786.8 0 0 -15786.8 0 0 4123.99 0 0 -4123.99 0 0 4108.09 0 0 -4108.09
0 0 20880.1 0 0 -20880.1 0 0 22563.4 0 0 -22563.4 0 0 15692 0 0 -15692 0 0 14496.5 0 0 -14496.5 0 0 4489.17 0 0 -4489.17 0 0 4484.69 0 0 -4484.69
0 0 18196.4 0 0 -18196.4 0 0 19821.7 0 0 -19821.7 0 0 14460.7 0 0 -14460.7 0 0 13235.6 0 0 -13235.6 0 0 4816.61 0 0 -4816.61 0 0 4822.82 0 0 -4822.82
0 0 15522.3 0 0 -15522.3 0 0 17088.3 0 0 -17088.3 0 0 13276.7 0 0 -13276.7 0 0 12024.6 0 0 -12024.6 0 0 5096.6 0 0 -5096.6 0 0 5112.55 0 0 -5112.55
0 0 12878.8 0 0 -12878.8 0 0 14384.4 0 0 -14384.4 0 0 12157.7 0 0 -12157.7 0 0 10881.8 0 0 -10881.8 0 0 5320.55 0 0 -5320.55 0 0 5345.07 0 0 -5345.07
0 0 10284 0 0 -10284 0 0 11728.4 0 0 -11728.4 0 0 11118.2 0 0 -11118.2 0 0 9822.15 0 0 -9822.15 0 0 5481.16 0 0 -5481.16 0 0 5512.88 0 0 -5512.88
0 0 7753.65 0 0 -7753.65 0 0 9136.41 0 0 -9136.41 0 0 10168.8 0 0 -10168.8 0 0 8856.69 0 0 -8856.69 0 0 5572.6 0 0 -5572.6 0 0 5610 0 0 -5610
0 0 5301.3 0 0 -5301.3 0 0 6622.11 0 0 -6622.11 0 0 9315.96 0 0 -9315.96 0 0 7992.22 0 0 -7992.22 0 0 5590.65 0 0 -5590.65 0 0 5632.14 0 0 -5632.14
0 0 2935.96 0 0 -2935.96 0 0 4194.76 0 0 -4194.76 0 0 8562.14 0 0 -8562.14 0 0 7231.3 0 0 -7231.3 0 0 5532.8 0 0 -5532.8 0 0 5576.72 0 0 -5576.72
0 0 662.513 0 0 -662.513 0 0 1859.06 0 0 -1859.06 0 0 7905.67 0 0 -7905.67 0 0 6572.27 0 0 -6572.27 0 0 5398.26 0 0 -5398.26 0 0 5442.97 0 0 -5442.97
0 0 -1241.69 0 0 1241.69 0 0 -92.8675 0 0 92.8675 0 0 7376.29 0 0 -7376.29 0 0 6057.59 0 0 -6057.59 0 0 5185.23 0 0 -5185.23 0 0 5227.71 0 0 -5227.71
0 0 -2917.51 0 0 2917.51 0 0 -2008.63 0 0 2008.63 0 0 6947.34 0 0 -6947.34 0 0 5606.69 0 0 -5606.69 0 0 4897.99 0 0 -4897.99 0 0 4939.67 0 0 -4939.67
0 0 -4566.41 0 0 4566.41 0 0 -3828.75 0 0 3828.75 0 0 6578.55 0 0 -6578.55 0 0 5241.56 0 0 -5241.56 0 0 4542.87 0 0 -4542.87 0 0 4580.62 0 0 -4580.62
0 0 -6005.94 0 0 6005.94 0 0 -5276.01 0 0 5276.01 0 0 6229.62 0 0 -6229.62 0 0 4866.03 0 0 -4866.03 0 0 4126.63 0 0 -4126.63 0 0 4163.18 0 0 -4163.18
0 0 -7197.8 0 0 7197.8 0 0 -6597.03 0 0 6597.03 0 0 5876.01 0 0 -5876.01 0 0 4535.71 0 0 -4535.71 0 0 3657.69 0 0 -3657.69 0 0 3688.59 0 0 -3688.59
0 0 -8320.9 0 0 8320.9 0 0 -7787.31 0 0 7787.31 0 0 5539.91 0 0 -5539.91 0 0 4197.94 0 0 -4197.94 0 0 3139.58 0 0 -3139.58 0 0 3165.52 0 0 -3165.52
0 0 -9396.15 0 0 9396.15 0 0 -8928.4 0 0 8928.4 0 0 5201.29 0 0 -5201.29 0 0 3866.17 0 0 -3866.17 0 0 2582.02 0 0 -2582.02 0 0 2601.09 0 0 -2601.09
0 0 -10430.5 0 0 10430.5 0 0 -10051.6 0 0 10051.6 0 0 4840.32 0 0 -4840.32 0 0 3502.91 0 0 -3502.91 0 0 1993.67 0 0 -1993.67 0 0 2006.74 0 0 -2006.74
0 0 -11426.2 0 0 11426.2 0 0 -11114.8 0 0 11114.8 0 0 4435.68 0 0 -4435.68 0 0 3101.81 0 0 -3101.81 0 0 1383.42 0 0 -1383.42 0 0 1390.37 0 0 -1390.37
0 0 -12390.1 0 0 12390.1 0 0 -12144.3 0 0 12144.3 0 0 3969.4 0 0 -3969.4 0 0 2638.87 0 0 -2638.87 0 0 760.336 0 0 -760.336 0 0 761.573 0 0 -761.573
0 0 -13335.2 0 0 13335.2 0 0 -13162.6 0 0 13162.6 0 0 3425.28 0 0 -3425.28 0 0 2097.22 0 0 -2097.22 0 0 134.005 0 0 -134.005 0 0 129.566 0 0 -129.566
0 0 -14273.7 0 0 14273.7 0 0 -14169.7 0 0 14169.7 0 0 2808.87 0 0 -2808.87 0 0 1480.28 0 0 -1480.28 0 0 -433.715 0 0 433.715 0 0 -440.106 0 0 440.106
0 0 -15208.1 0 0 15208.1 0 0 -15175.9 0 0 15175.9 0 0 2093.16 0 0 -2093.16 0 0 759.648 0 0 -759.648 0 0 -966.796 0 0 966.796 0 0 -992.165 0 0 992.165
0 0 -16158.3 0 0 16158.3 0 0 -16199.2 0 0 16199.2 0 0 1266.9 0 0 -1266.9 0 0 -81.3981 0 0 81.3981 0 0 -1482.16 0 0 1482.16 0 0 -1520.6 0 0 1520.6
0 0 -17140.4 0 0 17140.4 0 0 -17259.4 0 0 17259.4 0 0 324.524 0 0 -324.524 0 0 -1037.17 0 0 1037.17 0 0 -1976.92 0 0 1976.92 0 0 -2020.38 0 0 2020.38
0 0 -18177.5 0 0 18177.5 0 0 -18378.9 0 0 18378.9 0 0 -741.828 0 0 741.828 0 0 -2115.8 0 0 2115.8 0 0 -2449.55 0 0 2449.55 0 0 -2495.55 0 0 2495.55
0 0 -19285.2 0 0 19285.2 0 0 -19578.6 0 0 19578.6 0 0 -1920.02 0 0 1920.02 0 0 -3309.96 0 0 3309.96 0 0 -2893.1 0 0 2893.1 0 0 -2941.71 0 0 2941.71
0 0 -20483.3 0 0 20483.3 0 0 -20878 0 0 20878 0 0 -3199.31 0 0 3199.31 0 0 -4610.5 0 0 4610.5 0 0 -3301.61 0 0 3301.61 0 0 -3355.02 0 0 3355.02
0 0 -21785.7 0 0 21785.7 0 0 -22290.7 0 0 22290.7 0 0 -4573.46 0 0 4573.46 0 0 -6006.82 0 0 6006.82 0 0 -3672.56 0 0 3672.56 0 0 -3731.64 0 0 3731.64
0 0 -23198.7 0 0 23198.7 0 0 -23824.7 0 0 23824.7 0 0 -6029.64 0 0 6029.64 0 0 -7487.77 0 0 7487.77 0 0 -4007.44 0 0 4007.44 0 0 -4069.91 0 0 4069.91
0 0 -24722.7 0 0 24722.7 0 0 -25481.1 0 0 25481.1 0 0 -7552.81 0 0 7552.81 0 0 -9040.53 0 0 9040.53 0 0 -4308.26 0 0 4308.26 0 0 -4370.16 0 0 4370.16
0 0 -26351.8 0 0 26351.8 0 0 -27253 0 0 27253 0 0 -9128.52 0 0 9128.52 0 0 -10650.1 0 0 10650.1 0 0 -4575.52 0 0 4575.52 0 0 -4633.98 0 0 4633.98
0 0 -28074.1 0 0 28074.1 0 0 -29126.9 0 0 29126.9 0 0 -10742.5 0 0 10742.5 0 0 -12299.9 0 0 12299.9 0 0 -4808.78 0 0 4808.78 0 0 -4863.52 0 0 4863.52
0 0 -29873.5 0 0 29873.5 0 0 -31086 0 0 31086 0 0 -12379 0 0 12379 0 0 -13972.9 0 0 13972.9 0 0 -5008.73 0 0 5008.73 0 0 -5060.86 0 0 5060.86
0 0 -31733.2 0 0 31733.2 0 0 -33111.7 0 0 33111.7 0 0 -14020.3 0 0 14020.3 0 0 -15651.7 0 0 15651.7 0 0 -5178.24 0 0 5178.24 0 0 -5228.06 0 0 5228.06
0 0 -33637 0 0 33637 0 0 -35186.1 0 0 35186.1 0 0 -15648.1 0 0 15648.1 0 0 -17318.5 0 0 17318.5 0 0 -5321.47 0 0 5321.47 0 0 -5367.59 0 0 5367.59
0 0 -35569.7 0 0 35569.7 0 0 -37292.7 0 0 37292.7 0 0 -17243.9 0 0 17243.9 0 0 -18954.5 0 0 18954.5 0 0 -5442.31 0 0 5442.31 0 0 -5482.79 0 0 5482.79
0 0 -37517.2 0 0 37517.2 0 0 -39416.1 0 0 39416.1 0 0 -18790.2 0 0 18790.2 0 0 -20540.7 0 0 20540.7 0 0 -5543.71 0 0 5543.71 0 0 -5577.69 0 0 5577.69
0 0 -39465.2 0 0 39465.2 0 0 -41540.5 0 0 41540.5 0 0 -20269.7 0 0 20269.7 0 0 -22059.1 0 0 22059.1 0 0 -5628.27 0 0 5628.27 0 0 -5656.38 0 0 5656.38
0 0 -41397.7 0 0 41397.7 0 0 -43648.4 0 0 43648.4 0 0 -21666.8 0 0 21666.8 0 0 -23493.6 0 0 23493.6 0 0 -5699.17 0 0 5699.17 0 0 -5722.52 0 0 5722.52
0 0 -43295.7 0 0 43295.7 0 0 -45718.8 0 0 45718.8 0 0 -22967.3 0 0 22967.3 0 0 -24830.3 0 0 24830.3 0 0 -5760.21 0 0 5760.21 0 0 -5779.24 0 0 5779.24
0 0 -45137.5 0 0 45137.5 0 0 -47728.3 0 0 47728.3 0 0 -24160 0 0 24160 0 0 -26057.4 0 0 26057.4 0 0 -5814.99 0 0 5814.99 0 0 -5829.44 0 0 5829.44
0 0 -46899.9 0 0 46899.9 0 0 -49651.4 0 0 49651.4 0 0 -25236.1 0 0 25236.1 0 0 -27165.2 0 0 27165.2 0 0 -5866.27 0 0 5866.27 0 0 -5875.95 0 0 5875.95
0 0 -48559.9 0 0 48559.9 0 0 -51462.9 0 0 51462.9 0 0 -26189 0 0 26189 0 0 -28146.7 0 0 28146.7 0 0 -5915.9 0 0 5915.9 0 0 -5921.41 0 0 5921.41
0 0 -50095.9 0 0 50095.9 0 0 -53139.1 0 0 53139.1 0 0 -27013.7 0 0 27013.7 0 0 -28996.9 0 0 28996.9 0 0 -5965.43 0 0 5965.43 0 0 -5967.92 0 0 5967.92
0 0 -51487.6 0 0 51487.6 0 0 -54658 0 0 54658 0 0 -27707.8 0 0 27707.8 0 0 -29712.8 0 0 29712.8 0 0 -6016.34 0 0 6016.34 0 0 -6016.9 0 0 6016.9
0 0 -52587.3 0 0 52587.3 0 0 -55220.9 0 0 55220.9 0 0 -28242.5 0 0 28242.5 0 0 -30183 0 0 30183 0 0 -6072.04 0 0 6072.04 0 0 -6076.76 0 0 6076.76
0 0 -53058.5 0 0 53058.5 0 0 -54935.1 0 0 54935.1 0 0 -28552.6 0 0 28552.6 0 0 -30441.6 0 0 30441.6 0 0 -6136.03 0 0 6136.03 0 0 -6149.5 0 0 6149.5
0 0 -53119.8 0 0 53119.8 0 0 -55232.2 0 0 55232.2 0 0 -28723.7 0 0 28723.7 0 0 -30650 0 0 30650 0 0 -6203.42 0 0 6203.42 0 0 -6211.41 0 0 6211.41
0 0 -53123.2 0 0 53123.2 0 0 -55334.9 0 0 55334.9 0 0 -28796.3 0 0 28796.3 0 0 -30737.3 0 0 30737.3 0 0 -6269.26 0 0 6269.26 0 0 -6280.77 0 0 6280.77
0 0 -53258.8 0 0 53258.8 0 0 -55347.1 0 0 55347.1 0 0 -28824.1 0 0 28824.1 0 0 -30745.7 0 0 30745.7 0 0 -6330.89 0 0 6330.89 0 0 -6341.84 0 0 6341.84
0 0 -53406.5 0 0 53406.5 0 0 -55466.5 0 0 55466.5 0 0 -28785.9 0 0 28785.9 0 0 -30683.4 0 0 30683.4 0 0 -6385.39 0 0 6385.39 0 0 -6402.59 0 0 6402.59
0 0 -53415.2 0 0 53415.2 0 0 -55507.5 0 0 55507.5 0 0 -28631.9 0 0 28631.9 0 0 -30537.7 0 0 30537.7 0 0 -6437.01 0 0 6437.01 0 0 -6455.86 0 0 6455.86
0 0 -53356.8 0 0 53356.8 0 0 -55511.8 0 0 55511.8 0 0 -28401.2 0 0 28401.2 0 0 -30316 0 0 30316 0 0 -6482.93 0 0 6482.93 0 0 -6502.39 0 0 6502.39
0 0 -53212.4 0 0 53212.4 0 0 -55321 0 0 55321 0 0 -28096.1 0 0 28096.1 0 0 -29990.5 0 0 29990.5 0 0 -6521.66 0 0 6521.66 0 0 -6543.63 0 0 6543.63
0 0 -52907.3 0 0 52907.3 0 0 -54993.8 0 0 54993.8 0 0 -27700.9 0 0 27700.9 0 0 -29580.3 0 0 29580.3 0 0 -6551.42 0 0 6551.42 0 0 -6575.33 0 0 6575.33
0 0 -52458.6 0 0 52458.6 0 0 -54548 0 0 54548 0 0 -27215.8 0 0 27215.8 0 0 -29087.2 0 0 29087.2 0 0 -6569.93 0 0 6569.93 0 0 -6598.06 0 0 6598.06
0 0 -51923.1 0 0 51923.1 0 0 -54000.3 0 0 54000.3 0 0 -26659.9 0 0 26659.9 0 0 -28524 0 0 28524 0 0 -6575.81 0 0 6575.81 0 0 -6607.15 0 0 6607.15
0 0 -51328.3 0 0 51328.3 0 0 -53375.2 0 0 53375.2 0 0 -26046.5 0 0 26046.5 0 0 -27896.8 0 0 27896.8 0 0 -6566.79 0 0 6566.79 0 0 -6601.15 0 0 6601.15
0 0 -50681.9 0 0 50681.9 0 0 -52707.3 0 0 52707.3 0 0 -25378.7 0 0 25378.7 0 0 -27213.6 0 0 27213.6 0 0 -6539.37 0 0 6539.37 0 0 -6575.45 0 0 6575.45
0 0 -50012.5 0 0 50012.5 0 0 -52023.2 0 0 52023.2 0 0 -24664.7 0 0 24664.7 0 0 -26485.4 0 0 26485.4 0 0 -6489.93 0 0 6489.93 0 0 -6528.32 0 0 6528.32
0 0 -49355 0 0 49355 0 0 -51344.5 0 0 51344.5 0 0 -23916.4 0 0 23916.4 0 0 -25723.3 0 0 25723.3 0 0 -6415.87 0 0 6415.87 0 0 -6457.53 0 0 6457.53
0 0 -48726.7 0 0 48726.7 0 0 -50692.9 0 0 50692.9 0 0 -23144.2 0 0 23144.2 0 0 -24938.1 0 0 24938.1 0 0 -6315.99 0 0 6315.99 0 0 -6360.8 0 0 6360.8
0 0 -48136.9 0 0 48136.9 0 0 -50085.5 0 0 50085.5 0 0 -22358.7 0 0 22358.7 0 0 -24140 0 0 24140 0 0 -6189.42 0 0 6189.42 0 0 -6236.24 0 0 6236.24
0 0 -47596.3 0 0 47596.3 0 0 -49530.4 0 0 49530.4 0 0 -21572 0 0 21572 0 0 -23340.7 0 0 23340.7 0 0 -6034.79 0 0 6034.79 0 0 -6082.6 0 0 6082.6
0 0 -47111.4 0 0 47111.4 0 0 -49030.5 0 0 49030.5 0 0 -20795.2 0 0 20795.2 0 0 -22551.9 0 0 22551.9 0 0 -5850.7 0 0 5850.7 0 0 -5899.24 0 0 5899.24
0 0 -46681.6 0 0 46681.6 0 0 -48587.8 0 0 48587.8 0 0 -20037.9 0 0 20037.9 0 0 -21784.7 0 0 21784.7 0 0 -5636.67 0 0 5636.67 0 0 -5685.92 0 0 5685.92
0 0 -46305.9 0 0 46305.9 0 0 -48203 0 0 48203 0 0 -19309.3 0 0 19309.3 0 0 -21048.2 0 0 21048.2 0 0 -5393.26 0 0 5393.26 0 0 -5442.82 0 0 5442.82
0 0 -45984.8 0 0 45984.8 0 0 -47875.2 0 0 47875.2 0 0 -18618.6 0 0 18618.6 0 0 -20350.5 0 0 20350.5 0 0 -5121.74 0 0 5121.74 0 0 -5170.72 0 0 5170.72
0 0 -45717 0 0 45717 0 0 -47602.1 0 0 47602.1 0 0 -17972.2 0 0 17972.2 0 0 -19698.2 0 0 19698.2 0 0 -4823.69 0 0 4823.69 0 0 -4871.14 0 0 4871.14
0 0 -45489.5 0 0 45489.5 0 0 -47370.4 0 0 47370.4 0 0 -17375.5 0 0 17375.5 0 0 -19097.8 0 0 19097.8 0 0 -4501.07 0 0 4501.07 0 0 -4546.32 0 0 4546.32
0 0 -45289.4 0 0 45289.4 0 0 -47166.9 0 0 47166.9 0 0 -16832.2 0 0 16832.2 0 0 -18553.3 0 0 18553.3 0 0 -4156.52 0 0 4156.52 0 0 -4199.15 0 0 4199.15
0 0 -45110 0 0 45110 0 0 -46983.6 0 0 46983.6 0 0 -16344.4 0 0 16344.4 0 0 -18066.2 0 0 18066.2 0 0 -3793.59 0 0 3793.59 0 0 -3833.16 0 0 3833.16
0 0 -44944.7 0 0 44944.7 0 0 -46814.3 0 0 46814.3 0 0 -15911.8 0 0 15911.8 0 0 -17635.6 0 0 17635.6 0 0 -3416.44 0 0 3416.44 0 0 -3452.38 0 0 3452.38
0 0 -44790.8 0 0 44790.8 0 0 -46656 0 0 46656 0 0 -15531.4 0 0 15531.4 0 0 -17258.8 0 0 17258.8 0 0 -3029.68 0 0 3029.68 0 0 -3061.4 0 0 3061.4
0 0 -44650 0 0 44650 0 0 -46510.7 0 0 46510.7 0 0 -15198.5 0 0 15198.5 0 0 -16930.9 0 0 16930.9 0 0 -2638.22 0 0 2638.22 0 0 -2665.32 0 0 2665.32
0 0 -44527.6 0 0 44527.6 0 0 -46383.8 0 0 46383.8 0 0 -14906.9 0 0 14906.9 0 0 -16645.4 0 0 16645.4 0 0 -2247.26 0 0 2247.26 0 0 -2269.59 0 0 2269.59
0 0 -44428.3 0 0 44428.3 0 0 -46280.2 0 0 46280.2 0 0 -14649.5 0 0 14649.5 0 0 -16394.7 0 0 16394.7 0 0 -1862.22 0 0 1862.22 0 0 -1879.78 0 0 1879.78
0 0 -44352.6 0 0 44352.6 0 0 -46200.8 0 0 46200.8 0 0 -14419.2 0 0 14419.2 0 0 -16171.3 0 0 16171.3 0 0 -1488.59 0 0 1488.59 0 0 -1501.43 0 0 1501.43
0 0 -44293.3 0 0 44293.3 0 0 -46138 0 0 46138 0 0 -14209.5 0 0 14209.5 0 0 -15968.5 0 0 15968.5 0 0 -1131.7 0 0 1131.7 0 0 -1139.96 0 0 1139.96
0 0 -44233.6 0 0 44233.6 0 0 -46074.7 0 0 46074.7 0 0 -14014.7 0 0 14014.7 0 0 -15780.5 0 0 15780.5 0 0 -796.616 0 0 796.616 0 0 -800.51 0 0 800.51
0 0 -44149.6 0 0 44149.6 0 0 -45986.4 0 0 45986.4 0 0 -13830.5 0 0 13830.5 0 0 -15602.7 0 0 15602.7 0 0 -488.006 0 0 488.006 0 0 -487.883 0 0 487.883
0 0 -44015.5 0 0 44015.5 0 0 -45846.4 0 0 45846.4 0 0 -13653.2 0 0 13653.2 0 0 -15430.9 0 0 15430.9 0 0 -210.148 0 0 210.148 0 0 -206.473 0 0 206.473
0 0 -43803.4 0 0 43803.4 0 0 -45626.5 0 0 45626.5 0 0 -13488.3 0 0 13488.3 0 0 -15269.5 0 0 15269.5 0 0 6.94008 0 0 -6.94008 0 0 8.02084 0 0 -8.02084
0 0 -43490.4 0 0 43490.4 0 0 -45300.5 0 0 45300.5 0 0 -13321.7 0 0 13321.7 0 0 -15106.1 0 0 15106.1 0 0 183.533 0 0 -183.533 0 0 193.187 0 0 -193.187
0 0 -43048.2 0 0 43048.2 0 0 -44842.8 0 0 44842.8 0 0 -13151.8 0 0 13151.8 0 0 -14941.9 0 0 14941.9 0 0 325.588 0 0 -325.588 0 0 342.513 0 0 -342.513
0 0 -42450.8 0 0 42450.8 0 0 -44223.7 0 0 44223.7 0 0 -12977.3 0 0 12977.3 0 0 -14768.9 0 0 14768.9 0 0 432.066 0 0 -432.066 0 0 452.249 0 0 -452.249
0 0 -41670.7 0 0 41670.7 0 0 -43416.1 0 0 43416.1 0 0 -12796.2 0 0 12796.2 0 0 -14587.9 0 0 14587.9 0 0 502.492 0 0 -502.492 0 0 522.106 0 0 -522.106
0 0 -40682 0 0 40682 0 0 -42392.8 0 0 42392.8 0 0 -12606.5 0 0 12606.5 0 0 -14396.5 0 0 14396.5 0 0 535.351 0 0 -535.351 0 0 552.496 0 0 -552.496
0 0 -39461.2 0 0 39461.2 0 0 -41129.6 0 0 41129.6 0 0 -12406.3 0 0 12406.3 0 0 -14194.6 0 0 14194.6 0 0 527.137 0 0 -527.137 0 0 542.688 0 0 -542.688
0 0 -37992.5 0 0 37992.5 0 0 -39609.9 0 0 39609.9 0 0 -12194.9 0 0 12194.9 0 0 -13980.7 0 0 13980.7 0 0 475.254 0 0 -475.254 0 0 489.629 0 0 -489.629
0 0 -36273.3 0 0 36273.3 0 0 -37831.4 0 0 37831.4 0 0 -11968.5 0 0 11968.5 0 0 -13750.4 0 0 13750.4 0 0 380.918 0 0 -380.918 0 0 394.444 0 0 -394.444
0 0 -34314.6 0 0 34314.6 0 0 -35805.3 0 0 35805.3 0 0 -11721.9 0 0 11721.9 0 0 -13498.4 0 0 13498.4 0 0 246.484 0 0 -246.484 0 0 258.027 0 0 -258.027
0 0 -32135.9 0 0 32135.9 0 0 -33551.9 0 0 33551.9 0 0 -11449 0 0 11449 0 0 -13218.8 0 0 13218.8 0 0 74.3239 0 0 -74.3239 0 0 82.4404 0 0 -82.4404
0 0 -29761 0 0 29761 0 0 -31096.1 0 0 31096.1 0 0 -11144.6 0 0 11144.6 0 0 -12906.4 0 0 12906.4 0 0 -136.055 0 0 136.055 0 0 -130.159 0 0 130.159
0 0 -27217.3 0 0 27217.3 0 0 -28466.3 0 0 28466.3 0 0 -10800.1 0 0 10800.1 0 0 -12552.6 0 0 12552.6 0 0 -374.057 0 0 374.057 0 0 -375.444 0 0 375.444
0 0 -24532.8 0 0 24532.8 0 0 -25691.9 0 0 25691.9 0 0 -10413.6 0 0 10413.6 0 0 -12154.6 0 0 12154.6 0 0 -639.735 0 0 639.735 0 0 -648.062 0 0 648.062
0 0 -21738.4 0 0 21738.4 0 0 -22804.9 0 0 22804.9 0 0 -9980.24 0 0 9980.24 0 0 -11707.9 0 0 11707.9 0 0 -928.445 0 0 928.445 0 0 -942.702 0 0 942.702
0 0 -18867.2 0 0 18867.2 0 0 -19839.4 0 0 19839.4 0 0 -9496.73 0 0 9496.73 0 0 -11210.1 0 0 11210.1 0 0 -1234.96 0 0 1234.96 0 0 -1255.51 0 0 1255.51
0 0 -15955.4 0 0 15955.4 0 0 -16833.2 0 0 16833.2 0 0 -8961.1 0 0 8961.1 0 0 -10658.9 0 0 10658.9 0 0 -1553.71 0 0 1553.71 0 0 -1581.48 0 0 1581.48
0 0 -13041.3 0 0 13041.3 0 0 -13826 0 0 13826 0 0 -8372.74 0 0 8372.74 0 0 -10053.4 0 0 10053.4 0 0 -1878.6 0 0 1878.6 0 0 -1914.41 0 0 1914.41
0 0 -10161.9 0 0 10161.9 0 0 -10855.8 0 0 10855.8 0 0 -7732.85 0 0 7732.85 0 0 -9394.73 0 0 9394.73 0 0 -2203.09 0 0 2203.09 0 0 -2247.36 0 0 2247.36
0 0 -7347.53 0 0 7347.53 0 0 -7954.04 0 0 7954.04 0 0 -7044.67 0 0 7044.67 0 0 -8686.72 0 0 8686.72 0 0 -2520.44 0 0 2520.44 0 0 -2573.24 0 0 2573.24
0 0 -4620.17 0 0 4620.17 0 0 -5143.26 0 0 5143.26 0 0 -6313.74 0 0 6313.74 0 0 -7935.47 0 0 7935.47 0 0 -2823.8 0 0 2823.8 0 0 -2885.02 0 0 2885.02
0 0 -1995.28 0 0 1995.28 0 0 -2439.41 0 0 2439.41 0 0 -5547.57 0 0 5547.57 0 0 -7148.86 0 0 7148.86 0 0 -3106.39 0 0 3106.39 0 0 -3175.79 0 0 3175.79
0 0 303.656 0 0 -303.656 0 0 87.281 0 0 -87.281 0 0 -4754.88 0 0 4754.88 0 0 -6338.94 0 0 6338.94 0 0 -3361.26 0 0 3361.26 0 0 -3438.48 0 0 3438.48
0 0 2070.3 0 0 -2070.3 0 0 1838.09 0 0 -1838.09 0 0 -4026.43 0 0 4026.43 0 0 -5604.47 0 0 5604.47 0 0 -3573.97 0 0 3573.97 0 0 -3658.26 0 0 3658.26
0 0 3656.9 0 0 -3656.9 0 0 3648.5 0 0 -3648.5 0 0 -3282.6 0 0 3282.6 0 0 -4800.96 0 0 4800.96 0 0 -3750.92 0 0 3750.92 0 0 -3845.25 0 0 3845.25
0 0 5216.05 0 0 -5216.05 0 0 5268.79 0 0 -5268.79 0 0 -2524.5 0 0 2524.5 0 0 -4025.5 0 0 4025.5 0 0 -3884.52 0 0 3884.52 0 0 -3980.84 0 0 3980.84
0 0 6707.26 0 0 -6707.26 0 0 6826.97 0 0 -6826.97 0 0 -1769.1 0 0 1769.1 0 0 -3255.01 0 0 3255.01 0 0 -3967.97 0 0 3967.97 0 0 -4071.91 0 0 4071.91
0 0 8084.25 0 0 -8084.25 0 0 8299.91 0 0 -8299.91 0 0 -1041.85 0 0 1041.85 0 0 -2508.2 0 0 2508.2 0 0 -3999.18 0 0 3999.18 0 0 -4105.91 0 0 4105.91
0 0 9375.32 0 0 -9375.32 0 0 9690.93 0 0 -9690.93 0 0 -342.419 0 0 342.419 0 0 -1788.55 0 0 1788.55 0 0 -3974.65 0 0 3974.65 0 0 -4085.43 0 0 4085.43
0 0 10609.4 0 0 -10609.4 0 0 10990.6 0 0 -10990.6 0 0 327.608 0 0 -327.608 0 0 -1100.07 0 0 1100.07 0 0 -3893.25 0 0 3893.25 0 0 -4005.24 0 0 4005.24
0 0 11768.3 0 0 -11768.3 0 0 12208 0 0 -12208 0 0 964.162 0 0 -964.162 0 0 -447.162 0 0 447.162 0 0 -3753.45 0 0 3753.45 0 0 -3866.38 0 0 3866.38
0 0 12844.1 0 0 -12844.1 0 0 13352.5 0 0 -13352.5 0 0 1564.31 0 0 -1564.31 0 0 163.172 0 0 -163.172 0 0 -3555.19 0 0 3555.19 0 0 -3668.91 0 0 3668.91
0 0 13856.8 0 0 -13856.8 0 0 14428.2 0 0 -14428.2 0 0 2130.48 0 0 -2130.48 0 0 738.86 0 0 -738.86 0 0 -3300.77 0 0 3300.77 0 0 -3413.84 0 0 3413.84
0 0 14820.3 0 0 -14820.3 0 0 15441.1 0 0 -15441.1 0 0 2667.69 0 0 -2667.69 0 0 1281.01 0 0 -1281.01 0 0 -2993 0 0 2993 0 0 -3103.96 0 0 3103.96
0 0 15733.5 0 0 -15733.5 0 0 16401.6 0 0 -16401.6 0 0 3179.03 0 0 -3179.03 0 0 1795.26 0 0 -1795.26 0 0 -2635.01 0 0 2635.01 0 0 -2742.64 0 0 2742.64
0 0 16601.6 0 0 -16601.6 0 0 17318.7 0 0 -17318.7 0 0 3670.78 0 0 -3670.78 0 0 2288.1 0 0 -2288.1 0 0 -2231.06 0 0 2231.06 0 0 -2334.83 0 0 2334.83
0 0 17439.1 0 0 -17439.1 0 0 18200.6 0 0 -18200.6 0 0 4151.77 0 0 -4151.77 0 0 2768.09 0 0 -2768.09 0 0 -1786.73 0 0 1786.73 0 0 -1886.25 0 0 1886.25
0 0 18256.9 0 0 -18256.9 0 0 19058 0 0 -19058 0 0 4630.32 0 0 -4630.32 0 0 3244.92 0 0 -3244.92 0 0 -1308.32 0 0 1308.32 0 0 -1403.11 0 0 1403.11
0 0 19063.3 0 0 -19063.3 0 0 19904.1 0 0 -19904.1 0 0 5115 0 0 -5115 0 0 3728.22 0 0 -3728.22 0 0 -802.402 0 0 802.402 0 0 -891.991 0 0 891.991
0 0 19871.2 0 0 -19871.2 0 0 20753 0 0 -20753 0 0 5616.17 0 0 -5616.17 0 0 4227.82 0 0 -4227.82 0 0 -275.814 0 0 275.814 0 0 -359.943 0 0 359.943
0 0 20698.4 0 0 -20698.4 0 0 21620.4 0 0 -21620.4 0 0 6138.65 0 0 -6138.65 0 0 4750.23 0 0 -4750.23 0 0 220.627 0 0 -220.627 0 0 162.658 0 0 -162.658
0 0 21561.1 0 0 -21561.1 0 0 22526.7 0 0 -22526.7 0 0 6677.32 0 0 -6677.32 0 0 5286.19 0 0 -5286.19 0 0 699.538 0 0 -699.538 0 0 634.49 0 0 -634.49
0 0 22470.8 0 0 -22470.8 0 0 23481 0 0 -23481 0 0 7267.73 0 0 -7267.73 0 0 5877.04 0 0 -5877.04 0 0 1168.74 0 0 -1168.74 0 0 1116.22 0 0 -1116.22
0 0 23439.8 0 0 -23439.8 0 0 24499.7 0 0 -24499.7 0 0 7913.05 0 0 -7913.05 0 0 6520.9 0 0 -6520.9 0 0 1631.98 0 0 -1631.98 0 0 1588.42 0 0 -1588.42
0 0 24477 0 0 -24477 0 0 25589.3 0 0 -25589.3 0 0 8619.28 0 0 -8619.28 0 0 7232.3 0 0 -7232.3 0 0 2086.57 0 0 -2086.57 0 0 2049.78 0 0 -2049.78
0 0 25585.2 0 0 -25585.2 0 0 26754.5 0 0 -26754.5 0 0 9396.88 0 0 -9396.88 0 0 8015.65 0 0 -8015.65 0 0 2526.78 0 0 -2526.78 0 0 2493.78 0 0 -2493.78
0 0 26761.2 0 0 -26761.2 0 0 27991.8 0 0 -27991.8 0 0 10253.5 0 0 -10253.5 0 0 8878.89 0 0 -8878.89 0 0 2945.64 0 0 -2945.64 0 0 2916.64 0 0 -2916.64
0 0 27998.8 0 0 -27998.8 0 0 29294.5 0 0 -29294.5 0 0 11194.3 0 0 -11194.3 0 0 9826.93 0 0 -9826.93 0 0 3337.64 0 0 -3337.64 0 0 3314.57 0 0 -3314.57
0 0 29288.5 0 0 -29288.5 0 0 30652.3 0 0 -30652.3 0 0 12221 0 0 -12221 0 0 10864 0 0 -10864 0 0 3700.43 0 0 -3700.43 0 0 3683.48 0 0 -3683.48
0 0 30619.4 0 0 -30619.4 0 0 32054 0 0 -32054 0 0 13334.1 0 0 -13334.1 0 0 11990.7 0 0 -11990.7 0 0 4033.38 0 0 -4033.38 0 0 4020.02 0 0 -4020.02
0 0 31980.4 0 0 -31980.4 0 0 33487.7 0 0 -33487.7 0 0 14531.3 0 0 -14531.3 0 0 13203.7 0 0 -13203.7 0 0 4335.62 0 0 -4335.62 0 0 4322.41 0 0 -4322.41
0 0 33361.1 0 0 -33361.1 0 0 34942.4 0 0 -34942.4 0 0 15806.9 0 0 -15806.9 0 0 14496.8 0 0 -14496.8 0 0 4605.51 0 0 -4605.51 0 0 4590.55 0 0 -4590.55
0 0 34751.4 0 0 -34751.4 0 0 36407.6 0 0 -36407.6 0 0 17151.6 0 0 -17151.6 0 0 15860.5 0 0 -15860.5 0 0 4841.93 0 0 -4841.93 0 0 4825.29 0 0 -4825.29
0 0 36141.2 0 0 -36141.2 0 0 37872.3 0 0 -37872.3 0 0 18552.8 0 0 -18552.8 0 0 17282.5 0 0 -17282.5 0 0 5045.66 0 0 -5045.66 0 0 5027.73 0 0 -5027.73
0 0 37847.5 0 0 -37847.5 0 0 15714.8 0 0 -15714.8 0 0 19043.9 0 0 -19043.9 0 0 15624.4 0 0 -15624.4 0 0 5272.84 0 0 -5272.84 0 0 5426.77 0 0 -5426.77
0 0 30199.7 0 0 -30199.7 0 0 2653.39 0 0 -2653.39 0 0 17104.7 0 0 -17104.7 0 0 15870.6 0 0 -15870.6 0 0 5621.27 0 0 -5621.27 0 0 5666.15 0 0 -5666.15
0 0 28527.9 0 0 -28527.9 0 0 -697.667 0 0 697.667 0 0 17604.2 0 0 -17604.2 0 0 15981.1 0 0 -15981.1 0 0 5753.17 0 0 -5753.17 0 0 5848.09 0 0 -5848.09
0 0 34358.5 0 0 -34358.5 0 0 2324.78 0 0 -2324.78 0 0 20649.6 0 0 -20649.6 0 0 18640 0 0 -18640 0 0 5703.62 0 0 -5703.62 0 0 5822.44 0 0 -5822.44
0 0 38751.1 0 0 -38751.1 0 0 6206.44 0 0 -6206.44 0 0 23471.4 0 0 -23471.4 0 0 20804.8 0 0 -20804.8 0 0 5621.76 0 0 -5621.76 0 0 5753.51 0 0 -5753.51
0 0 37917.7 0 0 -37917.7 0 0 4550.99 0 0 -4550.99 0 0 24429.5 0 0 -24429.5 0 0 22152.7 0 0 -22152.7 0 0 5623.47 0 0 -5623.47 0 0 5698.96 0 0 -5698.96
0 0 36299.4 0 0 -36299.4 0 0 1798.79 0 0 -1798.79 0 0 25017 0 0 -25017 0 0 23325.5 0 0 -23325.5 0 0 5608.74 0 0 -5608.74 0 0 5619.48 0 0 -5619.48
0 0 37895.6 0 0 -37895.6 0 0 1639.37 0 0 -1639.37 0 0 26641 0 0 -26641 0 0 24856.8 0 0 -24856.8 0 0 5484.63 0 0 -5484.63 0 0 5515.66 0 0 -5515.66
0 0 40677.3 0 0 -40677.3 0 0 3209.46 0 0 -3209.46 0 0 28708.8 0 0 -28708.8 0 0 26578.1 0 0 -26578.1 0 0 5322.56 0 0 -5322.56 0 0 5361.22 0 0 -5361.22
0 0 41592.3 0 0 -41592.3 0 0 3859.34 0 0 -3859.34 0 0 30122.9 0 0 -30122.9 0 0 28008.2 0 0 -28008.2 0 0 5191.49 0 0 -5191.49 0 0 5231.28 0 0 -5231.28
0 0 41467.3 0 0 -41467.3 0 0 1923.48 0 0 -1923.48 0 0 30931 0 0 -30931 0 0 28798.3 0 0 -28798.3 0 0 5084.48 0 0 -5084.48 0 0 5123.7 0 0 -5123.7
0 0 41496 0 0 -41496 0 0 219.36 0 0 -219.36 0 0 31569.4 0 0 -31569.4 0 0 29609.2 0 0 -29609.2 0 0 4974.42 0 0 -4974.42 0 0 5013.98 0 0 -5013.98
0 0 42491.2 0 0 -42491.2 0 0 580.817 0 0 -580.817 0 0 32452.1 0 0 -32452.1 0 0 30458.7 0 0 -30458.7 0 0 4844.33 0 0 -4844.33 0 0 4881.58 0 0 -4881.58
0 0 43958.3 0 0 -43958.3 0 0 1343.14 0 0 -1343.14 0 0 33337.1 0 0 -33337.1 0 0 31219.3 0 0 -31219.3 0 0 4723.58 0 0 -4723.58 0 0 4758.93 0 0 -4758.93
0 0 44794.6 0 0 -44794.6 0 0 1424.75 0 0 -1424.75 0 0 33820.8 0 0 -33820.8 0 0 31641.3 0 0 -31641.3 0 0 4635.56 0 0 -4635.56 0 0 4663.2 0 0 -4663.2
0 0 45024.8 0 0 -45024.8 0 0 746.685 0 0 -746.685 0 0 33854.9 0 0 -33854.9 0 0 31728.6 0 0 -31728.6 0 0 4575.9 0 0 -4575.9 0 0 4604.33 0 0 -4604.33
0 0 45400.7 0 0 -45400.7 0 0 416.588 0 0 -416.588 0 0 33719 0 0 -33719 0 0 31662.1 0 0 -31662.1 0 0 4529.86 0 0 -4529.86 0 0 4560.42 0 0 -4560.42
0 0 46270 0 0 -46270 0 0 921.491 0 0 -921.491 0 0 33584.3 0 0 -33584.3 0 0 31497.1 0 0 -31497.1 0 0 4492.53 0 0 -4492.53 0 0 4529.06 0 0 -4529.06
0 0 47211.7 0 0 -47211.7 0 0 1636.61 0 0 -1636.61 0 0 33328.7 0 0 -33328.7 0 0 31167.8 0 0 -31167.8 0 0 4474.86 0 0 -4474.86 0 0 4513.54 0 0 -4513.54
0 0 47778.7 0 0 -47778.7 0 0 1953.04 0 0 -1953.04 0 0 32794.3 0 0 -32794.3 0 0 30600.6 0 0 -30600.6 0 0 4480.45 0 0 -4480.45 0 0 4520.86 0 0 -4520.86
0 0 48080.1 0 0 -48080.1 0 0 2001.18 0 0 -2001.18 0 0 32020.4 0 0 -32020.4 0 0 29849.1 0 0 -29849.1 0 0 4499.86 0 0 -4499.86 0 0 4544.7 0 0 -4544.7
0 0 48454.7 0 0 -48454.7 0 0 2312.81 0 0 -2312.81 0 0 31170.5 0 0 -31170.5 0 0 29036.1 0 0 -29036.1 0 0 4521.31 0 0 -4521.31 0 0 4571.31 0 0 -4571.31
0 0 48860.4 0 0 -48860.4 0 0 2775.71 0 0 -2775.71 0 0 30352.5 0 0 -30352.5 0 0 28149.2 0 0 -28149.2 0 0 4539.36 0 0 -4539.36 0 0 4599.26 0 0 -4599.26
0 0 49169.4 0 0 -49169.4 0 0 3117.84 0 0 -3117.84 0 0 29431.9 0 0 -29431.9 0 0 27178.1 0 0 -27178.1 0 0 4561.39 0 0 -4561.39 0 0 4626.29 0 0 -4626.29
0 0 49228.6 0 0 -49228.6 0 0 3420.68 0 0 -3420.68 0 0 28400.4 0 0 -28400.4 0 0 26127.5 0 0 -26127.5 0 0 4578.89 0 0 -4578.89 0 0 4647.21 0 0 -4647.21
0 0 49293.3 0 0 -49293.3 0 0 3697.83 0 0 -3697.83 0 0 27344.8 0 0 -27344.8 0 0 25063.7 0 0 -25063.7 0 0 4581.46 0 0 -4581.46 0 0 4656.52 0 0 -4656.52
0 0 49458.7 0 0 -49458.7 0 0 3957.9 0 0 -3957.9 0 0 26326.5 0 0 -26326.5 0 0 24006.7 0 0 -24006.7 0 0 4563.39 0 0 -4563.39 0 0 4647.67 0 0 -4647.67
0 0 49591.6 0 0 -49591.6 0 0 4188.44 0 0 -4188.44 0 0 25330.7 0 0 -25330.7 0 0 22974.7 0 0 -22974.7 0 0 4524.69 0 0 -4524.69 0 0 4616.23 0 0 -4616.23
0 0 49645.4 0 0 -49645.4 0 0 4404.16 0 0 -4404.16 0 0 24364.9 0 0 -24364.9 0 0 21989.2 0 0 -21989.2 0 0 4462.03 0 0 -4462.03 0 0 4556.96 0 0 -4556.96
0 0 49723 0 0 -49723 0 0 4616.88 0 0 -4616.88 0 0 23475.8 0 0 -23475.8 0 0 21082.5 0 0 -21082.5 0 0 4368.54 0 0 -4368.54 0 0 4466.58 0 0 -4466.58
0 0 49863.8 0 0 -49863.8 0 0 4829.8 0 0 -4829.8 0 0 22691.3 0 0 -22691.3 0 0 20277.1 0 0 -20277.1 0 0 4240.47 0 0 -4240.47 0 0 4342.23 0 0 -4342.23
0 0 50011.8 0 0 -50011.8 0 0 5040.4 0 0 -5040.4 0 0 22012 0 0 -22012 0 0 19584.1 0 0 -19584.1 0 0 4077.87 0 0 -4077.87 0 0 4182.48 0 0 -4182.48
0 0 49803.1 0 0 -49803.1 0 0 5191.51 0 0 -5191.51 0 0 21492.3 0 0 -21492.3 0 0 19019.2 0 0 -19019.2 0 0 3878.07 0 0 -3878.07 0 0 3986.99 0 0 -3986.99
0 0 49787.5 0 0 -49787.5 0 0 5366.47 0 0 -5366.47 0 0 21090.4 0 0 -21090.4 0 0 18594.8 0 0 -18594.8 0 0 3646.53 0 0 -3646.53 0 0 3755.21 0 0 -3755.21
0 0 49937.7 0 0 -49937.7 0 0 5555.38 0 0 -5555.38 0 0 20815.5 0 0 -20815.5 0 0 18301.8 0 0 -18301.8 0 0 3382.38 0 0 -3382.38 0 0 3490.16 0 0 -3490.16
0 0 50126.9 0 0 -50126.9 0 0 5737.4 0 0 -5737.4 0 0 20648.7 0 0 -20648.7 0 0 18150.7 0 0 -18150.7 0 0 3090.81 0 0 -3090.81 0 0 3194.34 0 0 -3194.34
0 0 50261.2 0 0 -50261.2 0 0 5877.1 0 0 -5877.1 0 0 20617.7 0 0 -20617.7 0 0 18133.5 0 0 -18133.5 0 0 2773.43 0 0 -2773.43 0 0 2873.28 0 0 -2873.28
0 0 50404.1 0 0 -50404.1 0 0 5986.4 0 0 -5986.4 0 0 20721.4 0 0 -20721.4 0 0 18249.4 0 0 -18249.4 0 0 2436.11 0 0 -2436.11 0 0 2531.14 0 0 -2531.14
0 0 50540.9 0 0 -50540.9 0 0 6046.49 0 0 -6046.49 0 0 20940.4 0 0 -20940.4 0 0 18480 0 0 -18480 0 0 2085.66 0 0 -2085.66 0 0 2174.86 0 0 -2174.86
0 0 50619.2 0 0 -50619.2 0 0 5754.87 0 0 -5754.87 0 0 21233.4 0 0 -21233.4 0 0 18768.9 0 0 -18768.9 0 0 1730.96 0 0 -1730.96 0 0 1814.91 0 0 -1814.91
0 0 50554.8 0 0 -50554.8 0 0 5282.71 0 0 -5282.71 0 0 21560.3 0 0 -21560.3 0 0 19122.9 0 0 -19122.9 0 0 1380.59 0 0 -1380.59 0 0 1456.95 0 0 -1456.95
0 0 50462.5 0 0 -50462.5 0 0 4799.69 0 0 -4799.69 0 0 21944.8 0 0 -21944.8 0 0 19527.7 0 0 -19527.7 0 0 1038.23 0 0 -1038.23 0 0 1108 0 0 -1108
0 0 50428.7 0 0 -50428.7 0 0 4407.49 0 0 -4407.49 0 0 22395.3 0 0 -22395.3 0 0 19990.9 0 0 -19990.9 0 0 710.187 0 0 -710.187 0 0 773.852 0 0 -773.852
0 0 50402.9 0 0 -50402.9 0 0 4078.05 0 0 -4078.05 0 0 22877 0 0 -22877 0 0 20476.5 0 0 -20476.5 0 0 405.204 0 0 -405.204 0 0 463.335 0 0 -463.335
0 0 50313.8 0 0 -50313.8 0 0 3702.86 0 0 -3702.86 0 0 23339.7 0 0 -23339.7 0 0 20949.2 0 0 -20949.2 0 0 138.031 0 0 -138.031 0 0 185.858 0 0 -185.858
0 0 50154.6 0 0 -50154.6 0 0 3284.7 0 0 -3284.7 0 0 23769.5 0 0 -23769.5 0 0 21394.9 0 0 -21394.9 0 0 -71.4149 0 0 71.4149 0 0 -30.0896 0 0 30.0896
0 0 49974.9 0 0 -49974.9 0 0 2924.98 0 0 -2924.98 0 0 24152.1 0 0 -24152.1 0 0 21794 0 0 -21794 0 0 -239.593 0 0 239.593 0 0 -205.496 0 0 205.496
0 0 49794.1 0 0 -49794.1 0 0 2668.6 0 0 -2668.6 0 0 24489.9 0 0 -24489.9 0 0 22143.2 0 0 -22143.2 0 0 -365.746 0 0 365.746 0 0 -336.069 0 0 336.069
0 0 49575.4 0 0 -49575.4 0 0 2439.19 0 0 -2439.19 0 0 24762.7 0 0 -24762.7 0 0 22418.2 0 0 -22418.2 0 0 -446.982 0 0 446.982 0 0 -419.731 0 0 419.731
0 0 49250.6 0 0 -49250.6 0 0 2120.68 0 0 -2120.68 0 0 24939 0 0 -24939 0 0 22598.5 0 0 -22598.5 0 0 -479.421 0 0 479.421 0 0 -452.97 0 0 452.97
0 0 48797.5 0 0 -48797.5 0 0 1726.99 0 0 -1726.99 0 0 25013.2 0 0 -25013.2 0 0 22680.3 0 0 -22680.3 0 0 -456.846 0 0 456.846 0 0 -431.081 0 0 431.081
0 0 48240.1 0 0 -48240.1 0 0 1240.36 0 0 -1240.36 0 0 24995.4 0 0 -24995.4 0 0 22665.1 0 0 -22665.1 0 0 -376.07 0 0 376.07 0 0 -349.111 0 0 349.111
0 0 47578.3 0 0 -47578.3 0 0 684.618 0 0 -684.618 0 0 24886.3 0 0 -24886.3 0 0 22554.4 0 0 -22554.4 0 0 -238.024 0 0 238.024 0 0 -209.847 0 0 209.847
0 0 46776.4 0 0 -46776.4 0 0 133.794 0 0 -133.794 0 0 24686 0 0 -24686 0 0 22359 0 0 -22359 0 0 -46.4479 0 0 46.4479 0 0 -16.5735 0 0 16.5735
0 0 45878.5 0 0 -45878.5 0 0 -197.658 0 0 197.658 0 0 24419.7 0 0 -24419.7 0 0 22112.6 0 0 -22112.6 0 0 186.547 0 0 -186.547 0 0 218.007 0 0 -218.007
0 0 44994.6 0 0 -44994.6 0 0 -208.462 0 0 208.462 0 0 24131.9 0 0 -24131.9 0 0 21832.1 0 0 -21832.1 0 0 452.258 0 0 -452.258 0 0 486.342 0 0 -486.342
0 0 44105 0 0 -44105 0 0 -121.464 0 0 121.464 0 0 23813 0 0 -23813 0 0 21506 0 0 -21506 0 0 753.128 0 0 -753.128 0 0 794.037 0 0 -794.037
0 0 43081.8 0 0 -43081.8 0 0 -109.712 0 0 109.712 0 0 23415.2 0 0 -23415.2 0 0 21111.1 0 0 -21111.1 0 0 1088.12 0 0 -1088.12 0 0 1134.59 0 0 -1134.59
0 0 41926.2 0 0 -41926.2 0 0 -182.047 0 0 182.047 0 0 22938.9 0 0 -22938.9 0 0 20652.3 0 0 -20652.3 0 0 1450.78 0 0 -1450.78 0 0 1502.32 0 0 -1502.32
0 0 40753.3 0 0 -40753.3 0 0 -220.558 0 0 220.558 0 0 22429 0 0 -22429 0 0 20158.5 0 0 -20158.5 0 0 1831.4 0 0 -1831.4 0 0 1888.21 0 0 -1888.21
0 0 39629.5 0 0 -39629.5 0 0 -162.375 0 0 162.375 0 0 21917.3 0 0 -21917.3 0 0 19651.4 0 0 -19651.4 0 0 2220.98 0 0 -2220.98 0 0 2284.3 0 0 -2284.3
0 0 38524.8 0 0 -38524.8 0 0 -32.4876 0 0 32.4876 0 0 21402.9 0 0 -21402.9 0 0 19140.8 0 0 -19140.8 0 0 2612.97 0 0 -2612.97 0 0 2682.82 0 0 -2682.82
0 0 37402.9 0 0 -37402.9 0 0 46.5062 0 0 -46.5062 0 0 20880.1 0 0 -20880.1 0 0 18623.7 0 0 -18623.7 0 0 3001.12 0 0 -3001.12 0 0 3077.33 0 0 -3077.33
0 0 36272 0 0 -36272 0 0 83.4025 0 0 -83.4025 0 0 20361.3 0 0 -20361.3 0 0 18117.7 0 0 -18117.7 0 0 3377.88 0 0 -3377.88 0 0 3459.45 0 0 -3459.45
0 0 35180.8 0 0 -35180.8 0 0 138.522 0 0 -138.522 0 0 19874 0 0 -19874 0 0 17642.5 0 0 -17642.5 0 0 3734.67 0 0 -3734.67 0 0 3821.31 0 0 -3821.31
0 0 34163.3 0 0 -34163.3 0 0 214.033 0 0 -214.033 0 0 19436.8 0 0 -19436.8 0 0 17212.4 0 0 -17212.4 0 0 4064.11 0 0 -4064.11 0 0 4155.64 0 0 -4155.64
0 0 33208.9 0 0 -33208.9 0 0 272.495 0 0 -272.495 0 0 19049.9 0 0 -19049.9 0 0 16831.4 0 0 -16831.4 0 0 4360.57 0 0 -4360.57 0 0 4456.58 0 0 -4456.58
0 0 32308.8 0 0 -32308.8 0 0 283.163 0 0 -283.163 0 0 18711.9 0 0 -18711.9 0 0 16502.3 0 0 -16502.3 0 0 4619.15 0 0 -4619.15 0 0 4718.81 0 0 -4718.81
0 0 31485.7 0 0 -31485.7 0 0 256.838 0 0 -256.838 0 0 18430.8 0 0 -18430.8 0 0 16232.8 0 0 -16232.8 0 0 4835.01 0 0 -4835.01 0 0 4937.34 0 0 -4937.34
0 0 30772.2 0 0 -30772.2 0 0 221.883 0 0 -221.883 0 0 18218.7 0 0 -18218.7 0 0 16030.4 0 0 -16030.4 0 0 5003.88 0 0 -5003.88 0 0 5108.03 0 0 -5108.03
0 0 30179.1 0 0 -30179.1 0 0 178.11 0 0 -178.11 0 0 18079.1 0 0 -18079.1 0 0 15898.4 0 0 -15898.4 0 0 5122.87 0 0 -5122.87 0 0 5228.02 0 0 -5228.02
0 0 29694 0 0 -29694 0 0 105.602 0 0 -105.602 0 0 18007.9 0 0 -18007.9 0 0 15834.6 0 0 -15834.6 0 0 5190.45 0 0 -5190.45 0 0 5295.7 0 0 -5295.7
0 0 29303.5 0 0 -29303.5 0 0 -9.13475 0 0 9.13475 0 0 18002.4 0 0 -18002.4 0 0 15838.4 0 0 -15838.4 0 0 5205.81 0 0 -5205.81 0 0 5310.27 0 0 -5310.27
0 0 29001.7 0 0 -29001.7 0 0 -154.197 0 0 154.197 0 0 18064.2 0 0 -18064.2 0 0 15911.1 0 0 -15911.1 0 0 5167.66 0 0 -5167.66 0 0 5270.38 0 0 -5270.38
0 0 28779.7 0 0 -28779.7 0 0 -324.057 0 0 324.057 0 0 18195.1 0 0 -18195.1 0 0 16052 0 0 -16052 0 0 5076.75 0 0 -5076.75 0 0 5176.88 0 0 -5176.88
0 0 28612.5 0 0 -28612.5 0 0 -505.279 0 0 505.279 0 0 18390.9 0 0 -18390.9 0 0 16259.7 0 0 -16259.7 0 0 4935.32 0 0 -4935.32 0 0 5032.06 0 0 -5032.06
0 0 28479.8 0 0 -28479.8 0 0 -650.705 0 0 650.705 0 0 18650.4 0 0 -18650.4 0 0 16535 0 0 -16535 0 0 4746.4 0 0 -4746.4 0 0 4838.55 0 0 -4838.55
0 0 28362.7 0 0 -28362.7 0 0 -806.121 0 0 806.121 0 0 18966.5 0 0 -18966.5 0 0 16865.2 0 0 -16865.2 0 0 4514.4 0 0 -4514.4 0 0 4601.59 0 0 -4601.59
0 0 28213.8 0 0 -28213.8 0 0 -993.116 0 0 993.116 0 0 19322 0 0 -19322 0 0 17238.1 0 0 -17238.1 0 0 4245.29 0 0 -4245.29 0 0 4326.37 0 0 -4326.37
0 0 27994.9 0 0 -27994.9 0 0 -1236.99 0 0 1236.99 0 0 19698.6 0 0 -19698.6 0 0 17635.5 0 0 -17635.5 0 0 3945.6 0 0 -3945.6 0 0 4019.95 0 0 -4019.95
0 0 27684.7 0 0 -27684.7 0 0 -1559.03 0 0 1559.03 0 0 20079.9 0 0 -20079.9 0 0 18039.8 0 0 -18039.8 0 0 3622.32 0 0 -3622.32 0 0 3689.33 0 0 -3689.33
0 0 27262.8 0 0 -27262.8 0 0 -1977.33 0 0 1977.33 0 0 20446.5 0 0 -20446.5 0 0 18429.7 0 0 -18429.7 0 0 3282.96 0 0 -3282.96 0 0 3342.54 0 0 -3342.54
0 0 26720.6 0 0 -26720.6 0 0 -2329.34 0 0 2329.34 0 0 20772.4 0 0 -20772.4 0 0 18762.8 0 0 -18762.8 0 0 2935.63 0 0 -2935.63 0 0 2988.64 0 0 -2988.64
0 0 26060.4 0 0 -26060.4 0 0 -2867.22 0 0 2867.22 0 0 21026.1 0 0 -21026.1 0 0 19011.3 0 0 -19011.3 0 0 2588.62 0 0 -2588.62 0 0 2638.24 0 0 -2638.24
0 0 25244.6 0 0 -25244.6 0 0 -3436.5 0 0 3436.5 0 0 21200.4 0 0 -21200.4 0 0 19185.5 0 0 -19185.5 0 0 2248.51 0 0 -2248.51 0 0 2292.27 0 0 -2292.27
0 0 24283 0 0 -24283 0 0 -4113.25 0 0 4113.25 0 0 21270 0 0 -21270 0 0 19257.7 0 0 -19257.7 0 0 1922.78 0 0 -1922.78 0 0 1963.11 0 0 -1963.11
0 0 23161.8 0 0 -23161.8 0 0 -4899.75 0 0 4899.75 0 0 21218.9 0 0 -21218.9 0 0 19201.2 0 0 -19201.2 0 0 1618.04 0 0 -1618.04 0 0 1653.41 0 0 -1653.41
0 0 21923.2 0 0 -21923.2 0 0 -5405.92 0 0 5405.92 0 0 21054.1 0 0 -21054.1 0 0 19066.9 0 0 -19066.9 0 0 1336.93 0 0 -1336.93 0 0 1367.25 0 0 -1367.25
0 0 20691.1 0 0 -20691.1 0 0 -5706.74 0 0 5706.74 0 0 20802.9 0 0 -20802.9 0 0 18815.4 0 0 -18815.4 0 0 1081.87 0 0 -1081.87 0 0 1109.19 0 0 -1109.19
0 0 19378.4 0 0 -19378.4 0 0 -5966.32 0 0 5966.32 0 0 20414.7 0 0 -20414.7 0 0 18434.5 0 0 -18434.5 0 0 860.417 0 0 -860.417 0 0 885.078 0 0 -885.078
0 0 17871.7 0 0 -17871.7 0 0 -6276.03 0 0 6276.03 0 0 19843.6 0 0 -19843.6 0 0 17881 0 0 -17881 0 0 677.731 0 0 -677.731 0 0 699.323 0 0 -699.323
0 0 16205.4 0 0 -16205.4 0 0 -6622.06 0 0 6622.06 0 0 19091.9 0 0 -19091.9 0 0 17162.8 0 0 -17162.8 0 0 534.727 0 0 -534.727 0 0 553.334 0 0 -553.334
0 0 14491.2 0 0 -14491.2 0 0 -6861.91 0 0 6861.91 0 0 18194.7 0 0 -18194.7 0 0 16297.9 0 0 -16297.9 0 0 428.932 0 0 -428.932 0 0 445.264 0 0 -445.264
0 0 12867.6 0 0 -12867.6 0 0 -6931.67 0 0 6931.67 0 0 17150.1 0 0 -17150.1 0 0 15287.7 0 0 -15287.7 0 0 360.236 0 0 -360.236 0 0 374.466 0 0 -374.466
0 0 11114.9 0 0 -11114.9 0 0 -6997.75 0 0 6997.75 0 0 15957.2 0 0 -15957.2 0 0 14122.3 0 0 -14122.3 0 0 326.169 0 0 -326.169 0 0 340.783 0 0 -340.783
0 0 9216.52 0 0 -9216.52 0 0 -7074.65 0 0 7074.65 0 0 14609.6 0 0 -14609.6 0 0 12808.2 0 0 -12808.2 0 0 325.371 0 0 -325.371 0 0 340.204 0 0 -340.204
0 0 7227.26 0 0 -7227.26 0 0 -7124.2 0 0 7124.2 0 0 13135.9 0 0 -13135.9 0 0 11366.9 0 0 -11366.9 0 0 352.076 0 0 -352.076 0 0 368.186 0 0 -368.186
0 0 5204.68 0 0 -5204.68 0 0 -7095.75 0 0 7095.75 0 0 11570.1 0 0 -11570.1 0 0 9825.71 0 0 -9825.71 0 0 399.741 0 0 -399.741 0 0 417.845 0 0 -417.845
0 0 3160.88 0 0 -3160.88 0 0 -7008.3 0 0 7008.3 0 0 9929.58 0 0 -9929.58 0 0 8202.06 0 0 -8202.06 0 0 462.218 0 0 -462.218 0 0 483.42 0 0 -483.42
0 0 1098.87 0 0 -1098.87 0 0 -6913.8 0 0 6913.8 0 0 8220.79 0 0 -8220.79 0 0 6510.34 0 0 -6510.34 0 0 533.767 0 0 -533.767 0 0 558.392 0 0 -558.392
0 0 -801.902 0 0 801.902 0 0 -6834.19 0 0 6834.19 0 0 6461.28 0 0 -6461.28 0 0 4771.25 0 0 -4771.25 0 0 607.335 0 0 -607.335 0 0 635.545 0 0 -635.545
0 0 -2490.26 0 0 2490.26 0 0 -6754.57 0 0 6754.57 0 0 4724.77 0 0 -4724.77 0 0 3024.41 0 0 -3024.41 0 0 670.88 0 0 -670.88 0 0 706.436 0 0 -706.436
0 0 -4042.49 0 0 4042.49 0 0 -6574.13 0 0 6574.13 0 0 3008.71 0 0 -3008.71 0 0 1293.76 0 0 -1293.76 0 0 722.631 0 0 -722.631 0 0 762.62 0 0 -762.62
0 0 -5554.54 0 0 5554.54 0 0 -6444.88 0 0 6444.88 0 0 1324.37 0 0 -1324.37 0 0 -411.853 0 0 411.853 0 0 754.019 0 0 -754.019 0 0 797.051 0 0 -797.051
0 0 -7009.76 0 0 7009.76 0 0 -6348.12 0 0 6348.12 0 0 -328.872 0 0 328.872 0 0 -2055.27 0 0 2055.27 0 0 758.449 0 0 -758.449 0 0 805.595 0 0 -805.595
0 0 -8399.17 0 0 8399.17 0 0 -6292.86 0 0 6292.86 0 0 -1904.03 0 0 1904.03 0 0 -3626.63 0 0 3626.63 0 0 729.489 0 0 -729.489 0 0 779.64 0 0 -779.64
0 0 -9707.49 0 0 9707.49 0 0 -6231 0 0 6231 0 0 -3383.07 0 0 3383.07 0 0 -5102.89 0 0 5102.89 0 0 663.992 0 0 -663.992 0 0 715.781 0 0 -715.781
0 0 -10923.9 0 0 10923.9 0 0 -6215.13 0 0 6215.13 0 0 -4741.36 0 0 4741.36 0 0 -6460.86 0 0 6460.86 0 0 557.691 0 0 -557.691 0 0 610.438 0 0 -610.438
0 0 -11968.4 0 0 11968.4 0 0 -7733.98 0 0 7733.98 0 0 -6013.73 0 0 6013.73 0 0 -7884.85 0 0 7884.85 0 0 411.01 0 0 -411.01 0 0 476.33 0 0 -476.33
0 0 -13625.1 0 0 13625.1 0 0 -8943.29 0 0 8943.29 0 0 -7333.49 0 0 7333.49 0 0 -9059.99 0 0 9059.99 0 0 233.124 0 0 -233.124 0 0 291.963 0 0 -291.963
0 0 -14882.2 0 0 14882.2 0 0 -10285.6 0 0 10285.6 0 0 -8403.51 0 0 8403.51 0 0 -10167.8 0 0 10167.8 0 0 -2.15871 0 0 2.15871 0 0 62.5721 0 0 -62.5721
0 0 -15705.1 0 0 15705.1 0 0 -11520.2 0 0 11520.2 0 0 -9194.86 0 0 9194.86 0 0 -10975.7 0 0 10975.7 0 0 -273.41 0 0 273.41 0 0 -219.718 0 0 219.718
0 0 -16550.9 0 0 16550.9 0 0 -12642.8 0 0 12642.8 0 0 -9814 0 0 9814 0 0 -11603.9 0 0 11603.9 0 0 -572.83 0 0 572.83 0 0 -513.399 0 0 513.399
0 0 -17462.4 0 0 17462.4 0 0 -13642.7 0 0 13642.7 0 0 -10296.6 0 0 10296.6 0 0 -12034.6 0 0 12034.6 0 0 -901.304 0 0 901.304 0 0 -858.065 0 0 858.065
0 0 -18183.9 0 0 18183.9 0 0 -14572.9 0 0 14572.9 0 0 -10564.5 0 0 10564.5 0 0 -12266.9 0 0 12266.9 0 0 -1266.27 0 0 1266.27 0 0 -1234.73 0 0 1234.73
0 0 -18736.4 0 0 18736.4 0 0 -15341.9 0 0 15341.9 0 0 -10638.9 0 0 10638.9 0 0 -12351 0 0 12351 0 0 -1662.99 0 0 1662.99 0 0 -1639.05 0 0 1639.05
0 0 -19318.1 0 0 19318.1 0 0 -16060.7 0 0 16060.7 0 0 -10574.3 0 0 10574.3 0 0 -12263.7 0 0 12263.7 0 0 -2081.95 0 0 2081.95 0 0 -2068.67 0 0 2068.67
0 0 -19935.8 0 0 19935.8 0 0 -16797.9 0 0 16797.9 0 0 -10388.5 0 0 10388.5 0 0 -12040.6 0 0 12040.6 0 0 -2514.59 0 0 2514.59 0 0 -2511.99 0 0 2511.99
0 0 -20530.2 0 0 20530.2 0 0 -17549.5 0 0 17549.5 0 0 -10078.4 0 0 10078.4 0 0 -11698.9 0 0 11698.9 0 0 -2952.61 0 0 2952.61 0 0 -2965.4 0 0 2965.4
0 0 -21147.8 0 0 21147.8 0 0 -18371.7 0 0 18371.7 0 0 -9677.93 0 0 9677.93 0 0 -11272.9 0 0 11272.9 0 0 -3387.91 0 0 3387.91 0 0 -3415.48 0 0 3415.48
0 0 -21860.4 0 0 21860.4 0 0 -19274 0 0 19274 0 0 -9234.81 0 0 9234.81 0 0 -10796.1 0 0 10796.1 0 0 -3811.05 0 0 3811.05 0 0 -3853.53 0 0 3853.53
0 0 -22665.6 0 0 22665.6 0 0 -20266.5 0 0 20266.5 0 0 -8777.41 0 0 8777.41 0 0 -10301.4 0 0 10301.4 0 0 -4213.5 0 0 4213.5 0 0 -4268.79 0 0 4268.79
0 0 -23549.8 0 0 23549.8 0 0 -21370.6 0 0 21370.6 0 0 -8331.42 0 0 8331.42 0 0 -9825.05 0 0 9825.05 0 0 -4585.93 0 0 4585.93 0 0 -4652.82 0 0 4652.82
0 0 -24536.2 0 0 24536.2 0 0 -22593.9 0 0 22593.9 0 0 -7934.85 0 0 7934.85 0 0 -9402.97 0 0 9402.97 0 0 -4918.87 0 0 4918.87 0 0 -4996.8 0 0 4996.8
0 0 -25645.3 0 0 25645.3 0 0 -23935.5 0 0 23935.5 0 0 -7624.96 0 0 7624.96 0 0 -9068.64 0 0 9068.64 0 0 -5204.3 0 0 5204.3 0 0 -5292.57 0 0 5292.57
0 0 -26869.3 0 0 26869.3 0 0 -25395.8 0 0 25395.8 0 0 -7429.01 0 0 7429.01 0 0 -8853.43 0 0 8853.43 0 0 -5436.17 0 0 5436.17 0 0 -5532.76 0 0 5532.76
0 0 -28198.6 0 0 28198.6 0 0 -26974 0 0 26974 0 0 -7371.2 0 0 7371.2 0 0 -8784.24 0 0 8784.24 0 0 -5609.49 0 0 5609.49 0 0 -5711.41 0 0 5711.41
0 0 -29634.3 0 0 29634.3 0 0 -28658.9 0 0 28658.9 0 0 -7475.04 0 0 7475.04 0 0 -8884.14 0 0 8884.14 0 0 -5720.1 0 0 5720.1 0 0 -5824.42 0 0 5824.42
0 0 -31170.6 0 0 31170.6 0 0 -30437.3 0 0 30437.3 0 0 -7757.84 0 0 7757.84 0 0 -9170.29 0 0 9170.29 0 0 -5765.33 0 0 5765.33 0 0 -5869.59 0 0 5869.59
0 0 -32795.9 0 0 32795.9 0 0 -32302.2 0 0 32302.2 0 0 -8226.86 0 0 8226.86 0 0 -9650.7 0 0 9650.7 0 0 -5739.38 0 0 5739.38 0 0 -5841.5 0 0 5841.5
0 0 -34503.8 0 0 34503.8 0 0 -34247.4 0 0 34247.4 0 0 -8881.98 0 0 8881.98 0 0 -10326 0 0 10326 0 0 -5639.8 0 0 5639.8 0 0 -5736.61 0 0 5736.61
0 0 -36295.4 0 0 36295.4 0 0 -36271.6 0 0 36271.6 0 0 -9719.68 0 0 9719.68 0 0 -11191.1 0 0 11191.1 0 0 -5469.78 0 0 5469.78 0 0 -5559.71 0 0 5559.71
0 0 -38170.5 0 0 38170.5 0 0 -38374.9 0 0 38374.9 0 0 -10728.3 0 0 10728.3 0 0 -12234 0 0 12234 0 0 -5235.24 0 0 5235.24 0 0 -5316.49 0 0 5316.49
0 0 -40123.3 0 0 40123.3 0 0 -40553.8 0 0 40553.8 0 0 -11890.2 0 0 11890.2 0 0 -13437.6 0 0 13437.6 0 0 -4944.2 0 0 4944.2 0 0 -5014.85 0 0 5014.85
0 0 -42145.7 0 0 42145.7 0 0 -42803 0 0 42803 0 0 -13183.8 0 0 13183.8 0 0 -14778.6 0 0 14778.6 0 0 -4606.12 0 0 4606.12 0 0 -4664.3 0 0 4664.3
0 0 -44212.2 0 0 44212.2 0 0 -45097.2 0 0 45097.2 0 0 -14586.3 0 0 14586.3 0 0 -16233.2 0 0 16233.2 0 0 -4231.41 0 0 4231.41 0 0 -4275.74 0 0 4275.74
0 0 -46303.3 0 0 46303.3 0 0 -47417.2 0 0 47417.2 0 0 -16070.7 0 0 16070.7 0 0 -17772 0 0 17772 0 0 -3831.45 0 0 3831.45 0 0 -3861.21 0 0 3861.21
0 0 -48406.3 0 0 48406.3 0 0 -49749.2 0 0 49749.2 0 0 -17605.1 0 0 17605.1 0 0 -19362.4 0 0 19362.4 0 0 -3418.66 0 0 3418.66 0 0 -3433.63 0 0 3433.63
0 0 -50502.2 0 0 50502.2 0 0 -52073.6 0 0 52073.6 0 0 -19157 0 0 19157 0 0 -20971.5 0 0 20971.5 0 0 -3005.97 0 0 3005.97 0 0 -3006.07 0 0 3006.07
0 0 -52569.2 0 0 52569.2 0 0 -54366.6 0 0 54366.6 0 0 -20695 0 0 20695 0 0 -22566 0 0 22566 0 0 -2606.27 0 0 2606.27 0 0 -2591.65 0 0 2591.65
0 0 -53730.9 0 0 53730.9 0 0 -56111.7 0 0 56111.7 0 0 -22149.9 0 0 22149.9 0 0 -24066.7 0 0 24066.7 0 0 -2235.44 0 0 2235.44 0 0 -2206.95 0 0 2206.95
0 0 -53801.8 0 0 53801.8 0 0 -55471 0 0 55471 0 0 -23263.7 0 0 23263.7 0 0 -25149.5 0 0 25149.5 0 0 -1925.27 0 0 1925.27 0 0 -1893.32 0 0 1893.32
0 0 -53781.6 0 0 53781.6 0 0 -55656.8 0 0 55656.8 0 0 -24292.5 0 0 24292.5 0 0 -26299.8 0 0 26299.8 0 0 -1654.02 0 0 1654.02 0 0 -1603.91 0 0 1603.91
0 0 -54053.7 0 0 54053.7 0 0 -55757.3 0 0 55757.3 0 0 -25315.9 0 0 25315.9 0 0 -27306.4 0 0 27306.4 0 0 -1425.48 0 0 1425.48 0 0 -1377.36 0 0 1377.36
0 0 -54350.2 0 0 54350.2 0 0 -55654.2 0 0 55654.2 0 0 -26240.9 0 0 26240.9 0 0 -28223.3 0 0 28223.3 0 0 -1259.87 0 0 1259.87 0 0 -1203.66 0 0 1203.66
0 0 -54473.2 0 0 54473.2 0 0 -55761.8 0 0 55761.8 0 0 -27030.2 0 0 27030.2 0 0 -29011.1 0 0 29011.1 0 0 -1155.66 0 0 1155.66 0 0 -1096.12 0 0 1096.12
0 0 -54530.8 0 0 54530.8 0 0 -55807.8 0 0 55807.8 0 0 -27671.8 0 0 27671.8 0 0 -29673.6 0 0 29673.6 0 0 -1117.33 0 0 1117.33 0 0 -1054.99 0 0 1054.99
0 0 -54687.7 0 0 54687.7 0 0 -55852.7 0 0 55852.7 0 0 -28200.9 0 0 28200.9 0 0 -30208.4 0 0 30208.4 0 0 -1144.91 0 0 1144.91 0 0 -1082.42 0 0 1082.42
0 0 -54862.5 0 0 54862.5 0 0 -55926.4 0 0 55926.4 0 0 -28603.8 0 0 28603.8 0 0 -30602.1 0 0 30602.1 0 0 -1241.53 0 0 1241.53 0 0 -1180.6 0 0 1180.6
0 0 -54953.3 0 0 54953.3 0 0 -56004.1 0 0 56004.1 0 0 -28851.9 0 0 28851.9 0 0 -30844.4 0 0 30844.4 0 0 -1408.85 0 0 1408.85 0 0 -1348.52 0 0 1348.52
0 0 -55019.5 0 0 55019.5 0 0 -56110.3 0 0 56110.3 0 0 -28953.6 0 0 28953.6 0 0 -30939.1 0 0 30939.1 0 0 -1641.82 0 0 1641.82 0 0 -1584.44 0 0 1584.44
0 0 -55123.8 0 0 55123.8 0 0 -56222.5 0 0 56222.5 0 0 -28922.9 0 0 28922.9 0 0 -30895 0 0 30895 0 0 -1935.11 0 0 1935.11 0 0 -1884 0 0 1884
0 0 -55235.9 0 0 55235.9 0 0 -56346.9 0 0 56346.9 0 0 -28763.7 0 0 28763.7 0 0 -30719.6 0 0 30719.6 0 0 -2284.48 0 0 2284.48 0 0 -2241.18 0 0 2241.18
0 0 -55318.1 0 0 55318.1 0 0 -56491.5 0 0 56491.5 0 0 -28485.3 0 0 28485.3 0 0 -30424.9 0 0 30424.9 0 0 -2684.26 0 0 2684.26 0 0 -2648.7 0 0 2648.7
0 0 -55388.6 0 0 55388.6 0 0 -56620.4 0 0 56620.4 0 0 -28110.8 0 0 28110.8 0 0 -30028.5 0 0 30028.5 0 0 -3125.64 0 0 3125.64 0 0 -3098.22 0 0 3098.22
0 0 -55159 0 0 55159 0 0 -56451.3 0 0 56451.3 0 0 -27689.5 0 0 27689.5 0 0 -29566.8 0 0 29566.8 0 0 -3596.62 0 0 3596.62 0 0 -3580.51 0 0 3580.51
0 0 -54843.6 0 0 54843.6 0 0 -56207.1 0 0 56207.1 0 0 -27203.9 0 0 27203.9 0 0 -29048.8 0 0 29048.8 0 0 -4090.1 0 0 4090.1 0 0 -4084.2 0 0 4084.2
0 0 -54435.1 0 0 54435.1 0 0 -55854.8 0 0 55854.8 0 0 -26684.8 0 0 26684.8 0 0 -28500.6 0 0 28500.6 0 0 -4594.34 0 0 4594.34 0 0 -4600.43 0 0 4600.43
0 0 -53969 0 0 53969 0 0 -55398.8 0 0 55398.8 0 0 -26165.2 0 0 26165.2 0 0 -27950.5 0 0 27950.5 0 0 -5098.84 0 0 5098.84 0 0 -5116.15 0 0 5116.15
0 0 -52889.7 0 0 52889.7 0 0 -54156.7 0 0 54156.7 0 0 -25716.9 0 0 25716.9 0 0 -27526.8 0 0 27526.8 0 0 -5590.78 0 0 5590.78 0 0 -5613.21 0 0 5613.21
0 0 -51684.9 0 0 51684.9 0 0 -52855.2 0 0 52855.2 0 0 -25322.9 0 0 25322.9 0 0 -27100.2 0 0 27100.2 0 0 -6033.35 0 0 6033.35 0 0 -6087.34 0 0 6087.34
0 0 -50578.7 0 0 50578.7 0 0 -51701.8 0 0 51701.8 0 0 -24960.4 0 0 24960.4 0 0 -26727.5 0 0 26727.5 0 0 -6427.69 0 0 6427.69 0 0 -6471.33 0 0 6471.33
0 0 -49589.3 0 0 49589.3 0 0 -50699.4 0 0 50699.4 0 0 -24661.9 0 0 24661.9 0 0 -26415 0 0 26415 0 0 -6764.19 0 0 6764.19 0 0 -6818.09 0 0 6818.09
0 0 -48761.7 0 0 48761.7 0 0 -49854.1 0 0 49854.1 0 0 -24336.8 0 0 24336.8 0 0 -26067.8 0 0 26067.8 0 0 -6811.87 0 0 6811.87 0 0 -6759.32 0 0 6759.32
0 0 -48099.4 0 0 48099.4 0 0 -49173.3 0 0 49173.3 0 0 -24104.5 0 0 24104.5 0 0 -25829.5 0 0 25829.5 0 0 -6794.05 0 0 6794.05 0 0 -6712.17 0 0 6712.17
0 0 -47632.8 0 0 47632.8 0 0 -48669.8 0 0 48669.8 0 0 -23992.5 0 0 23992.5 0 0 -25694.6 0 0 25694.6 0 0 -6766.13 0 0 6766.13 0 0 -6723.4 0 0 6723.4
0 0 -47225.2 0 0 47225.2 0 0 -48259.1 0 0 48259.1 0 0 -23989.8 0 0 23989.8 0 0 -25685.2 0 0 25685.2 0 0 -6745.2 0 0 6745.2 0 0 -6698.46 0 0 6698.46
0 0 -46862.2 0 0 46862.2 0 0 -47881.5 0 0 47881.5 0 0 -24111.9 0 0 24111.9 0 0 -25811.6 0 0 25811.6 0 0 -6750.05 0 0 6750.05 0 0 -6694.8 0 0 6694.8
0 0 -46557.5 0 0 46557.5 0 0 -47560.5 0 0 47560.5 0 0 -24358.1 0 0 24358.1 0 0 -26067 0 0 26067 0 0 -6768.07 0 0 6768.07 0 0 -6689.86 0 0 6689.86
0 0 -46312.4 0 0 46312.4 0 0 -47303 0 0 47303 0 0 -24722 0 0 24722 0 0 -26438.4 0 0 26438.4 0 0 -6780.35 0 0 6780.35 0 0 -6687.92 0 0 6687.92
0 0 -46129 0 0 46129 0 0 -47107.2 0 0 47107.2 0 0 -25185.5 0 0 25185.5 0 0 -26910.1 0 0 26910.1 0 0 -6758.99 0 0 6758.99 0 0 -6672.38 0 0 6672.38
0 0 -46008.1 0 0 46008.1 0 0 -46974.7 0 0 46974.7 0 0 -25715 0 0 25715 0 0 -27455.4 0 0 27455.4 0 0 -6686.27 0 0 6686.27 0 0 -6600.61 0 0 6600.61
0 0 -45943.3 0 0 45943.3 0 0 -46897.7 0 0 46897.7 0 0 -26297.1 0 0 26297.1 0 0 -28059.2 0 0 28059.2 0 0 -6568.59 0 0 6568.59 0 0 -6480.99 0 0 6480.99
0 0 -45923 0 0 45923 0 0 -46867.2 0 0 46867.2 0 0 -26914.2 0 0 26914.2 0 0 -28698.2 0 0 28698.2 0 0 -6413.09 0 0 6413.09 0 0 -6315.81 0 0 6315.81
0 0 -45935.6 0 0 45935.6 0 0 -46870.3 0 0 46870.3 0 0 -27545.7 0 0 27545.7 0 0 -29351.1 0 0 29351.1 0 0 -6222.27 0 0 6222.27 0 0 -6113.77 0 0 6113.77
0 0 -45969.2 0 0 45969.2 0 0 -46895.1 0 0 46895.1 0 0 -28167.8 0 0 28167.8 0 0 -29994.4 0 0 29994.4 0 0 -5999.29 0 0 5999.29 0 0 -5883.3 0 0 5883.3
0 0 -46009.6 0 0 46009.6 0 0 -46926 0 0 46926 0 0 -28756.3 0 0 28756.3 0 0 -30606.1 0 0 30606.1 0 0 -5751.39 0 0 5751.39 0 0 -5631.38 0 0 5631.38
0 0 -46040 0 0 46040 0 0 -46947.6 0 0 46947.6 0 0 -29289.5 0 0 29289.5 0 0 -31162.4 0 0 31162.4 0 0 -5488.51 0 0 5488.51 0 0 -5363.98 0 0 5363.98
0 0 -46042.3 0 0 46042.3 0 0 -46941.4 0 0 46941.4 0 0 -29747.1 0 0 29747.1 0 0 -31640.8 0 0 31640.8 0 0 -5219.52 0 0 5219.52 0 0 -5087.51 0 0 5087.51
0 0 -45997.7 0 0 45997.7 0 0 -46886.5 0 0 46886.5 0 0 -30110.1 0 0 30110.1 0 0 -32021.7 0 0 32021.7 0 0 -4950.33 0 0 4950.33 0 0 -4809.46 0 0 4809.46
0 0 -45886.9 0 0 45886.9 0 0 -46765.6 0 0 46765.6 0 0 -30360.5 0 0 30360.5 0 0 -32287.1 0 0 32287.1 0 0 -4685.27 0 0 4685.27 0 0 -4537.39 0 0 4537.39
0 0 -45692.8 0 0 45692.8 0 0 -46559.4 0 0 46559.4 0 0 -30483.3 0 0 30483.3 0 0 -32422.4 0 0 32422.4 0 0 -4429.36 0 0 4429.36 0 0 -4277.55 0 0 4277.55
0 0 -45399.8 0 0 45399.8 0 0 -46252.4 0 0 46252.4 0 0 -30467.5 0 0 30467.5 0 0 -32415.4 0 0 32415.4 0 0 -4188.58 0 0 4188.58 0 0 -4034.52 0 0 4034.52
0 0 -44995.9 0 0 44995.9 0 0 -45833.3 0 0 45833.3 0 0 -30305.1 0 0 30305.1 0 0 -32257 0 0 32257 0 0 -3968.23 0 0 3968.23 0 0 -3811.81 0 0 3811.81
0 0 -44473.5 0 0 44473.5 0 0 -45292.6 0 0 45292.6 0 0 -29990.8 0 0 29990.8 0 0 -31942.7 0 0 31942.7 0 0 -3771.46 0 0 3771.46 0 0 -3612.46 0 0 3612.46
0 0 -43829.5 0 0 43829.5 0 0 -44628.6 0 0 44628.6 0 0 -29523.1 0 0 29523.1 0 0 -31470.4 0 0 31470.4 0 0 -3599.36 0 0 3599.36 0 0 -3438.91 0 0 3438.91
0 0 -43066 0 0 43066 0 0 -43843 0 0 43843 0 0 -28904 0 0 28904 0 0 -30842.6 0 0 30842.6 0 0 -3452.11 0 0 3452.11 0 0 -3292.41 0 0 3292.41
0 0 -42188.9 0 0 42188.9 0 0 -42941.3 0 0 42941.3 0 0 -28139.3 0 0 28139.3 0 0 -30065.1 0 0 30065.1 0 0 -3329.64 0 0 3329.64 0 0 -3172.63 0 0 3172.63
0 0 -41206.2 0 0 41206.2 0 0 -41932.7 0 0 41932.7 0 0 -27238.6 0 0 27238.6 0 0 -29147.2 0 0 29147.2 0 0 -3231.31 0 0 3231.31 0 0 -3077.88 0 0 3077.88
0 0 -40125.7 0 0 40125.7 0 0 -40824 0 0 40824 0 0 -26214.5 0 0 26214.5 0 0 -28102.7 0 0 28102.7 0 0 -3155.11 0 0 3155.11 0 0 -3005.56 0 0 3005.56
0 0 -38953.5 0 0 38953.5 0 0 -39622.4 0 0 39622.4 0 0 -25083.4 0 0 25083.4 0 0 -26948.2 0 0 26948.2 0 0 -3097.6 0 0 3097.6 0 0 -2952.41 0 0 2952.41
0 0 -37692.8 0 0 37692.8 0 0 -38330.4 0 0 38330.4 0 0 -23864.4 0 0 23864.4 0 0 -25703.6 0 0 25703.6 0 0 -3054.35 0 0 3054.35 0 0 -2914.49 0 0 2914.49
0 0 -36344.6 0 0 36344.6 0 0 -36948.6 0 0 36948.6 0 0 -22579.3 0 0 22579.3 0 0 -24391.4 0 0 24391.4 0 0 -3020.64 0 0 3020.64 0 0 -2887.07 0 0 2887.07
0 0 -34911 0 0 34911 0 0 -35480.3 0 0 35480.3 0 0 -21250.8 0 0 21250.8 0 0 -23034.3 0 0 23034.3 0 0 -2991.68 0 0 2991.68 0 0 -2864.84 0 0 2864.84
0 0 -33397.1 0 0 33397.1 0 0 -33928.5 0 0 33928.5 0 0 -19901.6 0 0 19901.6 0 0 -21656.8 0 0 21656.8 0 0 -2962.55 0 0 2962.55 0 0 -2842.24 0 0 2842.24
0 0 -31810.2 0 0 31810.2 0 0 -32301.8 0 0 32301.8 0 0 -18554.4 0 0 18554.4 0 0 -20281.6 0 0 20281.6 0 0 -2928.07 0 0 2928.07 0 0 -2813.87 0 0 2813.87
0 0 -30159.5 0 0 30159.5 0 0 -30609.7 0 0 30609.7 0 0 -17230.5 0 0 17230.5 0 0 -18931 0 0 18931 0 0 -2883.08 0 0 2883.08 0 0 -2774.64 0 0 2774.64
0 0 -28455.3 0 0 28455.3 0 0 -28861 0 0 28861 0 0 -15949.7 0 0 15949.7 0 0 -17625.5 0 0 17625.5 0 0 -2822.82 0 0 2822.82 0 0 -2719.86 0 0 2719.86
0 0 -26707.2 0 0 26707.2 0 0 -27067.4 0 0 27067.4 0 0 -14729.7 0 0 14729.7 0 0 -16382.8 0 0 16382.8 0 0 -2743.27 0 0 2743.27 0 0 -2645.29 0 0 2645.29
0 0 -24923.4 0 0 24923.4 0 0 -25236 0 0 25236 0 0 -13585.3 0 0 13585.3 0 0 -15218.8 0 0 15218.8 0 0 -2641.19 0 0 2641.19 0 0 -2547.35 0 0 2547.35
0 0 -23109.5 0 0 23109.5 0 0 -23372.7 0 0 23372.7 0 0 -12528.7 0 0 12528.7 0 0 -14145.8 0 0 14145.8 0 0 -2514.09 0 0 2514.09 0 0 -2423.32 0 0 2423.32
0 0 -21270.2 0 0 21270.2 0 0 -21483.3 0 0 21483.3 0 0 -11568.7 0 0 11568.7 0 0 -13172.6 0 0 13172.6 0 0 -2360.27 0 0 2360.27 0 0 -2271.51 0 0 2271.51
0 0 -19412.1 0 0 19412.1 0 0 -19573.5 0 0 19573.5 0 0 -10709.9 0 0 10709.9 0 0 -12304.5 0 0 12304.5 0 0 -2178.96 0 0 2178.96 0 0 -2091.27 0 0 2091.27
0 0 -17546.4 0 0 17546.4 0 0 -17656.7 0 0 17656.7 0 0 -9953.22 0 0 9953.22 0 0 -11541.5 0 0 11541.5 0 0 -1970.5 0 0 1970.5 0 0 -1882.95 0 0 1882.95
0 0 -15691.5 0 0 15691.5 0 0 -15751.7 0 0 15751.7 0 0 -9294.67 0 0 9294.67 0 0 -10880 0 0 10880 0 0 -1736.27 0 0 1736.27 0 0 -1647.95 0 0 1647.95
0 0 -13871 0 0 13871 0 0 -13885 0 0 13885 0 0 -8726.84 0 0 8726.84 0 0 -10312.4 0 0 10312.4 0 0 -1478.62 0 0 1478.62 0 0 -1388.59 0 0 1388.59
0 0 -12110.1 0 0 12110.1 0 0 -12087.8 0 0 12087.8 0 0 -8239.46 0 0 8239.46 0 0 -9827.85 0 0 9827.85 0 0 -1200.64 0 0 1200.64 0 0 -1108.06 0 0 1108.06
0 0 -10432.4 0 0 10432.4 0 0 -10406.3 0 0 10406.3 0 0 -7821.37 0 0 7821.37 0 0 -9416.71 0 0 9416.71 0 0 -905.963 0 0 905.963 0 0 -810.068 0 0 810.068
0 0 -8865.3 0 0 8865.3 0 0 -8963.16 0 0 8963.16 0 0 -7467.08 0 0 7467.08 0 0 -9077.8 0 0 9077.8 0 0 -598.264 0 0 598.264 0 0 -497.903 0 0 497.903
0 0 -7438.11 0 0 7438.11 0 0 -7646.74 0 0 7646.74 0 0 -7167.85 0 0 7167.85 0 0 -8781.56 0 0 8781.56 0 0 -282.077 0 0 282.077 0 0 -177.794 0 0 177.794
0 0 -6092.78 0 0 6092.78 0 0 -6401.05 0 0 6401.05 0 0 -6888.86 0 0 6888.86 0 0 -8514.58 0 0 8514.58 0 0 19.6276 0 0 -19.6276 0 0 126.949 0 0 -126.949
0 0 -4796.72 0 0 4796.72 0 0 -5227.71 0 0 5227.71 0 0 -6645.29 0 0 6645.29 0 0 -8284.89 0 0 8284.89 0 0 249.278 0 0 -249.278 0 0 337.364 0 0 -337.364
0 0 -3583.19 0 0 3583.19 0 0 -4125.1 0 0 4125.1 0 0 -6387.53 0 0 6387.53 0 0 -8040.84 0 0 8040.84 0 0 466.955 0 0 -466.955 0 0 562.853 0 0 -562.853
0 0 -2441.4 0 0 2441.4 0 0 -3073.85 0 0 3073.85 0 0 -6123.84 0 0 6123.84 0 0 -7790.4 0 0 7790.4 0 0 677.389 0 0 -677.389 0 0 775.697 0 0 -775.697
0 0 -1335.7 0 0 1335.7 0 0 -2117.72 0 0 2117.72 0 0 -5840.27 0 0 5840.27 0 0 -7517.18 0 0 7517.18 0 0 879.798 0 0 -879.798 0 0 980.191 0 0 -980.191
0 0 -262.213 0 0 262.213 0 0 -1275.24 0 0 1275.24 0 0 -5532.12 0 0 5532.12 0 0 -7219.92 0 0 7219.92 0 0 1072.97 0 0 -1072.97 0 0 1171.08 0 0 -1171.08
0 0 511.408 0 0 -511.408 0 0 -676.511 0 0 676.511 0 0 -5167.95 0 0 5167.95 0 0 -6855.34 0 0 6855.34 0 0 1250.96 0 0 -1250.96 0 0 1345.21 0 0 -1345.21
0 0 1123.37 0 0 -1123.37 0 0 -197.016 0 0 197.016 0 0 -4795.27 0 0 4795.27 0 0 -6486.01 0 0 6486.01 0 0 1411.81 0 0 -1411.81 0 0 1506.2 0 0 -1506.2
0 0 1667.35 0 0 -1667.35 0 0 165.566 0 0 -165.566 0 0 -4405.38 0 0 4405.38 0 0 -6095.14 0 0 6095.14 0 0 1552.47 0 0 -1552.47 0 0 1648.91 0 0 -1648.91
0 0 2239.63 0 0 -2239.63 0 0 451.312 0 0 -451.312 0 0 -3991.24 0 0 3991.24 0 0 -5681.86 0 0 5681.86 0 0 1674.17 0 0 -1674.17 0 0 1773.53 0 0 -1773.53
0 0 2867.34 0 0 -2867.34 0 0 682.845 0 0 -682.845 0 0 -3546.93 0 0 3546.93 0 0 -5241.03 0 0 5241.03 0 0 1777.85 0 0 -1777.85 0 0 1876.49 0 0 -1876.49
0 0 3541.91 0 0 -3541.91 0 0 853.715 0 0 -853.715 0 0 -3076.58 0 0 3076.58 0 0 -4775.34 0 0 4775.34 0 0 1862.89 0 0 -1862.89 0 0 1958.98 0 0 -1958.98
0 0 4249.44 0 0 -4249.44 0 0 972.829 0 0 -972.829 0 0 -2589.33 0 0 2589.33 0 0 -4294.34 0 0 4294.34 0 0 1927.42 0 0 -1927.42 0 0 2021.46 0 0 -2021.46
0 0 5003.64 0 0 -5003.64 0 0 1046.16 0 0 -1046.16 0 0 -2085.44 0 0 2085.44 0 0 -3796.32 0 0 3796.32 0 0 1969.79 0 0 -1969.79 0 0 2064.52 0 0 -2064.52
0 0 5821.98 0 0 -5821.98 0 0 1105.43 0 0 -1105.43 0 0 -1562.13 0 0 1562.13 0 0 -3276.27 0 0 3276.27 0 0 1990.9 0 0 -1990.9 0 0 2087.75 0 0 -2087.75
0 0 6720.19 0 0 -6720.19 0 0 1180.94 0 0 -1180.94 0 0 -1013.55 0 0 1013.55 0 0 -2733.78 0 0 2733.78 0 0 1990.22 0 0 -1990.22 0 0 2088.89 0 0 -2088.89
0 0 7686.94 0 0 -7686.94 0 0 1246.15 0 0 -1246.15 0 0 -446.978 0 0 446.978 0 0 -2176.3 0 0 2176.3 0 0 1965.48 0 0 -1965.48 0 0 2062.86 0 0 -2062.86
0 0 8700.41 0 0 -8700.41 0 0 1297.56 0 0 -1297.56 0 0 124.896 0 0 -124.896 0 0 -1606.65 0 0 1606.65 0 0 1916.81 0 0 -1916.81 0 0 2012.58 0 0 -2012.58
0 0 9757.91 0 0 -9757.91 0 0 1333.1 0 0 -1333.1 0 0 708.602 0 0 -708.602 0 0 -1026.94 0 0 1026.94 0 0 1844.35 0 0 -1844.35 0 0 1940.21 0 0 -1940.21
0 0 10866 0 0 -10866 0 0 1367.36 0 0 -1367.36 0 0 1305.27 0 0 -1305.27 0 0 -431.687 0 0 431.687 0 0 1751.11 0 0 -1751.11 0 0 1847.8 0 0 -1847.8
0 0 12018.7 0 0 -12018.7 0 0 1406.44 0 0 -1406.44 0 0 1918.3 0 0 -1918.3 0 0 173.504 0 0 -173.504 0 0 1640.02 0 0 -1640.02 0 0 1736.72 0 0 -1736.72
0 0 13196.3 0 0 -13196.3 0 0 1436.29 0 0 -1436.29 0 0 2546.1 0 0 -2546.1 0 0 795.25 0 0 -795.25 0 0 1514.32 0 0 -1514.32 0 0 1610.07 0 0 -1610.07
0 0 14378.1 0 0 -14378.1 0 0 1449.03 0 0 -1449.03 0 0 3188.29 0 0 -3188.29 0 0 1431.71 0 0 -1431.71 0 0 1377.06 0 0 -1377.06 0 0 1470.71 0 0 -1470.71
0 0 15555.9 0 0 -15555.9 0 0 1446.03 0 0 -1446.03 0 0 3845.7 0 0 -3845.7 0 0 2084.32 0 0 -2084.32 0 0 1230.83 0 0 -1230.83 0 0 1322.67 0 0 -1322.67
0 0 16726.9 0 0 -16726.9 0 0 1434.43 0 0 -1434.43 0 0 4518.46 0 0 -4518.46 0 0 2753.4 0 0 -2753.4 0 0 1078.82 0 0 -1078.82 0 0 1169.5 0 0 -1169.5
0 0 17884.8 0 0 -17884.8 0 0 1419.65 0 0 -1419.65 0 0 5203.12 0 0 -5203.12 0 0 3434.92 0 0 -3434.92 0 0 925.085 0 0 -925.085 0 0 1014.68 0 0 -1014.68
0 0 19019.2 0 0 -19019.2 0 0 1396.76 0 0 -1396.76 0 0 5892.56 0 0 -5892.56 0 0 4122.82 0 0 -4122.82 0 0 774.127 0 0 -774.127 0 0 862.005 0 0 -862.005
0 0 20123 0 0 -20123 0 0 1366.01 0 0 -1366.01 0 0 6579.56 0 0 -6579.56 0 0 4809.29 0 0 -4809.29 0 0 630.087 0 0 -630.087 0 0 715.619 0 0 -715.619
0 0 21195.2 0 0 -21195.2 0 0 1334.42 0 0 -1334.42 0 0 7258.11 0 0 -7258.11 0 0 5487.12 0 0 -5487.12 0 0 496.56 0 0 -496.56 0 0 579.743 0 0 -579.743
0 0 22235.7 0 0 -22235.7 0 0 1308.51 0 0 -1308.51 0 0 7922.65 0 0 -7922.65 0 0 6150.48 0 0 -6150.48 0 0 376.956 0 0 -376.956 0 0 458.341 0 0 -458.341
0 0 23241.1 0 0 -23241.1 0 0 1293.48 0 0 -1293.48 0 0 8567.34 0 0 -8567.34 0 0 6792.68 0 0 -6792.68 0 0 274.769 0 0 -274.769 0 0 354.954 0 0 -354.954
0 0 24206.5 0 0 -24206.5 0 0 1289.52 0 0 -1289.52 0 0 9186.24 0 0 -9186.24 0 0 7408.03 0 0 -7408.03 0 0 193.379 0 0 -193.379 0 0 272.672 0 0 -272.672
0 0 25128.9 0 0 -25128.9 0 0 1298.83 0 0 -1298.83 0 0 9774.68 0 0 -9774.68 0 0 7991.43 0 0 -7991.43 0 0 136.13 0 0 -136.13 0 0 214.223 0 0 -214.223
0 0 26008.4 0 0 -26008.4 0 0 1327.2 0 0 -1327.2 0 0 10330 0 0 -10330 0 0 8538.85 0 0 -8538.85 0 0 106.624 0 0 -106.624 0 0 182.847 0 0 -182.847
0 0 26844.1 0 0 -26844.1 0 0 1373.5 0 0 -1373.5 0 0 10846.7 0 0 -10846.7 0 0 9045.57 0 0 -9045.57 0 0 102.623 0 0 -102.623 0 0 178.464 0 0 -178.464
0 0 27642.1 0 0 -27642.1 0 0 1446.11 0 0 -1446.11 0 0 11324.6 0 0 -11324.6 0 0 9510.22 0 0 -9510.22 0 0 126.328 0 0 -126.328 0 0 203.178 0 0 -203.178
0 0 28401.6 0 0 -28401.6 0 0 1544.41 0 0 -1544.41 0 0 11761.1 0 0 -11761.1 0 0 9930.23 0 0 -9930.23 0 0 173.617 0 0 -173.617 0 0 256.53 0 0 -256.53
0 0 29122.6 0 0 -29122.6 0 0 1663.87 0 0 -1663.87 0 0 12152 0 0 -12152 0 0 10303.8 0 0 -10303.8 0 0 243.311 0 0 -243.311 0 0 335.548 0 0 -335.548
0 0 29807.1 0 0 -29807.1 0 0 1805.47 0 0 -1805.47 0 0 12502.1 0 0 -12502.1 0 0 10633.5 0 0 -10633.5 0 0 335.26 0 0 -335.26 0 0 442.7 0 0 -442.7
0 0 30461.5 0 0 -30461.5 0 0 1971.15 0 0 -1971.15 0 0 12814.4 0 0 -12814.4 0 0 10922.8 0 0 -10922.8 0 0 449.692 0 0 -449.692 0 0 576.06 0 0 -576.06
0 0 31068.5 0 0 -31068.5 0 0 2121.25 0 0 -2121.25 0 0 13098.5 0 0 -13098.5 0 0 11210.2 0 0 -11210.2 0 0 585.204 0 0 -585.204 0 0 731.052 0 0 -731.052
0 0 31686.5 0 0 -31686.5 0 0 2337.47 0 0 -2337.47 0 0 13371.2 0 0 -13371.2 0 0 11470.2 0 0 -11470.2 0 0 739.474 0 0 -739.474 0 0 907.657 0 0 -907.657
0 0 32312.6 0 0 -32312.6 0 0 2556.7 0 0 -2556.7 0 0 13623.6 0 0 -13623.6 0 0 11715 0 0 -11715 0 0 910.779 0 0 -910.779 0 0 1104.16 0 0 -1104.16
0 0 32905.1 0 0 -32905.1 0 0 2820.66 0 0 -2820.66 0 0 13848.4 0 0 -13848.4 0 0 11933.7 0 0 -11933.7 0 0 1097.06 0 0 -1097.06 0 0 1316.97 0 0 -1316.97
0 0 33480.9 0 0 -33480.9 0 0 3047.99 0 0 -3047.99 0 0 14049.4 0 0 -14049.4 0 0 12131.6 0 0 -12131.6 0 0 1295.71 0 0 -1295.71 0 0 1544.66 0 0 -1544.66
0 0 34067.6 0 0 -34067.6 0 0 3284.6 0 0 -3284.6 0 0 14243.3 0 0 -14243.3 0 0 12322.6 0 0 -12322.6 0 0 1503.81 0 0 -1503.81 0 0 1782.5 0 0 -1782.5
0 0 34687 0 0 -34687 0 0 3563.52 0 0 -3563.52 0 0 14444.5 0 0 -14444.5 0 0 12516.7 0 0 -12516.7 0 0 1717.62 0 0 -1717.62 0 0 2027.3 0 0 -2027.3
0 0 35338 0 0 -35338 0 0 3855.68 0 0 -3855.68 0 0 14656.4 0 0 -14656.4 0 0 12719.6 0 0 -12719.6 0 0 1929.11 0 0 -1929.11 0 0 2267.59 0 0 -2267.59
0 0 36007.8 0 0 -36007.8 0 0 4140.12 0 0 -4140.12 0 0 14870.8 0 0 -14870.8 0 0 12916.1 0 0 -12916.1 0 0 2130.68 0 0 -2130.68 0 0 2449.13 0 0 -2449.13
0 0 36695.7 0 0 -36695.7 0 0 4397.45 0 0 -4397.45 0 0 15106.1 0 0 -15106.1 0 0 13143.1 0 0 -13143.1 0 0 2327.26 0 0 -2327.26 0 0 2639.35 0 0 -2639.35
0 0 37418.7 0 0 -37418.7 0 0 4654.65 0 0 -4654.65 0 0 15373 0 0 -15373 0 0 13398.1 0 0 -13398.1 0 0 2518.62 0 0 -2518.62 0 0 2820.62 0 0 -2820.62
0 0 38193.3 0 0 -38193.3 0 0 4908.86 0 0 -4908.86 0 0 15684.4 0 0 -15684.4 0 0 13696.6 0 0 -13696.6 0 0 2701.23 0 0 -2701.23 0 0 2995.91 0 0 -2995.91
0 0 39014.4 0 0 -39014.4 0 0 5155.07 0 0 -5155.07 0 0 16046.4 0 0 -16046.4 0 0 14044.2 0 0 -14044.2 0 0 2872.78 0 0 -2872.78 0 0 3161.01 0 0 -3161.01
0 0 39879.6 0 0 -39879.6 0 0 5344.28 0 0 -5344.28 0 0 16462.7 0 0 -16462.7 0 0 14444 0 0 -14444 0 0 3031.31 0 0 -3031.31 0 0 3313.98 0 0 -3313.98
0 0 40747.2 0 0 -40747.2 0 0 5394.32 0 0 -5394.32 0 0 16926.9 0 0 -16926.9 0 0 14891.4 0 0 -14891.4 0 0 3175.54 0 0 -3175.54 0 0 3453.47 0 0 -3453.47
0 0 41598.2 0 0 -41598.2 0 0 5365.5 0 0 -5365.5 0 0 17448.9 0 0 -17448.9 0 0 15404.2 0 0 -15404.2 0 0 3304.02 0 0 -3304.02 0 0 3576.77 0 0 -3576.77
0 0 42478.3 0 0 -42478.3 0 0 5303.93 0 0 -5303.93 0 0 18055.6 0 0 -18055.6 0 0 15998.4 0 0 -15998.4 0 0 3414.28 0 0 -3414.28 0 0 3683.21 0 0 -3683.21
0 0 43392.8 0 0 -43392.8 0 0 5232.35 0 0 -5232.35 0 0 18758.2 0 0 -18758.2 0 0 16685.2 0 0 -16685.2 0 0 3505.58 0 0 -3505.58 0 0 3770.86 0 0 -3770.86
0 0 44293.2 0 0 -44293.2 0 0 5096.83 0 0 -5096.83 0 0 19549.2 0 0 -19549.2 0 0 17467.3 0 0 -17467.3 0 0 3578.4 0 0 -3578.4 0 0 3840.4 0 0 -3840.4
0 0 45157.9 0 0 -45157.9 0 0 4945.45 0 0 -4945.45 0 0 20424 0 0 -20424 0 0 18347.6 0 0 -18347.6 0 0 3633.62 0 0 -3633.62 0 0 3891.66 0 0 -3891.66
0 0 46008.7 0 0 -46008.7 0 0 4743.72 0 0 -4743.72 0 0 21385.8 0 0 -21385.8 0 0 19316.7 0 0 -19316.7 0 0 3671.73 0 0 -3671.73 0 0 3926.79 0 0 -3926.79
0 0 46808.6 0 0 -46808.6 0 0 4500.48 0 0 -4500.48 0 0 22428.4 0 0 -22428.4 0 0 20366.8 0 0 -20366.8 0 0 3694.54 0 0 -3694.54 0 0 3946.85 0 0 -3946.85
0 0 47546.6 0 0 -47546.6 0 0 4207.74 0 0 -4207.74 0 0 23531 0 0 -23531 0 0 21478.5 0 0 -21478.5 0 0 3704.04 0 0 -3704.04 0 0 3953.47 0 0 -3953.47
0 0 48220.1 0 0 -48220.1 0 0 3868.22 0 0 -3868.22 0 0 24671.2 0 0 -24671.2 0 0 22630.1 0 0 -22630.1 0 0 3702.43 0 0 -3702.43 0 0 3947.47 0 0 -3947.47
0 0 48841.3 0 0 -48841.3 0 0 3503.72 0 0 -3503.72 0 0 25829.2 0 0 -25829.2 0 0 23800.1 0 0 -23800.1 0 0 3693.69 0 0 -3693.69 0 0 3934.33 0 0 -3934.33
0 0 49424 0 0 -49424 0 0 3135.86 0 0 -3135.86 0 0 26984.1 0 0 -26984.1 0 0 24966.4 0 0 -24966.4 0 0 3682.47 0 0 -3682.47 0 0 3918.89 0 0 -3918.89
0 0 49972.8 0 0 -49972.8 0 0 2777.27 0 0 -2777.27 0 0 28112.1 0 0 -28112.1 0 0 26104.8 0 0 -26104.8 0 0 3673.76 0 0 -3673.76 0 0 3906.24 0 0 -3906.24
0 0 50486.4 0 0 -50486.4 0 0 2433.79 0 0 -2433.79 0 0 29189.3 0 0 -29189.3 0 0 27192.3 0 0 -27192.3 0 0 3672.56 0 0 -3672.56 0 0 3901.21 0 0 -3901.21
0 0 50966.3 0 0 -50966.3 0 0 2115.87 0 0 -2115.87 0 0 30194.9 0 0 -30194.9 0 0 28208 0 0 -28208 0 0 3683.28 0 0 -3683.28 0 0 3908.25 0 0 -3908.25
0 0 51416.9 0 0 -51416.9 0 0 1838.78 0 0 -1838.78 0 0 31112.5 0 0 -31112.5 0 0 29134 0 0 -29134 0 0 3709.47 0 0 -3709.47 0 0 3931.24 0 0 -3931.24
0 0 51840.3 0 0 -51840.3 0 0 1613.28 0 0 -1613.28 0 0 31927.7 0 0 -31927.7 0 0 29956 0 0 -29956 0 0 3754.02 0 0 -3754.02 0 0 3973.39 0 0 -3973.39
0 0 52233.5 0 0 -52233.5 0 0 1445.04 0 0 -1445.04 0 0 32627.7 0 0 -32627.7 0 0 30660.8 0 0 -30660.8 0 0 3813.72 0 0 -3813.72 0 0 4036.03 0 0 -4036.03
0 0 52593 0 0 -52593 0 0 1334.79 0 0 -1334.79 0 0 33197.6 0 0 -33197.6 0 0 31234.3 0 0 -31234.3 0 0 3885.04 0 0 -3885.04 0 0 4101.79 0 0 -4101.79
0 0 52915.2 0 0 -52915.2 0 0 1282.89 0 0 -1282.89 0 0 33636 0 0 -33636 0 0 31673.2 0 0 -31673.2 0 0 3970.99 0 0 -3970.99 0 0 4183.01 0 0 -4183.01
0 0 52973.7 0 0 -52973.7 0 0 1317.29 0 0 -1317.29 0 0 33922.2 0 0 -33922.2 0 0 31973.4 0 0 -31973.4 0 0 4074.86 0 0 -4074.86 0 0 4282.25 0 0 -4282.25
0 0 52980.9 0 0 -52980.9 0 0 1384.2 0 0 -1384.2 0 0 34072.7 0 0 -34072.7 0 0 32133.5 0 0 -32133.5 0 0 4195.59 0 0 -4195.59 0 0 4397.12 0 0 -4397.12
0 0 52993.7 0 0 -52993.7 0 0 1489.77 0 0 -1489.77 0 0 34095.5 0 0 -34095.5 0 0 32165 0 0 -32165 0 0 4331.35 0 0 -4331.35 0 0 4525.55 0 0 -4525.55
0 0 53035.1 0 0 -53035.1 0 0 1675.06 0 0 -1675.06 0 0 34008.8 0 0 -34008.8 0 0 32078.8 0 0 -32078.8 0 0 4478.83 0 0 -4478.83 0 0 4665.95 0 0 -4665.95
0 0 53123.3 0 0 -53123.3 0 0 1831.23 0 0 -1831.23 0 0 33819.6 0 0 -33819.6 0 0 31874.8 0 0 -31874.8 0 0 4635.19 0 0 -4635.19 0 0 4816.3 0 0 -4816.3
0 0 53173.7 0 0 -53173.7 0 0 1922.35 0 0 -1922.35 0 0 33520.1 0 0 -33520.1 0 0 31560.8 0 0 -31560.8 0 0 4798.36 0 0 -4798.36 0 0 4973.39 0 0 -4973.39
0 0 53136.6 0 0 -53136.6 0 0 1949.3 0 0 -1949.3 0 0 33119.5 0 0 -33119.5 0 0 31145.4 0 0 -31145.4 0 0 4965.09 0 0 -4965.09 0 0 5134.62 0 0 -5134.62
0 0 53032.2 0 0 -53032.2 0 0 1919.04 0 0 -1919.04 0 0 32639.8 0 0 -32639.8 0 0 30650.3 0 0 -30650.3 0 0 5131.03 0 0 -5131.03 0 0 5295.21 0 0 -5295.21
0 0 52874.3 0 0 -52874.3 0 0 1836.75 0 0 -1836.75 0 0 32100.6 0 0 -32100.6 0 0 30092 0 0 -30092 0 0 5291.89 0 0 -5291.89 0 0 5451.31 0 0 -5451.31
0 0 52481.8 0 0 -52481.8 0 0 1675.73 0 0 -1675.73 0 0 31535.8 0 0 -31535.8 0 0 29491.6 0 0 -29491.6 0 0 5442.62 0 0 -5442.62 0 0 5598.96 0 0 -5598.96
0 0 52068.5 0 0 -52068.5 0 0 1547.87 0 0 -1547.87 0 0 30944.3 0 0 -30944.3 0 0 28878.6 0 0 -28878.6 0 0 5579.62 0 0 -5579.62 0 0 5732.3 0 0 -5732.3
0 0 51649.9 0 0 -51649.9 0 0 1565.5 0 0 -1565.5 0 0 30366.2 0 0 -30366.2 0 0 28279.6 0 0 -28279.6 0 0 5697.48 0 0 -5697.48 0 0 5848 0 0 -5848
0 0 51259.3 0 0 -51259.3 0 0 1715.42 0 0 -1715.42 0 0 29822.3 0 0 -29822.3 0 0 27717.9 0 0 -27717.9 0 0 5792.62 0 0 -5792.62 0 0 5941.17 0 0 -5941.17
0 0 50889.6 0 0 -50889.6 0 0 1895.29 0 0 -1895.29 0 0 29316.3 0 0 -29316.3 0 0 27191.7 0 0 -27191.7 0 0 5862.34 0 0 -5862.34 0 0 6010.31 0 0 -6010.31
0 0 50506.2 0 0 -50506.2 0 0 2036.3 0 0 -2036.3 0 0 28840.4 0 0 -28840.4 0 0 26705.6 0 0 -26705.6 0 0 5904.98 0 0 -5904.98 0 0 6052.86 0 0 -6052.86
0 0 50098.9 0 0 -50098.9 0 0 2098.14 0 0 -2098.14 0 0 28396.1 0 0 -28396.1 0 0 26261.6 0 0 -26261.6 0 0 5919.05 0 0 -5919.05 0 0 6067.5 0 0 -6067.5
0 0 49689.8 0 0 -49689.8 0 0 2106.94 0 0 -2106.94 0 0 27997.5 0 0 -27997.5 0 0 25871.1 0 0 -25871.1 0 0 5897.85 0 0 -5897.85 0 0 6046.91 0 0 -6046.91
0 0 49276.3 0 0 -49276.3 0 0 2089.27 0 0 -2089.27 0 0 27661.3 0 0 -27661.3 0 0 25542 0 0 -25542 0 0 5835.78 0 0 -5835.78 0 0 5983.67 0 0 -5983.67
0 0 48847.5 0 0 -48847.5 0 0 2034.83 0 0 -2034.83 0 0 27390.2 0 0 -27390.2 0 0 25277.7 0 0 -25277.7 0 0 5732.22 0 0 -5732.22 0 0 5878.98 0 0 -5878.98
0 0 48373.7 0 0 -48373.7 0 0 1912.97 0 0 -1912.97 0 0 27177 0 0 -27177 0 0 25075.1 0 0 -25075.1 0 0 5588.68 0 0 -5588.68 0 0 5733.74 0 0 -5733.74
0 0 47839.8 0 0 -47839.8 0 0 1717.15 0 0 -1717.15 0 0 27017.8 0 0 -27017.8 0 0 24931.6 0 0 -24931.6 0 0 5407.59 0 0 -5407.59 0 0 5549.86 0 0 -5549.86
0 0 47248 0 0 -47248 0 0 1468.06 0 0 -1468.06 0 0 26912.9 0 0 -26912.9 0 0 24845.7 0 0 -24845.7 0 0 5191.75 0 0 -5191.75 0 0 5329.86 0 0 -5329.86
0 0 46602.5 0 0 -46602.5 0 0 1180.36 0 0 -1180.36 0 0 26858.3 0 0 -26858.3 0 0 24810.8 0 0 -24810.8 0 0 4944.61 0 0 -4944.61 0 0 5077.61 0 0 -5077.61
0 0 45899.4 0 0 -45899.4 0 0 855.934 0 0 -855.934 0 0 26840.1 0 0 -26840.1 0 0 24813.4 0 0 -24813.4 0 0 4670.72 0 0 -4670.72 0 0 4798.08 0 0 -4798.08
0 0 45134.8 0 0 -45134.8 0 0 490.231 0 0 -490.231 0 0 26839.7 0 0 -26839.7 0 0 24836.6 0 0 -24836.6 0 0 4375.55 0 0 -4375.55 0 0 4497.05 0 0 -4497.05
0 0 44313.6 0 0 -44313.6 0 0 94.0381 0 0 -94.0381 0 0 26839.7 0 0 -26839.7 0 0 24862.7 0 0 -24862.7 0 0 4065.07 0 0 -4065.07 0 0 4180.46 0 0 -4180.46
0 0 43444.4 0 0 -43444.4 0 0 -316.619 0 0 316.619 0 0 26825.2 0 0 -26825.2 0 0 24875.9 0 0 -24875.9 0 0 3745.45 0 0 -3745.45 0 0 3854.38 0 0 -3854.38
0 0 42532.8 0 0 -42532.8 0 0 -721.311 0 0 721.311 0 0 26781.4 0 0 -26781.4 0 0 24859.3 0 0 -24859.3 0 0 3422.76 0 0 -3422.76 0 0 3525 0 0 -3525
0 0 41573.7 0 0 -41573.7 0 0 -1118.26 0 0 1118.26 0 0 26691 0 0 -26691 0 0 24796.1 0 0 -24796.1 0 0 3103.05 0 0 -3103.05 0 0 3198.71 0 0 -3198.71
0 0 40562.2 0 0 -40562.2 0 0 -1505.35 0 0 1505.35 0 0 26537.5 0 0 -26537.5 0 0 24670.5 0 0 -24670.5 0 0 2792.08 0 0 -2792.08 0 0 2881.57 0 0 -2881.57
0 0 39499.6 0 0 -39499.6 0 0 -1869.94 0 0 1869.94 0 0 26307.6 0 0 -26307.6 0 0 24468.7 0 0 -24468.7 0 0 2495.18 0 0 -2495.18 0 0 2579.03 0 0 -2579.03
0 0 38388 0 0 -38388 0 0 -2201.56 0 0 2201.56 0 0 25990.8 0 0 -25990.8 0 0 24179.3 0 0 -24179.3 0 0 2217.17 0 0 -2217.17 0 0 2295.88 0 0 -2295.88
0 0 37229.6 0 0 -37229.6 0 0 -2449.69 0 0 2449.69 0 0 25577.4 0 0 -25577.4 0 0 23785.8 0 0 -23785.8 0 0 1962.21 0 0 -1962.21 0 0 2036.71 0 0 -2036.71
0 0 36007 0 0 -36007 0 0 -2751.2 0 0 2751.2 0 0 25055.7 0 0 -25055.7 0 0 23282.1 0 0 -23282.1 0 0 1733.87 0 0 -1733.87 0 0 1805.53 0 0 -1805.53
0 0 34702.5 0 0 -34702.5 0 0 -2957.62 0 0 2957.62 0 0 24428.6 0 0 -24428.6 0 0 22682.6 0 0 -22682.6 0 0 1533.92 0 0 -1533.92 0 0 1601.82 0 0 -1601.82
0 0 33352.7 0 0 -33352.7 0 0 -3111.09 0 0 3111.09 0 0 23705.7 0 0 -23705.7 0 0 21982.8 0 0 -21982.8 0 0 1363.07 0 0 -1363.07 0 0 1428.77 0 0 -1428.77
0 0 31952.1 0 0 -31952.1 0 0 -3209.87 0 0 3209.87 0 0 22886.5 0 0 -22886.5 0 0 21185.8 0 0 -21185.8 0 0 1222.29 0 0 -1222.29 0 0 1285.71 0 0 -1285.71
0 0 30492.6 0 0 -30492.6 0 0 -3272.34 0 0 3272.34 0 0 21966.5 0 0 -21966.5 0 0 20286.8 0 0 -20286.8 0 0 1111.51 0 0 -1111.51 0 0 1174.13 0 0 -1174.13
0 0 28973.4 0 0 -28973.4 0 0 -3313.8 0 0 3313.8 0 0 20946.7 0 0 -20946.7 0 0 19291.3 0 0 -19291.3 0 0 1030.06 0 0 -1030.06 0 0 1092.06 0 0 -1092.06
0 0 27410.8 0 0 -27410.8 0 0 -3318.09 0 0 3318.09 0 0 19840.4 0 0 -19840.4 0 0 18208.9 0 0 -18208.9 0 0 975.479 0 0 -975.479 0 0 1037.5 0 0 -1037.5
0 0 25819.3 0 0 -25819.3 0 0 -3314.61 0 0 3314.61 0 0 18664 0 0 -18664 0 0 17056.5 0 0 -17056.5 0 0 944.679 0 0 -944.679 0 0 1007.09 0 0 -1007.09
0 0 24182 0 0 -24182 0 0 -3258.5 0 0 3258.5 0 0 17438.4 0 0 -17438.4 0 0 15876 0 0 -15876 0 0 933.551 0 0 -933.551 0 0 994.581 0 0 -994.581
0 0 22542.5 0 0 -22542.5 0 0 -3162.07 0 0 3162.07 0 0 16181.1 0 0 -16181.1 0 0 14648.6 0 0 -14648.6 0 0 937.845 0 0 -937.845 0 0 999.521 0 0 -999.521
0 0 20860.4 0 0 -20860.4 0 0 -3069.01 0 0 3069.01 0 0 14893.4 0 0 -14893.4 0 0 13397.7 0 0 -13397.7 0 0 954.444 0 0 -954.444 0 0 1015.52 0 0 -1015.52
0 0 19125.5 0 0 -19125.5 0 0 -3010.55 0 0 3010.55 0 0 13589.4 0 0 -13589.4 0 0 12131.4 0 0 -12131.4 0 0 978.329 0 0 -978.329 0 0 1039.9 0 0 -1039.9
0 0 17357.2 0 0 -17357.2 0 0 -2963.5 0 0 2963.5 0 0 12291.5 0 0 -12291.5 0 0 10875.2 0 0 -10875.2 0 0 1004.96 0 0 -1004.96 0 0 1066.31 0 0 -1066.31
0 0 15570.6 0 0 -15570.6 0 0 -2905.33 0 0 2905.33 0 0 11022.5 0 0 -11022.5 0 0 9643.73 0 0 -9643.73 0 0 1029.07 0 0 -1029.07 0 0 1090.1 0 0 -1090.1
0 0 13769 0 0 -13769 0 0 -2865.89 0 0 2865.89 0 0 9794.36 0 0 -9794.36 0 0 8450.35 0 0 -8450.35 0 0 1046.28 0 0 -1046.28 0 0 1106.94 0 0 -1106.94
0 0 11948.9 0 0 -11948.9 0 0 -2864.55 0 0 2864.55 0 0 8614.07 0 0 -8614.07 0 0 7304.66 0 0 -7304.66 0 0 1052.72 0 0 -1052.72 0 0 1112.94 0 0 -1112.94
0 0 10117.6 0 0 -10117.6 0 0 -2902.76 0 0 2902.76 0 0 7491.14 0 0 -7491.14 0 0 6216.87 0 0 -6216.87 0 0 1044.87 0 0 -1044.87 0 0 1104.42 0 0 -1104.42
0 0 8293.7 0 0 -8293.7 0 0 -2975.82 0 0 2975.82 0 0 6438.17 0 0 -6438.17 0 0 5197.59 0 0 -5197.59 0 0 1019.55 0 0 -1019.55 0 0 1077.97 0 0 -1077.97
0 0 6492.46 0 0 -6492.46 0 0 -3076.78 0 0 3076.78 0 0 5464.66 0 0 -5464.66 0 0 4254.13 0 0 -4254.13 0 0 974.152 0 0 -974.152 0 0 1031.04 0 0 -1031.04
0 0 4720.4 0 0 -4720.4 0 0 -3219.8 0 0 3219.8 0 0 4573.81 0 0 -4573.81 0 0 3391.44 0 0 -3391.44 0 0 906.841 0 0 -906.841 0 0 961.89 0 0 -961.89
0 0 2980.33 0 0 -2980.33 0 0 -3402.06 0 0 3402.06 0 0 3767.13 0 0 -3767.13 0 0 2615.72 0 0 -2615.72 0 0 816.422 0 0 -816.422 0 0 868.998 0 0 -868.998
0 0 1289.62 0 0 -1289.62 0 0 -3620.56 0 0 3620.56 0 0 3047.06 0 0 -3047.06 0 0 1926.27 0 0 -1926.27 0 0 702.387 0 0 -702.387 0 0 752.139 0 0 -752.139
0 0 -285.699 0 0 285.699 0 0 -3871.89 0 0 3871.89 0 0 2412.68 0 0 -2412.68 0 0 1322.62 0 0 -1322.62 0 0 565.175 0 0 -565.175 0 0 611.475 0 0 -611.475
0 0 -1337.98 0 0 1337.98 0 0 -4190.11 0 0 4190.11 0 0 1910.08 0 0 -1910.08 0 0 808.327 0 0 -808.327 0 0 401.253 0 0 -401.253 0 0 447.788 0 0 -447.788
0 0 -2331.68 0 0 2331.68 0 0 -4450.24 0 0 4450.24 0 0 1481.54 0 0 -1481.54 0 0 381.645 0 0 -381.645 0 0 219.073 0 0 -219.073 0 0 262.029 0 0 -262.029
0 0 -3291.47 0 0 3291.47 0 0 -4741.03 0 0 4741.03 0 0 1122.59 0 0 -1122.59 0 0 19.3192 0 0 -19.3192 0 0 18.6852 0 0 -18.6852 0 0 59.2616 0 0 -59.2616
0 0 -4258.01 0 0 4258.01 0 0 -5106.93 0 0 5106.93 0 0 817.601 0 0 -817.601 0 0 -288.425 0 0 288.425 0 0 -159.541 0 0 159.541 0 0 -118.739 0 0 118.739
0 0 -5040.73 0 0 5040.73 0 0 -5458.45 0 0 5458.45 0 0 544.277 0 0 -544.277 0 0 -532.644 0 0 532.644 0 0 -332.504 0 0 332.504 0 0 -288.943 0 0 288.943
0 0 -5787.61 0 0 5787.61 0 0 -5780.22 0 0 5780.22 0 0 314.822 0 0 -314.822 0 0 -731.692 0 0 731.692 0 0 -505.967 0 0 505.967 0 0 -475.71 0 0 475.71
0 0 -6471.33 0 0 6471.33 0 0 -6110.36 0 0 6110.36 0 0 115.266 0 0 -115.266 0 0 -920.46 0 0 920.46 0 0 -682.587 0 0 682.587 0 0 -658.091 0 0 658.091
0 0 -7186.61 0 0 7186.61 0 0 -6447.07 0 0 6447.07 0 0 -71.0116 0 0 71.0116 0 0 -1080.42 0 0 1080.42 0 0 -862.252 0 0 862.252 0 0 -840.025 0 0 840.025
0 0 -7915.11 0 0 7915.11 0 0 -6821.99 0 0 6821.99 0 0 -237.452 0 0 237.452 0 0 -1229.56 0 0 1229.56 0 0 -1041.59 0 0 1041.59 0 0 -1016.29 0 0 1016.29
0 0 -8638.31 0 0 8638.31 0 0 -7200.23 0 0 7200.23 0 0 -384.111 0 0 384.111 0 0 -1354.19 0 0 1354.19 0 0 -1215.79 0 0 1215.79 0 0 -1191.26 0 0 1191.26
0 0 -9379.42 0 0 9379.42 0 0 -7542.5 0 0 7542.5 0 0 -520.097 0 0 520.097 0 0 -1471.79 0 0 1471.79 0 0 -1381.21 0 0 1381.21 0 0 -1360.71 0 0 1360.71
0 0 -10165.8 0 0 10165.8 0 0 -7909.71 0 0 7909.71 0 0 -664.048 0 0 664.048 0 0 -1596.16 0 0 1596.16 0 0 -1536.09 0 0 1536.09 0 0 -1521.09 0 0 1521.09
0 0 -11012.7 0 0 11012.7 0 0 -8300.32 0 0 8300.32 0 0 -828.256 0 0 828.256 0 0 -1737.58 0 0 1737.58 0 0 -1679.01 0 0 1679.01 0 0 -1667.97 0 0 1667.97
0 0 -11914 0 0 11914 0 0 -8683.98 0 0 8683.98 0 0 -1017.13 0 0 1017.13 0 0 -1904.37 0 0 1904.37 0 0 -1808.11 0 0 1808.11 0 0 -1798.4 0 0 1798.4
0 0 -12865.1 0 0 12865.1 0 0 -9052.06 0 0 9052.06 0 0 -1236.55 0 0 1236.55 0 0 -2104.23 0 0 2104.23 0 0 -1920.43 0 0 1920.43 0 0 -1911.74 0 0 1911.74
0 0 -13876.8 0 0 13876.8 0 0 -9407.61 0 0 9407.61 0 0 -1497.94 0 0 1497.94 0 0 -2348.31 0 0 2348.31 0 0 -2013.24 0 0 2013.24 0 0 -2006.54 0 0 2006.54
0 0 -14961.3 0 0 14961.3 0 0 -9757.93 0 0 9757.93 0 0 -1814.43 0 0 1814.43 0 0 -2647.45 0 0 2647.45 0 0 -2084.96 0 0 2084.96 0 0 -2081.31 0 0 2081.31
0 0 -16118.5 0 0 16118.5 0 0 -10098.5 0 0 10098.5 0 0 -2194.88 0 0 2194.88 0 0 -3010.5 0 0 3010.5 0 0 -2135.21 0 0 2135.21 0 0 -2134.36 0 0 2134.36
0 0 -17338.3 0 0 17338.3 0 0 -10414.2 0 0 10414.2 0 0 -2644.6 0 0 2644.6 0 0 -3445.17 0 0 3445.17 0 0 -2163.85 0 0 2163.85 0 0 -2164.61 0 0 2164.61
0 0 -18611.6 0 0 18611.6 0 0 -10697.4 0 0 10697.4 0 0 -3169.51 0 0 3169.51 0 0 -3957.98 0 0 3957.98 0 0 -2168.86 0 0 2168.86 0 0 -2171.13 0 0 2171.13
0 0 -19934.2 0 0 19934.2 0 0 -10947.1 0 0 10947.1 0 0 -3774.9 0 0 3774.9 0 0 -4554.31 0 0 4554.31 0 0 -2145.09 0 0 2145.09 0 0 -2146.87 0 0 2146.87
0 0 -21300.9 0 0 21300.9 0 0 -11163.4 0 0 11163.4 0 0 -4467.33 0 0 4467.33 0 0 -5239.78 0 0 5239.78 0 0 -2091.88 0 0 2091.88 0 0 -2093.45 0 0 2093.45
0 0 -22700.5 0 0 22700.5 0 0 -11343.5 0 0 11343.5 0 0 -5248.34 0 0 5248.34 0 0 -6015.3 0 0 6015.3 0 0 -2011.51 0 0 2011.51 0 0 -2012.98 0 0 2012.98
0 0 -24119.1 0 0 24119.1 0 0 -11472 0 0 11472 0 0 -6115.53 0 0 6115.53 0 0 -6881.43 0 0 6881.43 0 0 -1907.39 0 0 1907.39 0 0 -1907.92 0 0 1907.92
0 0 -25504.1 0 0 25504.1 0 0 -13313.9 0 0 13313.9 0 0 -7072.44 0 0 7072.44 0 0 -8009.89 0 0 8009.89 0 0 -1780.68 0 0 1780.68 0 0 -1768.79 0 0 1768.79
0 0 -27450.1 0 0 27450.1 0 0 -15805.4 0 0 15805.4 0 0 -8462.95 0 0 8462.95 0 0 -9328.37 0 0 9328.37 0 0 -1613.89 0 0 1613.89 0 0 -1591.02 0 0 1591.02
0 0 -29583.3 0 0 29583.3 0 0 -18227.5 0 0 18227.5 0 0 -9906.05 0 0 9906.05 0 0 -10871.3 0 0 10871.3 0 0 -1444.81 0 0 1444.81 0 0 -1416.27 0 0 1416.27
0 0 -31138.4 0 0 31138.4 0 0 -20851.5 0 0 20851.5 0 0 -11233.3 0 0 11233.3 0 0 -12288 0 0 12288 0 0 -1285.3 0 0 1285.3 0 0 -1233.85 0 0 1233.85
0 0 -32663 0 0 32663 0 0 -23382.1 0 0 23382.1 0 0 -12559.9 0 0 12559.9 0 0 -13763.9 0 0 13763.9 0 0 -1132.83 0 0 1132.83 0 0 -1066.32 0 0 1066.32
0 0 -34521.2 0 0 34521.2 0 0 -25763.4 0 0 25763.4 0 0 -13990.8 0 0 13990.8 0 0 -15241.3 0 0 15241.3 0 0 -990.194 0 0 990.194 0 0 -915.89 0 0 915.89
0 0 -36302.3 0 0 36302.3 0 0 -28125 0 0 28125 0 0 -15395.4 0 0 15395.4 0 0 -16697.1 0 0 16697.1 0 0 -872.156 0 0 872.156 0 0 -789.649 0 0 789.649
0 0 -37811.9 0 0 37811.9 0 0 -30448 0 0 30448 0 0 -16696.1 0 0 16696.1 0 0 -18096.8 0 0 18096.8 0 0 -788.976 0 0 788.976 0 0 -691.359 0 0 691.359
0 0 -39297.6 0 0 39297.6 0 0 -32667.6 0 0 32667.6 0 0 -17945.2 0 0 17945.2 0 0 -19433 0 0 19433 0 0 -740.837 0 0 740.837 0 0 -630.794 0 0 630.794
0 0 -40834.9 0 0 40834.9 0 0 -34766 0 0 34766 0 0 -19153.8 0 0 19153.8 0 0 -20696.2 0 0 20696.2 0 0 -731.965 0 0 731.965 0 0 -613.826 0 0 613.826
0 0 -42252.8 0 0 42252.8 0 0 -36758.6 0 0 36758.6 0 0 -20264.8 0 0 20264.8 0 0 -21860.7 0 0 21860.7 0 0 -770.194 0 0 770.194 0 0 -645.285 0 0 645.285
0 0 -43507.7 0 0 43507.7 0 0 -38643.3 0 0 38643.3 0 0 -21256.6 0 0 21256.6 0 0 -22914.1 0 0 22914.1 0 0 -859.465 0 0 859.465 0 0 -727.778 0 0 727.778
0 0 -44694.9 0 0 44694.9 0 0 -40394.4 0 0 40394.4 0 0 -22149.5 0 0 22149.5 0 0 -23854.2 0 0 23854.2 0 0 -999.289 0 0 999.289 0 0 -862.914 0 0 862.914
0 0 -45824.2 0 0 45824.2 0 0 -42004.5 0 0 42004.5 0 0 -22943.2 0 0 22943.2 0 0 -24677.2 0 0 24677.2 0 0 -1189.66 0 0 1189.66 0 0 -1051.19 0 0 1051.19
0 0 -46833.1 0 0 46833.1 0 0 -43483.2 0 0 43483.2 0 0 -23618.9 0 0 23618.9 0 0 -25379.8 0 0 25379.8 0 0 -1431.08 0 0 1431.08 0 0 -1291.9 0 0 1291.9
0 0 -47721 0 0 47721 0 0 -44835.3 0 0 44835.3 0 0 -24178.3 0 0 24178.3 0 0 -25963.6 0 0 25963.6 0 0 -1721.76 0 0 1721.76 0 0 -1582.99 0 0 1582.99
0 0 -48529.7 0 0 48529.7 0 0 -46059.2 0 0 46059.2 0 0 -24637.6 0 0 24637.6 0 0 -26435.2 0 0 26435.2 0 0 -2057.7 0 0 2057.7 0 0 -1921.05 0 0 1921.05
0 0 -49263.2 0 0 49263.2 0 0 -47161.1 0 0 47161.1 0 0 -25002.6 0 0 25002.6 0 0 -26803.6 0 0 26803.6 0 0 -2413.26 0 0 2413.26 0 0 -2298.07 0 0 2298.07
0 0 -49912.4 0 0 49912.4 0 0 -48163 0 0 48163 0 0 -25244.5 0 0 25244.5 0 0 -27050.4 0 0 27050.4 0 0 -2730.5 0 0 2730.5 0 0 -2611.8 0 0 2611.8
0 0 -50481.3 0 0 50481.3 0 0 -49075 0 0 49075 0 0 -25415.6 0 0 25415.6 0 0 -27215.6 0 0 27215.6 0 0 -3056.18 0 0 3056.18 0 0 -2944.53 0 0 2944.53
0 0 -2750.25 0 0 2750.25 0 0 -42776.2 0 0 42776.2 0 0 -23591.6 0 0 23591.6 0 0 -26010.4 0 0 26010.4 0 0 -3426.27 0 0 3426.27 0 0 -3356.72 0 0 3356.72
0 0 -1765 0 0 1765 0 0 -39610.3 0 0 39610.3 0 0 -24448.1 0 0 24448.1 0 0 -25597.2 0 0 25597.2 0 0 -3767.81 0 0 3767.81 0 0 -3836.56 0 0 3836.56
0 0 -1654.16 0 0 1654.16 0 0 -40775.6 0 0 40775.6 0 0 -22779.5 0 0 22779.5 0 0 -25187.8 0 0 25187.8 0 0 -4324.15 0 0 4324.15 0 0 -4068.2 0 0 4068.2
0 0 971.927 0 0 -971.927 0 0 -43190.9 0 0 43190.9 0 0 -22016.2 0 0 22016.2 0 0 -25228.1 0 0 25228.1 0 0 -4617.21 0 0 4617.21 0 0 -4474.89 0 0 4474.89
0 0 87.6608 0 0 -87.6608 0 0 -43814.7 0 0 43814.7 0 0 -22428.4 0 0 22428.4 0 0 -25217.8 0 0 25217.8 0 0 -4943.48 0 0 4943.48 0 0 -4754.96 0 0 4754.96
0 0 -838.528 0 0 838.528 0 0 -43820.9 0 0 43820.9 0 0 -23156.1 0 0 23156.1 0 0 -25513.2 0 0 25513.2 0 0 -5177.45 0 0 5177.45 0 0 -5034.6 0 0 5034.6
0 0 -657.565 0 0 657.565 0 0 -44783.4 0 0 44783.4 0 0 -23204 0 0 23204 0 0 -25868.2 0 0 25868.2 0 0 -5400.65 0 0 5400.65 0 0 -5258.7 0 0 5258.7
0 0 -349.232 0 0 349.232 0 0 -46227.8 0 0 46227.8 0 0 -23215.8 0 0 23215.8 0 0 -26301.4 0 0 26301.4 0 0 -5618.5 0 0 5618.5 0 0 -5446.02 0 0 5446.02
0 0 -313.194 0 0 313.194 0 0 -47112.8 0 0 47112.8 0 0 -23760.2 0 0 23760.2 0 0 -26734.2 0 0 26734.2 0 0 -5811.08 0 0 5811.08 0 0 -5619.28 0 0 5619.28
0 0 -388.488 0 0 388.488 0 0 -47848.1 0 0 47848.1 0 0 -24503 0 0 24503 0 0 -27246.2 0 0 27246.2 0 0 -5957.01 0 0 5957.01 0 0 -5765.6 0 0 5765.6
0 0 -348.585 0 0 348.585 0 0 -49051.4 0 0 49051.4 0 0 -25066.1 0 0 25066.1 0 0 -27914.8 0 0 27914.8 0 0 -6049.92 0 0 6049.92 0 0 -5871.56 0 0 5871.56
0 0 2213.52 0 0 -2213.52 0 0 -49911.7 0 0 49911.7 0 0 -9322.04 0 0 9322.04 0 0 -26000 0 0 26000 0 0 -5869.09 0 0 5869.09 0 0 -5726.46 0 0 5726.46
0 0 131.557 0 0 -131.557 0 0 -50238.6 0 0 50238.6 0 0 -8237.29 0 0 8237.29 0 0 -25205.2 0 0 25205.2 0 0 -5741.65 0 0 5741.65 0 0 -5633.87 0 0 5633.87
0 0 273.935 0 0 -273.935 0 0 -51424.8 0 0 51424.8 0 0 -7740.54 0 0 7740.54 0 0 -25786.8 0 0 25786.8 0 0 -5477.34 0 0 5477.34 0 0 -5429.9 0 0 5429.9
0 0 273.477 0 0 -273.477 0 0 -53300.9 0 0 53300.9 0 0 -7056.31 0 0 7056.31 0 0 -27095.7 0 0 27095.7 0 0 -5395.05 0 0 5395.05 0 0 -5339.61 0 0 5339.61
0 0 153.564 0 0 -153.564 0 0 -54863.4 0 0 54863.4 0 0 -6340.61 0 0 6340.61 0 0 -28679.6 0 0 28679.6 0 0 -5113.48 0 0 5113.48 0 0 -5140.53 0 0 5140.53
0 0 -3.45891 0 0 3.45891 0 0 -56128.7 0 0 56128.7 0 0 -5573.09 0 0 5573.09 0 0 -29761.7 0 0 29761.7 0 0 -4898.29 0 0 4898.29 0 0 -4960.16 0 0 4960.16
0 0 -94.333 0 0 94.333 0 0 -57620.6 0 0 57620.6 0 0 -5032.19 0 0 5032.19 0 0 -30574.7 0 0 30574.7 0 0 -4753.67 0 0 4753.67 0 0 -4746.23 0 0 4746.23
0 0 -189.885 0 0 189.885 0 0 -57998.7 0 0 57998.7 0 0 -4509.26 0 0 4509.26 0 0 -31463.4 0 0 31463.4 0 0 -4546.37 0 0 4546.37 0 0 -4530.71 0 0 4530.71
0 0 -364.453 0 0 364.453 0 0 -57612.4 0 0 57612.4 0 0 -3844.24 0 0 3844.24 0 0 -32772.1 0 0 32772.1 0 0 -4268.67 0 0 4268.67 0 0 -4321.26 0 0 4321.26
0 0 -571.104 0 0 571.104 0 0 -57677.3 0 0 57677.3 0 0 -3071.13 0 0 3071.13 0 0 -34193.5 0 0 34193.5 0 0 -3958.01 0 0 3958.01 0 0 -4078.42 0 0 4078.42
0 0 -755.217 0 0 755.217 0 0 -57506.6 0 0 57506.6 0 0 -2533.17 0 0 2533.17 0 0 -35306.4 0 0 35306.4 0 0 -3737.5 0 0 3737.5 0 0 -3857.29 0 0 3857.29
0 0 -922.137 0 0 922.137 0 0 -57700.4 0 0 57700.4 0 0 -2132.69 0 0 2132.69 0 0 -35174.5 0 0 35174.5 0 0 -3615.05 0 0 3615.05 0 0 -3754.03 0 0 3754.03
0 0 -1095.64 0 0 1095.64 0 0 -57866.4 0 0 57866.4 0 0 -1588.09 0 0 1588.09 0 0 -35110.6 0 0 35110.6 0 0 -3470.7 0 0 3470.7 0 0 -3665.75 0 0 3665.75
0 0 -1290.74 0 0 1290.74 0 0 -57820.1 0 0 57820.1 0 0 -990.397 0 0 990.397 0 0 -35207.7 0 0 35207.7 0 0 -3309.58 0 0 3309.58 0 0 -3636.32 0 0 3636.32
0 0 -1491.75 0 0 1491.75 0 0 -57984.5 0 0 57984.5 0 0 -490.096 0 0 490.096 0 0 -35337.7 0 0 35337.7 0 0 -3206.8 0 0 3206.8 0 0 -3624.12 0 0 3624.12
0 0 -1669.08 0 0 1669.08 0 0 -58018.4 0 0 58018.4 0 0 -139.024 0 0 139.024 0 0 -35495.8 0 0 35495.8 0 0 -3180.07 0 0 3180.07 0 0 -3641.96 0 0 3641.96
0 0 -1831.56 0 0 1831.56 0 0 -58107.8 0 0 58107.8 0 0 153.554 0 0 -153.554 0 0 -35691.3 0 0 35691.3 0 0 -3202.21 0 0 3202.21 0 0 -3693.29 0 0 3693.29
0 0 -1988.37 0 0 1988.37 0 0 -58173.7 0 0 58173.7 0 0 432.791 0 0 -432.791 0 0 -35983.2 0 0 35983.2 0 0 -3253.74 0 0 3253.74 0 0 -3796.66 0 0 3796.66
0 0 -2128.62 0 0 2128.62 0 0 -58223.5 0 0 58223.5 0 0 703.605 0 0 -703.605 0 0 -36369.9 0 0 36369.9 0 0 -3340.4 0 0 3340.4 0 0 -3952.94 0 0 3952.94
0 0 -2242.24 0 0 2242.24 0 0 -58289.5 0 0 58289.5 0 0 961.776 0 0 -961.776 0 0 -36741.2 0 0 36741.2 0 0 -3485.28 0 0 3485.28 0 0 -4150.79 0 0 4150.79
0 0 -2335.7 0 0 2335.7 0 0 -58325.3 0 0 58325.3 0 0 1147.81 0 0 -1147.81 0 0 -36765.7 0 0 36765.7 0 0 -3682.87 0 0 3682.87 0 0 -4337.98 0 0 4337.98
0 0 -2408.89 0 0 2408.89 0 0 -58355.4 0 0 58355.4 0 0 1275.51 0 0 -1275.51 0 0 -36399.8 0 0 36399.8 0 0 -3908.45 0 0 3908.45 0 0 -4537.75 0 0 4537.75
0 0 -2457.47 0 0 2457.47 0 0 -58511.1 0 0 58511.1 0 0 1346.69 0 0 -1346.69 0 0 -36344.7 0 0 36344.7 0 0 -4185.81 0 0 4185.81 0 0 -4816.23 0 0 4816.23
0 0 -2481.95 0 0 2481.95 0 0 -58459.8 0 0 58459.8 0 0 1364.52 0 0 -1364.52 0 0 -36534.8 0 0 36534.8 0 0 -4525.92 0 0 4525.92 0 0 -5163.8 0 0 5163.8
0 0 -2485.55 0 0 2485.55 0 0 -58529.1 0 0 58529.1 0 0 1326.18 0 0 -1326.18 0 0 -36560.8 0 0 36560.8 0 0 -4924.03 0 0 4924.03 0 0 -5555.89 0 0 5555.89
0 0 -2462.51 0 0 2462.51 0 0 -58643.2 0 0 58643.2 0 0 1220.61 0 0 -1220.61 0 0 -36545.2 0 0 36545.2 0 0 -5384.74 0 0 5384.74 0 0 -5996.69 0 0 5996.69
0 0 -2413.75 0 0 2413.75 0 0 -58695 0 0 58695 0 0 1034.82 0 0 -1034.82 0 0 -36665.4 0 0 36665.4 0 0 -5884.86 0 0 5884.86 0 0 -6481.72 0 0 6481.72
0 0 -2345.01 0 0 2345.01 0 0 -58774.3 0 0 58774.3 0 0 809.162 0 0 -809.162 0 0 -36765.5 0 0 36765.5 0 0 -6401.58 0 0 6401.58 0 0 -6896.51 0 0 6896.51
0 0 -2255.62 0 0 2255.62 0 0 -58867.7 0 0 58867.7 0 0 545.85 0 0 -545.85 0 0 -36880.6 0 0 36880.6 0 0 -6895.53 0 0 6895.53 0 0 -7317.4 0 0 7317.4
0 0 -2151.84 0 0 2151.84 0 0 -58981.6 0 0 58981.6 0 0 268.024 0 0 -268.024 0 0 -36911.3 0 0 36911.3 0 0 -7244.25 0 0 7244.25 0 0 -7203.86 0 0 7203.86
0 0 -2027.66 0 0 2027.66 0 0 -59020.4 0 0 59020.4 0 0 -0.282818 0 0 0.282818 0 0 -37182.1 0 0 37182.1 0 0 -7577.98 0 0 7577.98 0 0 -7137.7 0 0 7137.7
0 0 -1894.8 0 0 1894.8 0 0 -59089.8 0 0 59089.8 0 0 -225.222 0 0 225.222 0 0 -37312.8 0 0 37312.8 0 0 -7713.44 0 0 7713.44 0 0 -7104.52 0 0 7104.52
0 0 -1753.18 0 0 1753.18 0 0 -59139.2 0 0 59139.2 0 0 -348.677 0 0 348.677 0 0 -37392.2 0 0 37392.2 0 0 -7704.7 0 0 7704.7 0 0 -7053.21 0 0 7053.21
0 0 -1607.86 0 0 1607.86 0 0 -59155.4 0 0 59155.4 0 0 -461.186 0 0 461.186 0 0 -37436.9 0 0 37436.9 0 0 -7654.19 0 0 7654.19 0 0 -7025.75 0 0 7025.75
0 0 -1466.93 0 0 1466.93 0 0 -59121.1 0 0 59121.1 0 0 -558.023 0 0 558.023 0 0 -37466.5 0 0 37466.5 0 0 -7608.36 0 0 7608.36 0 0 -6995.56 0 0 6995.56
0 0 -1336.11 0 0 1336.11 0 0 -59042.2 0 0 59042.2 0 0 -679.081 0 0 679.081 0 0 -37509.1 0 0 37509.1 0 0 -7595.32 0 0 7595.32 0 0 -6947.81 0 0 6947.81
0 0 -1220.72 0 0 1220.72 0 0 -58925.8 0 0 58925.8 0 0 -858.34 0 0 858.34 0 0 -37581.8 0 0 37581.8 0 0 -7605.54 0 0 7605.54 0 0 -6898.42 0 0 6898.42
0 0 -1081.42 0 0 1081.42 0 0 -58769.2 0 0 58769.2 0 0 -1068.93 0 0 1068.93 0 0 -37689.4 0 0 37689.4 0 0 -7608.12 0 0 7608.12 0 0 -6853.01 0 0 6853.01
0 0 -910.142 0 0 910.142 0 0 -58569.6 0 0 58569.6 0 0 -1280.02 0 0 1280.02 0 0 -37831.9 0 0 37831.9 0 0 -7588.36 0 0 7588.36 0 0 -6819.32 0 0 6819.32
0 0 -709.664 0 0 709.664 0 0 -58332.3 0 0 58332.3 0 0 -1478.57 0 0 1478.57 0 0 -38012.9 0 0 38012.9 0 0 -7558.67 0 0 7558.67 0 0 -6793.48 0 0 6793.48
0 0 -486.848 0 0 486.848 0 0 -58067.9 0 0 58067.9 0 0 -1698.58 0 0 1698.58 0 0 -38244.9 0 0 38244.9 0 0 -7540.63 0 0 7540.63 0 0 -6768.01 0 0 6768.01
0 0 -244.818 0 0 244.818 0 0 -57786.5 0 0 57786.5 0 0 -1944.29 0 0 1944.29 0 0 -38535.8 0 0 38535.8 0 0 -7541.28 0 0 7541.28 0 0 -6740.61 0 0 6740.61
0 0 13.2821 0 0 -13.2821 0 0 -57468.1 0 0 57468.1 0 0 -2189.24 0 0 2189.24 0 0 -38735.8 0 0 38735.8 0 0 -7550.5 0 0 7550.5 0 0 -6709.84 0 0 6709.84
0 0 299.903 0 0 -299.903 0 0 -57072 0 0 57072 0 0 -2437.26 0 0 2437.26 0 0 -38674.4 0 0 38674.4 0 0 -7555.57 0 0 7555.57 0 0 -6701.51 0 0 6701.51
0 0 574.756 0 0 -574.756 0 0 -56670.8 0 0 56670.8 0 0 -2696.63 0 0 2696.63 0 0 -38670.8 0 0 38670.8 0 0 -7551.14 0 0 7551.14 0 0 -6708.1 0 0 6708.1
0 0 786.085 0 0 -786.085 0 0 -56271.6 0 0 56271.6 0 0 -2978.33 0 0 2978.33 0 0 -38706.2 0 0 38706.2 0 0 -7545.23 0 0 7545.23 0 0 -6696.63 0 0 6696.63
0 0 984.125 0 0 -984.125 0 0 -55824.7 0 0 55824.7 0 0 -2909.15 0 0 2909.15 0 0 -38668.6 0 0 38668.6 0 0 -7552.67 0 0 7552.67 0 0 -6706.61 0 0 6706.61
0 0 1078.49 0 0 -1078.49 0 0 -55355.1 0 0 55355.1 0 0 -2774.75 0 0 2774.75 0 0 -38601 0 0 38601 0 0 -7572.76 0 0 7572.76 0 0 -6718.49 0 0 6718.49
0 0 1075.53 0 0 -1075.53 0 0 -54891.9 0 0 54891.9 0 0 -2605.99 0 0 2605.99 0 0 -38547.1 0 0 38547.1 0 0 -7597.09 0 0 7597.09 0 0 -6726.96 0 0 6726.96
0 0 1028.49 0 0 -1028.49 0 0 -54415.2 0 0 54415.2 0 0 -2400.5 0 0 2400.5 0 0 -38462.6 0 0 38462.6 0 0 -7616.5 0 0 7616.5 0 0 -6741.15 0 0 6741.15
0 0 958.076 0 0 -958.076 0 0 -53898.8 0 0 53898.8 0 0 -2160.82 0 0 2160.82 0 0 -38353.3 0 0 38353.3 0 0 -7598.47 0 0 7598.47 0 0 -6718.79 0 0 6718.79
0 0 878.935 0 0 -878.935 0 0 -53353.8 0 0 53353.8 0 0 -1897.39 0 0 1897.39 0 0 -38267.2 0 0 38267.2 0 0 -7548.17 0 0 7548.17 0 0 -6661.39 0 0 6661.39
0 0 800.762 0 0 -800.762 0 0 -52781.8 0 0 52781.8 0 0 -1621.73 0 0 1621.73 0 0 -38161.8 0 0 38161.8 0 0 -7470.95 0 0 7470.95 0 0 -6572.84 0 0 6572.84
0 0 726.167 0 0 -726.167 0 0 -52182.3 0 0 52182.3 0 0 -1339.42 0 0 1339.42 0 0 -38037.8 0 0 38037.8 0 0 -7369.75 0 0 7369.75 0 0 -6459.46 0 0 6459.46
0 0 637.37 0 0 -637.37 0 0 -51398.4 0 0 51398.4 0 0 -984.341 0 0 984.341 0 0 -37901.6 0 0 37901.6 0 0 -7215.11 0 0 7215.11 0 0 -6294.11 0 0 6294.11
0 0 561.185 0 0 -561.185 0 0 -50589.4 0 0 50589.4 0 0 -678.258 0 0 678.258 0 0 -37772.7 0 0 37772.7 0 0 -7046.52 0 0 7046.52 0 0 -6114.92 0 0 6114.92
0 0 505.974 0 0 -505.974 0 0 -49758.2 0 0 49758.2 0 0 -404.95 0 0 404.95 0 0 -37651 0 0 37651 0 0 -6868.43 0 0 6868.43 0 0 -5930.7 0 0 5930.7
0 0 471.648 0 0 -471.648 0 0 -48911.4 0 0 48911.4 0 0 -170.304 0 0 170.304 0 0 -37555.2 0 0 37555.2 0 0 -6697.33 0 0 6697.33 0 0 -5752.39 0 0 5752.39
0 0 465.362 0 0 -465.362 0 0 -48031.5 0 0 48031.5 0 0 16.3104 0 0 -16.3104 0 0 -37474.6 0 0 37474.6 0 0 -6536.12 0 0 6536.12 0 0 -5587.71 0 0 5587.71
0 0 492.217 0 0 -492.217 0 0 -47087.3 0 0 47087.3 0 0 186.221 0 0 -186.221 0 0 -37326.7 0 0 37326.7 0 0 -6388.91 0 0 6388.91 0 0 -5438.64 0 0 5438.64
0 0 568.678 0 0 -568.678 0 0 -46030.2 0 0 46030.2 0 0 493.722 0 0 -493.722 0 0 -36953.8 0 0 36953.8 0 0 -6247.94 0 0 6247.94 0 0 -5300.35 0 0 5300.35
0 0 695.571 0 0 -695.571 0 0 -44842.5 0 0 44842.5 0 0 957.558 0 0 -957.558 0 0 -36361.4 0 0 36361.4 0 0 -6119.93 0 0 6119.93 0 0 -5173 0 0 5173
0 0 855.437 0 0 -855.437 0 0 -43529.5 0 0 43529.5 0 0 1350.01 0 0 -1350.01 0 0 -35578 0 0 35578 0 0 -6008.19 0 0 6008.19 0 0 -5061.82 0 0 5061.82
0 0 1012.92 0 0 -1012.92 0 0 -42137.6 0 0 42137.6 0 0 1387.32 0 0 -1387.32 0 0 -34714.1 0 0 34714.1 0 0 -5929.62 0 0 5929.62 0 0 -4976.62 0 0 4976.62
0 0 1200.38 0 0 -1200.38 0 0 -40624.1 0 0 40624.1 0 0 1378.55 0 0 -1378.55 0 0 -33715 0 0 33715 0 0 -5855.13 0 0 5855.13 0 0 -4902.57 0 0 4902.57
0 0 1414.45 0 0 -1414.45 0 0 -38966.8 0 0 38966.8 0 0 1344.95 0 0 -1344.95 0 0 -32557.8 0 0 32557.8 0 0 -5791.59 0 0 5791.59 0 0 -4834.8 0 0 4834.8
0 0 1656.34 0 0 -1656.34 0 0 -37158.2 0 0 37158.2 0 0 1281.33 0 0 -1281.33 0 0 -31250 0 0 31250 0 0 -5732.35 0 0 5732.35 0 0 -4766.99 0 0 4766.99
0 0 1916.62 0 0 -1916.62 0 0 -35204.1 0 0 35204.1 0 0 1167.56 0 0 -1167.56 0 0 -29846.2 0 0 29846.2 0 0 -5666.15 0 0 5666.15 0 0 -4693.84 0 0 4693.84
0 0 2192.4 0 0 -2192.4 0 0 -33111.3 0 0 33111.3 0 0 1059.8 0 0 -1059.8 0 0 -28356.8 0 0 28356.8 0 0 -5581.49 0 0 5581.49 0 0 -4605.24 0 0 4605.24
0 0 2478.99 0 0 -2478.99 0 0 -30897.6 0 0 30897.6 0 0 955.609 0 0 -955.609 0 0 -26777.8 0 0 26777.8 0 0 -5477.17 0 0 5477.17 0 0 -4493.31 0 0 4493.31
0 0 2773.11 0 0 -2773.11 0 0 -28592.7 0 0 28592.7 0 0 859.232 0 0 -859.232 0 0 -25121.6 0 0 25121.6 0 0 -5345.18 0 0 5345.18 0 0 -4351.04 0 0 4351.04
0 0 3068.58 0 0 -3068.58 0 0 -26226.7 0 0 26226.7 0 0 783.271 0 0 -783.271 0 0 -23417.9 0 0 23417.9 0 0 -5174.46 0 0 5174.46 0 0 -4171.99 0 0 4171.99
0 0 3360.02 0 0 -3360.02 0 0 -23828.2 0 0 23828.2 0 0 733.543 0 0 -733.543 0 0 -21682.8 0 0 21682.8 0 0 -4959.25 0 0 4959.25 0 0 -3949.37 0 0 3949.37
0 0 3644.4 0 0 -3644.4 0 0 -21428.7 0 0 21428.7 0 0 708.879 0 0 -708.879 0 0 -19920.3 0 0 19920.3 0 0 -4697.37 0 0 4697.37 0 0 -3677.53 0 0 3677.53
0 0 3918.12 0 0 -3918.12 0 0 -19062 0 0 19062 0 0 711.24 0 0 -711.24 0 0 -18142.4 0 0 18142.4 0 0 -4384.41 0 0 4384.41 0 0 -3352.89 0 0 3352.89
0 0 4176.89 0 0 -4176.89 0 0 -16758.7 0 0 16758.7 0 0 745.472 0 0 -745.472 0 0 -16366.8 0 0 16366.8 0 0 -4015.65 0 0 4015.65 0 0 -2973.3 0 0 2973.3
0 0 4417.9 0 0 -4417.9 0 0 -14541.2 0 0 14541.2 0 0 813.486 0 0 -813.486 0 0 -14605.2 0 0 14605.2 0 0 -3590.19 0 0 3590.19 0 0 -2537.22 0 0 2537.22
0 0 4639 0 0 -4639 0 0 -12427.5 0 0 12427.5 0 0 915.338 0 0 -915.338 0 0 -12865.4 0 0 12865.4 0 0 -3109.54 0 0 3109.54 0 0 -2044.34 0 0 2044.34
0 0 4841.26 0 0 -4841.26 0 0 -10519 0 0 10519 0 0 1054 0 0 -1054 0 0 -11167.3 0 0 11167.3 0 0 -2574.5 0 0 2574.5 0 0 -1495.46 0 0 1495.46
0 0 5010.58 0 0 -5010.58 0 0 -8888.27 0 0 8888.27 0 0 1235.35 0 0 -1235.35 0 0 -9528.55 0 0 9528.55 0 0 -1984.92 0 0 1984.92 0 0 -892.308 0 0 892.308
0 0 5149.58 0 0 -5149.58 0 0 -7300.41 0 0 7300.41 0 0 1451.93 0 0 -1451.93 0 0 -8080.27 0 0 8080.27 0 0 -1345.6 0 0 1345.6 0 0 -233.167 0 0 233.167
0 0 5288.32 0 0 -5288.32 0 0 -5756.54 0 0 5756.54 0 0 1689.24 0 0 -1689.24 0 0 -6662.74 0 0 6662.74 0 0 -694.323 0 0 694.323 0 0 430.926 0 0 -430.926
0 0 5419.56 0 0 -5419.56 0 0 -4307.89 0 0 4307.89 0 0 1938.67 0 0 -1938.67 0 0 -5379.77 0 0 5379.77 0 0 -137.612 0 0 137.612 0 0 636.717 0 0 -636.717
0 0 5523.05 0 0 -5523.05 0 0 -3220.34 0 0 3220.34 0 0 2195.2 0 0 -2195.2 0 0 -4115.9 0 0 4115.9 0 0 201.876 0 0 -201.876 0 0 908.419 0 0 -908.419
0 0 5608.08 0 0 -5608.08 0 0 -2401.86 0 0 2401.86 0 0 2471.27 0 0 -2471.27 0 0 -2919.78 0 0 2919.78 0 0 461.129 0 0 -461.129 0 0 1154.15 0 0 -1154.15
0 0 5679.24 0 0 -5679.24 0 0 -1865.67 0 0 1865.67 0 0 2757.82 0 0 -2757.82 0 0 -1756.07 0 0 1756.07 0 0 716.985 0 0 -716.985 0 0 1400.34 0 0 -1400.34
0 0 5742.12 0 0 -5742.12 0 0 -1542.01 0 0 1542.01 0 0 3032.81 0 0 -3032.81 0 0 -643.948 0 0 643.948 0 0 997.78 0 0 -997.78 0 0 1653.15 0 0 -1653.15
0 0 5807.68 0 0 -5807.68 0 0 -1227.36 0 0 1227.36 0 0 3307.57 0 0 -3307.57 0 0 431.307 0 0 -431.307 0 0 1290.38 0 0 -1290.38 0 0 1884.66 0 0 -1884.66
0 0 5868.47 0 0 -5868.47 0 0 -948.075 0 0 948.075 0 0 3577.19 0 0 -3577.19 0 0 1146.15 0 0 -1146.15 0 0 1561.2 0 0 -1561.2 0 0 2121.91 0 0 -2121.91
0 0 5933.47 0 0 -5933.47 0 0 -683.208 0 0 683.208 0 0 3839.44 0 0 -3839.44 0 0 1974.52 0 0 -1974.52 0 0 1805.88 0 0 -1805.88 0 0 2351.43 0 0 -2351.43
0 0 6000.08 0 0 -6000.08 0 0 -459.385 0 0 459.385 0 0 4092.82 0 0 -4092.82 0 0 2761.39 0 0 -2761.39 0 0 2048.44 0 0 -2048.44 0 0 2570.49 0 0 -2570.49
0 0 6072.17 0 0 -6072.17 0 0 -224.964 0 0 224.964 0 0 4333 0 0 -4333 0 0 3531.15 0 0 -3531.15 0 0 2291.47 0 0 -2291.47 0 0 2777.33 0 0 -2777.33
