-0.0578824 -2.91298e-05 -0.137874 -4.33533e-05 -0.0446652 -8.01836e-06
-0.0585605 -2.94711e-05 -0.137673 -4.32899e-05 -0.0447297 -8.02994e-06
-0.0601053 -3.02485e-05 -0.13723 -4.31507e-05 -0.0448413 -8.04996e-06
-0.0632782 -3.18453e-05 -0.136387 -4.28856e-05 -0.0449968 -8.07788e-06
-0.0668597 -3.36477e-05 -0.135559 -4.26254e-05 -0.04509 -8.09462e-06
-0.071435 -3.59503e-05 -0.134681 -4.23492e-05 -0.0450993 -8.09629e-06
-0.0770622 -3.87822e-05 -0.133838 -4.2084e-05 -0.044953 -8.07003e-06
-0.0838017 -4.21739e-05 -0.133131 -4.1862e-05 -0.0445742 -8.00201e-06
-0.0917211 -4.61594e-05 -0.132685 -4.17215e-05 -0.0438929 -7.87971e-06
-0.100891 -5.07742e-05 -0.132635 -4.17058e-05 -0.0428445 -7.69149e-06
-0.11137 -5.6048e-05 -0.13313 -4.18615e-05 -0.0413628 -7.42551e-06
-0.123171 -6.1987e-05 -0.134332 -4.22396e-05 -0.0393842 -7.0703e-06
-0.136209 -6.85485e-05 -0.136408 -4.28922e-05 -0.0368681 -6.61861e-06
-0.15035 -7.5665e-05 -0.139599 -4.38956e-05 -0.0337681 -6.06208e-06
-0.165309 -8.31931e-05 -0.144159 -4.53294e-05 -0.0300748 -5.39906e-06
-0.180673 -9.09251e-05 -0.150339 -4.72727e-05 -0.0258095 -4.63336e-06
-0.195942 -9.86094e-05 -0.158377 -4.98002e-05 -0.0210354 -3.7763e-06
-0.210573 -0.000105973 -0.168476 -5.29756e-05 -0.0158741 -2.84974e-06
-0.224025 -0.000112742 -0.180765 -5.68399e-05 -0.0104843 -1.88215e-06
-0.235778 -0.000118657 -0.195284 -6.14052e-05 -0.00520231 -9.33925e-07
-0.245337 -0.000123468 -0.211971 -6.66522e-05 -0.000393644 -7.06674e-08
-0.252174 -0.000126909 -0.23068 -7.25351e-05 0.00351987 6.31892e-07
-0.255682 -0.000128674 -0.251182 -7.8982e-05 0.0060409 1.08447e-06
-0.25514 -0.000128401 -0.273198 -8.59046e-05 0.00661014 1.18666e-06
-0.249712 -0.00012567 -0.296329 -9.3178e-05 0.00465146 8.35037e-07
-0.238559 -0.000120057 -0.320128 -0.000100661 -0.000480446 -8.62503e-08
-0.221057 -0.000111249 -0.343962 -0.000108156 -0.00932509 -1.67405e-06
-0.197116 -9.92001e-05 -0.366949 -0.000115384 -0.022788 -4.09094e-06
-0.167443 -8.42671e-05 -0.387873 -0.000121963 -0.0416039 -7.46879e-06
-0.133443 -6.71565e-05 -0.405268 -0.000127433 -0.066405 -1.19211e-05
-0.0968249 -4.8728e-05 -0.417626 -0.000131319 -0.0977222 -1.75432e-05
-0.0591696 -2.97776e-05 -0.423554 -0.000133183 -0.135978 -2.44109e-05
-0.021993 -1.10682e-05 -0.42202 -0.0001327 -0.181212 -3.25313e-05
0.0134694 6.77857e-06 -0.412285 -0.000129639 -0.233117 -4.18495e-05
0.0466624 2.34833e-05 -0.393886 -0.000123854 -0.291009 -5.22423e-05
0.0772198 3.88615e-05 -0.366989 -0.000115397 -0.353743 -6.35043e-05
0.105078 5.28812e-05 -0.332067 -0.000104415 -0.419848 -7.53716e-05
0.130142 6.54949e-05 -0.289916 -9.11613e-05 -0.487579 -8.75307e-05
0.152656 7.68254e-05 -0.241636 -7.59804e-05 -0.554914 -9.96188e-05
0.172952 8.70398e-05 -0.188436 -5.92521e-05 -0.619485 -0.000111211
0.191356 9.63015e-05 -0.131839 -4.14555e-05 -0.6791 -0.000121913
0.208102 0.000104729 -0.0733614 -2.30678e-05 -0.731401 -0.000131302
0.223155 0.000112305 -0.0145196 -4.56556e-06 -0.774152 -0.000138977
0.236202 0.000118871 0.0433102 1.36185e-05 -0.805217 -0.000144554
0.246811 0.00012421 0.0991073 3.11634e-05 -0.822475 -0.000147652
0.254699 0.000128179 0.151101 4.75125e-05 -0.824334 -0.000147985
0.260092 0.000130894 0.198143 6.23042e-05 -0.809542 -0.00014533
0.263907 0.000132813 0.239001 7.51518e-05 -0.776934 -0.000139476
0.267669 0.000134707 0.272386 8.56493e-05 -0.725749 -0.000130287
0.273479 0.000137631 0.297057 9.34069e-05 -0.655794 -0.000117729
0.287595 0.000144735 0.314167 9.87871e-05 -0.54245 -9.73813e-05
0.31448 0.000158265 0.315142 9.90935e-05 -0.401994 -7.21665e-05
0.359079 0.000180709 0.300369 9.44484e-05 -0.237719 -4.26756e-05
0.424677 0.000213722 0.27198 8.55217e-05 -0.054489 -9.78194e-06
0.512204 0.000257771 0.234133 7.36211e-05 0.144187 2.58847e-05
0.619905 0.000311973 0.192709 6.05957e-05 0.346729 6.22452e-05
0.743194 0.000374019 0.155233 4.88116e-05 0.545936 9.80072e-05
0.875088 0.000440396 0.130039 4.08896e-05 0.733238 0.000131632
1.00773 0.000507147 0.12524 3.93805e-05 0.901003 0.000161749
1.13438 0.000570886 0.147625 4.64195e-05 1.04274 0.000187194
1.25071 0.00062943 0.201734 6.34335e-05 1.15468 0.00020729
1.35476 0.000681796 0.289518 9.10364e-05 1.23541 0.000221782
1.44637 0.000727898 0.410457 0.000129065 1.28601 0.000230866
1.52655 0.00076825 0.561806 0.000176655 1.30984 0.000235145
1.59679 0.000803599 0.738949 0.000232356 1.31255 0.000235631
1.6582 0.000834504 0.935914 0.00029429 1.3015 0.000233648
1.71147 0.000861312 1.14575 0.000360271 1.2853 0.000230739
1.7577 0.000884577 1.36067 0.000427851 1.27323 0.000228572
1.79909 0.000905406 1.57222 0.00049437 1.27482 0.000228858
1.8388 0.000925393 1.7718 0.000557126 1.2992 0.000233235
1.88008 0.000946166 1.95149 0.000613627 1.35441 0.000243145
1.92499 0.000968766 2.10484 0.000661847 1.44663 0.000259701
1.97371 0.000993286 2.22746 0.000700405 1.57977 0.000283602
2.02526 0.00101923 2.31699 0.000728555 1.75524 0.000315102
2.07841 0.00104598 2.37283 0.000746115 1.97198 0.000354012
2.13202 0.00107296 2.3961 0.000753432 2.22643 0.000399692
2.18512 0.00109968 2.38944 0.000751339 2.51274 0.000451091
2.23694 0.00112576 2.35688 0.000741099 2.82306 0.0005068
2.28697 0.00115094 2.3035 0.000724315 3.14793 0.00056512
2.33493 0.00117507 2.23522 0.000702844 3.47672 0.000624145
2.3805 0.00119801 2.15849 0.000678716 3.79814 0.000681848
2.42336 0.00121958 2.07996 0.000654025 4.10083 0.000736186
2.46348 0.00123977 2.00605 0.000630784 4.37388 0.000785204
2.5014 0.00125885 1.94247 0.000610791 4.60743 0.000827132
2.53823 0.00127739 1.89398 0.000595544 4.79313 0.000860469
2.57518 0.00129598 1.86433 0.000586223 4.92445 0.000884044
2.6124 0.00131471 1.85642 0.000583734 4.9969 0.00089705
2.64815 0.00133271 1.87239 0.000588755 5.00818 0.000899075
2.67885 0.00134816 1.91348 0.000601676 4.95837 0.000890133
2.70007 0.00135884 1.97958 0.000622462 4.8501 0.000870696
2.70735 0.0013625 2.04927 0.000644374 4.7248 0.000848202
2.70146 0.00135953 2.15432 0.000677407 4.5261 0.000812532
2.67694 0.00134719 2.27415 0.000715087 4.28961 0.000770076
2.63308 0.00132512 2.40157 0.000755152 4.02663 0.000722866
2.56999 0.00129337 2.52818 0.000794963 3.74964 0.00067314
2.48797 0.00125209 2.64501 0.000831698 3.47156 0.00062322
2.38755 0.00120155 2.74297 0.000862503 3.20512 0.000575386
2.26939 0.00114209 2.81337 0.00088464 2.96203 0.000531747
2.13411 0.00107401 2.84839 0.000895651 2.75241 0.000494116
1.98238 0.00099765 2.84147 0.000893475 2.58417 0.000463913
1.81499 0.000913411 2.78764 0.000876547 2.46257 0.000442084
1.63273 0.000821687 2.68376 0.000843886 2.38987 0.000429033
1.43663 0.000722994 2.52868 0.000795121 2.36516 0.000424596
1.22868 0.000618341 2.323 0.000730446 2.38441 0.000428052
1.01258 0.00050959 2.0689 0.000650548 2.44063 0.000438145
0.793299 0.000399235 1.77021 0.000556627 2.52403 0.000453117
0.575454 0.000289602 1.43277 0.000450522 2.62225 0.00047075
0.36264 0.000182501 1.06448 0.000334718 2.72084 0.000488449
0.157723 7.93755e-05 0.67484 0.000212197 2.80392 0.000503363
-0.0345889 -1.74072e-05 0.274587 8.63413e-05 2.85489 0.000512514
-0.212453 -0.000106919 -0.124296 -3.90837e-05 2.85698 0.000512889
-0.376734 -0.000189594 -0.509876 -0.000160326 2.79795 0.000502292
-0.5289 -0.000266173 -0.873894 -0.000274788 2.66113 0.000477729
-0.671091 -0.000337732 -1.20475 -0.000378823 2.43651 0.000437405
-0.80661 -0.000405934 -1.49323 -0.000469533 2.1165 0.000379957
-0.938653 -0.000472385 -1.73323 -0.000544999 1.69629 0.00030452
-1.06865 -0.000537808 -1.92129 -0.000604134 1.17733 0.000211355
-1.1957 -0.000601745 -2.05685 -0.000646758 0.565873 0.000101586
-1.31768 -0.000663133 -2.14286 -0.000673804 -0.122306 -2.19565e-05
-1.43313 -0.000721233 -2.18464 -0.00068694 -0.874161 -0.000156931
-1.54237 -0.00077621 -2.18897 -0.000688302 -1.67781 -0.000301203
-1.64764 -0.000829188 -2.16321 -0.000680202 -2.51113 -0.000450802
-1.75186 -0.000881639 -2.11617 -0.000665411 -3.35342 -0.00060201
-1.85769 -0.000934898 -2.05775 -0.00064704 -4.1828 -0.000750902
-1.96766 -0.000990243 -1.99793 -0.000628232 -4.97729 -0.00089353
-2.08446 -0.00104902 -1.94653 -0.00061207 -5.71427 -0.00102583
-2.21084 -0.00111262 -1.91292 -0.000601502 -6.37352 -0.00114418
-2.34916 -0.00118223 -1.90555 -0.000599182 -6.93789 -0.0012455
-2.50171 -0.00125901 -1.92423 -0.000605056 -7.13846 -0.00128151
-2.66685 -0.00134211 -1.98157 -0.000623087 -7.12753 -0.00127954
-2.84131 -0.00142991 -2.08817 -0.000656605 -7.09228 -0.00127322
-3.01901 -0.00151934 -2.24114 -0.000704706 -7.09221 -0.0012732
-3.19403 -0.00160742 -2.44416 -0.000768544 -7.09255 -0.00127326
-3.36029 -0.0016911 -2.69382 -0.000847048 -6.97571 -0.00125229
-3.51317 -0.00176804 -2.98493 -0.000938585 -6.73154 -0.00120845
-3.64976 -0.00183677 -3.30676 -0.00103978 -6.40717 -0.00115022
-3.7124 -0.0018683 -3.629 -0.00114111 -6.0493 -0.00108598
-3.66746 -0.00184568 -3.90489 -0.00122786 -5.67965 -0.00101962
-3.62343 -0.00182352 -4.1815 -0.00131483 -5.27147 -0.00094634
-3.61054 -0.00181703 -4.46074 -0.00140264 -4.84692 -0.000870126
-3.58106 -0.0018022 -4.70084 -0.00147814 -4.45847 -0.000800389
-3.548 -0.00178556 -4.8974 -0.00153994 -4.11836 -0.000739334
-3.53627 -0.00177966 -5.05594 -0.0015898 -3.81786 -0.000685388
-3.52739 -0.00177519 -5.15315 -0.00162036 -3.57926 -0.000642553
-3.51987 -0.0017714 -5.18495 -0.00163036 -3.42243 -0.000614399
-3.52568 -0.00177433 -5.15955 -0.00162237 -3.34754 -0.000600955
-3.53956 -0.00178131 -5.07453 -0.00159564 -3.34721 -0.000600896
-3.55524 -0.0017892 -4.93073 -0.00155042 -3.41687 -0.0006134
-3.5679 -0.00179557 -4.73332 -0.00148835 -3.55422 -0.000638058
-3.57734 -0.00180032 -4.48897 -0.00141152 -3.74919 -0.000673059
-3.58862 -0.001806 -4.20795 -0.00132315 -3.98272 -0.000714983
-3.60707 -0.00181529 -3.90343 -0.0012274 -4.23475 -0.000760227
-3.63515 -0.00182942 -3.58908 -0.00112855 -4.48774 -0.000805644
-3.66016 -0.00184201 -3.28029 -0.00103146 -4.72381 -0.000848025
-3.55632 -0.00178975 -3.03149 -0.000953225 -4.91068 -0.000881572
-3.47196 -0.00174729 -2.817 -0.000885779 -5.04813 -0.000906247
-3.40286 -0.00171252 -2.63058 -0.000827162 -5.12149 -0.000919416
-3.34948 -0.00168566 -2.48035 -0.000779925 -5.12795 -0.000920575
-3.31909 -0.00167036 -2.379 -0.000748056 -5.05809 -0.000908034
-3.30881 -0.00166519 -2.32264 -0.000730333 -4.90983 -0.00088142
-3.31924 -0.00167044 -2.3112 -0.000726735 -4.68531 -0.000841113
-3.35147 -0.00168666 -2.34771 -0.000738215 -4.39019 -0.000788132
-3.39246 -0.00170728 -2.43187 -0.000764681 -4.03164 -0.000723764
-3.42734 -0.00172484 -2.5623 -0.000805692 -3.61873 -0.00064964
-3.45467 -0.00173859 -2.73314 -0.000859412 -3.16683 -0.000568513
-3.47037 -0.00174649 -2.93562 -0.000923078 -2.69476 -0.000483766
-3.47107 -0.00174685 -3.15952 -0.000993483 -2.22158 -0.000398821
-3.45426 -0.00173838 -3.39332 -0.001067 -1.76696 -0.000317206
-3.41827 -0.00172027 -3.62408 -0.00113956 -1.35206 -0.000242724
-3.3634 -0.00169266 -3.83854 -0.00120699 -0.997622 -0.000179094
-3.307 -0.00166428 -3.98958 -0.00125449 -0.769892 -0.000138212
-3.2407 -0.00163091 -4.11547 -0.00129407 -0.600335 -0.000107773
-3.1657 -0.00159316 -4.2107 -0.00132402 -0.495383 -8.89318e-05
-3.08327 -0.00155168 -4.27078 -0.00134291 -0.45988 -8.25582e-05
-2.99459 -0.00150705 -4.29233 -0.00134968 -0.496717 -8.91712e-05
-2.90075 -0.00145983 -4.27316 -0.00134366 -0.606534 -0.000108886
-2.80255 -0.00141041 -4.21247 -0.00132457 -0.787647 -0.000141399
-2.70034 -0.00135897 -4.11101 -0.00129267 -1.03616 -0.000186014
-2.59375 -0.00130533 -3.97098 -0.00124864 -1.34614 -0.000241661
-2.4818 -0.00124899 -3.79595 -0.0011936 -1.70969 -0.000306926
-2.36302 -0.00118921 -3.5907 -0.00112906 -2.11719 -0.000380081
-2.23593 -0.00112525 -3.3608 -0.00105677 -2.55757 -0.000459139
-2.09953 -0.0010566 -3.11228 -0.000978628 -3.01877 -0.000541933
-1.9537 -0.000983218 -2.85128 -0.00089656 -3.48812 -0.000626191
-1.79938 -0.000905553 -2.58376 -0.000812442 -3.95276 -0.000709605
-1.63831 -0.000824495 -2.31539 -0.000728055 -4.39993 -0.000789882
-1.47257 -0.000741085 -2.05153 -0.000645086 -4.81723 -0.000864795
-1.304 -0.000656251 -1.79728 -0.000565138 -5.19287 -0.00093223
-1.134 -0.000570695 -1.55736 -0.000489699 -5.51599 -0.000990237
-0.96357 -0.000484925 -1.336 -0.000420093 -5.77695 -0.00103709
-0.793591 -0.000399381 -1.13664 -0.000357408 -5.9676 -0.00107131
-0.624901 -0.000314487 -0.961878 -0.000302454 -6.08144 -0.00109175
-0.458263 -0.000230625 -0.813339 -0.000255747 -6.1138 -0.00109756
-0.294239 -0.000148078 -0.691727 -0.000217507 -6.06188 -0.00108824
-0.132737 -6.68012e-05 -0.596797 -0.000187657 -5.92487 -0.00106364
0.00820482 4.12915e-06 -0.53648 -0.000168691 -5.69983 -0.00102324
0.136619 6.87548e-05 -0.504169 -0.000158532 -5.39266 -0.000968097
0.265419 0.000133575 -0.490171 -0.00015413 -5.01064 -0.000899517
0.379641 0.000191057 -0.483404 -0.000152002 -4.56236 -0.00081904
0.476813 0.00023996 -0.482289 -0.000151651 -4.05525 -0.000728003
0.570159 0.000286937 -0.489227 -0.000153833 -3.49482 -0.000627394
0.660684 0.000332495 -0.499524 -0.000157071 -2.89145 -0.000519076
0.748437 0.000376657 -0.508616 -0.00015993 -2.25514 -0.000404845
0.833027 0.000419228 -0.511679 -0.000160893 -1.59547 -0.000286422
0.914415 0.000460187 -0.50429 -0.00015857 -0.922693 -0.000165643
0.993054 0.000499763 -0.482382 -0.000151681 -0.247619 -4.44529e-05
1.06932 0.000538145 -0.444418 -0.000139743 0.370066 6.64348e-05
1.14314 0.000575295 -0.385878 -0.000121336 0.949731 0.000170497
1.21564 0.000611782 -0.30413 -9.56309e-05 1.50574 0.000270312
1.28793 0.000648161 -0.198051 -6.22753e-05 2.03787 0.000365841
1.36161 0.00068524 -0.0680355 -2.13932e-05 2.54539 0.000456952
1.43792 0.000723643 0.0856627 2.69359e-05 3.01957 0.000542078
1.51842 0.00076416 0.261837 8.23322e-05 3.45281 0.000619854
1.60432 0.000807388 0.45938 0.000144448 3.84238 0.00068979
1.6963 0.000853676 0.675884 0.000212526 4.1907 0.00075232
1.79462 0.00090316 0.908485 0.000285665 4.5008 0.00080799
1.89914 0.000955756 1.15448 0.000363015 4.77343 0.000856933
2.00922 0.00101116 1.41121 0.000443742 5.00788 0.000899021
2.124 0.00106892 1.67566 0.000526895 5.20481 0.000934374
2.24257 0.00112859 1.94435 0.000611383 5.36775 0.000963626
2.36409 0.00118975 2.21356 0.000696035 5.50192 0.000987712
2.48782 0.00125202 2.47958 0.000779683 5.6121 0.00100749
2.61311 0.00131507 2.7388 0.000861193 5.70167 0.00102357
2.73927 0.00137856 2.98773 0.000939464 5.77355 0.00103648
2.86545 0.00144206 3.22307 0.00101347 5.83142 0.00104686
2.99053 0.00150501 3.44195 0.00108229 5.87979 0.00105555
3.11313 0.00156671 3.64202 0.0011452 5.92301 0.00106331
3.23169 0.00162637 3.82152 0.00120164 5.96425 0.00107071
3.34459 0.0016832 3.97908 0.00125119 6.00555 0.00107812
3.45031 0.0017364 4.11376 0.00129353 6.04858 0.00108585
3.54733 0.00178522 4.22503 0.00132852 6.09504 0.00109419
3.62539 0.00182451 4.30646 0.00135413 6.14902 0.00110388
3.66239 0.00184313 4.3446 0.00136612 6.21305 0.00111537
3.67188 0.0018479 4.3531 0.00136879 6.2861 0.00112849
3.67747 0.00185072 4.34693 0.00136685 6.35893 0.00114156
3.69235 0.00185821 4.33804 0.00136406 6.42632 0.00115366
3.70806 0.00186611 4.31936 0.00135819 6.48764 0.00116467
3.71415 0.00186918 4.28127 0.00134621 6.54722 0.00117536
3.71575 0.00186998 4.23158 0.00133058 6.60198 0.0011852
3.7116 0.00186789 4.17069 0.00131144 6.64985 0.00119379
3.69669 0.00186039 4.09478 0.00128757 6.68896 0.00120081
3.67209 0.00184801 4.0037 0.00125893 6.71683 0.00120581
3.64176 0.00183275 3.90162 0.00122683 6.73159 0.00120846
3.60756 0.00181554 3.79126 0.00119213 6.73104 0.00120837
3.56996 0.00179661 3.67318 0.001155 6.7114 0.00120484
3.53088 0.00177694 3.54902 0.00111596 6.66833 0.00119711
3.4927 0.00175773 3.42121 0.00107577 6.59865 0.0011846
3.45651 0.00173952 3.29179 0.00103507 6.50111 0.00116709
3.4228 0.00172256 3.16281 0.000994518 6.37485 0.00114442
3.39215 0.00170713 3.03667 0.000954854 6.21812 0.00111629
3.36478 0.00169336 2.91552 0.000916759 6.02908 0.00108235
3.34048 0.00168112 2.80112 0.000880788 5.80697 0.00104248
3.31899 0.00167031 2.69519 0.000847479 5.55238 0.000996771
3.30023 0.00166087 2.59932 0.000817332 5.26664 0.000945475
3.28401 0.00165271 2.51457 0.000790685 4.9514 0.000888882
3.26929 0.0016453 2.44171 0.000767775 4.60865 0.000827351
3.25511 0.00163816 2.38118 0.000748741 4.2412 0.000761385
3.241 0.00163106 2.333 0.00073359 3.85287 0.000691672
3.22659 0.00162381 2.29667 0.000722166 3.44829 0.000619041
3.21183 0.00161638 2.27112 0.000714134 3.03253 0.000544403
3.19708 0.00160896 2.25487 0.000709024 2.611 0.00046873
3.18299 0.00160187 2.24613 0.000706275 2.18944 0.000393052
3.17019 0.00159543 2.24294 0.000705274 1.77387 0.000318447
3.159 0.00158979 2.24335 0.000705403 1.37036 0.000246009
3.14911 0.00158482 2.24556 0.000706096 0.984844 0.0001768
3.13947 0.00157997 2.24804 0.000706877 0.622896 0.000111823
3.12848 0.00157443 2.24958 0.000707359 0.289664 5.20009e-05
3.11433 0.00156731 2.24911 0.000707213 -0.0101552 -1.82308e-06
3.0951 0.00155764 2.24658 0.000706416 -0.247543 -4.44392e-05
3.06912 0.00154456 2.24001 0.000704352 -0.440747 -7.91235e-05
3.03436 0.00152707 2.22897 0.000700881 -0.594919 -0.000106801
2.98891 0.00150419 2.21327 0.000695944 -0.709842 -0.000127432
2.93073 0.00147492 2.19258 0.000689437 -0.785087 -0.00014094
2.85792 0.00143827 2.16651 0.000681238 -0.818676 -0.00014697
2.76871 0.00139338 2.13475 0.000671254 -0.806839 -0.000144845
2.66196 0.00133966 2.09721 0.000659448 -0.746911 -0.000134086
2.53753 0.00127704 2.05332 0.000645649 -0.640405 -0.000114966
2.39632 0.00120597 2.00227 0.000629595 -0.489976 -8.79611e-05
2.23989 0.00112724 1.94304 0.000610972 -0.29815 -5.35242e-05
2.07009 0.00104179 1.87478 0.000589509 -0.0644378 -1.1568e-05
1.88904 0.000950676 1.79644 0.000564874 0.200475 3.59896e-05
1.69887 0.000854972 1.70774 0.000536984 0.496218 8.90817e-05
1.5019 0.000755843 1.60823 0.000505693 0.817684 0.000146792
1.30057 0.000654522 1.49771 0.000470941 1.15934 0.000208126
1.09752 0.000552338 1.37627 0.000432755 1.51518 0.000272008
0.89553 0.000450683 1.24431 0.000391263 1.87856 0.000337241
0.6972 0.000350872 1.10262 0.00034671 2.24226 0.000402533
0.504602 0.000253945 0.952443 0.000299487 2.59882 0.000466544
0.319101 0.00016059 0.795491 0.000250135 2.94075 0.000527927
0.141547 7.12346e-05 0.633894 0.000199322 3.26052 0.000585332
-0.0132361 -6.66119e-06 0.471728 0.000148331 3.55013 0.000637325
-0.128485 -6.46613e-05 0.3268 0.000102759 3.79378 0.000681064
-0.231568 -0.000116539 0.18461 5.80491e-05 3.99673 0.000717498
-0.333547 -0.00016786 0.0427082 1.34292e-05 4.1532 0.000745587
-0.431729 -0.000217271 -0.0937748 -2.94866e-05 4.25513 0.000763886
-0.522954 -0.000263181 -0.219291 -6.89542e-05 4.29932 0.00077182
-0.609471 -0.000306722 -0.333858 -0.000104979 4.28248 0.000768796
-0.693503 -0.000349011 -0.437652 -0.000137616 4.20366 0.000754646
-0.773845 -0.000389444 -0.530377 -0.000166772 4.06055 0.000728955
-0.849941 -0.00042774 -0.610161 -0.000191859 3.8531 0.000691714
-0.923203 -0.00046461 -0.677714 -0.000213101 3.58409 0.00064342
-0.994561 -0.000500521 -0.734241 -0.000230876 3.25665 0.000584638
-1.06378 -0.000535354 -0.780608 -0.000245455 2.87415 0.000515972
-1.13103 -0.000569203 -0.818437 -0.00025735 2.44126 0.000438259
-1.19713 -0.000602467 -0.849976 -0.000267267 1.96427 0.000352629
-1.26259 -0.000635408 -0.877389 -0.000275887 1.45025 0.000260351
-1.3277 -0.000668176 -0.902897 -0.000283908 0.906485 0.000162733
-1.3931 -0.000701092 -0.929134 -0.000292158 0.34055 6.1136e-05
-1.45976 -0.000734635 -0.958286 -0.000301325 -0.199795 -3.58674e-05
-1.52852 -0.00076924 -0.991452 -0.000311753 -0.720165 -0.000129285
-1.59997 -0.000805197 -1.03369 -0.000325033 -1.23028 -0.000220861
-1.6747 -0.000842808 -1.08636 -0.000341597 -1.73286 -0.000311084
-1.75309 -0.000882256 -1.15134 -0.000362027 -2.22533 -0.000399494
-1.83502 -0.000923488 -1.23116 -0.000387128 -2.70125 -0.000484933
-1.92001 -0.000966264 -1.32797 -0.000417569 -3.15208 -0.000565865
-2.00739 -0.00101024 -1.44328 -0.000453828 -3.57126 -0.000641118
-2.09628 -0.00105497 -1.57792 -0.000496164 -3.95635 -0.000710249
-2.1858 -0.00110002 -1.7323 -0.000544705 -4.30718 -0.00077323
-2.2751 -0.00114496 -1.90629 -0.000599416 -4.62301 -0.000829928
-2.36352 -0.00118946 -2.09904 -0.000660023 -4.90189 -0.000879993
-2.45046 -0.00123322 -2.30883 -0.00072599 -5.14242 -0.000923173
-2.53543 -0.00127598 -2.53325 -0.000796558 -5.34563 -0.000959654
-2.68085 -0.00134916 -2.5901 -0.000814432 -5.58861 -0.00100327
-2.15788 -0.00108597 -2.14189 -0.000673499 -5.97596 -0.00107281
-2.0216 -0.00101739 -2.16485 -0.000680718 -6.13557 -0.00110147
-2.41474 -0.00121524 -2.7723 -0.000871724 -6.00768 -0.00107851
-2.69848 -0.00135804 -3.31744 -0.00104314 -5.8761 -0.00105488
-2.61473 -0.00131589 -3.47068 -0.00109132 -5.86755 -0.00105335
-2.4777 -0.00124692 -3.55259 -0.00111708 -5.84203 -0.00104877
-2.56667 -0.0012917 -3.86508 -0.00121534 -5.67705 -0.00101915
-2.73843 -0.00137814 -4.27205 -0.00134331 -5.46705 -0.000981451
-2.77988 -0.001399 -4.54204 -0.0014282 -5.30437 -0.000952248
-2.75402 -0.00138598 -4.68921 -0.00147448 -5.17597 -0.000929197
-2.74212 -0.00137999 -4.80856 -0.00151201 -5.04084 -0.000904939
-2.79888 -0.00140856 -4.97909 -0.00156563 -4.88522 -0.000877001
-2.89238 -0.00145562 -5.15469 -0.00162085 -4.73969 -0.000850875
-2.94619 -0.0014827 -5.24719 -0.00164993 -4.63761 -0.00083255
-2.96229 -0.0014908 -5.24819 -0.00165025 -4.57228 -0.000820821
-2.99254 -0.00150602 -5.21714 -0.00164048 -4.52292 -0.00081196
-3.06058 -0.00154026 -5.1894 -0.00163176 -4.48404 -0.000804981
-3.13702 -0.00157873 -5.13871 -0.00161582 -4.46972 -0.00080241
-3.19057 -0.00160568 -5.03169 -0.00158217 -4.48537 -0.000805219
-3.22838 -0.00162471 -4.87705 -0.00153355 -4.51874 -0.000811211
-3.27311 -0.00164722 -4.7087 -0.00148061 -4.55533 -0.000817779
-3.3194 -0.00167052 -4.55173 -0.00143125 -4.58748 -0.000823551
-3.36002 -0.00169096 -4.37733 -0.00137641 -4.62554 -0.000830383
-3.38348 -0.00170276 -4.18053 -0.00131453 -4.66162 -0.00083686
-3.4074 -0.00171481 -3.98134 -0.00125189 -4.6806 -0.000840267
-3.43805 -0.00173023 -3.79253 -0.00119253 -4.67587 -0.000839419
-3.46532 -0.00174395 -3.61041 -0.00113526 -4.64871 -0.000834543
-3.48539 -0.00175405 -3.43612 -0.00108046 -4.59558 -0.000825004
-3.50515 -0.001764 -3.27979 -0.0010313 -4.50747 -0.000809186
-3.52699 -0.00177499 -3.14712 -0.000989582 -4.37958 -0.000786229
-3.54661 -0.00178486 -3.0377 -0.000955179 -4.21243 -0.000756221
-3.53479 -0.00177892 -2.96575 -0.000932553 -4.00149 -0.000718353
-3.5344 -0.00177872 -2.91975 -0.000918088 -3.754 -0.000673923
-3.5438 -0.00178345 -2.89897 -0.000911556 -3.47001 -0.00062294
-3.55379 -0.00178847 -2.89996 -0.000911866 -3.1546 -0.000566318
-3.55659 -0.00178988 -2.929 -0.000920999 -2.80891 -0.000504259
-3.55707 -0.00179013 -2.98621 -0.000938986 -2.43917 -0.000437883
-3.55464 -0.0017889 -3.06688 -0.000964354 -2.05346 -0.000368639
-3.54664 -0.00178488 -3.16205 -0.00099428 -1.66193 -0.000298353
-3.52724 -0.00177512 -3.26263 -0.00102591 -1.27446 -0.000228793
-3.50485 -0.00176385 -3.37311 -0.00106064 -0.89499 -0.00016067
-3.48608 -0.0017544 -3.49517 -0.00109903 -0.529785 -9.51077e-05
-3.46797 -0.00174528 -3.62073 -0.00113851 -0.189464 -3.40127e-05
-3.44619 -0.00173432 -3.7389 -0.00117566 0.110359 1.98118e-05
-3.42087 -0.00172158 -3.84546 -0.00120917 0.348067 6.24855e-05
-3.3958 -0.00170897 -3.93883 -0.00123853 0.539551 9.68609e-05
-3.37269 -0.00169734 -4.01895 -0.00126372 0.683423 0.000122689
-3.34932 -0.00168557 -4.08155 -0.00128341 0.776879 0.000139466
-3.32112 -0.00167138 -4.12027 -0.00129558 0.815387 0.000146379
-3.28657 -0.001654 -4.13372 -0.00129981 0.79205 0.00014219
-3.24745 -0.00163431 -4.12412 -0.00129679 0.703578 0.000126307
-3.20367 -0.00161228 -4.09201 -0.0012867 0.551095 9.89333e-05
-3.15228 -0.00158641 -4.03716 -0.00126945 0.338637 6.07926e-05
-3.0957 -0.00155794 -3.96559 -0.00124695 0.0794323 1.42598e-05
-3.04147 -0.00153065 -3.887 -0.00122223 -0.216608 -3.88857e-05
-2.98848 -0.00150398 -3.79965 -0.00119477 -0.551648 -9.90326e-05
-2.9276 -0.00147334 -3.69375 -0.00116147 -0.925426 -0.000166134
-2.85874 -0.00143869 -3.56984 -0.0011225 -1.33091 -0.000238926
-2.78966 -0.00140392 -3.43795 -0.00108103 -1.75641 -0.000315313
-2.72464 -0.0013712 -3.3052 -0.00103929 -2.19152 -0.000393425
-2.66115 -0.00133924 -3.17176 -0.00099733 -2.62925 -0.000472006
-2.59635 -0.00130664 -3.037 -0.000954958 -3.06288 -0.000549853
-2.53045 -0.00127347 -2.90409 -0.000913165 -3.48393 -0.000625439
-2.46642 -0.00124125 -2.77924 -0.000873907 -3.88256 -0.000697002
-2.40636 -0.00121102 -2.66684 -0.000838565 -4.25034 -0.000763026
-2.34929 -0.0011823 -2.56734 -0.000807276 -4.58111 -0.000822407
-2.29441 -0.00115468 -2.48071 -0.000780036 -4.8696 -0.000874197
-2.24314 -0.00112888 -2.40905 -0.000757503 -5.11037 -0.00091742
-2.19767 -0.00110599 -2.35511 -0.000740542 -5.29854 -0.000951201
-2.15865 -0.00108636 -2.31985 -0.000729455 -5.43092 -0.000974966
-2.12517 -0.00106951 -2.30257 -0.000724024 -5.50589 -0.000988425
-2.09624 -0.00105495 -2.30282 -0.000724101 -5.52264 -0.000991432
-2.07138 -0.00104244 -2.32112 -0.000729854 -5.47993 -0.000983764
-2.04995 -0.00103165 -2.35786 -0.000741407 -5.37856 -0.000965566
-2.03012 -0.00102168 -2.41219 -0.00075849 -5.22107 -0.000937292
-2.01048 -0.00101179 -2.48364 -0.000780958 -5.01086 -0.000899556
-1.98991 -0.00100144 -2.57076 -0.000808353 -4.75279 -0.000853226
-1.9653 -0.000989054 -2.66973 -0.000839472 -4.4537 -0.000799534
-1.93427 -0.000973438 -2.77647 -0.000873037 -4.12104 -0.000739814
-1.89576 -0.000954057 -2.88734 -0.000907897 -3.76265 -0.000675476
-1.84882 -0.000930433 -2.99797 -0.000942684 -3.387 -0.000608039
-1.79331 -0.000902501 -3.10291 -0.000975684 -3.00322 -0.000539143
-1.73003 -0.000870652 -3.19631 -0.00100505 -2.61989 -0.000470326
-1.65683 -0.000833812 -3.27411 -0.00102951 -2.24606 -0.000403216
-1.57507 -0.000792668 -3.33184 -0.00104767 -1.88936 -0.000339181
-1.48411 -0.00074689 -3.3652 -0.00105816 -1.55767 -0.000279634
-1.38657 -0.000697805 -3.37521 -0.0010613 -1.25381 -0.000225086
-1.29207 -0.000650244 -3.36737 -0.00105884 -0.980105 -0.00017595
-1.19493 -0.00060136 -3.33125 -0.00104748 -0.745059 -0.000133754
-1.08737 -0.000547227 -3.25643 -0.00102396 -0.555866 -9.97898e-05
-0.971992 -0.000489163 -3.14378 -0.000988533 -0.412863 -7.41177e-05
-0.857202 -0.000431394 -2.9999 -0.000943293 -0.312959 -5.61828e-05
-0.752371 -0.000378637 -2.82431 -0.000888079 -0.256045 -4.59655e-05
-0.641591 -0.000322886 -2.61794 -0.000823186 -0.239416 -4.29802e-05
-0.523395 -0.000263403 -2.37927 -0.000748139 -0.261478 -4.69409e-05
-0.401257 -0.000201936 -2.11443 -0.000664862 -0.315481 -5.66356e-05
-0.278827 -0.000140322 -1.83068 -0.00057564 -0.393665 -7.06713e-05
-0.156562 -7.87914e-05 -1.53168 -0.000481624 -0.489143 -8.78115e-05
-0.0343712 -1.72976e-05 -1.2188 -0.00038324 -0.595549 -0.000106914
0.0767831 3.86418e-05 -0.896887 -0.000282018 -0.704751 -0.000126518
0.173929 8.75313e-05 -0.582585 -0.000183189 -0.802137 -0.000144001
0.262282 0.000131996 -0.272935 -8.58218e-05 -0.885746 -0.00015901
0.348507 0.000175389 0.0296175 9.31295e-06 -0.947217 -0.000170046
0.431838 0.000217326 0.322329 0.000101354 -0.978305 -0.000175626
0.512097 0.000257717 0.596213 0.000187474 -0.971143 -0.000174341
0.588842 0.00029634 0.848514 0.000266808 -0.92263 -0.000165632
0.661713 0.000333013 1.07446 0.000337855 -0.8276 -0.000148572
0.723431 0.000364073 1.28131 0.000402896 -0.687024 -0.000123335
0.830913 0.000418164 1.49527 0.000470175 -0.511282 -9.17861e-05
0.914438 0.000460199 1.6586 0.00052153 -0.27162 -4.87616e-05
0.970652 0.000488489 1.76179 0.000553979 0.0177537 3.18716e-06
1.03252 0.000519624 1.83214 0.000576099 0.338624 6.07902e-05
1.10296 0.000555072 1.87494 0.000589558 0.693995 0.000124587
1.16385 0.000585718 1.87295 0.000588931 1.09322 0.000196257
1.21649 0.000612211 1.82986 0.000575383 1.53188 0.000275006
1.27445 0.000641378 1.75967 0.000553311 1.99703 0.00035851
1.33781 0.000673266 1.66557 0.000523724 2.47883 0.000445002
1.40191 0.000705521 1.54691 0.000486412 2.96837 0.000532886
1.4694 0.00073949 1.41121 0.000443742 3.45607 0.000620439
1.54466 0.000777362 1.26895 0.00039901 3.93095 0.000705689
1.62676 0.000818682 1.12619 0.00035412 4.38326 0.000786888
1.71394 0.000862556 0.988422 0.0003108 4.80225 0.000862107
1.80704 0.000909408 0.863927 0.000271654 5.17664 0.000929317
1.90675 0.000959588 0.76072 0.000239201 5.49692 0.000986813
2.0118 0.00101246 0.684572 0.000215257 5.75616 0.00103335
2.12089 0.00106736 0.640585 0.000201426 5.94861 0.0010679
2.23354 0.00112405 0.633752 0.000199278 6.06923 0.00108956
2.34893 0.00118212 0.667689 0.000209949 6.11476 0.00109773
2.46601 0.00124104 0.743917 0.000233918 6.07958 0.00109141
2.58428 0.00130056 0.862455 0.000271191 5.96133 0.00107019
2.704 0.00136081 1.02224 0.000321433 5.76355 0.00103468
2.8255 0.00142196 1.22043 0.000383753 5.4929 0.000986092
2.94883 0.00148402 1.45289 0.000456848 5.15846 0.000926054
3.07398 0.00154701 1.71465 0.000539156 4.77097 0.00085649
3.19963 0.00161024 2.00056 0.000629059 4.34202 0.000779485
3.32508 0.00167337 2.30442 0.000724604 3.88442 0.000697336
3.45023 0.00173636 2.61899 0.000823517 3.41214 0.000612551
3.57451 0.0017989 2.93689 0.00092348 2.93976 0.00052775
3.69715 0.00186062 3.25101 0.00102225 2.48186 0.000445546
3.7601 0.0018923 3.53742 0.00111231 2.0593 0.000369687
3.74887 0.00188665 3.75395 0.0011804 1.7033 0.000305779
3.73338 0.00187885 3.94765 0.0012413 1.39241 0.000249967
3.74018 0.00188228 4.13878 0.0013014 1.12961 0.000202789
3.75079 0.00188762 4.30953 0.00135509 0.93464 0.000167788
3.75203 0.00188824 4.44788 0.0013986 0.810752 0.000145547
3.75234 0.0018884 4.5537 0.00143187 0.759893 0.000136417
3.76199 0.00189326 4.63464 0.00145732 0.781964 0.000140379
3.77568 0.00190014 4.68707 0.00147381 0.881645 0.000158274
3.78675 0.00190572 4.70467 0.00147934 1.06103 0.000190478
3.79932 0.00191204 4.68932 0.00147451 1.31411 0.000235911
3.81782 0.00192135 4.6444 0.00146039 1.63441 0.000293411
3.84 0.00193251 4.57068 0.00143721 2.01761 0.000362204
3.86289 0.00194403 4.4701 0.00140558 2.45784 0.000441235
3.88726 0.0019563 4.34805 0.00136721 2.945 0.00052869
3.89015 0.00195775 4.21627 0.00132577 3.46447 0.000621946
3.88798 0.00195666 4.07093 0.00128007 4.00946 0.000719783
3.87973 0.00195251 3.91816 0.00123203 4.56671 0.000819821
3.86707 0.00194614 3.7655 0.00118403 5.12431 0.000919923
3.80672 0.00191577 3.62929 0.0011412 5.66751 0.00101744
3.73427 0.0018793 3.50777 0.00110299 6.16221 0.00110625
3.66774 0.00184582 3.39728 0.00106824 6.60178 0.00118516
3.60805 0.00181578 3.30172 0.0010382 6.98132 0.00125329
3.55783 0.00179051 3.21352 0.00101046 7.0782 0.00127069
3.51743 0.00177018 3.14795 0.000989844 7.0996 0.00127453
3.48885 0.00175579 3.10831 0.000977379 7.09943 0.0012745
3.46148 0.00174202 3.09366 0.000972774 7.09884 0.00127439
3.43412 0.00172825 3.10574 0.000976572 7.12045 0.00127827
3.40785 0.00171503 3.1453 0.000989011 7.14902 0.0012834
3.38296 0.0017025 3.21157 0.00100985 7.16176 0.00128569
3.35983 0.00169086 3.30133 0.00103807 7.13127 0.00128022
3.33883 0.00168029 3.40919 0.00107199 7.04215 0.00126422
3.31988 0.00167076 3.53186 0.00111056 6.90436 0.00123948
3.30261 0.00166207 3.66559 0.00115261 6.72607 0.00120747
3.28669 0.00165406 3.80598 0.00119676 6.50929 0.00116856
3.27179 0.00164656 3.94793 0.00124139 6.2568 0.00112323
3.25743 0.00163933 4.08614 0.00128485 5.97696 0.00107299
3.24293 0.00163203 4.21576 0.00132561 5.68181 0.00102001
3.22749 0.00162426 4.33232 0.00136226 5.38185 0.000966156
3.21021 0.00161557 4.43157 0.00139347 5.08351 0.000912598
3.19012 0.00160546 4.50952 0.00141798 4.79118 0.000860118
3.16631 0.00159347 4.56284 0.00143474 4.51033 0.000809701
3.13796 0.0015792 4.58893 0.00144295 4.24797 0.000762601
3.1044 0.00156232 4.5859 0.00144199 4.01036 0.000719946
3.06522 0.0015426 4.55249 0.00143149 3.80104 0.000682367
3.02027 0.00151998 4.48818 0.00141127 3.62093 0.000650033
2.96969 0.00149452 4.39325 0.00138142 3.46998 0.000622935
2.9138 0.0014664 4.26884 0.0013423 3.34808 0.000601052
2.85302 0.00143581 4.11682 0.0012945 3.25455 0.000584261
2.78762 0.0014029 3.93981 0.00123884 3.18712 0.000572156
2.71769 0.0013677 3.74123 0.0011764 3.14169 0.000564001
2.64298 0.0013301 3.52511 0.00110844 3.11303 0.000558855
2.56306 0.00128988 3.29607 0.00103642 3.09561 0.000555728
2.47755 0.00124685 3.0589 0.000961843 3.08396 0.000553636
2.38626 0.0012009 2.81846 0.000886238 3.07242 0.000551565
2.28919 0.00115206 2.5795 0.0008111 3.05503 0.000548443
2.18656 0.0011004 2.34653 0.000737846 3.02578 0.000543192
2.07865 0.0010461 2.12374 0.000667791 2.97917 0.000534824
1.96578 0.000989294 1.91481 0.000602094 2.91055 0.000522505
1.84822 0.000930132 1.72285 0.000541736 2.81622 0.000505571
1.72612 0.000868686 1.55039 0.000487508 2.69331 0.000483506
1.59967 0.000805046 1.39919 0.000439961 2.53984 0.000455955
1.46925 0.000739413 1.27017 0.000399393 2.35489 0.000422753
1.33574 0.000672224 1.16333 0.0003658 2.13881 0.000383962
1.20066 0.000604244 1.0777 0.000338874 1.89321 0.000339871
1.066 0.000536475 1.01148 0.000318052 1.62078 0.000290964
0.933937 0.000470012 0.96226 0.000302574 1.32505 0.000237875
0.806531 0.000405893 0.927445 0.000291627 1.01017 0.000181347
0.685998 0.000345234 0.905515 0.000284731 0.680277 0.000122124
0.574965 0.000289356 0.894437 0.000281248 0.340433 6.11149e-05
0.469804 0.000236433 0.886753 0.000278831 0.0127322 2.28571e-06
0.368557 0.000185479 0.881382 0.000277143 -0.243377 -4.36914e-05
0.273742 0.000137763 0.873074 0.00027453 -0.487148 -8.74535e-05
0.18486 9.30326e-05 0.86204 0.000271061 -0.720964 -0.000129428
0.0994238 5.00359e-05 0.845469 0.00026585 -0.945728 -0.000169778
0.0173308 8.72189e-06 0.82249 0.000258625 -1.16038 -0.000208313
-0.0398016 -2.00305e-05 0.78603 0.00024716 -1.35725 -0.000243655
-0.0858819 -4.32208e-05 0.746883 0.000234851 -1.53434 -0.000275447
-0.126379 -6.36012e-05 0.703342 0.00022116 -1.68752 -0.000302946
-0.167976 -8.45355e-05 0.653131 0.000205371 -1.8184 -0.000326441
-0.212631 -0.000107008 0.594862 0.000187049 -1.92865 -0.000346233
-0.259912 -0.000130803 0.529368 0.000166455 -2.01769 -0.000362217
-0.308913 -0.000155463 0.458806 0.000144267 -2.08317 -0.000373973
-0.360727 -0.000181539 0.383251 0.00012051 -2.12283 -0.000381094
-0.416555 -0.000209635 0.302099 9.49924e-05 -2.1377 -0.000383762
-0.477525 -0.000240318 0.214272 6.73759e-05 -2.12813 -0.000382044
-0.542911 -0.000273225 0.120729 3.7962e-05 -2.09224 -0.000375602
-0.61122 -0.000307602 0.02352 7.39564e-06 -2.03008 -0.000364442
-0.682281 -0.000343364 -0.0773263 -2.43146e-05 -1.94143 -0.000348527
-0.75651 -0.00038072 -0.182453 -5.73706e-05 -1.82956 -0.000328445
-0.833433 -0.000419432 -0.29225 -9.18954e-05 -1.69799 -0.000304825
-0.911639 -0.00045879 -0.406176 -0.000127718 -1.55044 -0.000278337
-0.98963 -0.00049804 -0.523871 -0.000164727 -1.39022 -0.000249574
-1.06682 -0.000536887 -0.645355 -0.000202926 -1.21995 -0.000219007
-1.14307 -0.000575257 -0.770482 -0.000242271 -1.04303 -0.000187246
-1.218 -0.000612968 -0.898266 -0.000282452 -0.864049 -0.000155115
-1.29105 -0.000649733 -1.02696 -0.000322919 -0.688149 -0.000123537
-1.36191 -0.000685395 -1.15481 -0.000363119 -0.519973 -9.33461e-05
-1.43069 -0.000720009 -1.28031 -0.000402581 -0.363437 -6.52446e-05
-1.49756 -0.00075366 -1.40209 -0.000440875 -0.222258 -3.99001e-05
-1.56244 -0.000786312 -1.51873 -0.000477551 -0.100354 -1.80157e-05
-1.62513 -0.00081786 -1.6288 -0.000512162 -0.00157 -2.81848e-07
-1.68555 -0.000848266 -1.73117 -0.00054435 0.0704596 1.2649e-05
-1.74381 -0.000877589 -1.82503 -0.000573864 0.111836 2.0077e-05
-1.79995 -0.00090584 -1.90936 -0.00060038 0.124558 2.23607e-05
-1.85447 -0.00093328 -1.98394 -0.000623833 0.106498 1.91186e-05
-1.90738 -0.000959907 -2.0482 -0.000644038 0.0611223 1.09728e-05
-1.95869 -0.000985728 -2.10162 -0.000660836 -0.00975567 -1.75135e-06
-2.00853 -0.00101081 -2.14488 -0.00067444 -0.106273 -1.90782e-05
-2.05728 -0.00103534 -2.17869 -0.000685069 -0.228334 -4.09908e-05
-2.10359 -0.00105865 -2.20424 -0.000693105 -0.374784 -6.72817e-05
-2.15137 -0.0010827 -2.22562 -0.000699827 -0.542751 -9.74353e-05
-2.20061 -0.00110747 -2.2418 -0.000704913 -0.729515 -0.000130963
-2.24816 -0.0011314 -2.25041 -0.00070762 -0.93365 -0.00016761
-2.2952 -0.00115508 -2.25288 -0.000708398 -1.1518 -0.000206773
-2.34345 -0.00117936 -2.25275 -0.000708358 -1.38052 -0.000247833
-2.39424 -0.00120492 -2.25315 -0.000708483 -1.61556 -0.000290027
-2.44734 -0.00123164 -2.25502 -0.000709072 -1.84888 -0.000331913
-2.50168 -0.00125899 -2.25768 -0.000709906 -2.0712 -0.000371824
-2.55705 -0.00128686 -2.26386 -0.000711849 -2.2886 -0.000410852
-2.61438 -0.00131571 -2.27626 -0.000715751 -2.49923 -0.000448665
-2.67464 -0.00134603 -2.29773 -0.000722499 -2.69924 -0.00048457
-2.73725 -0.00137754 -2.32961 -0.000732524 -2.88596 -0.000518091
-2.80195 -0.00141011 -2.37292 -0.000746144 -3.05707 -0.000548809
-2.86563 -0.00144215 -2.42657 -0.000763015 -3.21116 -0.000576471
-2.92656 -0.00147282 -2.49259 -0.000783773 -3.34653 -0.000600773
-2.98764 -0.00150355 -2.57695 -0.000810297 -3.45994 -0.000621132
-3.04903 -0.00153445 -2.68208 -0.000843354 -3.55037 -0.000637367
-3.10725 -0.00156375 -2.80621 -0.000882386 -3.61877 -0.000649646
-3.16068 -0.00159064 -2.94826 -0.000927052 -3.66629 -0.000658177
-3.21092 -0.00161592 -3.1094 -0.000977723 -3.69327 -0.00066302
-3.2553 -0.00163826 -3.28861 -0.00103407 -3.70171 -0.000664536
-3.29338 -0.00165742 -3.48157 -0.00109475 -3.69452 -0.000663244
-3.32549 -0.00167358 -3.6836 -0.00115827 -3.67465 -0.000659678
-3.35304 -0.00168745 -3.89042 -0.00122331 -3.64678 -0.000654674
-3.3776 -0.00169981 -4.09753 -0.00128843 -3.61624 -0.000649191
-3.40007 -0.00171112 -4.29984 -0.00135205 -3.58887 -0.000644279
-3.42091 -0.0017216 -4.49224 -0.00141254 -3.57058 -0.000640995
-3.44072 -0.00173157 -4.67039 -0.00146856 -3.56649 -0.000640261
-3.4602 -0.00174137 -4.83081 -0.001519 -3.58074 -0.000642818
-3.47983 -0.00175125 -4.97056 -0.00156295 -3.61662 -0.00064926
-3.49966 -0.00176123 -5.08704 -0.00159957 -3.67201 -0.000659205
-3.51961 -0.00177127 -5.17783 -0.00162812 -3.74284 -0.00067192
-3.53954 -0.0017813 -5.24231 -0.0016484 -3.83267 -0.000688045
-3.5444 -0.00178375 -5.27457 -0.00165854 -3.94562 -0.000708323
-3.54821 -0.00178567 -5.27968 -0.00166015 -4.07973 -0.000732399
-3.5546 -0.00178889 -5.26037 -0.00165408 -4.23253 -0.00075983
-3.56493 -0.00179408 -5.22033 -0.00164149 -4.40029 -0.000789945
-3.58033 -0.00180183 -5.16148 -0.00162298 -4.57941 -0.000822102
-3.59472 -0.00180907 -5.08209 -0.00159802 -4.76766 -0.000855897
-3.60442 -0.00181396 -4.98362 -0.00156706 -4.96159 -0.00089071
-3.6106 -0.00181706 -4.871 -0.00153164 -5.15576 -0.000925569
-3.61379 -0.00181867 -4.74841 -0.0014931 -5.34512 -0.000959563
-3.59944 -0.00181145 -4.62418 -0.00145403 -5.52291 -0.000991479
-3.58302 -0.00180319 -4.49791 -0.00141433 -5.68561 -0.00102069
-3.56552 -0.00179438 -4.3769 -0.00137628 -5.82697 -0.00104607
-3.54882 -0.00178597 -4.26571 -0.00134132 -5.94219 -0.00106675
-3.53227 -0.00177764 -4.16531 -0.00130974 -6.02827 -0.0010822
-3.51335 -0.00176812 -4.07411 -0.00128107 -6.08349 -0.00109212
-3.49122 -0.00175699 -3.99244 -0.00125539 -6.10623 -0.0010962
-3.46721 -0.0017449 -3.92345 -0.00123369 -6.08964 -0.00109322
-3.44077 -0.0017316 -3.87114 -0.00121724 -6.02742 -0.00108205
-3.41101 -0.00171662 -3.83597 -0.00120618 -5.91883 -0.00106256
-3.37583 -0.00169891 -3.81636 -0.00120002 -5.76569 -0.00103506
-3.33419 -0.00167796 -3.81141 -0.00119846 -5.57081 -0.00100008
-3.28635 -0.00165389 -3.82101 -0.00120148 -5.33731 -0.000958161
-3.23282 -0.00162695 -3.84409 -0.00120874 -5.06902 -0.000909997
-3.17367 -0.00159718 -3.87749 -0.00121924 -4.77102 -0.000856499
-3.10907 -0.00156467 -3.91697 -0.00123166 -4.44953 -0.000798786
-3.03982 -0.00152982 -3.95858 -0.00124474 -4.11139 -0.000738082
-2.96701 -0.00149317 -3.99884 -0.0012574 -3.76358 -0.000675642
-2.89148 -0.00145516 -4.03435 -0.00126857 -3.41298 -0.000612702
-2.81331 -0.00141582 -4.06114 -0.00127699 -3.06642 -0.000550488
-2.73256 -0.00137519 -4.07545 -0.00128149 -2.73042 -0.000490169
-2.64972 -0.0013335 -4.07421 -0.0012811 -2.411 -0.000432825
-2.56524 -0.00129098 -4.05494 -0.00127504 -2.11358 -0.000379433
-2.47953 -0.00124784 -4.01554 -0.00126265 -1.84285 -0.000330831
-2.39158 -0.00120358 -3.9535 -0.00124314 -1.60262 -0.000287705
-2.30004 -0.00115752 -3.86864 -0.00121646 -1.39537 -0.000250498
-2.20763 -0.00111101 -3.76316 -0.00118329 -1.2214 -0.000219266
-2.11394 -0.00106386 -3.63673 -0.00114354 -1.08181 -0.000194208
-2.01839 -0.00101577 -3.48835 -0.00109688 -0.97664 -0.000175328
-1.92085 -0.000966682 -3.31828 -0.0010434 -0.904985 -0.000162464
-1.82226 -0.000917069 -3.12921 -0.000983951 -0.864072 -0.000155119
-1.72338 -0.000867308 -2.92463 -0.000919624 -0.850214 -0.000152631
-1.62252 -0.000816546 -2.70824 -0.00085158 -0.859102 -0.000154227
-1.52255 -0.000766238 -2.48462 -0.000781268 -0.885297 -0.00015893
-1.42019 -0.000714724 -2.25415 -0.000708798 -0.925193 -0.000166092
-1.31426 -0.000661411 -2.01979 -0.000635104 -0.973473 -0.000174759
-1.20572 -0.000606789 -1.78662 -0.000561786 -1.02452 -0.000183922
-1.09521 -0.000551174 -1.55943 -0.000490348 -1.0724 -0.000192518
-0.98262 -0.000494512 -1.34095 -0.000421649 -1.112 -0.000199627
-0.867429 -0.000436541 -1.13276 -0.000356186 -1.13897 -0.000204469
-0.749898 -0.000377393 -0.93696 -0.000294619 -1.1493 -0.000206324
-0.631126 -0.000317619 -0.756303 -0.000237813 -1.13938 -0.000204543
-0.512046 -0.000257692 -0.592825 -0.000186408 -1.10623 -0.000198591
-0.393041 -0.000197801 -0.44721 -0.000140621 -1.04774 -0.000188091
-0.274263 -0.000138025 -0.31963 -0.000100505 -0.962648 -0.000172816
-0.156983 -7.90029e-05 -0.21058 -6.62151e-05 -0.850373 -0.00015266
-0.0455611 -2.2929e-05 -0.120234 -3.78066e-05 -0.711324 -0.000127698
0.0325401 1.63761e-05 -0.0608069 -1.91202e-05 -0.54025 -9.69863e-05
0.108658 5.46832e-05 -0.0179202 -5.63486e-06 -0.347485 -6.23809e-05
0.183713 9.2455e-05 0.0111533 3.50705e-06 -0.134304 -2.41104e-05
0.260242 0.000130969 0.0301815 9.49032e-06 0.0614247 1.1027e-05
0.322795 0.000162449 0.0467992 1.47156e-05 0.250689 4.5004e-05
0.382748 0.000192621 0.0552306 1.73668e-05 0.44154 7.92658e-05
0.438969 0.000220915 0.0568088 1.7863e-05 0.637511 0.000114447
0.497845 0.000250545 0.056147 1.76549e-05 0.837495 0.000150348
0.558093 0.000280865 0.0520433 1.63646e-05 1.03726 0.00018621
0.618255 0.000311142 0.0442108 1.39017e-05 1.23163 0.000221104
0.679875 0.000342153 0.035058 1.10237e-05 1.41571 0.000254151
0.744637 0.000374745 0.028284 8.89365e-06 1.58764 0.000285015
0.813431 0.000409366 0.0264541 8.31826e-06 1.7459 0.000313426
0.885688 0.00044573 0.0304866 9.58624e-06 1.88832 0.000338994
0.960926 0.000483594 0.0415526 1.30658e-05 2.01133 0.000361076
1.03971 0.000523241 0.0620557 1.95129e-05 2.11142 0.000379044
1.12268 0.000564999 0.0946927 2.97753e-05 2.18668 0.000392555
1.20966 0.000608774 0.141236 4.44103e-05 2.23668 0.000401531
1.29976 0.000654118 0.202731 6.3747e-05 2.26129 0.00040595
1.39215 0.000700611 0.280379 8.81625e-05 2.25849 0.000405447
1.48634 0.000748015 0.375506 0.000118074 2.22289 0.000399057
1.58182 0.000796063 0.489392 0.000153885 2.15382 0.000386656
1.67772 0.000844329 0.622224 0.000195653 2.05369 0.00036868
1.77307 0.000892315 0.773321 0.000243164 1.92641 0.000345832
1.86109 0.00093661 0.941014 0.000295893 1.77455 0.000318569
1.98711 0.00100003 1.19659 0.000376258 1.57648 0.000283011
2.125 0.00106943 1.46719 0.000461345 1.36831 0.00024564
2.22124 0.00111786 1.70721 0.000536818 1.17796 0.000211468
2.31498 0.00116503 1.94734 0.000612323 0.994327 0.000178503
2.43214 0.001224 2.20989 0.00069488 0.818567 0.00014695
2.54459 0.00128059 2.46492 0.000775071 0.670434 0.000120357
2.63912 0.00132816 2.6953 0.000847513 0.562653 0.000101008
2.73338 0.0013756 2.91337 0.000916083 0.493404 8.85766e-05
2.833 0.00142573 3.12162 0.000981564 0.466789 8.37986e-05
2.92633 0.0014727 3.30703 0.00103987 0.493169 8.85344e-05
3.01049 0.00151506 3.46495 0.00108952 0.577266 0.000103631
3.09227 0.00155621 3.60031 0.00113208 0.71763 0.00012883
3.17244 0.00159656 3.71306 0.00116754 0.914144 0.000164108
3.24662 0.00163389 3.79903 0.00119457 1.16796 0.000209674
3.31468 0.00166814 3.8588 0.00121336 1.4772 0.000265189
3.3794 0.00170071 3.89613 0.0012251 1.83712 0.000329802
3.44087 0.00173165 3.91265 0.0012303 2.22432 0.000399312
3.4981 0.00176045 3.9062 0.00122827 2.57811 0.000462826
3.55117 0.00178715 3.88407 0.00122131 2.9438 0.000528475
8.93253 0.385677 2.83288 0.000890772 3.58338 0.000643293
8.93253 0.608947 3.08258 0.000969291 3.83802 0.000689007
8.93253 0.657164 2.79172 0.000877831 4.40426 0.000790658
0.488984 0.652915 2.55261 0.000802646 4.82042 0.000865368
5.65256 0.655513 2.58422 0.000812586 5.18906 0.000931546
8.93253 0.675729 2.67764 0.000841959 5.434 0.000975519
8.93253 0.693592 2.63064 0.00082718 5.67707 0.00101916
8.93253 0.698692 2.57875 0.000810864 5.92568 0.00106378
8.93253 0.714199 2.64056 0.0008303 6.14145 0.00110252
8.93253 0.736863 2.746 0.000863455 6.29798 0.00113062
8.93253 0.753767 2.81616 0.000885517 6.39369 0.0011478
0.356328 0.756124 41.85 0.152752 5.67642 0.00101904
8.93253 0.761363 8.93253 0.23545 5.68624 0.0010208
8.93253 0.770189 8.93253 0.269925 5.42287 0.00097352
8.93253 0.779288 8.93253 0.287335 5.25952 0.000944197
8.93253 0.795118 8.93253 0.30304 4.88238 0.000876492
8.93253 0.816578 8.93253 0.330713 4.5872 0.0008235
8.93253 0.833503 8.93253 0.365519 4.38552 0.000787294
8.93253 0.844166 8.93253 0.399313 4.10627 0.000737163
8.93253 0.85674 8.93253 0.426543 3.72317 0.000668388
8.93253 0.870914 8.93253 0.45522 3.30528 0.000593367
8.93253 0.883494 8.93253 0.485707 3.00184 0.000538895
8.93253 0.893922 8.93253 0.514557 2.80231 0.000503074
8.93253 0.904038 8.93253 0.542543 2.56896 0.000461183
8.93253 0.915501 8.93253 0.568437 2.31232 0.00041511
8.93253 0.926118 8.93253 0.592627 2.12254 0.00038104
8.93253 0.93562 8.93253 0.616727 2.02831 0.000364124
8.93253 0.944431 8.93253 0.6413 1.99127 0.000357476
8.93253 0.953047 8.93253 0.664203 1.98386 0.000356144
8.93253 0.96097 8.93253 0.684789 2.01543 0.000361813
8.93253 0.967737 8.93253 0.704153 2.11606 0.000379878
8.93253 0.973691 8.93253 0.721973 2.28574 0.00041034
8.93253 0.979027 8.93253 0.738545 2.49521 0.000447944
8.93253 0.983612 8.93253 0.753098 2.75925 0.000495345
8.93253 0.987605 8.93253 0.765268 3.09232 0.000555138
8.93253 0.991281 8.93253 0.775347 3.49755 0.000627884
8.93253 0.99448 8.93253 0.783767 3.9788 0.000714278
8.93253 0.997295 8.93253 0.790367 4.50926 0.000809508
8.93253 1.00008 8.93253 0.795004 5.05883 0.000908168
8.93253 1.00293 8.93253 0.79782 5.59768 0.0010049
8.93253 1.00604 8.93253 0.798584 6.00016 0.00107716
8.93253 1.00919 8.42476 0.798424 6.39562 0.00114815
8.93253 1.0123 7.38754 0.798098 6.61271 0.00118712
8.93253 1.01528 5.26194 0.797429 6.68073 0.00119933
8.93253 1.01765 2.93613 0.796698 6.70158 0.00120308
8.93253 1.01942 0.514795 0.795937 6.72707 0.00120765
8.93253 1.02048 -0.0329239 0.794982 6.79105 0.00121914
8.93253 1.02081 -0.0923581 0.793552 6.88154 0.00123538
8.71658 1.0207 -0.157448 0.791985 6.95904 0.0012493
8.23627 1.02046 -0.204181 0.79086 7.00329 0.00125724
7.49806 1.02009 -0.171596 0.790576 7.02834 0.00126174
6.52795 1.0196 0.323807 0.790918 7.06107 0.00126761
5.33894 1.019 1.28501 0.791774 7.10959 0.00127632
3.94436 1.0183 2.55923 0.792909 7.15973 0.00128532
2.27381 1.01746 4.18837 0.794359 7.19648 0.00129192
0.544125 1.01659 6.25206 0.796197 7.21301 0.00129489
-0.0232386 1.0156 8.86378 0.798522 7.21892 0.00129595
-0.0910481 1.01351 8.93253 0.804986 7.22359 0.00129679
-0.227764 1.00929 8.93253 0.814156 7.23585 0.00129899
-0.447233 1.00252 8.93253 0.824346 7.24525 0.00130068
-0.71505 0.994263 8.93253 0.835089 7.24102 0.00129992
-1.00411 0.985347 8.93253 0.846183 7.19334 0.00129136
-1.30497 0.976067 8.93253 0.857482 7.10991 0.00127638
-1.6234 0.966246 8.93253 0.868807 6.99866 0.00125641
-1.95733 0.955946 8.93253 0.879828 6.86292 0.00123204
-2.38474 0.942763 8.93253 0.892657 6.66437 0.0011964
-2.74108 0.931772 8.93253 0.903129 6.45719 0.0011592
-3.08922 0.921034 8.93253 0.911498 6.24461 0.00112104
-3.4376 0.910289 8.93253 0.917479 6.04591 0.00108537
-3.79269 0.899337 8.93253 0.920849 5.86487 0.00105287
-4.16212 0.887942 8.56738 0.921288 5.70536 0.00102423
-4.57211 0.875296 6.1287 0.920521 5.55737 0.000997666
-5.0282 0.861229 1.38529 0.919029 5.42774 0.000974395
-5.52443 0.845923 -0.130398 0.914977 5.32452 0.000955865
-6.00246 0.831179 -0.564807 0.902927 5.26944 0.000945976
-6.49639 0.815944 -1.14568 0.886815 5.22555 0.000938098
-7.01608 0.799915 -1.82149 0.86807 5.20022 0.00093355
-7.57958 0.782534 -2.57426 0.84719 5.18572 0.000930947
-8.18947 0.763723 -3.42586 0.823569 5.16833 0.000927825
-8.8459 0.743476 -4.34507 0.798072 5.13399 0.000921661
-9.5437 0.721953 -5.30739 0.77138 5.0816 0.000912255
-10.2782 0.6993 -6.2976 0.743914 5.00159 0.000897892
-11.0402 0.675797 -7.31072 0.715812 4.88034 0.000876125
-11.8196 0.651755 -8.33697 0.687346 4.71114 0.00084575
-12.6075 0.627453 -9.36193 0.658916 4.49171 0.000806357
-13.3928 0.603232 -10.3762 0.630782 4.2166 0.000756969
-14.1638 0.579453 -11.3755 0.603066 3.87973 0.000696494
-14.9134 0.55633 -12.3531 0.575948 3.47983 0.000624703
-15.641 0.533889 -13.2994 0.549699 3.01846 0.000541878
-16.3508 0.511998 -14.2051 0.52458 2.49588 0.000448063
-17.0257 0.491179 -15.0546 0.501016 1.91082 0.000343033
-17.6662 0.471425 -15.8395 0.479244 1.26985 0.000227965
-18.3254 0.451094 -16.5866 0.458521 0.609449 0.000109409
-18.9867 0.430695 -17.2766 0.439381 0.0377944 6.7849e-06
-19.6065 0.411578 -17.9035 0.421995 -0.339289 -6.09096e-05
-20.2013 0.393233 -18.477 0.406087 -0.634506 -0.000113907
-20.7743 0.375559 -19.0089 0.391331 -0.925557 -0.000166157
-21.2811 0.359926 -19.5276 0.376944 -1.24872 -0.000224172
-21.7887 0.34427 -20.0267 0.3631 -1.58808 -0.000285094
-22.2892 0.328834 -20.4994 0.349989 -1.90088 -0.000341249
-22.799 0.31311 -20.9616 0.33717 -2.17998 -0.000391352
-23.3178 0.297107 -21.4173 0.32453 -2.45631 -0.000440959
-23.8482 0.280748 -21.8769 0.31178 -2.73308 -0.000490646
-24.4039 0.263608 -22.3462 0.298763 -2.98642 -0.000536127
-24.9693 0.246169 -22.8288 0.285377 -3.20234 -0.000574888
-25.5402 0.22856 -23.3301 0.271471 -3.38971 -0.000608524
-26.109 0.211017 -23.8576 0.256841 -3.55765 -0.000638673
-26.6768 0.193504 -24.4174 0.241312 -3.69887 -0.000664027
-27.2382 0.176187 -25.0115 0.224835 -3.80312 -0.00068274
-27.7909 0.15914 -25.6396 0.207413 -3.87165 -0.000695044
-28.3322 0.142445 -26.299 0.189121 -3.91233 -0.000702347
-28.8716 0.125806 -26.9805 0.170219 -3.92875 -0.000705294
-29.4244 0.108756 -27.6719 0.151041 -3.91726 -0.000703231
-30.0044 0.0908662 -28.3596 0.131967 -3.86361 -0.0006936
-30.6213 0.0718401 -29.03 0.113371 -3.76607 -0.000676089
-31.281 0.0514929 -29.673 0.0955355 -3.63288 -0.000652179
-31.9856 0.029761 -30.2823 0.078634 -3.4722 -0.000623334
-32.7341 0.00667311 -30.8312 0.0634101 -3.29319 -0.000591197
-32.9275 0.000706331 -31.3517 0.0489735 -3.08119 -0.00055314
-32.9371 0.000410667 -31.8114 0.036221 -2.88192 -0.000517365
-32.9429 0.000231803 -32.2417 0.0242853 -2.67466 -0.000480158
-32.9478 8.28263e-05 -32.6916 0.0118058 -2.44964 -0.000439763
-32.9516 -3.43123e-05 -33.0773 0.00110719 -2.2419 -0.000402468
-32.9546 -0.00012917 -33.0982 0.000529846 -2.10186 -0.000377328
-32.9571 -0.000206405 -33.1051 0.000336185 -1.95956 -0.000351782
-32.9595 -0.000280573 -33.1101 0.000197792 -1.84063 -0.000330432
-32.9617 -0.000347044 -33.1139 9.24982e-05 -1.75358 -0.000314805
-32.9634 -0.000400457 -33.1165 2.07877e-05 -1.69115 -0.000303598
-32.9649 -0.000446468 -33.1185 -3.32417e-05 -1.65487 -0.000297085
-32.9663 -0.000489543 -33.1202 -8.22165e-05 -1.65416 -0.000296957
-32.9675 -0.000526963 -33.1217 -0.000123834 -1.68995 -0.000303382
-32.9685 -0.000556936 -33.1228 -0.000154769 -1.75729 -0.000315471
-32.9693 -0.000582157 -33.1237 -0.000179056 -1.85629 -0.000333243
-32.97 -0.00060426 -33.1245 -0.000200153 -1.98931 -0.000357123
-32.9706 -0.000622192 -33.1251 -0.000216551 -2.15364 -0.000386623
-32.9711 -0.000636221 -33.1254 -0.000226985 -2.34392 -0.000420783
-32.9714 -0.000647614 -33.1257 -0.000232641 -2.5576 -0.000459143
-32.9718 -0.000657697 -33.1257 -0.000234775 -2.79221 -0.000501261
-32.9721 -0.000667028 -33.1202 -0.000233043 -3.04165 -0.000546041
-32.9724 -0.000675876 -33.101 -0.000226994 -3.29897 -0.000592235
-32.9726 -0.000684603 -33.0711 -0.000217584 -3.52301 -0.000632456
-32.973 -0.000694823 -33.0354 -0.000206386 -3.72376 -0.000668495
-32.9733 -0.000705124 -32.9924 -0.000192865 -3.83227 -0.000687974
-32.9736 -0.000715239 -32.9521 -0.000180186 -3.92037 -0.00070379
-32.974 -0.000725551 -32.9208 -0.000170326 -4.00287 -0.000718601
-32.9743 -0.000735112 -32.9004 -0.000163937 -4.08601 -0.000733526
-32.9746 -0.000743776 -32.8954 -0.000162356 -4.15911 -0.000746649
-32.9748 -0.000752289 -32.909 -0.000166627 -4.21004 -0.000755791
-32.9751 -0.000759093 -32.9366 -0.000175306 -4.24346 -0.000761792
-32.9752 -0.000763299 -32.9782 -0.000188393 -4.26777 -0.000766155
-32.9753 -0.000765967 -33.0388 -0.000207438 -4.27996 -0.000768345
-32.9753 -0.000767124 -33.1187 -0.00023256 -4.26359 -0.000765406
-32.9702 -0.000764541 -33.1267 -0.000261204 -4.21427 -0.00075655
-32.9558 -0.000757326 -33.1278 -0.000292219 -4.13786 -0.000742834
-32.9322 -0.000745434 -33.129 -0.000325207 -4.04092 -0.000725432
-32.8975 -0.000727978 -33.1302 -0.000358421 -3.92854 -0.000705256
-32.8484 -0.00070325 -33.1313 -0.000388648 -3.80821 -0.000683654
-32.7864 -0.000672043 -33.1322 -0.000414456 -3.68688 -0.000661874
-32.7135 -0.00063535 -33.1329 -0.000433917 -3.57477 -0.000641747
-32.6305 -0.000593591 -33.1333 -0.000445816 -3.47502 -0.000623841
-32.5412 -0.000548663 -33.1335 -0.000450632 -3.39082 -0.000608725
-32.4528 -0.000504164 -33.1284 -0.000449344 -3.32062 -0.000596122
-32.3651 -0.00046002 -33.0948 -0.000438761 -3.26951 -0.000586947
-32.2735 -0.000413936 -33.0176 -0.000414478 -3.24412 -0.000582388
-32.183 -0.000368405 -32.8965 -0.000376397 -3.24273 -0.000582139
-32.102 -0.000327599 -32.7348 -0.000325567 -3.2594 -0.000585131
-32.0304 -0.00029158 -32.5268 -0.000260163 -3.29015 -0.000590651
-31.9652 -0.000258765 -32.2646 -0.000177714 -3.33072 -0.000597935
-31.9116 -0.0002318 -31.9495 -7.86421e-05 -3.37144 -0.000605245
-31.8736 -0.000212675 -31.5654 4.21529e-05 -3.40302 -0.000610915
-31.8422 -0.000196862 -31.0602 0.000201003 -3.41878 -0.000613744
-31.8199 -0.000185648 -30.3218 0.000433166 -3.4103 -0.000612221
-31.809 -0.000180185 -28.9068 0.000878108 -3.36904 -0.000604814
-31.8068 -0.000179075 -24.3085 0.002324 -3.29179 -0.000590946
-31.8077 -0.000179509 -15.0795 0.00522598 -3.17479 -0.000569943
-31.8069 -0.000179124 -6.71911 0.00785483 -3.00491 -0.000539445
-31.8061 -0.000178683 -0.417156 0.00983643 -2.78286 -0.000499582
-31.8035 -0.000177392 0.0152583 0.0115245 -2.51021 -0.000450637
-31.7966 -0.000173931 0.0270042 0.012723 -2.18775 -0.000392747
-31.7895 -0.000170342 -0.0958752 0.0129228 -1.82006 -0.00032674
-31.7859 -0.000168521 -1.27322 0.012096 -1.41728 -0.000254432
-31.7792 -0.000165164 -3.49837 0.0105334 -0.990826 -0.000177874
-31.7682 -0.000159614 -6.59346 0.00835994 -0.551745 -9.905e-05
-31.7531 -0.000152015 -10.4341 0.00566292 -0.115235 -2.06871e-05
-31.7315 -0.000141178 -14.7683 0.0026192 0.217918 3.91209e-05
-31.7067 -0.000128687 -17.2006 0.000911165 0.422611 7.58677e-05
-31.6765 -0.000113475 -17.7121 0.000551963 0.59274 0.000106409
-31.6439 -9.70603e-05 -17.9587 0.000378825 0.743136 0.000133409
-31.618 -8.40657e-05 -18.1125 0.000270822 0.867965 0.000155818
-31.5942 -7.20664e-05 -18.2061 0.000205042 0.944196 0.000169503
-31.5788 -6.43089e-05 -18.2573 0.000169107 0.968231 0.000173818
-31.5759 -6.28772e-05 -18.2751 0.000156583 0.933676 0.000167615
-31.5856 -6.77211e-05 -18.2416 0.000167135 0.823827 0.000147895
-31.6067 -7.83394e-05 -18.1264 0.000203358 0.6337 0.000113763
-31.6439 -9.70809e-05 -17.9304 0.000264976 0.370355 6.64867e-05
-31.6892 -0.00011989 -17.6327 0.000358586 0.0905172 1.62498e-05
-31.745 -0.000147968 -17.1981 0.000495253 -0.139899 -2.51149e-05
-31.8031 -0.000177173 -16.5199 0.000708489 -0.380974 -6.83929e-05
-31.8568 -0.00020424 -15.1905 0.00112651 -0.644322 -0.00011567
-31.9063 -0.000229122 -12.0062 0.00212779 -0.930875 -0.000167112
-31.9515 -0.000251861 -7.92123 0.00341228 -1.21873 -0.000218788
-31.9898 -0.000271171 -4.95782 0.0043441 -1.49004 -0.000267493
-32.0208 -0.000286746 -3.50337 0.00480143 -1.74589 -0.000313424
-32.0464 -0.000299639 -3.76753 0.00471837 -1.98832 -0.000356946
-32.0686 -0.000310814 -5.89765 0.00404857 -2.21009 -0.000396758
-32.0897 -0.00032145 -10.0107 0.00275525 -2.40131 -0.000431086
-32.1108 -0.00033206 -14.7366 0.00126926 -2.5619 -0.000459915
-32.1307 -0.000342048 -16.6202 0.000676961 -2.7005 -0.000484797
-32.1391 -0.000346282 -17.4708 0.000409502 -2.81708 -0.000505726
-32.1431 -0.00034828 -18.0502 0.000227306 -2.90993 -0.000522393
-32.149 -0.000351275 -18.3826 8.11499e-05 -2.97888 -0.000534773
-32.1498 -0.000351677 -18.5541 -3.92919e-05 -3.03036 -0.000544014
-32.1425 -0.000348013 -18.6976 -0.000140113 -3.07086 -0.000551285
-32.1294 -0.000341432 -18.8557 -0.000251138 -3.0643 -0.000550106
-32.1124 -0.000332858 -18.6761 -0.000232926 -2.2699 -0.000407495
-32.172 -0.000362866 -18.352 -0.000131026 -1.73335 -0.000311173
-32.1346 -0.000344043 -18.8112 -0.000275407 -2.00711 -0.000360319
-32.1237 -0.000338531 -19.1216 -0.000437806 -2.47666 -0.000444612
-32.1149 -0.000334133 -19.1721 -0.000477614 -2.49308 -0.00044756
-32.1462 -0.00034985 -19.0342 -0.000434245 -2.41009 -0.000432662
-32.1665 -0.000360097 -19.1208 -0.000461486 -2.68463 -0.000481948
-32.1818 -0.000367787 -19.2385 -0.000519903 -3.1018 -0.000556839
-32.2079 -0.000380908 -19.268 -0.000541542 -3.27669 -0.000588236
-32.252 -0.000403124 -19.1831 -0.000514829 -3.38524 -0.000607722
-32.3004 -0.000427488 -19.1271 -0.000497218 -3.64488 -0.000654334
-32.3436 -0.000449199 -19.1158 -0.000493682 -3.9583 -0.0007106
-32.3922 -0.000473647 -19.0853 -0.000484068 -4.17372 -0.000749272
-32.4438 -0.000499615 -18.9915 -0.000454598 -4.33393 -0.000778033
-32.4922 -0.000523995 -18.8947 -0.000424145 -4.56347 -0.00081924
-32.5386 -0.00054736 -18.8409 -0.000407242 -4.82983 -0.000867056
-32.5849 -0.000570648 -18.7953 -0.000392893 -5.01773 -0.00090079
-32.6324 -0.000594551 -18.7356 -0.000374108 -5.12896 -0.000920757
-32.6813 -0.000619159 -18.6923 -0.000360522 -5.24565 -0.000941706
-32.7325 -0.000644905 -18.6886 -0.00035934 -5.37232 -0.000964445
-32.783 -0.000670351 -18.7047 -0.000364403 -5.44264 -0.00097707
-32.8345 -0.000696253 -18.7302 -0.000372437 -5.43932 -0.000976474
-32.8893 -0.000723834 -18.7799 -0.000388045 -5.3954 -0.000968589
-32.9464 -0.000752573 -18.8603 -0.000413318 -5.3208 -0.000955198
-32.9755 -0.000772658 -18.9529 -0.000442461 -5.19201 -0.000932077
-32.9761 -0.000791624 -19.0545 -0.000474406 -4.9849 -0.000894896
-32.9768 -0.00081221 -19.1529 -0.000505331 -4.70991 -0.000845529
-32.9775 -0.000834233 -19.2571 -0.000538094 -4.41106 -0.00079188
-32.9782 -0.000854901 -19.3192 -0.000576631 -4.11088 -0.00073799
-32.9788 -0.000874752 -19.3772 -0.000617319 -3.8003 -0.000682235
-32.9794 -0.000894284 -19.4336 -0.000656944 -3.47838 -0.000624443
-32.98 -0.000912715 -19.4851 -0.00069308 -3.16117 -0.000567498
-32.9806 -0.000928767 -19.532 -0.000726067 -2.86823 -0.000514908
-32.981 -0.000941924 -19.5771 -0.000757714 -2.61209 -0.000468926
-32.9813 -0.000952335 -19.6194 -0.00078738 -2.40198 -0.000431206
-32.9816 -0.000959689 -19.6563 -0.000813345 -2.24593 -0.000403193
-32.9817 -0.00096412 -19.6837 -0.000832544 -2.14447 -0.000384979
-32.9818 -0.000966058 -19.7004 -0.000844306 -2.09945 -0.000376896
-32.9801 -0.000965289 -19.7086 -0.000850045 -2.1175 -0.000380136
-32.9695 -0.000959963 -19.7043 -0.000848984 -2.20501 -0.000395847
-32.9464 -0.000948331 -19.6777 -0.000840619 -2.36236 -0.000424093
-32.9128 -0.000931418 -19.6258 -0.00082428 -2.57447 -0.000462173
-32.8711 -0.00091044 -19.5514 -0.000800913 -2.8292 -0.000507902
-32.8293 -0.000889412 -19.472 -0.000775936 -3.11857 -0.00055985
-32.7849 -0.000867052 -19.3847 -0.000748472 -3.43972 -0.000617503
-32.7298 -0.000839331 -19.2784 -0.000715059 -3.78531 -0.000679544
-32.6715 -0.000809983 -19.1599 -0.000677786 -4.14151 -0.00074349
-32.6171 -0.00078261 -19.0425 -0.000640882 -4.49996 -0.000807838
-32.5637 -0.000755743 -18.9283 -0.000604975 -4.853 -0.000871217
-32.5095 -0.000728456 -18.813 -0.000568703 -5.1833 -0.000930513
-32.4584 -0.000702767 -18.7012 -0.000533555 -5.45661 -0.000979577
-32.411 -0.000678878 -18.5983 -0.000501214 -5.61855 -0.00100865
-32.3649 -0.000655695 -18.4848 -0.000465506 -5.60746 -0.00100666
-32.3115 -0.000628802 -18.4248 -0.000446658 -4.93554 -0.000886035
-32.2504 -0.000598057 -18.3981 -0.000438239 -4.90691 -0.000880895
-32.1949 -0.000570151 -18.3654 -0.000427967 -5.35638 -0.000961585
-32.1223 -0.000533622 -18.3532 -0.000424131 -5.58577 -0.00100276
-32.0431 -0.000493728 -18.3794 -0.000432364 -5.28976 -0.000949625
-31.9579 -0.000450883 -18.4351 -0.000449892 -4.97159 -0.000892507
-31.8681 -0.000405696 -18.4875 -0.000466361 -4.94466 -0.000887671
-31.771 -0.000356812 -18.5334 -0.000480809 -4.96752 -0.000891776
-31.6686 -0.000305283 -18.586 -0.000497338 -4.74194 -0.000851279
-31.5647 -0.000252995 -18.6461 -0.000516222 -4.39056 -0.0007882
-31.4483 -0.000194415 -18.6917 -0.00053056 -4.16502 -0.000747711
-31.3253 -0.000132495 -18.7136 -0.000537472 -4.05324 -0.000727642
-31.1927 -6.57745e-05 -18.7196 -0.000539338 -3.8832 -0.000697117
-31.0378 1.21553e-05 -18.7124 -0.00053708 -3.62599 -0.000650942
-30.8478 0.000107806 -18.6843 -0.000528241 -3.40704 -0.000611636
-30.6027 0.000231159 -18.6348 -0.000512671 -3.29052 -0.000590717
-30.2565 0.000405363 -18.5582 -0.000488604 -3.20609 -0.000575562
-29.6602 0.000705471 -18.4574 -0.000456892 -3.09664 -0.000555913
-28.1154 0.0014829 -18.3304 -0.000416969 -2.99653 -0.000537941
-22.1819 0.00446899 -18.1805 -0.000369823 -2.95385 -0.00053028
-14.6724 0.0082482 -17.9937 -0.000311109 -2.95788 -0.000531003
-6.89885 0.0121603 -17.768 -0.000240125 -2.9638 -0.000532065
0.00518611 0.0162158 -17.5033 -0.000156896 -2.96286 -0.000531896
0.063928 0.022826 -17.1885 -5.79147e-05 -2.97371 -0.000533844
0.171313 0.0349101 -16.8007 6.4022e-05 -3.00024 -0.000538607
0.328213 0.0525661 -16.2911 0.000224263 -3.0175 -0.000541706
0.506903 0.0726742 -15.4628 0.000484734 -3.00092 -0.000538728
0.679128 0.0920547 -13.0011 0.00125877 -2.95793 -0.000531011
0.835881 0.109694 -1.29552 0.0049395 -2.91214 -0.000522791
0.989267 0.126955 0.0698934 0.0125146 -2.85231 -0.00051205
1.13982 0.143897 0.181597 0.0239702 -2.75517 -0.000494611
1.27071 0.158626 0.356727 0.0419302 -2.63676 -0.000473355
1.38603 0.171603 0.546614 0.0614036 -2.46978 -0.000443377
1.48499 0.182739 0.731834 0.0803985 -2.26555 -0.000406715
1.56678 0.191942 0.907211 0.0983839 -2.02536 -0.000363595
1.63219 0.199303 1.07189 0.115272 -1.77742 -0.000319085
1.67538 0.204163 1.22871 0.131354 -1.45502 -0.000261206
1.69623 0.206509 1.37953 0.146821 -1.07864 -0.000193639
1.56406 0.206759 1.52108 0.161337 -0.678846 -0.000121867
0.692164 0.206321 1.64835 0.17439 -0.248157 -4.45495e-05
-0.137992 0.205054 1.75384 0.185208 0.0272589 4.89356e-06
-0.83704 0.200404 1.84847 0.194913 0.317557 5.70083e-05
-1.72321 0.194509 1.9292 0.203192 0.607075 0.000108983
-2.73211 0.187798 1.99564 0.210005 0.944721 0.000169597
-3.83065 0.18049 2.04388 0.214953 1.31399 0.000235889
-4.94208 0.173096 2.07672 0.21832 1.6705 0.000299891
-6.07445 0.165564 2.10159 0.220871 2.00518 0.000359973
-7.25836 0.157688 2.11528 0.222275 2.33915 0.000419927
-8.41356 0.150003 2.12148 0.222911 2.68191 0.000481461
-9.56451 0.142347 2.12719 0.223496 3.01355 0.000540996
-10.7238 0.134635 2.12996 0.22378 3.3185 0.000595742
-11.9347 0.12658 2.14035 0.224846 3.59341 0.000645093
-13.1677 0.118377 2.13926 0.225286 3.83835 0.000689065
-14.4264 0.110005 1.77354 0.225171 4.05856 0.000728599
-15.6979 0.101546 1.30611 0.225024 4.25236 0.000763389
-16.9155 0.0934465 0.702193 0.224834 4.40425 0.000790657
-18.0505 0.085896 -0.0245293 0.224441 4.50633 0.000808981
-19.0718 0.0791024 -0.251576 0.222847 4.57481 0.000821276
-19.9966 0.07295 -0.623935 0.220233 4.61524 0.000828533
-20.8297 0.0674083 -1.07053 0.217098 4.60015 0.000825824
-21.5645 0.0625201 -1.60623 0.213337 4.49045 0.000806131
-22.2296 0.0580959 -2.23449 0.208927 4.28799 0.000769785
-22.8564 0.0539259 -2.95941 0.203838 4.00687 0.000719318
-23.4509 0.0499713 -3.76691 0.19817 3.65402 0.000655975
-24.0042 0.0462904 -4.64941 0.191974 3.2309 0.000580015
-24.5187 0.0428684 -5.62282 0.185141 2.74011 0.000491908
-24.9936 0.0397092 -6.72054 0.177435 2.19252 0.000393605
-25.4254 0.0368364 -7.95568 0.168765 1.60158 0.000287518
-25.7999 0.0343452 -9.32402 0.159159 0.981048 0.000176119
-26.1022 0.0323343 -10.8069 0.148749 0.358618 6.43795e-05
-26.337 0.0307725 -12.3357 0.138018 -0.0833759 -1.49677e-05
-26.4834 0.0297984 -13.9072 0.126986 -0.40421 -7.25643e-05
-26.3511 0.0298 -15.6988 0.114409 -0.685037 -0.000122979
-25.7195 0.0301178 -17.7101 0.10029 -0.981086 -0.000176126
-24.4877 0.0307377 -19.9051 0.0848812 -1.31019 -0.000235207
-22.5411 0.0317174 -22.203 0.06875 -1.63959 -0.000294341
-19.9287 0.0330321 -24.5855 0.0520253 -1.93868 -0.000348035
-16.7382 0.0346377 -27.0999 0.0343738 -2.21768 -0.000398121
-13.0842 0.0364766 -29.7438 0.0158145 -2.5056 -0.000449809
-9.07064 0.0384965 -31.8824 0.000801795 -2.81893 -0.000506058
-5.48653 0.0403002 -31.9457 0.000357186 -3.18638 -0.000572023
-2.77725 0.0416637 -31.9729 0.000166526 -3.51107 -0.000630312
-0.122646 0.0429997 -31.9912 3.77317e-05 -3.82863 -0.000687321
0.0151834 0.0447233 -32.0053 -6.10436e-05 -4.17795 -0.00075003
0.0400169 0.0474416 -32.0161 -0.000137035 -4.54807 -0.000816476
0.0758761 0.0513667 -32.0241 -0.000193466 -4.93251 -0.000885491
0.118397 0.0560211 -32.0296 -0.000231578 -5.25379 -0.000943168
0.165965 0.0612278 -32.0328 -0.000254312 -5.51804 -0.000990606
0.215997 0.0667043 -32.0343 -0.000265158 -5.80482 -0.00104209
0.254461 0.0709146 -32.0336 -0.00026756 -6.22426 -0.00111739
0.278562 0.0735527 -31.9778 -0.000250009 -6.48551 -0.00116429
0.287115 0.0744889 -31.8902 -0.000222475 -6.40272 -0.00114942
0.149541 0.0745197 -31.7762 -0.000186609 -6.44853 -0.00115765
-0.213187 0.0738633 -31.644 -0.000145054 -6.76764 -0.00121494
-0.695204 0.0725495 -31.4817 -9.40061e-05 -7.22243 -0.00129658
-1.3539 0.0707541 -31.3038 -3.80819e-05 -7.46949 -0.00134093
-2.1121 0.0686875 -31.12 1.97026e-05 -7.40323 -0.00132904
-2.69345 0.0671029 -30.9456 7.45553e-05 -7.22789 -0.00129756
-3.39621 0.0651874 -30.8027 0.000119497 -7.19658 -0.00129194
-4.23236 0.0629084 -30.6684 0.000161704 -7.25706 -0.0013028
-5.20207 0.0602652 -30.5531 0.000197973 -7.15111 -0.00128378
-6.32137 0.0572144 -30.4993 0.000214879 -6.79264 -0.00121942
-7.51822 0.0539522 -30.5084 0.00021201 -6.34634 -0.0011393
-8.74008 0.0506218 -30.5591 0.000196082 -5.94477 -0.00106721
-9.90891 0.0474359 -30.6279 0.000174452 -5.53317 -0.000993322
-10.8819 0.0447838 -30.7062 0.000149815 -5.02693 -0.00090244
-11.8224 0.0422203 -30.8095 0.000117342 -4.44654 -0.000798248
-12.9188 0.0392318 -30.9354 7.77457e-05 -3.87449 -0.000695553
-14.066 0.036105 -31.0402 4.48078e-05 -3.26834 -0.000586736
-15.0396 0.0334514 -31.1066 2.3928e-05 -2.65315 -0.000476296
-16.1739 0.0303595 -31.1702 3.92653e-06 -2.04402 -0.000366945
-17.3936 0.0270349 -31.2218 -1.23021e-05 -1.44325 -0.000259095
-18.5703 0.0238278 -31.2355 -1.65957e-05 -0.856324 -0.000153728
-19.6324 0.0209328 -31.2074 -7.78438e-06 -0.295033 -5.29647e-05
-20.6219 0.0182358 -31.1479 1.09364e-05 0.072426 1.3002e-05
-21.6504 0.0154324 -31.0488 4.21147e-05 0.330055 5.92518e-05
-22.6651 0.0126666 -30.8913 9.16183e-05 0.5543 9.95087e-05
-23.4886 0.0104219 -30.6604 0.000164225 0.758742 0.00013621
-24.2644 0.00830748 -30.3308 0.00026787 0.947578 0.00017011
-25.0037 0.00629241 -29.8298 0.000425394 1.1114 0.000199519
-25.6591 0.00450587 -28.8853 0.000722384 1.24095 0.000222777
-26.206 0.00301537 -25.552 0.00177053 1.33582 0.000239807
-26.5824 0.0019894 -16.1758 0.00471877 1.40313 0.000251891
-26.7339 0.00157626 -6.00685 0.00791632 1.46025 0.000262146
-26.8215 0.0013375 0.0154323 0.01138 1.50312 0.000269842
-26.9068 0.00110515 0.0748625 0.0174451 1.51966 0.00027281
-26.9729 0.000924895 0.169497 0.0271029 1.50729 0.000270591
-27.0189 0.000799482 0.284177 0.0388064 1.47855 0.000265432
-27.056 0.00069848 0.393008 0.0499131 1.44472 0.000259358
-27.0906 0.000603998 0.480771 0.0588696 1.40175 0.000251644
-27.1181 0.000529223 0.544753 0.0653991 1.35125 0.000242578
-27.1385 0.000473437 0.587558 0.0697675 1.30814 0.000234838
-27.1569 0.00042343 0.604748 0.0715219 1.28774 0.000231178
-27.1726 0.000380707 -0.042426 0.0712493 1.27629 0.000229121
-27.1816 0.00035613 -0.930285 0.0690789 1.25987 0.000226173
-27.186 0.000343969 -2.60354 0.0649885 1.24378 0.000223285
-27.1894 0.000334938 -5.05202 0.059003 1.23707 0.000222081
-27.187 0.000334811 -8.12313 0.0514955 1.22856 0.000220553
-27.1611 0.000347805 -11.6839 0.0427908 1.20407 0.000216157
-27.1166 0.000370245 -15.6479 0.0331007 1.16855 0.000209779
-27.0591 0.000399142 -19.8832 0.0227472 1.13566 0.000203876
-26.9809 0.000438498 -24.1388 0.0123439 1.09555 0.000196674
-26.8638 0.000497427 -28.3287 0.0021015 1.0159 0.000182375
-26.7537 0.00055285 -28.976 0.000519021 0.828666 0.000148763
-26.5831 0.000638723 -29.0803 0.000264118 0.600489 0.000107801
-26.3143 0.000774005 -29.1397 0.000118978 0.325176 5.83761e-05
-25.9656 0.000949488 -29.1825 1.4195e-05 0.00230955 4.14614e-07
-25.3721 0.00124814 -29.2132 -6.08195e-05 -0.31637 -5.67952e-05
-24.3249 0.00177516 -29.2364 -0.000117522 -0.652137 -0.000117072
-22.8156 0.00253472 -29.2528 -0.000157546 -0.987418 -0.000177262
-20.6646 0.00361726 -29.2635 -0.0001837 -1.32713 -0.000238248
-18.0871 0.00491439 -29.2687 -0.000196338 -1.69859 -0.000304933
-15.2219 0.00635631 -29.269 -0.000198669 -2.12467 -0.000381424
-12.0813 0.00793684 -29.2503 -0.000192774 -2.58752 -0.000464516
-8.65553 0.00966091 -29.2055 -0.0001787 -3.04897 -0.000547356
-5.00073 0.0115002 -29.1351 -0.000156561 -3.49038 -0.000626598
-1.15731 0.0134345 -29.0438 -0.000127842 -3.92291 -0.000704245
0.0168688 0.0159182 -28.9397 -9.51224e-05 -4.35909 -0.00078255
0.0554142 0.0202627 -28.8382 -6.32023e-05 -4.78459 -0.000858936
0.126016 0.0282203 -28.7324 -2.99438e-05 -5.17517 -0.000929053
0.229977 0.0399379 -28.6309 1.99046e-06 -5.51624 -0.000990283
0.347394 0.0531721 -28.544 2.93054e-05 -5.80953 -0.00104294
0.471194 0.0671257 -28.4776 5.01952e-05 -6.05964 -0.00108783
0.604538 0.082155 -28.4297 6.52479e-05 -6.2628 -0.00112431
0.753249 0.0989165 -28.4002 7.45159e-05 -6.41374 -0.0011514
0.916951 0.117368 -28.3955 7.59979e-05 -6.50596 -0.00116796
1.08681 0.136513 -28.408 7.20537e-05 -6.53717 -0.00117356
1.25332 0.15528 -28.4255 6.65753e-05 -6.5045 -0.0011677
1.42242 0.17434 -28.4407 6.1783e-05 -6.39864 -0.00114869
1.59024 0.193255 -28.4406 6.18171e-05 -6.21168 -0.00111513
1.75804 0.212168 -28.4194 6.84859e-05 -5.95151 -0.00106842
1.91475 0.229831 -28.3703 8.39247e-05 -5.64708 -0.00101377
2.05755 0.245926 -28.2894 0.00010936 -5.33605 -0.000957935
2.1882 0.260651 -28.1494 0.000153396 -5.00613 -0.000898708
2.30485 0.2738 -27.9173 0.000226374 -4.63308 -0.000831737
2.40526 0.285117 -27.5626 0.000337882 -4.24806 -0.000762616
2.4841 0.294003 -26.9711 0.000523895 -3.87569 -0.00069577
2.54599 0.300978 -25.57 0.000964446 -3.51084 -0.000630271
2.59179 0.30614 -18.3825 0.00322448 -3.10228 -0.000556925
2.62424 0.309798 -6.01298 0.00711398 -2.65491 -0.000476613
2.6471 0.312375 0.0333812 0.0124144 -2.20647 -0.000396109
2.62463 0.312864 0.176446 0.0270275 -1.81534 -0.000325892
2.65261 0.312995 0.38823 0.0486598 -1.42353 -0.000255553
2.65964 0.313788 0.613988 0.0717195 -0.980366 -0.000175997
2.66435 0.314319 0.837645 0.0945645 -0.506363 -9.0903e-05
2.67251 0.315238 1.05127 0.116385 -0.123363 -2.21463e-05
2.69676 0.317971 1.25332 0.137023 0.135127 2.42582e-05
2.73181 0.321923 1.45616 0.157741 0.386329 6.93543e-05
2.77343 0.326613 1.65607 0.178161 0.661308 0.000118719
2.82415 0.33233 1.84758 0.197723 0.959993 0.000172339
2.88523 0.339215 2.03031 0.216387 1.26206 0.000226566
2.956 0.347191 2.20615 0.234348 1.5567 0.000279461
3.03171 0.355725 2.37816 0.251918 1.85537 0.000333078
3.1099 0.364538 2.56385 0.270884 2.18841 0.000392865
3.18638 0.373157 2.75831 0.290748 2.49312 0.000447568
3.27693 0.383364 2.93017 0.308302 2.76583 0.000496525
3.366 0.393403 3.0975 0.325393 3.08446 0.000553726
3.45154 0.403044 3.2752 0.343544 3.42853 0.000615493
3.53856 0.412853 3.45592 0.362003 3.71568 0.000667044
3.62963 0.423116 3.62779 0.379559 3.90473 0.000700982
3.7196 0.433257 3.79596 0.396737 4.12795 0.000741054
3.80782 0.4432 3.97002 0.414515 4.44395 0.000797784
3.90013 0.453604 4.1429 0.432174 4.7094 0.000845438
3.99606 0.464417 4.30791 0.449029 4.85049 0.000870766
4.09378 0.475432 4.46637 0.465214 4.96682 0.000891651
4.19424 0.486755 4.62311 0.481224 5.12712 0.000920428
4.30012 0.498689 4.77423 0.49666 5.28093 0.000948038
4.40931 0.510995 4.91667 0.511209 5.36543 0.000963209
4.51753 0.523193 5.05701 0.525545 5.39729 0.000968928
4.65877 0.539112 5.20751 0.540917 5.4213 0.000973238
4.78575 0.553425 5.34385 0.554842 5.45461 0.000979219
4.89705 0.565969 5.46715 0.567437 5.45131 0.000978626
5.01492 0.579255 5.58311 0.579282 5.38746 0.000967163
5.12627 0.591804 5.68847 0.590043 5.29075 0.000949802
5.22504 0.602937 5.77692 0.599079 5.17709 0.000929398
5.32403 0.614095 5.84984 0.606526 5.03607 0.000904082
5.42032 0.624948 5.9074 0.612406 4.86705 0.000873738
5.5046 0.634447 5.94778 0.61653 4.68223 0.00084056
5.57968 0.642909 5.9707 0.618871 4.49058 0.000806154
5.64734 0.650536 5.93115 0.619452 4.29424 0.000770907
5.7007 0.656549 4.93327 0.619138 4.08847 0.000733968
5.73728 0.660673 2.841 0.61848 3.87563 0.000695758
5.75703 0.662899 -0.00580669 0.617478 3.66086 0.000657202
5.7354 0.663302 -0.17579 0.614291 3.45738 0.000620674
5.25221 0.663058 -0.553136 0.607215 3.27069 0.000587158
4.21801 0.662538 -1.02933 0.598285 3.08828 0.000554413
2.70777 0.661778 -1.57876 0.587983 2.91717 0.000523694
0.764714 0.6608 -2.20028 0.576328 2.75755 0.00049504
-0.0529319 0.659345 -2.9028 0.563155 2.6046 0.000467581
-0.229798 0.655769 -3.66546 0.548854 2.45445 0.000440626
-0.498429 0.650338 -4.46885 0.533789 2.30827 0.000414383
-0.779739 0.64465 -5.30995 0.518017 2.16322 0.000388345
-1.06588 0.638864 -6.17471 0.501802 2.01126 0.000361064
-1.34125 0.633297 -7.05395 0.485315 1.8517 0.000332419
-1.59942 0.628077 -7.93368 0.468818 1.68174 0.000301909
-1.83751 0.623263 -8.80066 0.452561 1.49783 0.000268892
-2.05399 0.618886 -9.64269 0.436772 1.29616 0.000232689
-2.24699 0.614984 -10.4454 0.421719 1.07684 0.000193316
-2.41464 0.611594 -11.1953 0.407657 0.842884 0.000151316
-2.55529 0.60875 -11.8816 0.394789 0.600518 0.000107806
-2.66829 0.606465 -12.4938 0.38331 0.371307 6.66575e-05
-2.75478 0.604717 -13.0235 0.373377 0.142708 2.56191e-05
-2.82057 0.603386 -13.4704 0.364996 -0.105896 -1.90107e-05
-2.88654 0.602052 -13.8142 0.35855 -0.262445 -4.71145e-05
-2.97377 0.600289 -14.0602 0.353938 -0.414631 -7.4435e-05
-3.10644 0.597606 -14.2029 0.351261 -0.575147 -0.000103251
-3.30388 0.593614 -14.2439 0.350493 -0.747843 -0.000134254
-3.57432 0.588146 -13.4034 0.350757 -0.926936 -0.000166405
-3.92188 0.581119 -11.5918 0.351327 -1.10061 -0.000197584
-4.34258 0.572613 -9.07278 0.352119 -1.26066 -0.000226316
-4.77431 0.563884 -6.40039 0.352959 -1.40316 -0.000251897
-5.26475 0.553968 -3.61588 0.353835 -1.53332 -0.000275264
-5.80856 0.542972 -1.13331 0.354615 -1.6496 -0.000296138
-6.37487 0.531522 0.00407067 0.35523 -1.74526 -0.000313311
-6.97687 0.51935 0.0112916 0.355688 -1.8144 -0.000325724
-7.60696 0.506611 -0.00606905 0.355684 -1.8516 -0.000332401
-8.26272 0.493352 -0.0597811 0.355096 -1.85946 -0.000333813
-8.93751 0.479709 -0.165902 0.353936 -1.82578 -0.000327766
-9.64865 0.46533 -0.317876 0.352274 -1.73303 -0.000311116
-10.3865 0.450412 -0.518408 0.350081 -1.5747 -0.000282692
-11.112 0.435743 -1.07457 0.344 -1.3571 -0.000243628
-11.8851 0.420111 -1.74559 0.336662 -1.12912 -0.000202702
-12.6859 0.403921 -2.4652 0.328794 -0.887115 -0.000159256
-13.5136 0.387185 -3.19331 0.320832 -0.619478 -0.00011121
-14.4014 0.369235 -3.95954 0.312453 -0.315043 -5.65569e-05
-15.3513 0.350029 -4.77517 0.303534 -0.0431208 -7.7411e-06
-16.3387 0.330063 -5.64734 0.293997 0.190985 3.42859e-05
-17.3274 0.310074 -6.54259 0.284208 0.41455 7.44206e-05
-18.3123 0.29016 -7.47106 0.274055 0.640678 0.000115015
-19.2871 0.270451 -8.46034 0.263238 0.874246 0.000156946
-20.2448 0.251087 -9.48903 0.251989 1.09911 0.000197314
-21.1767 0.232245 -10.5249 0.240663 1.2994 0.00023327
-22.0953 0.213671 -11.529 0.229682 1.47287 0.000264411
-23.0199 0.194977 -12.518 0.218868 1.62388 0.00029152
-23.9559 0.176053 -13.47 0.208458 1.75138 0.000314411
-24.8995 0.156975 -14.3693 0.198624 1.84675 0.00033153
-25.8502 0.137751 -15.2139 0.189389 1.90083 0.00034124
-26.8048 0.118451 -16.0184 0.180592 1.91282 0.000343391
-27.7489 0.0993633 -16.8039 0.172002 1.87302 0.000336247
-28.675 0.0806377 -17.5857 0.163454 1.77267 0.000318232
-29.5735 0.0624716 -18.372 0.154856 1.61032 0.000289087
-30.4313 0.0451266 -19.1772 0.146051 1.39363 0.000250187
-31.2389 0.0287983 -20.0209 0.136825 1.13056 0.00020296
-31.9871 0.0136717 -20.9301 0.126883 0.824996 0.000148104
-32.5914 0.00145352 -21.9335 0.115912 0.486725 8.73775e-05
-32.6245 0.000784271 -23.1545 0.102561 0.164402 2.95136e-05
-32.6352 0.000566108 -24.3531 0.0894537 -0.0480943 -8.63395e-06
-32.6416 0.00043671 -25.6303 0.0754877 -0.207264 -3.72083e-05
-32.6463 0.00034173 -27.0719 0.0597245 -0.391538 -7.02894e-05
-32.6496 0.000275702 -28.5899 0.0431248 -0.629225 -0.000112959
-32.6517 0.000233692 -30.1299 0.0262862 -0.898555 -0.00016131
-32.6532 0.000202741 -31.7202 0.00889557 -1.15877 -0.000208024
-32.6554 0.000158331 -32.4771 0.00061918 -1.43141 -0.000256968
-32.6569 0.000127957 -32.5076 0.000285887 -1.72411 -0.000309514
-32.6579 0.000107526 -32.5231 0.00011676 -2.03433 -0.000365206
-32.6593 8.01822e-05 -32.5349 -1.25532e-05 -2.38162 -0.000427551
-32.6604 5.64773e-05 -32.5449 -0.00012135 -2.75845 -0.0004952
-32.6609 4.69633e-05 -32.5532 -0.000212156 -3.13468 -0.000562741
-32.6608 4.58449e-05 -32.5603 -0.000289723 -3.4929 -0.00062705
-32.6543 4.91262e-05 -32.5666 -0.000358977 -3.85006 -0.000691168
-32.6213 6.57584e-05 -32.5722 -0.000419956 -4.23623 -0.000760494
-32.5467 0.00010328 -32.5772 -0.000474899 -4.65276 -0.00083527
-32.4334 0.000160299 -32.5819 -0.000526528 -5.06388 -0.000909074
-32.267 0.000244051 -32.5856 -0.00056742 -5.44497 -0.000977487
-32.0355 0.000360538 -32.5888 -0.000602016 -5.8119 -0.00104336
-31.7284 0.000515078 -32.5919 -0.000635834 -6.21802 -0.00111627
-31.3147 0.00072332 -32.5944 -0.000663378 -6.58696 -0.0011825
-30.4438 0.0011616 -32.5963 -0.000683709 -6.93379 -0.00124476
-27.717 0.00253385 -32.5974 -0.000696033 -7.27253 -0.00130557
-22.9514 0.00493219 -32.5978 -0.00070013 -7.35352 -0.00132011
-17.6352 0.00760762 -32.5912 -0.00069889 -7.41113 -0.00133046
-11.9649 0.0104612 -32.5644 -0.00069048 -7.43011 -0.00133386
-6.19953 0.0133627 -32.5293 -0.000679424 -7.43056 -0.00133394
-0.305905 0.0163287 -32.4784 -0.000663433 -7.4357 -0.00133487
0.0369989 0.0206427 -32.4073 -0.00064109 -7.49195 -0.00134496
0.104386 0.0282194 -32.323 -0.000614584 -7.55258 -0.00135585
0.213088 0.0404412 -32.2335 -0.000586438 -7.5739 -0.00135968
0.355504 0.0564538 -32.1357 -0.000555661 -7.56142 -0.00135744
0.510689 0.073902 -32.0229 -0.000520212 -7.55331 -0.00135598
0.664375 0.0911818 -31.8951 -0.000480015 -7.57277 -0.00135947
0.809235 0.107469 -31.7608 -0.000437795 -7.57471 -0.00135982
0.947206 0.122982 -31.62 -0.000393513 -7.47015 -0.00134105
1.07727 0.137605 -31.4591 -0.000342912 -7.23739 -0.00129927
1.1989 0.151281 -31.2836 -0.000287726 -6.91316 -0.00124106
1.3164 0.164493 -31.0989 -0.000229665 -6.52987 -0.00117225
1.43487 0.177812 -30.9121 -0.000170929 -6.13051 -0.00110056
1.55793 0.191649 -30.7157 -0.00010918 -5.68671 -0.00102088
1.68644 0.206098 -30.5063 -4.33109e-05 -5.14538 -0.000923705
1.8257 0.221756 -30.2769 2.88222e-05 -4.52307 -0.000811988
1.97704 0.238772 -30.0175 0.000110389 -3.84998 -0.000691153
2.14486 0.25764 -29.7136 0.000205943 -3.16229 -0.000567698
2.32527 0.277925 -29.3216 0.000329189 -2.42005 -0.00043445
2.51735 0.299521 -28.7275 0.000515996 -1.62344 -0.000291441
2.72319 0.322665 -27.4871 0.000906028 -0.803176 -0.000144187
2.93398 0.346365 -21.8256 0.00268624 -0.177857 -3.19291e-05
3.15797 0.371549 -11.6074 0.00589927 0.186438 3.34696e-05
3.39314 0.397991 0.000288041 0.00957851 0.528348 9.48497e-05
3.63248 0.424901 0.0698013 0.0166746 0.866024 0.00015547
3.8693 0.451527 0.2255 0.0325687 1.1895 0.00021354
4.11156 0.478767 0.455532 0.0560509 1.50074 0.000269415
4.36039 0.506744 0.728582 0.0839244 1.79071 0.00032147
4.60998 0.534806 1.02843 0.114533 2.04455 0.00036704
4.85966 0.562879 1.35239 0.147604 2.26506 0.000406627
5.11781 0.591904 1.7028 0.183375 2.47171 0.000443724
5.38487 0.621932 2.0817 0.222054 2.67515 0.000480246
5.63964 0.650576 2.4943 0.264173 2.8589 0.000513233
5.98384 0.689277 2.97677 0.313424 3.0109 0.00054052
6.33463 0.728717 3.51903 0.36878 3.22813 0.000579517
6.64215 0.763293 4.08707 0.426767 3.36452 0.000604002
6.97205 0.800386 4.60647 0.479789 3.49985 0.000628298
7.32354 0.839906 5.12972 0.533203 3.64253 0.000653912
7.64945 0.87655 5.67179 0.588539 3.86045 0.000693033
7.97191 0.912805 6.21157 0.643641 4.0632 0.000729431
8.30893 0.950698 6.71713 0.695249 4.13472 0.000742271
8.63701 0.987586 7.20149 0.744694 4.37804 0.000785951
8.93253 1.02305 7.67369 0.792897 4.79909 0.00086154
8.93253 1.06053 8.11926 0.838382 5.13052 0.000921038
8.93253 1.09752 8.52487 0.879788 5.33944 0.000958543
8.93253 1.13283 8.89803 0.917881 5.62122 0.00100913
8.93253 1.16632 8.93253 0.950338 6.03552 0.0010835
8.93253 1.19657 8.93253 0.977395 6.44863 0.00115767
8.93253 1.22614 8.93253 1.00115 6.78357 0.00121779
8.93253 1.25228 8.93253 1.02339 7.089 0.00127263
8.93253 1.27683 8.93253 1.0431 7.19874 0.00129233
8.93253 1.30051 8.93253 1.06105 7.2856 0.00130792
8.93253 1.32382 8.93253 1.07748 7.35148 0.00131975
8.93253 1.3459 8.93253 1.09301 7.41832 0.00133175
8.93253 1.36727 8.93253 1.10805 7.49781 0.00134602
-1.04589 1.32377 -0.137222 1.10582 7.57526 0.00135992
-1.39349 1.30339 4.49027 1.10533 5.94931 0.00106803
3.57176 1.33104 8.93253 1.1158 6.13268 0.00110095
4.86814 1.34081 8.93253 1.148 6.76249 0.00121401
6.42267 1.35254 8.93253 1.17294 7.11645 0.00127755
8.71893 1.36986 8.93253 1.202 7.39644 0.00132782
8.93253 1.39053 8.93253 1.23154 7.67954 0.00137864
8.93253 1.40701 8.93253 1.25813 7.72361 0.00138655
8.93253 1.42683 8.93253 1.28307 7.66543 0.00137611
8.93253 1.44745 8.93253 1.30766 7.63204 0.00137011
8.93253 1.46615 8.93253 1.33404 7.6743 0.0013777
6.525 1.47167 -0.0161408 1.28596 6.80604 0.00122183
8.93253 1.47978 -0.0573743 1.28719 7.14828 0.00128327
8.93253 1.50636 5.68162 1.31699 7.51727 0.00134951
8.93253 1.53258 8.93253 1.35951 7.18912 0.0012906
8.93253 1.54972 8.93253 1.39538 6.92375 0.00124296
8.93253 1.56657 8.93253 1.43366 6.85457 0.00123054
8.93253 1.58075 8.93253 1.47398 7.03138 0.00126228
8.93253 1.59101 8.93253 1.51193 7.06578 0.00126846
8.93253 1.60161 8.93253 1.54648 6.9489 0.00124747
8.93253 1.61164 8.93253 1.58106 6.99828 0.00125634
8.93253 1.61942 8.93253 1.61544 7.28002 0.00130692
8.93253 1.62643 8.93253 1.64687 7.56583 0.00135823
8.93253 1.63363 8.93253 1.67399 7.57033 0.00135904
8.93253 1.63973 8.93253 1.69869 7.50827 0.00134789
8.93253 1.64512 8.93253 1.7209 7.52144 0.00135026
8.93253 1.65016 8.93253 1.73962 7.62077 0.00136809
8.93253 1.65461 8.93253 1.75446 7.67866 0.00137848
8.93253 1.65838 8.93253 1.76638 7.77499 0.00139578
8.93253 1.66172 8.93253 1.77561 7.86672 0.00141224
8.93253 1.66465 8.93253 1.78186 7.94115 0.0014256
8.93253 1.66721 8.93253 1.78543 8.02757 0.00144112
8.93253 1.66956 8.93253 1.78706 8.142 0.00146166
8.93253 1.67193 8.81079 1.78726 8.26216 0.00148323
8.93253 1.67439 8.05718 1.78702 8.36696 0.00150205
8.93253 1.67711 6.97167 1.78668 8.4665 0.00151992
8.93253 1.68022 5.97418 1.78636 8.57454 0.00153931
8.93253 1.68378 5.38528 1.78618 8.68548 0.00155923
8.93253 1.68798 5.55302 1.78623 8.79036 0.00157806
8.93253 1.69226 6.88237 1.78665 8.87972 0.0015941
8.93253 1.69667 8.93253 1.78765 8.95545 0.00160769
8.93253 1.70042 8.93253 1.79353 9.02848 0.0016208
8.93253 1.70383 8.93253 1.80273 9.09839 0.00163335
8.93253 1.7069 8.93253 1.81491 9.14568 0.00164184
8.93253 1.70965 8.93253 1.8298 9.17511 0.00164713
8.93253 1.71147 8.93253 1.84741 9.19618 0.00165091
8.93253 1.71269 8.93253 1.86769 9.21017 0.00165342
8.93253 1.71378 8.93253 1.89039 9.21288 0.00165391
8.93253 1.71489 8.93253 1.90864 2.73241 0.000490526
7.52312 1.72353 8.93253 1.91877 1.70274 0.000305678
7.73702 1.72363 8.93253 1.94793 1.68321 0.000302172
7.54496 1.72354 8.93253 1.97411 1.70516 0.000306112
6.61202 1.72307 8.93253 1.99932 2.074 0.000372327
6.54916 1.72304 8.93253 2.02688 2.08666 0.000374599
6.22716 1.72287 8.93253 2.05271 1.84327 0.000330907
5.58966 1.72255 8.93253 2.07463 1.66574 0.000299036
4.71373 1.72211 8.93253 2.09517 1.81476 0.000325788
3.41946 1.72146 8.93253 2.11475 2.0557 0.000369042
1.82936 1.72066 8.93253 2.13123 2.16748 0.000389109
0.0263114 1.71975 8.93253 2.14336 2.04254 0.000366679
-0.0370189 1.71782 8.93253 2.15217 2.00684 0.000360271
-0.115685 1.71374 8.93253 2.15852 2.09454 0.000376014
-0.240484 1.70727 8.93253 2.16176 2.17618 0.000390671
-0.393458 1.69934 8.1452 2.16176 2.16385 0.000388457
-0.568044 1.69029 5.47892 2.16092 2.10808 0.000378445
-0.75783 1.68045 0.970829 2.1595 2.11758 0.000380151
-0.959213 1.67001 -0.0566045 2.15553 2.18756 0.000392714
-1.14488 1.66039 -0.235861 2.14392 2.20715 0.000396231
-1.32416 1.65109 -0.472731 2.12858 2.25207 0.000404294
-1.49088 1.64245 -0.732335 2.11176 2.29485 0.000411975
-1.61041 1.63625 -0.953429 2.09744 2.32006 0.0004165
-1.71302 1.63093 -1.18229 2.08262 2.33961 0.00042001
-1.79617 1.62662 -1.41777 2.06736 2.36075 0.000423805
-1.86458 1.62307 -1.65557 2.05196 2.3888 0.00042884
-1.91013 1.62071 -1.88789 2.03691 2.41894 0.000434251
-1.93824 1.61925 -2.1056 2.02281 2.44262 0.000438502
-1.94802 1.61875 -2.30715 2.00975 2.45634 0.000440966
-1.95151 1.61857 -2.4931 1.99771 2.46522 0.000442559
-1.94079 1.61856 -2.65964 1.98692 2.47516 0.000444343
-1.89473 1.61858 -2.80442 1.97754 2.4653 0.000442574
-1.80085 1.61863 -2.91798 1.97019 2.3913 0.00042929
-1.68694 1.61869 -3.00114 1.9648 2.24578 0.000403165
-1.69264 1.61868 -3.06018 1.96098 2.02119 0.000362846
-1.84782 1.61861 -3.09316 1.95884 1.72139 0.000309027
-1.9567 1.6183 -3.02277 1.95838 1.36163 0.000244441
-1.97507 1.61735 -1.90105 1.95874 0.972263 0.000174542
-2.00342 1.61588 0.00341719 1.95941 0.5954 0.000106887
-2.04757 1.61359 0.1092 1.96181 0.276112 4.9568e-05
-2.11522 1.61008 0.356286 1.96742 0.248472 4.4606e-05
-2.19619 1.60588 0.656619 1.97423 0.19093 3.42761e-05
-2.29558 1.60073 0.980312 1.98158 0.0843327 1.51395e-05
-2.41322 1.59463 1.30774 1.989 -0.0399933 -7.17964e-06
-2.55011 1.58753 1.63592 1.99645 -0.123097 -2.20986e-05
-2.70234 1.57964 1.94292 2.00342 -0.21609 -3.87928e-05
-2.871 1.5709 2.21208 2.00952 -0.314779 -5.65095e-05
-3.05509 1.56135 2.42428 2.01434 -0.413969 -7.43162e-05
-3.25669 1.5509 2.57543 2.01777 -0.508117 -9.12178e-05
-3.44989 1.54089 2.6356 2.01913 -0.591556 -0.000106197
-3.65692 1.53015 1.84849 2.01889 -0.65876 -0.000118261
-3.88327 1.51842 -0.00207588 2.01818 -0.712466 -0.000127903
-4.11788 1.50625 -0.0610032 2.01461 -0.753048 -0.000135188
-4.34939 1.49425 -0.192136 2.00667 -0.781002 -0.000140207
-4.58271 1.48216 -0.370558 1.99586 -0.806424 -0.00014477
-4.80358 1.47071 -0.599014 1.98202 -0.829547 -0.000148921
-5.00762 1.46013 -0.879514 1.96503 -0.846839 -0.000152026
-5.19448 1.45044 -1.21002 1.94502 -0.852114 -0.000152973
-5.36349 1.44168 -1.5823 1.92247 -0.834809 -0.000149866
-5.49841 1.43468 -1.98847 1.89787 -0.788003 -0.000141463
-5.60683 1.42906 -2.43091 1.87107 -0.711781 -0.00012778
-5.69357 1.42457 -2.90707 1.84223 -0.612026 -0.000109872
-5.75138 1.42157 -3.40716 1.81194 -0.491046 -8.81531e-05
-5.78138 1.42001 -3.91917 1.78093 -0.365645 -6.56411e-05
-5.78768 1.41965 -4.42316 1.7504 -0.249595 -4.48076e-05
-5.61332 1.41974 -4.93714 1.71927 -0.165194 -2.96559e-05
-5.30732 1.41989 -5.45211 1.68808 -0.122927 -2.2068e-05
-4.75217 1.42017 -5.95632 1.65754 -0.119865 -2.15184e-05
-4.08261 1.42051 -6.43831 1.62835 -0.151966 -2.72811e-05
-3.53211 1.42078 -6.89008 1.60099 -0.214244 -3.84613e-05
-3.2004 1.42095 -7.30561 1.57582 -0.304938 -5.47428e-05
-3.09685 1.421 -7.6807 1.5531 -0.432167 -7.75832e-05
-3.20334 1.42095 -8.01144 1.53307 -0.56682 -0.000101756
-3.2415 1.42093 -8.28595 1.51644 -0.617753 -0.0001109
-3.3479 1.42088 -8.52095 1.50221 -0.669072 -0.000120113
-3.72962 1.42069 -8.71875 1.49023 -0.712299 -0.000127873
-4.31386 1.42039 -8.876 1.4807 -0.764452 -0.000137235
-4.88053 1.42011 -8.98206 1.47428 -0.839928 -0.000150785
-5.30211 1.41989 -9.025 1.47168 -0.943305 -0.000169343
-5.68134 1.4197 -8.62302 1.47165 -1.07037 -0.000192155
-5.79363 1.41938 -7.24018 1.47209 -1.21083 -0.000217369
-5.80577 1.41875 -5.08337 1.47277 -1.35364 -0.000243006
-5.76859 1.4186 -2.06997 1.47371 -1.48658 -0.000266872
-5.44997 1.41876 0.01134 1.47524 -1.60415 -0.00028798
-5.52486 1.41873 0.0684587 1.47963 -1.71237 -0.000307407
-5.7039 1.41864 0.163002 1.48691 -1.82461 -0.000327557
-5.6798 1.41865 0.266489 1.49488 -1.94921 -0.000349924
-5.48408 1.41875 0.359724 1.50206 -2.08877 -0.000374979
-5.10409 1.41894 0.439031 1.50816 -2.2349 -0.000401212
-4.72815 1.41913 0.512123 1.51379 -2.37701 -0.000426724
-4.19808 1.41939 0.574556 1.51859 -2.50183 -0.000449132
-3.42414 1.41978 0.620364 1.52212 -2.60221 -0.000467152
-2.50925 1.42024 0.644886 1.52401 -2.6802 -0.000481153
-1.53309 1.42074 0.377649 1.52418 -2.74231 -0.000492303
-0.527009 1.42124 -0.0207614 1.52311 -2.79701 -0.000502122
0.0123246 1.42192 -0.101617 1.5194 -2.84675 -0.000511052
0.0459483 1.42306 -0.216354 1.51415 -2.8952 -0.000519751
0.0997204 1.42489 -0.36669 1.50726 -2.9381 -0.000527451
0.169656 1.42726 -0.552285 1.49876 -2.97022 -0.000533218
0.235593 1.42949 -0.772617 1.48866 -2.98561 -0.000535981
0.277025 1.4309 -1.02746 1.47699 -2.96939 -0.000533069
0.197939 1.43108 -1.30778 1.46414 -2.89032 -0.000518875
-0.0123367 1.43045 -1.60314 1.45061 -2.75419 -0.000494436
-0.0732663 1.42781 -1.9014 1.43695 -2.56543 -0.000460549
-0.159084 1.4241 -2.20514 1.42303 -2.32005 -0.000416499
-0.272252 1.41921 -2.49811 1.40961 -2.03946 -0.000366126
-0.414486 1.41306 -2.78265 1.39658 -1.76774 -0.000317347
-0.579426 1.40594 -3.06861 1.38348 -1.52164 -0.000273166
-0.769747 1.39771 -3.35001 1.37058 -1.2718 -0.000228316
-0.9857 1.38837 -3.60792 1.35877 -1.03146 -0.000185169
-1.22328 1.37811 -3.83122 1.34854 -0.750127 -0.000134664
-1.47737 1.36712 -4.0206 1.33986 -0.447939 -8.04146e-05
-1.73717 1.35589 -4.17822 1.33264 -0.152027 -2.72921e-05
-1.99183 1.34489 -4.30569 1.3268 0.0523199 9.39254e-06
-2.26346 1.33315 -4.41617 1.32174 0.108224 1.94286e-05
-2.56777 1.31999 -4.49834 1.31798 0.122989 2.20791e-05
-2.88254 1.30639 -4.55463 1.3154 0.116718 2.09534e-05
-3.19016 1.29309 -4.58172 1.31416 0.113183 2.03187e-05
-3.48834 1.2802 -4.30364 1.31416 0.135204 2.4272e-05
-3.78175 1.26752 -3.3355 1.31446 0.193102 3.46659e-05
-4.0758 1.25481 -1.70134 1.31498 0.270818 4.86176e-05
-4.35955 1.24255 0.00174831 1.31568 0.3153 5.6603e-05
-4.64363 1.23027 0.0220416 1.3176 0.329323 5.91205e-05
-4.93166 1.21782 0.0658211 1.32175 0.323742 5.81186e-05
-5.21579 1.20554 0.123739 1.32724 0.307494 5.52018e-05
-5.49929 1.19328 0.191517 1.33366 0.301934 5.42035e-05
-5.78977 1.18073 0.264418 1.34057 0.313756 5.63258e-05
-6.09783 1.16741 0.341786 1.3479 0.346527 6.2209e-05
-6.42752 1.15316 0.422721 1.35557 0.3768 6.76436e-05
-6.77283 1.13824 0.504826 1.36335 0.379402 6.81107e-05
-7.12943 1.12283 0.587595 1.3712 0.375328 6.73793e-05
-7.49359 1.10709 0.669307 1.37894 0.362026 6.49913e-05
-7.86342 1.0911 0.74696 1.3863 0.356061 6.39206e-05
-8.24234 1.07472 0.81746 1.39298 0.361822 6.49548e-05
-8.63188 1.05788 0.878534 1.39877 0.374998 6.73202e-05
-9.02608 1.04085 0.928249 1.40348 0.393398 7.06233e-05
-9.41677 1.02396 0.964694 1.40693 0.411238 7.3826e-05
-9.80063 1.00737 0.98711 1.40906 0.424394 7.61877e-05
-10.1772 0.991092 0.993753 1.40969 0.434439 7.7991e-05
-10.5476 0.975083 0.0677594 1.4094 0.445639 8.00017e-05
-10.9133 0.959277 -0.0404876 1.40766 0.46261 8.30483e-05
-11.265 0.944075 -0.146334 1.40317 0.490605 8.8074e-05
-11.6038 0.929428 -0.299221 1.39669 0.525966 9.4422e-05
-11.9236 0.915607 -0.49446 1.38841 0.566055 0.000101619
-12.2243 0.90261 -0.726232 1.37859 0.606074 0.000108803
-12.5054 0.890461 -0.999129 1.36702 0.643282 0.000115483
-12.7659 0.8792 -1.29605 1.35444 0.67718 0.000121568
-13.0011 0.869033 -1.63022 1.34027 0.70878 0.000127241
-13.2121 0.859915 -2.0023 1.3245 0.740169 0.000132876
-13.4005 0.851772 -2.40209 1.30755 0.775053 0.000139139
-13.5642 0.844694 -2.81904 1.28988 0.815623 0.000146422
-13.707 0.838522 -3.24773 1.27171 0.859961 0.000154381
-13.8319 0.833123 -3.68383 1.25322 0.89538 0.00016074
-13.9378 0.828548 -4.12622 1.23447 0.914653 0.0001642
-14.0233 0.824853 -4.5722 1.21556 0.923751 0.000165833
-14.0912 0.821915 -5.01533 1.19678 0.912231 0.000163765
-14.1448 0.8196 -5.45049 1.17833 0.854707 0.000153438
-14.1872 0.817768 -5.86961 1.16057 0.740814 0.000132992
-14.2199 0.816352 -6.26662 1.14374 0.563027 0.000101075
-14.2433 0.815345 -6.63844 1.12798 0.365823 6.5673e-05
-14.26 0.814619 -6.97362 1.11377 0.267497 4.80214e-05
-14.2662 0.814352 -7.28865 1.10041 0.222583 3.99583e-05
-14.2345 0.814356 -7.57493 1.08828 0.206589 3.7087e-05
-14.1779 0.814385 -7.82112 1.07784 0.170859 3.06728e-05
-14.0466 0.814451 -8.01745 1.06952 0.0775875 1.39286e-05
-13.726 0.814612 -8.17043 1.06304 -0.0188257 -3.37961e-06
-13.2802 0.814837 -8.29086 1.05793 -0.14899 -2.67469e-05
-12.7593 0.815099 -8.39621 1.05347 -0.313482 -5.62766e-05
-12.2111 0.815375 -8.48398 1.04975 -0.488383 -8.76752e-05
-11.7298 0.815617 -8.54737 1.04706 -0.648381 -0.000116398
-11.3896 0.815788 -8.58861 1.04531 -0.7835 -0.000140655
-11.0991 0.815934 -8.6119 1.04432 -0.905064 -0.000162478
-10.7255 0.816122 -8.62525 1.04376 -1.03532 -0.000185863
-10.2526 0.81636 -8.64072 1.0431 -1.19068 -0.000213752
-9.77951 0.816598 -8.66805 1.04194 -1.3709 -0.000246107
-9.37839 0.8168 -8.70899 1.04021 -1.56047 -0.000280137
-9.03658 0.816972 -8.76061 1.03802 -1.73891 -0.000312172
-8.72085 0.817131 -8.82353 1.03535 -1.89264 -0.000339769
-8.44093 0.817272 -8.90627 1.03185 -2.0236 -0.000363279
-8.26366 0.817361 -9.03011 1.0266 -2.17507 -0.000390471
-8.10166 0.817443 -9.18862 1.01988 -2.29996 -0.000412892
-8.08573 0.817451 -9.37593 1.01194 -2.4045 -0.000431659
-8.14962 0.817419 -9.60709 1.00214 -2.49275 -0.000447501
-8.27598 0.817355 -9.87063 0.990967 -2.57007 -0.000461381
-8.52772 0.817228 -10.1685 0.978343 -2.64394 -0.000474643
-8.97848 0.817001 -10.5019 0.964209 -2.71898 -0.000488115
-9.58356 0.816697 -10.8755 0.94837 -2.79579 -0.000501904
-10.3149 0.816329 -11.294 0.930632 -2.86905 -0.000515055
-11.1855 0.815891 -11.7473 0.911416 -2.93003 -0.000526003
-12.0609 0.81545 -12.2158 0.891557 -2.97036 -0.000533243
-12.8829 0.815037 -12.6834 0.871737 -2.97384 -0.000533868
-13.8796 0.814535 -13.1678 0.851203 -2.96032 -0.000531441
-14.3108 0.812424 -13.6705 0.829893 -2.95913 -0.000531227
-14.4027 0.808452 -14.1829 0.808175 -2.97859 -0.00053472
-14.4998 0.804257 -14.703 0.786126 -3.00262 -0.000539034
-14.6003 0.799912 -15.2177 0.764308 -3.0128 -0.000540861
-14.7075 0.795278 -15.7215 0.742955 -3.00007 -0.000538576
-14.8275 0.790092 -16.2119 0.722168 -2.97251 -0.000533628
-14.9682 0.784011 -16.6821 0.702234 -2.9512 -0.000529803
-15.1025 0.778206 -17.1214 0.683615 -2.94976 -0.000529544
-15.2367 0.772407 -17.5361 0.666037 -2.95208 -0.000529961
-15.3854 0.765976 -17.9285 0.649399 -2.95261 -0.000530056
-15.5551 0.758643 -18.2933 0.633936 -2.95199 -0.000529945
-15.7403 0.750637 -18.6242 0.619912 -2.9462 -0.000528906
-15.9336 0.742285 -18.9154 0.607568 -2.94236 -0.000528215
-16.1417 0.733289 -19.1638 0.597038 -2.94829 -0.00052928
-16.3711 0.723373 -19.3669 0.588427 -2.96452 -0.000532194
-16.6236 0.712458 -19.5266 0.581661 -2.98664 -0.000536166
-16.8958 0.700695 -19.6466 0.576575 -3.01447 -0.000541162
-17.1829 0.688284 -19.7296 0.573054 -3.04578 -0.000546783
-17.482 0.675357 -19.779 0.570959 -3.07508 -0.000552041
-17.794 0.661871 -19.796 0.570242 -3.10349 -0.000557142
-18.1171 0.647908 -19.2552 0.570412 -3.1344 -0.000562692
-18.4445 0.633755 -18.0017 0.570806 -3.16797 -0.000568717
-18.7715 0.61962 -16.2992 0.571341 -3.20768 -0.000575847
-19.0967 0.605563 -14.4447 0.571924 -3.25061 -0.000583554
-19.4232 0.591454 -12.5005 0.572536 -3.29073 -0.000590756
-19.7466 0.577476 -10.5142 0.57316 -3.32219 -0.000596405
-20.0683 0.563569 -8.52269 0.573786 -3.34517 -0.00060053
-20.3908 0.54963 -6.70985 0.574356 -3.36696 -0.000604442
-20.7148 0.535625 -5.33911 0.574787 -3.38982 -0.000608544
-21.0396 0.521586 -4.51562 0.575046 -3.4124 -0.000612598
-21.3636 0.507584 -4.21226 0.575142 -3.43002 -0.000615762
-21.6883 0.493547 -4.45892 0.575064 -3.43629 -0.000616887
-22.0147 0.479439 -5.33617 0.574788 -3.43172 -0.000616067
-22.3431 0.465247 -6.89633 0.574298 -3.40484 -0.000611242
-22.6698 0.451125 -9.15512 0.573587 -3.35091 -0.00060156
-22.9982 0.436932 -12.252 0.572614 -3.26337 -0.000585843
-23.3227 0.422903 -16.1913 0.571375 -3.14188 -0.000564035
-23.6404 0.409174 -19.8125 0.56954 -2.99104 -0.000536956
-23.9288 0.396709 -19.9794 0.562465 -2.78771 -0.000500454
-24.2172 0.38424 -20.1861 0.553704 -2.57801 -0.000462808
-24.5064 0.371743 -20.4251 0.543575 -2.36635 -0.00042481
-24.7877 0.359584 -20.6858 0.532523 -2.17181 -0.000389886
-25.0555 0.348006 -20.9573 0.521014 -1.98304 -0.000355997
-25.3153 0.33678 -21.2369 0.509159 -1.80493 -0.000324024
-25.5746 0.325571 -21.5268 0.496872 -1.61112 -0.00028923
-25.8382 0.314176 -21.8242 0.484267 -1.40048 -0.000251415
-26.1044 0.302671 -22.1236 0.471577 -1.19077 -0.000213769
-26.37 0.291194 -22.4203 0.458997 -1.01939 -0.000183003
-26.6351 0.279732 -22.6968 0.447279 -0.893636 -0.000160427
-26.9022 0.268188 -22.9616 0.436055 -0.788545 -0.000141561
-27.1783 0.256256 -23.219 0.425143 -0.707677 -0.000127043
-27.4614 0.24402 -23.4676 0.414603 -0.651584 -0.000116973
-27.7447 0.231773 -23.7032 0.404619 -0.614012 -0.000110228
-28.0239 0.219705 -23.9229 0.395303 -0.60567 -0.000108731
-28.2995 0.207794 -24.1276 0.386625 -0.640475 -0.000114979
-28.5722 0.196005 -24.3172 0.37859 -0.716381 -0.000128606
-28.8397 0.184446 -24.4944 0.37108 -0.820862 -0.000147362
-29.0973 0.173312 -24.6645 0.36387 -0.93492 -0.000167838
-29.3414 0.16276 -24.8276 0.356953 -1.06704 -0.000191556
-29.569 0.152924 -24.9863 0.350227 -1.24197 -0.00022296
-29.7794 0.143827 -25.1403 0.343699 -1.45918 -0.000261953
-29.9744 0.135398 -25.2885 0.337416 -1.70111 -0.000305386
-30.1543 0.127623 -25.4327 0.331307 -1.95295 -0.000350597
-30.3157 0.120646 -25.5774 0.325172 -2.2126 -0.00039721
-30.4573 0.114526 -25.727 0.318831 -2.48829 -0.0004467
-30.5799 0.109226 -25.8839 0.312181 -2.78814 -0.00050053
-30.6861 0.104637 -26.0484 0.305205 -3.11121 -0.000558529
-30.78 0.100577 -26.2148 0.298151 -3.27988 -0.000588808
-30.8672 0.0968082 -26.3746 0.291381 -3.37113 -0.000605189
-30.9407 0.0936345 -26.5458 0.284124 -3.42363 -0.000614614
-31.0077 0.0907386 -26.7249 0.276531 -3.46397 -0.000621856
-31.0711 0.0879978 -26.9143 0.2685 -3.52294 -0.000632443
-31.1341 0.0852724 -27.1125 0.260101 -3.61232 -0.000648487
-31.1986 0.0824848 -27.3173 0.251417 -3.72781 -0.000669221
-31.266 0.0795707 -27.5297 0.242417 -3.85233 -0.000691575
-31.3393 0.0764031 -27.7493 0.233107 -3.95392 -0.000709812
-31.42 0.0729157 -27.9784 0.223393 -3.99104 -0.000716476
-31.5094 0.0690499 -28.2159 0.213326 -3.99152 -0.000716562
-31.6058 0.0648834 -28.4649 0.202772 -4.01535 -0.000720841
-31.7085 0.0604445 -28.7261 0.191702 -4.09423 -0.000735001
-31.8178 0.0557227 -28.9985 0.180156 -4.21528 -0.000756732
-31.9334 0.050724 -29.2796 0.168237 -4.32898 -0.000777143
-32.0541 0.0455088 -29.5704 0.155912 -4.39878 -0.000789674
-32.1772 0.0401895 -29.8734 0.143066 -4.42808 -0.000794934
-32.3019 0.0347996 -30.1913 0.129594 -4.44936 -0.000798755
-32.4288 0.0293144 -30.5241 0.115484 -4.49275 -0.000806543
-32.5593 0.0236717 -30.869 0.100867 -4.56302 -0.000819159
-32.6946 0.0178262 -31.2215 0.0859236 -4.64109 -0.000833174
-32.8344 0.0117817 -31.5793 0.0707575 -4.7037 -0.000844415
-32.9775 0.00559779 -31.9425 0.0553594 -4.74275 -0.000851425
-33.0734 0.00144944 -32.3182 0.0394367 -4.76728 -0.000855827
-33.0835 0.00101677 -32.7158 0.0225829 -4.79239 -0.000860335
-33.0884 0.000802345 -33.1082 0.00594959 -4.8351 -0.000868003
-33.093 0.000605105 -33.2342 0.000607595 -4.91288 -0.000881966
-33.0959 0.000480069 -33.2409 0.000322048 -4.9809 -0.000894177
-33.098 0.000386458 -33.2445 0.000170945 -5.02233 -0.000901615
-33.1 0.000299929 -33.2472 5.72835e-05 -5.05619 -0.000907694
-33.1018 0.000223058 -33.2494 -3.94331e-05 -5.10991 -0.000917337
-33.1033 0.000159469 -33.2515 -0.000125394 -5.17553 -0.000929119
-33.1045 0.000107988 -33.2532 -0.000198914 -5.23524 -0.000939838
-33.1055 6.45094e-05 -33.2546 -0.000258419 -5.29431 -0.00095044
-33.1064 2.44741e-05 -33.2559 -0.000311893 -5.35109 -0.000960635
-33.1073 -1.24414e-05 -33.257 -0.000360895 -5.40925 -0.000971075
-33.108 -4.36447e-05 -33.2581 -0.000404825 -5.47105 -0.000982169
-33.1086 -6.83403e-05 -33.259 -0.000443867 -5.5357 -0.000993776
-33.1091 -8.98397e-05 -33.2598 -0.000478827 -5.60177 -0.00100564
-33.1095 -0.000110848 -33.2605 -0.00050996 -5.66738 -0.00101741
-33.11 -0.000131494 -33.2612 -0.000536665 -5.73117 -0.00102887
-33.1105 -0.000150949 -33.2617 -0.000557282 -5.79343 -0.00104004
-33.1109 -0.000168998 -33.262 -0.000571429 -5.85537 -0.00105116
-33.1113 -0.000187335 -33.2622 -0.000581873 -5.91928 -0.00106264
-33.1118 -0.000207069 -33.2624 -0.000590062 -5.98658 -0.00107472
-33.1122 -0.000227664 -33.2626 -0.000595571 -6.0559 -0.00108716
-33.1127 -0.000248398 -33.2626 -0.000597325 -6.12375 -0.00109934
-33.1132 -0.000269477 -33.2555 -0.000595095 -6.18699 -0.0011107
-33.1137 -0.000291479 -33.2429 -0.000591142 -6.24383 -0.0011209
-33.1142 -0.000313762 -33.2262 -0.000585872 -6.29398 -0.0011299
-33.1148 -0.000336343 -33.2031 -0.000578609 -6.34136 -0.00113841
-33.1153 -0.000357992 -33.1799 -0.00057131 -6.38833 -0.00114684
-33.1157 -0.000378298 -33.1621 -0.000565733 -6.43387 -0.00115502
-33.1162 -0.000397867 -33.1487 -0.000561507 -6.47592 -0.00116257
-33.1166 -0.000416905 -33.1385 -0.000558293 -6.51089 -0.00116884
-33.117 -0.000434959 -33.1324 -0.000556384 -6.53561 -0.00117328
-33.1174 -0.000451551 -33.1313 -0.00055603 -6.5495 -0.00117577
-33.1178 -0.000466595 -33.1376 -0.000558023 -6.55203 -0.00117623
-33.1181 -0.000479961 -33.1549 -0.000563458 -6.54889 -0.00117567
-33.1183 -0.000491438 -33.1833 -0.000572401 -6.52557 -0.00117148
-33.1186 -0.000500805 -33.2192 -0.000583664 -6.46589 -0.00116076
-33.1187 -0.000508098 -33.2608 -0.000596743 -6.35594 -0.00114103
-33.1189 -0.000513273 -33.2629 -0.000611726 -6.19804 -0.00111268
-33.1189 -0.000516343 -33.2633 -0.00062843 -6.00652 -0.0010783
-33.119 -0.000517457 -33.2638 -0.000646731 -5.79707 -0.0010407
-33.1171 -0.00051655 -33.2642 -0.000666254 -5.5846 -0.00100255
-33.111 -0.000513456 -33.2647 -0.000685211 -5.39146 -0.000967881
-33.1022 -0.000509008 -33.2651 -0.000703367 -5.21595 -0.000936373
-33.0895 -0.000502655 -33.2655 -0.000718017 -5.02943 -0.000902891
-33.0754 -0.000495534 -33.2658 -0.000731596 -4.81649 -0.000864662
-33.0575 -0.000486515 -33.2661 -0.000743461 -4.58677 -0.000823423
-33.0366 -0.000475999 -33.2662 -0.000750929 -4.35193 -0.000781265
-33.016 -0.000465643 -33.2663 -0.000752994 -4.12593 -0.000740693
-32.996 -0.000455589 -33.2577 -0.000750292 -3.92426 -0.000704489
-32.9737 -0.000444346 -33.2348 -0.000743086 -3.74352 -0.000672041
-32.9471 -0.000430961 -33.1954 -0.000730708 -3.56952 -0.000640804
-32.9185 -0.000416555 -33.1362 -0.000712104 -3.39352 -0.000609209
-32.8898 -0.000402136 -33.0614 -0.000688558 -3.22673 -0.000579266
-32.8587 -0.000386494 -32.9789 -0.000662634 -3.08579 -0.000553965
-32.8243 -0.000369184 -32.8863 -0.000633498 -2.98193 -0.00053532
-32.7878 -0.000350809 -32.7754 -0.000598646 -2.88506 -0.00051793
-32.7495 -0.00033154 -32.6462 -0.00055803 -2.78946 -0.000500767
-32.7083 -0.000310798 -32.5006 -0.000512234 -2.69471 -0.000483758
-32.6653 -0.000289159 -32.3447 -0.000463224 -2.60506 -0.000467664
-32.6241 -0.000268411 -32.1868 -0.000413553 -2.52815 -0.000453857
-32.5865 -0.000249491 -32.0283 -0.000363729 -2.4547 -0.000440671
-32.5476 -0.000229918 -31.8617 -0.000311336 -2.38382 -0.000427946
-32.5053 -0.000208621 -31.6793 -0.000253988 -2.31027 -0.000414742
-32.4597 -0.000185693 -31.4837 -0.000192488 -2.23166 -0.00040063
-32.4151 -0.000163216 -31.2844 -0.000129808 -2.14632 -0.000385309
-32.3706 -0.000140831 -31.0828 -6.64314e-05 -2.05225 -0.000368423
-32.3253 -0.000118045 -30.8876 -5.0509e-06 -1.94838 -0.000349777
-32.2822 -9.6358e-05 -30.6855 5.85153e-05 -1.82502 -0.00032763
-32.2391 -7.46887e-05 -30.4701 0.000126253 -1.68165 -0.000301892
-32.195 -5.24469e-05 -30.238 0.000199212 -1.52157 -0.000273155
-32.1488 -2.92316e-05 -29.9896 0.000277317 -1.3518 -0.000242677
-32.1013 -5.30272e-06 -29.7347 0.000357488 -1.17806 -0.000211486
-32.0533 1.88466e-05 -29.4902 0.000434351 -1.00275 -0.000180015
-32.007 4.21581e-05 -29.2837 0.00049929 -0.824777 -0.000148065
-31.961 6.5301e-05 -29.0916 0.000559692 -0.634565 -0.000113918
-31.9163 8.77666e-05 -28.9049 0.00061839 -0.426133 -7.65e-05
-31.8757 0.000108233 -28.7395 0.000670399 -0.200958 -3.60763e-05
-31.8415 0.00012543 -28.6315 0.000704383 -0.035224 -6.32346e-06
-31.8115 0.000140506 -28.6517 0.000698009 0.00469024 8.41998e-07
-31.788 0.000152377 -28.7224 0.000675779 0.0328044 5.88909e-06
-31.7725 0.000160157 -28.8441 0.000637534 0.0486114 8.72678e-06
-31.7668 0.000163037 -28.9742 0.000596607 0.0552336 9.9156e-06
-31.7677 0.000162548 -29.09 0.000560189 0.0593885 1.06615e-05
-31.7752 0.000158812 -29.2082 0.000523047 0.0669538 1.20196e-05
-31.7867 0.000153013 -29.318 0.0004885 0.0821593 1.47493e-05
-31.7997 0.000146483 -29.4136 0.000458452 0.106093 1.9046e-05
-31.8161 0.00013822 -29.4988 0.000431652 0.139756 2.50891e-05
-31.8395 0.000126449 -29.5749 0.000407719 0.173823 3.12049e-05
-31.8673 0.000112436 -29.6363 0.000388436 0.189181 3.3962e-05
-31.8961 9.79544e-05 -29.6756 0.000376051 0.200231 3.59458e-05
-31.9248 8.35001e-05 -29.6939 0.000370323 0.204236 3.66646e-05
-31.9544 6.86246e-05 -29.6982 0.000368953 0.200616 3.60149e-05
-31.9833 5.40472e-05 -29.6971 0.000369315 0.193032 3.46533e-05
-32.0121 3.95955e-05 -29.6873 0.000372369 0.191714 3.44167e-05
-32.0392 2.59382e-05 -29.6678 0.000378516 0.200548 3.60026e-05
-32.0632 1.38597e-05 -29.6373 0.000388119 0.198739 3.56778e-05
-32.0838 3.51479e-06 -29.5902 0.000402905 0.16676 2.99371e-05
-32.1024 -5.84945e-06 -29.5318 0.00042128 0.0989726 1.77677e-05
-32.1192 -1.43352e-05 -29.4633 0.000442821 0.035718 6.41215e-06
-32.1327 -2.10951e-05 -29.3928 0.000464998 -0.0294159 -5.28078e-06
-32.1432 -2.63932e-05 -29.3283 0.000485276 -0.0972903 -1.74657e-05
-32.1516 -3.06497e-05 -29.2724 0.000502832 -0.175106 -3.14352e-05
-32.1578 -3.37687e-05 -29.2215 0.000518856 -0.244887 -4.39624e-05
-32.1615 -3.55923e-05 -29.181 0.000531588 -0.307736 -5.52452e-05
-32.1628 -3.62817e-05 -29.1661 0.000536274 -0.380957 -6.83899e-05
-32.1629 -3.63046e-05 -29.1863 0.000529905 -0.470872 -8.45316e-05
-32.1624 -3.60647e-05 -29.2409 0.000512766 -0.575191 -0.000103259
-32.1617 -3.57066e-05 -29.3228 0.00048701 -0.686058 -0.000123162
-32.1606 -3.51731e-05 -29.4268 0.000454309 -0.794507 -0.000142631
-32.1585 -3.41107e-05 -29.5393 0.000418926 -0.893568 -0.000160414
-32.1568 -3.32593e-05 -29.6666 0.000378895 -0.983345 -0.000176531
-32.1561 -3.28842e-05 -29.8009 0.000336661 -1.06948 -0.000191995
-32.1546 -3.21524e-05 -29.9384 0.000293435 -1.15931 -0.000208121
-32.1518 -3.07266e-05 -30.0792 0.000249162 -1.25768 -0.00022578
-32.1483 -2.89668e-05 -30.2237 0.000203704 -1.36438 -0.000244934
-32.1443 -2.69703e-05 -30.3705 0.000157549 -1.47399 -0.000264613
-32.1399 -2.47327e-05 -30.5165 0.000111655 -1.57935 -0.000283527
-32.1353 -2.24377e-05 -30.6577 6.72453e-05 -1.67586 -0.000300852
-32.1314 -2.04559e-05 -30.7918 2.50703e-05 -1.76386 -0.000316651
-32.1297 -1.96187e-05 -30.9189 -1.48865e-05 -1.84809 -0.000331771
-32.1315 -2.05021e-05 -31.0393 -5.27548e-05 -1.93501 -0.000347375
-32.1366 -2.30987e-05 -31.1535 -8.86373e-05 -2.02904 -0.000364255
-32.1455 -2.75713e-05 -31.2618 -0.000122701 -2.12988 -0.000382359
-32.1565 -3.3072e-05 -31.3643 -0.00015492 -2.23315 -0.000400899
-32.1696 -3.96689e-05 -31.461 -0.000185348 -2.33286 -0.000418798
-32.185 -4.74503e-05 -31.5522 -0.000214015 -2.42528 -0.000435388
-32.2019 -5.59362e-05 -31.6373 -0.000240776 -2.51086 -0.000450752
-32.2184 -6.4251e-05 -31.7156 -0.000265383 -2.59408 -0.000465693
-32.2321 -7.11609e-05 -31.7874 -0.000287981 -2.68023 -0.000481159
-32.2431 -7.66917e-05 -31.8551 -0.000309269 -2.77172 -0.000497583
-32.2513 -8.07875e-05 -31.9193 -0.000329464 -2.86758 -0.000514791
-32.2556 -8.29563e-05 -31.9798 -0.000348488 -2.96379 -0.000532063
-32.2544 -8.23691e-05 -32.0358 -0.000366076 -3.05555 -0.000548536
-32.2468 -7.852e-05 -32.0866 -0.000382039 -3.14013 -0.00056372
-32.2324 -7.13144e-05 -32.1323 -0.000396415 -3.21799 -0.000577697
-32.2115 -6.07768e-05 -32.1732 -0.0004093 -3.29241 -0.000591057
-32.1821 -4.59774e-05 -32.2087 -0.000420446 -3.36761 -0.000604558
-32.1434 -2.65143e-05 -32.2385 -0.000429812 -3.44574 -0.000618583
-32.0962 -2.76966e-06 -32.2632 -0.00043757 -3.52542 -0.000632888
-32.0409 2.50867e-05 -32.2822 -0.000443572 -3.60309 -0.000646831
-31.9765 5.75108e-05 -32.294 -0.000447274 -3.67492 -0.000659727
-31.9039 9.40451e-05 -32.2992 -0.0004489 -3.73859 -0.000671156
-31.8286 0.000131941 -32.3019 -0.00044975 -3.79426 -0.000681151
-31.7521 0.000170409 -32.2984 -0.000448661 -3.84432 -0.000690137
-31.6716 0.000210924 -32.2853 -0.00044454 -3.89309 -0.000698893
-31.5824 0.000255826 -32.2622 -0.00043727 -3.94289 -0.000707833
-31.4848 0.000304945 -32.2311 -0.000427492 -3.99194 -0.000716638
-31.3837 0.000355831 -32.1922 -0.000415267 -4.03446 -0.000724272
-31.2848 0.000405599 -32.1444 -0.000400238 -4.06553 -0.000729849
-31.1848 0.000455925 -32.0876 -0.000382357 -4.08488 -0.000733323
-31.0772 0.000510059 -32.0225 -0.000361901 -4.09525 -0.000735185
-30.9622 0.000567962 -31.9502 -0.00033915 -4.09962 -0.000735969
-30.8455 0.000626675 -31.8734 -0.000315004 -4.09971 -0.000735985
-30.7299 0.000684861 -31.7967 -0.000290889 -4.08987 -0.000734219
-30.6127 0.000743823 -31.7195 -0.000266622 -4.05935 -0.00072874
-30.4939 0.000803642 -31.6372 -0.000240739 -3.99937 -0.000717971
-30.3776 0.00086215 -31.548 -0.000212704 -3.90876 -0.000701706
-30.2723 0.000915165 -31.4613 -0.000185427 -3.7931 -0.000680942
-30.1737 0.000964784 -31.3729 -0.000157639 -3.65284 -0.000655762
-30.0797 0.00101206 -31.2825 -0.000129226 -3.48725 -0.000626036
-29.9883 0.00105807 -31.1923 -0.00010084 -3.3109 -0.000594378
-29.9135 0.00109571 -31.1042 -7.31613e-05 -3.1446 -0.000564522
-29.8628 0.00112122 -31.0188 -4.63094e-05 -2.98092 -0.000535138
-29.8369 0.00113426 -30.9377 -2.08074e-05 -2.79676 -0.000502078
-29.8436 0.00113089 -30.8594 3.82015e-06 -2.57693 -0.000462614
-29.896 0.00110453 -30.7822 2.81092e-05 -2.32259 -0.000416955
-29.9877 0.00105836 -30.7057 5.21447e-05 -2.05108 -0.000368212
-30.0958 0.00100396 -30.6303 7.58685e-05 -1.78084 -0.000319699
-30.1921 0.000955508 -30.5572 9.88423e-05 -1.522 -0.00027323
-30.2893 0.000906607 -30.4904 0.000119859 -1.27814 -0.000229453
-30.3777 0.000862119 -30.4234 0.000140918 -1.01897 -0.000182927
-30.4459 0.00082779 -30.352 0.000163374 -0.737942 -0.000132476
-30.5047 0.000798194 -30.2805 0.00018586 -0.431857 -7.75276e-05
-30.5562 0.000772262 -30.2119 0.000207444 -0.12058 -2.16467e-05
-30.5954 0.000752563 -30.1547 0.000225427 0.00386336 6.93554e-07
-30.6206 0.000739855 -30.1057 0.000240821 0.00340493 6.11257e-07
-30.6354 0.000732409 -30.0442 0.000260174 0.0198762 3.5682e-06
-30.6318 0.000734215 -29.969 0.000283806 0.0232975 4.18239e-06
-30.6088 0.000745782 -29.8815 0.000311332 0.0236718 4.24959e-06
-30.5769 0.000761857 -29.7923 0.00033936 0.0305801 5.48978e-06
-30.5317 0.000784595 -29.6943 0.000370181 0.0500023 8.97648e-06
-30.465 0.000818145 -29.5764 0.000407258 0.0829722 1.48953e-05
-30.378 0.000861926 -29.43 0.000453279 0.131948 2.36874e-05
-30.2723 0.000915135 -29.242 0.000512402 0.169935 3.0507e-05
-30.1461 0.00097867 -28.9821 0.000594117 0.18353 3.29476e-05
-29.9862 0.00105913 -28.6083 0.000711654 0.197003 3.53662e-05
-29.7762 0.00116483 -28.0469 0.000888187 0.199143 3.57504e-05
-29.514 0.00129677 -27.1233 0.0011786 0.193957 3.48195e-05
-29.2099 0.00144979 -25.4595 0.00170177 0.189807 3.40744e-05
-28.7977 0.00165724 -22.6519 0.0025846 0.191016 3.42914e-05
-28.1613 0.0019775 -19.0963 0.00370261 0.201183 3.61167e-05
-27.2609 0.00243064 -15.2902 0.00489944 0.22671 4.06992e-05
-26.1924 0.00296837 -11.7793 0.00600339 0.244428 4.388e-05
-25.004 0.00356647 -8.34409 0.00708356 0.242853 4.35973e-05
-23.6992 0.00422313 -4.95771 0.00814838 0.227851 4.09042e-05
-22.2608 0.004947 -1.57545 0.0092119 0.219166 3.9345e-05
-20.6927 0.00573618 0.00286942 0.0103987 0.21572 3.87264e-05
-19.0177 0.00657914 0.00881524 0.0118313 0.205112 3.6822e-05
-17.2733 0.007457 0.0156383 0.0134753 0.176371 3.16624e-05
-15.4558 0.00837169 0.0230877 0.0152703 0.126755 2.27551e-05
-13.5593 0.0093261 0.0313029 0.0172497 0.0622481 1.11749e-05
-11.5614 0.0103316 0.0400118 0.0193481 0.0138093 2.47905e-06
-9.49386 0.0113721 0.0486597 0.0214319 -0.0238968 -4.28999e-06
-7.41185 0.0124199 0.0575801 0.0235812 -0.0604224 -1.08471e-05
-5.30913 0.0134781 0.065316 0.0254452 -0.0999922 -1.79507e-05
-3.22293 0.014528 0.0715186 0.0269397 -0.135907 -2.43982e-05
-1.12896 0.0155818 0.0771576 0.0282985 -0.170224 -3.05589e-05
0.00307006 0.016737 0.0821293 0.0294964 -0.207301 -3.7215e-05
0.0100298 0.0180679 0.0858874 0.0304019 -0.248001 -4.45214e-05
0.0184253 0.0196732 0.0879762 0.0309052 -0.291733 -5.23723e-05
0.0286205 0.0216228 0.0311294 0.0309701 -0.336417 -6.03941e-05
0.0408082 0.0239533 -0.132877 0.0307957 -0.379324 -6.80968e-05
0.0555631 0.0267748 -0.414132 0.0304473 -0.417861 -7.50149e-05
0.0733929 0.0301842 -0.799843 0.0299696 -0.452671 -8.1264e-05
0.0954146 0.0343952 -1.30244 0.029347 -0.48663 -8.73605e-05
0.120928 0.0392739 -1.93543 0.0285629 -0.52225 -9.3755e-05
0.149086 0.0446582 -2.67279 0.0276495 -0.560458 -0.000100614
0.181395 0.0508365 -3.49471 0.0266314 -0.60027 -0.000107761
0.214488 0.0571646 -4.29802 0.0256363 -0.640127 -0.000114916
0.251942 0.0643266 -5.11357 0.0246261 -0.677327 -0.000121595
0.290974 0.0717902 -5.90028 0.0236516 -0.712678 -0.000127941
0.331575 0.0795539 -6.68188 0.0226834 -0.746992 -0.000134101
0.37532 0.0879189 -7.4685 0.021709 -0.781975 -0.000140381
0.420872 0.0966294 -8.19925 0.0208038 -0.819297 -0.000147081
0.464561 0.104984 -8.71379 0.0201664 -0.860345 -0.00015445
0.5094 0.113558 -9.1348 0.0196449 -0.903868 -0.000162264
0.55531 0.122337 -9.43305 0.0192755 -0.949575 -0.000170469
0.60289 0.131435 -9.61804 0.0190463 -0.995679 -0.000178746
0.653151 0.141046 -9.67922 0.0189706 -1.04131 -0.000186937
0.705624 0.15108 -9.41738 0.0190529 -1.08671 -0.000195087
0.759739 0.161428 -8.87261 0.0192242 -1.13252 -0.000203311
0.814697 0.171937 -8.0255 0.0194906 -1.17971 -0.000211784
0.869944 0.182501 -6.84661 0.0198612 -1.22794 -0.000220441
0.925436 0.193112 -5.28682 0.0203517 -1.27675 -0.000229204
0.981037 0.203745 -3.31653 0.0209712 -1.32541 -0.00023794
1.0363 0.214312 -0.929408 0.0217219 -1.37281 -0.000246448
1.0899 0.224561 0.00371896 0.0229051 -1.41858 -0.000254665
1.13948 0.234042 0.0180795 0.0263455 -1.46706 -0.000263368
1.1858 0.242899 0.039753 0.0315378 -1.51606 -0.000272165
1.23041 0.251431 0.0643303 0.0374259 -1.56226 -0.000280459
1.27209 0.2594 0.0934042 0.0443912 -1.60788 -0.000288649
1.31043 0.266731 0.124637 0.0518738 -1.65037 -0.000296276
1.34485 0.273313 0.158165 0.0599061 -1.68887 -0.000303189
1.3763 0.279327 0.194006 0.0684927 -1.72184 -0.000309106
1.406 0.285007 0.231326 0.0774334 -1.74769 -0.000313748
1.43391 0.290342 0.269892 0.086673 -1.76433 -0.000316734
1.46035 0.295399 0.308955 0.0960313 -1.76458 -0.00031678
1.48487 0.300087 0.348173 0.105427 -1.73963 -0.000312301
1.50776 0.304465 0.387399 0.114824 -1.68818 -0.000303064
1.53003 0.308722 0.42628 0.124139 -1.61068 -0.000289151
1.55231 0.312984 0.464281 0.133243 -1.51272 -0.000271565
1.57468 0.317262 0.500854 0.142005 -1.40913 -0.000252969
1.59714 0.321555 0.535863 0.150392 -1.29729 -0.000232891
1.61981 0.325891 0.569354 0.158416 -1.16092 -0.00020841
1.64366 0.330451 0.601338 0.166078 -0.98684 -0.000177159
1.66849 0.335201 0.631817 0.17338 -0.776607 -0.000139418
1.69399 0.340076 0.660674 0.180294 -0.541755 -9.72565e-05
1.71935 0.344925 0.68792 0.186821 -0.290281 -5.21115e-05
1.74521 0.349871 0.713647 0.192984 -0.173742 -3.11904e-05
1.77229 0.355048 0.736203 0.198388 -0.157453 -2.82661e-05
1.79724 0.35982 0.759922 0.204071 -0.133584 -2.39812e-05
1.82069 0.364303 0.783505 0.209721 -0.0993246 -1.78309e-05
1.8424 0.368456 0.807545 0.21548 -0.0608712 -1.09277e-05
1.8628 0.372355 0.832122 0.221368 -0.0240577 -4.31887e-06
1.88161 0.375953 0.857656 0.227485 0.00662004 1.18844e-06
1.89838 0.37916 0.884688 0.233961 0.0301127 5.40586e-06
1.91268 0.381894 0.91373 0.240919 0.0485277 8.71175e-06
1.92455 0.384163 0.945059 0.248425 0.0658137 1.1815e-05
1.93441 0.386049 0.978698 0.256484 0.0858802 1.54173e-05
1.94272 0.387639 1.01452 0.265066 0.111081 1.99413e-05
1.94974 0.388981 1.0524 0.274141 0.141408 2.53857e-05
1.95555 0.390091 1.09234 0.28371 0.174536 3.1333e-05
1.96015 0.390972 1.13456 0.293823 0.206673 3.71023e-05
1.96383 0.391674 1.17936 0.304558 0.233911 4.1992e-05
1.9668 0.392244 1.22619 0.315776 0.25453 4.56935e-05
1.96995 0.392846 1.2748 0.327421 0.269284 4.83423e-05
1.97301 0.393431 1.325 0.339449 0.281071 5.04583e-05
1.97518 0.393846 1.37688 0.351877 0.293545 5.26976e-05
1.9766 0.394116 1.43012 0.364631 0.309837 5.56224e-05
1.97722 0.394235 1.48469 0.377705 0.33063 5.93552e-05
1.95432 0.394229 1.54035 0.391039 0.354315 6.36071e-05
1.88719 0.394195 1.59619 0.404417 0.37782 6.78267e-05
1.71492 0.394109 1.65164 0.417702 0.398209 7.14871e-05
1.397 0.393949 1.7071 0.430988 0.414323 7.43797e-05
0.985699 0.393742 1.76288 0.444352 0.426065 7.64878e-05
0.469216 0.393482 1.8186 0.457701 0.435367 7.81577e-05
-0.00814656 0.393146 1.87368 0.470897 0.444928 7.98741e-05
-0.076951 0.392304 1.92773 0.483845 0.457222 8.20812e-05
-0.221368 0.390535 1.98063 0.496519 0.473421 8.49892e-05
-0.412254 0.388198 2.03177 0.50877 0.493431 8.85813e-05
-0.634179 0.385481 2.08077 0.52051 0.515665 9.25729e-05
-0.884985 0.382411 2.12746 0.531696 0.537683 9.65255e-05
-1.16514 0.378981 2.17165 0.542283 0.557301 0.000100047
-1.47415 0.375198 2.21303 0.552195 0.573691 0.00010299
-1.81012 0.371084 2.25121 0.561343 0.587653 0.000105496
-2.16992 0.366679 2.28586 0.569644 0.601299 0.000107946
-2.54987 0.362028 2.31665 0.57702 0.617235 0.000110807
-2.92221 0.357469 2.34314 0.583365 0.637426 0.000114432
-3.29826 0.352865 2.36566 0.588762 0.662191 0.000118877
-3.67435 0.348261 2.38394 0.593142 0.690576 0.000123973
-4.04569 0.343714 2.39752 0.596395 0.720995 0.000129434
-4.40859 0.339271 2.40722 0.598719 0.749936 0.00013463
-4.76146 0.334951 2.41269 0.60003 0.775269 0.000139177
-5.09279 0.330895 2.34194 0.600256 0.796958 0.000143071
-5.39795 0.327159 1.69198 0.600051 0.815803 0.000146454
-5.67967 0.32371 0.49707 0.599676 0.834471 0.000149805
-5.93082 0.320635 -0.0346782 0.598888 0.855721 0.00015362
-6.1263 0.318241 -0.164492 0.596524 0.881557 0.000158258
-6.27071 0.316473 -0.347552 0.59319 0.908826 0.000163154
-6.38203 0.315111 -0.57331 0.589078 0.934703 0.000167799
-6.46553 0.314088 -0.83587 0.584296 0.957402 0.000171874
-6.51766 0.31345 -1.11657 0.579184 0.975322 0.000175091
-6.51354 0.31331 -1.40453 0.57394 0.988047 0.000177376
-6.29384 0.31342 -1.69757 0.568603 0.996197 0.000178838
-5.83884 0.313649 -1.98859 0.563303 1.00132 0.000179758
-5.10801 0.314017 -2.26626 0.558246 1.0067 0.000180724
-4.08709 0.314531 -2.54139 0.553235 1.00051 0.000179613
-2.73256 0.315212 -2.80067 0.548513 0.94632 0.000169885
-1.08937 0.316039 -3.04446 0.544073 0.840499 0.000150887
0.00296967 0.317056 -3.28331 0.539723 0.685248 0.000123017
0.0153322 0.319004 -3.52094 0.535395 0.486923 8.7413e-05
0.0418083 0.323176 -3.75366 0.531157 0.253427 4.54956e-05
