13.3706 3.07369e-05 12.6049 2.89768e-05 0.875472 2.01258e-06
13.255 3.04712e-05 12.6254 2.9024e-05 0.873481 2.008e-06
12.987 2.98553e-05 12.6766 2.91417e-05 0.868253 1.99598e-06
12.4372 2.85912e-05 12.7712 2.9359e-05 0.861033 1.97939e-06
11.8156 2.71623e-05 12.8644 2.95734e-05 0.855782 1.96731e-06
11.0199 2.53332e-05 12.9627 2.97994e-05 0.853795 1.96275e-06
10.0392 2.30787e-05 13.0567 3.00154e-05 0.857444 1.97114e-06
8.86174 2.03718e-05 13.1346 3.01946e-05 0.869627 1.99914e-06
7.47444 1.71826e-05 13.1825 3.03047e-05 0.893073 2.05304e-06
5.86356 1.34795e-05 13.1847 3.03095e-05 0.930454 2.13897e-06
4.01747 9.23556e-06 13.1239 3.01698e-05 0.984421 2.26304e-06
1.93777 4.45464e-06 12.982 2.98437e-05 1.05736 2.43071e-06
-0.1564 -1.0873e-06 12.7428 2.92939e-05 1.15028 2.64433e-06
-1.84983 -8.05616e-06 12.3747 2.84475e-05 1.26614 2.91066e-06
-3.64839 -1.54576e-05 11.8503 2.7242e-05 1.405 3.22989e-06
-5.50453 -2.30961e-05 11.1401 2.56094e-05 1.56672 3.60166e-06
-7.3607 -3.07346e-05 10.2162 2.34855e-05 1.74929 4.02137e-06
-9.15408 -3.81148e-05 9.05567 2.08176e-05 1.94837 4.47901e-06
-10.821 -4.49747e-05 7.64327 1.75707e-05 2.15729 4.95929e-06
-12.3002 -5.10616e-05 5.97411 1.37336e-05 2.36473 5.43616e-06
-13.5323 -5.61322e-05 4.05463 9.32098e-06 2.55708 5.87834e-06
-14.454 -5.99252e-05 1.9014 4.37104e-06 2.7183 6.24897e-06
-14.9918 -6.21384e-05 -0.287062 -1.44981e-06 2.82971 6.50508e-06
-15.058 -6.24108e-05 -2.10639 -8.93676e-06 2.87058 6.59904e-06
-14.5497 -6.03189e-05 -4.00577 -1.67531e-05 2.82135 6.48585e-06
-13.3666 -5.54502e-05 -5.96242 -2.48052e-05 2.65439 6.10205e-06
-11.428 -4.74725e-05 -7.9262 -3.28866e-05 2.34775 5.39712e-06
-8.7184 -3.63219e-05 -9.8259 -4.07043e-05 1.86859 4.29562e-06
-5.31312 -2.23084e-05 -11.5636 -4.78553e-05 1.18869 2.73261e-06
-1.37041 -6.08323e-06 -13.0191 -5.38449e-05 0.286685 6.59045e-07
4.44496 9.18701e-06 -14.0693 -5.81669e-05 -0.725465 -3.02766e-06
11.0701 2.44172e-05 -14.5934 -6.03238e-05 -1.92468 -7.96272e-06
17.6758 3.96027e-05 -14.5191 -6.00178e-05 -3.35008 -1.38285e-05
24.0572 5.42727e-05 -13.7799 -5.69757e-05 -4.99343 -2.05913e-05
30.0915 6.81446e-05 -12.342 -5.10588e-05 -6.83337 -2.81631e-05
35.7029 8.10443e-05 -10.2139 -4.2301e-05 -8.83396 -3.6396e-05
40.8687 9.29196e-05 -7.43126 -3.08498e-05 -10.9496 -4.51024e-05
45.6187 0.000103839 -4.06083 -1.69797e-05 -13.1225 -5.40443e-05
49.9803 0.000113866 -0.181432 -1.01511e-06 -15.288 -6.29559e-05
53.9988 0.000123104 5.84605 1.28412e-05 -17.3663 -7.15085e-05
57.714 0.000131645 12.2633 2.75934e-05 -19.2932 -7.94382e-05
61.1509 0.000139546 18.9119 4.28775e-05 -20.9895 -8.64188e-05
64.2879 0.000146757 25.6193 5.82969e-05 -22.3837 -9.2156e-05
67.0553 0.000153119 32.233 7.35008e-05 -23.4072 -9.6368e-05
69.3643 0.000158427 38.6264 8.81983e-05 -23.9958 -9.87905e-05
71.1513 0.000162535 44.6361 0.000102014 -24.0961 -9.92032e-05
72.4442 0.000165507 50.1098 0.000114597 -23.6653 -9.74304e-05
73.3899 0.000167681 54.9054 0.000125621 -22.6665 -9.33201e-05
74.2378 0.00016963 58.8775 0.000134753 -21.0755 -8.67725e-05
75.3398 0.000172164 61.8835 0.000141663 -18.8831 -7.77506e-05
77.7495 0.000177703 64.1103 0.000146782 -15.3094 -6.3044e-05
82.189 0.000187909 64.5327 0.000147753 -10.8619 -4.47413e-05
89.5172 0.000204755 63.191 0.000144669 -5.64469 -2.32714e-05
100.324 0.000229598 60.3216 0.000138072 0.269139 2.67158e-07
114.809 0.000262897 56.393 0.000129041 7.75663 1.74798e-05
132.729 0.000304092 52.0685 0.0001191 15.4037 3.50592e-05
153.364 0.000351529 48.1959 0.000110197 22.9286 5.23578e-05
175.588 0.00040262 45.7226 0.000104511 29.9923 6.85962e-05
198.125 0.000454427 45.5666 0.000104153 36.3083 8.31158e-05
219.878 0.000504434 48.5007 0.000110898 41.6201 9.53268e-05
240.147 0.000551032 55.0386 0.000125927 45.7854 0.000104902
258.621 0.0005935 65.4002 0.000149747 48.7441 0.000111704
275.267 0.000631767 79.5261 0.000182221 50.541 0.000115835
290.237 0.00066618 97.106 0.000222634 51.304 0.000117589
303.743 0.000697227 117.618 0.000269787 51.2501 0.000117465
315.917 0.000725215 140.385 0.000322126 50.6602 0.000116109
326.81 0.000750256 164.623 0.000377847 49.8632 0.000114276
336.531 0.000772602 189.454 0.000434928 49.2136 0.000112783
345.375 0.000792934 213.92 0.000491172 49.0769 0.000112469
353.805 0.000812314 237.049 0.000544342 49.804 0.00011414
362.301 0.000831845 257.941 0.000592371 51.7043 0.000118509
371.156 0.000852201 275.867 0.00063358 55.0163 0.000126123
380.356 0.000873351 290.329 0.000666825 59.8899 0.000137326
389.707 0.000894847 301.057 0.000691486 66.3798 0.000152246
398.994 0.000916196 307.981 0.000707405 74.4461 0.000170789
408.034 0.000936978 311.223 0.000714857 83.9545 0.000192647
416.69 0.000956877 311.075 0.000714516 94.6833 0.000217311
424.874 0.00097569 307.984 0.000707411 106.334 0.000244096
432.557 0.000993354 302.519 0.000694848 118.549 0.000272175
439.753 0.0010099 295.339 0.000678342 130.925 0.000300624
446.478 0.00102535 287.167 0.000659555 143.032 0.000328458
452.748 0.00103977 278.746 0.000640198 154.44 0.000354682
458.624 0.00105328 270.795 0.00062192 164.733 0.000378345
464.262 0.00106624 263.954 0.000606194 173.539 0.000398588
469.907 0.00107922 258.757 0.000594245 180.54 0.000414682
475.804 0.00109277 255.621 0.000587037 185.489 0.00042606
482.013 0.00110704 254.871 0.000585313 188.216 0.000432329
488.256 0.0011214 256.75 0.000589632 188.632 0.000433286
493.927 0.00113443 261.401 0.000600324 186.739 0.000428934
498.26 0.00114439 268.815 0.000617368 182.632 0.000419493
500.256 0.00114898 276.603 0.000635272 177.881 0.000408571
500.387 0.00114928 288.318 0.000662202 170.348 0.000391253
497.499 0.00114265 301.653 0.000692857 161.381 0.00037064
491.399 0.00112862 315.801 0.000725382 151.412 0.000347722
482.017 0.00110705 329.818 0.000757604 140.914 0.00032359
469.31 0.00107784 342.694 0.000787205 130.381 0.000299376
453.277 0.00104098 353.409 0.000811836 120.297 0.000276192
433.94 0.000996533 360.982 0.000829245 111.108 0.000255069
411.324 0.000944541 364.531 0.000837405 103.201 0.000236891
385.475 0.000885118 363.319 0.000834617 96.8777 0.000222356
356.478 0.000818459 356.78 0.000819585 92.3409 0.000211926
324.438 0.000744803 344.558 0.00079149 89.6778 0.000205804
289.517 0.000664526 326.517 0.000750016 88.8558 0.000203915
252.069 0.000578439 302.719 0.000695308 89.724 0.00020591
212.757 0.000488066 273.402 0.000627911 92.0195 0.000211187
172.482 0.000395479 238.983 0.000548788 95.3745 0.0002189
132.105 0.000302659 200.112 0.000459429 99.3232 0.000227978
92.3306 0.000211223 157.67 0.000361863 103.318 0.000237161
53.7523 0.000122537 112.723 0.000258535 106.756 0.000245064
17.0065 3.80641e-05 66.4662 0.000152198 109.007 0.000250238
-10.8507 -5.09278e-05 20.2723 4.60049e-05 109.432 0.000251216
-32.4819 -0.000139945 -16.9741 -7.44227e-05 107.514 0.000246806
-52.4396 -0.000222076 -47.062 -0.000198241 102.742 0.000235836
-70.9461 -0.000298234 -74.5835 -0.000311498 94.6305 0.00021719
-88.3382 -0.000369806 -98.7558 -0.000410973 82.9002 0.000190224
-104.945 -0.000438146 -119.087 -0.000494642 67.3792 0.000154543
-120.919 -0.000503884 -135.294 -0.000561338 48.1223 0.000110274
-136.158 -0.000566597 -147.314 -0.000610799 25.3414 5.79047e-05
-150.437 -0.000625359 -155.372 -0.000643962 0.486211 -7.38791e-06
-163.624 -0.000679624 -159.891 -0.000662557 -23.3266 -0.000105383
-175.809 -0.00072977 -161.401 -0.000668773 -48.758 -0.000210039
-187.324 -0.000777154 -160.483 -0.000664993 -75.1727 -0.000318741
-198.587 -0.000823506 -157.824 -0.000654051 -101.904 -0.000428747
-209.988 -0.000870424 -154.214 -0.000639197 -128.225 -0.000537065
-221.91 -0.000919484 -150.44 -0.000623663 -153.449 -0.000640865
-234.748 -0.000972315 -147.275 -0.000610639 -176.847 -0.000737154
-248.903 -0.00103057 -145.465 -0.000603191 -197.777 -0.000823288
-264.722 -0.00109566 -145.679 -0.000604071 -215.687 -0.000896988
-282.506 -0.00116885 -148.021 -0.000613711 -222.363 -0.000924463
-302.341 -0.00125047 -152.495 -0.000632124 -222.721 -0.000925936
-323.354 -0.00133695 -162.017 -0.000671308 -222.359 -0.000924448
-345.35 -0.00142747 -174.477 -0.000722582 -222.517 -0.000925098
-367.327 -0.00151791 -191.222 -0.000791493 -222.093 -0.000923353
-388.678 -0.00160577 -211.499 -0.000874936 -218.185 -0.000907268
-408.72 -0.00168825 -235.207 -0.000972499 -210.319 -0.000874897
-427.107 -0.00176392 -261.258 -0.00107971 -199.925 -0.000832125
-443.228 -0.00183026 -287.971 -0.00118964 -188.2 -0.000783876
-453.293 -0.00187168 -312.993 -0.00129261 -175.633 -0.000732159
-452.106 -0.00186679 -336.984 -0.00139134 -162.074 -0.000676359
-452.658 -0.00186906 -358.104 -0.00147825 -148.989 -0.000622512
-451.266 -0.00186334 -378.094 -0.00156051 -136.237 -0.000570034
-449.43 -0.00185578 -394.22 -0.00162687 -125.262 -0.000524869
-449.326 -0.00185535 -406.938 -0.00167921 -115.578 -0.000485018
-449.314 -0.0018553 -414.635 -0.00171089 -108.047 -0.000454026
-449.182 -0.00185476 -417.417 -0.00172233 -103.002 -0.000433265
-450.072 -0.00185842 -415.278 -0.00171354 -100.622 -0.00042347
-451.478 -0.00186421 -408.301 -0.00168482 -100.673 -0.000423681
-452.424 -0.0018681 -396.684 -0.00163701 -103.002 -0.000433265
-452.75 -0.00186944 -380.594 -0.0015708 -107.538 -0.00045193
-452.263 -0.00186744 -360.79 -0.0014893 -113.893 -0.000478082
-451.757 -0.00186536 -338.023 -0.00139561 -121.508 -0.000509423
-451.964 -0.00186621 -313.33 -0.001294 -129.751 -0.000543345
-453.248 -0.00187149 -287.848 -0.00118913 -138.034 -0.000577432
-448.562 -0.00185221 -263.83 -0.00109029 -145.637 -0.000608717
-432.744 -0.00178711 -245.31 -0.00101407 -151.193 -0.000631581
-420.709 -0.00173759 -227.449 -0.000940576 -155.954 -0.000651174
-410.848 -0.00169701 -212.372 -0.000878529 -158.297 -0.000660818
-402.858 -0.00166413 -200.335 -0.000828996 -158.585 -0.000662003
-398.463 -0.00164604 -191.921 -0.000794367 -156.434 -0.00065315
-396.79 -0.00163916 -187.143 -0.000774708 -151.763 -0.000633927
-398.011 -0.00164418 -185.963 -0.000769849 -144.67 -0.000604737
-402.414 -0.0016623 -188.504 -0.000780308 -135.317 -0.00056625
-408.153 -0.00168592 -194.883 -0.000806557 -123.912 -0.000519315
-413.431 -0.00170764 -205.067 -0.000848469 -110.731 -0.000465071
-418.113 -0.0017269 -218.46 -0.000903583 -96.3055 -0.000405708
-421.604 -0.00174127 -234.439 -0.000969338 -81.1986 -0.00034354
-423.43 -0.00174879 -252.186 -0.00104237 -66.03 -0.000281117
-423.222 -0.00174793 -270.762 -0.00111882 -51.4432 -0.000221089
-420.674 -0.00173744 -289.146 -0.00119447 -38.1141 -0.000166237
-415.724 -0.00171707 -306.278 -0.00126498 -26.7027 -0.000119276
-410.111 -0.00169398 -318.37 -0.00131473 -19.353 -8.90308e-05
-403.12 -0.0016652 -328.474 -0.00135632 -13.8639 -6.64418e-05
-394.857 -0.0016312 -336.147 -0.00138789 -10.4444 -5.23698e-05
-385.445 -0.00159247 -341.025 -0.00140796 -9.25086 -4.74582e-05
-375.001 -0.00154949 -342.832 -0.0014154 -10.3768 -5.20916e-05
-363.641 -0.00150274 -341.392 -0.00140947 -13.8445 -6.63619e-05
-351.459 -0.00145261 -336.635 -0.0013899 -19.6027 -9.00582e-05
-338.502 -0.00139929 -328.617 -0.0013569 -27.5285 -0.000122675
-324.747 -0.00134268 -317.512 -0.0013112 -37.4316 -0.000163428
-310.102 -0.00128241 -303.603 -0.00125397 -49.0588 -0.000211277
-294.43 -0.00121792 -287.269 -0.00118675 -62.1008 -0.000264948
-277.595 -0.00114864 -268.953 -0.00111137 -76.2025 -0.000322979
-259.524 -0.00107428 -249.137 -0.00102983 -90.9765 -0.000383778
-240.254 -0.000994973 -228.308 -0.000944109 -106.017 -0.000445673
-219.939 -0.000911372 -206.937 -0.000856165 -120.912 -0.00050697
-198.836 -0.00082453 -185.473 -0.000767833 -135.254 -0.00056599
-177.236 -0.000735642 -164.338 -0.000680858 -148.646 -0.000621099
-155.4 -0.000645782 -143.934 -0.000596891 -160.711 -0.00067075
-133.531 -0.000555787 -124.636 -0.000517475 -171.102 -0.000713512
-111.784 -0.000466292 -106.775 -0.000443974 -179.51 -0.000748114
-90.2903 -0.00037784 -90.6253 -0.000377514 -185.675 -0.000773482
-69.1716 -0.000290931 -76.3882 -0.000318925 -189.388 -0.000788762
-48.5337 -0.000206002 -64.1915 -0.000268733 -190.5 -0.000793339
-28.4505 -0.000123355 -54.0884 -0.000227157 -188.923 -0.000786849
-8.96086 -4.31506e-05 -46.0573 -0.000194107 -184.631 -0.000769186
12.3985 2.06409e-05 -40.6755 -0.000171959 -177.546 -0.000740033
35.2499 7.31729e-05 -37.39 -0.000158439 -167.802 -0.000699933
58.0916 0.000125683 -35.3017 -0.000149845 -155.8 -0.000650542
77.1338 0.000169458 -33.978 -0.000144397 -141.558 -0.000591934
93.1141 0.000206194 -32.5709 -0.000138607 -125.647 -0.000526453
108.394 0.00024132 -32.2419 -0.000137253 -107.86 -0.000453257
123.047 0.000275006 -31.8336 -0.000135573 -88.8353 -0.000374966
137.185 0.000307506 -31.4704 -0.000134078 -68.6803 -0.000292024
150.805 0.000338816 -30.5197 -0.000130166 -47.8299 -0.00020622
163.922 0.000368971 -28.694 -0.000122653 -26.5765 -0.000118757
176.713 0.000398375 -25.697 -0.000110319 -5.26003 -3.1035e-05
189.3 0.000427311 -21.3847 -9.25731e-05 16.6831 2.8735e-05
201.789 0.000456021 -15.614 -6.88255e-05 38.6585 7.92531e-05
214.22 0.000484599 -7.70363 -3.62726e-05 59.529 0.000127231
227.026 0.000514038 3.15979 1.74147e-06 79.5541 0.000173266
240.362 0.000544695 19.6427 3.96332e-05 98.4955 0.00021681
254.508 0.000577213 38.7288 8.35092e-05 116.163 0.000257425
269.704 0.000612148 60.354 0.000133222 132.295 0.00029451
286.152 0.00064996 84.3773 0.000188448 146.801 0.000327857
303.948 0.00069087 110.515 0.000248536 159.743 0.000357607
323.112 0.000734924 138.431 0.00031271 171.206 0.000383961
343.587 0.000781993 167.807 0.000380241 181.227 0.000406998
365.225 0.000831737 198.35 0.000450455 189.801 0.000426707
387.83 0.000883703 229.723 0.000522577 196.971 0.00044319
411.199 0.000937424 261.525 0.000595684 202.87 0.00045675
435.141 0.000992463 293.323 0.000668784 207.682 0.000467813
459.481 0.00104842 324.696 0.000740905 211.581 0.000476776
484.051 0.0011049 355.239 0.000811118 214.702 0.000483951
508.685 0.00116153 384.56 0.000878523 217.17 0.000489624
533.189 0.00121786 412.287 0.000942265 219.13 0.00049413
557.329 0.00127336 438.092 0.00100159 220.75 0.000497855
580.831 0.00132738 461.707 0.00105587 222.188 0.000501159
603.394 0.00137925 482.929 0.00110466 223.562 0.000504318
624.72 0.00142828 501.605 0.00114759 224.956 0.000507523
644.524 0.0014738 517.625 0.00118442 226.44 0.000510934
662.537 0.00151521 530.927 0.001215 228.077 0.000514698
666.219 0.00152368 540.216 0.00123635 230.067 0.000519272
668.44 0.00152878 541.375 0.00123902 233.127 0.000526307
668.784 0.00152957 543.976 0.001245 235.769 0.00053238
668.732 0.00152945 544.351 0.00124586 238.235 0.00053805
670.311 0.00153308 542.663 0.00124198 241.061 0.000544547
672.141 0.00153729 540.901 0.00123793 243.293 0.000549678
672.769 0.00153873 536.729 0.00122834 245.598 0.000554976
672.225 0.00153748 531.382 0.00121604 247.673 0.000559747
671.001 0.00153467 524.417 0.00120003 249.488 0.000563919
667.635 0.00152693 515.656 0.00117989 251.054 0.000567519
662.375 0.00151484 505.372 0.00115625 252.137 0.000570009
656.192 0.00150063 493.645 0.00112929 252.795 0.00057152
649.385 0.00148498 480.863 0.00109991 252.871 0.000571696
641.894 0.00146776 467.2 0.0010685 252.225 0.000570211
634.097 0.00144983 452.828 0.00103546 250.704 0.000566714
626.506 0.00143238 437.942 0.00100124 248.214 0.000560989
619.297 0.00141581 422.791 0.000966411 244.692 0.000552894
612.528 0.00140025 407.657 0.00093162 240.083 0.000542298
606.347 0.00138604 392.792 0.000897448 234.323 0.000529058
600.84 0.00137338 378.42 0.000864409 227.356 0.000513042
595.974 0.00136219 364.755 0.000832994 219.155 0.000494188
591.715 0.0013524 352.004 0.000803683 209.733 0.000472528
588.075 0.00134403 340.345 0.00077688 199.134 0.000448163
585.033 0.00133704 329.898 0.000752864 187.42 0.000421233
582.403 0.001331 320.759 0.000731855 174.667 0.000391916
579.99 0.00132545 313.002 0.000714022 160.979 0.000360449
577.724 0.00132024 306.624 0.00069936 146.499 0.000327163
575.527 0.00131519 301.582 0.000687769 131.398 0.000292448
573.374 0.00131024 297.763 0.000678991 115.866 0.000256743
571.307 0.00130549 295.006 0.000672653 100.109 0.000220519
569.417 0.00130114 293.116 0.000668309 84.3435 0.000184276
567.787 0.0012974 291.882 0.00066547 68.7968 0.000148537
566.447 0.00129432 291.088 0.000663645 53.6979 0.000113826
565.321 0.00129173 290.538 0.000662381 39.2702 8.06594e-05
564.209 0.00128917 290.068 0.000661301 25.7238 4.95183e-05
562.817 0.00128597 289.548 0.000660104 13.2522 2.08479e-05
560.817 0.00128137 288.865 0.000658535 2.03147 -4.94688e-06
557.873 0.00127461 288.006 0.00065656 -5.49264 -3.59103e-05
553.653 0.0012649 286.865 0.000653938 -11.6832 -6.13857e-05
547.871 0.00125161 285.162 0.000650022 -16.585 -8.15577e-05
540.125 0.0012338 283.09 0.000645259 -20.259 -9.66773e-05
530.099 0.00121076 280.499 0.000639303 -22.6435 -0.00010649
517.446 0.00118167 277.392 0.00063216 -23.6988 -0.000110833
501.871 0.00114586 273.706 0.000623687 -23.3063 -0.000109218
483.168 0.00110287 269.445 0.00061389 -21.404 -0.000101389
461.308 0.00105262 264.541 0.000602619 -18.0276 -8.74946e-05
436.444 0.000995457 258.896 0.000589641 -13.2573 -6.78638e-05
408.835 0.000931988 252.39 0.000574685 -7.1692 -4.28097e-05
378.799 0.00086294 244.919 0.000557511 0.326461 -1.29268e-05
346.695 0.000789139 236.346 0.000537803 10.29 9.97789e-06
312.893 0.000711433 226.636 0.00051548 21.4088 3.55384e-05
277.786 0.000630727 215.734 0.000490417 33.5054 6.33467e-05
241.807 0.000548016 203.595 0.000462511 46.3657 9.29105e-05
205.415 0.000464358 190.225 0.000431776 59.7634 0.00012371
169.101 0.000380877 175.653 0.000398277 73.4526 0.000155179
133.33 0.000298643 159.958 0.000362197 87.1648 0.000186701
98.4782 0.000218525 143.268 0.000323828 100.621 0.000217636
64.8066 0.000141119 125.765 0.000283592 113.539 0.000247332
32.4892 6.68265e-05 107.679 0.000242017 125.632 0.000275132
2.56808 -1.95774e-06 89.368 0.000199921 136.602 0.000300351
-12.7196 -6.48701e-05 73.0602 0.000162432 145.884 0.000321688
-25.2946 -0.000116619 56.3152 0.000123938 153.577 0.000339374
-38.751 -0.000171995 40.0236 8.64858e-05 159.651 0.000353338
-51.4131 -0.000224102 24.3815 5.05271e-05 163.483 0.000362146
-63.0895 -0.000272153 9.59632 1.65381e-05 165.327 0.000366386
-74.0468 -0.000317245 -2.13089 -1.91109e-05 164.796 0.000365163
-84.624 -0.000360773 -11.0507 -5.58179e-05 161.943 0.000358605
-94.6202 -0.000401909 -19.0731 -8.88321e-05 156.657 0.000346453
-103.911 -0.000440142 -26.1388 -0.000117909 148.99 0.000328829
-112.713 -0.000476367 -32.2499 -0.000143057 139.01 0.000305886
-121.17 -0.000511168 -37.5093 -0.000164701 126.816 0.000277854
-129.24 -0.000544377 -42.0169 -0.000183251 112.555 0.00024507
-136.949 -0.000576103 -45.9165 -0.000199298 96.4125 0.000207961
-144.433 -0.0006069 -49.3574 -0.000213458 78.6151 0.000167047
-151.779 -0.000637132 -52.499 -0.000226387 59.4217 0.000122924
-159.038 -0.000667003 -55.5303 -0.000238861 39.1112 7.62335e-05
-166.31 -0.000696931 -58.6599 -0.000251741 17.9734 2.7641e-05
-173.741 -0.00072751 -62.0651 -0.000265754 -1.54687 -2.38883e-05
-181.476 -0.000759339 -65.7065 -0.000280739 -18.3065 -9.28579e-05
-189.587 -0.000792719 -70.1745 -0.000299126 -34.4804 -0.000159417
-198.157 -0.000827988 -75.4808 -0.000320962 -50.4874 -0.00022529
-207.297 -0.000865599 -81.7425 -0.000346731 -66.1197 -0.00028962
-216.974 -0.000905422 -89.2168 -0.000377489 -81.1886 -0.000351632
-227.177 -0.000947409 -98.0352 -0.000413779 -95.4549 -0.000410341
-237.823 -0.000991222 -108.343 -0.0004562 -108.718 -0.000464923
-248.833 -0.00103653 -120.18 -0.000504908 -120.9 -0.000515056
-260.104 -0.00108291 -133.573 -0.000560026 -131.974 -0.000560624
-271.538 -0.00112997 -148.51 -0.000621495 -141.905 -0.000601492
-283.047 -0.00117733 -164.921 -0.000689029 -150.639 -0.000637437
-294.55 -0.00122466 -182.668 -0.000762062 -158.149 -0.000668341
-305.967 -0.00127165 -201.554 -0.000839781 -164.471 -0.000694358
0 -0.0277479 -195.599 -0.000815275 -173.032 -0.000729587
0 -0.0576184 -140.425 -0.000588223 -193.21 -0.000812627
0 -0.0689709 -171.476 -0.000716003 -188.583 -0.000793586
0 -0.0669287 -198.109 -0.000825605 -191.096 -0.000803927
0 -0.0624331 -239.745 -0.000996946 -186.282 -0.000784116
0 -0.0666241 -256.162 -0.00106451 -184.922 -0.000778516
0 -0.0738296 -267.288 -0.00111029 -183.621 -0.000773165
0 -0.0771722 -290.064 -0.00120402 -178.571 -0.000752383
0 -0.0769654 -319.596 -0.00132555 -172.518 -0.000727472
0 -0.0779443 -340.921 -0.00141331 -167.029 -0.000704885
0 -0.0826756 -354.049 -0.00146733 -162.492 -0.000686215
0 -0.0879089 -361.212 -0.00149681 -159.048 -0.000672039
0 -0.0899478 -375.55 -0.00155581 -153.839 -0.000650603
0 -0.0905304 -387.828 -0.00160634 -149.456 -0.000632567
0 -0.0919315 -394.773 -0.00163492 -146.228 -0.000619285
0 -0.0945765 -395.161 -0.00163652 -144.053 -0.000610334
0 -0.096918 -392.536 -0.00162572 -142.691 -0.000604729
0 -0.097892 -389.846 -0.00161464 -141.584 -0.000600171
0 -0.0982005 -385.079 -0.00159503 -141.271 -0.000598887
0 -0.0988606 -376.29 -0.00155886 -141.815 -0.000601123
0 -0.099888 -363.921 -0.00150796 -142.98 -0.000605916
0 -0.100376 -350.659 -0.00145338 -144.255 -0.000611163
0 -0.100304 -337.537 -0.00139938 -145.44 -0.000616039
0 -0.100255 -322.404 -0.00133711 -146.983 -0.000622391
0 -0.100247 -306.656 -0.0012723 -148.164 -0.000627253
0 -0.100222 -290.327 -0.0012051 -148.943 -0.000630455
0 -0.100139 -274.435 -0.0011397 -149.065 -0.000630959
0 -0.100067 -259.131 -0.00107672 -148.425 -0.000628327
0 -0.100035 -244.756 -0.00101757 -146.873 -0.000621936
0 -0.100011 -231.766 -0.000964111 -144.207 -0.000610968
0 -0.0999861 -220.488 -0.000917698 -140.323 -0.000594985
0 -0.0999893 -211.138 -0.000879224 -135.164 -0.000573753
0 -0.10003 -204.292 -0.00085105 -128.669 -0.000547024
0 -0.100084 -199.459 -0.000831159 -121.033 -0.0005156
0 -0.100155 -197.093 -0.000821426 -112.094 -0.000478813
0 -0.100259 -196.751 -0.000820017 -102.122 -0.000437777
0 -0.100381 -198.78 -0.000828366 -91.1274 -0.000392532
0 -0.100501 -202.943 -0.0008455 -79.3925 -0.000344241
0 -0.100645 -208.98 -0.000870341 -67.1264 -0.000293763
0 -0.101178 -216.007 -0.000899259 -54.6909 -0.000242588
0 -0.102017 -223.451 -0.000929894 -42.4254 -0.000192113
0 -0.102869 -231.99 -0.000965033 -30.307 -0.000142243
0 -0.103544 -241.216 -0.001003 -18.7217 -9.45666e-05
0 -0.104043 -250.826 -0.00104255 -7.88834 -4.99849e-05
0 -0.104528 -259.929 -0.00108001 2.16997 -1.34245e-05
0 -0.105027 -268.212 -0.0011141 11.1495 7.21815e-06
0 -0.105402 -275.562 -0.00114434 18.4726 2.40528e-05
0 -0.105541 -281.85 -0.00117022 23.9669 3.66834e-05
0 -0.105497 -286.853 -0.00119081 27.5531 4.49274e-05
0 -0.105422 -289.936 -0.00120349 29.0158 4.82901e-05
0 -0.105301 -291.187 -0.00120864 28.1652 4.63347e-05
0 -0.105117 -290.579 -0.00120614 24.8776 3.87768e-05
0 -0.104887 -288.165 -0.0011962 19.1641 2.56424e-05
0 -0.104521 -284.196 -0.00117987 11.2503 7.4497e-06
0 -0.103639 -279.119 -0.00115898 1.67384 -1.45651e-05
0 -0.102023 -273.703 -0.00113669 -7.67164 -5.30238e-05
0 -0.099968 -267.433 -0.00111089 -18.2602 -9.65981e-05
0 -0.0978448 -259.836 -0.00107963 -30.073 -0.000145211
0 -0.0957806 -251.025 -0.00104336 -42.8432 -0.000197763
0 -0.093624 -241.567 -0.00100444 -56.2698 -0.000253016
0 -0.0912672 -231.964 -0.000964926 -70.0191 -0.000309598
0 -0.088781 -222.326 -0.000925265 -83.8516 -0.000366522
0 -0.0863551 -212.613 -0.000885292 -97.5404 -0.000422854
0 -0.0840466 -203.034 -0.000845871 -110.837 -0.000477572
0 -0.0817956 -194.087 -0.000809055 -123.41 -0.000529313
0 -0.0795888 -186.031 -0.0007759 -135.015 -0.000577071
0 -0.0775133 -178.916 -0.00074662 -145.45 -0.000620015
0 -0.075663 -172.785 -0.000721389 -154.538 -0.00065741
0 -0.0740589 -167.758 -0.000700706 -162.112 -0.000688582
0 -0.0726774 -164.026 -0.000685347 -168.024 -0.000712909
0 -0.0715255 -161.647 -0.000675557 -172.171 -0.000729977
0 -0.0706432 -160.583 -0.000671175 -174.501 -0.000739564
0 -0.0700484 -160.814 -0.000672129 -174.984 -0.000741551
0 -0.069707 -162.372 -0.000678541 -173.585 -0.000735797
0 -0.0695689 -165.29 -0.000690547 -170.333 -0.000722412
0 -0.0695711 -169.52 -0.000707954 -165.302 -0.000701708
0 -0.0696013 -175.121 -0.000731006 -158.581 -0.000674051
0 -0.0696423 -181.888 -0.000758851 -150.339 -0.000640131
0 -0.0696854 -189.563 -0.000790438 -140.795 -0.000600856
0 -0.0697224 -197.877 -0.000824651 -130.164 -0.000557107
0 -0.0697385 -206.505 -0.000860155 -118.714 -0.00050999
0 -0.0697212 -215.093 -0.000895496 -106.713 -0.000460602
0 -0.0696825 -223.142 -0.000928622 -94.4612 -0.000410183
0 -0.0696831 -229.467 -0.00095465 -82.4036 -0.000360563
0 -0.0695872 -235.128 -0.000977945 -70.5477 -0.000311773
0 -0.0694508 -238.881 -0.000993393 -59.2696 -0.000265361
0 -0.0692133 -240.867 -0.00100156 -48.7901 -0.000222236
0 -0.068334 -241.348 -0.00100354 -39.1225 -0.000182451
0 -0.0667527 -240.681 -0.0010008 -30.3326 -0.000146279
0 -0.0647516 -237.461 -0.000987549 -22.8921 -0.00011566
0 -0.0625432 -231.693 -0.000963811 -16.7781 -9.04988e-05
0 -0.0601457 -223.01 -0.000928077 -12.1401 -7.14125e-05
0 -0.0573328 -212.021 -0.000882857 -8.85746 -5.79038e-05
0 -0.0540496 -198.809 -0.000828488 -6.87766 -4.97564e-05
0 -0.0505179 -183.023 -0.000763522 -6.22221 -4.70591e-05
0 -0.0468596 -164.76 -0.000688367 -6.802 -4.94451e-05
0 -0.0430356 -144.455 -0.000604807 -8.38519 -5.59603e-05
0 -0.038983 -122.561 -0.000514706 -10.7741 -6.5791e-05
0 -0.0347464 -99.4308 -0.000419522 -13.716 -7.78976e-05
0 -0.0304601 -75.1998 -0.000319806 -17.0126 -9.14639e-05
0 -0.0262451 -50.244 -0.000217107 -20.3985 -0.000105398
0 -0.0222063 -25.2689 -0.000114329 -23.5461 -0.000118351
0 -0.0181295 -0.702395 -1.32323e-05 -26.2436 -0.000129452
0 -0.0140912 32.5526 6.32159e-05 -28.1779 -0.000137412
0 -0.0102175 64.7135 0.000137149 -29.0681 -0.000141075
0 -0.0066323 95.3379 0.00020755 -28.886 -0.000140326
0 -0.00328373 123.379 0.000272012 -27.3192 -0.000133878
0 -0.000215129 148.741 0.000330316 -24.3075 -0.000121484
0 0.000579667 173.411 0.000387029 -19.978 -0.000103667
0 0.000682195 199.194 0.000446299 -14.8801 -8.26884e-05
0 0.000762098 216.374 0.000485794 -6.81509 -4.94989e-05
0 0.000816628 230.728 0.000518792 2.23256 -1.65579e-05
0 0.000871242 239.355 0.000538625 14.4883 1.16162e-05
0 0.000931225 244.018 0.000549343 28.0079 4.26958e-05
0 0.000981696 244.106 0.000549545 43.2074 7.76371e-05
0 0.00101444 240.707 0.000541731 59.6932 0.000115536
0 0.00105338 233.628 0.000525458 77.2256 0.00015584
0 0.00109431 223.496 0.000502167 95.5523 0.00019797
0 0.00113492 210.849 0.000473092 114.089 0.000240584
0 0.00117726 196.337 0.000439731 132.604 0.000283146
0 0.00122541 180.882 0.000404203 150.644 0.000324617
0 0.00127895 165.243 0.000368252 167.849 0.000364169
0 0.00133653 150.246 0.000333775 183.766 0.000400761
0 0.00139922 136.727 0.000302696 197.995 0.000433471
0 0.00146787 125.514 0.000276919 210.186 0.000461496
0 0.00154161 117.323 0.000258091 220.053 0.000484179
0 0.0016195 112.779 0.000247645 227.361 0.000500979
0 0.00170131 112.415 0.000246807 231.926 0.000511473
0 0.00178658 116.611 0.000256454 233.63 0.000515389
0 0.00187443 125.585 0.000277083 232.24 0.000512195
0 0.00196452 139.324 0.000308667 227.716 0.000501794
0 0.002057 157.71 0.000350933 220.164 0.000484434
0 0.002152 180.42 0.000403142 209.851 0.000460727
0 0.00224941 206.99 0.000464221 197.115 0.000431447
0 0.00234906 236.867 0.000532903 182.357 0.000397521
0 0.00245002 269.447 0.0006078 166.024 0.000359975
0 0.00255149 304.043 0.000687333 148.601 0.000319922
0 0.00265313 339.838 0.000769619 130.621 0.000278589
0 0.00275423 376.015 0.000852784 112.635 0.00023724
0 0.00285392 411.769 0.000934977 95.1924 0.000197143
0 0.00291384 445.23 0.0010119 79.0001 0.000159919
0 0.00290163 468.421 0.00106521 65.5722 0.00012905
0 0.00288679 490.26 0.00111542 54.1999 0.000102907
0 0.00288436 512.838 0.00116732 43.8159 7.9036e-05
0 0.00288549 530.251 0.00120735 36.9736 6.33066e-05
0 0.00288137 546.645 0.00124504 32.0417 5.1969e-05
0 0.0028767 559.008 0.00127346 30.0665 4.74282e-05
0 0.00287811 568.134 0.00129444 30.973 4.9512e-05
0 0.00288247 574.255 0.00130851 34.7119 5.81072e-05
0 0.00288586 576.684 0.00131409 41.4277 7.35459e-05
0 0.00289046 575.679 0.00131178 50.8748 9.52635e-05
0 0.00289867 571.204 0.0013015 62.9203 0.000122954
0 0.00290921 563.476 0.00128373 77.366 0.000156163
0 0.0029203 552.936 0.0012595 93.9167 0.00019421
0 0.00293053 540.045 0.00122987 112.219 0.000236285
0 0.00292932 525.529 0.0011965 131.844 0.000281398
0 0.00292084 509.885 0.00116053 152.371 0.000328588
0 0.00290875 493.284 0.00112237 173.379 0.000376882
0 0.00289317 476.799 0.00108447 194.385 0.000425172
0 0.00283114 463.074 0.00105292 214.708 0.000471892
0 0.00277541 450.526 0.00102407 233.46 0.000515
0 0.00272246 438.618 0.000996701 250.114 0.000553283
0 0.00267562 428.679 0.000973852 263.035 0.000582989
0 0.00263631 419.031 0.000951672 264.165 0.000585585
0 0.00260651 411.236 0.000933753 264.492 0.000586338
0 0.00258365 407.678 0.000925573 264.35 0.000586012
0 0.00256482 405.939 0.000921575 264.243 0.000585765
0 0.00254645 407.584 0.000925358 264.624 0.000586641
0 0.00253009 412.195 0.000935956 265.179 0.000587918
0 0.00251577 419.797 0.000953432 265.43 0.000588493
0 0.00250339 430.196 0.000977338 264.104 0.000585446
0 0.00249346 442.436 0.00100548 260.78 0.000577805
0 0.00248572 456.296 0.00103734 255.525 0.000565723
0 0.00247966 471.33 0.0010719 248.708 0.000550052
0 0.00247494 487.048 0.00110803 240.426 0.000531012
0 0.00247109 502.895 0.00114446 230.836 0.000508967
0 0.00246763 518.259 0.00117978 220.265 0.000484665
0 0.00246391 532.596 0.00121274 209.126 0.000459058
0 0.00245917 545.409 0.0012422 197.791 0.000433001
0 0.00245269 556.218 0.00126704 186.514 0.000407077
0 0.00244361 564.588 0.00128629 175.49 0.000381736
0 0.00243118 570.149 0.00129907 164.939 0.000357479
0 0.0024148 572.606 0.00130472 155.109 0.000334882
0 0.00239388 571.756 0.00130276 146.221 0.00031445
0 0.00236811 567.451 0.00129287 138.405 0.000296483
0 0.00233737 559.641 0.00127491 131.71 0.000281091
0 0.00230173 548.366 0.00124899 126.141 0.00026829
0 0.00226147 533.745 0.00121538 121.692 0.000258062
0 0.00221688 515.999 0.00117459 118.327 0.000250327
0 0.00216828 495.419 0.00112728 115.956 0.000244875
0 0.00211582 472.385 0.00107432 114.425 0.000241355
0 0.00205947 447.365 0.00101681 113.539 0.000239318
0 0.00199914 420.867 0.000955894 113.089 0.000238284
0 0.00193466 393.444 0.000892852 112.862 0.000237763
0 0.0018661 365.636 0.000828926 112.639 0.000237251
0 0.00179362 337.977 0.000765341 112.193 0.000236225
0 0.00171739 310.985 0.000703289 111.297 0.000234164
0 0.00163775 285.121 0.000643833 109.741 0.000230589
0 0.0015549 260.81 0.000587945 107.35 0.000225092
0 0.00146898 238.402 0.000536433 103.98 0.000217344
0 0.00138001 218.178 0.00048994 99.5194 0.00020709
0 0.00128783 200.346 0.000448948 93.8937 0.000194157
0 0.0011923 185.007 0.000413687 87.0682 0.000178467
0 0.00109322 172.168 0.00038417 79.0559 0.000160048
0 0.000990223 161.721 0.000360154 69.9178 0.00013904
0 0.000881835 153.459 0.000341161 59.756 0.00011568
0 0.000761848 147.125 0.000326601 48.7051 9.02755e-05
0 0.000599148 142.439 0.000315829 36.9203 6.31841e-05
0 0.000257175 139.343 0.000308712 24.5442 3.47331e-05
0 -0.000179342 137.503 0.000304481 11.7652 5.35624e-06
0 -0.000575836 135.827 0.000300629 0.449891 -2.0656e-05
0 -0.000937358 134.883 0.000298459 -7.97312 -5.53186e-05
0 -0.0012819 133.46 0.000295187 -15.601 -8.6709e-05
0 -0.00161831 131.559 0.000290818 -22.9688 -0.000117029
0 -0.00201464 129.255 0.000285521 -30.0325 -0.000146098
0 -0.00252238 126.306 0.000278741 -36.7452 -0.000173722
0 -0.00305425 121.731 0.000268225 -42.886 -0.000198993
0 -0.00366551 116.521 0.000256247 -48.333 -0.000221408
0 -0.00441801 111.195 0.000244003 -53.1583 -0.000241266
0 -0.00542086 105.219 0.000230264 -57.2753 -0.000258208
0 -0.00665683 98.4498 0.000214704 -60.7456 -0.000272489
0 -0.00816611 91.1029 0.000197814 -63.5499 -0.00028403
0 -0.00998356 83.2168 0.000179685 -65.6168 -0.000292535
0 -0.0121029 74.8463 0.000160443 -66.9017 -0.000297823
0 -0.014452 66.0131 0.000140137 -67.4444 -0.000300056
0 -0.0169729 56.4897 0.000118244 -67.211 -0.000299096
0 -0.0196967 46.5385 9.53675e-05 -66.1524 -0.00029474
0 -0.022643 36.2461 7.17068e-05 -64.2599 -0.000286951
0 -0.0257963 25.5643 4.7151e-05 -61.549 -0.000275796
0 -0.0291027 14.5031 2.17228e-05 -58.1222 -0.000261693
0 -0.0325156 3.043 -4.62219e-06 -54.0696 -0.000245016
0 -0.036018 -6.25068 -3.75781e-05 -49.5052 -0.000226233
0 -0.0395876 -15.0512 -7.37944e-05 -44.5264 -0.000205743
0 -0.0431823 -24.1856 -0.000111384 -39.2196 -0.000183905
0 -0.0467545 -33.6203 -0.00015021 -33.7013 -0.000161196
0 -0.0502704 -43.2932 -0.000190016 -28.1119 -0.000138194
0 -0.0537195 -53.0673 -0.000230239 -22.6118 -0.00011556
0 -0.0570951 -62.8025 -0.000270302 -17.3473 -9.38953e-05
0 -0.0603835 -72.3827 -0.000309726 -12.4468 -7.37289e-05
0 -0.0635671 -81.6873 -0.000348017 -8.03427 -5.55702e-05
0 -0.0666319 -90.6025 -0.000384705 -4.2348 -3.99345e-05
0 -0.0695692 -99.0202 -0.000419346 -1.16871 -2.73169e-05
0 -0.0723706 -106.844 -0.000451541 1.25923 -1.96984e-05
0 -0.0750274 -114.009 -0.000481029 2.79394 -1.61703e-05
0 -0.0775178 -120.429 -0.000507447 3.19538 -1.52474e-05
0 -0.0798472 -126.064 -0.000530639 2.42076 -1.70282e-05
0 -0.0820233 -130.898 -0.000550531 0.508516 -2.14241e-05
0 -0.0840621 -134.872 -0.000566884 -2.09138 -3.21233e-05
0 -0.0859725 -138.054 -0.000579979 -5.59978 -4.65611e-05
0 -0.0877584 -140.488 -0.000589995 -10.0166 -6.47375e-05
0 -0.0893196 -142.586 -0.000598627 -15.2386 -8.62271e-05
0 -0.0905952 -144.734 -0.000607466 -21.0833 -0.000110279
0 -0.0917817 -146.001 -0.000612683 -27.7394 -0.000137671
0 -0.0929153 -147.04 -0.000616957 -34.9134 -0.000167193
0 -0.0940806 -147.543 -0.000619027 -42.5933 -0.000198798
0 -0.0952449 -147.822 -0.000620177 -50.6622 -0.000232003
0 -0.0963709 -148.2 -0.000621731 -58.9193 -0.000265983
0 -0.0975169 -148.631 -0.000623503 -66.6521 -0.000297805
0 -0.0987614 -149.018 -0.000625099 -73.5109 -0.000326031
0 -0.100155 -149.689 -0.000627858 -80.0625 -0.000352992
0 -0.101678 -150.885 -0.000632782 -86.4524 -0.000379288
0 -0.103328 -152.714 -0.000640307 -92.5207 -0.00040426
0 -0.105126 -155.352 -0.000651164 -98.1895 -0.000427589
0 -0.107174 -158.841 -0.000665523 -103.395 -0.000449011
0 -0.109603 -163.004 -0.000682655 -108.111 -0.000468419
0 -0.112296 -168.2 -0.000704037 -112.262 -0.000485498
0 -0.115122 -174.792 -0.000731163 -115.742 -0.000499823
0 -0.117995 -182.941 -0.000764697 -118.55 -0.000511379
0 -0.120899 -192.675 -0.000804757 -120.667 -0.000520087
0 -0.12376 -204.084 -0.000851708 -122.103 -0.000526
0 -0.126564 -217.07 -0.000905149 -122.891 -0.000529239
0 -0.129288 -231.454 -0.000964341 -123.129 -0.00053022
0 -0.131932 -246.965 -0.00102817 -122.842 -0.00052904
0 -0.134503 -263.191 -0.00109495 -122.157 -0.000526219
0 -0.136984 -279.816 -0.00116336 -121.204 -0.000522298
0 -0.139356 -296.462 -0.00123187 -120.166 -0.000518028
0 -0.141608 -312.728 -0.0012988 -119.231 -0.000514179
0 -0.143738 -328.216 -0.00136254 -118.584 -0.000511517
0 -0.145733 -342.577 -0.00142164 -118.39 -0.000510719
0 -0.147571 -355.539 -0.00147498 -118.782 -0.000512333
0 -0.149227 -366.861 -0.00152157 -119.869 -0.000516806
0 -0.150686 -376.34 -0.00156058 -121.68 -0.000524257
0 -0.151939 -383.789 -0.00159124 -123.8 -0.00053298
0 -0.152978 -389.093 -0.00161306 -126.507 -0.000544122
0 -0.153699 -392.159 -0.00162568 -129.844 -0.000557855
0 -0.154202 -393.141 -0.00162972 -133.811 -0.000574181
0 -0.154527 -392.017 -0.00162509 -138.382 -0.000592989
0 -0.154614 -389.214 -0.00161356 -143.409 -0.000613676
0 -0.154583 -384.71 -0.00159502 -148.814 -0.000635919
0 -0.154528 -378.411 -0.0015691 -154.542 -0.000659493
0 -0.154442 -370.686 -0.00153731 -160.42 -0.000683681
0 -0.154323 -361.745 -0.00150052 -166.329 -0.000707997
0 -0.154175 -351.965 -0.00146027 -172.102 -0.000731757
0 -0.154004 -341.787 -0.00141838 -177.565 -0.000754235
0 -0.15373 -331.353 -0.00137545 -182.604 -0.000774973
0 -0.153187 -321.6 -0.00133531 -186.934 -0.000792793
0 -0.152346 -312.622 -0.00129837 -190.476 -0.00080737
0 -0.151329 -304.518 -0.00126501 -193.126 -0.000818274
0 -0.150331 -297.198 -0.00123489 -194.834 -0.000825301
0 -0.149454 -290.729 -0.00120827 -195.537 -0.000828194
0 -0.148658 -285.317 -0.001186 -194.987 -0.00082593
0 -0.147874 -281.17 -0.00116893 -193 -0.000817757
0 -0.1471 -278.329 -0.00115724 -189.536 -0.000803501
0 -0.146365 -276.711 -0.00115058 -184.651 -0.000783397
0 -0.145676 -276.249 -0.00114868 -178.429 -0.000757793
0 -0.144987 -276.944 -0.00115154 -170.966 -0.000727079
0 -0.144251 -278.688 -0.00115872 -162.385 -0.000691769
0 -0.14346 -281.25 -0.00116926 -152.853 -0.000652541
0 -0.142628 -284.301 -0.00118182 -142.568 -0.000610215
0 -0.141751 -287.528 -0.0011951 -131.749 -0.000565693
0 -0.140802 -290.652 -0.00120795 -120.619 -0.000519892
0 -0.139755 -293.404 -0.00121928 -109.397 -0.000473709
0 -0.138601 -295.471 -0.00122779 -98.3034 -0.000428058
0 -0.137328 -296.577 -0.00123234 -87.5434 -0.000383777
0 -0.135919 -296.47 -0.0012319 -77.3121 -0.000341673
0 -0.134353 -294.962 -0.00122569 -67.782 -0.000302455
0 -0.132632 -291.84 -0.00121284 -59.1053 -0.000266749
0 -0.130814 -286.725 -0.0011918 -51.4554 -0.000235267
0 -0.128755 -280.134 -0.00116467 -44.7982 -0.000207871
0 -0.126439 -271.908 -0.00113082 -39.1879 -0.000184784
0 -0.123866 -262.087 -0.0010904 -34.6858 -0.000166257
0 -0.121096 -250.622 -0.00104322 -31.2462 -0.000152102
0 -0.118187 -237.437 -0.000988961 -28.8978 -0.000142438
0 -0.115131 -222.82 -0.000928812 -27.5128 -0.000136738
0 -0.111922 -206.99 -0.000863665 -26.9932 -0.0001346
0 -0.108437 -190.641 -0.000796386 -27.1257 -0.000135145
0 -0.104786 -173.737 -0.000726823 -27.7682 -0.000137789
0 -0.101065 -156.188 -0.000654602 -28.9217 -0.000142536
0 -0.0972984 -138.532 -0.000581947 -30.264 -0.00014806
0 -0.0935053 -120.875 -0.000509282 -31.7367 -0.000154121
0 -0.0896666 -103.727 -0.000438713 -33.088 -0.000159682
0 -0.0858227 -87.2363 -0.000370852 -34.1782 -0.000164168
0 -0.082039 -71.5132 -0.000306148 -34.8766 -0.000167042
0 -0.0783544 -56.735 -0.000245333 -35.0501 -0.000167756
0 -0.0747806 -43.0809 -0.000189143 -34.5895 -0.00016586
0 -0.0713284 -30.7101 -0.000138234 -33.3975 -0.000160955
0 -0.0680263 -19.6722 -9.28108e-05 -31.4098 -0.000152775
0 -0.0648806 -10.0478 -5.3204e-05 -28.5761 -0.000141114
0 -0.0618948 -1.87358 -1.95654e-05 -24.8724 -0.000125873
0 -0.0590876 6.86033 3.83391e-06 -20.3289 -0.000107175
0 -0.0566556 13.9264 2.00778e-05 -14.9008 -8.48371e-05
0 -0.0542989 19.1932 3.21854e-05 -8.79805 -5.97227e-05
0 -0.0520818 22.819 4.05205e-05 -1.99002 -3.17062e-05
0 -0.0500872 25.4822 4.66429e-05 4.93182 -1.25187e-05
0 -0.0482165 27.0362 5.02152e-05 12.1646 4.10831e-06
0 -0.0463956 27.4777 5.12302e-05 19.38 2.06954e-05
0 -0.0447748 27.7931 5.19553e-05 26.7876 3.77244e-05
0 -0.0432782 27.9396 5.22919e-05 34.2179 5.48056e-05
0 -0.0417716 27.2259 5.06514e-05 41.7659 7.21573e-05
0 -0.0402204 26.4708 4.89155e-05 49.0191 8.88314e-05
0 -0.0385531 25.366 4.63758e-05 55.9626 0.000104793
0 -0.0367938 24.5194 4.44296e-05 62.4631 0.000119737
0 -0.0349316 24.1723 4.36317e-05 68.4423 0.000133482
0 -0.0329112 24.3849 4.41202e-05 73.8412 0.000145894
0 -0.0306879 25.3669 4.63777e-05 78.5132 0.000156634
0 -0.0282469 27.3493 5.09351e-05 82.3518 0.000165458
0 -0.0255945 30.6216 5.84575e-05 85.2807 0.000172191
0 -0.0227264 35.3928 6.94259e-05 87.2735 0.000176772
0 -0.0196281 41.7831 8.41162e-05 88.3189 0.000179176
0 -0.0162995 49.9479 0.000102886 88.3376 0.000179219
0 -0.0127628 60.039 0.000126084 87.1352 0.000176454
0 -0.00904839 72.1823 0.000153999 84.6778 0.000170805
0 -0.00518132 86.4408 0.000186778 81.0476 0.00016246
0 -0.00118346 102.745 0.000224257 76.3878 0.000151748
0 0.000883948 122.211 0.000269008 70.6505 0.000138559
0 0.0010289 155.976 0.000346628 62.0789 0.000118854
0 0.00118577 183.255 0.000409339 54.902 0.000102355
0 0.0012968 214.504 0.000481177 46.8424 8.38275e-05
0 0.0014014 244.471 0.000550066 39.3345 6.6568e-05
0 0.00152275 275.106 0.00062049 32.506 5.08702e-05
0 0.00163825 305.053 0.000689335 26.638 3.73806e-05
0 0.00173729 333.403 0.000754507 22.1026 2.69543e-05
0 0.00183403 360.197 0.000816102 19.0439 1.99229e-05
0 0.00193373 385.027 0.000873182 17.785 1.70289e-05
0 0.00202646 407.441 0.000924709 18.491 1.86518e-05
0 0.00210953 427.141 0.000969996 21.3036 2.51176e-05
0 0.00218869 444.073 0.00100892 26.2911 3.65832e-05
0 0.00226466 458.135 0.00104125 33.4752 5.30983e-05
0 0.00233373 469.228 0.00106675 42.8259 7.45941e-05
0 0.00239584 477.435 0.00108561 54.2598 0.000100879
0 0.00245342 482.968 0.00109833 67.6394 0.000131637
0 0.00250676 486.018 0.00110535 82.508 0.000165817
0 0.00255513 486.519 0.0011065 95.7828 0.000196334
0 0.00259928 484.887 0.00110274 109.495 0.000227857
0 0.00188131 422.915 0.00096028 128.6 0.000271775
0 0.00230837 417.871 0.000948685 141.987 0.00030255
0 0.00239746 393.051 0.000891629 162.561 0.000349847
0 0.00216053 391.819 0.000888797 172.536 0.000372778
0 0.00223558 396.545 0.000899661 185.88 0.000403453
0 0.0024098 396.458 0.00089946 196.986 0.000428985
0 0.00243152 394.514 0.000894991 206.336 0.00045048
0 0.00240309 396.883 0.000900438 214.594 0.000469464
0 0.00246436 405.172 0.000919493 221.985 0.000486454
0 0.00255424 415.681 0.000943652 227.744 0.000499693
0 0.00259406 426.305 0.000968074 231.102 0.000507413
0 0.00258708 334.182 0.000756298 218.623 0.000478724
0 0.00273645 384.279 0.000871463 211.894 0.000463256
0 0.00280963 406.802 0.00092324 208.628 0.000455748
0 0.00281207 418.892 0.000951034 200.332 0.000436676
0 0.00289064 419.149 0.000951624 193.036 0.000419906
0 0.00299208 440.66 0.00100108 183.298 0.000397519
0 0.00306236 478.283 0.00108756 174.139 0.000376464
0 0.00304558 511.475 0.00116387 163.187 0.000351287
0 0.00303931 526.899 0.00119933 152.339 0.000326348
0 0.00304499 544.235 0.00123918 140.621 0.00029941
0 0.00304098 569.71 0.00129774 130.894 0.000277049
0 0.00302924 581.431 0.00132469 126.405 0.00026673
0 0.00302078 587.873 0.0013395 122.689 0.000258188
0 0.00301822 591.086 0.00134688 117.968 0.000247334
0 0.00301346 592.015 0.00134902 116.712 0.000244448
0 0.0030056 601.154 0.00137003 116.648 0.000244301
0 0.00300048 612.667 0.00139649 118.224 0.000247922
0 0.00299829 621.336 0.00141642 121.364 0.000255142
0 0.00299531 627.514 0.00143062 126.203 0.000266265
0 0.00299162 631.331 0.0014394 133.175 0.000282293
0 0.00298998 633.166 0.00144362 140.481 0.000299089
0 0.00299018 635.577 0.00144916 146.57 0.000313086
0 0.00299 636.969 0.00145236 155.71 0.000334097
0 0.00299044 636.61 0.00145153 168.66 0.000363868
0 0.002993 635.486 0.00144895 183.443 0.000397851
0 0.00299588 634.783 0.00144733 200.646 0.000437399
0 0.00299909 634.295 0.00144621 218.937 0.000479447
0 0.00300367 632.988 0.00144321 236.841 0.000520607
0 0.00300918 630.706 0.00143796 250.799 0.000552694
0 0.00301488 628.191 0.00143218 252.293 0.000556128
0 0.00302104 624.831 0.00142446 253.761 0.000559502
0 0.00302641 623.19 0.00142068 255.642 0.000563828
0 0.00303231 619.344 0.00141184 256.77 0.000566419
0 0.00303537 615.42 0.00140282 256.907 0.000566735
0 0.00303663 611.247 0.00139323 257.137 0.000567264
0 0.00303599 607.07 0.00138363 258.188 0.00056968
0 0.00303283 603.738 0.00137597 259.806 0.000573398
0 0.00302686 601.338 0.00137045 261.164 0.00057652
0 0.00301887 600.029 0.00136744 261.837 0.000578069
0 0.00300913 599.961 0.00136728 262.122 0.000578723
0 0.00299776 601.393 0.00137058 262.586 0.000579789
0 0.00298481 604.323 0.00137731 263.403 0.000581667
0 0.00297006 605.072 0.00137903 264.278 0.00058368
0 0.00294947 605.045 0.00137897 264.88 0.000585064
0 0.00292752 605.435 0.00137987 265.071 0.000585503
0 0.00290625 606.404 0.00138209 265.075 0.000585511
0 0.00288363 606.821 0.00138305 265.081 0.000585525
0 0.00286125 608.184 0.00138619 265.276 0.000585974
0 0.00283761 610.161 0.00139073 265.434 0.000586336
0 0.00281113 612.01 0.00139498 265.051 0.000585456
0 0.00278424 613.662 0.00139878 263.073 0.000580909
0 0.00275719 615.558 0.00140314 259.876 0.000573559
0 0.0027279 617.899 0.00140852 255.54 0.000563593
0 0.00269664 620.425 0.00141433 250.224 0.00055137
0 0.00265688 623.298 0.00142093 242.679 0.000534027
0 0.0026174 625.692 0.00142644 234.708 0.000515703
0 0.00257736 627.753 0.00143117 226.66 0.000497201
0 0.00253673 629.599 0.00143542 219.155 0.000479949
0 0.0024952 631.031 0.00143871 212.421 0.000464467
0 0.00245128 629.802 0.00143588 206.59 0.000451063
0 0.00240179 624.388 0.00142344 201.127 0.000438505
0 0.0023474 614.561 0.00140085 196.393 0.000427621
0 0.00228767 601.814 0.00137154 192.438 0.000418531
0 0.00222171 586.499 0.00133634 189.857 0.000412598
0 0.00215028 567.203 0.00129198 187.817 0.000407906
0 0.00207296 545.324 0.00124168 186.275 0.000404362
0 0.00198806 521.634 0.00118722 184.887 0.000401172
0 0.00189561 495.67 0.00112753 183.343 0.000397622
0 0.00179633 467.461 0.00106269 181.246 0.000392801
0 0.00169116 438.157 0.000995322 178.366 0.00038618
0 0.00158087 408.236 0.000926538 174.339 0.000376924
0 0.00146667 377.497 0.000855871 168.805 0.000364202
0 0.00134967 346.237 0.000784011 161.526 0.000347468
0 0.00123064 315.124 0.000712487 152.331 0.00032633
0 0.00111013 284.432 0.000641929 141.025 0.000300339
0 0.000987795 254.144 0.000572301 127.45 0.000269132
0 0.000860086 224.479 0.000504107 111.562 0.000232608
0 0.000711791 195.833 0.000438255 93.3824 0.000190816
0 0.000411247 168.551 0.000375538 72.9228 0.000143782
0 -0.000222719 143.249 0.000317372 50.1361 9.13992e-05
0 -0.000820668 121.552 0.000267492 25.0213 3.3664e-05
0 -0.00137982 100.532 0.000219172 1.32777 -2.58339e-05
0 -0.00198593 82.431 0.00017756 -8.68749 -6.7049e-05
0 -0.00281251 64.577 0.000136516 -18.4021 -0.000107027
0 -0.00402376 48.032 9.84814e-05 -27.1983 -0.000143225
0 -0.00558257 32.3808 6.25017e-05 -35.8433 -0.000178801
0 -0.00716399 17.9912 2.94221e-05 -45.1939 -0.000217281
0 -0.00881798 5.93827 1.71424e-06 -54.8922 -0.000257192
0 -0.0104598 -2.98126 -2.75417e-05 -63.6653 -0.000293295
0 -0.0122003 -9.78313 -5.55329e-05 -71.7431 -0.000326537
0 -0.0141265 -16.6085 -8.3621e-05 -79.6802 -0.0003592
0 -0.0161463 -23.6663 -0.000112665 -87.4582 -0.000391208
0 -0.0183113 -30.6354 -0.000141345 -94.6828 -0.000420939
0 -0.0205881 -37.6278 -0.00017012 -100.984 -0.000446869
0 -0.0230648 -44.7551 -0.00019945 -106.558 -0.000469807
0 -0.0256982 -52.1488 -0.000229877 -111.566 -0.000490416
0 -0.0284622 -59.8386 -0.000261522 -115.859 -0.000508085
0 -0.0313063 -67.9111 -0.000294743 -119.214 -0.000521892
0 -0.0342264 -76.4065 -0.000329703 -121.636 -0.000531858
0 -0.0372369 -85.1995 -0.000365889 -123.319 -0.000538784
0 -0.0403428 -94.1965 -0.000402913 -124.327 -0.000542933
0 -0.0435629 -103.195 -0.000439944 -124.637 -0.000544206
0 -0.0469206 -112.07 -0.000476468 -123.964 -0.000541439
0 -0.0504427 -120.603 -0.000511583 -121.977 -0.000533262
0 -0.0541382 -128.686 -0.000544846 -118.842 -0.000520358
0 -0.0579866 -136.232 -0.000575898 -114.817 -0.000503798
0 -0.0619565 -143.512 -0.000605857 -110.133 -0.00048452
0 -0.0658502 -150.655 -0.000635251 -104.672 -0.000462048
0 -0.0705553 -157.483 -0.000663351 -99.0988 -0.000439112
0 -0.0754282 -163.109 -0.000686505 -93.6754 -0.000416793
0 -0.0796781 -169.221 -0.000711658 -87.5777 -0.0003917
0 -0.083734 -175.699 -0.000738313 -82.0153 -0.00036881
0 -0.0880938 -182.361 -0.00076573 -77.7628 -0.000351309
0 -0.0925441 -187.117 -0.000785304 -73.9047 -0.000335433
0 -0.096409 -192.783 -0.00080862 -70.5819 -0.000321758
0 -0.0998488 -199.038 -0.00083436 -68.0153 -0.000311196
0 -0.103213 -203.893 -0.000854338 -66.3184 -0.000304213
0 -0.106341 -207.788 -0.000870366 -65.5197 -0.000300926
0 -0.108973 -211.97 -0.000887577 -65.698 -0.00030166
0 -0.111233 -216.032 -0.000904294 -66.912 -0.000306656
0 -0.113276 -219.199 -0.000917325 -69.1449 -0.000315845
0 -0.11501 -221.807 -0.000928058 -72.3715 -0.000329123
0 -0.116348 -224.339 -0.000938479 -76.5766 -0.000346428
0 -0.117335 -226.494 -0.000947345 -81.7176 -0.000367584
0 -0.118095 -227.819 -0.000952802 -87.7476 -0.000392399
0 -0.118632 -228.505 -0.000955622 -94.5337 -0.000420325
0 -0.118947 -228.704 -0.000956441 -101.988 -0.000451001
0 -0.119123 -228.342 -0.00095495 -109.926 -0.000483668
0 -0.119256 -227.247 -0.000950447 -118.156 -0.000517536
0 -0.119259 -226.034 -0.000945455 -122.872 -0.000536945
0 -0.119258 -223.806 -0.000936285 -126.562 -0.000552128
0 -0.119252 -221.858 -0.000928267 -129.661 -0.000564883
0 -0.119264 -219.806 -0.000919825 -132.208 -0.000575363
0 -0.11927 -218.367 -0.000913901 -134.563 -0.000585054
0 -0.11929 -217.392 -0.000909889 -136.869 -0.000594545
0 -0.119319 -217.279 -0.000909427 -138.869 -0.000602774
0 -0.119434 -218.08 -0.00091272 -140.314 -0.000608722
0 -0.119797 -219.562 -0.000918822 -141.296 -0.000612763
0 -0.120313 -221.908 -0.000928477 -141.979 -0.000615575
0 -0.120781 -224.519 -0.000939219 -142.275 -0.000616792
0 -0.121128 -228.159 -0.000954201 -141.541 -0.00061377
0 -0.121473 -232.338 -0.000971396 -139.871 -0.000606899
0 -0.12177 -237.086 -0.000990936 -137.266 -0.00059618
0 -0.121893 -242.263 -0.00101224 -134.001 -0.000582741
0 -0.121843 -247.695 -0.00103459 -130.202 -0.000567107
0 -0.121755 -252.745 -0.00105538 -126.197 -0.000550626
0 -0.121617 -257.237 -0.00107386 -122.151 -0.000533978
0 -0.121407 -259.849 -0.00108461 -118.739 -0.000519935
0 -0.12113 -261.554 -0.00109163 -115.628 -0.000507133
0 -0.1205 -262.263 -0.00109454 -112.952 -0.000496121
0 -0.119289 -262.114 -0.00109393 -110.664 -0.000486706
0 -0.117652 -260.122 -0.00108573 -108.946 -0.000479637
0 -0.11594 -255.244 -0.00106566 -108.077 -0.00047606
0 -0.11417 -247.674 -0.00103451 -107.948 -0.000475529
0 -0.112266 -237.657 -0.000993286 -108.437 -0.00047754
0 -0.110316 -225.262 -0.000942276 -109.399 -0.000481498
0 -0.108398 -210.77 -0.000882637 -110.68 -0.00048677
0 -0.106238 -195.764 -0.000820888 -111.787 -0.000491326
0 -0.104103 -179.519 -0.000754036 -112.756 -0.000495316
0 -0.102108 -162.902 -0.000685653 -113.129 -0.000496849
0 -0.100319 -146.173 -0.000616806 -112.808 -0.000495529
0 -0.0986731 -130.418 -0.000551972 -111.412 -0.000489782
0 -0.0972623 -116.176 -0.000493362 -108.847 -0.00047923
0 -0.0961956 -103.618 -0.000441685 -104.989 -0.000463353
0 -0.0954438 -93.0027 -0.000398 -99.5336 -0.000440901
0 -0.0948994 -85.0374 -0.000365221 -92.417 -0.000411615
0 -0.0945932 -79.7403 -0.000343423 -83.7132 -0.000375797
0 -0.0945845 -76.6941 -0.000330887 -73.513 -0.000333821
0 -0.09463 -76.4514 -0.000329888 -61.8772 -0.000285936
0 -0.094691 -78.8178 -0.000339626 -49.1682 -0.000233636
0 -0.0947844 -83.4747 -0.00035879 -35.6909 -0.000178174
0 -0.0948977 -89.8846 -0.000385169 -21.8613 -0.000121262
0 -0.0950088 -97.8297 -0.000417865 -8.12257 -6.47242e-05
0 -0.0951518 -106.907 -0.000455218 5.04771 -2.06252e-05
0 -0.0954281 -117.252 -0.000497792 11.6369 -5.47761e-06
0 -0.0958815 -126.731 -0.0005368 17.2727 7.47826e-06
0 -0.0963843 -135.37 -0.00057235 22.3147 1.9069e-05
0 -0.0968626 -142.661 -0.000602357 26.3888 2.84347e-05
0 -0.0972558 -148.07 -0.000624616 28.8958 3.41981e-05
0 -0.0974865 -151.349 -0.000638107 29.7678 3.62025e-05
0 -0.0975232 -152.583 -0.000643186 28.4567 3.31885e-05
0 -0.0975052 -151.609 -0.00063918 24.3269 2.36948e-05
0 -0.0974484 -148.25 -0.000625353 17.187 7.28125e-06
0 -0.0972932 -142.983 -0.000603682 7.32121 -1.53988e-05
0 -0.0968924 -136.413 -0.000576645 -0.520278 -3.60975e-05
0 -0.0961728 -129.131 -0.000546678 -7.51171 -6.48689e-05
0 -0.0953766 -121.511 -0.000515319 -14.9343 -9.54147e-05
0 -0.0946699 -113.981 -0.000484329 -22.9206 -0.00012828
0 -0.0940303 -107.281 -0.000456759 -31.5361 -0.000163735
0 -0.0934079 -102.015 -0.000435088 -40.1659 -0.000199248
0 -0.092884 -98.4586 -0.000420452 -48.3928 -0.000233104
0 -0.0925507 -96.8824 -0.000413966 -56.1716 -0.000265115
0 -0.092425 -97.4539 -0.000416318 -63.5214 -0.000295361
0 -0.0924478 -100.339 -0.00042819 -70.2513 -0.000323057
0 -0.0925047 -105.83 -0.000450789 -76.0977 -0.000347116
0 -0.0925988 -114.156 -0.000485051 -81.0292 -0.00036741
0 -0.0930549 -124.972 -0.000529563 -85.2219 -0.000384664
0 -0.0940263 -137.199 -0.000579877 -88.7536 -0.000399198
0 -0.0951452 -151.347 -0.000638098 -91.5316 -0.00041063
0 -0.0961661 -167.307 -0.000703781 -93.5913 -0.000419106
0 -0.0971987 -184.069 -0.000772758 -95.11 -0.000425356
0 -0.0983183 -200.777 -0.000841514 -96.2893 -0.000430209
0 -0.0992758 0 -0.0110129 -95.4855 -0.000426901
0 -0.0958875 0 -0.0312428 -53.4726 -0.000254008
0 -0.0959911 0 -0.0406578 -55.5526 -0.000262568
0 -0.095606 0 -0.0445497 -51.4466 -0.000245671
0 -0.0979028 0 -0.0418035 -65.9124 -0.000305201
0 -0.0987687 0 -0.0427374 -65.1058 -0.000301882
0 -0.0988294 0 -0.0453719 -67.2157 -0.000310564
0 -0.0989104 0 -0.0480058 -74.2 -0.000339306
0 -0.0994377 0 -0.047842 -85.2057 -0.000384597
0 -0.100115 0 -0.0477572 -92.6382 -0.000415184
0 -0.100234 0 -0.0482884 -98.1463 -0.000437851
0 -0.100395 0 -0.0490427 -106.192 -0.00047096
0 -0.100553 0 -0.0490177 -114.43 -0.000504862
0 -0.100706 0 -0.0488304 -121.139 -0.000532469
0 -0.100683 0 -0.0488733 -126.604 -0.00055496
0 -0.100697 0 -0.0488664 -133.834 -0.000584715
0 -0.100717 0 -0.0487414 -141.268 -0.000615305
0 -0.100709 0 -0.0486079 -146.875 -0.00063838
0 -0.100724 0 -0.0485966 -150.728 -0.000654234
0 -0.100823 0 -0.0486185 -154.472 -0.000669644
0 -0.101175 0 -0.0486026 -158.042 -0.000684336
0 -0.1019 0 -0.0486083 -160.051 -0.000692601
0 -0.102929 0 -0.0486983 -160.198 -0.000693207
0 -0.104151 0 -0.0488307 -159.012 -0.000688327
0 -0.105584 0 -0.0489673 -156.563 -0.000678248
0 -0.107178 0 -0.0491536 -152.319 -0.000660785
0 -0.108951 0 -0.0498723 -145.528 -0.000632838
0 -0.110729 0 -0.0511205 -136.623 -0.000596192
0 -0.112575 0 -0.0524399 -127.088 -0.000556952
0 -0.114551 0 -0.053665 -117.137 -0.000516001
0 -0.116629 0 -0.0546828 -107.005 -0.000474305
0 -0.118642 0 -0.0557566 -96.5584 -0.000431316
0 -0.120495 0 -0.0570335 -86.2418 -0.000388861
0 -0.122195 0 -0.0583485 -76.7092 -0.000349632
0 -0.123713 0 -0.0594984 -68.3168 -0.000315096
0 -0.12501 0 -0.0603255 -61.4742 -0.000286937
0 -0.126042 0 -0.0609719 -56.3335 -0.000265782
0 -0.126754 0 -0.0615793 -52.9328 -0.000251787
0 -0.127133 0 -0.0621334 -51.4109 -0.000245524
0 -0.127194 0 -0.0625545 -51.8974 -0.000247526
0 -0.127126 0 -0.0627104 -54.6425 -0.000258823
0 -0.127002 0 -0.0626526 -59.6299 -0.000279347
0 -0.12678 0 -0.0625641 -66.2757 -0.000306696
0 -0.126072 0 -0.0624571 -74.4078 -0.000340161
0 -0.124546 0 -0.0623609 -83.4763 -0.000377481
0 -0.12265 0 -0.0622216 -93.598 -0.000419133
0 -0.120771 0 -0.0620533 -104.436 -0.000463736
0 -0.118863 0 -0.0618045 -115.69 -0.000510049
0 -0.116803 0 -0.061406 -127.066 -0.000556862
0 -0.114776 0 -0.0608933 -138.23 -0.000602806
0 -0.112919 0 -0.0603682 -148.659 -0.000645723
0 -0.11116 0 -0.0599092 -157.691 -0.00068289
0 -0.109481 0 -0.0594995 -163.104 -0.000705165
0 -0.108136 0 -0.0585985 0 -0.0196323
0 -0.107334 0 -0.0574117 0 -0.0244312
0 -0.10584 0 -0.0573098 0 -0.0270282
0 -0.104719 0 -0.057073 0 -0.0268567
0 -0.103417 0 -0.0572245 0 -0.0267216
0 -0.102433 0 -0.0572135 0 -0.0267799
0 -0.101328 0 -0.0572777 0 -0.0267817
0 -0.10024 0 -0.0574727 0 -0.0265803
0 -0.0991955 0 -0.0578508 0 -0.02629
0 -0.0981843 0 -0.0581406 0 -0.0260817
0 -0.0973774 0 -0.0582065 0 -0.0259286
0 -0.0966588 0 -0.0581999 0 -0.0257156
0 -0.0957985 0 -0.0582172 0 -0.0254326
0 -0.0947125 0 -0.0581978 0 -0.025184
0 -0.0934531 0 -0.0580764 0 -0.0249956
0 -0.0920475 0 -0.0576614 0 -0.0248331
0 -0.0903455 0 -0.0571184 0 -0.0246278
0 -0.0882711 0 -0.0564245 0 -0.0244047
0 -0.0858958 0 -0.0555032 0 -0.0242355
0 -0.0832347 0 -0.0543123 0 -0.0241454
0 -0.0803105 0 -0.0528681 0 -0.0240705
0 -0.0771796 0 -0.0512559 0 -0.023999
0 -0.0738237 0 -0.0494573 0 -0.0239875
0 -0.0702965 0 -0.0475097 0 -0.0240158
0 -0.0667457 0 -0.0453842 0 -0.0240622
0 -0.0633001 0 -0.0431183 0 -0.0240978
0 -0.0600939 0 -0.0408386 0 -0.0241107
0 -0.0570302 0 -0.0386235 0 -0.0240977
0 -0.054078 0 -0.036266 0 -0.0240798
0 -0.0511764 0 -0.0338477 0 -0.0240153
0 -0.0484773 0 -0.0313989 0 -0.023858
0 -0.0460849 0 -0.0290504 0 -0.0235483
0 -0.0439457 0 -0.0268498 0 -0.0231329
0 -0.042043 0 -0.0247704 0 -0.0224469
0 -0.0403622 0 -0.0227248 0 -0.0214755
0 -0.0389802 0 -0.0205418 0 -0.0201122
0 -0.0378536 0 -0.0183431 0 -0.019093
0 -0.0370144 0 -0.016302 0 -0.0180074
0 -0.0364997 0 -0.0143926 0 -0.0167589
0 -0.0363371 0 -0.0125689 0 -0.0152546
0 -0.0364074 0 -0.0107378 0 -0.0135511
0 -0.036533 0 -0.0090103 0 -0.0120239
0 -0.0367045 0 -0.00750891 0 -0.0103574
0 -0.0369294 0 -0.00624396 30.8473 -0.00949214
0 -0.0372073 0 -0.00510301 66.0963 -0.00891182
0 -0.0375136 0 -0.00403324 100.002 -0.00835362
0 -0.0378461 0 -0.00305081 136.111 -0.00775914
0 -0.0381944 0 -0.00204276 173.634 -0.00714137
0 -0.0387158 0 -0.00113471 210.083 -0.00654129
0 -0.0394907 0 -0.000325505 243.782 -0.00598649
0 -0.0406804 0 0.000410191 274.08 -0.00548767
0 -0.0421905 0 0.000434736 306.09 -0.00496068
0 -0.0439774 0 0.000472625 335.127 -0.00448263
0 -0.0458951 0 0.000491548 361.388 -0.00405028
0 -0.0477742 0 0.000501291 383.467 -0.00368678
0 -0.0495944 0 0.000507544 401.047 -0.00339638
0 -0.0513318 0 0.000508942 415.259 -0.00312973
0 -0.0529879 0 0.000504399 426.58 -0.00291731
0 -0.054475 0 0.0004931 433.672 -0.00278426
0 -0.0557504 0 0.000476192 435.819 -0.00274397
0 -0.0568561 0 0.000452006 432.89 -0.0027507
0 -0.0578583 0 0.000416141 423.464 -0.00277237
0 -0.0587507 0 0.000364256 407.302 -0.00280953
0 -0.0595025 0 0.000274137 384.558 -0.00286181
0 -0.0601302 0 7.77526e-05 355.655 -0.00292826
0 -0.0606781 0 -0.000236885 321.351 -0.00300712
0 -0.0611824 0 -0.000595694 281.882 -0.00309785
0 -0.0616346 0 -0.000990405 238.01 -0.0031987
0 -0.0620396 0 -0.00142208 186.737 -0.00331657
0 -0.0624181 0 -0.00205889 114.989 -0.00348151
0 -0.0627287 0 -0.00325286 26.0188 -0.00368604
0 -0.0629287 0 -0.00513207 0 -0.00448447
0 -0.0630844 0 -0.00740357 0 -0.00607515
0 -0.0631732 0 -0.0098775 0 -0.00779935
0 -0.0631647 0 -0.0123236 0 -0.0094957
0 -0.0631123 0 -0.0148685 0 -0.0110417
0 -0.0630305 0 -0.0176673 0 -0.0125215
0 -0.0628587 0 -0.0206685 0 -0.0140882
0 -0.0623375 0 -0.023754 0 -0.0157057
0 -0.061564 0 -0.0268279 0 -0.0172631
0 -0.0610033 0 -0.0297505 0 -0.0187674
0 -0.0606456 0 -0.0326846 0 -0.0203129
0 -0.0603122 0 -0.0360213 0 -0.0219262
0 -0.059526 0 -0.0394034 0 -0.0235297
0 -0.058604 0 -0.0422535 0 -0.0251093
0 -0.0578436 0 -0.0445495 0 -0.0266907
0 -0.0570605 0 -0.046544 0 -0.0291533
0 -0.0560637 0 -0.0483998 0 -0.0329861
0 -0.0550205 0 -0.0499789 0 -0.0372925
0 -0.0541034 0 -0.0510074 0 -0.0414506
0 -0.053327 0 -0.0516652 0 -0.0470761
0 -0.0525783 0 -0.0517607 0 -0.0580293
0 -0.0519614 0 -0.0516968 0 -0.0669002
0 -0.051322 0 -0.0515407 0 -0.0746406
0 -0.0508089 0 -0.051452 0 -0.0776509
0 -0.0502845 0 -0.0513506 0 -0.0789297
0 -0.0499512 0 -0.0511911 0 -0.0807139
0 -0.0497721 0 -0.0508634 0 -0.0841155
0 -0.0497613 0 -0.0501648 0 -0.0875917
0 -0.0497495 0 -0.0496193 0 -0.0888676
0 -0.0498056 0 -0.0492612 0 -0.0887171
0 -0.0499285 0 -0.048943 0 -0.0884929
0 -0.0500929 0 -0.0486276 0 -0.0880856
0 -0.0502814 0 -0.0482536 0 -0.0871225
0 -0.0506094 0 -0.0479883 0 -0.0849538
0 -0.0514854 0 -0.0479015 0 -0.0817373
0 -0.0530116 0 -0.0478614 0 -0.0774608
0 -0.0547434 0 -0.0477252 0 -0.0729538
0 -0.056387 0 -0.0475634 0 -0.0689431
0 -0.0582009 0 -0.0474302 0 -0.0647571
0 -0.0601174 0 -0.0470069 0 -0.0605808
0 -0.0620075 0 -0.0463609 0 -0.0564094
0 -0.0636265 0 -0.0455355 0 -0.0522962
0 -0.0651804 0 -0.0445964 0 -0.0483562
0 -0.0666451 0 -0.0436598 0 -0.0445461
0 -0.0678867 0 -0.0425838 0 -0.0412634
0 -0.0688856 0 -0.0413265 0 -0.0383588
0 -0.0697216 0 -0.0399557 0 -0.035627
0 -0.0704406 0 -0.0384317 0 -0.0332585
0 -0.0709791 0 -0.036767 0 -0.0313109
0 -0.0713199 0 -0.0350247 0 -0.0297085
0 -0.0715118 0 -0.0332076 0 -0.0283546
0 -0.071522 0 -0.031359 0 -0.027207
0 -0.0714571 0 -0.0295253 0 -0.0263247
0 -0.071386 0 -0.0277799 0 -0.025724
0 -0.0710763 0 -0.0260887 0 -0.0253901
0 -0.0704932 0 -0.0245178 0 -0.0251481
0 -0.0700587 0 -0.0231168 0 -0.0250493
0 -0.0699602 0 -0.0219829 0 -0.0250662
0 -0.0699141 0 -0.0210933 0 -0.0250987
0 -0.0697773 0 -0.0203349 0 -0.0251376
0 -0.0697362 0 -0.0196832 0 -0.0251786
0 -0.0697826 0 -0.0192383 0 -0.0252174
0 -0.0698415 0 -0.0191228 0 -0.0252428
0 -0.0700655 0 -0.0191874 0 -0.0252618
0 -0.0706381 0 -0.0192965 0 -0.0252846
0 -0.0713205 0 -0.0194761 0 -0.0253042
0 -0.0719303 0 -0.0197434 0 -0.025327
0 -0.0725416 0 -0.0200952 0 -0.0253549
0 -0.0732583 0 -0.0205227 0 -0.0253969
0 -0.0739365 0 -0.0212798 0 -0.0254438
0 -0.0743736 0 -0.0227289 0 -0.025481
0 -0.0746194 0 -0.0247819 0 -0.025537
0 -0.0747651 0 -0.0269817 0 -0.0256375
0 -0.074863 0 -0.0290525 0 -0.025806
0 -0.0752617 0 -0.0310467 0 -0.0260487
0 -0.0755377 0 -0.0331692 0 -0.0263401
0 -0.0754599 0 -0.0354126 0 -0.0267352
0 -0.0751762 0 -0.0374121 0 -0.0275439
0 -0.0746951 0 -0.0391256 0 -0.0291913
0 -0.0739745 0 -0.0405105 0 -0.0319598
0 -0.0730349 0 -0.0417261 0 -0.0355284
0 -0.0718812 0 -0.0427856 0 -0.0393532
0 -0.0705294 0 -0.0436112 0 -0.0431658
0 -0.0689952 0 -0.0441658 0 -0.0470194
0 -0.0673131 0 -0.0444803 0 -0.0511352
0 -0.0655063 0 -0.0446221 0 -0.0555302
0 -0.0635852 0 -0.0446354 0 -0.0599466
0 -0.0615815 0 -0.0445732 0 -0.0641003
0 -0.0596132 0 -0.0446119 0 -0.0678139
0 -0.0576746 0 -0.0447491 0 -0.0711673
0 -0.0558327 0 -0.0448217 0 -0.0743592
0 -0.0540084 0 -0.0448381 0 -0.0772259
0 -0.0521807 0 -0.0448021 0 -0.0796647
0 -0.0503347 0 -0.0447911 0 -0.0815374
0 -0.0485094 0 -0.0447892 0 -0.0828691
0 -0.046711 0 -0.0447827 0 -0.0837136
0 -0.0448886 0 -0.0447665 0 -0.0840952
0 -0.0430079 0 -0.0447512 0 -0.0840695
0 -0.0411498 0 -0.0447144 0 -0.0839399
0 -0.0396009 0 -0.0446061 0 -0.0837384
0 -0.0381428 0 -0.0444261 0 -0.0834083
0 -0.0367207 0 -0.0439698 0 -0.0825219
0 -0.0353589 0 -0.0432793 0 -0.0809793
0 -0.0341058 0 -0.0424402 0 -0.0791325
0 -0.0329749 0 -0.0413516 0 -0.0766673
0 -0.0318773 0 -0.0398942 0 -0.0737831
0 -0.0308624 0 -0.0379933 0 -0.0706065
0 -0.0299475 0 -0.0357645 0 -0.0676657
0 -0.0291299 0 -0.0334054 0 -0.0649168
0 -0.0284082 0 -0.0309723 0 -0.0622639
0 -0.0277292 0 -0.0284273 0 -0.0593816
0 -0.0271379 0 -0.0256999 0 -0.0561708
0 -0.026779 0 -0.0230204 0 -0.0528713
0 -0.0264706 0 -0.0206001 0 -0.0495703
0 -0.0260063 0 -0.0181554 0 -0.0462544
0 -0.0254383 0 -0.0154753 0 -0.0429156
0 -0.0248887 0 -0.0127035 0 -0.0396669
0 -0.0243157 0 -0.0101188 0 -0.0361638
0 -0.0236221 0 -0.00775999 0 -0.0326106
0 -0.0228354 0 -0.00540962 0 -0.0291258
0 -0.022049 0 -0.00291476 0 -0.0256517
0 -0.0212568 0 -0.000376533 0 -0.0220908
0 -0.0203319 0 0.000562621 0 -0.0183875
0 -0.0189795 0 0.0006545 0 -0.0142072
0 -0.0178625 0 0.000759812 0 -0.0104411
0 -0.0166474 0 0.000827658 28.1713 -0.00753932
0 -0.0154129 0 0.000897525 53.4198 -0.00533393
0 -0.0140771 0 0.000975127 76.2972 -0.00333566
0 -0.0128078 0 0.00105324 99.956 -0.00126914
0 -0.0115296 0 0.00111899 121.458 0.000608967
0 -0.0101589 0 0.0011873 123.628 0.000798523
0 -0.00874042 0 0.00126004 125.17 0.000933198
0 -0.00732807 0 0.00133077 126.425 0.00104288
0 -0.00589892 0 0.0013933 127.313 0.0011204
0 -0.00437442 0 0.00145193 128.043 0.00118422
0 -0.00280203 0 0.00151186 128.783 0.00124881
0 -0.00120369 0 0.00156724 129.459 0.00130786
0 0.000440947 0 0.00161835 129.911 0.00134731
0 0.000684842 0 0.00167317 130.169 0.00136988
0 0.00077458 0 0.00172963 130.335 0.00138439
0 0.000840288 0 0.00178051 130.512 0.00139988
0 0.000895083 0 0.00182743 130.495 0.00140203
0 0.000949709 0 0.00186867 128.927 0.00139842
0 0.00099854 0 0.00190777 125.793 0.00139122
0 0.00104094 0 0.00194061 121.738 0.0013819
0 0.0010818 0 0.00196615 116.578 0.00137004
0 0.00111985 0 0.00198563 110.335 0.00135568
0 0.00115166 0 0.00200005 103.266 0.00133943
0 0.00117897 0 0.00200762 95.7162 0.00132208
0 0.00120229 0 0.00200711 87.7779 0.00130383
0 0.0012192 0 0.00199763 79.2754 0.00128428
0 0.00122958 0 0.0019801 70.2589 0.00126356
0 0.00123386 0 0.00195395 60.8706 0.00124197
0 0.00123029 0 0.00192212 51.4316 0.00122027
0 0.00121779 0 0.00188326 42.1017 0.00119883
0 0.00119805 0 0.00183545 32.5181 0.00117679
0 0.00117177 0 0.00178124 22.6487 0.00115411
0 0.00113879 0 0.00172079 12.3062 0.00113033
0 0.00110186 0 0.00165337 1.36976 0.00110519
0 0.0010632 0 0.00158038 0 0.000971542
0 0.00102266 0 0.00150411 0 0.000802436
0 0.000981727 0 0.00142445 0 0.000618943
0 0.000940393 0 0.00134124 0 0.000425481
0 0.000898551 0 0.00125617 0 0.000221947
0 0.000856594 0 0.00117116 0 5.25925e-06
0 0.000814401 0 0.00108709 0 -0.00022678
0 0.000771809 0 0.00100472 0 -0.000488184
0 0.000728281 0 0.000925624 0 -0.000868514
0 0.000682938 0 0.000850948 0 -0.00146292
0 0.0006343 0 0.000781953 0 -0.00246296
0 0.000581001 0 0.000719869 0 -0.00379342
0 0.000523663 0 0.00066581 0 -0.00549893
0 0.000471625 0 0.000617355 0 -0.00754351
0 0.000427507 0 0.000577735 0 -0.00963977
0 0.000388532 0 0.000545278 0 -0.0118521
0 0.000347197 0 0.000522847 0 -0.0141272
0 0.000294524 0 0.00051032 0 -0.0163334
0 0.000221154 0 0.000510532 0 -0.0184545
0 0.000126316 0 0.000523088 0 -0.0205266
0 4.55264e-06 0 0.000545689 0 -0.0225701
0 -0.000151391 0 0.000572949 0 -0.0245168
0 -0.000339305 0 0.000600214 0 -0.0262402
0 -0.000548196 0 0.000623214 0 -0.0276591
0 -0.00071605 0 0.00063015 0 -0.0287492
0 -0.000952354 0 0.000631407 0 -0.0295626
0 -0.00122032 0 0.000615537 0 -0.0300893
0 -0.00152905 0 0.000581534 0 -0.0302836
0 -0.0018855 0 0.000519018 0 -0.0302316
0 -0.00241184 0 0.000411709 0 -0.0301181
0 -0.00323471 0 0.000241462 0 -0.0297878
0 -0.00439679 0 6.52673e-05 0 -0.0290576
0 -0.00610223 0 -0.000107428 0 -0.0280193
0 -0.00853161 0 -0.000287314 0 -0.0266445
0 -0.0115559 0 -0.000493491 0 -0.0252577
0 -0.0148565 0 -0.000710218 0 -0.0238607
0 -0.0181665 0 -0.00085087 0 -0.0225379
0 -0.0215894 0 -0.000996953 0 -0.021235
0 -0.0251273 0 -0.0011758 0 -0.0198146
0 -0.028741 0 -0.00139145 0 -0.0184716
0 -0.0322538 0 -0.00167485 0 -0.0172131
0 -0.0356765 0 -0.00203324 0 -0.0160502
0 -0.0390463 0 -0.00252553 0 -0.0149303
0 -0.0423587 0 -0.00308013 0 -0.0138855
0 -0.045576 0 -0.00378014 0 -0.0129935
0 -0.0487411 0 -0.00456671 0 -0.0123439
0 -0.0518808 0 -0.00546311 0 -0.0119006
0 -0.0549858 0 -0.00646132 0 -0.0116633
0 -0.0580049 0 -0.00752759 0 -0.0116281
0 -0.0608768 0 -0.00866715 0 -0.0116917
0 -0.0635836 0 -0.00990765 0 -0.0118176
0 -0.0661384 0 -0.0112751 0 -0.0120013
0 -0.0685505 0 -0.0127882 0 -0.0122406
0 -0.0708037 0 -0.0144171 0 -0.0125364
0 -0.0728555 0 -0.0161571 0 -0.0129126
0 -0.0745926 0 -0.018055 0 -0.0137334
0 -0.0762537 0 -0.0200347 0 -0.0157383
0 -0.0782452 0 -0.0219914 0 -0.0184528
0 -0.0800541 0 -0.0239358 0 -0.0216028
0 -0.0813699 0 -0.0260687 0 -0.0246981
0 -0.0824133 0 -0.0284311 0 -0.0274584
0 -0.0834718 0 -0.0310044 0 -0.0301253
0 -0.0844286 0 -0.0336785 0 -0.0331723
0 -0.0852064 0 -0.0363335 0 -0.0366988
0 -0.0862784 0 -0.0391389 0 -0.0406361
0 -0.0874473 0 -0.0424102 0 -0.0444967
0 -0.0881941 0 -0.0457481 0 -0.0481707
0 -0.0887144 0 -0.0487953 0 -0.0519094
0 -0.0893165 0 -0.0516131 0 -0.056022
0 -0.0897745 0 -0.0544413 0 -0.0605586
0 -0.0898049 0 -0.0574282 0 -0.0651826
0 -0.0897233 0 -0.0603912 0 -0.0696225
0 -0.0896358 0 -0.0630956 0 -0.0739572
0 -0.089451 0 -0.0658993 0 -0.0783738
0 -0.0890783 0 -0.0687507 0 -0.0830078
0 -0.0880338 0 -0.0716014 0 -0.0877015
0 -0.0863305 0 -0.0741154 0 -0.0932614
0 -0.0845254 0 -0.0760158 0 -0.0989098
0 -0.0827627 0 -0.0776081 0 -0.104655
0 -0.080805 0 -0.079046 0 -0.110137
0 -0.0785361 0 -0.0804921 0 -0.114599
0 -0.0762633 0 -0.0818596 0 -0.119053
0 -0.07398 0 -0.0826549 0 -0.123682
0 -0.0715447 0 -0.0829937 0 -0.1282
0 -0.0689746 0 -0.0830735 0 -0.131773
0 -0.0663886 0 -0.0830406 0 -0.13453
0 -0.063808 0 -0.0829623 0 -0.136718
0 -0.0612658 0 -0.0828175 0 -0.138598
0 -0.0588399 0 -0.0826029 0 -0.140169
0 -0.0565153 0 -0.0823143 0 -0.141166
0 -0.0542507 0 -0.0816744 0 -0.141472
0 -0.0521364 0 -0.0805246 0 -0.141436
0 -0.0502092 0 -0.0790516 0 -0.141309
0 -0.0484602 0 -0.0772671 0 -0.1411
0 -0.0468371 0 -0.0753123 0 -0.140725
0 -0.0453048 0 -0.0731277 0 -0.139139
0 -0.0438748 0 -0.0707651 0 -0.13604
0 -0.0424986 0 -0.0682766 0 -0.132136
0 -0.0411207 0 -0.0658017 0 -0.127275
0 -0.0396697 0 -0.0633569 0 -0.121883
0 -0.0382828 0 -0.0607968 0 -0.115926
0 -0.0369026 0 -0.0580802 0 -0.109803
0 -0.0354406 0 -0.0552687 0 -0.103496
0 -0.0338253 0 -0.0523723 0 -0.0971025
0 -0.0320632 0 -0.0493956 0 -0.0905096
0 -0.0301567 0 -0.0462582 0 -0.0840012
0 -0.0280469 0 -0.0430134 0 -0.0781886
0 -0.0256723 0 -0.0397882 0 -0.0722227
0 -0.0230791 0 -0.0364034 0 -0.0663865
0 -0.0203961 0 -0.0326916 0 -0.0609178
0 -0.0177044 0 -0.0288102 0 -0.0558055
0 -0.0148278 0 -0.0249118 0 -0.0508672
0 -0.0115984 0 -0.0208531 0 -0.046027
0 -0.00809158 0 -0.0164195 0 -0.0413972
0 -0.00444496 0 -0.0115781 0 -0.0371693
0 -0.000638518 0 -0.00648824 0 -0.0333723
0 0.000826739 0 -0.00116672 0 -0.0298783
0 0.0010131 0 0.000680335 0 -0.0266573
0 0.00119439 0 0.000936398 0 -0.0218741
0 0.00133883 0 0.00122178 0 -0.0183585
0 0.00149589 0 0.00139976 0 -0.0133801
0 0.00165439 0 0.00160011 0 -0.00922768
0 0.0018036 0 0.00182502 0 -0.00513243
0 0.00194965 0 0.00205328 0 -0.000967738
0 0.00210033 0 0.00224348 0 0.00150431
0 0.00224247 0 0.00244036 0 0.00170431
0 0.00237982 0 0.00263623 0 0.00193033
0 0.00251109 0 0.00282587 0 0.00212915
0 0.00263872 0 0.00299023 0 0.00230047
0 0.00275689 0 0.00314766 0 0.0024869
0 0.00285366 0 0.00318103 0 0.00269805
0 0.00291527 0 0.00318052 0 0.00287502
0 0.00298665 0 0.00317459 0 0.0030715
0 0.00299852 0 0.00317344 0 0.00325626
0 0.0030064 0 0.00317532 0 0.00331018
0 0.0030153 0 0.00317152 0 0.00332406
0 0.00302666 0 0.00316478 0 0.00333318
0 0.0030352 0 0.00316118 0 0.00334267
0 0.00304409 0 0.00315881 0 0.00335497
0 0.000750076 0 0.0025895 0 0.00336794
0 -0.00354336 0 0.0026654 0 0.000355846
0 -0.000580972 0 0.00251014 0 0.000384524
0 -0.000408103 0 0.002884 0 0.000339398
0 0.000560782 0 0.00289417 0 0.000358683
0 0.00068977 0 0.00302779 0 0.000351081
0 0.000767887 0 0.00313662 0 0.000340265
0 0.000758118 0 0.00317278 0 0.000335534
0 0.000757876 0 0.00317384 0 0.000360388
0 0.000755986 0 0.00316933 0 0.000375184
0 0.00075009 0 0.00318881 0 0.000362996
0 -0.000947145 0 0.000729915 0 -0.00862626
0 0.000526078 0 -0.00100911 0 -0.0185822
0 0.000582864 0 -0.000806889 0 -0.0138123
0 0.000685773 0 0.000620947 0 -0.0173417
0 0.000697329 0 0.000737492 0 -0.013862
0 0.000697075 0 0.000785484 0 -0.0140134
0 0.000689204 0 0.000819557 0 -0.0142651
0 0.00067529 0 0.000837434 0 -0.0141646
0 0.000665726 0 0.000828619 0 -0.01373
0 0.000659606 0 0.000835703 0 -0.0129194
0 0.000651268 0 0.00085297 0 -0.0123043
0 0.000644668 0 0.000858474 0 -0.0114694
0 0.000640476 0 0.000854368 0 -0.0103356
0 0.000636545 0 0.000857152 0 -0.00864144
0 0.000634378 0 0.000862906 0 -0.00683972
0 0.000634665 0 0.000861375 0 -0.00520791
0 0.000636031 0 0.000854292 0 -0.00508652
0 0.00063852 0 0.000849221 0 -0.00510421
0 0.00064324 0 0.000844623 0 -0.00511867
0 0.000648376 0 0.000836146 0 -0.00512569
0 0.000651017 0 0.000824517 0 -0.00513582
0 0.00065173 0 0.000812983 0 -0.00515492
0 0.0006517 0 0.000801255 0 -0.00517543
0 0.000651759 0 0.000787343 0 -0.00519034
0 0.00065268 0 0.000772836 0 -0.00520347
0 0.00065495 0 0.000759235 0 -0.00521995
0 0.000659756 0 0.00074615 0 -0.00523815
0 0.000668455 0 0.000733029 0 -0.00525522
0 0.00067513 0 0.000723029 0 -0.00526801
0 0.000682791 0 0.000715166 0 -0.00527737
0 0.000691177 0 0.000705419 0 -0.00528785
0 0.000701702 0 0.000701517 0 -0.00529909
0 0.000715802 0 0.000700868 0 -0.00530433
0 0.000729548 0 0.000699894 0 -0.00530539
0 0.000727474 0 0.00070128 0 -0.00530554
0 0.000722495 0 0.000706643 0 -0.00530513
0 0.000717079 0 0.000713787 0 -0.00530265
0 0.000711248 0 0.000720122 0 -0.0119357
0 0.000685557 0 0.000779187 0 -0.0189686
0 0.000685328 0 0.00080619 0 -0.0173758
0 0.000680202 0 0.000784203 0 -0.0175436
0 0.000663111 0 0.000781929 0 -0.0195328
0 0.00065904 0 0.000809844 0 -0.0209252
0 0.000651943 0 0.000827278 0 -0.0200909
0 0.000641618 0 0.000823912 0 -0.0191461
0 0.000635998 0 0.000824247 0 -0.0191534
0 0.000630513 0 0.000836353 0 -0.0191587
0 0.000622036 0 0.000842554 0 -0.0187028
0 0.000605781 0 0.00083945 0 -0.0176275
0 0.000568828 0 0.000839347 0 -0.0165296
0 0.000542582 0 0.000841485 0 -0.0156297
0 0.000512807 0 0.000839398 0 -0.0146806
0 0.00048045 0 0.000827045 0 -0.0131382
0 0.000441995 0 0.000812016 0 -0.0114007
0 0.000397966 0 0.000785817 0 -0.00982186
0 0.000347176 0 0.000748002 0 -0.00840545
0 0.000288858 0 0.000696372 0 -0.00837698
0 0.000218919 0 0.000631741 0 -0.00839247
0 0.000113544 0 0.000562217 0 -0.00840722
0 -6.52842e-05 0 0.000498142 0 -0.00841592
0 -0.00035474 0 0.000429165 0 -0.00842266
0 -0.000637311 0 0.000346821 0 -0.00842995
0 -0.000893989 0 0.000244059 0 -0.00843963
0 -0.00112118 0 9.47546e-05 0 -0.00845002
0 -0.00152867 0 -0.000105492 0 -0.00845819
0 -0.00194731 0 -0.00035174 0 -0.00846292
0 -0.00237914 0 -0.000585842 0 -0.00846598
0 -0.00268569 0 -0.000781456 0 -0.00846941
0 -0.00289005 0 -0.000984507 0 -0.00850853
0 -0.00303624 0 -0.00113229 0 -0.00861317
0 -0.00308203 0 -0.00131306 0 -0.00876362
0 -0.00305036 0 -0.00161316 0 -0.00899682
0 -0.00300865 0 -0.00194054 0 -0.00934306
0 -0.00292751 0 -0.00230435 0 -0.0100932
0 -0.00282769 0 -0.0025668 0 -0.0120781
0 -0.00271404 0 -0.00262241 0 -0.015546
0 -0.00258813 0 -0.00256722 0 -0.019818
0 -0.00248071 0 -0.00247705 0 -0.0236628
0 -0.00241186 0 -0.00237357 0 -0.0275396
0 -0.00234278 0 -0.00229778 0 -0.0312731
0 -0.00222682 0 -0.00222722 0 -0.0348323
0 -0.00212678 0 -0.00212953 0 -0.037352
0 -0.00205513 0 -0.00203602 0 -0.0395902
0 -0.00199129 0 -0.00199699 0 -0.0415074
0 -0.00190079 0 -0.00204023 0 -0.043221
0 -0.0018655 0 -0.00209702 0 -0.0448693
0 -0.00186942 0 -0.00223646 0 -0.0466679
0 -0.00189637 0 -0.00263693 0 -0.0485794
0 -0.00194766 0 -0.00323951 0 -0.0505777
0 -0.00202299 0 -0.00413457 0 -0.0526044
0 -0.00210491 0 -0.0054287 0 -0.0544189
0 -0.00220235 0 -0.00700717 0 -0.055821
0 -0.00232598 0 -0.00877499 0 -0.0568459
0 -0.0024623 0 -0.0108421 0 -0.0575415
0 -0.00267549 0 -0.0132501 0 -0.0580649
0 -0.00335766 0 -0.0159458 0 -0.0584339
0 -0.00437256 0 -0.0188832 0 -0.0585647
0 -0.00563965 0 -0.0220404 0 -0.0585088
0 -0.0071486 0 -0.0253237 0 -0.0584246
0 -0.00877862 0 -0.0286663 0 -0.0583266
0 -0.0104576 0 -0.031934 0 -0.0582337
0 -0.0120639 0 -0.0343588 0 -0.0581482
0 -0.0134644 0 -0.0361913 0 -0.0580284
0 -0.0147698 0 -0.0372708 0 -0.0579674
0 -0.0160031 0 -0.0379702 0 -0.0579666
0 -0.0171585 0 -0.0388538 0 -0.0581293
0 -0.018207 0 -0.0403411 0 -0.0586562
0 -0.0190919 0 -0.0425643 0 -0.0597291
0 -0.0198389 0 -0.0452923 0 -0.0612821
0 -0.0207454 0 -0.0480067 0 -0.0633611
0 -0.0215746 0 -0.0502062 0 -0.0655841
0 -0.0221862 0 -0.0517252 0 -0.0682421
0 -0.0224407 0 -0.0526749 0 -0.071132
0 -0.022438 0 -0.0534527 0 -0.0740273
0 -0.022414 0 -0.0544623 0 -0.0767125
0 -0.0223634 0 -0.0555821 0 -0.0790278
0 -0.0221518 0 -0.0566725 0 -0.0810042
0 -0.0216586 0 -0.0574674 0 -0.0829547
0 -0.0209331 0 -0.0578332 0 -0.0852104
0 -0.0201745 0 -0.0578405 0 -0.0880451
0 -0.0193952 0 -0.0577805 0 -0.0914979
0 -0.0185594 0 -0.0577589 0 -0.0952565
0 -0.017663 0 -0.0577471 0 -0.098953
0 -0.0167641 0 -0.0577781 0 -0.102201
0 -0.0159333 0 -0.0580565 0 -0.104774
0 -0.0150935 0 -0.0587423 0 -0.106742
0 -0.0142729 0 -0.0596249 0 -0.108545
0 -0.0135281 0 -0.0607053 0 -0.110477
0 -0.012846 0 -0.0618765 0 -0.112614
0 -0.0122407 0 -0.0628961 0 -0.114985
0 -0.0117024 0 -0.0636591 0 -0.117407
0 -0.0112428 0 -0.0643109 0 -0.119537
0 -0.0108953 0 -0.0650737 0 -0.1212
0 -0.0106348 0 -0.0660287 0 -0.12229
0 -0.0104649 0 -0.0671845 0 -0.122903
0 -0.0104119 0 -0.0684566 0 -0.123223
0 -0.0104395 0 -0.0697496 0 -0.123477
0 -0.0105018 0 -0.0710592 0 -0.123678
0 -0.0106024 0 -0.0724211 0 -0.123619
0 -0.0107571 0 -0.0738459 0 -0.123487
0 -0.0109684 0 -0.075324 0 -0.123285
0 -0.0111134 0 -0.0768088 0 -0.122903
0 -0.0112448 0 -0.0778889 0 -0.121786
0 -0.0113786 0 -0.0783555 0 -0.119994
0 -0.0115248 0 -0.0783822 0 -0.117807
0 -0.011714 0 -0.0783408 0 -0.115451
0 -0.0120244 0 -0.0783515 0 -0.113788
0 -0.0126252 0 -0.0784133 0 -0.112833
0 -0.0138263 0 -0.0784352 0 -0.11261
0 -0.0157696 0 -0.0784056 0 -0.112575
0 -0.0179495 0 -0.0783701 0 -0.112413
0 -0.0200253 0 -0.0783515 0 -0.111938
0 -0.0218645 0 -0.0783594 0 -0.110761
0 -0.0235878 0 -0.0783736 0 -0.109199
0 -0.0253857 0 -0.0783572 0 -0.10777
0 -0.02725 0 -0.0782759 0 -0.106964
0 -0.028977 0 -0.0782002 0 -0.106819
0 -0.0304378 0 -0.0781174 0 -0.106805
0 -0.0314846 0 -0.0779974 0 -0.106783
0 -0.0323143 0 -0.0777667 0 -0.106464
0 -0.0331078 0 -0.0773551 0 -0.10556
0 -0.0340348 0 -0.0768122 0 -0.104604
0 -0.0350732 0 -0.0762511 0 -0.103846
0 -0.0360707 0 -0.0758108 0 -0.103526
0 -0.0369214 0 -0.0754668 0 -0.103511
0 -0.0376458 0 -0.0751601 0 -0.103507
0 -0.0383575 0 -0.0748204 0 -0.103494
0 -0.0392139 0 -0.0743841 0 -0.103192
0 -0.0402645 0 -0.0738858 0 -0.102747
0 -0.0413994 0 -0.0734361 0 -0.102299
0 -0.0424856 0 -0.0731274 0 -0.101927
0 -0.0435302 0 -0.0729301 0 -0.10177
0 -0.0446148 0 -0.0728045 0 -0.101673
0 -0.0458868 0 -0.0727051 0 -0.10149
0 -0.0474247 0 -0.0725969 0 -0.101166
0 -0.0491821 0 -0.0725321 0 -0.100718
0 -0.0510347 0 -0.0725789 0 -0.100209
0 -0.052957 0 -0.0726334 0 -0.099781
0 -0.0549818 0 -0.0727647 0 -0.0995136
0 -0.0571031 0 -0.0731069 0 -0.0992905
0 -0.0593106 0 -0.073615 0 -0.0990973
0 -0.0615666 0 -0.074268 0 -0.0988771
0 -0.0637947 0 -0.0750966 0 -0.0985623
0 -0.0659611 0 -0.0756364 0 -0.0981584
0 -0.0680327 0 -0.0759249 0 -0.0976808
0 -0.0700337 0 -0.0759982 0 -0.0972497
0 -0.0720102 0 -0.0760252 0 -0.0970174
0 -0.0739067 0 -0.0762042 0 -0.0969511
0 -0.0756899 0 -0.0766607 0 -0.0969384
0 -0.0773493 0 -0.0772545 0 -0.0969286
0 -0.0788839 0 -0.0778155 0 -0.0969202
0 -0.0802893 0 -0.0782529 0 -0.0969159
0 -0.0815658 0 -0.0786014 0 -0.0969423
0 -0.0826989 0 -0.0790245 0 -0.0970294
0 -0.0836555 0 -0.0797107 0 -0.0971727
0 -0.0844287 0 -0.080689 0 -0.0973906
0 -0.0850344 0 -0.0818442 0 -0.0981148
0 -0.0854915 0 -0.0829681 0 -0.0995551
0 -0.0858327 0 -0.0841543 0 -0.101775
0 -0.0860064 0 -0.085594 0 -0.10462
0 -0.0860006 0 -0.0873487 0 -0.107832
0 -0.0859417 0 -0.0892647 0 -0.111161
0 -0.0858574 0 -0.0911184 0 -0.113668
0 -0.0857658 0 -0.092618 0 -0.115261
0 -0.0856474 0 -0.0937168 0 -0.116517
0 -0.0854001 0 -0.0946066 0 -0.117881
0 -0.0848922 0 -0.0955182 0 -0.119782
0 -0.0841443 0 -0.0966236 0 -0.122332
0 -0.083275 0 -0.0978596 0 -0.125283
0 -0.0824267 0 -0.0990428 0 -0.128192
0 -0.0816374 0 -0.100061 0 -0.130695
0 -0.0808611 0 -0.100957 0 -0.132723
0 -0.0800669 0 -0.101878 0 -0.134503
0 -0.0792894 0 -0.102966 0 -0.136379
0 -0.0785842 0 -0.104265 0 -0.13859
0 -0.0779726 0 -0.105736 0 -0.141144
0 -0.077521 0 -0.107515 0 -0.144638
0 -0.0770974 0 -0.109541 0 -0.148565
0 -0.0768027 0 -0.111631 0 -0.152919
0 -0.0766542 0 -0.114116 0 -0.157392
0 -0.0766346 0 -0.116825 0 -0.161578
0 -0.0766634 0 -0.119698 0 -0.16518
0 -0.0767184 0 -0.122474 0 -0.168031
0 -0.0768035 0 -0.125029 0 -0.170168
0 -0.0769313 0 -0.127475 0 -0.171814
0 -0.0772921 0 -0.129919 0 -0.173358
0 -0.0780718 0 -0.132466 0 -0.175099
0 -0.0791447 0 -0.134997 0 -0.176857
0 -0.0803207 0 -0.137534 0 -0.178373
0 -0.0814851 0 -0.139826 0 -0.179554
0 -0.0826558 0 -0.141771 0 -0.180349
0 -0.0839034 0 -0.143426 0 -0.180868
0 -0.0853067 0 -0.144963 0 -0.181285
0 -0.0868074 0 -0.146575 0 -0.181718
0 -0.0883227 0 -0.148389 0 -0.182134
0 -0.0900533 0 -0.150332 0 -0.1825
0 -0.0918472 0 -0.152146 0 -0.182919
0 -0.0936381 0 -0.153772 0 -0.183235
0 -0.0953335 0 -0.155117 0 -0.183497
0 -0.096915 0 -0.15615 0 -0.183973
0 -0.0984684 0 -0.157046 0 -0.184574
0 -0.100003 0 -0.158029 0 -0.185234
0 -0.101528 0 -0.159218 0 -0.185957
0 -0.102977 0 -0.160563 0 -0.18674
0 -0.104332 0 -0.161897 0 -0.187553
0 -0.105662 0 -0.163018 0 -0.18847
0 -0.107048 0 -0.163783 0 -0.189606
0 -0.108485 0 -0.164241 0 -0.190926
0 -0.109914 0 -0.164524 0 -0.192378
0 -0.111292 0 -0.164742 0 -0.193936
0 -0.112604 0 -0.164948 0 -0.195481
0 -0.113834 0 -0.165103 0 -0.196961
0 -0.114969 0 -0.165172 0 -0.198378
0 -0.116114 0 -0.165141 0 -0.199758
0 -0.117268 0 -0.165106 0 -0.201105
0 -0.118452 0 -0.165087 0 -0.202344
0 -0.11968 0 -0.165078 0 -0.203464
0 -0.120955 0 -0.165086 0 -0.204382
0 -0.122302 0 -0.165121 0 -0.205064
0 -0.123731 0 -0.165223 0 -0.20557
0 -0.125244 0 -0.165444 0 -0.205881
0 -0.126833 0 -0.165825 0 -0.205975
0 -0.128505 0 -0.166351 0 -0.205936
0 -0.130219 0 -0.166928 0 -0.205867
0 -0.132008 0 -0.167517 0 -0.205771
0 -0.133889 0 -0.168157 0 -0.205647
0 -0.135927 0 -0.168886 0 -0.205493
0 -0.138054 0 -0.169717 0 -0.205262
0 -0.140115 0 -0.170634 0 -0.20468
0 -0.142125 0 -0.171551 0 -0.203463
0 -0.144157 0 -0.172547 0 -0.201919
0 -0.14626 0 -0.173658 0 -0.200275
0 -0.148403 0 -0.174896 0 -0.199067
0 -0.150492 0 -0.176267 0 -0.198422
0 -0.152522 0 -0.177657 0 -0.198354
0 -0.154554 0 -0.178997 0 -0.198343
0 -0.156658 0 -0.180297 0 -0.198323
0 -0.158855 0 -0.181305 0 -0.198296
0 -0.161033 0 -0.182107 0 -0.198039
0 -0.16314 0 -0.182729 0 -0.197713
0 -0.165169 0 -0.18324 0 -0.197629
0 -0.167146 0 -0.183805 0 -0.19763
0 -0.169079 0 -0.184587 0 -0.197645
0 -0.170936 0 -0.185667 0 -0.197698
0 -0.172665 0 -0.18697 0 -0.197961
0 -0.174246 0 -0.188335 0 -0.198474
0 -0.175706 0 -0.189637 0 -0.199095
0 -0.177077 0 -0.190801 0 -0.199495
0 -0.17837 0 -0.191851 0 -0.199829
0 -0.17954 0 -0.192929 0 -0.200061
0 -0.180548 0 -0.1941 0 -0.200298
0 -0.1814 0 -0.195364 0 -0.200647
0 -0.182118 0 -0.196678 0 -0.20113
0 -0.182738 0 -0.197976 0 -0.201676
0 -0.183274 0 -0.19924 0 -0.202198
0 -0.183718 0 -0.200518 0 -0.20266
0 -0.18407 0 -0.201869 0 -0.202936
0 -0.184363 0 -0.203282 0 -0.203291
0 -0.18464 0 -0.204703 0 -0.203905
0 -0.184902 0 -0.206125 0 -0.204622
0 -0.185146 0 -0.207565 0 -0.205237
0 -0.185383 0 -0.209062 0 -0.205667
0 -0.185633 0 -0.210645 0 -0.206098
0 -0.18592 0 -0.212305 0 -0.20735
0 -0.186261 0 -0.214 0 -0.209809
0 -0.186669 0 -0.215697 0 -0.21333
0 -0.187156 0 -0.217369 0 -0.217196
0 -0.187727 0 -0.219042 0 -0.22093
0 -0.188359 0 -0.220797 0 -0.224114
0 -0.189027 0 -0.222686 0 -0.226871
0 -0.189735 0 -0.224692 0 -0.229511
0 -0.190507 0 -0.226765 0 -0.232298
0 -0.191358 0 -0.228837 0 -0.235282
0 -0.192289 0 -0.23088 0 -0.238287
0 -0.193275 0 -0.232935 0 -0.241087
0 -0.194293 0 -0.23507 0 -0.243587
0 -0.195341 0 -0.237322 0 -0.24588
0 -0.196432 0 -0.239663 0 -0.248131
0 -0.197564 0 -0.242017 0 -0.250449
0 -0.198752 0 -0.244332 0 -0.252813
0 -0.200031 0 -0.246609 0 -0.255119
0 -0.201505 0 -0.248858 0 -0.257274
0 -0.203036 0 -0.251182 0 -0.259292
0 -0.204783 0 -0.253662 0 -0.261382
0 -0.206662 0 -0.256511 0 -0.263489
0 -0.20847 0 -0.259401 0 -0.265563
0 -0.210183 0 -0.261956 0 -0.267708
0 -0.211884 0 -0.264201 0 -0.269791
0 -0.213643 0 -0.266273 0 -0.271614
0 -0.215327 0 -0.268149 0 -0.273477
0 -0.21674 0 -0.270054 0 -0.275308
0 -0.2179 0 -0.271904 0 -0.277124
0 -0.218978 0 -0.273543 0 -0.278959
0 -0.220007 0 -0.274933 0 -0.280795
0 -0.220926 0 -0.276121 0 -0.282672
0 -0.221657 0 -0.277221 0 -0.284641
0 -0.222219 0 -0.278375 0 -0.2867
0 -0.22271 0 -0.279622 0 -0.288825
0 -0.223178 0 -0.280797 0 -0.290975
0 -0.223595 0 -0.281805 0 -0.293061
0 -0.22396 0 -0.282557 0 -0.295064
0 -0.224315 0 -0.283061 0 -0.297007
0 -0.224692 0 -0.283412 0 -0.298928
0 -0.225087 0 -0.283696 0 -0.300866
0 -0.225476 0 -0.284023 0 -0.302794
0 -0.22579 0 -0.284474 0 -0.304581
0 -0.226105 0 -0.284851 0 -0.306226
0 -0.226476 0 -0.285095 0 -0.307665
0 -0.226889 0 -0.285253 0 -0.308811
0 -0.227337 0 -0.285338 0 -0.309736
0 -0.227812 0 -0.285405 0 -0.310531
0 -0.228314 0 -0.285543 0 -0.311226
0 -0.228851 0 -0.285748 0 -0.311823
0 -0.22943 0 -0.285964 0 -0.312243
0 -0.230044 0 -0.286166 0 -0.312408
0 -0.230682 0 -0.286391 0 -0.312369
0 -0.23133 0 -0.286656 0 -0.312286
0 -0.231982 0 -0.286978 0 -0.31216
0 -0.232615 0 -0.287361 0 -0.311997
0 -0.233216 0 -0.287759 0 -0.311787
0 -0.233772 0 -0.288131 0 -0.311293
0 -0.23428 0 -0.2885 0 -0.310048
0 -0.234689 0 -0.288838 0 -0.308124
0 -0.235027 0 -0.289151 0 -0.305872
0 -0.23527 0 -0.289335 0 -0.303468
0 -0.235513 0 -0.289312 0 -0.301132
0 -0.235816 0 -0.289252 0 -0.298986
0 -0.23605 0 -0.289193 0 -0.296981
0 -0.236149 0 -0.289148 0 -0.294886
0 -0.23611 0 -0.289078 0 -0.292724
0 -0.236059 0 -0.288956 0 -0.290554
0 -0.235986 0 -0.288759 0 -0.28851
0 -0.235888 0 -0.288314 0 -0.286701
0 -0.235794 0 -0.28747 0 -0.285212
0 -0.235719 0 -0.28628 0 -0.283963
0 -0.23564 0 -0.28486 0 -0.28315
0 -0.235545 0 -0.283263 0 -0.282593
0 -0.235423 0 -0.28163 0 -0.282333
0 -0.2352 0 -0.279979 0 -0.282288
0 -0.234739 0 -0.278237 0 -0.282282
0 -0.233887 0 -0.276369 0 -0.28227
0 -0.232751 0 -0.274428 0 -0.28206
0 -0.231477 0 -0.272519 0 -0.281643
0 -0.230293 0 -0.270667 0 -0.281096
0 -0.229166 0 -0.268851 0 -0.280526
0 -0.228033 0 -0.267071 0 -0.280015
0 -0.22687 0 -0.265298 0 -0.279632
0 -0.225561 0 -0.263783 0 -0.279386
0 -0.22429 0 -0.26259 0 -0.279251
0 -0.223121 0 -0.261832 0 -0.279101
0 -0.222159 0 -0.261424 0 -0.278825
0 -0.221407 0 -0.261087 0 -0.278374
0 -0.220789 0 -0.26054 0 -0.277721
0 -0.220235 0 -0.259639 0 -0.276905
0 -0.219751 0 -0.258594 0 -0.276044
0 -0.219388 0 -0.25758 0 -0.275289
0 -0.219145 0 -0.256798 0 -0.274703
0 -0.218965 0 -0.256318 0 -0.274242
0 -0.218841 0 -0.255989 0 -0.273932
0 -0.218805 0 -0.255674 0 -0.273902
0 -0.218825 0 -0.255366 0 -0.27344
0 -0.218859 0 -0.255133 0 -0.272486
0 -0.218904 0 -0.25499 0 -0.271179
0 -0.218959 0 -0.2548 0 -0.269793
0 -0.219061 0 -0.254578 0 -0.268576
0 -0.219305 0 -0.254193 0 -0.26777
0 -0.219678 0 -0.253637 0 -0.267435
0 -0.22008 0 -0.253015 0 -0.267407
0 -0.220457 0 -0.252459 0 -0.267398
0 -0.220807 0 -0.252076 0 -0.267386
0 -0.221161 0 -0.251906 0 -0.267133
0 -0.221517 0 -0.251889 0 -0.266587
0 -0.221847 0 -0.251885 0 -0.265935
0 -0.222079 0 -0.251835 0 -0.265397
0 -0.222213 0 -0.251673 0 -0.265086
0 -0.222289 0 -0.251443 0 -0.265023
0 -0.222345 0 -0.251245 0 -0.265048
0 -0.222382 0 -0.251115 0 -0.265097
0 -0.222381 0 -0.25106 0 -0.265166
0 -0.22237 0 -0.251047 0 -0.265242
0 -0.22236 0 -0.251025 0 -0.265347
0 -0.222349 0 -0.250991 0 -0.265603
0 -0.222333 0 -0.250963 0 -0.266317
0 -0.222314 0 -0.250956 0 -0.267364
0 -0.222291 0 -0.250976 0 -0.26836
0 -0.222265 0 -0.251006 0 -0.269295
0 -0.222221 0 -0.251047 0 -0.270009
0 -0.222149 0 -0.251107 0 -0.270506
0 -0.222059 0 -0.251191 0 -0.270941
0 -0.221973 0 -0.251361 0 -0.271503
0 -0.221889 0 -0.251647 0 -0.272293
0 -0.221794 0 -0.252124 0 -0.273273
0 -0.221718 0 -0.252763 0 -0.274332
0 -0.221676 0 -0.253508 0 -0.275288
0 -0.221657 0 -0.254286 0 -0.276015
0 -0.221653 0 -0.255011 0 -0.276547
0 -0.221652 0 -0.255653 0 -0.277017
0 -0.221658 0 -0.256253 0 -0.277575
0 -0.221694 0 -0.256875 0 -0.278316
0 -0.221762 0 -0.257574 0 -0.279221
0 -0.221851 0 -0.258366 0 -0.280166
0 -0.22196 0 -0.259216 0 -0.281008
0 -0.222098 0 -0.260057 0 -0.281671
0 -0.222304 0 -0.260836 0 -0.282183
0 -0.222562 0 -0.261544 0 -0.282653
0 -0.222838 0 -0.262205 0 -0.283216
0 -0.223096 0 -0.262863 0 -0.283946
0 -0.223336 0 -0.263558 0 -0.284811
0 -0.223599 0 -0.264287 0 -0.285709
0 -0.223867 0 -0.265019 0 -0.286526
0 -0.224104 0 -0.265725 0 -0.287183
0 -0.224282 0 -0.266371 0 -0.287713
0 -0.224408 0 -0.266953 0 -0.288213
0 -0.224503 0 -0.267501 0 -0.288777
0 -0.224569 0 -0.268045 0 -0.28946
0 -0.224585 0 -0.268599 0 -0.290236
0 -0.22457 0 -0.269157 0 -0.291016
0 -0.224547 0 -0.269698 0 -0.291704
0 -0.224519 0 -0.270191 0 -0.292256
0 -0.22448 0 -0.270622 0 -0.292694
0 -0.224431 0 -0.270992 0 -0.293095
0 -0.22434 0 -0.271304 0 -0.293542
0 -0.224075 0 -0.271559 0 -0.294068
0 -0.223523 0 -0.271815 0 -0.294625
0 -0.222722 0 -0.272034 0 -0.295141
0 -0.221859 0 -0.272162 0 -0.295564
0 -0.221069 0 -0.272187 0 -0.29584
0 -0.220353 0 -0.272144 0 -0.296002
0 -0.219596 0 -0.272086 0 -0.296117
0 -0.218757 0 -0.272015 0 -0.296257
0 -0.217902 0 -0.271929 0 -0.296431
0 -0.217105 0 -0.271814 0 -0.296582
0 -0.216373 0 -0.271574 0 -0.296653
0 -0.215685 0 -0.271086 0 -0.296652
0 -0.215041 0 -0.270351 0 -0.296636
0 -0.214461 0 -0.26946 0 -0.2966
0 -0.213964 0 -0.268501 0 -0.296542
0 -0.213531 0 -0.267544 0 -0.296457
0 -0.213138 0 -0.266737 0 -0.29634
0 -0.212785 0 -0.266093 0 -0.296157
0 -0.2125 0 -0.26554 0 -0.295609
0 -0.212262 0 -0.265006 0 -0.294399
0 -0.212077 0 -0.264379 0 -0.292724
0 -0.211961 0 -0.263578 0 -0.290753
0 -0.21193 0 -0.262639 0 -0.288609
0 -0.211954 0 -0.261669 0 -0.286424
0 -0.211989 0 -0.260737 0 -0.284194
0 -0.212033 0 -0.259893 0 -0.281796
0 -0.212093 0 -0.259115 0 -0.27916
0 -0.212154 0 -0.258356 0 -0.276352
0 -0.212288 0 -0.257556 0 -0.274026
0 -0.21252 0 -0.256718 0 -0.272331
0 -0.212848 0 -0.255737 0 -0.271591
0 -0.213212 0 -0.254649 0 -0.271541
0 -0.213545 0 -0.253476 0 -0.271522
0 -0.213818 0 -0.252272 0 -0.271502
0 -0.214053 0 -0.251161 0 -0.271446
0 -0.214279 0 -0.250301 0 -0.270319
0 -0.214517 0 -0.249676 0 -0.268616
0 -0.214695 0 -0.249119 0 -0.266853
0 -0.214803 0 -0.248511 0 -0.265404
0 -0.214851 0 -0.247766 0 -0.264534
0 -0.214867 0 -0.24685 0 -0.264278
0 -0.214856 0 -0.245902 0 -0.264268
0 -0.214833 0 -0.245023 0 -0.264255
0 -0.214813 0 -0.244237 0 -0.2642
0 -0.214782 0 -0.243524 0 -0.263617
0 -0.214688 0 -0.242806 0 -0.262704
0 -0.214417 0 -0.242004 0 -0.261681
0 -0.214004 0 -0.241151 0 -0.260776
0 -0.213525 0 -0.240301 0 -0.260205
0 -0.213042 0 -0.239481 0 -0.260058
0 -0.212511 0 -0.238703 0 -0.260059
0 -0.211851 0 -0.238147 0 -0.260059
0 -0.211058 0 -0.237714 0 -0.260056
0 -0.210194 0 -0.237449 0 -0.260048
0 -0.209349 0 -0.237338 0 -0.25998
0 -0.208552 0 -0.237293 0 -0.259987
0 -0.207751 0 -0.23723 0 -0.260016
0 -0.206903 0 -0.237101 0 -0.260058
0 -0.206001 0 -0.236914 0 -0.26011
0 -0.20509 0 -0.236723 0 -0.26017
0 -0.204186 0 -0.23661 0 -0.260229
0 -0.203288 0 -0.236601 0 -0.260328
0 -0.202383 0 -0.236609 0 -0.260544
0 -0.201473 0 -0.236613 0 -0.260952
0 -0.200625 0 -0.236607 0 -0.261418
0 -0.199842 0 -0.236602 0 -0.261828
0 -0.199118 0 -0.236606 0 -0.262185
0 -0.198416 0 -0.236618 0 -0.262455
0 -0.197708 0 -0.236631 0 -0.262648
0 -0.197 0 -0.236648 0 -0.262825
0 -0.196322 0 -0.23667 0 -0.263061
0 -0.195696 0 -0.236706 0 -0.263399
0 -0.195161 0 -0.236745 0 -0.263824
0 -0.194666 0 -0.236789 0 -0.264282
0 -0.194168 0 -0.236848 0 -0.264687
0 -0.193661 0 -0.236931 0 -0.265019
0 -0.193135 0 -0.23707 0 -0.265285
0 -0.192618 0 -0.237284 0 -0.265519
0 -0.192083 0 -0.237551 0 -0.265787
0 -0.191534 0 -0.237837 0 -0.266111
0 -0.190956 0 -0.238101 0 -0.266489
0 -0.190326 0 -0.238322 0 -0.266893
0 -0.189656 0 -0.238508 0 -0.267283
0 -0.188944 0 -0.238644 0 -0.267631
0 -0.188162 0 -0.238759 0 -0.267941
0 -0.1873 0 -0.238856 0 -0.268237
0 -0.186382 0 -0.238929 0 -0.268556
0 -0.185424 0 -0.239003 0 -0.268895
0 -0.184421 0 -0.239043 0 -0.269268
0 -0.183369 0 -0.239051 0 -0.269667
0 -0.182235 0 -0.239054 0 -0.270053
0 -0.181027 0 -0.23905 0 -0.270414
0 -0.179758 0 -0.239046 0 -0.270747
0 -0.178454 0 -0.23904 0 -0.271069
0 -0.177126 0 -0.23903 0 -0.271392
0 -0.175769 0 -0.239015 0 -0.271723
0 -0.174403 0 -0.238969 0 -0.272028
0 -0.173088 0 -0.238861 0 -0.272312
0 -0.171858 0 -0.238743 0 -0.272573
0 -0.170676 0 -0.238558 0 -0.272766
0 -0.169503 0 -0.238277 0 -0.2729
0 -0.168348 0 -0.237878 0 -0.272981
0 -0.167237 0 -0.237383 0 -0.273008
0 -0.1662 0 -0.236839 0 -0.273012
0 -0.165238 0 -0.236277 0 -0.273013
0 -0.164328 0 -0.235712 0 -0.273002
0 -0.163458 0 -0.23512 0 -0.272966
0 -0.162642 0 -0.234443 0 -0.272901
0 -0.161893 0 -0.233629 0 -0.272705
0 -0.161206 0 -0.232665 0 -0.272029
0 -0.160558 0 -0.231592 0 -0.270936
0 -0.15993 0 -0.23045 0 -0.26951
0 -0.159335 0 -0.229293 0 -0.267814
0 -0.158764 0 -0.228164 0 -0.265917
0 -0.158231 0 -0.227056 0 -0.263858
0 -0.157737 0 -0.225943 0 -0.261616
0 -0.157336 0 -0.224831 0 -0.259122
0 -0.157011 0 -0.223726 0 -0.257117
0 -0.156739 0 -0.222657 0 -0.255766
0 -0.156458 0 -0.221654 0 -0.254595
0 -0.156171 0 -0.220686 0 -0.253666
0 -0.155917 0 -0.21968 0 -0.252817
0 -0.155734 0 -0.21858 0 -0.251874
0 -0.155612 0 -0.217397 0 -0.250693
0 -0.155508 0 -0.216173 0 -0.249236
0 -0.15539 0 -0.214944 0 -0.247578
0 -0.155258 0 -0.213706 0 -0.245863
0 -0.155134 0 -0.212425 0 -0.244243
0 -0.155033 0 -0.21106 0 -0.242817
0 -0.154944 0 -0.2096 0 -0.241595
0 -0.154836 0 -0.208067 0 -0.240502
0 -0.154696 0 -0.206481 0 -0.239408
0 -0.154532 0 -0.204825 0 -0.238202
0 -0.154372 0 -0.203141 0 -0.236806
0 -0.154201 0 -0.201424 0 -0.235239
0 -0.15403 0 -0.199653 0 -0.23362
0 -0.153849 0 -0.197843 0 -0.232068
0 -0.15366 0 -0.196013 0 -0.23068
0 -0.153471 0 -0.194164 0 -0.229484
0 -0.153291 0 -0.1923 0 -0.228427
0 -0.153098 0 -0.190484 0 -0.227397
0 -0.152853 0 -0.188824 0 -0.22629
0 -0.152638 0 -0.187313 0 -0.225054
0 -0.152454 0 -0.185957 0 -0.223685
0 -0.152332 0 -0.184696 0 -0.222245
0 -0.152258 0 -0.18343 0 -0.220832
0 -0.152221 0 -0.18208 0 -0.21953
0 -0.152222 0 -0.180626 0 -0.218377
0 -0.15224 0 -0.179116 0 -0.217366
0 -0.15227 0 -0.177644 0 -0.216426
0 -0.152313 0 -0.176294 0 -0.215462
0 -0.15237 0 -0.175103 0 -0.2144
0 -0.152439 0 -0.174048 0 -0.213209
0 -0.152523 0 -0.173063 0 -0.211916
0 -0.152622 0 -0.172074 0 -0.210602
0 -0.152736 0 -0.171036 0 -0.20936
0 -0.152793 0 -0.169991 0 -0.20826
0 -0.152845 0 -0.168954 0 -0.20734
0 -0.152893 0 -0.168001 0 -0.206576
0 -0.152951 0 -0.167258 0 -0.205828
0 -0.153011 0 -0.16665 0 -0.205044
0 -0.153092 0 -0.166159 0 -0.204176
0 -0.153203 0 -0.165776 0 -0.2032
0 -0.153368 0 -0.165483 0 -0.202183
0 -0.153644 0 -0.165284 0 -0.201234
0 -0.154087 0 -0.165227 0 -0.200443
0 -0.154708 0 -0.165269 0 -0.199871
0 -0.155385 0 -0.165313 0 -0.199472
0 -0.156022 0 -0.165359 0 -0.199175
0 -0.156568 0 -0.165423 0 -0.198899
0 -0.157044 0 -0.16551 0 -0.198624
0 -0.157472 0 -0.165618 0 -0.19835
0 -0.157838 0 -0.165737 0 -0.198104
0 -0.158091 0 -0.165809 0 -0.197956
0 -0.158159 0 -0.16583 0 -0.197936
0 -0.158104 0 -0.165865 0 -0.197948
0 -0.157966 0 -0.165897 0 -0.198028
0 -0.157637 0 -0.165956 0 -0.198141
0 -0.157084 0 -0.166054 0 -0.198293
0 -0.156394 0 -0.166186 0 -0.198503
0 -0.155628 0 -0.166389 0 -0.198983
0 -0.154811 0 -0.166722 0 -0.200019
0 -0.154015 0 -0.167166 0 -0.201926
0 -0.153208 0 -0.167644 0 -0.204458
0 -0.152239 0 -0.168168 0 -0.207297
0 -0.151126 0 -0.168637 0 -0.210234
0 -0.14992 0 -0.169046 0 -0.213165
0 -0.148673 0 -0.16944 0 -0.215999
0 -0.147411 0 -0.169811 0 -0.218251
0 -0.146114 0 -0.170154 0 -0.220546
0 -0.144734 0 -0.170525 0 -0.22275
0 -0.143291 0 -0.171139 0 -0.22487
0 -0.14184 0 -0.171945 0 -0.226995
0 -0.140393 0 -0.173023 0 -0.229158
0 -0.138972 0 -0.174283 0 -0.231406
0 -0.137564 0 -0.175546 0 -0.233745
0 -0.136161 0 -0.176658 0 -0.236098
0 -0.134807 0 -0.177635 0 -0.238369
0 -0.13348 0 -0.178611 0 -0.240405
0 -0.132176 0 -0.179596 0 -0.242267
0 -0.130956 0 -0.180681 0 -0.244006
0 -0.129766 0 -0.181941 0 -0.245585
0 -0.128619 0 -0.183289 0 -0.247081
0 -0.127531 0 -0.184545 0 -0.248587
0 -0.126503 0 -0.185612 0 -0.250087
0 -0.12553 0 -0.186567 0 -0.251522
0 -0.124626 0 -0.187445 0 -0.252878
0 -0.1238 0 -0.188322 0 -0.254111
0 -0.123051 0 -0.189272 0 -0.255153
0 -0.122478 0 -0.190205 0 -0.256009
0 -0.121999 0 -0.191021 0 -0.256727
0 -0.121578 0 -0.191752 0 -0.257325
0 -0.121152 0 -0.19237 0 -0.257881
0 -0.120709 0 -0.192918 0 -0.258451
0 -0.120267 0 -0.193456 0 -0.258975
0 -0.119816 0 -0.193971 0 -0.259363
0 -0.119349 0 -0.194425 0 -0.259591
0 -0.118837 0 -0.194775 0 -0.259659
0 -0.118288 0 -0.194999 0 -0.259644
0 -0.11772 0 -0.19508 0 -0.259618
0 -0.117135 0 -0.195063 0 -0.259579
0 -0.1165 0 -0.195022 0 -0.259521
0 -0.115781 0 -0.194951 0 -0.259445
0 -0.114954 0 -0.194745 0 -0.259351
0 -0.114037 0 -0.194245 0 -0.259189
0 -0.113072 0 -0.19344 0 -0.25884
0 -0.112057 0 -0.192409 0 -0.258241
0 -0.110981 0 -0.191258 0 -0.257458
0 -0.109864 0 -0.190068 0 -0.256567
0 -0.108775 0 -0.188894 0 -0.255604
0 -0.10772 0 -0.187722 0 -0.25456
0 -0.106641 0 -0.186367 0 -0.253486
0 -0.10551 0 -0.18476 0 -0.2524
0 -0.104354 0 -0.183044 0 -0.25124
0 -0.103227 0 -0.181312 0 -0.249972
0 -0.102151 0 -0.179741 0 -0.248556
0 -0.10112 0 -0.178351 0 -0.246994
0 -0.100144 0 -0.177027 0 -0.245262
0 -0.0991953 0 -0.17558 0 -0.243347
0 -0.0983167 0 -0.173839 0 -0.241269
0 -0.0975467 0 -0.171759 0 -0.239281
0 -0.0968826 0 -0.169449 0 -0.237476
0 -0.0962997 0 -0.167092 0 -0.235868
0 -0.0956654 0 -0.164859 0 -0.234857
0 -0.0950978 0 -0.162908 0 -0.233733
0 -0.0946416 0 -0.16118 0 -0.232078
0 -0.0944167 0 -0.159505 0 -0.229781
0 -0.0943911 0 -0.157678 0 -0.227003
0 -0.094427 0 -0.155575 0 -0.224105
0 -0.09448 0 -0.153223 0 -0.221412
0 -0.0945569 0 -0.150773 0 -0.219075
0 -0.0946617 0 -0.148425 0 -0.217011
0 -0.0947943 0 -0.146322 0 -0.214907
0 -0.0949501 0 -0.144466 0 -0.212428
0 -0.0951254 0 -0.142732 0 -0.209384
0 -0.0951944 0 -0.140963 0 -0.205818
0 -0.0952841 0 -0.139052 0 -0.202039
0 -0.095373 0 -0.137138 0 -0.198411
0 -0.0954799 0 -0.135365 0 -0.195128
0 -0.0956237 0 -0.133617 0 -0.192305
0 -0.0958575 0 -0.131866 0 -0.189751
0 -0.0962391 0 -0.130214 0 -0.187047
0 -0.0968729 0 -0.128563 0 -0.183996
0 -0.0978993 0 -0.126876 0 -0.180606
0 -0.099197 0 -0.12526 0 -0.177014
0 -0.100558 0 -0.123743 0 -0.173511
0 -0.101809 0 -0.122275 0 -0.170377
0 -0.102958 0 -0.120838 0 -0.16769
0 -0.10408 0 -0.119382 0 -0.165353
0 -0.105228 0 -0.117885 0 -0.163172
0 -0.106356 0 -0.116384 0 -0.160942
0 -0.107382 0 -0.114926 0 -0.158565
0 -0.108284 0 -0.11352 0 -0.156098
0 -0.109093 0 -0.112145 0 -0.153715
0 -0.109843 0 -0.110772 0 -0.151619
0 -0.110528 0 -0.109383 0 -0.149946
0 -0.111116 0 -0.107985 0 -0.148701
0 -0.111588 0 -0.106612 0 -0.147776
0 -0.111921 0 -0.105299 0 -0.147403
0 -0.112085 0 -0.104109 0 -0.147298
0 -0.112131 0 -0.102992 0 -0.147301
0 -0.11211 0 -0.101894 0 -0.147304
0 -0.112086 0 -0.100811 0 -0.147302
0 -0.112039 0 -0.0997735 0 -0.147304
0 -0.111864 0 -0.0988163 0 -0.147349
0 -0.111395 0 -0.098036 0 -0.147435
0 -0.110683 0 -0.0974497 0 -0.147557
0 -0.109893 0 -0.0970275 0 -0.147713
0 -0.109195 0 -0.0967493 0 -0.147899
0 -0.108572 0 -0.0965973 0 -0.148114
0 -0.107891 0 -0.0965739 0 -0.148394
0 -0.10707 0 -0.096625 0 -0.148933
0 -0.10621 0 -0.0966933 0 -0.149766
0 -0.105398 0 -0.096773 0 -0.151237
0 -0.104617 0 -0.0968921 0 -0.153227
0 -0.103799 0 -0.0970566 0 -0.155466
0 -0.102926 0 -0.0972741 0 -0.157686
0 -0.102046 0 -0.0975035 0 -0.159764
0 -0.10118 0 -0.0978101 0 -0.161819
0 -0.100237 0 -0.0983803 0 -0.163963
0 -0.099177 0 -0.0993778 0 -0.166267
0 -0.0980138 0 -0.100807 0 -0.168676
0 -0.096794 0 -0.102497 0 -0.171083
0 -0.0955867 0 -0.104237 0 -0.17346
0 -0.0945652 0 -0.105888 0 -0.175876
0 -0.0936161 0 -0.107265 0 -0.178253
0 -0.092642 0 -0.108457 0 -0.180593
0 -0.0915325 0 -0.109608 0 -0.183026
0 -0.0902776 0 -0.110867 0 -0.185401
0 -0.0889567 0 -0.11232 0 -0.187628
0 -0.0876457 0 -0.113895 0 -0.18971
0 -0.0863261 0 -0.115451 0 -0.191727
0 -0.0849276 0 -0.116882 0 -0.19381
0 -0.0834177 0 -0.118121 0 -0.196108
0 -0.0818868 0 -0.119176 0 -0.198693
0 -0.0803951 0 -0.12008 0 -0.201553
0 -0.0788982 0 -0.121 0 -0.20455
0 -0.0773468 0 -0.122055 0 -0.207525
0 -0.0756929 0 -0.123189 0 -0.21037
0 -0.0739883 0 -0.12443 0 -0.212937
0 -0.0723123 0 -0.125855 0 -0.215122
0 -0.0706626 0 -0.12724 0 -0.21711
0 -0.0691083 0 -0.128477 0 -0.219123
0 -0.0674917 0 -0.129582 0 -0.221164
0 -0.0658212 0 -0.130535 0 -0.223312
0 -0.0641864 0 -0.131303 0 -0.225611
0 -0.0626315 0 -0.131976 0 -0.227931
0 -0.0611718 0 -0.132648 0 -0.230057
0 -0.0597961 0 -0.133305 0 -0.23186
0 -0.0585092 0 -0.133921 0 -0.233286
0 -0.0573151 0 -0.134487 0 -0.234333
0 -0.0562213 0 -0.134948 0 -0.235093
0 -0.0552394 0 -0.135239 0 -0.235725
0 -0.0543633 0 -0.135352 0 -0.236337
0 -0.0535823 0 -0.13535 0 -0.236958
0 -0.0528945 0 -0.135334 0 -0.237514
0 -0.0523041 0 -0.135322 0 -0.237769
0 -0.051818 0 -0.13531 0 -0.237721
0 -0.0514386 0 -0.135285 0 -0.237607
0 -0.0511602 0 -0.13523 0 -0.237411
0 -0.0510189 0 -0.135022 0 -0.236709
0 -0.0510148 0 -0.134642 0 -0.235165
0 -0.0510227 0 -0.134197 0 -0.232982
0 -0.0510305 0 -0.13371 0 -0.230189
0 -0.0510414 0 -0.133197 0 -0.227069
0 -0.051062 0 -0.132656 0 -0.22384
0 -0.0510895 0 -0.132022 0 -0.220576
0 -0.0511169 0 -0.131234 0 -0.217918
0 -0.0511421 0 -0.13031 0 -0.215466
0 -0.0511683 0 -0.129268 0 -0.213573
0 -0.0511885 0 -0.128172 0 -0.211793
0 -0.0511959 0 -0.12707 0 -0.209539
0 -0.0512001 0 -0.125882 0 -0.206883
0 -0.0512051 0 -0.124513 0 -0.204082
0 -0.05121 0 -0.122923 0 -0.201444
0 -0.0512149 0 -0.121132 0 -0.199164
0 -0.051223 0 -0.119202 0 -0.197204
0 -0.0512328 0 -0.117178 0 -0.195334
0 -0.0512431 0 -0.11506 0 -0.193285
0 -0.0512557 0 -0.112824 0 -0.19091
0 -0.051274 0 -0.110451 0 -0.188268
0 -0.0512977 0 -0.107948 0 -0.185575
0 -0.0512883 0 -0.10537 0 -0.183052
0 -0.0512869 0 -0.102765 0 -0.180789
0 -0.0512849 0 -0.100387 0 -0.178736
0 -0.0512996 0 -0.0981839 0 -0.176715
0 -0.0513197 0 -0.0961641 0 -0.174477
0 -0.0513542 0 -0.0942235 0 -0.171923
0 -0.0514065 0 -0.0922149 0 -0.169141
0 -0.0514761 0 -0.0900749 0 -0.166286
0 -0.0515662 0 -0.0878268 0 -0.163534
0 -0.0516779 0 -0.0855645 0 -0.160966
0 -0.0518068 0 -0.0834097 0 -0.158501
0 -0.0519466 0 -0.0814049 0 -0.155969
0 -0.052082 0 -0.0795062 0 -0.153233
0 -0.0521302 0 -0.0776569 0 -0.150204
0 -0.0521901 0 -0.0757029 0 -0.147018
0 -0.0522575 0 -0.073673 0 -0.143833
0 -0.0523373 0 -0.0716847 0 -0.140723
0 -0.0524225 0 -0.0697833 0 -0.137819
0 -0.052518 0 -0.0680748 0 -0.134999
0 -0.0526408 0 -0.0666007 0 -0.132093
0 -0.0528155 0 -0.0652925 0 -0.12901
0 -0.0530662 0 -0.0640833 0 -0.125767
0 -0.053429 0 -0.0629726 0 -0.122476
0 -0.0539817 0 -0.0619728 0 -0.120296
0 -0.0548227 0 -0.0611289 0 -0.119561
0 -0.0559439 0 -0.0604404 0 -0.119591
0 -0.0571828 0 -0.0598632 0 -0.119632
0 -0.0583802 0 -0.0593555 0 -0.119651
0 -0.0594487 0 -0.058904 0 -0.119643
0 -0.060401 0 -0.0585395 0 -0.11963
0 -0.0612715 0 -0.0582826 0 -0.119634
0 -0.0620428 0 -0.0580925 0 -0.119654
0 -0.0626707 0 -0.0579017 0 -0.119674
0 -0.0631264 0 -0.0577051 0 -0.119679
0 -0.0634097 0 -0.0575417 0 -0.119674
0 -0.0635261 0 -0.0574414 0 -0.119668
0 -0.0634935 0 -0.0574072 0 -0.119671
0 -0.0633672 0 -0.0573937 0 -0.11968
0 -0.062999 0 -0.0573569 0 -0.119706
0 -0.0624365 0 -0.0573042 0 -0.119798
0 -0.061644 0 -0.0572638 0 -0.119964
0 -0.0606898 0 -0.0572737 0 -0.120203
0 -0.0596359 0 -0.0572918 0 -0.120534
0 -0.0585194 0 -0.0573064 0 -0.121336
0 -0.0573222 0 -0.0572942 0 -0.123393
0 -0.0560077 0 -0.0572551 0 -0.126481
0 -0.0545877 0 -0.0572135 0 -0.129781
0 -0.0531388 0 -0.0571615 0 -0.133608
0 -0.0517559 0 -0.0570656 0 -0.137572
0 -0.0504304 0 -0.0569646 0 -0.141417
0 -0.0490884 0 -0.0569402 0 -0.145174
0 -0.0477036 0 -0.0569476 0 -0.149079
0 -0.0463164 0 -0.0569644 0 -0.153315
0 -0.0449796 0 -0.0569909 0 -0.157546
0 -0.0437312 0 -0.0570315 0 -0.161624
0 -0.0425611 0 -0.0571024 0 -0.164976
0 -0.0414436 0 -0.0572114 0 -0.167315
0 -0.0403909 0 -0.0573543 0 -0.168735
0 -0.0394318 0 -0.0575303 0 -0.169742
0 -0.0385695 0 -0.0577305 0 -0.170901
0 -0.0378036 0 -0.0579605 0 -0.172749
0 -0.0371166 0 -0.0583418 0 -0.175481
0 -0.0364919 0 -0.0590686 0 -0.178832
0 -0.0359213 0 -0.0603177 0 -0.182027
0 -0.0353901 0 -0.0620117 0 -0.184775
0 -0.0349105 0 -0.0639931 0 -0.186941
0 -0.0344693 0 -0.0660681 0 -0.187978
0 -0.0340792 0 -0.0680382 0 -0.188501
0 -0.0337414 0 -0.0698884 0 -0.188945
0 -0.0334308 0 -0.0717508 0 -0.189742
0 -0.0331226 0 -0.0737185 0 -0.19111
0 -0.0328057 0 -0.0758008 0 -0.192654
0 -0.0324781 0 -0.0779091 0 -0.194119
0 -0.0321403 0 -0.0799233 0 -0.195358
0 -0.0317853 0 -0.0817681 0 -0.196405
0 -0.0315868 0 -0.0833681 0 -0.197456
0 -0.0314732 0 -0.0846756 0 -0.198612
0 -0.031293 0 -0.0859418 0 -0.200009
0 -0.0309793 0 -0.0871129 0 -0.201458
0 -0.0305024 0 -0.088112 0 -0.202988
0 -0.029945 0 -0.0889853 0 -0.204421
0 -0.0293606 0 -0.0897307 0 -0.205442
0 -0.0287405 0 -0.0902505 0 -0.206252
0 -0.0280294 0 -0.0905662 0 -0.206947
0 -0.0271729 0 -0.0907293 0 -0.207627
0 -0.0262099 0 -0.0907248 0 -0.208396
0 -0.0251904 0 -0.0906218 0 -0.209304
0 -0.0241474 0 -0.0903549 0 -0.210234
0 -0.0231884 0 -0.0897985 0 -0.211147
0 -0.0223249 0 -0.0890881 0 -0.211993
0 -0.0214435 0 -0.0883107 0 -0.212591
0 -0.0205396 0 -0.0873889 0 -0.212971
0 -0.0196699 0 -0.0863236 0 -0.213143
0 -0.0188658 0 -0.0851887 0 -0.213162
0 -0.0180743 0 -0.0840148 0 -0.213169
0 -0.0173569 0 -0.0827849 0 -0.213176
0 -0.016718 0 -0.0814921 0 -0.213179
0 -0.0162481 0 -0.0801552 0 -0.213168
0 -0.0159429 0 -0.078751 0 -0.213106
0 -0.0157708 0 -0.0772723 0 -0.212983
0 -0.0157184 0 -0.0757475 0 -0.21265
0 -0.0157606 0 -0.0742189 0 -0.211411
0 -0.0158268 0 -0.0728018 0 -0.209283
0 -0.0159128 0 -0.0715033 0 -0.206418
0 -0.0160225 0 -0.0703194 0 -0.202936
0 -0.0161637 0 -0.0692543 0 -0.199054
0 -0.0163432 0 -0.0682408 0 -0.195192
0 -0.0165484 0 -0.067265 0 -0.192308
0 -0.0167658 0 -0.0663966 0 -0.190265
0 -0.0169989 0 -0.0656945 0 -0.187803
0 -0.0172503 0 -0.0651584 0 -0.184722
0 -0.0174595 0 -0.064706 0 -0.181011
0 -0.0175762 0 -0.0641875 0 -0.177019
0 -0.0177249 0 -0.0635072 0 -0.173211
0 -0.0179211 0 -0.0628569 0 -0.169782
0 -0.0181843 0 -0.0619939 0 -0.166818
0 -0.0185537 0 -0.0610457 0 -0.164095
0 -0.0190214 0 -0.0601401 0 -0.161108
0 -0.0196616 0 -0.0591852 0 -0.157795
0 -0.0205215 0 -0.0581412 0 -0.154261
0 -0.0215176 0 -0.0570743 0 -0.150728
0 -0.0225435 0 -0.0559304 0 -0.1475
0 -0.0235144 0 -0.0546978 0 -0.144811
0 -0.0243808 0 -0.0534245 0 -0.142524
0 -0.0251352 0 -0.052079 0 -0.140419
0 -0.0258073 0 -0.0506384 0 -0.138281
0 -0.0263941 0 -0.0491303 0 -0.136017
0 -0.0268708 0 -0.0475782 0 -0.133741
0 -0.0271146 0 -0.0459815 0 -0.131679
0 -0.0271402 0 -0.0443333 0 -0.130023
0 -0.0271142 0 -0.0426305 0 -0.128801
0 -0.0270366 0 -0.0408462 0 -0.127898
0 -0.0269049 0 -0.0390223 0 -0.127127
0 -0.0266383 0 -0.0372483 0 -0.126314
0 -0.0262981 0 -0.035498 0 -0.125489
0 -0.0259514 0 -0.0337735 0 -0.124824
0 -0.0256448 0 -0.0321083 0 -0.124332
0 -0.0253539 0 -0.0307336 0 -0.124072
0 -0.0250545 0 -0.0296313 0 -0.124035
0 -0.0247585 0 -0.0288321 0 -0.124033
0 -0.0244892 0 -0.0282728 0 -0.124003
0 -0.0242856 0 -0.0277723 0 -0.123941
0 -0.024122 0 -0.0272128 0 -0.123904
0 -0.0239752 0 -0.0265884 0 -0.123902
0 -0.0238657 0 -0.0259737 0 -0.123907
0 -0.0238242 0 -0.0254976 0 -0.123903
0 -0.0238356 0 -0.025259 0 -0.123842
0 -0.023855 0 -0.0252391 0 -0.123657
0 -0.0238782 0 -0.0252967 0 -0.123388
0 -0.0239177 0 -0.02538 0 -0.123107
0 -0.0239764 0 -0.0255142 0 -0.122856
0 -0.0240434 0 -0.0257033 0 -0.122648
0 -0.0241026 0 -0.025938 0 -0.122466
0 -0.0242003 0 -0.02619 0 -0.122268
0 -0.0245259 0 -0.02647 0 -0.122079
0 -0.025295 0 -0.026798 0 -0.121984
0 -0.026341 0 -0.0273086 0 -0.121986
0 -0.0273571 0 -0.0281053 0 -0.121998
0 -0.028213 0 -0.0292885 0 -0.122019
0 -0.028927 0 -0.0308595 0 -0.122039
0 -0.029649 0 -0.0324711 0 -0.122082
0 -0.0304514 0 -0.0340861 0 -0.122164
0 -0.0312559 0 -0.0354893 0 -0.122295
0 -0.0319493 0 -0.0367016 0 -0.122465
0 -0.0325126 0 -0.0378724 0 -0.122673
0 -0.0330099 0 -0.039213 0 -0.122953
0 -0.0334666 0 -0.0409105 0 -0.123579
0 -0.0338662 0 -0.0429401 0 -0.125074
0 -0.0341805 0 -0.0450168 0 -0.127081
0 -0.034401 0 -0.0469555 0 -0.129643
0 -0.0345664 0 -0.0486273 0 -0.132671
0 -0.034685 0 -0.0500904 0 -0.135911
0 -0.0347183 0 -0.0515547 0 -0.139151
0 -0.034686 0 -0.0531622 0 -0.142416
0 -0.0345877 0 -0.0548698 0 -0.145883
0 -0.0343839 0 -0.0565634 0 -0.14968
0 -0.0341216 0 -0.0581148 0 -0.153795
0 -0.0338371 0 -0.059479 0 -0.158143
0 -0.0335331 0 -0.0607581 0 -0.162312
0 -0.0332022 0 -0.0621402 0 -0.165831
0 -0.032846 0 -0.0637338 0 -0.168661
0 -0.0324619 0 -0.065526 0 -0.170842
0 -0.0320663 0 -0.0673975 0 -0.172666
0 -0.0316852 0 -0.06919 0 -0.174574
0 -0.0313282 0 -0.0708243 0 -0.176955
0 -0.030997 0 -0.0723371 0 -0.180003
0 -0.0306946 0 -0.073841 0 -0.183638
0 -0.0304263 0 -0.0754537 0 -0.187532
0 -0.0302103 0 -0.0772436 0 -0.191227
0 -0.030062 0 -0.0793113 0 -0.194267
0 -0.029925 0 -0.0814978 0 -0.196473
0 -0.0298779 0 -0.0836224 0 -0.198018
0 -0.0298826 0 -0.0856531 0 -0.199171
0 -0.0299073 0 -0.0876242 0 -0.200371
0 -0.029951 0 -0.0895444 0 -0.202044
0 -0.030013 0 -0.0914986 0 -0.204333
0 -0.0300929 0 -0.0935581 0 -0.206926
0 -0.0301922 0 -0.0956694 0 -0.209374
0 -0.030359 0 -0.0977671 0 -0.211512
0 -0.0307456 0 -0.0998277 0 -0.213268
0 -0.0314145 0 -0.101814 0 -0.21434
0 -0.0322644 0 -0.103734 0 -0.215168
0 -0.033103 0 -0.105665 0 -0.216013
0 -0.0338952 0 -0.107626 0 -0.217032
0 -0.0347209 0 -0.109555 0 -0.21818
0 -0.0356418 0 -0.111409 0 -0.219284
0 -0.0366416 0 -0.113165 0 -0.220254
0 -0.0376521 0 -0.114825 0 -0.221063
0 -0.0386303 0 -0.116413 0 -0.221745
0 -0.0395911 0 -0.117941 0 -0.222375
0 -0.0405715 0 -0.11939 0 -0.223011
0 -0.041578 0 -0.120729 0 -0.22366
0 -0.0425807 0 -0.121934 0 -0.224292
0 -0.0435506 0 -0.122916 0 -0.224876
0 -0.044481 0 -0.123714 0 -0.225404
0 -0.045398 0 -0.124359 0 -0.225924
0 -0.0463157 0 -0.124916 0 -0.226475
0 -0.0472204 0 -0.12546 0 -0.227049
0 -0.0480968 0 -0.125979 0 -0.227625
0 -0.0489406 0 -0.126442 0 -0.228159
0 -0.0497598 0 -0.126811 0 -0.228628
0 -0.0505765 0 -0.127073 0 -0.229011
0 -0.0513996 0 -0.127222 0 -0.229283
0 -0.0522141 0 -0.127313 0 -0.22951
0 -0.053006 0 -0.127381 0 -0.229689
0 -0.0537862 0 -0.12742 0 -0.229831
0 -0.0545753 0 -0.127417 0 -0.229931
0 -0.0553867 0 -0.127396 0 -0.229978
0 -0.0562211 0 -0.12737 0 -0.229974
0 -0.0570789 0 -0.127342 0 -0.229949
0 -0.0579699 0 -0.127311 0 -0.229905
0 -0.0589069 0 -0.127277 0 -0.229839
0 -0.059901 0 -0.127239 0 -0.229752
0 -0.0609578 0 -0.127199 0 -0.229636
0 -0.0620785 0 -0.127158 0 -0.229357
0 -0.0632578 0 -0.127108 0 -0.228632
0 -0.0644884 0 -0.127052 0 -0.227455
0 -0.0657606 0 -0.12697 0 -0.226001
0 -0.0670985 0 -0.126856 0 -0.22441
0 -0.0685012 0 -0.126775 0 -0.222888
0 -0.0699564 0 -0.126738 0 -0.221718
0 -0.0714592 0 -0.126744 0 -0.220796
0 -0.0729985 0 -0.12678 0 -0.219922
0 -0.0745732 0 -0.126865 0 -0.21886
0 -0.0761769 0 -0.126989 0 -0.217488
0 -0.077795 0 -0.127156 0 -0.215886
0 -0.0794018 0 -0.127359 0 -0.214237
0 -0.0810085 0 -0.127585 0 -0.212973
0 -0.0826148 0 -0.127862 0 -0.212174
0 -0.0842044 0 -0.128222 0 -0.211403
0 -0.0857743 0 -0.128624 0 -0.210573
0 -0.087321 0 -0.128896 0 -0.209633
0 -0.0888346 0 -0.129027 0 -0.208631
0 -0.0903228 0 -0.12902 0 -0.207721
0 -0.0917818 0 -0.128933 0 -0.207035
0 -0.0932025 0 -0.128909 0 -0.206609
0 -0.0945806 0 -0.129037 0 -0.20639
0 -0.0959096 0 -0.12936 0 -0.206256
0 -0.097183 0 -0.129844 0 -0.206103
0 -0.0984019 0 -0.13041 0 -0.205928
0 -0.0995702 0 -0.130976 0 -0.205867
0 -0.100688 0 -0.131501 0 -0.205907
0 -0.10175 0 -0.132006 0 -0.205979
0 -0.102751 0 -0.132566 0 -0.206062
0 -0.103701 0 -0.133212 0 -0.206233
0 -0.104614 0 -0.133909 0 -0.206776
0 -0.10549 0 -0.134632 0 -0.207779
0 -0.106337 0 -0.135337 0 -0.209092
0 -0.107152 0 -0.136038 0 -0.210614
0 -0.107937 0 -0.136764 0 -0.212215
0 -0.108694 0 -0.137566 0 -0.213832
0 -0.109419 0 -0.138474 0 -0.215492
0 -0.110122 0 -0.139474 0 -0.217271
0 -0.110815 0 -0.140533 0 -0.219213
0 -0.11151 0 -0.141626 0 -0.221296
0 -0.112211 0 -0.142764 0 -0.223452
0 -0.112912 0 -0.14398 0 -0.225489
0 -0.113613 0 -0.145301 0 -0.227138
0 -0.114318 0 -0.146736 0 -0.228455
0 -0.115029 0 -0.148282 0 -0.229497
0 -0.115753 0 -0.149913 0 -0.230461
0 -0.116493 0 -0.15161 0 -0.231584
0 -0.117248 0 -0.153338 0 -0.233034
0 -0.118014 0 -0.155096 0 -0.23484
0 -0.118793 0 -0.15688 0 -0.236885
0 -0.119585 0 -0.158693 0 -0.238959
0 -0.120387 0 -0.160547 0 -0.240859
0 -0.121195 0 -0.162455 0 -0.242474
0 -0.122007 0 -0.164424 0 -0.243839
0 -0.122818 0 -0.166453 0 -0.245101
0 -0.123627 0 -0.168529 0 -0.246462
0 -0.124433 0 -0.170633 0 -0.24808
0 -0.125232 0 -0.172747 0 -0.250006
0 -0.12602 0 -0.17486 0 -0.252165
0 -0.126793 0 -0.176974 0 -0.254397
0 -0.127548 0 -0.179098 0 -0.25653
0 -0.128279 0 -0.181248 0 -0.258455
0 -0.128983 0 -0.183433 0 -0.260178
0 -0.129659 0 -0.185653 0 -0.261805
0 -0.130305 0 -0.187896 0 -0.263498
0 -0.130918 0 -0.190142 0 -0.265394
0 -0.1315 0 -0.19237 0 -0.267553
0 -0.132049 0 -0.194567 0 -0.269929
0 -0.132565 0 -0.196732 0 -0.272395
0 -0.133049 0 -0.198875 0 -0.274804
0 -0.133501 0 -0.200999 0 -0.277048
0 -0.13392 0 -0.20309 0 -0.279106
0 -0.134309 0 -0.205136 0 -0.281041
0 -0.134674 0 -0.20712 0 -0.282977
0 -0.135021 0 -0.209037 0 -0.285031
0 -0.135353 0 -0.210893 0 -0.287265
0 -0.135675 0 -0.212699 0 -0.289655
0 -0.135988 0 -0.214464 0 -0.292102
0 -0.136308 0 -0.216212 0 -0.29447
0 -0.136653 0 -0.218065 0 -0.296608
0 -0.136974 0 -0.219922 0 -0.298489
0 -0.137325 0 -0.221721 0 -0.300194
0 -0.137684 0 -0.223477 0 -0.301777
0 -0.138062 0 -0.22517 0 -0.303369
0 -0.138475 0 -0.226774 0 -0.30508
0 -0.138919 0 -0.228341 0 -0.306918
0 -0.139388 0 -0.229909 0 -0.308797
0 -0.139886 0 -0.231465 0 -0.310599
0 -0.140419 0 -0.232989 0 -0.3122
0 -0.140991 0 -0.234468 0 -0.313683
0 -0.141605 0 -0.23589 0 -0.315048
0 -0.142262 0 -0.237263 0 -0.316413
0 -0.142958 0 -0.238605 0 -0.317883
0 -0.143692 0 -0.239923 0 -0.319421
0 -0.144467 0 -0.241207 0 -0.320841
0 -0.145284 0 -0.242458 0 -0.322052
0 -0.146169 0 -0.243671 0 -0.32301
0 -0.147148 0 -0.244821 0 -0.323756
0 -0.148165 0 -0.24593 0 -0.324345
0 -0.149211 0 -0.247011 0 -0.324805
0 -0.150266 0 -0.248041 0 -0.325165
0 -0.15134 0 -0.249023 0 -0.325381
0 -0.15244 0 -0.249952 0 -0.32542
0 -0.153564 0 -0.250818 0 -0.325395
0 -0.154702 0 -0.25159 0 -0.325354
0 -0.155835 0 -0.252147 0 -0.325299
0 -0.156949 0 -0.252516 0 -0.325233
0 -0.158066 0 -0.25267 0 -0.325159
0 -0.159183 0 -0.252685 0 -0.325074
0 -0.160281 0 -0.252689 0 -0.32498
0 -0.161352 0 -0.252705 0 -0.32488
0 -0.162385 0 -0.25279 0 -0.324756
0 -0.163383 0 -0.252873 0 -0.324574
0 -0.164367 0 -0.252903 0 -0.324263
0 -0.165322 0 -0.252892 0 -0.323757
0 -0.166252 0 -0.25287 0 -0.32308
0 -0.167139 0 -0.252843 0 -0.322293
0 -0.167979 0 -0.252807 0 -0.321452
0 -0.16878 0 -0.252749 0 -0.320631
0 -0.169549 0 -0.252673 0 -0.319825
0 -0.170292 0 -0.252583 0 -0.319025
0 -0.171011 0 -0.252484 0 -0.318207
0 -0.171681 0 -0.252351 0 -0.317353
0 -0.172327 0 -0.252133 0 -0.316479
0 -0.172989 0 -0.251893 0 -0.315632
0 -0.173692 0 -0.251551 0 -0.314838
0 -0.174406 0 -0.251172 0 -0.314036
0 -0.175116 0 -0.250797 0 -0.313211
0 -0.17582 0 -0.250436 0 -0.31239
0 -0.176532 0 -0.250101 0 -0.311687
0 -0.17727 0 -0.249789 0 -0.311078
0 -0.178038 0 -0.249482 0 -0.310638
0 -0.178827 0 -0.249182 0 -0.310344
0 -0.179629 0 -0.248921 0 -0.310102
0 -0.180454 0 -0.248712 0 -0.309803
0 -0.181302 0 -0.248572 0 -0.309359
0 -0.182168 0 -0.248504 0 -0.308752
0 -0.183053 0 -0.248496 0 -0.308044
0 -0.18395 0 -0.248516 0 -0.307344
0 -0.184862 0 -0.24853 0 -0.30676
0 -0.185774 0 -0.248524 0 -0.306336
0 -0.186661 0 -0.248523 0 -0.306027
0 -0.187547 0 -0.248492 0 -0.305801
0 -0.188433 0 -0.248445 0 -0.305557
0 -0.189305 0 -0.248409 0 -0.305216
0 -0.190156 0 -0.248399 0 -0.304795
0 -0.19098 0 -0.248413 0 -0.304366
0 -0.19177 0 -0.248434 0 -0.304011
0 -0.192525 0 -0.248459 0 -0.303807
0 -0.193246 0 -0.248514 0 -0.303775
0 -0.193922 0 -0.248717 0 -0.303779
0 -0.194509 0 -0.249033 0 -0.303795
0 -0.195009 0 -0.249438 0 -0.303829
0 -0.195467 0 -0.249912 0 -0.303887
0 -0.1959 0 -0.250437 0 -0.304035
0 -0.196296 0 -0.250988 0 -0.304536
0 -0.196639 0 -0.251538 0 -0.305211
0 -0.196922 0 -0.252088 0 -0.305842
0 -0.197155 0 -0.25265 0 -0.306371
0 -0.197355 0 -0.253223 0 -0.306698
0 -0.197517 0 -0.253814 0 -0.306888
0 -0.197633 0 -0.254431 0 -0.307112
0 -0.197705 0 -0.255061 0 -0.307529
0 -0.197746 0 -0.255696 0 -0.308175
0 -0.197766 0 -0.256339 0 -0.308947
0 -0.19777 0 -0.256997 0 -0.309682
0 -0.197766 0 -0.257682 0 -0.31027
0 -0.197759 0 -0.258396 0 -0.31072
0 -0.197751 0 -0.259141 0 -0.311139
0 -0.197742 0 -0.259911 0 -0.311652
0 -0.197732 0 -0.260703 0 -0.312315
0 -0.197722 0 -0.261519 0 -0.313079
0 -0.197713 0 -0.262365 0 -0.313831
0 -0.197704 0 -0.263245 0 -0.314473
0 -0.197697 0 -0.264162 0 -0.314981
0 -0.197692 0 -0.265111 0 -0.315393
0 -0.197691 0 -0.266081 0 -0.315642
0 -0.197691 0 -0.267039 0 -0.316138
0 -0.197695 0 -0.267986 0 -0.316841
0 -0.197698 0 -0.268948 0 -0.317601
0 -0.197703 0 -0.269941 0 -0.318217
0 -0.197709 0 -0.270968 0 -0.318594
0 -0.197715 0 -0.272004 0 -0.318787
0 -0.197719 0 -0.272891 0 -0.318953
0 -0.197735 0 -0.273475 0 -0.319146
0 -0.197842 0 -0.273966 0 -0.319569
0 -0.198175 0 -0.27446 0 -0.320114
0 -0.198484 0 -0.274998 0 -0.320649
0 -0.198701 0 -0.27561 0 -0.321014
0 -0.198819 0 -0.276241 0 -0.321191
0 -0.198921 0 -0.276836 0 -0.321281
0 -0.199036 0 -0.277354 0 -0.321411
0 -0.199127 0 -0.277781 0 -0.321686
0 -0.199145 0 -0.278133 0 -0.322101
0 -0.199125 0 -0.278455 0 -0.322554
0 -0.199106 0 -0.278782 0 -0.322927
0 -0.19908 0 -0.279114 0 -0.32316
0 -0.199038 0 -0.279393 0 -0.323277
0 -0.198987 0 -0.279574 0 -0.323373
0 -0.198934 0 -0.27962 0 -0.323547
0 -0.198878 0 -0.279586 0 -0.323828
0 -0.198811 0 -0.279543 0 -0.324163
0 -0.198747 0 -0.279518 0 -0.324453
0 -0.198676 0 -0.279476 0 -0.324611
0 -0.198607 0 -0.279411 0 -0.324642
0 -0.198521 0 -0.279333 0 -0.324644
0 -0.198401 0 -0.279243 0 -0.324646
0 -0.19824 0 -0.27915 0 -0.32465
0 -0.198036 0 -0.279021 0 -0.324638
0 -0.197819 0 -0.27895 0 -0.324613
0 -0.197643 0 -0.278798 0 -0.324575
0 -0.197482 0 -0.278599 0 -0.324503
0 -0.19733 0 -0.278318 0 -0.32441
0 -0.197215 0 -0.277895 0 -0.324303
0 -0.197137 0 -0.277354 0 -0.32417
0 -0.197098 0 -0.276731 0 -0.32398
0 -0.1971 0 -0.276076 0 -0.323557
0 -0.197104 0 -0.275471 0 -0.322621
0 -0.197109 0 -0.274955 0 -0.32117
0 -0.197118 0 -0.274485 0 -0.319384
0 -0.19716 0 -0.274018 0 -0.317435
0 -0.197239 0 -0.273516 0 -0.315473
0 -0.197341 0 -0.272962 0 -0.313585
0 -0.19744 0 -0.272334 0 -0.311742
0 -0.19754 0 -0.27169 0 -0.309839
0 -0.197626 0 -0.271073 0 -0.307824
0 -0.197707 0 -0.270458 0 -0.30611
0 -0.197769 0 -0.269796 0 -0.304732
0 -0.197804 0 -0.269068 0 -0.303968
0 -0.197823 0 -0.268233 0 -0.303824
0 -0.197826 0 -0.267318 0 -0.303813
0 -0.197817 0 -0.266388 0 -0.303795
0 -0.197793 0 -0.265512 0 -0.303711
0 -0.197713 0 -0.264724 0 -0.303075
0 -0.19757 0 -0.263991 0 -0.302183
0 -0.197376 0 -0.263249 0 -0.301204
0 -0.197161 0 -0.26244 0 -0.300336
0 -0.196929 0 -0.261571 0 -0.299723
0 -0.196668 0 -0.260683 0 -0.299421
0 -0.196364 0 -0.259837 0 -0.29936
0 -0.196025 0 -0.259113 0 -0.299352
0 -0.195672 0 -0.258493 0 -0.299288
0 -0.19531 0 -0.257939 0 -0.298985
0 -0.194931 0 -0.257394 0 -0.298447
0 -0.194524 0 -0.256815 0 -0.29785
0 -0.194073 0 -0.256193 0 -0.297341
0 -0.193604 0 -0.255574 0 -0.296975
0 -0.19313 0 -0.254998 0 -0.296753
0 -0.19265 0 -0.254495 0 -0.2967
0 -0.192154 0 -0.254071 0 -0.296659
0 -0.191644 0 -0.253701 0 -0.296556
0 -0.19113 0 -0.253347 0 -0.296444
0 -0.190615 0 -0.252989 0 -0.296359
0 -0.190105 0 -0.252625 0 -0.29633
0 -0.1896 0 -0.252276 0 -0.296335
0 -0.189097 0 -0.251974 0 -0.296341
0 -0.188599 0 -0.251738 0 -0.296344
0 -0.18811 0 -0.251562 0 -0.296346
0 -0.187632 0 -0.25143 0 -0.296348
0 -0.187163 0 -0.251318 0 -0.29635
0 -0.186702 0 -0.251207 0 -0.296353
0 -0.186251 0 -0.251105 0 -0.296355
0 -0.185833 0 -0.251037 0 -0.296356
0 -0.185469 0 -0.25102 0 -0.296356
0 -0.185155 0 -0.251035 0 -0.296356
0 -0.184865 0 -0.251055 0 -0.296361
0 -0.184577 0 -0.251081 0 -0.296367
0 -0.18427 0 -0.25111 0 -0.296375
0 -0.183966 0 -0.251143 0 -0.296387
0 -0.183712 0 -0.251177 0 -0.296404
0 -0.183526 0 -0.251209 0 -0.296429
0 -0.183344 0 -0.251254 0 -0.296455
0 -0.18312 0 -0.251307 0 -0.296488
0 -0.182838 0 -0.251384 0 -0.296529
0 -0.182518 0 -0.251493 0 -0.296601
0 -0.182193 0 -0.251621 0 -0.296722
0 -0.181881 0 -0.251745 0 -0.29679
0 -0.181563 0 -0.251836 0 -0.296896
0 -0.181202 0 -0.251898 0 -0.296997
0 -0.18078 0 -0.251929 0 -0.297124
0 -0.180313 0 -0.251954 0 -0.297286
0 -0.179836 0 -0.251994 0 -0.297489
0 -0.179363 0 -0.252051 0 -0.297724
0 -0.178873 0 -0.252107 0 -0.297971
0 -0.178333 0 -0.252139 0 -0.298205
0 -0.177742 0 -0.252138 0 -0.298416
0 -0.177127 0 -0.252128 0 -0.298615
0 -0.176524 0 -0.252123 0 -0.298811
0 -0.175935 0 -0.252124 0 -0.298996
0 -0.17536 0 -0.252118 0 -0.299195
0 -0.174802 0 -0.252111 0 -0.299395
0 -0.17424 0 -0.252107 0 -0.299568
0 -0.173672 0 -0.252097 0 -0.299712
0 -0.17311 0 -0.252052 0 -0.299831
0 -0.172562 0 -0.251959 0 -0.299928
0 -0.172033 0 -0.251822 0 -0.300009
0 -0.171525 0 -0.251645 0 -0.300081
0 -0.171033 0 -0.251444 0 -0.30014
0 -0.170556 0 -0.251235 0 -0.300173
0 -0.170098 0 -0.251019 0 -0.300176
0 -0.169666 0 -0.250789 0 -0.300169
0 -0.169263 0 -0.250527 0 -0.300151
0 -0.168889 0 -0.250219 0 -0.30012
0 -0.168541 0 -0.249859 0 -0.300046
0 -0.168215 0 -0.249464 0 -0.29977
0 -0.167908 0 -0.249072 0 -0.299287
0 -0.167621 0 -0.248687 0 -0.298653
0 -0.16736 0 -0.248308 0 -0.2979
