-0.0587684 -2.95757e-05 -0.138168 -4.34455e-05 -0.0433441 -7.78118e-06
-0.0582914 -2.93357e-05 -0.138262 -4.34753e-05 -0.0433131 -7.77562e-06
-0.0571559 -2.87642e-05 -0.138502 -4.35506e-05 -0.043193 -7.75406e-06
-0.0548008 -2.7579e-05 -0.138869 -4.36661e-05 -0.0430419 -7.72694e-06
-0.0521095 -2.62245e-05 -0.139228 -4.37789e-05 -0.0429356 -7.70786e-06
-0.0486266 -2.44718e-05 -0.139604 -4.38971e-05 -0.042909 -7.70309e-06
-0.0442785 -2.22836e-05 -0.139937 -4.40018e-05 -0.043002 -7.71978e-06
-0.0389868 -1.96204e-05 -0.140148 -4.40681e-05 -0.043277 -7.76914e-06
-0.0326659 -1.64394e-05 -0.140164 -4.40734e-05 -0.0437991 -7.86287e-06
-0.0252225 -1.26934e-05 -0.139916 -4.39954e-05 -0.0446312 -8.01225e-06
-0.0165703 -8.33916e-06 -0.139316 -4.38066e-05 -0.045827 -8.22692e-06
-0.00669146 -3.36753e-06 -0.13826 -4.34747e-05 -0.0474284 -8.51441e-06
0.00434395 2.18613e-06 -0.136669 -4.29743e-05 -0.0494445 -8.87633e-06
0.0167375 8.42328e-06 -0.134353 -4.22462e-05 -0.051957 -9.32739e-06
0.0301309 1.51637e-05 -0.131197 -4.12538e-05 -0.0549538 -9.86538e-06
0.044269 2.22788e-05 -0.127052 -3.99503e-05 -0.0584265 -1.04888e-05
0.058816 2.95997e-05 -0.121767 -3.82884e-05 -0.062319 -1.11876e-05
0.073365 3.69216e-05 -0.115223 -3.62307e-05 -0.0665256 -1.19428e-05
0.0874929 4.40315e-05 -0.107341 -3.37523e-05 -0.070877 -1.27239e-05
0.100784 5.07205e-05 -0.0980929 -3.08444e-05 -0.0751587 -1.34926e-05
0.112811 5.67729e-05 -0.087499 -2.75133e-05 -0.0790504 -1.41912e-05
0.123089 6.19458e-05 -0.075627 -2.37802e-05 -0.0821643 -1.47502e-05
0.131056 6.59551e-05 -0.0626652 -1.97045e-05 -0.0840724 -1.50928e-05
0.136034 6.84602e-05 -0.0489013 -1.53766e-05 -0.0843261 -1.51383e-05
0.13722 6.90569e-05 -0.0345918 -1.08771e-05 -0.0825254 -1.48151e-05
0.133812 6.73422e-05 -0.0197389 -6.20673e-06 -0.0780014 -1.40029e-05
0.125096 6.29554e-05 -0.00470911 -1.48074e-06 -0.070259 -1.2613e-05
0.110759 5.57406e-05 0.0099554 3.13039e-06 -0.0586287 -1.05251e-05
0.0910399 4.58166e-05 0.0236076 7.42319e-06 -0.0425089 -7.63125e-06
0.0667105 3.35727e-05 0.0354909 1.11598e-05 -0.0214555 -3.85172e-06
0.0391026 1.96787e-05 0.044828 1.40958e-05 0.00511403 9.18078e-07
0.00849734 4.27636e-06 0.0507467 1.59569e-05 0.0377265 6.77271e-06
-0.0236494 -1.19018e-05 0.052836 1.66138e-05 0.0761926 1.36782e-05
-0.0566708 -2.852e-05 0.0505324 1.58895e-05 0.120269 2.15908e-05
-0.0899923 -4.52894e-05 0.0435966 1.37085e-05 0.169403 3.04114e-05
-0.12332 -6.20618e-05 0.0320029 1.0063e-05 0.222681 3.9976e-05
-0.15634 -7.86793e-05 0.0158849 4.99488e-06 0.278899 5.00683e-05
-0.188852 -9.50412e-05 -0.0044214 -1.39027e-06 0.336442 6.03984e-05
-0.220812 -0.000111126 -0.0285958 -8.99168e-06 0.393581 7.06562e-05
-0.252156 -0.0001269 -0.0571193 -1.79607e-05 0.448172 8.04564e-05
-0.282628 -0.000142235 -0.088052 -2.76872e-05 0.498635 8.95156e-05
-0.311937 -0.000156985 -0.12088 -3.80096e-05 0.542799 9.74439e-05
-0.339664 -0.000170939 -0.154885 -4.87022e-05 0.578755 0.000103899
-0.365144 -0.000183762 -0.189377 -5.95479e-05 0.604688 0.000108554
-0.387616 -0.000195071 -0.223629 -7.03182e-05 0.618995 0.000111123
-0.406524 -0.000204587 -0.257103 -8.08436e-05 0.620187 0.000111337
-0.421638 -0.000212193 -0.289162 -9.09244e-05 0.607111 0.000108989
-0.43329 -0.000218057 -0.318881 -0.000100269 0.57886 0.000103918
-0.442373 -0.000222628 -0.345524 -0.000108647 0.534826 9.60126e-05
-0.45027 -0.000226602 -0.368551 -0.000115887 0.474732 8.52245e-05
-0.46127 -0.000232138 -0.391535 -0.000123115 0.377357 6.77436e-05
-0.47746 -0.000240286 -0.407421 -0.00012811 0.256747 4.60916e-05
-0.503001 -0.000253139 -0.416199 -0.00013087 0.115726 2.07753e-05
-0.541199 -0.000272363 -0.418959 -0.000131738 -0.042219 -7.57921e-06
-0.594009 -0.00029894 -0.417872 -0.000131396 -0.212904 -3.82209e-05
-0.661767 -0.00033304 -0.415831 -0.000130754 -0.388292 -6.97067e-05
-0.742949 -0.000373895 -0.416447 -0.000130948 -0.560836 -0.000100682
-0.834309 -0.000419873 -0.424034 -0.000133334 -0.722847 -0.000129766
-0.931851 -0.000468962 -0.442778 -0.000139228 -0.868043 -0.000155832
-1.03209 -0.000519408 -0.476107 -0.000149708 -0.991339 -0.000177966
-1.13285 -0.000570118 -0.526302 -0.000165491 -1.08928 -0.000195548
-1.23316 -0.000620597 -0.594461 -0.000186923 -1.16032 -0.000208301
-1.33274 -0.000670711 -0.680403 -0.000213947 -1.20538 -0.000216391
-1.43163 -0.000720478 -0.782715 -0.000246118 -1.22763 -0.000220386
-1.5297 -0.000769836 -0.899031 -0.000282692 -1.23194 -0.000221159
-1.62615 -0.000818375 -1.02634 -0.000322722 -1.22447 -0.000219818
-1.71952 -0.000865361 -1.16107 -0.000365087 -1.21245 -0.00021766
-1.80841 -0.000910098 -1.29916 -0.00040851 -1.20392 -0.000216129
-1.89217 -0.00095225 -1.43623 -0.00045161 -1.20709 -0.000216698
-1.97087 -0.000991858 -1.56785 -0.000492996 -1.22978 -0.000220771
-2.04485 -0.00102909 -1.6899 -0.000531373 -1.27877 -0.000229567
-2.11396 -0.00106387 -1.79895 -0.000565665 -1.3594 -0.000244041
-2.17709 -0.00109564 -1.89261 -0.000595115 -1.47502 -0.000264798
-2.23281 -0.00112368 -1.96946 -0.000619278 -1.62685 -0.000292054
-2.28005 -0.00114746 -2.02894 -0.000637982 -1.81388 -0.000325631
-2.31831 -0.00116671 -2.07139 -0.000651329 -2.03307 -0.000364979
-2.34768 -0.00118149 -2.09787 -0.000659657 -2.2794 -0.000409201
-2.36883 -0.00119213 -2.11014 -0.000663514 -2.54617 -0.000457092
-2.38297 -0.00119925 -2.11047 -0.000663617 -2.82527 -0.000507196
-2.39171 -0.00120365 -2.10156 -0.000660815 -3.1076 -0.000557881
-2.39679 -0.00120621 -2.0864 -0.00065605 -3.38353 -0.000607415
-2.40003 -0.00120783 -2.0681 -0.000650295 -3.64332 -0.000654053
-2.40332 -0.00120949 -2.04963 -0.000644489 -3.87766 -0.000696123
-2.40886 -0.00121228 -2.03371 -0.000639481 -4.07814 -0.000732113
-2.41901 -0.00121739 -2.02258 -0.000635982 -4.23763 -0.000760745
-2.43585 -0.00122586 -2.01805 -0.000634558 -4.35058 -0.000781021
-2.46041 -0.00123822 -2.02154 -0.000635656 -4.41315 -0.000792255
-2.49192 -0.00125408 -2.03415 -0.000639619 -4.42339 -0.000794093
-2.52787 -0.00127217 -2.05652 -0.000646655 -4.38132 -0.000786541
-2.56464 -0.00129068 -2.08866 -0.000656761 -4.28914 -0.000769991
-2.59198 -0.00130444 -2.12087 -0.000666887 -4.1822 -0.000750793
-2.62033 -0.00131871 -2.16781 -0.000681647 -4.01237 -0.000720305
-2.6391 -0.00132815 -2.21971 -0.000697966 -3.80998 -0.000683972
-2.64556 -0.0013314 -2.27307 -0.000714745 -3.58468 -0.000643526
-2.63729 -0.00132724 -2.3238 -0.000730698 -3.34714 -0.000600883
-2.61185 -0.00131444 -2.3675 -0.00074444 -3.1084 -0.000558024
-2.56696 -0.00129184 -2.39965 -0.000754549 -2.8793 -0.000516896
-2.50055 -0.00125842 -2.41589 -0.000759654 -2.66987 -0.000479299
-2.41081 -0.00121326 -2.41227 -0.000758516 -2.48876 -0.000446785
-2.29632 -0.00115564 -2.38542 -0.000750074 -2.34273 -0.00042057
-2.15629 -0.00108517 -2.3327 -0.000733496 -2.23628 -0.00040146
-1.99045 -0.00100171 -2.25235 -0.000708232 -2.17134 -0.000389802
-1.79933 -0.000905527 -2.14356 -0.000674023 -2.14715 -0.000385459
-1.58476 -0.000797546 -2.00634 -0.000630874 -2.16026 -0.000387813
-1.35045 -0.000679627 -1.84146 -0.000579029 -2.20473 -0.000395796
-1.10163 -0.000554405 -1.65054 -0.000518998 -2.27224 -0.000407916
-0.843869 -0.000424685 -1.43628 -0.000451625 -2.3523 -0.000422287
-0.582482 -0.000293139 -1.20236 -0.00037807 -2.43254 -0.000436693
-0.32265 -0.000162376 -0.953289 -0.000299753 -2.49943 -0.000448701
-0.0693751 -3.49136e-05 -0.694243 -0.000218298 -2.53883 -0.000455774
0.17072 8.59165e-05 -0.431497 -0.00013568 -2.53638 -0.000455335
0.396209 0.000199396 -0.172761 -5.43232e-05 -2.47965 -0.00044515
0.603243 0.000303587 0.0711275 2.23654e-05 -2.3594 -0.000423563
0.790629 0.000397891 0.304442 9.57292e-05 -2.16266 -0.000388243
0.95899 0.00048262 0.521865 0.000164096 -1.88374 -0.000338172
1.10915 0.000558187 0.71825 0.000225847 -1.51967 -0.000272813
1.24135 0.00062472 0.891378 0.000280286 -1.07147 -0.000192351
1.35521 0.000682019 1.04144 0.000327472 -0.543314 -9.75364e-05
1.45004 0.000729747 1.16888 0.000367543 0.0501371 9.00067e-06
1.52641 0.000768179 1.27443 0.000400734 0.697948 0.000125297
1.58679 0.000798563 1.36095 0.000427937 1.38579 0.000248779
1.63557 0.000823117 1.43207 0.000450302 2.10143 0.000377251
1.67813 0.000844532 1.49085 0.000468783 2.82652 0.00050742
1.71978 0.000865493 1.54092 0.000484528 3.53982 0.000635473
1.76589 0.000888699 1.58658 0.000498885 4.22226 0.000757986
1.82187 0.000916871 1.63219 0.000513228 4.85589 0.000871736
1.89299 0.000952664 1.68154 0.000528745 5.424 0.000973723
1.9839 0.000998417 1.73807 0.000546521 5.91121 0.00106119
2.09884 0.00105626 1.80041 0.000566124 6.02662 0.00108191
2.24152 0.00112807 1.84881 0.000581341 6.06352 0.00108853
2.40288 0.00120927 1.93637 0.000608873 6.11294 0.0010974
2.5854 0.00130113 2.04252 0.000642253 6.12095 0.00109884
2.77961 0.00139886 2.18035 0.000685592 6.05672 0.00108731
2.98279 0.00150112 2.32875 0.000732256 5.93222 0.00106496
3.188 0.00160439 2.49134 0.00078338 5.76145 0.0010343
3.39047 0.00170629 2.66595 0.000838285 5.51879 0.000990741
3.55049 0.00178681 2.84863 0.000895725 5.19165 0.000932011
3.72314 0.0018737 3.03267 0.000953596 4.82724 0.000866592
3.80041 0.00191259 3.19616 0.00100501 4.47327 0.000803047
3.83505 0.00193002 3.31945 0.00104377 4.15659 0.000746197
3.882 0.00195365 3.4548 0.00108633 3.80658 0.000683363
3.93112 0.00197837 3.553 0.00111721 3.49911 0.000628165
3.95581 0.0019908 3.62598 0.00114016 3.24248 0.000582094
3.97539 0.00200065 3.67028 0.00115409 3.05398 0.000548255
3.99099 0.0020085 3.68562 0.00115891 2.91787 0.000523819
3.99063 0.00200832 3.66359 0.00115198 2.84449 0.000510646
3.97935 0.00200264 3.61144 0.00113559 2.84074 0.000509974
3.95649 0.00199114 3.53219 0.00111067 2.90431 0.000521386
3.91272 0.00196911 3.42199 0.00107601 3.02446 0.000542955
3.85419 0.00193966 3.28842 0.00103401 3.18623 0.000571996
3.78776 0.00190622 3.1366 0.000986276 3.38154 0.000607058
3.71938 0.00187181 2.97219 0.000934578 3.59757 0.00064584
3.65709 0.00184046 2.80184 0.000881012 3.81516 0.000684903
3.5378 0.00178043 2.64953 0.00083312 4.00968 0.000719823
3.3902 0.00170615 2.53177 0.000796092 4.1448 0.000744081
3.24598 0.00163357 2.39494 0.000753068 4.27472 0.000767403
3.13729 0.00157887 2.28869 0.00071966 4.33025 0.000777372
3.05917 0.00153955 2.20133 0.000692189 4.33073 0.000777458
3.0064 0.001513 2.12701 0.00066882 4.26895 0.000766367
2.98743 0.00150345 2.07568 0.000652678 4.14213 0.0007436
3.00349 0.00151153 2.04955 0.000644463 3.95029 0.000709162
3.04938 0.00153463 2.04423 0.00064279 3.69675 0.000663645
3.11723 0.00156878 2.06113 0.000648103 3.38908 0.000608412
3.19419 0.00160751 2.10321 0.000661335 3.0361 0.000545045
3.27462 0.00164798 2.16598 0.000681074 2.65129 0.000475964
3.35433 0.0016881 2.24601 0.000706237 2.2473 0.000403438
3.42724 0.00172479 2.33862 0.000735357 1.8417 0.000330624
3.48679 0.00175476 2.43873 0.000766836 1.45314 0.000260869
3.52834 0.00177567 2.54048 0.000798831 1.09902 0.000197297
3.54812 0.00178562 2.63727 0.000829265 0.795725 0.000142849
3.54639 0.00178475 2.70684 0.000851143 0.60029 0.000107765
3.5282 0.0017756 2.76623 0.000869817 0.454625 8.16148e-05
3.49308 0.00175792 2.81268 0.000884423 0.364427 6.54223e-05
3.44072 0.00173157 2.84378 0.000894201 0.333619 5.98917e-05
3.37118 0.00169657 2.85765 0.000898564 0.364365 6.54113e-05
3.28486 0.00165313 2.8531 0.000897133 0.45716 8.207e-05
3.18233 0.00160154 2.82956 0.000889728 0.610776 0.000109647
3.06416 0.00154207 2.78707 0.000876369 0.822075 0.00014758
2.93082 0.00147496 2.72639 0.000857289 1.08596 0.000194952
2.78267 0.0014004 2.64892 0.000832929 1.39555 0.000250531
2.61999 0.00131853 2.55664 0.000803911 1.74254 0.000312824
2.44328 0.0012296 2.45189 0.000770976 2.11751 0.000380138
2.25362 0.00113415 2.33721 0.000734916 2.51021 0.000450636
2.05288 0.00103313 2.21516 0.000696536 2.90986 0.000522381
1.84374 0.000927879 2.08821 0.00065662 3.30543 0.000593395
1.62953 0.000820073 1.95875 0.00061591 3.68597 0.000661711
1.41373 0.000711473 1.82898 0.000575105 4.04088 0.000725424
1.19958 0.000603698 1.70099 0.000534862 4.36011 0.000782733
0.989767 0.000498109 1.57672 0.000495785 4.6344 0.000831974
0.78652 0.000395823 1.45784 0.000458403 4.85549 0.000871664
0.591707 0.000297782 1.34572 0.000423148 5.01636 0.000900544
0.406895 0.000204773 1.24135 0.000390331 5.11143 0.000917611
0.233298 0.000117409 1.14532 0.000360137 5.1367 0.000922146
0.0716569 3.60619e-05 1.05782 0.000332623 5.08978 0.000913725
-0.0777143 -3.91104e-05 0.978618 0.000307717 4.96999 0.000892219
-0.189869 -9.55532e-05 0.911196 0.000286517 4.77573 0.000857344
-0.300866 -0.000151413 0.850493 0.00026743 4.50945 0.000809543
-0.400793 -0.000201703 0.790716 0.000248634 4.18455 0.000751216
-0.471413 -0.000237243 0.734228 0.000230871 3.79647 0.000681547
-0.525933 -0.00026468 0.670411 0.000210805 3.36671 0.000604397
-0.577934 -0.00029085 0.615278 0.000193469 2.88288 0.000517538
-0.624203 -0.000314135 0.551612 0.000173449 2.36797 0.000425101
-0.666021 -0.000335181 0.485919 0.000152793 1.82102 0.000326912
-0.706541 -0.000355573 0.413932 0.000130157 1.2561 0.000225497
-0.747216 -0.000376043 0.335482 0.000105489 0.680003 0.000122075
-0.788825 -0.000396983 0.248352 7.8092e-05 0.101395 1.82025e-05
-0.832968 -0.000419199 0.151553 4.76546e-05 -0.405423 -7.27821e-05
-0.882167 -0.000443958 0.0485845 1.5277e-05 -0.915026 -0.000164267
-0.93616 -0.00047113 -0.0693864 -2.18179e-05 -1.40737 -0.000252652
-0.997776 -0.000502139 -0.199189 -6.26331e-05 -1.87709 -0.000336978
-1.06753 -0.000537241 -0.343294 -0.000107946 -2.30859 -0.000414441
-1.14739 -0.000577433 -0.499984 -0.000157215 -2.70707 -0.000485976
-1.2379 -0.000622983 -0.66739 -0.000209855 -3.07701 -0.000552389
-1.33955 -0.00067414 -0.843442 -0.000265213 -3.41866 -0.000613722
-1.45258 -0.000731021 -1.02721 -0.000322997 -3.7266 -0.000669004
-1.5766 -0.000793435 -1.218 -0.000382988 -3.9961 -0.000717384
-1.71063 -0.000860889 -1.41415 -0.000444668 -4.22808 -0.00075903
-1.85333 -0.000932703 -1.61342 -0.000507325 -4.42755 -0.00079484
-2.00315 -0.0010081 -1.81361 -0.000570274 -4.5992 -0.000825654
-2.15838 -0.00108623 -2.01302 -0.000632977 -4.74474 -0.000851782
-2.31724 -0.00116617 -2.21 -0.000694916 -4.86451 -0.000873283
-2.47802 -0.00124708 -2.40259 -0.000755473 -4.96043 -0.000890502
-2.63911 -0.00132815 -2.5886 -0.000813963 -5.037 -0.000904248
-2.79889 -0.00140856 -2.76604 -0.000869755 -5.09956 -0.000915479
-2.95566 -0.00148746 -2.93328 -0.000922343 -5.15211 -0.000924914
-3.10766 -0.00156396 -3.08898 -0.000971302 -5.19693 -0.00093296
-3.25305 -0.00163713 -3.23195 -0.00101626 -5.23586 -0.000939949
-3.39 -0.00170605 -3.36115 -0.00105688 -5.27148 -0.000946344
-3.51679 -0.00176985 -3.47583 -0.00109294 -5.3069 -0.000952701
-3.63188 -0.00182778 -3.57549 -0.00112428 -5.34462 -0.000959472
-3.73394 -0.00187914 -3.65993 -0.00115083 -5.38585 -0.000966874
-3.75174 -0.00188809 -3.71938 -0.00116953 -5.43476 -0.000975656
-3.74853 -0.00188648 -3.72103 -0.00117005 -5.51488 -0.000990039
-3.75338 -0.00188892 -3.76471 -0.00118378 -5.56922 -0.000999793
-3.75979 -0.00189215 -3.784 -0.00118984 -5.61953 -0.00100883
-3.75312 -0.00188879 -3.77402 -0.00118671 -5.69097 -0.00102165
-3.74177 -0.00188308 -3.77217 -0.00118612 -5.7429 -0.00103097
-3.73829 -0.00188133 -3.75882 -0.00118193 -5.7949 -0.00104031
-3.72821 -0.00187625 -3.73831 -0.00117548 -5.83808 -0.00104806
-3.70271 -0.00186342 -3.70243 -0.00116419 -5.87541 -0.00105476
-3.66758 -0.00184574 -3.65461 -0.00114916 -5.90992 -0.00106096
-3.62737 -0.00182551 -3.60079 -0.00113224 -5.93314 -0.00106513
-3.57856 -0.00180094 -3.53791 -0.00111246 -5.94642 -0.00106751
-3.52261 -0.00177278 -3.46635 -0.00108996 -5.944 -0.00106707
-3.46456 -0.00174357 -3.3872 -0.00106507 -5.92365 -0.00106342
-3.40596 -0.00171408 -3.30228 -0.00103837 -5.88423 -0.00105634
-3.34701 -0.00168441 -3.21279 -0.00101023 -5.82438 -0.0010456
-3.28979 -0.00165562 -3.1197 -0.000980963 -5.74102 -0.00103064
-3.23642 -0.00162876 -3.024 -0.000950869 -5.63131 -0.00101094
-3.18743 -0.0016041 -2.92674 -0.000920286 -5.49435 -0.000986353
-3.14305 -0.00158177 -2.82943 -0.000889689 -5.33025 -0.000956893
-3.104 -0.00156212 -2.73355 -0.000859541 -5.13899 -0.000922557
-3.07078 -0.00154539 -2.64008 -0.000830148 -4.9203 -0.000883298
-3.04339 -0.00153161 -2.54971 -0.000801732 -4.67444 -0.000839161
-3.0218 -0.00152075 -2.46329 -0.000774559 -4.40272 -0.000790382
-3.00546 -0.00151252 -2.3818 -0.000748936 -4.10745 -0.000737375
-2.99347 -0.00150649 -2.30602 -0.000725107 -3.7914 -0.000680636
-2.98528 -0.00150237 -2.23596 -0.000703078 -3.45782 -0.000620752
-2.98029 -0.00149986 -2.17172 -0.000682878 -3.11021 -0.000558348
-2.97807 -0.00149874 -2.11322 -0.000664483 -2.7527 -0.000494168
-2.97834 -0.00149888 -2.06016 -0.0006478 -2.3901 -0.000429073
-2.98093 -0.00150018 -2.01199 -0.000632654 -2.02757 -0.000363991
-2.98565 -0.00150255 -1.96802 -0.000618826 -1.67034 -0.000299862
-2.99205 -0.00150577 -1.92759 -0.000606115 -1.32353 -0.000237602
-2.99925 -0.0015094 -1.89019 -0.000594353 -0.992075 -0.000178099
-3.00586 -0.00151272 -1.85539 -0.000583409 -0.680742 -0.000122208
-3.0101 -0.00151486 -1.82282 -0.00057317 -0.394016 -7.07343e-05
-3.01013 -0.00151488 -1.79219 -0.000563537 -0.136 -2.44148e-05
-3.00408 -0.00151183 -1.76383 -0.000554622 0.0616706 1.10712e-05
-2.99002 -0.00150475 -1.73881 -0.000546753 0.231399 4.15411e-05
-2.96678 -0.00149306 -1.71363 -0.000538837 0.368258 6.61101e-05
-2.93213 -0.00147562 -1.68992 -0.00053138 0.470326 8.44336e-05
-2.88468 -0.00145174 -1.66609 -0.000523888 0.533565 9.57862e-05
-2.82267 -0.00142053 -1.64308 -0.000516653 0.560122 0.000100554
-2.74472 -0.00138131 -1.62068 -0.000509609 0.549496 9.86463e-05
-2.6498 -0.00133354 -1.5988 -0.00050273 0.500415 8.98351e-05
-2.53768 -0.00127711 -1.5767 -0.00049578 0.412311 7.40186e-05
-2.40894 -0.00121232 -1.55367 -0.000488538 0.285552 5.12626e-05
-2.26461 -0.00113969 -1.52908 -0.000480807 0.121965 2.18954e-05
-2.10606 -0.00105989 -1.50227 -0.000472375 -0.0768867 -1.38028e-05
-1.93486 -0.000973735 -1.47214 -0.000462903 -0.302084 -5.42305e-05
-1.75273 -0.000882075 -1.438 -0.000452166 -0.554075 -9.94683e-05
-1.56151 -0.000785844 -1.39921 -0.000439969 -0.828778 -0.000148783
-1.36334 -0.000686112 -1.35521 -0.000426133 -1.12056 -0.000201165
-1.16051 -0.000584038 -1.30569 -0.000410562 -1.42383 -0.000255607
-0.955574 -0.000480901 -1.25022 -0.000393121 -1.73317 -0.000311142
-0.75104 -0.000377967 -1.18865 -0.000373759 -2.04292 -0.000366748
-0.549141 -0.00027636 -1.12108 -0.000352514 -2.34694 -0.000421325
-0.351668 -0.00017698 -1.04798 -0.000329529 -2.63853 -0.000473673
-0.160104 -8.05736e-05 -0.969979 -0.000305001 -2.91092 -0.000522572
0.0106771 5.37337e-06 -0.88763 -0.000279107 -3.15731 -0.000566805
0.155451 7.82321e-05 -0.812964 -0.000255629 -3.36594 -0.000604258
0.282683 0.000142263 -0.726287 -0.000228374 -3.53759 -0.000635073
0.405745 0.000204195 -0.642259 -0.000201952 -3.67387 -0.000659538
0.515623 0.000259492 -0.559352 -0.000175883 -3.75609 -0.000674299
0.622839 0.000313449 -0.474353 -0.000149156 -3.7958 -0.000681427
0.722472 0.00036359 -0.390957 -0.000122933 -3.77967 -0.000678532
0.810866 0.000408075 -0.309596 -9.73497e-05 -3.71046 -0.000666106
0.890729 0.000448267 -0.23035 -7.24313e-05 -3.58589 -0.000643744
0.964027 0.000485155 -0.153355 -4.8221e-05 -3.40798 -0.000611806
1.02959 0.000518151 -0.0781496 -2.45734e-05 -3.17702 -0.000570342
1.08724 0.000547161 -0.00391639 -1.23147e-06 -2.89485 -0.000519687
1.13887 0.000573145 0.0693372 2.18025e-05 -2.5655 -0.000460562
1.18573 0.000596729 0.141924 4.46267e-05 -2.19359 -0.000393797
1.2282 0.000618102 0.214524 6.74551e-05 -1.78397 -0.00032026
1.26732 0.000637789 0.288212 9.06257e-05 -1.34211 -0.000240938
1.30482 0.000656662 0.363972 0.000114448 -0.874394 -0.000156972
1.34218 0.000675465 0.442408 0.000139111 -0.387584 -6.95796e-05
1.38073 0.000694867 0.524033 0.000164777 0.0681675 1.22375e-05
1.42257 0.000715921 0.605192 0.000190297 0.520894 9.35115e-05
1.4687 0.000739137 0.692132 0.000217635 0.964183 0.000173091
1.52036 0.000765135 0.785359 0.000246949 1.40527 0.000252275
1.57904 0.000794665 0.885741 0.000278513 1.82878 0.000328306
1.64498 0.000827852 0.994196 0.000312616 2.23165 0.000400629
1.71888 0.000865043 1.10991 0.000349002 2.61513 0.000469471
1.80054 0.000906137 1.23394 0.000388001 2.97787 0.000534591
1.88975 0.000951031 1.3667 0.000429748 3.31527 0.000595162
1.98596 0.000999449 1.50841 0.000474306 3.62125 0.000650092
2.08853 0.00105107 1.6584 0.000521469 3.89305 0.000698886
2.19667 0.0011055 1.81575 0.000570947 4.13194 0.000741772
2.30948 0.00116227 1.97949 0.000622432 4.3405 0.000779212
2.42591 0.00122086 2.14841 0.000675549 4.52005 0.000811445
8.93253 0.199994 2.04643 0.000643481 4.77177 0.000856635
8.93253 0.436609 1.58646 0.000498849 5.40707 0.000970685
8.93253 0.526435 2.14811 0.000675454 5.08387 0.000912662
-1.0271 0.507954 2.10883 0.000663104 5.3166 0.000954443
-3.24656 0.472081 2.34708 0.000738018 5.20883 0.000935096
5.01808 0.504801 2.51196 0.000789863 5.15541 0.000925505
8.93253 0.561276 2.6733 0.000840594 5.10904 0.000917181
8.93253 0.586531 2.83347 0.000890958 4.98789 0.000895433
3.85459 0.583976 2.99836 0.000942807 4.85007 0.000870691
8.93253 0.591234 3.12589 0.000982907 4.70417 0.000844499
8.93253 0.628469 3.23272 0.0010165 4.58111 0.000822407
8.93253 0.669212 3.2823 0.00103209 4.5103 0.000809694
8.93253 0.684679 3.40114 0.00106946 4.36688 0.000783948
8.93253 0.688597 3.45935 0.00108776 4.25384 0.000763655
8.93253 0.69923 3.48958 0.00109727 4.16828 0.000748295
8.93253 0.719788 3.49733 0.0010997 4.11093 0.000737999
8.93253 0.737845 3.49022 0.00109747 4.07994 0.000732436
8.93253 0.745007 3.47242 0.00109187 4.04939 0.000726952
8.93253 0.746972 3.42669 0.00107749 4.03624 0.000724592
8.93253 0.751861 3.35776 0.00105582 4.04454 0.000726081
8.93253 0.759701 3.27456 0.00102966 4.07346 0.000731272
8.93253 0.763312 3.19 0.00100307 4.10609 0.00073713
7.43722 0.76256 3.09323 0.000972637 4.13502 0.000742323
6.28448 0.76198 2.97145 0.000934347 4.17224 0.000749005
6.00265 0.761838 2.85774 0.000898592 4.19297 0.000752728
5.44997 0.76156 2.73873 0.000861168 4.20864 0.000755541
3.93566 0.760798 2.61774 0.000823123 4.21058 0.000755889
2.64371 0.760147 2.49735 0.00078527 4.1896 0.000752123
2.01122 0.759829 2.38308 0.000749339 4.14038 0.000743286
1.48831 0.759566 2.27675 0.000715904 4.06177 0.000729175
0.921433 0.759281 2.1797 0.000685388 3.9534 0.000709719
0.779266 0.759209 2.09451 0.000658599 3.81165 0.000684273
1.32239 0.759483 2.01961 0.000635048 3.63566 0.000652679
1.97821 0.759813 1.95551 0.000614891 3.42834 0.00061546
2.87073 0.760262 1.91125 0.000600974 3.18362 0.000571527
4.26811 0.760965 1.88191 0.00059175 2.91263 0.00052288
5.99115 0.761832 1.86822 0.000587445 2.61598 0.000469624
7.6797 0.762682 1.86658 0.000586929 2.30125 0.000413124
8.93253 0.76374 1.87752 0.00059037 1.97141 0.000353909
8.93253 0.767907 1.89448 0.000595702 1.6366 0.000293805
8.93253 0.774525 1.91557 0.000602335 1.30703 0.00023464
8.93253 0.781259 1.94807 0.000612553 0.980796 0.000176074
8.93253 0.786579 1.98362 0.000623732 0.672018 0.000120641
8.93253 0.790525 2.02417 0.000636481 0.383097 6.87741e-05
8.93253 0.794392 2.0646 0.000649195 0.126635 2.27336e-05
8.93253 0.798407 2.1042 0.000661646 -0.0725249 -1.30198e-05
8.93253 0.801442 2.14228 0.000673622 -0.241683 -4.33873e-05
8.93253 0.802619 2.1757 0.00068413 -0.369974 -6.64181e-05
8.47433 0.802388 2.20372 0.00069294 -0.451032 -8.09699e-05
7.62543 0.801961 2.22175 0.000698609 -0.479869 -8.61467e-05
6.1794 0.801233 2.2331 0.000702178 -0.456538 -8.19583e-05
3.85534 0.800064 2.23555 0.000702948 -0.38108 -6.84119e-05
0.873259 0.798563 2.22899 0.000700886 -0.253327 -4.54776e-05
-0.083785 0.796085 2.217 0.000697117 -0.0765065 -1.37345e-05
-0.347493 0.789669 2.20176 0.000692322 0.139777 2.50929e-05
-0.8479 0.777494 2.1878 0.000687936 0.389905 6.99963e-05
-1.48837 0.761911 2.16799 0.000681705 0.674509 0.000121089
-2.14793 0.745864 2.14263 0.000673731 0.990187 0.00017776
-2.78682 0.73032 2.11317 0.000664469 1.32886 0.000238559
-3.4552 0.714058 2.08041 0.000654165 1.68554 0.00030259
-4.18925 0.696199 2.04609 0.000643373 2.05231 0.000368434
-4.96678 0.677282 2.01146 0.000632486 2.42198 0.000434797
-5.72459 0.658844 1.9763 0.000621428 2.78724 0.000500369
-6.44478 0.641322 1.94146 0.000610474 3.14151 0.000563967
-7.14919 0.624184 1.90977 0.000600509 3.47606 0.000624026
-7.84049 0.607364 1.88124 0.000591538 3.78541 0.000679561
-8.49048 0.59155 1.85606 0.000583621 4.06402 0.000729579
-9.06899 0.577475 1.83497 0.000576991 4.30658 0.000773123
-9.56976 0.565291 1.81824 0.000571728 4.50857 0.000809384
-10.0009 0.554802 1.80651 0.000568042 4.66605 0.000837655
-10.3602 0.54606 1.79968 0.000565892 4.77651 0.000857484
-10.6347 0.539381 1.79753 0.000565216 4.83855 0.000868622
-10.8185 0.534909 1.80024 0.000566068 4.8513 0.000870912
-10.9225 0.53238 1.80783 0.000568457 4.8135 0.000864125
-10.9625 0.531406 1.82041 0.000572413 4.72605 0.000848426
-10.7129 0.531498 1.83775 0.000577863 4.59112 0.000824204
-10.1211 0.531796 1.86121 0.000585239 4.41085 0.000791842
-9.37792 0.53217 1.88871 0.000593887 4.18995 0.000752185
-8.57302 0.532575 1.91929 0.000603502 3.93411 0.000706257
-7.80177 0.532963 1.95194 0.000613769 3.64856 0.000654994
-7.27674 0.533227 1.98443 0.000623985 3.34094 0.00059977
-7.17143 0.53328 2.01465 0.000633487 3.01839 0.000541866
-7.33522 0.533198 2.03914 0.00064119 2.689 0.000482733
-6.98443 0.533375 2.04491 0.000643004 2.36718 0.000424959
-7.8923 0.532918 2.05267 0.000645442 2.04718 0.000367513
-9.34168 0.532188 2.04377 0.000642645 1.74263 0.000312839
-10.9898 0.530742 2.02358 0.000636297 1.45945 0.000262002
-11.2542 0.524309 1.9968 0.000627877 1.19689 0.000214867
-11.743 0.512417 1.96505 0.000617892 0.956805 0.000171767
-12.3649 0.497285 1.91358 0.000601708 0.754413 0.000135433
-13.0494 0.480632 1.85106 0.00058205 0.583448 0.000104741
-13.7922 0.46256 1.77101 0.000556877 0.451251 8.10091e-05
-14.6671 0.441274 1.67816 0.000527681 0.355003 6.37307e-05
-15.6925 0.416326 1.57356 0.000494791 0.292443 5.24997e-05
-16.796 0.389477 1.45129 0.000456345 0.26581 4.77186e-05
-17.9382 0.361687 1.31476 0.000413414 0.271043 4.8658e-05
-19.1326 0.332627 1.16627 0.000366722 0.301684 5.41587e-05
-20.4007 0.301774 1.00694 0.000316623 0.353977 6.35463e-05
-21.7277 0.269489 0.839154 0.000263864 0.42097 7.55731e-05
-23.0702 0.236825 0.663968 0.000208779 0.497433 8.92999e-05
-24.3895 0.204728 0.483984 0.000152184 0.575972 0.000103399
-25.6545 0.17395 0.298526 9.38687e-05 0.650376 0.000116756
-26.9331 0.142841 0.115637 3.6361e-05 0.711381 0.000127708
-28.1987 0.11205 -0.0657605 -2.06778e-05 0.750629 0.000134754
-29.4121 0.0825278 -0.243279 -7.64968e-05 0.761911 0.000136779
-30.5348 0.0552114 -0.417752 -0.000131358 0.748522 0.000134376
-31.583 0.0297095 -0.58008 -0.000182401 0.696593 0.000125053
-32.5433 0.0063463 -0.732249 -0.000230249 0.606042 0.000108797
-32.7815 0.000549875 -0.891273 -0.000280253 0.482376 8.65967e-05
-32.7885 0.000380692 -1.05644 -0.000332187 0.341542 6.1314e-05
-32.7944 0.000236557 -1.1618 -0.000365319 0.106125 1.90517e-05
-32.8004 9.12838e-05 -1.28469 -0.000403959 -0.117686 -2.11271e-05
-32.8039 5.99864e-06 -1.36665 -0.000429731 -0.399658 -7.17472e-05
-32.8057 -3.8206e-05 -1.42323 -0.000447522 -0.716485 -0.000128624
-32.8075 -8.10546e-05 -1.46161 -0.000459591 -1.0702 -0.000192124
-32.8086 -0.000107871 -1.49173 -0.000469061 -1.44385 -0.000259202
-32.8093 -0.000125575 -1.49905 -0.000471363 -1.83848 -0.000330046
-32.8095 -0.000131594 -1.48896 -0.00046819 -2.2538 -0.000404606
-32.8099 -0.000140801 -1.46857 -0.000461778 -2.67422 -0.00048008
-32.8104 -0.000152875 -1.43883 -0.000452426 -3.09544 -0.000555697
-32.8109 -0.000164961 -1.40147 -0.000440681 -3.50473 -0.000629173
-32.8116 -0.000180937 -1.36047 -0.000427789 -3.89327 -0.000698925
-32.8125 -0.000204852 -1.32127 -0.000415461 -4.2515 -0.000763235
-32.8138 -0.000236412 -1.28679 -0.000404621 -4.57271 -0.000820899
-32.8154 -0.000274832 -1.26 -0.000396195 -4.8496 -0.000870606
-32.8173 -0.000321197 -1.24445 -0.000391307 -5.07425 -0.000910936
-32.8196 -0.000375818 -1.24343 -0.000390985 -5.24035 -0.000940754
-32.8221 -0.000437567 -1.25931 -0.000395978 -5.34424 -0.000959405
-32.8249 -0.000505574 -1.29362 -0.000406766 -5.38429 -0.000966594
-32.8279 -0.000579582 -1.3476 -0.000423742 -5.35408 -0.000961172
-32.8312 -0.000659349 -1.42097 -0.00044681 -5.25328 -0.000943075
-32.8347 -0.000744371 -1.51325 -0.000475827 -5.08498 -0.000912862
-32.8384 -0.000834365 -1.62338 -0.000510456 -4.85522 -0.000871616
-32.8423 -0.000929111 -1.74966 -0.000550165 -4.57057 -0.000820514
-32.8464 -0.00102794 -1.88998 -0.000594288 -4.23955 -0.00076109
-32.8506 -0.00112981 -2.0417 -0.000641994 -3.87267 -0.000695226
-32.8548 -0.00123336 -2.202 -0.000692399 -3.48143 -0.000624991
-32.8591 -0.00133777 -2.36753 -0.000744447 -3.0782 -0.000552602
-32.8634 -0.00144188 -2.53514 -0.000797152 -2.67497 -0.000480215
-32.8676 -0.00154422 -2.70161 -0.000849496 -2.28382 -0.000409994
-32.8699 -0.00159998 -2.86344 -0.000900384 -1.91924 -0.000344544
-32.8708 -0.00162281 -2.9628 -0.000931626 -1.61989 -0.000290804
-32.8718 -0.00164693 -3.07693 -0.000967512 -1.36961 -0.000245874
-32.8722 -0.00165743 -3.202 -0.00100684 -1.12858 -0.000202603
-32.8725 -0.00166465 -3.27631 -0.0010302 -0.984409 -0.000176722
-32.873 -0.00167547 -3.36557 -0.00105827 -0.872358 -0.000156607
-32.8734 -0.00168594 -3.43906 -0.00108138 -0.831908 -0.000149345
-32.8736 -0.00168956 -3.49935 -0.00110034 -0.858477 -0.000154115
-32.8728 -0.00168922 -3.54792 -0.00111561 -0.945694 -0.000169772
-32.8723 -0.00168896 -3.58015 -0.00112575 -1.09887 -0.000197271
-32.8678 -0.00168669 -3.60017 -0.00113204 -1.31442 -0.000235966
-32.855 -0.00168023 -3.60675 -0.00113411 -1.5914 -0.000285691
-32.8365 -0.00167094 -3.60089 -0.00113227 -1.92282 -0.000345187
-32.8159 -0.00166058 -3.58423 -0.00112703 -2.29947 -0.000412804
-32.7898 -0.00164742 -3.55727 -0.00111855 -2.71464 -0.000487336
-32.7452 -0.00162501 -3.52089 -0.00110711 -3.16207 -0.000567658
-32.685 -0.00159467 -3.48295 -0.00109518 -3.62929 -0.000651535
-32.6235 -0.00156376 -3.43987 -0.00108163 -4.10769 -0.000737418
-32.5568 -0.00153019 -3.3977 -0.00106838 -4.58548 -0.000823191
-32.4284 -0.00146557 -3.374 -0.00106093 -5.04608 -0.000905878
-32.3218 -0.0014119 -3.34776 -0.00105267 -5.46371 -0.000980852
-32.2147 -0.00135803 -3.31744 -0.00104314 -5.83966 -0.00104834
-32.1213 -0.00131099 -3.2988 -0.00103728 -6.12989 -0.00110044
-32.0459 -0.00127306 -3.27454 -0.00102965 -6.09263 -0.00109376
-31.9884 -0.00124412 -3.24397 -0.00102004 -6.09437 -0.00109407
-31.9423 -0.00122092 -3.23663 -0.00101773 -6.11353 -0.00109751
-31.9118 -0.00120558 -3.23338 -0.00101671 -6.12973 -0.00110042
-31.8881 -0.00119365 -3.25392 -0.00102317 -6.1189 -0.00109847
-31.8734 -0.00118623 -3.28728 -0.00103365 -6.09666 -0.00109448
-31.8684 -0.00118372 -3.32982 -0.00104703 -6.08657 -0.00109267
-31.8725 -0.00118578 -3.38276 -0.00106368 -6.06502 -0.0010888
-31.8853 -0.00119226 -3.44147 -0.00108214 -6.0064 -0.00107828
-31.9054 -0.00120238 -3.50617 -0.00110248 -5.89352 -0.00105801
-31.9314 -0.00121547 -3.57311 -0.00112353 -5.73364 -0.00102931
-31.9618 -0.00123076 -3.63936 -0.00114436 -5.539 -0.000994369
-31.9945 -0.00124719 -3.70334 -0.00116448 -5.32256 -0.000955513
-32.0276 -0.00126385 -3.76301 -0.00118324 -5.09038 -0.000913831
-32.0591 -0.00127973 -3.81597 -0.0011999 -4.84349 -0.000869509
-32.0869 -0.00129368 -3.85972 -0.00121365 -4.58544 -0.000823184
-32.1088 -0.00130471 -3.89208 -0.00122383 -4.32473 -0.000776381
-32.1228 -0.00131177 -3.91155 -0.00122995 -4.0715 -0.000730921
-32.1271 -0.00131393 -3.91681 -0.00123161 -3.83262 -0.000688037
-32.1203 -0.00131049 -3.90647 -0.00122835 -3.61078 -0.000648211
-32.1009 -0.00130074 -3.87974 -0.00121995 -3.40731 -0.000611686
-32.0683 -0.00128433 -3.83612 -0.00120623 -3.22489 -0.000578937
-32.0221 -0.0012611 -3.7756 -0.0011872 -3.06711 -0.000550612
-31.9624 -0.00123104 -3.69853 -0.00116297 -2.93619 -0.000527109
-31.8897 -0.00119446 -3.60533 -0.00113366 -2.83156 -0.000508326
-31.8047 -0.00115168 -3.49716 -0.00109965 -2.75062 -0.000493796
-31.7083 -0.00110317 -3.37541 -0.00106137 -2.69036 -0.000482977
-31.6014 -0.00104938 -3.24189 -0.00101938 -2.64804 -0.000475379
-31.4847 -0.000990619 -3.09878 -0.000974383 -2.62055 -0.000470445
-31.3588 -0.000927296 -2.94821 -0.000927037 -2.60363 -0.000467407
-31.2244 -0.000859628 -2.79275 -0.000878156 -2.59186 -0.000465294
-31.0821 -0.000788004 -2.63489 -0.000828518 -2.57958 -0.00046309
-30.9326 -0.00071278 -2.47704 -0.000778882 -2.56164 -0.000459869
-30.7762 -0.000634099 -2.32163 -0.000730014 -2.5335 -0.000454818
-30.6134 -0.000552169 -2.17062 -0.000682531 -2.49095 -0.000447178
-30.4438 -0.000466787 -2.02602 -0.000637063 -2.42992 -0.000436223
-30.2661 -0.00037739 -1.88948 -0.000594129 -2.34682 -0.000421305
-30.0785 -0.000282958 -1.76225 -0.000554123 -2.23895 -0.00040194
-29.8769 -0.000181499 -1.64543 -0.000517392 -2.10477 -0.00037785
-29.6553 -6.99716e-05 -1.53943 -0.000484059 -1.94376 -0.000348947
-29.4034 5.68069e-05 -1.44436 -0.000454166 -1.75633 -0.000315299
-29.1027 0.000208144 -1.35989 -0.000427606 -1.5437 -0.000277127
-28.7142 0.000403643 -1.28513 -0.000404097 -1.30799 -0.000234811
-28.1293 0.000698022 -1.21917 -0.000383358 -1.05218 -0.000188889
-26.8734 0.00133005 -1.16092 -0.000365042 -0.779858 -0.000140001
-22.9466 0.00330623 -1.111 -0.000349345 -0.494143 -8.87092e-05
-17.5601 0.00601704 -1.06715 -0.000335555 -0.199441 -3.58039e-05
-12.7008 0.0084625 -1.02284 -0.000321622 0.0549351 9.86203e-06
-8.33466 0.0106598 -0.987614 -0.000310546 0.271687 4.87736e-05
-4.15333 0.0127641 -0.951937 -0.000299328 0.479712 8.61185e-05
-0.0269731 0.0148407 -0.913968 -0.000287389 0.687783 0.000123472
0.0285837 0.0173751 -0.874989 -0.000275132 0.880885 0.000158138
0.0669244 0.0207564 -0.833185 -0.000261988 1.05459 0.000189321
0.108915 0.0244596 -0.784034 -0.000246533 1.21146 0.000217482
0.157599 0.0287531 -0.733274 -0.000230571 1.35455 0.00024317
0.219473 0.0342098 -0.685789 -0.00021564 1.49046 0.000267568
0.303155 0.0415897 -0.634794 -0.000199605 1.60751 0.000288582
0.407379 0.0507813 -0.580835 -0.000182638 1.70218 0.000305577
0.535656 0.0620941 -0.527815 -0.000165967 1.77526 0.000318697
0.690958 0.0757902 -0.474633 -0.000149244 1.83005 0.000328533
0.873048 0.0918489 -0.420556 -0.00013224 1.8689 0.000335507
1.07492 0.109652 -0.365717 -0.000114996 1.89092 0.000339461
1.29191 0.128788 -0.308801 -9.70998e-05 1.88997 0.000339289
1.52654 0.14948 -0.252676 -7.94517e-05 1.86324 0.000334492
1.78048 0.171875 -0.196601 -6.18193e-05 1.81391 0.000325636
2.05237 0.195854 -0.140193 -4.40823e-05 1.74565 0.000313382
2.33752 0.221001 -0.0836971 -2.63178e-05 1.66043 0.000298083
2.63184 0.246957 -0.026739 -8.40783e-06 1.55773 0.000279645
2.9339 0.273596 0.0298334 9.38085e-06 1.43924 0.000258375
3.24188 0.300757 0.0878552 2.76253e-05 1.30849 0.000234902
3.55212 0.328117 0.147541 4.6393e-05 1.16974 0.000209993
3.86043 0.355308 0.208683 6.56185e-05 1.02684 0.00018434
4.16391 0.382071 0.271514 8.53753e-05 0.882425 0.000158414
4.46164 0.408329 0.335462 0.000105483 0.739556 0.000132766
4.75309 0.434032 0.399688 0.000125678 0.602024 0.000108076
5.03702 0.459071 0.463635 0.000145786 0.474201 8.51291e-05
5.31187 0.483311 0.526625 0.000165593 0.360155 6.46554e-05
5.57642 0.506641 0.588186 0.00018495 0.26305 4.72231e-05
5.82991 0.528997 0.647858 0.000203713 0.185403 3.32837e-05
6.07162 0.550313 0.705012 0.000221685 0.129797 2.33014e-05
6.30077 0.570522 0.759443 0.0002388 0.0987741 1.77321e-05
6.51548 0.589457 0.810599 0.000254886 0.09277 1.66542e-05
6.71615 0.607155 0.858049 0.000269806 0.114305 2.05201e-05
6.90348 0.623676 0.901987 0.000283622 0.161301 2.89569e-05
7.07887 0.639144 0.941592 0.000296075 0.234692 4.21322e-05
7.24309 0.653626 0.977378 0.000307328 0.333948 5.99507e-05
7.39643 0.667149 1.00966 0.00031748 0.458305 8.22755e-05
7.53052 0.678974 1.04397 0.000328268 0.602856 0.000108225
7.63965 0.688599 1.08221 0.000340291 0.761792 0.000136758
7.74077 0.697516 1.11064 0.000349229 0.945759 0.000169784
7.8375 0.706047 1.14299 0.000359402 1.14236 0.000205077
7.93703 0.714825 1.17276 0.000368764 1.35287 0.00024287
8.03641 0.723589 1.20137 0.000377759 1.57407 0.000282579
8.1323 0.732046 1.23129 0.000387167 1.7997 0.000323084
8.2298 0.740645 1.26128 0.000396599 2.00862 0.00036059
8.33588 0.75 1.29045 0.000405769 2.19293 0.000393677
8.45491 0.760497 1.32204 0.000415702 2.36708 0.000424941
8.58522 0.771989 1.35726 0.000426777 2.53818 0.000455657
8.7264 0.78444 1.3955 0.000438801 2.70099 0.000484885
8.8804 0.798021 1.43875 0.000452401 2.85335 0.000512238
8.93253 0.81359 1.48699 0.000467569 2.99388 0.000537465
8.93253 0.832163 1.538 0.000483611 3.12228 0.000560516
8.93253 0.852804 1.59593 0.000501825 3.23608 0.000580945
8.93253 0.87447 1.66185 0.000522552 3.33283 0.000598315
8.93253 0.896489 1.73625 0.000545949 3.41288 0.000612684
8.93253 0.918756 1.8208 0.000572534 3.47454 0.000623754
8.93253 0.940659 1.91748 0.000602935 3.51797 0.000631551
8.93253 0.962141 2.02363 0.000636314 3.54498 0.0006364
8.93253 0.98303 2.13757 0.000672139 3.55876 0.000638873
8.93253 1.00333 2.25855 0.000710181 3.55809 0.000638752
8.93253 1.02309 2.38349 0.000749465 3.54632 0.000636641
8.93253 1.04219 2.51051 0.000789406 3.52747 0.000633256
8.93253 1.06045 2.63701 0.000829185 3.50697 0.000629576
8.93253 1.07779 2.76073 0.000868087 3.4894 0.000626421
8.93253 1.09419 2.87941 0.000905406 3.47897 0.000624549
8.93253 1.10955 2.99077 0.000940419 3.47982 0.000624703
8.93253 1.1237 3.09308 0.000972591 3.49581 0.000627573
8.93253 1.13643 3.18468 0.00100139 3.53019 0.000633744
8.93253 1.14764 3.26436 0.00102645 3.58234 0.000643106
8.93253 1.15725 3.33063 0.00104729 3.64032 0.000653514
8.93253 1.1652 3.38188 0.0010634 3.71568 0.000667043
8.93253 1.17067 3.421 0.0010757 3.8059 0.000683239
8.93253 1.17449 3.44686 0.00108383 3.91122 0.000702147
8.93253 1.17692 3.45707 0.00108704 4.03133 0.00072371
8.89613 1.1775 3.45573 0.00108662 4.16229 0.00074722
8.29296 1.1772 3.44073 0.00108191 4.30349 0.000772568
7.37568 1.17674 3.4118 0.00107281 4.45362 0.000799519
6.07401 1.17608 3.37366 0.00106082 4.60645 0.000826956
4.32466 1.1752 3.3256 0.00104571 4.75989 0.000854501
2.17318 1.17412 3.2703 0.00102831 4.90934 0.00088133
-0.00319065 1.17291 3.20875 0.00100896 5.05122 0.000906801
-0.0587569 1.17094 3.14305 0.000988304 5.18189 0.00093026
-0.172264 1.1669 3.08239 0.000969229 5.29255 0.000950125
-0.352033 1.16052 3.02403 0.000950878 5.38316 0.000966391
-0.570949 1.15274 2.96894 0.000933556 5.45074 0.000978524
-0.786041 1.1451 2.91739 0.000917346 5.49353 0.000986206
-0.974047 1.13842 2.87021 0.000902512 5.50929 0.000989036
-1.14409 1.13238 2.82793 0.000889217 5.49031 0.000985627
-1.31121 1.12645 2.7905 0.000877446 5.43302 0.000975343
-1.47614 1.12059 2.75829 0.000867321 5.33729 0.000958158
-1.63158 1.11507 2.73148 0.000858888 5.2044 0.0009343
-1.77625 1.10993 2.70988 0.000852097 5.03544 0.000903968
-1.92033 1.10481 2.69358 0.000846971 4.83226 0.000867493
-2.07391 1.09935 2.68161 0.000843209 4.59866 0.000825557
-2.23876 1.0935 2.67293 0.000840479 4.33979 0.000779084
-2.41197 1.08735 2.66585 0.000838252 4.0612 0.000729071
-2.59422 1.08087 2.6587 0.000836004 3.76835 0.000676499
-2.79191 1.07385 2.64994 0.000833251 3.46665 0.000622337
-3.0104 1.06609 2.63798 0.000829489 3.1618 0.000567611
-3.2521 1.0575 2.62108 0.000824176 2.86009 0.000513448
-3.51925 1.04801 2.59796 0.000816906 2.56719 0.000460865
-3.81564 1.03748 2.56716 0.000807222 2.28832 0.000410801
-4.14601 1.02575 2.5278 0.000794843 2.02778 0.00036403
-4.51026 1.01281 2.47822 0.000779255 1.78954 0.00032126
-4.89576 0.999116 2.41478 0.000759305 1.57904 0.000283471
-5.33404 0.983548 2.34596 0.000737666 1.39337 0.000250139
-5.82826 0.965992 2.26674 0.000712755 1.23553 0.000221804
-6.37848 0.946447 2.17801 0.000684857 1.10771 0.000198858
-6.97115 0.925394 2.08042 0.00065417 1.0075 0.000180868
-7.59395 0.903271 1.97296 0.000620378 0.936356 0.000168096
-8.24859 0.880017 1.85811 0.000584267 0.89006 0.000159785
-8.93677 0.855571 1.73615 0.000545917 0.866704 0.000155592
-9.6837 0.829039 1.61491 0.000507794 0.859649 0.000154325
-10.4672 0.801208 1.48975 0.000468438 0.866365 0.000155531
-11.2658 0.772838 1.35992 0.000427615 0.888391 0.000159485
-12.0735 0.74415 1.23251 0.000387552 0.913569 0.000164005
-12.8868 0.715259 1.10449 0.000347296 0.942606 0.000169218
-13.7101 0.686012 0.979727 0.000308066 0.968115 0.000173797
-14.5348 0.656718 0.858407 0.000269918 0.987304 0.000177242
-15.3461 0.6279 0.7415 0.000233158 0.996793 0.000178946
-16.1355 0.599858 0.630499 0.000198255 0.992494 0.000178174
-16.9007 0.572675 0.525818 0.000165339 0.97132 0.000174373
-17.6396 0.546429 0.428118 0.000134618 0.930777 0.000167094
-18.3458 0.521343 0.337656 0.000106173 0.869522 0.000156098
-19.0178 0.497471 0.255742 8.04157e-05 0.786185 0.000141137
-19.6552 0.474832 0.18255 5.74011e-05 0.679995 0.000122074
-20.2536 0.453573 0.116231 3.65478e-05 0.551859 9.90704e-05
-20.7711 0.435191 0.0542869 1.707e-05 0.40287 7.23237e-05
-21.2732 0.417358 0.000582533 1.83172e-07 0.235207 4.22247e-05
-21.7449 0.400601 -0.0447444 -1.40695e-05 0.0475374 8.53398e-06
-22.1679 0.385576 -0.0867039 -2.72633e-05 -0.110027 -1.97523e-05
-22.565 0.371469 -0.1167 -3.66953e-05 -0.27678 -4.96879e-05
-22.9511 0.357753 -0.13929 -4.37986e-05 -0.447817 -8.03926e-05
-23.2953 0.345529 -0.165845 -5.21485e-05 -0.621493 -0.000111571
-23.6118 0.334283 -0.191503 -6.02163e-05 -0.788016 -0.000141466
-23.9302 0.322975 -0.209181 -6.5775e-05 -0.955999 -0.000171622
-24.2586 0.31131 -0.229224 -7.20773e-05 -1.11754 -0.000200623
-24.612 0.298757 -0.245768 -7.72794e-05 -1.27715 -0.000229276
-24.9849 0.28551 -0.26273 -8.2613e-05 -1.42826 -0.000256404
-25.3795 0.271492 -0.280924 -8.83341e-05 -1.56553 -0.000281045
-25.8081 0.256268 -0.30049 -9.44864e-05 -1.68748 -0.000302938
-26.2804 0.239489 -0.323092 -0.000101593 -1.79284 -0.000321853
-26.7996 0.221047 -0.349396 -0.000109864 -1.88172 -0.000337809
-27.3642 0.200992 -0.38046 -0.000119632 -1.95217 -0.000350456
-27.9751 0.179293 -0.417405 -0.000131249 -2.00178 -0.000359362
-28.6356 0.15583 -0.46097 -0.000144948 -2.02915 -0.000364275
-29.3459 0.130598 -0.512151 -0.000161041 -2.03259 -0.000364893
-30.1012 0.103768 -0.57152 -0.000179709 -2.0083 -0.000360533
-30.895 0.07557 -0.639252 -0.000201007 -1.95738 -0.000351392
-31.722 0.0461947 -0.716016 -0.000225145 -1.88152 -0.000337773
-32.5775 0.0158039 -0.80184 -0.000252131 -1.7825 -0.000319997
-32.9007 0.000463851 -0.910018 -0.000286147 -1.65568 -0.00029723
-33.017 0.000192383 -1.11313 -0.000350012 -1.45346 -0.000260927
-33.0226 -7.09477e-06 -1.22495 -0.000385176 -1.31423 -0.000235932
-33.0281 -0.00020234 -1.41075 -0.000443597 -1.12662 -0.000202252
-33.0327 -0.000364396 -1.5841 -0.000498105 -0.956587 -0.000171728
-33.036 -0.000480819 -1.74795 -0.000549628 -0.809529 -0.000145328
-33.039 -0.000586973 -1.90985 -0.000600534 -0.681978 -0.00012243
-33.0421 -0.000697895 -2.07375 -0.000652071 -0.580627 -0.000104235
-33.0449 -0.000797691 -2.23153 -0.000701684 -0.514462 -9.23568e-05
-33.0473 -0.000881797 -2.37663 -0.000747309 -0.493127 -8.85269e-05
-33.0495 -0.000960141 -2.51358 -0.000790372 -0.514564 -9.23752e-05
-33.0516 -0.0010351 -2.64222 -0.000830823 -0.581221 -0.000104341
-33.0534 -0.00110084 -2.75823 -0.0008673 -0.698117 -0.000125327
-33.055 -0.00115651 -2.86099 -0.000899614 -0.866639 -0.00015558
-33.0564 -0.0012058 -2.95266 -0.000928436 -1.08413 -0.000194624
-33.0576 -0.00124925 -3.03313 -0.000953741 -1.34795 -0.000241985
-33.0586 -0.00128504 -3.1016 -0.000975271 -1.65579 -0.00029725
-33.0594 -0.00131386 -3.15901 -0.000993323 -1.99244 -0.000357685
-33.0601 -0.00133783 -3.20437 -0.00100759 -2.28011 -0.000409328
-33.0607 -0.00135783 -3.23562 -0.00101741 -2.59847 -0.000466482
-32.9128 -0.00129138 -3.30331 -0.0010387 -2.92175 -0.000524517
-31.9297 -0.000822204 -3.20426 -0.00100755 -3.37148 -0.000605253
-32.0683 -0.000891956 -3.25193 -0.00102254 -3.81623 -0.000685094
-32.6163 -0.00116776 -3.4066 -0.00107118 -3.88603 -0.000697626
-32.629 -0.00117413 -3.35967 -0.00105642 -4.17151 -0.000748874
-32.3691 -0.00104333 -3.30479 -0.00103916 -4.50072 -0.000807976
-32.4545 -0.00108632 -3.42663 -0.00107747 -4.74642 -0.000852084
-32.6726 -0.00119612 -3.56139 -0.00111985 -4.90356 -0.000880293
-32.7004 -0.00121007 -3.58966 -0.00112874 -5.03612 -0.00090409
-32.6758 -0.00119771 -3.60646 -0.00113402 -5.16279 -0.00092683
-32.781 -0.00125065 -3.70978 -0.00116651 -5.25633 -0.000943624
-32.8683 -0.00129457 -3.8346 -0.00120576 -5.29777 -0.000951063
-32.6828 -0.00120122 -3.58126 -0.0011261 -4.92648 -0.000884408
-32.803 -0.00126172 -3.32373 -0.00104512 -4.94386 -0.000887529
-33.0164 -0.00136912 -3.73177 -0.00117342 -4.78591 -0.000859172
-33.0631 -0.0014439 -4.14734 -0.00130409 -4.8035 -0.00086233
-33.0637 -0.001467 -4.30354 -0.00135321 -4.58573 -0.000823236
-33.0655 -0.00152849 -4.23465 -0.00133155 -4.2959 -0.000771206
-33.0663 -0.00155946 -4.26285 -0.00134041 -4.05223 -0.000727461
-33.0668 -0.00157509 -4.46051 -0.00140257 -3.93552 -0.00070651
-33.0668 -0.00157723 -4.76298 -0.00149768 -3.77444 -0.000677592
-33.0672 -0.00158912 -4.90129 -0.00154117 -3.54921 -0.000637158
-33.0677 -0.00160647 -4.73061 -0.0014875 -3.44763 -0.000618923
-33.068 -0.00161965 -4.66853 -0.00146798 -3.43381 -0.000616441
-33.0683 -0.00162793 -4.74864 -0.00149317 -3.42161 -0.000614251
-33.0685 -0.00163755 -4.77648 -0.00150192 -3.48434 -0.000625513
-33.0689 -0.00165037 -4.76868 -0.00149947 -3.50785 -0.000629733
-33.0692 -0.00166011 -4.74163 -0.00149096 -3.56667 -0.000640294
-33.0693 -0.0016666 -4.75375 -0.00149477 -3.69679 -0.000663653
-33.0695 -0.00167359 -4.81741 -0.00151479 -3.88146 -0.000696806
-33.0697 -0.00168086 -4.85773 -0.00152747 -4.09272 -0.000734731
-33.0699 -0.00168566 -4.84409 -0.00152318 -4.26358 -0.000765403
-33.0699 -0.00168795 -4.83301 -0.0015197 -4.38507 -0.000787213
-33.07 -0.00168991 -4.83339 -0.00151982 -4.62489 -0.000830266
-33.0701 -0.00169168 -4.85182 -0.00152561 -4.97309 -0.000892775
-33.0679 -0.0016906 -4.88111 -0.00153482 -5.32112 -0.000955255
-33.0636 -0.00168844 -4.90431 -0.00154212 -5.69543 -0.00102245
-33.0587 -0.00168599 -4.92116 -0.00154741 -6.09772 -0.00109467
-33.0507 -0.00168195 -4.94709 -0.00155557 -6.51016 -0.00116871
-33.0403 -0.00167671 -4.98509 -0.00156752 -6.81459 -0.00122336
-33.0294 -0.00167123 -5.02385 -0.0015797 -6.77847 -0.00121688
-33.0183 -0.00166566 -5.04545 -0.0015865 -6.7482 -0.00121145
-32.9998 -0.00165634 -5.08783 -0.00159982 -6.6926 -0.00120146
-32.984 -0.00164839 -5.10515 -0.00160527 -6.67058 -0.00119751
-32.9638 -0.00163821 -5.11893 -0.0016096 -6.69631 -0.00120213
-32.9402 -0.00162632 -5.13417 -0.00161439 -6.71695 -0.00120584
-32.9148 -0.00161354 -5.1504 -0.0016195 -6.6974 -0.00120233
-32.8888 -0.00160048 -5.17041 -0.00162579 -6.64935 -0.0011937
-32.8633 -0.00158761 -5.19316 -0.00163294 -6.61271 -0.00118712
-32.8369 -0.00157436 -5.21925 -0.00164115 -6.60775 -0.00118623
-32.81 -0.00156081 -5.24904 -0.00165051 -6.61982 -0.0011884
-32.7846 -0.00154802 -5.28304 -0.00166121 -6.62123 -0.00118865
-32.7616 -0.00153647 -5.32413 -0.00167412 -6.60335 -0.00118544
-32.7398 -0.0015255 -5.33911 -0.00167884 -6.58032 -0.00118131
-32.7124 -0.0015117 -5.34711 -0.00168135 -6.56667 -0.00117886
-32.6914 -0.00150112 -5.3507 -0.00168248 -6.56981 -0.00117942
-32.6715 -0.00149111 -5.34667 -0.00168121 -6.58059 -0.00118136
-32.6485 -0.00147954 -5.35104 -0.00168259 -6.58793 -0.00118267
-32.6239 -0.00146717 -5.34335 -0.00168017 -6.5832 -0.00118182
-32.6048 -0.00145756 -5.32761 -0.00167522 -6.57823 -0.00118093
-32.5883 -0.00144923 -5.31442 -0.00167107 -6.57643 -0.00118061
-32.5685 -0.00143928 -5.30447 -0.00166794 -6.5479 -0.00117549
-32.5474 -0.00142867 -5.29074 -0.00166363 -6.49108 -0.00116529
-32.5265 -0.00141812 -5.27059 -0.00165729 -6.40096 -0.00114911
-32.5048 -0.00140722 -5.24751 -0.00165003 -6.28511 -0.00112831
-32.4747 -0.00139207 -5.22108 -0.00164172 -6.12511 -0.00109959
-32.4399 -0.00137457 -5.19924 -0.00163485 -5.95501 -0.00106905
-32.4018 -0.0013554 -5.1796 -0.00162868 -5.7806 -0.00103774
-32.3606 -0.00133465 -5.15985 -0.00162247 -5.61288 -0.00100763
-32.3138 -0.00131109 -5.1425 -0.00161701 -5.46033 -0.000980246
-32.2593 -0.00128368 -5.11266 -0.00160763 -5.32848 -0.000956575
-32.1912 -0.00124938 -5.06508 -0.00159267 -5.20228 -0.000933919
-32.1081 -0.00120757 -4.98635 -0.00156791 -5.09055 -0.000913863
-32.0106 -0.0011585 -4.87994 -0.00153445 -4.99041 -0.000895885
-31.9082 -0.00110696 -4.75727 -0.00149588 -4.9135 -0.000882077
-31.7931 -0.00104903 -4.63426 -0.0014572 -4.85123 -0.000870899
-31.6626 -0.000983383 -4.4836 -0.00140983 -4.79213 -0.000860289
-31.518 -0.000910597 -4.30457 -0.00135353 -4.72993 -0.000849124
-31.3604 -0.000831311 -4.11563 -0.00129412 -4.66555 -0.000837566
-31.189 -0.000745007 -3.92289 -0.00123352 -4.58961 -0.000823934
-31.003 -0.000651444 -3.71366 -0.00116773 -4.48966 -0.00080599
-30.8032 -0.000550881 -3.48853 -0.00109694 -4.36038 -0.00078278
-30.5886 -0.00044287 -3.25843 -0.00102458 -4.19983 -0.00075396
-30.3558 -0.000325727 -3.02588 -0.000951461 -4.00053 -0.00071818
-30.0991 -0.000196511 -2.78639 -0.000876154 -3.75428 -0.000673973
-29.807 -4.95334e-05 -2.54118 -0.000799051 -3.45871 -0.000620913
-29.4555 0.000127387 -2.29582 -0.0007219 -3.11407 -0.000559042
-28.983 0.00036516 -2.05194 -0.000645213 -2.71823 -0.00048798
-28.1602 0.000779264 -1.80841 -0.000568637 -2.26918 -0.000407366
-25.0534 0.00234277 -1.56785 -0.000492996 -1.76816 -0.000317422
-17.0558 0.00636765 -1.33767 -0.000420617 -1.2163 -0.000218352
-9.4579 0.0101913 -1.13271 -0.000356171 -0.61 -0.000109508
-2.47386 0.0137061 -0.918675 -0.000288869 -0.0388346 -6.97164e-06
0.0202448 0.017586 -0.73689 -0.000231709 0.213483 3.83247e-05
0.0635325 0.0232199 -0.552217 -0.00017364 0.418564 7.51411e-05
0.12978 0.031842 -0.38513 -0.000121101 0.680789 0.000122216
0.217349 0.0432391 -0.221538 -6.96608e-05 0.957579 0.000171906
0.307545 0.0549781 -0.0635621 -1.99865e-05 1.1952 0.000214563
0.402534 0.0673409 0.0705708 2.21903e-05 1.40864 0.000252881
0.497057 0.0796431 0.19726 6.20266e-05 1.62527 0.000291771
0.597756 0.0927489 0.307352 9.6644e-05 1.86514 0.000334832
0.709376 0.107276 0.41777 0.000131364 2.08495 0.000374293
0.826523 0.122523 0.529237 0.000166414 2.2699 0.000407494
0.952406 0.138907 0.634221 0.000199425 2.44688 0.000439266
1.08497 0.15616 0.735478 0.000231264 2.62502 0.000471248
1.22932 0.174947 0.833671 0.00026214 2.79083 0.000501014
1.38298 0.194946 0.928763 0.000292041 2.92885 0.00052579
1.54434 0.215946 1.02006 0.00032075 3.04463 0.000546575
1.71049 0.237571 1.10912 0.000348752 3.14864 0.000565248
1.88119 0.259788 1.19588 0.000376033 3.23889 0.00058145
2.0573 0.282708 1.2787 0.000402077 3.30859 0.000593962
2.23917 0.306379 1.35843 0.000427145 3.35603 0.000602478
2.42778 0.330926 1.4342 0.000450971 3.38841 0.000608291
2.62445 0.356523 1.50566 0.000473443 3.39863 0.000610127
2.83074 0.383372 1.57049 0.000493827 3.37615 0.000606091
3.04716 0.411539 1.62967 0.000512434 3.32148 0.000596277
3.27249 0.440865 1.68359 0.00052939 3.23943 0.000581546
3.50485 0.471107 1.73147 0.000544446 3.13673 0.000563109
3.7316 0.500618 1.77333 0.000557607 3.02002 0.000542158
4.0078 0.536565 1.80943 0.00056896 2.88762 0.00051839
4.29366 0.57377 1.83124 0.000575816 2.76656 0.000496657
4.54153 0.606031 1.86477 0.00058636 2.62519 0.000471277
4.77817 0.636829 1.8785 0.000590679 2.49553 0.000448001
5.03375 0.670092 1.89822 0.000596878 2.38531 0.000428213
5.29499 0.704093 1.9415 0.000610488 2.2993 0.000412774
5.52098 0.733506 1.96936 0.000619248 2.21844 0.000398257
5.72183 0.759646 1.98222 0.00062329 2.15125 0.000386194
5.91892 0.785297 2.0057 0.000630674 2.11467 0.000379628
6.10224 0.809157 2.0382 0.000640892 2.10464 0.000377827
6.25607 0.829178 2.06393 0.000648984 2.11359 0.000379434
6.38799 0.846347 2.08525 0.000655688 2.14782 0.00038558
6.50757 0.861911 2.11259 0.000664284 2.21386 0.000397436
6.60903 0.875115 2.14333 0.000673952 2.30712 0.000414178
6.68703 0.885267 2.17105 0.000682667 2.42213 0.000434823
6.74452 0.89275 2.19707 0.00069085 2.56095 0.000459745
6.78871 0.898501 2.22316 0.000699052 2.72678 0.000489514
6.81985 0.902553 2.24825 0.000706941 2.9129 0.000522927
6.8379 0.904903 2.26877 0.000713393 3.11499 0.000559206
6.84767 0.906174 2.28603 0.000718821 3.32962 0.000597738
6.85495 0.907123 2.30042 0.000723345 3.55348 0.000637925
6.60288 0.907109 2.31762 0.000728754 3.66564 0.000658061
6.4414 0.907028 2.31765 0.000728765 3.75188 0.000673543
6.24998 0.906931 2.32406 0.000730781 3.81189 0.000684316
6.29119 0.906952 2.32365 0.000730652 3.88957 0.00069826
6.2623 0.906938 2.32794 0.000731998 3.95807 0.000710559
6.42204 0.907018 2.33468 0.000734119 4.00632 0.00071922
6.74143 0.907179 2.34651 0.00073784 4.0433 0.000725858
6.86168 0.907997 2.36126 0.000742477 4.08159 0.000732732
6.88286 0.910755 2.37844 0.00074788 4.11527 0.000738778
6.91328 0.914714 2.40157 0.000755152 4.13355 0.00074206
6.94098 0.918319 2.41985 0.000760899 4.13612 0.000742521
6.96159 0.921001 2.44244 0.000768004 4.11283 0.000738341
6.98227 0.923693 2.46467 0.000774994 4.07217 0.000731041
7.00052 0.926068 2.48875 0.000782566 4.00638 0.000719231
7.00858 0.927117 2.51299 0.000790188 3.91861 0.000703474
6.54924 0.926886 2.53766 0.000797943 3.81458 0.000684798
5.65067 0.926434 2.55842 0.000804471 3.7078 0.00066563
4.11631 0.925661 2.57607 0.00081002 3.60084 0.000646427
1.6303 0.92441 2.57461 0.000809563 3.51381 0.000630804
-0.0318443 0.922696 2.57558 0.000809868 3.42809 0.000615414
-0.189016 0.918283 2.56979 0.000808046 3.35352 0.000602027
-0.50954 0.909284 2.55832 0.00080444 3.29206 0.000590995
-0.949852 0.896922 2.53625 0.000797499 3.2454 0.000582618
-1.40992 0.884005 2.49646 0.000784988 3.21824 0.000577742
-1.88641 0.870628 2.43931 0.000767018 3.20781 0.00057587
-2.40136 0.85617 2.36369 0.000743241 3.21537 0.000577226
-2.93017 0.841324 2.27192 0.000714384 3.23633 0.000580989
-3.45043 0.826717 2.16734 0.000681501 3.26398 0.000585955
-4.03679 0.810255 2.06357 0.000648871 3.28249 0.000589276
-4.61888 0.793912 1.94387 0.000611232 3.30109 0.000592616
-5.16376 0.778614 1.82476 0.000573778 3.30187 0.000592756
-5.65272 0.764886 1.70217 0.000535233 3.28439 0.000589618
-6.10367 0.752226 1.58275 0.000497681 3.23668 0.000581053
-6.49052 0.741365 1.46722 0.000461354 3.15762 0.00056686
-6.78256 0.733166 1.36433 0.000429001 3.04415 0.000546489
-6.98806 0.727396 1.27346 0.000400429 2.88983 0.000518786
-7.13711 0.723211 1.19138 0.000374619 2.69051 0.000483003
-7.2207 0.720864 1.1219 0.00035277 2.44992 0.000439813
-6.93184 0.720815 1.07092 0.000336741 2.17253 0.000390015
-6.22072 0.721173 1.04025 0.000327097 1.85741 0.000333445
-5.32356 0.721625 1.0197 0.000320636 1.5149 0.000271957
-3.92617 0.722328 1.01594 0.000319455 1.15294 0.000206977
-2.22223 0.723186 1.0285 0.000323401 0.784171 0.000140775
-0.545653 0.724029 1.05269 0.000331008 0.418533 7.51355e-05
0.0160432 0.725118 1.08497 0.000341158 0.112235 2.01487e-05
0.0576301 0.727228 1.13357 0.000356442 -0.0360247 -6.4672e-06
0.127049 0.73075 1.18587 0.000372887 -0.174412 -3.13106e-05
0.205003 0.734705 1.23574 0.000388568 -0.281184 -5.04785e-05
0.278574 0.738438 1.26959 0.000399211 -0.345897 -6.20958e-05
0.339426 0.741526 1.29772 0.000408056 -0.391248 -7.02373e-05
0.375135 0.743337 1.32113 0.000415418 -0.420384 -7.54678e-05
0.291036 0.743625 1.33395 0.000419447 -0.394423 -7.08073e-05
-0.000403245 0.74347 1.33443 0.000419601 -0.290323 -5.21192e-05
-0.0215729 0.742989 1.32647 0.000417095 -0.121803 -2.18663e-05
-0.0785638 0.741695 1.31255 0.000412719 0.0973127 1.74697e-05
-0.217703 0.738537 1.29406 0.000406907 0.258539 4.64133e-05
-0.465882 0.732904 1.27005 0.000399355 0.422977 7.59333e-05
-0.740155 0.726678 1.2438 0.000391101 0.632336 0.000113518
-0.983495 0.721155 1.22331 0.000384659 0.846634 0.000151989
-1.20375 0.716155 1.21004 0.000380486 1.05454 0.000189312
-1.41816 0.711288 1.20754 0.000379702 1.26242 0.000226631
-1.59874 0.707189 1.21617 0.000382414 1.47824 0.000265375
-1.71408 0.704571 1.23667 0.00038886 1.6881 0.000303049
-1.75871 0.703558 1.27135 0.000399766 1.87793 0.000337128
-1.47371 0.703683 1.32155 0.00041555 2.04737 0.000367546
-0.734617 0.704054 1.38805 0.00043646 2.20155 0.000395226
0.00516304 0.704698 1.46997 0.000462219 2.33886 0.000419874
0.0698951 0.708126 1.56666 0.000492622 2.4541 0.000440563
0.211841 0.715644 1.67533 0.000526791 2.54932 0.000457658
0.375616 0.724318 1.7953 0.000564514 2.62537 0.00047131
0.524527 0.732205 1.92173 0.000604271 2.68669 0.000482317
0.675626 0.740207 2.05293 0.000645526 2.73469 0.000490934
0.840119 0.74892 2.18481 0.000686993 2.77182 0.000497601
0.982014 0.756435 36.6828 0.0647752 2.76151 0.000495749
-1.05487 0.731604 44.6488 0.200404 1.46995 0.000263887
0.0614734 0.7317 8.93253 0.266893 1.89506 0.000340204
0.010579 0.72937 6.50257 0.291081 1.38518 0.000248669
0.359631 0.746903 -1.85307 0.272464 1.82133 0.000326967
0.301513 0.753761 2.88288 0.277939 1.98252 0.000355904
0.0104894 0.75409 8.93253 0.295645 2.13351 0.000383011
-0.000113727 0.754735 8.93253 0.313181 2.0962 0.000376312
0.0858599 0.758798 0.275447 0.311651 2.32664 0.000417681
0.194951 0.763962 1.42085 0.310861 2.67877 0.000480897
0.211381 0.764739 8.93253 0.314487 2.94137 0.000528038
0.234268 0.765823 8.93253 0.319849 3.04245 0.000546185
0.257963 0.766944 5.88655 0.319724 3.13294 0.00056243
0.241711 0.767984 2.36897 0.318618 3.37899 0.0006066
-0.00774052 0.767682 4.04112 0.319144 3.62614 0.000650969
-0.00882611 0.767656 4.79175 0.31938 3.78014 0.000678616
0.000456177 0.767676 2.66949 0.318713 3.87385 0.000695438
-0.00693791 0.767514 0.36285 0.317988 4.02707 0.000722944
0.00076629 0.767515 0.662795 0.318082 4.20245 0.000754429
0.0141898 0.768131 1.47747 0.318338 4.30754 0.000773296
0.0703758 0.770711 1.18018 0.318245 4.34419 0.000779874
0.189379 0.776173 1.15765 0.318238 4.38043 0.00078638
0.359434 0.78398 2.75731 0.318741 4.42507 0.000794394
0.561302 0.793246 5.00762 0.319448 4.4138 0.000792371
0.798589 0.804138 7.06167 0.320094 4.32326 0.000776116
1.06309 0.81628 8.93253 0.321052 4.1928 0.000752697
1.35826 0.829829 8.93253 0.325657 4.02543 0.000722651
1.65424 0.843416 8.93253 0.333865 3.80552 0.000683171
1.96111 0.857503 8.93253 0.342555 3.54577 0.000636542
2.29025 0.872612 8.93253 0.350521 3.25962 0.000585171
2.63647 0.888505 8.93253 0.357057 2.99053 0.000536865
2.97182 0.903898 8.93253 0.363991 2.72483 0.000489164
3.28055 0.91807 8.93253 0.372344 2.45042 0.000439903
3.56421 0.931092 8.93253 0.380983 2.18558 0.000392357
3.81762 0.942724 8.93253 0.388489 1.95583 0.000351112
4.03425 0.952668 8.93253 0.393792 1.77926 0.000319415
4.20664 0.960582 8.93253 0.397908 1.64655 0.00029559
4.32576 0.96605 8.93253 0.401829 1.55303 0.000278801
4.38942 0.968972 8.93253 0.405468 1.50923 0.000270939
4.28408 0.969456 8.93253 0.408273 1.52281 0.000273376
3.37269 0.968997 8.93253 0.409337 1.59982 0.000287201
1.75517 0.968183 8.03331 0.409054 1.7344 0.000311362
-0.0205023 0.966698 6.74773 0.40865 1.90993 0.000342873
-0.196799 0.961518 5.31762 0.4082 2.12825 0.000382066
-0.591587 0.949919 4.08454 0.407813 2.36978 0.000425426
-1.08443 0.935439 2.09241 0.407186 2.64103 0.00047412
-1.5701 0.92117 -0.00829144 0.406425 2.92985 0.000525971
-2.06343 0.906676 -0.108484 0.405178 3.23042 0.000579929
-2.59784 0.890974 -0.289711 0.402921 3.53387 0.000634405
-3.12361 0.875527 -0.532317 0.399901 3.8307 0.000687691
-3.60557 0.861367 -0.781287 0.396801 4.10904 0.00073766
-4.06264 0.847938 -0.996295 0.394124 4.34588 0.000780179
-4.49908 0.835115 -1.18786 0.391739 4.48054 0.000804353
-4.84916 0.824829 -1.62118 0.386343 30.3268 0.0736695
-5.05667 0.818733 -2.2241 0.378837 31.4937 0.0958508
-5.44026 0.807463 -2.28152 0.378122 32.081 0.107016
-5.732 0.798891 -1.54286 0.376739 26.1532 0.105951
-6.06476 0.789114 0.132201 0.377699 22.1891 0.10524
-6.31508 0.78176 -0.0126149 0.377539 25.2459 0.105789
-6.59625 0.773499 0.0627905 0.377743 27.3417 0.106165
-6.87311 0.765365 0.378042 0.378866 23.8103 0.105531
-7.13741 0.757599 1.03112 0.381192 18.2995 0.104542
-7.39301 0.75009 1.51249 0.382907 15.9508 0.10412
-7.59712 0.744093 1.35478 0.383151 15.3919 0.10402
-7.7767 0.738817 0.818795 0.382983 12.9042 0.103573
-7.99405 0.732431 0.99964 0.38304 8.38335 0.102761
-8.27116 0.724289 0.60845 0.382917 4.86808 0.10213
-8.59286 0.714838 -0.049052 0.382149 3.05144 0.101804
-8.9524 0.704274 -0.272549 0.379525 1.43624 0.101514
-9.3892 0.691441 -0.563754 0.376107 -0.0752655 0.100958
-9.92324 0.675751 -0.937345 0.371721 -0.241616 0.100297
-10.5353 0.657768 -1.43557 0.365871 -0.358937 0.099831
-11.2221 0.63759 -2.08781 0.358214 -0.4091 0.0996317
-11.9776 0.615392 -2.87997 0.348914 -0.464489 0.0994118
-12.7868 0.591617 -3.76471 0.338527 -0.531215 0.0991468
-13.6556 0.566093 -4.75149 0.326942 -0.514484 0.0990862
-14.5698 0.539234 -5.822 0.314374 -0.0554084 0.0991686
-15.4908 0.512173 -6.99058 0.300655 0.462261 0.0992915
-16.3849 0.485903 -8.23665 0.286026 0.732895 0.0993576
-17.2175 0.461442 -9.49188 0.27129 0.744905 0.0993642
-18.0127 0.438078 -10.7094 0.256996 0.562079 0.0993314
-18.7802 0.415528 -12.0051 0.241784 0.385587 0.0992997
-19.5351 0.393349 -13.3406 0.226105 -0.0274768 0.0991234
-20.2365 0.372741 -14.6964 0.210188 -0.153078 0.0986341
-20.8565 0.354526 -15.9975 0.194913 -0.417104 0.0976056
-21.4101 0.338262 -17.2177 0.180587 -0.770611 0.0962285
-21.9023 0.323799 -18.3692 0.167069 -1.39742 0.0937868
-22.3373 0.311019 -19.5052 0.153733 -2.3091 0.0902353
-22.6951 0.300507 -20.722 0.139447 -3.65194 0.0850043
-22.9864 0.291949 -21.9509 0.12502 -4.66251 0.0810676
-23.2037 0.285564 -23.0909 0.111636 -5.73118 0.0769046
-23.3372 0.281643 -24.1554 0.099138 -6.98305 0.0720279
-23.3794 0.280403 -25.1741 0.0871782 -8.50604 0.0660951
-22.4548 0.280868 -26.2007 0.0751267 -10.2381 0.0593477
-20.8473 0.281677 -27.1725 0.063717 -11.7776 0.0533506
-18.6748 0.282771 -28.0162 0.0538124 -13.4637 0.0467824
-15.7948 0.28422 -28.7261 0.0454775 -14.5641 0.0424956
-12.1977 0.28603 -29.3688 0.0379331 -15.383 0.0393059
-8.25388 0.288015 -29.9763 0.0308004 -16.1548 0.036299
-3.9589 0.290177 -30.537 0.0242178 -16.9897 0.0330469
0.00294545 0.292461 -31.1086 0.0175073 -17.8721 0.0296094
0.0387324 0.296008 -31.6262 0.011431 -18.7266 0.0262805
0.09464 0.301549 -32.0892 0.00599521 -19.5041 0.0232521
0.183135 0.310321 -32.5044 0.00112052 -20.197 0.0205525
0.297596 0.321665 -32.5212 0.000923019 -20.9398 0.0176592
0.43386 0.335171 -32.534 0.000772285 -21.6187 0.0150143
0.58086 0.349741 -32.5426 0.000671737 -22.2326 0.0126231
0.7248 0.364008 -32.551 0.00057303 -22.7422 0.0106377
0.86443 0.377847 -32.5553 0.000522602 -23.1439 0.00907287
0.997772 0.391063 -32.5559 0.000515433 -23.505 0.00766625
1.12489 0.403663 -32.5564 0.000509445 -23.7991 0.00652074
1.23899 0.414971 -32.5396 0.000514092 -23.9816 0.00580984
1.33669 0.424655 -32.4483 0.000542772 -24.0309 0.00561776
1.42133 0.433044 -32.2552 0.000603494 -23.632 0.00568936
1.49808 0.440651 -31.9244 0.000707509 -22.6057 0.00587361
1.56636 0.447419 -31.3531 0.000887161 -20.9102 0.00617798
1.62372 0.453104 -30.0891 0.00128461 -18.4884 0.00661276
1.67145 0.457835 -26.7863 0.00232316 -15.3713 0.00717233
1.71307 0.46196 -21.2157 0.00407477 -11.6908 0.00783306
1.75133 0.465753 -14.8277 0.00608343 -7.48887 0.0085874
1.78558 0.469147 -7.84144 0.00828019 -2.82238 0.00942514
1.81619 0.472181 -0.22879 0.0106739 0.178922 0.0104733
1.84482 0.475019 0.0813339 0.0143752 0.784451 0.0123057
1.86843 0.477359 0.247096 0.0217719 1.67252 0.0149932
1.88368 0.478871 0.519032 0.0339063 2.85877 0.018583
1.89568 0.48006 0.853496 0.0488309 4.8921 0.0247363
1.90294 0.480779 1.21828 0.0651085 7.13203 0.0315148
1.77852 0.480769 1.57772 0.0811474 9.32606 0.0381544
1.1867 0.480471 1.95123 0.0978147 11.2984 0.0441232
0.292836 0.480021 2.3628 0.11618 13.1805 0.0498188
-0.062954 0.47894 2.80468 0.135898 15.195 0.0559149
-0.316826 0.475175 3.25824 0.156137 17.2886 0.0622507
-0.702956 0.469449 3.70914 0.176257 19.2965 0.0683269
-0.979628 0.465346 4.1355 0.195282 21.219 0.074145
-1.1444 0.462903 4.56389 0.214398 23.183 0.0800884
-1.2962 0.460652 5.05489 0.236307 25.2577 0.0863669
-1.68621 0.454868 5.55303 0.258536 27.3218 0.0926133
-2.14917 0.448003 5.97125 0.277198 29.3375 0.0987132
-2.52573 0.442419 6.30675 0.292168 31.3476 0.104796
-2.91619 0.436629 6.59917 0.305217 32.4904 0.114796
-3.4217 0.429133 6.87377 0.31747 33.3356 0.130863
-3.95291 0.421255 7.1088 0.327958 34.2923 0.149051
-4.42014 0.414327 7.2624 0.334812 35.2133 0.166558
-4.81898 0.408412 7.36039 0.339184 17.4934 0.190596
-5.20788 0.402645 6.46385 0.340079 7.12096 0.238248
-5.5314 0.397848 5.84748 0.339886 7.12096 0.277198
-5.86678 0.392874 3.57476 0.339171 7.12096 0.310821
-6.13943 0.388831 2.53142 0.338843 7.12096 0.323292
-6.41851 0.384693 1.48775 0.338515 7.12096 0.328033
-6.60031 0.381997 -0.0200319 0.337838 7.12096 0.335457
-6.70207 0.380488 -0.193073 0.336038 7.12096 0.350559
-6.71536 0.380291 -0.600977 0.331793 7.12096 0.366102
-6.67742 0.38009 -0.924613 0.328425 7.12096 0.37173
-6.09121 0.380385 -1.13075 0.32628 3.97107 0.371164
-4.58098 0.381145 -1.31261 0.324388 0.440501 0.37053
-2.50236 0.382191 -1.50501 0.322385 -0.0658095 0.369526
-0.0451371 0.383427 -1.74224 0.319917 -0.285164 0.366444
0.0256061 0.385726 -1.91495 0.318119 -0.855264 0.358433
0.0992438 0.392273 -1.97873 0.317456 -1.75041 0.345854
0.23109 0.403993 -2.0168 0.317059 -3.00316 0.32825
0.381079 0.417327 -2.1208 0.315977 -4.32627 0.309658
0.522831 0.429928 -2.24501 0.314685 -5.50765 0.293056
0.679133 0.443823 -2.34692 0.313624 -6.73953 0.275746
0.84506 0.458573 -2.6213 0.310769 -7.96923 0.258466
1.00816 0.473071 -3.0419 0.306392 -9.19733 0.241208
1.14755 0.485463 -3.57942 0.300798 -10.4078 0.224199
1.28124 0.497348 -4.18304 0.294517 -11.5669 0.207911
1.40743 0.508566 -4.78039 0.288301 -12.6882 0.192154
1.514 0.518039 -5.46548 0.281172 -13.6539 0.178584
1.59919 0.525612 -6.26197 0.272883 -14.5109 0.166541
1.6702 0.531925 -7.12557 0.263896 -15.3186 0.155191
1.73109 0.537338 -8.08075 0.253956 -16.0181 0.145361
1.77616 0.541344 -9.12255 0.243115 -16.5912 0.137308
1.80391 0.543811 -10.211 0.231788 -17.0621 0.130691
1.81876 0.545131 -11.3429 0.220009 -17.4612 0.125083
1.49155 0.545094 -12.4926 0.208045 -17.8012 0.120305
0.386852 0.544538 -13.633 0.196178 -18.0631 0.116624
-0.0235859 0.543948 -14.7151 0.184918 -18.2404 0.114133
-0.167471 0.541538 -15.7633 0.174009 -18.3382 0.112758
-0.439742 0.536976 -16.7414 0.163831 -18.4103 0.111745
-0.643222 0.533567 -17.6133 0.154757 -18.4419 0.111301
-0.690621 0.532773 -18.3145 0.14746 -18.2625 0.111325
-0.71473 0.532369 -18.8618 0.141765 -17.8578 0.111398
-0.782251 0.531238 -19.3308 0.136885 -17.4021 0.11148
-0.749483 0.530841 -19.7373 0.132654 -16.9525 0.11156
-0.182982 0.531126 -20.0152 0.129763 -16.4978 0.111642
0.00379201 0.531493 -20.0405 0.12903 -16.1577 0.111703
0.0264622 0.533133 -18.8545 0.129403 -15.8955 0.11175
0.0868843 0.537505 -17.0343 0.129976 -15.6077 0.111802
0.15935 0.542748 -14.1531 0.130882 -15.3522 0.111848
0.223894 0.547418 -9.79004 0.132254 -15.0069 0.11191
0.289044 0.552132 -3.97061 0.134083 -14.5887 0.111985
0.366029 0.557702 0.0326643 0.136334 -14.0117 0.112088
0.439237 0.562999 0.176196 0.140737 -13.3764 0.112202
0.486984 0.566453 0.473442 0.149855 -12.8452 0.112298
0.51469 0.568458 0.907939 0.163183 -12.0497 0.11244
0.532218 0.569726 1.37612 0.177544 -10.7169 0.11268
0.544866 0.570641 1.81037 0.190865 -8.63135 0.113054
0.5895 0.573871 2.23024 0.203744 -5.51697 0.113613
0.621749 0.576204 2.67998 0.21754 -1.78458 0.114283
-0.00696713 0.575791 3.15671 0.232164 0.018188 0.11526
-0.119572 0.573798 3.58258 0.245227 0.0876302 0.117768
-0.318211 0.570283 3.94693 0.256404 0.25905 0.123958
-0.622347 0.564901 4.24241 0.265468 0.571412 0.135236
-1.02134 0.55784 4.50344 0.273475 0.983558 0.150118
-1.51222 0.549153 4.73327 0.280525 1.42479 0.16605
-2.08926 0.538942 4.91419 0.286075 1.86238 0.181851
-2.7468 0.527306 5.03753 0.289858 2.30347 0.197778
-3.4689 0.514527 5.11019 0.292087 2.77577 0.214832
-4.24494 0.500794 5.14693 0.293214 3.28191 0.233108
-5.07036 0.486188 5.15344 0.293519 3.7908 0.251483
-5.93168 0.470945 4.62001 0.293351 4.26823 0.268722
-6.77877 0.455955 5.16473 0.29376 4.69406 0.284098
-7.61145 0.44122 5.20035 0.294852 5.07854 0.297981
-8.40233 0.427224 5.22201 0.295517 5.44532 0.311225
-9.18413 0.413389 5.22088 0.295755 5.77535 0.323142
-9.96703 0.399535 4.80016 0.295623 6.05597 0.333275
-10.7567 0.385561 4.78659 0.295618 6.27099 0.341039
-11.5354 0.37178 4.89389 0.295652 6.42354 0.346547
-12.3005 0.358242 4.78657 0.295618 6.52038 0.350044
-13.0747 0.34454 4.3982 0.295496 6.56449 0.351636
-13.8739 0.330398 3.9974 0.29537 5.98836 0.351608
-14.663 0.316434 3.20716 0.295122 4.26432 0.351299
-15.3196 0.304814 1.13919 0.294471 1.71474 0.350841
-15.9354 0.293917 -0.0805373 0.293381 -0.0388839 0.350016
-16.5385 0.283244 -0.397143 0.290501 -0.261288 0.347056
-17.1175 0.272998 -0.878055 0.286128 -0.687144 0.34139
-17.65 0.263575 -1.45857 0.280848 -1.20529 0.334495
-18.1316 0.255052 -2.21721 0.273948 -1.93704 0.324758
-18.6012 0.246743 -3.25084 0.264548 -2.83162 0.312855
-19.0375 0.239022 -4.61373 0.252153 -3.82242 0.299671
-19.4325 0.232032 -6.2146 0.237593 -4.74226 0.287431
-19.7866 0.225765 -7.90509 0.222219 -5.59601 0.276071
-20.1002 0.220216 -9.64144 0.206427 -6.41556 0.265165
-20.3962 0.214977 -11.4602 0.189886 -7.30924 0.253274
-20.6546 0.210404 -13.4237 0.172028 -8.31273 0.239921
-20.8092 0.207668 -15.3484 0.154524 -9.34476 0.226189
-20.9403 0.205349 -17.0778 0.138795 -10.3723 0.212516
-21.1409 0.201798 -18.827 0.122886 -11.402 0.198815
-21.387 0.197444 -20.7561 0.105342 -12.4407 0.184993
-21.6229 0.193269 -22.755 0.0871624 -13.4543 0.171505
-21.8673 0.188945 -24.613 0.070265 -14.5503 0.156922
-22.1637 0.183699 -26.3031 0.054894 -15.6597 0.14216
-22.5001 0.177746 -27.9903 0.0395487 -16.7445 0.127725
-22.8353 0.171815 -29.7892 0.0231886 -17.8255 0.113342
-23.1719 0.165858 -31.6224 0.00651637 -18.9351 0.0985766
-23.5646 0.158908 -32.2762 0.000570154 -20.0896 0.0832139
-24.1395 0.148736 -32.2906 0.000438703 -21.3915 0.0658901
-24.6154 0.140313 -32.3068 0.000291762 -22.568 0.050236
-25.1293 0.131219 -32.3227 0.000147115 -23.5395 0.037309
-25.6544 0.121928 -32.3362 2.43264e-05 -24.2765 0.0275021
-26.2235 0.111857 -32.3434 -4.13068e-05 -24.9385 0.0186927
-26.7631 0.102308 -32.3502 -0.000103404 -25.6315 0.0094718
-27.3058 0.0927031 -32.3579 -0.000173189 -26.2663 0.0010255
-27.8902 0.0823614 -32.3651 -0.00023815 -26.3055 0.000503523
-28.4954 0.0716513 -32.3704 -0.000286478 -26.3158 0.000366626
-29.0969 0.0610071 -32.3756 -0.000333621 -26.3232 0.000267995
-29.706 0.0502286 -32.3807 -0.000380393 -26.3318 0.000153793
-30.3569 0.0387099 -32.3851 -0.00042037 -26.3384 6.50495e-05
-31.0286 0.0268237 -32.3889 -0.000455064 -26.3418 2.02484e-05
-31.7105 0.0147574 -32.3924 -0.00048693 -26.344 -8.50166e-06
-32.4119 0.0023449 -32.3959 -0.000518265 -26.3465 -4.2309e-05
-32.5015 0.000759364 -32.3994 -0.000550087 -26.349 -7.59003e-05
-32.5143 0.000532809 -32.4022 -0.000576036 -26.3503 -9.29209e-05
-32.5249 0.000345512 -32.4047 -0.000598854 -26.3504 -9.86239e-05
-32.5327 0.000206358 -32.4074 -0.000623371 -26.3508 -9.92088e-05
-32.5378 0.00011585 -32.4095 -0.000642123 -26.345 -9.95406e-05
-32.5422 3.85859e-05 -32.411 -0.000656258 -26.2891 -8.95105e-05
-32.5463 -3.45809e-05 -32.4123 -0.000667505 -26.1694 -6.80234e-05
-32.5496 -9.21995e-05 -32.4133 -0.000677035 -26.0073 -3.89142e-05
-32.5522 -0.000139038 -32.4139 -0.000682631 -25.8251 -6.20804e-06
-32.5546 -0.000181629 -32.4141 -0.000684274 -25.6131 3.18547e-05
-32.5566 -0.000216511 -32.4102 -0.000683059 -25.36 7.72924e-05
-32.5581 -0.000242074 -32.3975 -0.000679038 -25.0663 0.000130003
-32.5591 -0.000260775 -32.3743 -0.000671748 -24.7367 0.000189187
-32.5597 -0.00027148 -32.3362 -0.000659787 -24.3685 0.000255279
-32.5584 -0.000272455 -32.2844 -0.000643498 -23.9474 0.000330881
-32.5447 -0.000265552 -32.2196 -0.000623111 -23.4642 0.000417625
-32.5194 -0.000252849 -32.1488 -0.000600859 -22.9235 0.000514695
-32.4746 -0.000230309 -32.0727 -0.000576917 -22.3102 0.000624794
-32.4105 -0.00019804 -31.979 -0.000547463 -21.5933 0.000753482
-32.3309 -0.000157992 -31.8715 -0.00051364 -20.7387 0.0009069
-32.2349 -0.000109633 -31.7573 -0.000477735 -19.7388 0.00108642
-32.126 -5.48744e-05 -31.6365 -0.000439761 -18.0907 0.00138227
-32.0089 4.08445e-06 -31.5029 -0.000397766 -15.9836 0.00176054
-31.8764 7.0781e-05 -31.3568 -0.000351826 -13.6191 0.00218503
-31.7277 0.000145593 -31.2034 -0.000303562 -11.1078 0.00263585
-31.5635 0.000228224 -31.041 -0.000252516 -8.45954 0.00311128
-31.3781 0.000321552 -30.8666 -0.00019766 -5.63804 0.0036178
-31.1659 0.000428343 -30.6807 -0.000139226 -2.62262 0.00415913
-30.9201 0.000552008 -30.4846 -7.75455e-05 0.00298906 0.00478404
-30.6289 0.000698597 -30.2764 -1.20977e-05 0.0228944 0.0058102
-30.2747 0.000876847 -30.0528 5.82158e-05 0.0584399 0.00764264
-29.8338 0.0010987 -29.8146 0.000133123 0.126314 0.0111417
-29.285 0.00137492 -29.565 0.000211601 0.22527 0.0162431
-28.6381 0.00170045 -29.3074 0.000292609 0.357593 0.0230646
-28.0292 0.00200689 -29.0228 0.000382085 0.522132 0.0315469
-27.5182 0.00226405 -28.7362 0.000472196 0.691944 0.040301
-27.0825 0.00248333 -28.4507 0.000562 0.871614 0.0495634
-26.644 0.00270402 -28.1847 0.000645639 1.0563 0.0590841
-26.0893 0.00298317 -27.941 0.000722244 1.23494 0.0682935
-25.2965 0.00338215 -27.7618 0.000778603 1.40635 0.07713
-24.268 0.00389977 -27.6917 0.000800659 1.57385 0.085765
-22.9211 0.00457761 -27.72 0.000791734 1.73935 0.0942971
-21.1283 0.00547983 -27.7912 0.000769367 1.89724 0.102436
-18.9234 0.00658946 -27.8603 0.000747629 2.03689 0.109636
-16.4501 0.00783419 -27.9104 0.000731868 2.15163 0.115551
-14.4834 0.00882392 -27.834 0.000755914 2.23965 0.120089
-11.5938 0.0102782 -27.743 0.00078451 2.3054 0.123478
-8.27908 0.0119463 -27.5016 0.000860414 2.34818 0.125683
-4.41202 0.0138924 -27.0853 0.000991313 2.36412 0.126505
0.000430389 0.0161688 -26.3006 0.00123807 1.64522 0.126376
0.0273942 0.0196746 -24.7776 0.00171697 0.156892 0.126109
0.0717631 0.0254435 -22.1016 0.00255839 -0.199749 0.125102
0.136481 0.0338581 -19.2151 0.00346602 -0.726034 0.122522
0.233616 0.0464875 -16.5432 0.0043062 -1.51773 0.118642
0.374079 0.0647505 -13.7704 0.00517807 -2.63571 0.113163
0.550539 0.0876938 -10.4711 0.0062155 -3.76832 0.107612
0.743401 0.11277 -6.99234 0.00730937 -4.8996 0.102068
0.937188 0.137966 -4.90711 0.00796505 -5.96805 0.0968313
1.13751 0.164012 -2.74456 0.00864505 -7.02599 0.0916463
1.34483 0.190968 0.000401081 0.009526 -8.18706 0.0859559
1.55662 0.218504 0.0251998 0.010636 -9.28158 0.0805916
1.76243 0.245264 0.059062 0.0121517 -10.3 0.0756002
1.96302 0.271344 0.103765 0.0141527 -11.2391 0.070998
2.16059 0.297032 0.168197 0.0170367 -12.148 0.066543
2.35483 0.322287 0.243453 0.0204052 -12.9995 0.0623699
2.54336 0.3468 0.340661 0.0247564 -13.725 0.0588146
2.72872 0.3709 0.451877 0.0297345 -14.2488 0.0562474
2.91258 0.394805 0.580117 0.0354747 -14.6037 0.054508
3.09434 0.418439 0.72461 0.0419423 -14.7934 0.053578
3.27095 0.441402 0.879631 0.0488812 -14.7134 0.0534336
3.43889 0.463237 1.04643 0.0563474 -13.8226 0.0535935
3.59708 0.483804 1.22833 0.0644894 -12.1523 0.0538934
3.74631 0.503207 1.42931 0.0734853 -9.80392 0.0543149
3.88721 0.521527 1.65201 0.0834537 -6.76467 0.0548605
4.01881 0.538638 1.8919 0.0941913 -2.97644 0.0555406
4.13867 0.554222 2.14801 0.105655 0.00849418 0.0564515
4.23985 0.567377 2.42713 0.118149 0.0670731 0.0590481
4.33659 0.579955 2.71813 0.131174 0.243511 0.0668692
4.45349 0.595155 3.0056 0.144041 0.499885 0.0782336
4.55965 0.608958 3.29048 0.156793 0.799118 0.0914979
4.63634 0.618929 3.60245 0.170757 1.09231 0.104494
4.69725 0.626848 3.94878 0.186259 1.35142 0.11598
4.75955 0.634949 4.32673 0.203177 1.60061 0.127026
4.81594 0.642281 4.71942 0.220754 1.88685 0.139714
4.86145 0.648198 5.1053 0.238026 2.21947 0.154458
4.92533 0.656504 5.51446 0.256341 2.59112 0.170933
4.99541 0.665615 5.99477 0.27784 2.95485 0.187056
5.03975 0.67138 6.48433 0.299753 3.29939 0.202329
5.0706 0.675391 6.92937 0.319673 3.64933 0.217841
5.10692 0.680114 7.34023 0.338064 4.03552 0.234959
5.13485 0.683745 7.75375 0.356573 4.4631 0.253913
4.80448 0.684078 8.19176 0.376179 4.89909 0.273239
3.8715 0.683609 8.627 0.395661 5.31634 0.291735
2.97688 0.683159 8.93253 0.413475 5.72245 0.309737
0.76597 0.682046 8.93253 0.432087 6.13681 0.328105
-0.099392 0.679588 8.93253 0.451138 6.57301 0.34744
-0.464922 0.671965 8.93253 0.470203 7.01529 0.367045
-1.07938 0.659152 8.93253 0.486901 7.12096 0.390563
-1.73156 0.645552 8.93253 0.499504 7.12096 0.414432
-2.36431 0.632357 8.93253 0.510066 7.12096 0.438755
-3.07021 0.617637 8.93253 0.51973 7.12096 0.461943
-3.89173 0.600506 8.93253 0.529495 7.12096 0.480931
-4.7138 0.583363 8.93253 0.538721 7.12096 0.500077
-5.54099 0.566113 8.93253 0.544154 7.12096 0.520067
-6.42545 0.54767 8.93253 0.546499 7.12096 0.539614
-7.35974 0.528187 8.93253 0.547123 7.12096 0.554788
-8.29946 0.50859 8.6867 0.547061 7.12096 0.566385
-9.23742 0.489031 7.7394 0.546764 7.12096 0.575547
-10.162 0.469751 5.57109 0.546082 7.12096 0.583494
-11.0439 0.451361 2.12909 0.544999 7.12096 0.5902
-11.8892 0.433733 -0.0508914 0.543487 7.12096 0.594452
-12.7142 0.416529 -0.281543 0.539666 7.12096 0.595712
-13.4854 0.400447 -0.715892 0.532472 6.38272 0.59558
-14.1879 0.385799 -1.28047 0.52312 4.66404 0.595271
-14.8255 0.372501 -1.97033 0.511692 2.19394 0.594828
-15.4178 0.36015 -2.72754 0.49915 -0.0234662 0.593907
-15.9768 0.348494 -3.58386 0.484965 -0.287592 0.587981
-16.4977 0.337632 -4.51947 0.469467 -0.838689 0.575614
-16.998 0.327199 -5.50787 0.453095 -1.54737 0.559711
-17.4982 0.316768 -6.49167 0.436798 -2.45161 0.53942
-18.0242 0.305798 -7.46394 0.420693 -3.4532 0.516944
-18.5264 0.295326 -8.48333 0.403807 -4.5607 0.492092
-19.0243 0.284944 -9.56767 0.385846 -5.70194 0.466483
-19.5517 0.273946 -10.6909 0.36724 -6.87547 0.440149
-20.1351 0.26178 -11.847 0.348089 -8.06275 0.413506
-20.7715 0.248509 -13.0346 0.328418 -9.28705 0.386033
-21.4601 0.23415 -14.2868 0.307676 -10.4978 0.358863
-22.2231 0.218239 -15.58 0.286254 -11.5804 0.33457
-23.0828 0.20031 -16.8607 0.265041 -12.6937 0.309588
-24.0227 0.180712 -18.2055 0.242764 -13.7823 0.285159
-24.9946 0.160445 -19.6845 0.218265 -14.8015 0.26229
-25.9673 0.140159 -21.2291 0.19268 -15.7533 0.240931
-27.0072 0.118474 -22.7752 0.167069 -16.6735 0.220282
-28.178 0.0940596 -24.3825 0.140445 -17.5777 0.199992
-29.4514 0.067505 -26.1397 0.111338 -18.4441 0.18055
-30.7754 0.0398962 -28.0592 0.0795416 -19.2347 0.162807
-32.1573 0.0110793 -30.0749 0.0461526 -19.9434 0.146904
-32.668 0.000429421 -32.1767 0.0113371 -20.5959 0.132262
-32.6824 0.000128792 -32.8503 0.00017947 -21.1987 0.118735
-32.694 -0.000111689 -32.8603 1.32636e-05 -22.0906 0.0987217
-32.7038 -0.000316812 -32.8691 -0.000131692 -22.7537 0.0838424
-32.7117 -0.000481388 -32.8786 -0.000289706 -23.6882 0.0628727
-32.7183 -0.000618431 -32.8884 -0.000451013 -24.4666 0.0454046
-32.725 -0.000760078 -32.8941 -0.000545394 -25.2291 0.0282947
-32.7313 -0.000891452 -32.8997 -0.000638715 -26.0071 0.010835
-32.7371 -0.00101203 -32.9067 -0.000754986 -26.4628 0.000610578
-32.7427 -0.00112875 -32.914 -0.000875707 -26.4752 0.000331301
-32.7482 -0.00124285 -32.9195 -0.000966322 -26.481 0.000200616
-32.753 -0.00134244 -32.9252 -0.00106088 -26.487 6.61446e-05
-32.7575 -0.00143716 -32.9312 -0.00116108 -26.4939 -8.93145e-05
-32.7618 -0.00152754 -32.937 -0.00125718 -26.4996 -0.000215244
-32.765 -0.00159304 -32.9336 -0.00126863 -26.5034 -0.000302355
-32.7671 -0.00163691 -32.9387 -0.00128417 -26.5062 -0.000365197
-32.7696 -0.00168822 -32.9396 -0.00130023 -26.511 -0.000472564
-32.7603 -0.00168355 -32.9403 -0.00131189 -26.5153 -0.000567673
-32.7617 -0.00168427 -32.9407 -0.00131841 -26.498 -0.000578815
-32.7607 -0.00168378 -32.9414 -0.00132936 -26.4806 -0.000575706
-32.7532 -0.00167997 -32.9422 -0.00134335 -26.4827 -0.000576072
-32.7508 -0.0016788 -32.9429 -0.00135369 -26.4831 -0.000576155
-32.7473 -0.00167704 -32.9434 -0.00136235 -26.4685 -0.000573532
-28.4543 0.000483496 -31.7634 -0.000997719 -26.4684 -0.000573518
0.0995434 0.0277605 -32.4681 -0.00121932 -5.12964 0.00322985
-15.3318 0.00867631 -31.8737 -0.0010324 -6.02562 0.003069
-16.5037 0.00702909 -32.4539 -0.00121486 -5.09978 0.00323521
-21.0528 0.000634645 -32.4232 -0.00120519 -5.21824 0.00321394
-21.198 0.000430458 -32.8744 -0.00134706 -4.98085 0.00325656
-21.3279 0.00024791 -32.9238 -0.00138674 -4.6432 0.00331717
-21.3533 0.000212118 -32.8396 -0.00136028 -4.49553 0.00334368
-21.3506 0.000211222 -32.8703 -0.0013699 -5.27148 0.00320438
-21.3586 0.000204754 -32.9124 -0.00138316 -5.73371 0.0031214
-21.3726 0.000185104 -32.8832 -0.00137396 -5.35292 0.00318976
-2.2303 0.00981399 -28.2457 8.42419e-05 0.389508 0.0365084
-15.2452 0.000250084 -3.6642 0.00781368 -2.30049 0.0800957
-15.1085 0.000238482 -12.2703 0.00781263 0.0244837 0.0604095
-15.4317 7.52432e-05 -20.1795 0.000518839 -1.51324 0.0746136
-15.5657 -5.03918e-05 -21.113 0.000170164 -4.95722 0.060063
-15.5627 -5.09458e-05 -21.093 0.000134101 -2.86443 0.0604387
-15.5832 -6.67805e-05 -20.8378 0.00021433 0.0061095 0.0614117
-15.6121 -9.38453e-05 -20.6831 0.000262972 -0.233595 0.0610789
-15.6313 -0.000111801 -20.7616 0.000238283 -0.989728 0.0591972
-15.6432 -0.000123016 -20.6989 0.000258006 -2.3337 0.0558526
-15.6592 -0.000138009 -20.5315 0.000310649 -3.21773 0.0536527
-15.6716 -0.000149655 -20.4727 0.000329126 -4.44627 0.0505953
-15.6794 -0.00015694 -20.5169 0.000315253 -6.23849 0.0461352
-15.6866 -0.000163701 -20.4871 0.000324598 -8.9703 0.0393369
-15.6906 -0.000167402 -20.4231 0.00034474 -11.8141 0.0322598
-15.6894 -0.000166912 -20.4405 0.000339263 -14.3243 0.026013
-15.6848 -0.000164579 -20.5177 0.000315002 -14.3104 0.0255424
-15.6763 -0.000160312 -20.5699 0.000298584 -13.7595 0.0256413
-15.6601 -0.000152149 -20.6153 0.000284299 -13.3093 0.0257221
-15.6394 -0.000141769 -20.6949 0.000259271 -13.0907 0.0257614
-15.6069 -0.000125412 -20.7967 0.000227274 -12.7752 0.025818
-15.5621 -0.000102875 -20.8906 0.00019774 -12.1803 0.0259248
-15.5101 -7.66652e-05 -20.9802 0.000169563 -11.5414 0.0260395
-15.4528 -4.78455e-05 -21.0801 0.000138152 -11.0771 0.0261228
-15.3929 -1.77086e-05 -21.1781 0.000107341 -10.6683 0.0261962
-15.3363 1.08016e-05 -21.2177 7.9667e-05 -10.1551 0.0262884
-15.2898 3.41807e-05 -21.2472 5.42246e-05 -9.58826 0.0263901
-15.2573 5.05539e-05 -21.2755 2.97639e-05 -9.05671 0.0264855
-15.2318 6.33558e-05 -21.2963 1.17498e-05 -8.65839 0.0265571
-15.2231 6.77454e-05 -21.3123 -2.07151e-06 -8.36663 0.0266094
-15.2198 6.94207e-05 -21.3317 -1.88151e-05 -8.04024 0.026668
-15.2317 6.34183e-05 -21.3393 -2.54041e-05 -7.69041 0.0267308
-15.2711 4.36128e-05 -21.3406 -2.6495e-05 -7.52712 0.0267601
-15.3177 2.01414e-05 -21.3425 -2.81264e-05 -7.4942 0.0267661
-15.331 1.34385e-05 -21.335 -2.58284e-05 -7.48929 0.0267669
-15.3532 2.28239e-06 -21.3065 -1.68591e-05 -7.50217 0.0267646
-15.3768 -9.60581e-06 -21.2679 -4.72834e-06 -7.57958 0.0267507
-15.4017 -2.21305e-05 -21.2331 6.21216e-06 0.303472 0.0523007
-15.5055 -7.43734e-05 -20.8751 0.000118783 -1.58899 0.0810371
-15.5064 -7.48198e-05 -20.6832 0.000179133 -3.56375 0.0742882
-15.5261 -8.47296e-05 -20.8412 0.00012946 0.000968461 0.0746267
-15.5897 -0.000116728 -20.8567 0.000124593 0.127951 0.0839201
-15.6044 -0.000124133 -20.6553 0.000187909 0.207318 0.0897287
-15.6297 -0.000136854 -20.5141 0.000232291 -1.07326 0.085894
-15.6656 -0.000154965 -20.5425 0.000223366 -2.28024 0.0816233
-15.6849 -0.000164636 -20.5397 0.000224247 -0.712175 0.0817937
-15.6976 -0.000173958 -20.4345 0.000257346 -0.00647667 0.0820422
-15.7007 -0.000178072 -20.377 0.000275401 -0.515239 0.0803874
-15.6828 -0.000169045 -20.4061 0.00026626 -1.91947 0.0758199
-15.611 -0.000132918 -20.4071 0.000265961 -3.27877 0.0713986
-15.5565 -0.000105507 -20.3871 0.000272228 -4.31854 0.0680166
-15.4707 -6.23358e-05 -20.4066 0.000266108 -5.42198 0.0644275
-15.3776 -1.54482e-05 -20.4322 0.00025805 -7.30758 0.0582943
-15.241 5.327e-05 -20.4637 0.000248163 -9.45824 0.051299
-15.052 0.000148376 -20.4233 0.000260866 -11.3743 0.0450667
-14.8034 0.000273491 -20.347 0.000284861 -13.0541 0.039603
-14.4785 0.000437021 -20.2285 0.000322122 -12.8308 0.0394926
-13.9928 0.000681425 -20.0839 0.000367594 -12.3483 0.0395792
-12.968 0.00119717 -19.8543 0.00043978 -11.8888 0.0396617
-10.7415 0.00231768 -19.5461 0.000536693 -11.6181 0.0397103
-6.88177 0.00426013 -19.1675 0.000655734 -11.408 0.039748
-3.06723 0.00617983 -18.608 0.00083167 -11.181 0.0397888
0.00150743 0.00792085 -17.6541 0.00113159 -10.8797 0.0398429
0.0140422 0.00956239 -15.7223 0.00173905 -10.5559 0.039901
0.0370184 0.0125713 -12.6701 0.00269878 -10.3016 0.0399467
0.0608658 0.0156944 -8.7026 0.00394633 -10.1542 0.0399731
0.0854993 0.0189203 -4.90959 0.005139 -10.0589 0.0399902
0.102949 0.0212055 -1.77972 0.00612316 -9.95208 0.0400094
0.114561 0.0227262 0.00813014 0.00717469 -9.37885 0.0401123
0.122883 0.0238161 0.0219144 0.00800869 -7.95457 0.040368
0.0823628 0.02417 0.0401157 0.00910995 -6.02888 0.0407137
-0.156262 0.0239373 0.0715863 0.0110141 -3.10706 0.0412382
-0.423068 0.0236109 0.106554 0.0131298 0.0032381 0.0420479
-0.914383 0.0230097 0.145808 0.0155048 0.0325726 0.0443297
-1.52592 0.0222615 0.175389 0.0172946 0.131232 0.0520041
-2.24405 0.0213828 0.183878 0.0178082 0.317827 0.0665187
-3.04856 0.0203984 -0.173318 0.017604 0.550032 0.0845812
-3.74093 0.0195512 -0.659486 0.0171935 0.759479 0.100873
-4.20453 0.018984 -1.20406 0.0167337 0.970042 0.117252
-4.68737 0.0183932 -1.52637 0.0164616 1.17147 0.132921
-5.44937 0.0174608 -1.80488 0.0162264 1.36294 0.147815
-6.12299 0.0166366 -2.28536 0.0158207 1.49919 0.158413
-6.62475 0.0160226 -2.75831 0.0154214 1.61986 0.1678
-7.08025 0.0154653 -2.82201 0.0153359 1.72289 0.175814
-7.6897 0.0147196 -1.63121 0.0157103 1.8148 0.182963
-7.98023 0.0143641 -0.224391 0.0161527 1.90322 0.189841
-8.02786 0.0142988 0.0147969 0.0171027 2.00001 0.197371
-7.81877 0.0144041 0.0578156 0.0196596 2.1033 0.205405
-7.26045 0.0146851 0.122847 0.0235248 2.21157 0.213827
-6.35495 0.0151408 0.220902 0.0293528 2.32159 0.222385
-5.35305 0.015645 0.363139 0.0378068 2.42024 0.230059
-4.12262 0.0162642 0.536828 0.0481303 2.49641 0.235984
-2.49642 0.0170826 0.731812 0.0597194 2.55198 0.240306
-0.657334 0.0180081 0.959402 0.0732464 2.58966 0.243237
0.00897318 0.0195034 1.22437 0.088995 2.61816 0.245454
0.0476519 0.0245228 1.52114 0.106634 2.63877 0.247058
0.105847 0.0320747 1.84437 0.125845 2.64678 0.24768
0.179 0.0415679 2.1913 0.146466 2.06378 0.247576
0.266958 0.0529822 2.55172 0.167888 1.08033 0.247399
0.362942 0.0654381 2.91835 0.189679 -0.000675487 0.247199
0.462336 0.0783366 3.27744 0.211022 -0.0228337 0.24699
0.557879 0.0907352 3.54392 0.22686 -0.0454943 0.246776
0.641228 0.101552 3.74343 0.238718 -0.0846946 0.246406
0.718715 0.111607 3.85843 0.245553 -0.104537 0.246219
0.792254 0.12115 3.93078 0.249854 -0.0110981 0.246236
0.86134 0.130116 4.02408 0.255399 0.0127739 0.246864
0.924013 0.138249 4.18581 0.265012 0.0573178 0.24905
0.976862 0.145107 4.43088 0.279578 0.149663 0.253583
1.02138 0.150883 4.73322 0.297548 0.283361 0.260144
1.07495 0.157836 5.03468 0.315465 0.461881 0.268905
1.12429 0.164238 5.27884 0.329978 0.652161 0.278244
1.16059 0.168949 5.44664 0.339951 0.88025 0.289437
1.17535 0.170864 5.55085 0.346144 1.12905 0.301648
0.887076 0.170787 5.63629 0.351223 1.37823 0.313877
0.459994 0.170572 5.74891 0.357917 1.60855 0.32518
-0.0238443 0.170207 5.87627 0.365486 1.80601 0.334871
-0.308872 0.168615 6.00154 0.372932 1.97348 0.34309
-0.984323 0.16484 6.09367 0.378408 2.13833 0.35118
-1.97789 0.159287 6.13705 0.380986 2.32954 0.360564
-3.01653 0.153483 5.83816 0.381191 2.57116 0.372422
-4.07704 0.147556 5.2403 0.381003 2.86673 0.386928
-5.21352 0.141205 5.4658 0.381074 3.18906 0.402747
-6.43436 0.134382 6.00096 0.381243 3.50587 0.418295
-7.65428 0.127565 6.14907 0.381701 3.78354 0.431922
-8.78111 0.121267 6.18265 0.383696 4.00231 0.442659
-9.91631 0.114923 6.261 0.388353 4.16869 0.450824
-11.0292 0.108704 6.36222 0.394369 4.32077 0.458288
-12.0377 0.103068 6.48576 0.401712 4.48447 0.466322
-12.956 0.0979362 6.6188 0.409619 4.66673 0.475266
-13.7696 0.0933889 6.73416 0.416476 4.86983 0.485234
-14.4938 0.0893421 6.81999 0.421577 5.07771 0.495436
-15.1105 0.0858954 6.8925 0.425887 5.26059 0.504411
-15.5728 0.083312 6.97714 0.430918 5.40319 0.511409
-15.9164 0.0813917 7.08329 0.437227 5.49619 0.515974
-16.1374 0.0801566 7.21174 0.444861 5.54804 0.518518
-16.1839 0.0798074 7.35269 0.453239 5.57478 0.51983
-15.6939 0.080054 7.49513 0.461705 5.59632 0.520888
-14.7662 0.0805209 7.63856 0.47023 5.61436 0.521773
-13.3672 0.0812249 7.78734 0.479073 5.01266 0.521666
-11.2423 0.0822943 7.94312 0.488332 3.38982 0.521375
-8.3567 0.0837465 8.10488 0.497946 0.846231 0.520918
-6.32039 0.0847713 8.26723 0.507596 -0.0463509 0.519854
-4.47855 0.0856982 8.38557 0.51463 -0.258452 0.51568
-2.59857 0.0866443 8.43527 0.517583 -0.617758 0.508608
-0.554593 0.087673 7.85846 0.517579 -1.06174 0.49987
0.0085509 0.0889951 6.44552 0.517135 -1.55226 0.490216
0.0266242 0.0911996 6.20223 0.517058 -1.90711 0.483232
0.0625826 0.0955857 7.1163 0.517346 -2.10657 0.479307
0.136287 0.104576 7.31812 0.517409 -2.14434 0.478523
0.257449 0.119355 6.46883 0.517142 -2.12371 0.478526
0.394419 0.136062 5.4747 0.51683 -2.17327 0.477994
0.524348 0.151911 4.9188 0.516655 -2.27087 0.476073
0.63875 0.165865 5.0159 0.516685 -2.52262 0.471118
0.745856 0.17893 5.26671 0.516764 -2.8588 0.464502
0.857958 0.192604 4.90283 0.51665 -3.1662 0.458452
0.974379 0.206804 3.38218 0.516172 -3.33762 0.455078
1.08202 0.219935 2.04601 0.515752 -3.32526 0.45455
1.17273 0.230999 0.692456 0.515326 -3.12993 0.454585
1.2376 0.238911 -0.0265053 0.514692 -3.2441 0.454564
1.28877 0.245153 -0.112917 0.513336 -3.42979 0.453264
1.33769 0.25112 -0.276897 0.510763 -3.6245 0.449432
1.39506 0.258118 -0.494934 0.507342 -3.83123 0.445363
1.45952 0.265981 -0.71971 0.503814 -3.99436 0.442152
1.52137 0.273525 -0.895701 0.501053 -4.06206 0.44082
1.57383 0.279924 -1.0308 0.498933 -3.96157 0.440795
1.61824 0.285341 -1.15036 0.497057 -3.86552 0.440813
1.66182 0.290657 -1.28475 0.494948 -4.05901 0.440778
1.71448 0.297079 -1.45982 0.4922 -4.12927 0.439497
1.77936 0.304993 -1.66146 0.489036 -4.22598 0.437594
1.84962 0.313564 -1.84334 0.486182 -4.32283 0.435688
1.91679 0.321758 -1.96665 0.484247 -4.40191 0.434131
1.98122 0.329616 -2.04316 0.483047 -4.43466 0.433487
2.04815 0.337781 -2.09062 0.482302 -4.45413 0.433104
2.12693 0.347389 -2.12894 0.481701 -4.49206 0.432357
2.2225 0.359047 -2.17264 0.481015 -4.56049 0.43101
2.33193 0.372395 -2.1999 0.480587 -4.65596 0.429131
2.44735 0.386473 -1.44941 0.480823 -4.76438 0.426997
2.56717 0.401089 -0.498836 0.481122 -4.85514 0.425211
2.69342 0.416488 0.0802167 0.48187 -4.91056 0.42412
2.82582 0.432638 0.364664 0.483967 -4.95581 0.42323
2.96381 0.44947 0.792683 0.487123 -4.99425 0.422473
3.10497 0.466688 1.34828 0.49122 -5.03859 0.421601
3.24448 0.483706 2.05486 0.496429 -5.10349 0.420323
3.38019 0.500258 2.51781 0.499843 -5.18777 0.418665
3.51007 0.516101 2.75306 0.501577 -5.28789 0.416694
3.63557 0.53141 2.75808 0.501874 -5.378 0.414921
3.75961 0.546539 2.71853 0.501861 -5.42522 0.413991
3.8788 0.561079 2.92455 0.502842 -5.43631 0.413773
3.99099 0.574763 3.30473 0.505645 -5.39946 0.41378
4.0954 0.587498 3.80772 0.509353 -5.36994 0.413785
4.19198 0.599279 4.2805 0.512839 -5.4034 0.413779
4.28051 0.610077 4.6415 0.515501 -5.42422 0.413775
4.36095 0.619889 4.92265 0.517574 -4.9977 0.413852
4.43236 0.6286 5.27389 0.520163 -3.73433 0.414079
4.49268 0.635957 5.86549 0.524525 -1.78699 0.414428
4.54144 0.641906 6.72302 0.530848 0.0082473 0.414959
4.57965 0.646566 7.7424 0.538364 0.108524 0.417507
4.60849 0.650084 8.73547 0.545686 0.339189 0.423369
4.63001 0.652709 8.93253 0.553468 0.70443 0.432651
4.64103 0.654053 8.93253 0.562971 1.176 0.444634
4.4059 0.654024 8.93253 0.574667 1.70672 0.458122
3.59649 0.653617 8.93253 0.587531 2.25209 0.471981
2.48476 0.653057 8.93253 0.599967 2.66289 0.482421
1.26853 0.652445 8.93253 0.610021 2.92116 0.488984
-0.00897823 0.651628 8.93253 0.617352 3.12181 0.494083
-0.0986605 0.649837 8.93253 0.623279 3.33987 0.499624
-0.289887 0.64602 8.93253 0.629404 3.64807 0.507457
-0.576499 0.640299 8.93253 0.636889 4.06533 0.51806
-0.910435 0.633633 8.93253 0.645288 4.54984 0.530373
-1.23558 0.627142 8.93253 0.65333 5.02697 0.542498
-1.53769 0.621112 8.93253 0.660233 5.43538 0.552877
-1.83524 0.615172 8.93253 0.666276 5.76357 0.561217
-2.14024 0.609084 8.93253 0.672486 6.05009 0.568499
-2.43878 0.603124 8.93253 0.679824 6.35316 0.5762
-2.70894 0.597731 8.93253 0.688619 6.71304 0.585346
-2.94299 0.593059 8.93253 0.698563 7.12096 0.595984
-3.11672 0.589591 8.93253 0.710485 7.12096 0.610713
-3.27855 0.586361 8.93253 0.724038 7.12096 0.627325
-3.39208 0.584094 8.93253 0.738013 7.12096 0.645781
-3.44932 0.582952 8.93253 0.754578 7.12096 0.664763
-3.38038 0.582804 8.93253 0.77262 7.12096 0.682535
-2.96721 0.583012 8.93253 0.791731 7.12096 0.697818
-2.22679 0.583385 8.93253 0.810135 7.12096 0.70989
-1.08853 0.583957 8.93253 0.827022 7.12096 0.718916
0.0049121 0.584831 8.93253 0.843105 7.12096 0.725846
0.0447205 0.587474 8.93253 0.859146 7.12096 0.732358
0.134305 0.593421 8.93253 0.875901 7.12096 0.739738
0.258649 0.601676 8.93253 0.892603 7.12096 0.747262
0.394686 0.610708 8.93253 0.909329 7.12096 0.753782
0.528979 0.619623 8.93253 0.924404 7.12096 0.758837
0.663585 0.628559 8.93253 0.937137 7.12096 0.762206
0.807178 0.638092 8.93253 0.947926 7.12096 0.764381
0.968973 0.648833 8.93253 0.957932 7.12096 0.766153
1.14237 0.660345 8.93253 0.968447 7.12096 0.768035
1.31745 0.671968 8.93253 0.980325 7.12096 0.769874
1.51657 0.685187 8.93253 0.993089 7.12096 0.771481
1.72358 0.698931 8.93253 1.00503 7.12096 0.773271
1.93035 0.712658 8.93253 1.01571 7.12096 0.774614
2.12571 0.725627 8.93253 1.0245 7.12096 0.775739
2.30733 0.737685 8.93253 1.03123 7.12096 0.777778
2.48556 0.749517 8.93253 1.03706 7.12096 0.780364
2.66185 0.76122 8.93253 1.0435 7.12096 0.783196
2.83705 0.772851 8.93253 1.05135 7.12096 0.786282
3.00301 0.78387 8.93253 1.0603 7.12096 0.7896
3.15792 0.794153 8.93253 1.0692 7.12096 0.793035
3.30961 0.804224 8.93253 1.0767 7.12096 0.796909
3.46764 0.814715 8.93253 1.08181 7.12096 0.80171
3.63137 0.825585 8.93253 1.08487 7.12096 0.807305
3.79409 0.836387 8.93253 1.08677 7.12096 0.81349
3.95059 0.846777 8.93253 1.08829 7.12096 0.82017
4.09928 0.856649 8.93253 1.08978 7.12096 0.826788
4.23863 0.8659 8.93253 1.09093 7.12096 0.833111
4.36707 0.874427 8.93253 1.09149 7.12096 0.839156
4.49636 0.88301 8.55568 1.09139 7.12096 0.845044
4.62689 0.891676 8.14384 1.09126 7.12096 0.850811
4.76106 0.900583 8.07667 1.09124 7.12096 0.856128
4.90021 0.909821 8.19928 1.09127 7.12096 0.860928
5.04483 0.919422 8.54595 1.09138 7.12096 0.864854
5.19796 0.929588 8.93253 1.09165 7.12096 0.867763
5.36054 0.940381 8.93253 1.09235 7.12096 0.869917
5.53311 0.951838 8.93253 1.09383 7.12096 0.87125
5.71458 0.963885 8.93253 1.09639 7.12096 0.871667
5.90575 0.976577 8.93253 1.09988 6.58252 0.871571
6.10211 0.989613 8.93253 1.1037 5.66309 0.871406
6.30709 1.00322 8.93253 1.10757 4.44954 0.871188
6.52283 1.01754 8.93253 1.11172 2.93688 0.870916
6.75694 1.03309 8.93253 1.11647 1.07038 0.870581
7.00143 1.04932 8.93253 1.12194 -0.01137 0.870016
7.23821 1.06504 8.93253 1.12794 -0.070778 0.868069
7.46869 1.08034 8.93253 1.13389 -0.216176 0.863304
7.70208 1.09583 8.93253 1.14036 -0.404476 0.857133
7.94404 1.11189 8.93253 1.1476 -0.607655 0.850474
8.19079 1.12828 8.93253 1.15571 -0.762843 0.845388
8.43119 1.14424 8.93253 1.1647 -0.844217 0.842721
8.6645 1.15973 8.93253 1.17382 -0.748988 0.842532
8.89804 1.17523 8.93253 1.18259 -0.467957 0.842582
8.93253 1.19132 8.93253 1.19109 -0.479032 0.84258
8.93253 1.20815 8.93253 1.19769 -0.835373 0.842516
8.93253 1.22483 8.93253 1.20292 -0.88201 0.841482
8.93253 1.24094 8.93253 1.20695 -0.923268 0.84013
8.93253 1.25643 8.93253 1.21023 -0.921101 0.839798
8.93253 1.27152 8.93253 1.21389 -0.757273 0.839827
8.93253 1.28628 8.93253 1.21901 -0.449212 0.839883
8.93253 1.30047 8.93253 1.22613 0.0131697 0.840022
8.93253 1.31366 8.93253 1.23478 0.230611 0.84099
8.93253 1.32569 8.93253 1.24385 0.676298 0.842974
8.93253 1.33681 8.93253 1.2525 1.22831 0.845432
8.93253 1.34724 8.93253 1.26021 1.58816 0.847034
8.93253 1.35711 8.93253 1.26717 1.87989 0.848333
8.93253 1.36603 8.93253 1.27431 2.07068 0.849182
8.93253 1.37371 8.93253 1.28211 2.26203 0.850034
8.93253 1.38019 8.93253 1.29055 2.55803 0.851352
8.93253 1.38564 8.93253 1.29933 2.97903 0.853227
8.93253 1.39035 8.93253 1.30799 3.45784 0.855358
8.93253 1.39442 8.93253 1.31641 3.90998 0.857371
8.93253 1.39778 8.93253 1.32491 4.30297 0.859121
8.93253 1.40044 8.93253 1.3339 4.5225 0.860098
8.93253 1.40266 8.93253 1.3433 4.82149 0.86143
8.93253 1.40476 8.93253 1.35276 5.36739 0.86386
8.93253 1.40674 8.93253 1.3622 6.01126 0.866727
8.93253 1.40859 8.93253 1.37175 6.55657 0.869155
8.93253 1.41039 8.93253 1.38168 6.92378 0.870789
8.93253 1.41228 8.93253 1.39219 7.12096 0.87245
8.93253 1.41446 8.93253 1.40323 7.12096 0.877675
8.93253 1.41707 8.93253 1.41449 7.12096 0.888136
8.93253 1.42017 8.93253 1.42576 7.12096 0.903303
8.93253 1.42389 8.93253 1.43684 7.12096 0.920036
8.93253 1.42825 8.93253 1.44791 7.12096 0.936105
8.93253 1.43308 8.93253 1.45952 7.12096 0.949584
8.93253 1.43819 8.93253 1.47204 7.12096 0.961149
8.93253 1.44361 8.93253 1.48534 7.12096 0.972231
8.93253 1.44952 8.93253 1.49908 7.12096 0.984032
8.93253 1.45604 8.93253 1.5128 7.12096 0.996757
8.93253 1.46318 8.93253 1.5263 7.12096 1.00959
8.93253 1.47075 8.93253 1.53986 7.12096 1.0215
8.93253 1.47856 8.93253 1.55396 7.12096 1.03207
8.93253 1.4866 8.93253 1.56884 7.12096 1.04173
8.93253 1.49498 8.93253 1.58432 7.12096 1.05125
8.93253 1.50368 8.93253 1.59989 7.12096 1.0611
8.93253 1.51275 8.93253 1.61517 7.12096 1.07118
8.93253 1.52258 8.93253 1.63017 7.12096 1.08101
8.93253 1.53391 8.93253 1.64498 7.12096 1.09016
8.93253 1.54566 8.93253 1.66012 7.12096 1.09865
8.93253 1.55914 8.93253 1.6764 7.12096 1.10747
8.93253 1.57365 8.93253 1.69523 7.12096 1.11643
8.93253 1.58755 8.93253 1.71434 7.12096 1.12525
8.93253 1.60068 8.93253 1.73115 7.12096 1.13434
8.93253 1.61374 8.93253 1.74581 7.12096 1.14315
8.93253 1.62726 8.93253 1.75933 7.12096 1.15086
8.93253 1.64022 8.93253 1.77167 7.12096 1.15874
8.93253 1.65108 8.93253 1.78422 7.12096 1.16649
8.93253 1.65997 8.93253 1.79641 7.12096 1.17418
8.93253 1.66823 8.93253 1.8072 7.12096 1.18194
8.93253 1.67616 8.93253 1.81634 7.12096 1.1897
8.93253 1.68322 8.93253 1.82414 7.12096 1.19764
8.93253 1.68883 8.93253 1.83136 7.12096 1.20596
8.93253 1.69311 8.93253 1.83896 7.12096 1.21468
8.93253 1.69685 8.93253 1.84723 7.12096 1.22368
8.93253 1.70042 8.93253 1.85507 7.12096 1.23278
8.93253 1.70359 8.93253 1.86181 7.12096 1.2416
8.93253 1.70632 8.93253 1.86682 7.12096 1.25007
8.93253 1.70896 8.93253 1.87018 7.12096 1.25828
8.93253 1.71177 8.93253 1.87255 7.12096 1.2664
8.93253 1.71472 8.93253 1.87449 7.12096 1.27459
8.93253 1.71761 8.93253 1.87673 7.12096 1.28275
8.93253 1.71993 8.93253 1.8798 7.12096 1.29032
8.93253 1.72224 8.93253 1.8824 7.12096 1.29728
8.93253 1.72498 8.93253 1.88411 7.12096 1.30337
8.93253 1.72806 8.93253 1.88521 7.12096 1.3082
8.93253 1.73142 8.93253 1.88581 7.12096 1.3121
8.93253 1.73498 8.93253 1.88629 7.12096 1.31545
8.93253 1.73876 8.93253 1.88723 7.12096 1.31838
8.93253 1.74282 8.93253 1.88863 7.12096 1.32092
8.93253 1.74722 8.93253 1.89008 7.12096 1.32271
8.93253 1.7519 8.93253 1.8914 7.12096 1.32343
8.93253 1.75678 8.93253 1.89284 6.5573 1.32333
8.93253 1.76176 8.93253 1.89453 5.40914 1.32312
8.93253 1.76678 8.93253 1.8966 3.80786 1.32283
8.93253 1.77167 8.93253 1.89905 1.81752 1.32248
8.93253 1.77633 8.93253 1.90159 -0.00314033 1.32199
8.93253 1.78065 8.93253 1.90394 -0.0344941 1.32044
8.93253 1.78462 8.93253 1.90624 -0.132202 1.31558
8.93253 1.78785 8.93253 1.90835 -0.2949 1.3075
8.93253 1.79053 8.93253 1.9103 -0.486929 1.29795
8.93253 1.79249 8.89274 1.91144 -0.691709 1.28778
8.93253 1.79442 8.22112 1.91123 -0.889551 1.27795
8.93253 1.79682 6.795 1.91078 -1.07024 1.26897
8.93253 1.7987 5.47209 1.91036 -1.23868 1.2606
8.93253 1.79952 4.54682 1.91007 -1.41523 1.25182
8.47125 1.79929 3.26783 1.90967 -1.59851 1.24272
7.84657 1.79897 1.08932 1.90899 -1.78304 1.23355
6.96572 1.79853 -0.0137182 1.90786 -1.95666 1.22492
5.71474 1.7979 -0.0611842 1.90514 -2.10957 1.21732
4.4475 1.79726 -0.155531 1.89973 -2.23508 1.21109
3.40597 1.79674 -0.291553 1.89194 -2.34041 1.20585
2.30548 1.79619 -0.454995 1.88258 -2.40962 1.20241
0.965824 1.79551 -0.638044 1.87209 -2.45684 1.20007
-0.00712835 1.79464 -0.824327 1.86141 -2.47853 1.19899
-0.0370275 1.79302 -1.01203 1.85066 -2.47081 1.19883
-0.0999208 1.78962 -1.21006 1.83931 -2.4412 1.19883
-0.21909 1.78318 -1.42314 1.82711 -2.48231 1.1988
-0.380262 1.77446 -1.64503 1.81439 -2.49984 1.19793
-0.561227 1.76467 -1.86315 1.8019 -2.53525 1.19617
-0.729629 1.75556 -2.07405 1.78981 -2.58192 1.19385
-0.889625 1.74691 -2.28052 1.77798 -2.6304 1.19144
-1.05069 1.73819 -2.48319 1.76637 -2.67382 1.18928
-1.21606 1.72925 -2.68571 1.75477 -2.70618 1.18768
-1.40144 1.71922 -2.85959 1.74481 -2.72665 1.18666
-1.58179 1.70947 -2.9962 1.73698 -2.73742 1.18612
-1.74733 1.70051 -3.0821 1.73206 -2.74941 1.18553
-1.88331 1.69316 -3.12732 1.72947 -2.77207 1.1844
-1.98934 1.68742 -3.16439 1.72734 -2.80967 1.18253
-2.07638 1.68271 -3.22635 1.72379 -2.86465 1.1798
-2.15448 1.67849 -3.33028 1.71784 -2.93353 1.17638
-2.22271 1.6748 -3.45226 1.71085 -3.00633 1.17276
-2.27351 1.67205 -3.57057 1.70407 -3.06985 1.1696
-2.30698 1.67024 -3.66151 1.69886 -3.11874 1.16717
-2.33135 1.66892 -3.71707 1.69568 -3.15668 1.16529
-2.34815 1.66801 -3.75513 1.6935 -3.18166 1.16405
-2.33022 1.66778 -3.79238 1.69136 -3.18285 1.16399
-1.96686 1.66796 -3.82926 1.68925 -3.22138 1.16207
-1.42885 1.66823 -3.85784 1.68761 -3.30221 1.15806
-0.773186 1.66856 -3.87552 1.6866 -3.41354 1.15253
0.000710141 1.66896 -3.8981 1.68531 -3.53168 1.14666
0.0517875 1.66971 -3.92451 1.68379 -3.63526 1.14151
0.176877 1.67154 -3.97002 1.68119 -3.70346 1.13812
0.371582 1.67438 -4.03544 1.67744 -3.73122 1.13674
0.582485 1.67746 -4.10865 1.67324 -3.69473 1.13667
0.778305 1.68033 -4.17405 1.6695 -3.63306 1.13668
0.959713 1.68298 -4.21907 1.66692 -3.73282 1.13666
1.14306 1.68566 -4.23907 1.66577 -3.75383 1.13562
1.32821 1.68837 -4.20608 1.66565 -3.80028 1.13331
1.49845 1.69085 -4.24136 1.66564 -3.85602 1.13054
1.61814 1.6926 -4.24734 1.6653 -3.90222 1.12824
1.6863 1.6936 -4.26611 1.66422 -3.92888 1.12692
1.72348 1.69414 -4.29284 1.66269 -3.89933 1.12667
1.75126 1.69455 -4.31582 1.66137 -3.46317 1.12675
1.76897 1.69481 -4.33041 1.66054 -2.76916 1.12687
1.68437 1.69477 -4.33597 1.66022 -1.94412 1.12702
1.4785 1.69467 -4.33645 1.66019 -1.10916 1.12717
1.29571 1.69458 -4.33804 1.6601 0.00136394 1.12741
1.0961 1.69448 -4.34138 1.65991 0.0306364 1.12821
0.830568 1.69434 -4.3441 1.65975 0.132512 1.13102
0.527422 1.69419 -4.25929 1.65975 0.291982 1.13541
0.181872 1.69402 -3.76261 1.65991 0.44487 1.13962
-0.00193963 1.69383 -3.11712 1.66011 0.587842 1.14355
-0.00830954 1.6935 -2.32236 1.66036 0.695897 1.14653
-0.0188662 1.69296 -1.2309 1.6607 0.769899 1.14857
-0.0322755 1.69228 0.00328642 1.66118 0.834073 1.15033
-0.0451414 1.69162 0.0400701 1.66221 0.917993 1.15264
-0.0575243 1.69099 0.105809 1.66405 1.03781 1.15594
-0.0715092 1.69027 0.217425 1.66718 1.18736 1.16006
-0.0825803 1.68971 0.368192 1.67141 1.34929 1.16452
-0.0884335 1.68941 0.544081 1.67634 1.49513 1.16853
-0.0906913 1.68929 0.727249 1.68147 1.60517 1.17156
-0.077052 1.68929 0.89749 1.68624 1.68468 1.17375
-0.0293593 1.68932 1.04756 1.69045 1.75444 1.17567
0.00492423 1.68939 1.187 1.69436 1.83808 1.17798
0.0306301 1.68971 1.3317 1.69841 1.95045 1.18107
0.0756205 1.69026 1.49469 1.70298 2.08858 1.18487
0.134008 1.69098 1.68 1.70818 2.233 1.18885
0.204156 1.69185 1.87883 1.71375 2.36135 1.19238
0.292115 1.69294 2.07571 1.71927 2.46162 1.19514
0.420993 1.69453 2.2576 1.72437 2.53819 1.19725
0.581767 1.69651 2.42264 1.72899 2.60832 1.19918
0.753762 1.69863 2.57646 1.7333 2.69286 1.20151
0.914484 1.70061 2.72982 1.7376 2.80372 1.20456
1.06324 1.70245 2.89215 1.74215 2.93563 1.20819
1.22569 1.70445 3.0629 1.74694 3.07276 1.21197
1.39178 1.7065 3.2345 1.75175 3.19705 1.21539
1.53922 1.70832 3.39999 1.75638 3.29646 1.21813
1.64985 1.70968 3.55104 1.76062 3.37591 1.22032
1.72833 1.71065 3.68724 1.76444 3.45079 1.22238
1.78827 1.71139 3.81542 1.76803 3.53577 1.22472
1.83107 1.71192 3.94271 1.7716 3.63933 1.22757
1.8366 1.71208 4.07258 1.77524 3.75758 1.23082
1.6683 1.71199 4.20386 1.77892 3.87661 1.2341
1.42078 1.71187 4.33106 1.78248 3.98132 1.23699
1.10785 1.71171 4.44721 1.78574 4.06471 1.23928
0.654436 1.71148 4.54869 1.78858 4.13032 1.24109
0.053512 1.71118 4.63589 1.79102 4.19028 1.24274
-0.0110807 1.71058 4.70984 1.7931 4.2576 1.24459
-0.048363 1.70866 4.77041 1.7948 4.33745 1.24679
-0.128855 1.7045 4.83112 1.7965 4.42235 1.24913
-0.24685 1.69842 4.88374 1.79797 4.50102 1.25129
-0.374324 1.69184 4.91531 1.79886 4.56522 1.25306
-0.490832 1.68583 4.88797 1.79907 4.60668 1.2542
-0.596103 1.6804 4.24366 1.79887 4.63031 1.25485
-0.707746 1.67464 3.33678 1.79858 4.64705 1.25531
-0.83212 1.66822 2.26028 1.79824 4.66778 1.25588
-0.958945 1.66168 0.989001 1.79784 4.69424 1.25661
-1.07706 1.65559 -0.00482805 1.79727 4.71754 1.25726
-1.18545 1.65 -0.0304867 1.79589 4.72849 1.25756
-1.28769 1.64472 -0.0873502 1.79282 4.6616 1.25755
-1.3837 1.63977 -0.175759 1.78804 4.40054 1.2575
-1.47015 1.63531 -0.284265 1.78219 3.91001 1.25742
-1.54438 1.63148 -0.400941 1.77589 3.19171 1.25729
-1.60892 1.62815 -0.517009 1.76962 2.1427 1.2571
-1.66775 1.62512 -0.61509 1.76433 0.669681 1.25683
-1.72071 1.62238 -0.693053 1.76012 -0.0075456 1.25636
-1.76329 1.62019 -0.759978 1.75651 -0.0489635 1.2544
-1.79883 1.61836 -0.8245 1.75303 -0.153676 1.24945
-1.82668 1.61692 -0.900789 1.74891 -0.30305 1.2424
-1.84425 1.61601 -0.998758 1.74362 -0.4797 1.23405
-1.84919 1.61576 -1.1141 1.73739 -0.671457 1.22499
-1.55373 1.61591 -1.23343 1.73095 -0.865818 1.21581
-1.10989 1.61613 -1.34815 1.72476 -1.06317 1.20649
-0.561275 1.61641 -1.45194 1.71916 -1.27546 1.19646
0.00502579 1.61679 -1.54757 1.714 -1.50987 1.18539
0.0258535 1.61722 -1.64107 1.70895 -1.76055 1.17354
0.0739038 1.6182 -1.73983 1.70362 -1.96912 1.16369
0.158884 1.61994 -1.84335 1.69803 -2.12037 1.15655
0.280523 1.62243 -1.96418 1.69151 -2.18505 1.15349
0.416133 1.62521 -2.0983 1.68427 -2.02379 1.15339
0.539987 1.62774 -2.24301 1.67646 -1.80096 1.15343
0.641143 1.62981 -2.39179 1.66843 -1.74735 1.15344
0.728534 1.6316 -2.52893 1.66103 -2.18977 1.15327
0.812363 1.63332 -2.63479 1.65531 -2.29008 1.14853
0.901413 1.63514 -2.71133 1.65118 -2.44277 1.14131
0.968453 1.63651 -2.77921 1.64752 -2.60097 1.13384
1.00911 1.63734 -2.85382 1.64349 -2.73073 1.12771
1.02697 1.63771 -2.94558 1.63854 -2.8081 1.12406
1.03324 1.63784 -3.05826 1.63246 -2.82991 1.12303
0.888212 1.63776 -3.17492 1.62616 -2.72198 1.12305
0.594085 1.63762 -3.28278 1.62034 -2.69878 1.12305
0.319552 1.63748 -3.37863 1.61516 -2.83343 1.12286
-0.00109237 1.63726 -3.46518 1.61049 -2.8852 1.12041
-0.0149162 1.63658 -3.55213 1.6058 -2.96711 1.11654
-0.0564777 1.63453 -3.6497 1.60053 -3.0591 1.1122
-0.120935 1.63134 -3.75391 1.59491 -3.1404 1.10836
-0.195577 1.62766 -3.85759 1.58931 -3.19164 1.10594
-0.270402 1.62396 -3.95704 1.58394 -3.19899 1.10533
-0.352344 1.61992 -4.05101 1.57887 -3.04342 1.10536
-0.454443 1.61487 -4.11856 1.57522 -2.94247 1.10538
-0.577367 1.6088 -4.17077 1.57241 -3.01362 1.10536
-0.711123 1.6022 -4.20217 1.57071 -3.20451 1.10533
-0.841707 1.59575 -4.21464 1.57004 -3.21099 1.10502
-0.964848 1.58967 -4.21885 1.56981 -3.06194 1.10503
-1.08828 1.58357 -4.22548 1.56945 -2.62815 1.10511
-1.21927 1.57711 -4.24032 1.56865 -2.0646 1.10521
-1.35849 1.57023 -4.26261 1.56745 -1.44419 1.10532
-1.49891 1.5633 -4.2854 1.56622 -0.744717 1.10544
-1.63806 1.55642 -4.29876 1.5655 -0.0555825 1.10557
-1.77615 1.54961 -4.19983 1.56548 0.00857795 1.10584
-1.91536 1.54273 -3.92827 1.56556 0.0332171 1.10659
-2.05516 1.53583 -3.77426 1.56561 0.0857241 1.1082
-2.18576 1.52938 -3.82667 1.5656 0.149575 1.11015
-2.30604 1.52344 -3.89225 1.56558 0.205969 1.11188
-2.41695 1.51796 -3.76715 1.56561 0.254869 1.11338
-2.52459 1.51265 -3.48247 1.5657 0.291587 1.1145
-2.63328 1.50728 -3.20399 1.56579 0.31737 1.11529
-2.74206 1.50191 -2.88903 1.56589 0.340816 1.116
-2.84605 1.49677 -2.51122 1.56601 0.372753 1.11698
-2.94186 1.49204 -1.89395 1.5662 0.41886 1.11839
-3.02367 1.488 -1.2133 1.56642 0.477339 1.12018
-3.09912 1.48427 -0.450018 1.56666 0.540357 1.12211
-3.17509 1.48052 0.00445757 1.56697 0.596056 1.12381
-3.25237 1.47671 0.016605 1.56744 0.641471 1.1252
-3.33279 1.47273 0.0383181 1.56828 0.677538 1.12631
-3.41144 1.46885 0.0735392 1.56964 0.709143 1.12727
-3.49304 1.46482 0.118591 1.57137 0.745538 1.12839
-3.5767 1.46069 0.16702 1.57324 0.789837 1.12974
-3.66487 1.45634 0.211811 1.57497 0.841701 1.13133
-3.76107 1.45158 0.248996 1.57641 0.897309 1.13303
-3.86336 1.44653 0.280062 1.57761 0.950801 1.13467
-3.97221 1.44116 0.303184 1.5785 0.99832 1.13612
-4.09196 1.43524 0.322624 1.57925 1.04043 1.13741
-4.22413 1.42872 0.339162 1.57989 1.08049 1.13863
-4.3651 1.42176 0.351616 1.58037 1.12392 1.13996
-4.51203 1.4145 0.364319 1.58086 1.17004 1.14137
-4.66587 1.4069 0.371424 1.58113 1.22098 1.14293
-4.82752 1.39892 0.373256 1.5812 1.27557 1.1446
-5.00171 1.39032 0.369796 1.58123 1.32823 1.14621
-5.18765 1.38114 0.356984 1.58123 1.37733 1.14771
-5.38292 1.37149 0.356178 1.58123 1.42254 1.1491
-5.58381 1.36157 0.352339 1.58123 1.4662 1.15043
-5.7884 1.35147 0.305596 1.58121 1.51007 1.15178
-5.9975 1.34114 0.143767 1.58116 1.5549 1.15315
-6.20816 1.33074 -0.00431474 1.58091 1.59625 1.15441
-6.41092 1.32073 -0.0180583 1.58026 1.63466 1.15559
-6.60048 1.31137 -0.0331793 1.57954 1.66988 1.15666
-6.7827 1.30237 -0.0575929 1.57838 1.69557 1.15745
-6.96379 1.29343 -0.0953271 1.57659 1.71318 1.15799
-7.14247 1.2846 -0.14974 1.574 1.72343 1.1583
-7.31446 1.27611 -0.217424 1.57079 1.7264 1.15839
-7.47479 1.26819 -0.292062 1.56724 1.70871 1.15839
-7.62357 1.26084 -0.369008 1.56358 1.65993 1.15838
-7.76425 1.2539 -0.446392 1.55991 1.48148 1.15835
-7.89879 1.24725 -0.52749 1.55605 0.969748 1.15826
-8.02508 1.24102 -0.620575 1.55163 0.108797 1.1581
-8.14084 1.2353 -0.732947 1.54629 -0.0143467 1.15746
-8.247 1.23006 -0.866501 1.53994 -0.0779166 1.15469
-8.3469 1.22512 -1.01562 1.53286 -0.183502 1.15009
-8.44378 1.22034 -1.17444 1.52531 -0.322218 1.14405
-8.53547 1.21581 -1.33538 1.51766 -0.487014 1.13688
-8.62321 1.21148 -1.49254 1.5102 -0.670494 1.12889
-8.70501 1.20744 -1.64697 1.50286 -0.868766 1.12025
-8.78057 1.20371 -1.80231 1.49548 -1.08459 1.11085
-8.842 1.20067 -1.95799 1.48808 -1.32506 1.10038
-8.89138 1.19824 -2.11273 1.48073 -1.52 1.09189
-8.93246 1.19621 -2.26236 1.47362 -1.65081 1.08619
-8.9751 1.1941 -2.40235 1.46697 -1.76381 1.08127
-9.01891 1.19194 -2.53719 1.46056 -1.85291 1.07739
-9.05742 1.19004 -2.67752 1.45389 -1.934 1.07386
-9.08513 1.18867 -2.83133 1.44658 -2.02427 1.06993
-9.10324 1.18777 -2.99694 1.43871 -2.13799 1.06498
-9.11863 1.18701 -3.16809 1.43058 -2.27883 1.05885
-9.13643 1.18613 -3.33973 1.42243 -2.43942 1.05185
-9.15657 1.18514 -3.5121 1.41423 -2.6056 1.04462
-9.17542 1.18421 -3.69043 1.40576 -2.76246 1.03779
-9.1907 1.18345 -3.88042 1.39673 -2.90024 1.03179
-9.20437 1.18278 -4.08372 1.38707 -3.01787 1.02666
-9.22101 1.18196 -4.29731 1.37692 -3.12295 1.02209
-9.24264 1.18089 -4.51781 1.36645 -3.22809 1.01751
-9.26811 1.17963 -4.74785 1.35552 -3.34435 1.01245
-9.29311 1.1784 -4.98165 1.34441 -3.47938 1.00656
-9.31969 1.17708 -5.22014 1.33308 -3.63134 0.999947
-9.34649 1.17576 -5.46595 1.3214 -3.78834 0.993111
-9.37485 1.17436 -5.71722 1.30946 -3.93888 0.986555
-9.40458 1.17289 -5.9711 1.29739 -4.07332 0.980701
-9.4342 1.17143 -6.22751 1.28521 -4.18882 0.97567
-9.46268 1.17002 -6.48596 1.27293 -4.29077 0.971231
-9.493 1.16853 -6.73788 1.26096 -4.39007 0.966907
-9.5314 1.16663 -6.96837 1.25001 -4.497 0.96225
-9.56556 1.16494 -7.17781 1.24005 -4.61655 0.957044
-9.59476 1.1635 -7.36537 1.23114 -4.74931 0.951263
-9.61422 1.16254 -7.53947 1.22287 -4.88907 0.945176
-9.62643 1.16194 -7.71443 1.21456 -5.02625 0.939203
-9.63282 1.16162 -7.90131 1.20568 -5.15241 0.933709
-9.61071 1.16158 -8.10286 1.1961 -5.26397 0.928851
-9.44808 1.16166 -8.31244 1.18614 -5.36158 0.9246
-9.13465 1.16182 -8.51685 1.17643 -5.45217 0.920655
-8.65243 1.16206 -8.70414 1.16753 -5.54506 0.91661
-7.98511 1.1624 -8.86927 1.15968 -5.6476 0.912144
-7.14327 1.16282 -9.01533 1.15274 -5.76288 0.907124
-6.11561 1.16334 -9.15165 1.14627 -5.8881 0.901671
-4.89161 1.16396 -9.28883 1.13975 -6.01546 0.896125
-3.47556 1.16467 -9.43311 1.13289 -6.13567 0.89089
-2.76951 1.16502 -9.57895 1.12596 -6.24188 0.886265
-2.1242 1.16535 -9.72349 1.11909 -6.33041 0.88241
-1.5124 1.16566 -9.85669 1.11276 -6.40372 0.879217
-0.768008 1.16603 -9.96076 1.10782 -6.47529 0.876101
0.000218499 1.16643 -10.0457 1.10378 -6.55044 0.872828
0.00799114 1.16698 -10.1147 1.10051 -6.63395 0.869191
0.0188113 1.16775 -10.1688 1.09793 -6.72807 0.865092
0.0354634 1.16893 -10.2111 1.09592 -6.82624 0.860817
0.0639863 1.17095 -10.2404 1.09453 -6.91786 0.856827
0.110505 1.17425 -10.25 1.09408 -6.99407 0.853509
0.176772 1.17895 -9.60964 1.09428 -7.04868 0.85113
0.249462 1.1841 -8.97907 1.09448 -7.08644 0.849486
0.318296 1.18898 -8.42069 1.09465 -7.11431 0.848272
0.377262 1.19316 -7.54807 1.09493 -7.14028 0.847142
0.428664 1.1968 -6.25217 1.09533 -7.16636 0.846006
0.475176 1.2001 -4.52498 1.09588 -7.19262 0.844862
0.515278 1.20294 -2.59378 1.09648 -7.21623 0.843834
0.543179 1.20492 -1.48832 1.09683 -7.23044 0.843215
0.510878 1.20548 -1.26544 1.0969 -7.2219 0.843138
-0.00219448 1.20515 -0.771364 1.09706 -6.99108 0.843179
-0.0290837 1.20417 -0.286331 1.09721 -5.88003 0.843379
-0.0960716 1.20172 0.00259356 1.09754 -4.43171 0.843639
-0.210511 1.19755 0.00886467 1.09811 -2.56572 0.843974
-0.35413 1.19231 0.0175278 1.0989 0.000155548 0.844445
-0.513741 1.18648 0.0313862 1.10016 0.0218595 0.845905
-0.68334 1.1803 0.054751 1.10229 0.0807382 0.849865
-0.84834 1.17428 0.0865759 1.10519 0.199398 0.857847
-1.01628 1.16815 0.121522 1.10838 0.35935 0.868606
-1.21821 1.16078 0.159926 1.11188 0.538934 0.880686
-1.45063 1.1523 0.194612 1.11504 0.7235 0.893101
-1.70262 1.14311 0.225063 1.11781 0.906273 0.905395
-1.96322 1.1336 0.254391 1.12049 1.08302 0.917284
-2.22674 1.12399 0.282311 1.12303 1.22405 0.926771
-2.49762 1.11411 0.308285 1.1254 1.36769 0.936433
-2.78602 1.10358 0.33616 1.12794 1.50543 0.945698
-3.08795 1.09257 0.381241 1.13205 1.6377 0.954595
-3.39116 1.08151 0.440649 1.13746 1.77023 0.96351
-3.69332 1.07048 0.51993 1.14469 1.9052 0.972588
-3.98982 1.05967 0.612574 1.15313 2.04573 0.982041
-4.28345 1.04895 0.705433 1.1616 2.19204 0.991883
-4.57619 1.03827 0.787048 1.16903 2.33934 1.00179
-4.85866 1.02797 0.858534 1.17555 2.48145 1.01135
-5.13541 1.01787 0.929495 1.18202 2.60886 1.01992
-5.4069 1.00797 1.00126 1.18856 2.72523 1.02775
-5.66095 0.998697 1.08045 1.19578 2.83374 1.03505
-5.9085 0.989665 1.17236 1.20415 2.93227 1.04167
-6.14658 0.980979 1.27063 1.21311 3.02572 1.04796
-6.37241 0.97274 1.3621 1.22145 3.11987 1.05429
-6.58563 0.964961 1.43966 1.22852 3.21386 1.06062
-6.78732 0.957603 1.50858 1.2348 3.30385 1.06667
-6.97437 0.950778 1.57181 1.24056 3.38889 1.07239
-7.14533 0.944541 1.63504 1.24632 3.46627 1.07759
-7.30005 0.938896 1.70377 1.25259 3.53164 1.08199
-7.41803 0.934592 1.77148 1.25876 3.58523 1.0856
-7.51625 0.931009 1.83056 1.26415 3.63016 1.08862
-7.60218 0.927874 1.88305 1.26893 3.66755 1.09113
-7.68933 0.924694 1.92722 1.27296 3.70237 1.09348
-7.78044 0.92137 1.96635 1.27652 3.73824 1.09589
-7.87096 0.918068 2.0049 1.28004 3.77138 1.09812
-7.96354 0.91469 2.04192 1.28341 3.79599 1.09977
-8.05931 0.911196 2.07461 1.28639 3.81047 1.10075
-8.16475 0.907349 2.09964 1.28867 3.8147 1.10103
-8.27782 0.903224 2.11544 1.29011 3.57165 1.10099
-8.39488 0.898953 2.12082 1.2906 3.20735 1.10092
-8.5156 0.894549 1.70092 1.29047 2.73675 1.10084
-8.64664 0.889768 0.904547 1.29022 2.05567 1.10072
-8.79546 0.884339 -0.00296335 1.28982 1.1135 1.10055
-8.96697 0.878081 -0.0355743 1.28855 -0.000454207 1.10033
-9.15766 0.871125 -0.119437 1.2853 -0.0120466 1.09985
-9.35873 0.863789 -0.256507 1.27998 -0.0428029 1.09858
-9.57021 0.856073 -0.432413 1.27315 -0.10139 1.09615
-9.79455 0.847889 -0.628876 1.26552 -0.181158 1.09285
-10.0275 0.839391 -0.830908 1.25768 -0.272584 1.08907
-10.2545 0.831107 -1.02901 1.24998 -0.371138 1.08499
-10.4743 0.82309 -1.22644 1.24232 -0.477441 1.08059
-10.6993 0.814881 -1.45484 1.23345 -0.586649 1.07607
-10.9356 0.806258 -1.72735 1.22287 -0.69737 1.07149
-11.1777 0.797428 -2.01898 1.21155 -0.815675 1.06659
-11.4137 0.788818 -2.31285 1.20014 -0.944998 1.06124
-11.6388 0.780603 -2.57867 1.18982 -1.08933 1.05526
-11.8547 0.772728 -2.81289 1.18073 -1.24851 1.04868
-12.0592 0.765265 -3.0353 1.17209 -1.42487 1.04138
-12.2584 0.757998 -3.27896 1.16263 -1.62004 1.0333
-12.4431 0.751262 -3.57307 1.15122 -1.83182 1.02454
-12.605 0.745353 -3.92557 1.13753 -2.03496 1.01613
-12.7449 0.74025 -4.31773 1.12231 -2.21915 1.00851
-12.8679 0.735764 -4.71804 1.10676 -2.38237 1.00175
-13.0013 0.730894 -5.09665 1.09207 -2.48394 0.997548
-13.122 0.726492 -5.42665 1.07925 -2.59715 0.992862
-13.2191 0.72295 -5.7181 1.06794 -2.76532 0.985903
-13.2673 0.721191 -6.0006 1.05697 -3 0.97619
-13.2165 0.720959 -6.3093 1.04499 -3.28431 0.964424
-12.8207 0.721158 -6.66621 1.03113 -3.58075 0.952156
-12.2275 0.721456 -7.06634 1.0156 -3.85538 0.94079
-11.3266 0.72191 -7.48367 0.999393 -4.09271 0.930968
-10.0495 0.722552 -7.88375 0.98386 -4.30115 0.922342
-8.38383 0.723391 -8.24167 0.969965 -4.51343 0.913556
-6.40326 0.724387 -8.5574 0.957707 -4.76427 0.903175
-4.16762 0.725513 -8.85234 0.946257 -5.07368 0.89037
-3.26142 0.725969 -9.15372 0.934556 -5.43703 0.875333
-2.08284 0.726562 -9.48049 0.92187 -5.82233 0.859387
-0.902967 0.727155 -9.80899 0.909116 -6.19188 0.844093
0.00224579 0.727879 -10.1138 0.897282 -6.5251 0.830303
0.0105666 0.728878 -10.4128 0.885674 -6.81049 0.818491
0.0243934 0.730537 -10.7121 0.874054 -7.06794 0.807837
0.0474966 0.73331 -10.9957 0.863045 -7.34097 0.796538
0.0866234 0.738005 -11.2798 0.852014 -7.64998 0.783749
0.150987 0.745728 -11.5698 0.840756 -7.9946 0.769487
0.233338 0.755611 -11.8475 0.829975 -8.36019 0.754356
0.320058 0.766017 -12.1079 0.819864 -8.7168 0.739598
0.399619 0.775564 -12.3595 0.810096 -9.03514 0.726423
0.472645 0.784328 -12.606 0.800525 -9.30722 0.715163
0.543992 0.792889 -12.8558 0.790828 -9.54321 0.705397
0.61716 0.80167 -13.1125 0.780864 -9.76337 0.696285
0.688993 0.81029 -13.3696 0.770882 -9.98913 0.686942
0.754241 0.818119 -13.619 0.7612 -10.2306 0.67695
0.811369 0.824975 -13.859 0.751882 -10.4817 0.666556
0.8626 0.831123 -14.0932 0.742789 -10.7247 0.656502
0.910094 0.836822 -14.3268 0.73372 -10.9383 0.647661
0.953455 0.842025 -14.5632 0.724543 -11.1084 0.640621
0.990532 0.846475 -14.8007 0.715319 -11.2344 0.635405
1.02015 0.850029 -15.034 0.706264 -11.3278 0.63154
1.04092 0.852522 -15.2564 0.697628 -11.3661 0.629956
1.05097 0.853727 -15.4577 0.689813 -11.3769 0.629508
0.971221 0.85403 -15.6461 0.682499 -11.2746 0.629526
0.591225 0.853839 -15.8309 0.675324 -11.1866 0.629542
0.189939 0.853637 -16.0135 0.668238 -11.2466 0.629531
-0.0102197 0.853276 -16.1884 0.661446 -11.3291 0.629516
-0.061288 0.851949 -16.3496 0.655188 -10.818 0.629608
-0.199942 0.848346 -16.4805 0.650104 -9.74897 0.6298
-0.410399 0.842877 -16.578 0.646318 -8.21252 0.630075
-0.643175 0.836829 -16.6475 0.643624 -6.27382 0.630423
-0.848357 0.831497 -16.6926 0.641873 -3.99114 0.630833
-1.03027 0.826771 -16.7165 0.640945 -1.32603 0.631312
-1.22908 0.821604 -16.5549 0.640847 0.004626 0.631999
-1.46973 0.815351 -15.4758 0.641186 0.0220195 0.633689
-1.72158 0.808807 -14.152 0.641603 0.0536709 0.636764
-1.95773 0.802671 -12.7722 0.642036 0.115188 0.642741
-2.18378 0.796797 -10.7615 0.642669 0.202239 0.651199
-2.4212 0.790628 -7.8923 0.643571 0.300469 0.660744
-2.67496 0.784034 -4.07425 0.644771 0.397482 0.670169
-2.92971 0.777415 -0.170685 0.645999 0.487512 0.678917
-3.18012 0.770908 0.0115919 0.647695 0.576114 0.687525
-3.45271 0.763825 0.0357403 0.651116 0.668989 0.696549
