-0.916733 -3.16115e-05 -1.61328 -5.56304e-05 -0.275096 -9.48607e-06
-0.909277 -3.13544e-05 -1.61452 -5.56731e-05 -0.274884 -9.47874e-06
-0.891543 -3.07429e-05 -1.61765 -5.57809e-05 -0.274089 -9.45133e-06
-0.854774 -2.9475e-05 -1.62262 -5.59523e-05 -0.273082 -9.41661e-06
-0.812771 -2.80266e-05 -1.62749 -5.61202e-05 -0.272371 -9.3921e-06
-0.758434 -2.61529e-05 -1.63259 -5.62964e-05 -0.272185 -9.3857e-06
-0.690627 -2.38147e-05 -1.6372 -5.6455e-05 -0.272796 -9.40676e-06
-0.60814 -2.09703e-05 -1.64032 -5.65627e-05 -0.274618 -9.46959e-06
-0.509653 -1.75743e-05 -1.64103 -5.65873e-05 -0.278082 -9.58902e-06
-0.39373 -1.35769e-05 -1.63841 -5.6497e-05 -0.283602 -9.77937e-06
-0.259039 -8.93238e-06 -1.63133 -5.62529e-05 -0.291537 -1.0053e-05
-0.105315 -3.63156e-06 -1.6185 -5.58103e-05 -0.302172 -1.04197e-05
0.066602 2.29662e-06 -1.59886 -5.51332e-05 -0.315573 -1.08818e-05
0.260406 8.97953e-06 -1.57007 -5.41402e-05 -0.332275 -1.14578e-05
0.46972 1.61973e-05 -1.53056 -5.2778e-05 -0.352205 -1.2145e-05
0.6905 2.38104e-05 -1.47844 -5.09806e-05 -0.375308 -1.29417e-05
0.91745 3.16362e-05 -1.41177 -4.86817e-05 -0.401219 -1.38351e-05
1.14418 3.94544e-05 -1.32904 -4.5829e-05 -0.429242 -1.48014e-05
1.36404 4.70359e-05 -1.22923 -4.23872e-05 -0.458264 -1.58022e-05
1.57053 5.4156e-05 -1.11199 -3.83446e-05 -0.486843 -1.67877e-05
1.75694 6.0584e-05 -0.977606 -3.37106e-05 -0.512863 -1.76849e-05
1.91573 6.60595e-05 -0.826982 -2.85166e-05 -0.533767 -1.84057e-05
2.03808 7.02787e-05 -0.660499 -2.27758e-05 -0.546723 -1.88525e-05
2.11345 7.28776e-05 -0.477342 -1.64601e-05 -0.548748 -1.89223e-05
2.12929 7.34239e-05 -0.286765 -9.88844e-06 -0.53717 -1.85231e-05
2.07312 7.14869e-05 -0.0892499 -3.07758e-06 -0.50758 -1.75028e-05
1.9338 6.66828e-05 0.110293 3.80322e-06 -0.456697 -1.57482e-05
1.7066 5.88481e-05 0.304658 1.05055e-05 -0.380047 -1.31051e-05
1.39537 4.81161e-05 0.484986 1.67237e-05 -0.273626 -9.43537e-06
1.01242 3.49112e-05 0.640804 2.20967e-05 -0.134472 -4.63695e-06
0.580953 2.00329e-05 0.761359 2.62538e-05 0.0465435 1.60495e-06
0.104299 3.59652e-06 0.834935 2.87909e-05 0.270797 9.33784e-06
-0.395567 -1.36403e-05 0.8557 2.95069e-05 0.53553 1.84665e-05
-0.908125 -3.13146e-05 0.816316 2.81488e-05 0.839079 2.89338e-05
-1.42443 -4.91183e-05 0.713559 2.46055e-05 1.17763 4.0608e-05
-1.93988 -6.68923e-05 0.547321 1.88731e-05 1.54485 5.32707e-05
-2.44967 -8.44715e-05 0.319744 1.10257e-05 1.93243 6.66355e-05
-2.95087 -0.000101754 0.0357458 1.23261e-06 2.32929 8.03205e-05
-3.44288 -0.00011872 -0.299678 -1.03337e-05 2.72354 9.39153e-05
-3.92481 -0.000135338 -0.671147 -2.3143e-05 3.1004 0.00010691
-4.39291 -0.00015148 -1.07265 -3.6988e-05 3.44888 0.000118927
-4.84283 -0.000166994 -1.49694 -5.16187e-05 3.75407 0.000129451
-5.26821 -0.000181662 -1.93443 -6.67046e-05 4.00281 0.000138028
-5.65885 -0.000195133 -2.37606 -8.1933e-05 4.18258 0.000144227
-6.0031 -0.000207003 -2.81266 -9.69883e-05 4.28226 0.000147664
-6.29237 -0.000216978 -3.23666 -0.000111609 4.29163 0.000147987
-6.52331 -0.000224942 -3.63958 -0.000125503 4.20276 0.000144923
-6.70124 -0.000231077 -4.00997 -0.000138275 4.00933 0.000138253
-6.84018 -0.000235868 -4.33835 -0.000149598 3.70712 0.000127832
-6.9618 -0.000240062 -4.61737 -0.00015922 3.29425 0.000113595
-7.13319 -0.000245972 -4.8872 -0.000168524 2.62482 9.0511e-05
-7.38743 -0.000254739 -5.06117 -0.000174523 1.79521 6.19037e-05
-7.78926 -0.000268595 -5.13964 -0.000177229 0.824844 2.84429e-05
-8.38988 -0.000289306 -5.13685 -0.000177133 -0.259408 -8.9451e-06
-9.21924 -0.000317905 -5.0812 -0.000175214 -1.3896 -4.79172e-05
-10.2818 -0.000354546 -5.01095 -0.000172791 -2.55038 -8.79443e-05
-11.5531 -0.000398381 -4.97408 -0.00017152 -3.69237 -0.000127323
-12.9814 -0.000447636 -5.02717 -0.000173351 -4.76461 -0.000164297
-14.5038 -0.00050013 -5.2251 -0.000180176 -5.72541 -0.000197428
-16.0651 -0.000553967 -5.61306 -0.000193554 -6.54069 -0.000225541
-17.6309 -0.000607962 -6.22112 -0.000214521 -7.18766 -0.00024785
-19.1858 -0.000661578 -7.06343 -0.000243567 -7.65622 -0.000264007
-20.7256 -0.000714675 -8.13742 -0.000280601 -7.9525 -0.000274224
-22.2512 -0.000767284 -9.42454 -0.000324984 -8.0974 -0.000279221
-23.7613 -0.000819356 -10.8937 -0.000375646 -8.12308 -0.000280106
-25.2439 -0.000870478 -12.5053 -0.000431216 -8.07058 -0.000278296
-26.677 -0.000919895 -14.2124 -0.000490084 -7.98786 -0.000275443
-28.04 -0.000966896 -15.9621 -0.000550417 -7.92817 -0.000273385
-29.3236 -0.00101116 -17.6967 -0.000610231 -7.94598 -0.000273999
-30.5299 -0.00105276 -19.3583 -0.000667526 -8.09309 -0.000279072
-31.6652 -0.0010919 -20.8927 -0.00072044 -8.41462 -0.000290159
-32.7278 -0.00112854 -22.2556 -0.000767434 -8.94588 -0.000308479
-33.701 -0.0011621 -23.4156 -0.000807434 -9.70919 -0.0003348
-34.5627 -0.00119182 -24.3545 -0.000839811 -10.7125 -0.000369397
-35.2963 -0.00121711 -25.0659 -0.00086434 -11.9494 -0.000412047
-35.8938 -0.00123772 -25.5544 -0.000881186 -13.3995 -0.00046205
-36.3564 -0.00125367 -25.8349 -0.000890859 -15.0297 -0.000518264
-36.6939 -0.00126531 -25.9309 -0.000894169 -16.7955 -0.000579154
-36.9245 -0.00127326 -25.8731 -0.000892175 -18.6432 -0.000642868
-37.0725 -0.00127836 -25.6976 -0.000886125 -20.5125 -0.000707328
-37.1644 -0.00128153 -25.4445 -0.000877398 -22.3396 -0.00077033
-37.2273 -0.0012837 -25.1551 -0.000867417 -24.0599 -0.000829652
-37.2902 -0.00128587 -24.8692 -0.000857559 -25.6118 -0.000883165
-37.3866 -0.00128919 -24.6228 -0.000849063 -26.9394 -0.000928945
-37.5523 -0.00129491 -24.446 -0.000842964 -27.9955 -0.000965362
-37.8197 -0.00130413 -24.3626 -0.000840088 -28.7433 -0.000991148
-38.2041 -0.00131738 -24.3913 -0.00084108 -29.1574 -0.00100543
-38.6936 -0.00133426 -24.5467 -0.000846437 -29.2249 -0.00100775
-39.2487 -0.0013534 -24.8372 -0.000856456 -28.9457 -0.000998129
-39.8132 -0.00137287 -25.2628 -0.00087113 -28.3346 -0.000977055
-40.2302 -0.00138725 -25.6932 -0.000885972 -27.6258 -0.000952614
-40.6583 -0.00140201 -26.3246 -0.000907747 -26.5003 -0.000913803
-40.9349 -0.00141155 -27.0271 -0.000931969 -25.1592 -0.000867558
-41.0186 -0.00141444 -27.7542 -0.000957043 -23.6664 -0.000816082
-40.8727 -0.00140941 -28.4519 -0.000981101 -22.0926 -0.000761814
-40.4604 -0.00139519 -29.0619 -0.00100214 -20.5111 -0.000707279
-39.747 -0.00137059 -29.5246 -0.00101809 -18.9937 -0.000654955
-38.7016 -0.00133454 -29.7825 -0.00102698 -17.607 -0.000607136
-37.2967 -0.00128609 -29.7837 -0.00102703 -16.4082 -0.000565799
-35.5113 -0.00122453 -29.4841 -0.00101669 -15.4422 -0.00053249
-33.3334 -0.00114943 -28.8491 -0.000994798 -14.7389 -0.000508237
-30.7592 -0.00106066 -27.8561 -0.000960557 -14.3111 -0.000493485
-27.7972 -0.000958523 -26.4948 -0.000913614 -14.1536 -0.000488057
-24.4757 -0.000843991 -24.766 -0.000854001 -14.2439 -0.000491168
-20.8522 -0.000719041 -22.6807 -0.000782094 -14.5423 -0.000501459
-17.0076 -0.000586468 -20.2609 -0.000698651 -14.9939 -0.000517031
-13.0278 -0.000449235 -17.5423 -0.000604907 -15.5291 -0.000535485
-8.99474 -0.000310163 -14.5743 -0.000502562 -16.0659 -0.000553997
-4.98781 -0.000171993 -11.4168 -0.000393684 -16.5146 -0.000569471
-1.08393 -3.73769e-05 -8.13837 -0.000280633 -16.7816 -0.000578676
2.62553 9.05356e-05 -4.8212 -0.000166248 -16.7716 -0.00057833
6.11465 0.00021085 -1.4773 -5.09415e-05 -16.4026 -0.000565605
9.31858 0.00032133 1.72498 5.94819e-05 -15.6122 -0.00053835
12.2203 0.000421388 4.76308 0.000164244 -14.3154 -0.000493636
14.8304 0.000511393 7.56464 0.00026085 -12.4745 -0.000430154
17.1627 0.000591818 10.065 0.000347068 -10.069 -0.000347206
19.2216 0.000662815 12.2347 0.000421887 -7.10592 -0.000245032
21.0008 0.000724165 14.0747 0.000485334 -3.61326 -0.000124595
22.4891 0.000775487 15.5941 0.000537726 0.343754 1.18536e-05
23.6944 0.000817049 16.8093 0.00057963 4.79814 0.000165453
24.6544 0.000850151 17.7612 0.000612456 9.53083 0.000328649
25.4368 0.000877133 18.5005 0.000637947 14.4538 0.000498408
26.1242 0.000900835 19.0732 0.000657697 19.4412 0.000670387
26.7985 0.000924087 19.5342 0.000673592 24.348 0.000839586
27.5423 0.000949733 19.9448 0.000687751 29.0434 0.0010015
28.4385 0.000980639 20.3671 0.000702315 33.4025 0.00115181
29.5686 0.00101961 20.8565 0.00071919 37.3098 0.00128654
31.0039 0.0010691 21.4631 0.000740106 40.6599 0.00140206
32.8096 0.00113137 22.1742 0.000764628 41.504 0.00143117
35.0422 0.00120835 22.7796 0.000785503 41.737 0.00143921
37.5612 0.00129521 23.9035 0.00082426 42.0316 0.00144936
40.4035 0.00139323 25.2846 0.000871883 42.0838 0.00145117
43.4221 0.00149732 27.0891 0.000934108 41.6824 0.00143732
46.5734 0.00160599 29.0772 0.00100266 40.8402 0.00140828
49.7501 0.00171553 31.2853 0.0010788 39.6329 0.00136665
52.8787 0.00182342 33.6685 0.00116098 37.9338 0.00130806
55.3576 0.0019089 36.1509 0.00124658 35.6906 0.00123071
58.0028 0.00200012 38.6139 0.00133151 33.2021 0.0011449
59.1636 0.00204016 40.8373 0.00140818 30.7568 0.00106058
59.6884 0.00205826 42.5748 0.0014681 28.5493 0.00098446
60.3911 0.00208249 44.418 0.00153166 26.145 0.000901553
61.1245 0.00210779 45.7878 0.00157889 24.0376 0.000828884
61.4966 0.00212062 46.8206 0.00161451 22.2678 0.000767856
61.7919 0.0021308 47.4471 0.00163611 20.9592 0.000722731
62.0266 0.0021389 47.6664 0.00164367 20.0224 0.000690427
62.0248 0.00213884 47.3889 0.0016341 19.5244 0.000673256
61.8603 0.00213316 46.6932 0.00161011 19.5026 0.000672504
61.5192 0.0021214 45.6157 0.00157296 19.9395 0.00068757
60.8602 0.00209868 44.1186 0.00152133 20.7681 0.000716143
59.9752 0.00206816 42.298 0.00145855 21.889 0.000754793
58.9709 0.00203353 40.2236 0.00138702 23.241 0.000801414
57.94 0.00199798 37.9763 0.00130953 24.7327 0.000852852
57.0055 0.00196576 35.6499 0.00122931 26.2348 0.000904649
55.1868 0.00190305 33.5451 0.00115673 27.5817 0.000951094
52.8963 0.00182406 31.9187 0.00110065 28.5231 0.000983554
50.672 0.00174736 30.1025 0.00103802 29.4161 0.00101435
48.9924 0.00168944 28.6679 0.000988551 29.8042 0.00102773
47.7815 0.00164769 27.4955 0.000948124 29.8131 0.00102804
46.9677 0.00161963 26.5349 0.000914998 29.3908 0.00101348
46.6748 0.00160953 25.8921 0.000892833 28.5186 0.000983399
46.922 0.00161805 25.5901 0.000882418 27.1986 0.000937884
47.6321 0.00164254 25.5844 0.000882222 25.4546 0.000877743
48.6789 0.00167863 25.8925 0.000892846 23.337 0.000804725
49.8613 0.00171941 26.5452 0.000915355 20.9057 0.000720885
51.0936 0.0017619 27.4829 0.000947688 18.2539 0.000629444
52.3102 0.00180385 28.6562 0.000988148 15.4707 0.000533471
53.4176 0.00184204 29.9992 0.00103446 12.6763 0.000437116
54.3152 0.00187299 31.4386 0.00108409 9.99825 0.000344768
54.9317 0.00189425 32.8917 0.0011342 7.55684 0.000260581
55.2102 0.00190385 34.2668 0.00118162 5.46592 0.00018848
55.1615 0.00190217 35.2508 0.00121555 4.11866 0.000142023
54.859 0.00189174 36.0863 0.00124436 3.11426 0.000107388
54.2958 0.00187232 36.7352 0.00126673 2.49189 8.59274e-05
53.4679 0.00184377 37.1644 0.00128153 2.27879 7.85791e-05
52.3767 0.00180614 37.3485 0.00128788 2.49011 8.5866e-05
51.0286 0.00175966 37.2711 0.00128521 3.12935 0.000107909
49.4327 0.00170463 36.9248 0.00127327 4.18794 0.000144412
47.5977 0.00164135 36.3112 0.00125211 5.64414 0.000194625
45.5305 0.00157007 35.4418 0.00122213 7.46282 0.000257339
43.2363 0.00149096 34.3372 0.00118404 9.59674 0.000330922
40.7188 0.00140415 33.0261 0.00113883 11.9886 0.000413402
37.9849 0.00130987 31.5426 0.00108768 14.5735 0.000502536
35.0508 0.0012087 29.923 0.00103183 17.2808 0.000595889
31.9445 0.00110159 28.2045 0.00097257 20.0361 0.000690899
28.7074 0.000989962 26.4231 0.000911142 22.7634 0.000784945
25.3905 0.000875585 24.6128 0.000848721 25.3874 0.000875427
22.0478 0.00076032 22.806 0.000786417 27.8349 0.000959826
18.7288 0.000645873 21.033 0.000725276 30.0368 0.00103575
15.4753 0.000533682 19.3216 0.000666263 31.9293 0.00110101
12.3213 0.000424923 17.6965 0.000610226 33.4554 0.00115363
9.29554 0.000320587 16.1778 0.000557858 34.5667 0.00119196
6.42218 0.000221505 14.7801 0.000509662 35.225 0.00121465
3.71997 0.000128326 13.5123 0.000465943 35.4025 0.00122078
1.20037 4.14429e-05 12.3773 0.000426805 35.083 0.00120976
-1.13172 -3.8974e-05 11.3722 0.000392148 34.2616 0.00118143
-2.88626 -9.94752e-05 10.5459 0.000363655 32.927 0.00113541
-4.6123 -0.000158994 9.83329 0.000339081 31.097 0.00107231
-6.17132 -0.000212753 9.15456 0.000315677 28.8617 0.000995232
-7.27962 -0.000250971 8.52621 0.000294009 26.1937 0.000903233
-8.13813 -0.000280574 7.81812 0.000269592 23.2364 0.000801254
-8.95706 -0.000308813 7.22418 0.000249112 19.9094 0.000686532
-9.6881 -0.000334021 6.53774 0.000225441 16.3669 0.000564376
-10.3508 -0.000356874 5.83063 0.000201058 12.605 0.000434656
-10.9928 -0.000379011 5.04466 0.000173956 8.71885 0.00030065
-11.636 -0.00040119 4.17227 0.000143873 4.75596 0.000163999
-12.2925 -0.000423829 3.1839 0.000109792 0.776435 2.67737e-05
-12.9869 -0.000447772 2.06612 7.12476e-05 -2.62317 -9.04541e-05
-13.7572 -0.000474336 0.853322 2.9427e-05 -5.99309 -0.000206658
-14.5998 -0.00050339 -0.562254 -1.9386e-05 -9.24468 -0.000318782
-15.5582 -0.000536439 -2.13051 -7.34639e-05 -12.3482 -0.0004258
-16.6405 -0.000573761 -3.85055 -0.000132776 -15.2055 -0.000524328
-17.8773 -0.000616408 -5.73385 -0.000197717 -17.8462 -0.000615386
-19.277 -0.000664674 -7.75979 -0.000267577 -20.2947 -0.000699816
-20.8477 -0.000718834 -9.90472 -0.00034154 -22.5513 -0.000777631
-22.5929 -0.000779016 -12.1556 -0.000419156 -24.5837 -0.000847715
-24.5071 -0.000845024 -14.5011 -0.000500037 -26.364 -0.000909105
-26.5754 -0.000916343 -16.9203 -0.000583457 -27.8983 -0.00096201
-28.777 -0.00099226 -19.3856 -0.000668469 -29.2171 -0.00100749
-31.0883 -0.00107196 -21.8702 -0.000754143 -30.3494 -0.00104653
-33.4828 -0.00115453 -24.3512 -0.000839696 -31.3075 -0.00107957
-35.9333 -0.00123903 -26.8063 -0.000924355 -32.0954 -0.00110674
-38.4137 -0.00132457 -29.2099 -0.00100723 -32.727 -0.00112852
-40.8993 -0.00141028 -31.534 -0.00108738 -33.2312 -0.0011459
-43.3653 -0.00149532 -33.7531 -0.0011639 -33.6423 -0.00116008
-45.7855 -0.00157878 -35.8457 -0.00123606 -33.9862 -0.00117194
-48.1329 -0.00165973 -37.7939 -0.00130324 -34.279 -0.00118203
-50.3792 -0.00173719 -39.5818 -0.00136489 -34.5336 -0.00119082
-52.4958 -0.00181019 -41.1962 -0.00142056 -34.7673 -0.00119887
-54.4563 -0.0018778 -42.6273 -0.00146991 -35 -0.0012069
-56.237 -0.00193922 -43.8687 -0.00151271 -35.2477 -0.00121544
-57.8168 -0.00199371 -44.9174 -0.00154888 -35.5187 -0.00122478
-58.0936 -0.00200326 -45.6549 -0.00157431 -35.8408 -0.00123589
-58.0503 -0.00200176 -45.6855 -0.00157536 -36.3661 -0.001254
-58.1241 -0.00200431 -46.18 -0.00159241 -36.7288 -0.00126651
-58.2207 -0.00200764 -46.3897 -0.00159964 -37.065 -0.0012781
-58.1236 -0.00200429 -46.2645 -0.00159533 -37.5345 -0.00129429
-57.9565 -0.00199853 -46.2249 -0.00159396 -37.8777 -0.00130613
-57.9055 -0.00199677 -46.036 -0.00158745 -38.2224 -0.00131801
-57.7522 -0.00199148 -45.7575 -0.00157785 -38.5104 -0.00132794
-57.3647 -0.00197812 -45.2971 -0.00156197 -38.7596 -0.00133654
-56.8272 -0.00195958 -44.6894 -0.00154102 -38.9887 -0.00134444
-56.2086 -0.00193826 -44.0008 -0.00151727 -39.1432 -0.00134977
-55.4582 -0.00191238 -43.1993 -0.00148963 -39.232 -0.00135283
-54.5988 -0.00188274 -42.2937 -0.0014584 -39.2181 -0.00135235
-53.7062 -0.00185196 -41.2972 -0.00142404 -39.0862 -0.0013478
-52.8045 -0.00182087 -40.2313 -0.00138729 -38.8276 -0.00133888
-51.898 -0.00178961 -39.111 -0.00134866 -38.4329 -0.00132527
-51.0186 -0.00175929 -37.9495 -0.0013086 -37.8825 -0.00130629
-50.1981 -0.001731 -36.7602 -0.00126759 -37.1584 -0.00128133
-49.4451 -0.00170503 -35.5573 -0.00122612 -36.2544 -0.00125015
-48.7632 -0.00168152 -34.3595 -0.00118481 -35.1705 -0.00121278
-48.1631 -0.00166082 -33.1848 -0.00114431 -33.9063 -0.00116918
-47.6522 -0.00164321 -32.046 -0.00110504 -32.4602 -0.00111932
-47.2308 -0.00162868 -30.9525 -0.00106733 -30.8344 -0.00106326
-46.8982 -0.00161721 -29.9147 -0.00103154 -29.0376 -0.0010013
-46.6459 -0.00160851 -28.9442 -0.000998076 -27.0848 -0.000933961
-46.4595 -0.00160208 -28.0498 -0.000967237 -24.9941 -0.000861867
-46.3309 -0.00159764 -27.232 -0.000939034 -22.7871 -0.000785764
-46.2506 -0.00159488 -26.491 -0.000913485 -20.4871 -0.000706454
-46.2123 -0.00159356 -25.825 -0.000890519 -18.1217 -0.000624886
-46.2117 -0.00159354 -25.2289 -0.000869963 -15.7224 -0.000542154
-46.2465 -0.00159473 -24.6945 -0.000851537 -13.3235 -0.000459433
-46.314 -0.00159706 -24.2122 -0.000834905 -10.9596 -0.000377918
-46.4076 -0.00160029 -23.7727 -0.000819749 -8.66453 -0.000298778
-46.5137 -0.00160395 -23.368 -0.000805796 -6.47112 -0.000223143
-46.6108 -0.0016073 -22.992 -0.000792829 -4.41092 -0.000152101
-46.6717 -0.0016094 -22.6393 -0.000780666 -2.5136 -8.66768e-05
-46.6678 -0.00160926 -22.3052 -0.000769148 -0.806288 -2.78038e-05
-46.5698 -0.00160588 -21.9936 -0.0007584 0.558263 1.92497e-05
-46.3481 -0.00159824 -21.7142 -0.000748766 1.72432 5.94585e-05
-45.9846 -0.0015857 -21.4269 -0.000738859 2.66269 9.1816e-05
-45.4443 -0.00156707 -21.151 -0.000729347 3.3629 0.000115961
-44.7059 -0.00154161 -20.8681 -0.000719592 3.79897 0.000130998
-43.7419 -0.00150837 -20.5882 -0.000709938 3.98322 0.000137352
-42.5308 -0.00146661 -20.3082 -0.000700283 3.91012 0.000134831
-41.0567 -0.00141577 -20.0273 -0.000690598 3.5706 0.000123123
-39.3159 -0.00135575 -19.7369 -0.000680582 2.96193 0.000102135
-37.3175 -0.00128684 -19.4282 -0.000669939 2.08802 7.2e-05
-35.078 -0.00120961 -19.0933 -0.000658391 0.961639 3.31592e-05
-32.6182 -0.00112479 -18.7238 -0.00064565 -0.404681 -1.39553e-05
-29.9631 -0.00103324 -18.3068 -0.000631269 -1.89681 -6.54078e-05
-27.1392 -0.000935862 -17.8341 -0.000614969 -3.56611 -0.00012297
-24.1753 -0.000833659 -17.2986 -0.000596504 -5.38559 -0.000185711
-21.1045 -0.000727769 -16.6937 -0.000575645 -7.31833 -0.000252357
-17.9626 -0.000619426 -16.0162 -0.000552283 -9.32749 -0.000321638
-14.7889 -0.00050999 -15.2618 -0.000526271 -11.3772 -0.000392318
-11.6226 -0.000400806 -14.4298 -0.000497581 -13.4297 -0.000463092
-8.49806 -0.000293064 -13.5229 -0.000466307 -15.4441 -0.000532555
-5.44299 -0.000187717 -12.5478 -0.000432685 -17.3763 -0.000599184
-2.48011 -8.55489e-05 -11.514 -0.000397035 -19.1816 -0.000661435
0.163808 5.62082e-06 -10.4313 -0.000359703 -20.815 -0.000717758
2.40961 8.30624e-05 -9.45301 -0.000325967 -22.1979 -0.000765445
4.37983 0.000151001 -8.34182 -0.00028765 -23.3364 -0.000804704
6.2907 0.000216893 -7.26393 -0.000250482 -24.2399 -0.000835858
7.99944 0.000275815 -6.20527 -0.000213976 -24.7869 -0.000854722
9.66405 0.000333215 -5.13394 -0.000177034 -25.051 -0.000863829
11.2114 0.000386571 -4.07158 -0.000140401 -24.9463 -0.000860217
12.5876 0.000434027 -3.02575 -0.000104337 -24.4901 -0.000844486
13.8328 0.000476964 -2.02045 -6.9672e-05 -23.6673 -0.000816116
14.976 0.000516388 -1.05835 -3.64962e-05 -22.4909 -0.00077555
16.0007 0.00055172 -0.13449 -4.63882e-06 -20.9634 -0.000722875
16.9044 0.000582884 0.761921 2.62719e-05 -19.0971 -0.000658522
17.7159 0.000610866 1.6328 5.63022e-05 -16.9185 -0.000583397
18.454 0.000636317 2.48436 8.56665e-05 -14.4579 -0.00049855
19.1249 0.000659451 3.32686 0.000114718 -11.7476 -0.00040509
19.7447 0.000680823 4.17494 0.000143962 -8.82405 -0.000304278
20.3397 0.000701342 5.04288 0.000173891 -5.72946 -0.000197568
20.9327 0.00072179 5.9413 0.000204871 -2.50858 -8.65037e-05
21.5443 0.000742878 6.87922 0.000237213 0.537284 1.85263e-05
22.2066 0.000765718 7.81692 0.000269548 3.6527 0.000125954
22.9353 0.000790843 8.83281 0.000304578 6.69827 0.000230974
23.7492 0.00081891 9.93249 0.000342499 9.72689 0.000335409
24.6713 0.000850706 11.1276 0.000383709 12.6403 0.000435873
25.7051 0.000886357 12.433 0.000428724 15.4159 0.000531582
26.8612 0.000926221 13.8428 0.000477337 18.0562 0.000622627
28.136 0.000970181 15.3711 0.000530036 20.549 0.000708585
29.5263 0.00101812 17.0231 0.000587001 22.8644 0.000788428
31.0232 0.00106974 18.8016 0.00064833 24.9647 0.000860852
32.6167 0.00112469 20.6994 0.00071377 26.8324 0.000925254
34.2947 0.00118255 22.7051 0.000782935 28.474 0.000981863
36.043 0.00124284 24.8058 0.00085537 29.9048 0.0010312
37.8455 0.00130499 26.9845 0.0009305 31.1336 0.00107357
0 0.207681 25.7785 0.000888914 32.8501 0.00113276
0 0.453291 19.7707 0.000681746 37.1525 0.00128112
0 0.546532 26.3774 0.000909564 35.0809 0.00120968
0 0.527359 26.4937 0.000913575 36.5556 0.00126054
0 0.490123 29.8677 0.00102992 35.7969 0.00123437
0 0.524089 31.9538 0.00110186 35.4421 0.00122214
0 0.582714 33.896 0.00116883 35.1316 0.00121143
0 0.608934 36.0596 0.00124343 34.2862 0.00118228
0 0.606285 38.4092 0.00132445 33.318 0.0011489
0 0.613822 40.1959 0.00138606 32.3122 0.00111421
0 0.652473 41.5976 0.0014344 31.4658 0.00108503
0 0.694768 42.2696 0.00145757 30.9614 0.00106763
0 0.710826 43.8235 0.00151115 29.9765 0.00103367
0 0.714896 44.6901 0.00154104 29.1945 0.00100671
0 0.725935 45.1516 0.00155695 28.6045 0.000986361
0 0.747276 45.242 0.00156007 28.2087 0.000972715
0 0.766022 45.1136 0.00155564 27.991 0.000965208
0 0.773458 44.8698 0.00154723 27.7813 0.000957976
0 0.7755 44.287 0.00152714 27.6945 0.000954981
0 0.780576 43.3762 0.00149573 27.7565 0.00095712
0 0.788716 42.2415 0.0014566 27.9574 0.000964048
0 0.792465 41.0744 0.00141636 28.1834 0.000971839
0 0.791685 39.78 0.00137172 28.3848 0.000978785
0 0.791084 38.1789 0.00131651 28.6444 0.000987736
0 0.790937 36.6513 0.00126384 28.7957 0.000992954
0 0.790649 35.0556 0.00120881 28.9076 0.000996813
0 0.789858 33.4476 0.00115336 28.922 0.00099731
0 0.789183 31.8579 0.00109855 28.7805 0.00099243
0 0.788853 30.3519 0.00104662 28.4473 0.000980942
0 0.78858 28.9583 0.000998562 27.9115 0.000962465
0 0.788285 27.698 0.000955103 27.1684 0.00093684
0 0.788211 26.6027 0.000917333 26.1948 0.000903268
0 0.788495 25.6673 0.00088508 24.9842 0.000861522
0 0.788838 24.8874 0.000858186 23.5583 0.000812354
0 0.789304 24.3684 0.00084029 21.8767 0.00075437
0 0.790035 24.049 0.000829276 20.0132 0.00069011
0 0.790935 23.9439 0.000825651 17.9715 0.000619708
0 0.791818 24.01 0.000827932 15.804 0.000544965
0 0.792917 24.2478 0.000836131 13.533 0.000466655
0 0.797242 24.5696 0.000847225 11.2282 0.00038718
0 0.804112 24.9438 0.000860129 8.95895 0.000308929
0 0.811102 25.4614 0.000877978 6.71311 0.000231486
0 0.816624 26.0254 0.000897425 4.58505 0.000158105
0 0.820721 26.6503 0.000918973 2.59399 8.94475e-05
0 0.824735 27.2638 0.000940129 0.841829 2.9028e-05
0 0.828901 27.8519 0.00096041 -0.479722 -1.65428e-05
0 0.832052 28.4052 0.00097949 -1.59867 -5.51272e-05
0 0.833273 28.8875 0.00099612 -2.44659 -8.43659e-05
0 0.833033 29.2864 0.00100988 -2.98368 -0.000102886
0 0.832589 29.5404 0.00101863 -3.17691 -0.000109549
0 0.831833 29.6864 0.00102367 -3.02443 -0.000104291
0 0.830617 29.7003 0.00102415 -2.52505 -8.70712e-05
0 0.829058 29.582 0.00102007 -1.67787 -5.7858e-05
0 0.826484 29.3746 0.00101292 -0.505228 -1.74223e-05
0 0.819822 29.1102 0.0010038 0.927919 3.19966e-05
0 0.807181 28.8528 0.000994924 2.65095 9.14115e-05
0 0.791003 28.5158 0.000983304 4.61053 0.000158983
0 0.774343 28.0932 0.000968729 6.78549 0.000233982
0 0.758205 27.6024 0.000951807 9.12092 0.000314514
0 0.741321 27.0634 0.000933221 11.58 0.000399309
0 0.722779 26.505 0.000913966 14.1075 0.000486465
0 0.703139 25.9427 0.000894574 16.6544 0.000574289
0 0.683998 25.373 0.00087493 19.1714 0.000661083
0 0.665806 24.8096 0.000855501 21.6131 0.000745277
0 0.648013 24.2923 0.000837664 23.9192 0.000824798
0 0.630552 23.8266 0.000821606 26.0511 0.000898314
0 0.614134 23.4155 0.00080743 27.9709 0.000964514
0 0.599521 23.0678 0.00079544 29.6423 0.00102215
0 0.586872 22.7886 0.000785812 31.0343 0.00107015
0 0.575982 22.5887 0.000778921 32.1197 0.00110758
0 0.566906 22.4681 0.000774762 32.881 0.00113383
0 0.559972 22.4238 0.000773235 33.3086 0.00114857
0 0.555329 22.4574 0.000774391 33.3966 0.00115161
0 0.552703 22.5696 0.000778261 33.1365 0.00114264
0 0.551691 22.7622 0.000784903 32.5344 0.00112188
0 0.551787 23.0318 0.000794198 31.6052 0.00108983
0 0.552096 23.3942 0.000806694 30.3637 0.00104702
0 0.552484 23.823 0.000821481 28.8422 0.000994558
0 0.552904 24.3029 0.000838029 27.0802 0.000933798
0 0.553306 24.8176 0.000855779 25.1139 0.000865995
0 0.55358 25.337 0.000873688 22.9957 0.000792955
0 0.553634 25.8313 0.000890735 20.7749 0.000716374
0 0.553548 26.2539 0.000905307 18.507 0.000638171
0 0.55373 26.4424 0.000911805 16.2894 0.000561702
0 0.553255 26.6387 0.000918573 14.0871 0.000485762
0 0.552496 26.6192 0.000917904 11.9913 0.000413492
0 0.550993 26.444 0.000911863 10.0427 0.000346298
0 0.544313 26.1684 0.000902359 8.23695 0.000284032
0 0.531966 25.8168 0.000890233 6.58684 0.000227132
0 0.516257 25.2038 0.000869097 5.19517 0.000179143
0 0.498966 24.422 0.000842138 4.02314 0.000138728
0 0.480204 23.3948 0.000806717 3.11875 0.000107542
0 0.458104 22.1851 0.000765001 2.46225 8.49046e-05
0 0.432203 20.8055 0.000717429 2.03873 7.03004e-05
0 0.404329 19.186 0.000661585 1.86232 6.42173e-05
0 0.375477 17.3648 0.000598786 1.90635 6.57357e-05
0 0.345307 15.3752 0.000530179 2.12653 7.33281e-05
0 0.313276 13.2383 0.000456492 2.49579 8.60612e-05
0 0.279758 10.9864 0.000378842 2.9664 0.000102289
0 0.245847 8.63366 0.000297712 3.50226 0.000120767
0 0.212524 6.21521 0.000214317 4.05266 0.000139746
0 0.180571 3.73805 0.000128897 4.57284 0.000157683
0 0.148275 1.29647 4.4705e-05 5.00177 0.000172474
0 0.116308 -1.00896 -3.47927e-05 5.28185 0.000182132
0 0.0856584 -3.2608 -0.000112442 5.3693 0.000185148
0 0.0572989 -5.46296 -0.000188379 5.28369 0.000182195
0 0.0308232 -7.50677 -0.000258855 4.93372 0.000170128
0 0.00656778 -9.4123 -0.000324563 4.31767 0.000148885
-2.31818 0.000548869 -11.3831 -0.000392521 3.47183 0.000119718
-3.40848 0.000370515 -13.4318 -0.000463165 2.50509 8.63817e-05
-4.68839 0.000218818 -14.747 -0.000508516 0.898582 3.0985e-05
-6.36789 6.68004e-05 -16.2171 -0.00055921 -0.635735 -2.19225e-05
-7.57101 -2.32069e-05 -17.187 -0.000592655 -2.50149 -8.62589e-05
-8.27472 -7.09284e-05 -17.842 -0.000615242 -4.59496 -0.000158447
-8.99661 -0.000116927 -18.2519 -0.000629375 -6.9334 -0.000239083
-9.47075 -0.000145753 -18.5346 -0.000639124 -9.40863 -0.000324436
-9.80295 -0.00016537 -18.5332 -0.000639076 -12.0242 -0.000414629
-9.93377 -0.000172974 -18.312 -0.00063145 -14.7755 -0.000509501
-10.1231 -0.000183863 -17.9529 -0.000619068 -17.5604 -0.000605533
-10.3684 -0.000197773 -17.4733 -0.000602529 -20.3499 -0.000701722
-10.6213 -0.000211892 -16.9021 -0.000582831 -23.061 -0.000795208
-10.9552 -0.000230214 -16.2899 -0.00056172 -25.6356 -0.000883987
-11.4528 -0.000256881 -15.704 -0.000541518 -28.01 -0.000965861
-12.1213 -0.000291621 -15.1851 -0.000523625 -30.1385 -0.00103926
-12.9599 -0.000333655 -14.7739 -0.000509444 -31.9724 -0.0011025
-14.007 -0.000384075 -14.5164 -0.000500567 -33.4601 -0.0011538
-15.2886 -0.000443168 -14.4545 -0.000498433 -34.5601 -0.00119173
-16.7979 -0.000509763 -14.6196 -0.000504125 -35.2481 -0.00121545
-18.5284 -0.000582944 -15.0321 -0.000518351 -35.5127 -0.00122458
-20.4829 -0.000662416 -15.7079 -0.000541654 -35.3119 -0.00121765
-22.6606 -0.000747915 -16.6436 -0.000573918 -34.6433 -0.0011946
-25.0498 -0.000838929 -17.8329 -0.000614927 -33.5269 -0.0011561
-27.6403 -0.000935168 -19.2608 -0.000664167 -32.0029 -0.00110355
-30.4208 -0.0010364 -20.9041 -0.000720833 -30.1151 -0.00103845
-33.3651 -0.00114192 -22.7341 -0.000783935 -27.9206 -0.00096278
-36.4346 -0.00125064 -24.7158 -0.000852269 -25.4885 -0.000878915
-39.5807 -0.00136112 -26.8115 -0.000924535 -22.8949 -0.00078948
-42.7712 -0.00147248 -28.9763 -0.000999185 -20.2215 -0.000697294
-45.9656 -0.00158351 -31.1677 -0.00107475 -17.5481 -0.000605108
-49.1148 -0.00169267 -33.3421 -0.00114973 -14.9548 -0.000515684
-50.8388 -0.00175234 -35.4415 -0.00122212 -12.5384 -0.00043236
-51.5091 -0.00177553 -36.76 -0.00126759 -10.5529 -0.000363892
-52.2157 -0.00179996 -38.2208 -0.00131796 -8.89108 -0.00030659
-52.5273 -0.00181073 -39.8064 -0.00137264 -7.29727 -0.000251631
-52.7442 -0.00181823 -40.7934 -0.00140667 -6.33667 -0.000218506
-53.0638 -0.00182928 -41.9282 -0.0014458 -5.59453 -0.000192915
-53.3725 -0.00183995 -42.8497 -0.00147758 -5.32436 -0.000183599
-53.482 -0.00184374 -43.5943 -0.00150325 -5.49728 -0.000189562
-53.4762 -0.00184353 -44.1804 -0.00152346 -6.07378 -0.000209441
-53.4716 -0.00184338 -44.551 -0.00153624 -7.088 -0.000244414
-53.4084 -0.00184119 -44.753 -0.00154321 -8.51514 -0.000293626
-53.2232 -0.00183479 -44.7729 -0.00154389 -10.348 -0.000356827
-52.9557 -0.00182554 -44.6238 -0.00153875 -12.5413 -0.000432461
-52.6565 -0.0018152 -44.3281 -0.00152856 -15.0357 -0.000518472
-52.2731 -0.00180195 -43.8963 -0.00151367 -17.7858 -0.000613303
-51.6019 -0.00177874 -43.346 -0.00149469 -20.7484 -0.000715461
-50.687 -0.00174709 -42.7663 -0.0014747 -23.8425 -0.000822154
-49.7518 -0.00171473 -42.1211 -0.00145245 -27.0104 -0.000931394
-48.7344 -0.0016795 -41.487 -0.00143059 -30.1746 -0.00104051
-46.7465 -0.0016106 -41.0806 -0.00141657 -33.2258 -0.00114572
-45.0936 -0.00155324 -40.6603 -0.00140208 -35.9962 -0.00124125
-43.4401 -0.00149576 -40.2037 -0.00138634 -38.4874 -0.00132715
-41.9985 -0.00144556 -39.8937 -0.00137564 -40.4113 -0.00139349
-40.8364 -0.00140501 -39.527 -0.001363 -40.1967 -0.0013861
-39.9518 -0.0013741 -39.1139 -0.00134876 -40.2112 -0.00138659
-39.2442 -0.00134934 -38.9958 -0.00134468 -40.3266 -0.00139057
-38.7736 -0.00133285 -38.9417 -0.00134282 -40.4244 -0.00139395
-38.4041 -0.00131989 -39.179 -0.001351 -40.3626 -0.00139182
-38.1699 -0.00131168 -39.586 -0.00136504 -40.2331 -0.00138735
-38.0823 -0.0013086 -40.1245 -0.0013836 -40.1744 -0.00138532
-38.1309 -0.0013103 -40.8052 -0.00140708 -40.0272 -0.00138025
-38.3122 -0.00131667 -41.5678 -0.00143337 -39.6304 -0.00136657
-38.6029 -0.00132687 -42.4126 -0.0014625 -38.8794 -0.00134067
-38.9831 -0.00134019 -43.2943 -0.00149291 -37.823 -0.00130424
-39.4301 -0.00135585 -44.1764 -0.00152332 -36.5372 -0.00125991
-39.9118 -0.0013727 -45.0357 -0.00155296 -35.103 -0.00121045
-40.4008 -0.0013898 -45.8437 -0.00158082 -33.5611 -0.00115728
-40.8672 -0.00140609 -46.5687 -0.00160582 -31.9227 -0.00110078
-41.2758 -0.00142035 -47.1785 -0.00162685 -30.2139 -0.00104186
-41.5965 -0.00143154 -47.6444 -0.00164291 -28.4895 -0.000982396
-41.7971 -0.00143853 -47.9458 -0.0016533 -26.8137 -0.000924611
-41.849 -0.00144035 -48.0642 -0.00165739 -25.2311 -0.000870039
-41.7312 -0.00143624 -47.9815 -0.00165454 -23.761 -0.000819347
-41.4219 -0.00142545 -47.6873 -0.00164439 -22.4143 -0.000772906
-40.911 -0.00140762 -47.1743 -0.0016267 -21.2085 -0.000731329
-40.1939 -0.00138257 -46.442 -0.00160145 -20.1664 -0.000695393
-39.2713 -0.00135029 -45.4945 -0.00156878 -19.3015 -0.000665571
-38.1538 -0.00131111 -44.3376 -0.00152888 -18.6104 -0.000641738
-36.8529 -0.00126538 -42.9862 -0.00148228 -18.0766 -0.000623332
-35.3854 -0.0012136 -41.4584 -0.0014296 -17.6807 -0.000609681
-33.7667 -0.00115621 -39.7777 -0.00137164 -17.4042 -0.000600147
-32.011 -0.00109357 -37.9725 -0.0013094 -17.226 -0.000594
-30.135 -0.00102608 -36.0712 -0.00124384 -17.1173 -0.000590253
-28.1522 -0.000953947 -34.1076 -0.00117612 -17.0427 -0.000587681
-26.0834 -0.000877592 -32.114 -0.00110738 -16.9651 -0.000585005
-23.951 -0.000797381 -30.1221 -0.00103869 -16.8503 -0.000581045
-21.7748 -0.000713472 -28.1637 -0.000971164 -16.6679 -0.000574755
-19.5804 -0.000626087 -26.265 -0.000905689 -16.3897 -0.000565163
-17.3872 -0.000535028 -24.4518 -0.000843167 -15.9889 -0.000551343
-15.2121 -0.000439713 -22.7459 -0.000784343 -15.4419 -0.00053248
-13.0706 -0.000339091 -21.1637 -0.000729784 -14.7308 -0.000507959
-10.9715 -0.000231095 -19.7193 -0.000679976 -13.8453 -0.000477425
-8.92654 -0.000112579 -18.4179 -0.000635102 -12.782 -0.000440758
-6.94899 2.18236e-05 -17.2612 -0.000595214 -11.5433 -0.000398046
-5.05902 0.000181746 -16.2442 -0.000560145 -10.1376 -0.000349573
-3.28691 0.000387502 -15.355 -0.000529485 -8.57888 -0.000295824
-1.68017 0.000695867 -14.5814 -0.000502807 -6.88706 -0.000237485
-0.404306 0.00135472 -13.9083 -0.000479596 -5.08575 -0.000175371
-0.008944 0.00340914 -13.3418 -0.000460062 -3.19572 -0.000110198
0 0.00622619 -12.8539 -0.00044324 -1.24608 -4.2969e-05
0 0.00876759 -12.3631 -0.000426314 0.44008 1.51746e-05
0 0.0110513 -11.9773 -0.00041301 1.93994 6.68938e-05
0 0.0132382 -11.5812 -0.000399354 3.36994 0.000116204
0 0.0153963 -11.1554 -0.000384671 4.79482 0.000165338
0 0.0180296 -10.7143 -0.000369461 6.12187 0.000211099
0 0.0215422 -10.2359 -0.000352964 7.32307 0.000252519
0 0.0253883 -9.66101 -0.000333139 8.40949 0.000289982
0 0.0298473 -9.06182 -0.000312477 9.39727 0.000324043
0 0.0355136 -8.49623 -0.000292974 10.3282 0.000356146
0 0.0431765 -7.88594 -0.00027193 11.1292 0.000383766
0 0.0527201 -7.23519 -0.00024949 11.78 0.000406206
0 0.0644657 -6.58796 -0.000227172 12.285 0.000423619
0 0.0786855 -5.93296 -0.000204586 12.6628 0.000436648
0 0.0953577 -5.26299 -0.000181483 12.9269 0.000445756
0 0.113841 -4.57971 -0.000157922 13.0728 0.000450787
0 0.133708 -3.86657 -0.000133331 13.0622 0.000450419
0 0.155191 -3.15705 -0.000108865 12.8768 0.000444028
0 0.178441 -2.44423 -8.42847e-05 12.536 0.000432275
0 0.203335 -1.72351 -5.9432e-05 12.0624 0.000415945
0 0.229444 -0.997592 -3.44005e-05 11.4703 0.000395528
0 0.256391 -0.262275 -9.04476e-06 10.7584 0.000370978
0 0.284047 0.501189 1.72816e-05 9.93933 0.000342735
0 0.312245 1.296 4.46889e-05 9.03669 0.000311609
0 0.34065 2.11524 7.29386e-05 8.07833 0.000278563
0 0.368879 2.95603 0.000101931 7.09023 0.00024449
0 0.396664 3.81959 0.000131709 6.09139 0.000210047
0 0.423925 4.69708 0.000161967 5.10385 0.000175994
0 0.450609 5.57675 0.000192301 4.15384 0.000143235
0 0.476605 6.45034 0.000222425 3.27072 0.000112783
0 0.50177 7.3082 0.000252006 2.48196 8.55842e-05
0 0.525992 8.14301 0.000280793 1.80948 6.23954e-05
0 0.549201 8.94772 0.000308541 1.27117 4.3833e-05
0 0.571332 9.71366 0.000334953 0.892833 3.07867e-05
0 0.592312 10.4374 0.000359909 0.685396 2.36337e-05
0 0.611971 11.1113 0.000383146 0.644038 2.22076e-05
0 0.630344 11.7299 0.000404479 0.784655 2.70565e-05
0 0.647496 12.295 0.000423966 1.09411 3.77272e-05
0 0.663555 12.7967 0.000441266 1.59671 5.50585e-05
0 0.67859 13.2419 0.000456615 2.27629 7.84922e-05
0 0.692631 13.6347 0.00047016 3.12817 0.000107867
0 0.704908 14.0423 0.000484216 4.12021 0.000142075
0 0.7149 14.4927 0.000499749 5.21311 0.000179762
0 0.724158 14.821 0.000511069 6.47587 0.000223305
0 0.733015 15.1865 0.000523672 7.82658 0.000269882
0 0.742129 15.5138 0.000534957 9.27291 0.000319755
0 0.751228 15.8241 0.000545659 10.7926 0.000372156
0 0.760009 16.1505 0.000556912 12.3432 0.000425628
0 0.768936 16.4787 0.000568229 13.7809 0.000475203
0 0.778649 16.7971 0.00057921 15.0499 0.000518963
0 0.789548 17.1471 0.000591279 16.2505 0.000560362
0 0.801479 17.5463 0.000605046 17.4291 0.000601003
0 0.814406 17.9904 0.000620358 18.5503 0.000639666
0 0.828506 18.5042 0.000638074 19.5994 0.000675842
0 0.844669 19.0881 0.000658209 20.5665 0.00070919
0 0.863952 19.7152 0.000679833 21.4494 0.000739632
0 0.88538 20.4366 0.000704708 22.2311 0.00076659
0 0.907873 21.2711 0.000733487 22.8949 0.000789477
0 0.930732 22.2274 0.000766462 23.4424 0.000808359
0 0.953848 23.3236 0.00080426 23.8633 0.000822872
0 0.976588 24.5826 0.000847675 24.1586 0.000833056
0 0.998889 25.9742 0.000895661 24.3401 0.000839313
0 1.02058 27.4767 0.000947472 24.4292 0.000842387
0 1.04165 29.077 0.00100265 24.4192 0.00084204
0 1.06217 30.7337 0.00105978 24.333 0.00083907
0 1.08199 32.4207 0.00111795 24.198 0.000834413
0 1.10095 34.1026 0.00117595 24.0512 0.00082935
0 1.11895 35.7471 0.00123266 23.9243 0.000824976
0 1.13598 37.3224 0.00128698 23.8471 0.000822314
0 1.15192 38.797 0.00133783 23.8483 0.000822355
0 1.16661 40.1472 0.00138439 23.9542 0.000826006
0 1.17983 41.3503 0.00142587 24.1869 0.00083403
0 1.19146 42.3894 0.00146171 24.5433 0.000846319
0 1.20144 43.245 0.00149121 24.9417 0.000860058
0 1.20969 43.8974 0.00151371 25.4586 0.000877881
0 1.21538 44.3757 0.0015302 26.0794 0.000899287
0 1.21934 44.6709 0.00154038 26.8055 0.000924329
0 1.22186 44.7571 0.00154336 27.6347 0.000952919
0 1.22247 44.6865 0.00154092 28.5396 0.000984123
0 1.22215 44.4363 0.00153229 29.5149 0.00101776
0 1.22167 44.0016 0.0015173 30.5516 0.0010535
0 1.22099 43.4402 0.00149795 31.6079 0.00108993
0 1.22008 42.7487 0.0014741 32.6685 0.0011265
0 1.21895 41.9632 0.00144701 33.7019 0.00116213
0 1.2177 41.1031 0.00141736 34.6826 0.00119595
0 1.21565 40.1938 0.001386 35.5861 0.00122711
0 1.21146 39.3517 0.00135696 36.3524 0.00125353
0 1.20483 38.5497 0.00132931 36.9798 0.00127517
0 1.19676 37.8001 0.00130346 37.448 0.00129131
0 1.18883 37.104 0.00127946 37.745 0.00130155
0 1.18189 36.4715 0.00125765 37.8559 0.00130538
0 1.17562 35.9124 0.00123837 37.7285 0.00130098
0 1.16946 35.4304 0.00122174 37.337 0.00128748
0 1.16338 35.0303 0.00120795 36.6799 0.00126483
0 1.15765 34.7121 0.00119698 35.7662 0.00123332
0 1.15231 34.4728 0.00118872 34.6041 0.00119325
0 1.147 34.3131 0.00118322 33.2072 0.00114507
0 1.14133 34.2206 0.00118003 31.6011 0.00108969
0 1.13525 34.1796 0.00117861 29.8207 0.0010283
0 1.12886 34.1654 0.00117812 27.9042 0.000962213
0 1.12214 34.154 0.00117773 25.8894 0.000892738
0 1.11485 34.1235 0.00117668 23.8141 0.000821175
0 1.10679 34.0513 0.00117419 21.7176 0.000748883
0 1.09788 33.9128 0.00116941 19.643 0.000677344
0 1.08802 33.6887 0.00116169 17.6291 0.000607899
0 1.07709 33.3585 0.0011503 15.712 0.000541791
0 1.06491 32.9088 0.00113479 13.9215 0.000480051
0 1.05147 32.318 0.00111442 12.285 0.00042362
0 1.03726 31.5394 0.00108757 10.8394 0.000373772
0 1.02109 30.6739 0.00105773 9.56623 0.000329869
0 1.00287 29.6648 0.00102293 8.4849 0.000292582
0 0.982575 28.5224 0.00098354 7.61009 0.000262416
0 0.960718 27.2526 0.000939753 6.92611 0.000238831
0 0.93775 25.843 0.000891146 6.44246 0.000222153
0 0.913607 24.3261 0.000838838 6.13071 0.000211403
0 0.888228 22.709 0.000783076 5.97715 0.000206108
0 0.860683 21.0891 0.000727219 5.93678 0.000204716
0 0.831789 19.4164 0.000669538 5.99118 0.000206592
0 0.802336 17.681 0.000609695 6.14977 0.00021206
0 0.772552 15.9692 0.000550668 6.33156 0.000218329
0 0.742558 14.2508 0.000491413 6.53964 0.000225504
0 0.712195 12.5774 0.00043371 6.72363 0.000231849
0 0.681782 10.9539 0.000377726 6.86357 0.000236674
0 0.651863 9.39275 0.000323895 6.93608 0.000239175
0 0.62275 7.91352 0.000272887 6.91341 0.000238393
0 0.594529 6.5242 0.000224979 6.77442 0.0002336
0 0.567281 5.23501 0.000180525 6.50184 0.000224201
0 0.541236 4.04969 0.000139651 6.08613 0.000209866
0 0.516453 2.9838 0.000102897 5.51787 0.000190271
0 0.492949 2.03996 7.03506e-05 4.79185 0.000165236
0 0.470878 1.2193 4.20519e-05 3.91424 0.000134973
0 0.451793 0.48015 1.6564e-05 2.8908 9.96821e-05
0 0.433278 -0.151038 -5.20112e-06 1.73919 5.99716e-05
0 0.415881 -0.674574 -2.32541e-05 0.450647 1.55389e-05
0 0.400282 -1.15144 -3.96978e-05 -0.609315 -2.10115e-05
0 0.385635 -1.48842 -5.13177e-05 -1.71251 -5.90526e-05
0 0.371395 -1.73403 -5.9787e-05 -2.84169 -9.79899e-05
0 0.358703 -2.02045 -6.96637e-05 -3.98923 -0.00013756
0 0.347028 -2.29543 -7.91456e-05 -5.09332 -0.000175632
0 0.335286 -2.47575 -8.53635e-05 -6.20769 -0.000214059
0 0.323175 -2.68079 -9.2434e-05 -7.27929 -0.00025101
0 0.310142 -2.84464 -9.80841e-05 -8.33548 -0.000287431
0 0.296389 -3.01584 -0.000103988 -9.33456 -0.000321882
0 0.281835 -3.20578 -0.000110537 -10.2429 -0.000353206
0 0.266029 -3.4166 -0.000117807 -11.051 -0.00038107
0 0.248608 -3.66839 -0.000126489 -11.7493 -0.000405147
0 0.229461 -3.97084 -0.000136918 -12.3371 -0.000425417
0 0.208641 -4.33847 -0.000149595 -12.8017 -0.000441438
0 0.186112 -4.78556 -0.000165012 -13.128 -0.000452691
0 0.161753 -5.32134 -0.000183487 -13.3075 -0.000458878
0 0.135557 -5.95815 -0.000205446 -13.3287 -0.000459611
0 0.107701 -6.7038 -0.000231158 -13.1663 -0.000454012
0 0.0784263 -7.56155 -0.000260736 -12.8265 -0.000442295
0 0.0479288 -8.53924 -0.00029445 -12.3207 -0.000424854
0 0.0163773 -9.6364 -0.000332282 -11.6614 -0.000402117
-2.87548 0.000449671 -11.0072 -0.00037955 -10.8196 -0.000373092
-5.24351 0.000164147 -13.5496 -0.00046722 -9.4841 -0.000327039
-7.92142 -4.73589e-05 -15.0469 -0.000518851 -8.54977 -0.00029482
-11.3785 -0.000252942 -17.3766 -0.000599188 -7.30951 -0.000252053
-14.8667 -0.000423999 -19.5595 -0.000674457 -6.18307 -0.00021321
-17.7038 -0.000548448 -21.6486 -0.000746498 -5.20495 -0.000179482
-20.4746 -0.000662084 -23.7092 -0.000817552 -4.35721 -0.000150249
-23.4977 -0.000780093 -25.7732 -0.000888724 -3.68507 -0.000127072
-26.3236 -0.000886523 -27.7546 -0.000957048 -3.24515 -0.000111902
-28.7786 -0.000976832 -29.5788 -0.00101995 -3.10014 -0.000106902
-31.1021 -0.00106095 -31.2892 -0.00107893 -3.23936 -0.000111703
-33.346 -0.00114124 -32.8806 -0.00113381 -3.67943 -0.000126878
-35.3367 -0.00121188 -34.3063 -0.00118297 -4.45183 -0.000153512
-37.0407 -0.00127199 -35.5588 -0.00122616 -5.56528 -0.000191907
-38.5576 -0.00132528 -36.6597 -0.00126412 -7.00318 -0.00024149
-39.8998 -0.00137228 -37.609 -0.00129686 -8.74844 -0.000301671
-41.0143 -0.00141123 -38.4005 -0.00132415 -10.7854 -0.00037191
-41.92 -0.00144282 -39.0463 -0.00134642 -13.0156 -0.000448816
-42.678 -0.00146923 -39.5351 -0.00136327 -14.928 -0.000514761
-43.3147 -0.0014914 -39.8497 -0.00137412 -17.0332 -0.000587351
-40.6492 -0.00139847 -39.8757 -0.00137502 -19.2309 -0.000663135
-27.442 -0.000927874 -38.7639 -0.00133668 -22.1352 -0.000763282
-29.4976 -0.00100299 -38.9933 -0.00134459 -25.0924 -0.000865255
-37.2714 -0.00128011 -40.6273 -0.00140094 -25.6348 -0.00088396
-37.5306 -0.00128922 -40.1803 -0.00138552 -27.5346 -0.00094947
-33.8701 -0.00115989 -39.5947 -0.00136533 -29.6758 -0.0010233
-35.144 -0.00120506 -40.8708 -0.00140934 -31.2861 -0.00107883
-38.3389 -0.0013176 -42.3331 -0.00145976 -32.3424 -0.00111526
-38.8093 -0.0013341 -42.7272 -0.00147335 -33.2385 -0.00114615
-38.5314 -0.00132436 -43.024 -0.00148358 -34.0795 -0.00117516
-40.1325 -0.00138042 -44.2439 -0.00152565 -34.6903 -0.00119622
-41.426 -0.00142559 -44.5402 -0.00153587 -34.7988 -0.00119996
-38.8102 -0.00133413 -42.4033 -0.00146218 -32.4512 -0.00111901
-40.6682 -0.00139914 -39.9124 -0.00137629 -32.5196 -0.00112136
-43.8567 -0.00151025 -44.3949 -0.00153086 -31.4578 -0.00108475
-46.1586 -0.00159021 -48.8249 -0.00168361 -31.4807 -0.00108554
-46.9456 -0.00161751 -50.7301 -0.00174931 -30.0366 -0.00103574
-48.8484 -0.00168345 -50.4183 -0.00173856 -28.1587 -0.00097099
-49.7569 -0.0017149 -51.091 -0.00176175 -26.5422 -0.000915248
-50.2176 -0.00173085 -53.3696 -0.00184033 -25.7029 -0.000886309
-50.2869 -0.00173325 -56.7863 -0.00195815 -24.5823 -0.000847667
-50.6384 -0.00174541 -58.5454 -0.0020188 -23.0927 -0.000796302
-51.1454 -0.00176295 -56.8587 -0.00196064 -22.4198 -0.000773096
-51.531 -0.00177629 -56.2697 -0.00194033 -22.2922 -0.000768696
-51.7761 -0.00178476 -57.1591 -0.001971 -22.1628 -0.000764235
-52.0588 -0.00179454 -57.466 -0.00198158 -22.5317 -0.000776955
-52.4345 -0.00180753 -57.4854 -0.00198225 -22.6746 -0.000781884
-52.7207 -0.00181742 -57.3265 -0.00197677 -23.0525 -0.000794913
-52.9128 -0.00182406 -57.5528 -0.00198457 -23.8843 -0.000823596
-53.1188 -0.00183118 -58.3003 -0.00201035 -25.0692 -0.000864456
-53.3328 -0.00183858 -58.7726 -0.00202664 -26.4414 -0.000911773
-53.4748 -0.00184349 -58.6479 -0.00202234 -27.5705 -0.000950708
-53.5433 -0.00184586 -58.5569 -0.0020192 -28.3838 -0.000978751
-53.6017 -0.00184787 -58.5766 -0.00201988 -29.9557 -0.00103296
-53.6553 -0.00184973 -58.7688 -0.00202651 -32.2344 -0.00111153
-53.6254 -0.00184869 -59.0683 -0.00203683 -34.5332 -0.0011908
-53.5637 -0.00184656 -59.3076 -0.00204508 -37.0208 -0.00127658
-53.4934 -0.00184413 -59.4816 -0.00205108 -39.692 -0.00136869
-53.3772 -0.00184011 -59.7431 -0.0020601 -42.4208 -0.00146279
-53.2256 -0.00183487 -60.1224 -0.00207318 -44.4436 -0.00153254
-53.0674 -0.00182941 -60.507 -0.00208644 -44.2401 -0.00152552
-52.9068 -0.00182385 -60.6995 -0.00209308 -44.0722 -0.00151973
-52.6332 -0.0018144 -61.1325 -0.00210801 -43.7542 -0.00150876
-52.4015 -0.00180639 -61.2739 -0.00211289 -43.6326 -0.00150457
-52.1001 -0.00179597 -61.3767 -0.00211643 -43.7915 -0.00151005
-51.7459 -0.00178372 -61.4922 -0.00212042 -43.9203 -0.00151449
-51.3633 -0.00177049 -61.6183 -0.00212476 -43.813 -0.00151079
-50.9697 -0.00175687 -61.7941 -0.00213083 -43.5381 -0.00150132
-50.5794 -0.00174337 -62.0096 -0.00213826 -43.3299 -0.00149413
-50.1759 -0.00172941 -62.2728 -0.00214733 -43.3074 -0.00149336
-49.7614 -0.00171506 -62.5894 -0.00215825 -43.3845 -0.00149602
-49.3685 -0.00170146 -62.9677 -0.0021713 -43.3984 -0.0014965
-49.0111 -0.00168908 -63.4382 -0.00218752 -43.2987 -0.00149306
-48.6691 -0.00167724 -63.6062 -0.00219331 -43.1681 -0.00148855
-48.2373 -0.00166228 -63.6911 -0.00219624 -43.0916 -0.00148592
-47.9004 -0.00165061 -63.7338 -0.00219771 -43.113 -0.00148666
-47.5811 -0.00163954 -63.7017 -0.00219661 -43.1789 -0.00148893
-47.2139 -0.00162681 -63.7529 -0.00219837 -43.2239 -0.00149048
-46.8235 -0.00161327 -63.6863 -0.00219607 -43.1972 -0.00148956
-46.514 -0.00160254 -63.5408 -0.00219106 -43.1687 -0.00148858
-46.2401 -0.00159304 -63.421 -0.00218693 -43.1533 -0.00148804
-45.9175 -0.00158184 -63.3335 -0.00218391 -42.9559 -0.00148124
-45.5752 -0.00156996 -63.2086 -0.0021796 -42.5715 -0.00146798
-45.2325 -0.00155806 -63.0201 -0.0021731 -41.9703 -0.00144725
-44.8779 -0.00154575 -62.8026 -0.0021656 -41.2005 -0.00142071
-44.3883 -0.00152874 -62.5533 -0.00215701 -40.135 -0.00138397
-43.8299 -0.00150932 -62.3475 -0.00214991 -39.0027 -0.00134492
-43.2213 -0.00148815 -62.1613 -0.00214349 -37.8433 -0.00130494
-42.5659 -0.00146533 -61.9716 -0.00213695 -36.731 -0.00126659
-41.8268 -0.00143957 -61.8029 -0.00213113 -35.7204 -0.00123174
-40.9722 -0.00140975 -61.4712 -0.00211969 -34.8468 -0.00120162
-39.9094 -0.00137262 -60.9036 -0.00210012 -34.012 -0.00117283
-38.6229 -0.00132756 -59.9547 -0.0020674 -33.2742 -0.00114739
-37.1212 -0.00127482 -58.6781 -0.00202338 -32.6162 -0.0011247
-35.547 -0.00121931 -57.1995 -0.00197239 -32.1161 -0.00110745
-33.7893 -0.00115702 -55.6727 -0.00191975 -31.7118 -0.00109351
-31.815 -0.00108655 -53.8224 -0.00185594 -31.3327 -0.00108044
-29.6479 -0.00100844 -51.6494 -0.00178101 -30.9364 -0.00106677
-27.3193 -0.000923356 -49.3454 -0.00170156 -30.525 -0.00105259
-24.8335 -0.000830787 -46.9758 -0.00161985 -30.0365 -0.00103574
-22.2118 -0.000730517 -44.4181 -0.00153166 -29.3921 -0.00101352
-19.5004 -0.000622837 -41.6841 -0.00143738 -28.5551 -0.00098466
-16.7415 -0.000507325 -38.8881 -0.00134097 -27.5096 -0.000948608
-13.969 -0.000382279 -36.0602 -0.00124345 -26.2069 -0.000903687
-11.2235 -0.000244683 -33.1599 -0.00114344 -24.595 -0.000848104
-8.54819 -8.86768e-05 -30.2034 -0.00104149 -22.6572 -0.000781283
-5.98388 9.83448e-05 -27.2499 -0.000939646 -20.3931 -0.00070321
-3.57252 0.000348455 -24.319 -0.000838584 -17.7891 -0.000613419
-1.39215 0.000781541 -21.4034 -0.000738044 -14.8334 -0.000511496
-0.0506842 0.00240797 -18.5347 -0.000639125 -11.5335 -0.000397708
0 0.0065901 -15.7988 -0.000544782 -7.89591 -0.000272273
0 0.010563 -13.372 -0.000461101 -3.89849 -0.000134431
0 0.0142153 -10.8561 -0.000374346 -0.106938 -3.68812e-06
0 0.0182466 -8.71656 -0.000300567 1.64339 5.6668e-05
0 0.0240986 -6.54898 -0.000225823 3.09875 0.000106853
0 0.0330526 -4.58342 -0.000158045 4.88431 0.000168424
0 0.044887 -2.66513 -9.18968e-05 6.75576 0.000232957
0 0.0570756 -0.820804 -2.82994e-05 8.40243 0.000289738
0 0.0699116 0.743305 2.56354e-05 9.90858 0.000341674
0 0.0826844 2.23567 7.70962e-05 11.415 0.000393619
0 0.0962914 3.54505 0.000122247 13.0489 0.000449962
0 0.111374 4.85838 0.000167535 14.5574 0.000501978
0 0.127204 6.18755 0.000213368 15.8494 0.000546532
0 0.144213 7.44588 0.000256759 17.0813 0.00058901
0 0.162126 8.66497 0.000298796 18.3011 0.000631072
0 0.181631 9.85413 0.000339802 19.4304 0.000670013
0 0.202394 11.0156 0.000379853 20.378 0.00070269
0 0.224196 12.1426 0.000418716 21.1749 0.000730169
0 0.246647 13.2534 0.000457018 21.8804 0.000754496
0 0.269712 14.3482 0.000494772 22.4824 0.000775253
0 0.293508 15.4071 0.000531285 22.9433 0.000791149
0 0.318082 16.4371 0.0005668 23.2542 0.00080187
0 0.343567 17.4249 0.000600865 23.4586 0.000808916
0 0.370141 18.3645 0.000633263 23.5071 0.000810591
0 0.398015 19.2264 0.000662985 23.3284 0.000804428
0 0.427258 20.0191 0.000690318 22.9291 0.000790659
0 0.457703 20.7451 0.000715352 22.344 0.000770482
0 0.4891 21.4013 0.000737982 21.6189 0.000745479
0 0.519739 21.9906 0.000758303 20.7921 0.000716969
0 0.557058 22.5123 0.000776293 19.8671 0.000685071
0 0.595684 22.8576 0.000788199 19.0144 0.000655669
0 0.629177 23.3375 0.000804748 18.0236 0.000621503
0 0.661151 23.6139 0.000814278 17.1155 0.00059019
0 0.695684 23.9577 0.000826134 16.3535 0.000563912
0 0.730983 24.5143 0.000845327 15.7476 0.000543021
0 0.761519 24.9249 0.000859484 15.1843 0.000523597
0 0.788658 25.1874 0.000868536 14.7203 0.000507595
0 0.815288 25.535 0.000880524 14.4615 0.00049867
0 0.840059 25.9594 0.000895158 14.3835 0.000495984
0 0.860845 26.3175 0.000907506 14.4419 0.000497998
0 0.87867 26.6262 0.000918151 14.6764 0.000506083
0 0.894827 26.981 0.000930385 15.1265 0.000521603
0 0.908536 27.3609 0.000943486 15.7636 0.00054357
0 0.919076 27.707 0.00095542 16.5539 0.000570823
0 0.926844 28.0275 0.000966472 17.5092 0.000603766
0 0.932816 28.332 0.000976973 18.6481 0.000643037
0 0.937023 28.613 0.000986663 19.9267 0.000687128
0 0.939462 28.8356 0.000994338 21.3168 0.000735062
0 0.940782 29.0122 0.00100043 22.7936 0.000785987
0 0.941767 29.1435 0.00100496 24.333 0.000839067
0 0.941753 29.3024 0.00101044 25.1165 0.000866086
0 0.941669 29.258 0.00100891 25.7203 0.000886906
0 0.941569 29.2872 0.00100991 26.1515 0.000901775
0 0.941591 29.2416 0.00100834 26.6792 0.000919971
0 0.941576 29.2584 0.00100892 27.1468 0.000936097
0 0.94166 29.3106 0.00101072 27.4897 0.000947919
0 0.941827 29.4344 0.00101499 27.7572 0.000957145
0 0.942677 29.6076 0.00102096 28.0213 0.000966251
0 0.94554 29.8204 0.0010283 28.2475 0.000974053
0 0.94965 30.1139 0.00103842 28.3735 0.000978396
0 0.953393 30.361 0.00104694 28.3953 0.000979149
0 0.956177 30.6748 0.00105776 28.2377 0.000973715
0 0.958972 30.9955 0.00106882 27.9545 0.000963948
0 0.961437 31.3474 0.00108095 27.4983 0.000948216
0 0.962525 31.7096 0.00109344 26.894 0.000927377
0 0.962285 32.0814 0.00110626 26.1791 0.000902728
0 0.961814 32.404 0.00111739 25.4433 0.000877354
0 0.961011 32.6822 0.00112698 24.7054 0.00085191
0 0.959711 32.7191 0.00112825 24.1026 0.000831124
0 0.957929 32.7637 0.00112979 23.514 0.000810826
0 0.953346 32.7162 0.00112815 23.0026 0.000793192
0 0.944003 32.591 0.00112384 22.5794 0.0007786
0 0.931168 32.3159 0.00111435 22.2585 0.000767534
0 0.917758 31.7941 0.00109636 22.0744 0.000761186
0 0.903869 31.0332 0.00107012 22.008 0.000758896
0 0.888859 30.0266 0.00103541 22.0643 0.000760839
0 0.873446 28.8001 0.000993113 22.2124 0.000765946
0 0.858281 27.395 0.000944664 22.4081 0.000772693
0 0.84119 25.9882 0.000896154 22.5442 0.000777386
0 0.824224 24.3869 0.000840935 22.6781 0.000782001
0 0.808342 22.7843 0.000785674 22.6906 0.000782433
0 0.794091 21.1425 0.00072906 22.577 0.000778518
0 0.780947 19.554 0.000674283 22.2564 0.000767463
0 0.769672 18.0373 0.000621982 21.7199 0.000748962
0 0.76116 16.689 0.000575492 20.9462 0.000722281
0 0.75517 15.5079 0.000534763 19.8896 0.000685847
0 0.750826 14.4735 0.000499095 18.5234 0.000638738
0 0.74839 13.627 0.000469903 16.872 0.000581794
0 0.748339 13.0227 0.000449068 14.9646 0.000516019
0 0.74871 12.6912 0.000437633 12.7967 0.000441266
0 0.749179 12.5198 0.000431724 10.4391 0.00035997
0 0.749909 12.5732 0.000433568 7.94669 0.000274023
0 0.750799 12.8357 0.000442616 5.40534 0.000186391
0 0.751675 13.2529 0.000457003 2.885 9.94821e-05
0 0.752805 13.779 0.000475146 0.790164 2.72465e-05
0 0.754996 14.5045 0.000500164 -0.19253 -6.63946e-06
0 0.758652 15.252 0.00052594 -1.10381 -3.80629e-05
0 0.762758 15.9567 0.000550239 -1.81496 -6.25852e-05
0 0.766633 16.4637 0.000567723 -2.25779 -7.78552e-05
0 0.769838 16.872 0.0005818 -2.56409 -8.84172e-05
0 0.771719 17.1872 0.000592671 -2.75229 -9.49072e-05
0 0.772017 17.3485 0.000598233 -2.5784 -8.89108e-05
0 0.771856 17.3342 0.000597738 -1.89417 -6.53168e-05
0 0.771357 17.1818 0.000592484 -0.781253 -2.69403e-05
0 0.770015 16.9278 0.000583726 0.672565 2.31914e-05
0 0.766736 16.599 0.000572387 1.76254 6.07767e-05
0 0.760889 16.1969 0.000558523 2.91289 0.000100444
0 0.754426 15.7643 0.000543603 4.34678 0.000149889
0 0.748692 15.3948 0.000530864 5.82257 0.000200778
0 0.743502 15.1189 0.00052135 7.27233 0.000250769
0 0.73845 14.9866 0.000516788 8.72227 0.000300768
0 0.734195 15.0071 0.000517494 10.2124 0.00035215
0 0.731478 15.1939 0.000523934 11.6567 0.000401954
0 0.730426 15.5748 0.00053707 12.9697 0.000447231
0 0.730555 16.1675 0.000557507 14.1452 0.000487765
0 0.730942 16.9862 0.000585737 15.2091 0.000524452
0 0.73161 18.026 0.000621594 16.1508 0.000556924
0 0.735169 19.2732 0.000664602 16.9423 0.000584218
0 0.742974 20.6764 0.000712985 17.5977 0.000606818
0 0.751978 22.2385 0.000766851 18.1203 0.000624837
0 0.760166 23.9058 0.000824347 18.5379 0.000639236
0 0.768473 25.6401 0.000884148 18.8628 0.000650441
0 0.777517 27.3805 0.000944161 19.1143 0.000659113
0 0.785319 0 0.0775264 19.0345 0.000656363
0 0.759535 0 0.239378 10.2672 0.000354042
0 0.759639 0 0.318637 12.9089 0.000445134
0 0.757217 0 0.34755 9.70699 0.000334723
0 0.775419 0 0.325339 12.6734 0.000437014
0 0.782537 0 0.331892 13.6419 0.00047041
0 0.78288 0 0.353021 14.6087 0.000503747
0 0.783549 0 0.37395 14.5257 0.000500887
0 0.787767 0 0.372135 16.1629 0.000557341
0 0.793128 0 0.371198 18.4697 0.000636885
0 0.793936 0 0.375523 20.1892 0.000696179
0 0.795061 0 0.381914 20.9742 0.000723248
0 0.796226 0 0.381764 21.6985 0.000748223
0 0.797306 0 0.380441 23.3418 0.000804888
0 0.796992 0 0.381062 24.966 0.000860895
0 0.796967 0 0.381337 26.0575 0.000898535
0 0.796988 0 0.380536 26.7847 0.000923611
0 0.79682 0 0.379666 27.8377 0.000959922
0 0.796822 0 0.379775 28.9898 0.000999647
0 0.797462 0 0.380078 29.71 0.00102448
0 0.80014 0 0.379966 30.0081 0.00103476
0 0.805812 0 0.379958 30.2714 0.00104384
0 0.813916 0 0.380561 30.5473 0.00105335
0 0.823537 0 0.38141 30.4537 0.00105013
0 0.834845 0 0.382188 29.8494 0.00102929
0 0.847451 0 0.383338 28.9639 0.000998754
0 0.861517 0 0.388839 27.7998 0.000958613
0 0.875623 0 0.398638 26.2706 0.000905881
0 0.890247 0 0.409012 24.4848 0.000844304
0 0.905933 0 0.418524 22.529 0.000776861
0 0.922432 0 0.426332 20.6738 0.000712888
0 0.938413 0 0.434613 18.8326 0.0006494
0 0.953126 0 0.444585 16.941 0.000584173
0 0.966644 0 0.4549 15.1242 0.000521522
0 0.978721 0 0.463861 13.5455 0.000467085
0 0.989045 0 0.470196 12.3241 0.000424968
0 0.99726 0 0.475113 11.4061 0.000393313
0 1.00294 0 0.479796 10.7638 0.000371165
0 1.00597 0 0.484141 10.4645 0.000360844
0 1.00647 0 0.487489 10.5576 0.000364055
0 1.006 0 0.488758 11.0853 0.000382253
0 1.00515 0 0.488418 12.0116 0.000414192
0 1.00361 0 0.487931 13.2225 0.000455949
0 0.998229 0 0.487387 14.7259 0.00050779
0 0.986187 0 0.486918 16.3907 0.000565195
0 0.971154 0 0.486163 18.2589 0.000629617
0 0.95634 0 0.485245 20.2495 0.000698258
0 0.941292 0 0.483746 22.3205 0.000769671
0 0.924991 0 0.481043 24.4116 0.00084178
0 0.908954 0 0.477428 26.4579 0.00091234
0 0.894253 0 0.473718 28.3759 0.000978478
0 0.880311 0 0.470514 30.0112 0.00103487
0 0.866999 0 0.467658 30.9467 0.00106713
0 0.856321 0 0.461204 0 0.0899113
0 0.849991 0 0.452234 0 0.116789
0 0.83829 0 0.451382 0 0.13035
0 0.829392 0 0.449727 0 0.129071
0 0.819241 0 0.450874 0 0.128212
0 0.811605 0 0.450685 0 0.128866
0 0.803028 0 0.450934 0 0.129308
0 0.794583 0 0.452278 0 0.128529
0 0.78652 0 0.45506 0 0.127317
0 0.778723 0 0.457112 0 0.126785
0 0.772496 0 0.457409 0 0.126641
0 0.767018 0 0.457211 0 0.126079
0 0.760387 0 0.45728 0 0.125077
0 0.751934 0 0.457133 0 0.124293
0 0.742121 0 0.456216 0 0.123877
0 0.731153 0 0.453081 0 0.123509
0 0.717829 0 0.448996 0 0.122819
0 0.701539 0 0.443755 0 0.122005
0 0.682869 0 0.436767 0 0.121428
0 0.661921 0 0.427621 0 0.121179
0 0.638875 0 0.416513 0 0.120907
0 0.614192 0 0.404107 0 0.120584
0 0.587692 0 0.39027 0 0.120511
0 0.559808 0 0.37526 0 0.120612
0 0.531714 0 0.358875 0 0.120765
0 0.504441 0 0.341404 0 0.120849
0 0.479046 0 0.323804 0 0.120859
0 0.45479 0 0.306734 0 0.120818
0 0.431379 0 0.288566 0 0.120777
0 0.408354 0 0.269842 0 0.120559
0 0.386959 0 0.250834 0 0.119957
0 0.368048 0 0.232594 0 0.118696
0 0.351163 0 0.215488 0 0.117007
0 0.336148 0 0.199345 0 0.114021
0 0.32288 0 0.183421 0 0.109682
0 0.311966 0 0.166365 0 0.103303
0 0.303081 0 0.14914 0 0.0985034
0 0.296452 0 0.133161 0 0.0934267
0 0.292382 0 0.118239 0 0.0874838
0 0.291094 0 0.10396 0 0.0802563
0 0.291578 0 0.0895732 0 0.0720378
0 0.292418 0 0.0759531 0 0.0647309
0 0.293554 0 0.0641295 0 0.0567292
0 0.29506 0 0.0541795 0 0.0515456
0 0.296941 0 0.0451738 0 0.0476996
0 0.299003 0 0.036661 0 0.0440721
0 0.301249 0 0.0288057 0 0.0401503
0 0.303622 0 0.0207966 0 0.036007
0 0.307306 0 0.0135452 0 0.0319941
0 0.313061 0 0.00705865 0 0.0283419
0 0.322168 -0.515339 0.00124003 0 0.0250856
0 0.333947 -0.854082 0.00100517 0 0.0215969
0 0.347969 -1.27208 0.000822703 0 0.0184083
0 0.363096 -1.65763 0.000702053 0 0.0155256
0 0.377907 -2.14195 0.0005851 0 0.0131313
0 0.392275 -2.44142 0.000525135 0 0.0112435
0 0.405996 -2.48761 0.000516526 0 0.0095456
0 0.419077 -2.52156 0.000510294 0 0.00816371
0 0.430817 -2.48167 0.000517624 0 0.00730589
0 0.440871 -2.29266 0.000553974 0 0.00707336
0 0.44958 -1.94577 0.000628982 0 0.0071586
0 0.457478 -1.4708 0.000756531 0 0.00737869
0 0.464505 -0.911709 0.000975138 0 0.00774252
0 0.470407 -0.328139 0.00145462 0 0.00826208
0 0.475319 -0.0298394 0.00270094 0 0.00893063
0 0.479601 -0.00109227 0.00480019 0 0.00972011
0 0.483539 0 0.00720717 0 0.0106216
0 0.487063 0 0.00983995 0 0.0116227
0 0.490213 0 0.012709 0 0.0128738
0 0.49316 0 0.0171402 0 0.0150539
0 0.495589 0 0.0259822 0 0.0182449
0 0.497159 0 0.0404744 0 0.0225986
0 0.498393 0 0.0582922 0 0.0300999
0 0.49914 0 0.0777248 0 0.0383585
0 0.499129 0 0.0968736 0 0.0464493
0 0.498819 0 0.116773 0 0.0537262
0 0.498351 0 0.138699 0 0.0606709
0 0.497228 0 0.162239 0 0.068101
0 0.493319 0 0.186403 0 0.0758213
0 0.487373 0 0.210425 0 0.0832263
0 0.483113 0 0.233143 0 0.090319
0 0.480575 0 0.255969 0 0.0975661
0 0.478237 0 0.282126 0 0.105218
0 0.472231 0 0.308663 0 0.112831
0 0.465103 0 0.330944 0 0.120268
0 0.459305 0 0.34882 0 0.127685
0 0.453293 0 0.3644 0 0.139855
0 0.44551 0 0.379027 0 0.159386
0 0.437332 0 0.391544 0 0.181489
0 0.430138 0 0.399725 0 0.202768
0 0.423998 0 0.404944 0 0.231969
0 0.418011 0 0.406005 0 0.289823
0 0.413031 0 0.405768 0 0.337099
0 0.407868 0 0.404907 0 0.377922
0 0.403671 0 0.404509 0 0.393088
0 0.399375 0 0.404109 0 0.398877
0 0.396577 0 0.403292 0 0.407903
0 0.395011 0 0.401133 0 0.426227
0 0.394807 0 0.396056 0 0.44508
0 0.394599 0 0.39203 0 0.45191
0 0.394905 0 0.389464 0 0.45122
0 0.395695 0 0.387199 0 0.450436
0 0.396782 0 0.384807 0 0.449187
0 0.398067 0 0.38186 0 0.4454
0 0.400455 0 0.379716 0 0.435617
0 0.407251 0 0.378926 0 0.420289
0 0.419419 0 0.378456 0 0.398876
0 0.433261 0 0.377169 0 0.376262
0 0.446343 0 0.375632 0 0.356073
0 0.460768 0 0.374371 0 0.33502
0 0.476081 0 0.370964 0 0.314005
0 0.491133 0 0.365742 0 0.293017
0 0.503997 0 0.359068 0 0.272331
0 0.516335 0 0.351572 0 0.252521
0 0.527982 0 0.344152 0 0.233359
0 0.537816 0 0.335643 0 0.216854
0 0.545679 0 0.325748 0 0.20221
0 0.552233 0 0.315018 0 0.188408
0 0.557853 0 0.30315 0 0.176455
0 0.562013 0 0.290204 0 0.166661
0 0.564575 0 0.276678 0 0.158613
0 0.565945 0 0.262612 0 0.151793
0 0.565907 0 0.248324 0 0.145984
0 0.56533 0 0.234152 0 0.141508
0 0.564718 0 0.220703 0 0.138479
0 0.562216 0 0.207675 0 0.136807
0 0.557481 0 0.195521 0 0.135575
0 0.553942 0 0.184684 0 0.135037
0 0.553118 0 0.175969 0 0.135068
0 0.552699 0 0.169166 0 0.135159
0 0.551524 0 0.163336 0 0.135262
0 0.551113 0 0.158285 0 0.135364
0 0.551409 0 0.154832 0 0.135466
0 0.55179 0 0.153957 0 0.135542
0 0.553493 0 0.154403 0 0.135601
0 0.558032 0 0.15509 0 0.135666
0 0.563475 0 0.156179 0 0.135723
0 0.568323 0 0.157827 0 0.1358
0 0.573217 0 0.160024 0 0.135893
0 0.578999 0 0.162725 0 0.136022
0 0.584498 0 0.167996 0 0.136164
0 0.588084 0 0.178892 0 0.136282
0 0.590165 0 0.194808 0 0.136459
0 0.591481 0 0.211955 0 0.136758
0 0.59243 0 0.227866 0 0.137227
0 0.595782 0 0.243247 0 0.137925
0 0.598203 0 0.259721 0 0.138763
0 0.597773 0 0.277183 0 0.139979
0 0.595704 0 0.292781 0 0.143064
0 0.592054 0 0.306126 0 0.150617
0 0.586466 0 0.316948 0 0.164342
0 0.579135 0 0.326507 0 0.182435
0 0.570116 0 0.334921 0 0.201807
0 0.559514 0 0.341543 0 0.221022
0 0.547434 0 0.346056 0 0.240392
0 0.534167 0 0.348713 0 0.261131
0 0.519909 0 0.350054 0 0.283354
0 0.504745 0 0.350413 0 0.305697
0 0.48892 0 0.350206 0 0.32666
0 0.473358 0 0.35069 0 0.345359
0 0.45806 0 0.351989 0 0.362242
0 0.443529 0 0.352778 0 0.378347
0 0.429166 0 0.353059 0 0.392837
0 0.414782 0 0.352898 0 0.405159
0 0.400275 0 0.352891 0 0.4146
0 0.385966 0 0.35293 0 0.421299
0 0.37191 0 0.35289 0 0.425552
0 0.357685 0 0.352745 0 0.427488
0 0.343002 0 0.352595 0 0.42745
0 0.328504 0 0.352298 0 0.427064
0 0.316439 0 0.35152 0 0.426492
0 0.305126 0 0.350216 0 0.425466
0 0.294044 0 0.346775 0 0.421837
0 0.283407 0 0.341549 0 0.414915
0 0.273623 0 0.33524 0 0.406499
0 0.264774 0 0.326997 0 0.394638
0 0.256148 0 0.315769 0 0.38016
0 0.248131 0 0.300969 0 0.364128
0 0.240875 0 0.283585 0 0.349246
0 0.234369 0 0.265227 0 0.335429
0 0.228608 0 0.246369 0 0.322164
0 0.223169 0 0.226617 0 0.307701
0 0.218422 0 0.205295 0 0.291464
0 0.215582 0 0.184395 0 0.274767
0 0.213174 0 0.165613 0 0.25814
0 0.209488 0 0.146616 0 0.241476
0 0.204967 0 0.12567 0 0.224667
0 0.200633 0 0.103965 0 0.208266
0 0.196143 0 0.0837894 0 0.190534
0 0.190697 0 0.0654353 0 0.172584
0 0.184516 0 0.0471128 0 0.155029
0 0.178359 0 0.0275805 0 0.137537
0 0.172174 0 0.00767608 0 0.119582
0 0.164958 -2.20696 0.000571422 0 0.100901
0 0.154397 -3.18385 0.000402395 0 0.0798334
0 0.145652 -4.74516 0.000213013 0 0.0607986
0 0.13621 -6.80635 3.26155e-05 0 0.0451162
0 0.126563 -9.08892 -0.000122587 0 0.0332182
0 0.116108 -10.6296 -0.000212319 0 0.0225274
0 0.106193 -12.2472 -0.000298006 0 0.0113416
0 0.0962214 -14.1463 -0.000390595 -0.698594 0.00109801
0 0.0854843 -16.07 -0.000477977 -2.86015 0.00045217
0 0.0743648 -17.6626 -0.000546675 -4.23337 0.000267998
0 0.0633137 -19.2757 -0.000613652 -5.58301 0.000133103
0 0.0521232 -20.8958 -0.000678813 -7.44752 -1.44717e-05
0 0.0401641 -22.3379 -0.00073538 -9.20625 -0.000129774
0 0.0278237 -23.653 -0.000785994 -10.2952 -0.000193617
0 0.0152962 -24.8808 -0.000832538 -11.0931 -0.000237652
-0.0505726 0.00240916 -26.0884 -0.000877746 -11.9773 -0.000284213
-1.45354 0.000761879 -27.3416 -0.000924145 -12.8372 -0.000327579
-2.44384 0.000524648 -28.4268 -0.000963959 -13.2969 -0.00035009
-3.72461 0.000328811 -29.3936 -0.000999177 -13.4913 -0.000359481
-5.04494 0.000183111 -30.4026 -0.00103571 -13.5133 -0.000360542
-6.11128 8.77033e-05 -31.2033 -0.00106456 -13.5084 -0.000360304
-7.16044 6.18344e-06 -31.8466 -0.00108765 -13.2389 -0.000347274
-8.27405 -7.08841e-05 -32.368 -0.00110631 -12.6929 -0.000320424
-9.2396 -0.000131827 -32.8 -0.00112174 -11.9768 -0.000284183
-10.0824 -0.00018153 -33.0751 -0.00113156 -11.1979 -0.000243284
-10.8895 -0.000226633 -33.197 -0.0011359 -10.3333 -0.000195767
-11.5806 -0.000263615 -33.1929 -0.00113576 -9.3652 -0.000139398
-12.1058 -0.000290827 -33.0587 -0.00113098 -8.3271 -7.43355e-05
-12.4986 -0.000310731 -32.7753 -0.00112086 -7.26569 -1.44567e-06
-12.7271 -0.000322147 -32.3016 -0.00110394 -6.20811 7.97597e-05
-12.7503 -0.0003233 -31.6475 -0.00108051 -5.15782 0.000172279
-12.6046 -0.000316042 -30.836 -0.00105134 -4.14656 0.000277901
-12.335 -0.00030249 -29.935 -0.00101881 -3.23053 0.000395602
-11.8666 -0.000278522 -28.943 -0.000982791 -2.42249 0.000528703
-11.216 -0.000244277 -27.7526 -0.000939262 -1.72557 0.000683742
-10.4395 -0.000201764 -26.4067 -0.000889577 -1.15189 0.000868006
-9.55087 -0.000150526 -24.9804 -0.000836288 -0.721365 0.00108315
-8.60972 -9.26141e-05 -23.4868 -0.000779645 -0.32871 0.00145377
-7.67265 -3.02967e-05 -21.8852 -0.000717753 -0.126336 0.00192733
-6.70893 4.00327e-05 -20.1906 -0.000650681 -0.0462666 0.00245765
-5.74545 0.000118765 -18.4653 -0.000580295 -0.0171027 0.00302063
-4.81779 0.000205598 -16.7197 -0.000506348 -0.00642679 0.00361425
-3.92928 0.000303492 -14.9541 -0.000427962 -0.0024294 0.00424666
-3.09651 0.000415312 -13.2036 -0.000345549 -0.000920743 0.00492262
-2.33992 0.000544589 -11.5056 -0.000259634 0 0.00570182
-1.67381 0.000697595 -9.88074 -0.000169867 0 0.00697282
-1.11369 0.000883393 -8.33984 -7.51595e-05 0 0.00922772
-0.674357 0.00111438 -6.92093 2.39592e-05 0 0.01351
-0.366371 0.00140172 -5.66226 0.000126086 0 0.019731
-0.183104 0.00174017 -4.58333 0.000229818 0 0.0280369
-0.0978664 0.00205872 -3.61825 0.000342502 0 0.0383517
-0.0589882 0.00232604 -2.8462 0.00045444 0 0.0489947
-0.0388229 0.00255403 -2.23905 0.000564813 0 0.0602545
-0.0257853 0.00278357 -1.79292 0.000666299 0 0.0718287
-0.0156191 0.00307392 -1.46639 0.0007579 0 0.0830252
-0.00785855 0.00348885 -1.26928 0.000823705 0 0.0937692
-0.00337943 0.00402714 -1.20517 0.000847359 0 0.104268
-0.00120238 0.00473197 -1.24333 0.00083313 0 0.114641
0 0.0056699 -1.32994 0.000802414 0 0.124536
0 0.00682333 -1.42036 0.000772431 0 0.133289
0 0.00811713 -1.49155 0.000750149 0 0.14048
0 0.00914593 -1.40597 0.000777074 0 0.145998
0 0.0106573 -1.30723 0.000810269 0 0.150119
0 0.0123907 -1.07028 0.000901614 0 0.1528
0 0.014413 -0.75796 0.00106026 0 0.153799
0 0.0167782 -0.400673 0.00135905 0 0.153638
0 0.0204201 -0.124071 0.00193657 0 0.153305
0 0.0264115 -0.0193645 0.0029482 0 0.152065
0 0.0351493 -0.00332329 0.00403819 0 0.148909
0 0.0482626 -0.000773812 0.00504878 0 0.144173
0 0.0672241 0 0.00609761 0 0.137501
0 0.0910439 0 0.00734427 0 0.130742
0 0.117078 0 0.00865865 0 0.123989
0 0.143236 0 0.00944831 0 0.117611
0 0.170276 0 0.0102673 0 0.111297
0 0.198262 0 0.0113266 0 0.104368
0 0.22685 0 0.0126596 0 0.0978364
0 0.254632 0 0.014478 0 0.0917571
0 0.281707 0 0.0168759 0 0.0861512
0 0.308376 0 0.020328 0 0.0807258
0 0.334596 0 0.0243566 0 0.0756443
0 0.360045 0 0.0295576 0 0.0713149
0 0.385065 0 0.0355056 0 0.0681877
0 0.409883 0 0.0423623 0 0.0660683
0 0.434419 0 0.0500861 0 0.0649351
0 0.458259 0 0.0583718 0 0.0647594
0 0.480928 0 0.0672859 0 0.0649582
0 0.502281 0 0.0770065 0 0.0653322
0 0.522425 0 0.0877461 0 0.0658592
0 0.541444 0 0.0996461 0 0.0665414
0 0.55921 0 0.112464 0 0.0673914
0 0.575388 0 0.126149 0 0.0685263
0 0.589046 0 0.141065 0 0.0717179
0 0.602105 0 0.156615 0 0.0812494
0 0.617885 0 0.171976 0 0.0950647
0 0.632215 0 0.1872 0 0.111186
0 0.642567 0 0.203873 0 0.126984
0 0.650789 0 0.222381 0 0.14095
0 0.659199 0 0.242577 0 0.154383
0 0.66681 0 0.263562 0 0.16981
0 0.672954 0 0.284186 0 0.187735
0 0.681576 0 0.306055 0 0.207762
0 0.691034 0 0.331721 0 0.227365
0 0.697019 0 0.357883 0 0.245935
0 0.701183 0 0.381667 0 0.264799
0 0.706086 0 0.403626 0 0.285613
0 0.709854 0 0.425726 0 0.308656
0 0.7102 0 0.449133 0 0.332151
0 0.709712 0 0.472391 0 0.35464
0 0.709244 0 0.493657 0 0.37653
0 0.708087 0 0.515872 0 0.398864
0 0.705534 0 0.538608 0 0.422372
0 0.697619 0 0.561361 0 0.446207
0 0.684315 0 0.581291 0 0.474787
0 0.670195 0 0.596334 0 0.503794
0 0.656495 0 0.608941 0 0.533351
0 0.641212 0 0.620473 0 0.56153
0 0.623426 0 0.632124 0 0.5846
0 0.605628 0 0.643133 0 0.607855
0 0.587719 0 0.649613 0 0.632129
0 0.568571 0 0.652409 0 0.655867
0 0.548343 0 0.653152 0 0.674303
0 0.527998 0 0.653074 0 0.6884
0 0.507692 0 0.652713 0 0.699537
0 0.487675 0 0.651892 0 0.709196
0 0.468583 0 0.650592 0 0.717341
0 0.450281 0 0.648776 0 0.722508
0 0.432419 0 0.644205 0 0.724041
0 0.415724 0 0.635607 0 0.723879
0 0.400516 0 0.624433 0 0.723494
0 0.38671 0 0.610783 0 0.722937
0 0.373888 0 0.595801 0 0.721791
0 0.361786 0 0.578863 0 0.714557
0 0.350509 0 0.56036 0 0.699498
0 0.339677 0 0.540814 0 0.680147
0 0.328848 0 0.52136 0 0.655478
0 0.317459 0 0.502133 0 0.628151
0 0.306587 0 0.481976 0 0.597935
0 0.295808 0 0.460535 0 0.566802
0 0.284389 0 0.438326 0 0.534786
0 0.271758 0 0.415466 0 0.502392
0 0.25798 0 0.391984 0 0.468989
0 0.243071 0 0.367225 0 0.435956
0 0.226552 0 0.341652 0 0.406422
0 0.207938 0 0.316327 0 0.376053
0 0.18759 0 0.289734 0 0.346356
0 0.166549 0 0.260488 0 0.318554
0 0.145488 0 0.229945 0 0.292586
0 0.122974 0 0.19937 0 0.267483
0 0.097626 0 0.167583 0 0.242818
0 0.0700567 0 0.132833 0 0.219186
0 0.0413929 0 0.0948722 0 0.197619
0 0.0114748 0 0.0550093 0 0.178287
-3.09187 0.00041601 0 0.0134409 0 0.160487
-5.97678 9.89428e-05 -6.02168 9.52011e-05 0 0.144045
-9.63949 -0.000155774 -9.40947 -0.000142051 0 0.119715
-13.7669 -0.000372697 -13.49 -0.000359411 0 0.101633
-17.6963 -0.00054813 -18.3128 -0.000573954 0 0.0761467
-21.3082 -0.000695148 -23.9184 -0.00079611 0 0.0549149
-25.2544 -0.000846613 -27.8874 -0.00094421 0 0.0341136
-29.0674 -0.000987351 -31.9579 -0.00109164 0 0.0128896
-32.6684 -0.00111708 -36.6861 -0.00125947 -2.84272 0.000454997
-36.2049 -0.00124254 -41.6572 -0.00143363 -6.05641 9.2289e-05
-39.6952 -0.00136513 -45.6475 -0.00157244 -8.73413 -0.00010049
-42.772 -0.00147251 -49.7554 -0.00171482 -12.1484 -0.000292982
-45.7129 -0.00157474 -53.94 -0.00185953 -16.6959 -0.000505325
-48.5223 -0.00167215 -57.9575 -0.00199828 -21.0677 -0.00068563
-50.5726 -0.00174313 -58.5077 -0.00201728 -24.6717 -0.000824663
-51.9438 -0.00179056 -59.0312 -0.00203535 -27.48 -0.000929249
-53.5479 -0.00184601 -59.5458 -0.00205311 -31.8983 -0.00108951
-53.4198 -0.00184158 -59.9349 -0.00206654 -35.9448 -0.00123334
-53.4491 -0.0018426 -60.1648 -0.00207447 -36.5819 -0.00125581
-53.443 -0.00184239 -60.517 -0.00208663 -36.5469 -0.00125457
-53.3404 -0.00183884 -60.9577 -0.00210184 -36.6041 -0.00125659
-53.3135 -0.00183791 -61.2901 -0.0021133 -36.6537 -0.00125834
-53.2696 -0.0018364 -61.5719 -0.00212303 -36.6272 -0.0012574
-2.72511 0.000474498 -46.478 -0.00160126 -36.6907 -0.00125964
0 0.0288172 -54.3275 -0.00187292 -0.00534987 0.00373015
0 0.00898878 -47.2612 -0.00162842 -0.00728029 0.00353631
0 0.00728013 -55.241 -0.00190448 -0.00527344 0.0037393
-1.91117 0.000637138 -54.9636 -0.0018949 -0.00551372 0.00371098
-3.05421 0.000421706 -60.4152 -0.00208311 -0.00508632 0.00376234
-4.5779 0.000230359 -62.2895 -0.00214779 -0.00453844 0.00383539
-4.93698 0.000193688 -61.5698 -0.00212296 -0.00431901 0.00386734
-4.94627 0.00019277 -61.9008 -0.00213438 -0.00561476 0.00369946
-5.01374 0.000186147 -62.3276 -0.0021491 -0.0065801 0.00359946
-5.22347 0.000166033 -62.1111 -0.00214163 -0.00577318 0.00368184
0 0.0101772 -7.58838 -2.43909e-05 0 0.0443654
-4.41939 0.000240768 0 0.00929809 0 0.0972734
-4.5486 0.000226858 0 0.00926284 0 0.0733299
-6.43265 5.46353e-05 -2.56933 0.00050166 0 0.0906211
-8.23328 -7.56305e-05 -6.27017 7.4712e-05 0 0.0729318
-8.24181 -7.61946e-05 -6.91363 2.45069e-05 0 0.0733992
-8.488 -9.22982e-05 -5.81812 0.000112502 0 0.0745855
-8.9205 -0.000119807 -5.22078 0.00016632 0 0.0741772
-9.21556 -0.000138046 -5.51773 0.00013896 0 0.0718923
-9.40311 -0.000149433 -5.27947 0.00016081 0 0.0678244
-9.65775 -0.00016465 -4.68303 0.000219405 0 0.0651344
-9.85863 -0.000176467 -4.48704 0.000240064 0 0.0613995
-9.98563 -0.000183856 -4.63356 0.000224548 0 0.0559656
-10.1044 -0.000190713 -4.53443 0.000234997 0 0.0476889
-10.1698 -0.000194466 -4.3267 0.000257559 0 0.0390662
-10.1612 -0.000193969 -4.38239 0.000251419 0 0.0314479
-10.1199 -0.000191603 -4.63624 0.000224268 0 0.0308742
-10.0448 -0.000187276 -4.81472 0.000205941 0 0.0309934
-9.90199 -0.000178996 -4.97447 0.000190026 0 0.0310909
-9.72187 -0.000168439 -5.26448 0.000162213 0 0.0311381
-9.43943 -0.00015162 -5.65428 0.00012679 0 0.0312064
-9.05782 -0.000128346 -6.03331 9.4227e-05 0 0.0313351
-8.6271 -0.000101251 -6.41232 6.32827e-05 0 0.0314733
-8.17042 -7.14601e-05 -6.85498 2.89275e-05 0 0.0315738
-7.71223 -4.0337e-05 -7.3099 -4.62715e-06 0 0.0316623
-7.29717 -1.09411e-05 -7.73631 -3.46687e-05 0 0.0317733
-6.9709 1.30649e-05 -8.14292 -6.21901e-05 0 0.0318959
-6.7515 2.96971e-05 -8.54686 -8.85586e-05 0 0.0320109
-6.58366 4.27059e-05 -8.85243 -0.000107921 0 0.0320971
-6.52918 4.6985e-05 -9.09149 -0.000122745 0 0.0321602
-6.51081 4.84338e-05 -9.3864 -0.000140666 0 0.0322309
-6.5943 4.18736e-05 -9.50404 -0.000147707 0 0.0323066
-6.86656 2.09235e-05 -9.5236 -0.000148872 0 0.0323419
-7.19898 -3.80401e-06 -9.5529 -0.000150614 0 0.032349
-7.29332 -1.06633e-05 -9.51169 -0.000148163 0 0.0323501
-7.45169 -2.20278e-05 -9.35185 -0.000138586 0 0.0323473
-7.62322 -3.41345e-05 -9.13831 -0.000125617 0 0.0323305
-7.80702 -4.68851e-05 -8.94834 -0.000113901 0 0.0634829
-8.60795 -0.000100024 -7.14056 7.67108e-06 0 0.098446
-8.61503 -0.000100478 -6.2835 7.36319e-05 0 0.090245
-8.77327 -0.000110549 -6.9832 1.93011e-05 0 0.0906716
-9.29769 -0.000143051 -7.05462 1.39979e-05 0 0.101929
-9.42196 -0.000150568 -6.1654 8.32698e-05 0 0.108991
-9.63799 -0.000163479 -5.59339 0.000132186 0 0.104344
-9.95109 -0.000181853 -5.70505 0.000122326 0 0.0991651
-10.1209 -0.000191661 -5.69396 0.000123298 0 0.0993665
-10.2864 -0.000201113 -5.28891 0.000159929 0 0.0996591
-10.3563 -0.000205079 -5.07762 0.000179979 0 0.0976369
-10.1826 -0.000195198 -5.18375 0.000169822 0 0.0920871
-9.52256 -0.000156605 -5.18725 0.00016949 0 0.086705
-9.04226 -0.000127383 -5.11427 0.000176452 0 0.0825776
-8.32615 -8.17493e-05 -5.18552 0.000169654 0 0.0781985
-7.59543 -3.21869e-05 -5.26335 0.000162318 0 0.0707292
-6.61639 4.01489e-05 -5.36042 0.000153296 0 0.0622137
-5.43165 0.000139951 -5.15513 0.000172544 0 0.0546217
-4.14955 0.000271004 -4.80485 0.000206939 0 0.0479603
-2.88369 0.000442022 -4.31232 0.000259155 0 0.0478257
-1.65312 0.000697036 -3.76977 0.000323152 0 0.0479301
-0.51515 0.00123375 -3.07107 0.000419181 0 0.0480295
-0.0509131 0.00239811 -2.34729 0.000543179 0 0.0480881
-0.00186761 0.0044159 -1.68773 0.000693853 0 0.0481335
0 0.00640994 -1.04343 0.000913244 0 0.0481827
0 0.00821839 -0.472487 0.00128092 0 0.0482478
0 0.009923 -0.106355 0.00201569 0 0.0483179
0 0.0130473 -0.01327 0.00317059 0 0.0483729
0 0.0162898 -0.00131387 0.00466946 0 0.0484048
0 0.0196393 0 0.00610219 0 0.0484254
0 0.0220119 0 0.00728485 0 0.0484485
0 0.0235909 0 0.00854745 0 0.0485762
0 0.0247224 0 0.00954664 0 0.0488946
0 0.0250899 0 0.0108636 0 0.0493267
0 0.0248483 0 0.0131386 0 0.0499831
0 0.0245094 0 0.0156653 0 0.050994
0 0.0238852 0 0.0185011 0 0.0538036
0 0.0231083 0 0.0206362 0 0.0631595
0 0.0221961 0 0.0212456 0 0.0808044
0 0.0211743 0 0.0209978 0 0.102755
0 0.0202949 0 0.020503 0 0.122553
0 0.0197062 0 0.0199484 0 0.142458
0 0.0190931 0 0.0196178 0 0.161503
0 0.0181253 0 0.0193312 0 0.17961
0 0.0172699 0 0.0188408 0 0.192492
0 0.0166328 0 0.0183585 0 0.203902
0 0.0160545 0 0.0182521 0 0.213645
0 0.0152806 0 0.0186968 0 0.222337
0 0.0149119 0 0.0192232 0 0.230699
0 0.0148446 0 0.0203565 0 0.239852
0 0.0149543 0 0.0234109 0 0.249618
0 0.0152465 0 0.0280278 0 0.259854
0 0.0157201 0 0.034987 0 0.270255
0 0.0162441 0 0.0450811 0 0.27958
0 0.0168875 0 0.057407 0 0.286781
0 0.0177377 0 0.0712434 0 0.292034
0 0.0186991 0 0.0873941 0 0.295596
0 0.020252 0 0.106197 0 0.298291
0 0.0254638 0 0.127258 0 0.300237
0 0.033305 0 0.150196 0 0.300991
0 0.0431614 0 0.174817 0 0.300859
0 0.0550118 0 0.200395 0 0.300637
0 0.0679432 0 0.226415 0 0.300384
0 0.0813337 0 0.251899 0 0.300123
0 0.0942051 0 0.27081 0 0.299857
0 0.105434 0 0.284971 0 0.299402
0 0.115873 0 0.293138 0 0.299171
0 0.12578 0 0.298279 0 0.299191
0 0.135087 0 0.304907 0 0.299957
0 0.14353 0 0.316387 0 0.302616
0 0.150649 0 0.333778 0 0.308123
0 0.156646 0 0.35523 0 0.316097
0 0.163864 0 0.376618 0 0.326746
0 0.17051 0 0.393943 0 0.338097
0 0.175401 0 0.405849 0 0.351702
0 0.177389 0 0.413245 0 0.366541
0 0.177309 0 0.419308 0 0.381402
0 0.177086 0 0.427298 0 0.395141
0 0.176708 0 0.43633 0 0.406922
0 0.175054 0 0.445212 0 0.416916
0 0.171135 0 0.451743 0 0.426754
0 0.16537 0 0.454817 0 0.438164
0 0.159344 0 0.455058 0 0.45258
0 0.153191 0 0.454828 0 0.470212
0 0.146598 0 0.454907 0 0.489439
0 0.139514 0 0.455102 0 0.508337
0 0.132436 0 0.455642 0 0.524901
0 0.125898 0 0.45802 0 0.537955
0 0.119312 0 0.463576 0 0.547884
0 0.112855 0 0.470753 0 0.556961
0 0.107004 0 0.479512 0 0.56673
0 0.101676 0 0.488947 0 0.577604
0 0.0969543 0 0.497129 0 0.589719
0 0.0927528 0 0.503217 0 0.602119
0 0.0891742 0 0.508362 0 0.613027
0 0.0864919 0 0.514367 0 0.621533
0 0.084498 0 0.521898 0 0.627082
0 0.0832155 0 0.531012 0 0.630176
0 0.0828527 0 0.541013 0 0.631772
0 0.0831085 0 0.551121 0 0.633058
0 0.0835933 0 0.5613 0 0.634132
0 0.0843245 0 0.571861 0 0.633997
0 0.0854352 0 0.582917 0 0.633632
0 0.0869435 0 0.594397 0 0.633061
0 0.0880078 0 0.60592 0 0.631745
0 0.0889704 0 0.614319 0 0.626649
0 0.089953 0 0.617849 0 0.618035
0 0.0910213 0 0.617848 0 0.607395
0 0.0923945 0 0.617322 0 0.59565
0 0.0946839 0 0.617235 0 0.587161
0 0.0992383 0 0.617581 0 0.582386
0 0.108573 0 0.617659 0 0.581426
0 0.123916 0 0.617342 0 0.581425
0 0.141261 0 0.616971 0 0.580771
0 0.157714 0 0.616763 0 0.578433
0 0.172202 0 0.6168 0 0.572411
0 0.185766 0 0.616895 0 0.564371
0 0.199962 0 0.616758 0 0.557019
0 0.214705 0 0.616186 0 0.552918
0 0.228336 0 0.615682 0 0.552272
0 0.239824 0 0.615171 0 0.552311
0 0.248038 0 0.614411 0 0.552283
0 0.254519 0 0.612788 0 0.550701
0 0.260714 0 0.609713 0 0.546044
0 0.26798 0 0.605624 0 0.541101
0 0.276143 0 0.601409 0 0.537199
0 0.283975 0 0.598109 0 0.535579
0 0.290619 0 0.595574 0 0.535548
0 0.296243 0 0.593331 0 0.535567
0 0.301762 0 0.59081 0 0.535524
0 0.308431 0 0.587527 0 0.533968
0 0.316647 0 0.583747 0 0.531656
0 0.325546 0 0.580337 0 0.52934
0 0.334052 0 0.578024 0 0.527448
0 0.342211 0 0.576588 0 0.526664
0 0.350688 0 0.575697 0 0.526197
0 0.360664 0 0.574978 0 0.525288
0 0.372767 0 0.574159 0 0.523651
0 0.386625 0 0.573648 0 0.521367
0 0.401241 0 0.573931 0 0.518773
0 0.416415 0 0.57429 0 0.516601
0 0.432402 0 0.575186 0 0.515274
0 0.449169 0 0.577694 0 0.51419
0 0.466643 0 0.581466 0 0.513268
0 0.484519 0 0.586362 0 0.512205
0 0.502186 0 0.592587 0 0.51065
0 0.519371 0 0.596666 0 0.508633
0 0.535818 0 0.59874 0 0.506236
0 0.551711 0 0.599099 0 0.504079
0 0.567418 0 0.599089 0 0.502947
0 0.582512 0 0.600265 0 0.502679
0 0.596718 0 0.603616 0 0.502685
0 0.609939 0 0.608049 0 0.502689
0 0.62217 0 0.612215 0 0.502681
0 0.63338 0 0.615398 0 0.502676
0 0.643566 0 0.617879 0 0.50277
0 0.652609 0 0.620975 0 0.503052
0 0.660247 0 0.626186 0 0.503487
0 0.666422 0 0.633737 0 0.504148
0 0.671261 0 0.642712 0 0.507266
0 0.674913 0 0.651455 0 0.514399
0 0.677638 0 0.660746 0 0.525683
0 0.679033 0 0.67209 0 0.540248
0 0.679003 0 0.68605 0 0.556642
0 0.67858 0 0.7014 0 0.573493
0 0.677999 0 0.716241 0 0.586187
0 0.677363 0 0.728239 0 0.59417
0 0.676514 0 0.736988 0 0.600375
0 0.674655 0 0.744061 0 0.607119
0 0.670691 0 0.751371 0 0.616646
0 0.664752 0 0.760301 0 0.629539
0 0.657831 0 0.770321 0 0.644509
0 0.651093 0 0.779915 0 0.659251
0 0.644832 0 0.788151 0 0.671873
0 0.638666 0 0.795361 0 0.682018
0 0.632345 0 0.80277 0 0.690876
0 0.626158 0 0.811527 0 0.700245
0 0.62056 0 0.82202 0 0.711368
0 0.615709 0 0.833884 0 0.724303
0 0.612109 0 0.848111 0 0.742204
0 0.608755 0 0.864286 0 0.762391
0 0.606402 0 0.880964 0 0.784818
0 0.605216 0 0.900733 0 0.807882
0 0.605063 0 0.922267 0 0.829477
0 0.605279 0 0.945077 0 0.848048
0 0.605666 0 0.967044 0 0.862717
0 0.606261 0 0.987202 0 0.873687
0 0.607169 0 1.0064 0 0.882109
0 0.609913 0 1.02555 0 0.890024
0 0.616087 0 1.04556 0 0.898992
0 0.624657 0 1.06549 0 0.908131
0 0.634033 0 1.08546 0 0.91605
0 0.643288 0 1.10346 0 0.922191
0 0.652566 0 1.11866 0 0.926285
0 0.662463 0 1.13154 0 0.928929
0 0.673614 0 1.14349 0 0.931082
0 0.685564 0 1.15605 0 0.933367
0 0.697631 0 1.17023 0 0.935598
0 0.711355 0 1.18547 0 0.937549
0 0.725623 0 1.19972 0 0.939723
0 0.739874 0 1.21247 0 0.941356
0 0.753338 0 1.22297 0 0.942721
0 0.765856 0 1.231 0 0.945198
0 0.77814 0 1.23797 0 0.948339
0 0.79029 0 1.24566 0 0.951779
0 0.802365 0 1.25502 0 0.955528
0 0.813804 0 1.2657 0 0.95956
0 0.824481 0 1.27633 0 0.963735
0 0.834936 0 1.28528 0 0.968442
0 0.845829 0 1.29138 0 0.974277
0 0.857114 0 1.29503 0 0.981076
0 0.868329 0 1.29729 0 0.98859
0 0.879116 0 1.29911 0 0.996705
0 0.889365 0 1.30088 0 1.00474
0 0.89897 0 1.30226 0 1.01242
0 0.907823 0 1.30292 0 1.01977
0 0.916735 0 1.30279 0 1.02692
0 0.925732 0 1.30264 0 1.03393
0 0.93498 0 1.30261 0 1.04039
0 0.944571 0 1.30265 0 1.04622
0 0.954539 0 1.30278 0 1.05099
0 0.965093 0 1.30309 0 1.05452
0 0.9763 0 1.30393 0 1.05714
0 0.988194 0 1.3057 0 1.05876
0 1.0007 0 1.30875 0 1.05926
0 1.01388 0 1.31292 0 1.05914
0 1.02741 0 1.31748 0 1.05894
0 1.04154 0 1.32209 0 1.05866
0 1.05641 0 1.32706 0 1.05832
0 1.07254 0 1.33272 0 1.0579
0 1.0894 0 1.33926 0 1.0572
0 1.10572 0 1.34642 0 1.05481
0 1.1216 0 1.35353 0 1.04901
0 1.13769 0 1.36125 0 1.04149
0 1.15436 0 1.3699 0 1.03339
0 1.17137 0 1.37958 0 1.0272
0 1.18794 0 1.39032 0 1.02396
0 1.20402 0 1.4012 0 1.02373
0 1.22011 0 1.41168 0 1.02379
0 1.23682 0 1.42183 0 1.02378
0 1.2543 0 1.42971 0 1.0237
0 1.27161 0 1.43595 0 1.02244
0 1.28833 0 1.44076 0 1.0208
0 1.30441 0 1.44468 0 1.02039
0 1.32008 0 1.44905 0 1.02043
0 1.33541 0 1.45516 0 1.02049
0 1.35013 0 1.46367 0 1.02067
0 1.36382 0 1.47399 0 1.02185
0 1.37632 0 1.48482 0 1.02427
0 1.38786 0 1.49513 0 1.02726
0 1.39869 0 1.50434 0 1.02921
0 1.40894 0 1.51265 0 1.0308
0 1.4182 0 1.52117 0 1.03183
0 1.42617 0 1.53048 0 1.03287
0 1.4329 0 1.54055 0 1.03448
0 1.43856 0 1.55103 0 1.03677
0 1.44345 0 1.56136 0 1.03937
0 1.44767 0 1.57141 0 1.04182
0 1.45116 0 1.58156 0 1.04395
0 1.45393 0 1.59229 0 1.04515
0 1.45623 0 1.60351 0 1.04677
0 1.45841 0 1.6148 0 1.04974
0 1.46047 0 1.62607 0 1.05323
0 1.46239 0 1.63746 0 1.05618
0 1.46425 0 1.64932 0 1.05818
0 1.46622 0 1.66187 0 1.0602
0 1.46848 0 1.67504 0 1.06655
0 1.47118 0 1.68848 0 1.07926
0 1.47441 0 1.70193 0 1.09768
0 1.47827 0 1.71515 0 1.118
0 1.4828 0 1.72837 0 1.13752
0 1.48781 0 1.74223 0 1.1539
0 1.49312 0 1.75717 0 1.16796
0 1.49874 0 1.77305 0 1.18143
0 1.50487 0 1.78945 0 1.19577
0 1.51165 0 1.80583 0 1.21123
0 1.51906 0 1.82194 0 1.22682
0 1.52691 0 1.83813 0 1.24129
0 1.53502 0 1.85496 0 1.25413
0 1.54337 0 1.87272 0 1.26588
0 1.55207 0 1.8912 0 1.27745
0 1.5611 0 1.90979 0 1.28942
0 1.57053 0 1.92803 0 1.30166
0 1.58072 0 1.94594 0 1.3136
0 1.59249 0 1.96362 0 1.32471
0 1.60469 0 1.98169 0 1.33504
0 1.61868 0 2.00113 0 1.34576
0 1.63374 0 2.02361 0 1.35664
0 1.64817 0 2.04642 0 1.36737
0 1.66181 0 2.06649 0 1.37841
0 1.67536 0 2.08399 0 1.38911
0 1.6894 0 2.10013 0 1.39848
0 1.70285 0 2.11487 0 1.40806
0 1.71413 0 2.12984 0 1.41748
0 1.72336 0 2.1444 0 1.42682
0 1.73193 0 2.15728 0 1.43625
0 1.74016 0 2.16819 0 1.44568
0 1.74749 0 2.1775 0 1.45533
0 1.75331 0 2.18613 0 1.46544
0 1.75776 0 2.1952 0 1.47604
0 1.76165 0 2.20507 0 1.48697
0 1.76535 0 2.21443 0 1.49803
0 1.76864 0 2.22247 0 1.50876
0 1.77148 0 2.22844 0 1.51905
0 1.77422 0 2.23245 0 1.52902
0 1.77714 0 2.23528 0 1.53889
0 1.7802 0 2.2376 0 1.54884
0 1.7832 0 2.24027 0 1.55876
0 1.78561 0 2.24394 0 1.56796
0 1.788 0 2.24704 0 1.57642
0 1.79085 0 2.24908 0 1.58381
0 1.79405 0 2.25039 0 1.58969
0 1.79753 0 2.2511 0 1.59443
0 1.80123 0 2.25167 0 1.5985
0 1.80516 0 2.2528 0 1.60207
0 1.80937 0 2.25446 0 1.60514
0 1.81394 0 2.25619 0 1.60732
0 1.8188 0 2.25777 0 1.60819
0 1.82387 0 2.25949 0 1.60807
0 1.82903 0 2.26151 0 1.60781
0 1.83425 0 2.26398 0 1.60745
0 1.83932 0 2.26691 0 1.607
0 1.84416 0 2.26995 0 1.6064
0 1.84865 0 2.27275 0 1.60448
0 1.85277 0 2.2755 0 1.59857
0 1.85612 0 2.27802 0 1.58874
0 1.8589 0 2.28036 0 1.57715
0 1.86093 0 2.28171 0 1.56478
0 1.86293 0 2.28146 0 1.55283
0 1.86543 0 2.28093 0 1.54192
0 1.86738 0 2.28043 0 1.53174
0 1.86823 0 2.28009 0 1.52107
0 1.86799 0 2.27961 0 1.51001
0 1.86767 0 2.27878 0 1.49886
0 1.8672 0 2.27743 0 1.48838
0 1.86655 0 2.27418 0 1.47914
0 1.86589 0 2.26772 0 1.47156
0 1.86534 0 2.25842 0 1.4652
0 1.86477 0 2.24724 0 1.46102
0 1.86407 0 2.23472 0 1.45816
0 1.86316 0 2.22198 0 1.45685
0 1.86148 0 2.20914 0 1.45666
0 1.85795 0 2.19559 0 1.45666
0 1.85126 0 2.18101 0 1.45662
0 1.84221 0 2.16583 0 1.45556
0 1.83205 0 2.15091 0 1.45342
0 1.82259 0 2.13648 0 1.45061
0 1.81361 0 2.12236 0 1.44768
0 1.80456 0 2.10849 0 1.44506
0 1.79527 0 2.09464 0 1.4431
0 1.78487 0 2.08275 0 1.44187
0 1.77474 0 2.0734 0 1.44121
0 1.76544 0 2.06752 0 1.44049
0 1.75781 0 2.06443 0 1.43912
0 1.75185 0 2.06189 0 1.43685
0 1.74696 0 2.05765 0 1.43352
0 1.74258 0 2.05054 0 1.42936
0 1.73875 0 2.0422 0 1.42497
0 1.73589 0 2.03411 0 1.42113
0 1.73401 0 2.0279 0 1.41818
0 1.73264 0 2.0241 0 1.41588
0 1.7317 0 2.02149 0 1.41437
0 1.73146 0 2.01895 0 1.4143
0 1.73165 0 2.01643 0 1.41197
0 1.73193 0 2.01447 0 1.40709
0 1.73227 0 2.01327 0 1.40036
0 1.73269 0 2.01172 0 1.39323
0 1.73346 0 2.00992 0 1.38697
0 1.73536 0 2.00681 0 1.38285
0 1.73831 0 2.00234 0 1.38118
0 1.74151 0 1.99733 0 1.38109
0 1.74449 0 1.99286 0 1.3811
0 1.74724 0 1.98978 0 1.38107
0 1.75002 0 1.98841 0 1.3798
0 1.75283 0 1.98827 0 1.377
0 1.75542 0 1.98826 0 1.37363
0 1.75723 0 1.98785 0 1.37085
0 1.75827 0 1.98657 0 1.36924
0 1.75883 0 1.98474 0 1.36893
0 1.75925 0 1.98317 0 1.36903
0 1.75952 0 1.98217 0 1.36918
0 1.75949 0 1.98179 0 1.36937
0 1.75938 0 1.98175 0 1.36956
0 1.75928 0 1.98164 0 1.36985
0 1.75918 0 1.98141 0 1.37085
0 1.75904 0 1.98123 0 1.37426
0 1.75888 0 1.98122 0 1.3796
0 1.7587 0 1.98141 0 1.38472
0 1.7585 0 1.98165 0 1.3895
0 1.75816 0 1.98195 0 1.39312
0 1.75761 0 1.98236 0 1.3956
0 1.75689 0 1.98293 0 1.39775
0 1.75621 0 1.98417 0 1.40056
0 1.75556 0 1.98637 0 1.40457
0 1.75481 0 1.9901 0 1.40957
0 1.75423 0 1.99515 0 1.41499
0 1.75392 0 2.00103 0 1.41987
0 1.7538 0 2.00716 0 1.42356
0 1.7538 0 2.01285 0 1.42622
0 1.75382 0 2.01788 0 1.42856
0 1.7539 0 2.02254 0 1.43136
0 1.75423 0 2.02739 0 1.43512
0 1.7548 0 2.03284 0 1.43974
0 1.75555 0 2.03904 0 1.44457
0 1.75645 0 2.0457 0 1.44887
0 1.75758 0 2.05228 0 1.45223
0 1.75923 0 2.05837 0 1.45479
0 1.76129 0 2.06389 0 1.45714
0 1.76349 0 2.06904 0 1.45997
0 1.76555 0 2.07417 0 1.46368
0 1.76745 0 2.07961 0 1.46809
0 1.76953 0 2.08532 0 1.47268
0 1.77166 0 2.09106 0 1.47684
0 1.77355 0 2.0966 0 1.48017
0 1.77496 0 2.10165 0 1.48283
0 1.77597 0 2.10621 0 1.48534
0 1.77674 0 2.1105 0 1.48818
0 1.77728 0 2.11476 0 1.49165
0 1.77745 0 2.11911 0 1.49561
0 1.77736 0 2.1235 0 1.49959
0 1.77723 0 2.12775 0 1.5031
0 1.77706 0 2.13164 0 1.50589
0 1.77683 0 2.13504 0 1.50809
0 1.77651 0 2.13795 0 1.51009
0 1.77589 0 2.14043 0 1.51235
0 1.77389 0 2.14245 0 1.51502
0 1.76958 0 2.14449 0 1.51786
0 1.76326 0 2.14624 0 1.5205
0 1.75644 0 2.1473 0 1.52264
0 1.7502 0 2.14755 0 1.52403
0 1.74456 0 2.14731 0 1.52482
0 1.73858 0 2.14696 0 1.52539
0 1.73192 0 2.14656 0 1.52608
0 1.72513 0 2.14608 0 1.52697
0 1.7188 0 2.14539 0 1.52775
0 1.713 0 2.14373 0 1.52811
0 1.70752 0 2.14006 0 1.5281
0 1.70238 0 2.13436 0 1.52805
0 1.69775 0 2.12737 0 1.52794
0 1.69377 0 2.11985 0 1.52778
0 1.69032 0 2.11237 0 1.52754
0 1.68717 0 2.10605 0 1.52721
0 1.68433 0 2.10103 0 1.52662
0 1.68205 0 2.09671 0 1.52422
0 1.68015 0 2.09256 0 1.51821
0 1.67865 0 2.08764 0 1.50963
0 1.67771 0 2.08133 0 1.49949
0 1.67745 0 2.0739 0 1.48848
0 1.6776 0 2.06621 0 1.47732
0 1.67784 0 2.05882 0 1.46598
0 1.67812 0 2.05213 0 1.45379
0 1.67852 0 2.04597 0 1.44033
0 1.67897 0 2.03995 0 1.42594
0 1.67999 0 2.03358 0 1.41397
0 1.68179 0 2.02691 0 1.40528
0 1.68438 0 2.01913 0 1.40157
0 1.68726 0 2.01049 0 1.40144
0 1.68989 0 2.00117 0 1.40149
0 1.69204 0 1.99158 0 1.40149
0 1.6939 0 1.98275 0 1.40128
0 1.69568 0 1.97593 0 1.39552
0 1.69757 0 1.971 0 1.38675
0 1.699 0 1.96662 0 1.37767
0 1.69986 0 1.96182 0 1.37022
0 1.70024 0 1.9559 0 1.36578
0 1.70037 0 1.94864 0 1.36453
0 1.7003 0 1.94113 0 1.36455
0 1.70014 0 1.93418 0 1.36455
0 1.7 0 1.928 0 1.36432
0 1.69978 0 1.92242 0 1.36134
0 1.69907 0 1.91682 0 1.35664
0 1.69694 0 1.91053 0 1.35136
0 1.69363 0 1.90382 0 1.34669
0 1.68981 0 1.89714 0 1.34375
0 1.68597 0 1.89073 0 1.34302
0 1.68177 0 1.88467 0 1.34305
0 1.67653 0 1.88032 0 1.34307
0 1.67023 0 1.87695 0 1.34306
0 1.66337 0 1.87493 0 1.34301
0 1.65668 0 1.87412 0 1.34264
0 1.65037 0 1.87385 0 1.34265
0 1.64404 0 1.87342 0 1.34275
0 1.63732 0 1.87246 0 1.34287
0 1.63019 0 1.87103 0 1.34301
0 1.62299 0 1.86956 0 1.34317
0 1.61585 0 1.8687 0 1.34332
0 1.60877 0 1.86867 0 1.34366
0 1.60164 0 1.86878 0 1.34458
0 1.59447 0 1.86883 0 1.34654
0 1.58777 0 1.86881 0 1.34892
0 1.58161 0 1.86879 0 1.35101
0 1.57592 0 1.86883 0 1.35283
0 1.5704 0 1.86894 0 1.3542
0 1.56483 0 1.86904 0 1.35516
0 1.55925 0 1.86916 0 1.35603
0 1.55392 0 1.86931 0 1.35722
0 1.54901 0 1.86954 0 1.35893
0 1.54481 0 1.8698 0 1.36111
0 1.54094 0 1.87008 0 1.36345
0 1.53705 0 1.87046 0 1.36552
0 1.53309 0 1.87102 0 1.36721
0 1.52896 0 1.87202 0 1.36855
0 1.52493 0 1.87365 0 1.36973
0 1.52075 0 1.87572 0 1.37108
0 1.51646 0 1.87795 0 1.37273
0 1.51194 0 1.88002 0 1.37466
0 1.50701 0 1.88173 0 1.37673
0 1.50176 0 1.88316 0 1.37872
0 1.49618 0 1.88423 0 1.38048
0 1.49004 0 1.88512 0 1.38205
0 1.48326 0 1.88588 0 1.38354
0 1.47604 0 1.88646 0 1.38516
0 1.4685 0 1.88704 0 1.38687
0 1.46062 0 1.88737 0 1.38877
0 1.45233 0 1.88745 0 1.3908
0 1.4434 0 1.88749 0 1.39275
0 1.43387 0 1.88749 0 1.39458
0 1.42385 0 1.88749 0 1.39626
0 1.41355 0 1.88748 0 1.39789
0 1.40307 0 1.88746 0 1.39952
0 1.39235 0 1.8874 0 1.40119
0 1.38155 0 1.8871 0 1.40272
0 1.37115 0 1.88632 0 1.40415
0 1.36143 0 1.88546 0 1.40546
0 1.35209 0 1.88408 0 1.40642
0 1.34281 0 1.88193 0 1.40708
0 1.33364 0 1.87885 0 1.40746
0 1.32483 0 1.87501 0 1.40757
0 1.31661 0 1.87077 0 1.40757
0 1.30898 0 1.8664 0 1.40756
0 1.30177 0 1.86201 0 1.40752
0 1.29487 0 1.85741 0 1.4074
0 1.2884 0 1.85213 0 1.40721
0 1.28246 0 1.84576 0 1.40642
0 1.27702 0 1.83818 0 1.40305
0 1.2719 0 1.82972 0 1.39746
0 1.26693 0 1.82071 0 1.39012
0 1.26223 0 1.81159 0 1.3814
0 1.25773 0 1.80267 0 1.37169
0 1.25354 0 1.79391 0 1.36119
0 1.24966 0 1.7851 0 1.34977
0 1.24651 0 1.77627 0 1.33704
0 1.24398 0 1.7675 0 1.32672
0 1.24187 0 1.75901 0 1.3198
0 1.23969 0 1.75107 0 1.31382
0 1.23744 0 1.74342 0 1.3091
0 1.23547 0 1.73547 0 1.30481
0 1.23405 0 1.72674 0 1.30003
0 1.23312 0 1.71735 0 1.29401
0 1.23233 0 1.70764 0 1.28656
0 1.23142 0 1.69791 0 1.27806
0 1.23038 0 1.68813 0 1.26926
0 1.22942 0 1.67802 0 1.26096
0 1.22863 0 1.66724 0 1.25367
0 1.22793 0 1.65571 0 1.24744
0 1.22708 0 1.6436 0 1.24188
0 1.22597 0 1.63109 0 1.23631
0 1.22466 0 1.61804 0 1.23016
0 1.22338 0 1.60478 0 1.22301
0 1.22202 0 1.59125 0 1.21497
0 1.22065 0 1.57731 0 1.20666
0 1.21919 0 1.56306 0 1.19869
0 1.21767 0 1.54865 0 1.19158
0 1.21615 0 1.53411 0 1.18546
0 1.21469 0 1.51945 0 1.18007
0 1.21314 0 1.50516 0 1.17481
0 1.21117 0 1.49209 0 1.16915
0 1.20942 0 1.48021 0 1.16282
0 1.20792 0 1.46957 0 1.1558
0 1.20692 0 1.45969 0 1.1484
0 1.2063 0 1.44976 0 1.14114
0 1.20597 0 1.43916 0 1.13446
0 1.20593 0 1.42773 0 1.12856
0 1.20601 0 1.41584 0 1.12339
0 1.20618 0 1.40425 0 1.1186
0 1.20643 0 1.39362 0 1.11368
0 1.20678 0 1.38426 0 1.10825
0 1.20722 0 1.37597 0 1.10215
0 1.20776 0 1.36824 0 1.09552
0 1.2084 0 1.36046 0 1.08878
0 1.20914 0 1.35227 0 1.08242
0 1.20951 0 1.344 0 1.0768
0 1.20984 0 1.3358 0 1.07211
0 1.21016 0 1.32825 0 1.06823
0 1.21055 0 1.32235 0 1.06444
0 1.21097 0 1.31753 0 1.06046
0 1.21154 0 1.31362 0 1.05604
0 1.21234 0 1.31055 0 1.05106
0 1.21356 0 1.30815 0 1.04586
0 1.21566 0 1.30649 0 1.04101
0 1.21909 0 1.30595 0 1.03698
0 1.22396 0 1.30619 0 1.03409
0 1.22931 0 1.30643 0 1.03209
0 1.23438 0 1.30665 0 1.03061
0 1.23872 0 1.30698 0 1.02924
0 1.2425 0 1.30747 0 1.02785
0 1.24592 0 1.30812 0 1.02646
0 1.24887 0 1.30885 0 1.02521
0 1.25092 0 1.30927 0 1.02446
0 1.25151 0 1.30935 0 1.02437
0 1.25116 0 1.30954 0 1.02442
0 1.25014 0 1.30972 0 1.02467
0 1.24761 0 1.31012 0 1.02499
0 1.24327 0 1.3108 0 1.02541
0 1.23783 0 1.31174 0 1.026
0 1.23179 0 1.31325 0 1.0278
0 1.22536 0 1.3158 0 1.03263
0 1.21911 0 1.31926 0 1.04233
0 1.21275 0 1.32306 0 1.0554
0 1.2051 0 1.32724 0 1.07008
0 1.1963 0 1.33101 0 1.08517
0 1.18675 0 1.33432 0 1.10011
0 1.17688 0 1.33751 0 1.11456
0 1.1669 0 1.34055 0 1.12609
0 1.15664 0 1.34337 0 1.13784
0 1.14572 0 1.3464 0 1.1491
0 1.13428 0 1.35131 0 1.15991
0 1.1228 0 1.35777 0 1.17075
0 1.11135 0 1.36639 0 1.18179
0 1.10012 0 1.37647 0 1.19328
0 1.089 0 1.38657 0 1.20524
0 1.07791 0 1.39544 0 1.21728
0 1.06722 0 1.40322 0 1.2289
0 1.05673 0 1.41094 0 1.23932
0 1.04645 0 1.41875 0 1.24883
0 1.03683 0 1.42736 0 1.2577
0 1.02745 0 1.43736 0 1.26576
0 1.01843 0 1.44805 0 1.2734
0 1.00988 0 1.458 0 1.2811
0 1.0018 0 1.46644 0 1.28878
0 0.994163 0 1.47394 0 1.29614
0 0.987078 0 1.48082 0 1.30309
0 0.980602 0 1.4877 0 1.30942
0 0.974742 0 1.49518 0 1.31476
0 0.970273 0 1.50254 0 1.31914
0 0.966552 0 1.50897 0 1.32281
0 0.963297 0 1.51469 0 1.32587
0 0.959996 0 1.51949 0 1.32872
0 0.956545 0 1.52375 0 1.33165
0 0.953116 0 1.52795 0 1.33436
0 0.949609 0 1.53198 0 1.33637
0 0.945981 0 1.53553 0 1.33755
0 0.941987 0 1.53826 0 1.3379
0 0.937704 0 1.53998 0 1.33785
0 0.93327 0 1.54056 0 1.33776
0 0.928698 0 1.54041 0 1.33766
0 0.923734 0 1.54011 0 1.3375
0 0.918097 0 1.53963 0 1.33729
0 0.911601 0 1.53811 0 1.33702
0 0.904378 0 1.53423 0 1.33643
0 0.896762 0 1.52787 0 1.33487
0 0.888752 0 1.51972 0 1.33192
0 0.880254 0 1.51062 0 1.32791
0 0.871432 0 1.50126 0 1.32331
0 0.862832 0 1.49207 0 1.31836
0 0.854508 0 1.48292 0 1.31301
0 0.845986 0 1.47233 0 1.30752
0 0.837034 0 1.4597 0 1.30195
0 0.827866 0 1.44619 0 1.296
0 0.818928 0 1.43257 0 1.28949
0 0.810399 0 1.42025 0 1.28223
0 0.802224 0 1.40939 0 1.27423
0 0.794476 0 1.39908 0 1.26535
0 0.786932 0 1.38779 0 1.25554
0 0.779938 0 1.37415 0 1.24489
0 0.773804 0 1.35782 0 1.23467
0 0.768506 0 1.33964 0 1.22541
0 0.763849 0 1.32109 0 1.21719
0 0.758794 0 1.30354 0 1.21208
0 0.754224 0 1.28824 0 1.20639
0 0.750547 0 1.27473 0 1.19793
0 0.748721 0 1.26164 0 1.18612
0 0.74848 0 1.24733 0 1.17183
0 0.748687 0 1.23079 0 1.15692
0 0.748998 0 1.21225 0 1.1431
0 0.749469 0 1.19291 0 1.13117
0 0.750137 0 1.17436 0 1.12068
0 0.751008 0 1.15778 0 1.11
0 0.752043 0 1.14314 0 1.09738
0 0.753212 0 1.12948 0 1.08181
0 0.753686 0 1.11551 0 1.06354
0 0.754302 0 1.10037 0 1.04416
0 0.754919 0 1.08515 0 1.02557
0 0.755671 0 1.07102 0 1.00881
0 0.756708 0 1.05717 0 0.99445
0 0.758431 0 1.0433 0 0.981496
0 0.76131 0 1.03016 0 0.967759
0 0.766185 0 1.01699 0 0.952213
0 0.774204 0 1.00356 0 0.934878
0 0.784464 0 0.990691 0 0.916488
0 0.795268 0 0.978624 0 0.898551
0 0.80518 0 0.966965 0 0.882537
0 0.814277 0 0.955542 0 0.868849
0 0.823166 0 0.943969 0 0.856976
0 0.832281 0 0.932076 0 0.845899
0 0.84123 0 0.920163 0 0.834541
0 0.849359 0 0.908606 0 0.822396
0 0.856476 0 0.897484 0 0.809762
0 0.862859 0 0.886629 0 0.797543
0 0.868776 0 0.875803 0 0.786798
0 0.874178 0 0.864849 0 0.778241
0 0.878797 0 0.853838 0 0.771901
0 0.882487 0 0.843028 0 0.767202
0 0.885076 0 0.832719 0 0.765278
0 0.886328 0 0.823388 0 0.764733
0 0.886642 0 0.814655 0 0.764755
0 0.886444 0 0.806088 0 0.764774
0 0.886234 0 0.797628 0 0.764761
0 0.885859 0 0.789519 0 0.764744
0 0.884482 0 0.782047 0 0.764859
0 0.880741 0 0.775977 0 0.7651
0 0.875064 0 0.771455 0 0.765445
0 0.868785 0 0.768236 0 0.76588
0 0.86325 0 0.766144 0 0.766394
0 0.858342 0 0.765034 0 0.766993
0 0.852979 0 0.764916 0 0.767849
0 0.846487 0 0.765321 0 0.769927
0 0.839693 0 0.765819 0 0.773683
0 0.833322 0 0.766339 0 0.780956
0 0.827224 0 0.767098 0 0.791233
0 0.820819 0 0.76818 0 0.802828
0 0.813973 0 0.769619 0 0.814281
0 0.8071 0 0.771091 0 0.824913
0 0.800345 0 0.773124 0 0.835378
0 0.79299 0 0.777216 0 0.846346
0 0.784711 0 0.784801 0 0.858213
0 0.775627 0 0.795968 0 0.87066
0 0.76611 0 0.80933 0 0.883066
0 0.75668 0 0.823069 0 0.895252
0 0.748711 0 0.836059 0 0.907601
0 0.741328 0 0.846885 0 0.9198
0 0.73375 0 0.856226 0 0.931838
0 0.725084 0 0.865256 0 0.944351
0 0.715253 0 0.875152 0 0.956557
0 0.7049 0 0.886604 0 0.96798
0 0.694636 0 0.899067 0 0.978637
0 0.68431 0 0.911403 0 0.988944
0 0.673349 0 0.922744 0 0.999593
0 0.661485 0 0.932545 0 1.01135
0 0.649432 0 0.94089 0 1.0246
0 0.637695 0 0.948073 0 1.03927
0 0.625926 0 0.95538 0 1.05465
0 0.613716 0 0.963787 0 1.06991
0 0.600675 0 0.972846 0 1.0845
0 0.587218 0 0.982753 0 1.09764
0 0.573992 0 0.994096 0 1.10879
0 0.560982 0 1.00516 0 1.11893
0 0.548716 0 1.01508 0 1.12918
0 0.535947 0 1.02393 0 1.1396
0 0.522739 0 1.03156 0 1.15059
0 0.509804 0 1.03773 0 1.16237
0 0.497511 0 1.04315 0 1.17427
0 0.485978 0 1.04855 0 1.18517
0 0.475111 0 1.05384 0 1.19441
0 0.464944 0 1.05881 0 1.20169
0 0.455515 0 1.06337 0 1.20701
0 0.446883 0 1.06709 0 1.21086
0 0.43914 0 1.06945 0 1.21405
0 0.432234 0 1.07038 0 1.21716
0 0.426084 0 1.07037 0 1.22035
0 0.420675 0 1.07026 0 1.22322
0 0.416043 0 1.07018 0 1.22457
0 0.412242 0 1.0701 0 1.22443
0 0.409291 0 1.06992 0 1.22407
0 0.407142 0 1.06949 0 1.22346
0 0.406073 0 1.06785 0 1.22037
0 0.406091 0 1.06479 0 1.21266
0 0.406205 0 1.06115 0 1.20152
0 0.406306 0 1.0572 0 1.18716
0 0.406425 0 1.05305 0 1.17115
0 0.406619 0 1.04869 0 1.15467
0 0.406865 0 1.0436 0 1.13809
0 0.4071 0 1.03729 0 1.12453
0 0.407311 0 1.02988 0 1.11206
0 0.407526 0 1.02156 0 1.10248
0 0.40769 0 1.01286 0 1.09345
0 0.407759 0 1.00416 0 1.08193
0 0.407806 0 0.994804 0 1.0683
0 0.407852 0 0.984018 0 1.0539
0 0.407884 0 0.971473 0 1.04037
0 0.407904 0 0.957349 0 1.02872
0 0.407939 0 0.94215 0 1.01875
0 0.40798 0 0.926235 0 1.00925
0 0.408015 0 0.909615 0 0.998803
0 0.408054 0 0.892075 0 0.986638
0 0.408125 0 0.873446 0 0.973062
0 0.408226 0 0.853802 0 0.959215
0 0.408104 0 0.833567 0 0.946268
0 0.408028 0 0.813143 0 0.934693
0 0.407941 0 0.794463 0 0.924221
0 0.407963 0 0.777211 0 0.913919
0 0.408028 0 0.761426 0 0.90248
0 0.408188 0 0.746274 0 0.88939
0 0.408463 0 0.730576 0 0.875102
0 0.408852 0 0.71381 0 0.86044
0 0.409381 0 0.696164 0 0.84633
0 0.410059 0 0.678393 0 0.833203
0 0.410856 0 0.66147 0 0.82063
0 0.411733 0 0.645741 0 0.807721
0 0.412599 0 0.630853 0 0.793742
0 0.412885 0 0.616336 0 0.778236
0 0.413255 0 0.600972 0 0.76191
0 0.41369 0 0.584964 0 0.745601
0 0.414221 0 0.569239 0 0.729709
0 0.414795 0 0.554199 0 0.714904
0 0.415447 0 0.540683 0 0.700548
0 0.416312 0 0.529012 0 0.685746
0 0.417578 0 0.51864 0 0.670019
0 0.419432 0 0.509024 0 0.653447
0 0.422163 0 0.500151 0 0.63662
0 0.426393 0 0.492137 0 0.625368
0 0.432927 0 0.485353 0 0.621575
0 0.441747 0 0.479809 0 0.621774
0 0.451567 0 0.475145 0 0.622049
0 0.46109 0 0.471008 0 0.622178
0 0.469574 0 0.4673 0 0.622125
0 0.477148 0 0.464295 0 0.622038
0 0.484101 0 0.462167 0 0.622066
0 0.490275 0 0.460576 0 0.622201
0 0.495302 0 0.458975 0 0.622332
0 0.498951 0 0.457327 0 0.622371
0 0.501233 0 0.455953 0 0.622331
0 0.502195 0 0.455108 0 0.622296
0 0.501998 0 0.454817 0 0.622317
0 0.501075 0 0.454715 0 0.622372
0 0.498232 0 0.454439 0 0.62247
0 0.493828 0 0.454031 0 0.622727
0 0.487596 0 0.453743 0 0.623181
0 0.48009 0 0.453869 0 0.623839
0 0.471807 0 0.454081 0 0.624813
0 0.463047 0 0.454275 0 0.627917
0 0.45365 0 0.454292 0 0.637646
0 0.443302 0 0.454141 0 0.6534
0 0.432113 0 0.453978 0 0.670413
0 0.420708 0 0.453738 0 0.690228
0 0.409817 0 0.453138 0 0.710654
0 0.399371 0 0.452484 0 0.730326
0 0.388794 0 0.45243 0 0.749462
0 0.37787 0 0.452616 0 0.769396
0 0.36692 0 0.452861 0 0.791132
0 0.356373 0 0.453149 0 0.812951
0 0.346533 0 0.45351 0 0.833965
0 0.337316 0 0.454066 0 0.851194
0 0.328513 0 0.454868 0 0.863146
0 0.320221 0 0.455887 0 0.870314
0 0.312673 0 0.457111 0 0.875334
0 0.305897 0 0.458464 0 0.881155
0 0.299887 0 0.459999 0 0.890577
0 0.294508 0 0.462661 0 0.904624
0 0.289631 0 0.468038 0 0.921933
0 0.285196 0 0.47764 0 0.938484
0 0.281088 0 0.490933 0 0.952658
0 0.277398 0 0.506606 0 0.963757
0 0.274021 0 0.522984 0 0.969045
0 0.271052 0 0.538467 0 0.971662
0 0.268501 0 0.552936 0 0.973878
0 0.266173 0 0.567477 0 0.977943
0 0.26387 0 0.58288 0 0.985009
0 0.261502 0 0.599234 0 0.993063
0 0.259053 0 0.615806 0 1.0007
0 0.256523 0 0.631611 0 1.00709
0 0.253851 0 0.64605 0 1.01242
0 0.252374 0 0.658569 0 1.01775
0 0.251588 0 0.668801 0 1.0237
0 0.250282 0 0.678693 0 1.03093
0 0.2479 0 0.687877 0 1.03844
0 0.244204 0 0.695745 0 1.04633
0 0.239865 0 0.702625 0 1.05368
0 0.235317 0 0.708498 0 1.05892
0 0.230483 0 0.71262 0 1.06305
0 0.224914 0 0.715152 0 1.06658
0 0.218178 0 0.716511 0 1.07004
0 0.210575 0 0.716597 0 1.07395
0 0.202512 0 0.715988 0 1.07859
0 0.194258 0 0.714036 0 1.08334
0 0.186666 0 0.70981 0 1.08801
0 0.179835 0 0.70438 0 1.09231
0 0.172857 0 0.698412 0 1.09535
0 0.165668 0 0.691323 0 1.09724
0 0.158734 0 0.683115 0 1.09806
0 0.152339 0 0.674352 0 1.0981
0 0.14605 0 0.66528 0 1.09809
0 0.140306 0 0.655774 0 1.09808
0 0.135184 0 0.645766 0 1.09808
0 0.131409 0 0.635392 0 1.09804
0 0.128943 0 0.624474 0 1.09784
0 0.127516 0 0.612951 0 1.09746
0 0.127029 0 0.601035 0 1.09619
0 0.127272 0 0.589052 0 1.09012
0 0.127694 0 0.577906 0 1.0793
0 0.128248 0 0.567687 0 1.06461
0 0.128963 0 0.558364 0 1.04675
0 0.129911 0 0.549947 0 1.0269
0 0.131138 0 0.541899 0 1.0072
0 0.132542 0 0.534104 0 0.992526
0 0.134021 0 0.527143 0 0.982245
0 0.13561 0 0.521516 0 0.96978
0 0.137344 0 0.517205 0 0.954081
0 0.138816 0 0.513536 0 0.935091
0 0.13966 0 0.509323 0 0.91463
0 0.140743 0 0.503801 0 0.895146
0 0.142197 0 0.498478 0 0.87768
0 0.144175 0 0.491556 0 0.862653
0 0.146962 0 0.483957 0 0.848874
0 0.150532 0 0.476668 0 0.833714
0 0.15547 0 0.46902 0 0.816822
0 0.162164 0 0.460711 0 0.798742
0 0.16998 0 0.452209 0 0.780654
0 0.178063 0 0.443121 0 0.764146
0 0.185731 0 0.433367 0 0.750452
0 0.192572 0 0.423304 0 0.738854
0 0.198515 0 0.412692 0 0.728177
0 0.2038 0 0.401351 0 0.717286
0 0.208405 0 0.389498 0 0.705701
0 0.212138 0 0.377322 0 0.694014
0 0.214034 0 0.364823 0 0.683425
0 0.214182 0 0.351942 0 0.674935
0 0.213919 0 0.338645 0 0.668703
0 0.213255 0 0.324719 0 0.664118
0 0.21217 0 0.310488 0 0.660192
0 0.210018 0 0.296654 0 0.65602
0 0.207273 0 0.283036 0 0.651743
0 0.204481 0 0.269638 0 0.648267
0 0.202015 0 0.256701 0 0.645705
0 0.199675 0 0.245979 0 0.64436
0 0.19726 0 0.237427 0 0.644174
0 0.194872 0 0.231285 0 0.644173
0 0.192706 0 0.227042 0 0.643999
0 0.191061 0 0.22325 0 0.64363
0 0.189733 0 0.218956 0 0.643391
0 0.188536 0 0.214104 0 0.643362
0 0.187634 0 0.209299 0 0.643382
0 0.187273 0 0.205575 0 0.643375
0 0.187337 0 0.203723 0 0.643083
0 0.187465 0 0.203591 0 0.64214
0 0.187622 0 0.203982 0 0.640753
0 0.187905 0 0.204478 0 0.639296
0 0.188345 0 0.205264 0 0.638009
0 0.188851 0 0.206446 0 0.636984
0 0.189284 0 0.207919 0 0.636106
0 0.190003 0 0.209463 0 0.635119
0 0.192504 0 0.21117 0 0.634157
0 0.198603 0 0.213223 0 0.63367
0 0.206989 0 0.2167 0 0.633694
0 0.215142 0 0.222504 0 0.63376
0 0.221968 0 0.231478 0 0.63385
0 0.227654 0 0.243675 0 0.63392
0 0.233426 0 0.256327 0 0.634045
0 0.23986 0 0.269031 0 0.634287
0 0.246306 0 0.280041 0 0.634677
0 0.251845 0 0.289514 0 0.635178
0 0.256332 0 0.298652 0 0.635785
0 0.260296 0 0.309152 0 0.636643
0 0.263949 0 0.322513 0 0.639096
0 0.267154 0 0.338567 0 0.646141
0 0.269671 0 0.355045 0 0.656338
0 0.271432 0 0.37039 0 0.669594
0 0.272749 0 0.383557 0 0.685286
0 0.273691 0 0.395045 0 0.701999
0 0.273958 0 0.406576 0 0.718613
0 0.273725 0 0.419317 0 0.735298
0 0.272976 0 0.432918 0 0.753041
0 0.271381 0 0.446416 0 0.772535
0 0.269309 0 0.458752 0 0.79371
0 0.267059 0 0.469571 0 0.816085
0 0.264658 0 0.479709 0 0.837542
0 0.262051 0 0.490675 0 0.855637
0 0.259244 0 0.503356 0 0.870136
0 0.256218 0 0.517641 0 0.881246
0 0.253106 0 0.532562 0 0.890498
0 0.250107 0 0.546838 0 0.900187
0 0.247297 0 0.559827 0 0.912347
0 0.244688 0 0.571825 0 0.927983
0 0.242305 0 0.583744 0 0.94669
0 0.240194 0 0.596534 0 0.966752
0 0.238494 0 0.610736 0 0.985788
0 0.237333 0 0.627117 0 1.00143
0 0.236268 0 0.644448 0 1.01272
0 0.235896 0 0.661288 0 1.02058
0 0.235934 0 0.677347 0 1.02641
0 0.236116 0 0.692885 0 1.03249
0 0.23642 0 0.708012 0 1.04105
0 0.236849 0 0.72341 0 1.05284
0 0.23741 0 0.739643 0 1.06626
0 0.238107 0 0.756291 0 1.07894
0 0.239316 0 0.772817 0 1.08996
0 0.242286 0 0.789024 0 1.09895
0 0.247598 0 0.804634 0 1.10445
0 0.254395 0 0.819723 0 1.10868
0 0.261084 0 0.834899 0 1.11301
0 0.267382 0 0.850308 0 1.11825
0 0.273945 0 0.86548 0 1.1242
0 0.281279 0 0.880057 0 1.12994
0 0.289249 0 0.893847 0 1.13497
0 0.297292 0 0.906876 0 1.13913
0 0.30506 0 0.919338 0 1.14262
0 0.312682 0 0.931343 0 1.14586
0 0.320464 0 0.942744 0 1.14915
0 0.328455 0 0.953276 0 1.15252
0 0.336408 0 0.962754 0 1.15579
0 0.344088 0 0.970484 0 1.15881
0 0.351444 0 0.976757 0 1.16152
0 0.358688 0 0.981827 0 1.16418
0 0.365936 0 0.9862 0 1.16702
0 0.373078 0 0.990487 0 1.16998
0 0.379988 0 0.994609 0 1.17295
0 0.386631 0 0.998302 0 1.17571
0 0.393074 0 1.00125 0 1.17811
0 0.399493 0 1.00335 0 1.18007
0 0.405958 0 1.00455 0 1.18146
0 0.412353 0 1.00531 0 1.18262
0 0.41856 0 1.00589 0 1.18354
0 0.424667 0 1.00626 0 1.18426
0 0.430843 0 1.0063 0 1.18477
0 0.437198 0 1.0062 0 1.18501
0 0.443742 0 1.00606 0 1.185
0 0.45047 0 1.00592 0 1.18493
0 0.457463 0 1.00576 0 1.1848
0 0.464824 0 1.00557 0 1.18462
0 0.472644 0 1.00534 0 1.18437
0 0.480967 0 1.00509 0 1.18403
0 0.489802 0 1.00481 0 1.18295
0 0.499109 0 1.00446 0 1.17952
0 0.508828 0 1.00404 0 1.17353
0 0.518882 0 1.00339 0 1.16607
0 0.529458 0 1.00248 0 1.1579
0 0.540558 0 1.00179 0 1.15011
0 0.552082 0 1.00144 0 1.14416
0 0.563985 0 1.00142 0 1.13953
0 0.57618 0 1.00163 0 1.13517
0 0.588661 0 1.00221 0 1.12982
0 0.601377 0 1.0031 0 1.12284
0 0.614206 0 1.00432 0 1.11465
0 0.626942 0 1.00582 0 1.10621
0 0.639676 0 1.00751 0 1.09978
0 0.652407 0 1.00962 0 1.09575
0 0.665008 0 1.01239 0 1.09187
0 0.677452 0 1.01552 0 1.08767
0 0.68971 0 1.01764 0 1.08287
0 0.701704 0 1.01862 0 1.07774
0 0.71349 0 1.0185 0 1.07308
0 0.725043 0 1.01774 0 1.06958
0 0.736292 0 1.01749 0 1.06743
0 0.747201 0 1.01844 0 1.06636
0 0.757718 0 1.02097 0 1.06572
0 0.767792 0 1.02478 0 1.06496
0 0.777432 0 1.02925 0 1.06405
0 0.786666 0 1.03372 0 1.06371
0 0.795495 0 1.03785 0 1.06383
0 0.803882 0 1.04183 0 1.06406
0 0.811782 0 1.04625 0 1.0643
0 0.819271 0 1.05136 0 1.06492
0 0.82647 0 1.0569 0 1.0675
0 0.833368 0 1.06265 0 1.07262
0 0.840041 0 1.06825 0 1.0794
0 0.846459 0 1.07379 0 1.08726
0 0.852639 0 1.07955 0 1.09549
0 0.85859 0 1.0859 0 1.10376
0 0.864301 0 1.09311 0 1.11223
0 0.869832 0 1.10106 0 1.12132
0 0.87529 0 1.10946 0 1.13129
0 0.880763 0 1.11813 0 1.14199
0 0.886282 0 1.12712 0 1.15307
0 0.891816 0 1.13673 0 1.16354
0 0.897347 0 1.14718 0 1.17201
0 0.902911 0 1.15852 0 1.17875
0 0.908531 0 1.17074 0 1.18404
0 0.914261 0 1.18363 0 1.18894
0 0.920124 0 1.19702 0 1.19466
0 0.926103 0 1.21065 0 1.20209
0 0.93218 0 1.22452 0 1.21137
0 0.938362 0 1.23858 0 1.2219
0 0.944652 0 1.25286 0 1.23258
0 0.951021 0 1.26747 0 1.24234
0 0.957447 0 1.2825 0 1.25063
0 0.963899 0 1.298 0 1.2576
0 0.970351 0 1.31398 0 1.26404
0 0.97679 0 1.33033 0 1.27099
0 0.983203 0 1.3469 0 1.27929
0 0.989566 0 1.36355 0 1.28918
0 0.995844 0 1.38019 0 1.30029
0 1.002 0 1.39683 0 1.31178
0 1.008 0 1.41356 0 1.32274
0 1.01382 0 1.43049 0 1.33262
0 1.01943 0 1.4477 0 1.34143
0 1.02481 0 1.4652 0 1.34975
0 1.02995 0 1.48289 0 1.3584
0 1.03483 0 1.50061 0 1.36811
0 1.03945 0 1.51819 0 1.37919
0 1.04381 0 1.53552 0 1.39139
0 1.04791 0 1.5526 0 1.40405
0 1.05175 0 1.56952 0 1.41642
0 1.05533 0 1.5863 0 1.42792
0 1.05865 0 1.60283 0 1.43845
0 1.06172 0 1.619 0 1.44833
0 1.0646 0 1.63469 0 1.45822
0 1.06734 0 1.64985 0 1.46872
0 1.06996 0 1.66454 0 1.48016
0 1.07249 0 1.67883 0 1.49242
0 1.07495 0 1.6928 0 1.50497
0 1.07745 0 1.70664 0 1.51712
0 1.08017 0 1.72129 0 1.52807
0 1.0827 0 1.736 0 1.53769
0 1.08545 0 1.75026 0 1.54639
0 1.08827 0 1.76417 0 1.55447
0 1.09125 0 1.77756 0 1.56259
0 1.0945 0 1.79025 0 1.57135
0 1.098 0 1.80263 0 1.58077
0 1.1017 0 1.81503 0 1.59042
0 1.10563 0 1.82735 0 1.59967
0 1.10984 0 1.8394 0 1.60789
0 1.11436 0 1.85108 0 1.6155
0 1.11922 0 1.8623 0 1.6225
0 1.12443 0 1.87313 0 1.62951
0 1.12994 0 1.88371 0 1.63708
0 1.13576 0 1.8941 0 1.64503
0 1.14189 0 1.90422 0 1.65239
0 1.14837 0 1.91407 0 1.65866
0 1.15539 0 1.92361 0 1.66359
0 1.16316 0 1.93265 0 1.66742
0 1.17123 0 1.94136 0 1.67045
0 1.17953 0 1.94984 0 1.67284
0 1.1879 0 1.95793 0 1.67472
0 1.19642 0 1.96563 0 1.67587
0 1.20514 0 1.97292 0 1.6761
0 1.21406 0 1.9797 0 1.67602
0 1.22309 0 1.98576 0 1.6759
0 1.23207 0 1.99012 0 1.67575
0 1.24091 0 1.99299 0 1.67558
0 1.24976 0 1.99414 0 1.67538
0 1.2586 0 1.9942 0 1.67514
0 1.26731 0 1.99417 0 1.67487
0 1.27578 0 1.99425 0 1.67459
0 1.28396 0 1.9949 0 1.67421
0 1.29186 0 1.99555 0 1.67356
0 1.29963 0 1.99577 0 1.67226
0 1.30718 0 1.99568 0 1.66989
0 1.31453 0 1.9955 0 1.66657
0 1.32153 0 1.99533 0 1.66253
0 1.32815 0 1.99511 0 1.65822
0 1.33445 0 1.99476 0 1.65402
0 1.3405 0 1.99427 0 1.64991
0 1.34634 0 1.99369 0 1.64582
0 1.35199 0 1.99307 0 1.64165
0 1.35725 0 1.99219 0 1.63728
0 1.36231 0 1.99063 0 1.6328
0 1.36749 0 1.98882 0 1.62846
0 1.37301 0 1.98619 0 1.6244
0 1.37862 0 1.98325 0 1.62032
0 1.38419 0 1.98033 0 1.61611
0 1.38972 0 1.97751 0 1.61191
0 1.39531 0 1.97489 0 1.6083
0 1.40112 0 1.97245 0 1.60518
0 1.40717 0 1.97003 0 1.60295
0 1.41339 0 1.96766 0 1.60148
0 1.41972 0 1.96559 0 1.60029
0 1.42623 0 1.96392 0 1.59879
0 1.43293 0 1.96279 0 1.59655
0 1.43979 0 1.96223 0 1.59345
0 1.4468 0 1.96213 0 1.58983
0 1.45391 0 1.96223 0 1.58624
0 1.46114 0 1.96228 0 1.58326
0 1.46838 0 1.9622 0 1.58112
0 1.47542 0 1.96214 0 1.57958
0 1.48245 0 1.96185 0 1.57846
0 1.48949 0 1.96142 0 1.57724
0 1.49642 0 1.96107 0 1.57552
0 1.50319 0 1.96093 0 1.57336
0 1.50974 0 1.96097 0 1.57116
0 1.51602 0 1.96108 0 1.56934
0 1.52202 0 1.96121 0 1.5683
0 1.52776 0 1.96157 0 1.56814
0 1.53313 0 1.96313 0 1.56817
0 1.53779 0 1.96559 0 1.56823
0 1.54173 0 1.96876 0 1.56832
0 1.54535 0 1.97249 0 1.56848
0 1.54879 0 1.97662 0 1.56904
0 1.55193 0 1.98097 0 1.57146
0 1.55464 0 1.98531 0 1.57489
0 1.55687 0 1.98965 0 1.57811
0 1.5587 0 1.99408 0 1.58079
0 1.56027 0 1.99862 0 1.5824
0 1.56155 0 2.00331 0 1.58329
0 1.56245 0 2.0082 0 1.58435
0 1.563 0 2.0132 0 1.58641
0 1.5633 0 2.01824 0 1.58965
0 1.56345 0 2.02334 0 1.59355
0 1.56346 0 2.02856 0 1.59725
0 1.56342 0 2.03399 0 1.60018
0 1.56336 0 2.03966 0 1.60239
0 1.56329 0 2.04557 0 1.60443
0 1.56322 0 2.05168 0 1.60696
0 1.56314 0 2.05795 0 1.61028
0 1.56307 0 2.06441 0 1.61412
0 1.56301 0 2.07109 0 1.61791
0 1.56295 0 2.07804 0 1.62112
0 1.56291 0 2.08528 0 1.62364
0 1.56288 0 2.09277 0 1.62566
0 1.56288 0 2.10041 0 1.62686
0 1.5629 0 2.10794 0 1.62935
0 1.56294 0 2.11537 0 1.63293
0 1.56298 0 2.12291 0 1.63681
0 1.56303 0 2.13071 0 1.63995
0 1.5631 0 2.13877 0 1.64184
0 1.56316 0 2.14691 0 1.64277
0 1.56322 0 2.15388 0 1.64356
0 1.56336 0 2.1584 0 1.64449
0 1.56426 0 2.16219 0 1.64663
0 1.56695 0 2.16601 0 1.64941
0 1.56948 0 2.1702 0 1.65213
0 1.57125 0 2.17497 0 1.65397
0 1.57221 0 2.17991 0 1.65483
0 1.57305 0 2.18455 0 1.65523
0 1.57402 0 2.18861 0 1.65585
0 1.57478 0 2.19194 0 1.65722
0 1.57495 0 2.19468 0 1.65933
0 1.57482 0 2.19719 0 1.66163
0 1.5747 0 2.19976 0 1.66352
0 1.57454 0 2.20239 0 1.66468
0 1.57426 0 2.20462 0 1.66523
0 1.5739 0 2.20608 0 1.66568
0 1.57354 0 2.20648 0 1.66653
0 1.57315 0 2.20628 0 1.66795
0 1.57268 0 2.20602 0 1.66965
0 1.57223 0 2.2059 0 1.67112
0 1.57172 0 2.2057 0 1.67192
0 1.57123 0 2.20532 0 1.67205
0 1.57061 0 2.20485 0 1.67204
0 1.56973 0 2.20431 0 1.67204
0 1.5685 0 2.20375 0 1.67205
0 1.56693 0 2.20291 0 1.67203
0 1.56524 0 2.20243 0 1.67195
0 1.56385 0 2.20133 0 1.67184
0 1.56258 0 2.19986 0 1.67163
0 1.56138 0 2.19771 0 1.67137
0 1.56046 0 2.19443 0 1.67107
0 1.55983 0 2.19018 0 1.67069
0 1.55952 0 2.18526 0 1.67009
0 1.55953 0 2.18006 0 1.66839
0 1.55956 0 2.17526 0 1.66397
0 1.55959 0 2.17117 0 1.6566
0 1.55966 0 2.16746 0 1.64742
0 1.55999 0 2.16375 0 1.63739
0 1.56062 0 2.15976 0 1.62733
0 1.56143 0 2.15534 0 1.61771
0 1.56222 0 2.15034 0 1.60835
0 1.56301 0 2.14521 0 1.59866
0 1.5637 0 2.14029 0 1.58834
0 1.56435 0 2.13541 0 1.57952
0 1.56484 0 2.13017 0 1.57244
0 1.56513 0 2.1244 0 1.56856
0 1.56528 0 2.11778 0 1.5679
0 1.56531 0 2.11052 0 1.56794
0 1.56525 0 2.10315 0 1.56793
0 1.56507 0 2.09622 0 1.56756
0 1.56444 0 2.09001 0 1.56433
0 1.56331 0 2.08425 0 1.55976
0 1.56178 0 2.07842 0 1.55474
0 1.56008 0 2.07206 0 1.55029
0 1.55825 0 2.06521 0 1.54716
0 1.55619 0 2.05821 0 1.54564
0 1.55377 0 2.05155 0 1.54537
0 1.55108 0 2.04586 0 1.54537
0 1.54829 0 2.04101 0 1.54507
0 1.54543 0 2.03669 0 1.54353
0 1.54243 0 2.03243 0 1.54076
0 1.5392 0 2.0279 0 1.53766
0 1.53563 0 2.02302 0 1.53501
0 1.53191 0 2.01816 0 1.53313
0 1.52816 0 2.01365 0 1.53201
0 1.52436 0 2.00971 0 1.53175
0 1.52043 0 2.00641 0 1.53154
0 1.5164 0 2.00353 0 1.531
0 1.51233 0 2.00078 0 1.5304
0 1.50827 0 1.99799 0 1.52994
0 1.50424 0 1.99514 0 1.52978
0 1.50025 0 1.99241 0 1.5298
0 1.49628 0 1.99005 0 1.52982
0 1.49235 0 1.9882 0 1.52983
0 1.4885 0 1.98684 0 1.52982
0 1.48474 0 1.98582 0 1.52982
0 1.48104 0 1.98494 0 1.52983
0 1.47743 0 1.98407 0 1.52984
0 1.47388 0 1.98327 0 1.52985
0 1.4706 0 1.98272 0 1.52985
0 1.46774 0 1.98257 0 1.52984
0 1.46529 0 1.98268 0 1.52984
0 1.46303 0 1.9828 0 1.52986
0 1.46079 0 1.98296 0 1.52988
0 1.45838 0 1.98313 0 1.5299
0 1.45601 0 1.98332 0 1.52993
0 1.45402 0 1.98353 0 1.52998
0 1.45258 0 1.98373 0 1.53005
0 1.45118 0 1.98401 0 1.53013
0 1.44944 0 1.98437 0 1.53022
0 1.44723 0 1.98492 0 1.53035
0 1.44473 0 1.98573 0 1.53061
0 1.44217 0 1.98672 0 1.53113
0 1.43973 0 1.98769 0 1.53144
0 1.43725 0 1.9884 0 1.53195
0 1.43442 0 1.98888 0 1.53244
0 1.4311 0 1.98912 0 1.53306
0 1.42741 0 1.98932 0 1.53387
0 1.42365 0 1.98965 0 1.53488
0 1.41993 0 1.99012 0 1.53607
0 1.41606 0 1.99059 0 1.53731
0 1.41181 0 1.99087 0 1.53848
0 1.40713 0 1.99089 0 1.53954
0 1.40227 0 1.99084 0 1.54053
0 1.3975 0 1.99084 0 1.5415
0 1.39285 0 1.99087 0 1.54243
0 1.38831 0 1.99086 0 1.54341
0 1.3839 0 1.99084 0 1.54442
0 1.37945 0 1.99084 0 1.54528
0 1.37497 0 1.9908 0 1.54599
0 1.37053 0 1.99048 0 1.54657
0 1.36619 0 1.98978 0 1.54704
0 1.36202 0 1.98872 0 1.54744
0 1.358 0 1.98734 0 1.54779
0 1.35412 0 1.98578 0 1.54808
0 1.35035 0 1.98415 0 1.54824
0 1.34673 0 1.98247 0 1.54825
0 1.34332 0 1.98066 0 1.54823
0 1.34014 0 1.97862 0 1.54817
0 1.3372 0 1.97619 0 1.54808
0 1.33445 0 1.97335 0 1.54781
0 1.33189 0 1.97023 0 1.54646
0 1.32947 0 1.96713 0 1.54399
0 1.32722 0 1.96408 0 1.54073
0 1.32517 0 1.96109 0 1.53685
0 1.32329 0 1.95807 0 1.53267
0 1.32158 0 1.95483 0 1.52834
0 1.32001 0 1.95132 0 1.52379
0 1.31856 0 1.9476 0 1.51883
0 1.31718 0 1.9438 0 1.51337
0 1.31587 0 1.93997 0 1.5075
0 1.3146 0 1.93607 0 1.50196
0 1.31334 0 1.93201 0 1.49774
0 1.31208 0 1.92771 0 1.49504
0 1.3108 0 1.9231 0 1.49385
0 1.30949 0 1.91825 0 1.49349
0 1.30816 0 1.91321 0 1.49289
0 1.30676 0 1.90801 0 1.49125
0 1.30524 0 1.90268 0 1.48913
0 1.30348 0 1.89734 0 1.48513
0 1.30154 0 1.89196 0 1.47986
0 1.29955 0 1.88639 0 1.47444
0 1.29761 0 1.88049 0 1.46975
0 1.29568 0 1.87425 0 1.46678
0 1.2937 0 1.8678 0 1.46539
0 1.29164 0 1.86125 0 1.46489
0 1.28956 0 1.85465 0 1.46424
0 1.28745 0 1.848 0 1.46248
0 1.28534 0 1.84161 0 1.45914
0 1.28327 0 1.83535 0 1.45451
0 1.2812 0 1.8293 0 1.4494
0 1.27913 0 1.82341 0 1.44466
0 1.27709 0 1.8175 0 1.44116
0 1.27501 0 1.81146 0 1.43902
0 1.27291 0 1.80529 0 1.43783
0 1.27088 0 1.79901 0 1.4368
0 1.26894 0 1.79275 0 1.43509
0 1.2671 0 1.78664 0 1.43217
0 1.26535 0 1.78077 0 1.42804
0 1.26366 0 1.77507 0 1.42321
0 1.26204 0 1.76946 0 1.41847
0 1.26053 0 1.76384 0 1.41453
0 1.25914 0 1.75816 0 1.41174
0 1.25787 0 1.75247 0 1.40996
0 1.25669 0 1.74686 0 1.40861
0 1.25557 0 1.74141 0 1.40696
0 1.25452 0 1.73619 0 1.40443
0 1.25353 0 1.73118 0 1.40087
0 1.2526 0 1.72634 0 1.39654
0 1.25171 0 1.72165 0 1.39207
0 1.25083 0 1.71709 0 1.38814
0 1.24996 0 1.71266 0 1.38519
0 1.24911 0 1.70836 0 1.38326
0 1.24824 0 1.7042 0 1.38196
0 1.2475 0 1.70016 0 1.38069
0 1.24682 0 1.69626 0 1.37888
0 1.24615 0 1.69247 0 1.37625
0 1.24538 0 1.68878 0 1.37293
0 1.24444 0 1.6852 0 1.36937
0 1.24334 0 1.68172 0 1.36615
0 1.24216 0 1.67829 0 1.36374
0 1.24093 0 1.67491 0 1.36228
0 1.23961 0 1.67157 0 1.36157
0 1.23812 0 1.66828 0 1.36114
0 1.23644 0 1.66506 0 1.36047
0 1.2346 0 1.66191 0 1.35922
0 1.23265 0 1.65886 0 1.35738
0 1.2306 0 1.65587 0 1.35551
0 1.22843 0 1.65293 0 1.35399
0 1.22611 0 1.6501 0 1.35298
0 1.22367 0 1.64753 0 1.35246
0 1.22116 0 1.64518 0 1.3524
0 1.21857 0 1.64311 0 1.35239
0 1.21582 0 1.64129 0 1.3524
0 1.21297 0 1.63962 0 1.35243
0 1.21004 0 1.63806 0 1.35249
0 1.20709 0 1.63662 0 1.35256
0 1.20416 0 1.63531 0 1.35265
0 1.20124 0 1.63419 0 1.35275
0 1.19834 0 1.63333 0 1.35286
0 1.19545 0 1.63269 0 1.35297
0 1.19263 0 1.63223 0 1.35309
0 1.18989 0 1.6319 0 1.35325
0 1.18728 0 1.63164 0 1.3535
0 1.18479 0 1.63145 0 1.35383
0 1.18243 0 1.63128 0 1.35437
0 1.1802 0 1.63117 0 1.35517
0 1.17809 0 1.63115 0 1.35623
0 1.1761 0 1.6312 0 1.3573
0 1.17426 0 1.63129 0 1.35843
0 1.17263 0 1.63141 0 1.3595
0 1.17118 0 1.63157 0 1.36029
0 1.16987 0 1.63174 0 1.36097
0 1.16859 0 1.63194 0 1.36154
0 1.16723 0 1.63215 0 1.36201
0 1.16581 0 1.63235 0 1.36246
0 1.16445 0 1.63256 0 1.36298
0 1.1632 0 1.63279 0 1.36363
0 1.16204 0 1.63302 0 1.3644
0 1.16084 0 1.63324 0 1.36521
0 1.15952 0 1.63344 0 1.366
0 1.15809 0 1.63367 0 1.3667
0 1.15664 0 1.63394 0 1.36732
0 1.1554 0 1.63417 0 1.36791
0 1.15416 0 1.63441 0 1.36854
0 1.15277 0 1.63466 0 1.36923
0 1.15114 0 1.63482 0 1.37004
0 1.14928 0 1.63492 0 1.37091
0 1.14733 0 1.63496 0 1.37178
0 1.14539 0 1.63492 0 1.3726
0 1.14337 0 1.63479 0 1.37333
0 1.14119 0 1.63457 0 1.374
0 1.13886 0 1.63426 0 1.37463
0 1.13653 0 1.63389 0 1.37525
0 1.13433 0 1.6335 0 1.37591
0 1.13226 0 1.6331 0 1.37659
0 1.13023 0 1.63283 0 1.37718
0 1.12811 0 1.63249 0 1.37763
0 1.12604 0 1.63201 0 1.37797
0 1.12405 0 1.63152 0 1.37813
0 1.1221 0 1.631 0 1.37817
0 1.12025 0 1.63012 0 1.3782
0 1.11852 0 1.62892 0 1.37825
0 1.11691 0 1.62754 0 1.37827
0 1.11544 0 1.62606 0 1.37827
0 1.1141 0 1.62461 0 1.37826
0 1.11286 0 1.62326 0 1.37821
0 1.11175 0 1.62189 0 1.37814
0 1.1108 0 1.62035 0 1.37783
0 1.11002 0 1.61869 0 1.37679
0 1.10936 0 1.61702 0 1.37519
0 1.10886 0 1.61541 0 1.37315
0 1.10851 0 1.61393 0 1.37077
0 1.10832 0 1.61251 0 1.36822
0 1.10828 0 1.61102 0 1.36557
0 1.10829 0 1.6094 0 1.36359
0 1.10831 0 1.60773 0 1.36202
0 1.10832 0 1.60608 0 1.36139
0 1.10835 0 1.60455 0 1.3607
0 1.10838 0 1.60315 0 1.35959
0 1.10843 0 1.60173 0 1.35785
0 1.10848 0 1.60015 0 1.3556
0 1.10854 0 1.59832 0 1.35317
0 1.10861 0 1.59632 0 1.35097
0 1.10869 0 1.59431 0 1.34924
0 1.10876 0 1.59231 0 1.34803
0 1.10884 0 1.59029 0 1.34708
0 1.10892 0 1.5882 0 1.34604
0 1.10899 0 1.58597 0 1.34459
0 1.10907 0 1.5836 0 1.34267
0 1.10914 0 1.58115 0 1.3404
0 1.10921 0 1.57868 0 1.33812
0 1.10926 0 1.5762 0 1.33612
0 1.10931 0 1.57369 0 1.33457
0 1.10935 0 1.57108 0 1.33344
0 1.10939 0 1.56837 0 1.33249
0 1.10942 0 1.5656 0 1.33144
0 1.10945 0 1.56281 0 1.33008
0 1.10948 0 1.56006 0 1.32837
0 1.1095 0 1.55735 0 1.32645
0 1.10951 0 1.55466 0 1.32457
0 1.10953 0 1.55197 0 1.32296
0 1.10954 0 1.54928 0 1.32172
0 1.10956 0 1.54663 0 1.32081
0 1.10958 0 1.54404 0 1.32002
0 1.1096 0 1.54157 0 1.31913
0 1.10963 0 1.53921 0 1.31797
0 1.10967 0 1.53697 0 1.31654
0 1.10971 0 1.53485 0 1.31495
0 1.10976 0 1.53284 0 1.31342
0 1.10983 0 1.53097 0 1.31215
0 1.1099 0 1.52923 0 1.31119
0 1.10998 0 1.52765 0 1.31048
0 1.11006 0 1.52623 0 1.30986
0 1.11016 0 1.52497 0 1.30913
0 1.11027 0 1.52387 0 1.30819
0 1.11038 0 1.52294 0 1.30705
0 1.11051 0 1.52219 0 1.30583
0 1.11064 0 1.5216 0 1.30472
0 1.11077 0 1.52117 0 1.30385
0 1.11091 0 1.52089 0 1.30328
0 1.11105 0 1.52075 0 1.30291
0 1.1112 0 1.52075 0 1.30262
0 1.11135 0 1.52081 0 1.30227
0 1.11149 0 1.52087 0 1.30182
0 1.11163 0 1.52095 0 1.30126
0 1.11176 0 1.52102 0 1.30073
0 1.11189 0 1.52113 0 1.30038
0 1.11201 0 1.52127 0 1.30031
0 1.11212 0 1.52142 0 1.30031
0 1.11222 0 1.52158 0 1.30034
0 1.11231 0 1.52178 0 1.30038
0 1.11238 0 1.52215 0 1.30043
0 1.11242 0 1.52274 0 1.30051
0 1.11246 0 1.52342 0 1.3006
0 1.11248 0 1.5241 0 1.30079
0 1.11249 0 1.52473 0 1.30146
0 1.1125 0 1.5253 0 1.30275
0 1.1125 0 1.52585 0 1.30463
0 1.11248 0 1.52655 0 1.30691
0 1.11245 0 1.52738 0 1.30935
0 1.11241 0 1.52838 0 1.31174
0 1.11235 0 1.52953 0 1.31404
0 1.11229 0 1.53079 0 1.3163
