0.688567 2.37437e-05 0.564503 1.94656e-05 0.00423156 1.45916e-07
0.682563 2.35366e-05 0.565578 1.95027e-05 0.00415486 1.43271e-07
0.668692 2.30584e-05 0.568256 1.9595e-05 0.00399197 1.37654e-07
0.640271 2.20783e-05 0.573291 1.97687e-05 0.00375224 1.29387e-07
0.60819 2.09721e-05 0.578262 1.99401e-05 0.00357437 1.23254e-07
0.567191 1.95583e-05 0.583506 2.01209e-05 0.00349351 1.20466e-07
0.51675 1.7819e-05 0.588548 2.02948e-05 0.00359819 1.24076e-07
0.456307 1.57347e-05 0.592809 2.04417e-05 0.00398275 1.37336e-07
0.385241 1.32842e-05 0.595564 2.05367e-05 0.00472975 1.63095e-07
0.302897 1.04447e-05 0.595983 2.05511e-05 0.00592117 2.04178e-07
0.208736 7.19778e-06 0.593182 2.04546e-05 0.00764674 2.63681e-07
0.102882 3.54766e-06 0.586231 2.02149e-05 0.00999346 3.44602e-07
-0.0205246 -7.07746e-07 0.574285 1.98029e-05 0.0130071 4.48522e-07
-0.178216 -6.14538e-06 0.555736 1.91633e-05 0.0167656 5.78125e-07
-0.345306 -1.19071e-05 0.529147 1.82465e-05 0.021285 7.33966e-07
-0.517212 -1.78349e-05 0.492985 1.69995e-05 0.0265658 9.1606e-07
-0.688428 -2.37389e-05 0.44581 1.53728e-05 0.0325549 1.12258e-06
-0.853016 -2.94144e-05 0.38644 1.33255e-05 0.0391231 1.34907e-06
-1.00498 -3.46545e-05 0.314085 1.08305e-05 0.0460787 1.58892e-06
-1.13854 -3.92601e-05 0.228496 7.87918e-06 0.0530234 1.82839e-06
-1.24819 -4.30409e-05 0.130023 4.48356e-06 0.0595409 2.05314e-06
-1.32803 -4.57943e-05 0.0195446 6.73952e-07 0.0651509 2.24658e-06
-1.37129 -4.7286e-05 -0.111568 -3.84719e-06 0.069269 2.38859e-06
-1.36986 -4.72364e-05 -0.283692 -9.7825e-06 0.0712229 2.45596e-06
-1.31422 -4.53178e-05 -0.463461 -1.59814e-05 0.0703528 2.42596e-06
-1.19516 -4.12125e-05 -0.648518 -2.23627e-05 0.0658329 2.2701e-06
-1.00538 -3.46684e-05 -0.834101 -2.87621e-05 0.056969 1.96445e-06
-0.743771 -2.56473e-05 -1.01348 -3.49475e-05 0.0426541 1.47083e-06
-0.41787 -1.44093e-05 -1.17727 -4.05956e-05 0.0219614 7.57288e-07
-0.0430695 -1.48515e-06 -1.31393 -4.53079e-05 -0.00582014 -2.00694e-07
0.301702 1.04035e-05 -1.41162 -4.86767e-05 -0.0659929 -2.27562e-06
0.640374 2.20819e-05 -1.45887 -5.03059e-05 -0.149471 -5.15419e-06
0.975293 3.36308e-05 -1.44866 -4.99538e-05 -0.248989 -8.58583e-06
1.29551 4.46729e-05 -1.37478 -4.74064e-05 -0.363994 -1.25515e-05
1.59477 5.49919e-05 -1.23404 -4.25529e-05 -0.492969 -1.69989e-05
1.86909 6.44512e-05 -1.0273 -3.54241e-05 -0.633351 -2.18397e-05
2.11766 7.30228e-05 -0.758128 -2.61423e-05 -0.78193 -2.69631e-05
2.3426 8.07793e-05 -0.433038 -1.49324e-05 -0.934723 -3.22318e-05
2.54557 8.77782e-05 -0.0598175 -2.06267e-06 -1.0872 -3.74898e-05
2.72937 9.41161e-05 0.255083 8.79598e-06 -1.23379 -4.25444e-05
2.89676 9.98884e-05 0.58967 2.03335e-05 -1.36985 -4.72361e-05
3.04973 0.000105163 0.935385 3.22547e-05 -1.48988 -5.13751e-05
3.18769 0.00010992 1.2831 4.42448e-05 -1.58887 -5.47885e-05
3.30767 0.000114058 1.6248 5.60276e-05 -1.662 -5.73104e-05
3.40573 0.000117439 1.95403 6.73804e-05 -1.70467 -5.87816e-05
3.47905 0.000119967 2.26198 7.79992e-05 -1.71317 -5.90749e-05
3.52968 0.000121713 2.54057 8.76058e-05 -1.68453 -5.80873e-05
3.56569 0.000122955 2.7827 9.59552e-05 -1.61609 -5.57271e-05
3.6003 0.000124148 2.98083 0.000102787 -1.50609 -5.19342e-05
3.65188 0.000125927 3.12733 0.000107839 -1.35395 -4.6688e-05
3.77529 0.000130182 3.22876 0.000111337 -1.10537 -3.81162e-05
4.00954 0.00013826 3.2342 0.000111524 -0.795436 -2.74288e-05
4.39822 0.000151663 3.14599 0.000108482 -0.431411 -1.48762e-05
4.97048 0.000171396 2.97651 0.000102638 -0.0356218 -1.22834e-06
5.73483 0.000197753 2.75031 9.48381e-05 0.199039 6.8634e-06
6.67629 0.000230217 2.50231 8.62864e-05 0.437643 1.50911e-05
7.75507 0.000267416 2.2773 7.85277e-05 0.672477 2.31889e-05
8.91031 0.000307252 2.12499 7.32754e-05 0.892876 3.07888e-05
10.0735 0.000347361 2.0935 7.21897e-05 1.08962 3.7573e-05
11.1859 0.00038572 2.22351 7.66726e-05 1.2539 4.32379e-05
12.21 0.000421035 2.54201 8.76557e-05 1.38148 4.76371e-05
13.1291 0.000452726 3.06044 0.000105533 1.47064 5.07118e-05
13.9416 0.000480745 3.77557 0.000130192 1.52289 5.25135e-05
14.6565 0.000505398 4.67112 0.000161073 1.54198 5.31716e-05
15.2865 0.000527122 5.71968 0.00019723 1.5348 5.2924e-05
15.8409 0.000546237 6.88571 0.000237438 1.51038 5.2082e-05
16.3249 0.000562926 8.12805 0.000280278 1.4793 5.10103e-05
16.7473 0.000577494 9.40063 0.00032416 1.45271 5.00936e-05
17.1269 0.000590581 10.6534 0.000367357 1.44219 4.97306e-05
17.4905 0.000603121 11.8352 0.000408109 1.45891 5.03073e-05
17.866 0.00061607 12.8989 0.00044479 1.51283 5.21666e-05
18.271 0.000630034 13.8064 0.000476084 1.61154 5.55705e-05
18.7064 0.000645048 14.5318 0.000501095 1.75979 6.06825e-05
19.1632 0.000660799 15.061 0.000519344 1.95934 6.75636e-05
19.6306 0.000676916 15.3908 0.000530716 2.20901 7.61728e-05
20.0986 0.000693057 15.5277 0.000535437 2.50459 8.63653e-05
20.5591 0.000708934 15.4874 0.000534047 2.83909 9.78996e-05
21.0056 0.000724332 15.2937 0.000527368 3.20308 0.000110451
21.4345 0.000739122 14.9768 0.000516441 3.58526 0.000123629
21.8439 0.000753236 14.5717 0.000502472 3.97288 0.000136996
22.2316 0.000766606 14.1165 0.000486777 4.35241 0.000150083
22.5956 0.00077916 13.6508 0.000470718 4.71018 0.00016242
22.9364 0.000790911 13.2125 0.000455603 5.03309 0.000173555
23.2593 0.000802045 12.8354 0.0004426 5.30931 0.00018308
23.5748 0.000812925 12.5477 0.00043268 5.52883 0.000190649
23.8938 0.000823926 12.3716 0.000426606 5.68381 0.000195993
24.2182 0.000835112 12.324 0.000424964 5.76886 0.000198926
24.5329 0.000845962 12.4177 0.000428195 5.78118 0.000199351
24.8063 0.000855389 12.6602 0.000436559 5.72076 0.000197268
24.9994 0.000862049 13.0511 0.000450037 5.59063 0.00019278
25.0708 0.000864511 13.4635 0.00046426 5.44039 0.0001876
25.0305 0.000863121 14.0857 0.000485715 5.2024 0.000179393
24.8286 0.000856158 14.7958 0.000510201 4.91939 0.000169634
24.4581 0.000843384 15.5513 0.000536251 4.60499 0.000158793
23.9191 0.000824798 16.3022 0.000562146 4.27424 0.000147388
23.2133 0.00080046 16.9956 0.000586055 3.94277 0.000135958
22.3443 0.000770494 17.5776 0.000606123 3.62593 0.000125032
21.3171 0.000735071 17.9967 0.000620576 3.33791 0.0001151
20.136 0.000694345 18.2066 0.000627814 3.09095 0.000106584
18.8063 0.000648493 18.1685 0.000626501 2.89466 9.9816e-05
17.3343 0.000597734 17.853 0.00061562 2.75549 9.50168e-05
15.7266 0.000542295 17.2414 0.000594532 2.67622 9.22835e-05
13.9919 0.000482479 16.3269 0.000562998 2.65587 9.15817e-05
12.1479 0.000418894 15.1131 0.000521142 2.6897 9.27484e-05
10.2275 0.000352673 13.6127 0.000469405 2.76945 9.54982e-05
8.27486 0.00028534 11.8481 0.000408556 2.88349 9.94309e-05
6.33138 0.000218324 9.85365 0.000339781 3.01713 0.000104039
4.42953 0.000152742 7.67595 0.000264688 3.15305 0.000108726
2.59554 8.95015e-05 5.37126 0.000185216 3.27219 0.000112834
0.85847 2.96024e-05 3.00268 0.000103541 3.35456 0.000115674
-1.01676 -3.50607e-05 0.642185 2.21443e-05 3.37993 0.000116549
-2.91736 -0.000100598 -2.08171 -7.1783e-05 3.33272 0.000114921
-4.67264 -0.000161125 -4.90881 -0.000169269 3.19455 0.000110157
-6.30804 -0.000217519 -7.4825 -0.000258017 2.95209 0.000101796
-7.85807 -0.000270968 -9.72803 -0.000335449 2.59587 8.95129e-05
-9.35603 -0.000322622 -11.6006 -0.00040002 2.11962 7.30903e-05
-10.8177 -0.000373023 -13.0734 -0.000450808 1.52525 5.25949e-05
-12.2328 -0.00042182 -14.1397 -0.000487577 0.820063 2.8278e-05
-13.5788 -0.000468235 -14.8225 -0.000511122 -0.123665 -4.26429e-06
-14.8408 -0.000511752 -15.1645 -0.000522915 -1.78107 -6.14163e-05
-16.0243 -0.000552561 -15.2175 -0.000524743 -3.5551 -0.00012259
-17.1565 -0.000591604 -15.0371 -0.000518522 -5.39653 -0.000186087
-18.2728 -0.000630098 -14.6911 -0.00050659 -7.25917 -0.000250316
-19.4052 -0.000669145 -14.257 -0.000491619 -9.09389 -0.000313582
-20.5849 -0.000709826 -13.811 -0.00047624 -10.8532 -0.000374248
-21.8447 -0.000753265 -13.4282 -0.000463042 -12.4846 -0.000430504
-23.2177 -0.000800612 -13.1815 -0.000454534 -13.9427 -0.000480783
-24.7328 -0.000852856 -13.136 -0.000452965 -15.1892 -0.000523765
-26.4146 -0.00091085 -13.3041 -0.000458764 -15.7196 -0.000542054
-28.2658 -0.000974684 -13.71 -0.00047276 -15.7175 -0.000541984
-30.2097 -0.00104172 -14.5923 -0.000503183 -15.6336 -0.000539089
-32.2216 -0.00111109 -15.7568 -0.00054334 -15.6409 -0.000539341
-34.2116 -0.00117971 -17.3277 -0.000597509 -15.6636 -0.000540126
-36.1203 -0.00124553 -19.2521 -0.000663864 -15.4096 -0.000531367
-37.8876 -0.00130647 -21.5151 -0.0007419 -14.8193 -0.000511009
-39.4849 -0.00136155 -24.0067 -0.000827817 -14.0561 -0.000484691
-40.9149 -0.00141086 -26.5573 -0.000915768 -13.2481 -0.000456833
-41.6846 -0.0014374 -28.9309 -0.000997616 -12.3958 -0.000427442
-41.4287 -0.00142858 -31.2222 -0.00107663 -11.4373 -0.000394389
-41.4282 -0.00142856 -33.264 -0.00114703 -10.4876 -0.00036164
-41.202 -0.00142076 -35.1742 -0.0012129 -9.60307 -0.00033114
-40.9252 -0.00141121 -36.7284 -0.0012665 -8.848 -0.000305104
-40.8724 -0.00140939 -37.9595 -0.00130895 -8.16725 -0.000281629
-40.838 -0.00140821 -38.7043 -0.00133463 -7.62684 -0.000262994
-40.7977 -0.00140682 -38.9743 -0.00134394 -7.27457 -0.000250847
-40.8923 -0.00141008 -38.779 -0.00133721 -7.11748 -0.00024543
-41.0596 -0.00141585 -38.1182 -0.00131442 -7.12615 -0.000245729
-41.1981 -0.00142062 -37.0088 -0.00127616 -7.28803 -0.000251311
-41.3066 -0.00142436 -35.4727 -0.0012232 -7.60693 -0.000262308
-41.3542 -0.00142601 -33.5796 -0.00115792 -8.06027 -0.00027794
-41.4133 -0.00142805 -31.4012 -0.0010828 -8.60211 -0.000296625
-41.5509 -0.00143279 -29.0382 -0.00100132 -9.18401 -0.00031669
-41.7917 -0.00144109 -26.6005 -0.00091726 -9.76819 -0.000336834
-41.4991 -0.00143101 -24.293 -0.000837691 -10.3095 -0.000355501
-40.08 -0.00138207 -22.5141 -0.000776347 -10.7121 -0.000369384
-39.0544 -0.0013467 -20.8264 -0.000718151 -11.0431 -0.000380797
-38.1979 -0.00131717 -19.3906 -0.00066864 -11.2144 -0.000386703
-37.4872 -0.00129266 -18.2474 -0.00062922 -11.2417 -0.000387646
-37.1128 -0.00127975 -17.464 -0.000602207 -11.0952 -0.000382594
-36.9684 -0.00127477 -17.0302 -0.00058725 -10.7698 -0.000371374
-37.07 -0.00127828 -16.9392 -0.000584109 -10.275 -0.000354312
-37.4569 -0.00129162 -17.209 -0.000593414 -9.62324 -0.000331836
-37.9476 -0.00130854 -17.85 -0.000615517 -8.82684 -0.000304374
-38.3741 -0.00132325 -18.8554 -0.000650188 -7.90382 -0.000272546
-38.732 -0.00133559 -20.1687 -0.000695471 -6.89225 -0.000237664
-38.9655 -0.00134364 -21.7293 -0.000749286 -5.83386 -0.000201168
-39.0348 -0.00134603 -23.4583 -0.000808906 -4.7711 -0.000164521
-38.912 -0.00134179 -25.2641 -0.000871175 -3.74765 -0.000129229
-38.5729 -0.0013301 -27.0481 -0.000932693 -2.8115 -9.69482e-05
-38.0172 -0.00131094 -28.7083 -0.00098994 -2.01016 -6.93159e-05
-37.4279 -0.00129062 -29.8785 -0.00103029 -1.49414 -5.15221e-05
-36.7211 -0.00126624 -30.8548 -0.00106396 -1.10846 -3.82226e-05
-35.9088 -0.00123823 -31.5946 -0.00108947 -0.867649 -2.99189e-05
-35.0043 -0.00120705 -32.063 -0.00110562 -0.782929 -2.69976e-05
-34.0202 -0.00117311 -32.2338 -0.00111151 -0.861179 -2.96958e-05
-32.9677 -0.00113682 -32.0899 -0.00110655 -1.10406 -3.80712e-05
-31.856 -0.00109848 -31.625 -0.00109052 -1.50785 -5.19949e-05
-30.6889 -0.00105824 -30.8447 -0.00106361 -2.06378 -7.1165e-05
-29.4633 -0.00101598 -29.7661 -0.00102642 -2.75853 -9.51218e-05
-28.169 -0.000971343 -28.417 -0.000979895 -3.57447 -0.000123257
-26.7908 -0.000923821 -26.8341 -0.000925314 -4.48996 -0.000154826
-25.3136 -0.000872883 -25.0608 -0.000864167 -5.48004 -0.000188967
-23.7281 -0.00081821 -23.1439 -0.000798065 -6.51748 -0.000224741
-22.0346 -0.000759815 -21.1307 -0.000728644 -7.57378 -0.000261165
-20.2452 -0.000698112 -19.0673 -0.000657492 -8.62007 -0.000297244
-18.3813 -0.000633839 -16.9971 -0.000586107 -9.62781 -0.000331993
-16.4676 -0.00056785 -14.9615 -0.000515913 -10.5692 -0.000364456
-14.5262 -0.000500905 -12.9995 -0.000448259 -11.4179 -0.00039372
-12.574 -0.000433588 -11.1477 -0.000384404 -12.1495 -0.000418947
-10.6236 -0.00036633 -9.43851 -0.000325466 -12.7423 -0.000439389
-8.68554 -0.000299502 -7.89854 -0.000272363 -13.1781 -0.000454418
-6.77018 -0.000233455 -6.54759 -0.000225779 -13.4424 -0.000463532
-4.88656 -0.000168503 -5.39818 -0.000186144 -13.5248 -0.000466372
-3.04123 -0.000104871 -4.45559 -0.000153641 -13.419 -0.000462724
-1.23777 -4.26822e-05 -3.71787 -0.000128202 -13.1233 -0.000452526
0.207891 7.16829e-06 -3.24069 -0.000111748 -12.6317 -0.000435577
1.36685 4.71323e-05 -2.97279 -0.00010251 -11.9547 -0.000412231
2.54396 8.77224e-05 -2.82787 -9.75129e-05 -11.1178 -0.000383371
3.54674 0.000122301 -2.7583 -9.51136e-05 -10.1271 -0.000349212
4.39631 0.000151596 -2.68885 -9.27191e-05 -9.01658 -0.000310916
5.20886 0.000179615 -2.72077 -9.38197e-05 -7.77856 -0.000268226
5.99417 0.000206695 -2.75468 -9.4989e-05 -6.4518 -0.000222476
6.75662 0.000232987 -2.7957 -9.64035e-05 -5.04763 -0.000174056
7.49077 0.000258302 -2.78335 -9.59777e-05 -3.59413 -0.000123936
8.19503 0.000282587 -2.68804 -9.26909e-05 -2.1128 -7.28552e-05
8.87846 0.000306153 -2.48168 -8.55753e-05 -0.627863 -2.16504e-05
9.5456 0.000329158 -2.15056 -7.41571e-05 0.272197 9.38612e-06
10.1984 0.000351668 -1.67563 -5.77804e-05 0.952328 3.28389e-05
10.8397 0.000373783 -0.996854 -3.43743e-05 1.58997 5.48265e-05
11.4902 0.000396213 -0.194671 -6.71279e-06 2.20444 7.60151e-05
12.1581 0.000419245 0.5873 2.02517e-05 2.79835 9.6495e-05
12.8567 0.000443333 1.50496 5.1895e-05 3.35632 0.000115735
13.5991 0.000468935 2.55682 8.81663e-05 3.8597 0.000133093
14.3965 0.000496431 3.73721 0.000128869 4.30345 0.000148395
15.2541 0.000526002 5.03083 0.000173477 4.6962 0.000161938
16.1737 0.000557712 6.41899 0.000221345 5.04738 0.000174048
17.1536 0.000591502 7.88529 0.000271907 5.35793 0.000184756
18.1874 0.000627151 9.41545 0.000324671 5.62262 0.000193884
19.2661 0.000664349 10.9925 0.000379053 5.8392 0.000201352
20.3807 0.000702783 12.5954 0.000434325 6.01308 0.000207347
21.523 0.000742171 14.201 0.00048969 6.15391 0.000212204
22.6854 0.000782254 15.7872 0.000544387 6.26912 0.000216177
23.8609 0.000822789 17.3332 0.000597697 6.36157 0.000219365
25.0423 0.000863528 18.8188 0.000648923 6.43265 0.000221815
26.2212 0.000904179 20.2242 0.000697387 6.48627 0.000223665
27.3867 0.00094437 21.5321 0.000742488 6.52923 0.000225146
28.5258 0.00098365 22.7285 0.000783742 6.56816 0.000226488
29.6239 0.00102151 23.8028 0.000820785 6.60694 0.000227826
30.6662 0.00105745 24.747 0.000853345 6.64705 0.000229209
31.6386 0.00109099 25.5554 0.00088122 6.68969 0.000230679
32.5276 0.00112164 26.2246 0.000904297 6.73713 0.000232315
32.7144 0.00112808 26.6913 0.000920391 6.79595 0.000234343
32.8507 0.00113278 26.7565 0.000922637 6.88156 0.000237295
32.8628 0.0011332 26.8548 0.000926027 6.9702 0.000240352
32.8489 0.00113272 26.8534 0.000925981 7.05337 0.00024322
32.9533 0.00113632 26.7676 0.000923021 7.13499 0.000246034
33.0803 0.0011407 26.6678 0.000919579 7.20391 0.000248411
33.1232 0.00114218 26.4422 0.000911799 7.27666 0.000250919
33.1082 0.00114166 26.1571 0.000901968 7.34581 0.000253304
33.0792 0.00114066 25.7967 0.000889541 7.40668 0.000255403
32.9403 0.00113587 25.3466 0.000874021 7.45696 0.000257137
32.6983 0.00112753 24.8155 0.000855706 7.49236 0.000258357
32.4165 0.00111781 24.2117 0.000834885 7.51464 0.000259126
32.11 0.00110724 23.5572 0.000812316 7.52117 0.000259351
31.7667 0.00109541 22.8607 0.0007883 7.50652 0.000258846
31.4064 0.00108298 22.1301 0.000763107 7.46355 0.000257364
31.0587 0.00107099 21.3752 0.000737075 7.38856 0.000254778
30.7307 0.00105968 20.6092 0.000710664 7.28127 0.000251078
30.4221 0.00104904 19.8474 0.000684394 7.14139 0.000246255
30.1407 0.00103933 19.103 0.000658726 6.96652 0.000240225
29.8912 0.00103073 18.3873 0.000634045 6.75341 0.000232876
29.6705 0.00102312 17.7107 0.000610715 6.50065 0.00022416
29.4758 0.00101641 17.0843 0.000589113 6.20923 0.000214111
29.3075 0.0010106 16.5173 0.000569562 5.88127 0.000202802
29.1648 0.00100568 16.0158 0.000552269 5.51877 0.000190302
29.0374 0.00100129 15.5841 0.000537384 5.1236 0.000176676
28.9155 0.000997088 15.2256 0.000525022 4.6986 0.000162021
28.7958 0.00099296 14.9402 0.000515179 4.2483 0.000146493
28.6748 0.000988786 14.7251 0.000507763 3.77837 0.000130289
28.5517 0.00098454 14.5741 0.000502553 3.29501 0.000113621
28.4294 0.000980324 14.4779 0.000499239 2.80454 9.67084e-05
28.3136 0.00097633 14.4262 0.000497454 2.31356 7.9778e-05
28.2096 0.000972744 14.4073 0.000496804 1.82912 6.30731e-05
28.1197 0.000969646 14.4098 0.000496888 1.35851 4.68452e-05
28.0412 0.000966938 14.4227 0.000497335 0.908884 3.13408e-05
27.9645 0.000964294 14.4372 0.000497834 0.486848 1.67879e-05
27.8753 0.000961216 14.446 0.000498139 0.0983857 3.39261e-06
27.7574 0.00095715 14.4432 0.000498041 -0.251065 -8.65742e-06
27.5941 0.00095152 14.4274 0.000497496 -0.781717 -2.69558e-05
27.3692 0.000943764 14.3913 0.000496252 -1.21128 -4.17682e-05
27.0677 0.000933368 14.3228 0.00049389 -1.54897 -5.34127e-05
26.6698 0.000919648 14.2312 0.000490732 -1.80258 -6.21581e-05
26.1592 0.000902042 14.1097 0.000486542 -1.97016 -6.79366e-05
25.5184 0.000879945 13.9573 0.000481287 -2.04575 -7.05431e-05
24.7324 0.000852841 13.7707 0.000474852 -2.01838 -6.95993e-05
23.7907 0.000820369 13.5501 0.000467245 -1.88333 -6.49424e-05
22.6921 0.000782486 13.2926 0.000458367 -1.64461 -5.67106e-05
21.4445 0.000739467 12.9933 0.000448044 -1.3096 -4.51586e-05
20.0616 0.000691779 12.646 0.000436068 -0.883837 -3.04771e-05
18.5597 0.000639989 12.2454 0.000422256 -0.379719 -1.30938e-05
16.9573 0.000584734 11.785 0.000406381 -0.0655416 -2.26006e-06
15.2733 0.000526666 11.2636 0.0003884 0.284388 9.80649e-06
13.5278 0.000466477 10.6787 0.00036823 0.664545 2.29153e-05
11.7427 0.00040492 10.0284 0.000345806 1.06896 3.68606e-05
9.9411 0.000342797 9.31341 0.000321152 1.49098 5.14131e-05
8.14767 0.000280954 8.53594 0.000294343 1.9227 6.62998e-05
6.38553 0.000220191 7.7008 0.000265545 2.35525 8.12155e-05
4.67316 0.000161144 6.81514 0.000235005 2.77971 9.58521e-05
3.02284 0.000104236 5.88906 0.000203071 3.18739 0.00010991
1.44233 4.97356e-05 4.93514 0.000170177 3.56966 0.000123092
-0.0321245 -1.1077e-06 3.97331 0.000137011 3.91714 0.000135074
-1.40005 -4.82775e-05 3.11832 0.000107528 4.21096 0.000145206
-2.51145 -8.66018e-05 2.2524 7.76689e-05 4.45577 0.000153647
-3.72291 -0.000128376 1.40956 4.86054e-05 4.6483 0.000160286
-4.87287 -0.00016803 0.602992 2.07928e-05 4.77348 0.000164603
-5.92334 -0.000204253 -0.15145 -5.2224e-06 4.8336 0.000166676
-6.91078 -0.000238303 -0.949626 -3.27457e-05 4.82089 0.000166238
-7.87713 -0.000271625 -1.7769 -6.12723e-05 4.73565 0.000163298
-8.79663 -0.000303332 -2.51367 -8.66782e-05 4.57401 0.000157725
-9.65277 -0.000332854 -3.15395 -0.000108757 4.33686 0.000149547
-10.4705 -0.000361053 -3.69741 -0.000127497 4.0275 0.000138879
-11.2652 -0.000388455 -4.15375 -0.000143233 3.64951 0.000125845
-12.0292 -0.000414801 -4.53332 -0.000156321 3.20679 0.000110579
-12.7633 -0.000440114 -4.85065 -0.000167264 2.70475 9.32673e-05
-13.481 -0.000464862 -5.12042 -0.000176566 2.15086 7.41678e-05
-14.1899 -0.000489305 -5.35786 -0.000184754 1.55363 5.35733e-05
-14.8922 -0.000513525 -5.58139 -0.000192462 0.921769 3.17851e-05
-15.5963 -0.000537802 -5.8119 -0.00020041 0.264219 9.11098e-06
-16.315 -0.000562586 -6.06716 -0.000209212 -0.493083 -1.70028e-05
-17.0602 -0.000588284 -6.34746 -0.000218878 -1.66276 -5.73364e-05
-17.8379 -0.000615101 -6.70654 -0.00023126 -2.78522 -9.6042e-05
-18.6547 -0.000643266 -7.14498 -0.000246379 -3.89374 -0.000134267
-19.5197 -0.000673093 -7.67392 -0.000264618 -4.98351 -0.000171845
-20.4291 -0.00070445 -8.31888 -0.000286858 -6.03934 -0.000208253
-21.3804 -0.000737256 -9.0945 -0.000313603 -7.03689 -0.000242651
-22.3655 -0.000771224 -10.0146 -0.000345331 -7.95813 -0.000274418
-23.3761 -0.000806074 -11.0827 -0.000382161 -8.80008 -0.000303451
-24.4024 -0.000841463 -12.3015 -0.000424188 -9.56609 -0.000329865
-25.4352 -0.000877076 -13.6703 -0.00047139 -10.2557 -0.000353643
-26.4664 -0.000912636 -15.1832 -0.000523558 -10.8624 -0.000374564
-27.4891 -0.0009479 -16.8269 -0.000580237 -11.3808 -0.000392441
-28.4967 -0.000982645 -18.5824 -0.000640774 -11.8133 -0.000407356
-38.8996 -0.00134137 -18.0872 -0.000623697 -12.3905 -0.000427257
-9.07622 -0.000312974 -12.9183 -0.000445458 -13.7093 -0.000472733
1.91693 6.61005e-05 -15.4647 -0.000533264 -13.583 -0.00046838
-7.8679 -0.000271307 -18.2727 -0.000630094 -13.5948 -0.000468787
-13.2367 -0.00045644 -22.3037 -0.000769095 -13.2367 -0.000456439
-10.6607 -0.000367609 -23.8082 -0.000820972 -13.1583 -0.000453735
-5.49302 -0.000189415 -24.7684 -0.000854084 -13.0787 -0.00045099
-6.26581 -0.000216063 -26.9377 -0.000928887 -12.7111 -0.000438314
-9.55751 -0.00032957 -29.8019 -0.00102765 -12.2631 -0.000422867
-10.2494 -0.00035343 -31.8598 -0.00109861 -11.8777 -0.000409577
-6.34423 -0.000218767 -33.0929 -0.00114113 -11.5616 -0.000398676
-3.51301 -0.000121139 -33.7761 -0.00116469 -11.2991 -0.000389625
-3.77582 -0.000130201 -35.1201 -0.00121104 -10.9383 -0.000377182
-5.53745 -0.000190947 -36.3233 -0.00125253 -10.6271 -0.000366451
-5.7047 -0.000196715 -37.0071 -0.00127611 -10.4002 -0.000358628
-4.38851 -0.000151328 -37.038 -0.00127717 -10.247 -0.000353345
-3.70257 -0.000127675 -36.7744 -0.00126808 -10.1462 -0.000349869
-4.59031 -0.000158287 -36.5168 -0.0012592 -10.0695 -0.000347225
-5.89288 -0.000203203 -36.0774 -0.00124405 -10.0524 -0.000346635
-6.37694 -0.000219895 -35.2488 -0.00121548 -10.0967 -0.000348162
-6.35278 -0.000219062 -34.0661 -0.00117469 -10.1805 -0.000351052
-6.72654 -0.00023195 -32.7926 -0.00113078 -10.2713 -0.000354182
-7.41823 -0.000255802 -31.5481 -0.00108787 -10.357 -0.000357139
-8.0884 -0.000278911 -30.1252 -0.0010388 -10.4692 -0.000361006
-8.3654 -0.000288463 -28.6287 -0.000987197 -10.5627 -0.000364232
-8.67259 -0.000299055 -27.0785 -0.000933741 -10.6224 -0.000366288
-9.09321 -0.00031356 -25.5758 -0.000881925 -10.6322 -0.000366629
-9.44589 -0.000325721 -24.1335 -0.00083219 -10.5913 -0.000365217
-9.68578 -0.000333993 -22.7801 -0.00078552 -10.4901 -0.000361729
-9.94958 -0.00034309 -21.5608 -0.000743476 -10.3107 -0.00035554
-10.2808 -0.000354511 -20.5078 -0.000707166 -10.043 -0.000346312
-10.6053 -0.000365699 -19.6406 -0.000677262 -9.68533 -0.000333977
-10.7299 -0.000369998 -19.0206 -0.000655881 -9.23256 -0.000318364
-11.0017 -0.00037937 -18.5963 -0.00064125 -8.70068 -0.000300023
-11.3194 -0.000390325 -18.4041 -0.000634623 -8.08002 -0.000278621
-11.6136 -0.000400471 -18.4037 -0.00063461 -7.38568 -0.000254679
-11.8314 -0.00040798 -18.6304 -0.000642428 -6.61803 -0.000228208
-12.0381 -0.000415108 -19.064 -0.00065738 -5.79679 -0.000199889
-12.166 -0.000419519 -19.6767 -0.000678507 -4.93924 -0.000170319
-11.8298 -0.000407923 -20.3849 -0.000702927 -4.07024 -0.000140353
-11.0829 -0.000382169 -21.1314 -0.000728667 -3.21247 -0.000110775
-10.2869 -0.000354722 -21.9776 -0.00075785 -2.36561 -8.15727e-05
-9.70989 -0.000334824 -22.8915 -0.000789362 -1.55291 -5.35485e-05
-9.23384 -0.000318409 -23.8392 -0.000822041 -0.793143 -2.73498e-05
-8.6663 -0.000298839 -24.7345 -0.000852915 -0.189454 -6.5329e-06
-7.96294 -0.000274585 -25.5458 -0.000880889 0.0974649 3.36086e-06
-7.35976 -0.000253785 -26.2622 -0.000905592 0.324769 1.11989e-05
-6.96517 -0.000240179 -26.874 -0.000926689 0.493944 1.70326e-05
-6.61042 -0.000227946 -27.359 -0.000943414 0.60702 2.09317e-05
-6.1392 -0.000211697 -27.6571 -0.000953692 0.657337 2.26668e-05
-5.48414 -0.000189109 -27.7732 -0.000957696 0.634589 2.18824e-05
-4.69874 -0.000162026 -27.7072 -0.000955421 0.532061 1.83469e-05
-3.84085 -0.000132444 -27.4648 -0.000947061 0.350527 1.20871e-05
-2.78369 -9.599e-05 -27.0677 -0.000933371 0.0989493 3.41205e-06
-1.74686 -6.02371e-05 -26.5596 -0.000915848 -0.203184 -7.00636e-06
-1.26434 -4.35984e-05 -26.0149 -0.000897064 -0.85772 -2.95765e-05
-0.971121 -3.34875e-05 -25.3886 -0.000875469 -1.59812 -5.51077e-05
-0.498896 -1.72039e-05 -24.6314 -0.000849359 -2.42595 -8.36533e-05
0.155206 5.35134e-06 -23.7532 -0.000819076 -3.32343 -0.000114601
0.765696 2.64027e-05 -22.812 -0.000786619 -4.26646 -0.000147119
1.13463 3.91246e-05 -21.8576 -0.000753709 -5.23064 -0.000180367
1.26383 4.35799e-05 -20.8999 -0.000720687 -6.19999 -0.000213793
1.46276 5.04394e-05 -19.9351 -0.000687416 -7.15982 -0.00024689
1.72744 5.95662e-05 -18.9837 -0.00065461 -8.09268 -0.000279058
1.80744 6.23249e-05 -18.0942 -0.000623938 -8.97521 -0.00030949
1.82937 6.3081e-05 -17.2931 -0.000596315 -9.78926 -0.000337561
1.86445 6.42908e-05 -16.5857 -0.000571921 -10.5208 -0.000362786
1.9734 6.80477e-05 -15.9753 -0.000550874 -11.1579 -0.000384755
2.12929 7.34231e-05 -15.4743 -0.000533598 -11.6891 -0.000403074
2.27711 7.85205e-05 -15.1015 -0.00052074 -12.1039 -0.000417376
2.41257 8.31915e-05 -14.863 -0.000512518 -12.3949 -0.000427411
2.57551 8.88101e-05 -14.7552 -0.000508801 -12.5584 -0.000433048
2.78822 9.61449e-05 -14.776 -0.000509518 -12.5924 -0.00043422
3.03636 0.000104701 -14.9284 -0.000514773 -12.4948 -0.000430856
3.30204 0.000113863 -15.2158 -0.000524684 -12.2674 -0.000423015
3.55579 0.000122613 -15.6336 -0.000539088 -11.9153 -0.000410873
3.78286 0.000130443 -16.1862 -0.000558144 -11.445 -0.000394656
3.9895 0.000137569 -16.8547 -0.000581197 -10.868 -0.000374759
4.24671 0.000146438 -17.6138 -0.000607373 -10.2 -0.000351724
4.6012 0.000158662 -18.4366 -0.000635744 -9.45644 -0.000326084
5.07717 0.000175074 -19.2921 -0.000665244 -8.65572 -0.000298473
5.69977 0.000196543 -20.1462 -0.000694696 -7.81651 -0.000269535
6.41457 0.000221192 -20.9513 -0.000722459 -6.95987 -0.000239995
6.99235 0.000241115 -21.6001 -0.000744831 -6.11449 -0.000210844
7.91479 0.000272923 -22.1777 -0.000764747 -5.28679 -0.000182303
8.96033 0.000308976 -22.5775 -0.000778533 -4.49958 -0.000155158
10.1853 0.000351216 -22.8075 -0.000786465 -3.76829 -0.000129941
11.0968 0.000382647 -22.8894 -0.000789291 -3.09498 -0.000106724
11.6488 0.000401683 -22.8583 -0.000788219 -2.48415 -8.56602e-05
12.0737 0.000416333 -22.5862 -0.000778833 -1.96626 -6.7802e-05
12.694 0.000437723 -22.063 -0.000760794 -1.54531 -5.32866e-05
13.3914 0.000461771 -21.2587 -0.000733059 -1.22848 -4.23613e-05
13.9313 0.000480389 -20.2307 -0.000697612 -1.0069 -3.47206e-05
14.2185 0.000490291 -18.9864 -0.000654702 -0.877734 -3.02667e-05
14.4781 0.000499243 -17.4962 -0.000603317 -0.840847 -2.89947e-05
14.8223 0.000511112 -15.7665 -0.000543671 -0.89166 -3.07469e-05
15.1461 0.000522279 -13.8393 -0.000477216 -1.01418 -3.49719e-05
15.2994 0.000527564 -11.7603 -0.000405528 -1.19305 -4.11397e-05
15.3563 0.000529525 -9.56342 -0.000329773 -1.41075 -4.86466e-05
15.4125 0.000531466 -7.26123 -0.000250387 -1.65331 -5.70108e-05
15.546 0.000536069 -4.88964 -0.000168608 -1.90245 -6.56016e-05
15.6009 0.000537961 -2.52261 -8.69865e-05 -2.13266 -7.35402e-05
15.5133 0.000534941 -0.194858 -6.71925e-06 -2.3327 -8.04378e-05
15.5084 0.000534773 1.51375 5.21982e-05 -2.4806 -8.55378e-05
15.5532 0.000536316 3.16364 0.000109091 -2.55539 -8.81168e-05
15.615 0.000538447 4.7282 0.000163041 -2.55109 -8.79685e-05
15.713 0.000541826 6.1577 0.000212335 -2.45126 -8.45264e-05
15.8243 0.000545666 7.44422 0.000256697 -2.2502 -7.75932e-05
16.7102 0.000576213 8.68247 0.000299396 -1.9547 -6.74035e-05
18.7698 0.000647235 9.97777 0.000344061 -1.60202 -5.52419e-05
20.3337 0.000701162 10.8465 0.000374018 -1.05657 -3.64334e-05
21.2432 0.000732524 11.5306 0.000397607 -0.505434 -1.74288e-05
22.3566 0.000770917 11.9321 0.000411451 -0.123906 -4.27263e-06
23.7458 0.00081882 12.1343 0.000418425 0.291237 1.00427e-05
24.8957 0.00085847 12.0935 0.000417016 0.760422 2.62215e-05
25.6449 0.000884307 11.8606 0.000408985 1.27923 4.41115e-05
26.5838 0.000916684 11.4418 0.000394546 1.83371 6.32314e-05
27.6129 0.000952168 10.8672 0.000374731 2.41051 8.31211e-05
28.6232 0.000987005 10.1592 0.000350316 2.9936 0.000103228
29.668 0.00102304 9.35439 0.000322565 3.57467 0.000123265
30.8619 0.0010642 8.50411 0.000293245 4.14199 0.000142827
32.1807 0.00110968 7.64753 0.000263708 4.68484 0.000161546
33.5766 0.00115781 6.82598 0.000235379 5.18829 0.000178907
35.0776 0.00120957 6.08434 0.000209805 5.63734 0.000194391
36.7083 0.0012658 5.46707 0.00018852 6.02043 0.000207601
38.443 0.00132562 5.01138 0.000172806 6.32993 0.000218274
40.2562 0.00138815 4.74945 0.000163774 6.55947 0.000226189
42.146 0.00145331 4.70932 0.00016239 6.70272 0.000231128
44.1033 0.0015208 4.91126 0.000169354 6.75489 0.000232927
46.1068 0.00158989 5.36628 0.000185044 6.70989 0.000231376
48.1483 0.00166029 6.07408 0.000209451 6.56578 0.000226406
50.2333 0.00173218 7.02831 0.000242355 6.32529 0.000218113
52.3662 0.00180573 8.21163 0.00028316 5.9968 0.000206786
54.5451 0.00188087 9.59906 0.000331002 5.59196 0.000192826
56.7675 0.0019575 11.1612 0.00038487 5.1241 0.000176693
59.0133 0.00203494 12.8663 0.000443666 4.60685 0.000158857
61.2664 0.00211263 14.6779 0.000506133 4.05489 0.000139824
63.5213 0.00219039 16.5525 0.000570778 3.48482 0.000120166
65.7632 0.0022677 18.4469 0.000636099 2.91436 0.000100495
67.9747 0.00234395 20.3181 0.000700623 2.3613 8.14243e-05
69.3234 0.00239046 22.0621 0.000760761 1.84933 6.377e-05
68.9338 0.00237703 23.2861 0.000802969 1.42179 4.90273e-05
68.4722 0.00236111 24.4141 0.000841866 1.05648 3.64305e-05
68.3746 0.00235775 25.5719 0.000881789 0.735333 2.53563e-05
68.3793 0.00235791 26.4913 0.000913494 0.509173 1.75577e-05
68.2371 0.00235301 27.3338 0.000942546 0.354235 1.2215e-05
68.0822 0.00234766 27.9618 0.000964199 0.28779 9.92379e-06
68.1062 0.00234849 28.418 0.000979933 0.310337 1.07013e-05
68.2191 0.00235238 28.7144 0.000990152 0.425547 1.4674e-05
68.307 0.00235541 28.8164 0.00099367 0.635939 2.19289e-05
68.4324 0.00235974 28.7342 0.000990836 0.931829 3.2132e-05
68.6648 0.00236775 28.4673 0.000981629 1.30696 4.50676e-05
68.966 0.00237814 28.0267 0.000966437 1.7576 6.06069e-05
69.2854 0.00238915 27.4363 0.000946078 2.27694 7.85152e-05
69.5919 0.00239972 26.722 0.00092145 2.85259 9.83653e-05
69.6363 0.00240125 25.925 0.000893964 3.46754 0.00011957
69.5207 0.00239726 25.0644 0.000864291 4.11161 0.00014178
69.3149 0.00239017 24.1546 0.000832918 4.77048 0.000164499
69.0281 0.00238028 23.2505 0.000801741 5.42989 0.000187238
67.6552 0.00233294 22.484 0.00077531 6.0695 0.000209293
66.4069 0.00228989 21.7888 0.000751336 6.66694 0.000229894
65.2306 0.00224933 21.1355 0.00072881 7.19252 0.000248018
64.1878 0.00221337 20.5822 0.000709732 7.6018 0.000262131
63.3076 0.00218302 20.0525 0.000691466 7.69972 0.000265507
62.6409 0.00216003 19.6377 0.000677163 7.71565 0.000266057
62.1328 0.00214251 19.4405 0.000670361 7.68898 0.000265137
61.7017 0.00212764 19.3436 0.000667022 7.66711 0.000264383
61.2707 0.00211278 19.4143 0.000669459 7.69842 0.000265463
60.8764 0.00209918 19.6414 0.000677288 7.75046 0.000267257
60.5177 0.00208682 20.0307 0.000690712 7.77398 0.000268068
60.1933 0.00207563 20.5695 0.000709293 7.72385 0.00026634
59.9171 0.00206611 21.2081 0.000731312 7.60264 0.00026216
59.6844 0.00205808 21.9332 0.000756318 7.43107 0.000256244
59.4851 0.00205121 22.7237 0.000783576 7.22188 0.000249031
59.3127 0.00204526 23.5546 0.000812227 6.96809 0.000240279
59.1587 0.00203995 24.3957 0.000841231 6.6654 0.000229841
59.0141 0.00203497 25.214 0.000869447 6.32536 0.000218116
58.8654 0.00202984 25.9808 0.00089589 5.96927 0.000205837
58.6969 0.00202403 26.6705 0.000919671 5.6137 0.000193576
58.4935 0.00201702 27.2577 0.000939919 5.26389 0.000181513
58.2371 0.00200818 27.7191 0.00095583 4.92033 0.000169666
57.9112 0.00199694 28.0348 0.000966718 4.58799 0.000158206
57.5028 0.00198285 28.1895 0.000972052 4.27772 0.000147507
56.9991 0.00196549 28.1723 0.000971457 4 0.000137931
56.3937 0.00194461 27.9752 0.000964663 3.75928 0.00012963
55.6838 0.00192013 27.5954 0.000951565 3.55455 0.000122571
54.871 0.0018921 27.0347 0.000932231 3.38398 0.000116689
53.9619 0.00186075 26.2996 0.000906883 3.24772 0.000111991
52.9626 0.0018263 25.4015 0.000875914 3.14647 0.000108499
51.8797 0.00178895 24.3554 0.000839843 3.07831 0.000106149
50.7157 0.00174882 23.1814 0.00079936 3.03768 0.000104747
49.4686 0.00170581 21.9039 0.000755305 3.01714 0.000104039
48.1349 0.00165982 20.5497 0.00070861 3.00965 0.000103781
46.7093 0.00161067 19.1477 0.000660267 3.0091 0.000103762
45.1925 0.00155836 17.7264 0.000611255 3.00927 0.000103768
43.5872 0.00150301 16.3136 0.00056254 3.003 0.000103552
41.8974 0.00144474 14.9366 0.000515055 2.98254 0.000102846
40.131 0.00138383 13.6196 0.000469642 2.94085 0.000101409
38.2941 0.00132049 12.3849 0.000427065 2.87237 9.90473e-05
36.3918 0.00125489 11.2508 0.000387957 2.77295 9.56191e-05
34.4286 0.00118719 10.2319 0.000352824 2.63931 9.10107e-05
32.4064 0.00111746 9.33914 0.000322039 2.4689 8.51344e-05
30.3322 0.00104594 8.57781 0.000295786 2.26035 7.79431e-05
28.2184 0.000973049 7.94809 0.000274072 2.01399 6.94479e-05
26.0867 0.000899542 7.44425 0.000256698 1.73188 5.972e-05
23.9653 0.000826388 7.05532 0.000243287 1.41744 4.88773e-05
21.879 0.000754447 6.7675 0.000233362 1.07496 3.70676e-05
19.833 0.000683896 6.5659 0.00022641 0.709269 2.44576e-05
17.7106 0.000610711 6.4464 0.00022229 0.324956 1.12054e-05
15.6346 0.000539126 6.39234 0.000220425 -0.072174 -2.48876e-06
13.6925 0.000472155 6.34838 0.00021891 -0.430341 -1.48393e-05
11.8125 0.000407329 6.33588 0.000218479 -1.02889 -3.54789e-05
10.0552 0.000346731 6.29617 0.000217109 -1.55929 -5.37686e-05
8.41319 0.00029011 6.23158 0.000214882 -2.06452 -7.11903e-05
6.7742 0.000233593 6.14482 0.00021189 -2.55523 -8.81115e-05
5.12672 0.000176783 6.02409 0.000207727 -3.03129 -0.000104527
3.94303 0.000135966 5.81804 0.000200622 -3.4688 -0.000119614
2.70878 9.34059e-05 5.57708 0.000192313 -3.85297 -0.000132861
1.76505 6.08638e-05 5.32552 0.000183639 -4.18422 -0.000144283
0.869588 2.99856e-05 5.04049 0.00017381 -4.46575 -0.000153992
0.0898138 3.09684e-06 4.71311 0.000162521 -4.70704 -0.000162312
-0.564895 -1.94793e-05 4.35114 0.000150039 -4.9054 -0.000169152
-1.10587 -3.81336e-05 3.95813 0.000136487 -5.05068 -0.000174161
-1.44147 -4.97059e-05 3.53815 0.000122005 -5.13625 -0.000177112
-1.80234 -6.215e-05 3.09227 0.00010663 -5.16682 -0.000178166
-2.0869 -7.19624e-05 2.60892 8.99629e-05 -5.14522 -0.000177421
-2.34113 -8.07288e-05 2.09985 7.24086e-05 -5.06949 -0.00017481
-2.57147 -8.86716e-05 1.57096 5.41709e-05 -4.93562 -0.000170194
-2.78577 -9.60612e-05 1.01991 3.51694e-05 -4.7415 -0.0001635
-2.995 -0.000103276 0.446997 1.54137e-05 -4.49504 -0.000155001
-3.21569 -0.000110886 -0.148461 -5.11936e-06 -4.20549 -0.000145017
-3.432 -0.000118345 -0.91092 -3.1411e-05 -3.88216 -0.000133868
-3.61806 -0.000124761 -1.75378 -6.0475e-05 -3.53097 -0.000121758
-3.77922 -0.000130318 -2.62924 -9.06636e-05 -3.15604 -0.000108829
-3.93175 -0.000135578 -3.5341 -0.000121866 -2.7648 -9.53379e-05
-4.07869 -0.000140645 -4.46163 -0.000153849 -2.36818 -8.16614e-05
-4.21161 -0.000145228 -5.39832 -0.000186149 -1.97867 -6.82299e-05
-4.32729 -0.000149217 -6.33064 -0.000218298 -1.6066 -5.54001e-05
-4.43586 -0.000152961 -7.24722 -0.000249904 -1.26008 -4.3451e-05
-4.54972 -0.000156887 -8.13638 -0.000280565 -0.94701 -3.26555e-05
-4.67318 -0.000161144 -8.98688 -0.000309892 -0.676353 -2.33225e-05
-4.80559 -0.00016571 -9.78807 -0.00033752 -0.457231 -1.57666e-05
-4.94948 -0.000170672 -10.5307 -0.000363126 -0.333579 -1.15027e-05
-5.11191 -0.000176273 -11.2083 -0.000386494 -0.281549 -9.70859e-06
-5.28913 -0.000182384 -11.8126 -0.00040733 -0.265845 -9.16706e-06
-5.4994 -0.000189635 -12.34 -0.000425517 -0.286275 -9.87156e-06
-5.73696 -0.000197826 -12.7885 -0.000440982 -0.342827 -1.18216e-05
-5.99702 -0.000206794 -13.153 -0.000453552 -0.521141 -1.79704e-05
-6.27895 -0.000216516 -13.44 -0.00046345 -0.761548 -2.62603e-05
-6.58844 -0.000227188 -13.6537 -0.000470817 -1.0648 -3.67173e-05
-6.8523 -0.000236286 -13.8301 -0.000476899 -1.42578 -4.9165e-05
-7.19201 -0.000248001 -14.0069 -0.000482998 -1.83265 -6.31947e-05
-7.62707 -0.000263003 -14.1043 -0.000486356 -2.29305 -7.90708e-05
-8.00397 -0.000275999 -14.1733 -0.000488733 -2.79095 -9.62396e-05
-8.36226 -0.000288354 -14.1897 -0.000489301 -3.3239 -0.000114617
-8.7435 -0.0003015 -14.1844 -0.000489118 -3.88384 -0.000133925
-9.17521 -0.000316387 -14.1878 -0.000489233 -4.45755 -0.000153709
-9.64174 -0.000332474 -14.1965 -0.000489534 -4.99719 -0.000172317
-10.092 -0.000348002 -14.2018 -0.000489716 -5.47684 -0.000188856
-10.5139 -0.000362549 -14.2334 -0.000490808 -5.93689 -0.00020472
-10.9249 -0.000376722 -14.3153 -0.000493631 -6.38435 -0.00022015
-11.356 -0.000391586 -14.4591 -0.000498588 -6.80896 -0.000234792
-11.7835 -0.000406327 -14.6808 -0.000506233 -7.20535 -0.00024846
-11.9388 -0.000411682 -14.9847 -0.000516715 -7.56874 -0.000260991
-11.7746 -0.000406022 -15.3552 -0.00052949 -7.89691 -0.000272307
-11.4088 -0.000393406 -15.8245 -0.000545672 -8.18488 -0.000282237
-11.0038 -0.000379443 -16.4289 -0.000566513 -8.4251 -0.000290521
-10.6067 -0.000365748 -17.1846 -0.000592571 -8.61693 -0.000297136
-10.195 -0.000351554 -18.0925 -0.000623878 -8.76016 -0.000302075
-9.89383 -0.000341167 -19.1595 -0.000660671 -8.85584 -0.000305374
-9.55315 -0.00032942 -20.3786 -0.000702709 -8.90508 -0.000307072
-9.15308 -0.000315624 -21.7333 -0.000749423 -8.91443 -0.000307394
-8.67609 -0.000299176 -23.1964 -0.000799875 -8.88739 -0.000306462
-8.12502 -0.000280174 -24.7289 -0.00085272 -8.83285 -0.000304581
-7.53456 -0.000259813 -26.3003 -0.000906907 -8.75954 -0.000302053
-6.94398 -0.000239448 -27.8745 -0.000961189 -8.67965 -0.000299298
-6.37124 -0.000219698 -29.4125 -0.00101423 -8.60674 -0.000296784
-5.82237 -0.000200772 -30.876 -0.00106469 -8.55459 -0.000294986
-5.31287 -0.000183203 -32.2315 -0.00111143 -8.535 -0.00029431
-4.86742 -0.000167842 -33.4527 -0.00115354 -8.55704 -0.00029507
-4.50524 -0.000155354 -34.5167 -0.00119023 -8.62792 -0.000297514
-4.23259 -0.000145952 -35.404 -0.00122083 -8.75107 -0.000301761
-4.05029 -0.000139666 -36.0969 -0.00124472 -8.89829 -0.000306838
-3.96108 -0.00013659 -36.5853 -0.00126156 -9.08504 -0.000313277
-4.02107 -0.000138658 -36.8563 -0.00127091 -9.31787 -0.000321306
-4.09529 -0.000141217 -36.9271 -0.00127335 -9.59658 -0.000330917
-4.25317 -0.000146661 -36.7984 -0.00126891 -9.91888 -0.00034203
-4.52148 -0.000155913 -36.5094 -0.00125895 -10.2745 -0.000354293
-4.75909 -0.000164107 -36.0605 -0.00124347 -10.6565 -0.000367466
-4.8912 -0.000168663 -35.4421 -0.00122214 -11.0609 -0.000381409
-4.89095 -0.000168654 -34.6869 -0.0011961 -11.477 -0.000395758
-4.80512 -0.000165694 -33.8176 -0.00116612 -11.8955 -0.00041019
-4.64603 -0.000160208 -32.8699 -0.00113345 -12.3049 -0.000424307
-4.31555 -0.000148813 -31.8885 -0.0010996 -12.6917 -0.000437646
-3.92448 -0.000135328 -30.8855 -0.00106502 -13.0489 -0.00044996
-3.56848 -0.000123052 -29.9471 -0.00103266 -13.3573 -0.000460598
-3.46751 -0.00011957 -29.0863 -0.00100297 -13.6096 -0.000469296
-3.5629 -0.000122859 -28.3121 -0.000976278 -13.7985 -0.000475809
-3.653 -0.000125966 -27.615 -0.000952242 -13.921 -0.000480033
-3.62734 -0.000125081 -27.0009 -0.000931064 -13.9732 -0.000481835
-3.52873 -0.000121681 -26.4904 -0.000913461 -13.9389 -0.000480653
-3.406 -0.000117449 -26.1053 -0.000900183 -13.8039 -0.000475997
-3.24165 -0.000111781 -25.8493 -0.000891356 -13.5643 -0.000467734
-2.9746 -0.000102573 -25.7137 -0.000886679 -13.2243 -0.000456009
-2.59373 -8.94394e-05 -25.6917 -0.000885922 -12.7909 -0.000441066
-2.1301 -7.34523e-05 -25.7833 -0.000889078 -12.2716 -0.000423158
-1.61061 -5.55389e-05 -25.9784 -0.000895806 -11.6746 -0.000402571
-1.03091 -3.55491e-05 -26.2544 -0.000905325 -11.0107 -0.000379678
-0.382399 -1.31867e-05 -26.5792 -0.000916525 -10.2936 -0.000354951
0.320588 1.10542e-05 -26.9223 -0.000928354 -9.5391 -0.000328935
1.05129 3.62508e-05 -27.2566 -0.000939884 -8.76339 -0.000302186
1.78304 6.14835e-05 -27.5562 -0.000950215 -7.98186 -0.000275237
2.51489 8.67198e-05 -27.7908 -0.000958303 -7.20967 -0.000248609
3.24569 0.00011192 -27.9331 -0.000963212 -6.46094 -0.000222791
3.96021 0.000136559 -27.9589 -0.000964102 -5.74936 -0.000198254
4.6427 0.000160092 -27.8497 -0.000960334 -5.08732 -0.000175425
5.26811 0.000181659 -27.5855 -0.000951223 -4.4856 -0.000154676
5.81315 0.000200453 -27.1312 -0.000935559 -3.95552 -0.000136397
6.25968 0.00021585 -26.5302 -0.000914836 -3.4967 -0.000120576
6.59498 0.000227412 -25.7724 -0.000888704 -3.11139 -0.000107289
6.85083 0.000236235 -24.8605 -0.000857258 -2.80335 -9.66671e-05
7.06668 0.000243678 -23.7889 -0.000820306 -2.57052 -8.86388e-05
7.26013 0.000250349 -22.5506 -0.000777607 -2.41428 -8.32511e-05
7.41117 0.000255557 -21.1729 -0.0007301 -2.32643 -8.02216e-05
7.50009 0.000258623 -19.6778 -0.000678546 -2.29941 -7.92901e-05
7.62012 0.000262762 -18.1282 -0.000625109 -2.31921 -7.99728e-05
7.62954 0.000263087 -16.5257 -0.00056985 -2.37462 -8.18833e-05
7.65622 0.000264007 -14.8618 -0.000512475 -2.46418 -8.49716e-05
7.74535 0.00026708 -13.1841 -0.000454624 -2.56886 -8.85813e-05
7.84582 0.000270545 -11.5069 -0.000396788 -2.6823 -9.24932e-05
7.91491 0.000272927 -9.87854 -0.000340639 -2.78752 -9.61214e-05
7.96003 0.000274483 -8.31431 -0.0002867 -2.87379 -9.90961e-05
8.06297 0.000278033 -6.82432 -0.000235321 -2.93183 -0.000101098
8.23487 0.00028396 -5.42522 -0.000187077 -2.95286 -0.000101823
8.45392 0.000291514 -4.13509 -0.000142589 -2.92937 -0.000101013
8.70896 0.000300309 -2.96963 -0.000102401 -2.85447 -9.84299e-05
9.01276 0.000310784 -1.93367 -6.66784e-05 -2.72325 -9.39051e-05
9.39003 0.000323793 -1.03402 -3.56558e-05 -2.53221 -8.73177e-05
9.81489 0.000338444 -0.274265 -9.45741e-06 -2.27983 -7.86147e-05
10.3005 0.000355189 0.235776 8.13021e-06 -1.96808 -6.78649e-05
10.8401 0.000373798 0.5708 1.96828e-05 -1.5916 -5.48827e-05
11.2927 0.000389402 0.811494 2.79825e-05 -1.16846 -4.02918e-05
11.7895 0.000406535 0.967185 3.33512e-05 -0.697058 -2.40365e-05
12.4057 0.000427783 1.07117 3.69369e-05 -0.403025 -1.38974e-05
12.9295 0.000445843 1.12524 3.88013e-05 -0.178208 -6.14509e-06
13.4926 0.000465263 1.12375 3.87502e-05 0.0414214 1.42833e-06
13.9414 0.000480738 1.11022 3.82834e-05 0.268803 9.26908e-06
14.4966 0.000499881 1.08797 3.75163e-05 0.504508 1.73968e-05
15.0947 0.000520507 1.02547 3.53612e-05 0.745115 2.56936e-05
15.6393 0.000539286 0.957743 3.30256e-05 0.976206 3.36623e-05
16.1762 0.000557798 0.87395 3.01362e-05 1.1925 4.11207e-05
16.739 0.000577206 0.80461 2.77452e-05 1.39333 4.80457e-05
17.3418 0.000597991 0.76272 2.63007e-05 1.57976 5.44746e-05
17.9494 0.000618943 0.751595 2.59171e-05 1.75008 6.03477e-05
18.5307 0.000638987 0.781397 2.69447e-05 1.89763 6.54356e-05
19.0972 0.000658522 0.864705 2.98174e-05 2.01657 6.95371e-05
19.6668 0.000678164 1.017 3.50691e-05 2.10471 7.25762e-05
20.2328 0.000697681 1.24907 4.30714e-05 2.16302 7.45868e-05
20.7706 0.000716226 1.56697 5.40333e-05 2.19227 7.55956e-05
21.2643 0.000733251 1.97851 6.82244e-05 2.18986 7.55125e-05
21.7161 0.00074883 2.4918 8.59241e-05 2.14908 7.41061e-05
22.1292 0.000763077 3.11392 0.000107377 2.06701 7.12761e-05
22.4952 0.000775698 3.84772 0.00013268 1.94639 6.7117e-05
22.8003 0.000786218 4.68911 0.000161694 1.79321 6.18348e-05
24.2219 0.000835238 5.6869 0.0001961 1.60946 5.54987e-05
27.0254 0.000931909 7.39902 0.000255139 1.34759 4.64687e-05
30.3762 0.00104746 8.84488 0.000304996 1.09848 3.78788e-05
32.5663 0.00112297 10.4321 0.000359727 0.849744 2.93015e-05
34.703 0.00119665 11.9599 0.000412411 0.613336 2.11495e-05
37.4226 0.00129044 13.5378 0.000466819 0.390787 1.34754e-05
40.0269 0.00138024 15.0782 0.000519938 0.200716 6.92126e-06
42.1929 0.00145493 16.5237 0.000569782 0.0565507 1.95002e-06
44.3377 0.00152889 17.8864 0.000616772 -0.0428422 -1.47732e-06
46.6108 0.00160727 19.1506 0.000660364 -0.0896033 -3.08977e-06
48.7249 0.00168017 20.2846 0.000699469 -0.0727794 -2.50964e-06
50.6024 0.00174491 21.2714 0.000733496 0.0128491 4.43072e-07
52.4109 0.00180727 22.113 0.000762517 0.165984 5.72358e-06
54.1714 0.00186798 22.8043 0.000786355 0.386418 1.33247e-05
55.7764 0.00192332 23.337 0.000804723 0.675173 2.32818e-05
57.2227 0.0019732 23.7158 0.000817787 1.03037 3.553e-05
58.5785 0.00201995 23.9542 0.000826008 1.44687 4.98921e-05
59.849 0.00206376 24.0621 0.000829729 1.91514 6.60393e-05
61.0085 0.00210374 24.0369 0.000828857 2.346 8.08966e-05
62.0732 0.00214046 23.9049 0.000824306 2.77003 9.55183e-05
43.8898 0.00151344 20.2349 0.000697756 3.48012 0.000120004
56.416 0.00194538 20.0615 0.000691774 3.75623 0.000129525
58.4657 0.00201606 18.567 0.000640243 4.42512 0.00015259
51.4638 0.00177461 18.3105 0.000631395 4.89411 0.000168762
53.3666 0.00184023 18.6403 0.00064277 5.33086 0.000183823
58.273 0.00200941 18.701 0.000644862 5.6035 0.000193224
58.6852 0.00202363 18.4425 0.000635948 5.86423 0.000202215
57.5871 0.00198576 18.4183 0.000635115 6.15392 0.000212204
59.111 0.00203831 18.8645 0.0006505 6.42118 0.00022142
61.4568 0.0021192 19.453 0.000670793 6.60625 0.000227802
62.2998 0.00214827 19.9445 0.000687741 6.69463 0.000230849
61.9731 0.002137 14.4601 0.000498623 5.98012 0.000206211
66.1165 0.00227988 17.6646 0.000609125 5.98546 0.000206395
67.7893 0.00233756 19.2774 0.000664737 5.79198 0.000199723
67.4908 0.00232727 19.4889 0.000672031 5.50105 0.000189691
69.2535 0.00238805 19.0061 0.000655382 5.08993 0.000175515
71.7764 0.00247505 20.0648 0.000691889 4.78055 0.000164846
73.3716 0.00253006 22.3261 0.000769864 4.57391 0.000157721
72.8372 0.00251163 24.2145 0.000834982 4.22473 0.00014568
72.6238 0.00250427 24.871 0.000857621 3.75516 0.000129488
72.7624 0.00250905 25.5127 0.000879749 3.28269 0.000113196
72.6196 0.00250412 26.8224 0.000924909 2.9813 0.000102803
72.2601 0.00249173 27.7056 0.000955364 2.83987 9.79267e-05
71.9991 0.00248273 28.153 0.000970792 2.6531 9.14861e-05
71.9057 0.00247951 28.2431 0.000973899 2.41042 8.31181e-05
71.7512 0.00247418 28.2636 0.000974606 2.28044 7.8636e-05
71.5064 0.00246574 28.8021 0.000993177 2.25366 7.77125e-05
71.3427 0.00246009 29.5013 0.00101729 2.28029 7.86306e-05
71.2644 0.00245739 29.9888 0.0010341 2.32064 8.0022e-05
71.1648 0.00245396 30.2703 0.0010438 2.39848 8.27062e-05
71.0455 0.00244984 30.4431 0.00104976 2.56509 8.84513e-05
70.9875 0.00244784 30.5657 0.00105399 2.78979 9.61997e-05
70.9848 0.00244775 30.7186 0.00105926 2.99778 0.000103372
70.9736 0.00244737 30.7987 0.00106203 3.253 0.000112172
70.979 0.00244755 30.7559 0.00106055 3.60629 0.000124355
71.0483 0.00244994 30.6557 0.00105709 4.05863 0.000139953
71.1294 0.00245274 30.5872 0.00105473 4.61551 0.000159155
71.22 0.00245586 30.5388 0.00105306 5.20331 0.000179425
71.3508 0.00246037 30.432 0.00104938 5.76019 0.000198627
71.5099 0.00246586 30.2544 0.00104325 6.21128 0.000214182
71.6742 0.00247152 30.0623 0.00103663 6.32773 0.000218198
71.8509 0.00247762 29.8418 0.00102903 6.43697 0.000221965
72.0201 0.00248345 29.6961 0.001024 6.59367 0.000227368
72.1981 0.00248959 29.4526 0.00101561 6.67634 0.000230219
72.3105 0.00249347 29.2088 0.0010072 6.65823 0.000229594
72.3829 0.00249596 28.949 0.00099824 6.65016 0.000229316
72.4096 0.00249688 28.6876 0.000989228 6.72628 0.000231941
72.3723 0.0024956 28.4707 0.000981748 6.86123 0.000236594
72.2627 0.00249182 28.3045 0.000976016 6.97088 0.000240375
72.1023 0.00248629 28.1974 0.000972324 7.01213 0.000241798
71.8982 0.00247925 28.1578 0.000970958 7.01553 0.000241915
71.6497 0.00247068 28.2 0.000972414 7.03915 0.000242729
71.3564 0.00246057 28.3205 0.000976568 7.10098 0.000244861
71.0152 0.0024488 28.3459 0.000977445 7.17107 0.000247278
70.5339 0.0024322 28.3347 0.00097706 7.2171 0.000248866
70.0066 0.00241402 28.353 0.000977691 7.22428 0.000249113
69.4949 0.00239637 28.414 0.000979792 7.21378 0.000248751
68.9539 0.00237772 28.4329 0.000980445 7.20684 0.000248512
68.4217 0.00235937 28.5211 0.000983485 7.22206 0.000249037
67.848 0.00233959 28.6544 0.000988082 7.23549 0.0002495
67.1971 0.00231714 28.7773 0.000992319 7.21661 0.000248849
66.5413 0.00229453 28.8849 0.000996029 7.13821 0.000246145
65.8834 0.00227184 29.0111 0.00100038 7.02206 0.00024214
65.168 0.00224717 29.1708 0.00100589 6.87755 0.000237157
64.4032 0.0022208 29.3447 0.00101189 6.70561 0.000231228
63.4348 0.0021874 29.5428 0.00101872 6.45728 0.000222665
62.4814 0.00215453 29.7076 0.0010244 6.19595 0.000213654
61.5195 0.00212136 29.8505 0.00102933 5.93471 0.000204645
60.5475 0.00208784 29.981 0.00103383 5.69619 0.00019642
59.5619 0.00205386 30.0847 0.0010374 5.48416 0.000189109
58.5283 0.00201822 30.0493 0.00103618 5.30036 0.000182771
57.3747 0.00197844 29.7927 0.00102734 5.13082 0.000176925
56.1209 0.0019352 29.3179 0.00101096 4.9862 0.000171938
54.7546 0.00188809 28.7071 0.0009899 4.8722 0.000168007
53.2369 0.00183575 27.9671 0.000964383 4.80925 0.000165836
51.6004 0.00177932 26.997 0.00093093 4.76092 0.00016417
49.8389 0.00171858 25.9104 0.000893461 4.73637 0.000163323
47.907 0.00165196 24.7528 0.000853546 4.7232 0.000162869
45.8034 0.00157943 23.4755 0.0008095 4.70377 0.000162199
43.5482 0.00150166 22.0727 0.000761127 4.66595 0.000160895
41.1665 0.00141953 20.6262 0.00071125 4.60971 0.000158956
38.6771 0.00133369 19.1631 0.000660796 4.52073 0.000155887
36.1125 0.00124526 17.6585 0.000608912 4.38141 0.000151083
33.5069 0.00115541 16.1267 0.000556093 4.18639 0.000144358
30.8897 0.00106516 14.6117 0.000503852 3.93458 0.000135675
28.2943 0.000975665 13.1279 0.000452686 3.61777 0.000124751
25.7529 0.000888031 11.6677 0.000402335 3.22724 0.000111284
23.2783 0.000802699 10.2419 0.000353168 2.76271 9.52659e-05
20.8688 0.000719615 8.87459 0.00030602 2.22732 7.68043e-05
18.421 0.000635206 7.58274 0.000261474 1.62046 5.58781e-05
15.7015 0.000541431 6.39312 0.000220452 0.938484 3.23615e-05
13.2289 0.000456168 5.38202 0.000185587 0.1849 6.37585e-06
10.7123 0.000369389 4.42109 0.000152451 -0.644925 -2.22388e-05
8.21934 0.000283425 3.59051 0.000123811 -1.36199 -4.69651e-05
5.97202 0.000205931 2.77772 9.57834e-05 -2.09687 -7.2306e-05
3.9108 0.000134855 2.01967 6.96438e-05 -2.68635 -9.26327e-05
2.27011 7.82791e-05 1.3092 4.51449e-05 -3.24677 -0.000111958
1.19903 4.13452e-05 0.665066 2.29333e-05 -3.91421 -0.000134973
0.365679 1.2609e-05 0.127697 4.40335e-06 -4.63923 -0.000159973
-0.359623 -1.24014e-05 -0.457583 -1.57787e-05 -5.27171 -0.000181783
-0.913578 -3.15033e-05 -1.03088 -3.55476e-05 -5.81398 -0.000200482
-1.44783 -4.99259e-05 -1.60623 -5.53872e-05 -6.36256 -0.000219399
-1.96205 -6.76574e-05 -2.2044 -7.60139e-05 -6.93036 -0.000238978
-2.37678 -8.19584e-05 -2.80116 -9.65917e-05 -7.45261 -0.000256986
-2.73359 -9.42625e-05 -3.40479 -0.000117406 -7.88447 -0.000271878
-3.05613 -0.000105384 -4.02607 -0.00013883 -8.25837 -0.000284771
-3.32509 -0.000114659 -4.67869 -0.000161334 -8.60516 -0.00029673
-3.57226 -0.000123182 -5.36653 -0.000185053 -8.90502 -0.000307069
-3.77466 -0.000130161 -6.09676 -0.000210233 -9.1259 -0.000314686
-3.93148 -0.000135569 -6.87356 -0.000237019 -9.27027 -0.000319665
-4.04251 -0.000139397 -7.68593 -0.000265032 -9.36368 -0.000322885
-4.07733 -0.000140598 -8.52316 -0.000293902 -9.41401 -0.000324621
-4.09063 -0.000141057 -9.36528 -0.000322941 -9.41176 -0.000324543
-4.10346 -0.000141499 -10.1998 -0.000351717 -9.33666 -0.000321954
-4.12119 -0.000142111 -11.0068 -0.000379543 -9.16703 -0.000316104
-4.15141 -0.000143153 -11.7738 -0.000405994 -8.91838 -0.00030753
-4.207 -0.00014507 -12.4915 -0.000430741 -8.6111 -0.000296934
-4.29386 -0.000148065 -13.1889 -0.000454789 -8.2605 -0.000284845
-4.88486 -0.000168444 -13.8792 -0.000478594 -7.84884 -0.00027065
-4.63853 -0.00015995 -14.5439 -0.000501513 -7.44183 -0.000256615
-4.46438 -0.000153945 -15.101 -0.000520726 -7.03808 -0.000242692
-4.94289 -0.000170445 -15.6945 -0.00054119 -6.58935 -0.000227219
-5.36872 -0.000185129 -16.3496 -0.000563778 -6.18071 -0.000213128
-5.29202 -0.000182484 -17.0166 -0.00058678 -5.8793 -0.000202734
-5.059 -0.000174449 -17.4579 -0.000601995 -5.59197 -0.000192827
-5.2431 -0.000180797 -18.0119 -0.000621099 -5.35124 -0.000184525
-5.53206 -0.000190761 -18.6449 -0.000642927 -5.16999 -0.000178276
-5.5232 -0.000190456 -19.1201 -0.000659313 -5.04238 -0.000173875
-5.48518 -0.000189145 -19.4849 -0.000671894 -4.97518 -0.000171558
-5.66014 -0.000195178 -19.8877 -0.000685781 -4.98352 -0.000171846
-5.8463 -0.000201597 -20.2833 -0.000699423 -5.06681 -0.000174718
-5.89639 -0.000203325 -20.5788 -0.000709613 -5.21697 -0.000179896
-5.96247 -0.000205603 -20.8123 -0.000717667 -5.43611 -0.000187452
-6.12718 -0.000211283 -21.0417 -0.000725575 -5.72819 -0.000197524
-6.27981 -0.000216546 -21.2339 -0.000732202 -6.08703 -0.000209898
-6.4074 -0.000220945 -21.3401 -0.000735865 -6.50496 -0.000224309
-6.54845 -0.000225809 -21.3811 -0.000737279 -6.97578 -0.000240544
-6.73892 -0.000232377 -21.3772 -0.000737143 -7.4953 -0.000258458
-6.96115 -0.00024004 -21.3189 -0.000735135 -8.0491 -0.000277555
-7.18466 -0.000247748 -21.1882 -0.000730629 -8.62194 -0.000297308
-7.31334 -0.000252185 -21.0419 -0.000725582 -8.96623 -0.00030918
-7.5503 -0.000260356 -20.8108 -0.000717615 -9.23705 -0.000318519
-7.73682 -0.000266788 -20.6012 -0.000710386 -9.47689 -0.000326789
-7.9577 -0.000274404 -20.389 -0.000703069 -9.64582 -0.000332614
-8.17523 -0.000281905 -20.2346 -0.000697746 -9.80531 -0.000338114
-8.4004 -0.00028967 -20.1255 -0.000693982 -9.98021 -0.000344145
-8.61253 -0.000296984 -20.0997 -0.000693093 -10.1367 -0.000349541
-8.80481 -0.000303615 -20.165 -0.000695344 -10.2383 -0.000353045
-8.85621 -0.000305387 -20.2981 -0.000699935 -10.2997 -0.000355163
-8.7533 -0.000301839 -20.5136 -0.000707367 -10.3476 -0.000356813
-8.63903 -0.000297898 -20.7624 -0.000715944 -10.3736 -0.000357711
-8.52969 -0.000294128 -21.1127 -0.000728025 -10.3258 -0.000356061
-8.29912 -0.000286177 -21.5193 -0.000742043 -10.2049 -0.000351892
-7.93367 -0.000273575 -21.9827 -0.000758023 -10.0185 -0.000345467
-7.55583 -0.000260547 -22.4904 -0.000775529 -9.79016 -0.000337592
-7.06181 -0.000243511 -23.0239 -0.000793928 -9.52643 -0.000328498
-6.33118 -0.000218317 -23.5226 -0.000811123 -9.24552 -0.000318811
-5.37578 -0.000185372 -23.9671 -0.000826453 -8.96088 -0.000308996
-4.20111 -0.000144866 -24.2397 -0.00083585 -8.71761 -0.000300607
-2.87771 -9.9232e-05 -24.4152 -0.000841904 -8.50218 -0.000293179
-1.56048 -5.38104e-05 -24.4956 -0.000844677 -8.31769 -0.000286817
-0.76909 -2.6521e-05 -24.4939 -0.000844618 -8.15767 -0.000281299
-0.367847 -1.2685e-05 -24.3139 -0.00083841 -8.03805 -0.000277174
0.0857695 2.95688e-06 -23.8559 -0.000822617 -7.98103 -0.000275208
0.498547 1.71906e-05 -23.1395 -0.000797914 -7.97891 -0.000275135
0.693257 2.39047e-05 -22.1916 -0.000765229 -8.01864 -0.000276505
0.753075 2.59674e-05 -21.0165 -0.000724708 -8.09073 -0.000278991
0.825609 2.84686e-05 -19.6394 -0.00067722 -8.18703 -0.000282311
0.837391 2.88749e-05 -18.2081 -0.000627866 -8.27563 -0.000285366
0.630716 2.17481e-05 -16.6674 -0.000574736 -8.35082 -0.000287959
0.33808 1.16573e-05 -15.0873 -0.000520253 -8.38602 -0.000289173
0.0296921 1.02318e-06 -13.4998 -0.00046551 -8.37238 -0.000288703
-0.342278 -1.18034e-05 -12.0095 -0.000414121 -8.28483 -0.000285684
-0.694354 -2.39439e-05 -10.6714 -0.00036798 -8.1156 -0.000279848
-0.916498 -3.16041e-05 -9.4928 -0.000327338 -7.85553 -0.00027088
-1.04286 -3.59614e-05 -8.50115 -0.000293143 -7.48164 -0.000257988
-1.1555 -3.98453e-05 -7.7737 -0.000268059 -6.99199 -0.000241103
-1.19645 -4.12575e-05 -7.30777 -0.000251992 -6.38997 -0.000220344
-1.14034 -3.93226e-05 -7.05302 -0.000243208 -5.67993 -0.00019586
-1.10276 -3.8027e-05 -7.06459 -0.000243606 -4.86864 -0.000167884
-1.14859 -3.96071e-05 -7.33452 -0.000252914 -3.98088 -0.000137272
-1.17904 -4.06572e-05 -7.82179 -0.000269717 -3.03819 -0.000104765
-1.19856 -4.13305e-05 -8.47127 -0.000292113 -2.06824 -7.13186e-05
-1.21152 -4.17772e-05 -9.26596 -0.000319516 -1.10395 -3.80673e-05
-1.21519 -4.19038e-05 -10.1683 -0.000350631 -0.372761 -1.28538e-05
-1.20424 -4.1526e-05 -11.1826 -0.000385606 -0.164321 -5.66622e-06
-0.984956 -3.39647e-05 -12.1026 -0.000417332 0.00247115 8.5212e-08
-0.577407 -1.99113e-05 -12.9384 -0.000446153 0.168591 5.81348e-06
-0.286304 -9.87323e-06 -13.6538 -0.000470822 0.324216 1.11799e-05
0.0146782 5.05458e-07 -14.1809 -0.000488996 0.414497 1.4293e-05
0.19123 6.59345e-06 -14.4927 -0.000499749 0.432635 1.49184e-05
0.217332 7.49353e-06 -14.6053 -0.000503631 0.387648 1.33672e-05
0.155265 5.35329e-06 -14.5038 -0.000500131 0.268102 9.24489e-06
-0.00397945 -1.37908e-07 -14.165 -0.000488449 0.0500483 1.7258e-06
-0.37348 -1.28793e-05 -13.6358 -0.000470198 -0.26489 -9.13414e-06
-0.718693 -2.47832e-05 -12.9768 -0.000447476 -0.590765 -2.03712e-05
-1.21067 -4.17481e-05 -12.2506 -0.000422436 -1.10294 -3.80324e-05
-1.7342 -5.98006e-05 -11.4921 -0.000396279 -1.61219 -5.55927e-05
-2.18848 -7.54654e-05 -10.736 -0.000370206 -2.17099 -7.48616e-05
-2.6013 -8.97008e-05 -10.0573 -0.000346804 -2.7969 -9.6445e-05
-3.00936 -0.000103772 -9.51439 -0.000328082 -3.42423 -0.000118077
-3.36202 -0.000115933 -9.13536 -0.000315013 -4.00476 -0.000138095
-3.61916 -0.000124799 -8.94741 -0.000308531 -4.54792 -0.000156825
-3.80307 -0.000131141 -8.96513 -0.000309142 -5.06951 -0.000174811
-3.96885 -0.000136858 -9.20407 -0.000317382 -5.55146 -0.00019143
-4.17833 -0.000144081 -9.69376 -0.000334267 -5.9632 -0.000205628
-4.42878 -0.000152717 -10.4588 -0.000360647 -6.30332 -0.000217356
-4.59369 -0.000158404 -11.4643 -0.00039532 -6.59396 -0.000227378
-4.21673 -0.000145405 -12.6016 -0.000434539 -6.84062 -0.000235884
-3.7371 -0.000128866 -13.9246 -0.00048016 -7.0335 -0.000242534
-3.39037 -0.00011691 -15.4279 -0.000531995 -7.17162 -0.000247297
-2.95529 -0.000101907 -17.0084 -0.000586496 -7.27069 -0.000250713
-2.36404 -8.15192e-05 -18.5825 -0.000640776 -7.34775 -0.000253371
-1.64175 -5.66126e-05 -30.7309 -0.00105969 -7.28035 -0.000251046
1.73096 5.96877e-05 -23.8014 -0.000820738 -4.50367 -0.000155299
-0.599504 -2.06733e-05 -7.75379 -0.000267372 -4.28276 -0.000147681
1.43815 4.95907e-05 -13.675 -0.000471551 -4.39208 -0.000151451
1.50743 5.19795e-05 -15.399 -0.000530999 -5.35663 -0.000184712
2.36726 8.1629e-05 -18.0741 -0.000623243 -5.11878 -0.00017651
1.92046 6.62221e-05 -17.003 -0.000586309 -5.17276 -0.000178371
2.0108 6.93374e-05 -16.568 -0.00057131 -5.88443 -0.000202911
2.15577 7.43362e-05 -18.2713 -0.000630044 -6.71887 -0.000231685
2.14832 7.40792e-05 -19.1428 -0.000660097 -7.0874 -0.000244393
1.71855 5.92597e-05 -18.7128 -0.00064527 -7.3589 -0.000253755
1.22506 4.22429e-05 -17.295 -0.000596379 -8.03576 -0.000277095
0.96515 3.32803e-05 -17.1405 -0.00059105 -8.74173 -0.000301439
0.524681 1.80918e-05 -16.6345 -0.000573605 -9.14561 -0.000315366
0.106459 3.67032e-06 -15.7126 -0.000541814 -9.42829 -0.000325114
-0.350552 -1.20887e-05 -14.6403 -0.000504838 -9.9739 -0.000343928
-0.785673 -2.70929e-05 -14.0332 -0.000483905 -10.599 -0.000365481
-1.13956 -3.92957e-05 -13.4319 -0.000463168 -10.9885 -0.000378915
-1.51622 -5.22841e-05 -12.7878 -0.00044096 -11.1867 -0.000385747
-1.97215 -6.80057e-05 -12.3625 -0.000426293 -11.4441 -0.000394624
-2.32715 -8.02472e-05 -12.3197 -0.000424816 -11.7526 -0.000405262
-2.54734 -8.78401e-05 -12.4905 -0.000430706 -11.9106 -0.000410711
-2.68875 -9.27161e-05 -12.8417 -0.000442817 -11.8806 -0.000409675
-2.84098 -9.79656e-05 -13.4805 -0.000464845 -11.7772 -0.00040611
-2.95695 -0.000101964 -14.4626 -0.00049871 -11.6305 -0.00040105
-2.99874 -0.000103406 -15.5095 -0.00053481 -11.35 -0.000391379
-2.8958 -9.98559e-05 -16.0714 -0.000554187 -10.8601 -0.000374486
-2.80279 -9.66488e-05 -16.2585 -0.000560637 -10.2181 -0.000352349
-2.76618 -9.53862e-05 -16.399 -0.000565481 -9.55479 -0.000329476
-2.61948 -9.03276e-05 -16.9243 -0.000583598 -8.8775 -0.000306121
-2.44314 -8.4247e-05 -17.6692 -0.000609283 -8.1658 -0.000281579
-2.28984 -7.89607e-05 -18.3102 -0.000631386 -7.42038 -0.000255875
-2.14157 -7.3848e-05 -18.6669 -0.000643685 -6.69612 -0.000230901
-1.95313 -6.73502e-05 -18.8885 -0.000651327 -6.03812 -0.000208211
-1.74488 -6.0169e-05 -19.2734 -0.0006646 -5.45543 -0.000188118
-1.56907 -5.41067e-05 -19.9095 -0.000686536 -4.96967 -0.000171368
-1.40755 -4.85369e-05 -20.5196 -0.000707574 -4.60479 -0.000158786
-1.26311 -4.35564e-05 -20.8876 -0.000720262 -4.36909 -0.000150658
-1.16628 -4.02174e-05 -20.9843 -0.000723597 -4.26554 -0.000147088
-1.09512 -3.77635e-05 -20.9089 -0.000720996 -4.29906 -0.000148243
-0.892785 -3.07864e-05 -20.7844 -0.000716704 -4.48781 -0.000154752
-0.45052 -1.55359e-05 -20.405 -0.000703622 -4.83603 -0.00016676
0.233789 8.06102e-06 -19.715 -0.000679827 -5.30381 -0.00018289
0.975325 3.36312e-05 -18.7341 -0.000646002 -5.8727 -0.000202507
1.08113 3.72796e-05 -17.7856 -0.000613295 -6.50902 -0.000224449
1.01251 3.49133e-05 -16.6619 -0.000574548 -7.21757 -0.000248882
1.1942 4.11787e-05 -15.3209 -0.000528306 -7.97791 -0.0002751
1.38888 4.78918e-05 -13.8058 -0.000476062 -8.76677 -0.000302302
1.41178 4.86815e-05 -12.3607 -0.000426231 -9.56449 -0.00032981
1.43083 4.93384e-05 -10.9485 -0.000377534 -10.3484 -0.000356841
1.4109 4.8651e-05 -9.5264 -0.000328496 -11.0796 -0.000382054
1.36353 4.70176e-05 -8.15901 -0.000281345 -11.717 -0.000404033
1.28295 4.4239e-05 -6.92243 -0.000238704 -12.1062 -0.000417455
1.17603 4.05522e-05 -4.77287 -0.000164582 -53.629 -0.00184928
1.23543 4.26003e-05 -3.46567 -0.000119506 -43.6678 -0.00150579
1.65818 5.7178e-05 -3.62079 -0.000124855 -42.9147 -0.00147982
1.57267 5.42294e-05 -2.9229 -0.00010079 -44.7719 -0.00154386
2.07254 7.14663e-05 -3.08022 -0.000106214 -45.5336 -0.00157013
2.56722 8.85241e-05 -3.41387 -0.00011772 -43.8684 -0.0015127
3.12914 0.000107901 -4.25507 -0.000146727 -41.8323 -0.00144249
3.6745 0.000126706 -4.89106 -0.000168657 -40.6082 -0.00140028
4.33413 0.000149452 -5.5581 -0.000191659 -39.2613 -0.00135384
5.00846 0.000172705 -6.32798 -0.000218206 -36.7027 -0.00126561
5.5288 0.000190648 -7.05419 -0.000243248 -33.6637 -0.00116082
6.21134 0.000214183 -7.52977 -0.000259647 -31.1325 -0.00107354
6.79341 0.000234255 -7.74904 -0.000267208 -28.9764 -0.000999189
7.26056 0.000250363 -7.73028 -0.000266561 -26.6298 -0.00091827
7.76665 0.000267815 -7.59351 -0.000261845 -24.0091 -0.000827903
8.28321 0.000285627 -7.13204 -0.000245932 -21.7979 -0.000751652
8.76432 0.000302217 -6.47401 -0.000223242 -20.055 -0.000691552
9.18836 0.000316839 -5.69882 -0.000196511 -18.4706 -0.000636921
9.61571 0.000331576 -4.76626 -0.000164354 -17.0734 -0.000588741
9.991 0.000344517 -3.92942 -0.000135497 -16.0599 -0.000553792
10.32 0.000355862 -2.96655 -0.000102295 -15.5178 -0.0005351
10.6446 0.000367056 -1.9129 -6.5962e-05 -15.3057 -0.000527785
10.854 0.000374275 -0.726007 -2.50347e-05 -15.3701 -0.000530005
10.9675 0.000378191 0.473787 1.63375e-05 -15.5783 -0.000537184
11.008 0.000379585 1.7666 6.09174e-05 -15.9885 -0.000551329
11.0142 0.0003798 3.1323 0.00010801 -16.4598 -0.00056758
10.9619 0.000377996 4.43817 0.00015304 -16.7252 -0.000576734
10.945 0.000377412 5.80196 0.000200067 -16.6019 -0.00057248
10.8053 0.000372595 7.25362 0.000250125 -16.3573 -0.000564048
10.6171 0.000366106 8.46099 0.000291758 -15.8163 -0.00054539
10.5189 0.000362721 9.52778 0.000328544 -14.8296 -0.000511366
10.6047 0.000365678 10.5122 0.000362489 -13.2436 -0.000456677
10.762 0.000371103 11.3914 0.000392806 -11.1058 -0.000382961
10.9092 0.000376178 12.2874 0.000423704 -8.49846 -0.000293052
11.0283 0.000380284 13.0293 0.000449287 -5.3286 -0.000183747
11.1112 0.000383145 13.6137 0.000469438 -2.24171 -7.7302e-05
11.218 0.000386825 14.0534 0.000484599 -0.0770778 -2.65969e-06
11.2636 0.0003884 14.4997 0.000499991 2.39437 8.25628e-05
11.2743 0.000388768 15.0007 0.000517266 4.74512 0.000163623
11.2733 0.000388733 15.394 0.000530826 7.26125 0.000250386
11.0357 0.00038054 15.6222 0.000538697 9.95352 0.000343223
10.5366 0.00036333 15.6867 0.00054092 12.6532 0.000436314
9.81515 0.000338453 15.7868 0.000544372 15.4642 0.000533248
8.92435 0.000307735 15.909 0.000548586 12.0809 0.000416582
7.88653 0.000271949 15.9181 0.000548899 8.07182 0.000278337
6.70838 0.000231323 15.7017 0.000541438 4.55452 0.000157051
5.45084 0.000187959 15.3805 0.000530362 0.532969 1.83764e-05
4.20307 0.000144933 15.2174 0.000524739 -3.96635 -0.000136772
2.76347 9.52916e-05 14.9506 0.000515537 -8.28092 -0.000285551
1.52948 5.274e-05 14.6331 0.00050459 -11.9971 -0.000413696
0.522157 1.80047e-05 14.6009 0.000503478 -15.2101 -0.000524487
-0.0468394 -1.61584e-06 14.467 0.000498862 -18.8324 -0.000649394
-0.444345 -1.53229e-05 14.8474 0.000511979 -22.2306 -0.000766576
-0.618289 -2.1321e-05 14.9411 0.000515212 -25.2987 -0.00087237
-0.819105 -2.82457e-05 14.8107 0.000510713 -27.7409 -0.000956583
-0.949372 -3.27377e-05 14.7761 0.000509522 -29.5736 -0.00101978
-1.05183 -3.62706e-05 14.7841 0.000509795 -31.0893 -0.00107205
-1.14626 -3.95271e-05 14.6468 0.000505062 -32.4348 -0.00111844
-1.24373 -4.2888e-05 14.3799 0.000495857 -33.2412 -0.00114625
-1.38218 -4.76622e-05 14.0632 0.000484936 -33.3572 -0.00115025
-1.51966 -5.24026e-05 13.6851 0.000471901 -33.1194 -0.00114205
-1.63392 -5.63428e-05 13.1778 0.000454406 -32.6097 -0.00112447
-1.75431 -6.04942e-05 12.5549 0.000432929 -31.7994 -0.00109653
-1.91532 -6.6046e-05 11.7984 0.000406841 -30.6235 -0.00105599
-2.09993 -7.24119e-05 10.8066 0.00037264 -29.0902 -0.00100311
-2.27576 -7.84751e-05 9.55147 0.000329361 -27.2892 -0.000941009
-2.45199 -8.45521e-05 8.16263 0.00028147 -25.2495 -0.000870674
-2.63093 -9.07224e-05 6.58581 0.000227097 -22.9864 -0.000792636
-2.81374 -9.70264e-05 4.82783 0.000166477 -19.9597 -0.000688269
-2.97368 -0.000102541 2.88208 9.93821e-05 -13.7027 -0.000472508
-3.06852 -0.000105812 0.975073 3.36232e-05 -3.64904 -0.000125831
-3.11182 -0.000107305 -0.150281 -5.18212e-06 -2.54814 -8.78686e-05
-3.10532 -0.000107081 -0.531529 -1.83286e-05 -5.87448 -0.00020257
-2.96259 -0.000102159 -0.859406 -2.96347e-05 -8.87938 -0.000306187
-2.78154 -9.59159e-05 -1.39492 -4.81006e-05 -11.9981 -0.000413728
-2.43841 -8.40839e-05 -2.02649 -6.98789e-05 -15.2963 -0.000527461
-1.85569 -6.399e-05 -2.58903 -8.92771e-05 -18.548 -0.000639589
-1.08525 -3.74233e-05 -3.09696 -0.000106792 -21.6278 -0.000745788
-0.380778 -1.31309e-05 -3.74447 -0.00012912 -24.5743 -0.00084739
0.195818 6.75166e-06 -4.55116 -0.000156937 -27.5478 -0.000949925
0.774021 2.66897e-05 -5.71835 -0.000197184 -30.698 -0.00105855
1.72761 5.95722e-05 -6.82919 -0.000235489 -34.125 -0.00117673
2.70656 9.33291e-05 -7.44232 -0.000256632 -37.2899 -0.00128586
3.41627 0.000117802 -7.98298 -0.000275275 -40.4021 -0.00139318
3.9698 0.000136889 -8.70545 -0.000300188 -43.7625 -0.00150905
4.68693 0.000161618 -9.52814 -0.000328557 -47.2599 -0.00162965
5.29353 0.000182535 -10.0755 -0.000347431 -49.7893 -0.00171687
5.64183 0.000194545 -10.1595 -0.000350326 -50.9491 -0.00175687
5.90064 0.00020347 -9.99689 -0.00034472 -51.5034 -0.00177598
6.11542 0.000210876 -9.80155 -0.000337985 -52.337 -0.00180472
6.13168 0.000211437 -9.71993 -0.00033517 -51.5185 -0.0017765
5.93356 0.000204605 -8.71664 -0.000300574 -45.2321 -0.00155973
5.61899 0.000193758 -7.84586 -0.000270547 -38.164 -0.001316
5.28856 0.000182363 -6.63543 -0.000228808 -34.0079 -0.00117269
4.84679 0.00016713 -5.64963 -0.000194815 -35.7362 -0.00123229
4.37484 0.000150856 -4.34504 -0.000149829 -39.5472 -0.0013637
3.85419 0.000132902 -2.90361 -0.000100125 -40.3951 -0.00139294
3.37252 0.000116293 -1.50553 -5.19147e-05 -36.7618 -0.00126765
2.98739 0.000103013 -0.0736415 -2.53937e-06 -32.4505 -0.00111899
2.61423 9.0145e-05 0.841618 2.90213e-05 -31.2929 -0.00107907
2.16779 7.47507e-05 1.69178 5.83373e-05 -30.8857 -0.00106503
1.57132 5.41827e-05 2.50134 8.62529e-05 -29.1255 -0.00100433
0.875933 3.02039e-05 2.82106 9.7278e-05 -25.114 -0.000866002
0.200205 6.90295e-06 2.84111 9.79694e-05 -19.5462 -0.000674009
-0.477917 -1.64806e-05 2.67966 9.2402e-05 -12.9207 -0.000445543
-0.92448 -3.18793e-05 2.33712 8.05903e-05 -6.94814 -0.000239593
-0.641772 -2.21308e-05 1.83808 6.33822e-05 -3.86853 -0.0001334
-0.206836 -7.13298e-06 1.14946 3.96366e-05 -0.845584 -2.916e-05
0.0277869 9.57484e-07 0.300612 1.03659e-05 1.53832 5.30435e-05
0.244716 8.43781e-06 -0.382045 -1.3174e-05 4.11156 0.000141776
0.708389 2.44265e-05 -0.592302 -2.04242e-05 6.62946 0.0002286
1.00353 3.46037e-05 -0.988239 -3.40772e-05 9.15489 0.000315684
1.16362 4.01242e-05 -1.50025 -5.17327e-05 11.6866 0.000402983
1.28932 4.44585e-05 -1.76582 -6.08905e-05 14.1384 0.00048753
1.45808 5.0278e-05 -1.84635 -6.36673e-05 16.481 0.000568307
1.48102 5.10691e-05 -1.89232 -6.52523e-05 18.5255 0.000638808
1.33711 4.61064e-05 -1.78659 -6.16064e-05 20.1433 0.000694596
1.13077 3.89914e-05 -1.48076 -5.10607e-05 21.5277 0.000742333
0.897908 3.09617e-05 -0.944724 -3.25767e-05 22.7929 0.000785961
0.564451 1.94631e-05 -0.297418 -1.02558e-05 23.9924 0.000827321
0.122907 4.2375e-06 0.452618 1.56075e-05 25.033 0.000863206
-0.358397 -1.23592e-05 1.36865 4.71948e-05 25.8136 0.000890123
-0.745077 -2.5693e-05 2.37236 8.18055e-05 26.344 0.000908412
-0.950532 -3.27776e-05 3.36771 0.000116128 26.7078 0.000920956
-1.11036 -3.82891e-05 4.45338 0.000153565 27.0405 0.000932428
-1.27616 -4.40061e-05 5.50906 0.000189968 27.2757 0.00094054
-1.66721 -5.74906e-05 6.32123 0.000217973 27.3585 0.000943394
-1.9896 -6.86075e-05 7.05498 0.000243275 27.2241 0.000938761
-2.13569 -7.36452e-05 7.82852 0.000269949 26.9594 0.000929632
-2.31067 -7.96789e-05 8.54956 0.000294812 26.5974 0.000917149
-2.60837 -8.99444e-05 9.0664 0.000312634 26.137 0.000901274
-2.88617 -9.95238e-05 9.37252 0.00032319 25.6208 0.000883473
-3.11913 -0.000107557 9.56821 0.000329938 25.1614 0.000867633
-3.3949 -0.000117066 9.68738 0.000334048 24.9027 0.000858712
-3.62374 -0.000124957 9.48063 0.000326918 24.7152 0.000852247
-3.60284 -0.000124237 8.91243 0.000307325 24.4668 0.000843682
-3.46796 -0.000119586 7.83847 0.000270292 24.26 0.00083655
-3.39949 -0.000117224 6.33061 0.000218297 24.0682 0.000829936
-3.21999 -0.000111035 4.4353 0.000152941 23.8279 0.00082165
-2.86423 -9.87673e-05 2.2381 7.71758e-05 23.4143 0.000807389
-2.44224 -8.4216e-05 -0.0654345 -2.25637e-06 22.9437 0.000791159
-2.03021 -7.0008e-05 -1.84468 -6.36097e-05 22.5981 0.000779243
-1.5916 -5.48833e-05 -2.80165 -9.66087e-05 22.072 0.000761101
-1.06395 -3.66886e-05 -3.52126 -0.000121423 21.0352 0.000725348
-0.494361 -1.70476e-05 -4.95636 -0.000170909 19.1493 0.000660317
0.142482 4.91249e-06 -6.14114 -0.000211764 16.5438 0.000570475
0.911279 3.14227e-05 -7.06631 -0.000243666 13.4078 0.000462336
1.51564 5.22629e-05 -7.88704 -0.000271967 9.53431 0.000328767
2.08799 7.1999e-05 -8.50511 -0.00029328 4.41232 0.000152147
2.60426 8.98013e-05 -9.10389 -0.000313927 -0.0443633 -1.53166e-06
2.9798 0.000102751 -9.47162 -0.000326608 -2.68651 -9.26402e-05
3.32845 0.000114774 -9.59708 -0.000330934 -4.1948 -0.00014465
3.69571 0.000127437 -9.43913 -0.000325487 -5.9114 -0.000203843
4.01725 0.000138525 -9.10055 -0.000313812 -8.06916 -0.000278249
4.22195 0.000145584 -8.66275 -0.000298716 -10.4899 -0.000361723
4.37923 0.000151007 -8.09671 -0.000279197 -12.836 -0.000442624
4.52456 0.000156019 -7.37595 -0.000254343 -14.9803 -0.000516563
4.65874 0.000160646 -6.54767 -0.000225782 -17.0798 -0.000588959
4.77798 0.000164757 -5.61829 -0.000193734 -19.2926 -0.000665263
4.83285 0.000166649 -5.03929 -0.000173769 -21.4719 -0.000740413
4.98568 0.000171919 -4.33561 -0.000149504 -23.4517 -0.00080868
5.1488 0.000177544 -3.6333 -0.000125286 -25.1693 -0.000867908
5.39623 0.000186076 -3.13888 -0.000108237 -26.592 -0.000916967
5.66919 0.000195488 -2.7353 -9.43206e-05 -27.8294 -0.000959638
6.00872 0.000207197 -2.47515 -8.53501e-05 -28.8723 -0.000995599
6.4634 0.000222875 -2.299 -7.9276e-05 -29.6846 -0.00102361
7.04903 0.000243069 -2.26299 -7.80343e-05 -30.179 -0.00104066
7.69893 0.00026548 -2.31964 -7.99877e-05 -30.3338 -0.00104599
8.36129 0.00028832 -2.4143 -8.32519e-05 -29.8871 -0.00103059
9.0453 0.000311906 -2.43396 -8.39295e-05 -28.5558 -0.000984684
9.68054 0.000333811 -2.18181 -7.5235e-05 -26.356 -0.000908828
10.4216 0.000359364 -1.80148 -6.21199e-05 -23.1681 -0.000798903
10.9914 0.000379013 -1.27443 -4.3946e-05 -18.7206 -0.000645541
11.4556 0.000395021 -0.537933 -1.85494e-05 -13.8314 -0.000476945
11.8926 0.000410089 0.492688 1.69892e-05 -8.59162 -0.000296265
12.2274 0.000421632 1.63962 5.65388e-05 -4.54458 -0.000156712
12.4299 0.000428617 2.55077 8.79575e-05 -2.63988 -9.10323e-05
12.4855 0.000430534 3.22931 0.000111355 -0.949454 -3.27417e-05
12.4373 0.00042887 3.92525 0.000135353 0.426905 1.47189e-05
12.3267 0.000425058 4.80131 0.000165562 2.15942 7.44609e-05
12.1686 0.000419606 5.95034 0.000205184 4.15377 0.000143232
11.9603 0.000412424 7.06672 0.00024368 6.07927 0.000209628
11.7445 0.000404981 7.7605 0.000267603 7.64115 0.000263486
11.7456 0.000405018 8.59466 0.000296368 9.18517 0.000316728
11.8565 0.000408843 9.66044 0.000333119 11.0966 0.000382639
11.8193 0.00040756 10.6572 0.000367491 13.1973 0.000455078
11.7391 0.000404796 11.3562 0.000391593 15.1718 0.000523164
11.7911 0.000406588 11.9431 0.000411831 16.8749 0.00058189
11.9399 0.000411722 12.7006 0.00043795 18.4972 0.000637832
12.0838 0.000416682 13.5812 0.000468316 20.3063 0.000700217
12.2349 0.000421892 14.3471 0.000494727 22.3157 0.000769504
12.4533 0.000429423 14.8881 0.000513381 24.3605 0.000840014
12.7342 0.000439111 15.3325 0.000528707 26.3348 0.000908096
13.0758 0.000450887 16.3447 0.000563611 28.3448 0.000977405
13.5433 0.00046701 18.1586 0.000626159 30.7136 0.00105909
13.8583 0.00047787 20.252 0.000698344 32.5908 0.00112382
14.4321 0.000497657 21.4102 0.000738283 29.2509 0.00100865
14.8391 0.000511691 22.7026 0.000782848 26.8113 0.000924527
15.2216 0.000524881 24.4075 0.000841639 25.0237 0.000862885
15.6538 0.000539784 26.1387 0.000901336 22.5636 0.000778053
16.127 0.000556104 27.5295 0.000949291 19.9624 0.000688358
16.4954 0.000568805 29.0027 0.00100009 21.5267 0.000742297
16.8477 0.000580956 30.651 0.00105693 23.9312 0.000825211
17.2654 0.00059536 32.2535 0.00111219 25.9606 0.000895191
17.6622 0.000609039 33.6506 0.00116036 27.1488 0.000936164
18.0142 0.00062118 34.9753 0.00120605 28.1563 0.000970906
18.3587 0.000633058 36.3528 0.00125355 29.4248 0.00101465
18.7629 0.000646996 37.6265 0.00129747 30.652 0.00105696
19.1896 0.000661709 38.7948 0.00133775 31.3913 0.00108246
20.111 0.000693483 40.0546 0.00138119 31.7352 0.00109432
21.6499 0.000746547 41.3781 0.00142683 31.9819 0.00110282
22.7047 0.000782919 42.5729 0.00146803 32.3138 0.00111427
23.6416 0.000815226 43.6616 0.00150557 32.3611 0.0011159
24.7377 0.000853023 44.629 0.00153893 32.2746 0.00111292
25.7298 0.000887234 45.56 0.00157103 32.161 0.001109
26.5707 0.000916231 46.3444 0.00159808 32.0609 0.00110555
27.4247 0.000945677 46.9517 0.00161903 31.9434 0.00110149
28.2426 0.000973882 47.421 0.00163521 31.7872 0.00109611
28.9149 0.000997066 47.7781 0.00164752 31.6162 0.00109021
29.4977 0.00101716 47.9733 0.00165425 31.46 0.00108482
30.0097 0.00103482 47.9758 0.00165434 31.323 0.0010801
30.3805 0.0010476 47.7648 0.00164706 31.1913 0.00107556
30.6105 0.00105553 47.3688 0.00163341 31.0701 0.00107138
30.7168 0.0010592 46.772 0.00161283 30.9814 0.00106832
30.6485 0.00105684 46.0479 0.00158786 30.9515 0.00106729
30.371 0.00104727 45.1537 0.00155703 30.9846 0.00106843
29.9404 0.00103243 44.0404 0.00151863 31.076 0.00107158
29.3753 0.00101294 42.787 0.00147541 31.2548 0.00107775
28.6645 0.000988432 41.3929 0.00142734 31.5447 0.00108775
27.8802 0.000961387 39.8313 0.00137349 31.9468 0.00110161
27.0733 0.00093356 38.1372 0.00131508 30.445 0.00104983
26.2321 0.000904556 36.3759 0.00125434 28.5664 0.000985048
25.407 0.000876103 34.5441 0.00119118 26.6057 0.000917435
24.5989 0.000848236 32.6316 0.00112523 24.5564 0.000846771
23.804 0.000820827 30.683 0.00105803 22.4068 0.000772645
23.0422 0.000794557 28.7505 0.000991398 20.1202 0.000693799
22.3195 0.000769638 26.855 0.000926035 17.6657 0.000609162
21.6434 0.000746323 25.015 0.000862585 14.984 0.000516686
21.0203 0.000724839 23.2717 0.000802474 11.7285 0.00040443
20.4573 0.000705422 21.6583 0.000746839 7.90472 0.000272575
19.9563 0.000688147 20.2055 0.000696743 3.77129 0.000130043
19.5186 0.000673056 18.9404 0.000653118 0.738857 2.5476e-05
19.1432 0.000660111 17.8871 0.000616798 -1.58912 -5.47992e-05
18.8395 0.000649639 17.0073 0.000586457 -2.69674 -9.29927e-05
18.5731 0.000640452 16.3524 0.000563875 -3.51441 -0.000121188
18.3113 0.000631422 15.8767 0.000547474 -4.24759 -0.000146471
17.9936 0.000620469 15.6302 0.000538973 -5.0271 -0.00017335
17.5819 0.000606271 15.6064 0.000538151 -5.90785 -0.000203721
17.0424 0.00058767 15.8264 0.000545737 -6.85431 -0.000236357
16.3516 0.000563846 16.2267 0.000559541 -7.76265 -0.00026768
15.5091 0.000534797 16.7621 0.000578002 -8.57099 -0.000295553
14.5449 0.000501546 17.3636 0.000598744 -9.27674 -0.000319889
13.4584 0.000464081 17.9676 0.000619574 -9.93557 -0.000342608
12.2884 0.000423738 18.487 0.000637483 -10.5488 -0.000363754
11.3131 0.000390105 18.7533 0.000646666 -11.0524 -0.000381117
10.1448 0.00034982 18.8939 0.000651514 -11.4122 -0.000393527
8.88412 0.000306348 18.7832 0.000647697 -11.5842 -0.000399457
7.5128 0.000259061 18.4252 0.00063535 -11.6022 -0.000400076
6.0287 0.000207886 17.7901 0.000613451 -11.0951 -0.00038259
4.32323 0.000149076 16.9107 0.000583127 -9.90742 -0.000341637
2.62477 9.05085e-05 15.8265 0.000545742 -7.72141 -0.000266257
1.12641 3.88411e-05 14.8447 0.000511886 -4.83872 -0.000166854
-0.129919 -4.48065e-06 13.6941 0.00047221 -1.91443 -6.60168e-05
-1.00316 -3.45924e-05 12.4831 0.000430452 0.0700365 2.41324e-06
-1.39051 -4.79495e-05 11.2403 0.000387596 1.94197 6.69625e-05
-1.68997 -5.82754e-05 9.9467 0.00034299 4.0866 0.000140916
-1.82761 -6.30218e-05 8.90067 0.00030692 6.19279 0.000213543
-2.00401 -6.91046e-05 7.81042 0.000269325 8.11652 0.000279878
-2.06376 -7.11649e-05 6.66014 0.00022966 10.0044 0.000344976
-2.11774 -7.30262e-05 5.45527 0.000188113 11.878 0.000409584
-2.19479 -7.5683e-05 4.08862 0.000140987 13.83 0.000476894
-2.25244 -7.76712e-05 2.68079 9.2441e-05 15.6883 0.000540973
-2.26508 -7.81068e-05 1.26345 4.35671e-05 17.3513 0.000598319
-2.26787 -7.82033e-05 0.121291 4.18249e-06 18.8086 0.000648571
-2.32402 -8.01393e-05 -0.941321 -3.24593e-05 20.0953 0.000692939
-2.4335 -8.39144e-05 -1.79662 -6.19524e-05 21.1526 0.000729397
-2.54433 -8.77363e-05 -2.5166 -8.67794e-05 21.9439 0.000756683
-2.68178 -9.2476e-05 -3.03064 -0.000104505 22.374 0.000771516
-2.87053 -9.89844e-05 -3.46447 -0.000119465 22.4018 0.000772473
-3.07696 -0.000106103 -3.73624 -0.000128836 21.7938 0.000751508
-3.31444 -0.000114292 -3.9769 -0.000137135 20.4945 0.000706707
-3.5678 -0.000123028 -4.16445 -0.000143602 18.5136 0.000638398
-3.80838 -0.000131324 -4.31612 -0.000148832 15.9129 0.000548718
-4.03573 -0.000139164 -4.45452 -0.000153604 12.727 0.000438859
-4.24146 -0.000146258 -4.62836 -0.000159598 8.93145 0.000307979
-4.53969 -0.000156542 -4.85537 -0.000167426 4.01717 0.000138521
-4.83163 -0.000166609 -5.11975 -0.000176543 0.186533 6.43035e-06
-4.77862 -0.000164781 -5.40714 -0.000186453 -0.715167 -2.46627e-05
-4.74199 -0.000163518 -5.82292 -0.00020079 -1.33745 -4.61208e-05
-4.94464 -0.000170506 -6.37098 -0.000219689 -2.15818 -7.4422e-05
-5.06937 -0.000174807 -6.84314 -0.00023597 -3.46309 -0.000119419
-4.96588 -0.000171238 -7.23529 -0.000249493 -5.00996 -0.000172759
-4.84437 -0.000167048 -7.65633 -0.000264011 -6.39731 -0.000220599
-4.88733 -0.000168529 -8.75932 -0.000302045 -7.67734 -0.000264738
-4.44377 -0.000153234 -9.67857 -0.000333744 -9.03767 -0.000311646
-3.77161 -0.000130056 -10.2079 -0.000351996 -10.5388 -0.000363409
-3.53334 -0.00012184 -10.8366 -0.000373676 -12.3611 -0.000426246
-3.38587 -0.000116755 -11.7323 -0.000404563 -14.376 -0.000495724
-2.94104 -0.000101416 -12.6755 -0.000437086 -16.2921 -0.000561797
-2.47302 -8.52773e-05 -13.428 -0.000463034 -18.0143 -0.000621185
-2.13196 -7.35166e-05 -14.002 -0.000482828 -19.7299 -0.000680343
-1.61816 -5.57993e-05 -14.4464 -0.000498152 -21.7146 -0.000748782
-0.89069 -3.07141e-05 -14.7285 -0.000507879 -23.9589 -0.000826172
0.107857 3.71853e-06 -14.4747 -0.000499127 -26.1049 -0.000900169
1.39526 4.81117e-05 -13.7458 -0.000473994 -28.0029 -0.000965619
2.5432 8.76957e-05 -12.9506 -0.000446571 -29.8133 -0.00102805
3.12541 0.000107772 -12.6863 -0.00043746 -30.3277 -0.00104579
3.67465 0.000126711 -12.5623 -0.000433183 -30.9807 -0.0010683
4.49825 0.000155111 -12.4493 -0.000429285 -31.3904 -0.00108243
5.18941 0.000178944 -11.8636 -0.000409088 -31.897 -0.0010999
5.75497 0.000198447 -11.1014 -0.000382807 -31.6918 -0.00109282
6.38126 0.000220043 -10.4135 -0.000359086 -30.4119 -0.00104869
6.91601 0.000238482 -9.75829 -0.000336493 -28.5726 -0.000985262
7.33365 0.000252884 -9.3623 -0.000322838 -26.5772 -0.000916455
7.71246 0.000265946 -8.99415 -0.000310143 -26.5675 -0.000916121
8.11846 0.000279946 -8.4029 -0.000289755 -27.1995 -0.000937915
8.50803 0.00029338 -7.56297 -0.000260792 -27.896 -0.000961935
8.85451 0.000305327 -6.51279 -0.000224579 -28.1159 -0.000969517
9.21277 0.000317681 -5.22766 -0.000180264 -27.9283 -0.000963048
9.53473 0.000328783 -3.71768 -0.000128196 -27.8075 -0.00095888
9.74225 0.000335939 -2.14916 -7.41089e-05 -28.0416 -0.000966955
9.87417 0.000340488 -0.586476 -2.02233e-05 -27.925 -0.000962933
10.0262 0.000345732 0.90364 3.116e-05 -26.6502 -0.000918973
10.1503 0.000350011 2.33571 8.05417e-05 -24.1962 -0.000834353
10.2343 0.000352905 3.8109 0.00013141 -20.486 -0.000706417
10.3215 0.000355914 4.82241 0.00016629 -16.0109 -0.000552103
10.4595 0.000360671 5.31338 0.00018322 -11.6288 -0.000400993
10.6595 0.000367567 5.64796 0.000194757 -7.88184 -0.000271789
10.9112 0.000376247 5.92932 0.000204459 -5.94391 -0.000204964
11.2272 0.000387144 6.17903 0.00021307 -3.60873 -0.000124441
11.5703 0.000398974 6.36156 0.000219364 -1.15081 -3.96848e-05
12.0451 0.000415346 6.38946 0.000220326 1.03197 3.55833e-05
12.5466 0.000432641 6.3518 0.000219028 3.50611 0.000120898
13.0481 0.000449933 6.38114 0.000220039 6.32455 0.000218086
13.6024 0.000469049 6.4479 0.000222341 9.22404 0.000318069
14.1944 0.00048946 6.48921 0.000223766 11.8149 0.000407408
14.7831 0.000509761 6.64123 0.000229008 13.9779 0.000481993
15.3787 0.000530299 7.09935 0.000244805 15.9294 0.000549287
15.96 0.000550343 7.52656 0.000259537 17.8961 0.000617104
16.5953 0.000572251 7.72561 0.0002664 19.8551 0.000684656
17.396 0.000599862 8.06091 0.000277962 21.797 0.000751617
18.2259 0.000628478 8.72796 0.000300964 23.5777 0.000813023
18.9262 0.000652627 9.57384 0.000330132 25.0412 0.000863488
19.5403 0.000673803 10.4064 0.000358843 26.2526 0.000905261
20.195 0.000696379 11.2701 0.000388624 27.4244 0.000945668
20.8845 0.000720154 12.3262 0.000425041 28.649 0.000987894
22.6394 0.00078067 13.7867 0.000475404 29.7312 0.00102521
26.4065 0.000910568 17.8221 0.000614556 30.5699 0.00105413
30.2456 0.00104295 23.6397 0.000815163 32.2231 0.00111114
33.259 0.00114686 30.277 0.00104403 32.4996 0.00112067
36.7322 0.00126663 34.1585 0.00117788 33.45 0.00115345
40.3349 0.00139086 38.5915 0.00133074 34.3674 0.00118508
43.684 0.00150635 43.8979 0.00151372 35.9219 0.00123868
46.9864 0.00162022 49.2925 0.00169974 37.1731 0.00128183
50.4442 0.00173945 53.6411 0.00184969 38.6852 0.00133397
53.6957 0.00185158 58.1409 0.00200486 41.8361 0.00144262
56.8335 0.00195978 62.7301 0.00216311 46.4189 0.00160065
59.8641 0.00206428 67.1473 0.00231542 50.3426 0.00173595
62.8175 0.00216612 70.9061 0.00244504 53.5045 0.00184498
65.5431 0.00226011 74.5058 0.00256917 57.1846 0.00197188
67.8037 0.00233806 75.3029 0.00259666 61.6594 0.00212618
69.2359 0.00238745 75.2308 0.00259417 65.4658 0.00225744
70.8932 0.0024446 75.0202 0.00258691 69.4843 0.00239601
71.2131 0.00245563 74.947 0.00258438 73.2955 0.00252743
71.4128 0.00246252 74.9695 0.00258516 74.4995 0.00256895
71.6426 0.00247044 74.832 0.00258042 74.8426 0.00258078
71.9466 0.00248093 74.6091 0.00257273 75.0546 0.00258809
72.1696 0.00248862 74.4789 0.00256824 75.2768 0.00259575
72.4034 0.00249668 74.3863 0.00256505 75.5802 0.00260621
20.8555 0.000719166 61.4331 0.00211839 75.8846 0.00261671
2.50282 8.63154e-05 62.5012 0.00215522 26.2051 0.000903622
14.2794 0.000492406 59.302 0.0020449 25.9892 0.000896177
13.1725 0.000454236 68.0251 0.0023457 25.8486 0.000891331
16.5107 0.000569346 68.3182 0.00235581 26.1838 0.000902887
19.1311 0.000659703 71.1438 0.00245324 26.2409 0.000904856
20.5199 0.000707596 73.7344 0.00254257 26.322 0.000907655
20.1491 0.000694809 74.7461 0.00257746 26.3575 0.000908878
20.1399 0.000694492 74.7361 0.00257711 26.171 0.000902445
20.0697 0.000692071 74.5721 0.00257146 26.0596 0.000898606
19.8525 0.00068458 75.0977 0.00258958 26.1514 0.000901769
8.71717 0.000300603 18.7083 0.000645119 -0.687762 -2.37176e-05
14.3279 0.000494077 4.33773 0.000149583 6.53985 0.000225511
15.7447 0.000542933 9.42793 0.000325107 9.69068 0.00033416
17.8342 0.000614982 17.6184 0.000607537 5.35585 0.000184683
17.708 0.000610631 19.2264 0.000662985 6.60821 0.000227868
17.6996 0.000610343 20.298 0.000699938 5.13197 0.000176963
17.4446 0.000601548 21.4619 0.000740073 4.60173 0.000158679
16.9968 0.00058611 22.0975 0.00076199 5.12213 0.000176624
16.6913 0.000575572 21.7815 0.000751091 4.92189 0.000169719
16.4967 0.000568861 22.035 0.000759835 5.46249 0.00018836
16.2325 0.000559752 22.6705 0.000781747 7.74127 0.000266939
16.0241 0.000552567 22.8795 0.000788955 10.438 0.000359929
15.8921 0.000548016 22.7232 0.000783566 12.3988 0.000427545
15.7686 0.000543757 22.829 0.000787212 14.5899 0.000503097
15.7006 0.000541412 23.0506 0.000794856 17.7637 0.000612541
15.7096 0.000541723 22.9912 0.000792806 21.5388 0.000742715
15.7525 0.000543201 22.7204 0.000783467 21.7866 0.000751262
15.8306 0.000545896 22.5301 0.000776906 21.9181 0.000755794
15.9791 0.000551015 22.3599 0.000771036 22.0255 0.000759498
16.1457 0.000556759 22.051 0.000760385 22.0776 0.000761296
16.2684 0.00056099 21.6362 0.000746081 22.1529 0.000763892
16.3625 0.000564234 21.2331 0.000732183 22.2949 0.000768786
16.4498 0.000567246 20.8304 0.000718296 22.4473 0.000774043
16.5482 0.00057064 20.3603 0.000702085 22.5581 0.000777863
16.6732 0.000574949 19.8775 0.000685437 22.6556 0.000781226
16.8273 0.000580261 19.4295 0.000669988 22.778 0.000785448
17.0291 0.000587221 19.003 0.00065528 22.9133 0.000790112
17.3071 0.000596809 18.5792 0.00064067 23.0401 0.000794485
17.5213 0.000604195 18.2587 0.000629617 23.1352 0.000797762
17.7325 0.000611477 18.008 0.000620971 23.2048 0.000800163
17.9531 0.000619085 17.6987 0.000610305 23.2826 0.000802848
18.2028 0.000627693 17.5753 0.000606051 23.3661 0.000805726
18.4977 0.000637862 17.5548 0.000605344 23.4051 0.000807069
18.7712 0.000647292 17.5241 0.000604284 23.4129 0.00080734
18.6955 0.000644682 17.5677 0.000605789 23.4141 0.000807381
18.5303 0.000638987 17.737 0.000611626 23.411 0.000807275
18.3514 0.00063282 17.9632 0.000619425 23.3925 0.000806638
18.1599 0.000626213 18.1644 0.000626364 8.91991 0.000307581
17.3255 0.000597444 20.0811 0.000692457 2.67493 9.22374e-05
17.3182 0.000597189 20.9911 0.000723839 2.75927 9.51455e-05
17.1534 0.000591509 20.2481 0.000698216 0.690024 2.37923e-05
16.6077 0.000572689 20.1723 0.000695602 5.36729 0.000185077
16.4784 0.000568231 21.1166 0.000728166 4.7894 0.00016515
16.2537 0.000560482 21.7248 0.000749139 3.1756 0.000109502
15.928 0.000549254 21.6061 0.000745043 1.74698 6.02391e-05
15.7515 0.000543165 21.6179 0.00074545 2.51762 8.68128e-05
15.5795 0.000537235 22.0489 0.000760312 3.76721 0.000129902
15.3483 0.000529264 22.2739 0.00076807 5.32077 0.000183473
14.9619 0.00051594 22.1608 0.000764173 5.31567 0.000183297
14.136 0.000487461 22.1571 0.000764044 6.64814 0.000229245
13.5553 0.000467436 22.2348 0.000766725 9.07905 0.000313069
12.9371 0.000446119 22.159 0.000764108 11.5186 0.00039719
12.2653 0.000422951 21.8171 0.000752319 13.8235 0.000476669
11.5104 0.000396923 21.4008 0.000737966 15.9404 0.000549668
10.7014 0.000369026 20.7892 0.000716875 18.553 0.000639756
9.82001 0.000338632 19.928 0.000687178 21.6001 0.00074483
8.87477 0.000306038 18.7693 0.000647222 21.6582 0.000746832
7.90352 0.000272546 17.3143 0.000597051 21.7733 0.000750802
6.93618 0.00023919 15.8378 0.000546137 21.8829 0.000754582
6.11922 0.000211019 14.5928 0.000503205 21.9475 0.00075681
5.22988 0.000180352 13.3085 0.00045892 21.9976 0.000758538
4.44053 0.000153133 11.9042 0.000410496 22.0518 0.000760406
3.7142 0.000128087 10.4578 0.000360618 22.1237 0.000762884
3.40931 0.000117574 9.01007 0.000310698 22.2009 0.000765548
3.08002 0.000106219 7.62077 0.000262791 22.2616 0.000767641
2.84843 9.82329e-05 6.16877 0.000212722 22.2968 0.000768854
2.6248 9.05218e-05 4.81378 0.000165998 22.3195 0.000769638
2.44963 8.44813e-05 3.63419 0.000125323 22.345 0.000770516
2.32372 8.01395e-05 2.52383 8.70346e-05 21.9956 0.000758466
2.2404 7.72663e-05 1.9773 6.81887e-05 20.9527 0.000722506
2.2568 7.78319e-05 1.61754 5.57831e-05 19.3321 0.000666622
2.28637 7.88515e-05 1.30952 4.51619e-05 16.7575 0.000577842
2.25791 7.78703e-05 1.12008 3.86296e-05 13.1056 0.000451915
2.31663 7.9895e-05 1.00065 3.45112e-05 8.11122 0.000279696
2.3599 8.1387e-05 1.20556 4.15771e-05 3.93739 0.00013577
2.31892 7.99739e-05 1.76085 6.07251e-05 2.76507 9.53456e-05
2.23697 7.71481e-05 2.37367 8.18567e-05 2.32664 8.02272e-05
2.14231 7.38841e-05 3.08165 0.00010627 2.131 7.34813e-05
1.99988 6.89727e-05 3.93728 0.000135774 1.66356 5.73624e-05
1.78452 6.15464e-05 4.81009 0.000165871 0.631358 2.17693e-05
1.62215 5.59473e-05 5.69199 0.000196281 -0.58628 -2.02182e-05
1.41562 4.88259e-05 6.60776 0.00022786 -1.15088 -3.96872e-05
1.18801 4.09771e-05 7.44267 0.00025665 -1.80675 -6.23035e-05
0.950567 3.27894e-05 8.10033 0.000279328 -2.50707 -8.64525e-05
0.763317 2.63326e-05 8.43718 0.000290943 -3.21629 -0.000110908
0.472802 1.63148e-05 8.69127 0.000299705 -3.88872 -0.000134095
0.152747 5.27841e-06 8.79666 0.000303339 -4.4897 -0.000154819
-0.184202 -6.3405e-06 8.4463 0.000291258 -4.95107 -0.000170728
-0.554261 -1.91012e-05 7.98729 0.00027543 -5.30594 -0.000182965
-0.953287 -3.28607e-05 7.63589 0.000263313 -5.57414 -0.000192213
-1.35816 -4.68218e-05 7.23215 0.00024939 -5.74969 -0.000198267
-1.77396 -6.11598e-05 6.78569 0.000233995 -5.9123 -0.000203874
-2.19166 -7.5563e-05 6.38934 0.000220328 -6.0772 -0.00020956
-2.57456 -8.87668e-05 5.83459 0.000201199 -6.20366 -0.000213921
-3.01236 -0.000103863 5.1539 0.000177727 -6.23424 -0.000214975
-3.62362 -0.000124941 4.42177 0.000152481 -6.03348 -0.000208053
-4.24924 -0.000146514 3.59326 0.000123911 -5.66104 -0.00019521
-4.81302 -0.000165955 2.593 8.94197e-05 -4.92914 -0.000169972
-5.11774 -0.000176463 1.46816 5.0632e-05 -3.92835 -0.000135462
-5.02388 -0.000173226 0.255719 8.82389e-06 -2.73585 -9.43412e-05
-4.69752 -0.000161972 -0.77688 -2.6783e-05 -1.7103 -5.89776e-05
-4.1889 -0.000144434 -1.53868 -5.30518e-05 -0.884189 -3.04909e-05
-3.72189 -0.00012833 -2.54095 -8.7613e-05 -0.118361 -4.08305e-06
-3.37876 -0.000116498 -3.70463 -0.00012774 0.279649 9.64142e-06
-2.90839 -0.000100278 -4.94414 -0.000170481 0.390081 1.34494e-05
-2.38343 -8.21759e-05 -6.0833 -0.000209763 0.0473216 1.63014e-06
-1.91531 -6.60341e-05 -6.93923 -0.000239278 -0.237799 -8.2016e-06
-1.54148 -5.3143e-05 -7.46989 -0.000257576 -0.370858 -1.27899e-05
-1.26817 -4.37188e-05 -7.75339 -0.000267352 -0.555255 -1.91483e-05
-1.13035 -3.89663e-05 -7.89222 -0.000272139 -0.929324 -3.20473e-05
-0.861901 -2.97094e-05 -8.03044 -0.000276906 -1.49292 -5.14817e-05
-0.702832 -2.42243e-05 -8.31188 -0.00028661 -2.01105 -6.93482e-05
-0.785153 -2.7063e-05 -8.65015 -0.000298275 -2.35517 -8.12143e-05
-0.976228 -3.36518e-05 -8.90254 -0.000306978 -2.72217 -9.38696e-05
-1.08449 -3.73851e-05 -8.8401 -0.000304825 -3.27459 -0.000112919
-1.01396 -3.49528e-05 -8.21978 -0.000283435 -4.05492 -0.000139826
-0.943764 -3.25323e-05 -7.33167 -0.00025281 -5.01759 -0.000173022
-0.993053 -3.42319e-05 -6.50206 -0.000224203 -6.0851 -0.000209833
-1.06235 -3.66215e-05 -5.89695 -0.000203337 -7.16319 -0.000247008
-1.13342 -3.90721e-05 -5.29849 -0.000182701 -8.1569 -0.000281274
-1.08091 -3.72616e-05 -4.50341 -0.000155284 -9.02762 -0.000311299
-1.00873 -3.47725e-05 -3.68936 -0.000127213 -9.81601 -0.000338485
-0.969869 -3.34325e-05 -2.75136 -9.48686e-05 -10.6439 -0.000367033
-0.848802 -2.92578e-05 -1.78707 -6.16171e-05 -11.5726 -0.000399058
-0.724172 -2.49602e-05 -1.20048 -4.13899e-05 -12.608 -0.000434759
-0.525466 -1.81082e-05 -0.741431 -2.55606e-05 -13.6781 -0.000471659
-0.401092 -1.38195e-05 -0.0615401 -2.11608e-06 -14.7392 -0.000508248
-0.256194 -8.82299e-06 0.685122 2.36309e-05 -15.6766 -0.000540574
-0.0264723 -9.01555e-07 1.2958 4.46888e-05 -16.4091 -0.000565831
0.202402 6.99065e-06 1.72406 5.94563e-05 -16.9687 -0.000585128
0.395361 1.36444e-05 1.93382 6.66893e-05 -17.4142 -0.00060049
0.588347 2.02991e-05 1.9285 6.65059e-05 -17.8017 -0.000613855
0.811503 2.79941e-05 1.87052 6.45067e-05 -18.1615 -0.000626261
1.03231 3.5608e-05 1.84054 6.34727e-05 -18.5221 -0.000638694
1.235 4.25975e-05 1.80261 6.21648e-05 -18.85 -0.000650003
1.42127 4.90207e-05 1.66282 5.73447e-05 -19.099 -0.000658588
1.54195 5.31821e-05 1.33531 4.60513e-05 -19.2204 -0.000662774
1.51381 5.22118e-05 0.809256 2.79114e-05 -19.0509 -0.000656931
1.30315 4.49474e-05 0.181751 6.27326e-06 -18.2592 -0.000629629
0.931629 3.21364e-05 -0.447487 -1.54246e-05 -16.7562 -0.000577803
0.3989 1.37664e-05 -1.06868 -3.6845e-05 -14.5512 -0.000501769
0.127618 4.4119e-06 -1.72123 -5.93468e-05 -11.47 -0.000395519
-0.126059 -4.33558e-06 -2.14133 -7.3833e-05 -8.31652 -0.000286778
-0.374689 -1.2909e-05 -2.64714 -9.12747e-05 -5.3391 -0.000184109
-0.662374 -2.28292e-05 -3.33361 -0.000114946 -2.2998 -7.93052e-05
-1.06872 -3.6841e-05 -3.98444 -0.000137389 -0.374083 -1.29011e-05
-1.61399 -5.56437e-05 -4.5437 -0.000156673 0.0638909 2.2015e-06
-2.26867 -7.82188e-05 -5.00559 -0.0001726 0.794821 2.7406e-05
-2.83198 -9.76432e-05 -5.31596 -0.000183303 1.67982 5.79233e-05
-2.95733 -0.000101966 -5.58884 -0.000192713 2.54174 8.76445e-05
-2.6646 -9.18716e-05 -5.88372 -0.000202881 3.39853 0.000117189
-2.59425 -8.94455e-05 -6.08198 -0.000209717 3.92505 0.000135345
-2.82226 -9.73079e-05 -6.1638 -0.000212539 4.15598 0.000143308
-3.07494 -0.000106021 -6.22061 -0.000214498 4.24994 0.000146548
-3.18841 -0.000109934 -6.24415 -0.000215309 4.36328 0.000150456
-3.23419 -0.000111512 -6.01832 -0.000207522 4.63027 0.000159663
-3.35802 -0.000115783 -5.71152 -0.000196943 5.10866 0.000176159
-3.60456 -0.000124284 -5.24428 -0.000180831 5.63435 0.000194286
-3.83756 -0.000132318 -4.63469 -0.000159811 6.03951 0.000208257
-4.12153 -0.000142111 -3.98902 -0.000137546 6.33234 0.000218355
-4.40172 -0.000151772 -3.41984 -0.00011792 6.37877 0.000219956
-4.63421 -0.000159789 -2.77435 -9.56611e-05 6.32974 0.000218265
-4.81865 -0.000166149 -2.07322 -7.14842e-05 6.37267 0.000219746
-5.02477 -0.000173257 -1.49979 -5.17108e-05 6.51277 0.000224577
-5.31645 -0.000183315 -0.908793 -3.13317e-05 6.72557 0.000231915
-5.67272 -0.0001956 -0.326764 -1.12617e-05 6.91639 0.000238495
-6.0463 -0.000208482 0.1997 6.89219e-06 7.02808 0.000242346
-6.4061 -0.000220889 0.726176 2.50465e-05 7.05328 0.000243215
-6.72945 -0.000232039 1.23004 4.24213e-05 6.96236 0.00024008
-7.00336 -0.000241484 1.687 5.81784e-05 6.96283 0.000240096
-7.30298 -0.000251816 2.09407 7.22154e-05 7.0767 0.000244022
-7.65942 -0.000264107 2.49343 8.59862e-05 7.20449 0.000248429
-8.0126 -0.000276285 2.82074 9.72728e-05 7.36746 0.000254049
-8.31327 -0.000286653 3.03281 0.000104586 7.53951 0.000259981
-8.53999 -0.000294471 3.14721 0.000108531 7.68593 0.00026503
-8.71443 -0.000300486 3.15207 0.000108698 7.81815 0.00026959
-8.86962 -0.000305838 2.87012 9.89755e-05 7.9683 0.000274767
-9.00867 -0.000310632 2.63592 9.08998e-05 8.14997 0.000281032
-9.13721 -0.000315065 2.17987 7.51741e-05 8.39708 0.000289553
-9.21634 -0.000317793 1.54575 5.33076e-05 8.71362 0.000300468
-9.21566 -0.00031777 0.765574 2.64051e-05 9.06529 0.000312595
-9.1562 -0.00031572 -0.0826769 -2.84493e-06 9.41088 0.000324511
-9.05628 -0.000312274 -1.11624 -3.8485e-05 9.74056 0.00033588
-8.93822 -0.000308203 -1.71521 -5.91392e-05 10.0533 0.000346665
-8.77762 -0.000302665 -2.37488 -8.18865e-05 10.3699 0.000357581
-8.60082 -0.000296569 -3.09294 -0.000106647 10.6874 0.000368529
-8.4 -0.000289644 -3.81971 -0.000131708 11.0046 0.000379466
-8.13308 -0.00028044 -4.59531 -0.000158453 11.354 0.000391514
-7.8394 -0.000270313 -5.41976 -0.000186882 11.687 0.000402997
-7.55857 -0.000260629 -6.25593 -0.000215716 11.9483 0.000412008
-7.28581 -0.000251224 -7.11168 -0.000245224 12.1107 0.000417607
-7.00856 -0.000241663 -7.99435 -0.000275661 12.1921 0.000420416
-6.74285 -0.000232501 -8.87698 -0.000306097 11.9957 0.000413642
-6.50272 -0.00022422 -9.6723 -0.000333522 11.2038 0.000386335
-6.2882 -0.000216823 -10.346 -0.000356754 9.77211 0.000336968
-6.10748 -0.000210591 -10.911 -0.000376237 7.58921 0.000261695
-5.96389 -0.00020564 -11.3875 -0.000392668 4.67695 0.000161272
-5.85537 -0.000201898 -11.8151 -0.000407412 3.26921 0.00011273
-5.77746 -0.000199212 -12.0599 -0.000415853 2.476 8.53778e-05
-5.71142 -0.000196934 -12.134 -0.000418407 1.92026 6.62142e-05
-5.65943 -0.000195142 -11.7922 -0.00040662 1.07144 3.69447e-05
-5.51721 -0.000190237 -11.0647 -0.000381535 -0.446802 -1.54086e-05
-5.23898 -0.000180643 -10.397 -0.000358512 -1.59911 -5.51435e-05
-4.94751 -0.000170592 -9.88355 -0.000340806 -2.70896 -9.34142e-05
-4.66097 -0.000160712 -9.64609 -0.000332618 -4.01162 -0.000138333
-4.34059 -0.000149664 -9.48781 -0.00032716 -5.3946 -0.000186022
-4.15636 -0.000143311 -9.12355 -0.000314599 -6.73768 -0.000232335
-4.2182 -0.000145444 -8.46399 -0.000291856 -7.98321 -0.000275285
-4.34646 -0.000149867 -7.61142 -0.000262457 -9.18289 -0.000316653
-4.42471 -0.000152565 -6.78898 -0.000234097 -10.4408 -0.00036003
-4.46525 -0.000153963 -6.16106 -0.000212444 -11.8257 -0.000407783
-4.53555 -0.000156387 -5.70693 -0.000196785 -13.3271 -0.000459555
-4.64861 -0.000160286 -5.27165 -0.000181775 -14.8644 -0.000512565
-4.75267 -0.000163874 -4.72212 -0.000162826 -16.3356 -0.000563297
-4.80902 -0.000165817 -3.94473 -0.000136019 -17.674 -0.00060945
-4.83644 -0.000166762 -3.1247 -0.000107742 -18.8293 -0.000649288
-4.92084 -0.000169673 -2.5424 -8.7663e-05 -19.4436 -0.000670472
-4.92302 -0.000169748 -1.96503 -6.77536e-05 -19.8006 -0.000682781
-4.98905 -0.000172025 -1.38688 -4.78174e-05 -19.9872 -0.000689214
-5.02253 -0.000173179 -0.908186 -3.13107e-05 -20.055 -0.000691553
-5.01869 -0.000173047 -0.417779 -1.44002e-05 -20.079 -0.000692381
-5.05622 -0.000174341 -0.0263959 -9.04209e-07 -20.1562 -0.000695041
-5.21325 -0.000179756 0.147533 5.09333e-06 -20.3408 -0.00070141
-5.46976 -0.000188601 0.104992 3.62639e-06 -20.6291 -0.000711349
-5.80886 -0.000200294 -0.260805 -8.98729e-06 -20.9473 -0.000722323
-6.1724 -0.00021283 -0.743149 -2.56198e-05 -21.1937 -0.00073082
-6.16377 -0.000212532 -1.08993 -3.75778e-05 -21.2674 -0.000733361
-5.9118 -0.000203844 -1.24522 -4.29326e-05 -20.9584 -0.000722706
-5.69337 -0.000196312 -1.45678 -5.02276e-05 -20.5056 -0.000707092
-5.56583 -0.000191914 -1.78853 -6.16674e-05 -20.2661 -0.000698833
-5.53127 -0.000190722 -2.27401 -7.84081e-05 -20.3227 -0.000700784
-5.4622 -0.000188341 -2.87778 -9.92276e-05 -20.4747 -0.000706027
-5.32342 -0.000183555 -3.50484 -0.000120851 -20.4818 -0.000706272
-5.08972 -0.000175496 -4.06724 -0.000140244 -20.2338 -0.000697721
-4.8532 -0.00016734 -4.52539 -0.000156042 -19.8316 -0.000683848
-4.77302 -0.000164576 -4.84372 -0.000167019 -19.5308 -0.000673476
-4.55007 -0.000156888 -5.06197 -0.000174545 -19.4831 -0.000671832
-4.30795 -0.000148539 -5.36914 -0.000185137 -19.469 -0.000671347
-4.16216 -0.000143512 -5.75741 -0.000198526 -19.4121 -0.000669385
-4.16519 -0.000143616 -6.15386 -0.000212196 -19.3199 -0.000666206
-4.20357 -0.000144939 -6.52752 -0.000225081 -19.1389 -0.000659963
-4.18736 -0.00014438 -6.7586 -0.000233049 -18.9587 -0.00065375
-4.19147 -0.000144522 -6.81411 -0.000234963 -18.8834 -0.000651152
-4.26932 -0.000147207 -6.61696 -0.000228165 -18.9212 -0.000652458
-4.44158 -0.000153147 -6.29054 -0.000216909 -19.0095 -0.000655502
-4.67672 -0.000161255 -5.97984 -0.000206195 -19.1326 -0.000659747
-4.94271 -0.000170427 -5.78677 -0.000199538 -19.2555 -0.000663983
-5.22177 -0.00018005 -5.70073 -0.000196571 -19.3124 -0.000665948
-5.54523 -0.000191203 -5.58318 -0.000192518 -19.211 -0.000662451
-5.93268 -0.000204564 -5.27811 -0.000181998 -18.8575 -0.000650262
-6.36445 -0.000219453 -4.81137 -0.000165903 -18.5483 -0.000639599
-6.78839 -0.000234071 -4.32005 -0.000148961 -18.3378 -0.000632339
-7.23309 -0.000249405 -3.92579 -0.000135366 -18.1873 -0.000627151
-7.7131 -0.000265958 -3.53195 -0.000121786 -18.019 -0.000621348
-8.15571 -0.00028122 -3.14374 -0.000108399 -17.7679 -0.000612688
-8.5715 -0.000295558 -2.75591 -9.50252e-05 -17.4664 -0.000602292
-8.98294 -0.000309745 -2.38949 -8.23903e-05 -17.2166 -0.000593678
-9.38548 -0.000323626 -2.16554 -7.46677e-05 -17.0672 -0.000588527
-9.7531 -0.000336303 -2.05664 -7.09125e-05 -17.0107 -0.000586577
-10.0708 -0.000347258 -1.95129 -6.72799e-05 -16.9802 -0.000585526
-10.3447 -0.000356701 -1.8419 -6.35078e-05 -16.9063 -0.000582976
-10.5798 -0.00036481 -1.7303 -5.96594e-05 -16.8103 -0.000579668
-10.7736 -0.000371494 -1.65133 -5.69365e-05 -16.4099 -0.000565861
-10.8797 -0.00037515 -1.63742 -5.64569e-05 -15.7163 -0.000541942
-10.9766 -0.000378493 -1.77407 -6.11688e-05 -14.6723 -0.000505945
-11.0502 -0.00038103 -2.0685 -7.13216e-05 -13.2565 -0.000457123
-11.0485 -0.000380972 -2.35481 -8.11944e-05 -11.504 -0.00039669
-10.98 -0.000378608 -2.45204 -8.45471e-05 -9.18188 -0.000316618
-10.977 -0.000378507 -2.7195 -9.37699e-05 -6.29037 -0.000216911
-11.0469 -0.000380915 -3.12434 -0.00010773 -4.05855 -0.000139951
-11.0564 -0.000381245 -3.59138 -0.000123835 -1.93394 -6.66891e-05
-10.9594 -0.000377899 -3.98715 -0.000137482 -0.140685 -4.85284e-06
-10.8198 -0.000373087 -4.29727 -0.000148176 0.0875365 3.01686e-06
-10.711 -0.000369333 -4.58683 -0.000158161 0.489354 1.68726e-05
-10.664 -0.000367714 -4.88 -0.00016827 1.03474 3.56791e-05
-10.6281 -0.000366474 -5.22816 -0.000180275 1.58999 5.48256e-05
-10.4479 -0.000360261 -5.61768 -0.000193707 2.02869 6.99531e-05
-10.1926 -0.000351458 -5.85531 -0.000201901 2.32601 8.02058e-05
-9.94574 -0.000342945 -6.14876 -0.00021202 2.63326 9.08005e-05
-9.79837 -0.000337864 -6.49206 -0.000223858 2.81117 9.69353e-05
-9.72989 -0.000335502 -6.84345 -0.000235975 2.96066 0.00010209
-9.66827 -0.000333377 -7.15025 -0.000246554 3.08229 0.000106284
-9.58497 -0.000330505 -7.35553 -0.000253633 3.05135 0.000105217
-9.51499 -0.000328092 -7.42503 -0.000256029 2.56004 8.82757e-05
-9.49277 -0.000327326 -7.32175 -0.000252468 1.73865 5.99518e-05
-9.52192 -0.000328331 -7.14318 -0.00024631 0.667814 2.30264e-05
-9.58237 -0.000330415 -7.0141 -0.00024186 -0.322599 -1.11257e-05
-9.65006 -0.000332749 -6.9612 -0.000240035 -0.855442 -2.94996e-05
-9.62879 -0.000332016 -6.93968 -0.000239293 -1.51573 -5.22681e-05
-9.61352 -0.000331489 -6.87647 -0.000237114 -2.27385 -7.84103e-05
-9.63607 -0.000332267 -6.67783 -0.000230264 -3.11549 -0.000107432
-9.6982 -0.000334409 -6.3666 -0.000219532 -4.02499 -0.000138795
-9.76919 -0.000336857 -6.03933 -0.000208247 -4.99987 -0.000172411
-9.83543 -0.000339141 -5.76681 -0.00019885 -6.04566 -0.000208473
-9.89999 -0.000341368 -5.55948 -0.0001917 -7.16472 -0.000247061
-9.97267 -0.000343874 -5.37282 -0.000185264 -8.3415 -0.00028764
-10.0543 -0.00034669 -5.14863 -0.000177533 -9.4162 -0.000324698
-10.1172 -0.000348857 -4.9119 -0.00016937 -10.3981 -0.000358556
-10.155 -0.00035016 -4.71689 -0.000162645 -11.371 -0.000392106
-10.1835 -0.000351143 -4.58708 -0.000158169 -12.3596 -0.000426196
-10.2228 -0.0003525 -4.49053 -0.00015484 -13.3763 -0.000461253
-10.2677 -0.000354049 -4.37763 -0.000150947 -14.4219 -0.000497307
-10.3017 -0.00035522 -4.21881 -0.00014547 -15.3665 -0.000529883
-10.3195 -0.000355832 -4.02149 -0.000138666 -15.867 -0.00054714
-10.3291 -0.000356166 -3.82271 -0.000131812 -15.7674 -0.000543705
-10.333 -0.0003563 -3.67148 -0.000126597 -14.5775 -0.000502674
-10.3271 -0.000356095 -3.57801 -0.000123374 -12.8321 -0.000442486
-10.2999 -0.000355157 -3.53993 -0.00012206 -11.6762 -0.000402628
-10.2487 -0.000353393 -3.52053 -0.000121392 -11.9079 -0.00041062
-10.1932 -0.000351478 -3.45475 -0.000119123 -12.6958 -0.000437787
-10.1349 -0.000349469 -3.32262 -0.000114567 -13.4156 -0.000462608
-10.0537 -0.000346667 -3.19182 -0.000110057 -13.602 -0.000469036
-9.93789 -0.000342674 -3.13865 -0.000108223 -13.2934 -0.000458394
-9.79495 -0.000337746 -3.1933 -0.000110108 -12.8998 -0.000444821
-9.63697 -0.000332298 -3.31833 -0.000114419 -12.8059 -0.000441585
-9.47251 -0.000326627 -3.43291 -0.00011837 -13.078 -0.000450968
-9.29891 -0.000320641 -3.4815 -0.000120046 -13.4772 -0.000464734
-9.10657 -0.000314008 -3.4815 -0.000120046 -13.7063 -0.000472634
-8.88575 -0.000306394 -3.49861 -0.000120636 -13.656 -0.000470897
-8.79654 -0.000303318 -3.60998 -0.000124476 -13.4368 -0.00046334
-8.58019 -0.000295857 -3.84135 -0.000132454 -13.2493 -0.000456874
-8.24152 -0.000284179 -4.08804 -0.000140961 -13.2822 -0.000458008
-7.97188 -0.000274881 -4.99345 -0.000172182 -13.6996 -0.000472402
-7.474 -0.000257713 -5.45028 -0.000187935 -13.9677 -0.000481648
-6.84235 -0.000235932 -5.49024 -0.000189313 -13.9395 -0.000480676
-6.45345 -0.000222522 -5.53791 -0.000190957 -13.8314 -0.000476946
-6.21765 -0.00021439 -5.88565 -0.000202948 -13.9544 -0.000481186
-5.93066 -0.000204494 -6.59617 -0.000227448 -14.196 -0.00048952
-5.53104 -0.000190714 -7.29679 -0.000251607 -14.349 -0.000494796
-5.12847 -0.000176833 -7.56397 -0.000260821 -14.5041 -0.000500143
-4.84437 -0.000167036 -7.76102 -0.000267615 -14.6373 -0.000504736
-4.69152 -0.000161765 -7.93877 -0.000273745 -14.7836 -0.000509779
-4.53478 -0.00015636 -8.1209 -0.000280025 -14.9625 -0.000515948
-4.29416 -0.000148063 -8.33534 -0.000287419 -15.1585 -0.000522708
-4.08318 -0.000140788 -8.56487 -0.000295334 -15.3573 -0.000529564
-3.99361 -0.000137699 -8.75978 -0.000302055 -15.5441 -0.000536006
-3.99073 -0.0001376 -8.87047 -0.000305872 -15.7086 -0.000541678
-4.00051 -0.000137937 -8.80566 -0.000303637 -15.8584 -0.000546842
-3.99955 -0.000137904 -8.54668 -0.000294707 -16.0108 -0.000552097
-4.05374 -0.000139773 -8.29584 -0.000286057 -16.1861 -0.000558142
-4.20867 -0.000145115 -8.13973 -0.000280674 -16.3997 -0.00056551
-4.4181 -0.000152337 -8.03759 -0.000277152 -16.6395 -0.000573778
-4.62738 -0.000159554 -7.88344 -0.000271837 -16.8727 -0.000581818
-4.8452 -0.000167065 -7.60437 -0.000262214 -17.0719 -0.000588689
-5.10441 -0.000176003 -7.30694 -0.000251957 -17.2222 -0.00059387
-5.36963 -0.000185148 -6.99154 -0.000241082 -17.3242 -0.000597386
-5.67826 -0.000195791 -6.57247 -0.000226631 -17.4365 -0.00060126
-5.9605 -0.000205523 -6.20791 -0.00021406 -17.5855 -0.0006064
-6.1859 -0.000213296 -6.00794 -0.000207165 -17.7567 -0.000612303
-6.39528 -0.000220516 -5.87976 -0.000202744 -17.9335 -0.000618399
-6.59864 -0.000227528 -5.74704 -0.000198168 -18.0816 -0.000623504
-6.76226 -0.00023317 -5.60987 -0.000193438 -18.1663 -0.000626425
-6.86403 -0.000236679 -5.47621 -0.000188829 -18.1819 -0.000626965
-6.91456 -0.000238422 -5.39639 -0.000186076 -18.1217 -0.000624887
-6.91776 -0.000238532 -5.44456 -0.000187738 -18.0545 -0.000622571
-6.86489 -0.000236709 -5.62752 -0.000194047 -17.685 -0.000609829
-6.74844 -0.000232693 -5.86053 -0.000202081 -16.8722 -0.000581803
-6.5787 -0.00022684 -6.11302 -0.000210788 -15.52 -0.000535175
-6.3568 -0.000219189 -6.40674 -0.000220916 -13.6666 -0.000471263
-6.09118 -0.000210029 -6.75692 -0.000232991 -11.3871 -0.00039266
-5.79666 -0.000199873 -7.18547 -0.000247769 -8.41331 -0.000290116
-5.47064 -0.000188631 -7.69454 -0.000265323 -6.0355 -0.000208122
-5.10936 -0.000176174 -8.18109 -0.000282101 -5.55975 -0.000191717
-4.77489 -0.00016464 -8.64638 -0.000298145 -5.43875 -0.000187545
-4.43218 -0.000152822 -8.95373 -0.000308743 -5.26169 -0.000181439
-4.17313 -0.00014389 -9.18669 -0.000316776 -4.76622 -0.000164354
-3.87019 -0.000133443 -9.37071 -0.000323122 -4.01545 -0.000138465
-3.54099 -0.000122092 -9.47473 -0.000326709 -3.20505 -0.00011052
-3.30494 -0.000113952 -9.45013 -0.000325861 -2.52613 -8.71094e-05
-3.08685 -0.000106432 -9.21216 -0.000317655 -2.12639 -7.33255e-05
-2.83247 -9.76602e-05 -8.74893 -0.000301681 -1.87826 -6.47691e-05
-2.46392 -8.49515e-05 -8.07632 -0.000278488 -1.57555 -5.43311e-05
-2.06801 -7.12995e-05 -7.22183 -0.000249023 -1.12295 -3.87241e-05
-1.80524 -6.22384e-05 -6.54603 -0.000225719 -0.632035 -2.17959e-05
-1.64152 -5.65929e-05 -6.27131 -0.000216246 -0.252242 -8.69965e-06
-1.47069 -5.07023e-05 -6.15292 -0.000212164 -0.166196 -5.73253e-06
-1.30286 -4.49151e-05 -5.86309 -0.00020217 -0.0647283 -2.23365e-06
-1.11742 -3.85204e-05 -5.3742 -0.000185311 0.0708966 2.44307e-06
-0.820039 -2.82659e-05 -4.73606 -0.000163307 0.238775 8.23197e-06
-0.45723 -1.57553e-05 -4.07114 -0.000140378 0.395156 1.36244e-05
-0.2933 -1.01025e-05 -3.50018 -0.00012069 0.52506 1.81039e-05
-0.478543 -1.64902e-05 -3.02748 -0.00010439 0.620512 2.13953e-05
-0.723118 -2.49238e-05 -2.53816 -8.75169e-05 0.679702 2.34364e-05
-0.98894 -3.40901e-05 -1.90762 -6.5774e-05 0.722499 2.49121e-05
-1.2016 -4.14232e-05 -1.20733 -4.16262e-05 0.76707 2.64491e-05
-1.45589 -5.0192e-05 -0.598301 -2.06251e-05 0.839417 2.89438e-05
-1.71408 -5.9095e-05 -0.109557 -3.77182e-06 0.952225 3.28337e-05
-1.88389 -6.49504e-05 0.0999492 3.45252e-06 1.10603 3.81375e-05
-2.07791 -7.16408e-05 0.361746 1.248e-05 1.30356 4.49486e-05
-2.21722 -7.64446e-05 0.702692 2.42368e-05 1.54264 5.31928e-05
-2.29052 -7.89722e-05 1.10715 3.81837e-05 1.79962 6.20543e-05
-2.30709 -7.95435e-05 1.50414 5.1873e-05 2.04468 7.05046e-05
-2.29949 -7.92814e-05 1.76767 6.09602e-05 2.27495 7.84449e-05
-2.29053 -7.89725e-05 1.79556 6.1922e-05 2.50219 8.62809e-05
-2.28034 -7.8621e-05 1.51034 5.20866e-05 2.73977 9.44734e-05
-2.21402 -7.63341e-05 1.23215 4.24938e-05 3.01035 0.000103804
-2.07957 -7.1698e-05 1.09443 3.77448e-05 3.33973 0.000115162
-1.91256 -6.59391e-05 1.06613 3.6769e-05 3.73088 0.00012865
-1.76899 -6.09885e-05 1.03071 3.55477e-05 4.14394 0.000142893
-1.6363 -5.64128e-05 0.843554 2.90941e-05 4.51205 0.000155586
-1.5497 -5.34267e-05 0.547955 1.8901e-05 4.78729 0.000165077
-1.5144 -5.22093e-05 0.192083 6.62955e-06 4.96941 0.000171357
-1.54675 -5.33249e-05 -0.0760673 -2.61702e-06 5.08102 0.000175206
-1.61923 -5.58242e-05 -0.208916 -7.19802e-06 5.17263 0.000178365
-1.72793 -5.95724e-05 -0.388017 -1.33739e-05 5.29219 0.000182488
-1.82256 -6.28356e-05 -0.613725 -2.11569e-05 5.46533 0.000188458
-1.81017 -6.24084e-05 -0.884358 -3.04891e-05 5.70021 0.000196557
-1.76447 -6.08326e-05 -1.17858 -4.06348e-05 5.97486 0.000206028
-1.79053 -6.1731e-05 -1.44216 -4.97235e-05 6.23333 0.000214941
-1.85555 -6.39731e-05 -1.62495 -5.60268e-05 6.42277 0.000221473
-1.9109 -6.58817e-05 -1.70912 -5.89291e-05 6.58389 0.000227029
-1.95753 -6.74896e-05 -1.71903 -5.92709e-05 6.64095 0.000228997
-2.0337 -7.01162e-05 -1.68649 -5.8149e-05 6.62723 0.000228524
-2.10058 -7.24225e-05 -1.70999 -5.89592e-05 6.56371 0.000226333
-2.19509 -7.56816e-05 -1.74014 -5.99987e-05 6.56416 0.000226349
-2.29819 -7.92365e-05 -1.77456 -6.11857e-05 6.64187 0.000229028
-2.3893 -8.23785e-05 -1.78882 -6.16774e-05 6.49771 0.000224057
-2.46607 -8.50255e-05 -1.70177 -5.86757e-05 6.03031 0.00020794
-2.54204 -8.76454e-05 -1.52577 -5.26069e-05 5.23266 0.000180435
-2.61361 -9.01132e-05 -1.30966 -4.51547e-05 4.28428 0.000147732
-2.67036 -9.20703e-05 -1.11976 -3.86063e-05 3.12751 0.000107843
-2.71352 -9.35583e-05 -0.990083 -3.41348e-05 1.56976 5.4128e-05
-2.75287 -9.49153e-05 -0.868517 -2.99429e-05 0.309558 1.06728e-05
-2.78295 -9.59525e-05 -0.717037 -2.47194e-05 0.018751 6.44948e-07
-2.78163 -9.5907e-05 -0.625501 -2.1563e-05 -0.11099 -3.82887e-06
-2.76227 -9.52395e-05 -0.603787 -2.08143e-05 -0.302115 -1.04194e-05
-2.72535 -9.39663e-05 -0.68854 -2.37368e-05 -0.606707 -2.09226e-05
-2.6945 -9.29026e-05 -0.88203 -3.04088e-05 -1.01134 -3.48754e-05
-2.68735 -9.26561e-05 -1.16734 -4.02472e-05 -1.45692 -5.02404e-05
-2.68867 -9.27013e-05 -1.51924 -5.23816e-05 -1.86895 -6.44482e-05
-2.66224 -9.17902e-05 -1.71154 -5.90127e-05 -2.19082 -7.55471e-05
-2.62411 -9.04754e-05 -1.81741 -6.26633e-05 -2.42621 -8.3664e-05
-2.5889 -8.92612e-05 -1.82324 -6.28644e-05 -2.64164 -9.10928e-05
-2.52284 -8.69831e-05 -1.8247 -6.29148e-05 -2.89581 -9.98571e-05
-2.42089 -8.34677e-05 -1.86122 -6.4174e-05 -3.21881 -0.000110995
-2.31564 -7.98385e-05 -1.956 -6.74424e-05 -3.60796 -0.000124414
-2.21514 -7.63729e-05 -2.1159 -7.2956e-05 -4.01569 -0.000138474
-2.10452 -7.25585e-05 -2.32721 -8.02426e-05 -4.38117 -0.000151076
-1.97395 -6.80558e-05 -2.55215 -8.79992e-05 -4.67246 -0.000161121
-1.83104 -6.3128e-05 -2.75972 -9.51568e-05 -4.90012 -0.000168971
-1.69403 -5.84036e-05 -2.94569 -0.000101569 -5.10576 -0.000176062
-1.57574 -5.43247e-05 -3.12001 -0.000107581 -5.34231 -0.000184219
-1.47459 -5.08368e-05 -3.2995 -0.00011377 -5.64239 -0.000194567
-1.4191 -4.89232e-05 -3.49854 -0.000120633 -5.99805 -0.000206831
-1.34988 -4.65362e-05 -3.72109 -0.000128307 -6.3676 -0.000219574
-1.29261 -4.45616e-05 -3.94758 -0.000136118 -6.70412 -0.000231178
-1.25765 -4.3356e-05 -4.15877 -0.0001434 -6.98242 -0.000240775
-1.24018 -4.27535e-05 -4.3414 -0.000149697 -7.20908 -0.000248591
-1.23498 -4.25743e-05 -4.48558 -0.000154669 -7.42509 -0.000256039
-1.20483 -4.15347e-05 -4.60565 -0.000158809 -7.67411 -0.000264626
-1.16976 -4.03251e-05 -4.73052 -0.000163115 -7.97057 -0.000274849
-1.14143 -3.93482e-05 -4.86127 -0.000167624 -8.30815 -0.000286489
-1.11254 -3.83523e-05 -4.99517 -0.000172241 -8.65415 -0.00029842
-1.06172 -3.65997e-05 -5.1236 -0.00017667 -8.9668 -0.000309202
-0.983272 -3.38946e-05 -5.23172 -0.000180398 -9.22754 -0.000318193
-0.886671 -3.05636e-05 -5.31164 -0.000183154 -9.44511 -0.000325695
-0.768158 -2.64769e-05 -5.36821 -0.000185105 -9.64901 -0.000332726
-0.611686 -2.10813e-05 -5.40623 -0.000186416 -9.87344 -0.000340465
-0.413549 -1.4249e-05 -5.43265 -0.000187327 -10.1359 -0.000349516
-0.187145 -6.44199e-06 -5.45464 -0.000188085 -10.4244 -0.000359464
0.062142 2.15411e-06 -5.46652 -0.000188495 -10.7101 -0.000369315
0.372605 1.28597e-05 -5.44211 -0.000187653 -10.9632 -0.000378043
0.7097 2.44837e-05 -5.3864 -0.000185732 -11.1664 -0.000385048
0.89344 3.08196e-05 -5.3571 -0.000184721 -11.3196 -0.000390332
0.965799 3.33147e-05 -5.27396 -0.000181855 -11.452 -0.000394898
0.971775 3.35208e-05 -5.11895 -0.00017651 -11.6055 -0.00040019
1.02714 3.54298e-05 -4.93554 -0.000170185 -11.7857 -0.000406405
1.11035 3.82993e-05 -4.6445 -0.000160149 -11.9784 -0.00041305
1.1561 3.98767e-05 -4.2645 -0.000147046 -12.1448 -0.000418789
1.10191 3.80081e-05 -3.75105 -0.000129341 -12.2581 -0.000422694
1.01139 3.48867e-05 -3.12546 -0.000107768 -12.3156 -0.000424678
0.95602 3.29775e-05 -2.40632 -8.29707e-05 -12.332 -0.000425243
0.915014 3.15635e-05 -1.62856 -5.61514e-05 -12.335 -0.000425345
0.823752 2.84165e-05 -1.01253 -3.49087e-05 -12.3313 -0.000425219
0.683958 2.3596e-05 -0.685792 -2.3642e-05 -12.2181 -0.000421314
0.546752 1.88648e-05 -0.528567 -1.82205e-05 -11.8637 -0.000409093
0.429191 1.4811e-05 -0.35778 -1.23313e-05 -11.2167 -0.000386783
0.314713 1.08635e-05 -0.106488 -3.66599e-06 -10.247 -0.000353345
0.18791 6.49092e-06 0.0577947 1.99891e-06 -8.96317 -0.000309077
0.0707109 2.44959e-06 0.233892 8.07122e-06 -7.32208 -0.000252487
-0.0283675 -9.66907e-07 0.42747 1.47463e-05 -5.26321 -0.000181492
-0.0927848 -3.18819e-06 0.594852 2.05181e-05 -4.21273 -0.000145268
-0.163994 -5.64369e-06 0.709669 2.44773e-05 -3.89216 -0.000134214
-0.245294 -8.44713e-06 0.761921 2.62791e-05 -3.76187 -0.000129721
-0.310955 -1.07113e-05 0.71183 2.45519e-05 -3.50892 -0.000120999
-0.415156 -1.43044e-05 0.599154 2.06665e-05 -2.95441 -0.000101878
-0.573745 -1.9773e-05 0.499364 1.72254e-05 -2.14633 -7.40131e-05
-0.780726 -2.69103e-05 0.429877 1.48293e-05 -1.30112 -4.4868e-05
-1.01615 -3.50282e-05 0.367795 1.26886e-05 -0.619575 -2.13663e-05
-1.13016 -3.89597e-05 0.268148 9.25249e-06 -0.181382 -6.25621e-06
-1.27678 -4.40157e-05 0.111091 3.83671e-06 -0.0370751 -1.28009e-06
-1.37607 -4.74396e-05 -0.0600047 -2.06313e-06 0.247539 8.53419e-06
-1.40452 -4.84205e-05 -0.188757 -6.50285e-06 0.732264 2.52489e-05
-1.41119 -4.86505e-05 -0.343311 -1.18323e-05 1.36977 4.72319e-05
-1.42711 -4.91993e-05 -0.54819 -1.88971e-05 2.02289 6.9753e-05
-1.4468 -4.98783e-05 -0.790291 -2.72454e-05 2.55539 8.81154e-05
-1.46896 -5.06425e-05 -0.995494 -3.43214e-05 2.90851 0.000100292
-1.48152 -5.10756e-05 -1.09051 -3.75977e-05 3.15638 0.000108839
-1.45748 -5.02465e-05 -1.07991 -3.72324e-05 3.26127 0.000112456
-1.40222 -4.8341e-05 -1.01952 -3.51498e-05 3.33948 0.000115153
-1.38766 -4.78391e-05 -1.04028 -3.58659e-05 3.46546 0.000119497
-1.38809 -4.78539e-05 -1.12512 -3.87913e-05 3.68221 0.000126971
-1.37081 -4.72579e-05 -1.22132 -4.21086e-05 3.99819 0.000137867
-1.31379 -4.52918e-05 -1.3178 -4.54354e-05 4.35781 0.000150268
-1.23822 -4.26859e-05 -1.35829 -4.68314e-05 4.66898 0.000160998
-1.19157 -4.10775e-05 -1.26001 -4.34426e-05 4.92979 0.000169991
-1.11145 -3.83145e-05 -1.0757 -3.70869e-05 5.07676 0.000175059
-0.991952 -3.4194e-05 -0.876852 -3.02303e-05 5.13502 0.000177068
-0.961253 -3.31354e-05 -0.724662 -2.49824e-05 5.12709 0.000176795
-1.07525 -3.70664e-05 -0.650561 -2.24271e-05 5.12778 0.000176818
-1.18305 -4.07836e-05 -0.555193 -1.91386e-05 5.16298 0.000178032
-1.21705 -4.19559e-05 -0.345176 -1.18966e-05 5.2561 0.000181243
-1.22525 -4.22386e-05 -0.0624065 -2.14595e-06 5.38716 0.000185762
-1.2621 -4.35092e-05 0.053239 1.84182e-06 5.48209 0.000189036
-1.33094 -4.58831e-05 0.226151 7.80432e-06 5.50235 0.000189735
-1.39189 -4.79849e-05 0.435384 1.50192e-05 5.47512 0.000188796
-1.42167 -4.90117e-05 0.680323 2.34654e-05 5.38925 0.000185834
-1.41894 -4.89177e-05 0.94069 3.24436e-05 5.25948 0.00018136
-1.3977 -4.81852e-05 1.17571 4.05477e-05 4.99708 0.000172312
-1.38718 -4.78224e-05 1.35972 4.68929e-05 4.57393 0.00015772
-1.37869 -4.75297e-05 1.5007 5.17542e-05 3.97828 0.00013718
-1.35366 -4.66666e-05 1.61767 5.57878e-05 3.25239 0.00011215
-1.28356 -4.42494e-05 1.73514 5.98383e-05 2.54909 8.78981e-05
-1.18578 -4.08776e-05 1.87254 6.45765e-05 1.73936 5.99763e-05
-1.09021 -3.75822e-05 1.99855 6.89215e-05 0.834847 2.87862e-05
-0.997654 -3.43906e-05 2.09908 7.23881e-05 0.139667 4.81447e-06
-0.923641 -3.18384e-05 2.17095 7.48665e-05 -0.002524 -8.86721e-08
-0.817429 -2.81759e-05 2.22224 7.66349e-05 -0.0879771 -3.03533e-06
-0.694964 -2.3953e-05 2.27088 7.83123e-05 -0.196177 -6.76638e-06
-0.572428 -1.97276e-05 2.31292 7.97619e-05 -0.340561 -1.17451e-05
-0.461989 -1.59194e-05 2.32805 8.02836e-05 -0.510948 -1.76205e-05
-0.35772 -1.23239e-05 2.26961 7.82684e-05 -0.685664 -2.36452e-05
-0.244672 -8.42568e-06 2.1602 7.44957e-05 -0.841828 -2.90302e-05
-0.111113 -3.8202e-06 1.99897 6.8936e-05 -0.961693 -3.31635e-05
0.0196887 6.90206e-07 1.83666 6.33391e-05 -1.05319 -3.63185e-05
0.177415 6.12903e-06 1.6301 5.62164e-05 -1.13987 -3.93075e-05
0.336757 1.16236e-05 1.34623 4.64278e-05 -1.23797 -4.26904e-05
0.487769 1.68309e-05 1.04288 3.59673e-05 -1.36397 -4.70352e-05
0.637619 2.19981e-05 0.739715 2.55134e-05 -1.5093 -5.20464e-05
0.810911 2.79737e-05 0.517901 1.78647e-05 -1.65578 -5.70974e-05
0.984431 3.39572e-05 0.395383 1.36399e-05 -1.78651 -6.16053e-05
1.17114 4.03952e-05 0.320714 1.10651e-05 -1.89731 -6.54262e-05
1.35711 4.68084e-05 0.24943 8.60704e-06 -1.99344 -6.87408e-05
1.53193 5.28363e-05 0.147216 5.08243e-06 -2.08951 -7.20537e-05
1.709 5.89424e-05 0.0377515 1.30777e-06 -2.19854 -7.58133e-05
1.8855 6.50285e-05 -0.00847532 -2.86257e-07 -2.33027 -8.03559e-05
2.05503 7.08743e-05 -0.0358918 -1.23165e-06 -2.47933 -8.54957e-05
2.20858 7.61694e-05 -0.0480998 -1.65262e-06 -2.64101 -9.1071e-05
2.34985 8.10407e-05 -0.0537702 -1.84815e-06 -2.80251 -9.66399e-05
2.49988 8.62139e-05 -0.0631213 -2.1706e-06 -2.94784 -0.000101651
2.66227 9.18137e-05 -0.0167993 -5.73291e-07 -3.08767 -0.000106473
2.80818 9.68452e-05 0.0344791 1.19493e-06 -3.2323 -0.00011146
2.94028 0.0001014 0.0912913 3.15397e-06 -3.38575 -0.000116752
3.05125 0.000105227 0.170591 5.88846e-06 -3.5505 -0.000122433
3.14743 0.000108544 0.282338 9.7418e-06 -3.72459 -0.000128436
3.23369 0.000111518 0.42894 1.4797e-05 -3.90403 -0.000134623
3.31037 0.000114162 0.606434 2.09175e-05 -4.07913 -0.000140661
3.36902 0.000116184 0.805648 2.7787e-05 -4.24555 -0.0001464
3.40515 0.00011743 1.01632 3.50513e-05 -4.41723 -0.00015232
3.44732 0.000118884 1.2355 4.26094e-05 -4.59398 -0.000158415
3.50335 0.000120816 1.48308 5.11467e-05 -4.76826 -0.000164424
3.55627 0.000122641 1.7247 5.94785e-05 -4.94352 -0.000170468
3.54985 0.00012242 1.96091 6.76234e-05 -5.11482 -0.000176375
3.4941 0.000120498 2.18145 7.52286e-05 -5.2775 -0.000181985
3.43025 0.000118296 2.38819 8.23573e-05 -5.42034 -0.00018691
3.38752 0.000116822 2.59674 8.95487e-05 -5.52603 -0.000190554
3.35876 0.000115831 2.81888 9.72089e-05 -5.59074 -0.000192786
