0.0025 -8.44151e-06
0.0125 -1.18957e-05
0.0225 -2.08731e-05
0.035 -3.99285e-05
0.045 -6.15944e-05
0.055 -8.92081e-05
0.065 -0.000122963
0.075 -0.000163031
0.085 -0.000209584
0.095 -0.000262814
0.105 -0.000322832
0.115 -0.00038951
0.125 -0.000462246
0.135 -0.000539833
0.145 -0.000620276
0.155 -0.000700867
0.165 -0.000778332
0.175 -0.000849134
0.185 -0.00090982
0.195 -0.000957256
0.205 -0.000988611
0.215 -0.00100109
0.225 -0.000991604
0.235 -0.000956571
0.245 -0.000891858
0.255 -0.000793273
0.265 -0.000657949
0.275 -0.000486309
0.285 -0.00028379
0.295 -6.05905e-05
0.305 0.000170705
0.315 0.000397824
0.325 0.000609859
0.335 0.000798085
0.345 0.000956724
0.355 0.00108326
0.365 0.001178
0.375 0.00124333
0.385 0.00128286
0.395 0.00130107
0.405 0.00130278
0.415 0.00129249
0.425 0.00127337
0.435 0.00124673
0.445 0.00121269
0.455 0.0011719
0.465 0.0011277
0.475 0.00108716
0.485 0.00106096
0.495 0.00106288
0.5075 0.00112971
0.52 0.00129935
0.5325 0.00160049
0.545 0.00204961
0.5575 0.00264638
0.57 0.00337152
0.5825 0.00418663
0.595 0.00503706
0.6075 0.00586176
0.62 0.00660702
0.6325 0.00723638
0.645 0.00773224
0.6575 0.00809269
0.67 0.00832763
0.6825 0.00845406
0.695 0.00849018
0.7075 0.00845358
0.72 0.00836505
0.7325 0.00825261
0.745 0.0081504
0.7575 0.00809271
0.77 0.00810537
0.7825 0.00819982
0.795 0.00837587
0.8075 0.00862774
0.82 0.00894658
0.8325 0.00932125
0.845 0.00973905
0.8575 0.0101866
0.87 0.0106501
0.8825 0.0111145
0.895 0.0115644
0.9075 0.011986
0.92 0.01237
0.9325 0.0127123
0.945 0.0130119
0.9575 0.0132647
0.97 0.0134579
0.9825 0.0135697
0.995 0.0135752
1.005 0.0134886
1.0175 0.0132552
1.03 0.0128804
1.0425 0.012373
1.055 0.0117496
1.0675 0.0110294
1.08 0.0102334
1.0925 0.00938262
1.105 0.00849612
1.1175 0.00759081
1.13 0.00668112
1.1425 0.00577782
1.155 0.00488888
1.1675 0.00402352
1.18 0.00319707
1.1925 0.00242956
1.205 0.00173661
1.2175 0.00112423
1.23 0.000590772
1.2425 0.00012934
1.255 -0.000271234
1.2675 -0.000627328
1.28 -0.000961949
1.2925 -0.00130609
1.305 -0.00169589
1.3175 -0.00216371
1.33 -0.00272652
1.3425 -0.00338085
1.355 -0.00410846
1.3675 -0.0048886
1.38 -0.00570738
1.3925 -0.00655989
1.405 -0.0074443
1.4175 -0.00835601
1.43 -0.00928841
1.4425 -0.010236
1.455 -0.0111951
1.4675 -0.0121621
1.48 -0.0131305
1.4925 -0.0140864
1.505 -0.0150031
1.5175 -0.0158441
1.53 -0.0165694
1.5425 -0.0171468
1.555 -0.0175571
1.5675 -0.0177978
1.58 -0.0178838
1.5925 -0.0178424
1.605 -0.0177182
1.6175 -0.0175541
1.63 -0.0173764
1.6425 -0.0172272
1.655 -0.0171362
1.6675 -0.0171266
1.68 -0.0172108
1.6925 -0.0173923
1.705 -0.0176624
1.7175 -0.0180105
1.73 -0.0184321
1.7425 -0.0189278
1.755 -0.0195039
1.7675 -0.0201645
1.78 -0.0209027
1.7925 -0.02169
1.805 -0.0224879
1.8175 -0.0232717
1.83 -0.0239948
1.8425 -0.0246225
1.855 -0.0251353
1.8675 -0.0255262
1.88 -0.0257973
1.8925 -0.0259529
1.905 -0.0259931
1.9175 -0.025914
1.93 -0.0257117
1.9425 -0.0253833
1.955 -0.0249291
1.9675 -0.0243549
1.98 -0.0236763
1.9925 -0.0229201
2.0025 -0.0222825
2.0125 -0.0216364
2.0225 -0.0210002
2.0325 -0.0203904
2.0425 -0.019821
2.0525 -0.0193028
2.0625 -0.0188426
2.0725 -0.0184415
2.0825 -0.0180936
2.0925 -0.0177865
2.1025 -0.0175023
2.1125 -0.0172203
2.1225 -0.0169215
2.1325 -0.0165914
2.1425 -0.0162215
2.1525 -0.0158091
2.1625 -0.0153548
2.1725 -0.0148588
2.1825 -0.0143194
2.1925 -0.0137338
2.2025 -0.0130995
2.2125 -0.0124155
2.2225 -0.0116823
2.2325 -0.0109015
2.2425 -0.010075
2.2525 -0.00920281
2.2625 -0.00829267
2.2725 -0.00735178
2.2825 -0.00638971
2.2925 -0.0054165
2.3025 -0.00443901
2.3125 -0.00346886
2.3225 -0.00251711
2.3325 -0.00159587
2.3425 -0.000717306
2.3525 0.000107319
2.3625 0.000868803
2.3725 0.00156169
2.3825 0.00218543
2.3925 0.00274546
2.4025 0.00325147
2.4125 0.00371604
2.4225 0.00415274
2.4325 0.00457469
2.4425 0.00499302
2.4525 0.00541592
2.4625 0.00584818
2.4725 0.00629181
2.4825 0.0067474
2.4925 0.00721545
2.5025 0.00769738
2.5125 0.00819604
2.5225 0.00871523
2.5325 0.00925832
2.5425 0.00982663
2.5525 0.0104185
2.5625 0.0110287
2.5725 0.0116493
2.5825 0.0122708
2.5925 0.012883
2.6025 0.013475
2.6125 0.0140433
2.6225 0.0145855
2.6325 0.0150639
2.6425 0.015483
2.6525 0.0158417
2.6625 0.0161329
2.6725 0.0163619
2.6825 0.0165333
2.6925 0.0166571
2.7025 0.0167403
2.7125 0.0167899
2.7225 0.0168131
2.7325 0.0168177
2.7425 0.0168114
2.7525 0.0168024
2.7625 0.0167973
2.7725 0.0168007
2.7825 0.0168136
2.7925 0.0168339
2.8025 0.016857
2.8125 0.0168774
2.8225 0.01689
2.8325 0.0168903
2.8425 0.0168748
2.8525 0.0168401
2.8625 0.016783
2.8725 0.0167014
2.8825 0.0165946
2.8925 0.0164646
2.9025 0.0163166
2.9125 0.0161582
2.9225 0.0159977
2.9325 0.0158421
2.9425 0.0156946
2.9525 0.0155537
2.9625 0.015414
2.9725 0.015268
2.9825 0.0151078
2.9925 0.0149248
3.0025 0.0147096
3.0125 0.0144521
3.0225 0.0141414
3.0325 0.013767
3.0425 0.0133189
3.0525 0.0127901
3.0625 0.0121793
3.0725 0.0114917
3.0825 0.0107368
3.0925 0.00992589
3.1025 0.0090714
3.1125 0.00818589
3.1225 0.00728213
3.1325 0.00637326
3.1425 0.00547299
3.1525 0.00459527
3.1625 0.00375286
3.1725 0.00295488
3.1825 0.00220557
3.1925 0.00150525
3.2025 0.000851116
3.2125 0.000231618
3.2225 -0.00035133
3.2325 -0.000911869
3.2425 -0.00145726
3.2525 -0.00199518
3.2625 -0.00253164
3.2725 -0.00307195
3.2825 -0.00362045
3.2925 -0.00418099
3.3025 -0.00475676
3.3125 -0.00534963
3.3225 -0.00595986
3.3325 -0.00658638
3.3425 -0.00722724
3.3525 -0.0078801
3.3625 -0.00854275
3.3725 -0.00921366
3.3825 -0.0098922
3.3925 -0.0105784
3.4025 -0.0112722
3.4125 -0.0119725
3.4225 -0.0126759
3.4325 -0.013376
3.4425 -0.0140638
3.4525 -0.0147287
3.4625 -0.0153599
3.4725 -0.0159473
3.4825 -0.0164834
3.4925 -0.0169633
3.5025 -0.0173851
3.5125 -0.0177489
3.5225 -0.0182658
3.5325 -0.0187317
3.5425 -0.0189171
3.5525 -0.0190372
3.5625 -0.0190724
3.5725 -0.0190831
3.5825 -0.0190659
3.5925 -0.0190116
3.6025 -0.0189272
3.6125 -0.0188576
3.6225 -0.018841
3.6325 -0.0188823
3.6425 -0.0189599
3.6525 -0.0191075
3.6625 -0.0193405
3.6725 -0.0196627
3.6825 -0.0200624
3.6925 -0.0205261
3.7025 -0.0210477
3.7125 -0.0216202
3.7225 -0.0222314
3.7325 -0.0228645
3.7425 -0.0235126
3.7525 -0.0241701
3.7625 -0.0248219
3.7725 -0.0254595
3.7825 -0.0260729
3.7925 -0.026651
3.8025 -0.0271828
3.8125 -0.02766
3.8225 -0.0280754
3.8325 -0.0284226
3.8425 -0.0286962
3.8525 -0.0288908
3.8625 -0.0290006
3.8725 -0.0290237
3.8825 -0.0289617
3.8925 -0.028821
3.9025 -0.0286105
3.9125 -0.0283438
3.9225 -0.0280313
3.9325 -0.0276826
3.9425 -0.0273099
3.9525 -0.0269262
3.9625 -0.0265457
3.9725 -0.0261809
3.9825 -0.0258409
3.9925 -0.0255306
4.0025 -0.0252509
4.0125 -0.025
4.0225 -0.0247726
4.0325 -0.0245646
4.0425 -0.0243709
4.0525 -0.0241855
4.0625 -0.0240021
4.0725 -0.0238162
4.0825 -0.0236301
4.0925 -0.0234475
4.1025 -0.023272
4.1125 -0.023106
4.1225 -0.0229492
4.1325 -0.0227987
4.1425 -0.0226507
4.1525 -0.0225004
4.1625 -0.0223439
4.1725 -0.0221795
4.1825 -0.0220074
4.1925 -0.021829
4.2025 -0.0216463
4.2125 -0.021462
4.2225 -0.021278
4.2325 -0.0210943
4.2425 -0.0209079
4.2525 -0.0207129
4.2625 -0.0205012
4.2725 -0.0202644
4.2825 -0.0199924
4.2925 -0.0196764
4.3025 -0.0193087
4.3125 -0.0188841
4.3225 -0.0184007
4.3325 -0.0178597
4.3425 -0.0172667
4.3525 -0.016633
4.3625 -0.0159641
4.3725 -0.0152749
4.3825 -0.0145768
4.3925 -0.0138772
4.4025 -0.0131858
4.4125 -0.0125132
4.4225 -0.0118656
4.4325 -0.0112488
4.4425 -0.0106657
4.4525 -0.0101187
4.4625 -0.00961136
4.4725 -0.00914313
4.4825 -0.00871153
4.4925 -0.00831333
4.5025 -0.00794577
4.5125 -0.00760727
4.5225 -0.00729628
4.5325 -0.00701081
4.5425 -0.00674612
4.5525 -0.00649604
4.5625 -0.00625419
4.5725 -0.00601354
4.5825 -0.00576333
4.5925 -0.00549503
4.6025 -0.00521286
4.6125 -0.00489566
4.6225 -0.00452729
4.6325 -0.00410581
4.6425 -0.00361908
4.6525 -0.00305949
4.6625 -0.0024251
4.6725 -0.00171507
4.6825 -0.000921806
4.6925 -4.43627e-05
4.7025 0.00091536
4.7125 0.00195198
4.7225 0.00305586
4.7325 0.00421195
4.7425 0.00540149
4.7525 0.00660451
4.7625 0.00780045
4.7725 0.00896799
4.7825 0.0100857
4.7925 0.0111333
4.8025 0.0120933
4.8125 0.0129535
4.8225 0.0137095
4.8325 0.014365
4.8425 0.0149296
4.8525 0.0154159
4.8625 0.0158373
4.8725 0.0162079
4.8825 0.0165413
4.8925 0.0168504
4.9025 0.0171464
4.9125 0.0174374
4.9225 0.0177319
4.9325 0.0180582
4.9425 0.018381
4.9525 0.0187004
4.9625 0.0190218
4.9725 0.0193326
4.9825 0.0196358
4.9925 0.0199357
5.0025 0.0202388
5.0125 0.020555
5.0225 0.0208937
5.0325 0.0212627
5.0425 0.0216656
5.0525 0.0221009
5.0625 0.0225632
5.0725 0.0230433
5.0825 0.0235263
5.0925 0.0239969
5.1025 0.0244372
5.1125 0.0248257
5.1225 0.0251548
5.1325 0.0254159
5.1425 0.0256043
5.1525 0.02572
5.1625 0.025766
5.1725 0.0257449
5.1825 0.025661
5.1925 0.0255187
5.2025 0.0253239
5.2125 0.0250829
5.2225 0.0248019
5.2325 0.0244877
5.2425 0.0241467
5.2525 0.0237858
5.2625 0.0234123
5.2725 0.0230337
5.2825 0.0226574
5.2925 0.0222899
5.3025 0.0219364
5.3125 0.0216005
5.3225 0.0212851
5.3325 0.0209918
5.3425 0.0207217
5.3525 0.0204753
5.3625 0.0202531
5.3725 0.0200553
5.3825 0.0198827
5.3925 0.0197352
5.4025 0.0196122
5.4125 0.0195106
5.4225 0.0194248
5.4325 0.0193464
5.4425 0.0192642
5.4525 0.0191668
5.4625 0.0190433
5.4725 0.0188843
5.4825 0.0186817
5.4925 0.0184289
5.5025 0.0181202
5.5125 0.0177509
5.5225 0.0173168
5.5325 0.0168151
5.5425 0.0162457
5.5525 0.0156129
5.5625 0.0149263
5.5725 0.0142003
5.5825 0.0134519
5.5925 0.0126978
5.6025 0.0119521
5.6125 0.0112273
5.6225 0.0105328
5.6325 0.0098728
5.6425 0.00925022
5.6525 0.00866551
5.6625 0.00811618
5.6725 0.00759887
5.6825 0.00711203
5.6925 0.00664883
5.7025 0.00620259
5.7125 0.00576728
5.7225 0.00533485
5.7325 0.00489513
5.7425 0.0044391
5.7525 0.0039597
5.7625 0.00345258
5.7725 0.00291603
5.7825 0.00234921
5.7925 0.00175344
5.8025 0.00113168
5.8125 0.000489186
5.8225 -0.00016601
5.8325 -0.000823835
5.8425 -0.00147375
5.8525 -0.00210724
5.8625 -0.00271879
5.8725 -0.00330585
5.8825 -0.00386906
5.8925 -0.00441153
5.9025 -0.00493743
5.9125 -0.00545066
5.9225 -0.00595431
5.9325 -0.00645089
5.9425 -0.00694289
5.9525 -0.00743331
5.9625 -0.00792572
5.9725 -0.00842378
5.9825 -0.00893063
5.9925 -0.00944858
6.0025 -0.00997891
6.0125 -0.0105223
6.0225 -0.0110774
6.0325 -0.0116453
6.0425 -0.0122311
6.0525 -0.0128353
6.0625 -0.0134607
6.0725 -0.0141083
6.0825 -0.0147768
6.0925 -0.0154646
6.1025 -0.016169
6.1125 -0.0168873
6.1225 -0.017616
6.1325 -0.0183514
6.1425 -0.0190872
6.1525 -0.0198148
6.1625 -0.0205229
6.1725 -0.0211958
6.1825 -0.0218175
6.1925 -0.0223738
6.2025 -0.0228534
6.2125 -0.0232482
6.2225 -0.0235562
6.2325 -0.0237792
6.2425 -0.0239243
6.2525 -0.0240032
6.2625 -0.0240313
6.2725 -0.0240254
6.2825 -0.0240014
6.2925 -0.0239736
6.3025 -0.023954
6.3125 -0.0239524
6.3225 -0.0239759
6.3325 -0.0240296
6.3425 -0.0241163
6.3525 -0.024237
6.3625 -0.0243906
6.3725 -0.0245748
6.3825 -0.0247864
6.3925 -0.0250201
6.4025 -0.0252714
6.4125 -0.0255354
6.4225 -0.0258057
6.4325 -0.026077
6.4425 -0.0263435
6.4525 -0.0265982
6.4625 -0.0268317
6.4725 -0.0270325
6.4825 -0.0271922
6.4925 -0.0273056
6.5025 -0.0273692
6.5125 -0.0273807
6.5225 -0.0273375
6.5325 -0.027237
6.5425 -0.027076
6.5525 -0.0268509
6.5625 -0.0265579
6.5725 -0.0261947
6.5825 -0.025763
6.5925 -0.0252696
6.6025 -0.0247256
6.6125 -0.0241437
6.6225 -0.023536
6.6325 -0.0229131
6.6425 -0.0222844
6.6525 -0.0216583
6.6625 -0.0210433
6.6725 -0.0204464
6.6825 -0.0198723
6.6925 -0.0193235
6.7025 -0.0187975
6.7125 -0.0182954
6.7225 -0.0178186
6.7325 -0.0173692
6.7425 -0.0169488
6.7525 -0.0165564
6.7625 -0.016189
6.7725 -0.0158382
6.7825 -0.0154982
6.7925 -0.0151599
6.8025 -0.0148131
6.8125 -0.0144491
6.8225 -0.01406
6.8325 -0.013641
6.8425 -0.0131892
6.8525 -0.012703
6.8625 -0.0121818
6.8725 -0.0116266
6.8825 -0.0110398
6.8925 -0.010425
6.9025 -0.00978686
6.9125 -0.00913091
6.9225 -0.00846281
6.9325 -0.00778566
6.9425 -0.00710224
6.9525 -0.00641445
6.9625 -0.00572134
6.9725 -0.0050209
6.9825 -0.00431445
6.9925 -0.00359696
7.0025 -0.00286307
7.0125 -0.00211006
7.0225 -0.0013343
7.0325 -0.000534863
7.0425 0.000288091
7.0525 0.00113367
7.0625 0.002
7.0725 0.00288438
7.0825 0.00378272
7.0925 0.00468919
7.1025 0.00559595
7.1125 0.00649315
7.1225 0.00736968
7.1325 0.00821486
7.1425 0.00901958
7.1525 0.00977718
7.1625 0.0104714
7.1725 0.0110922
7.1825 0.0116808
7.1925 0.0122249
7.2025 0.012741
7.2125 0.0132441
7.2225 0.0137414
7.2325 0.0142391
7.2425 0.0147461
7.2525 0.0152694
7.2625 0.0158119
7.2725 0.0163756
7.2825 0.016963
7.2925 0.0175751
7.3025 0.0182108
7.3125 0.0188687
7.3225 0.0195469
7.3325 0.0202426
7.3425 0.0209521
7.3525 0.0216708
7.3625 0.0224548
7.3725 0.0233178
7.3825 0.0240461
7.3925 0.02468
7.4025 0.0253239
7.4125 0.0259723
7.4225 0.026563
7.4325 0.0270959
7.4425 0.0276072
7.4525 0.0280909
7.4625 0.0285266
7.4725 0.0289202
7.4825 0.0292811
7.4925 0.0295885
7.5025 0.0298269
7.5125 0.030034
7.5225 0.0302096
7.5325 0.0303431
7.5425 0.0304485
7.5525 0.0305424
7.5625 0.0306045
7.5725 0.0306481
7.5825 0.0306686
7.5925 0.0306818
7.6025 0.0307043
7.6125 0.030729
7.6225 0.0307603
7.6325 0.0307941
7.6425 0.0308284
7.6525 0.0308631
7.6625 0.0308992
7.6725 0.0309405
7.6825 0.0309892
7.6925 0.0310486
7.7025 0.031128
7.7125 0.0312247
7.7225 0.0313417
7.7325 0.0314857
7.7425 0.0316576
7.7525 0.0318587
7.7625 0.0320893
7.7725 0.0323479
7.7825 0.0326241
7.7925 0.0329069
7.8025 0.033184
7.8125 0.0334424
7.8225 0.0336709
7.8325 0.0338605
7.8425 0.0340058
7.8525 0.0341033
7.8625 0.0341509
7.8725 0.0341472
7.8825 0.0340915
7.8925 0.0339836
7.9025 0.0338229
7.9125 0.0336103
7.9225 0.0333472
7.9325 0.0330353
7.9425 0.0326764
7.9525 0.0322728
7.9625 0.0318279
7.9725 0.0313466
7.9825 0.0308347
7.9925 0.0302984
8.0025 0.0297458
8.015 0.0290474
8.0275 0.0283596
8.04 0.0277017
8.0525 0.0270878
8.065 0.0265238
8.0775 0.0260079
8.09 0.0255345
8.1025 0.025099
8.115 0.0246981
8.1275 0.0243279
8.14 0.0239793
8.1525 0.0236371
8.165 0.023283
8.1775 0.0229021
8.19 0.0224866
8.2025 0.0220354
8.215 0.0215504
8.2275 0.0210343
8.24 0.0204911
8.2525 0.0199273
8.265 0.0193518
8.2775 0.0187727
8.29 0.0181947
8.3025 0.0176169
8.315 0.0170335
8.3275 0.0164369
8.34 0.0158281
8.3525 0.0152041
8.365 0.0145675
8.3775 0.0139224
8.39 0.0132702
8.4025 0.0126128
8.415 0.011952
8.4275 0.0112901
8.44 0.0106264
8.4525 0.00995589
8.465 0.00927305
8.4775 0.00857903
8.49 0.00787775
8.5025 0.00718136
8.515 0.00650092
8.5275 0.00584912
8.54 0.00523524
8.5525 0.00466603
8.565 0.00414113
8.5775 0.00365179
8.59 0.00318146
8.6025 0.00270842
8.615 0.00221088
8.6275 0.00167049
8.64 0.00107443
8.6525 0.000417769
8.665 -0.000296785
8.6775 -0.00105784
8.69 -0.00186
8.7025 -0.00269028
8.715 -0.00352949
8.7275 -0.00436671
8.74 -0.00519032
8.7525 -0.00598879
8.765 -0.00674841
8.7775 -0.00746274
8.79 -0.00812824
8.8025 -0.00874126
8.815 -0.00929916
8.8275 -0.00980225
8.84 -0.0102516
8.8525 -0.0106483
8.865 -0.0109954
8.8775 -0.0112995
8.89 -0.0115693
8.9025 -0.0118164
8.915 -0.0120547
8.9275 -0.0122985
8.94 -0.0125594
8.9525 -0.0128401
8.965 -0.0131437
8.9775 -0.0134583
8.99 -0.0137698
9.0025 -0.0140607
9.015 -0.0143183
9.0275 -0.0145343
9.04 -0.0147044
9.0525 -0.0148251
9.065 -0.0148906
9.0775 -0.0148957
9.09 -0.0148367
9.1025 -0.0147115
9.115 -0.0145149
9.1275 -0.014242
9.14 -0.0138932
9.1525 -0.0134786
9.165 -0.0130142
9.1775 -0.0125188
9.19 -0.0120105
9.2025 -0.0115031
9.215 -0.0110139
9.2275 -0.0105644
9.24 -0.0101793
9.2525 -0.0098781
9.265 -0.00967354
9.2775 -0.00957114
9.29 -0.00956744
9.3025 -0.00964782
9.315 -0.00980178
9.3275 -0.0100101
9.34 -0.0102556
9.3525 -0.0105181
9.365 -0.0107759
9.3775 -0.0110049
9.39 -0.0111826
9.4025 -0.0112921
9.415 -0.011327
9.4275 -0.0112907
9.44 -0.0111894
9.4525 -0.0110314
9.465 -0.0108181
9.4775 -0.01055
9.49 -0.0102317
9.5025 -0.00987606
9.515 -0.00950332
9.5275 -0.00913674
9.54 -0.00879737
9.5525 -0.00850613
9.565 -0.00828096
9.5775 -0.0081388
9.59 -0.00809387
9.6025 -0.00815672
9.615 -0.00833044
9.6275 -0.0086095
9.64 -0.00897679
9.6525 -0.00940935
9.665 -0.00987791
9.6775 -0.0103517
9.69 -0.0108028
9.7025 -0.0112082
9.715 -0.0115526
9.7275 -0.0118275
9.74 -0.0120309
9.7525 -0.0121641
9.765 -0.0122286
9.7775 -0.0122253
9.79 -0.012155
9.8025 -0.012021
9.815 -0.0118255
9.8275 -0.0115749
9.84 -0.01128
9.8525 -0.0109546
9.865 -0.0106129
9.8775 -0.0101929
9.89 -0.00987196
9.9025 -0.00954771
9.915 -0.00932081
9.9275 -0.00913604
9.94 -0.00902449
9.9525 -0.00899765
9.965 -0.00906353
9.9775 -0.00922319
9.99 -0.00946198
10.0025 -0.00977746
10.015 -0.0101498
10.0275 -0.0105631
10.04 -0.010993
10.0525 -0.0114242
10.065 -0.0118429
10.0775 -0.0122447
10.09 -0.012626
10.1025 -0.0129849
10.115 -0.0133188
10.1275 -0.0136247
10.14 -0.0138998
10.1525 -0.014144
10.165 -0.0143598
10.1775 -0.0145521
10.19 -0.0147262
10.2025 -0.0148849
10.215 -0.0150322
10.2275 -0.0151694
10.24 -0.0152968
10.2525 -0.0154109
10.265 -0.0155067
10.2775 -0.015579
10.29 -0.015624
10.3025 -0.0156421
10.315 -0.0156371
10.3275 -0.0156144
10.34 -0.0155807
10.3525 -0.0155412
10.365 -0.0154993
10.3775 -0.0154537
10.39 -0.015401
10.4025 -0.0153359
10.415 -0.0152548
10.4275 -0.0151641
10.44 -0.0150702
10.4525 -0.0149784
10.465 -0.0148931
10.4775 -0.0148172
10.49 -0.014748
10.5025 -0.0146769
10.515 -0.0145917
10.5275 -0.01448
10.54 -0.0143284
10.5525 -0.0141
10.565 -0.0138067
10.5775 -0.0134283
10.59 -0.0129798
10.6025 -0.0124661
10.615 -0.0119058
10.6275 -0.011315
10.64 -0.0107101
10.6525 -0.0101088
10.665 -0.00951737
10.6775 -0.00893969
10.69 -0.00837608
10.7025 -0.00782249
10.715 -0.00727183
10.7275 -0.00671254
10.74 -0.0061357
10.7525 -0.00554025
10.765 -0.00493087
10.7775 -0.00431653
10.79 -0.00370878
10.8025 -0.00311861
10.815 -0.00255637
10.8275 -0.00203066
10.84 -0.00154689
10.8525 -0.0011089
10.865 -0.000714168
10.8775 -0.000357325
10.89 -2.68417e-05
10.9025 0.000285966
10.915 0.000584433
10.9275 0.000863969
10.94 0.00111358
10.9525 0.00132234
10.965 0.00148004
10.9775 0.00158162
10.99 0.00162151
11.0025 0.0015957
11.015 0.00150311
11.0275 0.0013485
11.04 0.0011422
11.0525 0.000895587
11.065 0.000623395
11.0775 0.000339743
11.09 5.56729e-05
11.1025 -0.000222936
11.115 -0.00049512
11.1275 -0.000767979
11.14 -0.00104916
11.1525 -0.00134845
11.165 -0.00166644
11.1775 -0.0020109
11.19 -0.00238184
11.2025 -0.00277317
11.215 -0.00317314
11.2275 -0.00356431
11.24 -0.00393335
11.2525 -0.00427129
11.265 -0.00457594
11.2775 -0.00485078
11.29 -0.00510372
11.3025 -0.00534361
11.315 -0.00557642
11.3275 -0.00580316
11.34 -0.00602195
11.3525 -0.00623038
11.365 -0.00642352
11.3775 -0.00659387
11.39 -0.00673181
11.4025 -0.00682576
11.415 -0.00686469
11.4275 -0.00683964
11.44 -0.00674129
11.4525 -0.0065633
11.465 -0.00630221
11.4775 -0.0059559
11.49 -0.00552392
11.5025 -0.00500573
11.515 -0.00440949
11.5275 -0.00375664
11.54 -0.00306664
11.5525 -0.00236747
11.565 -0.00168294
11.5775 -0.00103916
11.59 -0.000457918
11.6025 4.23894e-05
11.615 0.000445713
11.6275 0.000738121
11.64 0.000911124
11.6525 0.000963336
11.665 0.00090307
11.6775 0.000740306
11.69 0.000493669
11.7025 0.000177913
11.715 -0.000182801
11.7275 -0.000569541
11.74 -0.000959073
11.7525 -0.00133361
11.765 -0.00167743
11.7775 -0.00198391
11.79 -0.00224806
11.8025 -0.00246507
11.815 -0.00263198
11.8275 -0.00275052
11.84 -0.00282216
11.8525 -0.00285821
11.865 -0.00286793
11.8775 -0.00286218
11.89 -0.00285478
11.9025 -0.00285198
11.915 -0.00286412
11.9275 -0.00289688
11.94 -0.00296172
11.9525 -0.00306622
11.965 -0.00321728
11.9775 -0.00341853
11.99 -0.00366924
12.0025 -0.00396498
12.015 -0.00429876
12.0275 -0.0046645
12.04 -0.00505647
12.0525 -0.00546758
12.065 -0.00588573
12.0775 -0.00630422
12.09 -0.0067145
12.1025 -0.00711419
12.115 -0.00750567
12.1275 -0.00788871
12.14 -0.00825757
12.1525 -0.00860209
12.165 -0.00891035
12.1775 -0.00916973
12.19 -0.00936918
12.2025 -0.00950082
12.215 -0.00955969
12.2275 -0.00954265
12.24 -0.00945132
12.2525 -0.0092909
12.265 -0.00906897
12.2775 -0.00879198
12.29 -0.00846475
12.3025 -0.00809391
12.315 -0.00768654
12.3275 -0.00725109
12.34 -0.00680399
12.3525 -0.0063533
12.365 -0.00591373
12.3775 -0.00550064
12.39 -0.00512248
12.4025 -0.0047846
12.415 -0.00448779
12.4275 -0.00422802
12.44 -0.00400014
12.4525 -0.00379723
12.465 -0.00361144
12.4775 -0.00343456
12.49 -0.00325814
12.5025 -0.0030734
12.515 -0.00287124
12.5275 -0.0026384
12.54 -0.0023648
12.5525 -0.00203924
12.565 -0.00165228
12.5775 -0.00119353
12.59 -0.000654475
12.6025 -3.09435e-05
12.615 0.000672798
12.6275 0.00144128
12.64 0.00224843
12.6525 0.00306018
12.665 0.00385023
12.6775 0.00458518
12.69 0.00523535
12.7025 0.00578068
12.715 0.00621168
12.7275 0.00652877
12.74 0.00673562
12.7525 0.00684026
12.765 0.00685533
12.7775 0.00679734
12.79 0.00668595
12.8025 0.00654081
12.815 0.00638104
12.8275 0.0062271
12.84 0.00609591
12.8525 0.00600018
12.865 0.00594812
12.8775 0.00594364
12.89 0.00598741
12.9025 0.00607798
12.915 0.00621307
12.9275 0.00639004
12.94 0.00660544
12.9525 0.00685748
12.965 0.00712521
12.9775 0.007408
12.99 0.00769324
13.0025 0.00797744
13.015 0.00825598
13.0275 0.00852896
13.04 0.00879713
13.0525 0.00906257
13.065 0.00932822
13.0775 0.00959648
13.09 0.00987158
13.1025 0.0101576
13.115 0.0104583
13.1275 0.0107722
13.14 0.01108
13.1525 0.0113877
13.165 0.0116798
13.1775 0.0119524
13.19 0.0122094
13.2025 0.0124552
13.215 0.0126959
13.2275 0.0129355
13.24 0.0131711
13.2525 0.0133975
13.265 0.0136114
13.2775 0.0138087
13.29 0.013982
13.3025 0.0141232
13.315 0.0142263
13.3275 0.0142893
13.34 0.014315
13.3525 0.0143107
13.365 0.0142839
13.3775 0.0142413
13.39 0.0141906
13.4025 0.0141407
13.415 0.0141014
13.4275 0.0140804
13.44 0.0140803
13.4525 0.0140987
13.465 0.0141303
13.4775 0.0141699
13.49 0.014213
13.5025 0.0142559
13.515 0.0142957
13.5275 0.0143303
13.54 0.0143579
13.5525 0.0143747
13.565 0.014373
13.5775 0.0143396
13.59 0.0142585
13.6025 0.0141128
13.615 0.0138883
13.6275 0.0135768
13.64 0.0131791
13.6525 0.0127054
13.665 0.0121726
13.6775 0.0116003
13.69 0.0110078
13.7025 0.010416
13.715 0.00983753
13.7275 0.00928643
13.74 0.00876839
13.7525 0.00828037
13.765 0.00781122
13.7775 0.00734626
13.79 0.00686932
13.8025 0.00637637
13.815 0.00585719
13.8275 0.00530476
13.84 0.00471507
13.8525 0.0040938
13.865 0.0034504
13.8775 0.00280084
13.89 0.00215941
13.9025 0.00153867
13.915 0.000940692
13.9275 0.00035804
13.94 -0.000222981
13.9525 -0.000817012
13.965 -0.00143684
13.9775 -0.00208853
13.99 -0.00277064
14.0025 -0.00347519
14.015 -0.0041915
14.0275 -0.00490757
14.04 -0.0056109
14.0525 -0.00628835
14.065 -0.00692628
14.0775 -0.00751094
14.09 -0.00803008
14.1025 -0.00847511
14.115 -0.00884342
14.1275 -0.00912783
14.14 -0.00932691
14.1525 -0.00945017
14.165 -0.00951206
14.1775 -0.0095274
14.19 -0.00950855
14.2025 -0.00946886
14.215 -0.00941389
14.2275 -0.00934393
14.24 -0.00925749
14.2525 -0.00914765
14.265 -0.00900239
14.2775 -0.00880894
14.29 -0.00855977
14.3025 -0.00824765
14.315 -0.00786956
14.3275 -0.00743051
14.34 -0.006938
14.3525 -0.00640847
14.365 -0.0058617
14.3775 -0.00530881
14.39 -0.00475659
14.4025 -0.00420672
14.415 -0.00366264
14.4275 -0.00312501
14.44 -0.00259426
14.4525 -0.00207076
14.465 -0.0015548
14.4775 -0.00104549
14.49 -0.000543905
14.5025 -5.57686e-05
14.515 0.000409499
14.5275 0.000841954
14.54 0.00123492
14.5525 0.00158873
14.565 0.00190851
14.5775 0.0022068
14.59 0.00250328
14.6025 0.00281994
14.615 0.00317766
14.6275 0.00359266
14.64 0.00407587
14.6525 0.00462784
14.665 0.00524664
14.6775 0.00592634
14.69 0.00666152
14.7025 0.00744677
14.715 0.00827459
14.7275 0.0091343
14.74 0.0100124
14.7525 0.0108929
14.765 0.0117608
14.7775 0.0126051
14.79 0.0134205
14.8025 0.0142054
14.815 0.0149618
14.8275 0.0156942
14.84 0.0164093
14.8525 0.0170934
14.865 0.0177667
14.8775 0.0184418
14.89 0.0191031
14.9025 0.0197678
14.915 0.0204386
14.9275 0.0211167
14.94 0.0218072
14.9525 0.0225162
14.965 0.0232445
14.9775 0.023995
14.99 0.0247697
15.0025 0.0255693
15.015 0.0263908
15.0275 0.027229
15.04 0.0280717
15.0525 0.0289284
15.065 0.0298123
15.0775 0.0307046
15.09 0.0315932
15.1025 0.0324658
15.115 0.0333153
15.1275 0.0341308
15.14 0.0356231
15.1525 0.0362886
15.165 0.0369812
15.1775 0.0375185
15.19 0.03804
15.2025 0.0385194
15.215 0.0389817
15.2275 0.0394523
15.24 0.0398978
15.2525 0.0403418
15.265 0.0407617
15.2775 0.0410208
15.29 0.04128
15.3025 0.0414756
15.315 0.0415657
15.3275 0.0416114
15.34 0.0415944
15.3525 0.0415334
15.365 0.0414374
15.3775 0.0413179
15.39 0.041191
15.4025 0.0410729
15.415 0.0409709
15.4275 0.0408996
15.44 0.0408687
15.4525 0.040882
15.465 0.0409421
15.4775 0.0410467
15.49 0.0411921
15.5025 0.0413732
15.515 0.0415876
15.5275 0.0418363
15.54 0.0421193
15.5525 0.0424344
15.565 0.042776
15.5775 0.0431358
15.59 0.0435036
15.6025 0.0438676
15.615 0.044214
15.6275 0.0445242
15.64 0.0447831
15.6525 0.044979
15.665 0.0451039
15.6775 0.045154
15.69 0.045128
15.7025 0.0450318
15.715 0.0448739
15.7275 0.0446596
15.7375 0.0444495
15.75 0.0441484
15.7625 0.043806
15.775 0.0434139
15.7875 0.043
15.8 0.0425573
15.8125 0.0421035
15.825 0.0416496
15.8375 0.0411958
15.85 0.0407558
15.8625 0.0403418
15.875 0.0399635
15.8875 0.0396274
15.9 0.0393432
15.9125 0.0391092
15.925 0.0389224
15.9375 0.0387783
15.95 0.0386731
15.9625 0.0386039
15.975 0.0385712
15.9875 0.0385777
16 0.038627
16.01 0.0386987
16.02 0.0387988
16.03 0.0389266
16.04 0.0390776
16.05 0.0392431
16.06 0.0394152
16.07 0.039591
16.08 0.0397576
16.09 0.0399068
16.1 0.0400298
16.11 0.0401184
16.12 0.0401668
16.13 0.0401688
16.14 0.0401189
16.15 0.040016
16.16 0.0398582
16.17 0.0396453
16.18 0.0393789
16.19 0.0390616
16.2 0.0386957
16.21 0.0382846
16.22 0.0378315
16.23 0.0373414
16.24 0.0368222
16.25 0.0362822
16.26 0.0357323
16.27 0.0351733
16.28 0.0346168
16.29 0.0340735
16.3 0.0335541
16.31 0.0330719
16.32 0.0326426
16.33 0.0322787
16.34 0.0319906
16.35 0.0317877
16.36 0.0316744
16.37 0.0316515
16.38 0.0317194
16.39 0.0318761
16.4 0.0321143
16.41 0.0324243
16.42 0.0327932
16.43 0.0332059
16.44 0.0336464
16.45 0.0340954
16.46 0.0345375
16.47 0.0349584
16.48 0.0353444
16.49 0.0356839
16.5 0.0359667
16.51 0.0361815
16.52 0.0363302
16.53 0.0364133
16.54 0.0364333
16.55 0.0363934
16.56 0.0362979
16.57 0.0361548
16.58 0.0359726
16.59 0.03576
16.6 0.0355243
16.61 0.0352703
16.62 0.0350062
16.63 0.0347405
16.64 0.0344817
16.65 0.0342386
16.66 0.0340186
16.67 0.0338303
16.68 0.0336807
16.69 0.0335736
16.7 0.0335135
16.71 0.0335002
16.72 0.0335326
16.73 0.0336095
16.74 0.0337282
16.75 0.0338843
16.76 0.0340707
16.77 0.0342775
16.78 0.0344935
16.79 0.0347079
16.8 0.03491
16.81 0.0350892
16.82 0.0352361
16.83 0.0353425
16.84 0.0354007
16.85 0.0354158
16.86 0.035386
16.87 0.0353106
16.88 0.0351907
16.89 0.0350262
16.9 0.0348159
16.91 0.0345576
16.92 0.0342552
16.93 0.0339114
16.94 0.0335304
16.95 0.0331173
16.96 0.0326774
16.97 0.0322172
16.98 0.0317445
16.99 0.031265
17 0.0307792
17.01 0.0302867
17.02 0.0297838
17.03 0.0292651
17.04 0.0287267
17.05 0.0281639
17.06 0.0275727
17.07 0.0269513
17.08 0.0263007
17.09 0.0256231
17.1 0.0249251
17.11 0.0242167
17.12 0.0235058
17.13 0.0227994
17.14 0.0221062
17.15 0.021433
17.16 0.0207851
17.17 0.0201675
17.18 0.019585
17.19 0.0190419
17.2 0.0185414
17.21 0.0180894
17.22 0.01769
17.23 0.0173456
17.24 0.017058
17.25 0.0168271
17.26 0.0166519
17.27 0.0165295
17.28 0.0164561
17.29 0.0164288
17.3 0.0164432
17.31 0.0164931
17.32 0.016572
17.33 0.016673
17.34 0.0167884
17.35 0.0169112
17.36 0.0170361
17.37 0.0171585
17.38 0.0172746
17.39 0.0173805
17.4 0.0174724
17.41 0.0175475
17.42 0.0176028
17.43 0.0176352
17.44 0.0176441
17.45 0.0176288
17.46 0.0175899
17.47 0.01753
17.48 0.0174534
17.49 0.0173633
17.5 0.0172634
17.51 0.0171571
17.52 0.0170485
17.53 0.0169413
17.54 0.0168391
17.55 0.0167451
17.56 0.0166622
17.57 0.0165932
17.58 0.0165396
17.59 0.0165066
17.6 0.0164937
17.61 0.0165021
17.62 0.0165323
17.63 0.0165842
17.64 0.0166561
17.65 0.016746
17.66 0.0168518
17.67 0.0169693
17.68 0.0170944
17.69 0.0172258
17.7 0.0173607
17.71 0.0174947
17.72 0.0176229
17.73 0.0177414
17.74 0.0178467
17.75 0.0179363
17.76 0.018008
17.77 0.018054
17.78 0.0180741
17.79 0.0180638
17.8 0.0180178
17.81 0.0179313
17.82 0.0177994
17.83 0.0176195
17.84 0.0173881
17.85 0.0171034
17.86 0.0167635
17.87 0.0163668
17.88 0.0159141
17.89 0.0154101
17.9 0.0148634
17.91 0.0142835
17.92 0.0136807
17.93 0.0130645
17.94 0.0124427
17.95 0.0118193
17.96 0.0111988
17.97 0.0105841
17.98 0.00997807
17.99 0.00938415
18 0.00880545
18.01 0.00824501
18.02 0.00770512
18.03 0.00718773
18.04 0.00669426
18.05 0.00622596
18.06 0.00578383
18.07 0.00537044
18.08 0.00498657
18.09 0.0046321
18.1 0.00430693
18.11 0.00400857
18.12 0.00373426
18.13 0.00348053
18.14 0.00324286
18.15 0.00301602
18.16 0.00279238
18.17 0.00256332
18.18 0.00232118
18.19 0.00206021
18.2 0.00177872
18.21 0.00147624
18.22 0.00115443
18.23 0.00081641
18.24 0.000465921
18.25 0.000106971
18.26 -0.000256261
18.27 -0.000619801
18.28 -0.000979955
18.29 -0.00133264
18.3 -0.00167338
18.31 -0.00199697
18.32 -0.00229912
18.33 -0.0025769
18.34 -0.00282819
18.35 -0.0030522
18.36 -0.00324891
18.37 -0.003419
18.38 -0.00356394
18.39 -0.00368655
18.4 -0.00379097
18.41 -0.00388152
18.42 -0.00396247
18.43 -0.00403763
18.44 -0.00411054
18.45 -0.00418482
18.46 -0.00426391
18.47 -0.00435023
18.48 -0.00444456
18.49 -0.00454607
18.5 -0.00465268
18.51 -0.0047621
18.52 -0.00487227
18.53 -0.00498139
18.54 -0.00508799
18.55 -0.00519119
18.56 -0.00529058
18.57 -0.00538665
18.58 -0.00548085
18.59 -0.0055751
18.6 -0.00567083
18.61 -0.00576917
18.62 -0.0058693
18.63 -0.00597273
18.64 -0.00607742
18.65 -0.00618473
18.66 -0.00629531
18.67 -0.00640957
18.68 -0.0065271
18.69 -0.00664579
18.7 -0.00676339
18.71 -0.006876
18.72 -0.00697975
18.73 -0.00707424
18.74 -0.00716178
18.75 -0.0072448
18.76 -0.00732784
18.77 -0.00741643
18.78 -0.00751631
18.79 -0.00763328
18.8 -0.00777194
18.81 -0.00793553
18.82 -0.00812666
18.83 -0.00834637
18.84 -0.00859325
18.85 -0.00886361
18.86 -0.00915207
18.87 -0.00945084
18.88 -0.00975367
18.89 -0.0100537
18.9 -0.0103443
18.91 -0.0106211
18.92 -0.0108801
18.93 -0.011117
18.94 -0.0113269
18.95 -0.0115048
18.96 -0.0116459
18.97 -0.0117468
18.98 -0.0118052
18.99 -0.0118208
19 -0.0117944
19.01 -0.0117286
19.02 -0.0116273
19.03 -0.0114948
19.04 -0.0113349
19.05 -0.0111534
19.06 -0.0109564
19.07 -0.0107534
19.08 -0.0105535
19.09 -0.0103627
19.1 -0.0101875
19.11 -0.0100323
19.12 -0.00990086
19.13 -0.00979272
19.14 -0.00970736
19.15 -0.00964364
19.16 -0.00959766
19.17 -0.00957044
19.18 -0.00956076
19.19 -0.00956714
19.2 -0.00958739
19.21 -0.00961936
19.22 -0.00966007
19.23 -0.0097054
19.24 -0.00975223
19.25 -0.00979971
19.26 -0.00984388
19.27 -0.00988144
19.28 -0.0099097
19.29 -0.00992752
19.3 -0.00993214
19.31 -0.00991977
19.32 -0.0098893
19.33 -0.00983933
19.34 -0.009769
19.35 -0.0096787
19.36 -0.0095711
19.37 -0.00945062
19.38 -0.00932162
19.39 -0.00918735
19.4 -0.00905152
19.41 -0.00891814
19.42 -0.00879041
19.43 -0.00867127
19.44 -0.00856379
19.45 -0.00847024
19.46 -0.00839284
19.47 -0.00833424
19.48 -0.00829517
19.49 -0.00827486
19.5 -0.00827274
19.51 -0.00828774
19.52 -0.00831876
19.53 -0.00836489
19.54 -0.0084253
19.55 -0.00849881
19.56 -0.00858327
19.57 -0.00867497
19.58 -0.00877075
19.59 -0.00886832
19.6 -0.0089661
19.61 -0.00906273
19.62 -0.00915648
19.63 -0.00924504
19.64 -0.00932641
19.65 -0.0093989
19.66 -0.00946114
19.67 -0.00951245
19.68 -0.00955238
19.69 -0.00958079
19.7 -0.009598
19.71 -0.0096046
19.72 -0.00960076
19.73 -0.00958635
19.74 -0.00956168
19.75 -0.00952608
19.76 -0.00947849
19.77 -0.00941857
19.78 -0.00934668
19.79 -0.00926442
19.8 -0.00917489
19.81 -0.00908214
19.82 -0.00899096
19.83 -0.0089063
19.84 -0.00883199
19.85 -0.00876971
19.86 -0.00871997
19.87 -0.00868207
19.88 -0.00865417
19.89 -0.00863367
19.9 -0.00861758
19.91 -0.00860089
19.92 -0.00858
19.93 -0.0085519
19.94 -0.00851388
19.95 -0.00846281
19.96 -0.00839544
19.97 -0.00830906
19.98 -0.00820214
19.99 -0.00807461
20 -0.00792723
20.01 -0.00776226
20.02 -0.00758343
20.03 -0.00739565
20.04 -0.00720434
20.05 -0.00701541
20.06 -0.00683408
20.07 -0.00666572
20.08 -0.00651366
20.09 -0.00637962
20.1 -0.00626476
20.11 -0.00616943
20.12 -0.00609363
20.13 -0.00603669
20.14 -0.00599684
20.15 -0.00597214
20.16 -0.00596126
20.17 -0.0059633
20.18 -0.00597706
20.19 -0.00599955
20.2 -0.00602636
20.21 -0.00605344
20.22 -0.00607913
20.23 -0.00610297
20.24 -0.00612649
20.25 -0.00615153
20.26 -0.0061794
20.27 -0.00621058
20.28 -0.00624501
20.29 -0.00628245
20.3 -0.00632175
20.31 -0.00636199
20.32 -0.00640125
20.33 -0.00643616
20.34 -0.00646553
20.35 -0.00648891
20.36 -0.00650541
20.37 -0.00651349
20.38 -0.00651229
20.39 -0.00650066
20.4 -0.00647864
20.41 -0.00644667
20.42 -0.00640775
20.43 -0.00636493
20.44 -0.00632119
20.45 -0.00627883
20.46 -0.00624007
20.47 -0.00620555
20.48 -0.00617523
20.49 -0.00614949
20.5 -0.00612694
20.51 -0.00610569
20.52 -0.00608378
20.53 -0.00605935
20.54 -0.0060301
20.55 -0.00599382
20.56 -0.005949
20.57 -0.0058938
20.58 -0.00582752
20.59 -0.00574958
20.6 -0.00565911
20.61 -0.00555511
20.62 -0.00543679
20.63 -0.00530374
20.64 -0.0051561
20.65 -0.00499526
20.66 -0.00482353
20.67 -0.00464379
20.68 -0.00445871
20.69 -0.0042701
20.7 -0.00407862
20.71 -0.0038834
20.72 -0.00368273
20.73 -0.00347468
20.74 -0.00325748
20.75 -0.00302972
20.76 -0.00279161
20.77 -0.0025416
20.78 -0.00227993
20.79 -0.00200774
20.8 -0.0017255
20.81 -0.00143389
20.82 -0.00113303
20.83 -0.000822732
20.84 -0.000503011
20.85 -0.000174152
20.86 0.000162622
20.87 0.000505573
20.88 0.000853288
20.89 0.00120479
20.9 0.00155948
20.91 0.00191707
20.92 0.00227643
20.93 0.00263467
20.94 0.00298925
20.95 0.00333653
20.96 0.00367294
20.97 0.00399487
20.98 0.00429899
20.99 0.00458232
21 0.00484208
21.01 0.00507628
21.02 0.00528365
21.03 0.00546437
21.04 0.0056195
21.05 0.00575106
21.06 0.00586154
21.07 0.00595365
21.08 0.00603049
21.09 0.0060955
21.1 0.00615244
21.11 0.00620518
21.12 0.00625789
21.13 0.00631498
21.14 0.00638092
21.15 0.00645987
21.16 0.00655484
21.17 0.00666807
21.18 0.00679922
21.19 0.006946
21.2 0.00710515
21.21 0.00727205
21.22 0.00744167
21.23 0.00760951
21.24 0.00777115
21.25 0.00792273
21.26 0.00806102
21.27 0.00818334
21.28 0.00828776
21.29 0.00837271
21.3 0.00843726
21.31 0.00848126
21.32 0.00850532
21.33 0.0085109
21.34 0.00850002
21.35 0.00847474
21.36 0.00843643
21.37 0.00838536
21.38 0.00832198
21.39 0.00824601
21.4 0.00815778
21.41 0.0080578
21.42 0.00794657
21.43 0.00782429
21.44 0.00769121
21.45 0.00754742
21.46 0.00739104
21.47 0.00722236
21.48 0.00704095
21.49 0.00684726
21.5 0.00664195
21.51 0.00642616
21.52 0.00620177
21.53 0.00597061
21.54 0.0057343
21.55 0.00549428
21.56 0.0052518
21.57 0.00500815
21.58 0.00476485
21.59 0.00452414
21.6 0.00428812
21.61 0.00405846
21.62 0.00384437
21.63 0.0036482
21.64 0.00347318
21.65 0.00332062
21.66 0.00319222
21.67 0.00308922
21.68 0.00301252
21.69 0.00296305
21.7 0.00294085
21.71 0.00294427
21.72 0.00297147
21.73 0.0030203
21.74 0.00308862
21.75 0.00317569
21.76 0.00328226
21.77 0.00340982
21.78 0.00356
21.79 0.00373203
21.8 0.00392272
21.81 0.00413076
21.82 0.00435289
21.83 0.00458527
21.84 0.00482453
21.85 0.00506721
21.86 0.0053078
21.87 0.00554341
21.88 0.00577206
21.89 0.0059922
21.9 0.00620472
21.91 0.00641185
21.92 0.006616
21.93 0.00682008
21.94 0.00702769
21.95 0.00724182
21.96 0.00746501
21.97 0.00770013
21.98 0.00794848
21.99 0.00821028
22 0.00848625
22.01 0.00877663
22.02 0.0090847
22.03 0.00941239
22.04 0.00975966
22.05 0.0101281
22.06 0.0105152
22.07 0.0109174
22.08 0.011331
22.09 0.0117517
22.1 0.0121749
22.11 0.0125965
22.12 0.0130133
22.13 0.0134213
22.14 0.0138235
22.15 0.0142201
22.16 0.0146132
22.17 0.0150048
22.18 0.0153966
22.19 0.0157896
22.2 0.0161828
22.21 0.016575
22.22 0.0169639
22.23 0.017347
22.24 0.0177222
22.25 0.0180874
22.26 0.0184406
22.27 0.0187794
22.28 0.0191013
22.29 0.019404
22.3 0.0196862
22.31 0.0199459
22.32 0.020181
22.33 0.0203891
22.34 0.0205691
22.35 0.0207199
22.36 0.0208403
22.37 0.0209308
22.38 0.0209914
22.39 0.0210224
22.4 0.021024
22.41 0.0209964
22.42 0.0209402
22.43 0.0208557
22.44 0.0207429
22.45 0.0206026
22.46 0.0204358
22.47 0.0202454
22.48 0.0200297
22.49 0.0197904
22.5 0.0195286
22.51 0.0192477
22.52 0.0189529
22.53 0.0186487
22.54 0.0183397
22.55 0.018031
22.56 0.017727
22.57 0.0174316
22.58 0.017148
22.59 0.0168757
22.6 0.0166151
22.61 0.0163718
22.62 0.016144
22.63 0.0159323
22.64 0.0157343
22.65 0.0155498
22.66 0.0153773
22.67 0.0152134
22.68 0.0150556
22.69 0.0149
22.7 0.0147429
22.71 0.0145804
22.72 0.0144086
22.73 0.014225
22.74 0.0140283
22.75 0.0138189
22.76 0.013598
22.77 0.0133672
22.78 0.0131278
22.79 0.0128808
22.8 0.0126275
22.81 0.0123695
22.82 0.0121099
22.83 0.0118523
22.84 0.0115991
22.85 0.0113542
22.86 0.0111232
22.87 0.0109119
22.88 0.0107254
22.89 0.0105688
22.9 0.0104457
22.91 0.0103598
22.92 0.010315
22.93 0.0103148
22.94 0.0103623
22.95 0.0104606
22.96 0.01061
22.97 0.0108112
22.98 0.0110643
22.99 0.011369
23 0.0117236
23.01 0.0121244
23.02 0.0125671
23.03 0.0130484
23.04 0.0135641
23.05 0.01411
23.06 0.0146817
23.07 0.015275
23.08 0.0158869
23.09 0.0165122
23.1 0.0171465
23.11 0.0177851
23.12 0.0184237
23.13 0.0190579
23.14 0.0196836
23.15 0.0202962
23.16 0.0208909
23.17 0.0214625
23.18 0.022005
23.19 0.022517
23.2 0.0229981
23.21 0.023448
23.22 0.0238679
23.23 0.0242589
23.24 0.0246228
23.25 0.0249624
23.26 0.0252775
23.27 0.0255731
23.28 0.0258512
23.29 0.0261128
23.3 0.02636
23.31 0.0265939
23.32 0.0268162
23.33 0.027029
23.34 0.0272356
23.35 0.027439
23.36 0.0276411
23.37 0.027844
23.38 0.02805
23.39 0.0282613
23.4 0.028479
23.41 0.0287038
23.42 0.0289349
23.43 0.029171
23.44 0.0294089
23.45 0.0296463
23.46 0.0298822
23.47 0.030112
23.48 0.0303317
23.49 0.0305377
23.5 0.0307258
23.51 0.0308921
23.52 0.0310338
23.53 0.0311484
23.54 0.0312342
23.55 0.03129
23.56 0.0313142
23.57 0.0313054
23.58 0.031262
23.59 0.0311832
23.6 0.0310682
23.61 0.0309166
23.62 0.0307286
23.63 0.0305046
23.64 0.0302459
23.65 0.0299543
23.66 0.0296326
23.67 0.0292812
23.68 0.0289021
23.69 0.0284965
23.7 0.0280669
23.71 0.027615
23.72 0.0271435
23.73 0.0266564
23.74 0.0261589
23.75 0.0256573
23.76 0.0251584
23.77 0.0246694
23.78 0.0241953
23.79 0.0237365
23.8 0.0233002
23.81 0.0228911
23.82 0.0225112
23.83 0.0221638
23.84 0.0218508
23.85 0.0215746
23.86 0.0213349
23.87 0.0211313
23.88 0.0209626
23.89 0.0208262
23.9 0.0207196
23.91 0.0206401
23.92 0.0205842
23.93 0.0205504
23.94 0.0205367
23.95 0.0205416
23.96 0.0205639
23.97 0.0206029
23.98 0.0206578
23.99 0.0207279
24 0.0208133
24.01 0.0209122
24.02 0.0210232
24.03 0.0211445
24.04 0.0212775
24.05 0.0214213
24.06 0.0215764
24.07 0.0217427
24.08 0.021919
24.09 0.0221033
24.1 0.0222925
24.11 0.0224835
24.12 0.0226739
24.13 0.0228615
24.14 0.0230452
24.15 0.0232261
24.16 0.0234051
24.17 0.0235846
24.18 0.0237667
24.19 0.0239538
24.2 0.0241478
24.21 0.0243503
24.22 0.0245631
24.23 0.0247884
24.24 0.0250301
24.25 0.025293
24.26 0.0255821
24.27 0.0259022
24.28 0.0262567
24.29 0.0266472
24.3 0.0270741
24.31 0.027536
24.32 0.0280323
24.33 0.0285614
24.34 0.0291211
24.35 0.0297084
24.36 0.0303183
24.37 0.0309438
24.38 0.0315767
24.39 0.032208
24.4 0.0328287
24.41 0.0334256
24.42 0.0339971
24.43 0.0345389
24.44 0.0350444
24.45 0.0355094
24.46 0.0359299
24.47 0.0363029
24.48 0.0366253
24.49 0.0368948
24.5 0.0371107
24.51 0.037272
24.52 0.03738
24.53 0.0374385
24.54 0.03745
24.55 0.0374186
24.56 0.0373481
24.57 0.0372398
24.58 0.0370958
24.59 0.0369197
24.6 0.0367162
24.61 0.0364878
24.62 0.0362405
24.63 0.0359792
24.64 0.0357097
24.65 0.0354377
24.66 0.0351686
24.67 0.0349075
24.68 0.0346592
24.69 0.0344261
24.7 0.0342099
24.71 0.0340121
24.72 0.0338327
24.73 0.0336718
24.74 0.0335293
24.75 0.033405
24.76 0.0332983
24.77 0.0332072
24.78 0.0331239
24.79 0.0330505
24.8 0.0329852
24.81 0.0329244
24.82 0.0328617
24.83 0.0327958
24.84 0.0327217
24.85 0.0326355
24.86 0.0325348
24.87 0.0324161
24.88 0.0322772
24.89 0.0321163
24.9 0.0319321
24.91 0.0317232
24.92 0.0314895
24.93 0.0312315
24.94 0.0309497
24.95 0.0306458
24.96 0.0303215
24.97 0.0299792
24.98 0.0296226
24.99 0.0292552
25 0.0288783
25.01 0.0284969
25.02 0.0281157
25.03 0.0277391
25.04 0.0273713
25.05 0.0270173
25.06 0.0266822
25.07 0.0263684
25.08 0.0260798
25.09 0.0258199
25.1 0.0255915
25.11 0.025398
25.12 0.0252422
25.13 0.0251263
25.14 0.0250509
25.15 0.0250146
25.16 0.0250152
25.17 0.025049
25.18 0.0251108
25.19 0.0251945
25.2 0.0252946
25.21 0.0254049
25.22 0.0255196
25.23 0.0256371
25.24 0.0257537
25.25 0.0258674
25.26 0.025976
25.27 0.0260789
25.28 0.0261767
25.29 0.0262706
25.3 0.0263607
25.31 0.0264458
25.32 0.0265257
25.33 0.0266001
25.34 0.0266686
25.35 0.026731
25.36 0.0267864
25.37 0.0268343
25.38 0.0268756
25.39 0.0269103
25.4 0.0269387
25.41 0.0269617
25.42 0.0269787
25.43 0.0269904
25.44 0.0269976
25.45 0.0270019
25.46 0.0270045
25.47 0.027007
25.48 0.0270108
25.49 0.0270169
25.5 0.0270267
25.51 0.0270417
25.52 0.0270628
25.53 0.0270908
25.54 0.0271257
25.55 0.0271671
25.56 0.0272157
25.57 0.0272691
25.58 0.0273275
25.59 0.0273904
25.6 0.0274563
25.61 0.0275243
25.62 0.0275934
25.63 0.0276624
25.64 0.0277296
25.65 0.0277922
25.66 0.0278485
25.67 0.0278974
25.68 0.0279389
25.69 0.0279714
25.7 0.0279927
25.71 0.0280008
25.72 0.0279943
25.73 0.0279721
25.74 0.027933
25.75 0.0278758
25.76 0.0277992
25.77 0.0277024
25.78 0.027585
25.79 0.0274465
25.8 0.027287
25.81 0.0271063
25.82 0.0269047
25.83 0.0266829
25.84 0.0264418
25.85 0.0261824
25.86 0.0259058
25.87 0.0256131
25.88 0.0253056
25.89 0.024985
25.9 0.024653
25.91 0.0243114
25.92 0.0239618
25.93 0.0236063
25.94 0.0232468
25.95 0.022885
25.96 0.0225226
25.97 0.0221609
25.98 0.0218013
25.99 0.0214449
26 0.0210927
26.01 0.0207457
26.02 0.0204047
26.03 0.0200706
26.04 0.0197432
26.05 0.019423
26.06 0.0191101
26.07 0.0188044
26.08 0.0185055
26.09 0.0182132
26.1 0.0179268
26.11 0.0176457
26.12 0.0173695
26.13 0.0170971
26.14 0.0168278
26.15 0.016561
26.16 0.0162959
26.17 0.0160318
26.18 0.015768
26.19 0.0155039
26.2 0.0152389
26.21 0.0149728
26.22 0.0147053
26.23 0.0144363
26.24 0.0141658
26.25 0.0138939
26.26 0.0136206
26.27 0.0133464
26.28 0.0130718
26.29 0.0127976
26.3 0.0125243
26.31 0.0122528
26.32 0.0119841
26.33 0.0117189
26.34 0.0114584
26.35 0.0112039
26.36 0.0109564
26.37 0.0107174
26.38 0.0104877
26.39 0.0102683
26.4 0.0100602
26.41 0.00986424
26.42 0.0096814
26.43 0.00951236
26.44 0.00935761
26.45 0.00921757
26.46 0.0090924
26.47 0.00898208
26.48 0.00888652
26.49 0.00880542
26.5 0.00873828
26.51 0.00868446
26.52 0.00864321
26.53 0.00861356
26.54 0.00859446
26.55 0.00858477
26.56 0.00858321
26.57 0.00858839
26.58 0.00859891
26.59 0.00861339
26.6 0.00863043
26.61 0.00864863
26.62 0.00866662
26.63 0.00868313
26.64 0.00869696
26.65 0.00870706
26.66 0.00871268
26.67 0.00871294
26.68 0.00870706
26.69 0.00869443
26.7 0.00867457
26.71 0.00864719
26.72 0.00861212
26.73 0.00856936
26.74 0.00851894
26.75 0.0084611
26.76 0.0083962
26.77 0.00832472
26.78 0.00824725
26.79 0.00816419
26.8 0.00807599
26.81 0.0079843
26.82 0.00788864
26.83 0.00779031
26.84 0.00768982
26.85 0.00758755
26.86 0.00748418
26.87 0.00738035
26.88 0.00727639
26.89 0.00717254
26.9 0.00706901
26.91 0.00696588
26.92 0.00686312
26.93 0.00676069
26.94 0.00665835
26.95 0.00655571
26.96 0.00645229
26.97 0.00634706
26.98 0.00623916
26.99 0.00612899
27 0.0060156
27.01 0.00589838
27.02 0.00577648
27.03 0.00564914
27.04 0.00551549
27.05 0.00537477
27.06 0.00522638
27.07 0.00506975
27.08 0.00490382
27.09 0.00472814
27.1 0.00454249
27.11 0.00434651
27.12 0.00413998
27.13 0.00392274
27.14 0.00369447
27.15 0.00345565
27.16 0.00320648
27.17 0.00294772
27.18 0.00268014
27.19 0.00240455
27.2 0.0021221
27.21 0.00183405
27.22 0.00154179
27.23 0.00124726
27.24 0.000951478
27.25 0.000655514
27.26 0.000360787
27.27 6.93077e-05
27.28 -0.000217624
27.29 -0.000498677
27.3 -0.000772576
27.31 -0.00103829
27.32 -0.00129488
27.33 -0.00154143
27.34 -0.00177715
27.35 -0.0020016
27.36 -0.00221437
27.37 -0.0024152
27.38 -0.00260414
27.39 -0.0027813
27.4 -0.00294704
27.41 -0.00310161
27.42 -0.0032452
27.43 -0.00337907
27.44 -0.00350386
27.45 -0.00362008
27.46 -0.00372869
27.47 -0.00383064
27.48 -0.00392667
27.49 -0.00401769
27.5 -0.00410457
27.51 -0.00418796
27.52 -0.00426813
27.53 -0.00434546
27.54 -0.00442058
27.55 -0.00449361
27.56 -0.00456461
27.57 -0.00463364
27.58 -0.00470042
27.59 -0.00476469
27.6 -0.0048263
27.61 -0.00488478
27.62 -0.00493959
27.63 -0.00499023
27.64 -0.00503622
27.65 -0.00507695
27.66 -0.00511182
27.67 -0.0051403
27.68 -0.00516177
27.69 -0.00517566
27.7 -0.00518146
27.71 -0.00517878
27.72 -0.00516725
27.73 -0.00514664
27.74 -0.00511682
27.75 -0.00507776
27.76 -0.0050296
27.77 -0.00497258
27.78 -0.00490705
27.79 -0.00483376
27.8 -0.00475329
27.81 -0.00466641
27.82 -0.00457395
27.83 -0.0044769
27.84 -0.00437629
27.85 -0.00427305
27.86 -0.00416953
27.87 -0.00406954
27.88 -0.00397069
27.89 -0.00387446
27.9 -0.003782
27.91 -0.00369522
27.92 -0.00361518
27.93 -0.00354248
27.94 -0.0034776
27.95 -0.00342138
27.96 -0.0033744
27.97 -0.00333667
27.98 -0.00330825
27.99 -0.00328905
28 -0.00327875
28.01 -0.00327667
28.02 -0.00328194
28.03 -0.00329404
28.04 -0.00331151
28.05 -0.00333361
28.06 -0.00335884
28.07 -0.00338593
28.08 -0.00341361
28.09 -0.00344067
28.1 -0.00346635
28.11 -0.00349034
28.12 -0.00351114
28.13 -0.00352814
28.14 -0.0035414
28.15 -0.00355026
28.16 -0.00355446
28.17 -0.00355416
28.18 -0.00354891
28.19 -0.00353889
28.2 -0.00352452
28.21 -0.00350651
28.22 -0.00348543
28.23 -0.00346172
28.24 -0.00343583
28.25 -0.00340869
28.26 -0.00338062
28.27 -0.00335253
28.28 -0.00332501
28.29 -0.00329863
28.3 -0.00327416
28.31 -0.00325196
28.32 -0.00323243
28.33 -0.00321582
28.34 -0.00320189
28.35 -0.00319062
28.36 -0.00318203
28.37 -0.00317617
28.38 -0.00317262
28.39 -0.0031708
28.4 -0.00316998
28.41 -0.0031696
28.42 -0.00316911
28.43 -0.00316783
28.44 -0.00316506
28.45 -0.00316006
28.46 -0.00315187
28.47 -0.00314014
28.48 -0.00312422
28.49 -0.00310335
28.5 -0.00307674
28.51 -0.00304385
28.52 -0.00300417
28.53 -0.00295717
28.54 -0.00290243
28.55 -0.00283958
28.56 -0.00276824
28.57 -0.0026882
28.58 -0.0025994
28.59 -0.00250181
28.6 -0.00239553
28.61 -0.00228079
28.62 -0.00215791
28.63 -0.00202727
28.64 -0.00188921
28.65 -0.00174456
28.66 -0.00159411
28.67 -0.00143847
28.68 -0.00127848
28.69 -0.00111509
28.7 -0.0009501
28.71 -0.000783708
28.72 -0.000616053
28.73 -0.000448199
28.74 -0.000280841
28.75 -0.000114681
28.76 4.95444e-05
28.77 0.000211147
28.78 0.000369475
28.79 0.000524224
28.8 0.000675052
28.81 0.000821588
28.82 0.000963654
28.83 0.00110099
28.84 0.00123361
28.85 0.00136157
28.86 0.00148499
28.87 0.00160395
28.88 0.0017185
28.89 0.00182935
28.9 0.0019366
28.91 0.00204039
28.92 0.0021415
28.93 0.00224005
28.94 0.00233631
28.95 0.00243069
28.96 0.00252351
28.97 0.00261506
28.98 0.00270563
28.99 0.00279549
29 0.00288484
29.01 0.00297381
29.02 0.00306246
29.03 0.0031508
29.04 0.00323882
29.05 0.00332645
29.06 0.00341362
29.07 0.00350015
29.08 0.0035857
29.09 0.00367008
29.1 0.00375286
29.11 0.00383367
29.12 0.00391218
29.13 0.00398802
29.14 0.0040608
29.15 0.00413012
29.16 0.00419558
29.17 0.00425683
29.18 0.00431348
29.19 0.00436531
29.2 0.00441209
29.21 0.00445373
29.22 0.00449007
29.23 0.00452116
29.24 0.0045471
29.25 0.00456793
29.26 0.0045838
29.27 0.00459495
29.28 0.0046018
29.29 0.00460473
29.3 0.00460414
29.31 0.00460053
29.32 0.00459435
29.33 0.00458606
29.34 0.00457632
29.35 0.00456567
29.36 0.00455458
29.37 0.00454378
29.38 0.00453376
29.39 0.00452471
29.4 0.00451721
29.41 0.00451165
29.42 0.0045084
29.43 0.00450782
29.44 0.00451013
29.45 0.00451555
29.46 0.00452422
29.47 0.00453625
29.48 0.00455172
29.49 0.00457065
29.5 0.00459297
29.51 0.00461859
29.52 0.00464735
29.53 0.00467907
29.54 0.00471351
29.55 0.0047504
29.56 0.00478946
29.57 0.00483038
29.58 0.00487292
29.59 0.00491673
29.6 0.00496144
29.61 0.0050068
29.62 0.00505253
29.63 0.00509839
29.64 0.00514413
29.65 0.00518957
29.66 0.00523456
29.67 0.00527903
29.68 0.00532293
29.69 0.00536625
29.7 0.00540904
29.71 0.00545139
29.72 0.00549344
29.73 0.00553537
29.74 0.00557736
29.75 0.00561967
29.76 0.00566269
29.77 0.00570679
29.78 0.00575205
29.79 0.00579891
29.8 0.00584764
29.81 0.00589858
29.82 0.00595204
29.83 0.00600834
29.84 0.00606774
29.85 0.00613048
29.86 0.00619674
29.87 0.00626666
29.88 0.00634033
29.89 0.00641781
29.9 0.00649904
29.91 0.00658397
29.92 0.00667239
29.93 0.00676402
29.94 0.00685856
29.95 0.00695564
29.96 0.00705476
29.97 0.00715551
29.98 0.00725738
29.99 0.00735981
30 0.00746229
30.01 0.00756424
30.02 0.00766513
30.03 0.00776443
30.04 0.00786167
30.05 0.00795635
30.06 0.00804791
30.07 0.00813561
30.08 0.0082199
30.09 0.00830034
30.1 0.00837667
30.11 0.00844883
30.12 0.00851669
30.13 0.00858019
30.14 0.00863937
30.15 0.0086943
30.16 0.00874512
30.17 0.00879201
30.18 0.00883512
30.19 0.00887473
30.2 0.00891099
30.21 0.00894443
30.22 0.00897509
30.23 0.0090034
30.24 0.00902974
30.25 0.00905415
30.26 0.00907687
30.27 0.00909827
30.28 0.00911852
30.29 0.00913781
30.3 0.00915637
30.31 0.00917427
30.32 0.00919155
30.33 0.00920824
30.34 0.00922447
30.35 0.00924017
30.36 0.0092553
30.37 0.00926978
30.38 0.0092834
30.39 0.00929603
30.4 0.00930753
30.41 0.00931768
30.42 0.00932632
30.43 0.00933331
30.44 0.00933838
30.45 0.00934132
30.46 0.00934198
30.47 0.00934008
30.48 0.00933557
30.49 0.00932827
30.5 0.00931806
30.51 0.00930485
30.52 0.00928859
30.53 0.00926924
30.54 0.00924685
30.55 0.00922149
30.56 0.00919332
30.57 0.00916237
30.58 0.00912884
30.59 0.00909291
30.6 0.00905482
30.61 0.00901484
30.62 0.00897324
30.63 0.00893034
30.64 0.00888645
30.65 0.0088419
30.66 0.00879704
30.67 0.00875222
30.68 0.00870779
30.69 0.00866409
30.7 0.00862144
30.71 0.00858013
30.72 0.00854046
30.73 0.00850267
30.74 0.00846698
30.75 0.0084336
30.76 0.00840267
30.77 0.00837432
30.78 0.00834863
30.79 0.00832564
30.8 0.00830536
30.81 0.00828776
30.82 0.00827278
30.83 0.00826033
30.84 0.00825027
30.85 0.00824246
30.86 0.00823672
30.87 0.00823282
30.88 0.0082305
30.89 0.00822954
30.9 0.00822971
30.91 0.00823081
30.92 0.00823259
30.93 0.00823483
30.94 0.00823734
30.95 0.00823995
30.96 0.00824252
30.97 0.00824495
30.98 0.00824713
30.99 0.00824901
31 0.00825056
31.01 0.00825176
31.02 0.00825265
31.03 0.00825332
31.04 0.00825384
31.05 0.0082543
31.06 0.00825482
31.07 0.00825555
31.08 0.0082566
31.09 0.00825815
31.1 0.00826036
31.11 0.00826337
31.12 0.00826733
31.13 0.0082724
31.14 0.00827866
31.15 0.0082862
31.16 0.00829511
31.17 0.00830542
31.18 0.00831714
31.19 0.00833025
31.2 0.0083447
31.21 0.0083604
31.22 0.00837723
31.23 0.00839502
31.24 0.00841361
31.25 0.00843278
31.26 0.0084523
31.27 0.00847192
31.28 0.00849136
31.29 0.00851035
31.3 0.00852859
31.31 0.0085458
31.32 0.0085617
31.33 0.00857599
31.34 0.00858842
31.35 0.00859874
31.36 0.00860667
31.37 0.00861203
31.38 0.00861468
31.39 0.00861448
31.4 0.0086113
31.41 0.00860506
31.42 0.00859575
31.43 0.00858337
31.44 0.00856794
31.45 0.00854952
31.46 0.00852821
31.47 0.00850383
31.48 0.00847691
31.49 0.00844761
31.5 0.00841611
31.51 0.0083826
31.52 0.00834733
31.53 0.00831054
31.54 0.00827242
31.55 0.00823322
31.56 0.00819315
31.57 0.00815242
31.58 0.00811121
31.59 0.0080697
31.6 0.00802803
31.61 0.00798631
31.62 0.00794461
31.63 0.00790302
31.64 0.00786157
31.65 0.00782025
31.66 0.00777903
31.67 0.0077379
31.68 0.00769676
31.69 0.00765557
31.7 0.00761428
31.71 0.0075727
31.72 0.00753077
31.73 0.00748839
31.74 0.00744541
31.75 0.00740182
31.76 0.00735753
31.77 0.00731242
31.78 0.00726652
31.79 0.0072198
31.8 0.00717223
31.81 0.00712383
31.82 0.00707463
31.83 0.00702468
31.84 0.0069741
31.85 0.00692298
31.86 0.00687148
31.87 0.00681974
31.88 0.00676793
31.89 0.00671624
31.9 0.00666488
31.91 0.00661404
31.92 0.00656396
31.93 0.00651485
31.94 0.00646702
31.95 0.00642054
31.96 0.00637556
31.97 0.00633231
31.98 0.00629093
31.99 0.00625164
32 0.00621447
32.0125 0.00617119
32.025 0.00613161
32.0375 0.00609578
32.05 0.00606379
32.0625 0.00603568
32.075 0.00601135
32.0875 0.0059907
32.1 0.00597351
32.1125 0.00595953
32.125 0.00594849
32.1375 0.00594006
32.15 0.00593388
32.1625 0.00592959
32.175 0.00592682
32.1875 0.00592519
32.2 0.00592433
32.2125 0.00592387
32.225 0.00592352
32.2375 0.00592299
32.25 0.00592204
32.2625 0.00592048
32.275 0.00591815
32.2875 0.00591488
32.3 0.00591064
32.3125 0.00590542
32.325 0.00589925
32.3375 0.00589221
32.35 0.0058844
32.3625 0.00587592
32.375 0.00586694
32.3875 0.00585765
32.4 0.00584825
32.4125 0.00583891
32.425 0.00582977
32.4375 0.005821
32.45 0.00581271
32.4625 0.00580501
32.475 0.00579794
32.4875 0.0057915
32.5 0.00578566
32.5125 0.00578035
32.525 0.00577545
32.5375 0.00577079
32.55 0.00576616
32.5625 0.00576133
32.575 0.00575606
32.5875 0.00575008
32.6 0.00574309
32.6125 0.00573485
32.625 0.00572503
32.6375 0.0057134
32.65 0.00569975
32.6625 0.00568388
32.675 0.00566565
32.6875 0.00564492
32.7 0.00562162
32.7125 0.00559573
32.725 0.00556734
32.7375 0.00553657
32.75 0.00550362
32.7625 0.00546872
32.775 0.0054322
32.7875 0.00539444
32.8 0.00535581
32.8125 0.00531658
32.825 0.00527742
32.8375 0.0052386
32.85 0.00520062
32.8625 0.00516388
32.875 0.00512864
32.8875 0.00509529
32.9 0.00506407
32.9125 0.00503517
32.925 0.00500872
32.9375 0.00498481
32.95 0.00496344
32.9625 0.00494464
32.975 0.00492826
32.9875 0.00491412
33 0.00490207
33.0125 0.00489191
33.025 0.00488342
33.0375 0.00487632
33.05 0.00487037
33.0625 0.00486538
33.075 0.00486115
33.0875 0.00485749
33.1 0.00485427
33.1125 0.00485139
33.125 0.00484883
33.1375 0.0048466
33.15 0.00484468
33.1625 0.00484316
33.175 0.00484217
33.1875 0.00484192
33.2 0.0048426
33.2125 0.00484444
33.225 0.00484765
33.2375 0.00485246
33.25 0.00485907
33.2625 0.0048677
33.275 0.00487852
33.2875 0.00489163
33.3 0.00490699
33.3125 0.00492455
33.325 0.00494418
33.3375 0.00496575
33.35 0.00498904
33.3625 0.00501381
33.375 0.00503975
33.3875 0.00506657
33.4 0.0050939
33.4125 0.00512138
33.425 0.00514865
33.4375 0.00517545
33.45 0.00520143
33.4625 0.0052263
33.475 0.00524986
33.4875 0.00527195
33.5 0.00529234
33.5125 0.00531085
33.525 0.00532742
33.5375 0.00534204
33.55 0.0053547
33.5625 0.00536547
33.575 0.00537445
33.5875 0.00538173
33.6 0.00538746
33.6125 0.00539192
33.625 0.00539533
33.6375 0.00539791
33.65 0.00539989
33.6625 0.00540149
33.675 0.00540297
33.6875 0.00540453
33.7 0.00540632
33.7125 0.00540852
33.725 0.00541124
33.7375 0.00541456
33.75 0.00541853
33.7625 0.00542317
33.775 0.00542845
33.7875 0.00543434
33.8 0.00544072
33.8125 0.00544749
33.825 0.00545457
33.8375 0.00546179
33.85 0.00546904
33.8625 0.00547618
33.875 0.0054831
33.8875 0.0054897
33.9 0.00549589
33.9125 0.00550163
33.925 0.00550685
33.9375 0.00551158
33.95 0.00551584
33.9625 0.00551971
33.975 0.00552326
33.9875 0.00552661
34 0.00552989
34.0125 0.00553326
34.025 0.00553691
34.0375 0.00554103
34.05 0.00554579
34.0625 0.0055514
34.075 0.00555803
34.0875 0.00556588
34.1 0.00557511
34.1125 0.00558583
34.125 0.00559819
34.1375 0.00561224
34.15 0.00562803
34.1625 0.00564555
34.175 0.00566475
34.1875 0.00568555
34.2 0.0057078
34.2125 0.00573132
34.225 0.00575594
34.2375 0.0057814
34.25 0.00580746
34.2625 0.00583385
34.275 0.00586034
34.2875 0.00588666
34.3 0.00591252
34.3125 0.00593764
34.325 0.00596183
34.3375 0.00598491
34.35 0.00600672
34.3625 0.0060271
34.375 0.00604597
34.3875 0.00606328
34.4 0.00607899
34.4125 0.00609314
34.425 0.00610575
34.4375 0.00611693
34.45 0.00612678
34.4625 0.00613544
34.475 0.00614306
34.4875 0.00614981
34.5 0.00615583
34.5125 0.00616127
34.525 0.00616627
34.5375 0.00617097
34.55 0.00617545
34.5625 0.00617974
34.575 0.0061839
34.5875 0.00618795
34.6 0.00619187
34.6125 0.00619561
34.625 0.00619913
34.6375 0.00620234
34.65 0.00620514
34.6625 0.00620741
34.675 0.00620899
34.6875 0.00620974
34.7 0.0062095
34.7125 0.00620817
34.725 0.00620561
34.7375 0.00620172
34.75 0.00619642
34.7625 0.00618966
34.775 0.00618142
34.7875 0.00617172
34.8 0.00616059
34.8125 0.00614813
34.825 0.00613444
34.8375 0.00611966
34.85 0.00610398
34.8625 0.00608756
34.875 0.00607064
34.8875 0.00605342
34.9 0.00603614
34.9125 0.00601902
34.925 0.0060023
34.9375 0.00598616
34.95 0.00597082
34.9625 0.00595643
34.975 0.00594314
34.9875 0.00593106
35 0.00592025
35.0125 0.00591078
35.025 0.00590264
35.0375 0.00589582
35.05 0.00589026
35.0625 0.00588586
35.075 0.00588255
35.0875 0.00588017
35.1 0.0058786
35.1125 0.00587773
35.125 0.00587738
35.1375 0.00587736
35.15 0.0058775
35.1625 0.00587769
35.175 0.00587781
35.1875 0.00587777
35.2 0.00587745
35.2125 0.00587679
35.225 0.00587572
35.2375 0.00587427
35.25 0.00587242
35.2625 0.00587023
35.275 0.00586771
35.2875 0.00586494
35.3 0.00586199
35.3125 0.00585895
35.325 0.00585593
35.3375 0.00585301
35.35 0.0058503
35.3625 0.00584789
35.375 0.00584583
35.3875 0.00584418
35.4 0.00584299
35.4125 0.00584228
35.425 0.00584202
35.4375 0.0058422
35.45 0.00584276
35.4625 0.00584362
35.475 0.00584468
35.4875 0.0058458
35.5 0.00584686
35.5125 0.0058477
35.525 0.00584816
35.5375 0.00584808
35.55 0.00584729
35.5625 0.00584563
35.575 0.00584295
35.5875 0.00583911
35.6 0.00583401
35.6125 0.00582755
35.625 0.00581966
35.6375 0.00581029
35.65 0.00579944
35.6625 0.00578711
35.675 0.00577336
35.6875 0.00575826
35.7 0.0057419
35.7125 0.00572439
35.725 0.00570588
35.7375 0.00568652
35.75 0.0056665
35.7625 0.00564597
35.775 0.00562513
35.7875 0.00560415
35.8 0.00558319
35.8125 0.00556242
35.825 0.00554196
35.8375 0.00552192
35.85 0.00550239
35.8625 0.00548344
35.875 0.0054651
35.8875 0.00544738
35.9 0.00543025
35.9125 0.00541368
35.925 0.0053976
35.9375 0.00538193
35.95 0.0053666
35.9625 0.00535151
35.975 0.00533656
35.9875 0.00532171
36 0.00530688
36.0125 0.00529201
36.025 0.00527707
36.0375 0.00526203
36.05 0.0052469
36.0625 0.0052317
36.075 0.00521647
36.0875 0.00520127
36.1 0.00518616
36.1125 0.00517123
36.125 0.00515658
36.1375 0.00514233
36.15 0.00512859
36.1625 0.00511547
36.175 0.0051031
36.1875 0.00509158
36.2 0.00508102
36.2125 0.00507151
36.225 0.00506311
36.2375 0.00505589
36.25 0.00504986
36.2625 0.00504505
36.275 0.00504144
36.2875 0.005039
36.3 0.00503767
36.3125 0.00503736
36.325 0.00503797
36.3375 0.00503939
36.35 0.00504148
36.3625 0.00504411
36.375 0.00504713
36.3875 0.00505037
36.4 0.0050537
36.4125 0.00505697
36.425 0.00506004
36.4375 0.00506279
36.45 0.00506511
36.4625 0.00506691
36.475 0.00506811
36.4875 0.00506866
36.5 0.00506853
36.5125 0.00506772
36.525 0.00506623
36.5375 0.00506408
36.55 0.00506133
36.5625 0.00505804
36.575 0.00505426
36.5875 0.00505009
36.6 0.0050456
36.6125 0.00504087
36.625 0.00503599
36.6375 0.00503103
36.65 0.00502606
