0.0025 -1.00174e-05
0.0125 -9.99104e-06
0.0225 -9.93639e-06
0.035 -9.97173e-06
0.045 -1.02384e-05
0.055 -1.0905e-05
0.065 -1.21846e-05
0.075 -1.43246e-05
0.085 -1.76036e-05
0.095 -2.23246e-05
0.105 -2.88112e-05
0.115 -3.74034e-05
0.125 -4.84672e-05
0.135 -6.23228e-05
0.145 -7.92954e-05
0.155 -9.96625e-05
0.165 -0.000123627
0.175 -0.000151277
0.185 -0.000182561
0.195 -0.000217255
0.205 -0.000254946
0.215 -0.000295023
0.225 -0.000336677
0.235 -0.000378898
0.245 -0.000420448
0.255 -0.000459904
0.265 -0.000495625
0.275 -0.000525728
0.285 -0.000548147
0.295 -0.000560722
0.305 -0.000561371
0.315 -0.000548339
0.325 -0.00052017
0.335 -0.000475985
0.345 -0.000415518
0.355 -0.000339183
0.365 -0.000248071
0.375 -0.000143887
0.385 -2.88486e-05
0.395 9.44288e-05
0.405 0.000222896
0.415 0.000353357
0.425 0.000482539
0.435 0.000607212
0.445 0.000724263
0.455 0.000830755
0.465 0.000924004
0.475 0.00100164
0.485 0.00106174
0.495 0.00110297
0.5075 0.00112711
0.52 0.00112169
0.5325 0.00109014
0.545 0.00103879
0.5575 0.000976781
0.57 0.000915716
0.5825 0.000868898
0.595 0.000850248
0.6075 0.000872953
0.62 0.000948057
0.6325 0.00108329
0.645 0.00128232
0.6575 0.00154453
0.67 0.00186509
0.6825 0.00223534
0.695 0.00264347
0.7075 0.00307522
0.72 0.00351464
0.7325 0.00394494
0.745 0.00434955
0.7575 0.00471319
0.77 0.00502303
0.7825 0.00526951
0.795 0.00544675
0.8075 0.00555269
0.82 0.005589
0.8325 0.00556087
0.845 0.00547665
0.8575 0.00534724
0.87 0.00518553
0.8825 0.00500567
0.895 0.00482229
0.9075 0.00464971
0.92 0.00450118
0.9325 0.00438818
0.945 0.00432003
0.9575 0.00430352
0.97 0.00434268
0.9825 0.00443848
0.995 0.00458842
1.005 0.00474331
1.0175 0.00497258
1.03 0.0052294
1.0425 0.00549795
1.055 0.0057602
1.0675 0.00599686
1.08 0.00618842
1.0925 0.00631623
1.105 0.00636343
1.1175 0.00631594
1.13 0.00616311
1.1425 0.00589834
1.155 0.00551941
1.1675 0.00502862
1.18 0.00443266
1.1925 0.00374258
1.205 0.00297365
1.2175 0.00214494
1.23 0.00127859
1.2425 0.000398861
1.255 -0.00046912
1.2675 -0.00130025
1.28 -0.00207036
1.2925 -0.00275845
1.305 -0.003347
1.3175 -0.00382347
1.33 -0.00418106
1.3425 -0.00441921
1.355 -0.00454344
1.3675 -0.00456472
1.38 -0.00449852
1.3925 -0.00436396
1.405 -0.00418303
1.4175 -0.00397973
1.43 -0.00377894
1.4425 -0.00360528
1.455 -0.00348207
1.4675 -0.00343036
1.48 -0.00346784
1.4925 -0.00360617
1.505 -0.00385795
1.5175 -0.00422307
1.53 -0.00470162
1.5425 -0.0052848
1.555 -0.00595885
1.5675 -0.00670281
1.58 -0.00748933
1.5925 -0.00828987
1.605 -0.00906643
1.6175 -0.00978563
1.63 -0.0104449
1.6425 -0.0110081
1.655 -0.0114553
1.6675 -0.0117682
1.68 -0.0119386
1.6925 -0.0119601
1.705 -0.011836
1.7175 -0.0115751
1.73 -0.011189
1.7425 -0.0106987
1.755 -0.010129
1.7675 -0.00950894
1.78 -0.00887067
1.7925 -0.00825422
1.805 -0.00769626
1.8175 -0.00719335
1.83 -0.00677387
1.8425 -0.00645096
1.855 -0.00623407
1.8675 -0.00613051
1.88 -0.00614289
1.8925 -0.00626876
1.905 -0.00650319
1.9175 -0.00683679
1.93 -0.00725283
1.9425 -0.00773071
1.955 -0.00824584
1.9675 -0.00877071
1.98 -0.0092763
1.9925 -0.00973328
2.0025 -0.0100449
2.0125 -0.0102942
2.0225 -0.0104698
2.0325 -0.0105623
2.0425 -0.0105648
2.0525 -0.0104731
2.0625 -0.010286
2.0725 -0.0100053
2.0825 -0.00963547
2.0925 -0.00918401
2.1025 -0.00866065
2.1125 -0.00807708
2.1225 -0.0074464
2.1325 -0.00678259
2.1425 -0.00609999
2.1525 -0.00541289
2.1625 -0.00473514
2.1725 -0.00407987
2.1825 -0.00345914
2.1925 -0.00288358
2.2025 -0.00236216
2.2125 -0.00190182
2.2225 -0.00150736
2.2325 -0.00118132
2.2425 -0.000923933
2.2525 -0.000736934
2.2625 -0.00061252
2.2725 -0.000542264
2.2825 -0.000517197
2.2925 -0.000526011
2.3025 -0.000564657
2.3125 -0.000620826
2.3225 -0.000684928
2.3325 -0.000745763
2.3425 -0.000792736
2.3525 -0.000816008
2.3625 -0.000806576
2.3725 -0.000757043
2.3825 -0.000660191
2.3925 -0.00051192
2.4025 -0.00030926
2.4125 -5.09789e-05
2.4225 0.000262658
2.4325 0.000629847
2.4425 0.00104734
2.4525 0.00151066
2.4625 0.00201426
2.4725 0.00255175
2.4825 0.00311594
2.4925 0.00369901
2.5025 0.00429264
2.5125 0.00488828
2.5225 0.00547738
2.5325 0.00605161
2.5425 0.00660303
2.5525 0.00712437
2.5625 0.00760913
2.5725 0.00805174
2.5825 0.00844759
2.5925 0.00879304
2.6025 0.00908549
2.6125 0.00931452
2.6225 0.00946758
2.6325 0.00958587
2.6425 0.00965786
2.6525 0.00967963
2.6625 0.00966374
2.6725 0.0096082
2.6825 0.0095166
2.6925 0.00938929
2.7025 0.00923002
2.7125 0.00904384
2.7225 0.0088344
2.7325 0.00860647
2.7425 0.00836532
2.7525 0.00811601
2.7625 0.00786339
2.7725 0.00761253
2.7825 0.00736855
2.7925 0.00713617
2.8025 0.0069197
2.8125 0.00672305
2.8225 0.00654956
2.8325 0.00640178
2.8425 0.00628147
2.8525 0.00618959
2.8625 0.00612627
2.8725 0.0060906
2.8825 0.00608074
2.8925 0.00609399
2.9025 0.00612689
2.9125 0.00617535
2.9225 0.00623489
2.9325 0.00630083
2.9425 0.00636852
2.9525 0.00643348
2.9625 0.00649153
2.9725 0.00653879
2.9825 0.00657179
2.9925 0.00658755
3.0025 0.00658308
3.0125 0.00655636
3.0225 0.00650536
3.0325 0.00642848
3.0425 0.00632434
3.0525 0.00619179
3.0625 0.00602983
3.0725 0.00583757
3.0825 0.00561436
3.0925 0.00535991
3.1025 0.00507432
3.1125 0.00475826
3.1225 0.00441297
3.1325 0.0040403
3.1425 0.00364278
3.1525 0.00322364
3.1625 0.0027868
3.1725 0.00233693
3.1825 0.00187932
3.1925 0.00141979
3.2025 0.000964643
3.2125 0.000527554
3.2225 0.000103016
3.2325 -0.000298492
3.2425 -0.000672872
3.2525 -0.00101667
3.2625 -0.00132591
3.2725 -0.00159774
3.2825 -0.00183095
3.2925 -0.00202556
3.3025 -0.00218232
3.3125 -0.00230331
3.3225 -0.00239193
3.3325 -0.00245261
3.3425 -0.00249051
3.3525 -0.00251156
3.3625 -0.00252238
3.3725 -0.00252994
3.3825 -0.00254134
3.3925 -0.00256342
3.4025 -0.0026033
3.4125 -0.00266762
3.4225 -0.00276203
3.4325 -0.00289218
3.4425 -0.00306249
3.4525 -0.00327652
3.4625 -0.00353647
3.4725 -0.00384321
3.4825 -0.00419617
3.4925 -0.00459322
3.5025 -0.00503074
3.5125 -0.00550364
3.5225 -0.0057609
3.5325 -0.00598172
3.5425 -0.0065972
3.5525 -0.00722249
3.5625 -0.00792594
3.5725 -0.00861102
3.5825 -0.00927629
3.5925 -0.00994672
3.6025 -0.0106194
3.6125 -0.0112475
3.6225 -0.0117966
3.6325 -0.0122658
3.6425 -0.0127024
3.6525 -0.0130655
3.6625 -0.0133378
3.6725 -0.0135134
3.6825 -0.0136021
3.6925 -0.0136153
3.7025 -0.0135512
3.7125 -0.0134094
3.7225 -0.0131986
3.7325 -0.0129376
3.7425 -0.0126352
3.7525 -0.012296
3.7625 -0.011939
3.7725 -0.0115734
3.7825 -0.0112107
3.7925 -0.0108641
3.8025 -0.0105457
3.8125 -0.010265
3.8225 -0.0100303
3.8325 -0.00984918
3.8425 -0.00972615
3.8525 -0.00966368
3.8625 -0.00966464
3.8725 -0.00972735
3.8825 -0.00984875
3.8925 -0.0100231
3.9025 -0.0102433
3.9125 -0.0104973
3.9225 -0.0107761
3.9325 -0.0110732
3.9425 -0.0113776
3.9525 -0.0116786
3.9625 -0.0119637
3.9725 -0.0122222
3.9825 -0.0124455
3.9925 -0.0126261
4.0025 -0.0127568
4.0125 -0.0128305
4.0225 -0.0128445
4.0325 -0.0127966
4.0425 -0.0126871
4.0525 -0.0125194
4.0625 -0.0122992
4.0725 -0.0120327
4.0825 -0.0117215
4.0925 -0.0113699
4.1025 -0.0109847
4.1125 -0.0105744
4.1225 -0.0101484
4.1325 -0.00971579
4.1425 -0.00928445
4.1525 -0.00886322
4.1625 -0.00846168
4.1725 -0.00808798
4.1825 -0.00774898
4.1925 -0.00745072
4.2025 -0.00719841
4.2125 -0.00699639
4.2225 -0.00684758
4.2325 -0.0067534
4.2425 -0.00671416
4.2525 -0.00672915
4.2625 -0.00679631
4.2725 -0.00691224
4.2825 -0.00707288
4.2925 -0.00727118
4.3025 -0.00749909
4.3125 -0.00774736
4.3225 -0.00800545
4.3325 -0.008262
4.3425 -0.00850448
4.3525 -0.00871661
4.3625 -0.00889487
4.3725 -0.00902546
4.3825 -0.00910022
4.3925 -0.00911577
4.4025 -0.00906544
4.4125 -0.00893859
4.4225 -0.00873213
4.4325 -0.00844284
4.4425 -0.00807243
4.4525 -0.00762368
4.4625 -0.00709788
4.4725 -0.00650094
4.4825 -0.00584147
4.4925 -0.00512938
4.5025 -0.00437575
4.5125 -0.00359201
4.5225 -0.00279076
4.5325 -0.00198475
4.5425 -0.00118903
4.5525 -0.000418086
4.5625 0.000316763
4.5725 0.00100613
4.5825 0.00163714
4.5925 0.00220141
4.6025 0.00270682
4.6125 0.00313607
4.6225 0.00346722
4.6325 0.0037129
4.6425 0.00386284
4.6525 0.00391858
4.6625 0.0038892
4.6725 0.00378626
4.6825 0.00361375
4.6925 0.00338334
4.7025 0.00311003
4.7125 0.00280876
4.7225 0.002495
4.7325 0.00218558
4.7425 0.0018979
4.7525 0.00164835
4.7625 0.00145213
4.7725 0.00132335
4.7825 0.00127417
4.7925 0.0013141
4.8025 0.00144989
4.8125 0.00168534
4.8225 0.00202092
4.8325 0.00245378
4.8425 0.00297794
4.8525 0.00358458
4.8625 0.00426238
4.8725 0.0049979
4.8825 0.00577608
4.8925 0.00658031
4.9025 0.00739338
4.9125 0.00819786
4.9225 0.00897334
4.9325 0.00967246
4.9425 0.0103239
4.9525 0.0109204
4.9625 0.0114356
4.9725 0.0118782
4.9825 0.0122357
4.9925 0.0125025
5.0025 0.0126788
5.0125 0.0127637
5.0225 0.0127599
5.0325 0.0126707
5.0425 0.012503
5.0525 0.0122663
5.0625 0.0119713
5.0725 0.0116291
5.0825 0.0112547
5.0925 0.0108607
5.1025 0.0104618
5.1125 0.0100783
5.1225 0.00971486
5.1325 0.00937888
5.1425 0.0090814
5.1525 0.00882892
5.1625 0.00862678
5.1725 0.0084834
5.1825 0.00839953
5.1925 0.0083783
5.2025 0.00841899
5.2125 0.00851897
5.2225 0.00867418
5.2325 0.00887784
5.2425 0.00912222
5.2525 0.00939838
5.2625 0.00969619
5.2725 0.0100049
5.2825 0.0103131
5.2925 0.0106097
5.3025 0.0108839
5.3125 0.0111252
5.3225 0.0113245
5.3325 0.0114736
5.3425 0.0115657
5.3525 0.0115956
5.3625 0.01156
5.3725 0.011457
5.3825 0.0112869
5.3925 0.0110516
5.4025 0.0107549
5.4125 0.0104023
5.4225 0.0100008
5.4325 0.00955859
5.4425 0.00908511
5.4525 0.00859031
5.4625 0.00808448
5.4725 0.00757789
5.4825 0.00708041
5.4925 0.00660129
5.5025 0.00614877
5.5125 0.00572994
5.5225 0.00535047
5.5325 0.00501447
5.5425 0.00472436
5.5525 0.00448078
5.5625 0.00428265
5.5725 0.00412729
5.5825 0.00401066
5.5925 0.00392783
5.6025 0.00387411
5.6125 0.003842
5.6225 0.0038226
5.6325 0.00381051
5.6425 0.00379841
5.6525 0.00377953
5.6625 0.00374976
5.6725 0.00370431
5.6825 0.00363635
5.6925 0.00354576
5.7025 0.003433
5.7125 0.00329506
5.7225 0.0031301
5.7325 0.00293833
5.7425 0.00271946
5.7525 0.00247367
5.7625 0.00220144
5.7725 0.00190297
5.7825 0.00158004
5.7925 0.00123401
5.8025 0.000866511
5.8125 0.000479386
5.8225 7.45469e-05
5.8325 -0.000345587
5.8425 -0.000778682
5.8525 -0.00122183
5.8625 -0.00167162
5.8725 -0.00212429
5.8825 -0.00257555
5.8925 -0.00302093
5.9025 -0.00345596
5.9125 -0.00387636
5.9225 -0.00427804
5.9325 -0.00465731
5.9425 -0.00501093
5.9525 -0.00533622
5.9625 -0.00563106
5.9725 -0.00589406
5.9825 -0.00612469
5.9925 -0.00632304
6.0025 -0.0064902
6.0125 -0.00662805
6.0225 -0.00674187
6.0325 -0.00683528
6.0425 -0.00690656
6.0525 -0.00696231
6.0625 -0.00700539
6.0725 -0.00704077
6.0825 -0.00707443
6.0925 -0.00711104
6.1025 -0.00715565
6.1125 -0.00721338
6.1225 -0.00729014
6.1325 -0.00739051
6.1425 -0.00751921
6.1525 -0.00767982
6.1625 -0.00787426
6.1725 -0.00810669
6.1825 -0.00837982
6.1925 -0.00869482
6.2025 -0.00905163
6.2125 -0.00944933
6.2225 -0.00988353
6.2325 -0.0103484
6.2425 -0.0108371
6.2525 -0.0113408
6.2625 -0.0118504
6.2725 -0.012356
6.2825 -0.0128474
6.2925 -0.0133147
6.3025 -0.0137485
6.3125 -0.0141404
6.3225 -0.0144832
6.3325 -0.014771
6.3425 -0.0149991
6.3525 -0.0151648
6.3625 -0.0152671
6.3725 -0.0153065
6.3825 -0.0152843
6.3925 -0.0152049
6.4025 -0.0150723
6.4125 -0.0148914
6.4225 -0.0146703
6.4325 -0.0144169
6.4425 -0.01414
6.4525 -0.0138485
6.4625 -0.0135522
6.4725 -0.0132628
6.4825 -0.0129878
6.4925 -0.0127332
6.5025 -0.0125041
6.5125 -0.0123051
6.5225 -0.0121402
6.5325 -0.0120121
6.5425 -0.011922
6.5525 -0.0118692
6.5625 -0.011852
6.5725 -0.0118673
6.5825 -0.0119103
6.5925 -0.0119749
6.6025 -0.0120536
6.6125 -0.012138
6.6225 -0.0122196
6.6325 -0.0122898
6.6425 -0.0123398
6.6525 -0.0123613
6.6625 -0.0123469
6.6725 -0.0122899
6.6825 -0.0121847
6.6925 -0.0120258
6.7025 -0.0118139
6.7125 -0.0115473
6.7225 -0.011226
6.7325 -0.0108512
6.7425 -0.0104253
6.7525 -0.00995297
6.7625 -0.00944016
6.7725 -0.00889672
6.7825 -0.00832768
6.7925 -0.00773957
6.8025 -0.00714178
6.8125 -0.00654203
6.8225 -0.00594925
6.8325 -0.00537108
6.8425 -0.0048143
6.8525 -0.00428531
6.8625 -0.00378972
6.8725 -0.00333212
6.8825 -0.00291588
6.8925 -0.00254369
6.9025 -0.00221669
6.9125 -0.00193455
6.9225 -0.00169505
6.9325 -0.00149681
6.9425 -0.00133648
6.9525 -0.00120834
6.9625 -0.00110921
6.9725 -0.00103488
6.9825 -0.000975073
6.9925 -0.000926364
7.0025 -0.000886028
7.0125 -0.000846377
7.0225 -0.000802787
7.0325 -0.000748516
7.0425 -0.000677407
7.0525 -0.00058407
7.0625 -0.000463045
7.0725 -0.000309239
7.0825 -0.000117932
7.0925 0.000114838
7.1025 0.000392132
7.1125 0.000716223
7.1225 0.00108849
7.1325 0.00150915
7.1425 0.00197715
7.1525 0.00249006
7.1625 0.00305883
7.1725 0.0036968
7.1825 0.00433834
7.1925 0.00500699
7.2025 0.00568025
7.2125 0.00634105
7.2225 0.00698257
7.2325 0.00759752
7.2425 0.00817399
7.2525 0.00870118
7.2625 0.00917373
7.2725 0.00958704
7.2825 0.00993597
7.2925 0.0102178
7.3025 0.0104328
7.3125 0.0105827
7.3225 0.0106702
7.3325 0.0107
7.3425 0.0106786
7.3525 0.0106132
7.3625 0.0104473
7.3725 0.0101668
7.3825 0.0100208
7.3925 0.0100047
7.4025 0.00996681
7.4125 0.00990883
7.4225 0.00992249
7.4325 0.0100125
7.4425 0.0101357
7.4525 0.010299
7.4625 0.0105295
7.4725 0.01085
7.4825 0.01127
7.4925 0.0117183
7.5025 0.0122673
7.5125 0.0128511
7.5225 0.0135045
7.5325 0.0142346
7.5425 0.0149996
7.5525 0.0157563
7.5625 0.0165374
7.5725 0.0173326
7.5825 0.0181264
7.5925 0.0189035
7.6025 0.0196535
7.6125 0.0203758
7.6225 0.0210703
7.6325 0.0217297
7.6425 0.0223416
7.6525 0.0229004
7.6625 0.0234063
7.6725 0.0238698
7.6825 0.024295
7.6925 0.0246548
7.7025 0.024935
7.7125 0.025155
7.7225 0.0253164
7.7325 0.0254121
7.7425 0.02545
7.7525 0.0254369
7.7625 0.0253759
7.7725 0.0252669
7.7825 0.025131
7.7925 0.024973
7.8025 0.0248003
7.8125 0.0246215
7.8225 0.0244437
7.8325 0.0242751
7.8425 0.0241227
7.8525 0.0239925
7.8625 0.0238897
7.8725 0.0238183
7.8825 0.0237811
7.8925 0.0237813
7.9025 0.0238258
7.9125 0.0239082
7.9225 0.0240245
7.9325 0.0241759
7.9425 0.0243589
7.9525 0.0245683
7.9625 0.0247998
7.9725 0.0250466
7.9825 0.0253004
7.9925 0.0255555
8.0025 0.0258046
8.015 0.0260935
8.0275 0.0263435
8.04 0.0265405
8.0525 0.0266712
8.065 0.026725
8.0775 0.026694
8.09 0.0265763
8.1025 0.0263686
8.115 0.0260714
8.1275 0.0256851
8.14 0.0252152
8.1525 0.02467
8.165 0.0240592
8.1775 0.0233924
8.19 0.02268
8.2025 0.0219343
8.215 0.0211668
8.2275 0.0203882
8.24 0.0196089
8.2525 0.0188391
8.265 0.0180874
8.2775 0.0173613
8.29 0.0166671
8.3025 0.0160102
8.315 0.0153955
8.3275 0.0148272
8.34 0.0143014
8.3525 0.0138166
8.365 0.0133701
8.3775 0.012956
8.39 0.0125714
8.4025 0.0122138
8.415 0.0118764
8.4275 0.0115498
8.44 0.0112186
8.4525 0.0108866
8.465 0.0105473
8.4775 0.0101914
8.49 0.00981642
8.5025 0.00941466
8.515 0.00898294
8.5275 0.00851653
8.54 0.00801346
8.5525 0.00747181
8.565 0.00689232
8.5775 0.00627831
8.59 0.00563452
8.6025 0.0049673
8.615 0.00428353
8.6275 0.00359069
8.64 0.00289574
8.6525 0.00220487
8.665 0.00152359
8.6775 0.00085255
8.69 0.000200863
8.7025 -0.00042519
8.715 -0.0010327
8.7275 -0.00161235
8.74 -0.00215683
8.7525 -0.00266448
8.765 -0.00313978
8.7775 -0.00357873
8.79 -0.00397498
8.8025 -0.00432791
8.815 -0.00463939
8.8275 -0.00490776
8.84 -0.00513124
8.8525 -0.00531129
8.865 -0.00545018
8.8775 -0.00554864
8.89 -0.00560834
8.9025 -0.00563245
8.915 -0.00562495
8.9275 -0.00559026
8.94 -0.00553372
8.9525 -0.00546641
8.965 -0.00538868
8.9775 -0.00531157
8.99 -0.00523965
9.0025 -0.00518122
9.015 -0.00514119
9.0275 -0.00512519
9.04 -0.00513606
9.0525 -0.00517471
9.065 -0.00524292
9.0775 -0.00534248
9.09 -0.00547091
9.1025 -0.00562109
9.115 -0.00578777
9.1275 -0.00596308
9.14 -0.00613742
9.1525 -0.00629796
9.165 -0.00643386
9.1775 -0.00653151
9.19 -0.00658328
9.2025 -0.0065843
9.215 -0.00652845
9.2275 -0.00641009
9.24 -0.00622262
9.2525 -0.00596698
9.265 -0.00564697
9.2775 -0.0052697
9.29 -0.00484633
9.3025 -0.00439582
9.315 -0.00392557
9.3275 -0.00345334
9.34 -0.002994
9.3525 -0.00256507
9.365 -0.00218075
9.3775 -0.00185331
9.39 -0.00159435
9.4025 -0.00141303
9.415 -0.00131282
9.4275 -0.00129428
9.44 -0.00135762
9.4525 -0.00149485
9.465 -0.00169717
9.4775 -0.00195173
9.49 -0.00224364
9.5025 -0.00255641
9.515 -0.00287193
9.5275 -0.00317073
9.54 -0.00343792
9.5525 -0.00365884
9.565 -0.00382328
9.5775 -0.00392412
9.59 -0.0039564
9.6025 -0.00391813
9.615 -0.00381235
9.6275 -0.00364728
9.64 -0.00343671
9.6525 -0.00319332
9.665 -0.00293093
9.6775 -0.00266561
9.69 -0.00241343
9.7025 -0.00219057
9.715 -0.00201083
9.7275 -0.00188572
9.74 -0.0018241
9.7525 -0.00183236
9.765 -0.00191463
9.7775 -0.00207108
9.79 -0.00229638
9.8025 -0.00258119
9.815 -0.00291899
9.8275 -0.00329846
9.84 -0.00370382
9.8525 -0.00411793
9.865 -0.00457905
9.8775 -0.00529858
9.89 -0.0056689
9.9025 -0.0061172
9.915 -0.00640062
9.9275 -0.00668926
9.94 -0.00691371
9.9525 -0.00709318
9.965 -0.00719549
9.9775 -0.00722804
9.99 -0.00720633
10.0025 -0.00713313
10.015 -0.00702406
10.0275 -0.00688198
10.04 -0.00672515
10.0525 -0.00656058
10.065 -0.00640801
10.0775 -0.00627474
10.09 -0.00617162
10.1025 -0.00610815
10.115 -0.00609213
10.1275 -0.00612794
10.14 -0.00621886
10.1525 -0.00636606
10.165 -0.00656892
10.1775 -0.00682377
10.19 -0.00712925
10.2025 -0.00747917
10.215 -0.0078582
10.2275 -0.00825771
10.24 -0.00866471
10.2525 -0.0090715
10.265 -0.00946905
10.2775 -0.00984434
10.29 -0.0101859
10.3025 -0.0104826
10.315 -0.010727
10.3275 -0.0109134
10.34 -0.0110354
10.3525 -0.0110891
10.365 -0.0110703
10.3775 -0.0109803
10.39 -0.0108256
10.4025 -0.0106146
10.415 -0.01036
10.4275 -0.0100642
10.44 -0.0097351
10.4525 -0.00938294
10.465 -0.00901939
10.4775 -0.00865549
10.49 -0.008303
10.5025 -0.00797389
10.515 -0.00767846
10.5275 -0.00741066
10.54 -0.00717689
10.5525 -0.00703101
10.565 -0.00691066
10.5775 -0.00685559
10.59 -0.00683937
10.6025 -0.00686781
10.615 -0.00692378
10.6275 -0.00699938
10.64 -0.00708153
10.6525 -0.00715298
10.665 -0.00720624
10.6775 -0.00723333
10.69 -0.00722422
10.7025 -0.00717211
10.715 -0.00706613
10.7275 -0.00690393
10.74 -0.00668166
10.7525 -0.00639546
10.765 -0.00604518
10.7775 -0.0056313
10.79 -0.00515588
10.8025 -0.00462242
10.815 -0.00403633
10.8275 -0.00340405
10.84 -0.00273628
10.8525 -0.00204462
10.865 -0.00134152
10.8775 -0.000632009
10.89 6.89401e-05
10.9025 0.000752811
10.915 0.00140952
10.9275 0.00203181
10.94 0.00261377
10.9525 0.00314918
10.965 0.00363784
10.9775 0.00407388
10.99 0.00445528
11.0025 0.00478242
11.015 0.00505357
11.0275 0.00526808
11.04 0.0054232
11.0525 0.00552132
11.065 0.00556396
11.0775 0.00555443
11.09 0.00549695
11.1025 0.00539735
11.115 0.0052645
11.1275 0.00510435
11.14 0.00492413
11.1525 0.00473627
11.165 0.00452926
11.1775 0.00432543
11.19 0.00412203
11.2025 0.00391996
11.215 0.00372485
11.2275 0.00353646
11.24 0.00335632
11.2525 0.00318369
11.265 0.00301991
11.2775 0.00286561
11.29 0.00272018
11.3025 0.00258287
11.315 0.0024519
11.3275 0.00232419
11.34 0.00219626
11.3525 0.00206557
11.365 0.0019271
11.3775 0.00177634
11.39 0.00160757
11.4025 0.00141178
11.415 0.00118384
11.4275 0.000927516
11.44 0.000638335
11.4525 0.000320593
11.465 -2.37998e-05
11.4775 -0.000392657
11.49 -0.000780273
11.5025 -0.00118271
11.515 -0.00158999
11.5275 -0.00198287
11.54 -0.00235333
11.5525 -0.00269869
11.565 -0.00300888
11.5775 -0.00326603
11.59 -0.00346225
11.6025 -0.00359363
11.615 -0.00365828
11.6275 -0.00365446
11.64 -0.00358058
11.6525 -0.00344344
11.665 -0.00324344
11.6775 -0.00299699
11.69 -0.00272255
11.7025 -0.00242965
11.715 -0.00213595
11.7275 -0.00185161
11.74 -0.00159291
11.7525 -0.00136931
11.765 -0.00120394
11.7775 -0.00109898
11.79 -0.00105722
11.8025 -0.00108542
11.815 -0.00117929
11.8275 -0.00133154
11.84 -0.00153828
11.8525 -0.00178697
11.865 -0.00206802
11.8775 -0.00237059
11.89 -0.00267746
11.9025 -0.00297314
11.915 -0.00324873
11.9275 -0.00349603
11.94 -0.00369925
11.9525 -0.0038526
11.965 -0.00394767
11.9775 -0.00397925
11.99 -0.00394606
12.0025 -0.00384706
12.015 -0.00368634
12.0275 -0.00346943
12.04 -0.0032037
12.0525 -0.00289849
12.065 -0.00256774
12.0775 -0.00222062
12.09 -0.00187002
12.1025 -0.0015283
12.115 -0.00120306
12.1275 -0.000905086
12.14 -0.000645642
12.1525 -0.000433341
12.165 -0.000275014
12.1775 -0.000177709
12.19 -0.00014736
12.2025 -0.00018374
12.215 -0.000285217
12.2275 -0.000452868
12.24 -0.000682264
12.2525 -0.00096604
12.265 -0.0012943
12.2775 -0.00166085
12.29 -0.00205997
12.3025 -0.00247427
12.315 -0.00288685
12.3275 -0.00328358
12.34 -0.00364485
12.3525 -0.00396834
12.365 -0.00424585
12.3775 -0.00446209
12.39 -0.00461337
12.4025 -0.0046933
12.415 -0.00470201
12.4275 -0.00464145
12.44 -0.0045138
12.4525 -0.00432479
12.465 -0.00408237
12.4775 -0.00379638
12.49 -0.00347796
12.5025 -0.00313898
12.515 -0.00279392
12.5275 -0.00245329
12.54 -0.00212222
12.5525 -0.00181138
12.565 -0.00152603
12.5775 -0.00127192
12.59 -0.00105044
12.6025 -0.000861424
12.615 -0.000701942
12.6275 -0.000566577
12.64 -0.000446383
12.6525 -0.000327164
12.665 -0.000206246
12.6775 -7.07892e-05
12.69 8.67941e-05
12.7025 0.000272007
12.715 0.000492935
12.7275 0.000751657
12.74 0.0010509
12.7525 0.00138894
12.765 0.00176147
12.7775 0.00216403
12.79 0.00258887
12.8025 0.00303273
12.815 0.0034903
12.8275 0.00395046
12.84 0.00441021
12.8525 0.00486708
12.865 0.00531757
12.8775 0.00575809
12.89 0.00618657
12.9025 0.00660407
12.915 0.00701253
12.9275 0.00741267
12.94 0.00779544
12.9525 0.008158
12.965 0.0085333
12.9775 0.0088964
12.99 0.00926419
13.0025 0.00963706
13.015 0.0100175
13.0275 0.0104014
13.04 0.0107926
13.0525 0.0111919
13.065 0.0115973
13.0775 0.0120068
13.09 0.0124185
13.1025 0.0128334
13.115 0.0132477
13.1275 0.0136596
13.14 0.0140817
13.1525 0.0144943
13.165 0.0148975
13.1775 0.0152875
13.19 0.0156544
13.2025 0.0159969
13.215 0.0163102
13.2275 0.016588
13.24 0.0168262
13.2525 0.017023
13.265 0.0171744
13.2775 0.0172776
13.29 0.0173323
13.3025 0.0173384
13.315 0.0172956
13.3275 0.0172042
13.34 0.0170646
13.3525 0.0168786
13.365 0.0166493
13.3775 0.0163806
13.39 0.0160762
13.4025 0.0157417
13.415 0.0153835
13.4275 0.0150072
13.44 0.0146191
13.4525 0.0142267
13.465 0.0138379
13.4775 0.0134599
13.49 0.0130998
13.5025 0.0127643
13.515 0.0124591
13.5275 0.0121893
13.54 0.011959
13.5525 0.0117712
13.565 0.011627
13.5775 0.0115276
13.59 0.0114719
13.6025 0.0114581
13.615 0.011482
13.6275 0.0115372
13.64 0.011615
13.6525 0.0117052
13.665 0.0117966
13.6775 0.011877
13.69 0.0119345
13.7025 0.0119547
13.715 0.0119343
13.7275 0.0118646
13.74 0.0117416
13.7525 0.0115626
13.765 0.011329
13.7775 0.0110449
13.79 0.0107182
13.8025 0.010347
13.815 0.00993786
13.8275 0.00949488
13.84 0.00902231
13.8525 0.00852498
13.865 0.00800786
13.8775 0.00747303
13.89 0.00692691
13.9025 0.00637145
13.915 0.00581347
13.9275 0.00525826
13.94 0.00471096
13.9525 0.00417721
13.965 0.00366328
13.9775 0.00317141
13.99 0.00270369
14.0025 0.00225997
14.015 0.00183874
14.0275 0.00143694
14.04 0.00105117
14.0525 0.00067692
14.065 0.000309875
14.0775 -5.55594e-05
14.09 -0.000425717
14.1025 -0.000802596
14.115 -0.0011828
14.1275 -0.00157183
14.14 -0.00197571
14.1525 -0.00239041
14.165 -0.00281331
14.1775 -0.00324239
14.19 -0.00367363
14.2025 -0.00409598
14.215 -0.00451257
14.2275 -0.00491878
14.24 -0.0053051
14.2525 -0.00566538
14.265 -0.00599778
14.2775 -0.00630217
14.29 -0.00657003
14.3025 -0.00679583
14.315 -0.00698269
14.3275 -0.00712665
14.34 -0.00723109
14.3525 -0.0072912
14.365 -0.0072966
14.3775 -0.00725296
14.39 -0.00716022
14.4025 -0.00702475
14.415 -0.00684687
14.4275 -0.00662079
14.44 -0.00635351
14.4525 -0.00605125
14.465 -0.00571842
14.4775 -0.00536088
14.49 -0.00498382
14.5025 -0.00459148
14.515 -0.00418847
14.5275 -0.00377601
14.54 -0.00335581
14.5525 -0.00293724
14.565 -0.00252288
14.5775 -0.00211835
14.59 -0.00172802
14.6025 -0.00135525
14.615 -0.00100082
14.6275 -0.000665187
14.64 -0.000346235
14.6525 -3.42388e-05
14.665 0.000275544
14.6775 0.000590278
14.69 0.00091965
14.7025 0.00127305
14.715 0.00166184
14.7275 0.00209618
14.74 0.00258238
14.7525 0.0031312
14.765 0.00375465
14.7775 0.00445854
14.79 0.00524481
14.8025 0.00611717
14.815 0.00707946
14.8275 0.00813232
14.84 0.00927159
14.8525 0.0105144
14.865 0.0118127
14.8775 0.0131391
14.89 0.0145335
14.9025 0.015919
14.915 0.0173111
14.9275 0.0186976
14.94 0.0200598
14.9525 0.0213692
14.965 0.0226244
14.9775 0.0238121
14.99 0.024923
15.0025 0.0259444
15.015 0.0268769
15.0275 0.0277396
15.04 0.0285563
15.0525 0.0292604
15.065 0.0298748
15.0775 0.0304117
15.09 0.0308931
15.1025 0.0313399
15.115 0.0317554
15.1275 0.0321515
15.14 0.0316494
15.1525 0.0320349
15.165 0.0324444
15.1775 0.0330734
15.19 0.0336639
15.2025 0.0343281
15.215 0.035028
15.2275 0.0357647
15.24 0.0365546
15.2525 0.0373435
15.265 0.0381638
15.2775 0.0399748
15.29 0.0409873
15.3025 0.0419271
15.315 0.0430703
15.3275 0.0441138
15.34 0.0452339
15.3525 0.0463573
15.365 0.0474432
15.3775 0.0484922
15.39 0.0494871
15.4025 0.0504099
15.415 0.0512551
15.4275 0.052004
15.44 0.0526506
15.4525 0.0531969
15.465 0.0536346
15.4775 0.0539625
15.49 0.0541831
15.5025 0.0543084
15.515 0.0543442
15.5275 0.0542998
15.54 0.0541903
15.5525 0.0540312
15.565 0.0538398
15.5775 0.0536348
15.59 0.0534352
15.6025 0.05326
15.615 0.0531356
15.6275 0.0530724
15.64 0.0530709
15.6525 0.0531526
15.665 0.0533225
15.6775 0.0535794
15.69 0.0539309
15.7025 0.0543695
15.715 0.0548845
15.7275 0.055474
15.7375 0.0559955
15.75 0.0566742
15.7625 0.05739
15.775 0.0581297
15.7875 0.0588415
15.8 0.0595562
15.8125 0.0602287
15.825 0.0608357
15.8375 0.0613936
15.85 0.0618754
15.8625 0.0622648
15.875 0.0625591
15.8875 0.0627465
15.9 0.0628283
15.9125 0.0628098
15.925 0.0626831
15.9375 0.0624641
15.95 0.0621614
15.9625 0.0617821
15.975 0.0613359
15.9875 0.0608361
16 0.0603007
16.01 0.0598564
16.02 0.0594074
16.03 0.0589597
16.04 0.0585222
16.05 0.0581062
16.06 0.0577203
16.07 0.0573642
16.08 0.0570488
16.09 0.0567796
16.1 0.0565599
16.11 0.0563923
16.12 0.0562738
16.13 0.0562134
16.14 0.0562138
16.15 0.056266
16.16 0.056368
16.17 0.0565165
16.18 0.0567024
16.19 0.0569172
16.2 0.0571531
16.21 0.0573998
16.22 0.0576491
16.23 0.0578921
16.24 0.0581167
16.25 0.0583108
16.26 0.0584607
16.27 0.0585677
16.28 0.0586203
16.29 0.0586072
16.3 0.0585266
16.31 0.0583726
16.32 0.0581367
16.33 0.0578197
16.34 0.0574232
16.35 0.0569443
16.36 0.056386
16.37 0.0557558
16.38 0.05506
16.39 0.0543057
16.4 0.0535063
16.41 0.0526742
16.42 0.0518201
16.43 0.0509523
16.44 0.0500855
16.45 0.0492405
16.46 0.0484274
16.47 0.0476567
16.48 0.0469418
16.49 0.0462919
16.5 0.0457154
16.51 0.0452262
16.52 0.0448233
16.53 0.0445046
16.54 0.0442722
16.55 0.0441272
16.56 0.0440691
16.57 0.0440911
16.58 0.044186
16.59 0.0443468
16.6 0.0445656
16.61 0.0448351
16.62 0.0451419
16.63 0.0454747
16.64 0.0458244
16.65 0.046178
16.66 0.0465223
16.67 0.0468451
16.68 0.0471433
16.69 0.0474076
16.7 0.0476272
16.71 0.0477996
16.72 0.0479214
16.73 0.0479864
16.74 0.0479912
16.75 0.0479348
16.76 0.0478174
16.77 0.0476412
16.78 0.0474101
16.79 0.0471273
16.8 0.0467976
16.81 0.0464273
16.82 0.0460234
16.83 0.0455948
16.84 0.0451548
16.85 0.0447001
16.86 0.0442403
16.87 0.0437872
16.88 0.0433438
16.89 0.0429163
16.9 0.0425172
16.91 0.0421495
16.92 0.0418087
16.93 0.041501
16.94 0.0412288
16.95 0.0409907
16.96 0.040789
16.97 0.0406248
16.98 0.0404933
16.99 0.040393
17 0.0403241
17.01 0.0402843
17.02 0.0402724
17.03 0.0402855
17.04 0.0403179
17.05 0.0403666
17.06 0.0404298
17.07 0.0405002
17.08 0.040572
17.09 0.0406421
17.1 0.0407038
17.11 0.0407483
17.12 0.0407704
17.13 0.0407679
17.14 0.0407344
17.15 0.0406651
17.16 0.0405574
17.17 0.0404082
17.18 0.0402149
17.19 0.0399787
17.2 0.0396976
17.21 0.0393685
17.22 0.038994
17.23 0.0385781
17.24 0.0381218
17.25 0.037628
17.26 0.0370983
17.27 0.036543
17.28 0.0359705
17.29 0.0353839
17.3 0.0347898
17.31 0.0341975
17.32 0.033614
17.33 0.0330458
17.34 0.0325006
17.35 0.0319851
17.36 0.0315035
17.37 0.0310616
17.38 0.0306643
17.39 0.0303163
17.4 0.0300212
17.41 0.0297774
17.42 0.0295863
17.43 0.0294478
17.44 0.0293603
17.45 0.0293241
17.46 0.0293346
17.47 0.0293838
17.48 0.0294633
17.49 0.0295656
17.5 0.0296853
17.51 0.0298175
17.52 0.0299553
17.53 0.0300901
17.54 0.0302128
17.55 0.0303155
17.56 0.0303911
17.57 0.0304333
17.58 0.0304338
17.59 0.0303871
17.6 0.0302969
17.61 0.0301589
17.62 0.0299676
17.63 0.0297214
17.64 0.0294225
17.65 0.0290718
17.66 0.0286715
17.67 0.028227
17.68 0.0277436
17.69 0.0272228
17.7 0.026669
17.71 0.0260892
17.72 0.0254901
17.73 0.024878
17.74 0.0242613
17.75 0.0236466
17.76 0.0230401
17.77 0.0224546
17.78 0.0218938
17.79 0.0213555
17.8 0.0208456
17.81 0.020372
17.82 0.0199371
17.83 0.0195417
17.84 0.0191897
17.85 0.0188815
17.86 0.0186158
17.87 0.0183944
17.88 0.0182178
17.89 0.018082
17.9 0.0179817
17.91 0.0179112
17.92 0.0178643
17.93 0.0178347
17.94 0.0178159
17.95 0.0178046
17.96 0.017793
17.97 0.0177754
17.98 0.0177468
17.99 0.0177012
18 0.0176335
18.01 0.01754
18.02 0.0174166
18.03 0.0172599
18.04 0.0170681
18.05 0.0168414
18.06 0.0165805
18.07 0.0162839
18.08 0.0159532
18.09 0.0155895
18.1 0.0151944
18.11 0.0147733
18.12 0.0143294
18.13 0.0138673
18.14 0.0133916
18.15 0.0129058
18.16 0.0124167
18.17 0.0119303
18.18 0.0114513
18.19 0.0109846
18.2 0.010532
18.21 0.0100979
18.22 0.00968564
18.23 0.00929655
18.24 0.00893169
18.25 0.008592
18.26 0.00827672
18.27 0.00798531
18.28 0.00771815
18.29 0.00747501
18.3 0.00725444
18.31 0.00705214
18.32 0.00686538
18.33 0.006692
18.34 0.00652944
18.35 0.00637584
18.36 0.00622882
18.37 0.00608523
18.38 0.00594209
18.39 0.00579747
18.4 0.00565031
18.41 0.00549867
18.42 0.00534079
18.43 0.00517493
18.44 0.00499948
18.45 0.00481333
18.46 0.00461579
18.47 0.00440583
18.48 0.00418278
18.49 0.00394533
18.5 0.00369118
18.51 0.00341911
18.52 0.00312921
18.53 0.00282164
18.54 0.00249689
18.55 0.0021554
18.56 0.00179705
18.57 0.001422
18.58 0.00103127
18.59 0.000626669
18.6 0.000210211
18.61 -0.000216155
18.62 -0.000651974
18.63 -0.00109266
18.64 -0.00153494
18.65 -0.00197364
18.66 -0.0024112
18.67 -0.00284135
18.68 -0.00325689
18.69 -0.00365641
18.7 -0.0040363
18.71 -0.00439576
18.72 -0.00473628
18.73 -0.00505226
18.74 -0.00533845
18.75 -0.00559424
18.76 -0.00581894
18.77 -0.00601188
18.78 -0.00617304
18.79 -0.00630144
18.8 -0.0063977
18.81 -0.00646374
18.82 -0.00650086
18.83 -0.00651171
18.84 -0.00650057
18.85 -0.00647219
18.86 -0.00643303
18.87 -0.00639042
18.88 -0.00634347
18.89 -0.00629599
18.9 -0.00625455
18.91 -0.00622262
18.92 -0.00620383
18.93 -0.00620263
18.94 -0.00622153
18.95 -0.00626138
18.96 -0.00632333
18.97 -0.00640842
18.98 -0.00651595
18.99 -0.00664403
19 -0.00679053
19.01 -0.00695145
19.02 -0.00712217
19.03 -0.00729832
19.04 -0.00747471
19.05 -0.00764504
19.06 -0.00780475
19.07 -0.00794712
19.08 -0.00806375
19.09 -0.00815347
19.1 -0.00821365
19.11 -0.00824077
19.12 -0.00823097
19.13 -0.00818355
19.14 -0.00809518
19.15 -0.00796359
19.16 -0.00779409
19.17 -0.00758734
19.18 -0.00734479
19.19 -0.00707148
19.2 -0.00677221
19.21 -0.00645092
19.22 -0.00611286
19.23 -0.00576514
19.24 -0.0054137
19.25 -0.00506043
19.26 -0.00471098
19.27 -0.00437153
19.28 -0.00404657
19.29 -0.00373826
19.3 -0.0034514
19.31 -0.00319329
19.32 -0.00296478
19.33 -0.00276604
19.34 -0.00259922
19.35 -0.00246608
19.36 -0.00236519
19.37 -0.00229417
19.38 -0.00225346
19.39 -0.00224284
19.4 -0.00225782
19.41 -0.00229371
19.42 -0.00234828
19.43 -0.00241943
19.44 -0.00250319
19.45 -0.00259658
19.46 -0.00269545
19.47 -0.00279346
19.48 -0.00288781
19.49 -0.00297776
19.5 -0.00306105
19.51 -0.00313537
19.52 -0.00319896
19.53 -0.00325058
19.54 -0.0032894
19.55 -0.0033148
19.56 -0.00332597
19.57 -0.00332422
19.58 -0.00331078
19.59 -0.00328697
19.6 -0.00325468
19.61 -0.00321527
19.62 -0.00317027
19.63 -0.0031222
19.64 -0.00307311
19.65 -0.00302488
19.66 -0.00298016
19.67 -0.00294085
19.68 -0.00290918
19.69 -0.00288696
19.7 -0.00287542
19.71 -0.00287597
19.72 -0.00289125
19.73 -0.00292204
19.74 -0.00296641
19.75 -0.00302487
19.76 -0.0030981
19.77 -0.00318506
19.78 -0.00328486
19.79 -0.00339667
19.8 -0.00351862
19.81 -0.00364889
19.82 -0.00378591
19.83 -0.0039277
19.84 -0.00407201
19.85 -0.00421716
19.86 -0.00436139
19.87 -0.00450279
19.88 -0.00464015
19.89 -0.00477241
19.9 -0.00489754
19.91 -0.00501583
19.92 -0.00512703
19.93 -0.00522993
19.94 -0.00532369
19.95 -0.00540799
19.96 -0.00548221
19.97 -0.00554566
19.98 -0.00559782
19.99 -0.00563781
20 -0.00566497
20.01 -0.00567866
20.02 -0.00567809
20.03 -0.00566273
20.04 -0.00563293
20.05 -0.00558967
20.06 -0.00553206
20.07 -0.00545809
20.08 -0.00536812
20.09 -0.00526349
20.1 -0.00514568
20.11 -0.00501593
20.12 -0.0048759
20.13 -0.00472726
20.14 -0.00457135
20.15 -0.00440883
20.16 -0.00424226
20.17 -0.00407534
20.18 -0.00391087
20.19 -0.00375155
20.2 -0.00359974
20.21 -0.00345617
20.22 -0.00332357
20.23 -0.00320451
20.24 -0.00309893
20.25 -0.00300628
20.26 -0.00292721
20.27 -0.00286174
20.28 -0.0028101
20.29 -0.00277215
20.3 -0.00274676
20.31 -0.00273127
20.32 -0.00272316
20.33 -0.00272343
20.34 -0.00273015
20.35 -0.00274017
20.36 -0.00275298
20.37 -0.00276744
20.38 -0.00278041
20.39 -0.00279035
20.4 -0.00279576
20.41 -0.00279567
20.42 -0.00278733
20.43 -0.00276871
20.44 -0.0027389
20.45 -0.00269697
20.46 -0.00264119
20.47 -0.00257193
20.48 -0.0024905
20.49 -0.00239562
20.5 -0.00228724
20.51 -0.00216695
20.52 -0.00203582
20.53 -0.00189444
20.54 -0.00174468
20.55 -0.00158806
20.56 -0.00142563
20.57 -0.00126091
20.58 -0.00109496
20.59 -0.000928631
20.6 -0.000764071
20.61 -0.000603404
20.62 -0.000447745
20.63 -0.000298183
20.64 -0.000156021
20.65 -2.19508e-05
20.66 0.000103341
20.67 0.000219321
20.68 0.000325677
20.69 0.00042217
20.7 0.000509189
20.71 0.000586542
20.72 0.000654065
20.73 0.000712151
20.74 0.000761773
20.75 0.000803644
20.76 0.000840134
20.77 0.000870499
20.78 0.000895335
20.79 0.000916677
20.8 0.000935146
20.81 0.000952222
20.82 0.00096979
20.83 0.000989634
20.84 0.00101384
20.85 0.00104406
20.86 0.00108187
20.87 0.00112876
20.88 0.00118579
20.89 0.00125476
20.9 0.00133687
20.91 0.00143199
20.92 0.00154196
20.93 0.00166845
20.94 0.00181133
20.95 0.00197084
20.96 0.0021473
20.97 0.00234076
20.98 0.00255072
20.99 0.00277635
21 0.00301714
21.01 0.00327249
21.02 0.00354071
21.03 0.00381927
21.04 0.0041064
21.05 0.00439988
21.06 0.00469698
21.07 0.00499527
21.08 0.00529226
21.09 0.00558507
21.1 0.00587107
21.11 0.00614847
21.12 0.00641526
21.13 0.006669
21.14 0.00690738
21.15 0.00713019
21.16 0.00733702
21.17 0.00752672
21.18 0.00770052
21.19 0.00785997
21.2 0.00800594
21.21 0.0081405
21.22 0.0082661
21.23 0.00838455
21.24 0.00849828
21.25 0.00861028
21.26 0.00872349
21.27 0.00884008
21.28 0.00896175
21.29 0.00909022
21.3 0.00922725
21.31 0.00937459
21.32 0.00953377
21.33 0.00970567
21.34 0.00989061
21.35 0.0100887
21.36 0.0103004
21.37 0.0105247
21.38 0.0107609
21.39 0.0110088
21.4 0.0112672
21.41 0.0115345
21.42 0.0118095
21.43 0.0120905
21.44 0.0123751
21.45 0.012661
21.46 0.0129475
21.47 0.013232
21.48 0.0135127
21.49 0.0137875
21.5 0.0140541
21.51 0.0143103
21.52 0.0145536
21.53 0.0147812
21.54 0.014991
21.55 0.0151809
21.56 0.0153494
21.57 0.0154949
21.58 0.0156161
21.59 0.0157122
21.6 0.0157837
21.61 0.0158344
21.62 0.0158576
21.63 0.0158531
21.64 0.0158227
21.65 0.0157681
21.66 0.0156897
21.67 0.0155897
21.68 0.015471
21.69 0.0153354
21.7 0.0151857
21.71 0.0150268
21.72 0.0148613
21.73 0.0146915
21.74 0.0145219
21.75 0.0143562
21.76 0.0141975
21.77 0.0140485
21.78 0.0139078
21.79 0.0137808
21.8 0.013676
21.81 0.0135897
21.82 0.0135234
21.83 0.0134818
21.84 0.0134646
21.85 0.013472
21.86 0.0135076
21.87 0.0135687
21.88 0.0136523
21.89 0.0137596
21.9 0.0138883
21.91 0.0140349
21.92 0.0141974
21.93 0.0143726
21.94 0.0145557
21.95 0.0147447
21.96 0.0149359
21.97 0.0151237
21.98 0.015305
21.99 0.0154778
22 0.0156388
22.01 0.0157837
22.02 0.0159073
22.03 0.0160145
22.04 0.0161054
22.05 0.0161735
22.06 0.0162203
22.07 0.0162495
22.08 0.0162608
22.09 0.0162545
22.1 0.0162341
22.11 0.0162013
22.12 0.0161573
22.13 0.0161083
22.14 0.0160541
22.15 0.0159964
22.16 0.0159384
22.17 0.0158827
22.18 0.0158307
22.19 0.0157853
22.2 0.0157503
22.21 0.0157282
22.22 0.015722
22.23 0.0157348
22.24 0.0157688
22.25 0.0158251
22.26 0.0159059
22.27 0.0160139
22.28 0.0161524
22.29 0.0163223
22.3 0.0165224
22.31 0.0167531
22.32 0.0170148
22.33 0.0173068
22.34 0.0176267
22.35 0.0179755
22.36 0.0183529
22.37 0.0187559
22.38 0.0191808
22.39 0.0196245
22.4 0.0200842
22.41 0.0205565
22.42 0.0210372
22.43 0.0215233
22.44 0.0220114
22.45 0.022497
22.46 0.0229754
22.47 0.0234399
22.48 0.0238884
22.49 0.0243184
22.5 0.0247271
22.51 0.0251105
22.52 0.0254646
22.53 0.0257864
22.54 0.0260746
22.55 0.0263271
22.56 0.0265421
22.57 0.0267194
22.58 0.0268598
22.59 0.0269678
22.6 0.0270488
22.61 0.027097
22.62 0.027116
22.63 0.0271114
22.64 0.0270884
22.65 0.0270459
22.66 0.0269901
22.67 0.026928
22.68 0.0268615
22.69 0.0267948
22.7 0.0267319
22.71 0.0266766
22.72 0.0266333
22.73 0.0266064
22.74 0.0265979
22.75 0.026609
22.76 0.0266412
22.77 0.026696
22.78 0.0267743
22.79 0.0268761
22.8 0.0270004
22.81 0.0271455
22.82 0.0273087
22.83 0.0274862
22.84 0.027678
22.85 0.0278826
22.86 0.0280954
22.87 0.0283121
22.88 0.0285287
22.89 0.0287396
22.9 0.0289416
22.91 0.0291316
22.92 0.0293061
22.93 0.0294621
22.94 0.0295966
22.95 0.0297067
22.96 0.0297924
22.97 0.0298531
22.98 0.0298879
22.99 0.0298969
23 0.0298798
23.01 0.0298394
23.02 0.0297789
23.03 0.0296985
23.04 0.0296002
23.05 0.0294876
23.06 0.0293662
23.07 0.0292415
23.08 0.0291171
23.09 0.0289975
23.1 0.0288864
23.11 0.0287877
23.12 0.0287042
23.13 0.0286393
23.14 0.0285962
23.15 0.0285768
23.16 0.0285836
23.17 0.0286189
23.18 0.0286848
23.19 0.02878
23.2 0.0289006
23.21 0.0290471
23.22 0.0292178
23.23 0.0294077
23.24 0.0296103
23.25 0.0298303
23.26 0.0300681
23.27 0.0303127
23.28 0.0305615
23.29 0.0308145
23.3 0.0310658
23.31 0.03131
23.32 0.0315456
23.33 0.0317703
23.34 0.0319795
23.35 0.0321707
23.36 0.0323432
23.37 0.0324952
23.38 0.0326248
23.39 0.0327312
23.4 0.0328148
23.41 0.0328765
23.42 0.0329177
23.43 0.0329404
23.44 0.032949
23.45 0.0329473
23.46 0.0329349
23.47 0.0329169
23.48 0.0328977
23.49 0.0328809
23.5 0.0328715
23.51 0.0328745
23.52 0.0328934
23.53 0.032932
23.54 0.0329936
23.55 0.0330801
23.56 0.0331943
23.57 0.0333389
23.58 0.0335154
23.59 0.0337244
23.6 0.0339651
23.61 0.0342366
23.62 0.0345376
23.63 0.0348662
23.64 0.0352198
23.65 0.0355953
23.66 0.0359874
23.67 0.0363935
23.68 0.0368106
23.69 0.0372344
23.7 0.0376573
23.71 0.0380755
23.72 0.0384849
23.73 0.0388802
23.74 0.0392564
23.75 0.0396094
23.76 0.0399345
23.77 0.0402283
23.78 0.0404886
23.79 0.0407164
23.8 0.0409082
23.81 0.0410579
23.82 0.041166
23.83 0.0412341
23.84 0.0412622
23.85 0.04125
23.86 0.0412016
23.87 0.0411203
23.88 0.0410093
23.89 0.0408727
23.9 0.0407149
23.91 0.0405409
23.92 0.040357
23.93 0.0401675
23.94 0.0399773
23.95 0.0397913
23.96 0.0396139
23.97 0.0394502
23.98 0.0393054
23.99 0.0391833
24 0.0390869
24.01 0.0390195
24.02 0.0389837
24.03 0.0389824
24.04 0.0390151
24.05 0.039083
24.06 0.0391854
24.07 0.0393208
24.08 0.0394879
24.09 0.039684
24.1 0.0399069
24.11 0.0401534
24.12 0.0404185
24.13 0.040698
24.14 0.0409881
24.15 0.0412827
24.16 0.041576
24.17 0.0418636
24.18 0.0421406
24.19 0.0424013
24.2 0.0426407
24.21 0.0428542
24.22 0.0430376
24.23 0.0431876
24.24 0.0433007
24.25 0.0433745
24.26 0.0434077
24.27 0.0433984
24.28 0.0433442
24.29 0.0432439
24.3 0.043101
24.31 0.0429204
24.32 0.0427065
24.33 0.0424659
24.34 0.0422036
24.35 0.0419233
24.36 0.041631
24.37 0.0413335
24.38 0.0410385
24.39 0.0407536
24.4 0.0404867
24.41 0.0402513
24.42 0.0400487
24.43 0.0398765
24.44 0.0397426
24.45 0.0396518
24.46 0.0396055
24.47 0.039605
24.48 0.039654
24.49 0.0397528
24.5 0.0398984
24.51 0.0400905
24.52 0.040326
24.53 0.0406012
24.54 0.0409168
24.55 0.0412641
24.56 0.0416343
24.57 0.0420244
24.58 0.0424284
24.59 0.0428375
24.6 0.0432438
24.61 0.0436439
24.62 0.0440305
24.63 0.0443977
24.64 0.0447404
24.65 0.0450536
24.66 0.0453322
24.67 0.0455714
24.68 0.045766
24.69 0.0459157
24.7 0.0460202
24.71 0.0460784
24.72 0.0460926
24.73 0.0460652
24.74 0.0459987
24.75 0.0458968
24.76 0.0457631
24.77 0.0456037
24.78 0.0454319
24.79 0.0452496
24.8 0.0450578
24.81 0.0448689
24.82 0.0446887
24.83 0.044517
24.84 0.0443632
24.85 0.044234
24.86 0.0441316
24.87 0.0440621
24.88 0.044029
24.89 0.044033
24.9 0.0440765
24.91 0.0441615
24.92 0.0442875
24.93 0.0444534
24.94 0.0446584
24.95 0.0448999
24.96 0.0451745
24.97 0.0454788
24.98 0.0458061
24.99 0.0461496
25 0.0465073
25.01 0.0468723
25.02 0.0472374
25.03 0.0475976
25.04 0.0479483
25.05 0.0482793
25.06 0.0485839
25.07 0.0488592
25.08 0.0490997
25.09 0.0492999
25.1 0.0494567
25.11 0.0495667
25.12 0.0496268
25.13 0.0496354
25.14 0.0495929
25.15 0.0495022
25.16 0.049364
25.17 0.0491802
25.18 0.0489544
25.19 0.0486919
25.2 0.0483972
25.21 0.0480765
25.22 0.0477349
25.23 0.0473743
25.24 0.0469983
25.25 0.0466104
25.26 0.0462183
25.27 0.0458297
25.28 0.0454488
25.29 0.0450771
25.3 0.0447179
25.31 0.0443753
25.32 0.0440517
25.33 0.0437494
25.34 0.0434704
25.35 0.0432158
25.36 0.042988
25.37 0.042787
25.38 0.0426107
25.39 0.0424574
25.4 0.042327
25.41 0.0422172
25.42 0.0421274
25.43 0.0420557
25.44 0.0419982
25.45 0.0419508
25.46 0.0419102
25.47 0.0418723
25.48 0.0418335
25.49 0.0417913
25.5 0.0417423
25.51 0.0416828
25.52 0.0416095
25.53 0.0415192
25.54 0.0414088
25.55 0.0412734
25.56 0.0411143
25.57 0.0409345
25.58 0.0407303
25.59 0.040501
25.6 0.0402488
25.61 0.0399737
25.62 0.0396756
25.63 0.0393572
25.64 0.0390217
25.65 0.0386728
25.66 0.0383144
25.67 0.0379488
25.68 0.0375758
25.69 0.0371981
25.7 0.0368206
25.71 0.0364472
25.72 0.0360807
25.73 0.0357239
25.74 0.0353793
25.75 0.0350495
25.76 0.0347374
25.77 0.0344455
25.78 0.0341755
25.79 0.0339281
25.8 0.0337041
25.81 0.0335049
25.82 0.0333309
25.83 0.0331811
25.84 0.0330546
25.85 0.03295
25.86 0.0328659
25.87 0.0328014
25.88 0.0327545
25.89 0.0327218
25.9 0.0327003
25.91 0.0326876
25.92 0.0326809
25.93 0.0326767
25.94 0.0326721
25.95 0.032664
25.96 0.0326498
25.97 0.0326267
25.98 0.0325922
25.99 0.0325443
26 0.0324813
26.01 0.0324015
26.02 0.0323035
26.03 0.0321876
26.04 0.0320546
26.05 0.0319033
26.06 0.0317341
26.07 0.0315484
26.08 0.0313473
26.09 0.0311321
26.1 0.0309045
26.11 0.0306663
26.12 0.0304195
26.13 0.0301669
26.14 0.0299104
26.15 0.0296514
26.16 0.0293922
26.17 0.0291345
26.18 0.0288803
26.19 0.0286321
26.2 0.0283913
26.21 0.0281585
26.22 0.0279351
26.23 0.0277218
26.24 0.0275187
26.25 0.0273265
26.26 0.0271452
26.27 0.0269746
26.28 0.0268135
26.29 0.026661
26.3 0.0265163
26.31 0.0263782
26.32 0.0262451
26.33 0.0261157
26.34 0.0259878
26.35 0.0258593
26.36 0.0257278
26.37 0.0255912
26.38 0.0254475
26.39 0.0252953
26.4 0.0251329
26.41 0.0249586
26.42 0.0247704
26.43 0.0245671
26.44 0.0243474
26.45 0.0241106
26.46 0.0238565
26.47 0.0235848
26.48 0.0232955
26.49 0.0229888
26.5 0.0226656
26.51 0.0223266
26.52 0.021973
26.53 0.0216062
26.54 0.0212278
26.55 0.0208396
26.56 0.0204435
26.57 0.0200418
26.58 0.0196366
26.59 0.0192301
26.6 0.0188244
26.61 0.0184215
26.62 0.0180236
26.63 0.0176325
26.64 0.01725
26.65 0.0168777
26.66 0.0165171
26.67 0.0161692
26.68 0.0158351
26.69 0.0155154
26.7 0.0152103
26.71 0.01492
26.72 0.0146441
26.73 0.0143822
26.74 0.0141338
26.75 0.0138982
26.76 0.013674
26.77 0.0134601
26.78 0.0132548
26.79 0.0130565
26.8 0.0128614
26.81 0.0126696
26.82 0.012482
26.83 0.012295
26.84 0.0121077
26.85 0.0119195
26.86 0.0117286
26.87 0.0115332
26.88 0.0113327
26.89 0.0111266
26.9 0.0109144
26.91 0.0106957
26.92 0.0104705
26.93 0.0102385
26.94 0.0100002
26.95 0.00975605
26.96 0.00950673
26.97 0.00925372
26.98 0.0089989
26.99 0.00874175
27 0.00848364
27.01 0.00822623
27.02 0.00797092
27.03 0.00771921
27.04 0.00747295
27.05 0.00723389
27.06 0.00700282
27.07 0.00678124
27.08 0.00657183
27.09 0.00637555
27.1 0.00619297
27.11 0.00602548
27.12 0.00587417
27.13 0.00573995
27.14 0.00562257
27.15 0.00552187
27.16 0.00543784
27.17 0.0053693
27.18 0.00531544
27.19 0.00527529
27.2 0.00524719
27.21 0.00522949
27.22 0.00522046
27.23 0.0052176
27.24 0.00521979
27.25 0.00522621
27.26 0.00523446
27.27 0.00524058
27.28 0.00524301
27.29 0.00523993
27.3 0.00522933
27.31 0.00520985
27.32 0.00518061
27.33 0.00514031
27.34 0.005088
27.35 0.00502337
27.36 0.00494603
27.37 0.00485592
27.38 0.00475361
27.39 0.00464
27.4 0.00451621
27.41 0.00438158
27.42 0.00423721
27.43 0.004087
27.44 0.00393194
27.45 0.00377248
27.46 0.00361108
27.47 0.0034499
27.48 0.00329018
27.49 0.00313367
27.5 0.00298215
27.51 0.00283663
27.52 0.00269732
27.53 0.0025655
27.54 0.00244233
27.55 0.00232791
27.56 0.00222258
27.57 0.00212683
27.58 0.00203957
27.59 0.00196013
27.6 0.00188818
27.61 0.0018227
27.62 0.00176243
27.63 0.00170638
27.64 0.00165346
27.65 0.00160232
27.66 0.00155152
27.67 0.00149974
27.68 0.00144559
27.69 0.00138768
27.7 0.0013248
27.71 0.00125587
27.72 0.00117988
27.73 0.00109597
27.74 0.00100351
27.75 0.000902048
27.76 0.000791433
27.77 0.000671768
27.78 0.000543655
27.79 0.000407956
27.8 0.000265213
27.81 0.00011643
27.82 -3.72094e-05
27.83 -0.000194237
27.84 -0.000353349
27.85 -0.000512309
27.86 -0.000667255
27.87 -0.000813345
27.88 -0.000953014
27.89 -0.00108588
27.9 -0.00120898
27.91 -0.00131939
27.92 -0.00141573
27.93 -0.00149706
27.94 -0.00156272
27.95 -0.00161176
27.96 -0.00164315
27.97 -0.00165714
27.98 -0.0016543
27.99 -0.0016348
28 -0.00159915
28.01 -0.00154918
28.02 -0.00148725
28.03 -0.0014151
28.04 -0.00133424
28.05 -0.00124625
28.06 -0.00115407
28.07 -0.00105961
28.08 -0.000965033
28.09 -0.00087215
28.1 -0.000780599
28.11 -0.000690961
28.12 -0.000608783
28.13 -0.000533901
28.14 -0.000465199
28.15 -0.000404887
28.16 -0.000352909
28.17 -0.000308368
28.18 -0.000272539
28.19 -0.000245234
28.2 -0.000224721
28.21 -0.000209401
28.22 -0.000197849
28.23 -0.000188711
28.24 -0.000180084
28.25 -0.000171203
28.26 -0.000161534
28.27 -0.000148919
28.28 -0.000132162
28.29 -0.000109575
28.3 -7.93336e-05
28.31 -4.07013e-05
28.32 7.06033e-06
28.33 6.49911e-05
28.34 0.000132964
28.35 0.000210402
28.36 0.000298062
28.37 0.000396662
28.38 0.000505557
28.39 0.000623727
28.4 0.000750044
28.41 0.000883771
28.42 0.0010241
28.43 0.00116977
28.44 0.00131959
28.45 0.00147237
28.46 0.00162637
28.47 0.00178073
28.48 0.00193457
28.49 0.00208626
28.5 0.00223426
28.51 0.00237761
28.52 0.0025153
28.53 0.00264618
28.54 0.00276947
28.55 0.00288435
28.56 0.00298989
28.57 0.00308555
28.58 0.00317108
28.59 0.00324622
28.6 0.00331093
28.61 0.00336542
28.62 0.00341008
28.63 0.0034454
28.64 0.00347179
28.65 0.00349051
28.66 0.00350305
28.67 0.00350992
28.68 0.00351236
28.69 0.0035119
28.7 0.00351104
28.71 0.00351045
28.72 0.00350979
28.73 0.00351085
28.74 0.00351438
28.75 0.00352131
28.76 0.00353283
28.77 0.00355003
28.78 0.00357392
28.79 0.0036046
28.8 0.00364247
28.81 0.00368793
28.82 0.00374108
28.83 0.00380205
28.84 0.00387058
28.85 0.00394625
28.86 0.00402861
28.87 0.00411718
28.88 0.00421078
28.89 0.00430815
28.9 0.00441026
28.91 0.00451605
28.92 0.00462344
28.93 0.00473229
28.94 0.00484217
28.95 0.00495196
28.96 0.00506088
28.97 0.00516837
28.98 0.00527369
28.99 0.00537614
29 0.00547526
29.01 0.00557078
29.02 0.00566252
29.03 0.00575049
29.04 0.00583461
29.05 0.00591479
29.06 0.00599085
29.07 0.00606332
29.08 0.00613278
29.09 0.00619958
29.1 0.00626464
29.11 0.00632873
29.12 0.00639238
29.13 0.00645629
29.14 0.00652123
29.15 0.00658806
29.16 0.00665758
29.17 0.00673063
29.18 0.00680808
29.19 0.00689039
29.2 0.00697808
29.21 0.00707148
29.22 0.00717097
29.23 0.00727652
29.24 0.00738806
29.25 0.0075057
29.26 0.00762939
29.27 0.00775881
29.28 0.00789326
29.29 0.00803217
29.3 0.00817492
29.31 0.00832078
29.32 0.00846916
29.33 0.00861943
29.34 0.00877035
29.35 0.0089211
29.36 0.00907111
29.37 0.00921927
29.38 0.00936467
29.39 0.0095072
29.4 0.0096461
29.41 0.00978071
29.42 0.00991037
29.43 0.0100347
29.44 0.0101535
29.45 0.0102664
29.46 0.0103735
29.47 0.0104746
29.48 0.0105697
29.49 0.010659
29.5 0.0107426
29.51 0.0108208
29.52 0.0108942
29.53 0.0109631
29.54 0.0110281
29.55 0.0110899
29.56 0.0111489
29.57 0.011206
29.58 0.0112616
29.59 0.0113164
29.6 0.0113711
29.61 0.0114263
29.62 0.0114826
29.63 0.0115404
29.64 0.0116004
29.65 0.0116628
29.66 0.0117279
29.67 0.011796
29.68 0.0118671
29.69 0.0119412
29.7 0.0120183
29.71 0.0120983
29.72 0.0121808
29.73 0.0122657
29.74 0.0123526
29.75 0.012441
29.76 0.01253
29.77 0.0126189
29.78 0.0127076
29.79 0.0127951
29.8 0.0128808
29.81 0.0129641
29.82 0.0130443
29.83 0.0131206
29.84 0.0131924
29.85 0.0132593
29.86 0.0133207
29.87 0.0133762
29.88 0.0134255
29.89 0.0134684
29.9 0.0135049
29.91 0.0135348
29.92 0.0135585
29.93 0.0135765
29.94 0.0135891
29.95 0.0135968
29.96 0.0136002
29.97 0.0135999
29.98 0.0135966
29.99 0.0135912
30 0.0135844
30.01 0.0135771
30.02 0.0135702
30.03 0.0135644
30.04 0.0135603
30.05 0.0135586
30.06 0.0135601
30.07 0.013566
30.08 0.0135756
30.09 0.0135893
30.1 0.0136075
30.11 0.0136304
30.12 0.0136578
30.13 0.0136898
30.14 0.0137261
30.15 0.0137666
30.16 0.0138109
30.17 0.0138587
30.18 0.0139095
30.19 0.0139627
30.2 0.0140172
30.21 0.0140728
30.22 0.0141295
30.23 0.0141861
30.24 0.0142421
30.25 0.0142977
30.26 0.0143524
30.27 0.014405
30.28 0.0144554
30.29 0.0145033
30.3 0.014548
30.31 0.0145896
30.32 0.014628
30.33 0.0146632
30.34 0.0146947
30.35 0.0147229
30.36 0.0147478
30.37 0.0147696
30.38 0.0147888
30.39 0.0148059
30.4 0.0148209
30.41 0.0148344
30.42 0.0148468
30.43 0.0148583
30.44 0.0148696
30.45 0.0148812
30.46 0.0148937
30.47 0.0149076
30.48 0.0149227
30.49 0.0149396
30.5 0.0149587
30.51 0.0149801
30.52 0.0150042
30.53 0.0150312
30.54 0.015061
30.55 0.0150937
30.56 0.0151291
30.57 0.0151672
30.58 0.0152079
30.59 0.0152511
30.6 0.0152963
30.61 0.0153433
30.62 0.0153916
30.63 0.0154408
30.64 0.0154905
30.65 0.0155402
30.66 0.0155896
30.67 0.015638
30.68 0.0156849
30.69 0.0157298
30.7 0.0157723
30.71 0.015812
30.72 0.0158484
30.73 0.0158812
30.74 0.0159102
30.75 0.0159351
30.76 0.0159557
30.77 0.0159719
30.78 0.0159836
30.79 0.0159909
30.8 0.0159939
30.81 0.0159926
30.82 0.0159874
30.83 0.0159783
30.84 0.0159658
30.85 0.0159502
30.86 0.015932
30.87 0.0159116
30.88 0.0158894
30.89 0.015866
30.9 0.0158417
30.91 0.0158171
30.92 0.0157926
30.93 0.0157685
30.94 0.0157452
30.95 0.0157229
30.96 0.0157018
30.97 0.015682
30.98 0.0156637
30.99 0.0156472
31 0.0156323
31.01 0.015619
31.02 0.0156074
31.03 0.0155968
31.04 0.0155872
31.05 0.0155783
31.06 0.0155698
31.07 0.0155614
31.08 0.0155529
31.09 0.0155438
31.1 0.0155337
31.11 0.0155223
31.12 0.0155092
31.13 0.0154939
31.14 0.0154764
31.15 0.0154562
31.16 0.0154332
31.17 0.0154072
31.18 0.015378
31.19 0.0153456
31.2 0.0153099
31.21 0.015271
31.22 0.015229
31.23 0.0151842
31.24 0.0151368
31.25 0.0150869
31.26 0.0150351
31.27 0.0149816
31.28 0.0149269
31.29 0.0148713
31.3 0.0148154
31.31 0.0147596
31.32 0.0147043
31.33 0.0146501
31.34 0.0145973
31.35 0.0145463
31.36 0.0144976
31.37 0.0144514
31.38 0.014408
31.39 0.0143676
31.4 0.0143303
31.41 0.0142964
31.42 0.0142657
31.43 0.0142383
31.44 0.0142141
31.45 0.0141929
31.46 0.0141746
31.47 0.0141593
31.48 0.0141464
31.49 0.0141354
31.5 0.014126
31.51 0.0141178
31.52 0.0141104
31.53 0.0141035
31.54 0.0140967
31.55 0.0140895
31.56 0.0140816
31.57 0.0140727
31.58 0.0140625
31.59 0.0140508
31.6 0.0140372
31.61 0.0140218
31.62 0.0140045
31.63 0.0139853
31.64 0.013964
31.65 0.0139409
31.66 0.0139162
31.67 0.0138899
31.68 0.0138624
31.69 0.0138337
31.7 0.0138041
31.71 0.0137741
31.72 0.0137439
31.73 0.0137139
31.74 0.0136845
31.75 0.0136557
31.76 0.0136279
31.77 0.0136014
31.78 0.0135763
31.79 0.0135526
31.8 0.0135306
31.81 0.0135103
31.82 0.0134919
31.83 0.0134753
31.84 0.0134605
31.85 0.0134474
31.86 0.0134358
31.87 0.0134255
31.88 0.0134164
31.89 0.0134081
31.9 0.0134004
31.91 0.013393
31.92 0.0133856
31.93 0.0133779
31.94 0.0133693
31.95 0.0133598
31.96 0.0133493
31.97 0.0133372
31.98 0.0133233
31.99 0.0133072
32 0.013289
32.0125 0.0132628
32.025 0.0132327
32.0375 0.0131986
32.05 0.0131603
32.0625 0.0131178
32.075 0.0130714
32.0875 0.0130211
32.1 0.0129673
32.1125 0.0129105
32.125 0.0128511
32.1375 0.0127897
32.15 0.0127269
32.1625 0.0126632
32.175 0.0125992
32.1875 0.0125356
32.2 0.0124729
32.2125 0.0124117
32.225 0.0123523
32.2375 0.0122952
32.25 0.0122407
32.2625 0.012189
32.275 0.0121402
32.2875 0.0120945
32.3 0.0120519
32.3125 0.0120122
32.325 0.0119753
32.3375 0.0119408
32.35 0.0119086
32.3625 0.0118782
32.375 0.0118492
32.3875 0.0118213
32.4 0.0117937
32.4125 0.0117662
32.425 0.0117384
32.4375 0.0117098
32.45 0.0116802
32.4625 0.0116493
32.475 0.0116168
32.4875 0.0115827
32.5 0.011547
32.5125 0.0115097
32.525 0.011471
32.5375 0.0114311
32.55 0.0113903
32.5625 0.0113491
32.575 0.0113079
32.5875 0.011267
32.6 0.0112271
32.6125 0.0111884
32.625 0.0111517
32.6375 0.0111175
32.65 0.0110861
32.6625 0.0110579
32.675 0.0110332
32.6875 0.0110124
32.7 0.0109957
32.7125 0.010983
32.725 0.0109745
32.7375 0.0109697
32.75 0.0109686
32.7625 0.0109707
32.775 0.0109756
32.7875 0.0109829
32.8 0.0109923
32.8125 0.0110035
32.825 0.0110149
32.8375 0.0110265
32.85 0.0110374
32.8625 0.0110471
32.875 0.0110553
32.8875 0.0110613
32.9 0.011065
32.9125 0.0110662
32.925 0.0110646
32.9375 0.0110605
32.95 0.0110537
32.9625 0.0110444
32.975 0.0110329
32.9875 0.0110198
33 0.0110054
33.0125 0.0109901
33.025 0.0109744
33.0375 0.0109589
33.05 0.0109441
33.0625 0.0109304
33.075 0.0109181
33.0875 0.0109077
33.1 0.0108994
33.1125 0.0108934
33.125 0.0108898
33.1375 0.0108884
33.15 0.0108893
33.1625 0.0108924
33.175 0.0108973
33.1875 0.0109036
33.2 0.0109108
33.2125 0.0109184
33.225 0.010926
33.2375 0.010933
33.25 0.010939
33.2625 0.0109434
33.275 0.0109458
33.2875 0.0109459
33.3 0.0109437
33.3125 0.010939
33.325 0.010932
33.3375 0.0109228
33.35 0.0109115
33.3625 0.0108987
33.375 0.0108845
33.3875 0.0108696
33.4 0.0108543
33.4125 0.0108392
33.425 0.0108248
33.4375 0.0108114
33.45 0.0107997
33.4625 0.0107901
33.475 0.0107826
33.4875 0.0107777
33.5 0.0107756
33.5125 0.0107767
33.525 0.0107808
33.5375 0.0107879
33.55 0.0107979
33.5625 0.0108106
33.575 0.0108258
33.5875 0.0108436
33.6 0.0108637
33.6125 0.0108853
33.625 0.010908
33.6375 0.0109316
33.65 0.0109555
33.6625 0.0109794
33.675 0.0110028
33.6875 0.0110254
33.7 0.011047
33.7125 0.0110672
33.725 0.0110861
33.7375 0.0111034
33.75 0.0111192
33.7625 0.0111336
33.775 0.0111464
33.7875 0.0111581
33.8 0.0111689
33.8125 0.0111789
33.825 0.0111885
33.8375 0.011198
33.85 0.0112077
33.8625 0.011218
33.875 0.0112291
33.8875 0.0112413
33.9 0.0112547
33.9125 0.0112696
33.925 0.0112862
33.9375 0.0113043
33.95 0.0113241
33.9625 0.0113455
33.975 0.0113682
33.9875 0.0113922
34 0.0114172
34.0125 0.0114429
34.025 0.0114691
34.0375 0.0114952
34.05 0.011521
34.0625 0.0115462
34.075 0.0115703
34.0875 0.0115929
34.1 0.0116137
34.1125 0.0116325
34.125 0.0116489
34.1375 0.0116628
34.15 0.0116741
34.1625 0.0116827
34.175 0.0116886
34.1875 0.011692
34.2 0.0116931
34.2125 0.011692
34.225 0.0116891
34.2375 0.0116846
34.25 0.011679
34.2625 0.0116726
34.275 0.0116656
34.2875 0.0116585
34.3 0.0116518
34.3125 0.011646
34.325 0.0116413
34.3375 0.0116379
34.35 0.0116361
34.3625 0.011636
34.375 0.0116378
34.3875 0.0116415
34.4 0.0116469
34.4125 0.0116541
34.425 0.0116629
34.4375 0.0116729
34.45 0.0116841
34.4625 0.0116959
34.475 0.0117082
34.4875 0.0117206
34.5 0.0117328
34.5125 0.0117445
34.525 0.0117554
34.5375 0.0117651
34.55 0.0117736
34.5625 0.0117807
34.575 0.0117863
34.5875 0.0117904
34.6 0.011793
34.6125 0.0117943
34.625 0.0117942
34.6375 0.0117931
34.65 0.011791
34.6625 0.0117883
34.675 0.0117853
34.6875 0.0117823
34.7 0.0117797
34.7125 0.0117776
34.725 0.0117764
34.7375 0.0117764
34.75 0.0117777
34.7625 0.0117805
34.775 0.011785
34.7875 0.0117911
34.8 0.0117989
34.8125 0.0118082
34.825 0.011819
34.8375 0.011831
34.85 0.011844
34.8625 0.0118578
34.875 0.011872
34.8875 0.0118863
34.9 0.0119003
34.9125 0.0119136
34.925 0.011926
34.9375 0.0119371
34.95 0.0119467
34.9625 0.0119545
34.975 0.0119602
34.9875 0.0119637
35 0.011965
35.0125 0.011964
35.025 0.0119608
35.0375 0.0119554
35.05 0.011948
35.0625 0.0119388
35.075 0.011928
35.0875 0.0119159
35.1 0.0119026
35.1125 0.0118882
35.125 0.0118733
35.1375 0.0118582
35.15 0.0118432
35.1625 0.0118285
35.175 0.0118142
35.1875 0.0118006
35.2 0.0117877
35.2125 0.0117758
35.225 0.011765
35.2375 0.0117551
35.25 0.011746
35.2625 0.0117378
35.275 0.0117302
35.2875 0.0117232
35.3 0.0117165
35.3125 0.0117099
35.325 0.0117031
35.3375 0.0116961
35.35 0.0116884
35.3625 0.0116799
35.375 0.0116705
35.3875 0.01166
35.4 0.0116481
35.4125 0.011635
35.425 0.0116204
35.4375 0.0116045
35.45 0.0115872
35.4625 0.0115687
35.475 0.0115491
35.4875 0.0115286
35.5 0.0115075
35.5125 0.0114858
35.525 0.011464
35.5375 0.0114423
35.55 0.011421
35.5625 0.0114003
35.575 0.0113805
35.5875 0.0113619
35.6 0.0113446
35.6125 0.0113288
35.625 0.0113146
35.6375 0.0113021
35.65 0.0112914
35.6625 0.0112824
35.675 0.0112751
35.6875 0.0112693
35.7 0.011265
35.7125 0.0112619
35.725 0.0112597
35.7375 0.0112584
35.75 0.0112574
35.7625 0.0112567
35.775 0.0112558
35.7875 0.0112546
35.8 0.0112529
35.8125 0.0112503
35.825 0.0112468
35.8375 0.0112422
35.85 0.0112364
35.8625 0.0112294
35.875 0.0112212
35.8875 0.0112118
35.9 0.0112013
35.9125 0.01119
35.925 0.0111779
35.9375 0.0111653
35.95 0.0111524
35.9625 0.0111393
35.975 0.0111264
35.9875 0.0111137
36 0.0111015
36.0125 0.0110899
36.025 0.0110791
36.0375 0.0110692
36.05 0.0110601
36.0625 0.0110519
36.075 0.0110446
36.0875 0.0110381
36.1 0.0110323
36.1125 0.0110271
36.125 0.0110222
36.1375 0.0110176
36.15 0.0110129
36.1625 0.0110081
36.175 0.0110029
36.1875 0.0109971
36.2 0.0109905
36.2125 0.0109829
36.225 0.0109743
36.2375 0.0109644
36.25 0.0109533
36.2625 0.0109408
36.275 0.010927
36.2875 0.0109119
36.3 0.0108955
36.3125 0.0108781
36.325 0.0108598
36.3375 0.0108407
36.35 0.010821
36.3625 0.010801
36.375 0.0107809
36.3875 0.0107609
36.4 0.0107413
36.4125 0.0107222
36.425 0.0107039
36.4375 0.0106866
36.45 0.0106704
36.4625 0.0106554
36.475 0.0106417
36.4875 0.0106294
36.5 0.0106186
36.5125 0.010609
36.525 0.0106008
36.5375 0.0105938
36.55 0.0105879
36.5625 0.0105829
36.575 0.0105788
36.5875 0.0105752
36.6 0.0105721
36.6125 0.0105693
36.625 0.0105666
36.6375 0.0105638
36.65 0.0105609
