-0.0487443 -2.4531e-05 -0.117757 -3.70277e-05 -0.0374831 -6.72901e-06
-0.0493361 -2.48288e-05 -0.117583 -3.6973e-05 -0.0375367 -6.73863e-06
-0.0506826 -2.55064e-05 -0.117199 -3.68523e-05 -0.0376282 -6.75505e-06
-0.0534467 -2.68975e-05 -0.116463 -3.66208e-05 -0.0377565 -6.7781e-06
-0.056565 -2.84668e-05 -0.11574 -3.63935e-05 -0.0378341 -6.79202e-06
-0.0605461 -3.04704e-05 -0.114973 -3.61522e-05 -0.0378432 -6.79366e-06
-0.0654391 -3.29328e-05 -0.114234 -3.59199e-05 -0.0377244 -6.77234e-06
-0.071295 -3.58798e-05 -0.113611 -3.5724e-05 -0.0374146 -6.71672e-06
-0.0781705 -3.934e-05 -0.113209 -3.55974e-05 -0.0368567 -6.61656e-06
-0.0861253 -4.33433e-05 -0.113147 -3.55779e-05 -0.0359977 -6.46236e-06
-0.0952085 -4.79145e-05 -0.113552 -3.57055e-05 -0.0347832 -6.24433e-06
-0.105429 -5.3058e-05 -0.114566 -3.60241e-05 -0.0331602 -5.95296e-06
-0.11671 -5.87353e-05 -0.116329 -3.65785e-05 -0.0310949 -5.58219e-06
-0.128931 -6.48858e-05 -0.11905 -3.74341e-05 -0.0285496 -5.12527e-06
-0.141845 -7.13846e-05 -0.122949 -3.86601e-05 -0.0255162 -4.58071e-06
-0.155088 -7.80494e-05 -0.128243 -4.03249e-05 -0.0220116 -3.95155e-06
-0.168223 -8.46599e-05 -0.135138 -4.24928e-05 -0.0180866 -3.24692e-06
-0.180779 -9.09784e-05 -0.143807 -4.52188e-05 -0.0138405 -2.48466e-06
-0.192282 -9.67677e-05 -0.154363 -4.8538e-05 -0.0095398 -1.7126e-06
-0.202284 -0.000101801 -0.166839 -5.24611e-05 -0.00532018 -9.55086e-07
-0.210356 -0.000105863 -0.181182 -5.69712e-05 -0.00146944 -2.63796e-07
-0.216041 -0.000108725 -0.197265 -6.20281e-05 0.00168107 3.01788e-07
-0.218818 -0.000110122 -0.214888 -6.75695e-05 0.00373844 6.7113e-07
-0.218066 -0.000109743 -0.233809 -7.35192e-05 0.00425851 7.64494e-07
-0.213065 -0.000107227 -0.253691 -7.97708e-05 0.00278221 4.99466e-07
-0.203094 -0.000102209 -0.274139 -8.62004e-05 -0.00119779 -2.1503e-07
-0.187622 -9.44223e-05 -0.294607 -9.26366e-05 -0.00813682 -1.46073e-06
-0.166583 -8.38346e-05 -0.314342 -9.88419e-05 -0.0191064 -3.43001e-06
-0.14061 -7.07631e-05 -0.332288 -0.000104485 -0.0344626 -6.18677e-06
-0.110939 -5.58313e-05 -0.347177 -0.000109167 -0.054725 -9.82431e-06
-0.0790734 -3.97944e-05 -0.357699 -0.000112475 -0.0803253 -1.44201e-05
-0.0464065 -2.33545e-05 -0.362652 -0.000114033 -0.111611 -2.00365e-05
-0.0142569 -7.1749e-06 -0.361144 -0.000113559 -0.148623 -2.6681e-05
0.0162861 8.19614e-06 -0.352542 -0.000110854 -0.191113 -3.43088e-05
0.0447401 2.25158e-05 -0.336449 -0.000105793 -0.238519 -4.28192e-05
0.0706742 3.55674e-05 -0.313011 -9.84234e-05 -0.2899 -5.20432e-05
0.093836 4.72238e-05 -0.282645 -8.88751e-05 -0.344052 -6.17647e-05
0.1145 5.76232e-05 -0.246049 -7.73677e-05 -0.39955 -7.17277e-05
0.132888 6.68771e-05 -0.204186 -6.42045e-05 -0.454738 -8.16351e-05
0.149305 7.51388e-05 -0.158111 -4.97167e-05 -0.507676 -9.11387e-05
0.164061 8.2565e-05 -0.109136 -3.4317e-05 -0.556563 -9.99149e-05
0.177389 8.92724e-05 -0.0585904 -1.84232e-05 -0.599471 -0.000107618
0.189282 9.52579e-05 -0.00779344 -2.45058e-06 -0.634566 -0.000113918
0.199499 0.0001004 0.0420608 1.32256e-05 -0.6601 -0.000118502
0.207694 0.000104524 0.0898846 2.82634e-05 -0.674331 -0.000121057
0.213647 0.00010752 0.133726 4.20489e-05 -0.675956 -0.000121348
0.217577 0.000109497 0.173243 5.44747e-05 -0.663951 -0.000119193
0.220295 0.000110865 0.207412 6.52188e-05 -0.637357 -0.000114419
0.223127 0.000112291 0.235137 7.39369e-05 -0.59555 -0.000106914
0.22789 0.000114687 0.25535 8.02924e-05 -0.53837 -9.66489e-05
0.239984 0.000120774 0.26878 8.45154e-05 -0.445685 -8.001e-05
0.263324 0.00013252 0.268323 8.43718e-05 -0.330789 -5.93837e-05
0.30213 0.00015205 0.254331 7.99719e-05 -0.196377 -3.52538e-05
0.359171 0.000180756 0.228618 7.1887e-05 -0.0464431 -8.33753e-06
0.435164 0.000219 0.194734 6.12323e-05 0.110586 1.98526e-05
0.528498 0.000265971 0.157712 4.95911e-05 0.270575 4.8574e-05
0.635111 0.000319625 0.124003 3.89918e-05 0.427935 7.68234e-05
0.748877 0.000376879 0.100729 3.16732e-05 0.575883 0.000103383
0.862924 0.000434274 0.0948161 2.98141e-05 0.708364 0.000127166
0.971371 0.000488851 0.112076 3.52413e-05 0.820171 0.000147238
1.07043 0.000538701 0.156391 4.91756e-05 0.908351 0.000163068
1.15838 0.000582966 0.229417 7.21381e-05 0.971788 0.000174457
1.2351 0.000621576 0.330702 0.000103986 1.01136 0.00018156
1.30151 0.000654997 0.457899 0.000143982 1.0297 0.000184852
1.35896 0.000683909 0.607068 0.000190887 1.03127 0.000185134
1.40851 0.000708846 0.7731 0.000243094 1.02191 0.000183455
1.45088 0.000730169 0.950058 0.000298737 1.00847 0.000181042
1.48715 0.000748422 1.1313 0.000355726 0.998277 0.000179212
1.51936 0.000764632 1.3096 0.00041179 0.998878 0.00017932
1.55037 0.000780239 1.47762 0.000464624 1.01751 0.000182665
1.5831 0.000796709 1.62859 0.000512096 1.06055 0.000190391
1.61943 0.00081499 1.75703 0.000552481 1.13291 0.000203381
1.65959 0.000835201 1.85918 0.000584603 1.23766 0.000222186
1.70277 0.000856936 1.93305 0.00060783 1.37594 0.000247011
1.74795 0.000879672 1.97816 0.000622015 1.54692 0.000277705
1.79411 0.000902904 1.99548 0.000627459 1.74778 0.000313763
1.84037 0.000926181 1.98728 0.000624883 1.97389 0.000354355
1.88597 0.000949133 1.95704 0.000615373 2.21903 0.000398364
1.93041 0.000971497 1.90912 0.000600307 2.47573 0.000444446
1.97331 0.000993084 1.84861 0.00058128 2.73557 0.000491094
2.01427 0.0010137 1.78105 0.000560034 2.98963 0.000536702
2.0529 0.00103314 1.71213 0.000538365 3.22889 0.000579654
2.08903 0.00105132 1.64737 0.000518001 3.44473 0.000618402
2.12302 0.00106843 1.59167 0.000500485 3.62935 0.000651546
2.15576 0.0010849 1.5491 0.0004871 3.77614 0.000677897
2.18816 0.00110121 1.52288 0.000478855 3.87992 0.000696528
2.22034 0.0011174 1.51548 0.000476528 3.93714 0.0007068
2.25075 0.00113271 1.52873 0.000480697 3.94598 0.000708388
2.2763 0.00114557 1.56371 0.000491695 3.90651 0.000701301
2.29321 0.00115408 1.62031 0.000509492 3.82078 0.000685912
2.29808 0.00115653 1.68012 0.0005283 3.72161 0.000668109
2.29094 0.00115294 1.77043 0.000556696 3.56437 0.000639881
2.26754 0.00114116 1.87358 0.000589131 3.37725 0.000606288
2.2274 0.00112096 1.98342 0.00062367 3.16919 0.000568937
2.17075 0.00109245 2.09277 0.000658051 2.95007 0.000529601
2.09804 0.00105585 2.19392 0.00068986 2.73015 0.000490119
2.00987 0.00101149 2.27914 0.000716654 2.51946 0.000452297
1.907 0.000959713 2.34096 0.000736093 2.32732 0.000417803
1.79008 0.000900872 2.3727 0.000746075 2.16172 0.000388074
1.65981 0.000835315 2.36878 0.000744841 2.02893 0.000364236
1.51697 0.000763428 2.32494 0.000731056 1.93312 0.000347036
1.36227 0.000685577 2.23853 0.000703886 1.87608 0.000336797
1.19662 0.000602211 2.10857 0.000663021 1.8571 0.000333389
1.02172 0.000514189 1.9356 0.000608633 1.87299 0.000336242
0.840676 0.000423077 1.72152 0.000541317 1.91822 0.000344362
0.657661 0.000330974 1.46961 0.000462107 1.98506 0.00035636
0.476511 0.000239808 1.1849 0.00037258 2.06371 0.000370479
0.30015 0.000151053 0.874142 0.000274866 2.14274 0.000384667
0.130849 6.5851e-05 0.545489 0.000171524 2.20959 0.000396668
-0.0284572 -1.43213e-05 0.208139 6.54474e-05 2.2511 0.000404121
-0.177737 -8.94475e-05 -0.127674 -4.0146e-05 2.25401 0.000404643
-0.315472 -0.000158764 -0.455519 -0.000143234 2.20868 0.000396504
-0.443127 -0.000223007 -0.767123 -0.000241215 2.10174 0.000377307
-0.562732 -0.0002832 -1.04959 -0.000330035 1.92544 0.000345657
-0.677257 -0.000340836 -1.29496 -0.000407188 1.6737 0.000300464
-0.789565 -0.000397355 -1.49808 -0.000471058 1.34264 0.000241032
-0.900948 -0.00045341 -1.656 -0.000520715 0.933428 0.00016757
-1.0106 -0.000508592 -1.76817 -0.000555985 0.451065 8.09758e-05
-1.11663 -0.000561953 -1.83723 -0.000577701 -0.0984118 -1.7667e-05
-1.21767 -0.000612805 -1.86793 -0.000587353 -0.713318 -0.000128056
-1.3139 -0.000661233 -1.86618 -0.000586804 -1.37083 -0.000246093
-1.40712 -0.000708147 -1.83836 -0.000578054 -2.05255 -0.000368476
-1.49971 -0.000754744 -1.79218 -0.000563535 -2.74156 -0.000492168
-1.59381 -0.000802101 -1.73634 -0.000545976 -3.42005 -0.000613972
-1.69145 -0.000851239 -1.67953 -0.000528114 -4.07008 -0.000730665
-1.7948 -0.000903246 -1.63029 -0.000512631 -4.67301 -0.000838905
-1.90607 -0.000959245 -1.59681 -0.000502103 -5.21227 -0.000935713
-2.02718 -0.00102019 -1.58647 -0.00049885 -5.67384 -0.00101858
-2.15999 -0.00108703 -1.5993 -0.000502887 -5.84208 -0.00104878
-2.30287 -0.00115894 -1.64738 -0.000518005 -5.83161 -0.0010469
-2.45316 -0.00123458 -1.73801 -0.000546501 -5.79926 -0.00104109
-2.60538 -0.00131118 -1.86851 -0.000587536 -5.79901 -0.00104105
-2.75454 -0.00138625 -2.04213 -0.000642128 -5.80247 -0.00104167
-2.89527 -0.00145707 -2.25698 -0.000709688 -5.708 -0.00102471
-3.0237 -0.00152171 -2.50838 -0.000788737 -5.50558 -0.000988368
-3.13746 -0.00157896 -2.78655 -0.000876207 -5.23777 -0.000940291
-3.18933 -0.00160506 -3.06504 -0.000963774 -4.94551 -0.000887824
-3.14489 -0.00158269 -3.30322 -0.00103867 -4.6444 -0.000833768
-3.10149 -0.00156085 -3.54268 -0.00111397 -4.30949 -0.000773645
-3.08848 -0.0015543 -3.78493 -0.00119014 -3.95991 -0.000710889
-3.05942 -0.00153968 -3.99256 -0.00125543 -3.6423 -0.000653871
-3.02691 -0.00152332 -4.1633 -0.00130911 -3.36466 -0.000604028
-3.01519 -0.00151742 -4.30125 -0.00135249 -3.11843 -0.000559825
-3.00631 -0.00151295 -4.38578 -0.00137907 -2.92227 -0.00052461
-2.99877 -0.00150916 -4.41359 -0.00138781 -2.79393 -0.000501569
-3.00425 -0.00151192 -4.3922 -0.00138109 -2.73321 -0.00049067
-3.01763 -0.00151865 -4.3191 -0.0013581 -2.73328 -0.000490681
-3.03305 -0.00152641 -4.19492 -0.00131905 -2.79026 -0.000500911
-3.04692 -0.00153339 -4.02442 -0.00126544 -2.90284 -0.000521121
-3.05855 -0.00153924 -3.81328 -0.00119905 -3.06303 -0.000549879
-3.07226 -0.00154614 -3.5703 -0.00112265 -3.25481 -0.000584308
-3.09263 -0.00155639 -3.30698 -0.00103985 -3.4615 -0.000621413
-3.12143 -0.00157089 -3.03522 -0.000954396 -3.66895 -0.000658655
-3.14814 -0.00158433 -2.76799 -0.00087037 -3.86282 -0.000693459
-3.06028 -0.00154011 -2.55303 -0.000802777 -4.01657 -0.00072106
-2.9909 -0.00150519 -2.36877 -0.000744839 -4.12905 -0.000741252
-2.93346 -0.00147629 -2.20804 -0.000694299 -4.18956 -0.000752115
-2.88852 -0.00145367 -2.07876 -0.000653646 -4.19532 -0.000753149
-2.86354 -0.0014411 -1.99246 -0.000626511 -4.1384 -0.000742931
-2.85507 -0.00143684 -1.94516 -0.000611638 -4.01714 -0.000721162
-2.86363 -0.00144115 -1.93659 -0.000608942 -3.83345 -0.000688186
-2.89063 -0.00145473 -1.96973 -0.000619363 -3.59203 -0.000644845
-2.92442 -0.00147174 -2.04432 -0.000642818 -3.29861 -0.000592171
-2.95214 -0.00148569 -2.15895 -0.000678862 -2.96054 -0.000531481
-2.97285 -0.00149611 -2.30855 -0.000725903 -2.59046 -0.000465042
-2.983 -0.00150122 -2.48551 -0.000781546 -2.2039 -0.000395647
-2.97984 -0.00149963 -2.68095 -0.000843 -1.81643 -0.000326088
-2.96145 -0.00149038 -2.8848 -0.000907099 -1.44406 -0.000259239
-2.92655 -0.00147281 -3.08581 -0.000970306 -1.10417 -0.000198222
-2.87558 -0.00144716 -3.2725 -0.00102901 -0.8138 -0.000146094
-2.82436 -0.00142138 -3.4039 -0.00107032 -0.627239 -0.000112603
-2.76497 -0.00139149 -3.51333 -0.00110474 -0.488311 -8.76622e-05
-2.69855 -0.00135807 -3.59602 -0.00113074 -0.402279 -7.22176e-05
-2.62626 -0.00132169 -3.64808 -0.00114711 -0.373123 -6.69836e-05
-2.54919 -0.0012829 -3.66659 -0.00115293 -0.403234 -7.23891e-05
-2.46828 -0.00124218 -3.64966 -0.0011476 -0.493142 -8.85295e-05
-2.38426 -0.0011999 -3.59662 -0.00113093 -0.641459 -0.000115156
-2.29739 -0.00115618 -3.50812 -0.0011031 -0.844991 -0.000151694
-2.20733 -0.00111086 -3.38609 -0.00106473 -1.09887 -0.00019727
-2.11317 -0.00106347 -3.23369 -0.0010168 -1.39664 -0.000250727
-2.01355 -0.00101333 -3.05504 -0.000960629 -1.73044 -0.00031065
-1.90708 -0.000959755 -2.85503 -0.000897738 -2.09118 -0.000375411
-1.79282 -0.000902252 -2.63892 -0.000829786 -2.46898 -0.000443234
-1.67056 -0.000840725 -2.41207 -0.000758455 -2.85347 -0.000512258
-1.541 -0.000775523 -2.17968 -0.000685381 -3.23412 -0.000580593
-1.40557 -0.000707368 -1.94669 -0.000612118 -3.60048 -0.000646362
-1.26598 -0.000637114 -1.71777 -0.000540139 -3.94239 -0.000707742
-1.12372 -0.000565523 -1.49739 -0.000470841 -4.2502 -0.000763001
-0.979936 -0.000493161 -1.28967 -0.000405524 -4.51502 -0.000810542
-0.835425 -0.000420435 -1.09828 -0.000345345 -4.72896 -0.000848949
-0.690888 -0.000347695 -0.92626 -0.000291254 -4.88534 -0.000877022
-0.547007 -0.000275286 -0.775856 -0.000243961 -4.97884 -0.000893807
-0.404414 -0.000203525 -0.648506 -0.000203917 -5.00563 -0.000898617
-0.263582 -0.00013265 -0.544825 -0.000171315 -4.96344 -0.000891042
-0.124921 -6.28676e-05 -0.464609 -0.000146092 -4.85158 -0.000870962
-0.00381542 -1.92014e-06 -0.414718 -0.000130404 -4.66764 -0.00083794
0.10575 5.32194e-05 -0.389541 -0.000122488 -4.41649 -0.000792853
0.216498 0.000108954 -0.380639 -0.000119688 -4.10398 -0.000736751
0.315594 0.000158826 -0.378194 -0.00011892 -3.73737 -0.000670938
0.400239 0.000201424 -0.380963 -0.00011979 -3.32247 -0.000596455
0.481549 0.000242344 -0.390733 -0.000122863 -2.86411 -0.00051417
0.560656 0.000282155 -0.4039 -0.000127003 -2.3705 -0.000425556
0.637548 0.000320852 -0.416257 -0.000130888 -1.85001 -0.000332117
0.711649 0.000358143 -0.423549 -0.000133181 -1.31037 -0.00023524
0.782819 0.00039396 -0.421843 -0.000132645 -0.760019 -0.00013644
0.851454 0.000428502 -0.407652 -0.000128183 -0.207844 -3.73124e-05
0.917803 0.000461892 -0.379643 -0.000119375 0.286487 5.14305e-05
0.981647 0.000494023 -0.333645 -0.000104912 0.743866 0.00013354
1.04398 0.000525393 -0.267543 -8.41265e-05 1.18173 0.000212146
1.1057 0.000556454 -0.180325 -5.67016e-05 1.60106 0.000287424
1.16819 0.0005879 -0.0755653 -2.37608e-05 2.00216 0.00035943
1.23246 0.000620244 0.0493203 1.55083e-05 2.37729 0.000426773
1.29989 0.00065418 0.193486 6.084e-05 2.71944 0.000488197
1.37154 0.000690239 0.356126 0.000111981 3.02626 0.000543277
1.44801 0.000728725 0.535141 0.00016827 3.30028 0.00059247
1.52958 0.000769773 0.727997 0.000228912 3.54454 0.00063632
1.61615 0.00081334 0.932399 0.000293185 3.7596 0.000674929
1.70724 0.000859185 1.14618 0.000360405 3.94444 0.000708111
1.80217 0.000906956 1.36682 0.000429783 4.09924 0.000735901
1.90019 0.000956289 1.59134 0.000500381 4.2269 0.000758819
2.00067 0.00100685 1.81652 0.000571189 4.33192 0.000777672
2.10304 0.00105837 2.03921 0.00064121 4.41825 0.000793171
2.20679 0.00111059 2.25634 0.000709485 4.48846 0.000805774
2.31142 0.00116324 2.46496 0.000775084 4.5446 0.000815853
2.41624 0.00121599 2.66225 0.000837121 4.58953 0.000823917
2.52035 0.00126839 2.84574 0.000894818 4.62695 0.000830636
2.6226 0.00131985 3.01343 0.000947546 4.66047 0.000836653
2.7217 0.00136972 3.1638 0.000994829 4.6926 0.000842421
2.81629 0.00141732 3.29571 0.00103631 4.72485 0.000848211
2.90506 0.001462 3.40834 0.00107172 4.75845 0.000854242
2.98675 0.00150311 3.50124 0.00110093 4.79476 0.000860762
3.05288 0.00153639 3.5691 0.00112227 4.83708 0.000868358
3.08534 0.00155272 3.60086 0.00113226 4.88691 0.000877304
3.09312 0.00155664 3.60553 0.00113373 4.94517 0.000887763
3.09733 0.00155876 3.59889 0.00113164 5.0032 0.000898181
3.11109 0.00156568 3.59127 0.00112924 5.05589 0.00090764
3.12602 0.0015732 3.57483 0.00112407 5.10424 0.000916319
3.1317 0.00157606 3.54177 0.00111368 5.15139 0.000924785
3.13361 0.00157702 3.49905 0.00110025 5.19507 0.000932626
3.13157 0.00157599 3.44744 0.00108402 5.23329 0.000939488
3.12027 0.0015703 3.38334 0.00106386 5.26435 0.000945063
3.10039 0.0015603 3.30625 0.00103962 5.28653 0.000949044
3.07593 0.00154799 3.21995 0.00101248 5.29838 0.000951173
3.0485 0.00153418 3.12693 0.000983234 5.29838 0.000951171
3.01806 0.00151886 3.02767 0.000952022 5.28341 0.000948484
2.98629 0.00150288 2.92346 0.000919255 5.24985 0.000942459
2.95539 0.00148733 2.81632 0.000885568 5.19511 0.000932632
2.92621 0.00147264 2.70802 0.000851512 5.11836 0.000918854
2.89901 0.00145895 2.60035 0.000817657 5.01904 0.000901025
2.87429 0.00144651 2.49537 0.000784646 4.89575 0.000878892
2.85229 0.00143544 2.39485 0.000753039 4.74689 0.000852167
2.83272 0.00142559 2.30026 0.000723296 4.5718 0.000820735
2.81534 0.00141685 2.21306 0.000695877 4.371 0.000784687
2.80008 0.00140916 2.13462 0.000671213 4.14561 0.000744225
2.78677 0.00140246 2.06583 0.000649582 3.89694 0.000699584
2.77449 0.00139628 2.00728 0.000631171 3.62652 0.000651038
2.76241 0.00139021 1.95931 0.000616088 3.33652 0.000598977
2.75016 0.00138404 1.92194 0.000604336 3.02998 0.000543946
2.73744 0.00137764 1.89471 0.000595776 2.71057 0.000486605
2.72423 0.00137099 1.87669 0.000590108 2.38233 0.000427679
2.71087 0.00136427 1.86654 0.000586917 2.04952 0.000367933
2.69796 0.00135777 1.86272 0.000585716 1.71667 0.000308179
2.68609 0.0013518 1.86353 0.000585971 1.38851 0.000249267
2.67557 0.0013465 1.86728 0.000587148 1.06987 0.000192064
2.66617 0.00134177 1.87237 0.000588751 0.765436 0.000137412
2.65704 0.00133718 1.8775 0.000590364 0.479629 8.61036e-05
2.64683 0.00133204 1.88159 0.000591649 0.216505 3.88673e-05
2.63402 0.0013256 1.88373 0.000592322 -0.0202305 -3.63181e-06
2.617 0.00131703 1.88381 0.000592347 -0.212505 -3.81491e-05
2.59435 0.00130563 1.88005 0.000591166 -0.370451 -6.65038e-05
2.56434 0.00129052 1.87221 0.000588698 -0.496326 -8.91012e-05
2.52534 0.0012709 1.86012 0.000584899 -0.590192 -0.000105952
2.47562 0.00124588 1.84357 0.000579693 -0.651834 -0.000117018
2.41355 0.00121464 1.82213 0.000572952 -0.679436 -0.000121973
2.33763 0.00117643 1.79554 0.000564592 -0.669748 -0.000120234
2.24688 0.00113076 1.76371 0.000554584 -0.620569 -0.000111405
2.14119 0.00107757 1.72624 0.000542799 -0.533228 -9.57259e-05
2.02134 0.00101726 1.68241 0.000529018 -0.410011 -7.36057e-05
1.88868 0.000950492 1.63139 0.000512975 -0.252996 -4.54182e-05
1.7448 0.000878084 1.57246 0.000494445 -0.0633993 -1.13815e-05
1.59151 0.000800943 1.50475 0.000473156 0.146159 2.62386e-05
1.43066 0.000719991 1.4281 0.000449054 0.380038 6.8225e-05
1.2642 0.000636221 1.34215 0.000422026 0.634212 0.000113854
1.09424 0.000550685 1.24675 0.000392031 0.904374 0.000162354
0.923013 0.000464514 1.14203 0.0003591 1.18583 0.000212881
0.752873 0.00037889 1.02836 0.000323358 1.47328 0.000264486
0.586027 0.000294923 0.906471 0.000285032 1.76101 0.000316139
0.424209 0.000213487 0.777464 0.000244466 2.0431 0.00036678
0.268545 0.000135147 0.64284 0.000202135 2.31363 0.000415346
0.11971 6.02449e-05 0.504456 0.000158621 2.5667 0.000460776
-0.0112752 -5.67436e-06 0.365857 0.000115041 2.79597 0.000501936
-0.108829 -5.47691e-05 0.242147 7.6141e-05 2.98885 0.000536562
-0.195653 -9.8464e-05 0.121505 3.82063e-05 3.14962 0.000565425
-0.282262 -0.000142051 0.00120762 3.79726e-07 3.27355 0.000587673
-0.36605 -0.000184218 -0.114263 -3.5929e-05 3.3546 0.000602222
-0.443523 -0.000223207 -0.219907 -6.91479e-05 3.38981 0.000608542
-0.517068 -0.000260219 -0.315778 -9.92936e-05 3.3769 0.000606226
-0.589009 -0.000296424 -0.402245 -0.000126482 3.31504 0.00059512
-0.658031 -0.00033116 -0.480609 -0.000151123 3.20235 0.000574889
-0.723463 -0.000364089 -0.547498 -0.000172156 3.03873 0.000545517
-0.786707 -0.000395917 -0.603471 -0.000189756 2.82648 0.000507414
-0.848648 -0.00042709 -0.649563 -0.000204249 2.56813 0.000461033
-0.908936 -0.00045743 -0.686582 -0.00021589 2.26626 0.000406842
-0.967665 -0.000486986 -0.715988 -0.000225136 1.92453 0.000345495
-1.02556 -0.000516123 -0.739738 -0.000232604 1.54796 0.000277891
-1.08306 -0.000545057 -0.759693 -0.000238879 1.14215 0.00020504
-1.14031 -0.000573872 -0.7778 -0.000244572 0.71287 0.000127975
-1.19784 -0.000602821 -0.796396 -0.00025042 0.266095 4.77697e-05
-1.25643 -0.000632311 -0.817422 -0.000257031 -0.168194 -3.01945e-05
-1.31679 -0.000662687 -0.842043 -0.000264773 -0.594042 -0.000106643
-1.37937 -0.000694182 -0.874518 -0.000274984 -1.01104 -0.000181503
-1.44466 -0.000727038 -0.915964 -0.000288017 -1.42174 -0.000255233
-1.51292 -0.000761391 -0.967967 -0.000304369 -1.82463 -0.00032756
-1.58404 -0.000797182 -1.03282 -0.00032476 -2.2143 -0.000397515
-1.65755 -0.000834176 -1.11247 -0.000349807 -2.58329 -0.000463756
-1.73283 -0.000872063 -1.20824 -0.000379921 -2.92601 -0.00052528
-1.80912 -0.000910455 -1.32083 -0.000415322 -3.24057 -0.000581752
-1.88562 -0.000948955 -1.45057 -0.000456118 -3.52719 -0.000633206
-1.96162 -0.000987202 -1.59741 -0.000502292 -3.78538 -0.000679556
-2.03653 -0.0010249 -1.76064 -0.000553619 -4.01336 -0.000720483
-2.10988 -0.00106182 -1.93879 -0.000609635 -4.20979 -0.000755746
-2.18126 -0.00109774 -2.12976 -0.000669684 -4.37548 -0.000785493
-2.36702 -0.00119122 -2.17987 -0.000685442 -4.57323 -0.000820992
-1.83469 -0.000923325 -1.7926 -0.000563665 -4.88644 -0.00087722
-1.68233 -0.000846646 -1.79565 -0.000564627 -5.02707 -0.000902466
-2.07843 -0.00104599 -2.3294 -0.00073246 -4.91373 -0.000882119
-2.35567 -0.00118551 -2.80287 -0.000881336 -4.80452 -0.000862514
-2.25216 -0.00113342 -2.93253 -0.000922108 -4.7983 -0.000861398
-2.10128 -0.00105749 -2.99825 -0.000942771 -4.77801 -0.000857754
-2.18242 -0.00109832 -3.26685 -0.00102723 -4.64211 -0.000833358
-2.34885 -0.00118208 -3.61996 -0.00113826 -4.46882 -0.000802249
-2.38074 -0.00119813 -3.85433 -0.00121196 -4.33549 -0.000778312
-2.3468 -0.00118105 -3.98052 -0.00125164 -4.23035 -0.000759438
-2.32727 -0.00117122 -4.08266 -0.00128375 -4.1186 -0.000739376
-2.37688 -0.00119619 -4.22849 -0.00132961 -3.99136 -0.000716534
-2.46373 -0.00123989 -4.38144 -0.0013777 -3.87201 -0.000695108
-2.51047 -0.00126342 -4.46245 -0.00140318 -3.78838 -0.000680096
-2.5192 -0.00126781 -4.46303 -0.00140336 -3.73481 -0.000670478
-2.54247 -0.00127952 -4.43534 -0.00139465 -3.69411 -0.000663172
-2.60416 -0.00131056 -4.41119 -0.00138706 -3.66237 -0.000657473
-2.67465 -0.00134604 -4.3682 -0.00137354 -3.65098 -0.000655429
-2.7224 -0.00137007 -4.27642 -0.00134468 -3.66419 -0.0006578
-2.7547 -0.00138632 -4.14283 -0.00130268 -3.69169 -0.000662736
-2.79446 -0.00140634 -3.99712 -0.00125686 -3.72176 -0.000668136
-2.83873 -0.00142862 -3.86196 -0.00121436 -3.7483 -0.0006729
-2.87761 -0.00144818 -3.71243 -0.00116734 -3.7798 -0.000678555
-2.89916 -0.00145903 -3.54301 -0.00111407 -3.81003 -0.000683981
-2.92156 -0.0014703 -3.3715 -0.00106014 -3.82593 -0.000686836
-2.95139 -0.00148531 -3.2092 -0.0010091 -3.82222 -0.000686169
-2.97777 -0.00149859 -3.05296 -0.000959975 -3.80028 -0.00068223
-2.9967 -0.00150812 -2.9036 -0.000913011 -3.75728 -0.000674512
-3.01533 -0.00151749 -2.76984 -0.000870951 -3.68563 -0.000661649
-3.03606 -0.00152792 -2.65663 -0.000835352 -3.58125 -0.00064291
-3.05432 -0.00153711 -2.56362 -0.000806107 -3.44466 -0.000618389
-3.04398 -0.00153191 -2.5033 -0.000787139 -3.27214 -0.000587418
-3.04386 -0.00153185 -2.46559 -0.000775282 -3.06975 -0.000551085
-3.05203 -0.00153596 -2.44958 -0.000770249 -2.83759 -0.000509408
-3.05998 -0.00153996 -2.45237 -0.000771127 -2.57962 -0.000463097
-3.06106 -0.0015405 -2.47948 -0.000779649 -2.29674 -0.000412313
-3.06014 -0.00154004 -2.53104 -0.000795862 -1.99406 -0.000357976
-3.05667 -0.0015383 -2.60288 -0.000818452 -1.67835 -0.0003013
-3.04839 -0.00153413 -2.68723 -0.000844975 -1.35792 -0.000243775
-3.02889 -0.00152432 -2.77614 -0.000872933 -1.04077 -0.00018684
-3.00664 -0.00151312 -2.8734 -0.000903515 -0.73018 -0.000131083
-2.98833 -0.0015039 -2.98071 -0.000937257 -0.431095 -7.73907e-05
-2.97096 -0.00149516 -3.09088 -0.000971901 -0.152389 -2.73571e-05
-2.95013 -0.00148468 -3.19446 -0.00100447 0.0932374 1.67381e-05
-2.92599 -0.00147253 -3.28766 -0.00103378 0.281647 5.05616e-05
-2.90239 -0.00146065 -3.36916 -0.0010594 0.432815 7.76995e-05
-2.88114 -0.00144996 -3.43902 -0.00108137 0.546265 9.80661e-05
-2.8603 -0.00143947 -3.49354 -0.00109851 0.620215 0.000111342
-2.83536 -0.00142692 -3.52719 -0.00110909 0.651081 0.000116883
-2.80501 -0.00141164 -3.53864 -0.00111269 0.633017 0.00011364
-2.77134 -0.0013947 -3.52991 -0.00110995 0.563153 0.000101098
-2.73422 -0.00137602 -3.50147 -0.00110101 0.442409 7.94219e-05
-2.69042 -0.00135398 -3.4531 -0.0010858 0.274178 4.92207e-05
-2.64187 -0.00132954 -3.39004 -0.00106597 0.0656294 1.17819e-05
-2.59651 -0.00130672 -3.32073 -0.00104417 -0.176736 -3.17279e-05
-2.55343 -0.00128504 -3.24379 -0.00101998 -0.450959 -8.09567e-05
-2.50301 -0.00125966 -3.15063 -0.000990686 -0.757002 -0.000135898
-2.44493 -0.00123043 -3.04168 -0.000956428 -1.08915 -0.000195526
-2.38699 -0.00120127 -2.92575 -0.000919974 -1.43767 -0.000258093
-2.33334 -0.00117427 -2.80909 -0.000883292 -1.79398 -0.000322057
-2.28118 -0.00114802 -2.69184 -0.000846426 -2.15238 -0.000386397
-2.22756 -0.00112104 -2.57348 -0.000809208 -2.50746 -0.000450142
-2.17258 -0.00109337 -2.45675 -0.000772503 -2.85227 -0.000512043
-2.11917 -0.00106649 -2.34707 -0.000738014 -3.17874 -0.000570652
-2.06935 -0.00104142 -2.24832 -0.000706964 -3.47992 -0.000624719
-2.02193 -0.00101756 -2.16091 -0.000679478 -3.75076 -0.000673342
-1.97593 -0.000994405 -2.0848 -0.000655545 -3.98698 -0.000715748
-1.93265 -0.000972622 -2.02182 -0.000635744 -4.18413 -0.000751141
-1.89419 -0.000953266 -1.9744 -0.000620833 -4.33823 -0.000778805
-1.86113 -0.000936627 -1.94339 -0.000611082 -4.44663 -0.000798265
-1.83249 -0.000922218 -1.92819 -0.000606304 -4.50802 -0.000809286
-1.80734 -0.000909558 -1.9284 -0.000606366 -4.52173 -0.000811747
-1.78534 -0.000898489 -1.94446 -0.000611417 -4.48678 -0.000805472
-1.76605 -0.000888778 -1.97673 -0.000621566 -4.4038 -0.000790575
-1.74775 -0.000879571 -2.02449 -0.000636582 -4.27486 -0.000767428
-1.72929 -0.000870278 -2.08728 -0.000656325 -4.10277 -0.000736534
-1.7099 -0.000860524 -2.16386 -0.000680406 -3.89148 -0.000698603
-1.68678 -0.000848888 -2.2509 -0.000707774 -3.64662 -0.000654645
-1.65783 -0.000834315 -2.34483 -0.000737311 -3.3743 -0.000605759
-1.62229 -0.000816431 -2.44249 -0.00076802 -3.08093 -0.000553093
-1.57948 -0.000794888 -2.5401 -0.000798713 -2.77344 -0.000497891
-1.52931 -0.00076964 -2.63293 -0.000827902 -2.4593 -0.000441496
-1.47235 -0.000740971 -2.71605 -0.000854038 -2.14542 -0.000385149
-1.40713 -0.000708149 -2.7854 -0.000875844 -1.83952 -0.000330234
-1.33477 -0.000671736 -2.83761 -0.00089226 -1.54766 -0.000277838
-1.25447 -0.000631323 -2.86878 -0.000902061 -1.27627 -0.000229117
-1.16808 -0.000587844 -2.87963 -0.000905474 -1.02773 -0.000184499
-1.08616 -0.000546621 -2.87495 -0.000904003 -0.803905 -0.000144318
-1.00282 -0.000504679 -2.84594 -0.000894879 -0.611672 -0.000109808
-0.909952 -0.000457941 -2.78322 -0.000875158 -0.457202 -8.20774e-05
-0.81024 -0.00040776 -2.6877 -0.000845122 -0.340597 -6.11444e-05
-0.71197 -0.000358305 -2.56506 -0.000806559 -0.259296 -4.65491e-05
-0.623592 -0.000313828 -2.41488 -0.000759338 -0.21325 -3.8283e-05
-0.530417 -0.000266937 -2.23811 -0.000703753 -0.200169 -3.59346e-05
-0.430658 -0.000216733 -2.03329 -0.000639348 -0.218842 -3.92868e-05
-0.32773 -0.000164933 -1.80573 -0.000567797 -0.263753 -4.73493e-05
-0.225209 -0.000113338 -1.56183 -0.000491104 -0.328467 -5.89668e-05
-0.123312 -6.20578e-05 -1.30477 -0.000410272 -0.407346 -7.31273e-05
-0.0215183 -1.08293e-05 -1.0357 -0.000325667 -0.495177 -8.88948e-05
0.0711547 3.58092e-05 -0.758835 -0.000238609 -0.585317 -0.000105077
0.149794 7.53849e-05 -0.488729 -0.000153676 -0.665677 -0.000119503
0.220315 0.000110876 -0.222667 -7.00158e-05 -0.734839 -0.000131919
0.289453 0.00014567 0.0372234 1.17045e-05 -0.785943 -0.000141093
0.356524 0.000179424 0.287314 9.03433e-05 -0.812152 -0.000145799
0.421342 0.000212044 0.51758 0.000162748 -0.80683 -0.000144843
0.483572 0.000243362 0.729397 0.000229352 -0.767726 -0.000137823
0.542847 0.000273193 0.918612 0.000288849 -0.690542 -0.000123967
0.587817 0.000295824 1.09106 0.000343073 -0.575966 -0.000103398
0.683075 0.000343764 1.26959 0.000399211 -0.432476 -7.76386e-05
0.754968 0.000379944 1.40587 0.000442062 -0.237357 -4.26106e-05
0.798974 0.000402091 1.48922 0.000468271 -0.00378569 -6.79612e-07
0.850869 0.000428207 1.54525 0.000485891 0.24963 4.48139e-05
0.91356 0.000459757 1.57819 0.000496247 0.529733 9.50984e-05
0.967005 0.000486653 1.57278 0.000494546 0.844641 0.000151631
1.01277 0.000509683 1.53194 0.000481705 1.19154 0.000213906
1.06454 0.000535741 1.46833 0.000461703 1.55966 0.000279992
1.12224 0.000564777 1.38453 0.000435352 1.94074 0.000348405
1.18019 0.000593943 1.27972 0.000402397 2.3279 0.000417908
1.24093 0.000624507 1.16047 0.000364901 2.71349 0.000487129
1.30887 0.000658698 1.03589 0.000325725 3.08906 0.000554551
1.3828 0.000695905 0.911104 0.000286489 3.44694 0.0006188
1.46062 0.000735069 0.790728 0.000248637 3.77859 0.000678337
1.54314 0.000776599 0.68188 0.000214411 4.07483 0.000731518
1.63107 0.000820851 0.591462 0.00018598 4.3281 0.000776987
1.72304 0.000867134 0.524393 0.000164891 4.53306 0.00081378
1.81771 0.000914777 0.485005 0.000152505 4.68523 0.000841099
1.91469 0.000963586 0.477556 0.000150163 4.78059 0.000858218
2.01331 0.00101322 0.505146 0.000158839 4.81646 0.000864657
2.11254 0.00106315 0.569062 0.000178936 4.78849 0.000859636
2.21193 0.00111317 0.669342 0.000210469 4.69479 0.000842815
2.31179 0.00116343 0.805067 0.000253146 4.53808 0.000814681
2.41245 0.00121409 0.973777 0.000306195 4.32362 0.000776181
2.51401 0.0012652 1.17189 0.00036849 4.05871 0.000728624
2.61657 0.00131681 1.39513 0.000438686 3.75188 0.000673542
2.71908 0.0013684 1.63908 0.000515394 3.41228 0.000612578
2.82111 0.00141975 1.89841 0.000596938 3.04999 0.000547538
2.92269 0.00147087 2.16691 0.000681364 2.67602 0.000480403
3.02347 0.00152159 2.43822 0.000766677 2.30197 0.000413252
3.12292 0.00157164 2.70622 0.000850946 1.93938 0.00034816
3.17446 0.00159758 2.95029 0.000927692 1.60488 0.000288111
3.16012 0.00159036 3.13537 0.00098589 1.32287 0.000237484
3.14167 0.00158107 3.29931 0.00103744 1.07641 0.000193239
3.14555 0.00158303 3.46067 0.00108818 0.868957 0.000155996
3.1539 0.00158723 3.6063 0.00113397 0.713901 0.00012816
3.15285 0.0015867 3.72327 0.00117075 0.615864 0.000110561
3.14998 0.00158526 3.81206 0.00119867 0.575215 0.000103263
3.15721 0.00158889 3.8793 0.00121981 0.592125 0.000106299
3.16908 0.00159487 3.92206 0.00123326 0.670718 0.000120408
3.17866 0.00159969 3.93513 0.00123737 0.812479 0.000145857
3.1901 0.00160544 3.91982 0.00123255 1.01246 0.000181759
3.20766 0.00161428 3.87896 0.00121971 1.26538 0.000227163
3.22904 0.00162504 3.81328 0.00119905 1.56806 0.0002815
3.25125 0.00163622 3.72453 0.00117114 1.91606 0.000343974
3.27504 0.00164819 3.61744 0.00113747 2.30127 0.000413128
3.2808 0.00165109 3.50204 0.00110118 2.71186 0.000486837
3.28267 0.00165203 3.37485 0.00106119 3.14267 0.000564176
3.27908 0.00165023 3.24135 0.00101921 3.58316 0.000643253
3.27177 0.00164655 3.10794 0.000977265 4.02398 0.00072239
3.22363 0.00162232 2.98833 0.000939652 4.45352 0.000799502
3.16429 0.00159246 2.88188 0.000906181 4.84548 0.000869868
3.1103 0.00156528 2.78532 0.000875819 5.19328 0.000932304
3.06171 0.00154083 2.70135 0.000849415 5.49324 0.000986153
3.02058 0.00152014 2.62416 0.000825145 5.57496 0.00100082
2.98747 0.00150347 2.56752 0.000807334 5.59227 0.00100393
2.96424 0.00149178 2.53312 0.000796516 5.58998 0.00100352
2.9413 0.00148024 2.52011 0.000792425 5.58772 0.00100311
2.9179 0.00146846 2.52922 0.000795289 5.60651 0.00100649
2.89496 0.00145691 2.56181 0.000805537 5.63222 0.0010111
2.87268 0.0014457 2.61765 0.000823096 5.64371 0.00101317
2.85141 0.00143499 2.69385 0.000847057 5.61874 0.00100868
2.83154 0.001425 2.78569 0.000875934 5.54669 0.000995749
2.8131 0.00141572 2.89029 0.000908826 5.43711 0.000976077
2.79583 0.00140702 3.00463 0.000944779 5.29659 0.00095085
2.7795 0.00139881 3.12501 0.000982632 5.12576 0.000920183
2.76396 0.00139099 3.24699 0.00102099 4.92597 0.000884317
2.74889 0.0013834 3.36597 0.0010584 4.70396 0.00084446
2.73379 0.0013758 3.4778 0.00109356 4.47 0.000802461
2.71807 0.00136789 3.57869 0.00112529 4.23288 0.000759892
2.70104 0.00135932 3.66499 0.00115242 3.99741 0.00071762
2.68195 0.00134971 3.73329 0.0011739 3.76654 0.000676174
2.66008 0.00133871 3.78066 0.0011888 3.54442 0.000636298
2.63477 0.00132597 3.80493 0.00119643 3.33686 0.000599037
2.60552 0.00131125 3.80445 0.00119628 3.14916 0.000565342
2.57198 0.00129437 3.77814 0.001188 2.98414 0.000535716
2.53403 0.00127527 3.72552 0.00117146 2.8423 0.000510253
2.4918 0.00125402 3.64684 0.00114671 2.72341 0.00048891
2.44556 0.00123075 3.54305 0.00111408 2.62741 0.000471676
2.3956 0.0012056 3.41576 0.00107405 2.55393 0.000458486
2.34213 0.0011787 3.26719 0.00102734 2.50128 0.000449033
2.28515 0.00115002 3.10025 0.000974845 2.46613 0.000442723
2.2244 0.00111945 2.91839 0.000917661 2.44423 0.000438791
2.1594 0.00108673 2.72555 0.000857024 2.43115 0.000436444
2.08973 0.00105168 2.52584 0.000794228 2.42263 0.000434914
2.01517 0.00101415 2.32339 0.00073057 2.41426 0.000433412
1.93563 0.000974121 2.12228 0.000667331 2.40132 0.000431087
1.85119 0.000931627 1.92633 0.000605718 2.37899 0.00042708
1.76203 0.000886757 1.73914 0.000546858 2.34288 0.000420597
1.66836 0.000839618 1.56385 0.00049174 2.28932 0.000410982
1.57036 0.000790297 1.40312 0.000441198 2.21542 0.000397714
1.4681 0.000738835 1.25909 0.000395909 2.11891 0.000380389
1.36172 0.000685296 1.13326 0.000356342 1.99822 0.000358723
1.25153 0.000629843 1.02642 0.000322749 1.8526 0.000332581
1.13829 0.000572853 0.938578 0.000295127 1.68231 0.00030201
1.02331 0.00051499 0.868869 0.000273208 1.48863 0.000267241
0.908332 0.000457126 0.81576 0.000256509 1.27373 0.000228661
0.795255 0.000400219 0.777169 0.000244374 1.04039 0.000186772
0.685816 0.000345143 0.750869 0.000236104 0.791884 0.00014216
0.58187 0.000292831 0.735515 0.000231276 0.531502 9.54159e-05
0.486619 0.000244895 0.729404 0.000229355 0.263225 4.72546e-05
0.396111 0.000199346 0.726232 0.000228357 0.00223179 4.00654e-07
0.308454 0.000155232 0.724632 0.000227854 -0.20807 -3.73529e-05
0.22652 0.000113998 0.720294 0.00022649 -0.407385 -7.31343e-05
0.150051 7.55143e-05 0.713576 0.000224378 -0.598127 -0.000107377
0.0763338 3.84156e-05 0.70213 0.000220779 -0.78188 -0.000140364
0.00556766 2.80197e-06 0.685229 0.000215464 -0.957972 -0.000171976
-0.0437164 -2.20006e-05 0.656771 0.000206516 -1.11959 -0.00020099
-0.0842826 -4.2416e-05 0.625764 0.000196766 -1.26471 -0.000227042
-0.119165 -5.99707e-05 0.590765 0.000185761 -1.38969 -0.000249479
-0.15492 -7.7965e-05 0.550162 0.000172993 -1.49641 -0.000268637
-0.193437 -9.73489e-05 0.502657 0.000158056 -1.58655 -0.00028482
-0.234169 -0.000117848 0.448711 0.000141093 -1.65957 -0.000297928
-0.276074 -0.000138937 0.390218 0.000122701 -1.71321 -0.000307558
-0.320227 -0.000161157 0.32736 0.000102935 -1.74542 -0.00031334
-0.36775 -0.000185073 0.259648 8.16441e-05 -1.75714 -0.000315444
-0.419785 -0.00021126 0.186153 5.85342e-05 -1.74899 -0.000313981
-0.475617 -0.000239359 0.107066 3.36659e-05 -1.71953 -0.000308693
-0.533765 -0.000268622 0.0236444 7.43476e-06 -1.66857 -0.000299544
-0.594119 -0.000298996 -0.0630382 -1.98218e-05 -1.59575 -0.000286471
-0.657173 -0.000330728 -0.153531 -4.82764e-05 -1.50379 -0.000269962
-0.722557 -0.000363633 -0.248144 -7.80266e-05 -1.39574 -0.000250565
-0.788987 -0.000397064 -0.346385 -0.000108918 -1.27474 -0.000228842
-0.855088 -0.000430331 -0.447929 -0.000140847 -1.14343 -0.00020527
-0.920398 -0.000463198 -0.552802 -0.000173823 -1.00384 -0.000180211
-0.984873 -0.000495646 -0.660868 -0.000207804 -0.858717 -0.000154158
-1.04823 -0.000527528 -0.771233 -0.000242507 -0.711881 -0.000127798
-1.10994 -0.000558587 -0.882363 -0.000277451 -0.567616 -0.000101899
-1.16974 -0.000588682 -0.992727 -0.000312154 -0.429733 -7.71462e-05
-1.22777 -0.000617883 -1.10101 -0.000346204 -0.301381 -5.41043e-05
-1.28421 -0.000646291 -1.20603 -0.000379226 -0.185558 -3.33117e-05
-1.33904 -0.000673885 -1.30652 -0.000410824 -0.0854831 -1.5346e-05
-1.39208 -0.000700576 -1.40123 -0.000440605 -0.00434794 -7.80547e-07
-1.44327 -0.000726338 -1.48918 -0.000468261 0.0548619 9.84889e-06
-1.49275 -0.000751238 -1.56966 -0.000493566 0.0889704 1.59721e-05
-1.54052 -0.000775282 -1.64178 -0.000516242 0.0995871 1.7878e-05
-1.58712 -0.000798729 -1.70535 -0.000536232 0.0850268 1.52641e-05
-1.63249 -0.000821562 -1.75987 -0.000553375 0.0480568 8.62721e-06
-1.67663 -0.000843778 -1.80491 -0.000567539 -0.00982555 -1.7639e-06
-1.71965 -0.000865427 -1.84107 -0.000578909 -0.0886271 -1.59105e-05
-1.76189 -0.000886686 -1.86895 -0.000587673 -0.188319 -3.38072e-05
-1.80197 -0.000906856 -1.88948 -0.00059413 -0.30807 -5.53051e-05
-1.84371 -0.000927863 -1.90626 -0.000599408 -0.445565 -7.99884e-05
-1.8871 -0.0009497 -1.91869 -0.000603314 -0.598298 -0.000107407
-1.92885 -0.00097071 -1.92429 -0.000605075 -0.765321 -0.000137391
-1.97008 -0.000991459 -1.92449 -0.000605139 -0.943814 -0.000169435
-2.01243 -0.00101277 -1.92242 -0.000604487 -1.13095 -0.00020303
-2.05717 -0.00103529 -1.92077 -0.000603968 -1.3233 -0.00023756
-2.10402 -0.00105887 -1.92039 -0.000603849 -1.51429 -0.000271847
-2.15182 -0.00108292 -1.92069 -0.000603943 -1.69622 -0.000304507
-2.20034 -0.00110734 -1.92399 -0.000604983 -1.87419 -0.000336458
-2.25045 -0.00113256 -1.93268 -0.000607715 -2.04657 -0.000367402
-2.30308 -0.00115905 -1.94926 -0.000612926 -2.21022 -0.000396782
-2.35767 -0.00118652 -1.97486 -0.000620976 -2.36299 -0.000424208
-2.41404 -0.00121489 -2.01037 -0.000632141 -2.50296 -0.000449334
-2.46914 -0.00124261 -2.05489 -0.000646141 -2.62893 -0.000471949
-2.52124 -0.00126883 -2.11011 -0.000663505 -2.73956 -0.00049181
-2.57338 -0.00129507 -2.18125 -0.000685876 -2.83216 -0.000508433
-2.62583 -0.00132147 -2.27046 -0.000713927 -2.90588 -0.000521667
-2.67521 -0.00134632 -2.37615 -0.000747159 -2.96155 -0.000531662
-2.71986 -0.00136879 -2.49734 -0.000785265 -3.00013 -0.000538587
-2.76162 -0.00138981 -2.63513 -0.000828592 -3.02183 -0.000542483
-2.79814 -0.00140819 -2.78863 -0.000876861 -3.02828 -0.00054364
-2.82896 -0.0014237 -2.95406 -0.000928878 -3.02194 -0.000542502
-2.85439 -0.00143649 -3.12739 -0.000983381 -3.00524 -0.000539505
-2.87575 -0.00144725 -3.30492 -0.0010392 -2.982 -0.000535332
-2.89455 -0.00145671 -3.48274 -0.00109512 -2.95652 -0.000530758
-2.91163 -0.0014653 -3.65643 -0.00114973 -2.93363 -0.00052665
-2.9274 -0.00147324 -3.82156 -0.00120165 -2.91821 -0.000523881
-2.94243 -0.0014808 -3.97436 -0.0012497 -2.91447 -0.00052321
-2.95743 -0.00148835 -4.11182 -0.00129292 -2.92578 -0.000525239
-2.97287 -0.00149612 -4.2314 -0.00133053 -2.95481 -0.000530451
-2.98883 -0.00150415 -4.33086 -0.0013618 -2.99995 -0.000538555
-3.00524 -0.00151241 -4.40811 -0.00138609 -3.05783 -0.000548946
-3.02198 -0.00152084 -4.46266 -0.00140324 -3.13115 -0.000562109
-3.02637 -0.00152304 -4.48927 -0.00141161 -3.22352 -0.00057869
-3.02991 -0.00152483 -4.49241 -0.0014126 -3.3333 -0.000598398
-3.03598 -0.00152788 -4.4745 -0.00140697 -3.45847 -0.000620869
-3.0459 -0.00153288 -4.4387 -0.00139571 -3.59596 -0.000645551
-3.06079 -0.00154037 -4.38675 -0.00137937 -3.74276 -0.000671905
-3.0748 -0.00154742 -4.31714 -0.00135749 -3.89703 -0.000699599
-3.08476 -0.00155243 -4.23107 -0.00133042 -4.05601 -0.000728139
-3.09192 -0.00155604 -4.13286 -0.00129954 -4.21522 -0.000756721
-3.09675 -0.00155847 -4.02616 -0.00126599 -4.37051 -0.000784599
-3.08613 -0.00155312 -3.91821 -0.00123205 -4.51629 -0.00081077
-3.07359 -0.00154681 -3.80867 -0.0011976 -4.64973 -0.000834725
-3.06003 -0.00153999 -3.70372 -0.0011646 -4.76575 -0.000855554
-3.04726 -0.00153356 -3.60748 -0.00113434 -4.86032 -0.000872531
-3.03471 -0.00152724 -3.52076 -0.00110707 -4.93098 -0.000885215
-3.01975 -0.00151972 -3.44215 -0.00108235 -4.97636 -0.000893363
-3.00148 -0.00151052 -3.3719 -0.00106026 -4.99517 -0.000896739
-2.98124 -0.00150033 -3.31279 -0.00104168 -4.98184 -0.000894346
-2.95881 -0.00148905 -3.26835 -0.0010277 -4.93115 -0.000885247
-2.93337 -0.00147624 -3.23898 -0.00101847 -4.84243 -0.000869319
-2.90284 -0.00146088 -3.22325 -0.00101352 -4.71718 -0.000846834
-2.86629 -0.00144249 -3.22039 -0.00101262 -4.55776 -0.000818215
-2.82411 -0.00142126 -3.23028 -0.00101573 -4.36679 -0.000783932
-2.77687 -0.00139749 -3.25201 -0.00102257 -4.14736 -0.000744539
-2.72463 -0.00137119 -3.28284 -0.00103226 -3.90359 -0.000700777
-2.66749 -0.00134244 -3.31904 -0.00104364 -3.64056 -0.000653558
-2.60619 -0.00131159 -3.35718 -0.00105563 -3.3639 -0.000603891
-2.54179 -0.00127918 -3.39423 -0.00106729 -3.07934 -0.000552808
-2.47516 -0.00124564 -3.42723 -0.00107766 -2.79255 -0.000501323
-2.40635 -0.00121102 -3.45273 -0.00108568 -2.50909 -0.000450435
-2.33545 -0.00117534 -3.46744 -0.00109031 -2.23428 -0.0004011
-2.26294 -0.00113885 -3.4687 -0.0010907 -1.97304 -0.000354203
-2.18929 -0.00110178 -3.45432 -0.00108618 -1.72986 -0.000310546
-2.11495 -0.00106437 -3.42251 -0.00107618 -1.50855 -0.000270817
-2.03895 -0.00102612 -3.37111 -0.00106002 -1.31222 -0.000235571
-1.95992 -0.000986347 -3.29976 -0.00103758 -1.14298 -0.000205189
-1.88072 -0.000946486 -3.21057 -0.00100953 -1.001 -0.0001797
-1.80088 -0.000906307 -3.10321 -0.000975776 -0.88715 -0.000159262
-1.71971 -0.000865456 -2.97676 -0.000936015 -0.801526 -0.000143891
-1.63699 -0.000823831 -2.83144 -0.000890321 -0.743357 -0.000133448
-1.55364 -0.000781882 -2.66957 -0.000839422 -0.710413 -0.000127534
-1.47036 -0.00073997 -2.49423 -0.000784288 -0.699634 -0.000125599
-1.38542 -0.000697222 -2.30851 -0.00072589 -0.707533 -0.000127017
-1.30176 -0.000655124 -2.11658 -0.000665539 -0.729585 -0.000130976
-1.21603 -0.00061198 -1.91871 -0.000603321 -0.762771 -0.000136934
-1.12703 -0.000567186 -1.71731 -0.000539993 -0.80292 -0.000144141
-1.03576 -0.000521255 -1.51695 -0.000476992 -0.84532 -0.000151753
-0.942832 -0.000474488 -1.32179 -0.000415624 -0.885142 -0.000158902
-0.848051 -0.000426789 -1.13421 -0.000356642 -0.918146 -0.000164827
-0.750789 -0.000377841 -0.955558 -0.000300466 -0.940758 -0.000168886
-0.651205 -0.000327725 -0.787627 -0.000247662 -0.949736 -0.000170498
-0.55032 -0.000276953 -0.632843 -0.000198992 -0.942129 -0.000169132
-0.448971 -0.000225949 -0.492993 -0.000155017 -0.915487 -0.000164349
-0.347423 -0.000174844 -0.368675 -0.000115927 -0.868067 -0.000155836
-0.245709 -0.000123655 -0.26 -8.17547e-05 -0.798835 -0.000143408
-0.145016 -7.29808e-05 -0.167402 -5.26379e-05 -0.707316 -0.000126978
-0.0490269 -2.46732e-05 -0.0910605 -2.86332e-05 -0.593844 -0.000106608
0.0185405 9.33068e-06 -0.0417075 -1.31145e-05 -0.454012 -8.15047e-05
0.083453 4.19984e-05 -0.0066807 -2.10069e-06 -0.296461 -5.32211e-05
0.147757 7.43598e-05 0.0164095 5.15983e-06 -0.122251 -2.19467e-05
0.21399 0.000107692 0.030756 9.67095e-06 0.0347639 6.24087e-06
0.26807 0.000134909 0.0433054 1.3617e-05 0.184209 3.30695e-05
0.320164 0.000161125 0.0488802 1.53699e-05 0.334442 6.00394e-05
0.368707 0.000185555 0.0483446 1.52015e-05 0.488886 8.77654e-05
0.420056 0.000211397 0.0456379 1.43504e-05 0.647185 0.000116183
0.472756 0.000237919 0.0399331 1.25566e-05 0.805465 0.000144598
0.52511 0.000264266 0.0309286 9.72522e-06 0.95943 0.000172238
0.578588 0.000291179 0.0209135 6.57605e-06 1.1048 0.000198335
0.634782 0.000319459 0.0130023 4.08846e-06 1.24042 0.000222681
0.694501 0.000349514 0.00939637 2.9546e-06 1.36542 0.000245122
0.75707 0.000381002 0.0108773 3.42026e-06 1.4781 0.000265351
0.82191 0.000413633 0.0184028 5.78659e-06 1.57544 0.000282825
0.889541 0.000447669 0.0340495 1.07066e-05 1.65444 0.000297007
0.960599 0.000483429 0.0601407 1.89107e-05 1.71361 0.000307629
1.03489 0.000520817 0.0981767 3.08708e-05 1.75277 0.000314659
1.11154 0.000559394 0.149032 4.68618e-05 1.77192 0.000318098
1.18978 0.000598768 0.21371 6.71992e-05 1.76946 0.000317656
1.26923 0.00063875 0.293357 9.22435e-05 1.74108 0.000312561
1.34947 0.000679132 0.389099 0.000122349 1.68605 0.000302681
1.42976 0.000719541 0.501072 0.000157558 1.6063 0.000288365
1.50923 0.000759533 0.628663 0.000197678 1.50507 0.000270192
1.57591 0.000793091 0.77011 0.000242154 1.38466 0.000248575
1.68429 0.000847631 0.985249 0.000309803 1.2284 0.000220524
1.80396 0.00090786 1.21637 0.000382476 1.06178 0.000190612
1.87958 0.000945913 1.41853 0.000446043 0.911416 0.000163619
1.95271 0.000982717 1.62095 0.000509694 0.765988 0.000137511
2.05128 0.00103233 1.84309 0.000579545 0.626193 0.000112415
2.14565 0.00107982 2.05876 0.000647357 0.508436 9.1275e-05
2.22171 0.0011181 2.25288 0.000708398 0.422905 7.59205e-05
2.29835 0.00115666 2.43633 0.000766081 0.367695 6.60092e-05
2.3818 0.00119866 2.61144 0.000821144 0.345883 6.20934e-05
2.4598 0.00123792 2.76683 0.000870006 0.366138 6.57296e-05
2.52933 0.00127291 2.89848 0.0009114 0.432254 7.75988e-05
2.59769 0.00130731 3.01078 0.000946712 0.542798 9.74438e-05
2.66577 0.00134157 3.10367 0.000975921 0.697599 0.000125234
2.72892 0.00137335 3.17347 0.000997868 0.897735 0.000161163
2.78697 0.00140257 3.22071 0.00101272 1.14178 0.000204974
2.84283 0.00143068 3.24874 0.00102154 1.42593 0.000255985
2.89649 0.00145769 3.25891 0.00102473 1.73227 0.000310978
2.94673 0.00148297 3.24953 0.00102178 2.01329 0.000361429
2.99358 0.00150655 3.22705 0.00101472 2.30176 0.000413214
8.93253 0.351861 2.31531 0.000728027 2.81629 0.000505583
8.93253 0.555697 2.52379 0.000793582 3.0051 0.000539479
8.93253 0.599701 2.26221 0.000711331 3.45469 0.00062019
1.15514 0.595787 2.05151 0.000645078 3.79669 0.000681587
5.86699 0.598158 2.08583 0.00065587 4.08965 0.000734179
8.93253 0.616628 2.16711 0.000681429 4.27666 0.000767751
8.93253 0.632926 2.11508 0.000665067 4.46576 0.0008017
8.93253 0.637567 2.06136 0.000648176 4.66484 0.000837439
8.93253 0.651721 2.11559 0.000665229 4.83854 0.000868621
8.93253 0.672412 2.20825 0.000694363 4.96266 0.000890902
8.93253 0.687835 2.26364 0.000711783 5.03662 0.000904181
1.11924 0.68999 40.9394 0.137247 4.44351 0.000797705
8.93253 0.694783 31.6004 0.211643 4.46961 0.00080239
8.93253 0.702837 8.93253 0.242668 4.25488 0.000763841
8.93253 0.71113 8.93253 0.258313 4.12216 0.000740015
8.93253 0.725573 8.93253 0.272419 3.80889 0.000683776
8.93253 0.745163 8.93253 0.297309 3.57562 0.000641899
8.93253 0.760608 8.93253 0.328626 3.42338 0.000614569
8.93253 0.770335 8.93253 0.359026 3.20196 0.00057482
8.93253 0.781808 8.93253 0.38351 2.88797 0.000518452
8.93253 0.794744 8.93253 0.409294 2.54893 0.000457587
8.93253 0.806223 8.93253 0.436711 2.30997 0.000414689
8.93253 0.815737 8.93253 0.462665 2.15314 0.000386535
8.93253 0.824967 8.93253 0.487838 1.96362 0.000352511
8.93253 0.835427 8.93253 0.511122 1.75332 0.000314758
8.93253 0.845114 8.93253 0.532874 1.59656 0.000286616
8.93253 0.853784 8.93253 0.554548 1.52082 0.000273019
8.93253 0.861823 8.93253 0.57665 1.49032 0.000267544
8.93253 0.869684 8.93253 0.597247 1.48001 0.000265693
8.93253 0.876914 8.93253 0.615758 1.49909 0.000269119
8.93253 0.883088 8.93253 0.633171 1.57469 0.00028269
8.93253 0.888521 8.93253 0.649197 1.70869 0.000306745
8.93253 0.89339 8.93253 0.664101 1.87531 0.000336658
8.93253 0.897573 8.93253 0.677188 2.08077 0.000373543
8.93253 0.901218 8.93253 0.688131 2.33915 0.000419927
8.93253 0.904572 8.93253 0.697194 2.65823 0.000477209
8.93253 0.907492 8.93253 0.704764 3.03999 0.000545743
8.93253 0.910061 8.93253 0.710698 3.46011 0.000621163
8.93253 0.912607 8.93253 0.714866 3.89319 0.000698911
8.93253 0.915204 8.93253 0.717396 4.31839 0.000775242
8.93253 0.918048 8.93253 0.71808 4.63882 0.000832766
8.93253 0.920916 8.47099 0.717935 4.95316 0.000889197
8.93253 0.92376 7.53412 0.717641 5.13206 0.000921314
8.93253 0.92648 5.6228 0.71704 5.18987 0.000931692
8.93253 0.928643 3.53245 0.716382 5.20401 0.000934231
8.93253 0.930264 1.35602 0.715698 5.22247 0.000937545
8.93253 0.93123 -0.0199243 0.71484 5.27673 0.000947284
8.93253 0.931534 -0.0793083 0.713553 5.3557 0.000961462
8.73757 0.931436 -0.144364 0.712144 5.42284 0.000973516
8.30166 0.931217 -0.191097 0.711131 5.45943 0.000980083
7.63071 0.930879 -0.164107 0.710874 5.47849 0.000983506
6.74818 0.930435 0.31788 0.71118 5.50498 0.000988261
5.66584 0.92989 1.27608 0.711948 5.54646 0.000995707
4.39593 0.929251 2.54703 0.712966 5.58983 0.00100349
2.87441 0.928486 4.17215 0.714268 5.62121 0.00100913
1.29821 0.927692 6.23126 0.715917 5.63426 0.00101147
-0.00885762 0.926789 8.83784 0.718005 5.63784 0.00101211
-0.0765361 0.924882 8.93253 0.723816 5.64081 0.00101265
-0.213041 0.921036 8.93253 0.732062 5.65128 0.00101453
-0.432239 0.914859 8.93253 0.741227 5.65945 0.00101599
-0.699758 0.907321 8.93253 0.750888 5.65538 0.00101526
-0.988498 0.899185 8.93253 0.760865 5.61608 0.00100821
-1.28902 0.890716 8.93253 0.771027 5.54861 0.000996093
-1.6071 0.881753 8.93253 0.781212 5.45981 0.000980151
-1.94066 0.872354 8.93253 0.791124 5.35196 0.00096079
-2.36759 0.860324 8.93253 0.802662 5.19388 0.000932411
-2.72354 0.850294 8.93253 0.81208 5.02898 0.000902808
-3.07128 0.840495 8.93253 0.819607 4.86009 0.00087249
-3.41926 0.830689 8.93253 0.824987 4.70272 0.000844237
-3.77394 0.820695 8.93253 0.828019 4.55956 0.000818538
-4.14293 0.810297 8.60601 0.828414 4.43345 0.000795898
-4.55243 0.798758 6.42096 0.827727 4.31667 0.000774935
-5.00795 0.785922 2.16982 0.82639 4.21462 0.000756614
-5.50356 0.771957 -0.118406 0.822752 4.13396 0.000742134
-5.98101 0.758503 -0.552317 0.81192 4.09198 0.000734597
-6.47433 0.744602 -1.13262 0.797433 4.05865 0.000728615
-6.99338 0.729976 -1.80774 0.780578 4.04071 0.000725393
-7.55618 0.714117 -2.55973 0.761805 4.03187 0.000723806
-8.16531 0.696952 -3.41054 0.740565 4.0206 0.000721783
-8.82092 0.678478 -4.32892 0.717638 3.99586 0.000717342
-9.51786 0.658839 -5.29036 0.693636 3.95741 0.000710438
-10.2514 0.638168 -6.27964 0.668939 3.89739 0.000699665
-11.0125 0.616723 -7.29182 0.64367 3.8045 0.000682989
-11.791 0.594785 -8.31711 0.618074 3.67364 0.000659496
-12.5779 0.572611 -9.3411 0.592511 3.50337 0.000628929
-13.3623 0.55051 -10.3544 0.567214 3.2892 0.000590482
-14.1323 0.528812 -11.3527 0.542292 3.026 0.000543231
-14.8811 0.507712 -12.3294 0.517909 2.71284 0.000487013
-15.6077 0.487235 -13.2748 0.494308 2.35121 0.000422092
-16.3167 0.467259 -14.1795 0.471722 1.9412 0.000348486
-16.9909 0.448261 -15.0281 0.450536 1.48161 0.00026598
-17.6305 0.430236 -15.8123 0.43096 0.97789 0.000175552
-18.2889 0.411683 -16.5586 0.412329 0.457998 8.22204e-05
-18.9495 0.393068 -17.2479 0.39512 0.00761991 1.36794e-06
-19.5686 0.375623 -17.874 0.379489 -0.30044 -5.39353e-05
-20.1627 0.358883 -18.4469 0.365187 -0.54033 -9.70008e-05
-20.7351 0.342754 -18.9783 0.351921 -0.775646 -0.000139245
-21.2413 0.328489 -19.4965 0.338986 -1.04079 -0.000186844
-21.7484 0.314202 -19.995 0.32654 -1.32123 -0.000237189
-22.2482 0.300116 -20.4672 0.314752 -1.57817 -0.000283316
-22.7575 0.285767 -20.9288 0.303227 -1.80501 -0.000324037
-23.2757 0.271163 -21.384 0.291864 -2.03058 -0.000364532
-23.8055 0.256236 -21.8432 0.280401 -2.25837 -0.000405426
-24.3605 0.240594 -22.312 0.268698 -2.46661 -0.000442808
-24.9253 0.224681 -22.794 0.256663 -2.64265 -0.000474412
-25.4955 0.208612 -23.2949 0.24416 -2.79493 -0.000501749
-26.0636 0.192604 -23.8218 0.231006 -2.93209 -0.000526373
-26.6307 0.176624 -24.3811 0.217043 -3.04762 -0.000547113
-27.1915 0.160822 -24.9745 0.202228 -3.13209 -0.000562278
-27.7435 0.145266 -25.602 0.186562 -3.18669 -0.000572078
-28.2842 0.130032 -26.2609 0.170114 -3.21856 -0.0005778
-28.8229 0.114851 -26.9417 0.153117 -3.23085 -0.000580006
-29.3751 0.0992925 -27.6325 0.135872 -3.22011 -0.000578078
-29.9544 0.0829688 -28.3195 0.11872 -3.17469 -0.000569925
-30.5705 0.0656081 -28.9894 0.101999 -3.0932 -0.000555295
-31.2293 0.0470419 -29.6318 0.0859605 -2.98261 -0.000535442
-31.933 0.0272122 -30.2406 0.0707621 -2.84973 -0.000511588
-32.6807 0.00614497 -30.7891 0.0570679 -2.70201 -0.000485068
-32.8738 0.000704187 -31.3095 0.0440766 -2.52693 -0.000453638
-32.8831 0.000440783 -31.7692 0.0326004 -2.36292 -0.000424195
-32.8887 0.000283729 -32.1995 0.0218593 -2.19203 -0.000393516
-32.8933 0.000152464 -32.6493 0.0106291 -2.0067 -0.000360246
-32.897 5.02583e-05 -33.035 0.00100176 -1.83568 -0.000329544
-32.8998 -3.03177e-05 -33.0557 0.000485175 -1.72085 -0.00030893
-32.9021 -9.47668e-05 -33.0625 0.000314983 -1.60344 -0.000287851
-32.9043 -0.000157615 -33.0673 0.000193816 -1.50568 -0.000270302
-32.9063 -0.000214037 -33.071 0.000101516 -1.43437 -0.000257499
-32.9079 -0.000258332 -33.0735 3.96826e-05 -1.38278 -0.000248238
-32.9093 -0.000296226 -33.0753 -5.97009e-06 -1.35246 -0.000242794
-32.9105 -0.000332312 -33.077 -4.75346e-05 -1.35167 -0.000242653
-32.9117 -0.000363703 -33.0784 -8.29072e-05 -1.38088 -0.000247897
-32.9125 -0.000388451 -33.0794 -0.00010862 -1.43565 -0.000257729
-32.9133 -0.000409319 -33.0802 -0.000128363 -1.51629 -0.000272206
-32.9139 -0.000427953 -33.0809 -0.000145543 -1.62504 -0.00029173
-32.9145 -0.000443135 -33.0814 -0.00015875 -1.75949 -0.000315865
-32.9149 -0.000455033 -33.0818 -0.000166678 -1.915 -0.000343783
-32.9152 -0.000464822 -33.0819 -0.000170452 -2.08967 -0.00037514
-32.9156 -0.000473717 -33.0818 -0.000171339 -2.28159 -0.000409595
-32.9159 -0.00048211 -33.0742 -0.000168975 -2.48569 -0.000446234
-32.9161 -0.000490114 -33.0549 -0.000162889 -2.69616 -0.000484018
-32.9164 -0.000498008 -33.0263 -0.000153907 -2.87986 -0.000516996
-32.9168 -0.000507389 -32.9939 -0.000143701 -3.04432 -0.00054652
-32.9171 -0.000516707 -32.9548 -0.00013143 -3.13449 -0.000562708
-32.9174 -0.000525737 -32.9185 -0.000120005 -3.20597 -0.00057554
-32.9177 -0.000534989 -32.89 -0.000111049 -3.27311 -0.000587593
-32.918 -0.000543447 -32.8712 -0.000105139 -3.34193 -0.000599948
-32.9183 -0.000550956 -32.8659 -0.000103449 -3.40273 -0.000610863
-32.9186 -0.000558379 -32.8761 -0.00010666 -3.44441 -0.000618344
-32.9188 -0.00056409 -32.8984 -0.000113678 -3.4713 -0.000623171
-32.9189 -0.000567149 -32.9326 -0.000124427 -3.49117 -0.00062674
-32.9189 -0.00056891 -32.9831 -0.000140313 -3.50147 -0.000628588
-32.9188 -0.000569461 -33.0501 -0.000161375 -3.48824 -0.000626212
-32.913 -0.000566551 -33.0825 -0.000185508 -3.44757 -0.000618913
-32.8988 -0.00055941 -33.0836 -0.00021168 -3.38473 -0.00060763
-32.877 -0.0005484 -33.0847 -0.000239552 -3.30534 -0.000593378
-32.8462 -0.0005329 -33.0858 -0.00026762 -3.21341 -0.000576875
-32.8028 -0.000511084 -33.0868 -0.000293218 -3.11482 -0.000559176
-32.7487 -0.000483831 -33.0877 -0.000315113 -3.01535 -0.00054132
-32.686 -0.000452282 -33.0884 -0.000331869 -2.92333 -0.0005248
-32.6148 -0.00041648 -33.0888 -0.000342072 -2.84183 -0.000510169
-32.5381 -0.000377861 -33.089 -0.000346442 -2.77308 -0.000497827
-32.4633 -0.000340214 -33.085 -0.000345587 -2.7156 -0.000487508
-32.3903 -0.000303462 -33.0565 -0.000336621 -2.67378 -0.00048
-32.3136 -0.000264889 -32.99 -0.000315688 -2.65321 -0.000476308
-32.238 -0.000226847 -32.8851 -0.000282711 -2.65249 -0.000476178
-32.1717 -0.000193464 -32.7448 -0.00023861 -2.66646 -0.000478687
-32.1141 -0.000164485 -32.5638 -0.000181696 -2.69193 -0.00048326
-32.0616 -0.000138078 -32.3348 -0.00010969 -2.72556 -0.000489297
-32.0197 -0.00011696 -32.0585 -2.2808e-05 -2.75955 -0.000495397
-31.9922 -0.000103119 -31.7204 8.35026e-05 -2.78585 -0.00050012
-31.9695 -9.17049e-05 -31.273 0.000224201 -2.7993 -0.000502533
-31.9544 -8.4119e-05 -30.6145 0.000431254 -2.79289 -0.000501383
-31.9493 -8.15478e-05 -29.343 0.000831059 -2.75973 -0.000495431
-31.9512 -8.24945e-05 -25.1888 0.0021373 -2.69711 -0.000484188
-31.9545 -8.41616e-05 -16.9049 0.00474211 -2.60192 -0.000467099
-31.9555 -8.46554e-05 -9.4088 0.00709919 -2.46333 -0.00044222
-31.9561 -8.49406e-05 -3.76018 0.00887535 -2.28206 -0.000409678
-31.9545 -8.41418e-05 0.00361351 0.0103888 -2.0593 -0.000369688
-31.9477 -8.0732e-05 0.0153424 0.0114635 -1.79557 -0.000322342
-31.9399 -7.68356e-05 -0.0958703 0.0116418 -1.49477 -0.000268343
-31.9353 -7.45193e-05 -1.21587 0.0108982 -1.16516 -0.000209172
-31.927 -7.03387e-05 -3.33058 0.00949428 -0.816102 -0.000146508
-31.9143 -6.39422e-05 -6.2709 0.00754224 -0.456552 -8.19608e-05
-31.8981 -5.57989e-05 -9.9189 0.00512038 -0.0990663 -1.77845e-05
-31.8763 -4.47802e-05 -14.0355 0.0023874 0.174278 3.12866e-05
-31.8515 -3.23267e-05 -16.3433 0.000855275 0.335893 6.02999e-05
-31.8218 -1.73568e-05 -16.8254 0.000535271 0.469178 8.42275e-05
-31.7901 -1.42163e-06 -17.0559 0.000382219 0.588622 0.00010567
-31.7656 1.09141e-05 -17.1993 0.000287039 0.689745 0.000123824
-31.7429 2.23285e-05 -17.286 0.000229434 0.750995 0.00013482
-31.7284 2.9647e-05 -17.3329 0.000198348 0.769107 0.000138071
-31.7259 3.08875e-05 -17.3489 0.00018771 0.741422 0.000133101
-31.7352 2.622e-05 -17.3189 0.000197134 0.655543 0.000117684
-31.7546 1.64318e-05 -17.2171 0.000229154 0.505823 9.08059e-05
-31.7892 -9.51009e-07 -17.0437 0.000283676 0.297152 5.33452e-05
-31.8309 -2.19367e-05 -16.7801 0.000366566 0.0699953 1.25656e-05
-31.8826 -4.79638e-05 -16.3946 0.000487776 -0.119986 -2.154e-05
-31.9364 -7.505e-05 -15.7907 0.000677661 -0.316638 -5.68432e-05
-31.986 -9.99899e-05 -14.6011 0.00105173 -0.532122 -9.55272e-05
-32.0314 -0.000122856 -11.7439 0.00195014 -0.768024 -0.000137877
-32.0731 -0.000143839 -8.07603 0.00310347 -1.00501 -0.000180421
-32.1085 -0.000161649 -5.41394 0.00394054 -1.22731 -0.000220329
-32.1367 -0.000175856 -4.10548 0.00435198 -1.4366 -0.0002579
-32.1597 -0.000187416 -4.3385 0.0042787 -1.63543 -0.000293594
-32.1789 -0.000197089 -6.24511 0.00367919 -1.81758 -0.000326295
-32.1966 -0.000205975 -9.93041 0.00252038 -1.97423 -0.000354416
-32.2137 -0.000214581 -14.1635 0.00118933 -2.10533 -0.000377952
-32.2294 -0.000222523 -15.841 0.000661849 -2.21857 -0.000398281
-32.2333 -0.000224476 -16.5886 0.000426768 -2.31394 -0.000415401
-32.2328 -0.000224194 -17.091 0.00026879 -2.3898 -0.00042902
-32.2348 -0.000225202 -17.4154 0.000143563 -2.44584 -0.000439081
-32.2319 -0.000223748 -17.5689 4.16502e-05 -2.4875 -0.000446559
-32.2211 -0.000218351 -17.6958 -4.26192e-05 -2.52028 -0.000452445
-32.2049 -0.000210164 -17.904 -0.000180802 -2.51406 -0.000451328
-32.1786 -0.000196925 -17.6385 -0.000130006 -1.8698 -0.000335669
-32.2394 -0.000227527 -17.2269 -5.58749e-07 -1.41236 -0.000253548
-32.1958 -0.000205579 -17.6874 -0.00014538 -1.65815 -0.000297673
-32.184 -0.000199665 -18.1103 -0.000317782 -2.03942 -0.00036612
-32.171 -0.000193104 -18.1365 -0.000346239 -2.04115 -0.00036643
-32.1998 -0.000207587 -17.9256 -0.000279939 -1.96852 -0.000353392
-32.2163 -0.000215923 -17.9952 -0.000301795 -2.20682 -0.000396172
-32.2278 -0.000221685 -18.1798 -0.000363938 -2.5518 -0.000458103
-32.2491 -0.000232428 -18.2096 -0.000385433 -2.68593 -0.000482182
-32.2887 -0.000252353 -18.1025 -0.000351749 -2.76815 -0.000496942
-32.3322 -0.000274232 -18.0436 -0.000333245 -2.9878 -0.000536373
-32.3698 -0.000293143 -18.0446 -0.000333551 -3.25207 -0.000583815
-32.413 -0.000314919 -18.0274 -0.000328144 -3.42426 -0.000614728
-32.4598 -0.000338465 -17.937 -0.00029971 -3.54925 -0.000637166
-32.5031 -0.00036027 -17.8454 -0.000270921 -3.73962 -0.000671342
-32.5445 -0.000381057 -17.8037 -0.000257805 -3.96399 -0.000711621
-32.5857 -0.000401793 -17.769 -0.000246875 -4.11755 -0.000739189
-32.6275 -0.000422838 -17.7131 -0.000229317 -4.2042 -0.000754743
-32.6699 -0.000444166 -17.6711 -0.000216086 -4.29945 -0.000771843
-32.7141 -0.000466422 -17.6687 -0.000215333 -4.40671 -0.000791098
-32.7567 -0.00048785 -17.6835 -0.000219993 -4.46532 -0.00080162
-32.7992 -0.000509249 -17.7021 -0.000225837 -4.46013 -0.000800689
-32.8443 -0.000531959 -17.7407 -0.000237978 -4.42295 -0.000794014
-32.8909 -0.000555393 -17.8082 -0.000259211 -4.36341 -0.000783325
-32.919 -0.000571358 -17.8873 -0.00028408 -4.25898 -0.000764577
-32.9195 -0.00058587 -17.9749 -0.000311627 -4.08845 -0.000733964
-32.9201 -0.000601741 -18.0551 -0.000336835 -3.86212 -0.000693332
-32.9207 -0.000618931 -18.1389 -0.0003632 -3.61771 -0.000649456
-32.9213 -0.00063459 -18.2279 -0.00039585 -3.37306 -0.000605536
-32.9218 -0.000649427 -18.2805 -0.000430806 -3.11859 -0.000559853
-32.9223 -0.000664096 -18.3313 -0.000464528 -2.85409 -0.00051237
-32.9228 -0.000677943 -18.3766 -0.000494569 -2.59421 -0.000465717
-32.9232 -0.000689822 -18.4174 -0.000521669 -2.35492 -0.000422757
-32.9236 -0.00069936 -18.4571 -0.000548027 -2.14546 -0.000385155
-32.9238 -0.000706828 -18.4947 -0.000573017 -1.97298 -0.000354192
-32.924 -0.000711939 -18.528 -0.000595116 -1.84487 -0.000331193
-32.9241 -0.000714833 -18.5521 -0.000611084 -1.76191 -0.0003163
-32.9242 -0.000715965 -18.566 -0.000620337 -1.72521 -0.000309713
-32.9226 -0.000715202 -18.5726 -0.000624684 -1.73993 -0.000312355
-32.9145 -0.000711121 -18.5683 -0.000623491 -1.81136 -0.000325177
-32.896 -0.000701824 -18.5465 -0.000616631 -1.94011 -0.000348291
-32.8695 -0.00068845 -18.5028 -0.000602889 -2.1139 -0.00037949
-32.8358 -0.000671531 -18.4388 -0.000582773 -2.32243 -0.000416925
-32.8038 -0.000655402 -18.3706 -0.000561337 -2.55939 -0.000459465
-32.7707 -0.000638769 -18.2969 -0.000538161 -2.82229 -0.00050666
-32.7273 -0.000616915 -18.2073 -0.000509981 -3.10528 -0.000557463
-32.6812 -0.000593688 -18.1063 -0.000478212 -3.39694 -0.000609823
-32.6395 -0.000572732 -18.0063 -0.000446785 -3.69047 -0.000662519
-32.5986 -0.000552135 -17.9107 -0.00041673 -3.97964 -0.000714429
-32.556 -0.000530676 -17.8142 -0.00038639 -4.2501 -0.000762983
-32.516 -0.00051055 -17.7196 -0.000356644 -4.47426 -0.000803225
-32.479 -0.000491954 -17.6325 -0.000329234 -4.60755 -0.000827154
-32.443 -0.000473821 -17.5347 -0.000298495 -4.6454 -0.000833948
-32.3992 -0.000451779 -17.4928 -0.000285331 -4.01612 -0.000720979
-32.3475 -0.000425772 -17.4758 -0.000279957 -3.98309 -0.000715049
-32.3032 -0.000403455 -17.442 -0.000269333 -4.40401 -0.000790614
-32.2411 -0.000372217 -17.4261 -0.000264339 -4.62369 -0.000830051
-32.173 -0.000337954 -17.4515 -0.000272319 -4.34853 -0.000780653
-32.0996 -0.000301011 -17.5046 -0.000289022 -4.05884 -0.000728648
-32.0222 -0.000262055 -17.549 -0.000302974 -4.05081 -0.000727206
-31.9376 -0.000219507 -17.5842 -0.00031405 -4.0957 -0.000735265
-31.8483 -0.000174531 -17.6281 -0.000327869 -3.90713 -0.000701414
-31.758 -0.000129116 -17.6834 -0.000345259 -3.6002 -0.000646312
-31.6557 -7.76284e-05 -17.7266 -0.000358842 -3.41285 -0.000612679
-31.5481 -2.34486e-05 -17.7457 -0.000364832 -3.33488 -0.000598682
-31.4326 3.46423e-05 -17.7514 -0.000366635 -3.20116 -0.000574677
-31.2973 0.000102759 -17.7493 -0.000365965 -2.98277 -0.00053547
-31.1305 0.000186679 -17.7304 -0.000360021 -2.7975 -0.000502211
-30.9148 0.000295267 -17.6934 -0.00034838 -2.70647 -0.00048587
-30.6083 0.000449492 -17.632 -0.000329075 -2.64317 -0.000474506
-30.0749 0.00071796 -17.5509 -0.000303574 -2.55252 -0.000458231
-28.6768 0.00142154 -17.4492 -0.000271598 -2.46673 -0.00044283
-23.2766 0.00413925 -17.3288 -0.000233744 -2.4319 -0.000436578
-16.4397 0.00757998 -17.1762 -0.000185778 -2.43864 -0.000437787
-9.363 0.0111414 -16.9897 -0.000127127 -2.44507 -0.000438942
-2.02723 0.0148332 -16.7707 -5.82629e-05 -2.44297 -0.000438565
0.0487971 0.0208556 -16.5078 2.43929e-05 -2.45102 -0.00044001
0.156281 0.0318739 -16.1802 0.000127417 -2.47428 -0.000444186
0.313392 0.0479794 -15.7444 0.000264455 -2.49035 -0.000447071
0.492353 0.0663249 -15.0225 0.000491438 -2.47711 -0.000444694
0.664848 0.0840074 -12.8331 0.00117987 -2.44139 -0.000438281
0.821846 0.100101 -2.34072 0.00447912 -2.4049 -0.00043173
0.975475 0.11585 0.065795 0.0112794 -2.35767 -0.000423252
1.12628 0.131309 0.177456 0.0215711 -2.27918 -0.000409161
1.25739 0.144749 0.352639 0.0377175 -2.18341 -0.000391968
1.3729 0.156591 0.542622 0.055228 -2.04718 -0.000367513
1.47203 0.166752 0.727941 0.0723086 -1.88141 -0.000337753
1.55395 0.17515 0.903404 0.0884809 -1.68635 -0.000302735
1.61947 0.181867 1.06815 0.103666 -1.48636 -0.000266833
1.66273 0.186301 1.22505 0.118126 -1.22219 -0.000219408
1.68362 0.188442 1.37594 0.132034 -0.912917 -0.000163888
1.56345 0.188671 1.51756 0.145087 -0.586438 -0.000105278
0.769877 0.188271 1.64488 0.156822 -0.238603 -4.28344e-05
-0.125407 0.187117 1.75042 0.166549 -0.0187042 -3.3578e-06
-0.819466 0.182875 1.84508 0.175274 0.211582 3.79834e-05
-1.69931 0.177497 1.92584 0.182718 0.436847 7.84234e-05
-2.70096 0.171375 1.9923 0.188843 0.705401 0.000126634
-3.79167 0.164708 2.04055 0.19329 1.00263 0.000179994
-4.89515 0.157964 2.07338 0.196316 1.28709 0.000231061
-6.01938 0.151092 2.09825 0.198609 1.55078 0.000278398
-7.19484 0.143907 2.11193 0.199869 1.81453 0.000325747
-8.34176 0.136897 2.11811 0.200439 2.08829 0.000374893
-9.48446 0.129913 2.12379 0.200963 2.35431 0.000422649
-10.6355 0.122877 2.12655 0.201217 2.59712 0.000466238
-11.8377 0.115529 2.13694 0.202175 2.81462 0.000505284
-13.0619 0.108047 2.13536 0.202569 3.00852 0.000540094
-14.3115 0.100408 1.80092 0.202464 3.1844 0.000571668
-15.5741 0.0926915 1.3784 0.202331 3.3402 0.000599637
-16.783 0.0853025 0.83678 0.202161 3.4614 0.000621396
-17.9099 0.0784142 -0.0141588 0.201808 3.54148 0.000635771
-18.9239 0.0722165 -0.240114 0.200375 3.59564 0.000645494
-19.8422 0.0666036 -0.610677 0.198025 3.62899 0.000651481
-20.6694 0.0615477 -1.05504 0.195207 3.6189 0.00064967
-21.399 0.0570881 -1.58804 0.191826 3.53283 0.000634218
-22.0594 0.0530517 -2.21316 0.187862 3.37257 0.000605447
-22.6818 0.0492471 -2.93444 0.183288 3.15083 0.000565641
-23.2722 0.0456389 -3.73788 0.178193 2.87339 0.000515834
-23.8216 0.0422803 -4.61589 0.172624 2.54027 0.000456033
-24.3325 0.039158 -5.58434 0.166483 2.15316 0.000386538
-24.8041 0.0362754 -6.6765 0.159557 1.72118 0.000308988
-25.233 0.0336541 -7.90541 0.151763 1.25532 0.000225356
-25.6049 0.0313809 -9.26693 0.143129 0.765669 0.000137454
-25.905 0.0295461 -10.7425 0.133771 0.275018 4.93715e-05
-26.1382 0.0281213 -12.2636 0.124125 -0.081874 -1.46981e-05
-26.2836 0.0272326 -13.8272 0.114209 -0.345199 -6.19705e-05
-26.1633 0.0272344 -15.6099 0.102903 -0.57163 -0.00010262
-25.5873 0.0275242 -17.6115 0.0902094 -0.811798 -0.000145735
-24.4647 0.0280892 -19.7958 0.0763569 -1.08262 -0.000194353
-22.6904 0.0289821 -22.0825 0.061855 -1.3543 -0.000243127
-20.3092 0.0301805 -24.4534 0.0468199 -1.59862 -0.000286987
-17.4015 0.0316438 -26.9556 0.0309513 -1.82473 -0.000327578
-14.0725 0.0333192 -29.5866 0.0142658 -2.05923 -0.000369676
-10.4155 0.0351596 -31.7145 0.000771567 -2.31665 -0.000415888
-7.14689 0.0368045 -31.7763 0.000379139 -2.61966 -0.000470284
-4.67471 0.0380487 -31.802 0.000216378 -2.88472 -0.000517869
-2.25498 0.0392664 -31.8189 0.000109216 -3.14371 -0.000564364
0.00437235 0.0408375 -31.8318 2.75503e-05 -3.43092 -0.000615924
0.0292194 0.0433163 -31.8417 -3.53636e-05 -3.73614 -0.000670716
0.0651045 0.0468963 -31.8489 -8.11325e-05 -4.05573 -0.000728089
0.107656 0.0511414 -31.8535 -0.000110276 -4.31929 -0.000775405
0.155265 0.0558909 -31.8561 -0.000126345 -4.5312 -0.000813447
0.205346 0.0608871 -31.8571 -0.000133297 -4.76377 -0.000855198
0.243846 0.064728 -31.8558 -0.000134351 -5.12459 -0.000919973
0.267961 0.0671338 -31.8019 -0.000117414 -5.3514 -0.000960691
0.276509 0.0679865 -31.724 -9.28976e-05 -5.25696 -0.000943736
0.149238 0.0680131 -31.6264 -6.22059e-05 -5.27972 -0.000947822
-0.207447 0.0674129 -31.5124 -2.63841e-05 -5.55031 -0.000996399
-0.681517 0.0662128 -31.3697 1.85123e-05 -5.94776 -0.00106775
-1.32907 0.0645736 -31.2152 6.70926e-05 -6.1598 -0.00110582
-2.07422 0.0626873 -31.0577 0.000116608 -6.09385 -0.00109397
-2.64554 0.061241 -30.91 0.000163038 -5.93473 -0.00106541
-3.33606 0.059493 -30.7909 0.000200485 -5.90628 -0.0010603
-4.15742 0.0574138 -30.6753 0.000236833 -5.97347 -0.00107236
-5.10976 0.055003 -30.5747 0.000268485 -5.89681 -0.0010586
-6.20888 0.0522206 -30.5317 0.000282013 -5.59346 -0.00100414
-7.38398 0.0492459 -30.5465 0.000277334 -5.21677 -0.000936521
-8.58363 0.0462091 -30.5965 0.000261617 -4.89057 -0.000877962
-9.73114 0.0433042 -30.66 0.000241667 -4.56128 -0.000818848
-10.686 0.0408871 -30.7324 0.000218894 -4.14722 -0.000744514
-11.6088 0.0385511 -30.8291 0.000188476 -3.66848 -0.00065857
-12.685 0.0358268 -30.9467 0.000151506 -3.19981 -0.000574434
-13.811 0.0329763 -31.0438 0.000120969 -2.70261 -0.000485176
-14.7662 0.0305582 -31.1061 0.000101385 -2.19849 -0.000394676
-15.8796 0.0277398 -31.1694 8.14898e-05 -1.6992 -0.000305043
-17.077 0.0247086 -31.2238 6.43906e-05 -1.20645 -0.000216584
-18.2322 0.0217843 -31.2438 5.80784e-05 -0.724942 -0.000130142
-19.2749 0.0191448 -31.2269 6.33884e-05 -0.264631 -4.75069e-05
-20.2464 0.0166854 -31.1826 7.73188e-05 0.0343424 6.16519e-06
-21.2565 0.0141284 -31.1042 0.000101972 0.239018 4.29089e-05
-22.2531 0.0116055 -30.9749 0.000142657 0.415826 7.46497e-05
-23.0621 0.00955774 -30.7804 0.000203805 0.577694 0.000103708
-23.8242 0.00762839 -30.499 0.0002923 0.728827 0.00013084
-24.5507 0.0057893 -30.0648 0.000428824 0.860394 0.000154459
-25.1949 0.00415851 -29.2325 0.000690514 0.963484 0.000172966
-25.7325 0.00279764 -26.2543 0.00162699 1.03766 0.000186283
-26.1028 0.00186042 -17.8481 0.00427026 1.08979 0.000195641
-26.252 0.00148265 -8.72895 0.00713768 1.13509 0.000203773
-26.3384 0.00126398 0.00395296 0.0102447 1.16952 0.000209955
-26.4225 0.00105098 0.0633844 0.0156914 1.18212 0.000212216
-26.4877 0.000886095 0.158099 0.0243717 1.17038 0.000210108
-26.5327 0.000772124 0.272922 0.0348948 1.1465 0.000205821
-26.5689 0.000680431 0.381906 0.0448827 1.11969 0.000201009
-26.6029 0.000594377 0.469794 0.0529373 1.08503 0.000194786
-26.6297 0.000526463 0.533862 0.058809 1.04372 0.00018737
-26.6495 0.000476409 0.576725 0.0627372 1.00895 0.000181128
-26.6673 0.000431407 0.593942 0.064315 0.993269 0.000178313
-26.6825 0.000392936 -0.0342722 0.0640712 0.984655 0.000176767
-26.6909 0.000371478 -0.909126 0.0621207 0.971654 0.000174433
-26.6949 0.000361476 -2.55825 0.0584441 0.959116 0.000172182
-26.6979 0.00035397 -4.97126 0.0530643 0.955011 0.000171445
-26.6948 0.000354577 -7.99774 0.0463169 0.949631 0.000170479
-26.6694 0.000367371 -11.5069 0.0384932 0.931228 0.000167175
-26.6269 0.000388745 -15.4138 0.0297831 0.9041 0.000162305
-26.5732 0.00041578 -19.5879 0.020477 0.87956 0.0001579
-26.5008 0.000452189 -23.7815 0.0111276 0.84981 0.000152559
-26.3932 0.000506372 -27.91 0.00192324 0.788269 0.000141511
-26.2913 0.000557658 -28.5456 0.000506066 0.639833 0.000114864
-26.1343 0.000636658 -28.6459 0.000282512 0.460928 8.27463e-05
-25.8878 0.000760726 -28.7018 0.000157976 0.244899 4.39647e-05
-25.5709 0.000920206 -28.7413 6.97965e-05 -0.0136446 -2.44949e-06
-25.0308 0.00119201 -28.7691 7.86448e-06 -0.276705 -4.96745e-05
-24.077 0.00167202 -28.79 -3.87405e-05 -0.553331 -9.93346e-05
-22.7026 0.00236369 -28.8045 -7.09668e-05 -0.827795 -0.000148607
-20.7439 0.00334943 -28.8135 -9.11106e-05 -1.10385 -0.000198164
-18.397 0.00453049 -28.8172 -9.94189e-05 -1.40647 -0.000252492
-15.7889 0.00584306 -28.814 -9.90251e-05 -1.75688 -0.000315398
-12.9305 0.00728158 -28.7916 -9.19824e-05 -2.13904 -0.000384003
-9.8127 0.00885063 -28.7477 -7.81719e-05 -2.51865 -0.000452151
-6.48666 0.0105245 -28.6819 -5.74758e-05 -2.87955 -0.000516941
-2.98911 0.0122847 -28.5983 -3.11717e-05 -3.23283 -0.000580362
0.00736771 0.0145459 -28.5046 -1.73932e-06 -3.59079 -0.000644624
0.0459019 0.018505 -28.4137 2.68719e-05 -3.94121 -0.000707531
0.116536 0.0257621 -28.3185 5.67817e-05 -4.26288 -0.000765278
0.220585 0.0364523 -28.2267 8.56536e-05 -4.54287 -0.000815541
0.338109 0.0485269 -28.1494 0.000109972 -4.78282 -0.000858617
0.462027 0.0612585 -28.0912 0.000128275 -4.98765 -0.000895389
0.595506 0.0749724 -28.0485 0.000141687 -5.15466 -0.000925372
0.744377 0.0902676 -28.0216 0.000150141 -5.27923 -0.000947734
0.908258 0.107105 -28.0177 0.000151391 -5.35523 -0.000961378
1.07831 0.124576 -28.03 0.000147495 -5.38055 -0.000965923
1.245 0.141703 -28.047 0.000142172 -5.35417 -0.000961188
1.41429 0.159096 -28.0625 0.000137291 -5.26884 -0.000945868
1.58229 0.176357 -28.0663 0.00013608 -5.11602 -0.000918434
1.75029 0.193617 -28.0531 0.000140255 -4.90193 -0.00088
1.90717 0.209736 -28.0154 0.000152106 -4.65086 -0.000834929
2.05013 0.224423 -27.9528 0.000171794 -4.39677 -0.000789313
2.18092 0.23786 -27.8395 0.000207404 -4.12898 -0.000741239
2.2977 0.249859 -27.6439 0.0002689 -3.82256 -0.000686231
2.39821 0.260186 -27.3406 0.000364298 -3.50592 -0.000629387
2.47713 0.268294 -26.8284 0.000525345 -3.20229 -0.000574879
2.53908 0.274659 -25.5919 0.00091415 -2.90636 -0.000521754
2.58492 0.279368 -19.1581 0.00293721 -2.5715 -0.000461639
2.6174 0.282705 -8.06953 0.0064239 -2.20278 -0.000395445
2.64027 0.285055 0.0241663 0.0111785 -1.83456 -0.000329342
2.61942 0.285501 0.167296 0.0243106 -1.51685 -0.000272307
2.64577 0.28562 0.379295 0.0437614 -1.19905 -0.000215255
2.65281 0.286344 0.6053 0.0644972 -0.836738 -0.000150212
2.65752 0.286827 0.829198 0.0850398 -0.44799 -8.04237e-05
2.66568 0.287666 1.04304 0.10466 -0.139279 -2.50035e-05
2.68995 0.290159 1.24529 0.123216 0.0643856 1.15586e-05
2.72504 0.293765 1.44834 0.141845 0.260012 4.66776e-05
2.7667 0.298045 1.64846 0.160207 0.476102 8.54704e-05
2.81748 0.303262 1.84017 0.177796 0.713412 0.000128073
2.87863 0.309545 2.02308 0.194578 0.953834 0.000171234
2.94947 0.316823 2.19909 0.210727 1.18716 0.000213121
3.02527 0.324611 2.37123 0.22652 1.42326 0.000255506
3.10355 0.332654 2.55714 0.243577 1.68778 0.000302992
3.18011 0.340519 2.75183 0.26144 1.92666 0.000345876
3.27077 0.349834 2.92383 0.277221 2.13679 0.0003836
3.35994 0.358995 3.0913 0.292587 2.39169 0.000429359
3.44557 0.367793 3.26919 0.308908 2.67079 0.000479464
3.53269 0.376744 3.45011 0.325507 2.89868 0.000520375
3.62385 0.386111 3.62214 0.341291 3.0373 0.00054526
3.71392 0.395364 3.79047 0.356735 3.20769 0.000575848
3.80224 0.404438 3.96471 0.372722 3.46922 0.0006228
3.89465 0.413932 4.13778 0.3886 3.68678 0.000661855
3.99068 0.4238 4.30295 0.403755 3.79024 0.000680429
4.08851 0.433851 4.46158 0.418309 3.87351 0.000695378
4.18908 0.444183 4.61848 0.432704 4.00236 0.00071851
4.29507 0.455073 4.76976 0.446585 4.12913 0.000741267
4.40437 0.466303 4.91235 0.459667 4.19424 0.000752955
4.5127 0.477432 5.05284 0.472557 4.21345 0.000756404
4.65411 0.491961 5.20351 0.486381 4.23 0.000759374
4.78122 0.505021 5.33999 0.498903 4.25813 0.000764425
4.89263 0.516467 5.46343 0.510228 4.25586 0.000764017
5.01063 0.52859 5.57952 0.520879 4.20213 0.000754371
5.12209 0.540042 5.685 0.530557 4.12312 0.000740188
5.22096 0.5502 5.77356 0.538683 4.03322 0.000724049
5.32005 0.560381 5.84656 0.54538 3.92212 0.000704104
5.41645 0.570285 5.90419 0.550667 3.78759 0.000679952
5.50081 0.578953 5.94461 0.554377 3.64031 0.000653512
5.57597 0.586675 5.96757 0.556483 3.48861 0.00062628
5.64371 0.593634 5.93299 0.557006 3.33401 0.000598526
5.69712 0.599122 5.03954 0.556725 3.17172 0.000569391
5.73374 0.602885 3.16543 0.556135 3.00343 0.000539179
5.75352 0.604916 0.3096 0.555237 2.83381 0.000508729
5.7342 0.605284 -0.163754 0.552375 2.67385 0.000480013
5.29417 0.605063 -0.540432 0.546014 2.52746 0.000453733
4.35268 0.604589 -1.01583 0.537985 2.38419 0.000428012
2.978 0.603897 -1.56432 0.528723 2.25006 0.000403934
1.20909 0.603007 -2.18477 0.518245 2.12544 0.000381561
-0.0387747 0.601682 -2.88615 0.506401 2.00616 0.000360148
-0.215163 0.598421 -3.64762 0.493542 1.88897 0.00033911
-0.483187 0.593466 -4.44975 0.479996 1.77516 0.00031868
-0.763881 0.588277 -5.28952 0.465815 1.66244 0.000298444
-1.04939 0.582998 -6.15291 0.451234 1.54412 0.000277202
-1.32417 0.577919 -7.03077 0.43641 1.4198 0.000254884
-1.58177 0.573156 -7.90911 0.421577 1.28734 0.000231105
-1.81934 0.568764 -8.77472 0.406959 1.14383 0.000205342
-2.03534 0.564771 -9.61541 0.392762 0.985964 0.000177001
-2.22791 0.561211 -10.4169 0.379227 0.813898 0.000146112
-2.3952 0.558118 -11.1656 0.366584 0.629792 0.000113061
-2.53554 0.555524 -11.8507 0.355014 0.438446 7.87103e-05
-2.6483 0.553439 -12.4619 0.344693 0.258667 4.64362e-05
-2.73461 0.551844 -12.9907 0.335762 0.0794966 1.42713e-05
-2.80027 0.55063 -13.4369 0.328227 -0.117229 -2.10451e-05
-2.86612 0.549413 -13.7801 0.322432 -0.24593 -4.41497e-05
-2.95317 0.547803 -14.0256 0.318286 -0.37018 -6.64552e-05
-3.08559 0.545355 -14.1681 0.31588 -0.501408 -9.00133e-05
-3.28266 0.541712 -14.2089 0.31519 -0.643451 -0.000115513
-3.55258 0.536722 -13.4506 0.315429 -0.791378 -0.000142069
-3.89948 0.530309 -11.8218 0.315941 -0.934726 -0.000167803
-4.31936 0.522547 -9.55897 0.316653 -1.06631 -0.000191425
-4.75026 0.514581 -7.15862 0.317407 -1.18307 -0.000212386
-5.23975 0.505532 -4.65779 0.318194 -1.28996 -0.000231575
-5.7825 0.495498 -2.42822 0.318895 -1.3859 -0.000248799
-6.34771 0.485049 -0.672373 0.319447 -1.46499 -0.000262997
-6.94851 0.473942 0.0035144 0.319858 -1.52207 -0.000273244
-7.57734 0.462317 -0.00620738 0.319856 -1.55241 -0.000278691
-8.23177 0.450218 -0.0596011 0.319329 -1.5585 -0.000279785
-8.90518 0.437769 -0.165161 0.318288 -1.53181 -0.000274992
-9.61486 0.424649 -0.316363 0.316796 -1.45671 -0.000261511
-10.3512 0.411037 -0.515941 0.314827 -1.32573 -0.000237998
-11.0752 0.397652 -1.07028 0.309359 -1.14548 -0.000205639
-11.8467 0.38339 -1.73917 0.30276 -0.95874 -0.000172114
-12.6458 0.368616 -2.45649 0.295683 -0.761169 -0.000136646
-13.4718 0.353347 -3.18225 0.288524 -0.542199 -9.73363e-05
-14.3577 0.336968 -3.946 0.280989 -0.291265 -5.22883e-05
-15.3057 0.319444 -4.75903 0.272969 -0.0695701 -1.24893e-05
-16.2911 0.301226 -5.62842 0.264392 0.117584 2.11088e-05
-17.2777 0.282987 -6.52077 0.255589 0.294379 5.28472e-05
-18.2606 0.264817 -7.44624 0.246459 0.474117 8.51141e-05
-19.2333 0.246833 -8.43232 0.236732 0.661848 0.000118816
-20.1891 0.229165 -9.45771 0.226616 0.843034 0.000151343
-21.119 0.211973 -10.4902 0.216431 1.00329 0.000180112
-22.0357 0.195026 -11.4911 0.206557 1.14121 0.000204871
-22.9584 0.177968 -12.4768 0.196832 1.26175 0.000226511
-23.8924 0.160701 -13.4257 0.187471 1.36467 0.000244988
-24.8341 0.143292 -14.3221 0.178629 1.44228 0.00025892
-25.7829 0.125752 -15.1638 0.170325 1.48627 0.000266816
-26.7355 0.108141 -15.9656 0.162415 1.49647 0.000268648
-27.6777 0.0907239 -16.7485 0.154692 1.4669 0.00026334
-28.6019 0.0736371 -17.5276 0.147006 1.38937 0.000249421
-29.4986 0.0570608 -18.3112 0.139276 1.26181 0.000226522
-30.3547 0.0412338 -19.1137 0.131359 1.09113 0.000195881
-31.1606 0.0263345 -19.9545 0.123065 0.884568 0.000158799
-31.9073 0.0125317 -20.8605 0.114127 0.644456 0.000115694
-32.5103 0.00138329 -21.8605 0.104262 0.375909 6.74836e-05
-32.5432 0.000775251 -23.0772 0.0922587 0.117072 2.10169e-05
-32.5538 0.000579392 -24.2718 0.0804744 -0.0554064 -9.94664e-06
-32.56 0.000464095 -25.5447 0.0679173 -0.18137 -3.25598e-05
-32.5646 0.000379222 -26.9814 0.0537438 -0.329376 -5.913e-05
-32.5678 0.000320558 -28.4943 0.0388188 -0.525315 -9.43053e-05
-32.5698 0.000283988 -30.029 0.0236794 -0.749035 -0.000134468
-32.5712 0.000257283 -31.6139 0.0080436 -0.96316 -0.000172908
-32.5733 0.000218293 -32.3678 0.00060664 -1.18531 -0.000212788
-32.5747 0.000193235 -32.3974 0.000314945 -1.42331 -0.000255514
-32.5755 0.000177632 -32.4119 0.000171881 -1.67681 -0.000301024
-32.5768 0.000154636 -32.4227 6.46957e-05 -1.96335 -0.000352463
-32.5778 0.000134537 -32.4318 -2.49737e-05 -2.27518 -0.000408442
-32.5782 0.000127725 -32.4394 -9.92086e-05 -2.5848 -0.000464027
-32.5768 0.000128255 -32.4457 -0.000161305 -2.87724 -0.000516527
-32.5697 0.000131819 -32.4511 -0.000215444 -3.16855 -0.000568822
-32.5397 0.000146913 -32.4559 -0.000262227 -3.48595 -0.000625802
-32.4722 0.000180916 -32.4602 -0.000304637 -3.83025 -0.000687612
-32.3715 0.000231581 -32.4643 -0.000345341 -4.16919 -0.000748458
-32.2234 0.000306101 -32.4674 -0.000375787 -4.4813 -0.000804489
-32.0163 0.000410344 -32.4699 -0.000400485 -4.7811 -0.000858308
-31.7427 0.000548026 -32.4724 -0.000424904 -5.11857 -0.000918893
-31.3718 0.0007347 -32.4744 -0.00044515 -5.42129 -0.000973237
-30.5831 0.00113163 -32.476 -0.000460168 -5.70419 -0.00102402
-28.1029 0.00237977 -32.4767 -0.000467997 -5.98133 -0.00107378
-23.7645 0.00456315 -32.4761 -0.000468867 -6.05347 -0.00108673
-18.9237 0.00699932 -32.4669 -0.000465957 -6.10464 -0.00109591
-13.7603 0.00959781 -32.4396 -0.000457398 -6.12084 -0.00109882
-8.51126 0.0122395 -32.4085 -0.000447619 -6.12032 -0.00109873
-3.14586 0.0149396 -32.3654 -0.000434055 -6.12408 -0.0010994
0.0229089 0.0188695 -32.3046 -0.000414935 -6.17429 -0.00110842
0.0903378 0.0257766 -32.2329 -0.000392405 -6.2286 -0.00111817
0.199158 0.0369238 -32.159 -0.000369152 -6.2474 -0.00112154
0.341768 0.0515321 -32.0802 -0.000344372 -6.2357 -0.00111944
0.49718 0.0674519 -31.9891 -0.000315715 -6.22811 -0.00111808
0.651099 0.0832187 -31.8835 -0.000282533 -6.24566 -0.00112123
0.796176 0.0980797 -31.7758 -0.000248661 -6.2513 -0.00112224
0.934358 0.112235 -31.6662 -0.00021421 -6.16747 -0.00110719
1.06462 0.125578 -31.5387 -0.000174118 -5.97481 -0.0010726
1.18644 0.138057 -31.3991 -0.000130211 -5.70793 -0.0010247
1.30413 0.150112 -31.2523 -8.40368e-05 -5.39119 -0.000967832
1.42277 0.162266 -31.1056 -3.7932e-05 -5.0656 -0.000909383
1.54603 0.174892 -30.9511 1.06722e-05 -4.70592 -0.000844813
1.67474 0.188077 -30.7849 6.29279e-05 -4.2624 -0.000765191
1.81423 0.202365 -30.6007 0.00012083 -3.75127 -0.000673432
1.96582 0.217893 -30.3904 0.000186969 -3.19922 -0.000574329
2.13391 0.235111 -30.1419 0.000265119 -2.63784 -0.000473549
2.31461 0.253622 -29.8153 0.000367809 -2.03036 -0.000364493
2.507 0.27333 -29.3073 0.000527532 -1.37631 -0.000247077
2.71318 0.29445 -28.2196 0.000869566 -0.702885 -0.000126183
2.92432 0.316078 -23.1617 0.00245997 -0.197514 -3.5458e-05
3.14867 0.339059 -14.0098 0.0053377 0.0927606 1.66525e-05
3.38422 0.363188 -3.52565 0.00863435 0.362612 6.50966e-05
3.62395 0.387745 0.0573789 0.0150024 0.629769 0.000113057
3.86114 0.412042 0.21319 0.0292844 0.886971 0.00015923
4.10381 0.4369 0.443504 0.0503954 1.13561 0.000203866
4.35304 0.46243 0.716935 0.0754587 1.36634 0.000245288
4.60303 0.488038 1.01721 0.102982 1.56552 0.000281045
4.85311 0.513655 1.34162 0.132719 1.73646 0.000311732
5.11167 0.540141 1.69252 0.164883 1.89745 0.000340633
5.37916 0.567542 2.07197 0.199663 2.05796 0.000369447
5.63429 0.593676 2.48516 0.237538 2.20244 0.000395386
5.97907 0.628994 2.96822 0.281816 2.32022 0.000416529
6.33042 0.664985 3.51134 0.3316 2.49333 0.000447605
6.63841 0.696534 4.08029 0.38375 2.59135 0.000465203
6.96883 0.730381 4.60038 0.431423 2.69177 0.000483229
7.32089 0.766444 5.12432 0.479449 2.80019 0.000502694
7.64731 0.799881 5.66721 0.529211 2.9749 0.000534058
7.97027 0.832964 6.2078 0.578763 3.134 0.000562619
8.30783 0.867542 6.71406 0.625167 3.16641 0.000568437
8.63643 0.901203 7.19909 0.669626 3.35553 0.000602389
8.93253 0.93356 7.67197 0.712971 3.70792 0.000665651
8.93253 0.967765 8.11819 0.753872 3.9735 0.000713328
8.93253 1.00152 8.52435 0.791102 4.12094 0.000739797
8.93253 1.03374 8.89802 0.825353 4.33392 0.000778031
8.93253 1.06431 8.93253 0.854541 4.66965 0.000838302
8.93253 1.09191 8.93253 0.878869 5.00569 0.000898628
8.93253 1.1189 8.93253 0.900225 5.264 0.000945
8.93253 1.14275 8.93253 0.920227 5.50126 0.000987594
8.93253 1.16515 8.93253 0.937949 5.59459 0.00100435
8.93253 1.18677 8.93253 0.954088 5.66724 0.00101739
8.93253 1.20804 8.93253 0.968861 5.72058 0.00102697
8.93253 1.22819 8.93253 0.982822 5.77491 0.00103672
8.93253 1.24769 8.93253 0.996345 5.84118 0.00104862
-1.03417 1.20801 -0.12698 0.994363 5.90467 0.00106001
-1.39547 1.18941 4.4742 0.993892 4.64482 0.000833845
3.56764 1.21464 8.93253 1.00331 4.77543 0.000857291
4.86446 1.22356 8.93253 1.03227 5.27358 0.00094672
6.42005 1.23425 8.93253 1.0547 5.55225 0.000996746
8.71905 1.25006 8.93253 1.08082 5.77344 0.00103645
8.93253 1.26892 8.93253 1.10739 5.9984 0.00107684
8.93253 1.28395 8.93253 1.1313 6.03471 0.00108336
8.93253 1.30205 8.93253 1.15373 5.9789 0.00107334
8.93253 1.32087 8.93253 1.17584 5.94665 0.00106755
8.93253 1.33793 8.93253 1.19956 5.9847 0.00107438
6.74254 1.34297 -0.0165902 1.15634 5.27536 0.00094704
8.93253 1.35036 -0.0563622 1.15744 5.58578 0.00100277
8.93253 1.37462 5.68439 1.18425 5.92769 0.00106415
8.93253 1.39854 8.93253 1.22248 5.61394 0.00100782
8.93253 1.41418 8.93253 1.25473 5.35792 0.000961861
8.93253 1.42955 8.93253 1.28916 5.30677 0.000952677
8.93253 1.44249 8.93253 1.32542 5.48343 0.000984392
8.93253 1.45186 8.93253 1.35954 5.5095 0.000989073
8.93253 1.46153 8.93253 1.39062 5.38862 0.000967371
8.93253 1.47068 8.93253 1.42171 5.41396 0.000971921
8.93253 1.47777 8.93253 1.45263 5.64745 0.00101384
8.93253 1.48417 8.93253 1.4809 5.88405 0.00105631
8.93253 1.49074 8.93253 1.50527 5.88477 0.00105644
8.93253 1.49631 8.93253 1.52749 5.82276 0.00104531
8.93253 1.50123 8.93253 1.54747 5.82933 0.00104649
8.93253 1.50583 8.93253 1.56429 5.91493 0.00106186
8.93253 1.50989 8.93253 1.57763 5.9623 0.00107036
8.93253 1.51333 8.93253 1.58836 6.04473 0.00108516
8.93253 1.51638 8.93253 1.59666 6.12222 0.00109907
8.93253 1.51906 8.93253 1.60227 6.18311 0.00111
8.93253 1.52139 8.93253 1.60548 6.25465 0.00112284
8.93253 1.52353 8.93253 1.60694 6.35177 0.00114028
8.93253 1.5257 8.81973 1.60712 6.45394 0.00115862
8.93253 1.52794 8.13409 1.6069 6.5418 0.00117439
8.93253 1.53044 7.15075 1.60659 6.62481 0.00118929
8.93253 1.53327 6.24713 1.60631 6.71584 0.00120564
8.93253 1.53653 5.71015 1.60614 6.80987 0.00122252
8.93253 1.54036 5.85129 1.60618 6.89869 0.00123846
8.93253 1.54426 7.03566 1.60655 6.97364 0.00125192
8.93253 1.54829 8.93253 1.60745 7.03654 0.00126321
8.93253 1.55171 8.93253 1.61274 7.09779 0.0012742
8.93253 1.55482 8.93253 1.62101 7.15694 0.00128482
8.93253 1.55763 8.93253 1.63196 7.19597 0.00129183
8.93253 1.56013 8.93253 1.64535 7.21932 0.00129602
8.93253 1.56179 8.93253 1.66118 7.23579 0.00129898
8.93253 1.56291 8.93253 1.67942 7.2465 0.0013009
8.93253 1.5639 8.93253 1.69983 7.24757 0.00130109
8.93253 1.56491 8.93253 1.71625 2.21584 0.00039779
7.64617 1.57279 8.93253 1.72537 1.30929 0.000235046
7.84087 1.57289 8.93253 1.75159 1.26308 0.00022675
7.66403 1.5728 8.93253 1.77513 1.29544 0.000232559
6.80801 1.57237 8.93253 1.7978 1.65879 0.000297788
6.74924 1.57234 8.93253 1.82259 1.66378 0.000298685
6.45336 1.57219 8.93253 1.84582 1.43317 0.000257284
5.86899 1.57189 8.93253 1.86553 1.25847 0.000225922
5.06927 1.57149 8.93253 1.884 1.40018 0.000251362
3.88868 1.5709 8.93253 1.90161 1.6156 0.000290034
2.43894 1.57017 8.93253 1.91643 1.69765 0.000304765
0.795827 1.56934 8.93253 1.92734 1.57871 0.000283412
-0.028748 1.56758 8.93253 1.93526 1.54574 0.000277494
-0.10732 1.56386 8.93253 1.94097 1.62674 0.000292034
-0.231998 1.55796 8.93253 1.94388 1.70214 0.00030557
-0.384846 1.55072 8.22385 1.94388 1.69075 0.000303525
-0.559285 1.54246 5.82872 1.94313 1.63924 0.000294279
-0.748907 1.53349 1.78438 1.94185 1.64802 0.000295854
-0.950118 1.52396 -0.0516022 1.93829 1.71265 0.000307457
-1.13563 1.51518 -0.230793 1.92785 1.73074 0.000310705
-1.31475 1.5067 -0.467615 1.91405 1.77222 0.000318151
-1.48133 1.49881 -0.727152 1.89892 1.81173 0.000325244
-1.60075 1.49316 -0.948178 1.88604 1.83501 0.000329424
-1.70325 1.48831 -1.17697 1.87271 1.85307 0.000332665
-1.78631 1.48437 -1.41239 1.859 1.87259 0.00033617
-1.85465 1.48114 -1.65013 1.84514 1.89849 0.00034082
-1.90016 1.47899 -1.88238 1.83161 1.92633 0.000345818
-1.92823 1.47766 -2.10003 1.81893 1.9482 0.000349744
-1.93797 1.47719 -2.30151 1.80719 1.96088 0.000352019
-1.94143 1.47703 -2.4874 1.79636 1.96907 0.00035349
-1.93117 1.47702 -2.65389 1.78666 1.97825 0.000355138
-1.8885 1.47705 -2.79862 1.77822 1.97203 0.000354021
-1.80245 1.47709 -2.91214 1.77161 1.91576 0.00034392
-1.69834 1.47714 -2.99526 1.76676 1.80156 0.000323419
-1.70397 1.47714 -3.05426 1.76333 1.62384 0.000291514
-1.8462 1.47707 -3.08722 1.76141 1.38618 0.000248849
-1.94662 1.47679 -3.02352 1.761 1.09869 0.000197239
-1.96499 1.47592 -2.01148 1.76131 0.78284 0.000140536
-1.99334 1.47457 -0.0793414 1.76192 0.480992 8.63483e-05
-2.0375 1.47248 0.104612 1.76408 0.224383 4.02814e-05
-2.10512 1.46928 0.351879 1.76912 0.204334 3.66824e-05
-2.18606 1.46545 0.652442 1.77525 0.157975 2.83599e-05
-2.28541 1.46075 0.976393 1.78186 0.0673331 1.20877e-05
-2.403 1.45518 1.30408 1.78854 -0.0392914 -7.05364e-06
-2.53983 1.4487 1.63253 1.79524 -0.108492 -1.94767e-05
-2.69198 1.4415 1.93976 1.8015 -0.1867 -3.35166e-05
-2.86054 1.43352 2.20913 1.807 -0.270192 -4.85052e-05
-3.04454 1.42481 2.42153 1.81133 -0.354364 -6.36159e-05
-3.24602 1.41527 2.57286 1.81441 -0.43423 -7.79536e-05
-3.43911 1.40613 2.63313 1.81564 -0.504711 -9.06063e-05
-3.64601 1.39633 1.93043 1.81542 -0.560836 -0.000100682
-3.87221 1.38562 -0.000475474 1.81479 -0.605107 -0.00010863
-4.10666 1.37453 -0.059322 1.81158 -0.638039 -0.000114542
-4.33801 1.36357 -0.190367 1.80444 -0.660232 -0.000118526
-4.57116 1.35254 -0.368686 1.79472 -0.680686 -0.000122198
-4.79187 1.34209 -0.59702 1.78228 -0.699675 -0.000125607
-4.99575 1.33243 -0.877381 1.767 -0.713971 -0.000128173
-5.18246 1.3236 -1.20772 1.749 -0.717956 -0.000128888
-5.35133 1.3156 -1.57982 1.72873 -0.702003 -0.000126024
-5.48613 1.30922 -1.98579 1.7066 -0.661044 -0.000118672
-5.59443 1.30409 -2.42801 1.68251 -0.597022 -0.000107178
-5.68107 1.29999 -2.90395 1.65657 -0.51437 -9.23404e-05
-5.7388 1.29726 -3.40381 1.62933 -0.413719 -7.42714e-05
-5.76873 1.29584 -3.91557 1.60144 -0.308273 -5.53416e-05
-5.77388 1.29551 -4.4193 1.57399 -0.210345 -3.77614e-05
-5.61098 1.29559 -4.93303 1.546 -0.13893 -2.49408e-05
-5.32904 1.29573 -5.44778 1.51795 -0.102703 -1.84374e-05
-4.82011 1.29599 -5.95176 1.49049 -0.0986731 -1.77139e-05
-4.20677 1.2963 -6.43355 1.46423 -0.123493 -2.21697e-05
-3.70222 1.29655 -6.8851 1.43963 -0.173439 -3.11361e-05
-3.39755 1.29671 -7.30041 1.41699 -0.246655 -4.42798e-05
-3.30129 1.29676 -7.67529 1.39657 -0.349288 -6.27047e-05
-3.39703 1.29671 -8.00582 1.37855 -0.458753 -8.23559e-05
-3.4298 1.29669 -8.28017 1.3636 -0.501637 -9.00545e-05
-3.52546 1.29664 -8.51504 1.35081 -0.543939 -9.76486e-05
-3.87343 1.29647 -8.71274 1.34003 -0.578043 -0.000103771
-4.40714 1.2962 -8.86991 1.33147 -0.619555 -0.000111223
-4.92464 1.29594 -8.9759 1.32569 -0.681672 -0.000122375
-5.3094 1.29574 -9.01877 1.32336 -0.768635 -0.000137986
-5.65593 1.29557 -8.65222 1.32333 -0.876639 -0.000157375
-5.78072 1.29527 -7.40302 1.32373 -0.99634 -0.000178864
-5.79289 1.2947 -5.46318 1.32434 -1.11765 -0.000200642
-5.76021 1.29456 -2.75704 1.32519 -1.22959 -0.000220737
-5.47318 1.29471 0.00725129 1.32656 -1.32735 -0.000238287
-5.54463 1.29467 0.0643958 1.33051 -1.4165 -0.000254291
-5.71143 1.29459 0.159021 1.33706 -1.50929 -0.000270949
-5.69275 1.2946 0.262604 1.34422 -1.61344 -0.000289647
-5.51741 1.29468 0.355911 1.35068 -1.7314 -0.000310822
-5.17388 1.29486 0.43528 1.35617 -1.85569 -0.000333137
-4.83439 1.29503 0.508443 1.36123 -1.97687 -0.000354891
-4.35409 1.29527 0.570947 1.36556 -2.08291 -0.000373927
-3.65094 1.29562 0.616812 1.36873 -2.1673 -0.000389076
-2.8191 1.29604 0.641373 1.37043 -2.2319 -0.000400674
-1.93139 1.29649 0.403428 1.37058 -2.28268 -0.00040979
-1.0161 1.29695 -0.0202339 1.36962 -2.32737 -0.000417813
0.00357916 1.29757 -0.101022 1.36629 -2.36841 -0.00042518
0.0372011 1.29861 -0.215659 1.36157 -2.40912 -0.000432489
0.0910011 1.30027 -0.365865 1.35537 -2.44567 -0.00043905
0.160999 1.30244 -0.551309 1.34773 -2.47325 -0.000444
0.227017 1.30448 -0.771477 1.33865 -2.48635 -0.000446352
0.268512 1.30576 -1.02615 1.32815 -2.47163 -0.000443711
0.197845 1.30593 -1.30627 1.3166 -2.405 -0.000431748
-0.0120707 1.30535 -1.60143 1.30443 -2.29296 -0.000411636
-0.0728921 1.30295 -1.89949 1.29215 -2.1386 -0.000383924
-0.158571 1.29956 -2.20303 1.27963 -1.93633 -0.000347613
-0.271571 1.2951 -2.49578 1.26756 -1.70199 -0.000305543
-0.413613 1.28949 -2.78013 1.25584 -1.4773 -0.000265208
-0.578334 1.28299 -3.06594 1.24406 -1.27745 -0.00022933
-0.768413 1.27548 -3.34719 1.23246 -1.07457 -0.000192908
-0.984098 1.26697 -3.60494 1.22183 -0.880364 -0.000158044
-1.22139 1.2576 -3.82809 1.21264 -0.648917 -0.000116494
-1.47517 1.24758 -4.01733 1.20483 -0.397379 -7.13379e-05
-1.73466 1.23733 -4.17486 1.19834 -0.149997 -2.69276e-05
-1.98899 1.22729 -4.30228 1.19309 0.020902 3.75236e-06
-2.26029 1.21657 -4.4127 1.18853 0.0691743 1.24183e-05
-2.56425 1.20457 -4.49481 1.18515 0.0800777 1.43756e-05
-2.87868 1.19216 -4.55105 1.18283 0.0719199 1.29111e-05
-3.18594 1.18002 -4.57813 1.18171 0.0664538 1.19299e-05
-3.48377 1.16826 -4.33072 1.18172 0.0844257 1.51562e-05
-3.77685 1.15669 -3.46381 1.18199 0.135753 2.43706e-05
-4.07056 1.14509 -1.99834 1.18245 0.204581 3.67267e-05
-4.354 1.1339 1.11072e-06 1.18308 0.243314 4.368e-05
-4.63777 1.1227 0.0202789 1.18481 0.254491 4.56865e-05
-4.92549 1.11134 0.0640606 1.18854 0.247352 4.44049e-05
-5.20931 1.10013 0.121992 1.19347 0.230588 4.13954e-05
-5.4925 1.08895 0.189787 1.19925 0.223965 4.02065e-05
-5.78266 1.07749 0.262706 1.20546 0.233645 4.19442e-05
-6.09039 1.06534 0.340097 1.21205 0.262879 4.71924e-05
-6.41973 1.05233 0.421059 1.21895 0.289916 5.2046e-05
-6.76467 1.03871 0.503192 1.22595 0.291371 5.23073e-05
-7.12088 1.02465 0.585985 1.233 0.28674 5.1476e-05
-7.48465 1.01028 0.667719 1.23997 0.273666 4.91288e-05
-7.85407 0.995695 0.745392 1.24658 0.267368 4.79983e-05
-8.23258 0.980749 0.815913 1.25259 0.271828 4.8799e-05
-8.6217 0.965384 0.877009 1.2578 0.283017 5.08076e-05
-9.01548 0.949835 0.926743 1.26203 0.298911 5.36609e-05
-9.40573 0.934425 0.963201 1.26514 0.314159 5.63983e-05
-9.78918 0.919285 0.985623 1.26705 0.324939 5.83334e-05
-10.1653 0.904432 0.992265 1.26762 0.332667 5.97208e-05
-10.5353 0.889824 0.161618 1.26735 0.341283 6.12675e-05
-10.9005 0.8754 -0.0396019 1.26579 0.355061 6.3741e-05
-11.2519 0.861528 -0.145365 1.26176 0.378792 6.80012e-05
-11.5903 0.848163 -0.298151 1.25593 0.409242 7.34677e-05
-11.9097 0.835551 -0.493253 1.24849 0.443901 7.96896e-05
-12.2101 0.823692 -0.72485 1.23965 0.478332 8.58708e-05
-12.4908 0.812606 -0.997538 1.22925 0.510037 9.15625e-05
-12.751 0.802331 -1.29421 1.21793 0.538635 9.66965e-05
-12.9859 0.793055 -1.62813 1.20519 0.565218 0.000101469
-13.1966 0.784736 -1.99996 1.19101 0.591819 0.000106244
-13.3848 0.777306 -2.39948 1.17577 0.621872 0.000111639
-13.5483 0.770848 -2.81612 1.15987 0.657375 0.000118013
-13.6909 0.765218 -3.24449 1.14353 0.696584 0.000125052
-13.8157 0.760292 -3.68024 1.12691 0.727846 0.000130664
-13.9214 0.756118 -4.12228 1.11005 0.744602 0.000133672
-14.0067 0.752748 -4.56792 1.09305 0.752522 0.000135094
-14.0746 0.750068 -5.01073 1.07616 0.745455 0.000133825
-14.1281 0.747956 -5.44557 1.05957 0.703586 0.000126309
-14.1704 0.746285 -5.86436 1.04359 0.61549 0.000110494
-14.2031 0.744994 -6.26104 1.02846 0.470769 8.4513e-05
-14.2264 0.744075 -6.63253 1.01429 0.306304 5.49881e-05
-14.2431 0.743413 -6.96741 1.00151 0.221062 3.96854e-05
-14.2493 0.743169 -7.2822 0.989504 0.185328 3.32703e-05
-14.2201 0.743174 -7.56826 0.978591 0.176857 3.17495e-05
-14.1687 0.7432 -7.81423 0.969208 0.151223 2.71478e-05
-14.0498 0.74326 -8.01035 0.961726 0.0740397 1.32917e-05
-13.7584 0.743406 -8.16314 0.955898 -0.00537036 -9.64093e-07
-13.3531 0.74361 -8.28341 0.95131 -0.114657 -2.05834e-05
-12.8801 0.743848 -8.38865 0.947295 -0.254337 -4.56589e-05
-12.3823 0.744099 -8.47633 0.94395 -0.402752 -7.23026e-05
-11.9456 0.744319 -8.53963 0.941536 -0.537097 -9.64203e-05
-11.638 0.744473 -8.58077 0.939966 -0.648484 -0.000116417
-11.3759 0.744605 -8.60397 0.939081 -0.747276 -0.000134152
-11.0378 0.744775 -8.61723 0.938575 -0.853705 -0.000153258
-10.609 0.744991 -8.63263 0.937988 -0.982739 -0.000176422
-10.1801 0.745207 -8.65989 0.936948 -1.13433 -0.000203637
-9.81709 0.74539 -8.70075 0.935389 -1.29455 -0.000232399
-9.50798 0.745545 -8.75228 0.933423 -1.44494 -0.000259397
-9.22218 0.745689 -8.81508 0.931028 -1.5732 -0.000282422
-8.96865 0.745817 -8.8977 0.927876 -1.68115 -0.000301802
-8.80861 0.745897 -9.0214 0.923157 -1.80835 -0.000324637
-8.66194 0.745971 -9.17974 0.917117 -1.91199 -0.000343242
-8.6484 0.745978 -9.36686 0.909978 -1.99777 -0.000358643
-8.70708 0.745948 -9.59781 0.901168 -2.06943 -0.000371506
-8.82202 0.745891 -9.86111 0.891124 -2.13191 -0.000382724
-9.05067 0.745775 -10.1587 0.879773 -2.19207 -0.000393523
-9.46062 0.745569 -10.4918 0.867065 -2.25406 -0.000404652
-10.0109 0.745292 -10.8651 0.852824 -2.31835 -0.000416194
-10.6759 0.744958 -11.2833 0.836872 -2.38004 -0.000427267
-11.468 0.744559 -11.7362 0.819592 -2.43123 -0.000436457
-12.2638 0.744158 -12.2044 0.801735 -2.46433 -0.0004424
-13.0096 0.743783 -12.6716 0.783912 -2.46462 -0.000442451
-13.9147 0.743328 -13.1556 0.765448 -2.45004 -0.000439835
-14.294 0.741403 -13.6579 0.746285 -2.44713 -0.000439312
-14.3858 0.737779 -14.1698 0.726756 -2.46327 -0.000442209
-14.4827 0.733952 -14.6896 0.706927 -2.48387 -0.000445907
-14.5831 0.729988 -15.2039 0.687308 -2.49214 -0.000447392
-14.6902 0.725761 -15.7073 0.668105 -2.47987 -0.00044519
-14.81 0.72103 -16.1973 0.649413 -2.4544 -0.000440617
-14.9505 0.715481 -16.6672 0.631488 -2.43478 -0.000437095
-15.0846 0.710185 -17.1061 0.614745 -2.43321 -0.000436812
-15.2186 0.704895 -17.5204 0.598938 -2.43495 -0.000437126
-15.3672 0.699028 -17.9126 0.583977 -2.43492 -0.00043712
-15.5366 0.692336 -18.2771 0.570072 -2.43367 -0.000436896
-15.7217 0.685031 -18.6077 0.55746 -2.42753 -0.000435793
-15.9146 0.67741 -18.8987 0.54636 -2.42297 -0.000434975
-16.1225 0.669201 -19.1469 0.536891 -2.42713 -0.000435722
-16.3517 0.660153 -19.3499 0.529149 -2.44051 -0.000438124
-16.6039 0.650193 -19.5093 0.523065 -2.45905 -0.000441452
-16.8758 0.639458 -19.6292 0.518493 -2.48248 -0.000445658
-17.1626 0.628133 -19.7122 0.515328 -2.5087 -0.000450365
-17.4613 0.616336 -19.7615 0.513444 -2.53276 -0.000454685
-17.773 0.604029 -19.7785 0.512799 -2.55583 -0.000458826
-18.0957 0.591287 -19.2907 0.512953 -2.58115 -0.000463372
-18.4228 0.578371 -18.1626 0.513307 -2.60893 -0.000468359
-18.7495 0.565472 -16.6317 0.513789 -2.64232 -0.000474352
-19.0744 0.552644 -14.9656 0.514313 -2.67865 -0.000480874
-19.4004 0.539768 -13.2202 0.514861 -2.71249 -0.000486949
-19.7235 0.527012 -11.4371 0.515422 -2.73863 -0.000491643
-20.0449 0.514321 -9.64834 0.515985 -2.75731 -0.000494997
-20.367 0.5016 -8.01934 0.516497 -2.7752 -0.000498207
-20.6907 0.488819 -6.78748 0.516884 -2.79432 -0.00050164
-21.0152 0.476008 -6.04751 0.517117 -2.81348 -0.00050508
-21.3388 0.463229 -5.77462 0.517203 -2.82849 -0.000507775
-21.6632 0.45042 -5.99467 0.517133 -2.8336 -0.000508691
-21.9892 0.437546 -6.77994 0.516886 -2.82935 -0.000507928
-22.3172 0.424596 -8.17769 0.516447 -2.80784 -0.000504067
-22.6435 0.411709 -10.2022 0.51581 -2.76452 -0.00049629
-22.9715 0.398758 -12.9795 0.514937 -2.69297 -0.000483446
-23.2957 0.385957 -16.5134 0.513826 -2.5928 -0.000465463
-23.613 0.373429 -19.7947 0.512179 -2.46839 -0.000443128
-23.901 0.362056 -19.9615 0.505816 -2.30071 -0.000413027
-24.1891 0.350678 -20.168 0.497937 -2.12734 -0.000381903
-24.4779 0.339274 -20.4068 0.488828 -1.95182 -0.000350393
-24.7589 0.32818 -20.6674 0.478888 -1.79288 -0.00032186
-25.0264 0.317616 -20.9387 0.468538 -1.63979 -0.000294376
-25.2859 0.307373 -21.2182 0.457877 -1.4954 -0.000268456
-25.5449 0.297145 -21.5078 0.446828 -1.3361 -0.000239859
-25.8082 0.286748 -21.805 0.435492 -1.16028 -0.000208295
-26.074 0.27625 -22.1041 0.42408 -0.983612 -0.000176579
-26.3393 0.265777 -22.4007 0.412767 -0.841013 -0.00015098
-26.6041 0.255319 -22.6769 0.40223 -0.738977 -0.000132662
-26.8709 0.244786 -22.9415 0.392136 -0.653202 -0.000117264
-27.1466 0.233898 -23.1987 0.382323 -0.586742 -0.000105333
-27.4294 0.222732 -23.4472 0.372845 -0.540119 -9.69629e-05
-27.7124 0.211557 -23.6826 0.363866 -0.507498 -9.11067e-05
-27.9913 0.200545 -23.9022 0.355489 -0.498884 -8.95603e-05
-28.2665 0.189677 -24.1067 0.347686 -0.526786 -9.45692e-05
-28.539 0.178918 -24.2961 0.340461 -0.590079 -0.000105932
-28.8061 0.168371 -24.4731 0.333709 -0.676218 -0.000121396
-29.0634 0.15821 -24.643 0.327226 -0.767812 -0.000137839
-29.3072 0.148582 -24.8061 0.321007 -0.873458 -0.000156804
-29.5346 0.139605 -24.9646 0.314959 -1.01589 -0.000182374
-29.7448 0.131304 -25.1185 0.309089 -1.19496 -0.000214521
-29.9396 0.123612 -25.2665 0.303441 -1.39473 -0.000250383
-30.1193 0.116518 -25.4105 0.297949 -1.60141 -0.000287488
-30.2805 0.11015 -25.5551 0.292433 -1.81297 -0.000325467
-30.422 0.104565 -25.7045 0.286733 -2.03718 -0.000365717
-30.5445 0.0997283 -25.8612 0.280754 -2.28198 -0.000409665
-30.6505 0.0955412 -26.0257 0.274482 -2.547 -0.00045724
-30.7443 0.0918355 -26.1919 0.26814 -2.68876 -0.00048269
-30.8314 0.0883964 -26.3515 0.262053 -2.76579 -0.000496517
-30.9048 0.0855001 -26.5225 0.255529 -2.80743 -0.000503994
-30.9717 0.0828574 -26.7014 0.248702 -2.8378 -0.000509446
-31.0351 0.0803562 -26.8907 0.241481 -2.88506 -0.000517929
-31.098 0.077869 -27.0887 0.233929 -2.95999 -0.00053138
-31.1625 0.0753251 -27.2934 0.226122 -3.05872 -0.000549105
-31.2298 0.0726659 -27.5055 0.218029 -3.16579 -0.000568326
-31.303 0.0697752 -27.7249 0.209659 -3.25201 -0.000583805
-31.3836 0.0665928 -27.9539 0.200925 -3.27974 -0.000588783
-31.4729 0.0630651 -28.1912 0.191873 -3.27422 -0.000587793
-31.5692 0.0592631 -28.4399 0.182384 -3.28996 -0.000590619
-31.6718 0.0552125 -28.7008 0.17243 -3.35569 -0.000602418
-31.7809 0.0509038 -28.973 0.162048 -3.45987 -0.00062112
-31.8965 0.0463424 -29.2539 0.151331 -3.55757 -0.000638659
-32.017 0.0415836 -29.5444 0.140249 -3.61559 -0.000649075
-32.1399 0.0367297 -29.8472 0.128699 -3.63697 -0.000652913
-32.2644 0.0318116 -30.1648 0.116585 -3.6512 -0.000655468
-32.3912 0.0268065 -30.4973 0.103898 -3.68565 -0.000661653
-32.5216 0.0216577 -30.8419 0.0907536 -3.74471 -0.000672254
-32.6567 0.0163239 -31.1941 0.077317 -3.81106 -0.000684167
-32.7964 0.0108084 -31.5516 0.0636801 -3.86358 -0.000693595
-32.9392 0.00516595 -31.9145 0.0498344 -3.89485 -0.000699208
-33.0351 0.00138145 -32.2899 0.0355168 -3.91305 -0.000702475
-33.045 0.000988511 -32.6871 0.0203616 -3.93196 -0.000705871
-33.0499 0.000795073 -33.0792 0.00540446 -3.96684 -0.000712132
-33.0544 0.000617833 -33.205 0.000604942 -4.0331 -0.000724027
-33.0572 0.000507209 -33.2116 0.000354557 -4.0903 -0.000734296
-33.0593 0.000425644 -33.215 0.000225736 -4.12367 -0.000740287
-33.0612 0.000350035 -33.2175 0.000130589 -4.15029 -0.000745066
-33.0629 0.000282874 -33.2196 4.98054e-05 -4.19479 -0.000753053
-33.0643 0.000227859 -33.2215 -2.2536e-05 -4.24984 -0.000762937
-33.0654 0.000184015 -33.2231 -8.40581e-05 -4.29942 -0.000771838
-33.0663 0.00014732 -33.2244 -0.000132189 -4.34849 -0.000780647
-33.0672 0.000113383 -33.2255 -0.000174935 -4.39555 -0.000789095
-33.068 8.18569e-05 -33.2265 -0.000213845 -4.44382 -0.00079776
-33.0687 5.53671e-05 -33.2274 -0.000248639 -4.49529 -0.000807
-33.0692 3.48043e-05 -33.2282 -0.00027965 -4.54921 -0.00081668
-33.0696 1.69426e-05 -33.229 -0.000307484 -4.60429 -0.000826568
-33.0701 -8.3459e-07 -33.2296 -0.000332167 -4.65892 -0.000836375
-33.0705 -1.85346e-05 -33.2301 -0.000353061 -4.7119 -0.000845886
-33.071 -3.52255e-05 -33.2306 -0.00036854 -4.76351 -0.000855152
-33.0714 -5.06563e-05 -33.2308 -0.000378256 -4.8149 -0.000864377
-33.0718 -6.64805e-05 -33.231 -0.000385173 -4.86806 -0.00087392
-33.0722 -8.37788e-05 -33.2311 -0.000390761 -4.92425 -0.000884008
-33.0727 -0.000101952 -33.2312 -0.00039453 -4.98229 -0.000894427
-33.0731 -0.000120216 -33.2308 -0.000395224 -5.03909 -0.000904624
-33.0736 -0.000138772 -33.2217 -0.000392372 -5.09189 -0.000914102
-33.0741 -0.000158208 -33.2082 -0.000388136 -5.13911 -0.00092258
-33.0746 -0.000177873 -33.1913 -0.000382825 -5.18055 -0.00093002
-33.0751 -0.000197895 -33.1682 -0.000375568 -5.21983 -0.00093707
-33.0756 -0.000217022 -33.1458 -0.000368509 -5.25905 -0.000944111
-33.076 -0.000234817 -33.1297 -0.00036344 -5.29728 -0.000950975
-33.0765 -0.000251922 -33.1178 -0.000359695 -5.33273 -0.000957338
-33.0769 -0.000268543 -33.1082 -0.000356701 -5.36221 -0.000962631
-33.0773 -0.000284197 -33.1018 -0.000354681 -5.3829 -0.000966346
-33.0776 -0.000298421 -33.0992 -0.000353857 -5.39428 -0.000968388
-33.078 -0.000311177 -33.103 -0.000355043 -5.39587 -0.000968673
-33.0782 -0.000322373 -33.1167 -0.000359375 -5.39281 -0.000968124
-33.0785 -0.00033181 -33.1408 -0.000366931 -5.37462 -0.000964859
-33.0787 -0.000339282 -33.1711 -0.000376455 -5.32719 -0.000956345
-33.0788 -0.000344856 -33.206 -0.000387433 -5.23753 -0.000940248
-33.0789 -0.000348498 -33.2314 -0.000400035 -5.10738 -0.000916883
-33.0789 -0.000350248 -33.2317 -0.000414181 -4.94949 -0.00088854
-33.0786 -0.000350278 -33.2322 -0.000429863 -4.77664 -0.000857508
-33.0751 -0.000348526 -33.2326 -0.000446806 -4.60035 -0.00082586
-33.0678 -0.000344843 -33.233 -0.000463215 -4.44195 -0.000797425
-33.0584 -0.000340112 -33.2334 -0.000478923 -4.3009 -0.000772104
-33.0458 -0.000333766 -33.2338 -0.000491361 -4.15065 -0.00074513
-33.0324 -0.000327032 -33.2341 -0.000503439 -3.97644 -0.000713856
-33.0156 -0.000318577 -33.2344 -0.000514903 -3.78648 -0.000679754
-32.9962 -0.000308788 -33.2346 -0.000522572 -3.59178 -0.000644801
-32.9775 -0.000299413 -33.2347 -0.000525129 -3.40534 -0.00061133
-32.9604 -0.000290794 -33.2298 -0.000523587 -3.24084 -0.0005818
-32.9414 -0.000281228 -33.2144 -0.000518745 -3.09449 -0.000555527
-32.9186 -0.000269766 -33.1862 -0.00050989 -2.95306 -0.000530138
-32.8947 -0.000257729 -33.14 -0.000495364 -2.80863 -0.000504209
-32.8716 -0.000246101 -33.0801 -0.000476541 -2.67106 -0.000479512
-32.8466 -0.000233512 -33.0162 -0.000456451 -2.55508 -0.00045869
-32.8188 -0.000219546 -32.9455 -0.000434198 -2.471 -0.000443597
-32.7898 -0.000204917 -32.8586 -0.000406895 -2.39222 -0.000429454
-32.7596 -0.000189733 -32.7551 -0.00037433 -2.31392 -0.000415398
-32.7268 -0.000173226 -32.6367 -0.000337117 -2.23574 -0.000401363
-32.6923 -0.000155893 -32.5099 -0.000297237 -2.16153 -0.00038804
-32.6598 -0.000139506 -32.3823 -0.000257113 -2.09859 -0.000376742
-32.6311 -0.000125089 -32.2551 -0.000217107 -2.03855 -0.000365964
-32.6012 -0.000110029 -32.1206 -0.000174812 -1.98104 -0.000355638
-32.5678 -9.31996e-05 -31.971 -0.000127784 -1.92161 -0.000344969
-32.531 -7.47071e-05 -31.809 -7.68383e-05 -1.85808 -0.000333565
-32.4952 -5.66957e-05 -31.6437 -2.48743e-05 -1.78883 -0.000321134
-32.4596 -3.87513e-05 -31.4766 2.76653e-05 -1.71208 -0.000307354
-32.4227 -2.0207e-05 -31.3163 7.80724e-05 -1.62692 -0.000292067
-32.3878 -2.6312e-06 -31.1478 0.000131062 -1.52552 -0.000273863
-32.3524 1.51648e-05 -30.9653 0.00018845 -1.40759 -0.000252692
-32.3155 3.376e-05 -30.766 0.000251112 -1.2761 -0.000229087
-32.2763 5.34742e-05 -30.5509 0.000318743 -1.13701 -0.000204117
-32.2356 7.39614e-05 -30.3299 0.000388238 -0.995009 -0.000178625
-32.1944 9.47049e-05 -30.1191 0.000454524 -0.851923 -0.000152938
-32.1545 0.000114789 -29.9435 0.000509738 -0.706639 -0.000126857
-32.1144 0.000134975 -29.7795 0.000561305 -0.551075 -9.89296e-05
-32.0749 0.000154854 -29.6179 0.000612133 -0.380124 -6.82403e-05
-32.0385 0.000173142 -29.473 0.000657685 -0.195002 -3.5007e-05
-32.0079 0.000188548 -29.3783 0.000687453 -0.0577519 -1.03677e-05
-31.9809 0.000202138 -29.3985 0.000681115 -0.0225784 -4.0533e-06
-31.959 0.000213152 -29.4643 0.000660424 0.00189444 3.40092e-07
-31.9442 0.000220608 -29.5755 0.000625462 0.0151972 2.72823e-06
-31.9381 0.000223686 -29.693 0.000588528 0.0201683 3.62064e-06
-31.9378 0.000223824 -29.7961 0.00055609 0.0229087 4.1126e-06
-31.9433 0.000221047 -29.9016 0.000522922 0.0287929 5.16893e-06
-31.9526 0.000216402 -30.0003 0.000491896 0.0416813 7.48269e-06
-31.9628 0.000211242 -30.0869 0.000464659 0.0625764 1.12338e-05
-31.9761 0.000204572 -30.1647 0.000440195 0.0923811 1.65844e-05
-31.9959 0.000194592 -30.2341 0.000418383 0.122627 2.20141e-05
-32.0199 0.000182518 -30.2895 0.000400958 0.135954 2.44066e-05
-32.0446 0.000170081 -30.3246 0.000389916 0.145429 2.61077e-05
-32.0692 0.000157711 -30.3403 0.000384966 0.148591 2.66752e-05
-32.0947 0.000144871 -30.3438 0.000383866 0.144922 2.60166e-05
-32.1198 0.000132233 -30.3431 0.000384083 0.137765 2.47317e-05
-32.1451 0.000119533 -30.3352 0.000386578 0.136399 2.44866e-05
-32.1691 0.000107449 -30.3189 0.000391716 0.144347 2.59133e-05
-32.1903 9.67626e-05 -30.2928 0.000399924 0.144645 2.59669e-05
-32.2085 8.76094e-05 -30.2512 0.000413004 0.1195 2.14529e-05
-32.2252 7.91919e-05 -30.1986 0.000429543 0.0634084 1.13832e-05
-32.2406 7.143e-05 -30.1367 0.00044901 0.00977392 1.75463e-06
-32.253 6.5232e-05 -30.0732 0.00046896 -0.0442338 -7.94091e-06
-32.2627 6.03239e-05 -30.0156 0.000487072 -0.099695 -1.78974e-05
-32.2708 5.62622e-05 -29.9656 0.000502807 -0.164162 -2.94705e-05
-32.2769 5.3174e-05 -29.9191 0.00051742 -0.22115 -3.97011e-05
-32.2807 5.1258e-05 -29.8811 0.00052937 -0.271354 -4.87139e-05
-32.2825 5.03794e-05 -29.8658 0.000534189 -0.330553 -5.93412e-05
-32.283 5.01152e-05 -29.8819 0.000529108 -0.404555 -7.26263e-05
-32.283 5.0106e-05 -29.9283 0.00051453 -0.491393 -8.82156e-05
-32.2828 5.02338e-05 -29.9983 0.000492509 -0.583967 -0.000104835
-32.2821 5.05756e-05 -30.088 0.000464301 -0.674097 -0.000121015
-32.2803 5.14884e-05 -30.185 0.000433817 -0.755513 -0.000135631
-32.2787 5.22791e-05 -30.2947 0.000399313 -0.828398 -0.000148715
-32.2779 5.26623e-05 -30.4096 0.000363185 -0.898039 -0.000161217
-32.2763 5.34692e-05 -30.5265 0.000326438 -0.971152 -0.000174342
-32.2733 5.49994e-05 -30.6459 0.000288877 -1.05213 -0.000188879
-32.2696 5.68539e-05 -30.7686 0.000250296 -1.14071 -0.000204782
-32.2655 5.89343e-05 -30.8933 0.000211092 -1.23191 -0.000221155
-32.2608 6.1263e-05 -31.0171 0.000172154 -1.31919 -0.000236822
-32.256 6.36994e-05 -31.1363 0.000134668 -1.39838 -0.000251039
-32.2515 6.59465e-05 -31.2486 9.93747e-05 -1.4699 -0.000263878
-32.249 6.72173e-05 -31.3539 6.62545e-05 -1.53811 -0.000276124
-32.2495 6.69717e-05 -31.4529 3.51155e-05 -1.60893 -0.000288838
-32.2529 6.52348e-05 -31.5463 5.74939e-06 -1.68632 -0.000302731
-32.2597 6.18326e-05 -31.6349 -2.20905e-05 -1.76994 -0.000317742
-32.2681 5.76022e-05 -31.7186 -4.84313e-05 -1.8557 -0.000333138
-32.2784 5.24128e-05 -31.7976 -7.32584e-05 -1.93816 -0.000347941
-32.2909 4.61166e-05 -31.8716 -9.65206e-05 -2.01395 -0.000361548
-32.3048 3.91422e-05 -31.9401 -0.000118055 -2.08357 -0.000374046
-32.3184 3.2309e-05 -32.0024 -0.00013765 -2.15114 -0.000386175
-32.3294 2.67717e-05 -32.0592 -0.000155507 -2.22148 -0.000398802
-32.3381 2.24029e-05 -32.1126 -0.000172319 -2.29679 -0.000412323
-32.3445 1.91789e-05 -32.1634 -0.000188287 -2.37619 -0.000426577
-32.3477 1.75523e-05 -32.2113 -0.000203349 -2.456 -0.000440904
-32.3462 1.83254e-05 -32.2556 -0.000217259 -2.53182 -0.000454515
-32.339 2.19534e-05 -32.2955 -0.000229805 -2.60121 -0.000466973
-32.326 2.84606e-05 -32.331 -0.000240983 -2.66465 -0.000478362
-32.3076 3.77237e-05 -32.3625 -0.000250897 -2.7252 -0.000489231
-32.2818 5.07039e-05 -32.3895 -0.000259391 -2.78669 -0.000500271
-32.2479 6.77862e-05 -32.4121 -0.00026648 -2.8511 -0.000511833
-32.2066 8.85421e-05 -32.4307 -0.000272337 -2.91717 -0.000523693
-32.1584 0.000112821 -32.445 -0.000276827 -2.98164 -0.000535268
-32.102 0.000141195 -32.4533 -0.000279425 -3.04106 -0.000545935
-32.0381 0.000173336 -32.4561 -0.000280326 -3.09332 -0.000555317
-31.9722 0.000206533 -32.4574 -0.000280739 -3.13866 -0.000563457
-31.9057 0.000239991 -32.4534 -0.000279458 -3.17937 -0.000570764
-31.8356 0.000275253 -32.4411 -0.000275596 -3.21935 -0.000577943
-31.7573 0.000314652 -32.421 -0.00026928 -3.26064 -0.000585354
-31.6712 0.000358001 -32.3956 -0.000261293 -3.30162 -0.00059271
-31.582 0.000402918 -32.364 -0.000251348 -3.33718 -0.000599094
-31.4951 0.00044664 -32.3243 -0.000238869 -3.363 -0.000603729
-31.4072 0.000490858 -32.2768 -0.000223931 -3.37883 -0.000606571
-31.3121 0.000538711 -32.2229 -0.000206993 -3.38709 -0.000608055
-31.21 0.000590115 -32.1628 -0.000188105 -3.39053 -0.000608673
-31.1064 0.000642226 -32.099 -0.000168023 -3.39103 -0.000608762
-31.0039 0.000693837 -32.0364 -0.000148353 -3.38388 -0.000607479
-30.8997 0.00074627 -31.9747 -0.000128953 -3.35949 -0.000603099
-30.7936 0.000799645 -31.9087 -0.000108184 -3.31027 -0.000594264
-30.6897 0.000851944 -31.836 -8.53211e-05 -3.23575 -0.000580886
-30.5956 0.000899317 -31.7659 -6.32826e-05 -3.14115 -0.000563904
-30.5074 0.000943706 -31.6939 -4.06646e-05 -3.02649 -0.000543319
-30.4232 0.000986091 -31.6198 -1.73642e-05 -2.88972 -0.000518767
-30.3409 0.00102747 -31.5458 5.91786e-06 -2.7435 -0.000492517
-30.2737 0.0010613 -31.474 2.85063e-05 -2.6079 -0.000468174
-30.2283 0.00108413 -31.4048 5.02451e-05 -2.4762 -0.00044453
-30.2053 0.00109574 -31.3402 7.05588e-05 -2.32712 -0.000417768
-30.2114 0.00109267 -31.2784 9.00052e-05 -2.14684 -0.000385404
-30.259 0.00106873 -31.2169 0.000109322 -1.93667 -0.000347673
-30.3422 0.00102682 -31.1555 0.000128651 -1.71245 -0.000307421
-30.4401 0.000977571 -31.0944 0.000147849 -1.49078 -0.000267627
-30.527 0.000933848 -31.0355 0.000166365 -1.2804 -0.000229858
-30.6147 0.000889678 -30.9823 0.0001831 -1.08395 -0.000194592
-30.6944 0.000849578 -30.929 0.000199873 -0.873364 -0.000156787
-30.7555 0.000818828 -30.8713 0.00021801 -0.642545 -0.00011535
-30.8081 0.000792387 -30.8137 0.000236122 -0.388003 -6.96548e-05
-30.8541 0.000769215 -30.7589 0.000253334 -0.128557 -2.30787e-05
-30.8891 0.000751615 -30.7142 0.000267412 -0.0227637 -4.08657e-06
-30.9116 0.000740281 -30.6758 0.000279489 -0.0244371 -4.38698e-06
-30.9247 0.000733709 -30.6251 0.000295424 -0.0107502 -1.92989e-06
-30.9209 0.000735584 -30.5613 0.000315491 -0.00889068 -1.59607e-06
-30.8996 0.000746298 -30.486 0.000339148 -0.00976864 -1.75368e-06
-30.8706 0.000760899 -30.4102 0.000363006 -0.00466191 -8.36911e-07
-30.8298 0.000781422 -30.3272 0.000389086 0.0118777 2.1323e-06
-30.7696 0.000811736 -30.227 0.000420591 0.0407888 7.32246e-06
-30.691 0.000851274 -30.1018 0.000459973 0.0843007 1.51338e-05
-30.5957 0.000899275 -29.939 0.000511159 0.11791 2.11673e-05
-30.4818 0.000956595 -29.7109 0.000582888 0.12943 2.32355e-05
-30.3374 0.00102927 -29.3802 0.000686865 0.140899 2.52943e-05
-30.1472 0.00112496 -28.8813 0.000843741 0.142158 2.55205e-05
-29.9097 0.0012445 -28.0577 0.00110271 0.136857 2.45688e-05
-29.6345 0.00138299 -26.5698 0.00157058 0.132582 2.38013e-05
-29.2608 0.00157107 -24.0544 0.00236153 0.133124 2.38986e-05
-28.6824 0.00186215 -20.8664 0.00336394 0.141999 2.54918e-05
-27.8632 0.00227439 -17.453 0.00443728 0.164983 2.96179e-05
-26.8911 0.00276363 -14.3058 0.00542687 0.180849 3.24663e-05
-25.8099 0.00330775 -11.2257 0.00639538 0.179257 3.21805e-05
-24.6227 0.00390521 -8.18894 0.00735027 0.165436 2.96993e-05
-23.3137 0.00456398 -5.15534 0.00830416 0.157294 2.82376e-05
-21.8863 0.00528233 -1.76901 0.00936896 0.154496 2.77354e-05
-20.3615 0.00604972 0.00336965 0.0106548 0.146776 2.63494e-05
-18.7736 0.00684883 0.0101864 0.0121309 0.123737 2.22134e-05
-17.1191 0.00768146 0.0176306 0.0137428 0.0826936 1.48453e-05
-15.3927 0.0085503 0.0258422 0.0155209 0.0290116 5.2082e-06
-13.5736 0.00946579 0.0345499 0.0174064 -0.0115231 -2.06865e-06
-11.6909 0.0104132 0.0431982 0.019279 -0.0424858 -7.62711e-06
-9.79512 0.0113673 0.052122 0.0212113 -0.0723655 -1.29911e-05
-7.88045 0.0123309 0.0598606 0.0228869 -0.105135 -1.8874e-05
-5.98091 0.0132869 0.0660644 0.0242303 -0.134571 -2.41584e-05
-4.07404 0.0142465 0.0717054 0.0254517 -0.162406 -2.91554e-05
-1.98319 0.0152988 0.0766799 0.0265288 -0.192739 -3.46008e-05
0.00123008 0.0165112 0.0804412 0.0273433 -0.226426 -4.06483e-05
0.00962208 0.0179742 0.082532 0.027796 -0.262896 -4.71954e-05
0.0198155 0.0197511 0.0316851 0.0278545 -0.300197 -5.38918e-05
0.0320036 0.0218757 -0.127989 0.0276979 -0.335819 -6.02866e-05
0.0467619 0.0244484 -0.401041 0.0273851 -0.367456 -6.59662e-05
0.0645985 0.0275578 -0.775463 0.0269561 -0.395714 -7.1039e-05
0.0866326 0.0313988 -1.26344 0.026397 -0.423193 -7.59722e-05
0.112163 0.0358494 -1.87815 0.0256928 -0.45219 -8.11777e-05
0.140342 0.0407615 -2.59433 0.0248722 -0.483616 -8.68194e-05
0.172678 0.0463984 -3.39263 0.0239576 -0.516598 -9.27403e-05
0.2058 0.0521723 -4.17279 0.0230638 -0.549676 -9.86785e-05
0.243289 0.0587075 -4.96472 0.0221565 -0.580424 -0.000104198
0.282357 0.0655179 -5.72864 0.0212813 -0.60943 -0.000109406
0.322996 0.0726022 -6.48767 0.0204117 -0.637397 -0.000114426
0.366785 0.0802356 -7.25168 0.0195363 -0.665862 -0.000119536
0.412382 0.0881842 -7.96148 0.0187231 -0.696348 -0.000125009
0.456114 0.0958077 -8.46118 0.0181506 -0.730097 -0.000131068
0.500998 0.103632 -8.87 0.0176822 -0.766047 -0.000137522
0.546952 0.111643 -9.1596 0.0173504 -0.803888 -0.000144315
0.594579 0.119945 -9.33922 0.0171447 -0.842011 -0.000151159
0.644891 0.128716 -9.39863 0.0170766 -0.879594 -0.000157906
0.697417 0.137872 -9.16344 0.0171505 -0.916894 -0.000164602
0.751587 0.147315 -8.67468 0.0173042 -0.954521 -0.000171357
0.8066 0.156905 -7.91493 0.0175431 -0.993365 -0.00017833
0.861902 0.166546 -6.85764 0.0178756 -1.03316 -0.000185475
0.917447 0.176228 -5.45862 0.0183155 -1.07356 -0.000192727
0.973103 0.18593 -3.69135 0.0188712 -1.11389 -0.000199968
1.02842 0.195573 -1.55032 0.0195444 -1.15316 -0.000207017
1.08207 0.204926 0.00266652 0.0206063 -1.19104 -0.000213817
1.1317 0.213577 0.0170223 0.0236985 -1.23119 -0.000221024
1.17806 0.221659 0.0386948 0.0283668 -1.27184 -0.000228322
1.22272 0.229444 0.0632719 0.0336607 -1.31023 -0.000235214
1.26444 0.236716 0.0923492 0.039924 -1.34827 -0.000242043
1.30281 0.243406 0.123585 0.0466522 -1.38383 -0.000248427
1.33726 0.249412 0.157119 0.0538754 -1.41618 -0.000254234
1.36874 0.254899 0.192967 0.061597 -1.44397 -0.000259223
1.39847 0.260082 0.230293 0.0696372 -1.46595 -0.000263169
1.4264 0.26495 0.268867 0.077946 -1.48032 -0.000265749
1.45287 0.269565 0.307938 0.0863618 -1.48122 -0.00026591
1.47741 0.273842 0.347163 0.0948109 -1.46153 -0.000262375
1.50033 0.277837 0.386396 0.103262 -1.42014 -0.000254945
1.52261 0.281721 0.425284 0.111638 -1.35666 -0.000243549
1.54491 0.28561 0.46329 0.119825 -1.27517 -0.000228921
1.56731 0.289514 0.499867 0.127703 -1.1906 -0.000213738
1.58978 0.293431 0.534879 0.135245 -1.10082 -0.00019762
1.61248 0.297388 0.568373 0.14246 -0.991001 -0.000177906
1.63635 0.30155 0.600359 0.149349 -0.849056 -0.000152424
1.66121 0.305883 0.63084 0.155915 -0.676301 -0.00012141
1.68673 0.310332 0.659697 0.162131 -0.483131 -8.67323e-05
1.71212 0.314757 0.686943 0.168 -0.276953 -4.9719e-05
1.73802 0.319272 0.712669 0.173541 -0.183562 -3.29532e-05
1.76512 0.323996 0.735224 0.178399 -0.170102 -3.05369e-05
1.7901 0.328351 0.758944 0.183509 -0.149808 -2.68937e-05
1.81357 0.332443 0.782528 0.188589 -0.120224 -2.15828e-05
1.83531 0.336232 0.806569 0.193767 -0.0869015 -1.56007e-05
1.85572 0.339791 0.831145 0.199061 -0.0551394 -9.8987e-06
1.87456 0.343074 0.856678 0.204561 -0.029086 -5.22156e-06
1.89135 0.346001 0.883709 0.210383 -0.00971538 -1.74412e-06
1.90566 0.348497 0.912752 0.216639 0.00492342 8.83858e-07
1.91754 0.350567 0.944084 0.223388 0.0184974 3.32068e-06
1.92741 0.352288 0.977725 0.230634 0.0346479 6.22003e-06
1.93574 0.353739 1.01355 0.238351 0.0555747 9.97684e-06
1.94276 0.354964 1.05143 0.246511 0.0812827 1.4592e-05
1.94857 0.355977 1.09138 0.255115 0.10962 1.96791e-05
1.95318 0.356781 1.1336 0.264209 0.137071 2.46071e-05
1.95686 0.357421 1.17841 0.273861 0.160022 2.87274e-05
1.95984 0.357941 1.22524 0.283949 0.176889 3.17553e-05
1.96299 0.35849 1.27385 0.29442 0.188374 3.38172e-05
1.96605 0.359023 1.32406 0.305235 0.197155 3.53935e-05
1.96822 0.359402 1.37594 0.316411 0.206621 3.70929e-05
1.96964 0.359648 1.42919 0.32788 0.219666 3.94347e-05
1.97026 0.359757 1.48377 0.339636 0.23692 4.25322e-05
1.94888 0.359751 1.53943 0.351626 0.256891 4.61175e-05
1.88711 0.35972 1.59528 0.363656 0.276733 4.96795e-05
1.72946 0.359641 1.65074 0.375602 0.293717 5.27285e-05
1.43896 0.359494 1.7062 0.387549 0.306745 5.50672e-05
1.06359 0.359305 1.76199 0.399566 0.315733 5.66808e-05
0.592547 0.359068 1.81772 0.41157 0.322472 5.78905e-05
-0.00071867 0.358762 1.87281 0.423437 0.329469 5.91466e-05
-0.0692413 0.357994 1.92687 0.43508 0.339022 6.08617e-05
-0.213114 0.35638 1.97978 0.446476 0.352223 6.32316e-05
-0.403297 0.354248 2.03092 0.457493 0.368967 6.62374e-05
-0.624406 0.351768 2.07993 0.468049 0.387767 6.96124e-05
-0.874281 0.348966 2.12663 0.478108 0.406346 7.29478e-05
-1.15339 0.345836 2.17082 0.487628 0.422676 7.58794e-05
-1.46123 0.342384 2.2122 0.496541 0.43599 7.82696e-05
-1.79594 0.338631 2.25039 0.504768 0.447038 8.02528e-05
-2.15437 0.334612 2.28504 0.512231 0.457786 8.21824e-05
-2.53288 0.330367 2.31584 0.518864 0.470657 8.44929e-05
-2.9038 0.326208 2.34233 0.52457 0.48747 8.75112e-05
-3.27842 0.322007 2.36485 0.529421 0.508517 9.12896e-05
-3.65306 0.317806 2.38313 0.533359 0.532908 9.56683e-05
-4.02297 0.313658 2.39671 0.536284 0.559174 0.000100384
-4.38446 0.309604 2.40641 0.538373 0.584068 0.000104853
-4.73596 0.305662 2.41188 0.539552 0.605634 0.000108724
-5.066 0.301961 2.34791 0.539754 0.62386 0.000111996
-5.36996 0.298553 1.76235 0.53957 0.639521 0.000114808
-5.65056 0.295406 0.688125 0.539233 0.655096 0.000117604
-5.9007 0.292601 -0.0299639 0.538525 0.673142 0.000120843
-6.09538 0.290418 -0.159525 0.536399 0.695489 0.000124855
-6.23917 0.288806 -0.342278 0.533401 0.719279 0.000129126
-6.35001 0.287563 -0.567679 0.529703 0.741932 0.000133193
-6.43316 0.28663 -0.829817 0.525402 0.761796 0.000136759
-6.48505 0.286048 -1.11004 0.520805 0.777393 0.000139559
-6.48202 0.285921 -1.3975 0.516089 0.788356 0.000141527
