-0.0304681 -1.53333e-05 -0.0775235 -2.43766e-05 -0.0231188 -4.15032e-06
-0.0308872 -1.55442e-05 -0.0774044 -2.43391e-05 -0.0231506 -4.15603e-06
-0.0318372 -1.60224e-05 -0.077138 -2.42554e-05 -0.0232019 -4.16523e-06
-0.0337837 -1.7002e-05 -0.0766158 -2.40912e-05 -0.0232761 -4.17856e-06
-0.0359755 -1.8105e-05 -0.0761021 -2.39296e-05 -0.0233222 -4.18683e-06
-0.0387683 -1.95105e-05 -0.0755568 -2.37582e-05 -0.0233309 -4.1884e-06
-0.042193 -2.1234e-05 -0.0750277 -2.35918e-05 -0.0232673 -4.17697e-06
-0.0462814 -2.32915e-05 -0.0745703 -2.3448e-05 -0.0230955 -4.14613e-06
-0.0510695 -2.57012e-05 -0.0742565 -2.33493e-05 -0.0227842 -4.09026e-06
-0.0565942 -2.84815e-05 -0.0741698 -2.3322e-05 -0.0223043 -4.00409e-06
-0.0628851 -3.16475e-05 -0.0743971 -2.33935e-05 -0.0216241 -3.88198e-06
-0.069944 -3.51999e-05 -0.0750319 -2.35931e-05 -0.0207123 -3.7183e-06
-0.0777114 -3.91089e-05 -0.07617 -2.3951e-05 -0.0195483 -3.50934e-06
-0.0860934 -4.33273e-05 -0.0779513 -2.45111e-05 -0.0181128 -3.25163e-06
-0.0949166 -4.77676e-05 -0.0805287 -2.53215e-05 -0.0163991 -2.94399e-06
-0.103919 -5.22979e-05 -0.0840517 -2.64293e-05 -0.0144157 -2.58792e-06
-0.112787 -5.6761e-05 -0.088659 -2.7878e-05 -0.012189 -2.18818e-06
-0.12119 -6.09898e-05 -0.0944692 -2.9705e-05 -0.00977316 -1.75449e-06
-0.128798 -6.48185e-05 -0.101559 -3.19343e-05 -0.00765082 -1.37349e-06
-0.135297 -6.80894e-05 -0.109951 -3.4573e-05 -0.00555593 -9.97407e-07
-0.140393 -7.06539e-05 -0.119606 -3.7609e-05 -0.00362104 -6.50054e-07
-0.143776 -7.23563e-05 -0.130435 -4.1014e-05 -0.00199654 -3.58421e-07
-0.145091 -7.30184e-05 -0.142299 -4.47445e-05 -0.000866478 -1.55551e-07
-0.143918 -7.24279e-05 -0.155032 -4.87485e-05 -0.000444739 -7.98401e-08
-0.13977 -7.03406e-05 -0.168414 -5.29564e-05 -0.000956298 -1.71676e-07
-0.132164 -6.65127e-05 -0.182159 -5.72783e-05 -0.00263249 -4.72588e-07
-0.120752 -6.07695e-05 -0.195899 -6.15987e-05 -0.00576028 -1.03409e-06
-0.105519 -5.31034e-05 -0.209127 -6.57581e-05 -0.0117431 -2.10814e-06
-0.0869438 -4.37552e-05 -0.221119 -6.9529e-05 -0.02018 -3.62273e-06
-0.065932 -3.31809e-05 -0.230994 -7.2634e-05 -0.0313651 -5.63071e-06
-0.0435705 -2.19272e-05 -0.237845 -7.47882e-05 -0.0455314 -8.17386e-06
-0.0208803 -1.05082e-05 -0.24085 -7.57331e-05 -0.0628762 -1.12876e-05
0.00121535 6.11634e-07 -0.239393 -7.52751e-05 -0.0834452 -1.49802e-05
0.0219197 1.10313e-05 -0.233057 -7.32827e-05 -0.107105 -1.92275e-05
0.0408955 2.0581e-05 -0.221573 -6.96717e-05 -0.133538 -2.39729e-05
0.0575829 2.89791e-05 -0.205054 -6.44772e-05 -0.162214 -2.91209e-05
0.0713526 3.59088e-05 -0.1838 -5.77944e-05 -0.192461 -3.45509e-05
0.0832174 4.18799e-05 -0.158315 -4.97806e-05 -0.223493 -4.01217e-05
0.0933525 4.69805e-05 -0.129286 -4.06529e-05 -0.254386 -4.56677e-05
0.102009 5.13369e-05 -0.0974617 -3.0646e-05 -0.284059 -5.09947e-05
0.10947 5.50919e-05 -0.0637319 -2.00399e-05 -0.31149 -5.5919e-05
0.115962 5.83591e-05 -0.0290484 -9.134e-06 -0.335609 -6.02489e-05
0.121536 6.11642e-05 0.00565888 1.77938e-06 -0.355394 -6.38007e-05
0.126092 6.34567e-05 0.0395619 1.24399e-05 -0.369867 -6.6399e-05
0.12946 6.51521e-05 0.0714391 2.24634e-05 -0.378042 -6.78666e-05
0.131542 6.61997e-05 0.0989751 3.11218e-05 -0.3792 -6.80745e-05
0.132546 6.67048e-05 0.123443 3.88156e-05 -0.37277 -6.69202e-05
0.13307 6.69689e-05 0.144233 4.53527e-05 -0.358205 -6.43055e-05
0.134043 6.74582e-05 0.160641 5.05121e-05 -0.335151 -6.01667e-05
0.13671 6.88006e-05 0.171935 5.40634e-05 -0.303523 -5.44888e-05
0.14476 7.28518e-05 0.178004 5.59719e-05 -0.252155 -4.52672e-05
0.161012 8.10307e-05 0.174686 5.49285e-05 -0.18838 -3.38183e-05
0.188233 9.47297e-05 0.162253 5.10191e-05 -0.113693 -2.04103e-05
0.228158 0.000114823 0.141895 4.46175e-05 -0.0303514 -5.44872e-06
0.281085 0.000141458 0.115935 3.64547e-05 0.0433848 7.7885e-06
0.345685 0.000173969 0.0877172 2.75819e-05 0.118267 2.12315e-05
0.418945 0.000210838 0.0615445 1.93521e-05 0.191932 3.44559e-05
0.496456 0.000249846 0.042108 1.32405e-05 0.261172 4.68859e-05
0.57332 0.000288528 0.0339686 1.06811e-05 0.323085 5.80006e-05
0.645356 0.000324781 0.040977 1.28848e-05 0.375035 6.73268e-05
0.709861 0.000357244 0.065703 2.06597e-05 0.415685 7.46244e-05
0.765621 0.000385305 0.109214 3.43414e-05 0.444549 7.98059e-05
0.812568 0.000408932 0.17119 5.38292e-05 0.462063 8.29501e-05
0.85143 0.00042849 0.250087 7.86376e-05 0.469403 8.42679e-05
0.883301 0.000444529 0.343307 0.00010795 0.468694 8.41406e-05
0.909137 0.000457531 0.447471 0.000140703 0.462736 8.3071e-05
0.929706 0.000467883 0.558671 0.000175669 0.454804 8.1647e-05
0.946061 0.000476113 0.672544 0.000211476 0.448363 8.04908e-05
0.959911 0.000483083 0.784351 0.000246632 0.446986 8.02434e-05
0.973518 0.000489931 0.889255 0.000279618 0.454122 8.15245e-05
0.989144 0.000497795 0.982802 0.000309033 0.472831 8.48833e-05
1.00831 0.00050744 1.0614 0.000333748 0.505452 9.07394e-05
1.03135 0.000519033 1.12262 0.000352997 0.553445 9.93551e-05
1.05781 0.000532354 1.16518 0.000366379 0.617354 0.000110828
1.08704 0.000547062 1.18882 0.000373814 0.696803 0.000125091
1.11829 0.000562792 1.19423 0.000375514 0.790475 0.000141907
1.15086 0.000579179 1.18296 0.000371971 0.896179 0.000160883
1.18405 0.000595884 1.15736 0.000363921 1.01098 0.000181492
1.21729 0.000612613 1.12037 0.000352292 1.13134 0.000203099
1.25006 0.000629104 1.07541 0.000338152 1.25329 0.000224991
1.28181 0.000645079 1.02617 0.000322669 1.3726 0.00024641
1.31196 0.000660254 0.976481 0.000307046 1.48501 0.00026659
1.34012 0.000674429 0.930022 0.000292437 1.58643 0.000284799
1.36628 0.000687594 0.890067 0.000279874 1.67319 0.000300373
1.3908 0.000699934 0.859338 0.000270211 1.74214 0.000312752
1.41414 0.000711677 0.839969 0.000264121 1.79085 0.000321495
1.43622 0.000722789 0.833596 0.000262117 1.81761 0.0003263
1.45593 0.000732711 0.841432 0.000264581 1.82158 0.000327013
1.47118 0.000740386 0.864181 0.000271734 1.80277 0.000323636
1.47947 0.000744555 0.901769 0.000283553 1.76216 0.000316345
1.47952 0.000744583 0.941833 0.000296151 1.71524 0.000307922
1.46992 0.000739749 1.00265 0.000315274 1.64091 0.000294579
1.44875 0.000729097 1.07245 0.000337221 1.55252 0.000278711
1.41603 0.000712628 1.14714 0.000360707 1.45431 0.000261079
1.37227 0.000690607 1.22194 0.000384229 1.35095 0.000242524
1.31817 0.000663378 1.29176 0.000406183 1.24731 0.000223918
1.25452 0.00063135 1.35146 0.000424955 1.14815 0.000206118
1.18221 0.000594959 1.39612 0.000438998 1.0579 0.000189915
1.10201 0.000554598 1.42133 0.000446923 0.980336 0.000175991
1.01468 0.000510645 1.42339 0.000447573 0.918449 0.000164881
0.920922 0.000463462 1.39954 0.000440074 0.874222 0.000156941
0.821358 0.000413355 1.34806 0.000423887 0.84851 0.000152326
0.716622 0.000360646 1.26835 0.00039882 0.840987 0.000150975
0.607805 0.000305883 1.16081 0.000365006 0.850158 0.000152621
0.496867 0.000250053 1.02676 0.000322856 0.873418 0.000156797
0.386384 0.000194451 0.868421 0.000273067 0.907112 0.000162846
0.278626 0.000140221 0.689145 0.000216695 0.946621 0.000169939
0.175172 8.81568e-05 0.493458 0.000155163 0.986539 0.000177105
0.0771013 3.88019e-05 0.286788 9.0178e-05 1.02092 0.000183276
-0.0161939 -8.1497e-06 0.0752433 2.36596e-05 1.04352 0.000187334
-0.108304 -5.45049e-05 -0.13443 -4.22704e-05 1.04806 0.00018815
-0.192948 -9.71026e-05 -0.346806 -0.00010905 1.03013 0.00018493
-0.271581 -0.000136675 -0.553582 -0.000174069 0.982962 0.000176463
-0.346013 -0.000174134 -0.739278 -0.000232459 0.903287 0.000162159
-0.418552 -0.00021064 -0.898407 -0.000282496 0.788091 0.000141479
-0.491389 -0.000247296 -1.02778 -0.000323176 0.635339 0.000114057
-0.565541 -0.000284613 -1.12542 -0.000353877 0.44563 8.00001e-05
-0.6404 -0.000322287 -1.19081 -0.00037444 0.221449 3.97549e-05
-0.714529 -0.000359593 -1.22597 -0.000385496 -0.0506238 -9.08804e-06
-0.786771 -0.000395949 -1.23451 -0.00038818 -0.391631 -7.03061e-05
-0.856975 -0.00043128 -1.2206 -0.000383806 -0.756862 -0.000135873
-0.926091 -0.000466063 -1.18864 -0.000373758 -1.13538 -0.000203826
-0.99542 -0.000500954 -1.14421 -0.000359785 -1.51784 -0.000272484
-1.06606 -0.000536506 -1.09353 -0.00034385 -1.89456 -0.000340114
-1.13904 -0.000573231 -1.04273 -0.000327878 -2.25564 -0.000404936
-1.21546 -0.000611693 -0.997811 -0.000313753 -2.59049 -0.000465047
-1.29653 -0.000652488 -0.964591 -0.000303307 -2.88977 -0.000518774
-1.38322 -0.000696118 -0.948303 -0.000298185 -3.14576 -0.00056473
-1.47653 -0.000743076 -0.949455 -0.000298548 -3.24932 -0.000583322
-1.5749 -0.000792584 -0.97901 -0.000307841 -3.23977 -0.000581607
-1.67687 -0.000843899 -1.03769 -0.000326293 -3.21322 -0.000576842
-1.77813 -0.00089486 -1.12325 -0.000353195 -3.21261 -0.000576731
-1.87556 -0.000943891 -1.23806 -0.000389297 -3.22231 -0.000578473
-1.96523 -0.000989019 -1.38331 -0.000434969 -3.17257 -0.000569543
-2.04476 -0.00102905 -1.55527 -0.000489041 -3.05366 -0.000548197
-2.11287 -0.00106332 -1.74615 -0.000549061 -2.89897 -0.000520426
-2.14319 -0.00107858 -1.93712 -0.00060911 -2.73792 -0.000491515
-2.09976 -0.00105672 -2.09988 -0.000660289 -2.57389 -0.000462068
-2.05762 -0.00103551 -2.26506 -0.000712227 -2.38554 -0.000428255
-2.04436 -0.00102884 -2.43331 -0.000765133 -2.18589 -0.000392414
-2.01614 -0.00101464 -2.576 -0.000810001 -2.00998 -0.000360834
-1.98474 -0.000998835 -2.69512 -0.000847455 -1.85725 -0.000333416
-1.97304 -0.000992951 -2.79187 -0.000877879 -1.71957 -0.0003087
-1.96413 -0.000988465 -2.85103 -0.000896482 -1.60831 -0.000288726
-1.95658 -0.000984664 -2.87089 -0.000902725 -1.53692 -0.000275909
-1.96139 -0.000987085 -2.85752 -0.000898521 -1.50456 -0.0002701
-1.97376 -0.000993311 -2.80824 -0.000883027 -1.50541 -0.000270253
-1.98869 -0.00100082 -2.7233 -0.000856316 -1.53705 -0.000275932
-2.00496 -0.00100902 -2.60664 -0.000819634 -1.60007 -0.000287247
-2.02097 -0.00101707 -2.46188 -0.000774116 -1.6907 -0.000303517
-2.03955 -0.00102642 -2.295 -0.000721642 -1.79899 -0.000322957
-2.06374 -0.0010386 -2.11408 -0.000664754 -1.91501 -0.000343784
-2.09398 -0.00105381 -1.92749 -0.000606083 -2.03138 -0.000364676
-2.1241 -0.00106897 -1.7434 -0.000548195 -2.14084 -0.000384326
-2.06819 -0.00104083 -1.59611 -0.000501882 -2.22834 -0.000400034
-2.02878 -0.001021 -1.47232 -0.000462958 -2.29088 -0.000411262
-1.99466 -0.00100383 -1.36297 -0.000428575 -2.3257 -0.000417513
-1.96659 -0.000989703 -1.27556 -0.000401088 -2.33006 -0.000418296
-1.95245 -0.000982589 -1.21938 -0.000383423 -2.29903 -0.000412724
-1.9476 -0.000980146 -1.1902 -0.000374248 -2.23176 -0.000400648
-1.9524 -0.00098256 -1.18737 -0.000373357 -2.12972 -0.000382331
-1.96893 -0.000990882 -1.21376 -0.000381657 -1.9957 -0.000358271
-1.98834 -0.00100065 -1.26921 -0.000399093 -1.83256 -0.000328984
-2.00174 -0.00100739 -1.35225 -0.000425202 -1.64417 -0.000295163
-2.00921 -0.00101115 -1.45937 -0.000458885 -1.43771 -0.000258099
-2.00825 -0.00101067 -1.5853 -0.000498483 -1.22219 -0.000219408
-1.99738 -0.0010052 -1.72381 -0.000542036 -1.00613 -0.000180622
-1.97584 -0.000994359 -1.86776 -0.000587301 -0.798266 -0.000143306
-1.9431 -0.000977882 -2.00929 -0.000631803 -0.608376 -0.000109216
-1.89996 -0.000956169 -2.14043 -0.00067304 -0.446156 -8.00945e-05
-1.85907 -0.000935593 -2.23253 -0.000702 -0.341933 -6.13842e-05
-1.81351 -0.000912665 -2.30905 -0.000726059 -0.264264 -4.74411e-05
-1.76425 -0.000887872 -2.36664 -0.00074417 -0.21607 -3.87892e-05
-1.71225 -0.000861704 -2.40267 -0.000755497 -0.199611 -3.58343e-05
-1.65838 -0.000834593 -2.41511 -0.000759409 -0.216269 -3.88248e-05
-1.60335 -0.000806899 -2.40267 -0.000755498 -0.266357 -4.78168e-05
-1.54767 -0.000778881 -2.36491 -0.000743626 -0.349083 -6.26679e-05
-1.4915 -0.000750612 -2.30233 -0.000723947 -0.462643 -8.30543e-05
-1.43451 -0.000721929 -2.21633 -0.000696905 -0.604323 -0.000108489
-1.37591 -0.000692438 -2.10915 -0.000663202 -0.770545 -0.000138329
-1.31459 -0.00066158 -1.98372 -0.000623762 -0.956919 -0.000171787
-1.24939 -0.000628766 -1.8435 -0.00057967 -1.15838 -0.000207954
-1.17941 -0.000593548 -1.69221 -0.0005321 -1.36939 -0.000245835
-1.10428 -0.000555738 -1.53366 -0.000482244 -1.58416 -0.000284391
-1.02425 -0.000515464 -1.37151 -0.00043126 -1.79683 -0.000322569
-0.940099 -0.000473113 -1.20928 -0.000380246 -2.00156 -0.000359323
-0.852786 -0.000429172 -1.05026 -0.000330245 -2.1927 -0.000393637
-0.763157 -0.000384065 -0.897612 -0.000282246 -2.36487 -0.000424544
-0.671809 -0.000338094 -0.754271 -0.000237174 -2.51309 -0.000451154
-0.579135 -0.000291455 -0.622846 -0.000195848 -2.63298 -0.000472676
-0.485482 -0.000244323 -0.505492 -0.000158947 -2.72081 -0.000488444
-0.391219 -0.000196885 -0.403813 -0.000126975 -2.77363 -0.000497925
-0.296716 -0.000149325 -0.318839 -0.000100256 -2.78929 -0.000500738
-0.202267 -0.000101793 -0.251022 -7.89315e-05 -2.76654 -0.000496653
-0.109289 -5.50005e-05 -0.200233 -6.29615e-05 -2.705 -0.000485605
-0.0278559 -1.40187e-05 -0.171195 -5.38307e-05 -2.60325 -0.000467339
0.0440105 2.21487e-05 -0.160285 -5.04002e-05 -2.46414 -0.000442366
0.118654 5.97135e-05 -0.161574 -5.08056e-05 -2.29064 -0.000411219
0.187502 9.43619e-05 -0.167774 -5.27551e-05 -2.08741 -0.000374735
0.247091 0.000124351 -0.17831 -5.6068e-05 -1.85693 -0.000333359
0.30433 0.000153157 -0.193747 -6.0922e-05 -1.60271 -0.000287721
0.360601 0.000181475 -0.212653 -6.68667e-05 -1.32862 -0.000238515
0.41577 0.00020924 -0.231539 -7.28055e-05 -1.03976 -0.000186659
0.468892 0.000235974 -0.24729 -7.7758e-05 -0.740167 -0.000132876
0.519626 0.000261506 -0.256948 -8.0795e-05 -0.434673 -7.80331e-05
0.568256 0.00028598 -0.258191 -8.1186e-05 -0.128293 -2.30313e-05
0.614767 0.000309387 -0.250093 -7.86394e-05 0.119328 2.14219e-05
0.658663 0.000331478 -0.229179 -7.20632e-05 0.332135 5.96253e-05
0.700664 0.000352615 -0.194369 -6.11176e-05 0.533715 9.58131e-05
0.741248 0.00037304 -0.144874 -4.55543e-05 0.727434 0.00013059
0.781352 0.000393222 -0.0906249 -2.84962e-05 0.9157 0.000164388
0.821535 0.000413444 -0.0233644 -7.34674e-06 1.09271 0.000196165
0.862817 0.00043422 0.0567858 1.78558e-05 1.25269 0.000224885
0.905974 0.000455939 0.149618 4.70459e-05 1.394 0.000250253
0.951444 0.000478822 0.253655 7.97596e-05 1.51944 0.000272771
0.999487 0.000503 0.367021 0.000115406 1.632 0.00029298
1.05017 0.000528507 0.488242 0.000153523 1.73194 0.000310921
1.10329 0.000555241 0.616113 0.000193731 1.81757 0.000326292
1.1585 0.000583023 0.749136 0.000235559 1.8881 0.000338953
1.21543 0.000611678 0.885314 0.000278379 1.9452 0.000349205
1.27383 0.000641068 1.02245 0.000321499 1.99192 0.000357591
1.33347 0.000671082 1.15845 0.000364264 2.03057 0.000364531
1.39417 0.000701628 1.29141 0.000406071 2.06204 0.00037018
1.45572 0.000732603 1.41942 0.000446324 2.0867 0.000374608
1.51782 0.000763854 1.54062 0.000484434 2.10574 0.000378026
1.57998 0.000795138 1.65333 0.000519876 2.12127 0.000380813
1.64154 0.000826121 1.75624 0.000552234 2.13538 0.000383347
1.70172 0.000856405 1.84836 0.000581202 2.1493 0.000385845
1.75967 0.000885571 1.92897 0.000606548 2.16345 0.000388385
1.81457 0.000913199 1.99751 0.0006281 2.17818 0.00039103
1.86559 0.000938872 2.05368 0.000645761 2.19421 0.000393908
1.90786 0.000960149 2.09438 0.000658558 2.2132 0.000397316
1.93123 0.000971909 2.11337 0.000664531 2.23463 0.000401164
1.93561 0.000974113 2.11038 0.000663591 2.26331 0.000406312
1.93704 0.000974832 2.10281 0.00066121 2.29175 0.000411418
1.94857 0.000980633 2.09773 0.000659613 2.31505 0.0004156
1.96194 0.000987365 2.08576 0.00065585 2.33744 0.00041962
1.96681 0.000989814 2.06279 0.000648626 2.35975 0.000423626
1.96933 0.000991081 2.034 0.000639572 2.38126 0.000427487
1.9715 0.000992174 2.00093 0.000629175 2.40018 0.000430884
1.96744 0.00099013 1.96045 0.000616445 2.41512 0.000433566
1.95697 0.000984863 1.91136 0.00060101 2.42591 0.000435503
1.94427 0.00097847 1.85662 0.000583798 2.43197 0.00043659
1.93037 0.000971475 1.79827 0.000565448 2.43304 0.000436782
1.91427 0.000963371 1.73664 0.000546071 2.42743 0.000435776
1.89712 0.00095474 1.67234 0.000525852 2.41289 0.000433164
1.88079 0.000946523 1.60655 0.000505164 2.38803 0.000428701
1.86561 0.000938885 1.54047 0.000484388 2.35285 0.000422386
1.85142 0.000931743 1.47543 0.000463935 2.30744 0.000414234
1.83859 0.000925285 1.41276 0.00044423 2.25102 0.000404105
1.8273 0.000919604 1.35351 0.000425599 2.1825 0.000391805
1.81722 0.00091453 1.29853 0.000408312 2.10145 0.000377255
1.80806 0.00090992 1.2488 0.000392674 2.00823 0.00036052
1.79978 0.000905755 1.20523 0.000378975 1.90355 0.000341727
1.79227 0.000901977 1.16835 0.000367377 1.78803 0.000320989
1.78487 0.000898249 1.13841 0.000357963 1.66226 0.000298411
1.77701 0.000894295 1.11557 0.000350781 1.52718 0.000274161
1.76849 0.000890006 1.09982 0.000345829 1.3842 0.000248493
1.75915 0.000885307 1.09081 0.000342996 1.23513 0.000221733
1.74903 0.000880215 1.08782 0.000342056 1.08193 0.00019423
1.73845 0.000874889 1.08988 0.000342704 0.926573 0.000166339
1.7279 0.000869581 1.0959 0.000344597 0.771121 0.000138433
1.71788 0.00086454 1.10471 0.000347367 0.617792 0.000110907
1.7087 0.000859917 1.11512 0.000350639 0.468879 8.41738e-05
1.70029 0.000855688 1.126 0.000354061 0.326621 5.86354e-05
1.69219 0.000851607 1.13642 0.000357337 0.193095 3.46646e-05
1.68354 0.000847258 1.14562 0.00036023 0.0701878 1.26002e-05
1.67342 0.000842163 1.15296 0.000362539 -0.0403811 -7.24927e-06
1.6608 0.000835814 1.15828 0.00036421 -0.142428 -2.55689e-05
1.64482 0.000827768 1.16013 0.000364792 -0.229859 -4.12646e-05
1.62429 0.000817437 1.15867 0.000364334 -0.299142 -5.37023e-05
1.59821 0.000804311 1.15382 0.000362809 -0.350893 -6.29928e-05
1.5654 0.000787803 1.14554 0.000360204 -0.385326 -6.91742e-05
1.52482 0.00076738 1.13338 0.00035638 -0.400957 -7.19802e-05
1.47548 0.000742547 1.11711 0.000351266 -0.395566 -7.10126e-05
1.41673 0.00071298 1.09673 0.000344857 -0.367884 -6.60431e-05
1.34852 0.000678652 1.07206 0.000337098 -0.318876 -5.7245e-05
1.27139 0.000639836 1.04268 0.000327863 -0.250081 -4.48949e-05
1.18625 0.000596993 1.00808 0.000316981 -0.162689 -2.92061e-05
1.09421 0.00055067 0.967802 0.000304317 -0.0613222 -1.10086e-05
0.996461 0.000501478 0.92138 0.00028972 0.0375252 6.73657e-06
0.894228 0.000450028 0.868826 0.000273195 0.147679 2.65115e-05
0.788814 0.000396977 0.809989 0.000254694 0.267268 4.79802e-05
0.68158 0.000343011 0.744847 0.00023421 0.394444 7.08112e-05
0.573993 0.000288867 0.673542 0.000211789 0.527109 9.46273e-05
0.467559 0.000235303 0.596452 0.000187549 0.662735 0.000118975
0.363681 0.000183026 0.514167 0.000161675 0.798525 0.000143352
0.263424 0.000132571 0.427506 0.000134425 0.931656 0.000167252
0.167433 8.42618e-05 0.337539 0.000106136 1.0594 0.000190185
0.0760357 3.82656e-05 0.245578 7.72198e-05 1.17905 0.000211665
-0.00735344 -3.70068e-06 0.154116 4.84602e-05 1.28764 0.000231158
-0.0695162 -3.49846e-05 0.0728418 2.29045e-05 1.37899 0.000247559
-0.123822 -6.23144e-05 -0.00470468 -1.47935e-06 1.45541 0.000261278
-0.179693 -9.04322e-05 -0.0817935 -2.57192e-05 1.51427 0.000271844
-0.234692 -0.000118111 -0.155239 -4.88136e-05 1.55354 0.000278894
-0.28466 -0.000143258 -0.22114 -6.95354e-05 1.57078 0.000281988
-0.332263 -0.000167214 -0.279618 -8.79233e-05 1.56576 0.000281087
-0.380021 -0.000191249 -0.33143 -0.000104215 1.5378 0.000276068
-0.426402 -0.00021459 -0.381073 -0.000119825 1.48594 0.000266758
-0.470506 -0.000236786 -0.422172 -0.000132748 1.40998 0.000253122
-0.513715 -0.000258531 -0.454986 -0.000143066 1.31127 0.000235401
-0.556823 -0.000280226 -0.480205 -0.000150996 1.19107 0.000213823
-0.599258 -0.000301582 -0.498531 -0.000156759 1.05047 0.000188581
-0.640927 -0.000322552 -0.511092 -0.000160708 0.891074 0.000159967
-0.682427 -0.000343437 -0.519261 -0.000163277 0.715324 0.000128416
-0.723992 -0.000364355 -0.524301 -0.000164862 0.525945 9.44183e-05
-0.765536 -0.000385263 -0.527607 -0.000165901 0.325641 5.84595e-05
-0.807296 -0.000406279 -0.53092 -0.000166943 0.117184 2.10371e-05
-0.849791 -0.000427664 -0.535693 -0.000168444 -0.104993 -1.88485e-05
-0.893338 -0.00044958 -0.543225 -0.000170812 -0.341797 -6.13599e-05
-0.938189 -0.000472152 -0.556182 -0.000174886 -0.572558 -0.000102786
-0.984576 -0.000495497 -0.575168 -0.000180857 -0.799515 -0.00014353
-1.03259 -0.000519662 -0.601231 -0.000189052 -1.02323 -0.000183691
-1.08208 -0.000544569 -0.636127 -0.000200024 -1.2404 -0.000222679
-1.13262 -0.000570001 -0.681469 -0.000214282 -1.44573 -0.00025954
-1.18372 -0.000595715 -0.738164 -0.000232109 -1.63549 -0.000293605
-1.23479 -0.000621419 -0.806633 -0.000253638 -1.80902 -0.000324757
-1.28527 -0.000646824 -0.887111 -0.000278944 -1.96722 -0.000353159
-1.33466 -0.000671678 -0.979654 -0.000308043 -2.11012 -0.000378811
-1.38257 -0.000695789 -1.08386 -0.000340809 -2.2363 -0.000401463
-1.42872 -0.000719015 -1.19872 -0.000376926 -2.34452 -0.000420891
-1.4729 -0.00074125 -1.32278 -0.000415936 -2.4352 -0.00043717
-1.73936 -0.000875349 -1.35943 -0.000427462 -2.54247 -0.000456428
-1.18833 -0.000598037 -1.094 -0.000343999 -2.70741 -0.000486037
-1.00378 -0.00050516 -1.05725 -0.000332444 -2.81007 -0.000504468
-1.40581 -0.000707484 -1.44362 -0.000453932 -2.72583 -0.000489344
-1.67004 -0.000840464 -1.77372 -0.00055773 -2.66138 -0.000477774
-1.52702 -0.000768486 -1.85623 -0.000583676 -2.65982 -0.000477495
-1.34844 -0.000678613 -1.88956 -0.000594154 -2.64997 -0.000475726
-1.41391 -0.00071156 -2.07041 -0.000651023 -2.57223 -0.00046177
-1.56969 -0.000789959 -2.31576 -0.000728171 -2.47237 -0.000443843
-1.58244 -0.000796378 -2.4789 -0.000779467 -2.39772 -0.000430442
-1.53238 -0.000771181 -2.56313 -0.000805954 -2.3391 -0.000419918
-1.49758 -0.000753672 -2.63084 -0.000827245 -2.2741 -0.00040825
-1.53288 -0.000771437 -2.72729 -0.00085757 -2.20365 -0.000395602
-1.60643 -0.000808452 -2.83493 -0.000891417 -2.13664 -0.000383572
-1.63904 -0.000824859 -2.89299 -0.000909674 -2.08993 -0.000375186
-1.63303 -0.000821835 -2.89272 -0.00090959 -2.05988 -0.000369792
-1.64232 -0.000826512 -2.87175 -0.000902995 -2.0365 -0.000365595
-1.69131 -0.000851164 -2.85476 -0.000897653 -2.01903 -0.000362459
-1.7499 -0.000880653 -2.82717 -0.000888979 -2.0135 -0.000361466
-1.78604 -0.000898839 -2.76589 -0.000869708 -2.02184 -0.000362963
-1.80733 -0.000909555 -2.6744 -0.00084094 -2.03757 -0.000365787
-1.83718 -0.000924576 -2.57394 -0.000809352 -2.05462 -0.000368849
-1.87738 -0.00094481 -2.48243 -0.000780578 -2.06994 -0.000371598
-1.91279 -0.000962627 -2.38262 -0.000749192 -2.08832 -0.000374898
-1.93052 -0.00097155 -2.26798 -0.000713145 -2.10684 -0.000378223
-1.94989 -0.000981297 -2.15183 -0.000676625 -2.1166 -0.000379974
-1.97805 -0.000995471 -2.04255 -0.000642261 -2.1149 -0.000379669
-2.00265 -0.00100785 -1.93806 -0.000609404 -2.1034 -0.000377605
-2.01932 -0.00101624 -1.83855 -0.000578117 -2.08069 -0.000373528
-2.03569 -0.00102448 -1.74994 -0.000550253 -2.04195 -0.000366574
-2.05419 -0.00103379 -1.67565 -0.000526892 -1.98457 -0.000356273
-2.06974 -0.00104161 -1.61545 -0.000507963 -1.90911 -0.000342726
-2.06235 -0.00103789 -1.5784 -0.000496313 -1.81343 -0.000325549
-2.06279 -0.00103812 -1.55727 -0.000489669 -1.70124 -0.000305409
-2.06849 -0.00104099 -1.5508 -0.000487635 -1.57276 -0.000282344
-2.07236 -0.00104293 -1.55721 -0.000489649 -1.42966 -0.000256655
-2.06999 -0.00104174 -1.58042 -0.000496949 -1.27239 -0.000228421
-2.06629 -0.00103988 -1.6207 -0.000509615 -1.10383 -0.000198161
-2.06075 -0.00103709 -1.67487 -0.000526647 -0.928137 -0.00016662
-2.05189 -0.00103263 -1.73758 -0.000546366 -0.749883 -0.00013462
-2.03219 -0.00102272 -1.80316 -0.000566989 -0.573381 -0.000102934
-2.01021 -0.00101166 -1.87399 -0.00058926 -0.400561 -7.19092e-05
-1.99282 -0.0010029 -1.95178 -0.00061372 -0.233714 -4.19567e-05
-1.97696 -0.000994922 -2.03119 -0.00063869 -0.0782407 -1.40459e-05
-1.95802 -0.00098539 -2.10556 -0.000662075 0.0589935 1.05906e-05
-1.93624 -0.000974428 -2.17208 -0.000682992 0.148805 2.67137e-05
-1.91556 -0.000964024 -2.22983 -0.000701151 0.219344 3.93768e-05
-1.89805 -0.000955208 -2.27917 -0.000716664 0.271947 4.88202e-05
-1.88227 -0.000947267 -2.3175 -0.000728718 0.306888 5.50929e-05
-1.86383 -0.00093799 -2.34103 -0.000736115 0.322468 5.78899e-05
-1.84188 -0.000926943 -2.34849 -0.000738462 0.31495 5.65403e-05
-1.81911 -0.000915484 -2.34147 -0.000736254 0.282304 5.06796e-05
-1.79531 -0.000903506 -2.32039 -0.000729625 0.225038 4.0399e-05
-1.76669 -0.000889102 -2.28498 -0.00071849 0.145259 2.60771e-05
-1.73421 -0.000872755 -2.23894 -0.000704016 0.0380236 6.82605e-06
-1.7066 -0.00085886 -2.18817 -0.00068805 -0.096993 -1.74123e-05
-1.68334 -0.000847154 -2.13207 -0.00067041 -0.249581 -4.48051e-05
-1.65382 -0.0008323 -2.06438 -0.000649127 -0.420153 -7.54264e-05
-1.6173 -0.000813921 -1.98535 -0.000624274 -0.605642 -0.000108726
-1.58164 -0.000795975 -1.90133 -0.000597857 -0.800201 -0.000143653
-1.55075 -0.000780428 -1.81686 -0.000571295 -0.998884 -0.000179321
-1.52124 -0.000765576 -1.73202 -0.000544618 -1.19863 -0.00021518
-1.48997 -0.000749839 -1.64644 -0.000517708 -1.39661 -0.000250721
-1.45686 -0.000733176 -1.56207 -0.000491179 -1.58895 -0.00028525
-1.42467 -0.000716977 -1.48272 -0.000466227 -1.77111 -0.000317952
-1.39532 -0.000702206 -1.41127 -0.000443761 -1.93907 -0.000348105
-1.36721 -0.000688063 -1.34805 -0.000423881 -2.09006 -0.00037521
-1.33897 -0.000673848 -1.29298 -0.000406565 -2.22174 -0.000398849
-1.31166 -0.000660104 -1.24738 -0.000392227 -2.33166 -0.000418583
-1.28722 -0.000647807 -1.21299 -0.000381414 -2.4176 -0.000434011
-1.26608 -0.000637165 -1.19048 -0.000374335 -2.47805 -0.000444863
-1.24714 -0.000627635 -1.17944 -0.000370863 -2.51228 -0.000451007
-1.22954 -0.000618778 -1.17955 -0.000370897 -2.51991 -0.000452378
-1.21326 -0.000610585 -1.19114 -0.000374543 -2.50047 -0.000448887
-1.19825 -0.000603028 -1.21449 -0.000381886 -2.45427 -0.000440593
-1.18301 -0.000595361 -1.24909 -0.000392765 -2.38244 -0.000427699
-1.16689 -0.000587245 -1.29454 -0.000407058 -2.28658 -0.00041049
-1.14989 -0.000578691 -1.35005 -0.000424511 -2.16886 -0.000389357
-1.12975 -0.000568557 -1.41323 -0.000444378 -2.03245 -0.000364869
-1.10494 -0.000556069 -1.48155 -0.000465859 -1.88083 -0.000337649
-1.07535 -0.000541179 -1.55281 -0.000488266 -1.71749 -0.000308326
-1.04081 -0.000523798 -1.62437 -0.000510769 -1.54631 -0.000277595
-1.00131 -0.000503918 -1.69297 -0.00053234 -1.37145 -0.000246204
-0.956984 -0.00048161 -1.75553 -0.000552011 -1.19648 -0.000214794
-0.907727 -0.000456821 -1.80799 -0.000568506 -1.02645 -0.000184269
-0.854179 -0.000429873 -1.84914 -0.000581445 -0.864257 -0.000155152
-0.795198 -0.00040019 -1.87593 -0.000589869 -0.713476 -0.000128084
-0.731081 -0.000367923 -1.88847 -0.000593814 -0.575551 -0.000103324
-0.674354 -0.000339375 -1.89012 -0.000594332 -0.451506 -8.1055e-05
-0.6186 -0.000311316 -1.87532 -0.000589676 -0.344899 -6.19167e-05
-0.555122 -0.00027937 -1.83679 -0.000577564 -0.259873 -4.66528e-05
-0.486736 -0.000244954 -1.77553 -0.000558299 -0.196065 -3.51978e-05
-0.421504 -0.000212126 -1.69537 -0.000533092 -0.15197 -2.72818e-05
-0.366034 -0.00018421 -1.59603 -0.000501858 -0.127661 -2.29179e-05
-0.308068 -0.000155038 -1.47845 -0.000464885 -0.121675 -2.18433e-05
-0.245185 -0.000123391 -1.34132 -0.000421766 -0.13357 -2.39786e-05
-0.180676 -9.09267e-05 -1.18835 -0.000373666 -0.160298 -2.87769e-05
-0.117972 -5.93706e-05 -1.02414 -0.000322032 -0.19807 -3.55578e-05
-0.0568113 -2.85908e-05 -0.850931 -0.000267568 -0.243754 -4.37591e-05
0.00418739 2.10734e-06 -0.669512 -0.000210522 -0.294434 -5.28572e-05
0.0598979 3.01441e-05 -0.482732 -0.000151791 -0.346449 -6.21949e-05
0.101523 5.10922e-05 -0.301016 -9.46519e-05 -0.392758 -7.05085e-05
0.136382 6.86352e-05 -0.122133 -3.84037e-05 -0.433025 -7.77373e-05
0.171346 8.62312e-05 0.0524351 1.64877e-05 -0.463395 -8.31893e-05
0.205896 0.000103619 0.217283 6.83227e-05 -0.479847 -8.61427e-05
0.239831 0.000120697 0.360312 0.000113297 -0.478205 -8.58479e-05
0.273034 0.000137406 0.491161 0.000154441 -0.457919 -8.22061e-05
0.305116 0.000153552 0.606914 0.000190839 -0.416426 -7.47574e-05
0.316587 0.000159325 0.710555 0.000223428 -0.35385 -6.35236e-05
0.3874 0.000194963 0.818217 0.000257281 -0.274862 -4.93436e-05
0.436028 0.000219435 0.900406 0.000283125 -0.168831 -3.03087e-05
0.455618 0.000229294 0.94407 0.000296854 -0.0468644 -8.41315e-06
0.487571 0.000245374 0.97149 0.000305476 0.0716431 1.28615e-05
0.53477 0.000269127 0.984683 0.000309625 0.201209 3.61213e-05
0.573312 0.000288524 0.972444 0.000305776 0.347476 6.23793e-05
0.60531 0.000304628 0.936103 0.000294349 0.510847 9.17079e-05
0.644735 0.000324468 0.885653 0.000278486 0.684914 0.000122957
0.691095 0.000347799 0.822434 0.000258607 0.86458 0.00015521
0.736769 0.000370785 0.745346 0.000234367 1.04696 0.000187952
0.783969 0.000394539 0.659008 0.000207219 1.22833 0.000220511
0.837281 0.000421369 0.569758 0.000179155 1.40526 0.000252275
0.894869 0.000450351 0.480932 0.000151225 1.57432 0.000282624
0.953973 0.000480095 0.39534 0.000124311 1.73126 0.000310797
1.01534 0.000510981 0.317788 9.99257e-05 1.87121 0.000335922
1.07971 0.000543376 0.252946 7.95366e-05 1.99048 0.000357333
1.14551 0.000576488 0.204035 6.41569e-05 2.08686 0.000374636
1.21133 0.000609614 0.173845 5.4664e-05 2.15848 0.000387494
1.27701 0.000642666 0.165165 5.19346e-05 2.20332 0.000395543
1.34207 0.000675407 0.18006 5.66182e-05 2.21986 0.000398512
1.4056 0.000707379 0.219352 6.89734e-05 2.20633 0.000396082
1.46724 0.000738399 0.283116 8.90233e-05 2.16171 0.000388074
1.52736 0.000768655 0.370727 0.000116572 2.08713 0.000374684
1.58635 0.000798344 0.480471 0.00015108 1.98506 0.00035636
1.64437 0.000827544 0.609891 0.000191775 1.8592 0.000333766
1.70174 0.000856414 0.756088 0.000237745 1.71371 0.000307647
1.75798 0.000884717 0.91611 0.000288063 1.55281 0.000278763
1.81317 0.000912493 1.08639 0.000341605 1.38113 0.000247942
1.86762 0.000939895 1.26274 0.000397058 1.2038 0.000216107
1.92138 0.000966949 1.44087 0.00045307 1.02638 0.000184257
1.97445 0.00099366 1.61665 0.00050834 0.854428 0.000153388
2.00318 0.00100812 1.77603 0.000558457 0.696061 0.000124958
1.98261 0.000997765 1.89821 0.000596876 0.562013 0.000100893
1.95827 0.000985515 2.00261 0.000629704 0.444416 7.97821e-05
1.95629 0.00098452 2.10444 0.000661723 0.347651 6.24107e-05
1.96013 0.000986452 2.19982 0.000691715 0.272422 4.89055e-05
1.95449 0.000983614 2.27404 0.000715051 0.226087 4.05875e-05
1.94526 0.000978969 2.32879 0.000732268 0.20586 3.69562e-05
1.94765 0.000980171 2.36862 0.00074479 0.212449 3.8139e-05
1.95589 0.00098432 2.39206 0.000752162 0.248865 4.46765e-05
1.96249 0.00098764 2.39605 0.000753417 0.315376 5.66166e-05
1.97165 0.000992248 2.38082 0.000748626 0.409165 7.34539e-05
1.98735 0.00100015 2.3481 0.000738338 0.527336 9.4668e-05
2.00712 0.0010101 2.29847 0.000722734 0.668962 0.000120093
2.02796 0.00102059 2.23339 0.00070227 0.832493 0.00014945
2.05059 0.00103198 2.15621 0.000678001 1.01382 0.000182003
2.06209 0.00103776 2.07357 0.000652016 1.20664 0.000216618
2.07204 0.00104277 1.98269 0.000623437 1.4091 0.000252964
2.07778 0.00104566 1.88773 0.000593579 1.61606 0.000290118
2.08117 0.00104737 1.79283 0.000563739 1.82331 0.000327323
2.05745 0.00103543 1.70641 0.000536564 2.02553 0.000363627
2.02434 0.00101876 1.63009 0.000512568 2.21202 0.000397105
1.99541 0.00100421 1.56141 0.000490971 2.37629 0.000426594
1.96903 0.000990933 1.50061 0.000471854 2.51707 0.000451868
1.9461 0.000979393 1.44545 0.000454508 2.56849 0.000461099
1.92753 0.000970048 1.40667 0.000442313 2.5776 0.000462735
1.91503 0.000963754 1.38274 0.000434789 2.57107 0.000461562
1.90095 0.000956667 1.373 0.000431727 2.56549 0.00046056
1.88546 0.000948873 1.37616 0.000432723 2.57863 0.000462918
1.86918 0.000940683 1.39483 0.000438591 2.59862 0.000466508
1.85211 0.000932089 1.42981 0.000449592 2.60761 0.000468121
1.83455 0.000923255 1.47888 0.00046502 2.59368 0.00046562
1.81696 0.000914399 1.53868 0.000483823 2.55577 0.000458815
1.79955 0.000905637 1.60716 0.000505355 2.50261 0.000449272
1.78225 0.000896933 1.68271 0.000529112 2.43762 0.000437605
1.76512 0.000888312 1.76307 0.000554382 2.35871 0.000423438
1.74831 0.000879851 1.84512 0.000580183 2.26432 0.000406493
1.73181 0.000871551 1.92564 0.000605501 2.15794 0.000387397
1.71551 0.000863343 2.00189 0.000629475 2.04639 0.000367371
1.69922 0.000855149 2.07142 0.00065134 1.93494 0.000347363
1.68269 0.00084683 2.13185 0.000670341 1.82521 0.000327665
1.66559 0.000838224 2.18081 0.000685736 1.71726 0.000308285
1.64761 0.000829172 2.21632 0.000696902 1.61259 0.000289494
1.6284 0.000819507 2.23694 0.000703386 1.51464 0.00027191
1.60775 0.000809116 2.24157 0.00070484 1.42676 0.000256134
1.58549 0.000797912 2.22945 0.000701029 1.35034 0.000242416
1.56156 0.000785867 2.20022 0.000691839 1.28505 0.000230693
1.53604 0.000773025 2.15401 0.000677308 1.23026 0.000220859
1.50906 0.000759448 2.09147 0.000657645 1.18607 0.000212924
1.48076 0.000745203 2.01364 0.000633171 1.15271 0.000206935
1.45115 0.000730302 1.92195 0.00060434 1.1296 0.000202787
1.42008 0.000714669 1.81829 0.000571745 1.11501 0.000200168
1.38723 0.000698134 1.70494 0.000536102 1.10662 0.000198662
1.35206 0.000680435 1.58452 0.000498237 1.10224 0.000197876
1.31411 0.000661337 1.45972 0.000458997 1.09999 0.000197471
1.27301 0.000640655 1.33327 0.000419235 1.09795 0.000197105
1.2285 0.000618252 1.20783 0.000379792 1.09389 0.000196377
1.18045 0.000594073 1.08593 0.000341462 1.08541 0.000194854
1.1288 0.000568079 0.969949 0.000304992 1.07031 0.000192144
1.07353 0.000540265 0.861942 0.00027103 1.04688 0.000187937
1.01464 0.000510627 0.763648 0.000240122 1.01382 0.000182002
0.952062 0.000479133 0.676479 0.000212713 0.970117 0.000174157
0.88582 0.000445797 0.601394 0.000189103 0.914992 0.00016426
0.81609 0.000410704 0.538931 0.000169462 0.84802 0.000152238
0.743376 0.00037411 0.489064 0.000153782 0.769304 0.000138106
0.668603 0.00033648 0.451202 0.000141876 0.679486 0.000121982
0.59299 0.000298427 0.424317 0.000133423 0.579628 0.000104056
0.517893 0.000260634 0.406987 0.000127973 0.471064 8.45661e-05
0.444386 0.000223641 0.397719 0.000125059 0.355317 6.3787e-05
0.373615 0.000188025 0.395515 0.000124366 0.233952 4.19993e-05
0.309927 0.000155973 0.399339 0.000125569 0.108811 1.95339e-05
0.248726 0.000125174 0.405191 0.000127409 -0.0187691 -3.36945e-06
0.188249 9.47379e-05 0.411132 0.000129277 -0.137455 -2.4676e-05
0.132077 6.64688e-05 0.414734 0.000130409 -0.247859 -4.4496e-05
0.0804314 4.04778e-05 0.41665 0.000131012 -0.352455 -6.32731e-05
0.0301537 1.51751e-05 0.415453 0.000130635 -0.454185 -8.15359e-05
-0.0179587 -9.03785e-06 0.410707 0.000129143 -0.553149 -9.9302e-05
-0.0515459 -2.59409e-05 0.398253 0.000125227 -0.644276 -0.000115661
-0.081084 -4.08062e-05 0.383526 0.000120596 -0.72544 -0.000130232
-0.104737 -5.27098e-05 0.36561 0.000114963 -0.79403 -0.000142545
-0.128809 -6.48241e-05 0.344224 0.000108238 -0.852427 -0.000153029
-0.155049 -7.80299e-05 0.318247 0.00010007 -0.902368 -0.000161994
-0.182683 -9.1937e-05 0.287397 9.03694e-05 -0.943338 -0.000169349
-0.210395 -0.000105883 0.253043 7.95671e-05 -0.973303 -0.000174729
-0.239228 -0.000120393 0.215576 6.7786e-05 -0.990586 -0.000177831
-0.270138 -0.000135949 0.174747 5.49476e-05 -0.99602 -0.000178807
-0.304306 -0.000153144 0.129915 4.08507e-05 -0.990719 -0.000177855
-0.34103 -0.000171626 0.0797404 2.50736e-05 -0.974109 -0.000174873
-0.378855 -0.000190662 0.0238932 7.51299e-06 -0.945562 -0.000169748
-0.417795 -0.000210259 -0.0344619 -1.08362e-05 -0.904395 -0.000162358
-0.458497 -0.000230743 -0.0956875 -3.00881e-05 -0.852241 -0.000152995
-0.500804 -0.000252034 -0.159931 -5.02889e-05 -0.791237 -0.000142044
-0.543682 -0.000273613 -0.226803 -7.13161e-05 -0.723327 -0.000129853
-0.586006 -0.000294912 -0.296044 -9.30884e-05 -0.649846 -0.000116661
-0.627554 -0.000315822 -0.367695 -0.000115618 -0.571629 -0.00010262
-0.668489 -0.000336423 -0.441642 -0.00013887 -0.490095 -8.79826e-05
-0.70868 -0.000356649 -0.517168 -0.000162619 -0.407545 -7.31631e-05
-0.747717 -0.000376295 -0.593164 -0.000186515 -0.326551 -5.86229e-05
-0.785394 -0.000395256 -0.668563 -0.000210223 -0.249254 -4.47464e-05
-0.821906 -0.000413632 -0.74243 -0.00023345 -0.17727 -3.18238e-05
-0.857514 -0.000431551 -0.813916 -0.000255929 -0.112159 -2.01349e-05
-0.892244 -0.00044903 -0.882105 -0.00027737 -0.0557416 -1.00068e-05
-0.92598 -0.000466008 -0.946099 -0.000297492 -0.00990382 -1.77795e-06
-0.958718 -0.000482483 -1.00522 -0.000316081 0.0236667 4.24868e-06
-0.990618 -0.000498537 -1.05893 -0.000332971 0.0432391 7.76234e-06
-1.02168 -0.000514168 -1.10662 -0.000347966 0.0496462 8.91255e-06
-1.0524 -0.000529627 -1.14817 -0.000361032 0.0420851 7.55517e-06
-1.08269 -0.000544874 -1.1832 -0.000372048 0.0219257 3.93613e-06
-1.1125 -0.000559877 -1.2115 -0.000380944 -0.0099653 -1.78898e-06
-1.14188 -0.000574663 -1.23345 -0.000387848 -0.0533359 -9.57493e-06
-1.17111 -0.000589373 -1.24946 -0.000392882 -0.108287 -1.94399e-05
-1.19871 -0.000603263 -1.25995 -0.00039618 -0.174642 -3.13519e-05
-1.22838 -0.000618195 -1.26755 -0.000398569 -0.251193 -4.50944e-05
-1.26009 -0.000634152 -1.27247 -0.000400116 -0.335864 -6.02947e-05
-1.29024 -0.000649323 -1.27205 -0.000399985 -0.428664 -7.69543e-05
-1.31984 -0.00066422 -1.26772 -0.000398622 -0.527835 -9.47576e-05
-1.3504 -0.0006796 -1.26175 -0.000396745 -0.631817 -0.000113425
-1.38304 -0.000696025 -1.256 -0.000394938 -0.738784 -0.000132628
-1.41738 -0.000713307 -1.25112 -0.000393403 -0.84511 -0.000151715
-1.45211 -0.000730788 -1.24671 -0.000392017 -0.946247 -0.000169872
-1.48693 -0.00074831 -1.24427 -0.00039125 -1.04539 -0.000187669
-1.52258 -0.000766252 -1.24552 -0.000391643 -1.14124 -0.000204877
-1.55998 -0.000785072 -1.25232 -0.00039378 -1.23219 -0.000221205
-1.5985 -0.000804458 -1.26535 -0.000397879 -1.31706 -0.000236441
-1.63821 -0.000824445 -1.28525 -0.000404137 -1.39473 -0.000250383
-1.67615 -0.000843538 -1.31151 -0.000412394 -1.46448 -0.000262906
-1.71059 -0.000860871 -1.34515 -0.000422969 -1.52562 -0.000273882
-1.74486 -0.000878114 -1.38987 -0.000437033 -1.5766 -0.000283033
-1.77945 -0.000895523 -1.44724 -0.000455071 -1.6169 -0.000290267
-1.81111 -0.000911457 -1.51604 -0.000476705 -1.64712 -0.000295693
-1.83821 -0.000925094 -1.5955 -0.000501692 -1.66781 -0.000299408
-1.86303 -0.000937585 -1.68658 -0.00053033 -1.67896 -0.000301409
-1.88382 -0.000948051 -1.78867 -0.000562432 -1.68141 -0.000301848
-1.90013 -0.000956258 -1.89905 -0.000597139 -1.67677 -0.000301016
-1.91218 -0.000962321 -2.01498 -0.000633593 -1.66644 -0.000299161
-1.92117 -0.000966846 -2.13391 -0.000670988 -1.65243 -0.000296646
-1.92845 -0.000970509 -2.25315 -0.000708484 -1.63708 -0.000293891
-1.93474 -0.000973672 -2.36962 -0.000745105 -1.62316 -0.000291391
-1.94037 -0.000976506 -2.48019 -0.000779874 -1.61347 -0.000289653
-1.94585 -0.000979267 -2.58229 -0.000811978 -1.61043 -0.000289107
-1.95189 -0.000982304 -2.67384 -0.000840764 -1.61586 -0.000290081
-1.95896 -0.000985864 -2.7531 -0.000865686 -1.6312 -0.000292835
-1.96717 -0.000989998 -2.8185 -0.000886251 -1.65582 -0.000297256
-1.97649 -0.000994687 -2.86867 -0.000902027 -1.68781 -0.000302997
-1.98686 -0.000999907 -2.90336 -0.000912936 -1.72813 -0.000310237
-1.9903 -0.00100163 -2.91868 -0.000917753 -1.77931 -0.000319424
-1.9933 -0.00100314 -2.91786 -0.000917494 -1.84043 -0.000330396
-1.99874 -0.00100588 -2.90276 -0.000912746 -1.91034 -0.000342947
-2.00785 -0.00101047 -2.87544 -0.000904155 -1.98731 -0.000356765
-2.02171 -0.00101745 -2.83729 -0.00089216 -2.06946 -0.000371513
-2.03496 -0.00102411 -2.78725 -0.000876427 -2.15575 -0.000387004
-2.04543 -0.00102938 -2.72595 -0.000857151 -2.24485 -0.000402998
-2.05458 -0.00103398 -2.65658 -0.000835339 -2.33412 -0.000419024
-2.06268 -0.00103806 -2.58165 -0.000811778 -2.42127 -0.00043467
-2.05953 -0.00103648 -2.50629 -0.000788079 -2.50305 -0.000449351
-2.05473 -0.00103406 -2.43018 -0.000764149 -2.57796 -0.000462799
-2.04904 -0.0010312 -2.35736 -0.000741251 -2.64331 -0.000474531
-2.04414 -0.00102873 -2.29102 -0.00072039 -2.69658 -0.000484093
-2.03959 -0.00102644 -2.23167 -0.000701728 -2.7364 -0.000491242
-2.03255 -0.0010229 -2.17823 -0.000684923 -2.76211 -0.000495857
-2.022 -0.00101759 -2.13083 -0.000670019 -2.77304 -0.000497819
-2.0093 -0.0010112 -2.09149 -0.000657649 -2.76624 -0.0004966
-1.9949 -0.00100395 -2.06279 -0.000648627 -2.73862 -0.000491641
-1.97808 -0.000995486 -2.045 -0.00064303 -2.68963 -0.000482846
-1.95686 -0.000984806 -2.03704 -0.000640529 -2.62015 -0.000470373
-1.9305 -0.000971539 -2.03834 -0.000640937 -2.53167 -0.000454489
-1.89962 -0.000956002 -2.04881 -0.000644229 -2.42575 -0.000435473
-1.86497 -0.000938562 -2.06785 -0.000650218 -2.30404 -0.000413624
-1.82655 -0.000919226 -2.09352 -0.000658288 -2.16873 -0.000389334
-1.78432 -0.000897975 -2.12317 -0.000667611 -2.02262 -0.000363104
-1.73892 -0.000875129 -2.15437 -0.000677423 -1.86891 -0.000335509
-1.69137 -0.000851195 -2.185 -0.000687055 -1.71088 -0.000307139
-1.64251 -0.000826606 -2.21299 -0.000695855 -1.5517 -0.000278563
-1.59243 -0.000801406 -2.23591 -0.000703062 -1.39442 -0.000250329
-1.54122 -0.000775635 -2.25143 -0.000707942 -1.24198 -0.000222962
-1.48938 -0.000749542 -2.25768 -0.000709906 -1.09713 -0.000196958
-1.43739 -0.000723379 -2.25309 -0.000708465 -0.962399 -0.000172771
-1.3858 -0.000697413 -2.23645 -0.000703232 -0.839949 -0.000150789
-1.33367 -0.000671183 -2.20633 -0.00069376 -0.731412 -0.000131304
-1.27967 -0.000644006 -2.16202 -0.000679826 -0.638198 -0.00011457
-1.22689 -0.000617444 -2.10539 -0.000662021 -0.560199 -0.000100568
-1.17475 -0.000591203 -2.03617 -0.000640254 -0.497832 -8.93715e-05
-1.12234 -0.000564827 -1.95357 -0.000614283 -0.451298 -8.10176e-05
-1.06929 -0.000538131 -1.85776 -0.000584157 -0.420101 -7.54171e-05
-1.01639 -0.000511508 -1.75029 -0.000550363 -0.403093 -7.23638e-05
-0.964306 -0.000485295 -1.63343 -0.000513617 -0.398475 -7.15348e-05
-0.911209 -0.000458574 -1.50906 -0.00047451 -0.404396 -7.25978e-05
-0.860188 -0.000432897 -1.38049 -0.000434081 -0.418161 -7.50687e-05
-0.807722 -0.000406493 -1.24782 -0.000392367 -0.437928 -7.86173e-05
-0.752568 -0.000378736 -1.11236 -0.00034977 -0.461816 -8.29058e-05
-0.695839 -0.000350187 -0.977628 -0.000307406 -0.486929 -8.74141e-05
-0.638073 -0.000321116 -0.846509 -0.000266177 -0.510634 -9.16697e-05
-0.578913 -0.000291343 -0.720732 -0.000226628 -0.53044 -9.52253e-05
-0.517509 -0.000260441 -0.601154 -0.000189027 -0.544342 -9.77209e-05
-0.45382 -0.000228389 -0.488961 -0.000153749 -0.550609 -9.8846e-05
-0.388709 -0.000195621 -0.385921 -0.000121349 -0.547625 -9.83103e-05
-0.322821 -0.000162463 -0.29333 -9.22348e-05 -0.534008 -9.58657e-05
-0.256187 -0.000128928 -0.211604 -6.65371e-05 -0.508728 -9.13276e-05
-0.188602 -9.49153e-05 -0.14074 -4.42544e-05 -0.471209 -8.4592e-05
-0.121084 -6.09365e-05 -0.0810442 -2.54836e-05 -0.421201 -7.56145e-05
-0.0559585 -2.81616e-05 -0.032713 -1.02863e-05 -0.358886 -6.44276e-05
-0.00945871 -4.76018e-06 -0.00350872 -1.10328e-06 -0.281535 -5.05415e-05
0.0330427 1.6629e-05 0.0157984 4.96766e-06 -0.194414 -3.49014e-05
0.0758444 3.81694e-05 0.026922 8.46537e-06 -0.0981464 -1.76194e-05
0.121487 6.11394e-05 0.0319049 1.00322e-05 -0.0185576 -3.33149e-06
0.15862 7.9827e-05 0.036318 1.14199e-05 0.0512491 9.2003e-06
0.194996 9.81336e-05 0.0361793 1.13763e-05 0.120246 2.15867e-05
0.228183 0.000114835 0.0314161 9.87852e-06 0.191636 3.44027e-05
0.26448 0.000133102 0.0246198 7.74147e-06 0.266566 4.78543e-05
0.302082 0.000152025 0.0157126 4.94069e-06 0.341881 6.13748e-05
0.338819 0.000170514 0.0043643 1.37232e-06 0.415029 7.45065e-05
0.376014 0.000189232 -0.00737555 -2.31917e-06 0.482978 8.67049e-05
0.415072 0.000208889 -0.0175611 -5.52194e-06 0.545978 9.80146e-05
0.456642 0.000229809 -0.0247191 -7.77271e-06 0.604456 0.000108513
0.499835 0.000251546 -0.0283414 -8.91171e-06 0.657664 0.000118065
0.54388 0.000273712 -0.0278969 -8.77191e-06 0.703672 0.000126324
0.58921 0.000296525 -0.0219629 -6.90603e-06 0.740493 0.000132934
0.636432 0.00032029 -0.00896314 -2.81838e-06 0.767468 0.000137777
0.685342 0.000344904 0.0120585 3.79169e-06 0.784944 0.000140914
0.735102 0.000369947 0.0416336 1.30913e-05 0.793189 0.000142394
0.78505 0.000395083 0.0803725 2.52724e-05 0.791411 0.000142075
0.835001 0.000420221 0.129059 4.05815e-05 0.777446 0.000139568
0.884774 0.00044527 0.188512 5.9276e-05 0.750504 0.000134731
0.933846 0.000469966 0.258769 8.13676e-05 0.711523 0.000127734
0.981541 0.000493969 0.339349 0.000106705 0.662377 0.000118911
1.00555 0.000506053 0.428302 0.000134676 0.604876 0.000108588
1.07864 0.000542837 0.562558 0.000176891 0.532251 9.55503e-05
1.16188 0.000584727 0.714719 0.000224737 0.448718 8.05545e-05
1.19625 0.000602022 0.84115 0.000264492 0.378334 6.7919e-05
1.22816 0.000618082 0.96818 0.000304435 0.30931 5.55277e-05
1.28956 0.000648982 1.1095 0.000348874 0.241447 4.33448e-05
1.34776 0.000678273 1.24643 0.00039193 0.184439 3.31106e-05
1.38689 0.000697967 1.36804 0.000430167 0.143411 2.57454e-05
1.42829 0.000718797 1.48224 0.000466077 0.116278 2.08743e-05
1.4794 0.000744519 1.59109 0.000500305 0.104072 1.86831e-05
1.52674 0.000768346 1.68644 0.000530284 0.112076 2.012e-05
1.56701 0.00078861 1.76553 0.000555156 0.14223 2.55334e-05
1.60851 0.000809498 1.83172 0.000575967 0.193133 3.46714e-05
1.65242 0.000831593 1.88489 0.000592686 0.264509 4.74851e-05
1.69353 0.000852282 1.92234 0.000604463 0.357281 6.41395e-05
1.73156 0.000871422 1.94455 0.000611447 0.470944 8.45444e-05
1.76968 0.000890605 1.95395 0.000614402 0.603545 0.000108349
1.80774 0.000909759 1.95142 0.000613607 0.748161 0.000134311
1.84401 0.000928014 1.93617 0.000608811 0.883645 0.000158633
1.87841 0.000945328 1.91302 0.000601531 1.01767 0.000182693
8.93253 0.28423 1.28017 0.000402536 1.2821 0.000230165
8.93253 0.449197 1.40619 0.000442165 1.33924 0.000240422
8.93253 0.484774 1.20319 0.000378331 1.55554 0.000279253
2.48745 0.48153 1.0493 0.000329944 1.74924 0.000314026
6.29584 0.483447 1.08904 0.000342438 1.89084 0.000339446
8.93253 0.498426 1.14606 0.000360369 1.96198 0.000352217
8.93253 0.511595 1.08395 0.000340839 2.04315 0.000366789
8.93253 0.515318 1.02658 0.0003228 2.14318 0.000384747
8.93253 0.526766 1.06566 0.000335086 2.23274 0.000400823
8.93253 0.54351 1.13273 0.000356177 2.29201 0.000411464
8.93253 0.555972 1.15861 0.000364314 2.32248 0.000416934
2.64505 0.557721 39.1181 0.106237 1.9777 0.000355039
8.93253 0.561623 42.5123 0.164028 2.03636 0.00036557
8.93253 0.568132 43.9294 0.188155 1.9189 0.000344483
8.93253 0.574812 44.6409 0.200269 1.84742 0.000331651
8.93253 0.586484 32.1505 0.211179 1.66189 0.000298345
8.93253 0.602334 9.21399 0.230499 1.55245 0.000278698
8.93253 0.614819 8.93253 0.254838 1.49909 0.000269118
8.93253 0.622673 8.93253 0.278452 1.39334 0.000250135
8.93253 0.631945 8.93253 0.297446 1.21756 0.000218578
8.93253 0.642403 8.93253 0.31744 1.03623 0.000186026
8.93253 0.651681 8.93253 0.33872 0.926221 0.000166276
8.93253 0.659366 8.93253 0.358882 0.854818 0.000153458
8.93253 0.666825 8.93253 0.378427 0.752937 0.000135168
8.93253 0.675279 8.93253 0.396491 0.635331 0.000114055
8.93253 0.683107 8.93253 0.413368 0.544594 9.77662e-05
8.93253 0.690111 8.93253 0.430191 0.505845 9.081e-05
8.93253 0.696606 8.93253 0.447349 0.488417 8.76813e-05
8.93253 0.702959 8.93253 0.463334 0.472317 8.47909e-05
8.93253 0.708801 8.93253 0.477694 0.466416 8.37317e-05
8.93253 0.71379 8.93253 0.491206 0.491949 8.83153e-05
8.93253 0.71818 8.93253 0.503644 0.554567 9.95566e-05
8.93253 0.722116 8.93253 0.515213 0.635505 0.000114087
8.93253 0.725497 8.93253 0.525369 0.723817 0.000129941
8.93253 0.728443 8.93253 0.533859 0.832799 0.000149505
8.93253 0.731155 8.93253 0.540888 0.9796 0.000175859
8.93253 0.733516 8.93253 0.546759 1.16239 0.000208673
8.93253 0.735594 8.93253 0.551361 1.36181 0.000244474
8.93253 0.737654 8.93253 0.554591 1.56191 0.000280396
8.93253 0.739755 8.93253 0.556548 1.75979 0.00031592
8.93253 0.742056 8.93117 0.557074 1.91612 0.000343984
8.93253 0.744377 8.56209 0.556958 2.06823 0.000371292
8.93253 0.746679 7.82593 0.556726 2.17075 0.000389696
8.93253 0.74888 6.34316 0.55626 2.20815 0.000396411
8.93253 0.750632 4.72371 0.555751 2.20888 0.000396541
8.93253 0.751945 3.0371 0.555221 2.21329 0.000397332
8.93253 0.752729 0.920544 0.554555 2.24807 0.000403577
8.93253 0.752977 -0.0420736 0.553556 2.30402 0.00041362
8.77956 0.7529 -0.107031 0.552461 2.35046 0.000421957
8.43244 0.752725 -0.153765 0.551673 2.3717 0.00042577
7.89599 0.752455 -0.137989 0.551471 2.37879 0.000427043
7.18863 0.752099 0.306325 0.551705 2.3928 0.000429559
6.31964 0.751662 1.25527 0.552296 2.42019 0.000434476
5.29907 0.751149 2.51596 0.55308 2.45002 0.000439832
4.07563 0.750533 4.12841 0.554084 2.47068 0.000443539
2.80638 0.749894 6.17297 0.555357 2.47675 0.000444629
1.36064 0.749166 8.76298 0.556969 2.4757 0.000444441
-0.0373551 0.747628 8.93253 0.561476 2.47524 0.000444358
-0.173291 0.744522 8.93253 0.567876 2.48214 0.000445596
-0.391756 0.739531 8.93253 0.574989 2.48786 0.000446624
-0.658471 0.733437 8.93253 0.582487 2.48412 0.000445952
-0.946344 0.72686 8.93253 0.59023 2.46156 0.000441903
-1.24595 0.720014 8.93253 0.598116 2.426 0.000435518
-1.56308 0.712768 8.93253 0.606022 2.3821 0.000427638
-1.89564 0.70517 8.93253 0.613715 2.33002 0.000418289
-2.32129 0.695445 8.93253 0.622672 2.25288 0.00040444
-2.67616 0.687337 8.93253 0.629982 2.17255 0.000390018
-3.02284 0.679416 8.93253 0.635826 2.09105 0.000375387
-3.36976 0.671489 8.93253 0.640002 2.01633 0.000361975
-3.72333 0.663411 8.93253 0.642357 1.94895 0.000349878
-4.09113 0.655007 8.68327 0.642667 1.88962 0.000339227
-4.49929 0.645682 7.00548 0.642139 1.83528 0.000329471
-4.95328 0.635309 3.73888 0.641112 1.78838 0.000321053
-5.44721 0.624024 -0.0841475 0.638302 1.75285 0.000314673
-5.9231 0.613151 -0.516636 0.629904 1.73705 0.000311837
-6.41479 0.601917 -1.0953 0.618667 1.72486 0.000309648
-6.93209 0.590097 -1.76846 0.605595 1.72169 0.000309079
-7.493 0.577282 -2.51822 0.591036 1.72417 0.000309525
-8.10008 0.563411 -3.36678 0.574558 1.72514 0.0003097
-8.75351 0.548482 -4.2828 0.55677 1.71961 0.000308706
-9.44812 0.532611 -5.24172 0.538149 1.70902 0.000306805
-10.1792 0.515906 -6.22835 0.51899 1.68899 0.00030321
-10.9378 0.498576 -7.23782 0.499387 1.65282 0.000296717
-11.7137 0.480847 -8.26037 0.47953 1.59863 0.000286987
-12.4981 0.462926 -9.2816 0.4597 1.52669 0.000274074
-13.2798 0.445065 -10.2921 0.440076 1.43442 0.000257509
-14.0473 0.427529 -11.2877 0.420745 1.31853 0.000236704
-14.7936 0.410477 -12.2616 0.401831 1.17888 0.000211633
-15.518 0.393927 -13.2043 0.383525 1.01671 0.000182521
-16.2246 0.377781 -14.1065 0.366007 0.831841 0.000149333
-16.8967 0.362426 -14.9527 0.349575 0.623189 0.000111876
-17.5343 0.347858 -15.7345 0.334393 0.393966 7.07253e-05
-18.1907 0.332862 -16.4785 0.319945 0.155096 2.7843e-05
-18.8492 0.317815 -17.1657 0.3066 -0.0527291 -9.46599e-06
-19.4664 0.303714 -17.79 0.294478 -0.222741 -3.99868e-05
-20.0586 0.290183 -18.3611 0.283387 -0.351978 -6.31876e-05
-20.6292 0.277146 -18.8908 0.2731 -0.475824 -8.54206e-05
-21.1339 0.265614 -19.4074 0.26307 -0.624924 -0.000112187
-21.6394 0.254066 -19.9044 0.253419 -0.78754 -0.00014138
-22.1377 0.24268 -20.375 0.24428 -0.932758 -0.00016745
-22.6454 0.231081 -20.8352 0.235343 -1.05507 -0.000189407
-23.162 0.219276 -21.289 0.226531 -1.17912 -0.000211677
-23.6901 0.20721 -21.7467 0.217643 -1.30896 -0.000234985
-24.2435 0.194567 -22.2141 0.208567 -1.42697 -0.000256172
-24.8064 0.181705 -22.6947 0.199234 -1.52328 -0.000273461
-25.3749 0.168716 -23.194 0.189538 -1.60537 -0.000288197
-25.9412 0.155778 -23.7194 0.179335 -1.68099 -0.000301774
-26.5065 0.142862 -24.2771 0.168505 -1.74512 -0.000313285
-27.0654 0.130091 -24.869 0.157013 -1.79005 -0.000321352
-27.6156 0.117519 -25.4948 0.14486 -1.81676 -0.000326146
-28.1545 0.105208 -26.1519 0.1321 -1.83101 -0.000328705
-28.6915 0.0929387 -26.8309 0.118914 -1.83505 -0.00032943
-29.2418 0.0803657 -27.5199 0.105535 -1.82582 -0.000327773
-29.8191 0.0671739 -28.2052 0.0922277 -1.79686 -0.000322574
-30.4332 0.0531441 -28.8733 0.0792542 -1.74747 -0.000313708
-31.0899 0.0381399 -29.5141 0.0668104 -1.68207 -0.000301968
-31.7913 0.0221145 -30.1213 0.0550184 -1.6048 -0.000288096
-32.5365 0.0050887 -30.669 0.0443834 -1.51966 -0.000272811
-32.7285 0.000699899 -31.1891 0.0342827 -1.41841 -0.000254635
-32.7373 0.000501016 -31.6487 0.0253594 -1.32494 -0.000237855
-32.7422 0.000387581 -32.0788 0.0170073 -1.22677 -0.000220231
-32.7464 0.000291739 -32.5284 0.00827563 -1.12083 -0.000201213
-32.7496 0.0002194 -32.9139 0.000790894 -1.02325 -0.000183696
-32.7519 0.000167387 -32.9342 0.000395833 -0.958841 -0.000172132
-32.7536 0.000128509 -32.9406 0.000272579 -0.891201 -0.00015999
-32.7553 8.83009e-05 -32.945 0.000185863 -0.835782 -0.000150041
-32.7569 5.19764e-05 -32.9484 0.000119553 -0.795939 -0.000142888
-32.758 2.59186e-05 -32.9506 7.74725e-05 -0.766024 -0.000137518
-32.759 4.25852e-06 -32.9521 4.85732e-05 -0.747623 -0.000134214
-32.76 -1.78506e-05 -32.9535 2.18291e-05 -0.746673 -0.000134044
-32.7608 -3.7182e-05 -32.9546 -1.05438e-06 -0.762732 -0.000136927
-32.7614 -5.14828e-05 -32.9554 -1.63199e-05 -0.792355 -0.000142244
-32.762 -6.3644e-05 -32.956 -2.69758e-05 -0.836293 -0.000150132
-32.7625 -7.53381e-05 -32.9565 -3.63235e-05 -0.896507 -0.000160942
-32.7629 -8.50203e-05 -32.9568 -4.31476e-05 -0.971187 -0.000174349
-32.7632 -9.26559e-05 -32.957 -4.60617e-05 -1.05716 -0.000189782
-32.7635 -9.92373e-05 -32.9562 -4.60718e-05 -1.15381 -0.000207133
-32.7638 -0.000105756 -32.9511 -4.44688e-05 -1.26036 -0.000226262
-32.7641 -0.000112276 -32.9396 -4.08381e-05 -1.37377 -0.00024662
-32.7644 -0.000118589 -32.92 -3.46805e-05 -1.49053 -0.000267583
-32.7646 -0.000124818 -32.8941 -2.65517e-05 -1.59355 -0.000286076
-32.765 -0.000132522 -32.868 -1.83325e-05 -1.68542 -0.000302569
-32.7653 -0.000139872 -32.8369 -8.56048e-06 -1.73895 -0.000312178
-32.7656 -0.000146733 -32.8086 3.55048e-07 -1.77717 -0.000319041
-32.7659 -0.000153865 -32.7858 7.50396e-06 -1.81359 -0.000325578
-32.7662 -0.000160118 -32.7701 1.24573e-05 -1.85378 -0.000332793
-32.7664 -0.000165317 -32.764 1.43644e-05 -1.88998 -0.000339291
-32.7666 -0.00017056 -32.7675 1.32746e-05 -1.91315 -0.000343451
-32.7668 -0.000174085 -32.7792 9.57639e-06 -1.92696 -0.00034593
-32.7668 -0.000174849 -32.7985 3.50628e-06 -1.93798 -0.000347909
-32.7667 -0.000174796 -32.829 -6.06251e-06 -1.94447 -0.000349074
-32.7654 -0.000174135 -32.8701 -1.90058e-05 -1.93752 -0.000347826
-32.7583 -0.000170571 -32.9182 -3.41149e-05 -1.91419 -0.000343637
-32.7444 -0.000163579 -32.9572 -5.06031e-05 -1.87846 -0.000337223
-32.7261 -0.000154333 -32.9581 -6.82409e-05 -1.83416 -0.00032927
-32.703 -0.000142745 -32.959 -8.60188e-05 -1.78315 -0.000320114
-32.6713 -0.000126753 -32.9599 -0.000102357 -1.72804 -0.000310219
-32.6328 -0.000107407 -32.9606 -0.000116428 -1.67229 -0.000300212
-32.5906 -8.61463e-05 -32.9612 -0.000127775 -1.62045 -0.000290906
-32.5431 -6.22586e-05 -32.9615 -0.000134583 -1.57545 -0.000282827
-32.4914 -3.6259e-05 -32.9617 -0.000138061 -1.53759 -0.00027603
-32.4439 -1.23141e-05 -32.96 -0.000138075 -1.50556 -0.000270279
-32.4002 9.65475e-06 -32.9418 -0.000132341 -1.4823 -0.000266104
-32.3534 3.32043e-05 -32.8965 -0.000118108 -1.47139 -0.000264146
-32.3076 5.62667e-05 -32.8241 -9.5339e-05 -1.472 -0.000264255
-32.2708 7.48061e-05 -32.7267 -6.46963e-05 -1.4806 -0.000265799
-32.2412 8.97037e-05 -32.5997 -2.4762e-05 -1.49551 -0.000268476
-32.2141 0.000103297 -32.4371 2.63588e-05 -1.51525 -0.00027202
-32.1954 0.00011272 -32.2383 8.88601e-05 -1.53577 -0.000275703
-32.1889 0.000115992 -31.9924 0.000166202 -1.55152 -0.000278531
-32.1837 0.00011861 -31.6604 0.000270598 -1.56033 -0.000280112
-32.1831 0.000118938 -31.1616 0.000427432 -1.55808 -0.000279709
-32.1894 0.000115728 -30.1772 0.000736961 -1.54112 -0.000276665
-32.1995 0.000110666 -26.9113 0.00176391 -1.50774 -0.000270672
-32.2077 0.000106532 -20.5175 0.00377437 -1.45617 -0.000261413
-32.2122 0.000104281 -14.75 0.00558792 -1.38017 -0.000247769
-32.2156 0.000102543 -10.408 0.00695321 -1.28047 -0.000229871
-32.216 0.000102358 -6.70552 0.00811743 -1.15747 -0.000207791
-32.2094 0.000105665 -4.07529 0.00894448 -1.01121 -0.000181533
-32.2005 0.000110176 -3.64532 0.00907968 -0.844182 -0.000151549
-32.1939 0.000113485 -5.48065 0.00850257 -0.660928 -0.000118651
-32.1823 0.000119311 -8.93634 0.00741596 -0.466654 -8.37743e-05
-32.1662 0.000127402 -13.7357 0.00590684 -0.266167 -4.77826e-05
-32.1479 0.000136633 -19.6877 0.00403531 -0.0667289 -1.19793e-05
-32.1253 0.000148015 -26.4027 0.00192381 0.0869985 1.56181e-05
-32.1007 0.000160393 -30.1564 0.000743497 0.162456 2.91643e-05
-32.0719 0.000174879 -30.9248 0.000501885 0.222055 3.98636e-05
-32.0421 0.000189856 -31.2838 0.000389006 0.279594 5.01931e-05
-32.0203 0.000200874 -31.5049 0.000319471 0.333305 5.98353e-05
-31.9999 0.000211118 -31.6361 0.000278218 0.364594 6.54523e-05
-31.9871 0.000217559 -31.7042 0.000256829 0.370859 6.65771e-05
-31.9854 0.000218417 -31.726 0.000249962 0.356913 6.40735e-05
-31.994 0.000214102 -31.7032 0.000257133 0.318975 5.72628e-05
-32.0101 0.000205974 -31.6281 0.000280745 0.250067 4.48923e-05
-32.0393 0.000191309 -31.4998 0.000321076 0.150746 2.70622e-05
-32.0737 0.000173969 -31.3044 0.000382526 0.0289514 5.1974e-06
-32.1173 0.000152045 -31.0172 0.000472824 -0.0801582 -1.43901e-05
-32.1627 0.000129196 -30.5619 0.000616006 -0.187966 -3.37438e-05
-32.2038 0.00010851 -29.6518 0.000902174 -0.307721 -5.52424e-05
-32.2412 8.96774e-05 -27.4489 0.00159485 -0.44232 -7.94059e-05
-32.2759 7.22058e-05 -24.6153 0.00248586 -0.57757 -0.000103686
-32.3054 5.73948e-05 -22.5558 0.00313344 -0.701864 -0.000125999
-32.3281 4.59246e-05 -21.5394 0.00345306 -0.818015 -0.000146851
-32.3458 3.70302e-05 -21.7101 0.00339937 -0.929638 -0.00016689
-32.3591 3.03625e-05 -23.1697 0.00294042 -1.03257 -0.000185368
-32.3698 2.49744e-05 -25.9994 0.00205064 -1.12006 -0.000201075
-32.3789 2.0379e-05 -29.247 0.00102948 -1.19221 -0.000214026
-32.3866 1.65267e-05 -30.5122 0.000631625 -1.25471 -0.000225248
-32.3814 1.91341e-05 -31.0539 0.0004613 -1.30764 -0.000234749
-32.3718 2.39784e-05 -31.4023 0.000351758 -1.34955 -0.000242273
-32.3659 2.69446e-05 -31.6674 0.00026839 -1.37976 -0.000247696
-32.3556 3.21093e-05 -31.8736 0.000203534 -1.40178 -0.000251649
-32.338 4.09726e-05 -32.0364 0.000152368 -1.41913 -0.000254765
-32.3153 5.23708e-05 -32.6486 -4.01293e-05 -1.41359 -0.00025377
-32.2705 7.49408e-05 -32.2798 7.58338e-05 -1.0696 -0.000192015
-32.3337 4.31508e-05 -31.6929 0.000260376 -0.770373 -0.000138298
-32.2776 7.13492e-05 -32.1562 0.000114676 -0.960228 -0.000172381
-32.2643 7.80682e-05 -32.7682 -7.7734e-05 -1.16495 -0.000209134
-32.2426 8.89546e-05 -32.7865 -8.34901e-05 -1.13729 -0.000204169
-32.2665 7.69388e-05 -32.4297 2.86751e-05 -1.08539 -0.000194851
-32.2755 7.2426e-05 -32.465 1.75854e-05 -1.25121 -0.000224619
-32.2793 7.05183e-05 -32.6863 -5.20082e-05 -1.4518 -0.000260629
-32.2912 6.4532e-05 -32.7538 -7.32162e-05 -1.5044 -0.000270072
-32.3217 4.91873e-05 -32.6023 -2.55881e-05 -1.53398 -0.000275382
-32.3553 3.2282e-05 -32.5378 -5.29837e-06 -1.67363 -0.000300452
-32.3817 1.89691e-05 -32.5632 -1.32875e-05 -1.83959 -0.000330245
-32.4144 2.53505e-06 -32.5728 -1.62962e-05 -1.92535 -0.000345641
-32.4515 -1.61667e-05 -32.4889 1.00648e-05 -1.97988 -0.000355431
-32.4846 -3.28187e-05 -32.408 3.55254e-05 -2.09194 -0.000375547
-32.5157 -4.84513e-05 -32.3903 4.10694e-05 -2.23233 -0.000400751
-32.5467 -6.40814e-05 -32.3773 4.51594e-05 -2.3172 -0.000415986
-32.5772 -7.94114e-05 -32.3293 6.02657e-05 -2.35469 -0.000422716
-32.6065 -9.41808e-05 -32.2895 7.27846e-05 -2.40704 -0.000432116
-32.6369 -0.000109457 -32.2898 7.26791e-05 -2.47549 -0.000444403
-32.6635 -0.000122849 -32.3021 6.88248e-05 -2.51067 -0.000450719
-32.6881 -0.000135241 -32.3067 6.73624e-05 -2.50175 -0.000449117
-32.7139 -0.000148209 -32.3233 6.21573e-05 -2.47805 -0.000444862
-32.7394 -0.000161032 -32.3651 4.9004e-05 -2.44862 -0.00043958
-32.7547 -0.00016876 -32.417 3.268e-05 -2.3929 -0.000429577
-32.7659 -0.000174362 -32.4766 1.39293e-05 -2.29556 -0.000412102
-32.7671 -0.000180802 -32.5204 1.56905e-07 -2.16653 -0.000388939
-32.7674 -0.000188326 -32.5636 -1.34114e-05 -2.031 -0.000364609
-32.7677 -0.000193968 -32.63 -3.42888e-05 -1.89744 -0.00034063
-32.7679 -0.000198778 -32.7047 -5.77797e-05 -1.75515 -0.000315087
-32.7681 -0.000203721 -32.7744 -7.96956e-05 -1.60552 -0.000288225
-32.7683 -0.000208399 -32.8312 -9.75488e-05 -1.4603 -0.000262154
-32.7685 -0.000211933 -32.8799 -0.000112871 -1.32829 -0.000238456
-32.7686 -0.000214231 -32.9301 -0.000128653 -1.2122 -0.000217615
-32.7686 -0.000215816 -32.962 -0.000144292 -1.11498 -0.000200163
-32.7687 -0.000216439 -32.9628 -0.000158658 -1.04274 -0.000187194
-32.7683 -0.000216259 -32.9633 -0.000168165 -0.996782 -0.000178944
-32.7673 -0.00021578 -32.9635 -0.0001724 -0.976743 -0.000175346
-32.7658 -0.000215027 -32.9635 -0.000173963 -0.984806 -0.000176794
-32.7627 -0.000213436 -32.9589 -0.000172504 -1.02405 -0.000183838
-32.7535 -0.000208811 -32.9467 -0.000168654 -1.09562 -0.000196686
-32.741 -0.000202514 -32.9195 -0.000160108 -1.19276 -0.000214125
-32.7235 -0.000193713 -32.8762 -0.000146492 -1.30888 -0.000234971
-32.7109 -0.000187381 -32.8305 -0.000132139 -1.44102 -0.000258694
-32.7006 -0.000182204 -32.7841 -0.000117539 -1.58742 -0.000284975
-32.6805 -0.000172083 -32.7278 -9.98232e-05 -1.74521 -0.000313302
-32.6587 -0.000161098 -32.6617 -7.90642e-05 -1.90779 -0.00034249
-32.6425 -0.000152975 -32.5966 -5.8592e-05 -2.07151 -0.00037188
-32.6265 -0.000144917 -32.5383 -4.02402e-05 -2.23291 -0.000400854
-32.6071 -0.000135116 -32.4795 -2.17659e-05 -2.3837 -0.000427924
-32.5892 -0.000126117 -32.4193 -2.82246e-06 -2.50956 -0.00045052
-32.5733 -0.000118106 -32.3635 1.4728e-05 -2.58556 -0.000464163
-32.5573 -0.000110074 -32.2973 3.55257e-05 -2.72128 -0.000488528
-32.5328 -9.77327e-05 -32.2916 3.7323e-05 -2.17728 -0.000390867
-32.4999 -8.12029e-05 -32.2939 3.66084e-05 -2.13544 -0.000383357
-32.4778 -7.00638e-05 -32.2579 4.79369e-05 -2.49927 -0.000448672
-32.4368 -4.94068e-05 -32.2346 5.52448e-05 -2.69953 -0.000484623
-32.391 -2.64063e-05 -32.2584 4.77729e-05 -2.46606 -0.000442711
-32.3411 -1.26618e-06 -32.3063 3.27171e-05 -2.23333 -0.000400929
-32.2885 2.52259e-05 -32.3346 2.38005e-05 -2.26312 -0.000406278
-32.2291 5.5102e-05 -32.3484 1.94668e-05 -2.35206 -0.000422245
-32.1658 8.69738e-05 -32.3751 1.10676e-05 -2.23752 -0.000401683
-32.1028 0.000118643 -32.4209 -3.33165e-06 -2.01946 -0.000362537
-32.0287 0.000155944 -32.4593 -1.54045e-05 -1.9085 -0.000342617
-31.9518 0.000194645 -32.4725 -1.95524e-05 -1.89817 -0.000340763
-31.8707 0.000235476 -32.4778 -2.12267e-05 -1.83709 -0.000329796
-31.7743 0.000283965 -32.4858 -2.37341e-05 -1.69633 -0.000304527
-31.6542 0.000344425 -32.4853 -2.35809e-05 -1.57843 -0.000283361
-31.4971 0.000423482 -32.4733 -1.97982e-05 -1.53839 -0.000276174
-31.27 0.000537751 -32.4422 -1.00155e-05 -1.51734 -0.000272394
-30.8623 0.000742937 -32.4006 3.06109e-06 -1.46427 -0.000262868
-29.7578 0.00129881 -32.3494 1.91452e-05 -1.40712 -0.000252608
-25.4241 0.00347978 -32.2881 3.84126e-05 -1.388 -0.000249176
-19.9324 0.00624352 -32.204 6.48844e-05 -1.40014 -0.000251355
-14.2494 0.00910351 -32.0959 9.88691e-05 -1.40762 -0.000252698
-8.35908 0.0120679 -31.9682 0.000139003 -1.40318 -0.000251901
0.00776117 0.0169148 -31.8092 0.000189008 -1.40564 -0.000252343
0.115512 0.0258014 -31.6019 0.000254207 -1.42236 -0.000255344
0.273194 0.0388061 -31.3136 0.00034484 -1.43605 -0.000257802
0.452889 0.0536263 -30.8048 0.000504847 -1.4295 -0.000256625
0.626115 0.0679129 -29.1599 0.00102207 -1.4083 -0.000252821
0.783776 0.0809159 -21.0939 0.00355835 -1.39041 -0.000249608
0.938068 0.093641 -4.39573 0.00880893 -1.3684 -0.000245657
1.08955 0.106134 0.0929425 0.0167728 -1.3272 -0.00023826
1.22125 0.116996 0.26973 0.029292 -1.27671 -0.000229196
1.33729 0.126567 0.461565 0.0428767 -1.202 -0.000215785
1.43687 0.134779 0.648705 0.056129 -1.11313 -0.00019983
1.51916 0.141566 0.825873 0.068675 -1.00832 -0.000181015
1.58498 0.146995 0.992207 0.0804539 -0.904229 -0.000162328
1.62843 0.150578 1.15061 0.0916714 -0.756529 -0.000135813
1.64941 0.152308 1.30297 0.102461 -0.581466 -0.000104385
1.55325 0.152493 1.44595 0.112586 -0.401622 -7.20997e-05
0.916323 0.152173 1.57449 0.121688 -0.219496 -3.94041e-05
-0.093031 0.151243 1.681 0.129231 -0.11063 -1.98605e-05
-0.773881 0.147817 1.77655 0.135997 -0.000369656 -6.63611e-08
-1.63697 0.143474 1.85807 0.14177 0.0963911 1.73043e-05
-2.61946 0.138529 1.92514 0.14652 0.226761 4.07084e-05
-3.6894 0.133145 1.97381 0.149965 0.379922 6.82042e-05
-4.77183 0.127698 2.00689 0.152309 0.520272 9.33998e-05
-5.87454 0.122149 2.03196 0.154083 0.641982 0.00011525
-7.0276 0.116346 2.04571 0.155057 0.765304 0.000137388
-8.15262 0.110684 2.0519 0.155495 0.901054 0.000161758
-9.27348 0.105044 2.05755 0.155896 1.03583 0.000185954
-10.4024 0.0993625 2.06028 0.156089 1.15436 0.000207232
-11.5817 0.0934278 2.07077 0.156832 1.25704 0.000225666
-12.7826 0.0873848 2.06825 0.157136 1.34888 0.000242153
-14.0084 0.0812158 1.79637 0.15705 1.43608 0.000257807
-15.2471 0.0749825 1.46366 0.156945 1.51588 0.000272133
-16.433 0.0690144 1.04664 0.156814 1.57571 0.000282873
-17.5386 0.0634508 0.179237 0.156542 1.61179 0.000289351
-18.5334 0.0584448 -0.211553 0.15543 1.6373 0.00029393
-19.4343 0.0539107 -0.577016 0.153608 1.65651 0.000297378
-20.2459 0.0498265 -1.01504 0.151424 1.65641 0.00029736
-20.9618 0.046224 -1.54039 0.148805 1.61759 0.000290392
-21.6098 0.0429633 -2.15658 0.145732 1.54173 0.000276773
-22.2206 0.0398894 -2.86756 0.142187 1.43875 0.000258287
-22.7999 0.0369739 -3.65946 0.138239 1.31211 0.000235552
-23.3392 0.0342602 -4.52474 0.133925 1.15902 0.000208068
-23.8405 0.0317372 -5.47909 0.129166 0.979263 0.000175799
-24.3034 0.0294078 -6.55547 0.123799 0.778484 0.000139755
-24.7244 0.0272894 -7.76671 0.11776 0.562794 0.000101033
-25.0894 0.0254524 -9.1089 0.111068 0.334912 6.01239e-05
-25.384 0.0239699 -10.5636 0.103814 0.107818 1.93556e-05
-25.6127 0.0228188 -12.063 0.0963382 -0.0788702 -1.41589e-05
-25.7554 0.022101 -13.6041 0.0886542 -0.227175 -4.07828e-05
-25.6591 0.0221032 -15.3618 0.0798902 -0.344816 -6.19019e-05
-25.1944 0.0223371 -17.3356 0.0700489 -0.473224 -8.49538e-05
-24.2902 0.0227921 -19.4897 0.0593082 -0.62747 -0.000112644
-22.8604 0.0235117 -21.7447 0.048065 -0.783741 -0.000140698
-20.9418 0.0244773 -24.0824 0.0364091 -0.918501 -0.00016489
-18.5995 0.025656 -26.5498 0.0241061 -1.03883 -0.000186491
-15.9204 0.0270043 -29.1446 0.0111686 -1.16648 -0.000209409
-12.9767 0.0284857 -31.2419 0.00071111 -1.31209 -0.000235548
-10.3391 0.0298131 -31.2997 0.000423045 -1.4862 -0.000266805
-8.34109 0.0308187 -31.3211 0.000316083 -1.63202 -0.000292982
-6.39112 0.0318 -31.334 0.000252185 -1.77388 -0.000318448
-3.87606 0.0330657 -31.3435 0.000204738 -1.93688 -0.00034771
0.000612506 0.0350656 -31.3509 0.000167979 -2.11227 -0.000379197
0.0365648 0.0379553 -31.3558 0.000143534 -2.30216 -0.000413287
0.0791975 0.041382 -31.358 0.000132329 -2.45029 -0.000439879
0.126914 0.0452172 -31.3586 0.000129589 -2.55752 -0.000459129
0.177123 0.0492528 -31.3559 0.000130426 -2.68166 -0.000481415
0.215716 0.0523548 -31.3506 0.000132068 -2.92524 -0.000525143
0.239868 0.054296 -31.3007 0.000147776 -3.08319 -0.000553499
0.248399 0.0549817 -31.2419 0.000166256 -2.96544 -0.00053236
0.141733 0.055 -31.1772 0.000186601 -2.94209 -0.000528167
-0.194455 0.054512 -31.0998 0.000210957 -3.11565 -0.000559326
-0.648287 0.0535394 -30.9961 0.000243549 -3.39841 -0.000610088
-1.26746 0.0522125 -30.8883 0.000277441 -3.54043 -0.000635582
-1.9794 0.0506867 -30.7834 0.000310418 -3.47507 -0.00062385
-2.52518 0.0495171 -30.6894 0.000340003 -3.34839 -0.000601108
-3.1845 0.0481041 -30.6179 0.000362462 -3.32568 -0.000597031
-3.96822 0.0464245 -30.5396 0.000387089 -3.40628 -0.0006115
-4.87632 0.0444784 -30.4683 0.000409509 -3.3882 -0.000608255
-5.92406 0.042233 -30.4468 0.00041628 -3.19509 -0.000573587
-7.04378 0.0398334 -30.4732 0.000407982 -2.95762 -0.000530955
-8.18685 0.0373837 -30.5218 0.000392686 -2.78217 -0.000499459
-9.28011 0.0350408 -30.5746 0.000376097 -2.61751 -0.000469898
-10.1886 0.0330938 -30.6351 0.000357051 -2.3878 -0.000428662
-11.0664 0.0312127 -30.7188 0.000330745 -2.11236 -0.000379213
-12.0911 0.0290167 -30.8197 0.000299026 -1.85046 -0.000332196
-13.1632 0.026719 -30.9015 0.000273291 -1.57117 -0.000282058
-14.0719 0.0247718 -30.9556 0.0002563 -1.28918 -0.000231435
-15.1317 0.0225005 -31.0182 0.000236616 -1.00958 -0.000181241
-16.2724 0.0200559 -31.0781 0.000217776 -0.732843 -0.000131561
-17.3729 0.0176974 -31.111 0.000207426 -0.462179 -8.29709e-05
-18.3661 0.0155689 -31.1164 0.000205734 -0.203826 -3.65911e-05
-19.292 0.0135847 -31.1025 0.000210084 -0.0418249 -7.50846e-06
-20.2552 0.0115204 -31.0656 0.000221688 0.0569459 1.0223e-05
-21.2058 0.00948327 -30.9923 0.000244735 0.138879 2.49317e-05
-21.9775 0.00782933 -30.8708 0.000282964 0.215598 3.87044e-05
-22.7051 0.0062702 -30.6857 0.00034116 0.291324 5.22988e-05
-23.399 0.0047831 -30.3851 0.000435682 0.358388 6.43382e-05
-24.0146 0.00346378 -29.7774 0.000626774 0.408551 7.33436e-05
-24.5286 0.00236216 -27.5094 0.00133991 0.441361 7.92338e-05
-24.8831 0.00160247 -21.043 0.00337323 0.463128 8.31414e-05
-25.0264 0.00129541 -14.0236 0.00558041 0.484777 8.70277e-05
-25.1097 0.00111692 -6.41136 0.007974 0.50234 9.01806e-05
-25.191 0.000942656 0.0309712 0.0121839 0.507055 9.10272e-05
-25.2536 0.000808494 0.125912 0.0189092 0.496556 8.91424e-05
-25.2961 0.000717409 0.241138 0.0270715 0.482391 8.65995e-05
-25.3302 0.000644332 0.35055 0.034822 0.469635 8.43094e-05
-25.3625 0.000575135 0.438792 0.0410728 0.451591 8.10701e-05
-25.3878 0.000520943 0.503107 0.0456287 0.428658 7.69533e-05
-25.4058 0.000482355 0.546134 0.0486766 0.410573 7.37065e-05
-25.4221 0.000447363 0.563424 0.0499014 0.404318 7.25837e-05
-25.4361 0.000417394 -0.013671 0.0497149 0.40139 7.2058e-05
-25.4432 0.000402174 -0.853148 0.0482044 0.395232 7.09525e-05
-25.4459 0.00039649 -2.43664 0.0453551 0.389791 6.99758e-05
-25.4479 0.000392035 -4.75315 0.0411869 0.390886 7.01724e-05
-25.4433 0.000394108 -7.65821 0.0359598 0.391772 7.03314e-05
-25.4186 0.000406505 -11.027 0.0298982 0.385534 6.92116e-05
-25.3804 0.000425745 -14.7785 0.023148 0.3752 6.73565e-05
-25.3341 0.000449056 -18.7863 0.0159366 0.367352 6.59475e-05
-25.2734 0.00047957 -22.811 0.0086948 0.358332 6.43283e-05
-25.1846 0.00052426 -26.7725 0.00156674 0.333013 5.97829e-05
-25.0992 0.000567272 -27.3764 0.000480158 0.262167 4.70645e-05
-24.9695 0.000632528 -27.4658 0.0003193 0.181805 3.26378e-05
-24.7675 0.000734168 -27.5121 0.000235972 0.0843458 1.51419e-05
-24.5142 0.000861642 -27.5427 0.000181 -0.0455528 -8.17771e-06
-24.0808 0.00107975 -27.5625 0.000145232 -0.197375 -3.5433e-05
-23.3139 0.00146572 -27.5772 0.000118823 -0.355719 -6.38591e-05
-22.2093 0.00202163 -27.5865 0.000102192 -0.508548 -9.12953e-05
-20.6352 0.00281378 -27.591 9.4069e-05 -0.657283 -0.000117996
-18.7497 0.00376269 -27.5879 9.44202e-05 -0.822234 -0.000147608
-16.6556 0.00481656 -27.5693 0.000100263 -1.0213 -0.000183345
-14.3616 0.00597104 -27.5396 0.000109601 -1.24207 -0.000222977
-11.8599 0.00723007 -27.4974 0.000122884 -1.458 -0.000261742
-9.19133 0.00857303 -27.4407 0.000140695 -1.65789 -0.000297626
-6.38553 0.00998507 -27.3724 0.00016217 -1.85268 -0.000332595
-2.77635 0.0118014 -27.2997 0.000185027 -2.0542 -0.000368772
0.0216259 0.0149897 -27.2298 0.00020702 -2.25445 -0.000404722
0.0923372 0.0208459 -27.156 0.000230233 -2.43831 -0.000437728
0.196604 0.0294811 -27.0836 0.00025298 -2.59611 -0.000466057
0.314397 0.0392365 -27.0254 0.000271305 -2.72938 -0.000489982
0.438618 0.0495243 -26.9836 0.000284435 -2.84365 -0.000510496
0.572439 0.0606072 -26.9514 0.000294565 -2.93838 -0.000527502
0.721716 0.07297 -26.9297 0.000301392 -3.01021 -0.000540397
0.886056 0.0865804 -26.9272 0.000302177 -3.05376 -0.000548215
1.05658 0.100703 -26.9393 0.000298378 -3.0673 -0.000550646
1.22375 0.114548 -26.9552 0.000293366 -3.05352 -0.000548171
1.39352 0.128608 -26.9713 0.000288308 -3.00923 -0.000540221
1.562 0.142561 -26.9831 0.000284606 -2.92469 -0.000525045
1.73048 0.156514 -26.9856 0.000283793 -2.80276 -0.000503155
1.88781 0.169544 -26.9708 0.000288468 -2.65844 -0.000477246
2.03117 0.181417 -26.9447 0.000296663 -2.51819 -0.000452069
2.16232 0.192279 -26.8851 0.000315421 -2.37466 -0.000426302
2.27943 0.201978 -26.7625 0.000353952 -2.20151 -0.000395218
2.38022 0.210325 -26.5616 0.000417129 -2.02164 -0.000362927
2.45933 0.216877 -26.2082 0.000528246 -1.85548 -0.000333098
2.52143 0.22202 -25.3009 0.000813557 -1.6974 -0.00030472
2.56737 0.225824 -20.3744 0.00236265 -1.50995 -0.000271068
2.59991 0.228519 -11.8478 0.00504374 -1.29851 -0.00023311
2.62282 0.230416 -0.198201 0.00870686 -1.09073 -0.000195808
2.60522 0.230774 0.142414 0.0188768 -0.919862 -0.000165135
2.62829 0.23087 0.354996 0.0339646 -0.75009 -0.000134657
2.63536 0.231455 0.581673 0.0500528 -0.549481 -9.86435e-05
2.64006 0.231845 0.806231 0.0659905 -0.331242 -5.94651e-05
2.64823 0.232521 1.02066 0.0812094 -0.17111 -3.0718e-05
2.67256 0.234536 1.22345 0.0956021 -0.0770975 -1.38406e-05
2.70775 0.23745 1.42706 0.110053 0.00737679 1.32429e-06
2.74952 0.24091 1.62777 0.124298 0.10569 1.89736e-05
2.80044 0.245126 1.82003 0.137943 0.220249 3.95395e-05
2.86175 0.250205 2.00342 0.15096 0.337392 6.0569e-05
2.9328 0.256088 2.17989 0.163484 0.448088 8.04413e-05
3.00881 0.262384 2.35235 0.175725 0.559056 0.000100362
3.08732 0.268886 2.53888 0.188964 0.686521 0.000123245
3.16409 0.275243 2.73419 0.202825 0.793726 0.000142491
3.25502 0.282774 2.90658 0.21506 0.878724 0.00015775
3.34444 0.29018 3.07442 0.226973 1.00616 0.000180626
3.43031 0.297291 3.25284 0.239636 1.15533 0.000207406
3.51768 0.304527 3.43429 0.252514 1.26468 0.000227036
3.60911 0.312099 3.60675 0.264754 1.30244 0.000233815
3.69942 0.319579 3.77552 0.276732 1.36717 0.000245436
3.78798 0.326913 3.95027 0.289135 1.51977 0.000272831
3.88065 0.334588 4.12382 0.301453 1.64152 0.000294689
3.97695 0.342564 4.28945 0.313208 1.66975 0.000299755
4.07505 0.350688 4.44851 0.324497 1.68689 0.000302832
4.17588 0.359039 4.60587 0.335665 1.75284 0.000314673
4.28217 0.367841 4.75759 0.346434 1.82554 0.000327724
4.39177 0.376918 4.90058 0.356582 1.85185 0.000332446
4.50035 0.38591 5.04148 0.366582 1.84577 0.000331355
4.64219 0.397657 5.1926 0.377308 1.8474 0.000331647
4.76963 0.408212 5.32951 0.387025 1.86517 0.000334837
4.88132 0.417462 5.4533 0.395811 1.86495 0.000334798
4.99964 0.427261 5.56974 0.404075 1.83147 0.000328788
5.11141 0.436517 5.67556 0.411585 1.78787 0.00032096
5.21053 0.444726 5.7644 0.417891 1.74548 0.000313352
5.30989 0.452955 5.83762 0.423088 1.69421 0.000304148
5.40654 0.46096 5.89544 0.427191 1.62867 0.000292381
5.49113 0.467966 5.93601 0.430071 1.55646 0.000279417
5.56649 0.474207 5.95905 0.431706 1.48468 0.000266531
5.63441 0.479832 5.93442 0.432113 1.41356 0.000253765
5.68797 0.484267 5.24985 0.431897 1.33821 0.000240238
5.72469 0.487309 3.81204 0.431445 1.25902 0.000226021
5.74452 0.488951 1.61911 0.430756 1.17972 0.000211785
5.72985 0.489249 -0.129506 0.428543 1.10678 0.000198691
5.37615 0.489071 -0.504278 0.423611 1.04101 0.000186883
4.62007 0.488691 -0.977397 0.417385 0.975986 0.00017521
3.5165 0.488135 -1.52321 0.410203 0.915859 0.000164416
2.09589 0.487421 -2.14062 0.402079 0.8612 0.000154604
-0.000732512 0.486355 -2.83877 0.392892 0.809279 0.000145283
-0.175836 0.483724 -3.59684 0.382917 0.758003 0.000136078
-0.442223 0.479722 -4.39535 0.372409 0.708956 0.000127273
-0.72126 0.47553 -5.23132 0.361409 0.660874 0.000118641
-1.00508 0.471266 -6.09083 0.350099 0.60984 0.000109479
-1.27824 0.467163 -6.96475 0.338599 0.555999 9.98137e-05
-1.53432 0.463316 -7.83912 0.327093 0.498535 8.94976e-05
-1.77048 0.459768 -8.7008 0.315755 0.435843 7.82431e-05
-1.98521 0.456542 -9.53768 0.304742 0.365567 6.5627e-05
-2.17664 0.453666 -10.3355 0.294244 0.288015 5.17049e-05
-2.34294 0.451168 -11.0808 0.284437 0.203608 3.65519e-05
-2.48246 0.449072 -11.7628 0.275463 0.114302 2.05196e-05
-2.59457 0.447388 -12.371 0.267459 0.033387 5.99368e-06
-2.68038 0.446099 -12.8974 0.260533 -0.0469262 -8.42425e-06
-2.74568 0.445118 -13.3415 0.254689 -0.139894 -2.51139e-05
-2.81118 0.444133 -13.6829 0.250196 -0.212899 -3.82199e-05
-2.8978 0.442832 -13.9272 0.246982 -0.281278 -5.04954e-05
-3.02955 0.440853 -14.0688 0.245118 -0.353929 -6.35377e-05
-3.2256 0.437908 -14.1093 0.244586 -0.434665 -7.80316e-05
-3.49413 0.433874 -13.5153 0.244773 -0.520262 -9.33981e-05
-3.83923 0.428689 -12.2521 0.24517 -0.60295 -0.000108242
-4.25693 0.422414 -10.5016 0.24572 -0.677595 -0.000121643
-4.68557 0.415975 -8.64537 0.246304 -0.742891 -0.000133365
-5.17249 0.40866 -6.71192 0.246912 -0.803228 -0.000144196
-5.71241 0.400548 -4.98835 0.247454 -0.858499 -0.000154119
-6.27465 0.392102 -3.62926 0.247881 -0.904454 -0.000162369
-6.87223 0.383125 -2.61447 0.2482 -0.937408 -0.000168285
-7.49766 0.373729 -2.61685 0.2482 -0.954042 -0.000171271
-8.14853 0.363951 -3.90655 0.247794 -0.956585 -0.000171727
-8.81821 0.35389 -6.46105 0.246991 -0.943866 -0.000169444
-9.52397 0.343288 -10.1223 0.24584 -0.904068 -0.000162299
-10.2561 0.332288 -14.1296 0.244319 -0.827809 -0.000148609
-10.9761 0.321472 -14.452 0.240076 -0.722256 -0.00012966
-11.7434 0.309946 -14.8412 0.234955 -0.617972 -0.000110939
-12.538 0.298008 -15.2585 0.229463 -0.509277 -9.14261e-05
-13.3593 0.285669 -15.6807 0.223908 -0.387641 -6.95898e-05
-14.2403 0.272435 -16.125 0.218062 -0.243711 -4.37512e-05
-15.1829 0.258274 -16.598 0.211837 -0.122469 -2.19858e-05
-16.1629 0.243551 -17.1038 0.205182 -0.0292187 -5.24537e-06
-17.1439 0.228813 -17.6229 0.198351 0.0540349 9.70042e-06
-18.1213 0.21413 -18.1612 0.191267 0.140995 2.53117e-05
-19.0886 0.199598 -18.7349 0.183719 0.237053 4.2556e-05
-20.039 0.185321 -19.3314 0.175869 0.330877 5.93994e-05
-20.9638 0.171428 -19.932 0.167966 0.411069 7.37956e-05
-21.8753 0.157734 -20.5142 0.160306 0.477888 8.57911e-05
-22.7929 0.14395 -21.0875 0.15276 0.537492 9.64913e-05
-23.7217 0.129996 -21.6394 0.145498 0.591256 0.000106143
-24.6581 0.115928 -22.1608 0.138638 0.63334 0.000113698
-25.6017 0.101753 -22.6503 0.132196 0.657132 0.000117969
-26.5491 0.0875209 -23.1166 0.126061 0.663778 0.000119162
-27.486 0.0734451 -23.5718 0.120071 0.654664 0.000117526
-28.4052 0.059636 -24.0248 0.11411 0.622763 0.000111799
-29.297 0.0462393 -24.4804 0.108115 0.564788 0.000101391
-30.1484 0.0334482 -24.9469 0.101976 0.486117 8.72684e-05
-30.9499 0.0214068 -25.4357 0.0955443 0.392574 7.04754e-05
-31.6925 0.0102516 -25.9624 0.0886134 0.283378 5.08723e-05
-32.2921 0.00124283 -26.5437 0.0809637 0.154275 2.76957e-05
-32.3245 0.00075721 -27.2512 0.0716548 0.0224113 4.0233e-06
-32.3345 0.00060596 -27.9457 0.0625158 -0.0700308 -1.2572e-05
-32.3403 0.000518865 -28.6858 0.0527764 -0.129583 -2.32629e-05
-32.3446 0.000454206 -29.5213 0.0417826 -0.205052 -3.68112e-05
-32.3476 0.000410271 -30.401 0.0302069 -0.317495 -5.69972e-05
-32.3493 0.000384582 -31.2932 0.0184658 -0.449994 -8.07835e-05
-32.3505 0.000366368 -32.2148 0.00633966 -0.571938 -0.000102675
-32.3524 0.000338216 -32.6524 0.00058156 -0.693103 -0.000124427
-32.3533 0.00032379 -32.6682 0.000373061 -0.821714 -0.000147515
-32.3537 0.000317843 -32.6751 0.000282122 -0.961779 -0.00017266
-32.3547 0.000303544 -32.6799 0.000219194 -1.12681 -0.000202286
-32.3555 0.000290657 -32.6838 0.000167778 -1.30863 -0.000234927
-32.3544 0.000289249 -32.6869 0.000126685 -1.48505 -0.000266597
-32.3468 0.000293076 -32.6893 9.55306e-05 -1.64593 -0.000295479
-32.3386 0.000297204 -32.6911 7.16214e-05 -1.80553 -0.000324131
-32.3147 0.000309221 -32.6925 5.32318e-05 -1.98538 -0.000356418
-32.2611 0.000336186 -32.6938 3.58853e-05 -2.18523 -0.000392296
-32.1857 0.000374144 -32.6953 1.70331e-05 -2.37982 -0.000427228
-32.0743 0.000430201 -32.696 7.47979e-06 -2.55397 -0.000458492
-31.9158 0.000509956 -32.6964 2.57736e-06 -2.71949 -0.000488207
-31.7093 0.000613923 -32.6968 -3.04377e-06 -2.91967 -0.000524144
-31.424 0.00075746 -32.6972 -8.69543e-06 -3.08995 -0.000554711
-30.7997 0.00107167 -32.6975 -1.30871e-05 -3.24498 -0.000582543
-28.8128 0.0020716 -32.6933 -1.19256e-05 -3.39895 -0.000610184
-25.3286 0.00382506 -32.6755 -6.34018e-06 -3.45336 -0.000619951
-21.4386 0.00578271 -32.6556 -9.10883e-08 -3.49164 -0.000626824
-17.2891 0.00787098 -32.6275 8.76578e-06 -3.5023 -0.000628737
-13.0727 0.00999291 -32.6045 1.59912e-05 -3.49983 -0.000628293
-8.76378 0.0121614 -32.5768 2.47027e-05 -3.50085 -0.000628477
-2.48121 0.0153232 -32.5365 3.73741e-05 -3.53898 -0.000635322
0.0523929 0.0208912 -32.4901 5.1953e-05 -3.58063 -0.0006428
0.161533 0.0298888 -32.4473 6.54185e-05 -3.5944 -0.000645272
0.304664 0.0416886 -32.4066 7.82058e-05 -3.58426 -0.000643451
0.460689 0.0545515 -32.3587 9.32789e-05 -3.5777 -0.000642273
0.615235 0.0672923 -32.2978 0.000112431 -3.59142 -0.000644737
0.760898 0.0793009 -32.2432 0.000129607 -3.60448 -0.000647082
0.899652 0.0907399 -32.1961 0.000144395 -3.5621 -0.000639472
1.03045 0.101523 -32.1355 0.00016347 -3.44963 -0.000619282
1.15278 0.111608 -32.0676 0.00018482 -3.29749 -0.000591969
1.27095 0.12135 -31.9963 0.00020722 -3.11382 -0.000558997
1.3901 0.131173 -31.9301 0.000228063 -2.93577 -0.000527032
1.51389 0.141378 -31.8591 0.000250376 -2.74435 -0.000492669
1.64315 0.152034 -31.7795 0.000275405 -2.49643 -0.000448162
1.78324 0.163583 -31.6859 0.000304846 -2.20766 -0.000396322
1.93549 0.176135 -31.5737 0.000340128 -1.89771 -0.000340679
2.10432 0.190054 -31.4358 0.000383472 -1.58895 -0.000285251
2.28582 0.205017 -31.24 0.000445047 -1.25099 -0.00022458
2.47906 0.220948 -30.9043 0.000550605 -0.882066 -0.00015835
2.68615 0.23802 -30.1218 0.000796641 -0.502304 -9.01743e-05
2.89821 0.255503 -26.2713 0.00200742 -0.236828 -4.25157e-05
3.12355 0.27408 -19.2521 0.00421455 -0.0945944 -1.69817e-05
3.36013 0.293584 -11.2013 0.00674602 0.0311414 5.59054e-06
3.6009 0.313433 0.0196299 0.0116581 0.157259 2.82314e-05
3.83912 0.333072 0.175799 0.0227158 0.28192 5.06106e-05
4.08286 0.353166 0.406975 0.0390845 0.405345 7.2768e-05
4.33319 0.373803 0.681566 0.0585272 0.517615 9.29229e-05
4.58426 0.394502 0.98313 0.0798797 0.607477 0.000109055
4.83541 0.415207 1.30893 0.102949 0.679273 0.000121944
5.09508 0.436615 1.66133 0.1279 0.748932 0.000134449
5.36372 0.458761 2.0424 0.154882 0.823582 0.000147851
5.61982 0.479875 2.45741 0.184268 0.889536 0.000159691
5.96618 0.508428 2.94228 0.2186 0.938865 0.000168546
6.31907 0.537521 3.488 0.257239 1.02373 0.000183781
6.62831 0.563015 4.05965 0.297716 1.04502 0.000187604
6.96013 0.590371 4.58187 0.334692 1.07559 0.000193092
7.31372 0.619521 5.10793 0.37194 1.11551 0.000200257
7.64151 0.646544 5.65329 0.410555 1.2038 0.000216108
7.96583 0.673282 6.19634 0.449006 1.27559 0.000228995
8.30485 0.70123 6.70472 0.485003 1.22977 0.00022077
8.63486 0.728436 7.19177 0.519489 1.31051 0.000235264
8.93253 0.754589 7.66675 0.55312 1.52558 0.000273874
8.93253 0.782239 8.11491 0.584853 1.65945 0.000297907
8.93253 0.809528 8.52276 0.613731 1.68395 0.000302305
8.93253 0.835571 8.89799 0.640299 1.75933 0.000315838
8.93253 0.86028 8.93253 0.662945 1.93793 0.000347899
8.93253 0.882594 8.93253 0.681815 2.11982 0.000380552
8.93253 0.904411 8.93253 0.698378 2.22487 0.000399412
8.93253 0.923694 8.93253 0.713892 2.3258 0.000417531
8.93253 0.941807 8.93253 0.72764 2.38629 0.00042839
8.93253 0.959283 8.93253 0.740159 2.43051 0.000436329
8.93253 0.976475 8.93253 0.751617 2.45878 0.000441403
8.93253 0.992769 8.93253 0.762446 2.48808 0.000446663
8.93253 1.00854 8.93253 0.772936 2.52791 0.000453814
-1.0025 0.976495 -0.097701 0.771446 2.56349 0.000460202
-1.39097 0.961455 4.42887 0.771014 2.03586 0.000365479
3.55687 0.981858 8.93253 0.778334 2.06093 0.000369981
4.85478 0.989048 8.93253 0.800815 2.29578 0.000412141
6.41311 0.99768 8.93253 0.818221 2.42383 0.00043513
8.71938 1.01046 8.93253 0.838466 2.52742 0.000453726
8.93253 1.0257 8.93253 0.859084 2.63612 0.000473239
8.93253 1.03785 8.93253 0.877649 2.65691 0.000476971
8.93253 1.05248 8.93253 0.895048 2.60585 0.000467806
8.93253 1.06769 8.93253 0.912193 2.57585 0.00046242
8.93253 1.08148 8.93253 0.930605 2.60552 0.000467745
7.17763 1.08557 -0.0179554 0.897094 2.21402 0.000397463
8.93253 1.09151 -0.0534863 0.897948 2.46078 0.000441763
8.93253 1.11113 5.69236 0.918766 2.74853 0.00049342
8.93253 1.13047 8.93253 0.948431 2.46359 0.000442266
8.93253 1.1431 8.93253 0.973431 2.22627 0.000399663
8.93253 1.15553 8.93253 1.00014 2.21116 0.00039695
8.93253 1.16599 8.93253 1.0283 2.38752 0.000428611
8.93253 1.17355 8.93253 1.05478 2.39695 0.000430304
8.93253 1.18137 8.93253 1.07888 2.26806 0.000407164
8.93253 1.18876 8.93253 1.10301 2.24533 0.000403084
8.93253 1.19449 8.93253 1.12701 2.38231 0.000427675
8.93253 1.19966 8.93253 1.14894 2.5205 0.000452484
8.93253 1.20497 8.93253 1.16785 2.51365 0.000451254
8.93253 1.20947 8.93253 1.18509 2.45174 0.000440139
8.93253 1.21344 8.93253 1.20059 2.4451 0.000438948
8.93253 1.21716 8.93253 1.21364 2.50325 0.000449386
8.93253 1.22045 8.93253 1.22399 2.52957 0.000454111
8.93253 1.22323 8.93253 1.23231 2.5842 0.000463919
8.93253 1.22569 8.93253 1.23874 2.63322 0.000472718
8.93253 1.22786 8.93253 1.24309 2.66704 0.00047879
8.93253 1.22975 8.93253 1.24558 2.70881 0.00048629
8.93253 1.23149 8.93253 1.24671 2.7713 0.000497508
8.93253 1.23324 8.83763 1.24683 2.8375 0.000509391
8.93253 1.23506 8.28793 1.24666 2.89147 0.00051908
8.93253 1.23708 7.50893 1.24642 2.94142 0.000528048
8.93253 1.23937 6.79304 1.24619 2.99846 0.000538287
8.93253 1.24201 6.35989 1.24605 3.05864 0.000549091
8.93253 1.24511 6.44784 1.24608 3.11536 0.000559273
8.93253 1.24827 7.34222 1.24636 3.16148 0.000567552
8.93253 1.25152 8.93253 1.24705 3.1987 0.000574235
8.93253 1.25429 8.93253 1.25114 3.23642 0.000581007
8.93253 1.25681 8.93253 1.25756 3.27405 0.000587762
8.93253 1.25908 8.93253 1.26606 3.29653 0.000591798
8.93253 1.2611 8.93253 1.27644 3.30774 0.00059381
8.93253 1.26244 8.93253 1.28873 3.31501 0.000595114
8.93253 1.26334 8.93253 1.30288 3.31918 0.000595863
8.93253 1.26414 8.93253 1.31872 3.31695 0.000595464
8.93253 1.26496 8.93253 1.33146 1.18268 0.000212317
7.89229 1.27132 8.93253 1.33856 0.522407 9.37832e-05
8.04857 1.27139 8.93253 1.35893 0.422821 7.59054e-05
7.90216 1.27132 8.93253 1.37718 0.47601 8.54539e-05
7.2 1.27097 8.93253 1.39476 0.828372 0.00014871
7.1494 1.27094 8.93253 1.41401 0.818041 0.000146856
6.90576 1.27082 8.93253 1.43204 0.612959 0.000110039
6.42765 1.27058 8.93253 1.44733 0.443928 7.96945e-05
5.78034 1.27025 8.93253 1.46166 0.571018 0.00010251
4.82712 1.26977 8.93253 1.47533 0.735397 0.000132019
3.6581 1.26919 8.93253 1.48683 0.757999 0.000136077
2.33486 1.26852 8.93253 1.49529 0.651058 0.000116879
-0.00637902 1.2671 8.93253 1.50144 0.623548 0.00011194
-0.0846965 1.2641 8.93253 1.50587 0.69113 0.000124072
-0.209046 1.25933 8.93253 1.50813 0.754045 0.000135367
-0.361555 1.25348 8.38115 1.50812 0.744543 0.000133661
-0.535596 1.24681 6.52831 1.50754 0.701566 0.000125946
-0.724776 1.23956 3.41148 1.50656 0.708888 0.000127261
-0.92552 1.23186 -0.0372836 1.5038 0.762816 0.000136942
-1.1106 1.22477 -0.216287 1.4957 0.777913 0.000139652
-1.28931 1.21791 -0.452971 1.48499 0.812526 0.000145866
-1.45548 1.21154 -0.712316 1.47325 0.845494 0.000151784
-1.57461 1.20698 -0.933149 1.46326 0.864918 0.000155271
-1.67685 1.20306 -1.16175 1.45291 0.879985 0.000157976
-1.75967 1.19988 -1.39699 1.44226 0.896275 0.000160901
-1.82781 1.19727 -1.63455 1.43151 0.917889 0.000164781
-1.87317 1.19553 -1.86661 1.42101 0.941119 0.000168951
-1.90113 1.19446 -2.08407 1.41117 0.959367 0.000172227
-1.91078 1.19409 -2.28536 1.40206 0.969943 0.000174125
-1.91419 1.19396 -2.47108 1.39365 0.976779 0.000175353
-1.90483 1.19396 -2.63741 1.38612 0.98444 0.000176728
-1.86893 1.19397 -2.78201 1.37958 0.985482 0.000176915
-1.79853 1.19401 -2.89541 1.37445 0.964685 0.000173181
-1.71403 1.19405 -2.97842 1.37069 0.913133 0.000163927
-1.71952 1.19405 -3.03733 1.36802 0.829153 0.000148851
-1.83587 1.19399 -3.07019 1.36654 0.715761 0.000128494
-1.91935 1.19376 -3.01988 1.36622 0.572824 0.000102834
-1.93773 1.19306 -2.2272 1.36647 0.403995 7.25257e-05
-1.96609 1.19197 -0.726025 1.36694 0.252175 4.52709e-05
-2.01024 1.19028 0.0915341 1.36862 0.120923 2.17082e-05
-2.07781 1.18769 0.339319 1.37253 0.11606 2.08352e-05
-2.15866 1.18459 0.640539 1.37729 0.0920652 1.65277e-05
-2.25789 1.18078 0.96523 1.38242 0.033334 5.98416e-06
-2.37535 1.17628 1.29368 1.38761 -0.0378876 -6.80163e-06
-2.51201 1.17104 1.62285 1.39281 -0.0792824 -1.42329e-05
-2.66395 1.16521 1.93076 1.39767 -0.127919 -2.29641e-05
-2.83227 1.15876 2.20075 1.40194 -0.181018 -3.24965e-05
-3.01599 1.15172 2.41373 1.40531 -0.235155 -4.22153e-05
-3.21716 1.14401 2.56555 1.4077 -0.286457 -5.14252e-05
-3.40994 1.13661 2.6261 1.40866 -0.331021 -5.94252e-05
-3.61649 1.1287 2.09222 1.40849 -0.364987 -6.5523e-05
-3.84229 1.12004 0.550429 1.40801 -0.390389 -7.00831e-05
-4.07631 1.11107 -0.0545279 1.40553 -0.408022 -7.32487e-05
-4.30723 1.10221 -0.185324 1.39999 -0.418691 -7.51639e-05
-4.53993 1.09329 -0.363346 1.39245 -0.429211 -7.70525e-05
-4.7602 1.08485 -0.591331 1.3828 -0.439931 -7.8977e-05
-4.96365 1.07705 -0.871291 1.37094 -0.448235 -8.04678e-05
-5.14996 1.06991 -1.20117 1.35697 -0.449642 -8.07203e-05
-5.31847 1.06345 -1.57273 1.34124 -0.436391 -7.83414e-05
-5.4529 1.05829 -1.97812 1.32408 -0.407128 -7.30882e-05
-5.56088 1.05415 -2.41974 1.30538 -0.367503 -6.59746e-05
-5.64726 1.05084 -2.89503 1.28525 -0.319058 -5.72776e-05
-5.70477 1.04864 -3.39422 1.26411 -0.259067 -4.6508e-05
-5.73451 1.0475 -3.90526 1.24247 -0.193528 -3.47424e-05
-5.73733 1.04723 -4.40826 1.22118 -0.131846 -2.36691e-05
-5.59735 1.0473 -4.92129 1.19945 -0.0864001 -1.55107e-05
-5.36351 1.04742 -5.43538 1.17768 -0.0622561 -1.11763e-05
-4.94705 1.04763 -5.93875 1.15637 -0.0562883 -1.0105e-05
-4.44614 1.04788 -6.41993 1.13599 -0.0665489 -1.1947e-05
-4.0335 1.04809 -6.87087 1.1169 -0.0918303 -1.64855e-05
-3.78289 1.04822 -7.28555 1.09934 -0.13009 -2.33539e-05
-3.70122 1.04826 -7.6598 1.08349 -0.18353 -3.29476e-05
-3.77545 1.04822 -7.98977 1.06952 -0.242619 -4.35552e-05
-3.79745 1.04821 -8.26364 1.05793 -0.269405 -4.83639e-05
-3.87165 1.04817 -8.49815 1.048 -0.293673 -5.27206e-05
-4.15211 1.04803 -8.69557 1.03964 -0.309532 -5.55676e-05
-4.58476 1.04781 -8.85251 1.03299 -0.329759 -5.91988e-05
-5.00392 1.0476 -8.95829 1.02851 -0.365159 -6.55538e-05
-5.31506 1.04745 -9.00095 1.02671 -0.419296 -7.52725e-05
-5.59615 1.04731 -8.70121 1.0267 -0.489174 -8.78171e-05
-5.74581 1.04706 -7.71929 1.027 -0.567369 -0.000101855
-5.75806 1.04659 -6.21338 1.02748 -0.645686 -0.000115914
-5.73441 1.04648 -4.12177 1.02814 -0.715611 -0.000128467
-5.51055 1.04659 -0.756346 1.02919 -0.773727 -0.0001389
-5.5751 1.04656 0.0527823 1.03226 -0.82474 -0.000148058
-5.71745 1.04649 0.147644 1.03735 -0.878642 -0.000157735
-5.70958 1.04649 0.251499 1.04291 -0.941902 -0.000169092
-5.57503 1.04656 0.345013 1.04793 -1.01664 -0.000182508
-5.3044 1.0467 0.424559 1.05219 -1.09728 -0.000196985
-5.03782 1.04683 0.497926 1.05613 -1.17659 -0.000211224
-4.65708 1.04702 0.560634 1.05949 -1.24508 -0.000223519
-4.09549 1.0473 0.606663 1.06195 -1.29748 -0.000232924
-3.42976 1.04764 0.631333 1.06328 -1.33531 -0.000239716
-2.71895 1.048 0.451981 1.0634 -1.36343 -0.000244765
-1.98522 1.04837 -0.0187557 1.06265 -1.3881 -0.000249194
-0.991687 1.04887 -0.0993493 1.06007 -1.41173 -0.000253435
0.013578 1.0497 -0.213702 1.05641 -1.43696 -0.000257966
0.0674529 1.05105 -0.363537 1.0516 -1.46082 -0.000262249
0.13762 1.05279 -0.548549 1.04567 -1.4793 -0.000265565
0.203856 1.05444 -0.768249 1.03863 -1.48782 -0.000267095
0.245519 1.05548 -1.02242 1.03048 -1.47611 -0.000264994
0.191706 1.05562 -1.30201 1.02152 -1.43435 -0.000257496
-0.011446 1.05516 -1.5966 1.01208 -1.37051 -0.000246035
-0.0719752 1.05322 -1.89407 1.00254 -1.28493 -0.000230673
-0.157281 1.05049 -2.19702 0.992828 -1.1689 -0.000209842
-0.269823 1.04688 -2.48916 0.983463 -1.02704 -0.000184375
-0.411347 1.04235 -2.77296 0.974365 -0.896435 -0.000160929
-0.575478 1.0371 -3.05831 0.965218 -0.789087 -0.000141658
-0.764901 1.03103 -3.33916 0.956215 -0.680092 -0.000122091
-0.979865 1.02415 -3.59647 0.947967 -0.578167 -0.000103793
-1.21638 1.01658 -3.81914 0.940829 -0.446498 -8.01559e-05
-1.46934 1.00848 -4.00801 0.934774 -0.296258 -5.31845e-05
-1.72797 1.0002 -4.1653 0.929732 -0.145936 -2.61986e-05
-1.98141 0.992089 -4.29256 0.925653 -0.0419338 -7.52801e-06
-2.25182 0.983432 -4.40281 0.922118 -0.00892589 -1.60239e-06
-2.55485 0.973731 -4.48474 0.919492 -0.00574466 -1.03129e-06
-2.86833 0.963695 -4.54084 0.917694 -0.0176763 -3.17327e-06
-3.17463 0.953889 -4.56789 0.916827 -0.0270037 -4.84773e-06
-3.47151 0.944385 -4.38181 0.916827 -0.0171312 -3.07541e-06
-3.76368 0.935031 -3.71739 0.917036 0.0210562 3.78004e-06
-4.05651 0.925656 -2.58929 0.91739 0.0721077 1.29449e-05
-4.3391 0.916609 -1.04984 0.917874 0.0993409 1.78338e-05
-4.62204 0.907551 0.0152359 0.919211 0.104826 1.88184e-05
-4.90892 0.898367 0.0590242 0.922104 0.0945712 1.69775e-05
-5.1919 0.889308 0.116994 0.925933 0.076775 1.37827e-05
-5.47424 0.880269 0.184837 0.930415 0.0680282 1.22125e-05
-5.76353 0.871007 0.257806 0.935235 0.0734234 1.31811e-05
-6.07037 0.861184 0.335265 0.940352 0.0955827 1.71591e-05
-6.39876 0.850671 0.416306 0.945706 0.116147 2.08508e-05
-6.74271 0.83966 0.498516 0.951137 0.115309 2.07004e-05
-7.09789 0.828289 0.58138 0.956611 0.109565 1.96693e-05
-7.46058 0.816678 0.663176 0.962014 0.0969454 1.74038e-05
-7.82891 0.804886 0.740907 0.967149 0.0899823 1.61537e-05
-8.20631 0.792804 0.811488 0.971812 0.0918403 1.64873e-05
-8.59429 0.780383 0.872648 0.975852 0.0990547 1.77824e-05
-8.98691 0.767813 0.922436 0.979141 0.109938 1.97361e-05
-9.37601 0.755357 0.95893 0.981552 0.120002 2.15428e-05
-9.7583 0.743118 0.981368 0.983035 0.126028 2.26248e-05
-10.1333 0.731113 0.988009 0.983473 0.129124 2.31805e-05
-10.5021 0.719305 0.348054 0.983272 0.13257 2.37991e-05
-10.8663 0.707647 -0.0370843 0.982063 0.139964 2.51265e-05
-11.2165 0.696435 -0.14261 0.978932 0.155166 2.78556e-05
-11.5539 0.685633 -0.295108 0.974408 0.175795 3.15589e-05
-11.8723 0.67544 -0.489816 0.968632 0.199592 3.5831e-05
-12.1717 0.665856 -0.720912 0.961777 0.222848 4.0006e-05
-12.4515 0.656897 -0.993006 0.953705 0.243547 4.37219e-05
-12.7109 0.648594 -1.28898 0.944925 0.261547 4.69533e-05
-12.945 0.641098 -1.62219 0.93504 0.278095 4.99239e-05
-13.155 0.634376 -1.99329 0.924031 0.295119 5.29801e-05
-13.3425 0.628373 -2.39202 0.912203 0.315509 5.66406e-05
-13.5055 0.623156 -2.8078 0.899869 0.340877 6.11947e-05
-13.6475 0.618608 -3.23523 0.887189 0.369829 6.63922e-05
-13.7718 0.614629 -3.66998 0.874292 0.392777 7.05118e-05
-13.8771 0.611258 -4.11103 0.861208 0.4045 7.26163e-05
-13.9621 0.608536 -4.55572 0.848016 0.410063 7.3615e-05
-14.0297 0.606372 -4.99759 0.834908 0.411901 7.3945e-05
-14.083 0.604668 -5.4315 0.822036 0.401343 7.20496e-05
-14.1251 0.603319 -5.84936 0.80964 0.364842 6.54969e-05
-14.1576 0.602277 -6.2451 0.797901 0.286251 5.13881e-05
-14.1808 0.601535 -6.61566 0.786908 0.187266 3.36183e-05
-14.1975 0.601002 -6.94969 0.776999 0.128192 2.30132e-05
-14.2036 0.600805 -7.26378 0.767681 0.110818 1.98942e-05
-14.1794 0.600809 -7.54922 0.759213 0.117393 2.10745e-05
-14.1385 0.60083 -7.79456 0.751935 0.111952 2.00978e-05
-14.0445 0.600877 -7.99007 0.746136 0.066944 1.20179e-05
-13.8114 0.600994 -8.1423 0.74162 0.0215403 3.86693e-06
-13.4871 0.601157 -8.26214 0.738064 -0.045991 -8.25637e-06
-13.11 0.601347 -8.36706 0.734952 -0.136047 -2.44234e-05
-12.713 0.601547 -8.45448 0.732359 -0.23149 -4.15574e-05
-12.3653 0.601722 -8.51753 0.730488 -0.314528 -5.64644e-05
-12.1229 0.601844 -8.55839 0.729276 -0.378454 -6.79405e-05
-11.9177 0.601947 -8.58131 0.728596 -0.4317 -7.74993e-05
-11.6507 0.602082 -8.59432 0.72821 -0.490466 -8.80491e-05
-11.3099 0.602253 -8.60952 0.72776 -0.56686 -0.000101763
-10.9695 0.602424 -8.63659 0.726956 -0.661191 -0.000118698
-10.6827 0.602569 -8.67724 0.725751 -0.762718 -0.000136924
-10.439 0.602692 -8.72849 0.72423 -0.856984 -0.000153847
-10.213 0.602805 -8.79097 0.722377 -0.934314 -0.000167729
-10.0123 0.602906 -8.87321 0.719937 -0.996263 -0.00017885
-9.88671 0.602969 -8.99652 0.716279 -1.07491 -0.00019297
-9.77068 0.603028 -9.15438 0.711596 -1.13603 -0.000203942
-9.76194 0.603032 -9.34096 0.706061 -1.18432 -0.00021261
-9.81018 0.603008 -9.57129 0.699228 -1.22279 -0.000219517
-9.90227 0.602962 -9.8339 0.691438 -1.25561 -0.000225409
-10.0847 0.60287 -10.1307 0.682634 -1.28833 -0.000231282
-10.4131 0.602705 -10.4629 0.672777 -1.32423 -0.000237727
-10.8539 0.602483 -10.8353 0.66173 -1.36348 -0.000244773
-11.3859 0.602215 -11.2526 0.649353 -1.40202 -0.000251692
-12.0211 0.601895 -11.7045 0.635945 -1.43362 -0.000257365
-12.6579 0.601575 -12.1716 0.622089 -1.45227 -0.000260714
-13.2513 0.601276 -12.6377 0.608263 -1.44617 -0.000259619
-13.973 0.600913 -13.1206 0.593938 -1.42948 -0.000256623
-14.2487 0.59936 -13.6217 0.579071 -1.42313 -0.000255482
-14.3402 0.596433 -14.1326 0.563917 -1.43262 -0.000257186
-14.4367 0.593342 -14.6512 0.548531 -1.44637 -0.000259654
-14.5367 0.590141 -15.1644 0.533307 -1.45082 -0.000260452
-14.6434 0.586727 -15.6667 0.518406 -1.43948 -0.000258417
-14.7627 0.582905 -16.1556 0.503903 -1.41819 -0.000254595
-14.9028 0.578422 -16.6244 0.489995 -1.40195 -0.00025168
-15.0364 0.574144 -17.0623 0.477006 -1.40011 -0.00025135
-15.1699 0.569871 -17.4757 0.464742 -1.40071 -0.000251456
-15.3179 0.565131 -17.867 0.453133 -1.39955 -0.000251249
-15.4868 0.559723 -18.2308 0.442343 -1.39703 -0.000250797
-15.6713 0.553819 -18.5607 0.432557 -1.39019 -0.000249569
-15.8636 0.547661 -18.851 0.423944 -1.3842 -0.000248493
-16.0709 0.541027 -19.0986 0.416597 -1.38483 -0.000248606
-16.2993 0.533714 -19.3011 0.410592 -1.3925 -0.000249983
-16.5507 0.525663 -19.4601 0.405875 -1.40387 -0.000252025
-16.8218 0.516986 -19.5796 0.402329 -1.41848 -0.000254648
-17.1078 0.507831 -19.6623 0.399875 -1.43453 -0.000257529
-17.4056 0.498295 -19.7116 0.398414 -1.44814 -0.000259973
-17.7164 0.488346 -19.7284 0.397915 -1.46052 -0.000262194
-18.0381 0.478046 -19.3468 0.398035 -1.47465 -0.000264731
-18.3643 0.467604 -18.4693 0.39831 -1.49086 -0.000267641
-18.69 0.457176 -17.2818 0.398684 -1.51159 -0.000271363
-19.014 0.446806 -15.9925 0.399089 -1.53472 -0.000275514
-19.3391 0.436396 -14.6445 0.399513 -1.55601 -0.000279337
-19.6612 0.426083 -13.2679 0.399946 -1.57151 -0.00028212
-19.9817 0.415823 -11.8846 0.400381 -1.5816 -0.00028393
-20.3029 0.405539 -10.6233 0.400778 -1.59167 -0.000285738
-20.6257 0.395208 -9.66921 0.401078 -1.60333 -0.000287832
-20.9492 0.384851 -9.09629 0.401258 -1.61565 -0.000290044
-21.2718 0.374521 -8.88431 0.401324 -1.62543 -0.000291799
-21.5953 0.364167 -9.05116 0.401272 -1.62821 -0.000292299
-21.9203 0.353761 -9.65248 0.401083 -1.6246 -0.00029165
-22.2473 0.343294 -10.7254 0.400745 -1.61384 -0.000289718
-22.5726 0.332878 -12.2815 0.400256 -1.59173 -0.000285749
-22.8996 0.32241 -14.4195 0.399584 -1.55219 -0.000278652
-23.2227 0.312064 -17.1427 0.398728 -1.49464 -0.00026832
-23.539 0.30194 -19.7439 0.397455 -1.42308 -0.000255473
-23.8261 0.292749 -19.9103 0.392518 -1.32671 -0.000238172
-24.1133 0.283554 -20.1165 0.386404 -1.22599 -0.000220091
-24.4012 0.274337 -20.3548 0.379334 -1.12276 -0.000201558
-24.6813 0.265371 -20.6148 0.371619 -1.03502 -0.000185807
-24.9479 0.256835 -20.8856 0.363586 -0.953282 -0.000171134
-25.2064 0.248558 -21.1645 0.355313 -0.876326 -0.000157319
-25.4646 0.240293 -21.4535 0.346739 -0.786076 -0.000141117
-25.727 0.231891 -21.7501 0.337942 -0.679888 -0.000122054
-25.9921 0.223407 -22.0486 0.329086 -0.569293 -0.0001022
-26.2564 0.214944 -22.3446 0.320306 -0.484255 -8.69341e-05
-26.5204 0.206493 -22.6202 0.31213 -0.429659 -7.71329e-05
-26.7863 0.197981 -22.8842 0.304298 -0.382517 -6.867e-05
-27.0611 0.189181 -23.1409 0.296683 -0.344872 -6.19119e-05
-27.343 0.180157 -23.3888 0.289328 -0.31719 -5.69424e-05
-27.6251 0.171126 -23.6237 0.282361 -0.29447 -5.28637e-05
-27.9031 0.162225 -23.8428 0.275861 -0.285312 -5.12196e-05
-28.1775 0.153441 -24.0469 0.269807 -0.299406 -5.37497e-05
-28.4491 0.144746 -24.2358 0.264203 -0.337473 -6.05836e-05
-28.7154 0.136221 -24.4123 0.258967 -0.386931 -6.94623e-05
-28.972 0.128008 -24.5818 0.253939 -0.433595 -7.78395e-05
-29.2151 0.120225 -24.7444 0.249115 -0.486297 -8.73007e-05
-29.4417 0.112969 -24.9025 0.244423 -0.563736 -0.000101203
-29.6513 0.106259 -25.056 0.239871 -0.666527 -0.000119656
-29.8455 0.100041 -25.2037 0.23549 -0.781956 -0.000140378
-30.0247 0.0943063 -25.3472 0.231233 -0.898326 -0.000161269
-30.1854 0.0891591 -25.4913 0.226957 -1.01371 -0.000181983
-30.3265 0.0846439 -25.6403 0.222537 -1.13497 -0.000203752
-30.4486 0.0807339 -25.7966 0.2179 -1.26967 -0.000227934
-30.5543 0.0773489 -25.9606 0.213036 -1.41857 -0.000254663
-30.6479 0.074353 -26.1264 0.208118 -1.50654 -0.000270455
-30.7348 0.0715727 -26.2855 0.203398 -1.5551 -0.000279174
-30.8079 0.0692314 -26.456 0.198339 -1.57505 -0.000282754
-30.8746 0.0670951 -26.6345 0.193044 -1.58548 -0.000284627
-30.9378 0.065073 -26.8233 0.187443 -1.60929 -0.000288901
-31.0006 0.0630623 -27.0208 0.181586 -1.65533 -0.000297166
-31.0648 0.0610059 -27.2249 0.17553 -1.72054 -0.000308874
-31.132 0.0588562 -27.4364 0.169255 -1.79271 -0.00032183
-31.205 0.0565196 -27.6553 0.162763 -1.8482 -0.000331791
-31.2853 0.0539471 -27.8836 0.155989 -1.85714 -0.000333397
-31.3744 0.0510956 -28.1203 0.148968 -1.83964 -0.000330254
-31.4704 0.0480225 -28.3684 0.141607 -1.83919 -0.000330174
-31.5727 0.0447486 -28.6287 0.133886 -1.87861 -0.00033725
-31.6814 0.041266 -28.9002 0.125833 -1.94905 -0.000349896
-31.7966 0.0375793 -29.1804 0.11752 -2.01475 -0.00036169
-31.9167 0.033733 -29.4702 0.108924 -2.0492 -0.000367875
-32.0393 0.0298102 -29.7722 0.099965 -2.05475 -0.000368871
-32.1634 0.0258355 -30.089 0.0905673 -2.05488 -0.000368894
-32.2898 0.0217907 -30.4208 0.0807245 -2.07146 -0.000371871
-32.4197 0.0176297 -30.7645 0.0705273 -2.10808 -0.000378446
-32.5544 0.0133192 -31.1159 0.0601037 -2.15101 -0.000386152
-32.6936 0.00886199 -31.4725 0.0495251 -2.18333 -0.000391955
-32.836 0.00430228 -31.8345 0.0387845 -2.19905 -0.000394775
-32.9315 0.00124548 -32.209 0.027677 -2.20459 -0.000395771
-32.9413 0.000931989 -32.6053 0.0159188 -2.21112 -0.000396943
-32.946 0.00078053 -32.9965 0.00431419 -2.23033 -0.000400392
-32.9503 0.00064329 -33.1217 0.000599637 -2.27355 -0.00040815
-32.9529 0.000561489 -33.1278 0.000419575 -2.30911 -0.000414534
-32.9547 0.000504015 -33.1306 0.000335317 -2.32636 -0.000417631
-32.9564 0.000450248 -33.1326 0.0002772 -2.3385 -0.00041981
-32.9579 0.000402506 -33.1342 0.000228282 -2.36454 -0.000424485
-32.959 0.000364641 -33.1358 0.000183181 -2.39846 -0.000430574
-32.9599 0.000336069 -33.137 0.000145654 -2.42778 -0.000435837
-32.9607 0.000312941 -33.1379 0.00012027 -2.45686 -0.000441059
-32.9613 0.0002912 -33.1386 9.89797e-05 -2.48447 -0.000446014
-32.962 0.000270454 -33.1392 8.02544e-05 -2.51296 -0.00045113
-32.9625 0.000253391 -33.1398 6.37328e-05 -2.54378 -0.000456662
-32.9629 0.000241094 -33.1403 4.87837e-05 -2.57622 -0.000462487
-32.9632 0.000230507 -33.1408 3.52026e-05 -2.60935 -0.000468433
-32.9636 0.000219193 -33.1411 2.34184e-05 -2.64199 -0.000474294
-32.964 0.000207384 -33.1415 1.41467e-05 -2.67334 -0.000479922
-32.9643 0.000196222 -33.1416 8.94307e-06 -2.70369 -0.00048537
-32.9646 0.000186026 -33.1417 8.08946e-06 -2.73396 -0.000490804
-32.965 0.000175229 -33.1412 8.22678e-06 -2.76561 -0.000496486
-32.9653 0.000162801 -33.1417 7.84131e-06 -2.7996 -0.000502588
-32.9658 0.000149473 -33.1417 7.55209e-06 -2.83507 -0.000508956
-32.9662 0.000136149 -33.1371 8.97708e-06 -2.86976 -0.000515183
-32.9666 0.00012264 -33.1241 1.30719e-05 -2.90167 -0.000520912
-32.967 0.000108334 -33.1089 1.78751e-05 -2.92969 -0.000525941
-32.9675 9.39048e-05 -33.0917 2.327e-05 -2.9537 -0.000530252
-32.968 7.90016e-05 -33.0687 3.05137e-05 -2.97676 -0.000534391
-32.9684 6.49199e-05 -33.0477 3.70929e-05 -3.00048 -0.00053865
-32.9688 5.21447e-05 -33.0348 4.11454e-05 -3.0241 -0.00054289
-32.9692 3.9968e-05 -33.026 4.39279e-05 -3.04634 -0.000546883
-32.9695 2.81821e-05 -33.0179 4.64832e-05 -3.06485 -0.000550207
-32.9699 1.73264e-05 -33.0107 4.87264e-05 -3.07749 -0.000552475
-32.9702 7.84033e-06 -33.0051 5.04876e-05 -3.08385 -0.000553616
-32.9704 -3.41044e-07 -33.0038 5.09179e-05 -3.08355 -0.000553563
-32.9707 -7.19825e-06 -33.0105 4.87901e-05 -3.08065 -0.000553042
-32.9708 -1.25544e-05 -33.0257 4.4007e-05 -3.07273 -0.00055162
-32.9709 -1.62373e-05 -33.045 3.79628e-05 -3.0498 -0.000547505
-32.971 -1.83702e-05 -33.0665 3.11861e-05 -3.00069 -0.000538688
-32.971 -1.8947e-05 -33.0914 2.3348e-05 -2.92605 -0.000525288
-32.9693 -1.80586e-05 -33.1202 1.43184e-05 -2.83544 -0.000509021
-32.965 -1.59196e-05 -33.1418 3.87236e-06 -2.73578 -0.000491131
-32.9582 -1.24776e-05 -33.1422 -7.90835e-06 -2.63185 -0.000472472
-32.9485 -7.61637e-06 -33.1426 -1.92237e-05 -2.54294 -0.000456511
-32.938 -2.31968e-06 -33.143 -3.00349e-05 -2.47082 -0.000443565
-32.9254 4.01239e-06 -33.1432 -3.805e-05 -2.39309 -0.00042961
-32.9136 9.97182e-06 -33.1435 -4.71246e-05 -2.29635 -0.000412244
-32.899 1.72985e-05 -33.1439 -5.77865e-05 -2.18591 -0.000392417
-32.8824 2.5633e-05 -33.1442 -6.58592e-05 -2.07147 -0.000371872
-32.8677 3.3048e-05 -33.1443 -6.93993e-05 -1.96414 -0.000352606
-32.8563 3.8796e-05 -33.1443 -7.0177e-05 -1.874 -0.000336423
-32.8439 4.50087e-05 -33.1439 -7.0064e-05 -1.79643 -0.000322498
-32.8288 5.26244e-05 -33.1381 -6.8255e-05 -1.72015 -0.000308804
-32.8143 5.99227e-05 -33.1179 -6.18848e-05 -1.63886 -0.00029421
-32.8023 6.59699e-05 -33.088 -5.25064e-05 -1.55972 -0.000280003
-32.7894 7.24499e-05 -33.0613 -4.40843e-05 -1.49364 -0.00026814
-32.7749 7.97298e-05 -33.0343 -3.55989e-05 -1.44913 -0.000260149
-32.7608 8.68666e-05 -32.9954 -2.33923e-05 -1.40653 -0.000252503
-32.7468 9.388e-05 -32.9431 -6.92965e-06 -1.36284 -0.000244658
-32.7309 0.000101918 -32.8793 1.31177e-05 -1.3178 -0.000236574
-32.7135 0.00011064 -32.8106 3.47373e-05 -1.27446 -0.000228793
-32.6983 0.000118305 -32.7437 5.57686e-05 -1.23948 -0.000222512
-32.6875 0.000123714 -32.6789 7.61394e-05 -1.20626 -0.00021655
-32.6756 0.000129747 -32.6086 9.82364e-05 -1.17547 -0.000211022
-32.6599 0.000137644 -32.5247 0.000124625 -1.14429 -0.000205424
-32.6407 0.000147265 -32.4298 0.000154461 -1.11094 -0.000199437
-32.6227 0.000156346 -32.3327 0.000184993 -1.07387 -0.000192782
-32.6047 0.000165409 -32.2346 0.000215859 -1.03172 -0.000185217
-32.5847 0.000175469 -32.1441 0.000244319 -0.983998 -0.000176649
-32.5661 0.000184822 -32.0428 0.000276155 -0.926512 -0.000166329
-32.5462 0.000194872 -31.9261 0.000312843 -0.859465 -0.000154292
-32.5237 0.000206174 -31.7923 0.000354911 -0.785149 -0.000140951
-32.4984 0.000218886 -31.6439 0.000401594 -0.707423 -0.000126997
-32.4714 0.00023249 -31.4908 0.000449738 -0.628912 -0.000112903
-32.4437 0.000246422 -31.3472 0.000494871 -0.550267 -9.87846e-05
-32.4166 0.00026005 -31.2335 0.000530633 -0.470361 -8.44399e-05
-32.3883 0.000274323 -31.1257 0.00056453 -0.384095 -6.89531e-05
-32.3591 0.00028903 -31.0141 0.000599619 -0.288106 -5.17211e-05
-32.3314 0.000302961 -30.9103 0.000632258 -0.183089 -3.28683e-05
-32.3079 0.000314784 -30.8425 0.000653592 -0.102808 -1.84562e-05
-32.2868 0.000325402 -30.8624 0.000647327 -0.0771156 -1.38439e-05
-32.2683 0.000334701 -30.9184 0.000629713 -0.0599255 -1.07579e-05
-32.2548 0.00034151 -31.0087 0.000601316 -0.0516311 -9.26889e-06
-32.2479 0.000344982 -31.1008 0.000572369 -0.0499623 -8.96929e-06
-32.2451 0.000346376 -31.1786 0.000547894 -0.0500509 -8.9852e-06
-32.2468 0.000345517 -31.2588 0.000522671 -0.047529 -8.53247e-06
-32.2515 0.000343178 -31.3351 0.000498686 -0.0392746 -7.05062e-06
-32.2563 0.000340761 -31.4038 0.000477073 -0.0244571 -4.39057e-06
-32.2632 0.000337278 -31.4668 0.000457283 -0.00236766 -4.25046e-07
-32.2759 0.000330878 -31.5227 0.000439712 0.0202352 3.63264e-06
-32.2922 0.000322681 -31.5663 0.000426002 0.0295001 5.2959e-06
-32.3088 0.000314334 -31.5928 0.000417646 0.0358256 6.43146e-06
-32.3251 0.000306134 -31.6036 0.000414253 0.0373002 6.69617e-06
-32.3425 0.000297364 -31.6054 0.000413691 0.0335348 6.02021e-06
-32.3599 0.000288605 -31.6056 0.000413618 0.0272303 4.88842e-06
-32.3782 0.000279409 -31.6013 0.000414995 0.0257699 4.62624e-06
-32.3959 0.000270471 -31.5913 0.000418115 0.0319436 5.73455e-06
-32.4116 0.000262568 -31.5741 0.000423535 0.0364586 6.54509e-06
-32.4251 0.000255799 -31.5434 0.000433201 0.0249805 4.48452e-06
-32.4381 0.000249275 -31.5024 0.00044607 -0.00771998 -1.3859e-06
-32.4506 0.00024296 -31.4537 0.00046139 -0.0421143 -7.56042e-06
-32.4607 0.000237886 -31.4044 0.000476883 -0.0738696 -1.32612e-05
-32.4689 0.000233758 -31.3606 0.000490664 -0.104504 -1.87607e-05
-32.4762 0.000230086 -31.3222 0.000502755 -0.142273 -2.5541e-05
-32.4822 0.000227059 -31.2847 0.000514549 -0.173676 -3.11785e-05
-32.4864 0.000224959 -31.2516 0.000524936 -0.198591 -3.56513e-05
-32.4889 0.000223702 -31.2355 0.000530019 -0.229744 -4.12439e-05
-32.4903 0.000222955 -31.2434 0.000527514 -0.271922 -4.88158e-05
-32.4914 0.000222447 -31.2735 0.000518059 -0.323798 -5.81287e-05
-32.492 0.000222115 -31.3198 0.000503509 -0.379785 -6.81794e-05
-32.4921 0.000222073 -31.3809 0.000484286 -0.433276 -7.77823e-05
-32.4909 0.000222687 -31.4467 0.0004636 -0.479402 -8.60629e-05
-32.4896 0.000223356 -31.5213 0.00044015 -0.518504 -9.30825e-05
-32.4888 0.000223755 -31.5973 0.000416235 -0.55515 -9.96612e-05
-32.4869 0.000224712 -31.673 0.000392444 -0.594834 -0.000106785
-32.4834 0.000226451 -31.7497 0.000368309 -0.641021 -0.000115077
-32.4793 0.000228495 -31.8287 0.000343479 -0.693378 -0.000124476
-32.4749 0.000230744 -31.9092 0.000318178 -0.747759 -0.000134239
-32.4699 0.000233254 -31.9888 0.000293151 -0.798852 -0.000143411
-32.4645 0.000235973 -32.0639 0.000269513 -0.843424 -0.000151412
-32.459 0.000238751 -32.1324 0.000247984 -0.881972 -0.000158333
-32.4547 0.000240889 -32.1943 0.000228536 -0.918163 -0.00016483
-32.4527 0.000241919 -32.2505 0.000210856 -0.956784 -0.000171763
-32.4527 0.000241902 -32.3024 0.000194523 -1.0009 -0.000179683
-32.4552 0.00024064 -32.3514 0.000179131 -1.05006 -0.000188508
-32.4586 0.000238951 -32.3978 0.000164545 -1.10081 -0.000197618
-32.4633 0.000236576 -32.4411 0.000150922 -1.14876 -0.000206226
-32.4699 0.00023325 -32.4807 0.000138468 -1.19131 -0.000213866
-32.4777 0.000229299 -32.5159 0.000127385 -1.229 -0.000220632
-32.4854 0.000225429 -32.5464 0.000117817 -1.26525 -0.000227139
-32.491 0.000222637 -32.573 0.000109441 -1.30396 -0.000234089
-32.495 0.000220592 -32.598 0.00010158 -1.34693 -0.000241803
-32.498 0.000219112 -32.6219 9.40657e-05 -1.39342 -0.000250148
-32.4991 0.000218569 -32.6446 8.69288e-05 -1.44041 -0.000258584
-32.4968 0.000219715 -32.6654 8.03751e-05 -1.48436 -0.000266474
-32.4905 0.0002229 -32.6836 7.46644e-05 -1.52337 -0.000273478
-32.4803 0.000228011 -32.6988 6.98799e-05 -1.55799 -0.000279692
-32.467 0.000234725 -32.7115 6.59073e-05 -1.59077 -0.000285577
-32.4484 0.000244066 -32.7216 6.27177e-05 -1.62486 -0.000291697
-32.4239 0.000256387 -32.7297 6.01828e-05 -1.66182 -0.000298331
-32.3946 0.000271166 -32.7362 5.81286e-05 -1.70065 -0.000305304
-32.3605 0.000288291 -32.7409 5.66632e-05 -1.73875 -0.000312143
-32.3202 0.000308565 -32.7421 5.62728e-05 -1.77333 -0.00031835
-32.2738 0.000331918 -32.7403 5.68223e-05 -1.80279 -0.000323639
-32.2265 0.000355718 -32.7389 5.72828e-05 -1.82747 -0.00032807
-32.18 0.000379153 -32.7336 5.89464e-05 -1.84946 -0.000332017
-32.1308 0.00040391 -32.7229 6.22918e-05 -1.87188 -0.000336042
-32.0744 0.000432304 -32.7089 6.66995e-05 -1.89613 -0.000340396
-32.0112 0.000464115 -32.6949 7.11054e-05 -1.92096 -0.000344854
-31.9456 0.000497093 -32.6778 7.64913e-05 -1.9426 -0.000348739
-31.8828 0.000528723 -32.6543 8.38679e-05 -1.95793 -0.00035149
-31.8192 0.000560726 -32.6255 9.29221e-05 -1.96671 -0.000353067
-31.7491 0.000596015 -32.594 0.000102825 -1.97077 -0.000353796
-31.6727 0.000634422 -32.5586 0.000113983 -1.97235 -0.00035408
-31.5954 0.000673327 -32.5205 0.000125938 -1.97367 -0.000354315
-31.519 0.000711791 -32.4862 0.000136721 -1.9719 -0.000353998
-31.4408 0.000751165 -32.4555 0.000146384 -1.95975 -0.000351817
-31.3603 0.000791652 -32.422 0.000156926 -1.93208 -0.000346849
-31.2811 0.000831531 -32.3822 0.000169446 -1.88973 -0.000339247
-31.2094 0.00086762 -32.3454 0.000181006 -1.83726 -0.000329827
-31.1419 0.00090155 -32.3064 0.000193284 -1.77379 -0.000318433
-31.0772 0.000934147 -32.2648 0.00020636 -1.69466 -0.000304228
-31.0133 0.000966278 -32.2232 0.000219434 -1.6087 -0.000288796
-30.9613 0.000992463 -32.1837 0.000231842 -1.53451 -0.000275477
-30.9265 0.00100995 -32.1471 0.000243354 -1.46676 -0.000263315
-30.9092 0.00101871 -32.1155 0.000253291 -1.38785 -0.000249148
-30.9141 0.00101622 -32.0866 0.000262375 -1.28666 -0.000230983
-30.952 0.000997131 -32.0568 0.000271747 -1.16482 -0.000209109
-31.0184 0.000963739 -32.0253 0.000281665 -1.0352 -0.00018584
-31.0957 0.000924801 -31.993 0.00029181 -0.910657 -0.000163482
-31.1639 0.000890527 -31.9625 0.000301412 -0.797199 -0.000143114
-31.2328 0.00085582 -31.9365 0.000309583 -0.69557 -0.00012487
-31.2951 0.000824495 -31.9104 0.000317784 -0.582153 -0.000104509
-31.3419 0.000800905 -31.8802 0.000327282 -0.451751 -8.10989e-05
-31.3819 0.000780774 -31.8504 0.000336645 -0.300294 -5.39091e-05
-31.417 0.000763122 -31.8235 0.000345115 -0.144511 -2.59429e-05
-31.4436 0.000749718 -31.8036 0.000351382 -0.0760179 -1.36468e-05
-31.4607 0.000741133 -31.7863 0.000356824 -0.0801211 -1.43835e-05
-31.4703 0.000736308 -31.7573 0.000365924 -0.072003 -1.29261e-05
-31.4663 0.000738324 -31.7162 0.000378862 -0.073267 -1.3153e-05
-31.4484 0.000747328 -31.6656 0.000394781 -0.0766495 -1.37602e-05
-31.4252 0.000758984 -31.6162 0.000410297 -0.0751459 -1.34903e-05
-31.3933 0.000775075 -31.5634 0.000426896 -0.0643716 -1.15561e-05
-31.3459 0.000798917 -31.4987 0.000447256 -0.0435781 -7.82319e-06
-31.2842 0.000829969 -31.4157 0.00047336 -0.0109935 -1.97356e-06
-31.2095 0.000867555 -31.3034 0.000508672 0.0138588 2.48795e-06
-31.1203 0.000912445 -31.1387 0.00056043 0.0212304 3.81132e-06
-31.0068 0.000969544 -30.8943 0.000637288 0.0286901 5.15049e-06
-30.8565 0.00104522 -30.5204 0.000754849 0.0281898 5.06066e-06
-30.6682 0.00113996 -29.8969 0.00095093 0.0226571 4.06744e-06
-30.4508 0.0012494 -28.7607 0.00130819 0.0181316 3.25501e-06
-30.154 0.00139875 -26.8296 0.00191539 0.0173401 3.11292e-06
-29.6916 0.00163145 -24.377 0.0026866 0.0236298 4.24204e-06
-29.035 0.00196189 -21.749 0.00351297 0.0415293 7.45539e-06
-28.2556 0.00235415 -19.3292 0.00427384 0.0536929 9.63902e-06
-27.3889 0.0027903 -16.9594 0.005019 0.0520653 9.34683e-06
-26.437 0.00326936 -14.6217 0.00575405 0.040605 7.28947e-06
-25.3867 0.00379793 -12.2855 0.00648867 0.0335484 6.02266e-06
-24.2408 0.00437463 -9.67495 0.00730953 0.0320482 5.75333e-06
-23.0163 0.00499087 -6.51899 0.00830189 0.0301034 5.40419e-06
-21.7413 0.00563249 -2.89331 0.00944195 0.0184682 3.31543e-06
-20.413 0.006301 0.00200425 0.0106878 -0.00542838 -9.74509e-07
-19.0266 0.00699871 0.0102054 0.0120631 -0.0374615 -6.72514e-06
-17.5651 0.00773421 0.0189097 0.0135228 -0.0621879 -1.11641e-05
-16.0522 0.00849559 0.0275589 0.0149732 -0.0796637 -1.43013e-05
-14.5288 0.00926227 0.0364928 0.0164714 -0.0962518 -1.72792e-05
-12.9902 0.0100366 0.044239 0.0177704 -0.115421 -2.07206e-05
-11.464 0.0108047 0.0504462 0.0188113 -0.131899 -2.36787e-05
-9.93134 0.011576 0.0560928 0.0197582 -0.14677 -2.63484e-05
-8.24972 0.0124223 0.0610754 0.0205938 -0.163615 -2.93724e-05
-6.31086 0.013398 0.0648454 0.021226 -0.183276 -3.2902e-05
-3.97017 0.014576 0.0669424 0.0215777 -0.205221 -3.68416e-05
-1.12522 0.0160077 0.0280958 0.0216233 -0.227757 -4.08872e-05
0.00815932 0.0177206 -0.116906 0.0215023 -0.248807 -4.46661e-05
0.0229268 0.0197958 -0.368769 0.0212606 -0.266647 -4.78688e-05
0.0407817 0.022305 -0.714031 0.0209292 -0.281799 -5.0589e-05
0.0628492 0.025406 -1.16424 0.0204972 -0.296319 -5.31955e-05
0.0884268 0.0290004 -1.73174 0.0199525 -0.312069 -5.6023e-05
0.116661 0.0329681 -2.39321 0.0193177 -0.329932 -5.92298e-05
0.14907 0.0375224 -3.1305 0.0186101 -0.349253 -6.26984e-05
0.182269 0.0421877 -3.85084 0.0179188 -0.368773 -6.62027e-05
0.219852 0.0474693 -4.58179 0.0172173 -0.386618 -6.94062e-05
0.25902 0.0529734 -5.28684 0.0165407 -0.402935 -7.23354e-05
0.299763 0.0586989 -5.98759 0.0158682 -0.418206 -7.50769e-05
0.343669 0.064869 -6.6932 0.015191 -0.433637 -7.78471e-05
0.389389 0.0712939 -7.34888 0.0145617 -0.450451 -8.08655e-05
0.433239 0.077456 -7.81022 0.014119 -0.469601 -8.43033e-05
0.478242 0.0837802 -8.18759 0.0137568 -0.490405 -8.80382e-05
0.524318 0.0902551 -8.45483 0.0135003 -0.512515 -9.20073e-05
0.572071 0.0969656 -8.62056 0.0133413 -0.534676 -9.59858e-05
0.622521 0.104055 -8.6754 0.0132887 -0.556168 -9.98439e-05
0.675191 0.111457 -8.49352 0.0133458 -0.577268 -0.000103632
0.729508 0.11909 -8.11678 0.0134643 -0.598532 -0.000107449
0.78467 0.126842 -7.53176 0.0136483 -0.620665 -0.000111423
0.840119 0.134634 -6.71766 0.0139043 -0.643623 -0.000115544
0.895813 0.14246 -5.64017 0.0142431 -0.667185 -0.000119774
0.951616 0.150302 -4.27897 0.0146711 -0.690858 -0.000124024
1.00708 0.158096 -2.63012 0.0151895 -0.713876 -0.000128156
1.06087 0.165655 -0.0250078 0.0160087 -0.73596 -0.00013212
1.11063 0.172647 0.0142944 0.0184046 -0.759453 -0.000136338
1.15711 0.17918 0.0359633 0.0220246 -0.783391 -0.000140635
1.20188 0.185472 0.0605392 0.0261303 -0.80617 -0.000144725
1.24371 0.191349 0.0896253 0.0309895 -0.829046 -0.000148831
1.28218 0.196755 0.120869 0.0362092 -0.850752 -0.000152728
1.31672 0.201609 0.154418 0.0418138 -0.870792 -0.000156326
1.34827 0.206043 0.190284 0.0478057 -0.888228 -0.000159456
1.37808 0.210232 0.22763 0.0540446 -0.902467 -0.000162012
1.40608 0.214166 0.266223 0.0604922 -0.912314 -0.00016378
1.43261 0.217895 0.305314 0.0670227 -0.914488 -0.00016417
1.45721 0.221352 0.34456 0.0735791 -0.905313 -0.000162523
1.48018 0.22458 0.383812 0.0801367 -0.884059 -0.000158707
1.50252 0.22772 0.422717 0.0866362 -0.848608 -0.000152343
1.52488 0.230862 0.460737 0.0929878 -0.800081 -0.000143631
1.54734 0.234018 0.497323 0.0990999 -0.753538 -0.000135276
1.56987 0.237184 0.532343 0.104951 -0.707868 -0.000127077
1.59263 0.240382 0.565844 0.110547 -0.651158 -0.000116897
1.61656 0.243746 0.597836 0.115892 -0.573489 -0.000102954
1.6415 0.247249 0.62832 0.120984 -0.475689 -8.53963e-05
1.66709 0.250846 0.657179 0.125806 -0.365883 -6.56839e-05
1.69255 0.254423 0.684422 0.130357 -0.250299 -4.4934e-05
1.71852 0.258073 0.710144 0.134654 -0.203201 -3.64789e-05
1.7457 0.261892 0.732696 0.138422 -0.1954 -3.50784e-05
1.77075 0.265414 0.756417 0.142384 -0.182256 -3.27189e-05
1.79429 0.268721 0.780004 0.146325 -0.162024 -2.90868e-05
1.81609 0.271785 0.804046 0.150342 -0.138962 -2.49466e-05
1.83657 0.274662 0.82862 0.154447 -0.117303 -2.10584e-05
1.85546 0.277317 0.85415 0.158712 -0.100498 -1.80415e-05
1.8723 0.279683 0.881178 0.163227 -0.0893714 -1.60441e-05
1.88666 0.281701 0.910222 0.168079 -0.0822851 -1.47719e-05
1.89857 0.283375 0.941558 0.173314 -0.076135 -1.36679e-05
1.90847 0.284766 0.975206 0.178936 -0.0678168 -1.21745e-05
1.91682 0.285939 1.01104 0.184922 -0.055437 -9.95212e-06
1.92386 0.28693 1.04893 0.191251 -0.0389673 -6.99546e-06
1.92969 0.287748 1.08887 0.197925 -0.0202136 -3.62878e-06
1.93431 0.288398 1.1311 0.20498 -0.00213399 -3.83096e-07
1.93799 0.288915 1.17593 0.212468 0.0122439 2.19803e-06
1.94098 0.289335 1.22277 0.220294 0.0216073 3.87898e-06
1.94414 0.289779 1.2714 0.228418 0.0265537 4.76695e-06
1.9472 0.290209 1.32162 0.236809 0.0293216 5.26385e-06
1.94938 0.290515 1.37352 0.245479 0.0327732 5.88349e-06
1.95079 0.290713 1.42678 0.254377 0.0393232 7.05934e-06
1.95141 0.2908 1.48138 0.263498 0.0494991 8.88614e-06
1.93307 0.290795 1.53706 0.2728 0.0620441 1.11382e-05
1.88204 0.290769 1.59293 0.282134 0.0745601 1.33851e-05
1.75362 0.290704 1.64841 0.291401 0.0847333 1.52114e-05
1.51794 0.290586 1.70389 0.30067 0.0915886 1.64421e-05
1.21445 0.290433 1.7597 0.309994 0.0950675 1.70666e-05
0.834277 0.290242 1.81545 0.319309 0.0966801 1.73561e-05
0.343398 0.289995 1.87057 0.328516 0.0985488 1.76916e-05
-0.0488924 0.289374 1.92464 0.337549 0.102622 1.84229e-05
-0.191311 0.28807 1.97757 0.346391 0.109827 1.97163e-05
-0.379612 0.286346 2.02873 0.354938 0.120039 2.15496e-05
-0.598536 0.284342 2.07775 0.363128 0.13197 2.36913e-05
-0.845917 0.282077 2.12446 0.370932 0.143673 2.57923e-05
