-0.0309766 -1.55893e-05 -0.0776717 -2.44232e-05 -0.022548 -4.04785e-06
-0.0307327 -1.54665e-05 -0.0777021 -2.44327e-05 -0.0225386 -4.04616e-06
-0.0301444 -1.51704e-05 -0.0777804 -2.44574e-05 -0.0224898 -4.03739e-06
-0.0289179 -1.45532e-05 -0.0778696 -2.44854e-05 -0.0224316 -4.02694e-06
-0.0275091 -1.38442e-05 -0.0779551 -2.45123e-05 -0.0223914 -4.01974e-06
-0.0256768 -1.2922e-05 -0.0780435 -2.45401e-05 -0.0223847 -4.01852e-06
-0.0233758 -1.17641e-05 -0.0781086 -2.45605e-05 -0.0224244 -4.02565e-06
-0.0205586 -1.03463e-05 -0.0781145 -2.45624e-05 -0.0225351 -4.04552e-06
-0.017173 -8.64247e-06 -0.0780347 -2.45373e-05 -0.0227437 -4.08298e-06
-0.0131622 -6.62397e-06 -0.0778478 -2.44785e-05 -0.0230762 -4.14266e-06
-0.00847198 -4.2636e-06 -0.0775218 -2.4376e-05 -0.0235527 -4.22821e-06
-0.00308704 -1.55358e-06 -0.0770159 -2.4217e-05 -0.0241876 -4.34219e-06
0.00283557 1.42703e-06 -0.0763018 -2.39924e-05 -0.0249816 -4.48472e-06
0.00914383 4.60171e-06 -0.0753015 -2.36779e-05 -0.0259708 -4.66231e-06
0.0160208 8.06261e-06 -0.0739814 -2.32628e-05 -0.0271474 -4.87354e-06
0.0233605 1.17564e-05 -0.0722886 -2.27305e-05 -0.0285069 -5.1176e-06
0.0310143 1.56082e-05 -0.0701657 -2.2063e-05 -0.0300244 -5.39002e-06
0.0387887 1.95207e-05 -0.067569 -2.12465e-05 -0.0316557 -5.68287e-06
0.0464792 2.33911e-05 -0.0644694 -2.02718e-05 -0.0333285 -5.98318e-06
0.0538834 2.71173e-05 -0.060856 -1.91356e-05 -0.0349655 -6.27705e-06
0.0607846 3.05903e-05 -0.0567307 -1.78384e-05 -0.0364348 -6.54083e-06
0.0669319 3.36841e-05 -0.0521117 -1.63861e-05 -0.0375747 -6.74545e-06
0.0720312 3.62503e-05 -0.0474167 -1.49098e-05 -0.0382116 -6.8598e-06
0.0757291 3.81113e-05 -0.043522 -1.36851e-05 -0.0381691 -6.85216e-06
0.0776038 3.90548e-05 -0.0395002 -1.24205e-05 -0.0372952 -6.69528e-06
0.0772302 3.88667e-05 -0.0352746 -1.10918e-05 -0.0353107 -6.33902e-06
0.0742109 3.73473e-05 -0.030943 -9.72976e-06 -0.0320164 -5.74763e-06
0.0683375 3.43914e-05 -0.0266605 -8.38317e-06 -0.0271585 -4.87553e-06
0.0596482 3.00185e-05 -0.0225676 -7.09619e-06 -0.0205023 -3.6806e-06
0.0484373 2.43765e-05 -0.0188088 -5.91425e-06 -0.0118774 -2.13224e-06
0.0342681 1.72457e-05 -0.0155344 -4.88464e-06 -0.00326433 -5.86017e-07
0.0177781 8.947e-06 -0.012972 -4.07892e-06 0.00643739 1.15565e-06
8.35923e-05 4.20686e-08 -0.0111759 -3.51416e-06 0.017785 3.19279e-06
-0.0185203 -9.3205e-06 -0.0103333 -3.24921e-06 0.0306994 5.51119e-06
-0.0377225 -1.89842e-05 -0.0105049 -3.30316e-06 0.0450262 8.08316e-06
-0.0573774 -2.88757e-05 -0.0117378 -3.69084e-06 0.0605133 1.08634e-05
-0.0772678 -3.88857e-05 -0.0140568 -4.42004e-06 0.0768142 1.37898e-05
-0.0972084 -4.8921e-05 -0.0174436 -5.48497e-06 0.0934347 1.67735e-05
-0.117137 -5.89504e-05 -0.0219328 -6.89657e-06 0.10987 1.97241e-05
-0.136956 -6.89241e-05 -0.03139 -9.8703e-06 0.125491 2.25282e-05
-0.156426 -7.87226e-05 -0.041875 -1.31672e-05 0.13988 2.51114e-05
-0.175297 -8.82199e-05 -0.0533134 -1.67639e-05 0.152386 2.73565e-05
-0.193271 -9.72655e-05 -0.0655067 -2.0598e-05 0.162453 2.91638e-05
-0.209911 -0.000105639 -0.0782388 -2.46015e-05 0.169557 3.04391e-05
-0.224726 -0.000113095 -0.0912174 -2.86825e-05 0.173266 3.1105e-05
-0.237356 -0.000119451 -0.104358 -3.28145e-05 0.173128 3.10801e-05
-0.247596 -0.000124605 -0.117486 -3.69425e-05 0.168801 3.03033e-05
-0.255544 -0.000128605 -0.13019 -4.09371e-05 0.160047 2.87318e-05
-0.261622 -0.000131664 -0.142208 -4.4716e-05 0.146701 2.6336e-05
-0.266521 -0.000134129 -0.153414 -4.82396e-05 0.128672 2.30993e-05
-0.272417 -0.000137096 -0.166085 -5.2224e-05 0.0996435 1.78881e-05
-0.28015 -0.000140988 -0.176987 -5.5652e-05 0.0638731 1.14666e-05
-0.292005 -0.000146954 -0.186036 -5.84975e-05 0.0221976 3.98494e-06
-0.309898 -0.000155959 -0.193582 -6.087e-05 -0.0255581 -4.58822e-06
-0.335117 -0.000168651 -0.200323 -6.29899e-05 -0.0946299 -1.69881e-05
-0.36818 -0.00018529 -0.207123 -6.51279e-05 -0.165833 -2.97705e-05
-0.408677 -0.00020567 -0.215013 -6.7609e-05 -0.235872 -4.23441e-05
-0.455309 -0.000229138 -0.225358 -7.08617e-05 -0.301645 -5.41517e-05
-0.506358 -0.000254829 -0.239478 -7.53017e-05 -0.360662 -6.47466e-05
-0.560309 -0.00028198 -0.258418 -8.12573e-05 -0.411029 -7.37885e-05
-0.616233 -0.000310124 -0.282875 -8.89474e-05 -0.451301 -8.10182e-05
-0.673707 -0.000339049 -0.313234 -9.84935e-05 -0.480818 -8.63171e-05
-0.732561 -0.000368667 -0.349477 -0.00010989 -0.499931 -8.97482e-05
-0.792661 -0.000398913 -0.391158 -0.000122996 -0.50998 -9.15522e-05
-0.853688 -0.000429626 -0.437535 -0.000137579 -0.512906 -9.20775e-05
-0.914874 -0.000460418 -0.487682 -0.000153347 -0.511163 -9.17647e-05
-0.975048 -0.000490701 -0.540481 -0.000169949 -0.507616 -9.11278e-05
-1.03303 -0.000519882 -0.594624 -0.000186974 -0.505507 -9.07492e-05
-1.088 -0.000547544 -0.648708 -0.00020398 -0.508138 -9.12215e-05
-1.13952 -0.000573472 -0.701341 -0.00022053 -0.518628 -9.31047e-05
-1.18735 -0.000597542 -0.751211 -0.000236212 -0.53967 -9.68823e-05
-1.23104 -0.000619533 -0.797201 -0.000250673 -0.573396 -0.000102937
-1.26979 -0.000639034 -0.838491 -0.000263656 -0.621156 -0.000111511
-1.30269 -0.000655588 -0.874551 -0.000274995 -0.683424 -0.000122689
-1.32913 -0.000668898 -0.905113 -0.000284605 -0.759789 -0.000136398
-1.34894 -0.000678867 -0.930184 -0.000292488 -0.849009 -0.000152415
-1.36233 -0.000685605 -0.949999 -0.000298719 -0.949071 -0.000170378
-1.36991 -0.000689417 -0.964979 -0.000303429 -1.05727 -0.000189803
-1.37263 -0.000690787 -0.975714 -0.000306804 -1.17036 -0.000210104
-1.37172 -0.000690329 -0.982931 -0.000309074 -1.28466 -0.000230623
-1.3685 -0.000688711 -0.987451 -0.000310495 -1.3963 -0.000250665
-1.36434 -0.000686617 -0.990124 -0.000311336 -1.50137 -0.000269529
-1.36065 -0.000684758 -0.991779 -0.000311856 -1.59614 -0.000286542
-1.35893 -0.000683895 -0.993171 -0.000312294 -1.67722 -0.000301096
-1.36075 -0.000684808 -0.994946 -0.000312852 -1.74174 -0.000312679
-1.36744 -0.000688174 -0.997628 -0.000313695 -1.78747 -0.000320889
-1.37972 -0.000694356 -1.00164 -0.000314958 -1.81288 -0.000325451
-1.39731 -0.000703209 -1.00733 -0.000316746 -1.81718 -0.000326223
-1.41892 -0.000714081 -1.0149 -0.000319125 -1.80039 -0.000323209
-1.44257 -0.000725986 -1.02436 -0.0003221 -1.76339 -0.000316567
-1.46146 -0.000735491 -1.03315 -0.000324864 -1.72041 -0.00030885
-1.4831 -0.000746382 -1.04526 -0.000328674 -1.65209 -0.000296585
-1.50057 -0.000755174 -1.05792 -0.000332654 -1.57062 -0.00028196
-1.51199 -0.000760923 -1.0701 -0.000336483 -1.47987 -0.000265668
-1.51558 -0.000762728 -1.08059 -0.000339782 -1.38412 -0.000248479
-1.5095 -0.000759669 -1.08809 -0.00034214 -1.2878 -0.000231188
-1.492 -0.000750863 -1.09122 -0.000343125 -1.19526 -0.000214575
-1.46148 -0.000735502 -1.08865 -0.000342316 -1.11052 -0.000199362
-1.4165 -0.000712867 -1.07916 -0.000339333 -1.03705 -0.000186172
-1.35595 -0.000682394 -1.0617 -0.000333841 -0.977545 -0.00017549
-1.27911 -0.000643721 -1.03538 -0.000325566 -0.933818 -0.00016764
-1.18567 -0.000596697 -0.999606 -0.000314317 -0.906635 -0.00016276
-1.07586 -0.000541433 -0.954033 -0.000299987 -0.895678 -0.000160793
-0.950717 -0.000478456 -0.898549 -0.000282541 -0.899555 -0.000161489
-0.812385 -0.00040884 -0.833274 -0.000262016 -0.915864 -0.000164417
-0.663929 -0.000334128 -0.7586 -0.000238535 -0.941265 -0.000168977
-0.508713 -0.000256014 -0.675257 -0.000212329 -0.971528 -0.00017441
-0.350075 -0.000176178 -0.584275 -0.00018372 -1.00169 -0.000179824
-0.191363 -9.63052e-05 -0.48694 -0.000153114 -1.02629 -0.000184242
-0.0357473 -1.79901e-05 -0.38476 -0.000120984 -1.03969 -0.000186646
0.107663 5.41825e-05 -0.279731 -8.7959e-05 -1.0361 -0.000186002
0.239843 0.000120703 -0.189551 -5.96025e-05 -1.01036 -0.00018138
0.36102 0.000181686 -0.11315 -3.55789e-05 -0.959237 -0.000172203
0.469858 0.00023646 -0.0357226 -1.12327e-05 -0.877083 -0.000157455
0.566196 0.000284943 0.0414991 1.3049e-05 -0.761751 -0.00013675
0.650041 0.000327139 0.116412 3.66046e-05 -0.612222 -0.000109907
0.721294 0.000362998 0.188354 5.92262e-05 -0.428873 -7.69918e-05
0.77985 0.000392466 0.257685 8.10268e-05 -0.213251 -3.82831e-05
0.825618 0.000415499 0.323948 0.000101863 0.0153376 2.75343e-06
0.85927 0.000432435 0.386246 0.000121452 0.208124 3.73627e-05
0.882537 0.000444144 0.444842 0.000139877 0.411539 7.388e-05
0.898177 0.000452015 0.500443 0.00015736 0.623562 0.000111943
0.909503 0.000457715 0.552921 0.000173861 0.838667 0.000150559
0.919876 0.000462935 0.602248 0.000189371 1.05006 0.000188508
0.932688 0.000469383 0.648891 0.000204038 1.25195 0.000224752
0.951342 0.000478771 0.693403 0.000218034 1.43958 0.000258436
0.979129 0.000492755 0.736012 0.000231432 1.60824 0.000288713
1.01896 0.000512802 0.77696 0.000244308 1.75323 0.000314742
1.07352 0.00054026 0.814876 0.00025623 1.76631 0.00031709
1.1455 0.000576485 0.835177 0.000262614 1.78601 0.000320627
1.22959 0.000618804 0.867006 0.000272622 1.81976 0.000326685
1.32808 0.000668367 0.902449 0.000283767 1.82333 0.000327326
1.43558 0.000722468 0.946515 0.000297623 1.78729 0.000320857
1.55115 0.000780632 0.986236 0.000310113 1.7444 0.000313157
1.67077 0.000840829 1.02462 0.000322183 1.70746 0.000306526
1.79142 0.000901549 1.06382 0.000334508 1.64813 0.000295875
1.88376 0.000948018 1.10668 0.000347986 1.54814 0.000277925
1.99729 0.00100515 1.15637 0.000363611 1.43246 0.000257157
2.05889 0.00103615 1.19445 0.000375585 1.33191 0.000239105
2.08445 0.00104902 1.21276 0.000381342 1.25028 0.000224453
2.12316 0.0010685 1.24384 0.000391115 1.14513 0.000205575
2.16436 0.00108923 1.26081 0.00039645 1.05077 0.000188635
2.18353 0.00109888 1.2709 0.000399624 0.976581 0.000175317
2.19859 0.00110646 1.27711 0.000401576 0.925745 0.000166191
2.21082 0.00111261 1.27886 0.000402126 0.885601 0.000158984
2.20885 0.00111162 1.26997 0.00039933 0.860991 0.000154566
2.19752 0.00110592 1.2555 0.000394782 0.858225 0.00015407
2.17817 0.00109618 1.237 0.000388964 0.877212 0.000157478
2.14394 0.00107895 1.21105 0.000380804 0.911926 0.00016371
2.0999 0.00105679 1.18064 0.000371242 0.9565 0.000171712
2.04984 0.0010316 1.14696 0.000360653 1.01081 0.000181462
1.99692 0.00100497 1.11062 0.000349224 1.07246 0.000192529
1.94664 0.000979665 1.07261 0.000337271 1.13473 0.000203708
1.8639 0.000938024 1.04286 0.000327919 1.18867 0.000213391
1.78053 0.000896066 1.0197 0.000320636 1.22373 0.000219686
1.69257 0.000851801 0.980208 0.000308217 1.26252 0.000226649
1.62779 0.000819197 0.953697 0.000299881 1.2764 0.000229142
1.58293 0.000796622 0.930656 0.000292636 1.27419 0.000228744
1.55073 0.000780419 0.904784 0.000284501 1.25476 0.000225255
1.53933 0.000774682 0.883355 0.000277763 1.2171 0.000218495
1.54935 0.000779725 0.868149 0.000272982 1.16037 0.000208311
1.57625 0.000793262 0.855489 0.000269001 1.08519 0.000194816
1.61749 0.000814015 0.846022 0.000266024 0.994469 0.000178528
1.66659 0.000838727 0.842039 0.000264772 0.89123 0.000159995
1.71949 0.000865349 0.842288 0.00026485 0.779157 0.000139875
1.7741 0.000892829 0.846366 0.000266132 0.661172 0.000118694
1.82664 0.000919271 0.853644 0.000268421 0.542732 9.7432e-05
1.87277 0.000942488 0.863606 0.000271553 0.429749 7.71492e-05
1.90951 0.000960979 0.875435 0.000275273 0.327092 5.872e-05
1.93409 0.00097335 0.887909 0.000279195 0.239128 4.29286e-05
1.94341 0.000978037 0.897645 0.000282256 0.182416 3.27475e-05
1.9427 0.00097768 0.9067 0.000285104 0.140242 2.51765e-05
1.93139 0.000971988 0.914576 0.00028758 0.114308 2.05206e-05
1.90902 0.000960732 0.920736 0.000289517 0.105673 1.89706e-05
1.87541 0.000943816 0.924753 0.00029078 0.11486 2.06199e-05
1.83065 0.00092129 0.92635 0.000291283 0.141981 2.54886e-05
1.775 0.000893283 0.925337 0.000290964 0.186722 3.35206e-05
1.7088 0.000859969 0.921573 0.00028978 0.248217 4.45603e-05
1.63247 0.000821554 0.915006 0.000287715 0.324974 5.83397e-05
1.54644 0.00077826 0.905696 0.000284788 0.414951 7.44926e-05
1.4512 0.000730331 0.893802 0.000281048 0.515708 9.25806e-05
1.3474 0.000678088 0.879529 0.00027656 0.624514 0.000112114
1.23599 0.000622021 0.863089 0.000271391 0.738419 0.000132562
1.11834 0.000562815 0.844693 0.000265606 0.854296 0.000153364
0.996225 0.000501359 0.824554 0.000259274 0.96892 0.000173942
0.871702 0.000438691 0.802877 0.000252458 1.07908 0.000193718
0.74691 0.000375889 0.779845 0.000245215 1.18168 0.000212137
0.623824 0.000313945 0.755617 0.000237597 1.2738 0.000228673
0.504138 0.000253712 0.730322 0.000229643 1.35273 0.000242843
0.389262 0.0001959 0.704062 0.000221386 1.41606 0.000254214
0.280384 0.000141106 0.676907 0.000212847 1.46175 0.000262414
0.178477 8.98199e-05 0.648893 0.000204039 1.48813 0.000267151
0.0842717 4.24104e-05 0.620017 0.000194959 1.49405 0.000268213
-0.00180157 -9.06655e-07 0.590229 0.000185592 1.4788 0.000265476
-0.079576 -4.00473e-05 0.559434 0.000175909 1.44217 0.000258901
-0.136327 -6.86079e-05 0.528221 0.000166094 1.38386 0.000248433
-0.197377 -9.93319e-05 0.494756 0.000155572 1.30424 0.000234139
-0.249936 -0.000125782 0.457859 0.00014397 1.20807 0.000216873
-0.284008 -0.000142929 0.420758 0.000132304 1.09237 0.000196103
-0.308956 -0.000155485 0.378541 0.000119029 0.965474 0.000173323
-0.332713 -0.00016744 0.339019 0.000106602 0.821497 0.000147476
-0.35273 -0.000177514 0.293479 9.2282e-05 0.669111 0.00012012
-0.369874 -0.000186142 0.24629 7.74437e-05 0.506777 9.09773e-05
-0.38657 -0.000194545 0.19648 6.17812e-05 0.339399 6.09293e-05
-0.403918 -0.000203275 0.14491 4.55658e-05 0.168621 3.02711e-05
-0.422328 -0.00021254 0.0909684 2.86042e-05 -0.00315585 -5.66542e-07
-0.442901 -0.000222894 0.0344185 1.08226e-05 -0.189863 -3.40844e-05
-0.467462 -0.000235254 -0.0216679 -6.81328e-06 -0.397938 -7.14383e-05
-0.495764 -0.000249498 -0.0814607 -2.56146e-05 -0.600724 -0.000107843
-0.529526 -0.000266489 -0.145415 -4.57245e-05 -0.793641 -0.000142476
-0.568975 -0.000286341 -0.220019 -6.91829e-05 -0.968196 -0.000173812
-0.615334 -0.000309672 -0.298902 -9.3987e-05 -1.12853 -0.000202596
-0.668757 -0.000336557 -0.380811 -0.000119743 -1.27871 -0.000229556
-0.729412 -0.000367083 -0.46449 -0.000146055 -1.41932 -0.000254797
-0.797375 -0.000401286 -0.549798 -0.000172879 -1.5467 -0.000277666
-0.872335 -0.00043901 -0.636865 -0.000200257 -1.65751 -0.000297557
-0.953597 -0.000479906 -0.725091 -0.000227998 -1.75214 -0.000314547
-1.04028 -0.000523531 -0.813365 -0.000255755 -1.83373 -0.000329193
-1.13142 -0.000569396 -0.900732 -0.000283227 -1.90494 -0.000341978
-1.2259 -0.000616943 -0.986698 -0.000310258 -1.96621 -0.000352977
-1.32255 -0.000665585 -1.07088 -0.000336728 -2.01683 -0.000362065
-1.42026 -0.000714759 -1.15264 -0.000362436 -2.05716 -0.000369303
-1.51797 -0.000763931 -1.23114 -0.000387121 -2.0893 -0.000375074
-1.6146 -0.000812562 -1.30567 -0.000410555 -2.11597 -0.000379862
-1.70906 -0.000860099 -1.37573 -0.000432587 -2.13892 -0.000383982
-1.80024 -0.000905986 -1.44099 -0.000453106 -2.15875 -0.000387541
-1.88702 -0.00094966 -1.50106 -0.000471994 -2.17582 -0.000390607
-1.96831 -0.00099057 -1.55557 -0.000489136 -2.19116 -0.00039336
-2.04311 -0.00102821 -1.60426 -0.000504446 -2.20627 -0.000396072
-2.11053 -0.00106214 -1.64699 -0.000517881 -2.22236 -0.000398961
-2.16984 -0.00109199 -1.6837 -0.000529425 -2.23988 -0.000402107
-2.17961 -0.00109691 -1.7097 -0.000537601 -2.26044 -0.000405797
-2.1748 -0.00109449 -1.7087 -0.000537284 -2.29508 -0.000412016
-2.17815 -0.00109617 -1.7359 -0.000545839 -2.31581 -0.000415738
-2.18313 -0.00109868 -1.74941 -0.000550085 -2.33491 -0.000419166
-2.17634 -0.00109526 -1.7453 -0.000548792 -2.36532 -0.000424625
-2.16568 -0.0010899 -1.74731 -0.000549426 -2.38655 -0.000428437
-2.16235 -0.00108822 -1.74548 -0.00054885 -2.40748 -0.000432195
-2.15518 -0.00108461 -1.74062 -0.000547323 -2.42407 -0.000435173
-2.13689 -0.00107541 -1.72754 -0.000543209 -2.43831 -0.000437729
-2.11347 -0.00106362 -1.70911 -0.000537413 -2.45202 -0.00044019
-2.08816 -0.00105088 -1.68917 -0.000531146 -2.46111 -0.000441821
-2.05721 -0.00103531 -1.66532 -0.000523646 -2.46612 -0.00044272
-2.02145 -0.00101731 -1.63711 -0.000514774 -2.46425 -0.000442385
-1.9848 -0.000998866 -1.60498 -0.000504672 -2.4548 -0.00044069
-1.94804 -0.000980369 -1.56996 -0.000493661 -2.43784 -0.000437644
-1.91081 -0.000961629 -1.53257 -0.000481902 -2.41296 -0.000433177
-1.8745 -0.000943356 -1.49303 -0.000469468 -2.37856 -0.000427003
-1.84067 -0.000926333 -1.45152 -0.000456417 -2.33318 -0.000418855
-1.80959 -0.000910692 -1.40835 -0.000442843 -2.27654 -0.000408687
-1.78133 -0.000896472 -1.3642 -0.00042896 -2.209 -0.000396562
-1.75649 -0.000883971 -1.31974 -0.000414982 -2.13068 -0.000382502
-1.73549 -0.000873398 -1.27531 -0.000401009 -2.04135 -0.000366465
-1.7183 -0.000864751 -1.23106 -0.000387096 -1.94094 -0.00034844
-1.70494 -0.000858027 -1.1874 -0.000373368 -1.82998 -0.000328521
-1.69518 -0.000853115 -1.14487 -0.000359994 -1.70952 -0.000306896
-1.68853 -0.000849765 -1.10389 -0.000347107 -1.58076 -0.000283781
-1.68464 -0.000847809 -1.06448 -0.000334715 -1.44502 -0.000259412
-1.68313 -0.00084705 -1.02679 -0.000322865 -1.30363 -0.00023403
-1.68371 -0.000847341 -0.990989 -0.000311608 -1.15822 -0.000207925
-1.68611 -0.000848547 -0.957164 -0.000300972 -1.01076 -0.000181452
-1.6901 -0.000850555 -0.925276 -0.000290945 -0.863378 -0.000154995
-1.69544 -0.000853246 -0.895222 -0.000281495 -0.718215 -0.000128935
-1.70178 -0.000856437 -0.86694 -0.000272601 -0.577308 -0.000103639
-1.70851 -0.000859821 -0.840416 -0.000264261 -0.44263 -7.94615e-05
-1.71476 -0.000862966 -0.815655 -0.000256475 -0.3161 -5.67466e-05
-1.71949 -0.000865349 -0.792645 -0.00024924 -0.199551 -3.58236e-05
-1.72164 -0.000866429 -0.771367 -0.000242549 -0.0946616 -1.69938e-05
-1.7201 -0.000865657 -0.75211 -0.000236494 -0.0380896 -6.8379e-06
-1.71377 -0.000862471 -0.735849 -0.000231381 0.0128451 2.30598e-06
-1.70205 -0.000856573 -0.720557 -0.000226573 0.0547008 9.81996e-06
-1.68364 -0.000847306 -0.707051 -0.000222326 0.0857566 1.53951e-05
-1.65781 -0.000834309 -0.694458 -0.000218366 0.104053 1.86797e-05
-1.62359 -0.000817084 -0.683458 -0.000214907 0.111265 1.99744e-05
-1.58022 -0.000795257 -0.674019 -0.000211939 0.108119 1.94097e-05
-1.52712 -0.000768536 -0.66607 -0.00020944 0.0943701 1.69414e-05
-1.46416 -0.00073685 -0.659188 -0.000207276 0.069355 1.24507e-05
-1.39161 -0.000700337 -0.653048 -0.000205345 0.0325995 5.8523e-06
-1.31 -0.000659266 -0.647411 -0.000203573 -0.0154291 -2.76985e-06
-1.22003 -0.000613988 -0.641985 -0.000201866 -0.0750266 -1.34689e-05
-1.12254 -0.000564926 -0.636236 -0.000200059 -0.165744 -2.97546e-05
-1.01845 -0.000512542 -0.629705 -0.000198005 -0.267403 -4.80045e-05
-0.908762 -0.000457342 -0.622042 -0.000195595 -0.378342 -6.79205e-05
-0.794659 -0.000399919 -0.612906 -0.000192723 -0.496125 -8.90649e-05
-0.677418 -0.000340916 -0.602067 -0.000189315 -0.618388 -0.000111014
-0.558472 -0.000281056 -0.589151 -0.000185253 -0.742991 -0.000133383
-0.439261 -0.000221062 -0.573887 -0.000180453 -0.867733 -0.000155776
-0.3211 -0.000161596 -0.55612 -0.000174867 -0.990171 -0.000177757
-0.205089 -0.000103213 -0.535832 -0.000168488 -1.10756 -0.00019883
-0.0921825 -4.63916e-05 -0.513044 -0.000161322 -1.21708 -0.000218492
0.00729901 3.67329e-06 -0.487488 -0.000153286 -1.316 -0.00023625
0.0895103 4.50468e-05 -0.463749 -0.000145822 -1.39979 -0.000251292
0.163392 8.22283e-05 -0.431994 -0.000135837 -1.46846 -0.000263619
0.232399 0.000116957 -0.401321 -0.000126192 -1.52314 -0.000273435
0.292785 0.000147347 -0.370227 -0.000116415 -1.55531 -0.000279212
0.352996 0.000177648 -0.335945 -0.000105635 -1.57088 -0.000282006
0.408746 0.000205705 -0.304232 -9.5663e-05 -1.5635 -0.000280681
0.456584 0.00022978 -0.274904 -8.64411e-05 -1.53459 -0.000275492
0.498972 0.000251112 -0.244049 -7.67391e-05 -1.48331 -0.000266286
0.537655 0.00027058 -0.211567 -6.65252e-05 -1.41065 -0.000253241
0.571323 0.000287523 -0.177122 -5.56943e-05 -1.31644 -0.000236329
0.599564 0.000301736 -0.140466 -4.41682e-05 -1.20135 -0.000215669
0.62392 0.000313993 -0.101948 -3.20566e-05 -1.06716 -0.000191579
0.645295 0.00032475 -0.0618315 -1.94424e-05 -0.915826 -0.00016441
0.663725 0.000334026 -0.0201287 -6.3293e-06 -0.749222 -0.000134501
0.679842 0.000342136 0.0234051 7.35952e-06 -0.569489 -0.000102235
0.694882 0.000349706 0.0688459 2.1648e-05 -0.379206 -6.80756e-05
0.70979 0.000357208 0.115922 3.64505e-05 -0.181147 -3.25197e-05
0.725311 0.000365019 0.164402 5.16947e-05 -0.00854189 -1.53345e-06
0.742779 0.00037381 0.211726 6.65754e-05 0.125158 2.24685e-05
0.76283 0.000383901 0.260472 8.1903e-05 0.258136 4.63409e-05
0.786259 0.000395692 0.310971 9.77822e-05 0.391209 7.02303e-05
0.813998 0.000409651 0.363462 0.000114287 0.516684 9.27557e-05
0.846299 0.000425907 0.417738 0.000131354 0.634306 0.000113871
0.883715 0.000444737 0.472746 0.000148651 0.746938 0.000134091
0.926246 0.000466141 0.528762 0.000166264 0.855509 0.000153582
0.973888 0.000490117 0.585967 0.000184252 0.957845 0.000171953
1.02641 0.000516552 0.644412 0.00020263 1.05042 0.000188574
1.08352 0.000545289 0.703661 0.00022126 1.13184 0.000203189
1.14476 0.000576111 0.76327 0.000240003 1.20334 0.000216025
1.2096 0.000608741 0.822993 0.000258783 1.26678 0.000227413
1.27737 0.000642849 0.882628 0.000277534 1.32264 0.000237441
43.0639 0.147181 0.827902 0.000260326 1.4036 0.000251976
8.93253 0.321998 0.678411 0.00021332 1.6204 0.000290896
8.93253 0.388361 0.9858 0.000309976 1.46083 0.00026225
-0.92649 0.374639 0.865286 0.000272081 1.58289 0.000284162
-3.13212 0.348128 0.89783 0.000282315 1.55827 0.000279742
4.97285 0.372288 0.962969 0.000302797 1.5371 0.000275942
8.93253 0.413996 1.04368 0.000328177 1.51977 0.00027283
8.93253 0.432619 1.08349 0.000340694 1.48893 0.000267295
5.12744 0.430704 1.10355 0.000347003 1.45654 0.00026148
8.93253 0.436052 1.12428 0.00035352 1.41422 0.000253882
8.93253 0.463555 1.15793 0.000364099 1.37771 0.000247328
8.93253 0.493636 1.16986 0.000367852 1.36399 0.000244866
8.93253 0.505044 1.2082 0.000379908 1.32076 0.000237105
8.93253 0.507918 1.20891 0.000380132 1.28911 0.000231423
8.93253 0.51576 1.20733 0.000379633 1.26437 0.000226981
8.93253 0.530938 1.21171 0.000381011 1.24789 0.000224022
8.93253 0.544264 1.21549 0.000382201 1.24061 0.000222716
8.93253 0.54954 1.21161 0.000380981 1.23138 0.00022106
8.93253 0.550977 1.19428 0.000375531 1.22598 0.000220089
8.93253 0.554579 1.17367 0.00036905 1.22636 0.000220159
8.93253 0.560363 1.15484 0.000363131 1.23408 0.000221543
8.93253 0.563024 1.13808 0.00035786 1.24313 0.000223168
7.81703 0.562462 1.11183 0.000349606 1.25068 0.000224523
6.95462 0.562028 1.07406 0.00033773 1.26022 0.000226237
6.74175 0.561921 1.04436 0.000328388 1.26273 0.000226687
6.32852 0.561713 1.01273 0.000318444 1.26563 0.000227207
5.20388 0.561147 0.978149 0.00030757 1.26576 0.000227231
4.24448 0.560665 0.941992 0.000296201 1.25836 0.000225903
3.77359 0.560428 0.907152 0.000285246 1.24147 0.000222871
3.38311 0.560231 0.873402 0.000274633 1.21612 0.00021832
2.95898 0.560018 0.840614 0.000264324 1.183 0.000212373
2.84827 0.559962 0.809933 0.000254676 1.14037 0.00020472
3.24668 0.560162 0.778243 0.000244711 1.08822 0.000195359
3.72558 0.560403 0.747592 0.000235074 1.02665 0.000184306
4.37828 0.560732 0.723088 0.000227368 0.953332 0.000171143
5.40382 0.561248 0.702635 0.000220937 0.872781 0.000156683
6.67097 0.561886 0.685566 0.00021557 0.785283 0.000140975
7.91287 0.562511 0.670044 0.000210689 0.693069 0.000124421
8.93253 0.56329 0.657362 0.000206702 0.596142 0.00010702
8.93253 0.566367 0.645709 0.000203037 0.497629 8.9335e-05
8.93253 0.571256 0.635674 0.000199882 0.400868 7.19643e-05
8.93253 0.576231 0.630282 0.000198186 0.304884 5.47332e-05
8.93253 0.58016 0.624781 0.000196457 0.215046 3.86054e-05
8.93253 0.583076 0.621643 0.00019547 0.130925 2.35038e-05
8.93253 0.585934 0.620161 0.000195004 0.0498566 8.95032e-06
8.93253 0.588901 0.620886 0.000195232 -0.0295519 -5.30519e-06
8.93253 0.591146 0.623701 0.000196117 -0.0984814 -1.76795e-05
8.93253 0.592017 0.626728 0.000197069 -0.151048 -2.71164e-05
8.6009 0.591851 0.630192 0.000198158 -0.183703 -3.29786e-05
7.98315 0.59154 0.632887 0.000199006 -0.194407 -3.49002e-05
6.9282 0.591009 0.636954 0.000200285 -0.184121 -3.30537e-05
5.2279 0.590153 0.64085 0.00020151 -0.153476 -2.75522e-05
3.04348 0.589054 0.644314 0.000202599 -0.102311 -1.8367e-05
-0.0158921 0.587235 0.649116 0.000204109 -0.031524 -5.65923e-06
-0.277693 0.582512 0.655328 0.000206062 0.0555674 9.97554e-06
-0.775225 0.573535 0.663659 0.000208681 0.128685 2.31017e-05
-1.41218 0.562042 0.670601 0.000210865 0.212274 3.81077e-05
-2.06803 0.550209 0.678017 0.000213196 0.304394 5.46452e-05
-2.70323 0.538748 0.686588 0.000215891 0.402381 7.22359e-05
-3.36779 0.526758 0.694938 0.000218517 0.505766 9.07958e-05
-4.09779 0.513586 0.702643 0.00022094 0.612585 0.000109972
-4.87117 0.499632 0.710243 0.000223329 0.720463 0.000129339
-5.62489 0.486033 0.717702 0.000225675 0.826874 0.000148442
-6.34116 0.47311 0.724945 0.000227953 0.929907 0.000166938
-7.04182 0.460468 0.73233 0.000230275 1.02706 0.00018438
-7.72948 0.448061 0.738989 0.000232368 1.11708 0.00020054
-8.37603 0.436395 0.744882 0.000234221 1.19831 0.000215121
-8.95144 0.426013 0.750411 0.00023596 1.26899 0.000227811
-9.4495 0.417027 0.755347 0.000237512 1.3278 0.000238367
-9.87827 0.40929 0.759534 0.000238828 1.37359 0.000246588
-10.2356 0.402842 0.76267 0.000239815 1.4057 0.000252353
-10.5086 0.397917 0.764744 0.000240467 1.42374 0.000255591
-10.6914 0.39462 0.765945 0.000240845 1.42741 0.00025625
-10.7946 0.392757 0.766193 0.000240922 1.41623 0.000254244
-10.8343 0.39204 0.765439 0.000240685 1.39054 0.000249632
-10.6472 0.392111 0.763679 0.000240132 1.35101 0.000242535
-10.2066 0.392333 0.76172 0.000239516 1.29818 0.000233052
-9.65463 0.39261 0.758738 0.000238578 1.23351 0.000221442
-9.05625 0.392911 0.754901 0.000237372 1.1586 0.000207993
-8.48093 0.393201 0.750396 0.000235955 1.07479 0.000192948
-8.08507 0.3934 0.744695 0.000234163 0.984482 0.000176735
-7.9962 0.393445 0.737456 0.000231886 0.889758 0.000159731
-8.10418 0.393391 0.727849 0.000228865 0.79299 0.000142359
-7.83502 0.393526 0.710359 0.000223366 0.699208 0.000125523
-8.48816 0.393197 0.696619 0.000219046 0.604791 0.000108573
-9.53856 0.392669 0.677156 0.000212926 0.514884 9.24326e-05
-10.858 0.391613 0.655444 0.000206098 0.431223 7.74136e-05
-11.1206 0.386876 0.634045 0.00019937 0.353226 6.34116e-05
-11.6065 0.378108 0.612924 0.000192728 0.281469 5.05297e-05
-12.225 0.36695 0.586043 0.000184276 0.221244 3.97181e-05
-12.9055 0.35467 0.559776 0.000176016 0.168876 3.03168e-05
-13.644 0.341345 0.530595 0.000166841 0.1276 2.29069e-05
-14.5141 0.325648 0.499907 0.000157191 0.0967256 1.73643e-05
-15.5339 0.307247 0.468198 0.000147221 0.0753129 1.35203e-05
-16.6315 0.287443 0.432312 0.000135937 0.0645597 1.15898e-05
-17.7676 0.266945 0.394419 0.000124021 0.0627317 1.12617e-05
-18.9555 0.245511 0.35473 0.000111542 0.0678581 1.2182e-05
-20.2169 0.222753 0.312513 9.82669e-05 0.0793424 1.42437e-05
-21.5369 0.198937 0.268308 8.4367e-05 0.0950912 1.70709e-05
-22.8723 0.174842 0.222431 6.99413e-05 0.113601 2.03938e-05
-24.1845 0.151165 0.175507 5.51867e-05 0.132614 2.3807e-05
-25.4429 0.128462 0.124614 3.91838e-05 0.15115 2.71347e-05
-26.7148 0.105512 0.0742107 2.33349e-05 0.16533 2.96802e-05
-27.9737 0.0827978 0.00431752 1.35761e-06 0.172714 3.10058e-05
-29.1807 0.0610203 -0.0648163 -2.03809e-05 0.171917 3.08628e-05
-30.2975 0.0408699 -0.134655 -4.23411e-05 0.165223 2.9661e-05
-31.3401 0.0220584 -0.2005 -6.30453e-05 0.14678 2.63502e-05
-32.2953 0.00482471 -0.263998 -8.30119e-05 0.117063 2.10153e-05
-32.5318 0.000556784 -0.333879 -0.000104985 0.0783703 1.40691e-05
-32.5377 0.00045061 -0.406152 -0.000127711 0.0357679 6.4211e-06
-32.5428 0.00035843 -0.450852 -0.000141766 -0.0394349 -7.0794e-06
-32.5483 0.00025949 -0.513898 -0.000161591 -0.107984 -1.93853e-05
-32.5512 0.000206648 -0.557765 -0.000175384 -0.222645 -3.99695e-05
-32.5523 0.000186604 -0.590529 -0.000185687 -0.352705 -6.3318e-05
-32.5535 0.000165396 -0.618661 -0.000194532 -0.497392 -8.92924e-05
-32.5542 0.000152392 -0.647394 -0.000203567 -0.648137 -0.000116354
-32.554 0.000147824 -0.666388 -0.00020954 -0.806752 -0.000144829
-32.5444 0.000152692 -0.678402 -0.000213317 -0.974297 -0.000174907
-32.5397 0.000155038 -0.687653 -0.000216226 -1.14397 -0.000205367
-32.5386 0.000155583 -0.693589 -0.000218093 -1.31425 -0.000235935
-32.5349 0.000157465 -0.695726 -0.000218765 -1.47945 -0.000265594
-32.5346 0.00015761 -0.695526 -0.000218702 -1.6359 -0.000293679
-32.5446 0.000152594 -0.695417 -0.000218668 -1.77988 -0.000319526
-32.5548 0.000142891 -0.695958 -0.000218838 -1.90919 -0.00034274
-32.5555 0.000129299 -0.697731 -0.000219395 -2.02102 -0.000362816
-32.5565 0.000110786 -0.701998 -0.000220737 -2.11187 -0.000379126
-32.5579 8.68948e-05 -0.70997 -0.000223244 -2.17898 -0.000391174
-32.5594 5.84371e-05 -0.722378 -0.000227145 -2.22099 -0.000398714
-32.5612 2.59731e-05 -0.739615 -0.000232565 -2.23745 -0.000401671
-32.5633 -1.04996e-05 -0.762191 -0.000239664 -2.22554 -0.000399532
-32.5655 -5.08754e-05 -0.789902 -0.000248378 -2.18525 -0.000392299
-32.5679 -9.47358e-05 -0.822638 -0.000258671 -2.11797 -0.00038022
-32.5705 -0.00014183 -0.860231 -0.000270492 -2.02614 -0.000363734
-32.5733 -0.000192014 -0.902325 -0.000283728 -1.91216 -0.000343274
-32.5762 -0.000244814 -0.948418 -0.000298221 -1.77937 -0.000319434
-32.5793 -0.000299647 -0.997722 -0.000313725 -1.63206 -0.000292989
-32.5824 -0.000355662 -1.04948 -0.00033 -1.47501 -0.000264796
-32.5855 -0.000412283 -1.1028 -0.000346765 -1.31325 -0.000235756
-32.5887 -0.000468802 -1.15692 -0.000363782 -1.15153 -0.000206725
-32.5917 -0.000524295 -1.211 -0.000380788 -0.994629 -0.000178557
-32.5933 -0.000553232 -1.26608 -0.000398106 -0.848063 -0.000152245
-32.5945 -0.000573596 -1.2948 -0.000407139 -0.728371 -0.000130758
-32.5957 -0.000595563 -1.33702 -0.000420413 -0.62901 -0.000112921
-32.5962 -0.000604192 -1.38588 -0.000435777 -0.530544 -9.5244e-05
-32.5965 -0.000609474 -1.40723 -0.000442492 -0.474733 -8.52247e-05
-32.597 -0.000618743 -1.44157 -0.000453289 -0.429469 -7.70989e-05
-32.5975 -0.000627872 -1.47201 -0.000462861 -0.41408 -7.43362e-05
-32.5976 -0.000630322 -1.49894 -0.000471329 -0.426097 -7.64934e-05
-32.5951 -0.000629051 -1.523 -0.000478894 -0.461816 -8.29059e-05
-32.5931 -0.000628062 -1.54211 -0.000484902 -0.523822 -9.40371e-05
-32.5876 -0.000625258 -1.5588 -0.000490149 -0.611087 -0.000109703
-32.5739 -0.00061839 -1.57224 -0.000494376 -0.723688 -0.000129917
-32.5549 -0.000608813 -1.58276 -0.000497685 -0.858255 -0.000154075
-32.5339 -0.000598276 -1.59072 -0.000500186 -1.01054 -0.000181413
-32.5091 -0.0005858 -1.59559 -0.000501719 -1.17811 -0.000211495
-32.4755 -0.000568866 -1.59664 -0.00050205 -1.35919 -0.000244003
-32.4331 -0.000547532 -1.59871 -0.000502699 -1.5481 -0.000277918
-32.3915 -0.000526589 -1.59882 -0.000502734 -1.74159 -0.000312653
-32.3474 -0.000504421 -1.59938 -0.000502912 -1.93471 -0.000347322
-32.2774 -0.000469169 -1.60827 -0.000505705 -2.12053 -0.00038068
-32.2212 -0.000440869 -1.61301 -0.000507197 -2.28743 -0.000410642
-32.1633 -0.000411765 -1.61352 -0.000507357 -2.43878 -0.000437812
-32.1131 -0.000386502 -1.61886 -0.000509036 -2.55529 -0.000458729
-32.0733 -0.000366478 -1.6195 -0.000509238 -2.52673 -0.000453601
-32.0429 -0.000351166 -1.61193 -0.000506856 -2.52621 -0.000453508
-32.018 -0.000338642 -1.61335 -0.000507303 -2.53875 -0.00045576
-32.0033 -0.000331229 -1.61429 -0.0005076 -2.5493 -0.000457654
-31.9936 -0.000326325 -1.62628 -0.000511369 -2.54074 -0.000456117
-31.9898 -0.000324422 -1.64202 -0.000516319 -2.52427 -0.00045316
-31.9925 -0.000325815 -1.65879 -0.000521592 -2.5168 -0.000451819
-32.0014 -0.000330265 -1.67786 -0.000527588 -2.50993 -0.000450586
-32.0159 -0.000337544 -1.69764 -0.000533807 -2.48989 -0.000446988
-32.0349 -0.000347111 -1.71873 -0.00054044 -2.44569 -0.000439053
-32.0576 -0.000358571 -1.73922 -0.000546883 -2.38003 -0.000427266
-32.0832 -0.000371415 -1.75789 -0.000552753 -2.30002 -0.000412902
-32.11 -0.000384928 -1.77463 -0.000558017 -2.21289 -0.000397261
-32.137 -0.00039852 -1.78913 -0.000562575 -2.12082 -0.000380732
-32.163 -0.000411579 -1.80065 -0.000566197 -2.02242 -0.000363067
-32.1864 -0.000423396 -1.8083 -0.000568604 -1.91806 -0.000344333
-32.2063 -0.000433376 -1.8114 -0.000569579 -1.81178 -0.000325254
-32.2212 -0.000440905 -1.80969 -0.000569041 -1.70889 -0.000306782
-32.2303 -0.000445446 -1.80289 -0.000566902 -1.61258 -0.000289492
-32.2326 -0.000446601 -1.79054 -0.00056302 -1.52328 -0.000273461
-32.2273 -0.000443964 -1.77247 -0.000557338 -1.44076 -0.000258648
-32.2141 -0.000437337 -1.74857 -0.000549821 -1.36603 -0.000245232
-32.1928 -0.000426619 -1.71895 -0.000540508 -1.30108 -0.000233571
-32.1634 -0.000411795 -1.68377 -0.000529447 -1.24725 -0.000223907
-32.1261 -0.000393031 -1.64313 -0.000516666 -1.20422 -0.000216183
-32.0814 -0.000370511 -1.59744 -0.000502301 -1.17056 -0.00021014
-32.0297 -0.000344528 -1.54719 -0.0004865 -1.14484 -0.000205524
-31.9718 -0.00031537 -1.49298 -0.000469453 -1.12613 -0.000202164
-31.9081 -0.000283306 -1.4355 -0.00045138 -1.11345 -0.000199887
-31.8392 -0.000248658 -1.37536 -0.000432469 -1.10517 -0.000198402
-31.7657 -0.000211635 -1.3134 -0.000412986 -1.09899 -0.000197293
-31.6879 -0.000172519 -1.2504 -0.000393176 -1.09248 -0.000196124
-31.6065 -0.000131547 -1.18712 -0.000373278 -1.08356 -0.000194522
-31.5216 -8.8791e-05 -1.12436 -0.000353545 -1.07052 -0.000192182
-31.4332 -4.43293e-05 -1.06268 -0.00033415 -1.05178 -0.000188817
-31.3411 2.03958e-06 -1.00274 -0.000315304 -1.02569 -0.000184133
-31.2442 5.07802e-05 -0.945095 -0.000297177 -0.990721 -0.000177855
-31.1411 0.000102683 -0.890122 -0.000279891 -0.945744 -0.000169781
-31.0287 0.000159237 -0.838232 -0.000263574 -0.890168 -0.000159804
-30.9025 0.000222748 -0.789522 -0.000248258 -0.823856 -0.0001479
-30.7547 0.00029715 -0.744082 -0.00023397 -0.746983 -0.000134099
-30.5712 0.000389507 -0.701862 -0.000220694 -0.660012 -0.000118486
-30.3227 0.000514535 -0.6626 -0.000208349 -0.563755 -0.000101206
-29.9287 0.000712823 -0.626131 -0.000196881 -0.459405 -8.24729e-05
-29.0391 0.00116056 -0.592178 -0.000186205 -0.348416 -6.25481e-05
-26.1805 0.00259915 -0.561316 -0.000176501 -0.232026 -4.16537e-05
-22.2442 0.0045801 -0.532514 -0.000167444 -0.112042 -2.01139e-05
-18.6945 0.00636652 -0.503059 -0.000158182 -0.00986661 -1.77127e-06
-15.5075 0.00797045 -0.4789 -0.000150586 0.0506582 9.09423e-06
-12.4545 0.00950685 -0.455328 -0.000143174 0.112731 2.02376e-05
-9.4401 0.0110239 -0.430981 -0.000135518 0.177105 3.17942e-05
-5.75461 0.0128787 -0.406665 -0.000127872 0.234873 4.21647e-05
-0.827864 0.0153581 -0.381504 -0.000119961 0.283704 5.09309e-05
0.0357221 0.0180792 -0.354048 -0.000111327 0.327116 5.87243e-05
0.0846453 0.0212352 -0.326625 -0.000102704 0.368064 6.60753e-05
0.146911 0.025252 -0.30184 -9.49109e-05 0.41 7.36037e-05
0.231176 0.030688 -0.275715 -8.66962e-05 0.446457 8.01486e-05
0.336174 0.0374615 -0.248927 -7.82729e-05 0.474713 8.52211e-05
0.465445 0.0458008 -0.223942 -7.04165e-05 0.495435 8.89411e-05
0.621986 0.0558994 -0.199872 -6.2848e-05 0.511279 9.17854e-05
0.805571 0.0677426 -0.176072 -5.53643e-05 0.524088 9.40849e-05
1.0091 0.0808726 -0.1526 -4.79836e-05 0.532976 9.56805e-05
1.22789 0.0949863 -0.128921 -4.05379e-05 0.534425 9.59406e-05
1.46447 0.110248 -0.106646 -3.35339e-05 0.527137 9.46323e-05
1.72053 0.126767 -0.0850637 -2.67475e-05 0.51315 9.21214e-05
1.99469 0.144453 -0.0639836 -2.01191e-05 0.494597 8.87907e-05
2.28223 0.163003 -0.0435678 -1.36995e-05 0.471807 8.46994e-05
2.57901 0.182148 -0.0235768 -7.4135e-06 0.443665 7.96473e-05
2.8836 0.201797 -0.00939234 -2.95334e-06 0.410232 7.36453e-05
3.19416 0.221832 0.00313741 9.86531e-07 0.372828 6.69306e-05
3.507 0.242013 0.0157466 4.95137e-06 0.333339 5.98414e-05
3.8179 0.26207 0.0283971 8.92921e-06 0.293132 5.26235e-05
4.12393 0.281812 0.0414744 1.30413e-05 0.252609 4.53487e-05
4.42417 0.30118 0.0550266 1.73026e-05 0.212261 3.81054e-05
4.71807 0.32014 0.0689181 2.16707e-05 0.173159 3.10858e-05
5.00438 0.33861 0.0831372 2.61417e-05 0.136882 2.45733e-05
5.28155 0.35649 0.0975974 3.06886e-05 0.104868 1.88261e-05
5.54832 0.3737 0.112342 3.5325e-05 0.0779801 1.39991e-05
5.80394 0.39019 0.127405 4.00613e-05 0.0567236 1.01831e-05
6.04767 0.405914 0.142654 4.48561e-05 0.038492 6.91013e-06
6.27874 0.42082 0.158156 4.97307e-05 0.0267861 4.80868e-06
6.49524 0.434786 0.173808 5.46523e-05 0.0250303 4.49348e-06
6.69759 0.44784 0.189422 5.95621e-05 0.0345748 6.20692e-06
6.88647 0.460025 0.205203 6.45243e-05 0.054322 9.75196e-06
7.06331 0.471433 0.220745 6.94114e-05 0.0770183 1.38264e-05
7.22887 0.482114 0.236193 7.42689e-05 0.107781 1.9349e-05
7.38348 0.492087 0.251632 7.91235e-05 0.146138 2.6235e-05
7.51866 0.500808 0.269719 8.48109e-05 0.189956 3.41012e-05
7.62867 0.507905 0.290529 9.13542e-05 0.237235 4.25887e-05
7.73058 0.514479 0.307131 9.65746e-05 0.292912 5.25839e-05
7.82808 0.520769 0.327414 0.000102952 0.351879 6.31697e-05
7.92841 0.527241 0.347639 0.000109312 0.41504 7.45085e-05
8.02857 0.533702 0.367772 0.000115643 0.481407 8.64229e-05
8.12522 0.539937 0.388536 0.000122172 0.548875 9.85348e-05
8.22348 0.546276 0.409172 0.000128661 0.610587 0.000109613
8.33039 0.553173 0.429341 0.000135002 0.664704 0.000119328
8.45037 0.560913 0.45033 0.000141602 0.715219 0.000128397
8.58173 0.569387 0.472187 0.000148475 0.765259 0.00013738
8.72404 0.578568 0.494096 0.000155364 0.812982 0.000145948
8.87929 0.588583 0.516919 0.00016254 0.857732 0.000153981
8.93253 0.600066 0.540491 0.000169953 0.899203 0.000161426
8.93253 0.613768 0.563799 0.000177281 0.937448 0.000168292
8.93253 0.628998 0.588646 0.000185095 0.971598 0.000174423
8.93253 0.644984 0.614593 0.000193253 1.00106 0.000179711
8.93253 0.661231 0.641443 0.000201696 1.02605 0.000184197
8.93253 0.677661 0.670322 0.000210777 1.04571 0.000187728
8.93253 0.693821 0.70239 0.00022086 1.06004 0.000190299
8.93253 0.709671 0.736021 0.000231435 1.06987 0.000192065
8.93253 0.725085 0.770583 0.000242303 1.07631 0.000193221
8.93253 0.740063 0.80647 0.000253587 1.0784 0.000193597
8.93253 0.754647 0.842813 0.000265015 1.07711 0.000193365
8.93253 0.768741 0.87932 0.000276494 1.07377 0.000192765
8.93253 0.782215 0.915378 0.000287833 1.07016 0.000192116
8.93253 0.795014 0.950687 0.000298935 1.06745 0.000191631
8.93253 0.807116 0.984956 0.000309711 1.06665 0.000191487
8.93253 0.818454 1.01769 0.000320005 1.06888 0.000191886
8.93253 0.828891 1.04858 0.000329715 1.07534 0.000193047
8.93253 0.83829 1.0772 0.000338715 1.08712 0.000195161
8.93253 0.84656 1.10336 0.000346942 1.10356 0.000198113
8.93253 0.853649 1.12662 0.000354257 1.12092 0.000201229
8.93253 0.859514 1.14618 0.000360406 1.1439 0.000205354
8.93253 0.863552 1.16448 0.000366161 1.17056 0.000210141
8.93253 0.866365 1.18018 0.000371096 1.20107 0.000215618
8.93253 0.868159 1.19157 0.000374678 1.23546 0.000221791
8.90438 0.868585 1.20022 0.000377397 1.27257 0.000228454
8.45517 0.868359 1.20463 0.000378786 1.31271 0.00023566
7.77613 0.868017 1.20496 0.000378888 1.35556 0.000243352
6.81591 0.867534 1.20339 0.000378396 1.39877 0.00025111
5.52698 0.866885 1.19869 0.000376918 1.44209 0.000258885
3.94272 0.866088 1.19153 0.000374667 1.48412 0.00026643
2.17941 0.8652 1.18114 0.000371398 1.52418 0.000273623
-0.0135257 0.863748 1.16856 0.000367444 1.56101 0.000280235
-0.126498 0.860777 1.15736 0.000363922 1.59165 0.000285734
-0.305578 0.856067 1.14519 0.000360094 1.61676 0.000290243
-0.523732 0.850329 1.13243 0.000356083 1.63543 0.000293595
-0.738073 0.844692 1.11958 0.000352042 1.64699 0.000295669
-0.925386 0.839766 1.10703 0.000348096 1.6506 0.000296318
-1.09478 0.835311 1.09446 0.000344144 1.64366 0.000295072
-1.26125 0.830933 1.08112 0.000339947 1.62556 0.000291823
-1.42552 0.826613 1.06714 0.000335552 1.5966 0.000286623
-1.58031 0.822542 1.05293 0.000331084 1.55705 0.000279524
-1.72432 0.818754 1.03859 0.000326575 1.50686 0.000270514
-1.86772 0.814983 1.02418 0.000322044 1.44635 0.000259651
-2.02056 0.810963 1.00936 0.000317385 1.37678 0.00024716
-2.18461 0.806649 0.994154 0.000312603 1.29988 0.000233357
-2.35697 0.802116 0.978442 0.000307662 1.21737 0.000218543
-2.53831 0.797347 0.962081 0.000302518 1.13069 0.000202982
-2.73503 0.792173 0.944885 0.000297111 1.04125 0.000186926
-2.95247 0.786454 0.926605 0.000291362 0.95067 0.000170665
-3.19305 0.780127 0.907041 0.000285211 0.860907 0.000154551
-3.45897 0.773134 0.88619 0.000278654 0.773679 0.000138892
-3.75404 0.765373 0.863848 0.000271629 0.690515 0.000123962
-4.08297 0.756723 0.840008 0.000264133 0.612573 0.00010997
-4.44569 0.747183 0.814185 0.000256013 0.540963 9.71144e-05
-4.8296 0.737086 0.784985 0.000246832 0.477553 8.57309e-05
-5.26613 0.725606 0.756904 0.000238002 0.420831 7.55482e-05
-5.75844 0.712658 0.726764 0.000228524 0.372184 6.6815e-05
-6.30657 0.698243 0.695106 0.00021857 0.332429 5.96781e-05
-6.89701 0.682714 0.662558 0.000208335 0.300475 5.39417e-05
-7.51748 0.666396 0.628644 0.000197672 0.276971 4.97221e-05
-8.16969 0.649243 0.594208 0.000186843 0.260426 4.67519e-05
-8.85533 0.631211 0.5587 0.000175678 0.250513 4.49724e-05
-9.59951 0.611639 0.525503 0.00016524 0.244989 4.39808e-05
-10.3801 0.591109 0.491324 0.000154492 0.24353 4.37189e-05
-11.1759 0.570181 0.455925 0.000143361 0.247081 4.43563e-05
-11.9805 0.549019 0.42267 0.000132905 0.250932 4.50476e-05
-12.7909 0.527708 0.38897 0.000122308 0.256031 4.59631e-05
-13.6112 0.506133 0.355928 0.000111918 0.260008 4.6677e-05
-14.4329 0.484524 0.323159 0.000101614 0.262356 4.70985e-05
-15.2411 0.463266 0.291007 9.15047e-05 0.262126 4.70572e-05
-16.0277 0.442581 0.259962 8.17427e-05 0.257949 4.63073e-05
-16.79 0.422531 0.229713 7.22311e-05 0.248871 4.46777e-05
-17.5261 0.403172 0.200199 6.29509e-05 0.234199 4.20437e-05
-18.2297 0.384669 0.171441 5.39081e-05 0.213663 3.8357e-05
-18.8991 0.367062 0.144127 4.53193e-05 0.186855 3.35445e-05
-19.534 0.350366 0.118258 3.71852e-05 0.153508 2.75579e-05
-20.1301 0.334688 0.0889046 2.79552e-05 0.113919 2.0451e-05
-20.6455 0.321132 0.0567993 1.786e-05 0.0691555 1.24149e-05
-21.1456 0.307981 0.0273146 8.58883e-06 0.0187327 3.36292e-06
-21.6154 0.295624 0.000855655 2.69053e-07 -0.0379082 -6.80534e-06
-22.0366 0.284546 -0.0249686 -7.85116e-06 -0.0946677 -1.69949e-05
-22.4322 0.274144 -0.044102 -1.38675e-05 -0.162549 -2.91811e-05
-22.8167 0.264032 -0.059911 -1.88385e-05 -0.233167 -4.18584e-05
-23.1594 0.255018 -0.0788851 -2.48047e-05 -0.304479 -5.46605e-05
-23.4746 0.246727 -0.0975225 -3.06651e-05 -0.371255 -6.66482e-05
-23.7916 0.23839 -0.111928 -3.51946e-05 -0.438359 -7.86948e-05
-24.1187 0.22979 -0.128156 -4.02975e-05 -0.502917 -9.02844e-05
-24.4706 0.220535 -0.142476 -4.48003e-05 -0.567792 -0.000101931
-24.8419 0.210768 -0.156609 -4.92441e-05 -0.629569 -0.000113021
-25.2349 0.200432 -0.170691 -5.36722e-05 -0.685321 -0.00012303
-25.6617 0.189207 -0.184709 -5.80802e-05 -0.73443 -0.000131846
-26.1322 0.176835 -0.199489 -6.27276e-05 -0.776824 -0.000139456
-26.6493 0.163236 -0.215077 -6.7629e-05 -0.813085 -0.000145966
-27.2116 0.148447 -0.231698 -7.28554e-05 -0.842384 -0.000151226
-27.82 0.132445 -0.249777 -7.85401e-05 -0.863353 -0.00015499
-28.478 0.115142 -0.269629 -8.47823e-05 -0.875187 -0.000157115
-29.1855 0.0965328 -0.291687 -9.17185e-05 -0.877226 -0.000157481
-29.9379 0.0767443 -0.316085 -9.93902e-05 -0.868067 -0.000155837
-30.7287 0.0559471 -0.342708 -0.000107762 -0.848552 -0.000152333
-31.5526 0.0342806 -0.371929 -0.00011695 -0.81933 -0.000147087
-32.4049 0.0118646 -0.403903 -0.000127004 -0.7808 -0.00014017
-32.7581 0.000561271 -0.446286 -0.000140331 -0.73033 -0.00013111
-32.8413 0.000386371 -0.531208 -0.000167034 -0.647035 -0.000116157
-32.8458 0.000269529 -0.561281 -0.00017649 -0.59591 -0.000106979
-32.8505 0.000145309 -0.638266 -0.000200697 -0.51916 -9.32003e-05
-32.8543 4.50892e-05 -0.708538 -0.000222793 -0.450591 -8.08907e-05
-32.8566 -1.61942e-05 -0.770531 -0.000242287 -0.392924 -7.05381e-05
-32.8587 -7.09461e-05 -0.832394 -0.000261739 -0.342638 -6.15108e-05
-32.8611 -0.000133179 -0.898804 -0.000282621 -0.30206 -5.42263e-05
-32.8631 -0.000187397 -0.963692 -0.000303024 -0.276048 -4.95564e-05
-32.8647 -0.000228879 -1.023 -0.000321673 -0.268991 -4.82896e-05
-32.8662 -0.000267551 -1.08094 -0.000339891 -0.27881 -5.00523e-05
-32.8676 -0.000305863 -1.13796 -0.000357822 -0.306328 -5.49924e-05
-32.8689 -0.000338005 -1.19099 -0.000374495 -0.354318 -6.36076e-05
-32.8698 -0.000363144 -1.23975 -0.00038983 -0.423533 -7.60331e-05
-32.8707 -0.000384988 -1.28604 -0.000404383 -0.512473 -9.19998e-05
-32.8714 -0.000403953 -1.32962 -0.000418087 -0.619912 -0.000111287
-32.8719 -0.000418093 -1.36948 -0.00043062 -0.745096 -0.000133761
-32.8723 -0.000427861 -1.40595 -0.000442089 -0.880836 -0.000158129
-32.8726 -0.000435058 -1.43844 -0.000452303 -0.994049 -0.000178453
-32.8728 -0.000440178 -1.46461 -0.000460535 -1.12412 -0.000201803
-32.8315 -0.000555638 -1.63353 -0.000513648 -1.23091 -0.000220975
-31.9186 -9.62282e-05 -1.57018 -0.000493728 -1.44386 -0.000259203
-31.984 -0.000129143 -1.65298 -0.000519766 -1.61864 -0.00029058
-32.5141 -0.000395936 -1.7694 -0.000556371 -1.61314 -0.000289594
-32.4893 -0.000383419 -1.72572 -0.000542637 -1.72466 -0.000309614
-32.2094 -0.000242552 -1.68542 -0.000529966 -1.87417 -0.000336453
-32.265 -0.000270536 -1.77899 -0.000559388 -1.98057 -0.000355554
-32.4456 -0.000361465 -1.87381 -0.000589203 -2.03749 -0.000365773
-32.4387 -0.000357977 -1.87874 -0.000590752 -2.08345 -0.000374023
-32.3784 -0.000327639 -1.87094 -0.000588302 -2.13372 -0.000383047
-32.4409 -0.000359062 -1.92673 -0.000605842 -2.17521 -0.000390497
-32.5111 -0.000394421 -2.19566 -0.000690405 -2.26177 -0.000406036
-32.2998 -0.000288078 -1.91266 -0.00060142 -2.06486 -0.000370686
-32.3584 -0.000317575 -1.67952 -0.00052811 -2.09156 -0.000375479
-32.5212 -0.000399506 -1.95717 -0.000615414 -2.03431 -0.000365202
-32.5992 -0.000438727 -2.2631 -0.00071161 -2.08081 -0.000373549
-32.5877 -0.000432943 -2.33696 -0.000734835 -1.99359 -0.000357891
-32.6491 -0.000463874 -2.21392 -0.000696147 -1.85895 -0.00033372
-32.7041 -0.000491559 -2.17097 -0.000682643 -1.76162 -0.000316248
-32.7309 -0.000505019 -2.28709 -0.000719156 -1.74236 -0.00031279
-32.7315 -0.000505339 -2.47683 -0.000778818 -1.69988 -0.000305164
-32.7515 -0.000515407 -2.52989 -0.000795502 -1.60799 -0.000288668
-32.7834 -0.000531458 -2.38154 -0.000748854 -1.56704 -0.000281317
-32.8074 -0.00054354 -2.3234 -0.000730571 -1.57662 -0.000283038
-32.8212 -0.000550494 -2.37629 -0.000747204 -1.59212 -0.00028582
-32.8381 -0.000558983 -2.39503 -0.000753096 -1.63707 -0.000293889
-32.8613 -0.000570656 -2.37173 -0.00074577 -1.65193 -0.000296556
-32.878 -0.00057932 -2.32968 -0.000732548 -1.68064 -0.000301711
-32.8783 -0.000584821 -2.32197 -0.000730123 -1.74583 -0.000313414
-32.8785 -0.000590874 -2.35705 -0.000741152 -1.83649 -0.000329689
-32.8787 -0.000597321 -2.37945 -0.000748196 -1.93318 -0.000347047
-32.8789 -0.000601387 -2.36587 -0.000743926 -2.00324 -0.000359625
-32.8789 -0.000603097 -2.35307 -0.0007399 -2.0487 -0.000367785
-32.879 -0.000604641 -2.35067 -0.000739148 -2.15249 -0.000386418
-32.8791 -0.000605904 -2.36495 -0.000743637 -2.30474 -0.00041375
-32.8762 -0.000604477 -2.38871 -0.000751108 -2.44795 -0.000439458
-32.8716 -0.000602153 -2.40717 -0.000756911 -2.59559 -0.000465964
-32.8664 -0.000599523 -2.42053 -0.000761112 -2.75525 -0.000494626
-32.8581 -0.000595363 -2.44215 -0.000767913 -2.92307 -0.000524753
-32.8476 -0.000590052 -2.47456 -0.000778102 -3.04332 -0.000546341
-32.8366 -0.000584527 -2.50796 -0.000788606 -3.01368 -0.000541019
-32.8252 -0.000578818 -2.53035 -0.000795645 -2.98778 -0.000536371
-32.8085 -0.00057041 -2.56474 -0.00080646 -2.94419 -0.000528545
-32.7937 -0.000562943 -2.5849 -0.000812797 -2.92506 -0.000525111
-32.7767 -0.000554415 -2.60259 -0.000818362 -2.94031 -0.000527849
-32.758 -0.000544989 -2.62184 -0.000824415 -2.95196 -0.00052994
-32.7388 -0.000535321 -2.64183 -0.0008307 -2.93473 -0.000526847
-32.7203 -0.00052602 -2.66298 -0.000837351 -2.89711 -0.000520092
-32.7034 -0.000517519 -2.68437 -0.000844076 -2.8678 -0.000514831
-32.6869 -0.000509198 -2.70612 -0.000850916 -2.86145 -0.000513691
-32.6707 -0.000501042 -2.72822 -0.000857863 -2.86753 -0.000514782
-32.6564 -0.000493857 -2.75054 -0.000864882 -2.86613 -0.000514532
-32.6448 -0.000487992 -2.77521 -0.000872639 -2.85108 -0.00051183
-32.6348 -0.000482982 -2.78481 -0.00087566 -2.83256 -0.000508504
-32.6232 -0.000477158 -2.79077 -0.000877531 -2.82117 -0.00050646
-32.6172 -0.000474124 -2.79266 -0.000878128 -2.82218 -0.000506641
-32.6117 -0.00047137 -2.78783 -0.000876608 -2.82883 -0.000507836
-32.6045 -0.000467725 -2.79025 -0.000877369 -2.83334 -0.000508646
-32.5959 -0.000463416 -2.78196 -0.000874763 -2.82947 -0.000507949
-32.5921 -0.000461516 -2.76656 -0.000869921 -2.82562 -0.000507259
-32.5916 -0.000461261 -2.75328 -0.000865745 -2.82638 -0.000507396
-32.5888 -0.00045985 -2.74278 -0.000862441 -2.81837 -0.000505958
-32.5851 -0.000457975 -2.72902 -0.000858114 -2.79882 -0.000502448
-32.5825 -0.00045666 -2.70966 -0.000852027 -2.76422 -0.000496236
-32.5803 -0.000455542 -2.68779 -0.000845153 -2.71848 -0.000488025
-32.5755 -0.00045312 -2.66279 -0.00083729 -2.6563 -0.000476863
-32.567 -0.000448839 -2.64208 -0.000830779 -2.58995 -0.000464951
-32.5561 -0.000443396 -2.62364 -0.000824981 -2.52131 -0.000452629
-32.5432 -0.000436884 -2.60554 -0.000819288 -2.45416 -0.000440575
-32.5264 -0.00042842 -2.59 -0.000814401 -2.39264 -0.000429529
-32.5048 -0.000417548 -2.57035 -0.000808225 -2.33951 -0.000419991
-32.4752 -0.000402675 -2.54566 -0.000800461 -2.28808 -0.000410759
-32.4365 -0.000383175 -2.50649 -0.000788142 -2.24206 -0.000402497
-32.3891 -0.000359336 -2.4525 -0.000771168 -2.19939 -0.000394837
-32.3408 -0.000335043 -2.39146 -0.000751973 -2.16439 -0.000388554
-32.2853 -0.000307111 -2.33782 -0.000735106 -2.13582 -0.000383426
-32.2208 -0.00027462 -2.26874 -0.000713386 -2.10678 -0.000378211
-32.1488 -0.000238401 -2.18223 -0.000686183 -2.07506 -0.000372518
-32.0704 -0.00019894 -2.09277 -0.000658053 -2.04276 -0.000366719
-31.9844 -0.000155674 -2.00483 -0.000630401 -2.00601 -0.000360121
-31.8901 -0.000108197 -1.90683 -0.000599584 -1.95822 -0.000351542
-31.7874 -5.65309e-05 -1.79828 -0.000565453 -1.89787 -0.000340708
-31.6752 -4.95989e-08 -1.68765 -0.000530666 -1.82554 -0.000327723
-31.5503 6.27963e-05 -1.57621 -0.000495624 -1.73774 -0.000311961
-31.4079 0.000134443 -1.45936 -0.000458884 -1.63024 -0.000292663
-31.2391 0.000219391 -1.3375 -0.000420565 -1.50253 -0.000269737
-31.0255 0.000326915 -1.21475 -0.000381967 -1.35553 -0.000243347
-30.7214 0.000479933 -1.09189 -0.000343334 -1.18814 -0.000213296
-30.1577 0.000763617 -0.96733 -0.000304168 -0.999002 -0.000179342
-27.9099 0.00189485 -0.842346 -0.000264868 -0.78884 -0.000141614
-22.0591 0.00483935 -0.72121 -0.000226778 -0.558578 -0.000100277
-16.4987 0.00763766 -0.611754 -0.00019236 -0.305989 -5.49316e-05
-11.3919 0.0102077 -0.494298 -0.000155428 -0.0788866 -1.41618e-05
-5.74953 0.0130473 -0.395021 -0.000124211 -0.0102672 -1.84318e-06
0.0130135 0.017183 -0.293138 -9.21747e-05 0.03175 5.6998e-06
0.0794508 0.0235248 -0.201709 -6.34256e-05 0.117153 2.10314e-05
0.167373 0.0319174 -0.111141 -3.49472e-05 0.21289 3.82182e-05
0.257991 0.0405674 -0.0222901 -7.00892e-06 0.278222 4.99467e-05
0.353453 0.0496797 0.0534667 1.68121e-05 0.325557 5.84443e-05
0.448456 0.0587483 0.122442 3.85007e-05 0.382948 6.87472e-05
0.549687 0.0684113 0.180235 5.66734e-05 0.46079 8.27216e-05
0.661905 0.0791231 0.238189 7.48962e-05 0.527454 9.46893e-05
0.779683 0.0903657 0.296117 9.31113e-05 0.573934 0.000103033
0.906258 0.102448 0.349569 0.000109919 0.620321 0.000111361
1.03956 0.115172 0.400194 0.000125837 0.675502 0.000121267
1.18472 0.129029 0.448095 0.0001409 0.729398 0.000130942
1.33924 0.143779 0.492794 0.000154955 0.771041 0.000138418
1.50151 0.159268 0.533681 0.000167811 0.805167 0.000144545
1.66861 0.175218 0.571594 0.000179733 0.840215 0.000150836
1.84029 0.191606 0.606363 0.000190666 0.8749 0.000157063
2.01741 0.208513 0.637207 0.000200364 0.903322 0.000162166
2.20034 0.225975 0.665064 0.000209123 0.923867 0.000165854
2.39004 0.244083 0.69 0.000216964 0.941201 0.000168966
2.58785 0.262965 0.712185 0.00022394 0.953406 0.000171157
2.79534 0.282771 0.730653 0.000229747 0.956856 0.000171776
3.01301 0.303549 0.746499 0.00023473 0.950427 0.000170622
3.23964 0.325182 0.760324 0.000239077 0.934815 0.000167819
3.47334 0.34749 0.770602 0.000242309 0.912197 0.000163759
3.70136 0.369255 0.776911 0.000244293 0.887695 0.00015936
3.97918 0.395775 0.780059 0.000245283 0.854471 0.000153396
4.26672 0.423222 0.776796 0.000244257 0.826947 0.000148455
4.51599 0.447016 0.78051 0.000245424 0.792747 0.000142315
4.75395 0.469731 0.768371 0.000241607 0.761119 0.000136637
5.01102 0.49427 0.760007 0.000238977 0.730073 0.000131064
5.27381 0.519354 0.775572 0.000243871 0.710567 0.000127562
5.50109 0.54105 0.776637 0.000244206 0.689564 0.000123791
5.70308 0.56033 0.764613 0.000240426 0.67041 0.000120353
5.90131 0.579253 0.76524 0.000240623 0.662604 0.000118952
6.08571 0.596854 0.775812 0.000243947 0.663375 0.00011909
6.24041 0.611622 0.780409 0.000245393 0.667355 0.000119804
6.37308 0.624286 0.782166 0.000245945 0.677933 0.000121703
6.49335 0.635766 0.791438 0.000248861 0.699289 0.000125537
6.59539 0.645506 0.805144 0.00025317 0.728802 0.000130836
6.67383 0.652993 0.816873 0.000256858 0.763222 0.000137015
6.73164 0.658512 0.828658 0.000260564 0.804204 0.000144372
6.77608 0.662754 0.843333 0.000265179 0.854126 0.000153334
6.80738 0.665742 0.859475 0.000270254 0.910001 0.000163365
6.82552 0.667473 0.873921 0.000274797 0.969917 0.000174121
6.83532 0.668409 0.887895 0.000279191 1.03337 0.000185512
6.84263 0.669106 0.902265 0.000283709 1.09998 0.00019747
6.65524 0.669095 0.919118 0.000289008 1.12818 0.000202532
6.53185 0.669033 0.926803 0.000291425 1.1493 0.000206324
6.38729 0.66896 0.938228 0.000295017 1.15935 0.000208128
6.41372 0.668974 0.944977 0.00029714 1.18516 0.000212762
6.3885 0.668961 0.953083 0.000299688 1.20698 0.000216678
6.50229 0.669018 0.961408 0.000302306 1.21668 0.00021842
6.73409 0.669135 0.970519 0.000305171 1.22209 0.000219391
6.84924 0.669737 0.978641 0.000307725 1.23315 0.000221377
6.87054 0.671771 0.986215 0.000310106 1.24541 0.000223578
6.90115 0.674692 0.995201 0.000312932 1.25076 0.000224537
6.92902 0.677353 0.999704 0.000314348 1.24976 0.000224359
6.94975 0.679332 1.00385 0.000315652 1.24177 0.000222924
6.97058 0.68132 1.00588 0.000316289 1.23119 0.000221025
6.98897 0.683076 1.00731 0.000316741 1.21325 0.000217804
6.99711 0.683853 1.00739 0.000316764 1.18747 0.000213176
6.66714 0.683687 1.0069 0.000316611 1.15629 0.000207579
6.01741 0.68336 1.00485 0.000315966 1.12521 0.000202
4.90271 0.682799 1.00242 0.000315202 1.09437 0.000196463
3.08993 0.681886 0.992369 0.000312042 1.07034 0.000192149
0.600554 0.680634 0.987224 0.000310424 1.04448 0.000187506
-0.141304 0.67739 0.980517 0.000308315 1.02171 0.000183419
-0.459905 0.670759 0.972573 0.000305817 1.00368 0.000180181
-0.897874 0.661643 0.963144 0.000302852 0.989811 0.000177692
-1.35548 0.652119 0.950572 0.000298899 0.9806 0.000176039
-1.82944 0.642254 0.934457 0.000293832 0.975276 0.000175083
-2.34177 0.631591 0.913136 0.000287127 0.97568 0.000175155
-2.86795 0.620639 0.888078 0.000279248 0.980247 0.000175975
-3.38561 0.609865 0.860787 0.000270667 0.986168 0.000177038
-3.96908 0.597721 0.83585 0.000262826 0.987942 0.000177357
-4.54839 0.585663 0.803434 0.000252633 0.990981 0.000177902
-5.09072 0.574376 0.772729 0.000242978 0.988211 0.000177405
-5.5774 0.564246 0.739852 0.00023264 0.980195 0.000175966
-6.0263 0.554903 0.705954 0.000221981 0.962877 0.000172857
-6.4114 0.546888 0.669726 0.000210589 0.936359 0.000168096
-6.70209 0.540838 0.637028 0.000200308 0.899854 0.000161543
-6.90663 0.53658 0.606521 0.000190715 0.852036 0.000152959
-7.055 0.533492 0.573377 0.000180293 0.790881 0.00014198
-7.1382 0.531761 0.540353 0.000169909 0.718062 0.000128907
-6.92629 0.531725 0.513237 0.000161383 0.635539 0.000114093
-6.40103 0.531989 0.491458 0.000154534 0.54222 9.734e-05
-5.74003 0.532322 0.468172 0.000147212 0.441328 7.92277e-05
-4.70974 0.53284 0.449394 0.000141308 0.335111 6.01595e-05
-3.45313 0.533473 0.436613 0.000137289 0.227762 4.08881e-05
-2.21657 0.534095 0.427138 0.00013431 0.121555 2.18218e-05
-0.62095 0.534898 0.419738 0.000131983 0.0256565 4.60589e-06
0.0333343 0.536455 0.420015 0.00013207 -0.0339234 -6.08997e-06
0.103002 0.539055 0.425994 0.00013395 -0.0920477 -1.65245e-05
0.181275 0.541976 0.433068 0.000136174 -0.133507 -2.39673e-05
0.255125 0.544733 0.432961 0.000136141 -0.153665 -2.75861e-05
0.316222 0.547013 0.435107 0.000136815 -0.16949 -3.04271e-05
0.352075 0.548351 0.441101 0.0001387 -0.183264 -3.28997e-05
0.291838 0.548564 0.446308 0.000140337 -0.173599 -3.11647e-05
0.0626127 0.548448 0.450013 0.000141503 -0.12934 -2.32193e-05
-0.0192236 0.548092 0.455688 0.000143287 -0.0599117 -1.07554e-05
-0.0759704 0.547135 0.463529 0.000145752 0.02752 4.94042e-06
-0.214215 0.544802 0.472485 0.000148569 0.0833363 1.49606e-05
-0.460733 0.540642 0.479808 0.000150871 0.123998 2.22603e-05
-0.733158 0.536044 0.486647 0.000153022 0.18869 3.38739e-05
-0.974855 0.531966 0.497428 0.000156412 0.251513 4.51519e-05
-1.19362 0.528274 0.510672 0.000160576 0.30488 5.47324e-05
-1.40659 0.52468 0.526935 0.00016569 0.358109 6.42882e-05
-1.58596 0.521653 0.545521 0.000171534 0.41977 7.53577e-05
-1.70054 0.51972 0.566056 0.000177991 0.481659 8.6468e-05
-1.74492 0.518971 0.589663 0.000185414 0.534904 9.60266e-05
-1.53734 0.519061 0.616759 0.000193934 0.580945 0.000104292
-0.995889 0.519333 0.646914 0.000203416 0.62527 0.000112249
-0.0576446 0.519805 0.678697 0.00021341 0.667141 0.000119766
0.0639938 0.522333 0.712809 0.000224136 0.701819 0.000125991
0.206121 0.527882 0.750904 0.000236115 0.729881 0.000131029
0.370115 0.534285 0.790729 0.000248638 0.752667 0.00013512
0.519206 0.540106 0.829089 0.0002607 0.772609 0.0001387
0.670505 0.546014 0.868211 0.000273001 0.789042 0.00014165
0.835244 0.552446 0.908016 0.000285518 0.801716 0.000143925
0.9774 0.557996 35.5137 0.0448688 0.802357 0.00014404
-1.0378 0.53971 41.0752 0.13956 0.370254 6.64685e-05
0.0570945 0.53976 43.8094 0.186112 0.615139 0.000110431
0.010213 0.538059 39.5372 0.202925 0.3355 6.02294e-05
0.359353 0.550993 -0.0955895 0.189919 0.478985 8.5988e-05
0.355996 0.55606 13.9071 0.19371 0.585778 0.00010516
0.502565 0.556299 38.2112 0.206074 0.660779 0.000118624
0.495884 0.556775 23.682 0.218312 0.576659 0.000103523
0.596378 0.559774 16.6276 0.217227 0.623085 0.000111857
0.699192 0.563583 14.8466 0.216667 0.776041 0.000139316
0.714572 0.564153 22.6268 0.219201 0.890405 0.000159847
0.736022 0.564948 18.1686 0.222956 0.882653 0.000158455
0.75829 0.565773 15.3626 0.222871 0.866662 0.000155584
0.749362 0.566536 12.9254 0.222105 0.960295 0.000172393
0.297736 0.566309 14.1226 0.222481 1.06547 0.000191275
0.252243 0.566286 14.6818 0.222657 1.09759 0.000197041
0.273965 0.566297 13.2214 0.222198 1.09062 0.00019579
0.0290825 0.566174 11.6321 0.221698 1.13644 0.000204015
0.000806539 0.566171 11.8627 0.221771 1.2113 0.000217454
0.0141094 0.566622 12.4452 0.221954 1.24361 0.000223255
0.0702052 0.568521 12.2392 0.221889 1.23509 0.000221725
0.189159 0.572549 12.2178 0.221882 1.23997 0.000222601
0.359191 0.578306 13.3221 0.22223 1.2663 0.000227329
0.561035 0.585141 14.8708 0.222717 1.26969 0.000227937
0.798311 0.593175 16.2712 0.223157 1.23507 0.000221721
1.06283 0.602131 17.1503 0.223814 1.19142 0.000213886
1.35804 0.612127 13.3426 0.227021 1.14719 0.000205946
1.65408 0.622151 8.93253 0.232745 1.08892 0.000195485
1.96097 0.632542 8.93253 0.238806 1.01152 0.000181589
2.29019 0.64369 8.93253 0.244358 0.921396 0.00016541
2.63648 0.655415 8.93253 0.24891 0.843422 0.000151412
2.9719 0.666772 8.93253 0.253741 0.770283 0.000138282
3.28069 0.677228 8.93253 0.259564 0.690631 0.000123983
3.56443 0.686835 8.93253 0.265589 0.610039 0.000109515
3.81792 0.695418 8.93253 0.270821 0.541204 9.71576e-05
4.03462 0.702756 8.93253 0.274514 0.491735 8.82769e-05
4.20706 0.708595 8.93253 0.277379 0.454533 8.15983e-05
4.32623 0.71263 8.93253 0.280111 0.426378 7.6544e-05
4.38992 0.714786 8.93253 0.282649 0.412575 7.40661e-05
4.31594 0.715144 8.93253 0.284606 0.416727 7.48114e-05
3.64725 0.714807 8.93253 0.28535 0.440393 7.906e-05
2.46198 0.714211 8.31778 0.285156 0.480094 8.61871e-05
0.296557 0.713121 7.4438 0.284882 0.530638 9.52608e-05
-0.168214 0.709307 6.47865 0.284578 0.594676 0.000106757
-0.560885 0.700751 5.64986 0.284317 0.664893 0.000119362
-1.05117 0.690069 4.29734 0.283892 0.744296 0.000133617
-1.53421 0.679545 2.65304 0.283375 0.828317 0.0001487
-2.02487 0.668854 -0.00231431 0.282521 0.915966 0.000164435
-2.55647 0.657272 -0.180509 0.280962 1.00434 0.000180301
-3.07947 0.645877 -0.419679 0.278869 1.09046 0.000195761
-3.55891 0.635431 -0.665153 0.276721 1.17157 0.000210323
-4.01361 0.625524 -0.876978 0.274868 1.23921 0.000222465
-4.44779 0.616064 -1.06568 0.273217 1.27524 0.000228933
-4.79608 0.608475 -1.49331 0.269476 28.4559 0.0381033
-5.00247 0.603979 -2.09031 0.264252 29.0817 0.05
-5.38387 0.595669 -2.1475 0.263752 29.3931 0.0559189
-5.67411 0.589345 -1.66993 0.262794 26.089 0.0553257
-6.00493 0.582137 0.0580946 0.263463 23.9229 0.0549369
-6.25372 0.576716 -0.0140839 0.263348 25.6907 0.0552542
-6.53319 0.570627 0.0596151 0.263481 26.9837 0.0554864
-6.80836 0.564632 0.374774 0.264258 25.2261 0.0551708
-7.071 0.55891 1.03041 0.265873 22.4325 0.0546693
-7.32498 0.553376 1.51249 0.267062 21.4214 0.0544878
-7.5278 0.548957 1.42065 0.267225 21.4006 0.0544841
-7.70615 0.545071 1.03096 0.267102 20.3135 0.0542889
-7.92213 0.540365 1.14985 0.26714 18.1169 0.0538946
-8.19758 0.534364 0.877565 0.267054 16.4694 0.0535988
-8.51739 0.527396 -0.0311466 0.26652 15.7454 0.0534688
-8.87483 0.519608 -0.251675 0.264695 15.0909 0.0533514
-9.30914 0.510145 -0.538942 0.262316 13.6079 0.0530851
-9.8402 0.498575 -0.907566 0.259265 11.8043 0.0527613
-10.4489 0.485313 -1.3993 0.255194 10.5577 0.0525375
-11.1319 0.470431 -2.04351 0.24986 10.0623 0.0524486
-11.8833 0.454059 -2.826 0.243382 9.46306 0.052341
-12.6881 0.436524 -3.69996 0.236147 8.70131 0.0522043
-13.5523 0.417697 -4.67471 0.228078 8.51703 0.0521712
-14.4616 0.397884 -5.73228 0.219322 8.74107 0.0522114
-15.3778 0.377922 -6.88675 0.209765 9.06606 0.0522698
-16.2672 0.358544 -8.11779 0.199573 9.21826 0.0522971
-17.0954 0.340499 -9.35797 0.189306 9.2136 0.0522962
-17.8865 0.323263 -10.5607 0.179349 9.12804 0.0522809
-18.65 0.306627 -11.8408 0.168752 9.05679 0.0522681
-19.401 0.290264 -13.1605 0.157827 8.58631 0.0521836
-20.0988 0.275061 -14.5005 0.146733 7.23368 0.0519408
-20.7155 0.261624 -15.7865 0.136087 4.34615 0.0514224
-21.2661 0.249628 -16.9926 0.126102 0.481298 0.0507286
-21.7557 0.238961 -18.1306 0.116681 -0.560239 0.0494792
-22.1883 0.229534 -19.2535 0.107385 -1.44049 0.0476518
-22.5442 0.22178 -20.4566 0.0974245 -2.74943 0.0449345
-22.834 0.215468 -21.6718 0.0873642 -3.73572 0.0428869
-23.0501 0.210758 -22.7991 0.078032 -4.77729 0.0407247
-23.1828 0.207866 -23.8516 0.0693182 -6.00168 0.0381829
-23.2248 0.206951 -24.859 0.0609788 -7.49392 0.035085
-22.5471 0.207292 -25.8742 0.0525736 -9.19236 0.0315591
-21.3702 0.207885 -26.8356 0.0446145 -10.6995 0.0284302
-19.7806 0.208685 -27.6701 0.0377058 -12.3514 0.025001
-17.672 0.209746 -28.3724 0.0318924 -13.4703 0.0226782
-15.0371 0.211072 -29.0081 0.0266293 -14.3145 0.0209256
-12.149 0.212525 -29.6094 0.021651 -15.1083 0.0192777
-9.00328 0.214109 -30.1645 0.0170555 -15.9686 0.0174919
-5.67735 0.215782 -30.7302 0.0123723 -16.8797 0.0156002
-0.503926 0.218386 -31.2426 0.00813052 -17.7618 0.013769
0.0525399 0.222462 -31.7011 0.00433502 -18.5627 0.0121065
0.141339 0.228924 -32.1119 0.000933946 -19.2758 0.0106261
0.256284 0.237288 -32.1287 0.000794767 -20.0414 0.00903664
0.393159 0.247247 -32.1409 0.000693577 -20.7421 0.00758216
0.54085 0.257993 -32.1493 0.000624409 -21.3754 0.00626733
0.685463 0.268516 -32.1578 0.000554187 -21.9005 0.00517727
0.825754 0.278724 -32.1621 0.000518647 -22.3136 0.00431966
0.959729 0.288472 -32.1627 0.000513729 -22.6839 0.00355088
1.08745 0.297766 -32.1633 0.00050812 -22.9864 0.00292301
1.20209 0.306107 -32.1575 0.000508578 -23.1738 0.00253382
1.30025 0.31325 -32.1044 0.000525285 -23.2233 0.00243031
1.38528 0.319437 -31.9822 0.000563705 -22.9908 0.00247206
1.46239 0.325047 -31.7682 0.000630979 -22.4017 0.00257781
1.53099 0.330039 -31.3903 0.000749815 -21.4314 0.00275199
1.5886 0.334231 -30.5336 0.0010192 -20.0438 0.0030011
1.63654 0.33772 -28.2623 0.00173338 -18.256 0.00332205
1.67834 0.340761 -24.4177 0.00294227 -16.1459 0.00370085
1.71677 0.343557 -20.0073 0.0043291 -13.7384 0.00413305
1.75116 0.346059 -15.1858 0.00584519 -11.0649 0.004613
1.78189 0.348296 -9.93322 0.0074968 -7.70232 0.00521666
1.81065 0.350388 -1.78599 0.0100586 -1.73611 0.00628772
1.83436 0.352113 0.148871 0.0151989 0.758904 0.00787277
1.84968 0.353228 0.423732 0.0236526 1.90142 0.00978983
1.86174 0.354105 0.762134 0.0340604 3.80932 0.0129912
1.86905 0.354637 1.13124 0.0454128 5.91745 0.0165285
1.77946 0.354631 1.49487 0.0565964 7.9807 0.0199904
1.34905 0.354414 1.87271 0.0682175 9.8307 0.0230946
0.700133 0.354088 2.28909 0.0810236 11.595 0.026055
-0.0395957 0.353297 2.73617 0.0947741 13.4873 0.0292301
-0.290041 0.350527 3.19503 0.108887 15.4564 0.0325342
-0.671363 0.346308 3.65114 0.122915 17.3434 0.0357004
-0.944456 0.343287 4.08228 0.136175 19.1473 0.0387273
-1.1066 0.341493 4.5155 0.149499 20.9881 0.041816
-1.2559 0.339841 5.01226 0.164778 22.9371 0.0450862
-1.64094 0.335581 5.51628 0.180279 24.8764 0.0483402
-2.09825 0.330522 5.93934 0.193291 26.7671 0.0515128
-2.46999 0.326409 6.27864 0.203727 28.6512 0.0546741
-2.85558 0.322143 6.57443 0.212824 29.6037 0.0599236
-3.35512 0.316616 6.85234 0.221371 30.0499 0.0684049
-3.88016 0.310807 7.09028 0.228689 30.5556 0.0780178
-4.34196 0.305698 7.24582 0.233473 31.0421 0.0872664
-4.73632 0.301335 7.34503 0.236524 31.7118 0.0999965
-5.12101 0.297079 6.74821 0.237159 33.0434 0.125308
-5.44115 0.293537 6.34709 0.237033 34.1334 0.14603
-5.77304 0.289866 4.8017 0.236547 35.0727 0.163885
-6.04299 0.286879 4.10652 0.236329 35.4183 0.170455
-6.31932 0.283822 3.42169 0.236113 35.547 0.172901
-6.4995 0.281828 1.96909 0.235656 32.533 0.176815
-6.60051 0.280711 -0.084912 0.234415 23.7488 0.184864
-6.61397 0.280562 -0.48681 0.231468 14.6988 0.193156
-6.59297 0.28041 -0.805994 0.229128 11.429 0.196152
-6.16856 0.280624 -1.00891 0.227641 9.79943 0.19586
-5.0652 0.281179 -1.18785 0.226329 8.09084 0.195553
-3.54433 0.281945 -1.37792 0.224936 5.49542 0.195087
-1.74382 0.282851 -1.61282 0.223214 -0.0743486 0.193547
0.0124047 0.284541 -1.78407 0.221958 -0.62893 0.189416
0.0860944 0.289366 -1.84772 0.221491 -1.50937 0.182859
0.218183 0.298014 -1.88614 0.22121 -2.75305 0.173595
0.368464 0.307854 -1.99011 0.220448 -4.06708 0.163808
0.510467 0.317152 -2.11431 0.219537 -5.24104 0.155064
0.66704 0.327404 -2.2162 0.21879 -6.465 0.145948
0.833287 0.338289 -2.4882 0.216796 -7.68689 0.136847
0.996676 0.348987 -2.90528 0.213738 -8.90718 0.127758
1.1363 0.358129 -3.4383 0.209831 -10.1098 0.118801
1.27022 0.366898 -4.03642 0.205446 -11.2614 0.110223
1.39663 0.375175 -4.62807 0.201108 -12.3755 0.101925
1.50336 0.382163 -5.30655 0.196134 -13.3349 0.0947792
1.58867 0.387749 -6.09514 0.190353 -14.1868 0.0884345
1.65976 0.392404 -6.9499 0.184087 -14.99 0.082452
1.72071 0.396395 -7.89503 0.177158 -15.6854 0.0772724
1.76581 0.399347 -8.92577 0.169602 -16.2548 0.0730312
1.79354 0.401163 -10.0026 0.161707 -16.7225 0.0695476
1.80834 0.402132 -11.1221 0.1535 -17.1191 0.0665934
1.56207 0.402101 -12.2592 0.145163 -17.4574 0.0640743
0.743458 0.401689 -13.3871 0.136895 -17.718 0.0621328
-0.00499924 0.401253 -14.4571 0.129051 -17.8942 0.0608205
-0.147565 0.399473 -15.4937 0.121452 -17.9914 0.0600968
-0.417396 0.396105 -16.461 0.11436 -18.0631 0.0595623
-0.619075 0.393587 -17.3234 0.108037 -18.095 0.0593253
-0.666105 0.393 -18.0167 0.102955 -18.0209 0.0593335
-0.6901 0.3927 -18.5577 0.0989891 -17.8395 0.0593661
-0.757161 0.391863 -19.0214 0.0955895 -17.6401 0.0594019
-0.740439 0.391568 -19.4235 0.0926416 -17.4489 0.0594362
-0.326726 0.391776 -19.6984 0.0906263 -17.2499 0.0594719
0.00193779 0.392044 -19.7364 0.0901167 -17.0934 0.0595
0.0245744 0.393252 -18.9159 0.0903747 -16.9717 0.0595219
0.0850138 0.396477 -17.6649 0.090768 -16.8419 0.0595452
0.157519 0.400346 -15.6905 0.0913889 -16.7254 0.0595661
0.222089 0.403792 -12.6967 0.0923302 -16.5601 0.0595958
0.287284 0.407271 -8.69973 0.093587 -16.3606 0.0596316
0.364347 0.411383 -3.77954 0.0951342 -16.0927 0.0596797
0.437644 0.415294 0.0878522 0.0981817 -15.7992 0.0597324
0.485471 0.417846 0.387567 0.104524 -15.5494 0.0597772
0.513257 0.419329 0.826483 0.113812 -15.1762 0.0598442
0.530879 0.420269 1.29958 0.123824 -14.5649 0.059954
0.543627 0.42095 1.73801 0.133102 -13.6321 0.0601214
0.588379 0.423338 2.16202 0.142074 -12.2202 0.0603749
0.620765 0.425066 2.61637 0.151689 -10.5293 0.0606784
-0.000373992 0.424766 3.09806 0.161883 -8.00018 0.0611325
-0.111477 0.423302 3.52841 0.17099 -1.07418 0.0623758
-0.307805 0.420713 3.89657 0.17878 0.257475 0.0655781
-0.608688 0.416746 4.1952 0.1851 0.76432 0.0715021
-1.00351 0.411541 4.4591 0.190685 1.43583 0.0793508
-1.48931 0.405136 4.6916 0.195605 2.15458 0.0877517
-2.06044 0.397606 4.87472 0.19948 2.86677 0.0960759
-2.71137 0.389024 4.99966 0.202124 3.58432 0.104463
-3.42624 0.379599 5.07342 0.203685 4.35297 0.113447
-4.19454 0.36947 5.11093 0.204478 5.17722 0.123081
-5.01174 0.358696 5.12141 0.2047 6.00603 0.132768
-5.8645 0.347453 4.78009 0.204593 6.78325 0.141852
-6.70321 0.336395 5.13008 0.204884 7.47619 0.149951
-7.52757 0.325527 5.16644 0.205653 8.10182 0.157264
-8.31056 0.315204 5.18869 0.206124 8.6989 0.164243
-9.08449 0.305 5.19339 0.206295 9.23631 0.170524
-9.85949 0.294782 4.91326 0.206207 9.69323 0.175864
-10.6411 0.284478 4.91242 0.206207 10.0432 0.179955
-11.4119 0.274315 4.99312 0.206232 10.2914 0.182856
-12.169 0.264333 4.91944 0.206209 10.449 0.184698
-12.9352 0.254232 4.64663 0.206123 10.5209 0.185538
-13.726 0.243806 4.36388 0.206034 10.2583 0.18553
-14.5069 0.233511 3.81193 0.205861 9.46659 0.185388
-15.1566 0.224944 2.37761 0.20541 8.31676 0.185182
-15.7658 0.216913 -0.00144838 0.204653 6.1732 0.184797
-16.3626 0.209044 -0.313279 0.20265 -0.0545723 0.183303
-16.9355 0.201491 -0.787042 0.199606 -0.468051 0.180385
-17.4625 0.194543 -1.3587 0.195933 -0.972765 0.176823
-17.9392 0.188259 -2.10608 0.191132 -1.69327 0.171737
-18.4039 0.182131 -3.12544 0.184583 -2.5811 0.16547
-18.8359 0.176436 -4.47035 0.175943 -3.56538 0.158523
-19.227 0.171279 -6.05027 0.165793 -4.47961 0.15207
-19.5778 0.166655 -7.71841 0.155077 -5.32712 0.146088
-19.8884 0.16256 -9.4314 0.144072 -6.13991 0.140351
-20.1817 0.158694 -11.2258 0.132544 -7.02678 0.134091
-20.4377 0.155318 -13.1639 0.120093 -8.02403 0.127053
-20.5907 0.1533 -15.0634 0.10789 -9.04977 0.119813
-20.7204 0.151591 -16.7697 0.0969285 -10.0702 0.11261
-20.9191 0.148971 -18.4956 0.0858406 -11.0923 0.105396
-21.1628 0.145758 -20.3997 0.0736085 -12.1237 0.0981157
-21.3964 0.142678 -22.3729 0.0609317 -13.1308 0.0910076
-21.6382 0.13949 -24.2066 0.0491515 -14.2201 0.0833189
-21.9317 0.135621 -25.8744 0.0384374 -15.3224 0.0755386
-22.2646 0.131231 -27.5395 0.02774 -16.3997 0.0679342
-22.5963 0.126858 -29.3152 0.0163324 -17.4731 0.0603581
-22.9294 0.122466 -31.125 0.00470589 -18.5752 0.0525789
-23.3181 0.117343 -31.769 0.000568176 -19.7221 0.044484
-23.8869 0.109843 -31.7804 0.000495384 -21.0151 0.0353575
-24.358 0.103632 -31.7929 0.000414699 -22.1841 0.0271062
-24.8664 0.0969289 -31.8067 0.000325866 -23.1607 0.0202131
-25.386 0.0900784 -31.818 0.00025368 -23.9014 0.0149852
-25.9492 0.082653 -31.8223 0.000225668 -24.5658 0.0102956
-26.4833 0.0756124 -31.8263 0.000200398 -25.2626 0.00537741
-27.0203 0.0685316 -31.8316 0.000166214 -25.9016 0.000866723
-27.5987 0.060906 -31.8363 0.000136256 -25.9372 0.000615976
-28.1977 0.0530085 -31.8388 0.000119727 -25.9419 0.0005826
-28.793 0.0451602 -31.8414 0.000103546 -25.9446 0.000563378
-29.3958 0.0372127 -31.8442 8.54833e-05 -25.9504 0.000522257
-30.0401 0.0287187 -31.8464 7.14069e-05 -25.9548 0.00049167
-30.7049 0.0199535 -31.8479 6.1566e-05 -25.9487 0.000488568
-31.3798 0.0110561 -31.8493 5.26155e-05 -25.9224 0.000493287
-32.074 0.00190337 -31.8508 4.29361e-05 -25.9552 0.000487407
-32.1621 0.000742082 -31.8522 3.38717e-05 -25.9571 0.000475222
-32.1737 0.000588875 -31.8529 2.95673e-05 -25.9578 0.000470224
-32.1835 0.00046025 -31.8534 2.61071e-05 -25.9446 0.000472597
-32.1906 0.000366073 -31.8543 2.03547e-05 -25.942 0.000473055
-32.1949 0.000309221 -31.8548 1.73593e-05 -25.9508 0.000471475
-32.1986 0.000261198 -31.8541 1.7205e-05 -25.9316 0.000474936
-32.2021 0.00021483 -31.853 1.75377e-05 -25.8773 0.000484678
-32.2047 0.00018005 -31.854 1.72213e-05 -25.8021 0.00049817
-32.2068 0.000152897 -31.8509 1.82104e-05 -25.7199 0.000512937
-32.2087 0.000127559 -31.8427 2.07876e-05 -25.6232 0.000530296
-32.2102 0.000107099 -31.8335 2.36707e-05 -25.5034 0.000551798
-32.2113 9.28727e-05 -31.8245 2.65017e-05 -25.3605 0.000577459
-32.2121 8.24305e-05 -31.8153 2.93869e-05 -25.198 0.000606631
-32.2126 7.66145e-05 -31.8019 3.36031e-05 -25.0142 0.000639628
-32.211 7.68567e-05 -31.7856 3.87444e-05 -24.7994 0.000678184
-32.2021 8.13317e-05 -31.7644 4.54161e-05 -24.5465 0.00072359
-32.1885 8.81914e-05 -31.7446 5.16174e-05 -24.2574 0.000775482
-32.1632 0.000100925 -31.7284 5.67121e-05 -23.9247 0.000835214
-32.126 0.000119617 -31.7047 6.41911e-05 -23.5293 0.000906198
-32.0801 0.000142731 -31.6758 7.3252e-05 -23.0509 0.00099207
-32.0233 0.000171311 -31.648 8.20179e-05 -22.4855 0.00109357
-31.9575 0.000204406 -31.6199 9.0847e-05 -21.7495 0.00122571
-31.8862 0.000240291 -31.5851 0.000101779 -20.8047 0.00139532
-31.8033 0.000282028 -31.5439 0.000114729 -19.7311 0.00158805
-31.7082 0.000329906 -31.5003 0.000128459 -18.5879 0.00179327
-31.6013 0.000383672 -31.4516 0.000143753 -17.3813 0.00200988
-31.4782 0.000445628 -31.394 0.000161873 -16.0955 0.00224072
-31.3347 0.00051787 -31.3272 0.000182876 -14.7222 0.00248724
-31.1655 0.00060298 -31.2514 0.00020672 -13.1233 0.0027743
-30.9619 0.00070548 -31.164 0.000234203 -10.3937 0.00326431
-30.7107 0.00083188 -31.0615 0.000266434 -5.33949 0.00417165
-30.3945 0.000991008 -30.9435 0.000303544 0.049388 0.00595566
-29.9975 0.00119081 -30.8113 0.000345102 0.207916 0.00860527
-29.5271 0.00142755 -30.6665 0.000390633 0.421576 0.0121763
-29.0833 0.00165087 -30.4972 0.000443881 0.68899 0.0166458
-28.7112 0.00183815 -30.3189 0.000499917 0.965291 0.0212639
-28.3945 0.00199754 -30.1355 0.000557608 1.25776 0.0261521
-28.0767 0.00215748 -29.9581 0.000613387 1.55836 0.0311764
-27.6749 0.00235968 -29.7889 0.00066658 1.84901 0.0360342
-27.0998 0.00264912 -29.6566 0.000708192 2.12779 0.0406937
-26.3534 0.00302471 -29.5944 0.000727752 2.40023 0.0452473
-25.375 0.00351713 -29.5964 0.000727108 2.66952 0.049748
-24.0698 0.00417395 -29.6261 0.000717776 2.92646 0.0540425
-22.4629 0.00498269 -29.6543 0.000708909 3.1537 0.0578406
-20.6593 0.00589032 -29.672 0.000703329 3.34033 0.0609599
-19.2261 0.00661161 -29.6099 0.000722881 3.48348 0.0633524
-17.1154 0.00767383 -29.5418 0.000744296 3.59041 0.0651397
-14.6929 0.00889299 -29.377 0.000796095 3.66006 0.0663037
-11.8649 0.0103162 -29.0985 0.000883681 3.68605 0.0667382
-8.55483 0.011982 -28.5721 0.00104921 3.35159 0.0666781
-3.44658 0.0145528 -27.5387 0.00137413 2.67164 0.0665561
0.0262608 0.018793 -25.7079 0.00194983 -0.00666932 0.0660587
0.0911739 0.0249868 -23.7267 0.00257278 -0.503195 0.064741
0.188695 0.034292 -21.9008 0.00314692 -1.25876 0.0627357
0.329808 0.0477564 -20.0066 0.00374254 -2.33886 0.0598692
0.507151 0.0646779 -17.7461 0.00445332 -3.43393 0.0569629
0.700989 0.0831733 -15.3621 0.00520296 -4.52603 0.0540645
0.895773 0.101759 -13.9421 0.00564948 -5.55699 0.0513284
1.09712 0.120971 -12.4696 0.00611249 -6.5788 0.0486166
1.30552 0.140856 -10.5532 0.00671508 -7.70157 0.0456368
1.5184 0.161168 -8.13041 0.0074769 -8.75942 0.0428293
1.72529 0.180908 -4.81292 0.00852006 -9.74246 0.0402203
1.92691 0.200146 -0.420267 0.00990129 -10.6485 0.0378157
2.12551 0.219096 0.0605118 0.0118985 -11.5264 0.0354859
2.32076 0.237726 0.13637 0.0142366 -12.3493 0.0333018
2.51027 0.255809 0.234496 0.017261 -13.0502 0.0314418
2.69658 0.273586 0.346884 0.020725 -13.5555 0.0301008
2.88139 0.291219 0.476565 0.024722 -13.8974 0.0291934
3.06409 0.308652 0.622782 0.0292287 -14.0801 0.0287084
3.2416 0.32559 0.779693 0.0340649 -14.0578 0.0286324
3.4104 0.341696 0.948594 0.0392707 -13.6415 0.0287072
3.56938 0.356865 1.1328 0.0449484 -12.8754 0.0288447
3.71937 0.371177 1.33636 0.0512223 -11.8122 0.0290356
3.86098 0.384689 1.56193 0.0581749 -10.4396 0.029282
3.99325 0.397309 1.80492 0.0656643 -8.72365 0.02959
4.11371 0.408803 2.06434 0.0736599 -6.38273 0.0300103
4.21538 0.418505 2.34705 0.0823737 0.0102585 0.0313042
4.3126 0.427781 2.64178 0.0914578 0.292559 0.0353797
4.43012 0.438994 2.93293 0.100431 0.708003 0.0413773
4.53684 0.449177 3.22141 0.109323 1.19338 0.0483845
4.61391 0.456531 3.5373 0.119059 1.66872 0.0552468
4.67512 0.462371 3.88802 0.129869 2.08817 0.0613022
4.73776 0.468348 4.27081 0.141667 2.49121 0.0671207
4.79445 0.473757 4.66851 0.153925 2.95463 0.0738109
4.8402 0.478122 5.05908 0.165963 3.4935 0.0815904
4.90445 0.484253 5.47331 0.178731 4.09568 0.0902839
4.97496 0.490981 5.95975 0.193723 4.68485 0.0987895
5.01955 0.495236 6.45553 0.209004 5.24247 0.10684
5.05057 0.498196 6.90611 0.222892 5.80866 0.115014
5.08713 0.501684 7.32205 0.235712 6.43383 0.124039
5.11525 0.504367 7.74075 0.248617 7.12647 0.134038
4.87547 0.504616 8.18432 0.262288 7.83276 0.144235
4.19646 0.504274 8.62513 0.275875 8.50832 0.153988
3.54958 0.503948 8.93253 0.2883 9.1655 0.163475
1.93657 0.503137 8.93253 0.301287 9.83618 0.173157
-0.0533788 0.501335 8.93253 0.314585 10.5426 0.183356
-0.41561 0.495722 8.93253 0.327894 11.259 0.193698
-1.02531 0.486275 8.93253 0.339545 7.12096 0.206132
-1.67247 0.476248 8.93253 0.348339 7.12096 0.218749
-2.3002 0.466522 8.93253 0.355708 7.12096 0.23161
-3.00062 0.455669 8.93253 0.362457 7.12096 0.243869
-3.81589 0.443037 8.93253 0.369277 7.12096 0.253918
-4.63169 0.430396 8.93253 0.37572 7.12096 0.264068
-5.45262 0.417676 8.93253 0.379517 7.12096 0.274673
-6.33047 0.404074 8.93253 0.381157 7.12096 0.285047
-7.25783 0.389706 8.93253 0.381597 7.12096 0.293075
-8.19055 0.375253 8.77751 0.38156 7.12096 0.2992
-9.12154 0.360828 8.1445 0.381361 7.12096 0.304036
-10.0393 0.346609 6.66664 0.380896 7.12096 0.308237
-10.9146 0.333046 4.308 0.380154 7.12096 0.311787
-11.7536 0.320045 1.00246 0.379115 7.12096 0.314039
-12.5726 0.307355 -0.200796 0.376466 7.12096 0.314702
-13.3382 0.295494 -0.631241 0.371463 6.74095 0.314634
-14.0355 0.284689 -1.19123 0.364954 5.94702 0.314491
-14.6685 0.274881 -1.87583 0.356997 4.86222 0.314296
-15.2565 0.26577 -2.62735 0.348262 2.48536 0.31387
-15.8114 0.257172 -3.47783 0.338377 -0.21959 0.310807
-16.3285 0.249161 -4.40762 0.32757 -0.762636 0.304335
-16.825 0.241466 -5.39002 0.316152 -1.46354 0.295983
-17.3215 0.233774 -6.3679 0.304786 -2.36173 0.28528
-17.8436 0.225684 -7.33435 0.293553 -3.35636 0.273427
-18.3419 0.217963 -8.3477 0.281775 -4.45633 0.260319
-18.836 0.210308 -9.42577 0.269245 -5.59029 0.246806
-19.3593 0.2022 -10.5426 0.256264 -6.75602 0.232914
-19.9382 0.193229 -11.692 0.242905 -7.93499 0.218865
-20.5697 0.183445 -12.8727 0.229182 -9.15072 0.204378
-21.253 0.172857 -14.1176 0.214712 -10.3534 0.190045
-22.0102 0.161125 -15.4033 0.199769 -11.429 0.177229
-22.8634 0.147905 -16.6761 0.184975 -12.5354 0.164044
-23.7961 0.133453 -18.0128 0.169438 -13.6172 0.151152
-24.7606 0.118508 -19.4831 0.152349 -14.6298 0.139085
-25.7259 0.103551 -21.0185 0.134504 -15.5754 0.127817
-26.7579 0.0875617 -22.5551 0.116644 -16.4897 0.116921
-27.9198 0.0695576 -24.1524 0.0980789 -17.3885 0.106211
-29.1837 0.0499742 -25.8987 0.0777814 -18.25 0.0959448
-30.4978 0.0296136 -27.8064 0.0556082 -19.0361 0.0865773
-31.8693 0.00836193 -29.8096 0.032326 -19.7404 0.0781839
-32.3754 0.000521558 -31.8979 0.00805288 -20.389 0.0704551
-32.3875 0.000333863 -32.564 0.000311027 -20.9884 0.0633126
-32.3967 0.00019119 -32.5688 0.000255733 -21.8746 0.0527513
-32.4047 6.71304e-05 -32.5715 0.00022381 -22.5348 0.044884
-32.4105 -2.28592e-05 -32.5775 0.000154046 -23.4645 0.0338055
-32.4149 -9.13662e-05 -32.5832 8.77329e-05 -24.2387 0.0245791
-32.4197 -0.000165563 -32.5841 7.72174e-05 -24.9962 0.0155524
-32.424 -0.000232605 -32.5849 6.83608e-05 -25.7696 0.00633586
-32.4278 -0.000290273 -32.588 3.25873e-05 -26.2215 0.000951265
-32.4314 -0.000346966 -32.5912 -4.71416e-06 -26.2296 0.000854686
-32.435 -0.000402752 -32.5925 -2.0081e-05 -26.1869 0.000859973
-32.438 -0.000448805 -32.5942 -3.99945e-05 -26.2282 0.000852553
-32.4408 -0.000491972 -32.5969 -7.07054e-05 -26.2324 0.000821657
-32.4435 -0.000533984 -32.5994 -0.000100212 -26.2217 0.0008148
-32.4453 -0.000561855 -32.5886 -9.98912e-05 -26.0737 0.000841384
-32.4465 -0.000581261 -32.6004 -0.000111484 -25.9145 0.000869954
-32.448 -0.00060412 -32.6015 -0.000124882 -25.8674 0.000878412
-32.4354 -0.00059778 -32.6023 -0.000133781 -25.8029 0.000889989
-32.4329 -0.000596509 -32.6027 -0.000138094 -25.7268 0.000903647
-32.428 -0.000594064 -32.6034 -0.000147168 -25.6866 0.000910864
-32.417 -0.00058851 -32.6045 -0.000159252 -25.6685 0.000914113
-32.4113 -0.000585625 -32.6052 -0.000167819 -25.6487 0.000917678
-32.4045 -0.000582213 -32.6058 -0.00017483 -25.6135 0.000923992
-30.164 0.000545315 -32.2081 -5.55054e-05 -25.5859 0.000928944
0.0500169 0.0205012 -32.6079 -0.000198968 -18.8717 0.00213429
-13.5129 0.00652956 -32.1582 -0.000101918 -19.3652 0.00204569
-14.5598 0.00530441 -32.2738 -0.000138257 -18.8881 0.00213134
-18.5647 0.000617516 -32.2426 -0.000128456 -18.9205 0.00212553
-18.6731 0.000490593 -32.4637 -0.000197966 -18.7897 0.002149
-18.7775 0.000368492 -32.4658 -0.000198641 -18.6037 0.00218239
-18.8029 0.000338735 -32.3735 -0.000169631 -18.5224 0.00219699
-18.801 0.000337991 -32.3952 -0.000176449 -18.9498 0.00212027
-18.8081 0.000332584 -32.4301 -0.000187407 -19.2044 0.00207456
-18.8222 0.000316123 -32.3922 -0.00017551 -18.9947 0.00211221
-4.9013 0.00731849 -31.0268 0.000253834 0.317405 0.0193033
-12.689 0.000314087 -14.3545 0.0054963 -2.08889 0.0424802
-12.5899 0.000318344 -10.4836 0.00554864 0.00431411 0.0321165
-12.7916 0.000216824 -17.3238 0.000545659 -1.41713 0.0395607
-12.9205 0.000123004 -17.9673 0.000319177 -5.31219 0.0318832
-12.9184 0.00012252 -17.9412 0.000305192 -4.33856 0.032058
-12.9381 0.000108532 -17.7246 0.000373298 -1.51905 0.0325641
-12.9672 8.45165e-05 -17.5956 0.000413859 -2.45272 0.0323965
-12.9866 6.85068e-05 -17.6609 0.00039334 -6.07082 0.0313978
-12.9987 5.84732e-05 -17.6087 0.000409743 -7.07456 0.0296371
-13.015 4.50238e-05 -17.4709 0.000453095 -7.71699 0.0285103
-13.0277 3.4548e-05 -17.4229 0.000468164 -8.61413 0.0269366
-13.0357 2.798e-05 -17.4589 0.000456856 -9.94117 0.0246089
-13.0431 2.18752e-05 -17.4347 0.000464478 -11.9713 0.0210478
-13.0471 1.85297e-05 -17.3826 0.000480841 -14.0764 0.0173553
-13.0461 1.89728e-05 -17.3967 0.0004764 -15.9255 0.0141118
-13.0419 2.10814e-05 -17.4595 0.000456651 -15.957 0.0138668
-13.0342 2.49363e-05 -17.5023 0.000443213 -15.6537 0.0139213
-13.0196 3.23011e-05 -17.5396 0.000431473 -15.4058 0.0139658
-13.0014 4.14651e-05 -17.6054 0.000410792 -15.2854 0.0139874
-12.9752 5.46409e-05 -17.6901 0.000384145 -15.1117 0.0140186
-12.9405 7.21174e-05 -17.769 0.000359339 -14.7842 0.0140774
-12.9005 9.22419e-05 -17.8449 0.000335483 -14.4324 0.0141405
-12.8565 0.000114392 -17.9302 0.000308668 -14.1767 0.0141864
-12.81 0.000137754 -18.0145 0.000282139 -13.9516 0.0142268
-12.7655 0.000160179 -18.0546 0.000258161 -13.669 0.0142776
-12.7276 0.000179251 -18.0863 0.000235965 -13.3569 0.0143336
-12.6986 0.000193844 -18.1171 0.000214483 -13.0642 0.0143861
-12.676 0.000205226 -18.1398 0.000198574 -12.8449 0.0144255
-12.6657 0.000210374 -18.1574 0.000186317 -12.6842 0.0144544
-12.6593 0.000213605 -18.1787 0.000171411 -12.5045 0.0144866
-12.6636 0.000211436 -18.1871 0.000165528 -12.3119 0.0145212
-12.6874 0.000199493 -18.1885 0.000164553 -12.222 0.0145373
-12.7169 0.000184652 -18.1906 0.000163095 -12.2039 0.0145406
-12.728 0.000179023 -18.184 0.000165153 -12.2011 0.0145411
-12.7474 0.000169299 -18.1585 0.000173175 -12.2082 0.0145398
-12.768 0.000158912 -18.1241 0.000183996 -12.2509 0.0145322
-12.7898 0.000147939 -18.0931 0.000193727 0.264857 0.0278142
-12.8814 0.000101854 -17.7798 0.000292244 -1.58142 0.0429155
-12.8822 0.000101458 -17.6157 0.000343835 -3.46078 0.0393464
-12.8997 9.26573e-05 -17.7506 0.000301434 -1.4112 0.0394919
-12.9564 6.41157e-05 -17.7639 0.000297248 0.122739 0.0444845
-12.9695 5.7484e-05 -17.5921 0.000351266 0.202081 0.0475481
-12.9922 4.60676e-05 -17.4735 0.00038857 -1.03059 0.0454931
-13.0246 2.97619e-05 -17.4972 0.000381105 -2.1959 0.0432106
-13.042 2.103e-05 -17.4949 0.000381842 -1.34092 0.0433132
-13.0543 1.25977e-05 -17.4071 0.000409427 -0.495752 0.043465
-13.0605 7.47211e-06 -17.3596 0.000424369 -2.5001 0.0426147
-13.0542 1.06367e-05 -17.3836 0.000416813 -3.73377 0.0401983
-13.0161 2.9816e-05 -17.3844 0.000416566 -4.91688 0.0378808
-12.9864 4.4784e-05 -17.3679 0.000421748 -5.81018 0.0361311
-12.9342 7.10391e-05 -17.384 0.000416688 -6.75934 0.0342719
-12.8776 9.95502e-05 -17.4132 0.000407502 -8.39675 0.0310647
-12.7904 0.000143415 -17.449 0.000396264 -10.2686 0.0273982
-12.6655 0.000206256 -17.4411 0.000398749 -11.9302 0.0241435
-12.498 0.000290579 -17.4164 0.000406509 -13.3806 0.0213025
-12.2753 0.000402662 -17.3722 0.000420422 -13.2738 0.021245
-11.9345 0.00057417 -17.3195 0.000436975 -13.0082 0.0212927
-11.1958 0.000945882 -17.2083 0.000471939 -12.7551 0.0213381
-9.56808 0.00176507 -17.0346 0.000526567 -12.606 0.0213649
-6.73678 0.00318995 -16.8131 0.000596223 -12.4904 0.0213856
-3.93704 0.00459894 -16.4693 0.00070432 -12.3654 0.0214081
-1.39807 0.0058767 -15.8518 0.000898474 -12.1995 0.0214379
0.00522874 0.00708488 -14.5521 0.00130716 -12.0212 0.0214699
0.0281987 0.00930156 -12.4689 0.00196221 -11.8811 0.021495
0.0520499 0.0116033 -9.74917 0.0028174 -11.8 0.0215096
0.0766888 0.013981 -7.14798 0.00363532 -11.7475 0.021519
0.0941403 0.0156651 -5.00359 0.00430961 -11.6887 0.0215296
0.105753 0.0167858 -2.70746 0.0050316 -11.4171 0.0215783
0.114076 0.017589 -0.875228 0.00560773 -10.7579 0.0216967
0.0853143 0.0178503 0.011633 0.00637225 -9.88573 0.0218532
-0.124092 0.0176789 0.0431373 0.00769741 -8.57287 0.0220889
-0.35705 0.0174378 0.0781805 0.00917141 -6.51718 0.022458
-0.785063 0.0169949 0.117541 0.010827 -0.244502 0.023584
-1.31807 0.0164433 0.147277 0.0120778 0.0965954 0.0275763
-1.94478 0.0157947 0.155933 0.0124419 0.283988 0.0352361
-2.64719 0.0150678 -0.127127 0.0123059 0.517592 0.0447848
-3.25191 0.014442 -0.534767 0.0120269 0.72838 0.0534009
-3.65751 0.0140223 -0.990426 0.011715 0.940184 0.0620585
-4.08053 0.0135845 -1.25453 0.0115342 1.14256 0.0703309
-4.74657 0.0128953 -1.48079 0.0113794 1.33485 0.0781909
-5.33591 0.0122854 -1.88037 0.0111059 1.4718 0.0837886
-5.77553 0.0118304 -2.2747 0.010836 1.59302 0.0887437
-6.17489 0.0114171 -2.32672 0.0107833 1.69648 0.0929725
-6.7081 0.0108653 -1.48481 0.011048 1.78872 0.096743
-6.96403 0.0106005 -0.494942 0.0113593 1.87748 0.100371
-7.01043 0.0105494 0.0122668 0.0120231 1.97469 0.104344
-6.86224 0.010624 0.055231 0.0138032 2.07849 0.108588
-6.45702 0.0108279 0.120197 0.0164949 2.18735 0.113037
-5.79622 0.0111605 0.218241 0.0205571 2.29801 0.11756
-5.06441 0.0115288 0.360488 0.0264506 2.39726 0.121618
-4.16421 0.0119818 0.534201 0.0336479 2.47388 0.124749
-2.97209 0.0125818 0.729238 0.0417287 2.52976 0.127033
-1.62231 0.0132611 0.956866 0.0511598 2.56764 0.128582
0.00295444 0.0143601 1.22187 0.0621395 2.59633 0.129755
0.0416021 0.0180573 1.51869 0.0744372 2.61716 0.130606
0.0997778 0.0236226 1.84196 0.0878312 2.62537 0.130941
0.172929 0.0306205 2.18891 0.102206 2.38315 0.130898
0.260918 0.0390379 2.54933 0.117139 1.95339 0.130821
0.356977 0.0482273 2.91595 0.132329 1.47094 0.130734
0.456471 0.0577453 3.27506 0.147207 0.947492 0.13064
0.552127 0.0668962 3.54155 0.158249 0.392031 0.130541
0.635579 0.0748795 3.74096 0.166511 -0.0222872 0.130357
0.713152 0.0823004 3.85576 0.171267 -0.0405677 0.130265
0.786786 0.0893445 3.92786 0.174254 0.000130693 0.130275
0.855969 0.0959628 4.02095 0.178111 0.012762 0.130603
0.918729 0.101967 4.18259 0.184808 0.0572376 0.131754
0.97165 0.107029 4.42772 0.194964 0.149729 0.13415
1.01622 0.111293 4.73022 0.207498 0.283643 0.137618
1.06984 0.116423 5.03188 0.219996 0.46237 0.142247
1.11924 0.121148 5.2762 0.230119 0.652769 0.147178
1.15558 0.124625 5.44406 0.237074 0.881099 0.153092
1.17034 0.126037 5.54826 0.241391 1.1303 0.159546
0.955351 0.125978 5.63371 0.244931 1.37986 0.16601
0.638353 0.125819 5.74644 0.249602 1.61041 0.171981
0.104964 0.12555 5.87405 0.254889 1.80787 0.177095
-0.263916 0.124376 5.99964 0.260093 1.97515 0.181428
-0.919251 0.121591 6.09205 0.263921 2.13974 0.18569
-1.88322 0.117494 6.13562 0.265727 2.33075 0.190637
-2.89092 0.113212 5.93984 0.265876 2.57235 0.196895
-3.91957 0.10884 5.54912 0.265753 2.86811 0.204555
-5.02187 0.104156 5.73342 0.265811 3.19074 0.212911
-6.20608 0.0991231 6.13787 0.265938 3.50782 0.221123
-7.38923 0.0940949 6.14868 0.266268 3.78559 0.228317
-8.48205 0.0894506 6.18244 0.267666 4.00425 0.23398
-9.58284 0.0847725 6.26096 0.27092 4.17037 0.238283
-10.6622 0.0801855 6.36243 0.275124 4.32217 0.242214
-11.6401 0.0760295 6.48625 0.280254 4.48569 0.246449
-12.5304 0.0722459 6.61955 0.285777 4.66793 0.251169
-13.3193 0.0688935 6.73511 0.290565 4.87119 0.256434
-14.0213 0.06591 6.82106 0.294126 5.07931 0.261824
-14.6192 0.0633691 6.89363 0.297132 5.2624 0.266566
-15.0671 0.0614654 6.97832 0.300641 5.40512 0.270262
-15.4 0.0600508 7.08454 0.305042 5.49813 0.272671
-15.6139 0.0591416 7.21308 0.310368 5.5499 0.274012
-15.662 0.0588857 7.35411 0.316211 5.57655 0.274702
-15.2984 0.0590686 7.49658 0.322114 5.59807 0.27526
-14.6145 0.0594128 7.63999 0.328056 5.61626 0.275731
-13.5863 0.0599303 7.78873 0.334218 5.36039 0.275687
-12.0255 0.0607158 7.94447 0.340671 4.6378 0.275557
-9.90639 0.0617822 8.1062 0.347372 3.4916 0.275352
-8.40911 0.0625357 8.26852 0.354097 0.634292 0.274839
-7.05497 0.0632172 8.38684 0.358999 -0.19521 0.272681
-5.67261 0.0639129 8.43645 0.361055 -0.548002 0.268989
-4.16996 0.0646691 8.01758 0.361045 -0.984927 0.264415
-2.23928 0.0656408 7.01029 0.360728 -1.46987 0.259339
0.0055075 0.0672621 6.82202 0.360669 -1.82217 0.255651
0.0414864 0.0704917 7.44438 0.360865 -2.01944 0.253586
0.115311 0.0771186 7.57489 0.360906 -2.0369 0.253186
0.236751 0.0880197 6.97335 0.360716 -1.94802 0.253202
0.37408 0.100347 6.27003 0.360495 -2.08175 0.252934
0.504328 0.112039 5.87564 0.360371 -2.17802 0.251926
0.618983 0.122331 5.94067 0.360392 -2.42809 0.249309
0.726321 0.131966 6.11376 0.360446 -2.76234 0.24581
0.83868 0.142052 5.85913 0.360366 -3.06795 0.242611
0.955376 0.152527 4.80576 0.360035 -3.23804 0.240831
1.06327 0.162212 3.88378 0.359745 -3.2315 0.240559
1.15417 0.170372 2.95499 0.359453 -3.08061 0.240586
1.21917 0.176207 1.56934 0.359017 -3.10435 0.240582
1.27044 0.180809 -0.0404608 0.358078 -3.32708 0.239899
1.31944 0.185208 -0.202857 0.356289 -3.52069 0.237872
1.37693 0.190368 -0.418893 0.353909 -3.72641 0.235719
1.44153 0.196167 -0.641573 0.351455 -3.88862 0.234021
1.5035 0.20173 -0.815899 0.349534 -3.95574 0.233318
1.55606 0.206448 -0.949582 0.348062 -3.88885 0.233309
1.60054 0.210441 -1.06782 0.346759 -3.82077 0.233321
1.64419 0.214359 -1.20086 0.345293 -3.91303 0.233304
1.69693 0.219093 -1.37431 0.343382 -4.02176 0.232627
1.76194 0.224928 -1.57419 0.34118 -4.1181 0.231619
1.83235 0.231249 -1.75448 0.339194 -4.21444 0.23061
1.89965 0.23729 -1.87662 0.337848 -4.29292 0.229789
1.96419 0.243084 -1.95227 0.337014 -4.3253 0.22945
2.03125 0.249103 -1.99911 0.336498 -4.34442 0.22925
2.11019 0.256189 -2.03698 0.336081 -4.38188 0.228858
2.20596 0.264787 -2.0803 0.335604 -4.44972 0.228148
2.31564 0.274631 -2.10738 0.335305 -4.54448 0.227156
2.43132 0.285016 -1.59317 0.335467 -4.6521 0.226029
2.55141 0.295796 -0.93778 0.335673 -4.7421 0.225087
2.67795 0.307155 0.043528 0.336191 -4.79684 0.224514
2.81067 0.319068 0.328587 0.337647 -4.84136 0.224048
2.94898 0.331484 0.75788 0.33984 -4.87905 0.223654
3.09049 0.344187 1.31547 0.342689 -4.92262 0.223198
3.23035 0.356741 2.02467 0.346313 -4.98667 0.222527
3.36639 0.368953 2.4895 0.348688 -5.07001 0.221655
3.4966 0.380641 2.72498 0.349891 -5.16912 0.220617
3.62243 0.391936 2.7343 0.350091 -5.25826 0.219684
3.74678 0.403098 2.68261 0.350074 -5.30474 0.219198
3.86629 0.413826 2.89309 0.35075 -5.31523 0.219088
3.97877 0.423923 3.27414 0.352697 -5.26561 0.219097
4.08346 0.43332 3.77879 0.355276 -5.22636 0.219104
4.1803 0.442014 4.25299 0.357699 -5.22937 0.219103
4.26907 0.449982 4.6146 0.359546 -5.23301 0.219103
4.34973 0.457222 4.89584 0.360983 -5.02514 0.21914
4.42134 0.46365 5.24781 0.362781 -4.4284 0.219247
4.48182 0.46908 5.842 0.365817 -3.52768 0.219409
4.53072 0.473469 6.70411 0.370222 -2.16212 0.219654
4.56904 0.476909 7.72935 0.375461 0.0686619 0.220955
4.59796 0.479505 8.7282 0.380564 0.300233 0.224033
4.61954 0.481442 8.93253 0.385991 0.668663 0.228931
4.63059 0.482434 8.93253 0.392619 1.14492 0.235262
4.4581 0.482413 8.93253 0.400783 1.68065 0.242383
3.86356 0.482114 8.93253 0.409765 2.23037 0.249691
3.04845 0.481704 8.93253 0.418448 2.64444 0.255195
2.1565 0.481255 8.93253 0.425467 2.9043 0.258649
0.963163 0.480654 8.93253 0.430584 3.10564 0.261326
-0.0561404 0.479337 8.93253 0.43472 3.32449 0.264235
-0.245807 0.476522 8.93253 0.438997 3.63456 0.268357
-0.530287 0.472301 8.93253 0.444226 4.05505 0.273946
-0.861772 0.467383 8.93253 0.450094 4.54361 0.280441
-1.1845 0.462594 8.93253 0.455713 5.02463 0.286835
-1.48435 0.458145 8.93253 0.460535 5.436 0.292303
-1.77969 0.453763 8.93253 0.464756 5.76609 0.296691
-2.08245 0.44927 8.93253 0.469092 6.05399 0.300518
-2.3788 0.444873 8.93253 0.474218 6.35872 0.304569
-2.64695 0.440894 8.93253 0.480361 6.72106 0.309386
-2.87924 0.437448 8.93253 0.487307 7.12096 0.314995
-3.0517 0.434889 8.93253 0.49563 7.12096 0.322777
-3.21231 0.432505 8.93253 0.505091 7.12096 0.33156
-3.32502 0.430833 8.93253 0.514847 7.12096 0.341321
-3.38185 0.42999 8.93253 0.526408 7.12096 0.351362
-3.3334 0.429881 8.93253 0.539 7.12096 0.360764
-3.02928 0.430034 8.93253 0.552336 7.12096 0.368848
-2.48591 0.430307 8.93253 0.565177 7.12096 0.375232
-1.65084 0.430728 8.93253 0.576958 7.12096 0.380002
-0.375931 0.431369 8.93253 0.588174 7.12096 0.383663
0.0359124 0.433315 8.93253 0.59936 7.12096 0.387104
0.125584 0.437703 8.93253 0.611045 7.12096 0.391008
0.250093 0.443795 8.93253 0.622695 7.12096 0.394993
0.386301 0.450459 8.93253 0.634362 7.12096 0.39845
0.520746 0.457037 8.93253 0.644874 7.12096 0.401128
0.655487 0.463629 8.93253 0.653752 7.12096 0.402909
0.79923 0.470662 8.93253 0.661273 7.12096 0.404058
0.961205 0.478587 8.93253 0.668247 7.12096 0.404995
1.13481 0.487081 8.93253 0.675576 7.12096 0.405994
1.31011 0.495658 8.93253 0.683858 7.12096 0.406974
1.50942 0.50541 8.93253 0.69276 7.12096 0.407829
1.71668 0.51555 8.93253 0.701088 7.12096 0.408777
1.92369 0.525679 8.93253 0.708533 7.12096 0.409488
2.11926 0.535247 8.93253 0.714666 7.12096 0.410083
2.30106 0.544142 8.93253 0.719354 7.12096 0.411164
2.47944 0.55287 8.93253 0.723418 7.12096 0.412535
2.65591 0.561503 8.93253 0.727909 7.12096 0.414036
2.83127 0.570083 8.93253 0.733382 7.12096 0.41567
2.99738 0.578211 8.93253 0.739628 7.12096 0.417425
3.1524 0.585795 8.93253 0.745845 7.12096 0.419241
3.3042 0.593222 8.93253 0.75108 7.12096 0.421288
3.46233 0.600959 8.93253 0.754645 7.12096 0.423826
3.62616 0.608975 8.93253 0.756778 7.12096 0.426785
3.78898 0.616941 8.93253 0.758105 7.12096 0.430059
3.94556 0.624602 8.93253 0.759172 7.12096 0.433599
4.09431 0.63188 8.93253 0.760214 7.12096 0.437105
4.23371 0.638701 8.93253 0.761023 7.12096 0.440453
4.3622 0.644987 8.93253 0.761416 7.12096 0.443654
4.49152 0.651314 8.67986 0.761349 7.12096 0.446771
4.62209 0.657703 8.40542 0.761262 7.12096 0.449826
4.75632 0.66427 8.37142 0.761252 7.12096 0.452644
4.89552 0.671081 8.46911 0.761282 7.12096 0.455188
5.0402 0.67816 8.71838 0.761361 7.12096 0.457267
5.19341 0.685655 8.93253 0.761546 7.12096 0.458807
5.35609 0.693615 8.93253 0.762034 7.12096 0.459947
5.52877 0.702063 8.93253 0.763073 7.12096 0.460654
5.71038 0.710949 8.93253 0.764855 7.12096 0.460876
5.90169 0.720309 8.93253 0.767296 6.87232 0.460831
6.09822 0.729925 8.93253 0.769961 6.44865 0.460755
6.30338 0.739963 8.93253 0.772654 5.90107 0.460657
6.51931 0.750527 8.93253 0.775553 5.22889 0.460536
6.75364 0.761992 8.93253 0.778858 4.39997 0.460387
6.99837 0.773967 8.93253 0.782673 2.9456 0.460126
7.23538 0.785563 8.93253 0.786856 -0.0261238 0.459143
7.46607 0.79685 8.93253 0.791008 -0.169005 0.456658
7.69968 0.808279 8.93253 0.795514 -0.35476 0.453428
7.94189 0.82013 8.93253 0.800563 -0.55566 0.449934
8.1889 0.832215 8.93253 0.806217 -0.710173 0.447247
8.42955 0.84399 8.93253 0.812486 -0.790929 0.445843
8.6631 0.855416 8.93253 0.818842 -0.717642 0.445752
8.89686 0.866854 8.93253 0.824959 -0.518736 0.445788
8.93253 0.878728 8.93253 0.830885 -0.484909 0.445794
8.93253 0.891146 8.93253 0.835487 -0.646532 0.445765
8.93253 0.903451 8.93253 0.839131 -0.826607 0.445222
8.93253 0.915332 8.93253 0.841938 -0.867576 0.44451
8.93253 0.926761 8.93253 0.844225 -0.867862 0.444337
8.93253 0.937894 8.93253 0.846773 -0.770187 0.444354
8.93253 0.948787 8.93253 0.850343 -0.610009 0.444383
8.93253 0.959249 8.93253 0.855312 -0.244009 0.444449
8.93253 0.968979 8.93253 0.861347 0.197772 0.444948
8.93253 0.977859 8.93253 0.867677 0.646493 0.44598
8.93253 0.986058 8.93253 0.873709 1.20464 0.447264
8.93253 0.993754 8.93253 0.879091 1.56928 0.448103
8.93253 1.00103 8.93253 0.883944 1.86328 0.44878
8.93253 1.00762 8.93253 0.88893 2.05325 0.449217
8.93253 1.01328 8.93253 0.89437 2.24321 0.449654
8.93253 1.01806 8.93253 0.900263 2.53982 0.450336
8.93253 1.02208 8.93253 0.90639 2.96395 0.451312
8.93253 1.02555 8.93253 0.912432 3.44676 0.452423
8.93253 1.02855 8.93253 0.918308 3.90175 0.453469
8.93253 1.03103 8.93253 0.924241 4.29577 0.454376
8.93253 1.033 8.93253 0.930517 4.51294 0.454876
8.93253 1.03463 8.93253 0.937081 4.8121 0.455564
8.93253 1.03618 8.93253 0.943679 5.3641 0.456834
8.93253 1.03764 8.93253 0.950266 6.0163 0.458334
8.93253 1.03901 8.93253 0.956928 6.5674 0.459602
8.93253 1.04033 8.93253 0.963858 6.93596 0.46045
8.93253 1.04173 8.93253 0.971194 7.12096 0.461313
8.93253 1.04334 8.93253 0.978893 7.12096 0.464069
8.93253 1.04526 8.93253 0.986752 7.12096 0.469605
8.93253 1.04755 8.93253 0.994613 7.12096 0.477649
8.93253 1.05029 8.93253 1.00234 7.12096 0.48653
8.93253 1.05351 8.93253 1.01007 7.12096 0.49505
8.93253 1.05707 8.93253 1.01817 7.12096 0.502177
8.93253 1.06084 8.93253 1.0269 7.12096 0.508282
8.93253 1.06484 8.93253 1.03618 7.12096 0.514133
8.93253 1.0692 8.93253 1.04577 7.12096 0.520374
8.93253 1.07401 8.93253 1.05535 7.12096 0.527111
8.93253 1.07928 8.93253 1.06476 7.12096 0.533907
8.93253 1.08486 8.93253 1.07422 7.12096 0.540208
8.93253 1.09063 8.93253 1.08405 7.12096 0.545795
8.93253 1.09656 8.93253 1.09443 7.12096 0.550902
8.93253 1.10274 8.93253 1.10524 7.12096 0.555934
8.93253 1.10916 8.93253 1.1161 7.12096 0.561146
8.93253 1.11586 8.93253 1.12676 7.12096 0.566483
8.93253 1.12311 8.93253 1.13722 7.12096 0.571685
8.93253 1.13147 8.93253 1.14755 7.12096 0.576523
8.93253 1.14014 8.93253 1.1581 7.12096 0.58101
8.93253 1.15009 8.93253 1.16945 7.12096 0.585674
8.93253 1.1608 8.93253 1.18259 7.12096 0.590411
8.93253 1.17106 8.93253 1.19592 7.12096 0.595083
8.93253 1.18074 8.93253 1.20764 7.12096 0.599889
8.93253 1.19038 8.93253 1.21787 7.12096 0.604542
8.93253 1.20036 8.93253 1.22729 7.12096 0.608619
8.93253 1.20992 8.93253 1.2359 7.12096 0.612788
8.93253 1.21794 8.93253 1.24465 7.12096 0.616887
8.93253 1.2245 8.93253 1.25315 7.12096 0.62095
8.93253 1.23059 8.93253 1.26068 7.12096 0.625054
8.93253 1.23644 8.93253 1.26705 7.12096 0.629156
8.93253 1.24165 8.93253 1.27249 7.12096 0.633351
8.93253 1.24579 8.93253 1.27752 7.12096 0.637752
8.93253 1.24894 8.93253 1.28283 7.12096 0.642362
8.93253 1.25171 8.93253 1.2886 7.12096 0.647119
8.93253 1.25434 8.93253 1.29407 7.12096 0.651932
8.93253 1.25667 8.93253 1.29877 7.12096 0.656598
8.93253 1.25869 8.93253 1.30227 7.12096 0.661075
8.93253 1.26064 8.93253 1.30461 7.12096 0.665414
8.93253 1.26271 8.93253 1.30626 7.12096 0.669704
8.93253 1.26488 8.93253 1.30763 7.12096 0.674034
8.93253 1.26701 8.93253 1.30919 7.12096 0.678349
8.93253 1.26872 8.93253 1.31134 7.12096 0.682352
8.93253 1.27042 8.93253 1.31316 7.12096 0.686035
8.93253 1.27244 8.93253 1.31435 7.12096 0.689251
8.93253 1.27471 8.93253 1.31512 7.12096 0.691807
8.93253 1.27719 8.93253 1.31554 7.12096 0.693866
8.93253 1.27981 8.93253 1.31587 7.12096 0.695635
8.93253 1.2826 8.93253 1.31654 7.12096 0.697186
8.93253 1.28559 8.93253 1.31751 7.12096 0.698526
8.93253 1.28884 8.93253 1.31852 7.12096 0.699476
8.93253 1.29229 8.93253 1.31944 7.12096 0.699856
8.93253 1.29589 8.93253 1.32045 6.85619 0.699809
8.93253 1.29956 8.93253 1.32163 6.32229 0.699713
8.93253 1.30327 8.93253 1.32306 5.59746 0.699583
8.93253 1.30688 8.93253 1.32477 4.71216 0.699424
8.93253 1.31032 8.93253 1.32654 3.49696 0.699206
8.93253 1.31351 8.93253 1.32817 -0.00562587 0.69843
8.93253 1.31644 8.93253 1.32978 -0.101679 0.6959
8.93253 1.31883 8.93253 1.33124 -0.263768 0.69163
8.93253 1.3208 8.93253 1.3326 -0.455351 0.686584
8.93253 1.32225 8.90311 1.33339 -0.659625 0.681203
8.93253 1.32368 8.42684 1.33324 -0.856778 0.67601
8.93253 1.32545 7.42583 1.33292 -1.03665 0.671273
8.93253 1.32684 6.49948 1.33263 -1.20427 0.666857
8.93253 1.32745 5.85479 1.33243 -1.38006 0.662227
8.59617 1.32728 4.97043 1.33215 -1.56273 0.657416
8.13993 1.32705 3.46599 1.33168 -1.74676 0.652568
7.49676 1.32673 0.984557 1.3309 -1.91986 0.648009
6.58105 1.32627 -0.0394316 1.32901 -2.07218 0.643997
5.65095 1.3258 -0.133445 1.32525 -2.19715 0.640705
4.88557 1.32541 -0.269168 1.31981 -2.30204 0.637942
4.07681 1.32501 -0.432305 1.31328 -2.37107 0.636124
3.09159 1.32451 -0.614973 1.30597 -2.41813 0.634884
1.81726 1.32387 -0.800817 1.29853 -2.43969 0.634317
-0.0068953 1.32268 -0.98804 1.29103 -2.43318 0.634233
-0.0695557 1.32017 -1.18556 1.28312 -2.40337 0.634239
-0.188402 1.31542 -1.39814 1.27461 -2.44319 0.634224
-0.34923 1.30899 -1.61954 1.26575 -2.46063 0.633765
-0.529816 1.30176 -1.83717 1.25703 -2.49593 0.632835
-0.697874 1.29504 -2.04754 1.24861 -2.54248 0.631609
-0.857534 1.28866 -2.25349 1.24036 -2.59085 0.630335
-1.01827 1.28223 -2.45567 1.23227 -2.63413 0.629195
-1.18331 1.27563 -2.65771 1.22418 -2.66636 0.628346
-1.36828 1.26823 -2.83125 1.21723 -2.6867 0.62781
-1.54824 1.26103 -2.96757 1.21178 -2.69733 0.62753
-1.71341 1.25442 -3.05323 1.20835 -2.70914 0.627219
-1.84908 1.249 -3.09827 1.20654 -2.73161 0.626628
-1.95487 1.24477 -3.13518 1.20506 -2.76897 0.625643
-2.04169 1.24129 -3.19697 1.20259 -2.82371 0.624202
-2.1196 1.23818 -3.30071 1.19844 -2.89232 0.622394
-2.18766 1.23545 -3.42256 1.19356 -2.96483 0.620485
-2.23833 1.23343 -3.54074 1.18883 -3.02806 0.618819
-2.27168 1.23209 -3.63157 1.18519 -3.07665 0.617539
-2.29597 1.23112 -3.68705 1.18297 -3.11427 0.616548
-2.31269 1.23045 -3.72506 1.18145 -3.13896 0.615898
-2.30009 1.23028 -3.76229 1.17996 -3.13992 0.615873
-2.03049 1.23042 -3.79919 1.17848 -3.1782 0.614864
-1.63297 1.23062 -3.82781 1.17733 -3.25876 0.612742
-1.14988 1.23086 -3.84553 1.17662 -3.3698 0.609817
-0.565594 1.23115 -3.8681 1.17572 -3.48766 0.606713
0.024668 1.2317 -3.89452 1.17466 -3.59096 0.603992
0.150079 1.23305 -3.94001 1.17284 -3.65893 0.602202
0.345418 1.23515 -4.00539 1.17022 -3.68649 0.601476
0.557035 1.23743 -4.07855 1.16729 -3.65073 0.601443
0.75346 1.23954 -4.14391 1.16468 -3.59472 0.601453
0.935394 1.24149 -4.18891 1.16288 -3.63611 0.601446
1.11928 1.24347 -4.2089 1.16208 -3.70851 0.600896
1.30498 1.24547 -4.18653 1.16199 -3.75484 0.599676
1.47571 1.2473 -4.21117 1.16198 -3.81048 0.59821
1.59572 1.24859 -4.21715 1.16175 -3.85663 0.596994
1.66403 1.24932 -4.2359 1.16099 -3.88323 0.596294
1.70124 1.24972 -4.26259 1.15993 -3.8691 0.596163
1.72903 1.25002 -4.28554 1.15901 -3.65139 0.596202
1.74673 1.25021 -4.30008 1.15843 -3.32651 0.59626
1.68342 1.25019 -4.30559 1.1582 -2.96219 0.596326
1.53027 1.25011 -4.30601 1.15819 -2.60625 0.59639
1.39441 1.25004 -4.30755 1.15813 -2.01343 0.596496
1.24639 1.24997 -4.31085 1.15799 0.00273995 0.596897
1.0498 1.24987 -4.31353 1.15789 0.103918 0.598361
0.82563 1.24976 -4.25211 1.15789 0.264185 0.600679
0.570746 1.24963 -3.90257 1.158 0.418003 0.602904
0.291722 1.24949 -3.45154 1.15814 0.561767 0.604983
-0.00245618 1.24925 -2.8999 1.15831 0.670242 0.606552
-0.0129706 1.24885 -2.14488 1.15855 0.74431 0.607623
-0.026334 1.24834 -1.09126 1.15888 0.808436 0.608551
-0.0391578 1.24786 0.0191008 1.1596 0.892484 0.609767
-0.0514935 1.24739 0.0849215 1.16088 1.01278 0.611507
-0.0654231 1.24687 0.196793 1.16306 1.16313 0.613681
-0.0764493 1.24645 0.347979 1.16601 1.32595 0.616036
-0.0822674 1.24623 0.52436 1.16945 1.47253 0.618157
-0.0844934 1.24615 0.708023 1.17303 1.58299 0.619754
-0.073226 1.24615 0.87869 1.17636 1.66261 0.620906
-0.0362373 1.24617 1.02909 1.17929 1.73241 0.621915
0.00422878 1.24622 1.16882 1.18201 1.81623 0.623128
0.0300699 1.24646 1.31379 1.18484 1.92906 0.62476
0.0752119 1.24687 1.47714 1.18803 2.06791 0.626768
0.133748 1.2474 1.66286 1.19165 2.21312 0.628869
0.204028 1.24804 1.86216 1.19553 2.3421 0.630734
0.292107 1.24884 2.0595 1.19938 2.44274 0.63219
0.421068 1.25001 2.24179 1.20294 2.51946 0.633299
0.581944 1.25148 2.40717 1.20616 2.58966 0.634315
0.754032 1.25304 2.5613 1.20917 2.67443 0.635541
0.914823 1.25451 2.71497 1.21216 2.78575 0.637151
1.06363 1.25586 2.87766 1.21533 2.91834 0.639069
1.22612 1.25734 3.04881 1.21867 3.05618 0.641063
1.39227 1.25885 3.22084 1.22203 3.18107 0.642869
1.53977 1.26019 3.38671 1.22526 3.28085 0.644312
1.65046 1.2612 3.53813 1.22821 3.36048 0.645464
1.72898 1.26191 3.67464 1.23087 3.4355 0.646549
1.78899 1.26246 3.80311 1.23338 3.52072 0.647782
1.83188 1.26285 3.93069 1.23587 3.62472 0.649286
1.83988 1.26297 4.06089 1.23841 3.74356 0.651005
1.71786 1.2629 4.1925 1.24097 3.8632 0.652736
1.53808 1.26281 4.32003 1.24346 3.9684 0.654257
1.3108 1.2627 4.4365 1.24573 4.05208 0.655468
0.98039 1.26253 4.53825 1.24771 4.11782 0.656418
0.541577 1.26231 4.62569 1.24942 4.17789 0.657287
-0.00435264 1.26187 4.69986 1.25086 4.24539 0.658264
-0.0414335 1.26046 4.76063 1.25205 4.32558 0.659423
-0.12162 1.2574 4.82153 1.25324 4.41091 0.660658
-0.239212 1.25291 4.87433 1.25427 4.48999 0.661801
-0.366269 1.24806 4.90608 1.25489 4.55446 0.662734
-0.482385 1.24362 4.89116 1.25503 4.59601 0.663335
-0.587293 1.23962 4.45132 1.2549 4.61959 0.663676
-0.69856 1.23537 3.83125 1.2547 4.63626 0.663917
-0.822542 1.23064 3.09727 1.25447 4.65701 0.664217
-0.948975 1.22581 2.23114 1.2542 4.68359 0.664602
-1.06672 1.22131 0.986838 1.25381 4.70704 0.664941
-1.17476 1.21719 -0.0171665 1.25285 4.71806 0.6651
-1.27669 1.2133 -0.0737398 1.25071 4.68329 0.665097
-1.37242 1.20964 -0.161872 1.24739 4.55542 0.665074
-1.45862 1.20635 -0.270105 1.2433 4.32797 0.665033
-1.53264 1.20352 -0.386488 1.23891 4.00649 0.664976
-1.597 1.20107 -0.502242 1.23454 3.53924 0.664892
-1.65566 1.19883 -0.60007 1.23085 2.87609 0.664773
-1.70848 1.19681 -0.67782 1.22792 1.61977 0.664547
-1.75094 1.19519 -0.74455 1.2254 -0.0283747 0.663546
-1.78638 1.19384 -0.80889 1.22297 -0.132146 0.660946
-1.81416 1.19278 -0.884986 1.2201 -0.280942 0.657218
-1.83169 1.19211 -0.982734 1.21641 -0.457069 0.652805
-1.83663 1.19192 -1.09785 1.21207 -0.648187 0.648016
-1.62055 1.19203 -1.21695 1.20757 -0.841707 0.643168
-1.29599 1.19219 -1.33146 1.20325 -1.03805 0.638249
-0.894999 1.19239 -1.43506 1.19934 -1.24926 0.632957
-0.334397 1.19267 -1.5305 1.19574 -1.48264 0.627109
0.00963275 1.19299 -1.62383 1.19222 -1.73242 0.620851
0.0576897 1.19371 -1.72243 1.1885 -1.94038 0.615641
0.142778 1.19499 -1.82577 1.1846 -2.09107 0.611865
0.264639 1.19683 -1.94638 1.18005 -2.15528 0.610257
0.400512 1.19888 -2.08026 1.175 -2.02701 0.610215
0.5246 1.20075 -2.22472 1.16955 -1.85005 0.610247
0.625943 1.20228 -2.37326 1.16394 -1.77351 0.610261
0.713493 1.20359 -2.51016 1.15877 -2.15858 0.610174
0.797479 1.20486 -2.61583 1.15479 -2.25848 0.607671
0.886719 1.2062 -2.6922 1.1519 -2.41072 0.603857
0.953923 1.20722 -2.75992 1.14935 -2.56848 0.599904
0.994674 1.20783 -2.83438 1.14654 -2.69784 0.596663
1.01256 1.2081 -2.92597 1.14308 -2.77487 0.594733
1.01886 1.2082 -3.03844 1.13884 -2.79642 0.594193
0.912897 1.20814 -3.15488 1.13445 -2.70679 0.594209
0.697282 1.20803 -3.26253 1.13038 -2.66637 0.594216
0.495602 1.20793 -3.35814 1.12678 -2.79932 0.59412
0.18224 1.20778 -3.44445 1.12352 -2.85088 0.592829
-0.0112371 1.20727 -3.53117 1.12025 -2.93254 0.590783
-0.0526458 1.20576 -3.62849 1.11657 -3.02431 0.588483
-0.116906 1.20341 -3.73246 1.11265 -3.10541 0.586451
-0.191314 1.20069 -3.8359 1.10875 -3.1565 0.585171
-0.265886 1.19796 -3.93508 1.105 -3.16381 0.584852
-0.347543 1.19498 -4.02878 1.10147 -3.06965 0.584869
-0.449294 1.19126 -4.09615 1.09893 -3.00765 0.584881
-0.571806 1.18678 -4.1482 1.09696 -3.04346 0.584874
-0.70511 1.18191 -4.17948 1.09578 -3.15022 0.584855
-0.835244 1.17715 -4.19186 1.09531 -3.17565 0.584692
-0.957954 1.17266 -4.19598 1.09516 -3.10772 0.584692
-1.08095 1.16817 -4.20254 1.09491 -2.90196 0.584729
-1.21148 1.1634 -4.21729 1.09435 -2.6421 0.584776
-1.35021 1.15832 -4.2395 1.09352 -2.36776 0.584825
-1.49014 1.15321 -4.2622 1.09266 -2.06338 0.58488
-1.62878 1.14814 -4.2755 1.09216 -1.76242 0.584934
-1.76636 1.14311 -4.20328 1.09215 -1.03291 0.585065
-1.90506 1.13804 -4.00966 1.09221 0.0123437 0.585449
-2.04435 1.13295 -3.89888 1.09224 0.0644451 0.586287
-2.17448 1.12819 -3.93306 1.09223 0.128512 0.587319
-2.29431 1.12381 -3.97711 1.09222 0.185138 0.58823
-2.4048 1.11977 -3.88823 1.09225 0.234204 0.58902
-2.51203 1.11585 -3.68823 1.09231 0.270983 0.589612
-2.62031 1.11189 -3.49345 1.09237 0.29674 0.590026
-2.72869 1.10793 -3.27566 1.09244 0.320142 0.590403
-2.83229 1.10414 -3.01572 1.09252 0.352101 0.590917
-2.92773 1.10066 -2.59044 1.09265 0.398347 0.591661
-3.00922 1.09768 -2.12098 1.0928 0.457063 0.592606
-3.08437 1.09493 -1.59534 1.09297 0.520348 0.593625
-3.16003 1.09216 -0.909216 1.09318 0.576263 0.594525
-3.23701 1.08935 0.00141176 1.09351 0.621806 0.595258
-3.31711 1.08642 0.0230536 1.09409 0.657929 0.595839
-3.39544 1.08356 0.0582639 1.09503 0.689565 0.596348
-3.47671 1.08059 0.103364 1.09624 0.726032 0.596935
-3.56004 1.07754 0.151868 1.09755 0.770469 0.59765
-3.64785 1.07433 0.196727 1.09875 0.822529 0.598488
-3.74367 1.07083 0.233952 1.09975 0.878354 0.599387
-3.84556 1.0671 0.265041 1.10059 0.932037 0.600251
-3.95399 1.06314 0.288196 1.10121 0.979691 0.601018
-4.07328 1.05878 0.307666 1.10173 1.02189 0.601697
-4.20494 1.05396 0.324235 1.10218 1.06201 0.602342
-4.34539 1.04883 0.336713 1.10251 1.10553 0.603043
-4.49177 1.04348 0.34944 1.10285 1.15175 0.603787
-4.64503 1.03788 0.356578 1.10305 1.20284 0.604609
-4.80608 1.03199 0.358434 1.1031 1.2576 0.60549
-4.97963 1.02564 0.356823 1.10312 1.31039 0.60634
-5.16488 1.01887 0.350514 1.10312 1.3596 0.607132
-5.35946 1.01176 0.353657 1.10312 1.40489 0.607861
-5.55962 1.00444 0.35584 1.10312 1.44862 0.608565
-5.76347 0.99699 0.329116 1.10311 1.49256 0.609272
-5.97183 0.989373 0.222825 1.10308 1.53747 0.609995
-6.18174 0.981699 -0.00307745 1.1029 1.57888 0.610661
-6.38379 0.974313 -0.0167133 1.10245 1.61733 0.61128
-6.57267 0.967408 -0.0317138 1.10195 1.65258 0.611847
-6.75424 0.960771 -0.0559825 1.10115 1.67823 0.61226
-6.93469 0.954174 -0.0935357 1.0999 1.69577 0.612542
-7.11277 0.947664 -0.147725 1.0981 1.70591 0.612705
-7.28417 0.941398 -0.215153 1.09585 1.70875 0.612751
-7.44396 0.935557 -0.289514 1.09338 1.68983 0.612748
-7.59222 0.930137 -0.366172 1.09083 1.65817 0.612742
-7.73241 0.925012 -0.443263 1.08827 1.56947 0.612726
-7.8665 0.92011 -0.52406 1.08559 1.33034 0.612683
-7.99236 0.915509 -0.616814 1.0825 0.934115 0.612612
-8.10772 0.911292 -0.728813 1.07878 -0.00675107 0.612288
-8.2135 0.907424 -0.861952 1.07435 -0.0697178 0.610833
-8.31305 0.903785 -1.01063 1.06941 -0.174793 0.608404
-8.40959 0.900256 -1.16899 1.06415 -0.312992 0.60521
-8.50096 0.896916 -1.32947 1.05881 -0.477144 0.601416
-8.58838 0.89372 -1.48619 1.0536 -0.659758 0.597195
-8.66987 0.890741 -1.64019 1.04848 -0.856963 0.592636
-8.74514 0.88799 -1.79512 1.04333 -1.0716 0.587675
-8.80632 0.885753 -1.9504 1.03817 -1.31083 0.582145
-8.8555 0.883955 -2.10476 1.03304 -1.50502 0.577657
-8.8964 0.88246 -2.25402 1.02808 -1.63524 0.574647
-8.93886 0.880908 -2.39362 1.02344 -1.74767 0.572048
-8.9825 0.879313 -2.52808 1.01897 -1.83622 0.570001
-9.02085 0.877911 -2.66804 1.01431 -1.91675 0.56814
-9.04843 0.876902 -2.82145 1.00921 -2.00644 0.566067
-9.06645 0.876244 -2.98664 1.00372 -2.11955 0.563452
-9.08176 0.875684 -3.15736 0.998047 -2.25971 0.560213
-9.09948 0.875036 -3.32853 0.992356 -2.41959 0.556517
-9.11954 0.874303 -3.50042 0.986642 -2.58505 0.552693
-9.13831 0.873616 -3.67824 0.980731 -2.7412 0.549083
-9.15352 0.87306 -3.8677 0.974433 -2.8783 0.545914
-9.16715 0.872562 -4.07043 0.967693 -2.9953 0.54321
-9.18372 0.871957 -4.28342 0.960613 -3.09977 0.540795
-9.20528 0.871168 -4.50328 0.953304 -3.20431 0.538379
-9.23067 0.87024 -4.73264 0.94568 -3.31997 0.535705
-9.25559 0.869329 -4.96574 0.93793 -3.45437 0.532599
-9.28209 0.868361 -5.20353 0.930026 -3.60567 0.529101
-9.30881 0.867384 -5.44861 0.921879 -3.76202 0.525488
-9.33709 0.86635 -5.69912 0.913551 -3.91193 0.522023
-9.36673 0.865266 -5.95223 0.905137 -4.04576 0.518929
-9.39627 0.864186 -6.20786 0.896639 -4.1607 0.516272
-9.42467 0.863148 -6.46551 0.888074 -4.26212 0.513928
-9.45491 0.862043 -6.71668 0.879724 -4.3609 0.511645
-9.49321 0.860643 -6.94648 0.872085 -4.4673 0.509185
-9.52728 0.859397 -7.15528 0.865144 -4.5863 0.506435
-9.55641 0.858332 -7.34223 0.858929 -4.7185 0.503379
-9.57583 0.857622 -7.51577 0.85316 -4.85769 0.500162
-9.58803 0.857176 -7.69015 0.847363 -4.9943 0.497004
-9.59443 0.856942 -7.87645 0.84117 -5.11992 0.494101
-9.57984 0.856911 -8.07738 0.83449 -5.23096 0.491534
-9.46336 0.85697 -8.28633 0.827544 -5.32809 0.489289
-9.23641 0.857084 -8.49013 0.820769 -5.4182 0.487206
-8.88568 0.857261 -8.67685 0.814562 -5.51059 0.48507
-8.39921 0.857506 -8.84147 0.80909 -5.61263 0.482712
-7.7848 0.857815 -8.98708 0.804249 -5.72738 0.480059
-7.03417 0.858193 -9.12296 0.799732 -5.85205 0.477178
-6.13961 0.858643 -9.25973 0.795186 -5.97885 0.474247
-5.10428 0.859164 -9.40359 0.790403 -6.09852 0.471481
-4.58806 0.859424 -9.54903 0.785568 -6.2042 0.469038
-4.11632 0.859661 -9.69318 0.780777 -6.29224 0.467003
-3.6688 0.859886 -9.82603 0.77636 -6.3651 0.465319
-3.12345 0.860161 -9.92984 0.772909 -6.4362 0.463675
-2.53783 0.860455 -10.0146 0.770092 -6.51089 0.461949
-1.73446 0.86086 -10.0834 0.767805 -6.59393 0.46003
-0.614797 0.861423 -10.1374 0.766008 -6.68756 0.457865
0.0107187 0.862291 -10.1797 0.764604 -6.78525 0.455607
0.0392722 0.86378 -10.209 0.763629 -6.87641 0.4535
0.0858763 0.86621 -10.2186 0.76331 -6.9522 0.451748
0.152306 0.869673 -9.78218 0.763447 -7.00645 0.450495
0.225198 0.873474 -9.35401 0.763581 -7.04388 0.449629
0.294238 0.877073 -8.98 0.763699 -7.07148 0.448991
0.353379 0.880157 -8.3907 0.763884 -7.09721 0.448397
0.404935 0.882845 -7.50728 0.764162 -7.12307 0.447799
0.451597 0.885278 -6.32396 0.764534 -7.14916 0.447196
0.491842 0.887376 -4.9997 0.764951 -7.17263 0.446653
0.51985 0.888836 -4.24472 0.765188 -7.18676 0.446327
0.499109 0.889257 -4.09799 0.765234 -7.18097 0.446286
0.00974029 0.889011 -3.7631 0.765339 -7.0642 0.446307
-0.0264988 0.888289 -3.43212 0.765444 -6.54591 0.4464
-0.0930909 0.886488 -2.71599 0.765669 -5.89072 0.446518
-0.206935 0.88341 -1.45773 0.766064 -5.05855 0.446667
-0.349841 0.879545 0.0014087 0.766612 -3.87939 0.446879
-0.508663 0.87525 0.015243 0.76749 0.000672254 0.447599
-0.677404 0.870687 0.0386056 0.768973 0.0587 0.449655
-0.84156 0.866247 0.0704711 0.770995 0.177592 0.453867
-1.00866 0.861728 0.105499 0.773218 0.338278 0.45956
-1.20959 0.856295 0.143999 0.775661 0.518723 0.465953
-1.44089 0.850039 0.178793 0.777869 0.703967 0.472516
-1.69168 0.843257 0.209344 0.779808 0.887174 0.479006
-1.95103 0.836244 0.238772 0.781676 1.06434 0.485283
-2.21327 0.829152 0.266803 0.783454 1.20581 0.490295
-2.48285 0.821862 0.29289 0.78511 1.34988 0.495399
-2.76986 0.8141 0.320872 0.786886 1.48799 0.500292
-3.07034 0.805974 0.366074 0.789754 1.62058 0.504989
-3.37211 0.797813 0.425647 0.793535 1.75343 0.509696
-3.6728 0.789682 0.505145 0.79858 1.88873 0.514489
-3.96786 0.781702 0.59804 0.804475 2.02965 0.519482
-4.26006 0.7738 0.691147 0.810384 2.17638 0.52468
-4.55138 0.765922 0.772974 0.815577 2.32412 0.529914
-4.83247 0.758321 0.844629 0.820124 2.46666 0.534964
-5.10786 0.750873 0.915738 0.824637 2.59445 0.539491
-5.37801 0.743567 0.987655 0.829201 2.71113 0.543625
-5.63081 0.736731 1.06703 0.834238 2.81991 0.547479
-5.87711 0.73007 1.15915 0.840084 2.91868 0.550978
-6.11399 0.723664 1.25763 0.846334 3.01238 0.554298
-6.33867 0.717588 1.3493 0.852152 3.10679 0.557643
-6.55081 0.711851 1.42701 0.857083 3.20108 0.560983
-6.75145 0.706425 1.49605 0.861465 3.29137 0.564182
-6.93754 0.701393 1.55938 0.865483 3.3767 0.567205
-7.1076 0.696794 1.62271 0.869503 3.45434 0.569955
-7.2615 0.692632 1.69155 0.873872 3.51993 0.572279
-7.37885 0.689459 1.75939 0.878177 3.57369 0.574184
-7.47652 0.686817 1.81859 0.881933 3.61875 0.57578
-7.56195 0.684507 1.87115 0.885269 3.65624 0.577108
-7.64861 0.682164 1.91536 0.888075 3.69117 0.578346
-7.73922 0.679713 1.95454 0.890561 3.72718 0.579622
-7.82923 0.677279 1.99313 0.89301 3.76048 0.580801
-7.92129 0.674789 2.03021 0.895363 3.78521 0.581678
-8.01653 0.672214 2.06294 0.89744 3.79978 0.582194
-8.1214 0.669378 2.088 0.899031 3.80402 0.582344
-8.23386 0.666336 2.1038 0.900033 3.68512 0.582323
-8.3503 0.663188 2.10917 0.900374 3.51582 0.582292
-8.47037 0.659941 1.81401 0.900281 3.30822 0.582255
-8.60071 0.656416 1.26064 0.900107 3.00899 0.582201
-8.74875 0.652412 0.383621 0.899832 2.58791 0.582126
-8.91939 0.647798 -0.0279221 0.898952 2.03287 0.582026
-9.10912 0.642667 -0.111434 0.896683 0.72428 0.581791
-9.30921 0.637256 -0.248048 0.892971 -0.0238925 0.581136
-9.51964 0.631565 -0.423398 0.888206 -0.0818231 0.579864
-9.74289 0.625528 -0.619228 0.882884 -0.161249 0.57812
-9.97467 0.619259 -0.82056 0.877413 -0.252388 0.576118
-10.2006 0.613149 -1.0179 0.872051 -0.350595 0.573961
-10.4193 0.607236 -1.21455 0.866707 -0.456436 0.571637
-10.6432 0.601181 -1.44207 0.860524 -0.565148 0.569249
-10.8784 0.59482 -1.7136 0.853146 -0.675398 0.566828
-11.1193 0.588305 -2.00422 0.845249 -0.793229 0.56424
-11.3542 0.581953 -2.29706 0.837291 -0.922029 0.561412
-11.5783 0.575893 -2.5619 0.830094 -1.06575 0.558255
-11.7931 0.570084 -2.7952 0.823754 -1.22425 0.554774
-11.9967 0.564578 -3.01671 0.817735 -1.39985 0.550918
-12.195 0.559216 -3.25939 0.811141 -1.5942 0.54665
-12.3788 0.554245 -3.55239 0.803179 -1.80509 0.542018
-12.54 0.549885 -3.90363 0.793634 -2.00747 0.537574
-12.6792 0.54612 -4.29442 0.783015 -2.19091 0.533545
-12.8017 0.542809 -4.69333 0.772175 -2.35334 0.529978
-12.9345 0.539216 -5.07059 0.761923 -2.45424 0.527762
-13.0547 0.535966 -5.39938 0.752989 -2.56675 0.525291
-13.1514 0.533351 -5.6897 0.7451 -2.73411 0.521615
-13.1994 0.532053 -5.9711 0.737453 -2.96791 0.516481
-13.1646 0.53188 -6.27864 0.729096 -3.25122 0.510259
-12.8771 0.532024 -6.6343 0.719431 -3.5466 0.503772
-12.4459 0.532241 -7.03308 0.708595 -3.82012 0.497765
-11.7894 0.532572 -7.44903 0.697292 -4.05629 0.492578
-10.8567 0.533041 -7.84779 0.686456 -4.26354 0.488027
-9.63838 0.533654 -8.20451 0.676762 -4.47455 0.483393
-8.1889 0.534384 -8.51917 0.668212 -4.72404 0.477913
-6.55245 0.535207 -8.81312 0.660224 -5.03199 0.47115
-5.88823 0.535542 -9.11351 0.652061 -5.39379 0.463204
-5.02426 0.535976 -9.43927 0.643209 -5.77752 0.454777
-4.15897 0.536412 -9.76683 0.634308 -6.14547 0.446696
-3.10334 0.536943 -10.0708 0.626048 -6.47705 0.439414
-1.64561 0.537677 -10.3689 0.617949 -6.76086 0.433181
0.00443901 0.538897 -10.6673 0.60984 -7.01674 0.427562
0.0275473 0.540938 -10.95 0.602157 -7.28817 0.421601
