0 0 0
0 0 0
0 0 0
0 0 0
0 0 0
0 0 0
0 0 0
0 0 0
0 0 0
0 0 0
0 0 0
0 0 0
0 0 0
0 0 0
0 0 0
0 0 0
0 0 0
0 0 0
0 0 0
0 0 0
0 0 0
0 0 0
0 0 0
0 0 0
0 0 0
0 0 0
0 0 0
0 0 0
0 0 0
0 0 0
0 0 0
0 0 0
0 0 0
0 0 0
0 0 0
0 0 0
0 0 0
0 0 0
0 0 0
0 0 0
0 0 0
0 0 0
0 0 0
0 0 0
0 0 0
0 0 0
0 0 0
0 0 0
0 0 0
0 0 0
0 0 0
0 0 0
0 0 0
0 0 0
0 0 0
0 0 0
0 0 0
0 0 0
0 0 0
0 0 0
0 0 0
0 0 0
0 0 0
0 0 0
0 0 0
0 0 0
0 0 0
0 0 0
0 0 0
0 0 0
0 0 0
0 0 0
0 0 0
0 0 0
0 0 0
0 0 0
0 0 0
0 0 0
0 0 0
0 0 0
0 0 0
0 0 0
0 0 0
0 0 0
0 0 0
0 0 0
0 0 0
0 0 0
0 0 0
0 0 0
0 0 0
0 0 0
0 0 0
0 0 0
0 0 0
0 0 0
0 0 0
0 0 0
0 0 0
0 0 0
0 0 0
0 0 0
0 0 0
0 0 0
0 0 0
0 0 0
0 0 0
0 0 0
0 0 0
0 0 0
0 0 0
0 0 0
0 0 0
0 0 0
0 0 0
0 0 0
0 0 0
0 0 0
0 0 0
0 0 0
0 0 0
0 0 0
0 0 0
0 0 0
0 0 0
0 0 0.0140879
0.00181279 0 0.0272213
0.00712549 0 0.0390814
0.0137713 0 0.049359
0.0219254 0 0.0577854
0.031612 0 0.0641668
0.0427035 0 0.0683792
0.0549702 0.00622987 0.0703763
0.0681385 0.013471 0.0703742
0.081923 0.0216783 0.0692507
0.0960501 0.0307188 0.0672035
0.110263 0.0403784 0.0643767
0.12432 0.0503776 0.0609437
0.138 0.0603883 0.0571001
0.151097 0.070054 0.0530549
0.163393 0.0790184 0.0490189
0.17466 0.086949 0.0451927
0.184678 0.0935538 0.0417579
0.193259 0.0985958 0.0388695
0.199304 0.101912 0.0366549
0.203989 0.103296 0.0366549
0.20736 0.103337 0.0366549
0.208003 0.102252 0.0366549
0.207777 0.100448 0.0366549
0.206362 0.0981599 0.0378847
0.202149 0.0957974 0.0414689
0.197439 0.0925829 0.0462273
0.192333 0.0892571 0.0513548
0.186804 0.0856337 0.0568781
0.181052 0.0818235 0.0624334
0.175438 0.0780114 0.0677144
0.170062 0.0743166 0.0724267
0.165139 0.0708255 0.0762748
0.160887 0.0676354 0.0790307
0.157435 0.0648452 0.0805171
0.154907 0.0625391 0.0806529
0.153408 0.0607661 0.0799138
0.152978 0.0595566 0.0783978
0.154273 0.0589366 0.0761301
0.15767 0.0589659 0.0731592
0.162895 0.0600542 0.0695606
0.168636 0.0624595 0.0654184
0.174649 0.0659405 0.0608835
0.180601 0.0703276 0.0589958
0.186256 0.0753459 0.0589958
0.190402 0.0795949 0.0589958
0.194092 0.0838545 0.0589958
0.197219 0.087955 0.0589958
0.199676 0.0917351 0.0589958
0.201364 0.0950407 0.0589958
0.202194 0.0977318 0.0589958
0.202172 0.0996943 0.0589958
0.201605 0.100847 0.0589958
0.200481 0.101146 0.0589958
0.198753 0.100855 0.0589958
0.196379 0.100131 0.0589958
0.193325 0.0989922 0.0589958
0.189582 0.0974665 0.0589958
0.185171 0.0955868 0.0589958
0.180149 0.0933893 0.0589958
0.174597 0.090913 0.0589958
0.168614 0.0882013 0.0589958
0.1623 0.0853031 0.0589958
0.155748 0.082271 0.0610443
0.149048 0.0791599 0.0691372
0.142286 0.0760239 0.0769141
0.135551 0.0736867 0.0841753
0.130566 0.0736867 0.0907325
0.130566 0.0736867 0.0964137
0.130566 0.0736867 0.101066
0.130566 0.0736867 0.104561
0.130566 0.0736867 0.106796
0.130566 0.0736867 0.107696
0.130566 0.0736867 0.107462
0.130566 0.0736867 0.106527
0.130566 0.0736867 0.104904
0.130566 0.0736867 0.102616
0.130566 0.0736867 0.0997001
0.130566 0.0736867 0.0962036
0.130566 0.0736867 0.0921928
0.130566 0.0736867 0.0878223
0.130566 0.0736867 0.0842138
0.130566 0.0736867 0.0842138
0.130566 0.0736867 0.0842138
0.130566 0.0736867 0.0842138
0.130566 0.0736867 0.0842138
0.130566 0.0736867 0.0842138
0.130566 0.0736867 0.0842138
0.130566 0.0736867 0.0842138
0.130566 0.0736867 0.0842138
0.130566 0.0736867 0.0842138
0.130566 0.0736867 0.0842138
0.130566 0.0736867 0.0842138
0.130566 0.0736867 0.0842138
0.130566 0.0736867 0.0842138
0.130566 0.0736867 0.0842138
0.130566 0.0736867 0.0821922
0.130566 0.0736867 0.0816834
0.130566 0.0736867 0.0816834
0.130566 0.0736867 0.0816834
0.129168 0.0736867 0.0816834
0.129168 0.0736867 0.0816834
0.129168 0.0736867 0.0816834
0.129168 0.0736867 0.081678
0.129168 0.0736867 0.081678
0.129168 0.0736867 0.081678
0.129168 0.0736867 0.081678
0.129168 0.0736867 0.081678
0.129168 0.0736867 0.081678
0.129168 0.0729117 0.081678
0.129168 0.0729117 0.081678
0.129168 0.0729117 0.081678
0.129168 0.0729117 0.081678
0.128666 0.0729117 0.0816777
0.128666 0.0729117 0.0816777
0.128666 0.0729117 0.0816777
0.128666 0.0729117 0.0816777
0.128666 0.0728948 0.0816777
0.128666 0.0728948 0.0816777
0.128666 0.0728948 0.0816777
0.128666 0.0728948 0.0816777
0.128666 0.0728948 0.0816777
0.128666 0.0728948 0.0816777
0.128666 0.0728948 0.0816777
0.128666 0.0728948 0.0816777
0.128666 0.0728948 0.0816777
0.128666 0.0728948 0.0816777
0.128666 0.0728948 0.0816777
0.128666 0.0728948 0.0816777
0.128666 0.0728948 0.081676
0.128666 0.0728948 0.081676
0.128666 0.0728948 0.081676
0.128666 0.0728948 0.081676
0.128666 0.0728948 0.081676
0.128658 0.0728948 0.081676
0.128658 0.0728948 0.081676
0.128658 0.0728948 0.081676
0.128658 0.0728948 0.081676
0.128658 0.0728948 0.081676
0.128658 0.0728948 0.081676
0.128658 0.0728948 0.081676
0.128658 0.0728948 0.081676
0.128658 0.0728948 0.081676
0.128658 0.0728948 0.081676
0.128658 0.0728948 0.081676
0.128658 0.0728948 0.081676
0.128658 0.0728948 0.081676
0.128658 0.0728948 0.081676
0.128658 0.0728948 0.081676
0.128658 0.0728948 0.081676
0.128658 0.0728948 0.081676
0.128658 0.0728948 0.081676
0.128658 0.0728948 0.081676
0.128658 0.0728948 0.081676
0.128658 0.0728948 0.081676
0.128658 0.0728948 0.081676
0.128658 0.0728948 0.081676
0.128658 0.0728948 0.081676
0.128658 0.0728948 0.081676
0.128658 0.0728948 0.081676
0.128658 0.0728948 0.081676
0.128658 0.0728948 0.081676
0.128658 0.0728948 0.081676
0.128658 0.0728948 0.081676
0.128658 0.0728948 0.081676
0.128658 0.0728948 0.081676
0.128658 0.0728948 0.081676
0.128658 0.0728948 0.081676
0.128658 0.0728948 0.081676
0.128658 0.0728948 0.081676
0.128658 0.0728948 0.081676
0.128658 0.0728948 0.081676
0.128658 0.0728948 0.081676
0.128658 0.0728948 0.081676
0.128658 0.0728948 0.081676
0.128658 0.0728948 0.081676
0.128658 0.0728948 0.081676
0.128658 0.0728948 0.081676
0.128658 0.0728948 0.081676
0.128658 0.0728948 0.081676
0.128658 0.0728948 0.081676
0.128658 0.0728948 0.081676
0.128658 0.0728948 0.081676
0.128658 0.0728948 0.081676
0.128658 0.0728948 0.081676
0.128658 0.0728948 0.081676
0.128658 0.0728948 0.081676
0.128658 0.0728948 0.081676
0.128658 0.0728948 0.081676
0.128658 0.0728948 0.081676
0.128658 0.0728948 0.081676
0.128658 0.0728948 0.081676
0.128658 0.0728948 0.081676
0.128658 0.0728948 0.081676
0.128658 0.0728948 0.081676
0.128658 0.0728948 0.081676
0.128658 0.0728948 0.081676
0.128658 0.0728948 0.081676
0.128658 0.0728948 0.081676
0.128658 0.0728948 0.081676
0.128658 0.0728948 0.081676
0.128658 0.0728948 0.081676
0.128658 0.0728948 0.081676
0.137962 0.0728948 0.081676
0.149979 0.0786819 0.081676
0.161448 0.089819 0.081676
0.172281 0.100232 0.081676
0.182411 0.109759 0.081676
0.191784 0.11825 0.081676
0.200349 0.125584 0.0823525
0.20803 0.131682 0.0841348
0.21354 0.136708 0.0864828
0.218041 0.140512 0.0893779
0.221245 0.142972 0.0929128
0.2232 0.144261 0.0969437
0.223968 0.144402 0.101459
0.223814 0.143901 0.106323
0.223153 0.142889 0.111442
0.222056 0.141428 0.116684
0.220617 0.139589 0.121904
0.218928 0.13744 0.126943
0.217079 0.135049 0.131641
0.215166 0.132492 0.135842
0.213289 0.129849 0.139394
0.211539 0.127195 0.142157
0.210002 0.124601 0.144001
0.208754 0.12213 0.144814
0.207865 0.119843 0.144679
0.20739 0.117791 0.143939
0.207415 0.116016 0.142594
0.20832 0.114552 0.140643
0.210184 0.11342 0.138096
0.212985 0.112631 0.134983
0.216681 0.112185 0.131346
0.221134 0.11207 0.127244
0.22611 0.112524 0.12274
0.231478 0.113574 0.117914
0.237114 0.115104 0.114144
0.242957 0.117035 0.114144
0.24889 0.119245 0.114144
0.254765 0.121601 0.114144
0.260461 0.12397 0.114144
0.26587 0.126231 0.114144
0.270863 0.128274 0.114144
0.275291 0.129998 0.114144
0.279009 0.131323 0.114144
0.281876 0.132182 0.114144
0.283767 0.132542 0.114144
0.284589 0.132463 0.114144
0.284447 0.132118 0.114144
0.283713 0.131512 0.114144
0.282405 0.13066 0.114144
0.280541 0.12958 0.114144
0.278168 0.128299 0.114144
0.275355 0.126847 0.114144
0.272185 0.125257 0.114144
0.268742 0.123575 0.114144
0.265112 0.121849 0.114144
0.261375 0.120135 0.114144
0.257607 0.119714 0.114144
0.253886 0.119714 0.114144
0.250291 0.119714 0.114144
0.246905 0.119714 0.114144
0.243806 0.119714 0.116125
0.241067 0.119714 0.12366
0.238755 0.119714 0.130471
0.236923 0.119714 0.136442
0.235611 0.119714 0.141482
0.234835 0.119714 0.145526
0.234587 0.119714 0.14853
0.235081 0.119714 0.15048
0.236459 0.119714 0.151386
0.238581 0.121796 0.151374
0.241274 0.12632 0.150856
0.244336 0.131246 0.149911
0.247554 0.136463 0.148594
0.25071 0.141846 0.146967
0.25359 0.14725 0.145102
0.255991 0.152522 0.143074
0.257727 0.157495 0.140962
0.258636 0.162 0.138843
0.258659 0.165866 0.136795
0.258092 0.16893 0.134888
0.256939 0.17104 0.133186
0.255159 0.172067 0.133186
0.252721 0.17202 0.133186
0.249603 0.171299 0.133186
0.245798 0.169913 0.133186
0.241317 0.167849 0.133186
0.236184 0.165108 0.133186
0.230442 0.161707 0.133186
0.228918 0.157677 0.133186
0.228918 0.152996 0.133186
0.228918 0.147695 0.133186
0.228918 0.146346 0.134165
0.228918 0.146346 0.136111
0.228918 0.146346 0.137725
0.228918 0.146346 0.138869
0.228918 0.146346 0.13934
0.228918 0.146346 0.139163
0.228918 0.146346 0.138494
0.228918 0.146346 0.13724
0.228918 0.146346 0.136389
0.228918 0.146346 0.136389
0.228918 0.146346 0.136389
0.228918 0.146346 0.136389
0.22822 0.146346 0.136389
0.227057 0.146346 0.136389
0.227057 0.146346 0.136389
0.227057 0.146346 0.136389
0.227044 0.146346 0.136389
0.227044 0.146346 0.136389
0.227044 0.146346 0.136389
0.227044 0.146346 0.136389
0.227044 0.14571 0.136389
0.227044 0.145243 0.136389
0.227044 0.145135 0.136389
0.227044 0.145135 0.136389
0.227044 0.145135 0.136389
0.227044 0.145135 0.136389
0.227044 0.145135 0.135037
0.227044 0.145135 0.135037
0.227044 0.145135 0.13502
0.227044 0.145135 0.13502
0.227044 0.145135 0.13502
0.227044 0.145135 0.134993
0.227044 0.145135 0.134993
0.227044 0.145135 0.134993
0.227044 0.145135 0.134993
0.227044 0.145135 0.134993
0.227044 0.145135 0.134993
0.227044 0.145135 0.134993
0.227044 0.145135 0.134993
0.227044 0.145135 0.134993
0.227044 0.145135 0.134993
0.227044 0.145135 0.134993
0.227044 0.145135 0.134993
0.227044 0.145135 0.134993
0.227044 0.145135 0.134993
0.227044 0.145135 0.134993
0.227044 0.145135 0.134993
0.227044 0.145135 0.134993
0.227044 0.145135 0.134993
0.227044 0.145135 0.134993
0.227044 0.145134 0.134993
0.227044 0.145134 0.134993
0.227044 0.145134 0.134993
0.227044 0.145128 0.134993
0.227044 0.145128 0.134993
0.227044 0.145128 0.134993
0.227044 0.145128 0.134993
0.227044 0.145128 0.134993
0.227044 0.145128 0.134993
0.227044 0.145128 0.134993
0.227044 0.145128 0.134993
0.227044 0.145128 0.134993
0.227044 0.145128 0.134993
0.227044 0.145128 0.134993
0.227044 0.145128 0.134993
0.227044 0.145128 0.134993
0.227044 0.145128 0.134993
0.227044 0.145128 0.134993
0.227044 0.145128 0.134993
0.227044 0.145128 0.134993
0.227044 0.145128 0.134993
0.227044 0.145126 0.134993
0.22704 0.145126 0.134993
0.22704 0.145126 0.134993
0.22704 0.145126 0.134993
0.22704 0.145126 0.134993
0.22704 0.145126 0.134993
0.22704 0.145126 0.134993
0.22704 0.145126 0.134993
0.22704 0.145126 0.134993
0.22704 0.145126 0.134993
0.22704 0.145126 0.134993
0.22704 0.145126 0.134993
0.22704 0.145126 0.134993
0.22704 0.145126 0.134993
0.22704 0.145126 0.134993
0.22704 0.145126 0.134993
0.22704 0.145126 0.134993
0.22704 0.145126 0.134993
0.22704 0.145126 0.134993
0.22704 0.145126 0.134993
0.22704 0.145126 0.134993
0.22704 0.145126 0.134993
0.22704 0.145126 0.134993
0.22704 0.145126 0.134993
0.22704 0.145126 0.134993
0.22704 0.145126 0.134993
0.22704 0.145126 0.134993
0.22704 0.145126 0.134993
0.22704 0.145126 0.134993
0.22704 0.145126 0.134993
0.22704 0.145126 0.134993
0.22704 0.145126 0.134993
0.22704 0.145126 0.134993
0.22704 0.145126 0.134993
0.22704 0.145126 0.134993
0.22704 0.145126 0.134993
0.22704 0.145126 0.134993
0.22704 0.145126 0.134993
0.22704 0.145126 0.134993
0.22704 0.145126 0.134993
0.22704 0.145126 0.134993
0.22704 0.145126 0.134993
0.22704 0.145126 0.134993
0.22704 0.145126 0.134993
0.22704 0.145126 0.134993
0.22704 0.145126 0.134993
0.22704 0.145126 0.134993
0.22704 0.145126 0.134993
0.22704 0.145126 0.134993
0.22704 0.145126 0.134993
0.22704 0.145126 0.134993
0.22704 0.145126 0.134993
0.22704 0.145126 0.134993
0.22704 0.145126 0.134993
0.22704 0.145126 0.134993
0.22704 0.145126 0.134993
0.22704 0.145126 0.134993
0.22704 0.145126 0.134993
0.22704 0.145126 0.134993
0.22704 0.145126 0.134993
0.22704 0.145126 0.134993
0.22704 0.145126 0.134993
0.22704 0.145126 0.134993
0.22704 0.145126 0.134993
0.22704 0.145126 0.134993
0.22704 0.145126 0.134993
0.22704 0.145126 0.134993
0.22704 0.145126 0.134993
0.22704 0.145126 0.134993
0.22704 0.145126 0.134993
0.22704 0.145126 0.134993
0.22704 0.145126 0.134993
0.22704 0.145126 0.134993
0.22704 0.145126 0.134993
0.22704 0.145126 0.134993
0.231715 0.145126 0.134993
0.237334 0.145126 0.134993
0.242203 0.145126 0.134993
0.246308 0.145126 0.134993
0.249658 0.145126 0.134993
0.252267 0.145126 0.134993
0.254161 0.145126 0.134993
0.255396 0.145126 0.134993
0.256043 0.145126 0.134993
0.25619 0.145126 0.134993
0.256064 0.145126 0.134993
0.255801 0.145126 0.134993
0.255438 0.145126 0.134993
0.255057 0.145126 0.134993
0.254703 0.145126 0.134993
0.254442 0.145126 0.134993
0.254331 0.145126 0.134993
0.254521 0.145126 0.134993
0.255226 0.145126 0.134993
0.256531 0.145126 0.137255
0.258501 0.145126 0.139012
0.261178 0.145126 0.140247
0.264578 0.145126 0.140943
0.268699 0.145126 0.141082
0.273518 0.145126 0.140815
0.278996 0.145126 0.140231
0.285076 0.145126 0.139357
0.29169 0.145126 0.138231
0.298756 0.145126 0.138231
0.306184 0.145126 0.138231
0.313877 0.145126 0.138231
0.321734 0.145126 0.138231
0.329627 0.150931 0.138231
0.337333 0.156885 0.138231
0.344833 0.162837 0.138231
0.352029 0.168692 0.138231
0.358855 0.174354 0.138231
0.36523 0.179729 0.138231
0.371071 0.184735 0.138231
0.376311 0.189303 0.138231
0.380928 0.19337 0.138231
0.384219 0.197023 0.138231
0.386728 0.200237 0.138231
0.388339 0.202809 0.138231
0.388999 0.204908 0.138231
0.388882 0.206444 0.138231
0.388314 0.207456 0.138231
0.387326 0.207944 0.138231
0.385955 0.207993 0.144698
0.384263 0.207739 0.150564
0.382312 0.207268 0.156775
0.380132 0.206691 0.163126
0.377815 0.205984 0.169427
0.3754 0.205229 0.175528
0.372963 0.20443 0.181396
0.370565 0.203629 0.186961
0.368266 0.202859 0.192109
0.366121 0.202153 0.196698
0.36416 0.201539 0.200616
0.362277 0.20106 0.203802
0.360492 0.200732 0.206223
0.358799 0.200555 0.20786
0.357185 0.200542 0.20867
0.355641 0.200779 0.208672
0.354162 0.201223 0.208146
0.352747 0.201794 0.207162
0.351384 0.202412 0.205764
0.350056 0.202984 0.203985
0.348732 0.203416 0.201861
0.347373 0.203604 0.199438
0.34594 0.203523 0.196775
0.344393 0.203218 0.193933
0.342691 0.202643 0.190969
0.34079 0.201758 0.187931
0.338642 0.200529 0.184863
0.336206 0.198927 0.181812
0.333452 0.196931 0.178819
0.330366 0.194526 0.175918
0.326944 0.191706 0.173819
0.323192 0.188473 0.173819
0.319122 0.184839 0.173819
0.314749 0.180825 0.173819
0.310089 0.179766 0.173819
0.310089 0.179766 0.173819
0.310089 0.179766 0.173819
0.310089 0.179766 0.173819
0.310089 0.179766 0.173819
0.310089 0.179766 0.173819
0.310089 0.179766 0.173819
0.310089 0.179766 0.173819
0.310089 0.179766 0.173819
0.310089 0.179766 0.173819
0.310089 0.179766 0.173819
0.310089 0.179766 0.173819
0.310089 0.179766 0.173819
0.310089 0.179766 0.173819
0.310089 0.179766 0.173819
0.310089 0.179766 0.173819
0.310089 0.179766 0.173819
0.310089 0.179766 0.173819
0.310089 0.179766 0.173819
0.310089 0.179766 0.173819
0.310089 0.179766 0.173819
0.310089 0.179766 0.173819
0.310089 0.179766 0.173819
0.310089 0.179766 0.173819
0.310089 0.179766 0.173819
0.310089 0.179427 0.173819
0.310089 0.179184 0.173819
0.310089 0.179131 0.173819
0.310089 0.178985 0.173319
0.310089 0.178698 0.173319
0.310089 0.17861 0.173319
0.310089 0.17861 0.173319
0.310089 0.17861 0.173319
0.310089 0.17861 0.17331
0.310089 0.17861 0.17331
0.310089 0.17861 0.17331
0.310089 0.17861 0.17331
0.310089 0.17861 0.17331
0.309408 0.17861 0.17331
0.309408 0.17861 0.17331
0.309408 0.17861 0.17331
0.309408 0.17861 0.17331
0.309408 0.17861 0.17331
0.309408 0.17861 0.17331
0.309408 0.178178 0.17331
0.309408 0.178178 0.17331
0.309408 0.178178 0.17331
0.309408 0.178178 0.17331
0.309408 0.178178 0.17331
0.309408 0.178178 0.17331
0.309408 0.178178 0.17331
0.309408 0.178178 0.17331
0.309408 0.178178 0.17331
0.309408 0.178178 0.17331
0.309408 0.178178 0.17331
0.309408 0.178178 0.17331
0.308968 0.178178 0.17331
0.308968 0.178178 0.17331
0.308968 0.178178 0.17331
0.308968 0.178178 0.17331
0.308968 0.178178 0.17331
0.308961 0.178178 0.17331
0.308961 0.178178 0.17331
0.308961 0.178178 0.17331
0.308961 0.178178 0.17331
0.308961 0.178178 0.17331
0.308961 0.178178 0.17331
0.308961 0.178178 0.17331
0.308961 0.178178 0.17331
0.308961 0.178178 0.17331
0.308961 0.178178 0.17331
0.308961 0.178178 0.17331
0.308961 0.178178 0.17331
0.308961 0.178178 0.17331
0.308961 0.178178 0.17331
0.308961 0.178178 0.17331
0.308961 0.178178 0.17331
0.308961 0.178178 0.17331
0.308961 0.178178 0.17331
0.308961 0.178178 0.17331
0.308961 0.178178 0.17331
0.308961 0.178178 0.17331
0.308961 0.178178 0.17331
0.308961 0.178178 0.17331
0.308961 0.178178 0.17331
0.308961 0.178178 0.17331
0.308961 0.178178 0.17331
0.308961 0.178178 0.17331
0.308961 0.178178 0.17331
0.308961 0.178178 0.17331
0.308961 0.178178 0.17331
0.308961 0.178178 0.17331
0.308961 0.178178 0.17331
0.308961 0.178178 0.17331
0.308961 0.178178 0.17331
0.308961 0.17811 0.17331
0.308961 0.17811 0.17331
0.308961 0.17811 0.17331
0.308961 0.17811 0.17331
0.308961 0.17811 0.17331
0.308961 0.17811 0.17331
0.308961 0.17811 0.17331
0.308961 0.17811 0.17331
0.308961 0.17811 0.17331
0.308961 0.17811 0.17331
0.308961 0.17811 0.17331
0.308961 0.17811 0.17331
0.308961 0.17811 0.17331
0.308961 0.17811 0.17331
0.308961 0.17811 0.17331
0.308961 0.17811 0.17331
0.308961 0.17811 0.17331
0.308961 0.17811 0.17331
0.308961 0.17811 0.17331
0.308961 0.17811 0.17331
0.308961 0.17811 0.17331
0.308961 0.17811 0.17331
0.308961 0.17811 0.17331
0.308961 0.17811 0.17331
0.308961 0.17811 0.17331
0.308961 0.17811 0.17331
0.308961 0.17811 0.17331
0.308961 0.17811 0.17331
0.308961 0.17811 0.17331
0.308961 0.17811 0.17331
0.308961 0.17811 0.17331
0.308961 0.17811 0.17331
0.308961 0.17811 0.17331
0.308961 0.17811 0.17331
0.308961 0.17811 0.17331
0.308961 0.17811 0.17331
0.308961 0.17811 0.17331
0.308961 0.17811 0.17331
0.308961 0.17811 0.17331
0.308961 0.17811 0.17331
0.308961 0.17811 0.17331
0.308961 0.17811 0.17331
0.308961 0.17811 0.17331
0.308961 0.17811 0.17331
0.308961 0.17811 0.17331
0.308961 0.17811 0.17331
0.308961 0.17811 0.17331
0.308961 0.17811 0.17331
0.308961 0.17811 0.17331
0.308961 0.17811 0.17331
0.315784 0.17811 0.17331
0.321629 0.17811 0.17331
0.3265 0.17811 0.17331
0.330496 0.17811 0.17331
0.333754 0.17811 0.17331
0.336403 0.17811 0.17331
0.338596 0.17811 0.17331
0.340501 0.17811 0.17331
0.342279 0.17811 0.17331
0.344093 0.17811 0.17331
0.346102 0.17811 0.17331
0.348454 0.17811 0.17331
0.351281 0.17811 0.173922
0.354696 0.17811 0.176647
0.358789 0.17811 0.178785
0.363622 0.17811 0.18031
0.369218 0.17811 0.181213
0.375557 0.17811 0.181513
0.382576 0.17811 0.181349
0.390181 0.17811 0.180902
0.398244 0.183513 0.180222
0.406623 0.189233 0.179368
0.415156 0.195188 0.178406
0.42368 0.20128 0.177611
0.432039 0.207397 0.177611
0.44009 0.213428 0.177611
0.447704 0.219255 0.177611
0.45477 0.224773 0.177611
0.461187 0.229886 0.177611
0.466869 0.23452 0.177611
0.471749 0.238623 0.177611
0.475775 0.242167 0.177611
0.478923 0.245146 0.179528
0.481194 0.247576 0.183316
0.482623 0.249485 0.187335
0.483284 0.250802 0.191756
0.483276 0.251772 0.196448
0.482925 0.252389 0.201423
0.482289 0.252762 0.2065
0.481441 0.252954 0.211629
0.480323 0.253058 0.216689
0.478803 0.253327 0.22147
0.477511 0.253435 0.225922
0.476316 0.253641 0.229911
0.475032 0.253981 0.233384
0.473544 0.254552 0.236205
0.471875 0.255281 0.238347
0.470033 0.25616 0.239786
0.468027 0.257092 0.240531
0.465852 0.25794 0.240619
0.463514 0.258563 0.240283
0.461018 0.258823 0.239616
0.458366 0.258693 0.23866
0.455554 0.258231 0.237454
0.452564 0.257378 0.236036
0.44936 0.256092 0.234446
0.445888 0.254339 0.232716
0.442086 0.252107 0.230868
0.437902 0.249395 0.228917
0.433306 0.24621 0.226872
0.428297 0.242567 0.224737
0.422888 0.238491 0.222508
0.417099 0.234016 0.220174
0.410953 0.229185 0.217721
0.40448 0.224046 0.215129
0.39771 0.219748 0.212379
0.39771 0.219748 0.20945
0.39771 0.219748 0.20945
0.39771 0.219748 0.20945
0.39771 0.219748 0.20945
0.39771 0.219748 0.20945
0.39771 0.219748 0.20945
0.39771 0.219748 0.20945
0.39771 0.219748 0.20945
0.39771 0.219748 0.20945
0.39771 0.219748 0.20945
0.39771 0.219748 0.20945
0.39771 0.219748 0.20945
0.39771 0.219748 0.20945
0.39771 0.219748 0.20945
0.39771 0.219748 0.20945
0.39771 0.219748 0.20945
0.39771 0.219748 0.20945
0.39771 0.21909 0.20945
0.39771 0.218477 0.20945
0.39771 0.218477 0.20945
0.39771 0.218477 0.20945
0.396559 0.218477 0.20945
0.396152 0.218477 0.208944
0.396152 0.218477 0.208944
0.396152 0.218477 0.208944
0.396152 0.218477 0.208944
0.396152 0.218477 0.208944
0.396152 0.218467 0.208938
0.396152 0.218467 0.208938
0.396152 0.218467 0.208938
0.396152 0.218467 0.208938
0.396152 0.218467 0.208938
0.396152 0.218467 0.208938
0.396152 0.218467 0.208938
0.396152 0.218467 0.208938
0.396152 0.218467 0.208938
0.396152 0.218467 0.208938
0.396152 0.218467 0.208938
0.396152 0.218467 0.208938
0.396152 0.218467 0.208938
0.396152 0.218467 0.208938
0.396152 0.218467 0.208938
0.396152 0.218467 0.208938
0.396152 0.218467 0.208938
0.396152 0.218467 0.208938
0.396152 0.218467 0.208938
0.396152 0.218467 0.208938
0.396152 0.218467 0.208938
0.396152 0.218467 0.208938
0.396152 0.218467 0.208938
0.396152 0.218467 0.208938
0.396152 0.218467 0.208938
0.396152 0.218467 0.208938
0.396152 0.218467 0.208938
0.396152 0.218467 0.208938
0.396152 0.218467 0.208938
0.396152 0.218467 0.208938
0.396152 0.218467 0.208938
0.396152 0.218467 0.208938
0.396152 0.218467 0.208938
0.396152 0.218467 0.208938
0.396152 0.218467 0.208938
0.396152 0.218467 0.208938
0.396152 0.218467 0.208938
0.396152 0.218467 0.208938
0.396152 0.218467 0.208938
0.396152 0.218467 0.208938
0.396152 0.218467 0.208938
0.396152 0.218467 0.208938
0.396152 0.218467 0.208938
0.396152 0.218467 0.208938
0.396152 0.218467 0.208938
0.396152 0.218467 0.208938
0.396152 0.218467 0.208938
0.396152 0.218467 0.208938
0.396152 0.218467 0.208938
0.396152 0.218467 0.208938
0.396152 0.218467 0.208938
0.396152 0.218467 0.208938
0.396152 0.218467 0.208938
0.396152 0.218467 0.208938
0.396152 0.218467 0.208938
0.396152 0.218467 0.208938
0.396152 0.218467 0.208938
0.396152 0.218467 0.208938
0.404891 0.218467 0.208938
0.415745 0.218467 0.208938
0.426408 0.218467 0.208938
0.436755 0.218467 0.208938
0.446688 0.218467 0.208938
0.45606 0.218467 0.208938
0.464815 0.218467 0.208938
0.472859 0.218467 0.208938
0.480142 0.223813 0.208938
0.486626 0.232424 0.208938
0.4923 0.240648 0.208938
0.497187 0.248464 0.208938
0.501343 0.255852 0.217184
0.504843 0.262807 0.227609
0.507779 0.269332 0.238009
0.510247 0.275432 0.24821
0.512342 0.281118 0.258051
0.514152 0.286403 0.267383
0.51576 0.291302 0.276058
0.517245 0.295825 0.283926
0.518685 0.299977 0.290863
0.520203 0.303476 0.292988
0.521952 0.305736 0.293809
0.523635 0.308316 0.294404
0.525586 0.310542 0.294371
0.527612 0.312634 0.294172
0.5298 0.31424 0.294252
0.532091 0.315509 0.293969
0.53446 0.316288 0.293
0.536794 0.316564 0.291372
0.539006 0.316423 0.289295
0.540955 0.316026 0.286845
0.54237 0.31539 0.283953
0.54316 0.314481 0.280648
0.543251 0.313286 0.277073
0.542897 0.311784 0.273353
0.54215 0.309956 0.269517
0.541009 0.30778 0.265597
0.539477 0.305254 0.261677
0.537556 0.302381 0.257848
0.535244 0.299171 0.254153
0.532537 0.29565 0.252005
0.529428 0.291857 0.252005
0.525905 0.287839 0.252005
0.521954 0.283648 0.252005
0.517561 0.279342 0.252005
0.51273 0.274978 0.252005
0.507491 0.270604 0.252005
0.501901 0.267992 0.252005
0.496029 0.267992 0.252005
0.489953 0.267992 0.252005
0.483748 0.267992 0.252005
0.477485 0.267992 0.252005
0.471234 0.267992 0.252005
0.471234 0.267992 0.252005
0.471234 0.267992 0.252005
0.471234 0.267992 0.252005
0.471234 0.267992 0.252005
0.471234 0.267992 0.252005
0.471234 0.267992 0.252005
0.471234 0.267992 0.252005
0.471234 0.267992 0.252005
0.471234 0.267992 0.252005
0.471234 0.267992 0.252005
0.471234 0.267992 0.252005
0.471234 0.267992 0.252005
0.471234 0.267992 0.252005
0.471234 0.267992 0.252005
0.471234 0.267992 0.252005
0.471234 0.267992 0.252005
0.471234 0.267992 0.252005
0.471234 0.267992 0.252005
0.471234 0.267992 0.252005
0.471234 0.267992 0.252005
0.471234 0.267992 0.252005
0.471234 0.267992 0.252005
0.471234 0.267992 0.252005
0.471234 0.267992 0.252005
0.471234 0.267992 0.252005
0.471234 0.267992 0.252005
0.471234 0.267992 0.252005
0.471234 0.267992 0.252005
0.471234 0.267992 0.252005
0.471234 0.267992 0.252005
0.471234 0.267992 0.252005
0.471234 0.267992 0.252005
0.471234 0.267992 0.252005
0.471234 0.267992 0.252005
0.471234 0.267992 0.252005
0.471234 0.267992 0.252005
0.471234 0.267992 0.252005
0.471234 0.267992 0.252005
0.471234 0.267992 0.252005
0.471234 0.267992 0.252005
0.471234 0.267992 0.252005
0.471234 0.267992 0.252005
0.471234 0.267992 0.252005
0.471234 0.267992 0.252005
0.471234 0.267992 0.252005
0.471234 0.267992 0.252005
0.471234 0.267992 0.252005
0.471234 0.267992 0.252005
0.471234 0.267992 0.252005
0.471234 0.267992 0.252005
0.471234 0.267992 0.252005
0.471234 0.267992 0.252005
0.471234 0.267992 0.252005
0.471234 0.267992 0.252005
0.471234 0.267992 0.252005
0.471234 0.267992 0.252005
0.471234 0.267992 0.252005
0.471234 0.267992 0.252005
0.471234 0.267992 0.252005
0.471234 0.267992 0.252005
0.471234 0.267992 0.252005
0.471234 0.267992 0.252005
0.471234 0.267992 0.252005
0.471234 0.267992 0.252005
0.471234 0.267992 0.252005
0.471234 0.267992 0.252005
0.471234 0.267992 0.252005
0.471234 0.267992 0.252005
0.471234 0.267992 0.252005
0.471234 0.267992 0.252005
0.471234 0.267992 0.252005
0.471234 0.267992 0.252005
0.471234 0.267992 0.252005
0.471234 0.267992 0.252005
0.471234 0.267992 0.252005
0.471234 0.267992 0.252005
0.471234 0.267992 0.252005
0.471234 0.267992 0.252005
0.471234 0.267992 0.252005
0.471234 0.267992 0.252005
0.471234 0.267992 0.252005
0.471234 0.267992 0.252005
0.471234 0.267992 0.252005
0.471234 0.267992 0.252005
0.471234 0.267992 0.252005
0.471234 0.267992 0.252005
0.471234 0.267992 0.252005
0.471234 0.267992 0.252005
0.471234 0.267992 0.252005
0.471234 0.267992 0.252005
0.471234 0.267992 0.252005
0.471234 0.267992 0.252005
0.471234 0.267992 0.252005
0.471234 0.267992 0.252005
0.471234 0.267992 0.252005
0.471234 0.267992 0.252005
0.471234 0.267992 0.252005
0.471234 0.267992 0.252005
0.471234 0.267992 0.252005
0.471234 0.267992 0.252005
0.471234 0.267992 0.252005
0.471234 0.267992 0.252005
0.471234 0.267992 0.252005
0.471234 0.267992 0.252005
0.471234 0.267992 0.252005
0.471234 0.267992 0.252005
0.471234 0.267992 0.252005
0.471234 0.267992 0.252005
0.471234 0.267992 0.252005
0.471234 0.267992 0.252005
0.471234 0.267992 0.252005
0.471234 0.267992 0.252005
0.471234 0.267992 0.252005
0.471234 0.267992 0.252005
0.471234 0.267992 0.252005
0.471234 0.267992 0.252005
0.471234 0.267992 0.252005
0.471234 0.267992 0.252005
0.471234 0.267992 0.252005
0.471234 0.267992 0.252005
0.471234 0.267992 0.252005
0.471234 0.267992 0.252005
0.471234 0.267992 0.252005
0.471234 0.267992 0.252005
0.471234 0.267992 0.252005
0.471234 0.267992 0.252005
0.471234 0.267992 0.252005
0.471234 0.267992 0.252005
0.471234 0.267992 0.252005
0.471234 0.267992 0.252005
0.471234 0.267992 0.252005
0.471234 0.267992 0.252005
0.471234 0.267992 0.252005
0.471234 0.267992 0.252005
0.471234 0.267992 0.252005
0.471234 0.267992 0.252005
0.471234 0.267992 0.252005
0.471234 0.267992 0.252005
0.471234 0.267992 0.252005
0.471234 0.267992 0.252005
0.471234 0.267992 0.252005
0.471234 0.267992 0.252005
0.471234 0.267992 0.252005
0.471234 0.267992 0.252005
0.471234 0.267992 0.252005
0.471234 0.267992 0.252005
0.471234 0.267992 0.252005
0.471234 0.267992 0.252005
0.471234 0.267992 0.252005
0.471234 0.267992 0.252005
0.471234 0.267992 0.252005
0.471234 0.267992 0.252005
0.471234 0.267992 0.252005
0.471234 0.267992 0.252005
0.471234 0.267992 0.252005
0.471234 0.267992 0.252005
0.471234 0.267992 0.252005
0.471234 0.267992 0.252005
0.471234 0.267992 0.252005
0.471234 0.267992 0.252005
0.471234 0.267992 0.252005
0.471234 0.267992 0.252005
0.471234 0.267992 0.252005
0.471234 0.267992 0.252005
0.471234 0.267992 0.252005
0.471234 0.267992 0.252005
0.471234 0.267992 0.252005
0.471234 0.267992 0.252005
0.471234 0.267992 0.252005
0.471234 0.267992 0.252005
0.471234 0.267992 0.252005
0.471234 0.267992 0.252005
0.471234 0.267992 0.252005
0.471234 0.267992 0.252005
0.471234 0.267992 0.252005
0.471234 0.267992 0.252005
0.471234 0.267992 0.252005
0.471234 0.267992 0.252005
0.471234 0.267992 0.252005
0.471234 0.267992 0.252005
0.471234 0.267992 0.252005
0.471234 0.267992 0.252005
0.471234 0.267992 0.252005
0.471234 0.267992 0.252005
0.470165 0.267992 0.252005
0.470165 0.267992 0.252005
0.470165 0.267992 0.252005
0.470165 0.267992 0.252005
0.469724 0.267992 0.252005
0.469724 0.267992 0.252005
0.469724 0.267544 0.252005
0.469724 0.267544 0.252005
0.469724 0.267544 0.252005
0.469721 0.267544 0.252005
0.469721 0.267544 0.252005
0.469721 0.267544 0.252005
0.469721 0.267518 0.252005
0.469721 0.267518 0.252005
0.469721 0.267518 0.252005
0.469721 0.267518 0.252005
0.469721 0.267518 0.252005
0.469721 0.267518 0.252005
0.469721 0.267518 0.252005
0.469721 0.267518 0.252005
0.469721 0.267518 0.252005
0.469721 0.267518 0.251769
0.469721 0.267518 0.251769
0.469721 0.267518 0.251769
0.469721 0.267518 0.251768
0.469721 0.267518 0.251768
0.469721 0.267518 0.251768
0.469721 0.267518 0.251768
0.469721 0.267518 0.251768
0.469721 0.267518 0.251768
0.469721 0.267518 0.251768
0.469721 0.267518 0.251768
0.469721 0.267518 0.251768
0.469721 0.267518 0.251768
0.469721 0.267518 0.251768
0.469721 0.267518 0.251768
0.469721 0.267518 0.251768
0.469721 0.267518 0.251768
0.469721 0.267518 0.251768
0.469721 0.267518 0.251768
0.469721 0.267518 0.251768
0.469721 0.267518 0.251768
0.469721 0.267518 0.257721
0.469721 0.267518 0.264213
0.469721 0.267518 0.269678
0.469721 0.267518 0.274115
0.469721 0.267518 0.277431
0.469721 0.267518 0.279562
0.469721 0.267518 0.280565
0.469721 0.267518 0.280577
0.469721 0.267518 0.279956
0.476546 0.267518 0.278806
0.485252 0.267518 0.2772
0.494025 0.272081 0.275227
0.502729 0.276135 0.272976
0.511232 0.279603 0.270537
0.519408 0.282429 0.267997
0.527121 0.284579 0.266971
0.53424 0.286041 0.266971
0.540645 0.286824 0.266971
0.546243 0.28697 0.266971
0.550979 0.286736 0.266971
0.554849 0.286227 0.266971
0.557905 0.285476 0.266971
0.560241 0.28452 0.266971
0.561977 0.283403 0.266971
0.563246 0.282176 0.266971
0.564182 0.280896 0.266971
0.564911 0.279626 0.266971
0.56555 0.278432 0.266971
0.566209 0.277575 0.266971
0.566993 0.277575 0.266971
0.567996 0.277575 0.266971
0.569291 0.277575 0.266971
0.570927 0.277575 0.266971
0.572927 0.277575 0.266971
0.575289 0.277575 0.266971
0.577985 0.279576 0.266971
0.580936 0.282749 0.266971
0.583656 0.286718 0.266971
0.58606 0.291348 0.266971
0.588076 0.296509 0.266971
0.589656 0.302027 0.266971
0.590709 0.307703 0.266971
0.591141 0.313319 0.266971
0.59099 0.318687 0.266971
0.590405 0.323623 0.266971
0.589324 0.327965 0.266971
0.587674 0.331574 0.266971
0.585379 0.334344 0.270176
0.582375 0.336195 0.27593
0.578609 0.337065 0.282114
0.574047 0.337021 0.288606
0.568679 0.336425 0.295169
0.562541 0.335226 0.300566
0.555677 0.33347 0.305879
0.548168 0.331195 0.310911
0.54012 0.328426 0.315357
0.531642 0.325143 0.319182
0.531642 0.321378 0.322319
0.531642 0.317167 0.324563
0.531642 0.312554 0.325671
0.531642 0.307568 0.325605
0.531642 0.307568 0.32479
0.531642 0.307568 0.323044
0.531642 0.307568 0.320313
0.531642 0.307568 0.316627
0.531642 0.307568 0.311912
0.531642 0.307568 0.306263
0.531642 0.307568 0.299693
0.531642 0.307568 0.298276
0.531642 0.307568 0.298276
0.531642 0.307568 0.298276
0.531642 0.307568 0.298276
0.531642 0.307568 0.298276
0.531642 0.307568 0.298276
0.530738 0.307568 0.298276
0.530738 0.307568 0.298276
0.530738 0.307568 0.296795
0.530738 0.307568 0.296795
0.530738 0.307568 0.296795
0.530738 0.307568 0.296795
0.530738 0.307568 0.295621
0.530738 0.307568 0.295621
0.530738 0.307568 0.295621
0.530738 0.307568 0.295613
0.530738 0.307568 0.295609
0.530738 0.307568 0.295609
0.530738 0.307568 0.295609
0.530738 0.307568 0.295609
0.530738 0.307568 0.295609
0.530738 0.307568 0.295609
0.530738 0.307568 0.295609
0.530738 0.307568 0.295609
0.530738 0.307568 0.295609
0.530738 0.307568 0.295609
0.530738 0.307568 0.295609
0.530475 0.307568 0.295609
0.530475 0.307031 0.295609
0.530445 0.307031 0.295609
0.530445 0.307031 0.295609
0.530445 0.307026 0.295609
0.530432 0.307026 0.295609
0.53043 0.307026 0.295609
0.53043 0.307026 0.295609
0.53043 0.307026 0.295609
0.53043 0.307026 0.295609
0.53043 0.307026 0.295609
0.53043 0.307026 0.295609
0.53043 0.307026 0.295609
0.53043 0.307026 0.295607
0.53043 0.307026 0.295607
0.53043 0.307026 0.295607
0.53043 0.307026 0.295607
0.53043 0.307026 0.295607
0.53043 0.307026 0.295607
0.53043 0.307026 0.295607
0.53043 0.307026 0.295607
0.53043 0.307026 0.295607
0.53043 0.307026 0.295607
0.53043 0.307026 0.295607
0.53043 0.307026 0.295607
0.53043 0.307026 0.295607
0.53043 0.307026 0.295607
0.53043 0.307026 0.295607
0.53043 0.307026 0.295607
0.53043 0.307026 0.295607
0.53043 0.307026 0.295607
0.53043 0.307026 0.295607
0.53043 0.307026 0.295607
0.53043 0.307026 0.295607
0.53043 0.307026 0.295607
0.53043 0.307026 0.295607
0.53043 0.307026 0.295607
0.53043 0.307026 0.295607
0.53043 0.307026 0.295607
0.53043 0.307024 0.295607
0.53043 0.307024 0.295607
0.53043 0.307024 0.295607
0.53043 0.307024 0.295607
0.53043 0.307024 0.295607
0.53043 0.307024 0.295607
0.53043 0.307024 0.295607
0.53043 0.307024 0.295607
0.53043 0.307024 0.295607
0.53043 0.307024 0.295607
0.53043 0.307024 0.295607
0.53043 0.307024 0.295607
0.53043 0.307024 0.295607
0.53043 0.307024 0.295607
0.53043 0.307024 0.295607
0.53043 0.307024 0.295607
0.53043 0.307024 0.295607
0.53043 0.307024 0.295607
0.53043 0.307024 0.295607
0.53043 0.307024 0.295607
0.53043 0.307024 0.295607
0.53043 0.307024 0.295607
0.53043 0.307024 0.295607
0.53043 0.307024 0.295607
0.53043 0.307024 0.295607
0.53043 0.307024 0.295607
0.53043 0.307024 0.295607
0.53043 0.307024 0.295607
0.53043 0.307024 0.295607
0.53043 0.307024 0.295607
0.53043 0.307024 0.295607
0.53043 0.307024 0.295607
0.53043 0.307024 0.295607
0.53043 0.307024 0.295607
0.53043 0.307024 0.295607
0.53043 0.307024 0.303255
0.53043 0.307024 0.311873
0.53043 0.307024 0.31896
0.53043 0.307024 0.325177
0.53043 0.307024 0.330473
0.53043 0.307024 0.334769
0.53043 0.307024 0.337723
0.53043 0.307024 0.339452
0.53043 0.307024 0.340159
0.53043 0.307024 0.339863
0.539492 0.307024 0.338725
0.548904 0.307024 0.336832
0.558547 0.307024 0.334319
0.568272 0.307024 0.331272
0.57794 0.307024 0.327783
0.587399 0.307714 0.323966
0.596499 0.310828 0.319959
0.605097 0.313375 0.319145
0.613063 0.315343 0.319145
0.618903 0.316501 0.319145
0.624216 0.317299 0.319145
0.628964 0.317745 0.319145
0.63312 0.317856 0.319145
0.636671 0.317751 0.319145
0.639613 0.31748 0.319145
0.641944 0.317059 0.319145
0.643693 0.316498 0.319145
0.644894 0.315817 0.319145
0.645591 0.315042 0.319145
0.645841 0.314197 0.319145
0.645775 0.313311 0.319145
0.645547 0.312637 0.319145
0.645195 0.312637 0.319145
0.64476 0.312637 0.319145
0.644293 0.312637 0.319145
0.64385 0.312637 0.319145
0.643485 0.312637 0.319145
0.64325 0.312637 0.319145
0.643203 0.312637 0.319145
0.643555 0.312637 0.319145
0.644183 0.312637 0.319145
0.645464 0.312637 0.319145
0.647171 0.312637 0.319145
0.649584 0.312637 0.319145
0.652601 0.315227 0.319145
0.654897 0.31964 0.319145
0.658512 0.324337 0.319145
0.662665 0.329761 0.319145
0.667343 0.335038 0.319145
0.672414 0.340845 0.319145
0.678145 0.347011 0.319145
0.684202 0.353662 0.319145
0.690667 0.360591 0.319145
0.697359 0.367838 0.319145
0.704235 0.375333 0.319145
0.71121 0.382984 0.321652
0.718163 0.390751 0.324392
0.725006 0.398561 0.327425
0.731644 0.406362 0.330793
0.736276 0.414118 0.334595
0.742761 0.421689 0.338823
0.745203 0.429117 0.343438
0.746389 0.434788 0.34893
0.747277 0.441658 0.354328
0.748964 0.447932 0.359434
0.750417 0.453408 0.364583
0.75106 0.45855 0.368744
0.751558 0.463022 0.373156
0.752156 0.467381 0.377428
0.752576 0.471147 0.381672
0.752613 0.474262 0.386105
0.752501 0.476889 0.390776
0.752216 0.47906 0.395549
0.751675 0.48065 0.400245
0.750816 0.481731 0.404558
0.749692 0.482035 0.405081
0.748356 0.481559 0.405551
0.746691 0.481136 0.406132
0.744819 0.480466 0.406502
0.742736 0.479708 0.406473
0.740453 0.478851 0.406354
0.738011 0.477848 0.406359
0.735412 0.476785 0.406601
0.732672 0.475681 0.40688
0.729798 0.47456 0.406959
0.726798 0.473424 0.406895
0.723677 0.472265 0.406819
0.720438 0.471071 0.406498
0.717097 0.469762 0.405825
0.713649 0.468346 0.404707
0.710093 0.466798 0.403141
0.706426 0.465105 0.40113
0.702639 0.463245 0.398722
0.698728 0.461183 0.395975
0.694692 0.458889 0.392921
0.690537 0.456335 0.389579
0.686268 0.4535 0.385972
0.681891 0.450363 0.382142
0.677412 0.446903 0.37814
0.672841 0.443108 0.374007
0.668182 0.438976 0.369771
0.663438 0.434514 0.365449
0.658605 0.429738 0.364358
0.65368 0.424668 0.364358
0.648664 0.419334 0.364358
0.643564 0.413771 0.364358
0.643564 0.408018 0.364358
0.643564 0.402121 0.364358
0.643564 0.397629 0.364358
0.643564 0.397629 0.364358
0.643564 0.397629 0.364358
0.643564 0.397629 0.364358
0.643564 0.397629 0.364358
0.643564 0.397629 0.364358
0.643564 0.397629 0.364358
0.643564 0.397629 0.364358
0.643564 0.397629 0.364358
0.643564 0.397629 0.364358
0.643564 0.397629 0.364358
0.643564 0.397629 0.364358
0.643564 0.397629 0.364358
0.643564 0.397629 0.364358
0.643564 0.397629 0.364358
0.643564 0.397629 0.364358
0.643564 0.397629 0.364358
0.643564 0.397629 0.364358
0.643564 0.397629 0.363499
0.643564 0.397629 0.362244
0.643564 0.397629 0.362244
0.643564 0.397629 0.362244
0.643564 0.397629 0.362244
0.643564 0.397629 0.361973
0.643564 0.397629 0.361973
0.643564 0.397629 0.361973
0.643564 0.397629 0.361973
0.643564 0.397629 0.361973
0.643564 0.397629 0.361973
0.643564 0.397629 0.361973
0.643564 0.397629 0.361973
0.643564 0.397629 0.361973
0.643564 0.397629 0.361973
0.643564 0.397629 0.361973
0.643564 0.397629 0.361973
0.643564 0.397629 0.361973
0.643564 0.397629 0.361973
0.643564 0.397629 0.361973
0.643564 0.397629 0.361973
0.643564 0.397629 0.361973
0.643564 0.397629 0.361973
0.643564 0.397629 0.361973
0.643564 0.397629 0.361973
0.643564 0.397629 0.361973
0.643564 0.397629 0.361973
0.643564 0.397629 0.361973
0.643564 0.397629 0.361973
0.643564 0.397629 0.361973
0.643564 0.397629 0.361973
0.643564 0.397629 0.361973
0.643564 0.397629 0.361973
0.643564 0.397629 0.361973
0.643564 0.397629 0.361973
0.643129 0.397629 0.361973
0.643129 0.397629 0.361973
0.643129 0.397629 0.361973
0.643129 0.397629 0.361973
0.643129 0.397629 0.361973
0.643129 0.397629 0.361973
0.643129 0.397629 0.361973
0.643129 0.397629 0.361973
0.642859 0.397629 0.361973
0.642859 0.397629 0.361973
0.642859 0.397629 0.361973
0.642859 0.397629 0.361973
0.642859 0.397629 0.361973
0.642859 0.397629 0.361973
0.642859 0.397629 0.361973
0.642859 0.397629 0.361973
0.642859 0.397629 0.361973
0.642859 0.397629 0.361973
0.642859 0.397629 0.361973
0.642859 0.397629 0.361973
0.642859 0.397629 0.361973
0.642859 0.397629 0.361973
0.642859 0.397629 0.361973
0.642859 0.397629 0.361973
0.642859 0.397629 0.361973
0.642859 0.397629 0.361973
0.642859 0.397629 0.361973
0.642859 0.397629 0.361973
0.642859 0.397629 0.361973
0.642859 0.397629 0.361973
0.642859 0.397629 0.361973
0.642859 0.397629 0.361973
0.642859 0.397629 0.361973
0.642859 0.397629 0.361973
0.642859 0.397629 0.361973
0.642859 0.397629 0.361973
0.642859 0.397629 0.361973
0.642859 0.397629 0.361973
0.642859 0.397629 0.361973
0.642859 0.397629 0.361973
0.642859 0.397629 0.361973
0.642859 0.397629 0.361973
0.642859 0.397153 0.361973
0.642859 0.397153 0.361973
0.642859 0.397153 0.361973
0.642859 0.397153 0.361973
0.642859 0.397153 0.361973
0.642859 0.397153 0.361973
0.642859 0.397153 0.361973
0.642859 0.397153 0.361973
0.642859 0.397153 0.361973
0.642859 0.397153 0.361973
0.642859 0.397153 0.361973
0.642859 0.397153 0.361973
0.642859 0.397153 0.361973
0.642859 0.397153 0.361973
0.642859 0.397153 0.361973
0.642859 0.397153 0.361973
0.642859 0.397153 0.361973
0.642859 0.397153 0.361973
0.642859 0.397153 0.361973
0.642859 0.397153 0.361973
0.642859 0.397153 0.361973
0.642859 0.397153 0.361973
0.642859 0.397153 0.361973
0.642859 0.397153 0.361973
0.642859 0.397153 0.361973
0.642859 0.397153 0.361973
0.642859 0.397153 0.361973
0.642859 0.397153 0.361973
0.642859 0.397153 0.361973
0.642859 0.397153 0.361973
0.642859 0.397153 0.361973
0.642859 0.397153 0.361973
0.642859 0.397153 0.361973
0.642859 0.397153 0.361973
0.642859 0.397153 0.361973
0.642859 0.397153 0.361973
0.642859 0.397153 0.361973
0.642859 0.397153 0.361973
0.642859 0.397153 0.361973
0.642859 0.397153 0.366382
0.642859 0.397153 0.370494
0.642859 0.397153 0.374264
0.642859 0.397153 0.377683
0.642859 0.397153 0.380442
0.642859 0.397153 0.382571
0.642859 0.397153 0.384184
0.642859 0.397153 0.385379
0.642859 0.397153 0.386138
0.642859 0.397153 0.386362
0.642859 0.397153 0.385986
0.642859 0.397153 0.385171
0.642859 0.397153 0.383967
0.642859 0.397153 0.382419
0.642859 0.397153 0.380524
0.642859 0.397153 0.378289
0.642859 0.397153 0.375762
0.642859 0.397153 0.375093
0.642859 0.397153 0.375093
0.642859 0.397153 0.375093
0.642859 0.397153 0.375093
0.642859 0.397153 0.375093
0.642859 0.397153 0.375093
0.642859 0.397153 0.375093
0.642859 0.397153 0.375093
0.642859 0.397153 0.375093
0.642859 0.397153 0.375093
0.642859 0.397153 0.375093
0.642859 0.397153 0.375093
0.642859 0.397153 0.375093
0.642859 0.397153 0.375093
0.642859 0.397153 0.375093
0.642859 0.397153 0.375093
0.642859 0.397153 0.375093
0.642859 0.397153 0.375093
0.642859 0.397153 0.375093
0.642859 0.397153 0.375093
0.642859 0.397153 0.375093
0.642859 0.397153 0.375093
0.642859 0.397153 0.375093
0.642859 0.397153 0.375093
0.642859 0.397153 0.375093
0.642859 0.397153 0.375093
0.642859 0.397153 0.375093
0.642859 0.397153 0.375093
0.642859 0.397153 0.375093
0.642859 0.397153 0.375093
0.644676 0.397153 0.375093
0.648576 0.397153 0.375093
0.652803 0.397153 0.375093
0.65731 0.397153 0.375093
0.66205 0.397153 0.375093
0.666967 0.397153 0.375093
0.672009 0.397153 0.375093
0.67712 0.397153 0.375093
0.682238 0.397153 0.375093
0.687305 0.397153 0.375093
0.692263 0.397153 0.375093
0.697037 0.397153 0.375093
0.701384 0.397153 0.375093
0.705678 0.397153 0.375093
0.709611 0.397153 0.375093
0.713278 0.397153 0.375093
0.716491 0.403508 0.375093
0.719389 0.409663 0.375093
0.72181 0.415736 0.375093
0.723835 0.421536 0.375093
0.725429 0.427071 0.375093
0.726609 0.432348 0.375093
0.727389 0.437367 0.375093
0.727786 0.442121 0.375093
0.727839 0.446575 0.375093
0.727666 0.450721 0.381971
0.727326 0.454541 0.388836
0.726837 0.45807 0.39558
0.72622 0.4613 0.402083
0.725487 0.464227 0.408274
0.724588 0.46689 0.414119
0.723555 0.469297 0.419591
0.722409 0.471437 0.42464
0.721169 0.473316 0.429186
0.719855 0.474926 0.43317
0.718491 0.476256 0.436559
0.717101 0.477286 0.439342
0.715711 0.477997 0.441507
0.714338 0.47837 0.443027
0.712995 0.478389 0.443879
0.711682 0.478188 0.44404
0.710398 0.477761 0.443604
0.709136 0.477079 0.442681
0.707878 0.476148 0.441282
0.706611 0.474955 0.439419
0.705322 0.473503 0.437092
0.703998 0.471787 0.434324
0.702628 0.469802 0.431152
0.701202 0.467544 0.427621
0.699709 0.465016 0.423767
0.698138 0.462223 0.419618
0.696481 0.459173 0.415205
0.694727 0.455875 0.41057
0.69287 0.45234 0.41057
0.690903 0.448585 0.41057
0.688826 0.44463 0.41057
0.686636 0.440495 0.41057
0.685501 0.439436 0.41057
0.685501 0.439436 0.41057
0.685501 0.439436 0.41057
0.685501 0.439436 0.41057
0.685501 0.439436 0.41057
0.685501 0.439436 0.41057
0.685501 0.439436 0.41057
0.685501 0.439436 0.41057
0.685501 0.439436 0.41057
0.685501 0.439436 0.41057
0.685501 0.439436 0.41057
0.685501 0.439436 0.41057
0.685501 0.439436 0.41057
0.685501 0.439436 0.41057
0.685501 0.439436 0.41057
0.685501 0.439436 0.41057
0.685501 0.439436 0.41057
0.685501 0.439436 0.41057
0.685501 0.439436 0.41057
0.685501 0.439436 0.41057
0.685501 0.439436 0.40939
0.685501 0.439436 0.408835
0.685501 0.439436 0.408835
0.685501 0.439436 0.40866
0.685501 0.439436 0.40866
0.685501 0.439436 0.40866
0.685501 0.439436 0.40866
0.685501 0.439436 0.40866
0.685501 0.439436 0.408659
0.685501 0.439436 0.408659
0.685501 0.439436 0.408659
0.685501 0.439436 0.408659
0.685501 0.439436 0.408659
0.685501 0.439436 0.408659
0.685501 0.439436 0.408659
0.685501 0.439436 0.408659
0.685501 0.439436 0.408659
0.685501 0.439436 0.408659
0.685501 0.439436 0.408659
0.685501 0.439436 0.408659
0.685501 0.439436 0.408659
0.685501 0.439436 0.408659
0.685501 0.439436 0.408659
0.685501 0.439436 0.408659
0.685501 0.439436 0.408659
0.685501 0.439436 0.408659
0.685501 0.439436 0.408659
0.685501 0.439436 0.408659
0.685501 0.439436 0.408659
0.685501 0.439436 0.408659
0.685501 0.439436 0.408659
0.685501 0.439436 0.408659
0.685501 0.439436 0.408659
0.685501 0.439436 0.408659
0.685501 0.439436 0.408659
0.685501 0.439436 0.408659
0.685501 0.439436 0.408659
0.685501 0.439436 0.408659
0.685501 0.439436 0.409112
0.685501 0.439436 0.410598
0.685501 0.439436 0.411611
0.685501 0.439436 0.412206
0.685501 0.439436 0.412352
0.685501 0.439436 0.412069
0.685501 0.439436 0.411433
0.685501 0.439436 0.410736
0.685501 0.439436 0.410736
0.685501 0.439436 0.410736
0.685501 0.439436 0.410736
0.685501 0.439436 0.410736
0.685501 0.439436 0.410736
0.685501 0.439436 0.410736
0.685501 0.439436 0.410736
0.685501 0.439436 0.410736
0.685501 0.439436 0.410736
0.685501 0.439436 0.410736
0.685501 0.439436 0.410736
0.685501 0.439436 0.410736
0.685501 0.439436 0.410736
0.685501 0.439436 0.410736
0.685501 0.439436 0.410736
0.685501 0.439436 0.410736
0.685501 0.439436 0.410736
0.685501 0.439436 0.410736
0.685501 0.439436 0.410736
0.685501 0.439436 0.410736
0.685501 0.439436 0.410736
0.685501 0.439436 0.410736
0.685501 0.439436 0.410736
0.685501 0.439436 0.410736
0.685501 0.439436 0.410736
0.685501 0.439436 0.410736
0.685501 0.439436 0.410736
0.685501 0.439436 0.410736
0.685501 0.439436 0.410736
0.685501 0.439436 0.410736
0.685501 0.439436 0.410736
0.685501 0.439436 0.410736
0.685501 0.439436 0.410736
0.685501 0.439436 0.410736
0.685501 0.439436 0.410736
0.685501 0.439436 0.410736
0.685501 0.439436 0.410736
0.685501 0.439436 0.410736
0.685501 0.439436 0.410736
0.685501 0.439436 0.410736
0.685501 0.439436 0.410736
0.685501 0.439436 0.410736
0.685501 0.439436 0.410736
0.685501 0.439436 0.410736
0.685501 0.439436 0.410736
0.685501 0.439436 0.410736
0.685501 0.439436 0.410736
0.685501 0.439436 0.410736
0.685501 0.439436 0.410736
0.685501 0.439436 0.410736
0.685501 0.439436 0.410736
0.685501 0.439436 0.410736
0.685501 0.439436 0.410736
0.685501 0.439436 0.410736
0.685501 0.439436 0.410736
0.685501 0.439436 0.410736
0.685501 0.439436 0.410736
0.685501 0.439436 0.410736
0.685501 0.439436 0.410736
0.685501 0.439436 0.410736
0.685501 0.439436 0.410736
0.685501 0.439436 0.410736
0.685501 0.439436 0.410736
0.685501 0.439436 0.410736
0.685501 0.439436 0.410736
0.685501 0.439436 0.410736
0.685501 0.439436 0.410736
0.685501 0.439436 0.410736
0.685501 0.439436 0.410736
0.685501 0.439436 0.410736
0.685501 0.439436 0.410736
0.685501 0.439436 0.410736
0.685501 0.439436 0.410736
0.685501 0.439436 0.410736
0.685501 0.439436 0.410736
0.685501 0.439436 0.410736
0.685501 0.439436 0.410736
0.685501 0.439436 0.410736
0.685501 0.439436 0.410736
0.685501 0.439436 0.410736
0.685501 0.439436 0.410736
0.685501 0.439436 0.410736
0.685501 0.439436 0.410736
0.685501 0.439436 0.410736
0.685501 0.439436 0.410736
0.685501 0.439436 0.410736
0.685501 0.439436 0.410736
0.685501 0.439436 0.410736
0.685501 0.439436 0.410736
0.685501 0.439436 0.410736
0.685501 0.439436 0.410736
0.685501 0.439436 0.410736
0.685501 0.439436 0.410736
0.685501 0.439436 0.410736
0.685501 0.439436 0.410736
0.685501 0.439436 0.410736
0.685501 0.439436 0.410736
0.685501 0.439436 0.410736
0.685501 0.439436 0.410736
0.685501 0.439436 0.410736
0.685501 0.439436 0.410736
0.685501 0.439436 0.410736
0.685501 0.439436 0.410736
0.685501 0.439436 0.410736
0.685501 0.439436 0.410736
0.685501 0.439436 0.410736
0.685501 0.439436 0.410736
0.685501 0.439436 0.410736
0.685501 0.439436 0.410736
0.685501 0.439436 0.410736
0.685501 0.439436 0.410736
0.685501 0.439436 0.410736
0.685501 0.439436 0.410736
0.685501 0.439436 0.410736
0.685501 0.439436 0.410736
0.685501 0.439436 0.410736
0.685501 0.439436 0.410736
0.685501 0.439436 0.410736
0.685501 0.439436 0.410736
0.685501 0.439436 0.410736
0.685501 0.439436 0.410736
0.685501 0.439436 0.410736
0.685501 0.439436 0.410736
0.685501 0.439436 0.410736
0.685501 0.439436 0.410736
0.685501 0.439436 0.410736
0.685501 0.439436 0.410736
0.685501 0.439436 0.410736
0.685501 0.439436 0.410736
0.685501 0.439436 0.410736
0.685501 0.439436 0.410736
0.685501 0.439436 0.410736
0.685501 0.439436 0.410736
0.685501 0.439436 0.410736
0.685501 0.439436 0.410736
0.685501 0.439436 0.410736
0.685501 0.439436 0.410736
0.685501 0.439436 0.410736
0.685501 0.439436 0.410736
0.685501 0.439436 0.410736
0.685501 0.439436 0.410736
0.685501 0.439436 0.410736
0.685501 0.439436 0.410736
0.685501 0.439436 0.410736
0.685501 0.439436 0.410736
0.685501 0.439436 0.410736
0.685501 0.439436 0.410736
0.685501 0.439436 0.410736
0.685501 0.439436 0.410736
0.685501 0.439436 0.410736
0.685501 0.439436 0.410736
0.685501 0.439436 0.410736
0.685501 0.439436 0.410736
0.685501 0.439436 0.410736
0.685501 0.439436 0.410736
0.685501 0.439436 0.410736
0.685501 0.439436 0.410736
0.685501 0.439436 0.410736
0.685501 0.439436 0.410736
0.685501 0.439436 0.410736
0.685501 0.439436 0.410736
0.685501 0.439436 0.410736
0.685501 0.439436 0.410736
0.685501 0.439436 0.410736
0.685501 0.439436 0.410736
0.685501 0.439436 0.410736
0.685501 0.439436 0.410736
0.685501 0.439436 0.410736
0.685501 0.439436 0.410736
0.685501 0.439436 0.410736
0.685501 0.439436 0.410736
0.685501 0.439436 0.410736
0.685501 0.439436 0.410736
0.685501 0.439436 0.410736
0.685501 0.439436 0.410736
0.685501 0.439436 0.410736
0.685501 0.439436 0.410736
0.685501 0.439436 0.410736
0.685501 0.439436 0.410736
0.685501 0.439436 0.410736
0.685501 0.439436 0.410736
0.685501 0.439436 0.410736
0.685501 0.439436 0.410736
0.685501 0.439436 0.410736
0.685501 0.439436 0.410736
0.685501 0.439436 0.410736
0.685501 0.439436 0.410736
0.685501 0.439436 0.410736
0.685501 0.439436 0.410736
0.685501 0.439436 0.410736
0.685501 0.439436 0.410736
0.685501 0.439436 0.410736
0.685501 0.439436 0.410736
0.685501 0.439436 0.410736
0.685501 0.439436 0.410736
0.685501 0.439436 0.410736
0.685501 0.439436 0.410736
0.685501 0.439436 0.410736
0.685501 0.439436 0.410736
0.685501 0.439436 0.410736
0.685501 0.439436 0.410736
0.685501 0.439436 0.410736
0.685501 0.439436 0.410736
0.685501 0.439436 0.410736
0.685501 0.439436 0.410736
0.685501 0.439436 0.410736
0.685501 0.439436 0.410736
0.685501 0.439436 0.410736
0.685501 0.439436 0.410736
0.685501 0.439436 0.410736
0.685501 0.439436 0.410736
0.685501 0.439436 0.410736
0.685501 0.439436 0.410736
0.685501 0.439436 0.410736
0.685501 0.439436 0.410736
0.685501 0.439436 0.410736
0.685501 0.439436 0.410736
0.685501 0.439436 0.410736
0.685501 0.439436 0.410736
0.685501 0.439436 0.410736
0.685501 0.439436 0.410736
0.685501 0.439436 0.410736
0.685501 0.439436 0.410736
0.685501 0.439436 0.410736
0.685501 0.439436 0.410736
0.685501 0.439436 0.410736
0.685501 0.439436 0.410736
0.685501 0.439436 0.410736
0.685501 0.439436 0.410736
0.685501 0.439436 0.410736
0.685501 0.439436 0.410736
0.685501 0.439436 0.410736
0.685501 0.439436 0.410736
0.685501 0.439436 0.410736
0.685501 0.439436 0.410736
0.685501 0.439436 0.410736
0.685501 0.439436 0.410736
0.685501 0.439436 0.410736
0.685501 0.439436 0.410736
0.685501 0.439436 0.410736
0.685501 0.439436 0.410736
0.685501 0.439436 0.410736
0.685501 0.439436 0.410736
0.685501 0.439436 0.410736
0.685501 0.439436 0.410736
0.685501 0.439436 0.410736
0.685501 0.439436 0.410736
0.685501 0.439436 0.410736
0.685501 0.439436 0.410736
0.685501 0.439436 0.410736
0.685501 0.439436 0.410736
0.685501 0.439436 0.410736
0.685501 0.439436 0.410736
0.685501 0.439436 0.410736
0.685501 0.439436 0.410736
0.685501 0.439436 0.410736
0.685501 0.439436 0.410736
0.685501 0.439436 0.410736
0.685501 0.439436 0.410736
0.685501 0.439436 0.410736
0.685501 0.439436 0.410736
0.685501 0.439436 0.410736
0.685501 0.439436 0.410736
0.685501 0.439436 0.410736
0.685501 0.439436 0.410736
0.685501 0.439436 0.410736
0.685501 0.439436 0.410736
0.685501 0.439436 0.410736
0.685501 0.439436 0.410736
0.685501 0.439436 0.410736
0.685501 0.439436 0.410736
0.685501 0.439436 0.410736
0.685501 0.439436 0.410736
0.685501 0.439436 0.410736
0.685501 0.439436 0.410736
0.685501 0.439436 0.410736
0.685501 0.439436 0.410736
0.685501 0.439436 0.410736
0.685501 0.439436 0.410736
0.685501 0.439436 0.410736
0.685501 0.439436 0.410736
0.685501 0.439436 0.410736
0.685501 0.439436 0.410736
0.685501 0.439436 0.410736
0.685501 0.439436 0.410736
0.685501 0.439436 0.410736
0.685501 0.439436 0.410736
0.685501 0.439436 0.410736
0.685501 0.439436 0.410736
0.685501 0.439436 0.410736
0.685501 0.439436 0.410736
0.685501 0.439436 0.410736
0.685501 0.439436 0.410736
0.685501 0.439436 0.410736
0.685501 0.439436 0.410736
0.685501 0.439436 0.410736
0.685501 0.439436 0.410736
0.685501 0.439436 0.410736
0.685501 0.439436 0.410736
0.685501 0.439436 0.410736
0.685501 0.439436 0.410736
0.685501 0.439436 0.410736
0.685501 0.439436 0.410736
0.685501 0.439436 0.410736
0.685501 0.439436 0.410736
0.685501 0.439436 0.410736
0.685501 0.439436 0.410736
0.685501 0.439436 0.410736
0.685501 0.439436 0.410736
0.685501 0.439436 0.410736
0.685501 0.439436 0.410736
0.685501 0.439436 0.410736
0.685501 0.439436 0.410736
0.685501 0.439436 0.410736
0.685501 0.439436 0.410736
0.685501 0.439436 0.410736
0.685501 0.439436 0.410736
0.685501 0.439436 0.410736
0.685501 0.439436 0.410736
0.685501 0.439436 0.410736
0.685501 0.439436 0.410736
0.685501 0.439436 0.410736
0.685501 0.439436 0.410736
0.685501 0.439436 0.410736
0.685501 0.439436 0.410736
0.685501 0.439436 0.410736
0.685501 0.439436 0.410736
0.685501 0.439436 0.410736
0.685501 0.439436 0.410736
0.685501 0.439436 0.410736
0.685501 0.439436 0.410736
0.685501 0.439436 0.410736
0.685501 0.439436 0.410736
0.685501 0.439436 0.410736
0.685501 0.439436 0.410736
0.685501 0.439436 0.410736
0.685501 0.439436 0.410736
0.685501 0.439436 0.410736
0.685501 0.439436 0.410736
0.685501 0.439436 0.410736
0.685501 0.439436 0.410736
0.685501 0.439436 0.410736
0.685501 0.439436 0.410736
0.685501 0.439436 0.410736
0.685501 0.439436 0.410736
0.685501 0.439436 0.410736
0.685501 0.439436 0.410736
0.685501 0.439436 0.410736
0.685501 0.439436 0.410736
0.685501 0.439436 0.410736
0.685501 0.439436 0.410736
0.685501 0.439436 0.410736
0.685501 0.439436 0.410736
0.685501 0.439436 0.410736
0.685501 0.439436 0.410736
0.685501 0.439436 0.410736
0.685501 0.439436 0.410736
0.685501 0.439436 0.410736
0.685501 0.439436 0.410736
0.685501 0.439436 0.410736
0.685501 0.439436 0.410736
0.685501 0.439436 0.410736
0.685501 0.439436 0.410736
0.685501 0.439436 0.410736
0.685501 0.439436 0.410736
0.685501 0.439436 0.410736
0.685501 0.439436 0.410736
0.685501 0.439436 0.410736
0.685501 0.439436 0.410736
0.685501 0.439436 0.410736
0.685501 0.439436 0.410736
0.685501 0.439436 0.410736
0.685501 0.439436 0.410736
0.685501 0.439436 0.410736
0.685501 0.439436 0.410736
0.685501 0.439436 0.410736
0.685501 0.439436 0.410736
0.685501 0.439436 0.410736
0.685501 0.439436 0.410736
0.685501 0.439436 0.410736
0.685501 0.439436 0.410736
0.685501 0.439436 0.410736
0.685501 0.439436 0.410736
0.685501 0.439436 0.410736
0.685501 0.439436 0.410736
0.685501 0.439436 0.410736
0.685501 0.439436 0.410736
0.685501 0.439436 0.410736
0.685501 0.439436 0.410736
0.685501 0.439436 0.410736
0.685501 0.439436 0.410736
0.685501 0.439436 0.410736
0.685501 0.439436 0.410736
0.685501 0.439436 0.410736
0.685501 0.439436 0.410736
0.685501 0.439436 0.410736
0.685501 0.439436 0.410736
0.685501 0.439436 0.410736
0.685501 0.439436 0.410736
0.685501 0.439436 0.410736
0.685501 0.439436 0.410736
0.685501 0.439436 0.410736
0.685501 0.439436 0.410736
0.685501 0.439436 0.410736
0.685501 0.439436 0.410736
0.685501 0.439436 0.410736
0.685501 0.439436 0.410736
0.685501 0.439436 0.410736
0.685501 0.439436 0.410736
0.685501 0.439436 0.410736
0.685501 0.439436 0.410736
0.685501 0.439436 0.410736
0.685501 0.439436 0.410736
0.685501 0.439436 0.410736
0.685501 0.439436 0.410736
0.685501 0.439436 0.410736
0.685501 0.439436 0.410736
0.685501 0.439436 0.410736
0.685501 0.439436 0.410736
0.685501 0.439436 0.410736
0.685501 0.439436 0.410736
0.685501 0.439436 0.410736
0.685501 0.439436 0.410736
0.685501 0.439436 0.410736
0.685501 0.439436 0.410736
0.685501 0.439436 0.410736
0.685501 0.439436 0.410736
0.685501 0.439436 0.410736
0.685501 0.439436 0.410736
0.685501 0.439436 0.410736
0.685501 0.439436 0.410736
0.685501 0.439436 0.410736
0.685501 0.439436 0.410736
0.685501 0.439436 0.410736
0.685501 0.439436 0.410736
0.685501 0.439436 0.410736
0.685501 0.439436 0.410736
0.685501 0.439436 0.410736
0.685501 0.439436 0.410736
0.685501 0.439436 0.410736
0.685501 0.439436 0.410736
0.685501 0.439436 0.410736
0.685501 0.439436 0.410736
0.685501 0.439436 0.410736
0.685501 0.439436 0.410736
0.685501 0.439436 0.410736
0.685501 0.439436 0.410736
0.685501 0.439436 0.410736
0.685501 0.439436 0.410736
0.685501 0.439436 0.410736
0.685501 0.439436 0.410736
0.685501 0.439436 0.410736
0.685501 0.439436 0.410736
0.685501 0.439436 0.410736
0.685501 0.439436 0.410736
0.685501 0.439436 0.410736
0.685501 0.439436 0.410736
0.685501 0.439436 0.410736
0.685501 0.439436 0.410736
0.685501 0.439436 0.410736
0.685501 0.439436 0.410736
0.685501 0.439436 0.410736
0.685501 0.439436 0.410736
0.685501 0.439436 0.410736
0.685501 0.439436 0.410736
0.685501 0.439436 0.410736
0.685501 0.439436 0.410736
0.685501 0.439436 0.410736
0.685501 0.439436 0.410736
0.685501 0.439436 0.410736
0.685501 0.439436 0.410736
0.685501 0.439436 0.410736
0.685501 0.439436 0.410736
0.685501 0.439436 0.410736
0.685501 0.439436 0.410736
0.685501 0.439436 0.410736
0.685501 0.439436 0.410736
0.685501 0.439436 0.410736
0.685501 0.439436 0.410736
0.685501 0.439436 0.410736
0.685501 0.439436 0.410736
0.685501 0.439436 0.410736
0.685501 0.439436 0.410736
0.685501 0.439436 0.410736
0.685501 0.439436 0.410736
0.685501 0.439436 0.410736
0.685501 0.439436 0.410736
0.685501 0.439436 0.410736
0.685501 0.439436 0.410736
0.685501 0.439436 0.410736
0.685501 0.439436 0.410736
0.685501 0.439436 0.410736
0.685501 0.439436 0.410736
0.685501 0.439436 0.410736
0.685501 0.439436 0.410736
0.685501 0.439436 0.410736
0.685501 0.439436 0.410736
0.685501 0.439436 0.410736
0.685501 0.439436 0.410736
0.685501 0.439436 0.410736
0.685501 0.439436 0.410736
0.685501 0.439436 0.410736
0.685501 0.439436 0.410736
0.685501 0.439436 0.410736
0.685501 0.439436 0.410736
0.685501 0.439436 0.410736
0.685501 0.439436 0.410736
0.685501 0.439436 0.410736
0.685501 0.439436 0.410736
0.685501 0.439436 0.410736
0.685501 0.439436 0.410736
0.685501 0.439436 0.410736
0.685501 0.439436 0.410736
0.685501 0.439436 0.410736
0.685501 0.439436 0.410736
0.685501 0.439436 0.410736
0.685501 0.439436 0.410736
0.685501 0.439436 0.410736
0.685501 0.439436 0.410736
0.685501 0.439436 0.410736
0.685501 0.439436 0.410736
0.685501 0.439436 0.410736
0.685501 0.439436 0.410736
0.685501 0.439436 0.410736
0.685501 0.439436 0.410736
0.685501 0.439436 0.410736
0.685501 0.439436 0.410736
0.685501 0.439436 0.410736
0.685501 0.439436 0.410736
0.685501 0.439436 0.410736
0.685501 0.439436 0.410736
0.685501 0.439436 0.410736
0.685501 0.439436 0.410736
0.685501 0.439436 0.410736
0.685501 0.439436 0.410736
0.685501 0.439436 0.410736
0.685501 0.439436 0.410736
0.685501 0.439436 0.410736
0.685501 0.439436 0.410736
0.685501 0.439436 0.410736
0.685501 0.439436 0.410736
0.685501 0.439436 0.410736
0.685501 0.439436 0.410736
0.685501 0.439436 0.410736
0.685501 0.439436 0.410736
0.685501 0.439436 0.410736
0.685501 0.439436 0.410736
0.685501 0.439436 0.410736
0.685501 0.439436 0.410736
0.685501 0.439436 0.410736
0.685501 0.439436 0.410736
0.685501 0.439436 0.410736
0.685501 0.439436 0.410736
0.685501 0.439436 0.410736
0.685501 0.439436 0.410736
0.685501 0.439436 0.410736
0.685501 0.439436 0.410736
0.685501 0.439436 0.410736
0.685501 0.439436 0.410736
0.685501 0.439436 0.410736
0.685501 0.439436 0.410736
0.685501 0.439436 0.410736
0.685501 0.439436 0.410736
0.685501 0.439436 0.410736
0.685501 0.439436 0.410736
0.685501 0.439436 0.410736
0.685501 0.439436 0.410736
0.685501 0.439436 0.410736
0.685501 0.439436 0.410736
0.685501 0.439436 0.410736
0.685501 0.439436 0.410736
0.685501 0.439436 0.410736
0.685501 0.439436 0.410736
0.685501 0.439436 0.410736
0.685501 0.439436 0.410736
0.685501 0.439436 0.410736
0.685501 0.439436 0.410736
0.685501 0.439436 0.410736
0.685501 0.439436 0.410736
0.685501 0.439436 0.410736
0.685501 0.439436 0.410736
0.685501 0.439436 0.410736
0.685501 0.439436 0.410736
0.685501 0.439436 0.410736
0.685501 0.439436 0.410736
0.685501 0.439436 0.410736
0.685501 0.439436 0.410736
0.685501 0.439436 0.410736
0.685501 0.439436 0.410736
0.685501 0.439436 0.410736
0.685501 0.439436 0.410736
0.685501 0.439436 0.410736
0.685501 0.439436 0.410736
0.685501 0.439436 0.410736
0.685501 0.439436 0.410736
0.685501 0.439436 0.410736
0.685501 0.439436 0.410736
0.685501 0.439436 0.410736
0.685501 0.439436 0.410736
0.685501 0.439436 0.410736
0.685501 0.439436 0.410736
0.685501 0.439436 0.410736
0.685501 0.439436 0.410736
0.685501 0.439436 0.410736
0.685501 0.439436 0.410736
0.685501 0.439436 0.410736
0.685501 0.439436 0.410736
0.685501 0.439436 0.410736
0.685501 0.439436 0.410736
0.685501 0.439436 0.410736
0.685501 0.439436 0.410736
0.685501 0.439436 0.410736
0.685501 0.439436 0.410736
0.685501 0.439436 0.410736
0.685501 0.439436 0.410736
0.685501 0.439436 0.410736
0.685501 0.439436 0.410736
0.685501 0.439436 0.410736
0.685501 0.439436 0.410736
0.685501 0.439436 0.410736
0.685501 0.439436 0.410736
0.685501 0.439436 0.410736
0.685501 0.439436 0.410736
0.685501 0.439436 0.410736
0.685501 0.439436 0.410736
0.685501 0.439436 0.410736
0.685501 0.439436 0.410736
0.685501 0.439436 0.410736
0.685501 0.439436 0.410736
0.685501 0.439436 0.410736
0.685501 0.439436 0.410736
0.685501 0.439436 0.410736
0.685501 0.439436 0.410736
0.685501 0.439436 0.410736
0.685501 0.439436 0.410736
0.685501 0.439436 0.410736
0.685501 0.439436 0.410736
0.685501 0.439436 0.410736
0.685501 0.439436 0.410736
0.685501 0.439436 0.410736
0.685501 0.439436 0.410736
0.685501 0.439436 0.410736
0.685501 0.439436 0.410736
0.685501 0.439436 0.410736
0.685501 0.439436 0.410736
0.685501 0.439436 0.410736
0.685501 0.439436 0.410736
0.685501 0.439436 0.410736
0.685501 0.439436 0.410736
0.685501 0.439436 0.410736
0.685501 0.439436 0.410736
0.685501 0.439436 0.410736
0.685501 0.439436 0.410736
0.685501 0.439436 0.410736
0.685501 0.439436 0.410736
0.685501 0.439436 0.410736
0.685501 0.439436 0.410736
0.685501 0.439436 0.410736
0.685501 0.439436 0.410736
0.685501 0.439436 0.410736
0.685501 0.439436 0.410736
0.685501 0.439436 0.410736
0.685501 0.439436 0.410736
0.685501 0.439436 0.410736
0.685501 0.439436 0.410736
0.685501 0.439436 0.410736
0.685501 0.439436 0.410736
0.685501 0.439436 0.410736
0.685501 0.439436 0.410736
0.685501 0.439436 0.410736
0.685501 0.439436 0.410736
0.685501 0.439436 0.410736
0.685501 0.439436 0.410736
0.685501 0.439436 0.410736
0.685501 0.439436 0.410736
0.685501 0.439436 0.410736
0.685501 0.439436 0.410736
0.685501 0.439436 0.410736
0.685501 0.439436 0.410736
0.685501 0.439436 0.410736
0.685501 0.439436 0.410736
0.685501 0.439436 0.410736
0.685501 0.439436 0.410736
0.685501 0.439436 0.410736
0.685501 0.439436 0.410736
0.685501 0.439436 0.410736
0.685501 0.439436 0.410736
0.685501 0.439436 0.410736
0.685501 0.439436 0.410736
0.685501 0.439436 0.410736
0.685501 0.439436 0.410736
0.685501 0.439436 0.410736
0.685501 0.439436 0.410736
0.685501 0.439436 0.410736
0.685501 0.439436 0.410736
0.685501 0.439436 0.410736
0.685501 0.439436 0.410736
0.685501 0.439436 0.410736
0.685501 0.439436 0.410736
0.685501 0.439436 0.410736
0.685501 0.439436 0.410736
0.685501 0.439436 0.410736
0.685501 0.439436 0.410736
0.685501 0.439436 0.410736
0.685501 0.439436 0.410736
0.685501 0.439436 0.410736
0.685501 0.439436 0.410736
0.685501 0.439436 0.410736
0.685501 0.439436 0.410736
0.685501 0.439436 0.410736
0.685501 0.439436 0.410736
0.685501 0.439436 0.410736
0.685501 0.439436 0.410736
0.685501 0.439436 0.410736
0.685501 0.439436 0.410736
0.685501 0.439436 0.410736
0.685501 0.439436 0.410736
0.685501 0.439436 0.410736
0.685501 0.439436 0.410736
0.685501 0.439436 0.410736
0.685501 0.439436 0.410736
0.685501 0.439436 0.410736
0.685501 0.439436 0.410736
0.685501 0.439436 0.410736
0.685501 0.439436 0.410736
0.685501 0.439436 0.410736
0.685501 0.439436 0.410736
0.685501 0.439436 0.410736
0.685501 0.439436 0.410736
0.685501 0.439436 0.410736
0.685501 0.439436 0.410736
0.685501 0.439436 0.410736
0.685501 0.439436 0.410736
0.685501 0.439436 0.410736
0.685501 0.439436 0.410736
0.685501 0.439436 0.410736
0.685501 0.439436 0.410736
0.685501 0.439436 0.410736
0.685501 0.439436 0.410736
0.685501 0.439436 0.410736
0.685501 0.439436 0.410736
0.685501 0.439436 0.410736
0.685501 0.439436 0.410736
0.685501 0.439436 0.410736
0.685501 0.439436 0.410736
0.685501 0.439436 0.410736
0.685501 0.439436 0.410736
0.685501 0.439436 0.410736
0.685501 0.439436 0.410736
0.685501 0.439436 0.410736
0.685501 0.439436 0.410736
0.685501 0.439436 0.410736
0.685501 0.439436 0.410736
0.685501 0.439436 0.410736
0.685501 0.439436 0.410736
0.685501 0.439436 0.410736
0.685501 0.439436 0.410736
0.685501 0.439436 0.410736
0.685501 0.439436 0.410736
0.685501 0.439436 0.410736
0.685501 0.439436 0.410736
0.685501 0.439436 0.410736
0.685501 0.439436 0.410736
0.685501 0.439436 0.410736
0.685501 0.439436 0.410736
0.685501 0.439436 0.410736
0.685501 0.439436 0.410736
0.685501 0.439436 0.410736
0.685501 0.439436 0.410736
0.685501 0.439436 0.410736
0.685501 0.439436 0.410736
0.685501 0.439436 0.410736
0.685501 0.439436 0.410736
0.685501 0.439436 0.410736
0.685501 0.439436 0.410736
0.685501 0.439436 0.410736
0.685501 0.439436 0.410736
0.685501 0.439436 0.410736
0.685501 0.439436 0.410736
0.685501 0.439436 0.410736
0.685501 0.439436 0.410736
0.685501 0.439436 0.410736
0.685501 0.439436 0.410736
0.685501 0.439436 0.410736
0.685501 0.439436 0.410736
0.685501 0.439436 0.410736
0.685501 0.439436 0.410736
0.685501 0.439436 0.410736
0.685501 0.439436 0.410736
0.685501 0.439436 0.410736
0.685501 0.439436 0.410736
0.685501 0.439436 0.410736
0.685501 0.439436 0.410736
0.685501 0.439436 0.410736
0.685501 0.439436 0.410736
0.685501 0.439436 0.410736
0.685501 0.439436 0.410736
0.685501 0.439436 0.410736
0.685501 0.439436 0.410736
0.685501 0.439436 0.410736
0.685501 0.439436 0.410736
0.685501 0.439436 0.410736
0.685501 0.439436 0.410736
0.685501 0.439436 0.410736
0.685501 0.439436 0.410736
0.685501 0.439436 0.410736
0.685501 0.439436 0.410736
0.685501 0.439436 0.410736
0.685501 0.439436 0.410736
0.685501 0.439436 0.410736
0.685501 0.439436 0.410736
0.685501 0.439436 0.410736
0.685501 0.439436 0.410736
0.685501 0.439436 0.410736
0.685501 0.439436 0.410736
0.685501 0.439436 0.410736
0.685501 0.439436 0.410736
0.685501 0.439436 0.410736
0.685501 0.439436 0.410736
0.685501 0.439436 0.410736
0.685501 0.439436 0.410736
0.685501 0.439436 0.410736
0.685501 0.439436 0.410736
0.685501 0.439436 0.410736
0.685501 0.439436 0.410736
0.685501 0.439436 0.410736
0.685501 0.439436 0.410736
0.685501 0.439436 0.410736
0.685501 0.439436 0.410736
0.685501 0.439436 0.410736
0.685501 0.439436 0.410736
0.685501 0.439436 0.410736
0.685501 0.439436 0.410736
0.685501 0.439436 0.410736
0.685501 0.439436 0.410736
0.685501 0.439436 0.410736
0.685501 0.439436 0.410736
0.685501 0.439436 0.410736
0.685501 0.439436 0.410736
0.685501 0.439436 0.410736
0.685501 0.439436 0.410736
0.685501 0.439436 0.410736
0.685501 0.439436 0.410736
0.685501 0.439436 0.410736
0.685501 0.439436 0.410736
0.685501 0.439436 0.410736
0.685501 0.439436 0.410736
0.685501 0.439436 0.410736
0.685501 0.439436 0.410736
0.685501 0.439436 0.410736
0.685501 0.439436 0.410736
0.685501 0.439436 0.410736
0.685501 0.439436 0.410736
0.685501 0.439436 0.410736
0.685501 0.439436 0.410736
0.685501 0.439436 0.410736
0.685501 0.439436 0.410736
0.685501 0.439436 0.410736
0.685501 0.439436 0.410736
0.685501 0.439436 0.410736
0.685501 0.439436 0.410736
0.685501 0.439436 0.410736
0.685501 0.439436 0.410736
0.685501 0.439436 0.410736
0.685501 0.439436 0.410736
0.685501 0.439436 0.410736
0.685501 0.439436 0.410736
0.685501 0.439436 0.410736
0.685501 0.439436 0.410736
0.685501 0.439436 0.410736
0.685501 0.439436 0.410736
0.685501 0.439436 0.410736
0.685501 0.439436 0.410736
0.685501 0.439436 0.410736
0.685501 0.439436 0.410736
0.685501 0.439436 0.410736
0.685501 0.439436 0.410736
0.685501 0.439436 0.410736
0.685501 0.439436 0.410736
0.685501 0.439436 0.410736
0.685501 0.439436 0.410736
0.685501 0.439436 0.410736
0.685501 0.439436 0.410736
0.685501 0.439436 0.410736
0.685501 0.439436 0.410736
0.685501 0.439436 0.410736
0.685501 0.439436 0.410736
0.685501 0.439436 0.410736
0.685501 0.439436 0.410736
0.685501 0.439436 0.410736
0.685501 0.439436 0.410736
0.685501 0.439436 0.410736
0.685501 0.439436 0.410736
0.685501 0.439436 0.410736
0.685501 0.439436 0.410736
0.685501 0.439436 0.410736
0.685501 0.439436 0.410736
0.685501 0.439436 0.410736
0.685501 0.439436 0.410736
0.685501 0.439436 0.410736
0.685501 0.439436 0.410736
0.685501 0.439436 0.410736
0.685501 0.439436 0.410736
0.685501 0.439436 0.410736
0.685501 0.439436 0.410736
0.685501 0.439436 0.410736
0.685501 0.439436 0.410736
0.685501 0.439436 0.410736
0.685501 0.439436 0.410736
0.685501 0.439436 0.410736
0.685501 0.439436 0.410736
0.685501 0.439436 0.410736
0.685501 0.439436 0.410736
0.685501 0.439436 0.410736
0.685501 0.439436 0.410736
0.685501 0.439436 0.410736
0.685501 0.439436 0.410736
0.685501 0.439436 0.410736
0.685501 0.439436 0.410736
0.685501 0.439436 0.410736
0.685501 0.439436 0.410736
0.685501 0.439436 0.410736
0.685501 0.439436 0.410736
0.685501 0.439436 0.410736
0.685501 0.439436 0.410736
0.685501 0.439436 0.410736
0.685501 0.439436 0.410736
0.685501 0.439436 0.410736
0.685501 0.439436 0.410736
0.685501 0.439436 0.410736
0.685501 0.439436 0.410736
0.685501 0.439436 0.410736
0.685501 0.439436 0.410736
0.685501 0.439436 0.410736
0.685501 0.439436 0.410736
0.685501 0.439436 0.410736
0.685501 0.439436 0.410736
0.685501 0.439436 0.410736
0.685501 0.439436 0.410736
0.685501 0.439436 0.410736
0.685501 0.439436 0.410736
0.685501 0.439436 0.410736
0.685501 0.439436 0.410736
0.685501 0.439436 0.410736
0.685501 0.439436 0.410736
0.685501 0.439436 0.410736
0.685501 0.439436 0.410736
0.685501 0.439436 0.410736
0.685501 0.439436 0.410736
0.685501 0.439436 0.410736
0.685501 0.439436 0.410736
0.685501 0.439436 0.410736
0.685501 0.439436 0.410736
0.685501 0.439436 0.410736
0.685501 0.439436 0.410736
0.685501 0.439436 0.410736
0.685501 0.439436 0.410736
0.685501 0.439436 0.410736
0.685501 0.439436 0.410736
0.685501 0.439436 0.410736
0.685501 0.439436 0.410736
0.685501 0.439436 0.410736
0.685501 0.439436 0.410736
0.685501 0.439436 0.410736
0.685501 0.439436 0.410736
0.685501 0.439436 0.410736
0.685501 0.439436 0.410736
0.685501 0.439436 0.410736
0.685501 0.439436 0.410736
0.685501 0.439436 0.410736
0.685501 0.439436 0.410736
0.685501 0.439436 0.410736
0.685501 0.439436 0.410736
0.685501 0.439436 0.410736
0.685501 0.439436 0.410736
0.685501 0.439436 0.410736
0.685501 0.439436 0.410736
0.685501 0.439436 0.410736
0.685501 0.439436 0.410736
0.685501 0.439436 0.410736
0.685501 0.439436 0.410736
0.685501 0.439436 0.410736
0.685501 0.439436 0.410736
0.685501 0.439436 0.410736
0.685501 0.439436 0.410736
0.685501 0.439436 0.410736
0.685501 0.439436 0.410736
0.685501 0.439436 0.410736
0.685501 0.439436 0.410736
0.685501 0.439436 0.410736
0.685501 0.439436 0.410736
0.685501 0.439436 0.410736
0.685501 0.439436 0.410736
0.685501 0.439436 0.410736
0.685501 0.439436 0.410736
0.685501 0.439436 0.410736
0.685501 0.439436 0.410736
0.685501 0.439436 0.410736
0.685501 0.439436 0.410736
0.685501 0.439436 0.410736
0.685501 0.439436 0.410736
0.685501 0.439436 0.410736
0.685501 0.439436 0.410736
0.685501 0.439436 0.410736
0.685501 0.439436 0.410736
0.685501 0.439436 0.410736
0.685501 0.439436 0.410736
0.685501 0.439436 0.410736
0.685501 0.439436 0.410736
0.685501 0.439436 0.410736
0.685501 0.439436 0.410736
0.685501 0.439436 0.410736
0.685501 0.439436 0.410736
0.685501 0.439436 0.410736
0.685501 0.439436 0.410736
0.685501 0.439436 0.410736
0.685501 0.439436 0.410736
0.685501 0.439436 0.410736
0.685501 0.439436 0.410736
0.685501 0.439436 0.410736
0.685501 0.439436 0.410736
0.685501 0.439436 0.410736
0.685501 0.439436 0.410736
0.685501 0.439436 0.410736
0.685501 0.439436 0.410736
0.685501 0.439436 0.410736
0.685501 0.439436 0.410736
0.685501 0.439436 0.410736
0.685501 0.439436 0.410736
0.685501 0.439436 0.410736
0.685501 0.439436 0.410736
0.685501 0.439436 0.410736
0.685501 0.439436 0.410736
0.685501 0.439436 0.410736
0.685501 0.439436 0.410736
0.685501 0.439436 0.410736
0.685501 0.439436 0.410736
0.685501 0.439436 0.410736
0.685501 0.439436 0.410736
0.685501 0.439436 0.410736
0.685501 0.439436 0.410736
0.685501 0.439436 0.410736
0.685501 0.439436 0.410736
0.685501 0.439436 0.410736
0.685501 0.439436 0.410736
0.685501 0.439436 0.410736
0.685501 0.439436 0.410736
0.685501 0.439436 0.410736
0.685501 0.439436 0.410736
0.685501 0.439436 0.410736
0.685501 0.439436 0.410736
0.685501 0.439436 0.410736
0.685501 0.439436 0.410736
0.685501 0.439436 0.410736
0.685501 0.439436 0.410736
0.685501 0.439436 0.410736
0.685501 0.439436 0.410736
0.685501 0.439436 0.410736
0.685501 0.439436 0.410736
0.685501 0.439436 0.410736
0.685501 0.439436 0.410736
0.685501 0.439436 0.410736
0.685501 0.439436 0.410736
0.685501 0.439436 0.410736
0.685501 0.439436 0.410736
0.685501 0.439436 0.410736
0.685501 0.439436 0.410736
0.685501 0.439436 0.410736
0.685501 0.439436 0.410736
0.685501 0.439436 0.410736
0.685501 0.439436 0.410736
0.685501 0.439436 0.410736
0.685501 0.439436 0.410736
0.685501 0.439436 0.410736
0.685501 0.439436 0.410736
0.685501 0.439436 0.410736
0.685501 0.439436 0.410736
0.685501 0.439436 0.410736
0.685501 0.439436 0.410736
0.685501 0.439436 0.410736
0.685501 0.439436 0.410736
0.685501 0.439436 0.410736
0.685501 0.439436 0.410736
0.685501 0.439436 0.410736
0.685501 0.439436 0.410736
0.685501 0.439436 0.410736
0.685501 0.439436 0.410736
0.685501 0.439436 0.410736
0.685501 0.439436 0.410736
0.685501 0.439436 0.410736
0.685501 0.439436 0.410736
0.685501 0.439436 0.410736
0.685501 0.439436 0.410736
0.685501 0.439436 0.410736
0.685501 0.439436 0.410736
0.685501 0.439436 0.410736
0.685501 0.439436 0.410736
0.685501 0.439436 0.410736
0.685501 0.439436 0.410736
0.685501 0.439436 0.410736
0.685501 0.439436 0.410736
0.685501 0.439436 0.410736
0.685501 0.439436 0.410736
0.685501 0.439436 0.410736
0.685501 0.439436 0.410736
0.685501 0.439436 0.410736
0.685501 0.439436 0.410736
0.685501 0.439436 0.410736
0.685501 0.439436 0.410736
0.685501 0.439436 0.410736
0.685501 0.439436 0.410736
0.685501 0.439436 0.410736
0.685501 0.439436 0.410736
0.685501 0.439436 0.410736
0.685501 0.439436 0.410736
0.685501 0.439436 0.410736
0.685501 0.439436 0.410736
0.685501 0.439436 0.410736
0.685501 0.439436 0.410736
0.685501 0.439436 0.410736
0.685501 0.439436 0.410736
0.685501 0.439436 0.410736
0.685501 0.439436 0.410736
0.685501 0.439436 0.410736
0.685501 0.439436 0.410736
0.685501 0.439436 0.410736
0.685501 0.439436 0.410736
0.685501 0.439436 0.410736
0.685501 0.439436 0.410736
0.685501 0.439436 0.410736
0.685501 0.439436 0.410736
0.685501 0.439436 0.410736
0.685501 0.439436 0.410736
0.685501 0.439436 0.410736
0.685501 0.439436 0.410736
0.685501 0.439436 0.410736
0.685501 0.439436 0.410736
0.685501 0.439436 0.410736
0.685501 0.439436 0.410736
0.685501 0.439436 0.410736
0.685501 0.439436 0.410736
0.685501 0.439436 0.410736
0.685501 0.439436 0.410736
0.685501 0.439436 0.410736
0.685501 0.439436 0.410736
0.685501 0.439436 0.410736
0.685501 0.439436 0.410736
0.685501 0.439436 0.410736
0.685501 0.439436 0.410736
0.685501 0.439436 0.410736
0.685501 0.439436 0.410736
0.685501 0.439436 0.410736
0.685501 0.439436 0.410736
0.685501 0.439436 0.410736
0.685501 0.439436 0.410736
0.685501 0.439436 0.410736
0.685501 0.439436 0.410736
0.685501 0.439436 0.410736
0.685501 0.439436 0.410736
0.685501 0.439436 0.410736
0.685501 0.439436 0.410736
0.685501 0.439436 0.410736
0.685501 0.439436 0.410736
0.685501 0.439436 0.410736
0.685501 0.439436 0.410736
0.685501 0.439436 0.410736
0.685501 0.439436 0.410736
0.685501 0.439436 0.410736
0.685501 0.439436 0.410736
0.685501 0.439436 0.410736
0.685501 0.439436 0.410736
0.685501 0.439436 0.410736
0.685501 0.439436 0.410736
0.685501 0.439436 0.410736
0.685501 0.439436 0.410736
0.685501 0.439436 0.410736
0.685501 0.439436 0.410736
0.685501 0.439436 0.410736
0.685501 0.439436 0.410736
0.685501 0.439436 0.410736
0.685501 0.439436 0.410736
0.685501 0.439436 0.410736
0.685501 0.439436 0.410736
0.685501 0.439436 0.410736
0.685501 0.439436 0.410736
0.685501 0.439436 0.410736
0.685501 0.439436 0.410736
0.685501 0.439436 0.410736
0.685501 0.439436 0.410736
0.685501 0.439436 0.410736
0.685501 0.439436 0.410736
0.685501 0.439436 0.410736
0.685501 0.439436 0.410736
0.685501 0.439436 0.410736
0.685501 0.439436 0.410736
0.685501 0.439436 0.410736
0.685501 0.439436 0.410736
0.685501 0.439436 0.410736
0.685501 0.439436 0.410736
0.685501 0.439436 0.410736
0.685501 0.439436 0.410736
0.685501 0.439436 0.410736
0.685501 0.439436 0.410736
0.685501 0.439436 0.410736
0.685501 0.439436 0.410736
0.685501 0.439436 0.410736
0.685501 0.439436 0.410736
0.685501 0.439436 0.410736
0.685501 0.439436 0.410736
0.685501 0.439436 0.410736
0.685501 0.439436 0.410736
0.685501 0.439436 0.410736
0.685501 0.439436 0.410736
0.685501 0.439436 0.410736
0.685501 0.439436 0.410736
0.685501 0.439436 0.410736
0.685501 0.439436 0.410736
0.685501 0.439436 0.410736
0.685501 0.439436 0.410736
0.685501 0.439436 0.410736
0.685501 0.439436 0.410736
0.685501 0.439436 0.410736
0.685501 0.439436 0.410736
0.685501 0.439436 0.410736
0.685501 0.439436 0.410736
0.685501 0.439436 0.410736
0.685501 0.439436 0.410736
0.685501 0.439436 0.410736
0.685501 0.439436 0.410736
0.685501 0.439436 0.410736
0.685501 0.439436 0.410736
0.685501 0.439436 0.410736
0.685501 0.439436 0.410736
0.685501 0.439436 0.410736
0.685501 0.439436 0.410736
0.685501 0.439436 0.410736
0.685501 0.439436 0.410736
0.685501 0.439436 0.410736
0.685501 0.439436 0.410736
0.685501 0.439436 0.410736
0.685501 0.439436 0.410736
0.685501 0.439436 0.410736
0.685501 0.439436 0.410736
0.685501 0.439436 0.410736
0.685501 0.439436 0.410736
0.685501 0.439436 0.410736
0.685501 0.439436 0.410736
0.685501 0.439436 0.410736
0.685501 0.439436 0.410736
0.685501 0.439436 0.410736
0.685501 0.439436 0.410736
0.685501 0.439436 0.410736
0.685501 0.439436 0.410736
0.685501 0.439436 0.410736
0.685501 0.439436 0.410736
0.685501 0.439436 0.410736
0.685501 0.439436 0.410736
0.685501 0.439436 0.410736
0.685501 0.439436 0.410736
0.685501 0.439436 0.410736
0.685501 0.439436 0.410736
0.685501 0.439436 0.410736
0.685501 0.439436 0.410736
0.685501 0.439436 0.410736
0.685501 0.439436 0.410736
0.685501 0.439436 0.410736
0.685501 0.439436 0.410736
0.685501 0.439436 0.410736
0.685501 0.439436 0.410736
0.685501 0.439436 0.410736
0.685501 0.439436 0.410736
0.685501 0.439436 0.410736
0.685501 0.439436 0.410736
0.685501 0.439436 0.410736
0.685501 0.439436 0.410736
0.685501 0.439436 0.410736
0.685501 0.439436 0.410736
0.685501 0.439436 0.410736
0.685501 0.439436 0.410736
0.685501 0.439436 0.410736
0.685501 0.439436 0.410736
0.685501 0.439436 0.410736
0.685501 0.439436 0.410736
0.685501 0.439436 0.410736
0.685501 0.439436 0.410736
0.685501 0.439436 0.410736
0.685501 0.439436 0.410736
0.685501 0.439436 0.410736
0.685501 0.439436 0.410736
0.685501 0.439436 0.410736
0.685501 0.439436 0.410736
0.685501 0.439436 0.410736
0.685501 0.439436 0.410736
0.685501 0.439436 0.410736
0.685501 0.439436 0.410736
0.685501 0.439436 0.410736
0.685501 0.439436 0.410736
0.685501 0.439436 0.410736
0.685501 0.439436 0.410736
0.685501 0.439436 0.410736
0.685501 0.439436 0.410736
0.685501 0.439436 0.410736
0.685501 0.439436 0.410736
0.685501 0.439436 0.410736
0.685501 0.439436 0.410736
0.685501 0.439436 0.410736
0.685501 0.439436 0.410736
0.685501 0.439436 0.410736
0.685501 0.439436 0.410736
0.685501 0.439436 0.410736
0.685501 0.439436 0.410736
0.685501 0.439436 0.410736
0.685501 0.439436 0.410736
0.685501 0.439436 0.410736
0.685501 0.439436 0.410736
0.685501 0.439436 0.410736
0.685501 0.439436 0.410736
0.685501 0.439436 0.410736
0.685501 0.439436 0.410736
0.685501 0.439436 0.410736
0.685501 0.439436 0.410736
0.685501 0.439436 0.410736
0.685501 0.439436 0.410736
0.685501 0.439436 0.410736
0.685501 0.439436 0.410736
0.685501 0.439436 0.410736
0.685501 0.439436 0.410736
0.685501 0.439436 0.410736
0.685501 0.439436 0.410736
0.685501 0.439436 0.410736
0.685501 0.439436 0.410736
0.685501 0.439436 0.410736
0.685501 0.439436 0.410736
0.685501 0.439436 0.410736
0.685501 0.439436 0.410736
0.685501 0.439436 0.410736
0.685501 0.439436 0.410736
0.685501 0.439436 0.410736
0.685501 0.439436 0.410736
0.685501 0.439436 0.410736
0.685501 0.439436 0.410736
0.685501 0.439436 0.410736
0.685501 0.439436 0.410736
0.685501 0.439436 0.410736
0.685501 0.439436 0.410736
0.685501 0.439436 0.410736
0.685501 0.439436 0.410736
0.685501 0.439436 0.410736
0.685501 0.439436 0.410736
0.685501 0.439436 0.410736
0.685501 0.439436 0.410736
0.685501 0.439436 0.410736
0.685501 0.439436 0.410736
0.685501 0.439436 0.410736
0.685501 0.439436 0.410736
0.685501 0.439436 0.410736
0.685501 0.439436 0.410736
0.685501 0.439436 0.410736
0.685501 0.439436 0.410736
0.685501 0.439436 0.410736
0.685501 0.439436 0.410736
0.685501 0.439436 0.410736
0.685501 0.439436 0.410736
0.685501 0.439436 0.410736
0.685501 0.439436 0.410736
0.685501 0.439436 0.410736
0.685501 0.439436 0.410736
0.685501 0.439436 0.410736
0.685501 0.439436 0.410736
0.685501 0.439436 0.410736
0.685501 0.439436 0.410736
0.685501 0.439436 0.410736
0.685501 0.439436 0.410736
0.685501 0.439436 0.410736
0.685501 0.439436 0.410736
0.685501 0.439436 0.410736
0.685501 0.439436 0.410736
0.685501 0.439436 0.410736
0.685501 0.439436 0.410736
0.685501 0.439436 0.410736
0.685501 0.439436 0.410736
0.685501 0.439436 0.410736
0.685501 0.439436 0.410736
0.685501 0.439436 0.410736
0.685501 0.439436 0.410736
0.685501 0.439436 0.410736
0.685501 0.439436 0.410736
0.685501 0.439436 0.410736
0.685501 0.439436 0.410736
0.685501 0.439436 0.410736
0.685501 0.439436 0.410736
0.685501 0.439436 0.410736
0.685501 0.439436 0.410736
0.685501 0.439436 0.410736
0.685501 0.439436 0.410736
0.685501 0.439436 0.410736
0.685501 0.439436 0.410736
0.685501 0.439436 0.410736
0.685501 0.439436 0.410736
0.685501 0.439436 0.410736
0.685501 0.439436 0.410736
0.685501 0.439436 0.410736
0.685501 0.439436 0.410736
0.685501 0.439436 0.410736
0.685501 0.439436 0.410736
0.685501 0.439436 0.410736
0.685501 0.439436 0.410736
0.685501 0.439436 0.410736
0.685501 0.439436 0.410736
0.685501 0.439436 0.410736
0.685501 0.439436 0.410736
0.685501 0.439436 0.410736
0.685501 0.439436 0.410736
0.685501 0.439436 0.410736
0.685501 0.439436 0.410736
0.685501 0.439436 0.410736
0.685501 0.439436 0.410736
0.685501 0.439436 0.410736
0.685501 0.439436 0.410736
0.685501 0.439436 0.410736
0.685501 0.439436 0.410736
0.685501 0.439436 0.410736
0.685501 0.439436 0.410736
0.685501 0.439436 0.410736
0.685501 0.439436 0.410736
0.685501 0.439436 0.410736
0.685501 0.439436 0.410736
0.685501 0.439436 0.410736
0.685501 0.439436 0.410736
0.685501 0.439436 0.410736
0.685501 0.439436 0.410736
0.685501 0.439436 0.410736
0.685501 0.439436 0.410736
0.685501 0.439436 0.410736
0.685501 0.439436 0.410736
0.685501 0.439436 0.410736
0.685501 0.439436 0.410736
0.685501 0.439436 0.410736
0.685501 0.439436 0.410736
0.685501 0.439436 0.410736
0.685501 0.439436 0.410736
0.685501 0.439436 0.410736
0.685501 0.439436 0.410736
0.685501 0.439436 0.410736
0.685501 0.439436 0.410736
0.685501 0.439436 0.410736
0.685501 0.439436 0.410736
0.685501 0.439436 0.410736
0.685501 0.439436 0.410736
0.685501 0.439436 0.410736
0.685501 0.439436 0.410736
0.685501 0.439436 0.410736
0.685501 0.439436 0.410736
0.685501 0.439436 0.410736
0.685501 0.439436 0.410736
0.685501 0.439436 0.410736
0.685501 0.439436 0.410736
0.685501 0.439436 0.410736
0.685501 0.439436 0.410736
0.685501 0.439436 0.410736
0.685501 0.439436 0.410736
0.685501 0.439436 0.410736
0.685501 0.439436 0.410736
0.685501 0.439436 0.410736
0.685501 0.439436 0.410736
0.685501 0.439436 0.410736
0.685501 0.439436 0.410736
0.685501 0.439436 0.410736
0.685501 0.439436 0.410736
0.685501 0.439436 0.410736
0.685501 0.439436 0.410736
0.685501 0.439436 0.410736
0.685501 0.439436 0.410736
0.685501 0.439436 0.410736
0.685501 0.439436 0.410736
0.685501 0.439436 0.410736
0.685501 0.439436 0.410736
0.685501 0.439436 0.410736
0.685501 0.439436 0.410736
0.685501 0.439436 0.410736
0.685501 0.439436 0.410736
0.685501 0.439436 0.410736
0.685501 0.439436 0.410736
0.685501 0.439436 0.410736
0.685501 0.439436 0.410736
0.685501 0.439436 0.410736
0.685501 0.439436 0.410736
0.685501 0.439436 0.410736
0.685501 0.439436 0.410736
0.685501 0.439436 0.410736
0.685501 0.439436 0.410736
0.685501 0.439436 0.410736
0.685501 0.439436 0.410736
0.685501 0.439436 0.410736
0.685501 0.439436 0.410736
0.685501 0.439436 0.410736
0.685501 0.439436 0.410736
0.685501 0.439436 0.410736
0.685501 0.439436 0.410736
0.685501 0.439436 0.410736
0.685501 0.439436 0.410736
0.685501 0.439436 0.410736
0.685501 0.439436 0.410736
0.685501 0.439436 0.410736
0.685501 0.439436 0.410736
0.685501 0.439436 0.410736
0.685501 0.439436 0.410736
0.685501 0.439436 0.410736
0.685501 0.439436 0.410736
0.685501 0.439436 0.410736
0.685501 0.439436 0.410736
0.685501 0.439436 0.410736
0.685501 0.439436 0.410736
0.685501 0.439436 0.410736
0.685501 0.439436 0.410736
0.685501 0.439436 0.410736
0.685501 0.439436 0.410736
0.685501 0.439436 0.410736
0.685501 0.439436 0.410736
0.685501 0.439436 0.410736
0.685501 0.439436 0.410736
0.685501 0.439436 0.410736
0.685501 0.439436 0.410736
0.685501 0.439436 0.410736
0.685501 0.439436 0.410736
0.685501 0.439436 0.410736
0.685501 0.439436 0.410736
0.685501 0.439436 0.410736
0.685501 0.439436 0.410736
0.685501 0.439436 0.410736
0.685501 0.439436 0.410736
0.685501 0.439436 0.410736
0.685501 0.439436 0.410736
0.685501 0.439436 0.410736
0.685501 0.439436 0.410736
0.685501 0.439436 0.410736
0.685501 0.439436 0.410736
0.685501 0.439436 0.410736
0.685501 0.439436 0.410736
0.685501 0.439436 0.410736
0.685501 0.439436 0.410736
0.685501 0.439436 0.410736
0.685501 0.439436 0.410736
0.685501 0.439436 0.410736
0.685501 0.439436 0.410736
0.685501 0.439436 0.410736
0.685501 0.439436 0.410736
0.685501 0.439436 0.410736
0.685501 0.439436 0.410736
0.685501 0.439436 0.410736
0.685501 0.439436 0.410736
0.685501 0.439436 0.410736
0.685501 0.439436 0.410736
0.685501 0.439436 0.410736
0.685501 0.439436 0.410736
0.685501 0.439436 0.410736
0.685501 0.439436 0.410736
0.685501 0.439436 0.410736
0.685501 0.439436 0.410736
0.685501 0.439436 0.410736
0.685501 0.439436 0.410736
0.685501 0.439436 0.410736
0.685501 0.439436 0.410736
0.685501 0.439436 0.410736
0.685501 0.439436 0.410736
0.685501 0.439436 0.410736
0.685501 0.439436 0.410736
0.685501 0.439436 0.410736
0.685501 0.439436 0.410736
0.685501 0.439436 0.410736
0.685501 0.439436 0.410736
0.685501 0.439436 0.410736
0.685501 0.439436 0.410736
0.685501 0.439436 0.410736
0.685501 0.439436 0.410736
0.685501 0.439436 0.410736
0.685501 0.439436 0.410736
0.685501 0.439436 0.410736
0.685501 0.439436 0.410736
