-7.58898e-06 -1.02258e-05 -2.37515e-06
-7.53829e-06 -1.02359e-05 -2.37228e-06
-7.41997e-06 -1.02606e-05 -2.36425e-06
-7.17609e-06 -1.03044e-05 -2.35367e-06
-6.89853e-06 -1.03475e-05 -2.34651e-06
-6.54069e-06 -1.03931e-05 -2.34498e-06
-6.09585e-06 -1.04362e-05 -2.35273e-06
-5.55678e-06 -1.04708e-05 -2.37438e-06
-4.91549e-06 -1.04899e-05 -2.41449e-06
-4.16336e-06 -1.04861e-05 -2.47756e-06
-3.29252e-06 -1.04508e-05 -2.56789e-06
-2.29795e-06 -1.03744e-05 -2.68933e-06
-1.18467e-06 -1.02462e-05 -2.84517e-06
2.57721e-08 -1.00577e-05 -3.0354e-06
1.33367e-06 -9.78867e-06 -3.26538e-06
2.70789e-06 -9.42623e-06 -3.53269e-06
4.11282e-06 -8.95543e-06 -3.83474e-06
5.50837e-06 -8.36368e-06 -4.16457e-06
6.85342e-06 -7.64251e-06 -4.5109e-06
8.10713e-06 -6.78829e-06 -4.85774e-06
9.22835e-06 -5.80252e-06 -5.18289e-06
1.01714e-05 -4.69141e-06 -5.45949e-06
1.08826e-05 -3.46543e-06 -5.65704e-06
1.12978e-05 -2.13995e-06 -5.74159e-06
1.13419e-05 -7.31875e-07 -5.67687e-06
1.09356e-05 7.22675e-07 -5.42505e-06
1.0015e-05 2.19211e-06 -4.94759e-06
8.55388e-06 3.63802e-06 -4.19147e-06
6.5863e-06 4.98981e-06 -3.10634e-06
4.19673e-06 6.16823e-06 -1.64905e-06
1.49403e-06 7.08909e-06 2.04792e-07
-1.45616e-06 7.66895e-06 2.50458e-06
-4.5166e-06 7.85268e-06 5.25383e-06
-7.61305e-06 7.59358e-06 8.43507e-06
-1.06806e-05 6.86521e-06 1.20142e-05
-1.36967e-05 5.66318e-06 1.59279e-05
-1.66362e-05 4.00133e-06 2.00947e-05
-1.95077e-05 1.91571e-06 2.44096e-05
-2.23065e-05 -5.49185e-07 2.87501e-05
-2.50368e-05 -3.3622e-06 3.29683e-05
-2.76924e-05 -6.41506e-06 3.69448e-05
-3.02606e-05 -9.64356e-06 4.05282e-05
-3.27096e-05 -1.29718e-05 4.35788e-05
-3.49844e-05 -1.63309e-05 4.59622e-05
-3.702e-05 -1.96541e-05 4.75558e-05
-3.87659e-05 -2.28765e-05 4.82472e-05
-4.02143e-05 -2.59262e-05 4.79297e-05
-4.14062e-05 -2.87253e-05 4.65345e-05
-4.24357e-05 -3.11962e-05 4.39993e-05
-4.34444e-05 -3.3267e-05 4.029e-05
-4.49608e-05 -3.5201e-05 3.40015e-05
-4.71509e-05 -3.6336e-05 2.5947e-05
-5.0413e-05 -3.66649e-05 1.62932e-05
-5.50471e-05 -3.62765e-05 5.3085e-06
-6.12038e-05 -3.53707e-05 -6.79153e-06
-6.88578e-05 -3.42378e-05 -1.94647e-05
-7.77882e-05 -3.32597e-05 -3.21452e-05
-8.76028e-05 -3.2867e-05 -4.43525e-05
-9.78376e-05 -3.3491e-05 -5.5572e-05
-0.000108099 -3.54968e-05 -6.54247e-05
-0.000118145 -3.91372e-05 -7.36209e-05
-0.000127879 -4.45391e-05 -8.00301e-05
-0.000137299 -5.17053e-05 -8.46604e-05
-0.000146452 -6.05254e-05 -8.76666e-05
-0.000155389 -7.07938e-05 -8.93308e-05
-0.000164098 -8.22369e-05 -9.00378e-05
-0.000172513 -9.45281e-05 -9.02529e-05
-0.00018058 -0.000107291 -9.04966e-05
-0.000188317 -0.000120106 -9.13184e-05
-0.000195812 -0.00013254 -9.32578e-05
-0.000203168 -0.000144183 -9.68036e-05
-0.000210415 -0.000154689 -0.000102354
-0.000217466 -0.00016381 -0.000110184
-0.000224178 -0.000171388 -0.000120439
-0.000230421 -0.000177349 -0.000133122
-0.000236102 -0.000181695 -0.000148103
-0.000241172 -0.0001845 -0.000165118
-0.000245625 -0.000185905 -0.000183787
-0.000249498 -0.000186105 -0.000203625
-0.000252865 -0.000185339 -0.000224072
-0.000255813 -0.00018388 -0.000244513
-0.000258436 -0.00018202 -0.000264308
-0.000260852 -0.000180049 -0.000282824
-0.000263219 -0.000178237 -0.000299465
-0.000265732 -0.000176818 -0.0003137
-0.000268575 -0.000175993 -0.000325083
-0.000271841 -0.000175933 -0.000333261
-0.000275463 -0.00017679 -0.000337993
-0.000279209 -0.000178685 -0.00033916
-0.000282758 -0.000181677 -0.000336783
-0.000285227 -0.000184847 -0.000332439
-0.000287593 -0.000189688 -0.000324216
-0.000288931 -0.000195308 -0.000313304
-0.000289073 -0.000201406 -0.000300264
-0.000287881 -0.00020761 -0.000285749
-0.000285216 -0.000213506 -0.000270466
-0.000280944 -0.000218657 -0.00025514
-0.000274936 -0.000222628 -0.00024047
-0.000267068 -0.000225008 -0.000227098
-0.000257235 -0.000225431 -0.000215567
-0.000245361 -0.000223588 -0.000206294
-0.000231402 -0.00021925 -0.000199547
-0.00021536 -0.000212266 -0.000195425
-0.000197351 -0.000202566 -0.000193859
-0.000177655 -0.000190149 -0.000194609
-0.000156688 -0.000175093 -0.000197267
-0.000134886 -0.000157586 -0.00020126
-0.000112643 -0.00013793 -0.000205864
-9.03398e-05 -0.00011652 -0.000210242
-6.83466e-05 -9.38308e-05 -0.000213478
-4.7013e-05 -7.03926e-05 -0.000214623
-2.66363e-05 -4.67739e-05 -0.00021274
-7.43567e-06 -2.35741e-05 -0.000206946
1.03394e-05 -1.43899e-06 -0.000196502
2.68875e-05 1.89187e-05 -0.000180842
4.2372e-05 3.73084e-05 -0.000159497
5.67894e-05 5.34044e-05 -0.000132283
6.99963e-05 6.71158e-05 -9.93377e-05
8.18266e-05 7.84166e-05 -6.09826e-05
9.21964e-05 8.74124e-05 -1.78593e-05
0.000101219 9.42513e-05 2.85772e-05
0.000109174 9.92022e-05 7.78301e-05
0.000116442 0.000102554 0.000128987
0.00012341 0.00010469 0.000180714
0.000130475 0.000106037 0.000231714
0.000138069 0.000107033 0.000280716
0.00014663 0.000108134 0.000326399
0.000156568 0.00010978 0.000367604
0.000168205 0.000112392 0.000403254
0.000181695 0.000116371 0.000432453
0.000196972 0.000122082 0.000454512
0.000213745 0.000129832 0.000468973
0.000231596 0.000139825 0.000475666
0.000250082 0.000152121 0.000474718
0.000268788 0.000166613 0.000466569
0.000287369 0.000183023 0.000451957
0.00030555 0.000200911 0.000431887
0.000323117 0.000219706 0.000407582
0.00033992 0.000238736 0.000380423
0.000355837 0.000257277 0.000351876
0.000370734 0.000274604 0.00032342
0.000384445 0.000290041 0.000296463
0.000396794 0.000302992 0.000272286
0.000407623 0.000312972 0.000251976
0.000416094 0.000319557 0.00023644
0.000422507 0.000321817 0.000226592
0.000426789 0.000321054 0.000221892
0.000429642 0.000317033 0.000222639
0.000430974 0.000310145 0.000228291
0.000428402 0.000301118 0.000238297
0.000417625 0.000291942 0.000251059
0.000405989 0.000280106 0.000267689
0.000392809 0.000267236 0.000285925
0.000378778 0.000253312 0.000305528
0.000364323 0.000238907 0.000325207
0.000350013 0.000224522 0.000343888
0.000336388 0.000210601 0.000360583
0.00032396 0.000197595 0.000374306
0.000313166 0.000185928 0.000384205
0.000304417 0.000175947 0.000389591
0.000298027 0.000167944 0.000389943
0.000294217 0.00016214 0.000384943
0.000293116 0.000158671 0.000374497
0.000294745 0.00015759 0.000358735
0.000299025 0.00015887 0.000338008
0.000305552 0.000162434 0.000312875
0.000312242 0.000168526 0.000283928
0.000318795 0.000176751 0.000252191
0.000324835 0.000186689 0.000218812
0.000330145 0.000197745 0.000185102
0.000333745 0.00020696 0.000158806
0.000336688 0.00021612 0.000133877
0.000338902 0.000224875 0.00011099
0.000340313 0.00023289 9.07809e-05
0.000340851 0.000239855 7.38175e-05
0.00034045 0.000245502 6.05832e-05
0.000339039 0.000249607 5.1461e-05
0.000336528 0.00025201 4.67193e-05
0.000332799 0.000252615 4.65032e-05
0.000327712 0.000251393 5.08311e-05
0.000321111 0.000248379 5.95965e-05
0.000312865 0.000243656 7.25755e-05
0.000302907 0.000237346 8.94382e-05
0.00029126 0.000229592 0.000109761
0.000278043 0.000220555 0.000133039
0.000263462 0.000210407 0.000158698
0.000247766 0.00019934 0.000186102
0.000231198 0.000187565 0.000214571
0.000213981 0.000175313 0.00024339
0.00019632 0.000162822 0.000271829
0.000178414 0.00015033 0.000299167
0.000160465 0.000138064 0.000324705
0.000142665 0.000126231 0.000347782
0.000125188 0.00011502 0.000367797
0.000108181 0.000104591 0.000384215
9.17665e-05 9.50738e-05 0.000396584
7.60485e-05 8.65591e-05 0.000404547
6.11134e-05 7.90964e-05 0.000407845
4.70288e-05 7.26933e-05 0.000406325
3.38431e-05 6.7315e-05 0.000399941
2.15848e-05 6.2887e-05 0.000388752
1.02607e-05 5.92978e-05 0.000372919
-1.40497e-07 5.64032e-05 0.000352696
-9.6454e-06 5.40294e-05 0.000328424
-1.63585e-05 5.17005e-05 0.000300554
-1.92271e-05 4.83969e-05 0.000270115
-2.2148e-05 4.58482e-05 0.000236401
-2.45554e-05 4.28982e-05 0.000200675
-2.66339e-05 3.98692e-05 0.000163132
-2.85423e-05 3.64775e-05 0.000124405
-3.05342e-05 3.26645e-05 8.50102e-05
-3.28412e-05 2.83225e-05 4.5481e-05
-3.56591e-05 2.33463e-05 6.36367e-06
-3.91808e-05 1.76488e-05 -3.24171e-05
-4.35779e-05 1.11871e-05 -6.98445e-05
-4.89781e-05 3.86489e-06 -0.000105478
-5.54813e-05 -4.4462e-06 -0.000138964
-6.31168e-05 -1.3672e-05 -0.000169894
-7.19089e-05 -2.38351e-05 -0.000198041
-8.18412e-05 -3.49278e-05 -0.000223179
-9.28857e-05 -4.69073e-05 -0.000245188
-0.000105001 -5.97157e-05 -0.000264
-0.000118132 -7.3269e-05 -0.000279624
-0.000132198 -8.74645e-05 -0.000292135
-0.000147088 -0.000102181 -0.000301671
-0.000162654 -0.000117287 -0.000308431
-0.000178716 -0.000132638 -0.000312657
-0.000195069 -0.000148085 -0.000314637
-0.000211492 -0.00016347 -0.000314693
-0.000227755 -0.000178627 -0.000313176
-0.000243624 -0.000193389 -0.000310455
-0.000258869 -0.000207587 -0.000306908
-0.000273267 -0.000221053 -0.000302912
-0.00028662 -0.000233623 -0.000298836
-0.000298748 -0.000245137 -0.000295027
-0.000309503 -0.000255447 -0.000291807
-0.000318773 -0.000264414 -0.000289458
-0.000326481 -0.000271917 -0.00028822
-0.000332593 -0.000277853 -0.000288279
-0.000337108 -0.000282143 -0.000289763
-0.000340058 -0.000284735 -0.000292738
-0.000341497 -0.000285611 -0.000297203
-0.000341504 -0.000284784 -0.000303089
-0.000340195 -0.000282292 -0.000310265
-0.000337713 -0.000278211 -0.000318535
-0.000334232 -0.000272653 -0.000327642
-0.000329944 -0.000265755 -0.000337281
-0.000325044 -0.000257689 -0.000347096
-0.000319727 -0.000248653 -0.000356702
-0.000314177 -0.00023887 -0.000365686
-0.000308574 -0.000228576 -0.000373628
-0.000303093 -0.000218019 -0.000380109
-0.00029791 -0.000207444 -0.000384728
-0.000293194 -0.000197093 -0.000387115
-0.000289105 -0.000187194 -0.000386942
-0.000285784 -0.000177959 -0.000383935
-0.00028335 -0.000169581 -0.000377884
-0.000281898 -0.000162221 -0.000368649
-0.000281503 -0.000156014 -0.000356172
-0.000282223 -0.000151056 -0.000340477
-0.000284102 -0.000147404 -0.000321674
-0.000286998 -0.000145106 -0.000299952
-0.000290004 -0.000144453 -0.000275448
-0.000294679 -0.000144889 -0.0002487
-0.00030045 -0.000146487 -0.000220184
-0.000307209 -0.000149183 -0.00019023
-0.000314909 -0.000152746 -0.000159523
-0.000323224 -0.000157188 -0.000128484
-0.000331894 -0.000162299 -9.77653e-05
-0.0003402 -0.000168022 -6.7919e-05
-0.000348014 -0.000174194 -3.95359e-05
-0.000355042 -0.000180654 -1.32075e-05
-0.000360979 -0.000187214 1.04672e-05
-0.000365538 -0.000193724 3.06841e-05
-0.000368454 -0.000199968 4.73411e-05
-0.000369499 -0.000205769 5.99708e-05
-0.000368521 -0.000210918 6.82206e-05
-0.000365467 -0.000215218 7.17968e-05
-0.000360349 -0.000218482 7.04919e-05
-0.000353221 -0.00022054 6.41911e-05
-0.000344173 -0.000221259 5.28911e-05
-0.000333329 -0.000220536 3.66995e-05
-0.000320845 -0.000218309 1.58321e-05
-0.000306915 -0.000214572 -9.79601e-06
-0.000291781 -0.000209323 -3.93744e-05
-0.000275715 -0.000202632 -7.23762e-05
-0.000259007 -0.0001946 -0.000108139
-0.000241927 -0.000185384 -0.00014595
-0.000224716 -0.000175185 -0.000185028
-0.00020759 -0.000164244 -0.000224534
-0.000190749 -0.000152827 -0.000263595
-0.000174364 -0.000141221 -0.000301326
-0.000158583 -0.000129721 -0.000336863
-0.000143529 -0.000118616 -0.00036938
-0.000129315 -0.000108179 -0.000398117
-0.000116046 -9.86529e-05 -0.000422389
-0.00010382 -9.02413e-05 -0.000441614
-9.27083e-05 -8.31058e-05 -0.000455322
-8.27467e-05 -7.73616e-05 -0.000463167
-7.39342e-05 -7.30731e-05 -0.000464937
-6.62381e-05 -7.02499e-05 -0.000460559
-5.95977e-05 -6.88452e-05 -0.000450098
-5.39257e-05 -6.87568e-05 -0.000433758
-4.9109e-05 -6.98304e-05 -0.00041187
-4.50083e-05 -7.18649e-05 -0.000384887
-4.14552e-05 -7.46197e-05 -0.000353367
-3.82511e-05 -7.7823e-05 -0.000317957
-3.51686e-05 -8.1181e-05 -0.000279377
-3.19572e-05 -8.43859e-05 -0.000238396
-3.28446e-05 -8.62262e-05 -0.000196047
-3.32374e-05 -8.7013e-05 -0.000153237
-3.30791e-05 -8.72043e-05 -0.000109829
-3.19409e-05 -8.6001e-05 -6.73641e-05
-2.96322e-05 -8.3545e-05 -2.59642e-05
-2.59896e-05 -7.95127e-05 1.32249e-05
-2.09199e-05 -7.38585e-05 4.96107e-05
-1.44494e-05 -6.64182e-05 8.32353e-05
-6.58596e-06 -5.71893e-05 0.000113691
2.66039e-06 -4.61257e-05 0.000140728
1.33112e-05 -3.32369e-05 0.000164137
2.52615e-05 -1.86574e-05 0.000183854
3.8409e-05 -2.58416e-06 0.00019993
5.26264e-05 1.48135e-05 0.00021249
6.77334e-05 3.34544e-05 0.00022183
8.35387e-05 5.30527e-05 0.000228301
9.9792e-05 7.33549e-05 0.000232287
0.000116188 9.40706e-05 0.000234253
0.000132261 0.000114946 0.000234669
0.000147892 0.000135603 0.000234085
0.000162933 0.000155687 0.00023305
0.000177298 0.00017483 0.000232101
0.000190944 0.000192677 0.000231759
0.000203852 0.000208904 0.000232489
0.000216004 0.000223229 0.000234689
0.000227382 0.000235427 0.000238675
0.000237741 0.000245388 0.000244658
0.000245377 0.000253333 0.000252653
0.000251847 0.000259032 0.000262654
0.000256793 0.000262312 0.000274879
0.000260331 0.000263395 0.000288895
0.000262498 0.000262298 0.000304626
0.000263355 0.000259228 0.000321644
0.000263026 0.000254359 0.000339585
0.000261671 0.000247921 0.000357977
0.000259487 0.000240168 0.000376309
0.000256685 0.000231381 0.000394037
0.000253484 0.00022185 0.000410602
0.000250107 0.000211877 0.000425449
0.000246778 0.000201763 0.000438039
0.000243708 0.000191801 0.00044787
0.000241094 0.000182268 0.000454492
0.000239115 0.000173418 0.000457519
0.000237928 0.000165477 0.000456644
0.000237661 0.000158637 0.00045165
0.000238399 0.000153053 0.000442417
0.000240187 0.00014884 0.000428925
0.000243024 0.00014607 0.000411262
0.000246882 0.000144771 0.000389624
0.000251711 0.000144917 0.00036431
0.000257393 0.000146422 0.00033573
0.000263394 0.000149294 0.000304326
0.000269707 0.000153369 0.000270662
0.000276233 0.000158412 0.00023542
0.000282875 0.000164208 0.000199268
0.000289529 0.00017049 0.000162953
0.000296085 0.000176988 0.000127221
0.000302437 0.000183423 9.28138e-05
0.000308474 0.000189534 6.04467e-05
0.000314072 0.000195074 3.07876e-05
0.000319075 0.000199832 4.44021e-06
0.000323302 0.000203638 -1.81615e-05
0.000326566 0.000206355 -3.67156e-05
0.000328702 0.000207904 -5.05611e-05
0.000329588 0.000208224 -5.9495e-05
0.000329133 0.000207296 -6.33996e-05
0.00032729 0.000205132 -6.22729e-05
0.000324051 0.00020179 -5.62104e-05
0.000319464 0.000197352 -4.54082e-05
0.000313639 0.000191926 -3.01662e-05
0.000306751 0.000185641 -1.10107e-05
0.000299008 0.000178648 1.14658e-05
0.000290626 0.000171138 3.69587e-05
0.00028181 0.000163315 6.48316e-05
0.00027274 0.000155407 9.4453e-05
0.000263583 0.000147651 0.000125143
0.000254508 0.000140284 0.000156221
0.000245699 0.000133526 0.00018702
0.000237347 0.000127582 0.0002169
0.00022964 0.000122632 0.00024526
0.000222758 0.000118828 0.000271554
0.000216868 0.000116289 0.000295303
0.00021211 0.000115105 0.000316103
0.000208581 0.00011533 0.000333632
0.000206319 0.000116991 0.000347657
0.000205293 0.000120084 0.000358033
0.000205403 0.000124575 0.00036471
0.000206495 0.000130396 0.000367732
0.000208374 0.00013744 0.000367237
0.000210801 0.000145568 0.000363448
0.000213504 0.000154603 0.000356674
0.000216202 0.000164334 0.000347296
0.000218618 0.000174513 0.000335759
0.00022049 0.00018486 0.00032256
0.000221578 0.000195071 0.000308233
0.000221674 0.000204825 0.000293329
0.000220614 0.000213788 0.000278404
0.00021827 0.000221626 0.000263994
0.000214546 0.000228021 0.0002506
0.000209368 0.00023268 0.000238667
0.000202676 0.000235347 0.000228569
0.000194422 0.000235815 0.000220596
0.000184579 0.000233927 0.000214938
0.00017315 0.00022958 0.000211688
0.000160173 0.00022273 0.00021083
0.000145722 0.000213389 0.000212242
0.000129907 0.000201628 0.000215699
0.000112864 0.000187574 0.000220873
9.5663e-05 0.000171249 0.000227391
7.79387e-05 0.000152743 0.000234926
5.90849e-05 0.000133115 0.00024235
3.97408e-05 0.000112019 0.00024958
2.0081e-05 9.01283e-05 0.000255676
4.38863e-07 6.76402e-05 0.00026013
-1.89692e-05 4.49464e-05 0.000262272
-3.78026e-05 2.23996e-05 0.000261517
-5.56578e-05 2.73863e-07 0.000257336
-7.24253e-05 -2.12627e-05 0.000249101
-8.77894e-05 -4.17376e-05 0.000236536
-0.00010159 -6.08832e-05 0.000219342
-0.000113682 -7.8414e-05 0.00019737
-0.000124002 -9.41313e-05 0.000170519
-0.000132499 -0.000107902 0.000138863
-0.000139189 -0.00011963 0.000102568
-0.000144142 -0.000129269 6.19337e-05
-0.000147474 -0.00013683 1.73842e-05
-0.000149338 -0.000142411 -3.13327e-05
-0.000149952 -0.000146075 -8.2793e-05
-0.000149562 -0.000148 -0.000136261
-0.000148455 -0.000148376 -0.000190869
-0.000146939 -0.000147443 -0.000245753
-0.000145339 -0.000145468 -0.000300003
-0.000143972 -0.000142751 -0.000352676
-0.000143133 -0.000139608 -0.000402818
-0.000143073 -0.000136369 -0.000449499
-0.000144047 -0.000133354 -0.000491851
-0.000146234 -0.000130888 -0.00053493
-0.00014999 -0.000128379 -0.00108447
-0.000155531 -0.00012583 -0.00164979
-0.000162134 -0.000126438 -0.00197513
-0.000170507 -0.000127968 -0.00222337
-0.000180334 -0.00013172 -0.00234099
-0.000191617 -0.000137496 -0.00234564
-0.00020443 -0.000144789 -0.00233724
-0.000218641 -0.000153776 -0.00232221
-0.000234195 -0.00016425 -0.00230135
-0.00025099 -0.000176021 -0.00227506
-0.000268854 -0.000188877 -0.00224401
-0.000287588 -0.000202545 -0.00220903
-0.000306946 -0.000216758 -0.00217101
-0.000326669 -0.000231214 -0.00213092
-0.000346467 -0.000245601 -0.00208968
-0.000366033 -0.000259607 -0.00204824
-0.000385042 -0.000272939 -0.00200757
-0.000403169 -0.000285325 -0.00196861
-0.000420099 -0.00029652 -0.00193223
-0.00043881 -0.0003063 -0.00189923
-0.000853733 -0.000311588 -0.00187163
-0.00153769 -0.000310545 -0.0018514
-0.00191719 -0.000313731 -0.00183242
-0.00226212 -0.000314015 -0.00181893
-0.0025632 -0.000312909 -0.00179148
-0.00270595 -0.000312397 -0.00177411
-0.00271002 -0.000311884 -0.00177351
-0.00270761 -0.000309211 -0.00177918
-0.00270271 -0.000305178 -0.0017905
-0.00269611 -0.00029994 -0.00180661
-0.00268793 -0.000293389 -0.00182752
-0.00267834 -0.000285877 -0.00185231
-0.00266761 -0.000277541 -0.00188054
-0.00265603 -0.000268635 -0.00191146
-0.00264389 -0.000259367 -0.00194437
-0.0026315 -0.000249998 -0.00197848
-0.00261916 -0.000240783 -0.00201301
-0.00260719 -0.000231958 -0.00204718
-0.00259589 -0.000223756 -0.00208021
-0.00258554 -0.000216401 -0.0021114
-0.00257638 -0.000210095 -0.00214006
-0.00256865 -0.000205006 -0.0021656
-0.00256254 -0.000201279 -0.00218751
-0.00255819 -0.000199026 -0.00220536
-0.00255571 -0.000198324 -0.00221885
-0.00255506 -0.00019923 -0.00222777
-0.00255547 -0.000201911 -0.00223197
-0.00255702 -0.000206307 -0.00223152
-0.00255964 -0.000212279 -0.00222684
-0.00256325 -0.000219687 -0.00221818
-0.00256775 -0.000228317 -0.00220593
-0.00257301 -0.000237932 -0.00219055
-0.00257886 -0.000248262 -0.00217256
-0.00258513 -0.000259015 -0.00215257
-0.00259159 -0.000269892 -0.00213119
-0.00259803 -0.000280588 -0.00210908
-0.00260421 -0.000290802 -0.00208688
-0.00260991 -0.000300245 -0.00206524
-0.0026149 -0.000308644 -0.00204476
-0.00261901 -0.000315754 -0.00202598
-0.00262206 -0.000321358 -0.0020094
-0.00262392 -0.000325273 -0.00199543
-0.00262453 -0.00032736 -0.00198439
-0.00262381 -0.000327524 -0.00197651
-0.00262177 -0.000325719 -0.0019719
-0.0026184 -0.000321956 -0.00197058
-0.00261371 -0.0003163 -0.00197245
-0.0026077 -0.00030887 -0.00197732
-0.00260042 -0.000299833 -0.00198488
-0.0025919 -0.000289396 -0.00199477
-0.00258222 -0.000277792 -0.00200654
-0.00257151 -0.000265274 -0.00201968
-0.0025599 -0.000252112 -0.00203365
-0.00254755 -0.000238578 -0.00204789
-0.00253461 -0.000224947 -0.00206183
-0.00252126 -0.000211483 -0.0020749
-0.00250764 -0.000198439 -0.00208657
-0.00249388 -0.00018604 -0.00209635
-0.00248014 -0.000174479 -0.00210379
-0.00246658 -0.000163907 -0.00210853
-0.00245341 -0.000154423 -0.00211028
-0.00244083 -0.000146081 -0.00210885
-0.00242905 -0.000138894 -0.0021041
-0.00241826 -0.000132839 -0.00209601
-0.00240855 -0.000127869 -0.00208463
-0.0024 -0.000123915 -0.00207008
-0.00239257 -0.000120891 -0.00205256
-0.00238621 -0.000118695 -0.00203232
-0.00238082 -0.000117206 -0.00200968
-0.00237624 -0.000116294 -0.00198503
-0.00237232 -0.000115817 -0.00195878
-0.00236885 -0.000115626 -0.00193136
-0.00236566 -0.000115564 -0.00190325
-0.00236254 -0.000115471 -0.00187494
-0.00235929 -0.000115191 -0.0018469
-0.00235571 -0.000114576 -0.00181959
-0.00235155 -0.000113548 -0.00174852
-0.00234657 -0.000112147 -0.00165522
-0.00234065 -0.000109866 -0.00157136
-0.00233357 -0.000106844 -0.00149491
-0.00232627 -0.000102739 -0.00142809
-0.00232175 -9.62817e-05 -0.0013735
-0.00231449 -8.99282e-05 -0.00132729
-0.00230659 -8.2056e-05 -0.0012919
-0.0022974 -7.34614e-05 -0.00126694
-0.00228719 -6.39773e-05 -0.00125138
-0.00227605 -5.37321e-05 -0.00124533
-0.00222395 -4.32125e-05 -0.00124558
-0.00215393 -3.26395e-05 -0.0012477
-0.00208216 -2.11656e-05 -0.00125188
-0.00200804 -9.77102e-06 -0.0012572
-0.00193336 1.89565e-06 -0.00126372
-0.0018589 1.34115e-05 -0.00127097
-0.00178518 2.48344e-05 -0.00127854
-0.0017131 3.59595e-05 -0.00128607
-0.00164345 4.66548e-05 -0.00129319
-0.00157702 5.6792e-05 -0.00129958
-0.00151446 6.62328e-05 -0.0013049
-0.00145639 7.48699e-05 -0.00130888
-0.00140333 8.26102e-05 -0.00131127
-0.00135566 8.93751e-05 -0.0013119
-0.00131358 9.51046e-05 -0.00131061
-0.00127722 9.97652e-05 -0.00130733
-0.00124656 0.000103348 -0.00130202
-0.00122147 0.000105867 -0.00129474
-0.00120169 0.000107357 -0.00128556
-0.00118681 0.00010788 -0.00127463
-0.00117629 0.000107517 -0.00126216
-0.00116945 0.000106366 -0.00124862
-0.00116544 0.000104474 -0.00120424
-0.00116335 0.000101962 -0.00114525
-0.00116256 9.91357e-05 -0.00108524
-0.00116187 9.60149e-05 -0.00102474
-0.00116056 9.28429e-05 -0.000965493
-0.00115767 8.97535e-05 -0.000908645
-0.00115235 8.69228e-05 -0.00085551
-0.00114376 8.45106e-05 -0.000807289
-0.00113115 8.26657e-05 -0.000765051
-0.00111392 8.15315e-05 -0.000729759
-0.00109165 8.12359e-05 -0.000702191
-0.0010641 8.1894e-05 -0.000682941
-0.00103127 8.36e-05 -0.000672391
-0.000993308 8.64229e-05 -0.000670427
-0.000950479 9.03914e-05 -0.000672353
-0.000903159 9.5503e-05 -0.000676489
-0.000851852 0.000101742 -0.000682686
-0.000797098 0.000109042 -0.000690708
-0.000739517 0.000117314 -0.000700273
-0.000679758 0.000126434 -0.00071104
-0.000618487 0.000136251 -0.000722627
-0.000556381 0.000146592 -0.000734617
-0.000494342 0.000157279 -0.000746576
-0.000434278 0.000168184 -0.000758087
-0.000376005 0.000179041 -0.000768681
-0.000320034 0.000189645 -0.00077792
-0.000266742 0.000199792 -0.000785409
-0.000216605 0.000209295 -0.000790779
-0.000170119 0.000217998 -0.000793728
-0.000127748 0.000225768 -0.000794008
-9.06725e-05 0.000232547 -0.000791461
-6.32997e-05 0.000238384 -0.000785987
-4.23184e-05 0.000243243 -0.000777688
-2.83437e-05 0.000246863 -0.000766306
-2.12762e-05 0.000249447 -0.000752199
-2.0397e-05 0.000250892 -0.000735376
-2.14816e-05 0.000251271 -0.000716156
-2.36309e-05 0.000250621 -0.000694792
-2.67317e-05 0.00024906 -0.000672072
-3.06303e-05 0.000246543 -0.000586023
-3.51933e-05 0.000243301 -0.000490239
-4.03491e-05 0.000239633 -0.000392532
-4.58794e-05 0.000235527 -0.000294684
-5.16911e-05 0.00023126 -0.000198901
-5.76036e-05 0.000226928 -0.000106741
-6.34757e-05 0.000222707 -2.00371e-05
-6.91547e-05 0.000218727 5.96086e-05
-7.45086e-05 0.000215114 0.000130692
-7.95036e-05 0.00021199 0.000191857
-8.44975e-05 0.000209539 0.000241858
-8.94637e-05 0.000207838 0.000279752
-9.4437e-05 0.000206904 0.00030504
-9.94535e-05 0.000206744 0.000317329
-0.000104534 0.000207301 0.000318008
-0.00010967 0.000208455 0.000314399
-0.000114833 0.000210068 0.000307588
-0.000120012 0.000211982 0.000297808
-0.000125217 0.000214007 0.000285337
-0.000130492 0.000215951 0.000270493
-0.0001359 0.000217611 0.00025363
-0.000141515 0.000218787 0.000235125
-0.000147402 0.000219277 0.000215368
-0.000153638 0.000218893 0.000194743
-0.000160317 0.00021747 0.00017362
-0.000167546 0.000214865 0.000152344
-0.000175421 0.000210963 0.000131226
-0.000184004 0.000205671 0.000110539
-0.000193322 0.000198922 9.05106e-05
-0.000203369 0.000190678 7.13172e-05
-0.000214121 0.000180939 5.30771e-05
-0.000225545 0.000169739 3.58504e-05
-0.000237609 0.000157156 1.9638e-05
-0.000250289 0.000143302 4.38391e-06
-0.000263563 0.000128328 -1.002e-05
-0.000277405 0.000112408 -2.37261e-05
-0.000291778 9.57393e-05 -3.69224e-05
-0.000306623 7.85297e-05 -4.98218e-05
-0.000321856 6.09913e-05 -6.26523e-05
-0.000337366 4.3334e-05 -7.56462e-05
-0.000353025 2.57617e-05 -8.90322e-05
-0.0003687 8.46964e-06 -0.000103026
-0.00038975 -8.50019e-06 -0.000117867
-0.000465294 -2.44178e-05 -0.000133985
-0.000537431 -3.96341e-05 -0.000151254
-0.000607487 -5.40523e-05 -0.0001863
-0.000660168 -6.80089e-05 -0.000257557
-0.000711721 -8.0953e-05 -0.000330178
-0.000756582 -9.26419e-05 -0.000408837
-0.000796714 -0.00010325 -0.000490471
-0.000831611 -0.000112524 -0.00057654
-0.000861416 -0.000120537 -0.000665461
-0.000886219 -0.000127244 -0.00075698
-0.000906358 -0.00013267 -0.000850133
-0.000922309 -0.000136851 -0.000943997
-0.000934647 -0.00013984 -0.00103745
-0.000944006 -0.000141718 -0.00112929
-0.000951125 -0.000142578 -0.00121823
-0.000956791 -0.000142537 -0.00130295
-0.000961804 -0.000141725 -0.00138208
-0.000966955 -0.000140286 -0.00145426
-0.000973025 -0.00013837 -0.00151818
-0.000980775 -0.000136136 -0.00157258
-0.000990926 -0.000133745 -0.00161632
-0.00100413 -0.000131356 -0.0016484
-0.00102091 -0.000129121 -0.00166796
-0.0010417 -0.00012719 -0.00167435
-0.00106676 -0.000125687 -0.00167219
-0.00109625 -0.000124709 -0.00166619
-0.00113015 -0.00012437 -0.00165632
-0.00116837 -0.000124739 -0.00164268
-0.00121075 -0.000125867 -0.00162546
-0.00125701 -0.000127772 -0.00160488
-0.00130684 -0.000130446 -0.0015813
-0.00135987 -0.000133851 -0.00155508
-0.00141569 -0.000137925 -0.0015267
-0.00147382 -0.000142583 -0.00149665
-0.0015337 -0.000147723 -0.00146547
-0.00159471 -0.000153234 -0.00143374
-0.00165615 -0.000158995 -0.00140205
-0.0017173 -0.000164881 -0.001371
-0.00177739 -0.000170771 -0.00134116
-0.00183569 -0.000176545 -0.0013131
-0.00189141 -0.000182163 -0.00124702
-0.00194379 -0.000187572 -0.00117597
-0.00199265 -0.000192431 -0.00111564
-0.00203718 -0.00019685 -0.00106588
-0.00207716 -0.000200674 -0.00102807
-0.00211227 -0.000203909 -0.0010027
-0.00214238 -0.000206529 -0.000990262
-0.00216746 -0.000208542 -0.000989697
-0.00218756 -0.000210004 -0.000994253
-0.00220288 -0.000210962 -0.00100299
-0.00221369 -0.000211484 -0.00101573
-0.00222034 -0.000211665 -0.00103225
-0.0022233 -0.000211605 -0.00105225
-0.00222347 -0.000211421 -0.00107541
-0.00222294 -0.000211171 -0.00112689
-0.00222208 -0.000210969 -0.00119101
-0.00222099 -0.000211066 -0.00125919
-0.00221988 -0.000211495 -0.00133057
-0.00221884 -0.00021245 -0.00140394
-0.00221612 -0.000214346 -0.00147811
-0.00221322 -0.000217263 -0.00155188
-0.00221124 -0.000220613 -0.00162502
-0.00220988 -0.000224858 -0.00169617
-0.00220935 -0.000229842 -0.0017647
-0.0022097 -0.000235635 -0.00182987
-0.00221094 -0.000242231 -0.00189099
-0.00221311 -0.000249591 -0.0019476
-0.00221619 -0.000257686 -0.00199928
-0.00222014 -0.000266411 -0.00204578
-0.00222861 -0.000275713 -0.00208689
-0.00225744 -0.000285302 -0.00212272
-0.0022879 -0.000295335 -0.00215318
-0.0023214 -0.00030565 -0.00217816
-0.00235541 -0.0003162 -0.00219811
-0.00238996 -0.000326831 -0.00221312
-0.00242421 -0.000337382 -0.00222378
-0.00245732 -0.000347724 -0.0022304
-0.00248852 -0.000357693 -0.00223354
-0.00251715 -0.000367123 -0.00223385
-0.00254272 -0.000375838 -0.00223287
-0.00256482 -0.00038367 -0.00223106
-0.00258312 -0.000390461 -0.00222868
-0.00259737 -0.000396064 -0.00222595
-0.00260738 -0.000400352 -0.00222307
-0.00261308 -0.000403221 -0.00222019
-0.0026145 -0.000404589 -0.00221744
-0.00261388 -0.000404386 -0.00221491
-0.00261245 -0.000402576 -0.00221265
-0.00261024 -0.000399187 -0.00221063
-0.00260732 -0.000394264 -0.00220879
-0.00260372 -0.000387902 -0.00220701
-0.00259947 -0.000380232 -0.00220515
-0.00259456 -0.000371417 -0.00220299
-0.00258898 -0.000361643 -0.00220033
-0.00258273 -0.000351109 -0.00219693
-0.00257584 -0.000340016 -0.00219255
-0.00256836 -0.000328558 -0.00218697
-0.00256038 -0.000316922 -0.00217996
-0.002552 -0.000305277 -0.00217135
-0.0025433 -0.000293783 -0.00216097
-0.00253438 -0.000282579 -0.0021487
-0.00252529 -0.000271783 -0.00213447
-0.0025161 -0.000261494 -0.00211824
-0.00250684 -0.000251785 -0.00210003
-0.00249753 -0.000242703 -0.00207992
-0.00248817 -0.00023427 -0.00205803
-0.00247874 -0.000226481 -0.00203453
-0.00246921 -0.000219304 -0.00200963
-0.00245954 -0.000212685 -0.00198361
-0.00244968 -0.000206544 -0.00195676
-0.00243957 -0.000200786 -0.00192941
-0.00242916 -0.000195295 -0.0019019
-0.00241839 -0.000189944 -0.0018746
-0.00240724 -0.000184593 -0.00184787
-0.00239272 -0.00017769 -0.0018158
-0.00237755 -0.000170296 -0.00178584
-0.00236173 -0.000162165 -0.00175855
-0.00234521 -0.00015319 -0.00168924
-0.00232789 -0.000143255 -0.00161335
-0.00230971 -0.000132137 -0.00155106
-0.00229053 -0.000119908 -0.00150229
-0.00227035 -0.000106601 -0.00146673
-0.0022492 -9.23093e-05 -0.00144363
-0.00222716 -7.71739e-05 -0.00143179
-0.0022085 -6.05135e-05 -0.00142981
-0.0021788 -4.31365e-05 -0.00143187
-0.00207507 -2.6914e-05 -0.00143444
-0.0019767 -1.05885e-05 -0.00143812
-0.00187783 4.81983e-06 -0.00144168
-0.00178131 1.93545e-05 -0.00144498
-0.00168852 3.29242e-05 -0.00144717
-0.00160038 4.53108e-05 -0.00144786
-0.00151813 5.63917e-05 -0.00144665
-0.0014426 6.61114e-05 -0.00144329
-0.00137436 7.44239e-05 -0.00143758
-0.00131375 8.13363e-05 -0.00142968
-0.00126076 8.68543e-05 -0.00139202
-0.00121505 9.11253e-05 -0.00134532
-0.00117592 9.42488e-05 -0.00129108
-0.00114247 9.63992e-05 -0.00123066
-0.00111364 9.77502e-05 -0.00116552
-0.00108831 9.85183e-05 -0.00109728
-0.0010653 9.89287e-05 -0.00102776
-0.00104344 9.9216e-05 -0.000958835
-0.00102155 9.9611e-05 -0.000892351
-0.000998485 0.000100335 -0.00083008
-0.000973162 0.000101585 -0.000773608
-0.000944593 0.000103532 -0.000724308
-0.000911927 0.000106315 -0.000683268
-0.000874467 0.000110033 -0.000651245
-0.000831719 0.00011475 -0.00062865
-0.000783495 0.000120492 -0.000615535
-0.000729977 0.000127254 -0.000611594
-0.000671676 0.000134991 -0.000612875
-0.000609357 0.000143616 -0.000616158
-0.000544015 0.000153027 -0.000621107
-0.000476762 0.000163075 -0.000627282
-0.000408805 0.000173586 -0.0006342
-0.000341334 0.000184355 -0.000641328
-0.000275443 0.00019516 -0.000648118
-0.000212078 0.000205761 -0.000654024
-0.000152041 0.000215923 -0.000658529
-9.60423e-05 0.000225426 -0.000661168
-4.472e-05 0.000234081 -0.000661552
1.36694e-06 0.000241738 -0.000659384
4.17232e-05 0.000248294 -0.000654474
7.59392e-05 0.000253699 -0.000646748
0.000103767 0.000257949 -0.000636246
0.000125145 0.000261086 -0.000623122
0.000140218 0.000263175 -0.000600037
0.000149423 0.000264207 -0.000533873
0.00015296 0.000264537 -0.000463451
0.000152785 0.000264199 -0.000388364
0.000151755 0.000263402 -0.000310972
0.000150093 0.000262315 -0.000233141
0.000147384 0.000261215 -0.00015698
0.000143617 0.000260379 -8.46785e-05
0.000140314 0.00025944 -1.71713e-05
0.000137313 0.000258738 4.33386e-05
0.000133814 0.000258442 9.56966e-05
0.000129427 0.000258763 0.000138232
0.000124252 0.000259604 0.000170564
0.000118324 0.000260889 0.000192243
0.000111688 0.00026246 0.000203368
0.000104394 0.000264106 0.000204879
9.65146e-05 0.000265559 0.000202544
8.81315e-05 0.000266543 0.000197898
7.9327e-05 0.000266771 0.000191242
7.0153e-05 0.000265977 0.000182869
6.06112e-05 0.000263928 0.00017307
5.06346e-05 0.00026045 0.000162106
4.00817e-05 0.000255427 0.000150189
2.87726e-05 0.000248806 0.000137482
1.65468e-05 0.000240576 0.000124098
3.30823e-06 0.000230763 0.0001101
-1.09619e-05 0.000219419 9.5506e-05
-2.62381e-05 0.00020663 8.02864e-05
-4.24878e-05 0.000192519 6.43681e-05
-5.96733e-05 0.000177242 4.76423e-05
-7.77461e-05 0.000160975 2.9976e-05
-9.66523e-05 0.000143913 1.12236e-05
-0.000116351 0.000126258 -8.76176e-06
-0.000136831 0.00010822 -3.0115e-05
-0.000158093 8.99954e-05 -5.29443e-05
-0.000180095 7.1751e-05 -7.7314e-05
-0.000202716 5.36052e-05 -0.000103232
-0.000225771 3.56318e-05 -0.00013065
-0.000277998 1.69382e-05 -0.000159217
-0.000361171 -1.51121e-06 -0.000189077
-0.00044016 -1.99169e-05 -0.00022033
-0.000517431 -3.74991e-05 -0.000261827
-0.000590582 -5.42246e-05 -0.000380074
-0.0006593 -7.01997e-05 -0.000498374
-0.000722887 -8.51708e-05 -0.000619822
-0.000780942 -9.92103e-05 -0.00074145
-0.000833307 -0.000112199 -0.000863006
-0.000879961 -0.000124122 -0.000982811
-0.000921139 -0.00013494 -0.00109982
-0.000957242 -0.000144639 -0.00121249
-0.000988731 -0.000153209 -0.00131948
-0.00101611 -0.000160661 -0.00141935
-0.00103997 -0.000167018 -0.00151072
-0.00106101 -0.000172307 -0.00159225
-0.00108001 -0.000176566 -0.00166268
-0.00109774 -0.000179844 -0.00172088
-0.00111489 -0.000182207 -0.00176587
-0.001132 -0.000183732 -0.0017968
-0.00114936 -0.000184513 -0.00181301
-0.00116722 -0.000184646 -0.00181503
-0.00118583 -0.000184193 -0.00181084
-0.0012055 -0.000183232 -0.00180223
-0.00122651 -0.000181828 -0.00178937
-0.00124899 -0.000180044 -0.00177244
-0.00127285 -0.000177941 -0.00175174
-0.00129774 -0.00017558 -0.00172762
-0.0013232 -0.00017301 -0.00170053
-0.0013487 -0.00017027 -0.00167096
-0.00137362 -0.000167388 -0.00163945
-0.00139725 -0.000164378 -0.00160661
-0.00141882 -0.000161245 -0.00157305
-0.00143756 -0.000157982 -0.00153941
-0.0014527 -0.000154569 -0.00150634
-0.00146324 -0.000150992 -0.00147447
-0.00146552 -0.000147385 -0.00144434
-0.0014643 -0.000143575 -0.00141074
-0.0014615 -0.000139637 -0.00132981
-0.00145739 -0.000135165 -0.00126095
-0.00145213 -0.00013018 -0.00120349
-0.00144592 -0.00012454 -0.00115878
-0.00143891 -0.000118268 -0.00112702
-0.00143122 -0.000111383 -0.00110831
-0.00142292 -0.000103988 -0.00110217
-0.00141405 -9.62276e-05 -0.00110399
-0.00140467 -8.82973e-05 -0.00110908
-0.00139487 -8.03785e-05 -0.00111704
-0.0013848 -7.26688e-05 -0.00112739
-0.00137462 -6.53575e-05 -0.0011396
-0.00136454 -5.86292e-05 -0.00115312
-0.00135471 -5.26578e-05 -0.0011674
-0.00134527 -4.75981e-05 -0.0011819
-0.00133633 -4.3568e-05 -0.00120438
-0.00132794 -4.06499e-05 -0.00123273
-0.00132007 -3.89592e-05 -0.00125878
-0.00131264 -3.84956e-05 -0.00128189
-0.0013055 -3.92445e-05 -0.00130167
-0.00129849 -4.1124e-05 -0.00131786
-0.00129141 -4.3991e-05 -0.00133046
-0.00128409 -4.76405e-05 -0.00133963
-0.00127634 -5.18137e-05 -0.00134571
-0.00126796 -5.6208e-05 -0.00134918
-0.00125987 -6.0322e-05 -0.00135065
-0.00125617 -6.25813e-05 -0.00135194
-0.00125071 -6.46894e-05 -0.00135166
-0.00123705 -6.57989e-05 -0.00135121
-0.00121126 -6.5984e-05 -0.00135038
-0.00118196 -6.48106e-05 -0.00134958
-0.0011491 -6.22149e-05 -0.00134875
-0.0011127 -5.80481e-05 -0.00134797
-0.00107278 -5.22644e-05 -0.00134716
-0.00102941 -4.48569e-05 -0.00134619
-0.000982704 -3.58666e-05 -0.00134488
-0.000932916 -2.53827e-05 -0.00134298
-0.000880465 -1.35485e-05 -0.00134019
-0.00082592 -4.97498e-07 -0.00133623
-0.000769959 1.34232e-05 -0.00133078
-0.000713046 2.81465e-05 -0.00132339
-0.000655889 4.34756e-05 -0.00131379
-0.000599053 5.91839e-05 -0.00130162
-0.00054311 7.50458e-05 -0.00128669
-0.000488617 9.08277e-05 -0.00125335
-0.000436062 0.000106241 -0.00118975
-0.000386135 0.000121303 -0.00111673
-0.000339143 0.000135774 -0.00103412
-0.000295561 0.000149594 -0.000942349
-0.000255699 0.000162676 -0.000842078
-0.000219814 0.000174982 -0.000734275
-0.000188006 0.000186492 -0.000620133
-0.000160198 0.000197202 -0.000501093
-0.000136145 0.000207126 -0.000378757
-0.000115484 0.000216291 -0.000254879
-9.77712e-05 0.000224734 -0.000131325
-8.25428e-05 0.000232506 -1.00223e-05
-6.93615e-05 0.000239668 0.000107086
-5.78315e-05 0.000246286 0.000218098
-4.75797e-05 0.000252421 0.0003212
-3.82359e-05 0.000258128 0.000414723
-2.94232e-05 0.000263442 0.000497185
-2.05139e-05 0.00026802 0.000625718
-1.0903e-05 0.000271517 0.000986776
-1.54873e-06 0.000275382 0.00123031
8.86005e-06 0.000278628 0.00142434
1.96442e-05 0.000281782 0.00153607
3.11346e-05 0.000284523 0.00157179
4.30157e-05 0.000286874 0.00156886
5.52015e-05 0.00028858 0.00156206
6.7071e-05 0.000289704 0.00155134
7.80941e-05 0.000290179 0.00153708
8.75131e-05 0.000289989 0.0015196
9.37069e-05 0.000289152 0.00149929
9.62428e-05 0.000287582 0.00147658
9.58599e-05 0.000285184 0.00145199
9.43578e-05 0.000281828 0.00142606
9.17872e-05 0.000277414 0.00139929
8.81882e-05 0.000271843 0.00137219
8.35968e-05 0.000265059 0.00134521
7.80385e-05 0.000257042 0.00131875
7.15202e-05 0.000247815 0.00129315
6.40232e-05 0.000237448 0.00126867
5.55031e-05 0.000226059 0.00124547
4.58957e-05 0.000213805 0.00122369
3.51172e-05 0.000200873 0.00120335
2.30818e-05 0.00018747 0.00118444
9.75322e-06 0.000173794 0.00116691
-4.81019e-06 0.000160019 0.00115067
-2.04633e-05 0.000146289 0.00113564
-3.70094e-05 0.000132721 0.00112171
-5.42305e-05 0.00011941 0.00110877
-7.19054e-05 0.000106431 0.00109671
-8.98193e-05 9.38462e-05 0.0010854
-0.000107772 8.17011e-05 0.00107475
-0.000125586 7.00325e-05 0.00106465
-0.00014312 5.88701e-05 0.00105499
-0.000160285 4.82418e-05 0.00104569
-0.000177058 3.81946e-05 0.00102372
-0.000193474 2.88439e-05 0.000978685
-0.000209501 2.00069e-05 0.000934873
-0.00022512 1.17626e-05 0.00089147
-0.00024019 4.00581e-06 0.0008484
-0.000264872 -3.39342e-06 0.000805612
-0.000325026 -1.03674e-05 0.000762242
-0.000364823 -1.82656e-05 0.000723298
-0.000403319 -2.50282e-05 0.000680826
-0.000437832 -3.15296e-05 0.000640456
-0.000467866 -3.74109e-05 0.000598546
-0.000493301 -4.26902e-05 0.000556622
-0.000514015 -4.73014e-05 0.000514139
-0.000530112 -5.12175e-05 0.000471422
-0.000541775 -5.4382e-05 0.000428614
-0.000549322 -5.67682e-05 0.000386088
-0.000553121 -5.83615e-05 0.000344352
-0.000553743 -5.91592e-05 0.000303981
-0.000553256 -5.91662e-05 0.000265709
-0.00055225 -5.84286e-05 0.000230368
-0.000550786 -5.70136e-05 0.000198934
-0.000548922 -5.50033e-05 0.00017239
-0.000546716 -5.24884e-05 0.000151752
-0.000544236 -4.95622e-05 0.000137976
-0.000541549 -4.63179e-05 0.000131943
-0.000538594 -4.28645e-05 0.000132352
-0.000535359 -3.92855e-05 0.000134769
-0.000532056 -3.56054e-05 0.000139096
-0.000528908 -3.1837e-05 0.00014534
-0.000526093 -2.79944e-05 0.000153475
-0.000523706 -2.41023e-05 0.000163438
-0.00052177 -2.0197e-05 0.000175132
-0.000520233 -1.63258e-05 0.000188425
-0.000518987 -1.25465e-05 0.000203151
-0.00051791 -8.89819e-06 0.0002191
-0.000516901 -5.4066e-06 0.000236044
-0.000515912 -2.06763e-06 0.000253702
-0.00051491 1.12624e-06 0.000271776
-0.000513862 4.10142e-06 0.00030953
-0.000512766 7.01094e-06 0.00034948
-0.000511651 9.88949e-06 0.000388457
-0.000510569 1.27967e-05 0.000425492
-0.000509589 1.57642e-05 0.000460096
-0.000508803 1.88283e-05 0.00049166
-0.000508298 2.19977e-05 0.000519754
-0.000508175 2.52648e-05 0.000544018
-0.000508536 2.85904e-05 0.000564218
-0.000509493 3.19028e-05 0.00058026
-0.000511138 3.51078e-05 0.000592153
-0.000513576 3.80856e-05 0.000600018
-0.000515702 4.04843e-05 0.000604147
-0.000516558 4.17611e-05 0.000605414
-0.000518238 4.26011e-05 0.000604288
-0.000520403 4.25642e-05 0.000601895
-0.000523102 4.16864e-05 0.000598181
-0.000526273 3.9864e-05 0.000593298
-0.000529888 3.70553e-05 0.000587321
-0.000533897 3.32325e-05 0.00058031
-0.000538222 2.84013e-05 0.000572314
-0.000542776 2.25953e-05 0.000563353
-0.000547454 1.58811e-05 0.000553426
-0.000552106 8.38042e-06 0.000542498
-0.000566104 1.9002e-07 0.000530538
-0.00058317 -8.74915e-06 0.000517465
-0.000596319 -1.81289e-05 0.000503341
-0.000605387 -2.77338e-05 0.000488002
-0.000610505 -3.72571e-05 0.000471739
-0.000611988 -4.62504e-05 0.000401365
-0.00061158 -5.46065e-05 0.000318157
-0.000610557 -6.20205e-05 0.000228438
-0.000608972 -6.83438e-05 0.000133885
-0.000606874 -7.33948e-05 3.48508e-05
-0.000604289 -7.71077e-05 -6.73389e-05
-0.000601266 -7.94437e-05 -0.000171255
-0.000597893 -8.04223e-05 -0.000275056
-0.000594298 -8.01062e-05 -0.000376668
-0.000590616 -7.86086e-05 -0.000473834
-0.000586955 -7.60921e-05 -0.000564121
-0.000583397 -7.27565e-05 -0.00064505
-0.000580015 -6.8823e-05 -0.000714173
-0.00057689 -6.4519e-05 -0.000769218
-0.000574109 -6.00637e-05 -0.000808162
-0.000571761 -5.56568e-05 -0.000829325
-0.000569922 -5.14713e-05 -0.000832506
-0.000568638 -4.76133e-05 -0.000828282
-0.000567909 -4.41896e-05 -0.000819401
-0.000567696 -4.1266e-05 -0.000805968
-0.000567933 -3.88633e-05 -0.000788193
-0.000568553 -3.69486e-05 -0.00076643
-0.000569493 -3.54418e-05 -0.000741153
-0.00057069 -3.42206e-05 -0.000712945
-0.000572059 -3.3136e-05 -0.000682466
-0.000573474 -3.20267e-05 -0.000650437
-0.000574792 -3.07259e-05 -0.000617609
-0.000575877 -2.9067e-05 -0.00057873
-0.00057657 -2.71633e-05 -0.000467304
-0.000576842 -2.44928e-05 -0.00036166
-0.000576545 -2.11209e-05 -0.000261855
-0.000575558 -1.68963e-05 -0.000170685
-0.000573715 -1.18568e-05 -8.92995e-05
-0.000571097 -5.96487e-06 -1.8885e-05
-0.000567597 6.58438e-07 3.96691e-05
-0.0005632 7.91331e-06 8.6423e-05
-0.000558033 1.57454e-05 0.000121033
-0.000552338 2.39967e-05 0.000144035
-0.000545095 3.25042e-05 0.000156125
-0.000531545 4.10315e-05 0.000158468
-0.000517139 4.93317e-05 0.00015653
-0.000502963 5.71793e-05 0.00015252
-0.000489423 6.44326e-05 0.000146762
-0.000477012 7.08643e-05 0.00013974
-0.000466086 7.62691e-05 0.000131865
-0.000457006 8.04799e-05 0.000123539
-0.000450084 8.33513e-05 0.000115129
-0.000445584 8.47767e-05 0.000106942
-0.000443693 8.46865e-05 9.92198e-05
-0.000444037 8.30475e-05 9.21332e-05
-0.000445558 7.98445e-05 8.57858e-05
-0.000448013 7.50963e-05 8.02014e-05
-0.000451254 6.89009e-05 7.53045e-05
-0.00045511 6.13982e-05 7.09476e-05
-0.000459425 5.2787e-05 6.69055e-05
-0.000464766 4.3476e-05 6.28374e-05
-0.000470343 3.35411e-05 5.8514e-05
-0.000476039 2.33089e-05 5.35839e-05
-0.000481707 1.30201e-05 4.7759e-05
-0.0004872 2.96087e-06 4.07223e-05
-0.00050209 -6.66593e-06 3.21836e-05
-0.000524489 -1.54356e-05 2.19038e-05
-0.000544535 -2.34127e-05 9.96513e-06
-0.000562426 -3.03113e-05 -3.77415e-06
-0.000579042 -3.598e-05 -1.92475e-05
-0.000594671 -4.03159e-05 -6.47081e-05
-0.000609905 -4.32873e-05 -0.000133631
-0.000625026 -4.50993e-05 -0.000205899
-0.00062772 -4.65e-05 -0.000279444
-0.000630489 -4.6982e-05 -0.000353055
-0.00063274 -4.67855e-05 -0.00042554
-0.000636025 -4.59503e-05 -0.000494933
-0.000641114 -4.47698e-05 -0.000559112
-0.000648528 -4.34239e-05 -0.000616557
-0.000658764 -4.21692e-05 -0.000665295
-0.000672043 -4.1232e-05 -0.000703949
-0.000688509 -4.08304e-05 -0.000731151
-0.000708107 -4.11449e-05 -0.000746047
-0.000730651 -4.23183e-05 -0.000748582
-0.000755948 -4.44103e-05 -0.000745601
-0.000783816 -4.74309e-05 -0.00073926
-0.000813982 -5.13367e-05 -0.000729827
-0.000846045 -5.60292e-05 -0.000717659
-0.000879447 -6.13627e-05 -0.000703231
-0.000912584 -6.72001e-05 -0.000687081
-0.000943783 -7.33866e-05 -0.000669795
-0.000973167 -7.95932e-05 -0.000652093
-0.00100071 -8.55308e-05 -0.00063465
-0.00102642 -9.09001e-05 -0.000618151
-0.00105033 -9.54318e-05 -0.000603218
-0.00107252 -9.89019e-05 -0.000590393
-0.00109303 -0.000101154 -0.000571289
-0.00111176 -0.000102159 -0.000544847
-0.00112875 -0.000101806 -0.000529248
-0.00113959 -0.000100411 -0.000523928
-0.00114 -9.84457e-05 -0.000525111
-0.00113975 -9.53022e-05 -0.000529186
-0.00113866 -9.15067e-05 -0.000535459
-0.00113709 -8.70778e-05 -0.000554445
-0.00113518 -8.22933e-05 -0.00058579
-0.00113312 -7.74343e-05 -0.000620707
-0.00113108 -7.27503e-05 -0.000657764
-0.00112925 -6.85076e-05 -0.000695378
-0.00112782 -6.49468e-05 -0.000732068
-0.00112696 -6.22852e-05 -0.000766445
-0.00112685 -6.07054e-05 -0.000797313
-0.0011276 -6.03464e-05 -0.000823702
-0.00112931 -6.13023e-05 -0.000844917
-0.00113205 -6.36193e-05 -0.000860554
-0.00113576 -6.72784e-05 -0.000870532
-0.0011413 -7.21919e-05 -0.000875098
-0.00116799 -7.81398e-05 -0.000875295
-0.00119808 -8.51833e-05 -0.000873808
-0.00123152 -9.30558e-05 -0.000871246
-0.00126598 -0.000101706 -0.000867921
-0.00129991 -0.000110908 -0.000864284
-0.00133197 -0.000120441 -0.000860765
-0.00136102 -0.000130035 -0.000857843
-0.00138621 -0.0001394 -0.000855987
-0.00140703 -0.000148234 -0.000855638
-0.00142299 -0.00015625 -0.000857182
-0.00143347 -0.000163204 -0.000860918
-0.0014377 -0.000168904 -0.000867046
-0.0014371 -0.000173182 -0.000875495
-0.00143489 -0.000175825 -0.000908709
-0.00143099 -0.000176874 -0.000949227
-0.00142536 -0.000176287 -0.000996289
-0.00141794 -0.000174144 -0.00104857
-0.00140878 -0.000170516 -0.00110477
-0.00139799 -0.000165519 -0.00116327
-0.00138575 -0.000159278 -0.00122226
-0.00137231 -0.000151933 -0.00127982
-0.00135795 -0.000143641 -0.00133395
-0.00134294 -0.000134572 -0.00138263
-0.00132756 -0.000124894 -0.00142389
-0.00131213 -0.000114774 -0.00145588
-0.00129696 -0.000104366 -0.00147692
-0.00128231 -9.38241e-05 -0.00148555
-0.00126839 -8.32928e-05 -0.00148388
-0.00125531 -7.28876e-05 -0.00147734
-0.00122464 -6.28729e-05 -0.00146577
-0.00118503 -5.34138e-05 -0.00144902
-0.00115878 -4.34442e-05 -0.00142784
-0.00113475 -3.42569e-05 -0.00140167
-0.00111484 -2.53493e-05 -0.00137129
-0.00109856 -1.69982e-05 -0.00133685
-0.00108557 -9.1179e-06 -0.00129907
-0.00107554 -1.69844e-06 -0.00125849
-0.00106782 5.29177e-06 -0.00121588
-0.00106143 1.15947e-05 -0.00105959
-0.00105549 1.75143e-05 -0.000873497
-0.00104941 2.33109e-05 -0.000686766
-0.00104199 2.90228e-05 -0.000504691
-0.00103244 3.47293e-05 -0.000329342
-0.00102019 4.05842e-05 -0.000164334
-0.00100475 4.66841e-05 -1.21075e-05
-0.000985851 5.31489e-05 0.000124723
-0.000963379 6.00671e-05 0.00024402
-0.00093732 6.75032e-05 0.000344209
-0.00090778 7.549e-05 0.000424123
-0.000874986 8.40189e-05 0.000483203
-0.000839272 9.30376e-05 0.00052141
-0.000800994 0.00010245 0.000539261
-0.000760479 0.000112113 0.000540126
-0.000718025 0.000121809 0.000535578
-0.000674032 0.00013135 0.000527342
-0.000628988 0.000140525 0.000515975
-0.000583482 0.000149138 0.000502062
-0.000538108 0.000156996 0.000486229
-0.000493435 0.000163925 0.000469103
-0.000450049 0.000169785 0.000451298
-0.000408612 0.000174478 0.000433388
-0.00036983 0.000177955 0.000415893
-0.000334365 0.000180206 0.000399266
-0.000302756 0.000181262 0.00038389
-0.000275345 0.000181181 0.00037007
-0.000252179 0.000180045 0.000358032
-0.000232992 0.000177953 0.000347927
-0.000217285 0.000175028 0.000339825
-0.000204433 0.000171416 0.000333715
-0.000193763 0.000167297 0.000329513
-0.000184635 0.000162878 0.000327068
-0.000176492 0.000158389 0.000326172
-0.000168849 0.000154076 0.000326579
-0.000161261 0.000150186 0.000328024
-0.000153312 0.000146952 0.000330235
-0.000144646 0.00014459 0.000332961
-0.000134993 0.000143283 0.000335976
-0.000124197 0.000143178 0.000339103
-0.000112222 0.00014438 0.000342218
-9.91357e-05 0.000146941 0.00034526
-8.51062e-05 0.000150858 0.000348239
-7.06215e-05 0.000156088 0.000351229
-5.86755e-05 0.000162705 0.000354298
-4.95796e-05 0.000170497 0.000357675
-4.35513e-05 0.000179201 0.000361645
-4.05677e-05 0.000188473 0.00036654
-4.03746e-05 0.000197944 0.000372696
-4.13207e-05 0.000207224 0.000380443
-4.32566e-05 0.000215957 0.000390051
-4.62974e-05 0.000223808 0.000401726
-5.05911e-05 0.000230493 0.00041558
-5.63235e-05 0.000235778 0.000431622
-6.3703e-05 0.000239488 0.000449746
-7.29233e-05 0.0002415 0.000469735
-8.41468e-05 0.000241738 0.000491261
-9.74966e-05 0.000240168 0.000513898
-0.000113027 0.000236788 0.000536912
-0.000130665 0.000231434 0.000620844
-0.000150287 0.000224311 0.000717237
-0.000171672 0.000215472 0.000809282
-0.000194522 0.000205008 0.000893016
-0.000218532 0.000192974 0.000965826
-0.000243432 0.000179519 0.00102455
-0.000268988 0.00016478 0.00106645
-0.000295011 0.000148931 0.00108864
-0.000321296 0.000132134 0.00109067
-0.000340367 0.000112739 0.00108549
-0.000384748 9.33984e-05 0.00107371
-0.000478589 7.43426e-05 0.00105504
-0.000566017 5.48648e-05 0.00102978
-0.00064919 3.57751e-05 0.000997472
-0.000726858 1.69253e-05 0.000958544
-0.000798733 -1.50917e-06 0.00091316
-0.000864805 -1.9635e-05 0.000861737
-0.000924797 -3.72771e-05 0.000804992
-0.000979063 -5.43697e-05 0.000743713
-0.00102823 -7.09249e-05 0.000678806
-0.0010733 -8.67322e-05 0.000476321
-0.00111599 -0.000101488 0.000155796
-0.00115596 -0.000116228 -0.000165296
-0.00119602 -0.000130503 -0.00048488
-0.00123686 -0.000144587 -0.00079814
-0.00128001 -0.000158541 -0.00110023
-0.00132669 -0.000172461 -0.00138713
-0.00137789 -0.000186456 -0.00165428
-0.00143444 -0.000200599 -0.00189829
-0.00149688 -0.000214974 -0.00211569
-0.00156571 -0.000229626 -0.00230414
-0.0016417 -0.000244004 -0.00269513
-0.00172564 -0.000257626 -0.0032694
-0.00181374 -0.000272737 -0.00364352
-0.00190857 -0.000287667 -0.0039322
-0.00200719 -0.000303215 -0.00409139
-0.00210969 -0.00031879 -0.00414268
-0.00221469 -0.000334355 -0.00413904
-0.00232166 -0.000349422 -0.0041308
-0.00242919 -0.000363952 -0.00411822
-0.0025359 -0.000377724 -0.00410216
-0.0026098 -0.000392162 -0.00408284
-0.00267758 -0.000404373 -0.0040622
-0.00284289 -0.000414056 -0.00404114
-0.00354578 -0.000417042 -0.00402223
-0.00415758 -0.000420524 -0.00400299
-0.00457041 -0.000424614 -0.00398254
-0.00502818 -0.00042564 -0.00396433
-0.00535325 -0.000427227 -0.00394633
-0.00561612 -0.000427523 -0.00393006
-0.00581711 -0.000426941 -0.00391557
-0.00592021 -0.000426102 -0.00390274
-0.00597313 -0.000424295 -0.00389231
-0.00597517 -0.00042204 -0.00388402
-0.00597364 -0.0004187 -0.00387833
-0.00597098 -0.000414597 -0.0038751
-0.00596744 -0.000409844 -0.0038742
-0.00596322 -0.000404652 -0.00387539
-0.00595856 -0.000399214 -0.0038784
-0.00595365 -0.000393794 -0.00388285
-0.00594877 -0.000388603 -0.00388839
-0.00594414 -0.00038386 -0.00389464
-0.00593998 -0.000379781 -0.00390122
-0.0059365 -0.000376551 -0.00390778
-0.00593388 -0.00037433 -0.003914
-0.00593224 -0.00037325 -0.00391963
-0.0059317 -0.000373401 -0.00392448
-0.00593232 -0.000374836 -0.00392842
-0.00593411 -0.000377566 -0.0039314
-0.00593704 -0.00038156 -0.00393347
-0.00594104 -0.000386747 -0.00393473
-0.005946 -0.00039302 -0.00393535
-0.00595176 -0.000400236 -0.00393558
-0.00595784 -0.000408288 -0.00393568
-0.00596301 -0.000416873 -0.00393605
-0.00596738 -0.000425694 -0.00393705
-0.0059711 -0.000434973 -0.00393872
-0.00597376 -0.000528627 -0.0039412
-0.00597315 -0.000946476 -0.00393909
-0.00597213 -0.00128993 -0.00394191
-0.00596928 -0.00159477 -0.00394676
-0.00596433 -0.00190431 -0.00395336
-0.00595789 -0.00213742 -0.00396397
-0.00594936 -0.00233684 -0.00397691
-0.00593905 -0.00246915 -0.00399325
-0.0059269 -0.00252477 -0.00401233
-0.00591305 -0.00253016 -0.00403413
-0.00589725 -0.00252776 -0.00405737
-0.00587969 -0.00252319 -0.0040816
-0.00586052 -0.00251661 -0.00410608
-0.00583996 -0.00250799 -0.00412669
-0.00581825 -0.00249694 -0.00414698
-0.0057955 -0.00248398 -0.00447659
-0.00577192 -0.00246941 -0.00483865
-0.00574749 -0.00245394 -0.0051342
-0.0057225 -0.00243752 -0.00536565
-0.0056971 -0.00242059 -0.00550273
-0.00567161 -0.00240331 -0.00554535
-0.00564628 -0.00238576 -0.00554061
-0.00562137 -0.00236795 -0.00552998
-0.00559701 -0.00235011 -0.00551281
-0.00557332 -0.00233232 -0.00548906
-0.00555036 -0.00231467 -0.00545868
-0.00553242 -0.0022964 -0.00542209
-0.00542501 -0.00227731 -0.00537986
-0.0053104 -0.00225964 -0.00533103
-0.00521008 -0.00224224 -0.00527756
-0.00512511 -0.00222541 -0.0052192
-0.00504868 -0.00220929 -0.00515721
-0.00498242 -0.0021937 -0.00509246
-0.00492361 -0.00217874 -0.00502593
-0.004869 -0.00216514 -0.0046284
-0.0048149 -0.00215288 -0.00411803
-0.00476643 -0.0021405 -0.00361805
-0.00471401 -0.0021287 -0.00313328
-0.00466036 -0.00211707 -0.00266783
-0.00460129 -0.00210562 -0.00222989
-0.00453559 -0.00209425 -0.00182447
-0.00446194 -0.00206162 -0.00145705
-0.00438256 -0.00200174 -0.00113858
-0.00428881 -0.00194353 -0.000860071
-0.00418544 -0.0018834 -0.000632782
-0.0040689 -0.00182307 -0.000453512
-0.00394083 -0.00176164 -0.000325261
-0.00380103 -0.00169989 -0.000246662
-0.00365093 -0.00163781 -0.000217252
-0.00349157 -0.0015761 -0.000219549
-0.00332434 -0.00151586 -0.000227616
-0.00315137 -0.00145741 -0.000240815
-0.00297466 -0.00140152 -0.000258498
-0.00279662 -0.0013488 -0.00027994
-0.00261968 -0.00129995 -0.000304377
-0.00244641 -0.00125555 -0.000330994
-0.00227938 -0.00121615 -0.000358965
-0.00212106 -0.0011822 -0.000387472
-0.00197373 -0.00115406 -0.000415731
-0.00186513 -0.00113589 -0.000437662
-0.00176569 -0.00112165 -0.000458614
-0.00167606 -0.00111135 -0.00047827
-0.00159667 -0.00110497 -0.000496352
-0.00152776 -0.0011024 -0.000512623
-0.00146934 -0.00110259 -0.000526893
-0.00142144 -0.00110347 -0.000539056
-0.00138353 -0.00110497 -0.00054899
-0.001355 -0.00110703 -0.000556639
-0.00133506 -0.00110954 -0.000561996
-0.0013227 -0.00111244 -0.000565092
-0.0013168 -0.00111562 -0.000566003
-0.0013159 -0.00111897 -0.000564842
-0.00131618 -0.0011224 -0.000561749
-0.00131667 -0.00112579 -0.000556893
-0.00131723 -0.00112899 -0.000550498
-0.00131772 -0.00113188 -0.000542774
-0.00131801 -0.00113431 -0.000533963
-0.00131796 -0.00113616 -0.000524302
-0.00131744 -0.00113731 -0.000514026
-0.00131635 -0.00113764 -0.000503364
-0.00130309 -0.0011371 -0.000492509
-0.00127267 -0.00113578 -0.000481544
-0.00123486 -0.00113328 -0.000470816
-0.00118535 -0.00112978 -0.000460365
-0.0011326 -0.00112487 -0.000450391
-0.00109 -0.00111819 -0.000441171
-0.00102654 -0.0011108 -0.000432311
-0.000955667 -0.00110194 -0.000423794
-0.000875237 -0.00105319 -0.000416242
-0.000787144 -0.000999197 -0.00040908
-0.000688191 -0.000941222 -0.000401871
-0.000584054 -0.000878581 -0.000394955
-0.000472853 -0.000812993 -0.000387831
-0.000357469 -0.000744468 -0.000380467
-0.000239076 -0.000673696 -0.000372665
-0.000119172 -0.000601484 -0.0003642
4.05802e-07 -0.000528352 -0.000354924
0.000118203 -0.000455125 -0.000344631
0.000232478 -0.000382451 -0.000333166
0.000331487 -0.00031445 -0.00031997
0.000426639 -0.000250035 -0.000305306
0.000636811 -0.000186569 -0.000289377
0.000943454 -0.000135131 -0.000270849
0.00115499 -7.67983e-05 -0.00025211
0.00134927 -2.43254e-05 -0.000233735
0.00152032 2.23208e-05 -0.00020112
0.0016547 6.63729e-05 -3.06569e-05
0.0017722 0.000103559 0.00015062
0.00185933 0.000137238 0.000338316
0.00192059 0.000165272 0.000532547
0.00196161 0.000187895 0.000731897
0.00197674 0.000205714 0.000933901
0.00197636 0.000218465 0.00113703
0.00197528 0.000225335 0.00134028
0.00197342 0.000227245 0.00153642
0.00197086 0.00022637 0.00184804
0.00196767 0.000224036 0.00231137
0.0019636 0.000221718 0.00270249
0.0019589 0.000218581 0.00308604
0.00195356 0.000215079 0.0034434
0.00194761 0.000211343 0.00376248
0.00194111 0.000207343 0.00404477
0.00193405 0.000203286 0.00427944
0.00192647 0.000199191 0.00446728
0.00191838 0.000195129 0.00460744
0.00190978 0.00019114 0.00469713
0.00190069 0.000187234 0.00473368
0.0018911 0.000183382 0.00473183
0.00188108 0.000179385 0.00472712
0.00187062 0.000175266 0.0047192
0.00185973 0.000170924 0.00470831
0.00184844 0.000166273 0.00469454
0.00183674 0.000161221 0.00467808
0.00182464 0.000155653 0.00465914
0.00181218 0.000149457 0.00463795
0.00179941 0.000142511 0.00461478
0.00178639 0.000134704 0.00458988
0.00177316 0.000125939 0.00456352
0.00175977 0.000116138 0.00453597
0.00174627 0.000105243 0.00450745
0.00173269 9.32284e-05 0.0044782
0.00171905 8.00982e-05 0.00444841
0.00170533 6.58921e-05 0.00441825
0.00169152 5.06796e-05 0.00438785
0.0016776 3.45563e-05 0.00435732
0.00166358 1.76378e-05 0.00432675
0.00164946 5.72437e-08 0.0042962
0.0016353 -1.80383e-05 0.00426571
0.00162113 -3.6489e-05 0.00423531
0.001607 -5.5126e-05 0.00420492
0.0015929 -7.35464e-05 0.0040696
0.00157877 -9.09596e-05 0.00376357
0.00156491 -0.000108673 0.00348455
0.00155116 -0.000125548 0.0031928
0.001538 -0.000141825 0.00290202
0.0014473 -0.000156504 0.00260613
0.00127896 -0.000169152 0.00230196
0.00112669 -0.000205095 0.00200346
0.000976679 -0.00026298 0.00171169
0.000852063 -0.000315215 0.00141415
0.000785306 -0.000374164 0.0011347
0.000697652 -0.000420974 0.000854256
0.000631185 -0.000465453 0.000573998
0.000571182 -0.000505741 0.000309553
0.000519512 -0.000539643 4.47237e-05
0.000478632 -0.000570176 -0.000204709
0.000445141 -0.000595236 -0.000444959
0.000419701 -0.000615807 -0.00067161
0.000401857 -0.000632132 -0.000882305
0.000390014 -0.000644034 -0.00107641
0.000383638 -0.000651986 -0.00125124
0.000381453 -0.00065611 -0.00140528
0.000381542 -0.00065685 -0.00153663
0.000381789 -0.000656288 -0.00164345
0.00038213 -0.000655138 -0.00172398
0.000382473 -0.000653466 -0.001777
0.000382742 -0.00065136 -0.0018012
0.000382855 -0.000648891 -0.00180159
0.000382722 -0.000646051 -0.0017975
0.000382279 -0.000642935 -0.0017901
0.000381473 -0.000639621 -0.00177945
0.000366745 -0.000636086 -0.00176564
0.000343987 -0.000632356 -0.0017488
0.0003159 -0.000628681 -0.00172893
0.000280311 -0.000624935 -0.00170636
0.000238466 -0.000621288 -0.0016812
0.00018969 -0.000617731 -0.00165377
0.00013442 -0.000614322 -0.00162434
7.29538e-05 -0.000611101 -0.00159323
5.69035e-06 -0.000608095 -0.0015608
-6.67568e-05 -0.000605339 -0.00152742
-0.00014376 -0.000602856 -0.00149348
-0.00022443 -0.000600715 -0.0013868
-0.000306089 -0.000599754 -0.00112723
-0.000390423 -0.000598687 -0.000891916
-0.000478311 -0.000597959 -0.00065595
-0.000564894 -0.00059766 -0.000429679
-0.000653565 -0.000597551 -0.000214774
-0.000740891 -0.000597823 -1.28617e-05
-0.000827723 -0.000598364 0.000173327
-0.000912832 -0.000599199 0.000341854
-0.000995593 -0.000600336 0.000491135
-0.00107563 -0.000601755 0.000619211
-0.00115238 -0.000603471 0.000724686
-0.00122559 -0.000605472 0.00080617
-0.00129495 -0.000607763 0.000862677
-0.00136028 -0.00061035 0.0008935
-0.0014215 -0.000613239 0.000899107
-0.00147855 -0.000616491 0.000895874
-0.00153142 -0.000620146 0.000889047
-0.00158056 -0.000624178 0.000878661
-0.00162616 -0.000628624 0.000864838
-0.00166863 -0.000633492 0.000847699
-0.00170848 -0.000638798 0.000827417
-0.00174623 -0.000644557 0.000804206
-0.00178254 -0.000650778 0.000778306
-0.00181805 -0.000658958 0.000749987
-0.00185169 -0.000693761 0.000719887
-0.00188476 -0.000730538 0.000681109
-0.00192243 -0.000766259 0.000430526
-0.00196132 -0.000804642 0.000173132
-0.00200032 -0.000846461 -9.38024e-05
-0.00204416 -0.000889191 -0.000368204
-0.00208931 -0.000934943 -0.000645104
-0.002138 -0.000982452 -0.000924409
-0.00218981 -0.00103192 -0.00120387
-0.00224454 -0.00108332 -0.0014815
-0.00230277 -0.00113617 -0.0017563
-0.00236393 -0.00119044 -0.00202635
-0.00242794 -0.00124576 -0.0022903
-0.00249439 -0.00130185 -0.00254688
-0.00256284 -0.00135841 -0.00279489
-0.00263267 -0.00141509 -0.00303343
-0.00270016 -0.00147182 -0.00326144
-0.00276418 -0.00152842 -0.00347781
-0.00282474 -0.00158404 -0.00368246
-0.00288085 -0.00163842 -0.00387469
-0.00293178 -0.00169091 -0.00405433
-0.00297663 -0.00174101 -0.00422127
-0.00301447 -0.0017882 -0.00437531
-0.00304444 -0.00183193 -0.0045165
-0.00306572 -0.00187168 -0.00464482
-0.00307751 -0.00190695 -0.00476035
-0.00307952 -0.00193726 -0.00486316
-0.00307869 -0.00196181 -0.00495356
-0.00307687 -0.00198005 -0.00503186
-0.00307407 -0.0019918 -0.00509759
-0.00307032 -0.00199659 -0.00515092
-0.00306568 -0.00199612 -0.00519144
-0.00306021 -0.00199409 -0.00521811
-0.003054 -0.00199052 -0.00523067
-0.00304713 -0.00198542 -0.005231
-0.00303968 -0.0019788 -0.00522843
-0.00303171 -0.00197074 -0.00522363
-0.00302327 -0.00196133 -0.00521648
-0.00301441 -0.00195069 -0.00520688
-0.00300521 -0.00193894 -0.00519469
-0.00299572 -0.00192622 -0.00517983
-0.00298604 -0.00191267 -0.0051622
-0.00297623 -0.00189845 -0.00514175
-0.00296638 -0.00188372 -0.00511844
-0.00295654 -0.00186862 -0.00509227
-0.00294677 -0.00185331 -0.00506326
-0.00293716 -0.00183792 -0.00503149
-0.00292774 -0.00182258 -0.00499707
-0.00291859 -0.00180742 -0.00496017
-0.00290975 -0.00179253 -0.00492098
-0.00290123 -0.001778 -0.00487976
-0.00289304 -0.00176391 -0.00483678
-0.00288517 -0.00175033 -0.00479239
-0.00287759 -0.0017373 -0.00474693
-0.00287021 -0.00172499 -0.004552
-0.00286276 -0.00171478 -0.00409624
-0.00285556 -0.00170431 -0.00368731
-0.00284838 -0.0016947 -0.00326382
-0.00284103 -0.00168569 -0.00284797
-0.00283354 -0.00167711 -0.00244118
-0.00282573 -0.0016691 -0.00204437
-0.00281763 -0.00166141 -0.00166398
-0.00280916 -0.00165282 -0.00130157
-0.00276971 -0.00162087 -0.000962742
-0.00274239 -0.0015857 -0.00065349
-0.00270124 -0.00155337 -0.000366373
-0.00266083 -0.00152148 -0.000105285
-0.00261734 -0.00148963 0.000122843
-0.00257081 -0.00145915 0.000324062
-0.0025217 -0.00142885 0.000492471
-0.00246983 -0.00139931 0.00062949
-0.00241539 -0.00137049 0.00073422
-0.0023587 -0.00134249 0.000806614
-0.00230011 -0.00131551 0.000847357
-0.00224014 -0.00128964 0.000857313
-0.00217908 -0.00126527 0.000854821
-0.00211723 -0.00124293 0.000849372
-0.00205536 -0.00122258 0.000841
-0.00199398 -0.00120455 0.000829976
-0.00193364 -0.00118905 0.00081653
-0.00187494 -0.00117632 0.000800928
-0.00181838 -0.00116657 0.000783456
-0.00176453 -0.00115996 0.000764411
-0.00171383 -0.00115667 0.000744097
-0.00166675 -0.00115644 0.000722811
-0.00162377 -0.00115728 0.000700807
-0.00158521 -0.00115893 0.000678363
-0.00155118 -0.00116137 0.000655756
-0.00152185 -0.00116459 0.000633223
-0.00149724 -0.00116855 0.000610995
-0.00147732 -0.00117319 0.000589265
-0.00146193 -0.00117845 0.000568207
-0.00145082 -0.00118424 0.000547951
-0.00144382 -0.00119039 0.000486909
-0.00144094 -0.0011965 0.000343981
-0.00144048 -0.00120316 0.000218766
-0.00144066 -0.00120986 9.74571e-05
-0.00144101 -0.00121662 -1.5242e-05
-0.0014414 -0.00122331 -0.000120456
-0.00144177 -0.00122978 -0.000218418
-0.001442 -0.00123593 -0.000309025
-0.00144202 -0.00124162 -0.00039289
-0.00144174 -0.00124674 -0.000470219
-0.00144109 -0.00125119 -0.000541291
-0.00143713 -0.00125486 -0.000606272
-0.00142175 -0.0012578 -0.00066493
-0.00140265 -0.00125976 -0.000717468
-0.00137772 -0.00126076 -0.000764247
-0.00134736 -0.00126073 -0.000804465
-0.00131133 -0.00125964 -0.00083841
-0.00126973 -0.00125746 -0.000865273
-0.00122282 -0.0012542 -0.000884775
-0.00117096 -0.00124988 -0.000896248
-0.00111462 -0.00124452 -0.000899086
-0.00105431 -0.00123815 -0.000898004
-0.000990701 -0.00123082 -0.000895485
-0.000924339 -0.00122262 -0.000891379
-0.00085589 -0.00121363 -0.00088557
-0.000786019 -0.00120396 -0.000877931
-0.000715432 -0.00119371 -0.000868349
-0.000644859 -0.001183 -0.000856729
-0.000575023 -0.00117194 -0.000842992
-0.000506645 -0.00116065 -0.000827085
-0.000440815 -0.001127 -0.000809104
-0.000380607 -0.00107574 -0.000789585
-0.000321279 -0.00102691 -0.000751711
-0.000266395 -0.000980007 -0.000582642
-0.000215161 -0.0009343 -0.000410997
-0.000170014 -0.000889551 -0.000223226
-0.000129084 -0.000847207 -2.30499e-05
-9.44045e-05 -0.000806437 0.00018828
-6.51117e-05 -0.000768034 0.000410107
-4.1712e-05 -0.00073187 0.000640814
-2.39385e-05 -0.000698068 0.000878724
-1.15791e-05 -0.000666736 0.00112229
-4.46613e-06 -0.000637818 0.00136936
-2.29445e-06 -0.000611324 0.00161791
-2.59497e-06 -0.000587219 0.00186573
-3.33371e-06 -0.000565617 0.00211079
-4.49307e-06 -0.000546276 0.00235069
-6.00048e-06 -0.000529119 0.00258313
-7.83863e-06 -0.00051398 0.00280591
-1.01975e-05 -0.000500464 0.00301655
-1.29988e-05 -0.000488427 0.0032129
-1.61872e-05 -0.000477857 0.00339315
-1.97092e-05 -0.000468663 0.00355546
-2.35078e-05 -0.000460865 0.00369831
-2.75167e-05 -0.000454503 0.00382037
-3.16553e-05 -0.000449682 0.00392055
-3.58425e-05 -0.000446543 0.003998
-4.00133e-05 -0.00044524 0.00405214
-4.41272e-05 -0.000445397 0.00408255
-4.8175e-05 -0.000446052 0.0040894
-5.21534e-05 -0.000447268 0.00408655
-5.60821e-05 -0.000449111 0.00408026
-6.00064e-05 -0.000451574 0.00407055
-6.39565e-05 -0.000454705 0.00405756
-6.79664e-05 -0.000458523 0.00404142
-7.20605e-05 -0.00046306 0.00402231
-7.62611e-05 -0.000468339 0.00400043
-8.05894e-05 -0.000474378 0.00397602
-8.50661e-05 -0.00048119 0.00394932
-8.97126e-05 -0.000488779 0.00392058
-9.45505e-05 -0.00049714 0.00389007
-9.96006e-05 -0.000506258 0.00385806
-0.000104882 -0.000516106 0.00382481
-0.000110408 -0.000526647 0.0037906
-0.000116185 -0.000537834 0.00375569
-0.000122214 -0.000549611 0.00372034
-0.000128489 -0.000561911 0.0036848
-0.000135 -0.000574656 0.00364929
-0.000141737 -0.000587764 0.00361607
-0.00014878 -0.000600496 0.00335164
-0.000156103 -0.000613006 0.00302845
-0.000163391 -0.000626178 0.00272169
-0.000170912 -0.000638884 0.00241287
-0.000178406 -0.000651693 0.00211501
-0.000185885 -0.000664173 0.00182317
-0.000193226 -0.000676361 0.00154013
-0.000200359 -0.000688143 0.00126611
-0.000207231 -0.000700254 0.001001
-0.000213652 -0.000742132 0.000747621
-0.000219705 -0.000781218 0.000507451
-0.000225379 -0.000817466 0.000274294
-0.000230571 -0.000850993 5.58648e-05
-0.000235307 -0.000881041 -0.000152063
-0.000239548 -0.000907808 -0.000346334
-0.000243298 -0.000931021 -0.000527035
-0.000246559 -0.000950615 -0.000693089
-0.000249341 -0.000966577 -0.000843424
-0.000251674 -0.000978861 -0.000977327
-0.000253592 -0.000987519 -0.00109381
-0.00025514 -0.000992609 -0.00119196
-0.00025636 -0.000994254 -0.00127075
-0.000257251 -0.000993769 -0.00132923
-0.000257875 -0.000992513 -0.00136593
-0.000258324 -0.00099051 -0.0013802
-0.000258644 -0.000987809 -0.00137893
-0.000258913 -0.000984413 -0.00137516
-0.000259182 -0.000980423 -0.00136868
-0.000259495 -0.000975904 -0.00135955
-0.000259887 -0.000970936 -0.00134776
-0.000260388 -0.000965601 -0.00133335
-0.000261031 -0.000959974 -0.00131637
-0.000261843 -0.000954128 -0.00129694
-0.000261905 -0.000948337 -0.00127515
-0.000261351 -0.000942766 -0.00125103
-0.000261237 -0.000936935 -0.00122513
-0.000261274 -0.000931167 -0.0011975
-0.000261516 -0.000925354 -0.00116848
-0.00026192 -0.000913277 -0.0011384
-0.000262805 -0.000896318 -0.00110776
-0.000269685 -0.000879789 -0.00101756
-0.000275906 -0.000865437 -0.000787298
-0.000282581 -0.000850486 -0.000574313
-0.000290658 -0.000835641 -0.00035808
-0.000296736 -0.000821511 -0.000146067
-0.000303567 -0.000807274 5.9887e-05
-0.000308915 -0.000793571 0.000259011
-0.000313617 -0.000780108 0.000449123
-0.000316962 -0.000767007 0.00062879
-0.000318719 -0.000754329 0.000796873
-0.000318926 -0.000742074 0.000951814
-0.000318726 -0.000730282 0.00109252
-0.000318316 -0.000718968 0.00121783
-0.000317689 -0.00070821 0.001327
-0.000316847 -0.000698051 0.00141935
-0.000315799 -0.000688567 0.00149441
-0.000314523 -0.000679827 0.00155182
-0.000307589 -0.000672024 0.00159151
-0.000299556 -0.000665212 0.0016136
-0.000290687 -0.000659331 0.00161826
-0.00028159 -0.000654599 0.00161626
-0.000272224 -0.000651169 0.0016119
-0.000263138 -0.0006489 0.00160522
-0.000254448 -0.000647955 0.00159637
-0.000246526 -0.000648065 0.00158548
-0.000239723 -0.000648658 0.00157269
-0.000234329 -0.000649737 0.00155819
-0.000230581 -0.000651321 0.00154216
-0.000228651 -0.000653432 0.00152483
-0.000226727 -0.00065619 0.00150642
-0.000226137 -0.000659582 0.00148719
-0.000226441 -0.000663496 0.00146719
-0.000227146 -0.00066805 0.0014468
-0.000228256 -0.000673158 0.00142609
-0.000229765 -0.000678836 0.00140531
-0.000231665 -0.000685039 0.00138461
-0.000233846 -0.000691735 0.00136051
-0.000236203 -0.000698517 0.0012008
-0.000238565 -0.000705691 0.00104529
-0.000240879 -0.000713352 0.000892339
-0.000243627 -0.000721166 0.000742412
-0.000267371 -0.000729105 0.000597052
-0.000290219 -0.000737926 0.000454818
-0.000311877 -0.000768795 0.000319592
-0.000340625 -0.000797743 0.000188781
-0.000371771 -0.000825024 5.87984e-05
-0.000398021 -0.000852432 -6.36881e-05
-0.0004234 -0.000877419 -0.000183629
-0.000444986 -0.000901121 -0.000298448
-0.00046357 -0.00092269 -0.000408409
-0.000478692 -0.000941964 -0.000514043
-0.000489993 -0.000958831 -0.000614318
-0.000497301 -0.000973023 -0.000709472
-0.000500241 -0.0009845 -0.000798758
-0.000500076 -0.000993113 -0.000881861
-0.000499464 -0.00099865 -0.000958439
-0.000498395 -0.00100119 -0.00102778
-0.000496898 -0.00100118 -0.00108916
-0.000494984 -0.00100027 -0.00114165
-0.000492697 -0.000998618 -0.00118435
-0.000490088 -0.000996251 -0.00121658
-0.000487214 -0.000993219 -0.00123738
-0.000484197 -0.00098958 -0.00124594
-0.000481128 -0.000985352 -0.00124528
-0.00046906 -0.000980623 -0.00124282
-0.000454277 -0.000975525 -0.00123842
-0.000439916 -0.00097 -0.00123216
-0.000426691 -0.000964168 -0.00122393
-0.000414644 -0.000958091 -0.00121374
-0.000404009 -0.000951846 -0.00120157
-0.000394867 -0.000945515 -0.00118745
-0.000387217 -0.000939182 -0.00117144
-0.000381071 -0.000926936 -0.00115362
-0.000376839 -0.000908791 -0.00113438
-0.000373588 -0.000891641 -0.00111335
-0.000371772 -0.000875013 -0.001091
-0.00037106 -0.000859281 -0.0010674
-0.000371141 -0.000844456 -0.00103719
-0.000371325 -0.000831705 -0.000867132
-0.000371637 -0.000820532 -0.00068814
-0.000372322 -0.000809302 -0.000508447
-0.000373114 -0.000799697 -0.000325921
-0.000374124 -0.000790475 -0.000145807
-0.000375241 -0.000782181 3.1966e-05
-0.000376465 -0.000774487 0.000204947
-0.000377743 -0.000767358 0.000371509
-0.000379029 -0.000760736 0.000530242
-0.000380285 -0.000754521 0.000679395
-0.000381514 -0.000748638 0.000817515
-0.00038269 -0.000743 0.000943089
-0.00038378 -0.000737578 0.00105496
-0.000384451 -0.000732561 0.00115227
-0.000384903 -0.000727867 0.00123434
-0.000385129 -0.000723207 0.00129957
-0.000385106 -0.000718937 0.00134849
-0.000384845 -0.000714882 0.00138011
-0.000384339 -0.000711179 0.00139466
-0.000383602 -0.000707855 0.001395
-0.000382642 -0.000705128 0.00139212
-0.000381486 -0.000703066 0.00138691
-0.000380183 -0.000701712 0.0013795
-0.000378771 -0.000701183 0.00137001
-0.000377303 -0.000701314 0.00135859
-0.000375837 -0.000701776 0.00134541
-0.000374426 -0.000702604 0.00133067
-0.000373124 -0.000703825 0.00131457
-0.000371984 -0.000705463 0.00129733
-0.000371049 -0.000707542 0.00127916
-0.000367606 -0.000710106 0.00126031
-0.000365708 -0.000713136 0.00124098
-0.000365405 -0.000716614 0.00122137
-0.000365729 -0.000720581 0.00120171
-0.000366449 -0.000725011 0.00118218
-0.000367589 -0.00072986 0.00115256
-0.000369213 -0.000734735 0.00100059
-0.000371248 -0.000740127 0.000860162
-0.000373616 -0.000745945 0.000722436
-0.000376411 -0.000752001 0.000589887
-0.000379505 -0.000758406 0.000463894
-0.00038281 -0.000764941 0.000343628
-0.000387708 -0.000771583 0.000229702
-0.000427611 -0.000782282 0.000121869
-0.000467917 -0.000807458 2.10053e-05
-0.000509943 -0.000832198 -7.16268e-05
-0.000553346 -0.000856127 -0.000159837
-0.000596032 -0.000880119 -0.000239776
-0.000638952 -0.000903048 -0.000314377
-0.000680681 -0.000925227 -0.000382648
-0.000720911 -0.00094631 -0.000444971
-0.000759147 -0.000966066 -0.000501916
-0.000794797 -0.000984383 -0.000553421
-0.000827477 -0.00100105 -0.000599917
-0.000856759 -0.00101595 -0.000641542
-0.000882356 -0.00102893 -0.000678559
-0.00090402 -0.00103985 -0.000711152
-0.000921547 -0.00104863 -0.000739405
-0.000934832 -0.00105521 -0.000763391
-0.000943833 -0.00105952 -0.000783123
-0.000948582 -0.00106156 -0.000798552
-0.000949376 -0.0010616 -0.000809559
-0.000949028 -0.00106089 -0.000815877
-0.000948315 -0.00105956 -0.000817432
-0.000947272 -0.00105763 -0.000816879
-0.000945947 -0.00105513 -0.000815617
-0.000944386 -0.00105211 -0.000813573
-0.000942645 -0.00104862 -0.000810701
-0.000940778 -0.00104473 -0.000806946
-0.000938839 -0.00104049 -0.000802258
-0.000936879 -0.00103599 -0.000796592
-0.000934946 -0.00103129 -0.000789911
-0.000933086 -0.00102646 -0.000782188
-0.000931345 -0.00102159 -0.000773408
-0.000929762 -0.00101674 -0.000763573
-0.000928374 -0.00101198 -0.000752702
-0.000927212 -0.00100737 -0.000740831
-0.000926303 -0.00100296 -0.000728019
-0.000925666 -0.000998813 -0.000714344
-0.000925312 -0.000994959 -0.000699903
-0.000925246 -0.000991432 -0.000684814
-0.00092547 -0.0009853 -0.000669225
-0.000926017 -0.000976656 -0.000623057
-0.000926707 -0.000970419 -0.000512033
-0.00092767 -0.0009648 -0.000407285
-0.000928873 -0.000960247 -0.000301012
-0.000930216 -0.000956906 -0.000196394
-0.000931734 -0.000954347 -9.49079e-05
-0.00093333 -0.000952778 2.92631e-06
-0.000934882 -0.000952012 9.55382e-05
-0.000936346 -0.000951951 0.000182033
-0.000937679 -0.000952148 0.000261199
-0.000938843 -0.000952504 0.000331991
-0.000939796 -0.000952981 0.000393434
-0.000940495 -0.000953536 0.000444606
-0.000940891 -0.000954134 0.000484767
-0.000940937 -0.000954742 0.000513297
-0.000940589 -0.00095533 0.000529722
-0.000939813 -0.000955874 0.000533836
-0.000938575 -0.000956366 0.0005324
-0.000936851 -0.00095681 0.000529125
-0.000934639 -0.000957172 0.000523993
-0.000931936 -0.000957451 0.000517083
-0.000928753 -0.000957635 0.000508471
-0.000925106 -0.000957723 0.000498277
-0.000921014 -0.000957714 0.000486641
-0.0009165 -0.000957613 0.000473728
-0.000911593 -0.000957429 0.000459722
-0.000907349 -0.000956983 0.000444779
-0.000898666 -0.000956294 0.000429044
-0.000872578 -0.000955921 0.00041416
-0.000848392 -0.000955167 0.000299335
-0.000824045 -0.000954455 0.000181226
-0.000799478 -0.000953899 6.47731e-05
-0.000775837 -0.000953303 -4.99732e-05
-0.000752793 -0.00095286 -0.000159704
-0.000730988 -0.000952475 -0.000264341
-0.000710441 -0.000952229 -0.000361998
-0.000691477 -0.000952111 -0.000451763
-0.000674303 -0.000952121 -0.000532742
-0.000659054 -0.000952265 -0.000603951
-0.000645831 -0.000952541 -0.000664665
-0.000634677 -0.000952944 -0.00071428
-0.000625589 -0.000953461 -0.000752415
-0.000618513 -0.000954079 -0.000778815
-0.000613388 -0.000954776 -0.000793377
-0.000610162 -0.000955523 -0.00079646
-0.000608803 -0.000956271 -0.000795125
-0.000608851 -0.000956969 -0.000792264
-0.000609218 -0.000957616 -0.000787913
-0.00060985 -0.000958161 -0.000782181
-0.000610701 -0.000958575 -0.000775174
-0.000611726 -0.000958828 -0.000767013
-0.000612877 -0.000958889 -0.000757838
-0.000614106 -0.000958731 -0.000747794
-0.000615363 -0.000958331 -0.000737031
-0.000616682 -0.000957654 -0.000725704
-0.000618053 -0.000956673 -0.000713974
-0.000619403 -0.000955396 -0.000701981
-0.000620694 -0.000953818 -0.000689866
-0.000621883 -0.000952043 -0.000622508
-0.000622968 -0.000946577 -0.000540681
-0.000624031 -0.000939393 -0.000464546
-0.000625004 -0.000931768 -0.000388256
-0.000625961 -0.000923229 -0.000315235
-0.000626907 -0.000914135 -0.000244665
-0.000627878 -0.000904531 -0.000177205
-0.000628904 -0.000894559 -0.000113085
-0.000630003 -0.000884412 -5.22861e-05
-0.000631194 -0.000874263 5.05046e-06
-0.000632489 -0.00086433 5.89643e-05
-0.000633911 -0.000854811 0.000109441
-0.000635491 -0.000845904 0.000156525
-0.000636861 -0.000837977 0.000200308
-0.00063654 -0.00083259 0.000242328
-0.000636832 -0.000827704 0.000280439
-0.000637268 -0.000824002 0.000314362
-0.000637956 -0.000821536 0.000345174
-0.000638879 -0.000820211 0.000371429
-0.000640014 -0.000820093 0.000393768
-0.000641364 -0.000820495 0.000411474
-0.000642917 -0.000821316 0.000424451
-0.000644658 -0.000822551 0.000432446
-0.000646572 -0.000824185 0.000435163
-0.000648605 -0.000826211 0.000434671
-0.000650791 -0.000828535 0.000433297
-0.000653033 -0.000831239 0.000431051
-0.000663125 -0.000834259 0.000427884
-0.000690784 -0.000837309 0.000423643
-0.000715842 -0.000840803 0.000418525
-0.000743156 -0.000844466 0.000412486
-0.000770625 -0.000848348 0.000405464
-0.000798674 -0.000852423 0.000397574
-0.00082702 -0.000856645 0.000388769
-0.000855454 -0.000861012 0.000379144
-0.000883936 -0.000865484 0.000368713
-0.000912298 -0.000870043 0.000357548
-0.000940357 -0.000880444 0.000345735
-0.00096725 -0.000897489 0.000333463
-0.000994559 -0.000913931 0.000315553
-0.00102157 -0.000929813 0.000219393
-0.00104837 -0.000945731 0.000121882
-0.00107412 -0.000961748 2.13039e-05
-0.00109985 -0.00097742 -8.10578e-05
-0.00112464 -0.000993086 -0.000184104
-0.00114897 -0.00100848 -0.000287634
-0.0011726 -0.00102368 -0.000390883
-0.00119561 -0.00103862 -0.000493235
-0.00121803 -0.00105327 -0.00059417
-0.00123983 -0.0010676 -0.000692964
-0.00126103 -0.00108159 -0.000789039
-0.00128159 -0.0010952 -0.000881791
-0.00130151 -0.00110841 -0.000970686
-0.00132075 -0.00112118 -0.00105522
-0.00133927 -0.00113348 -0.0011349
-0.001357 -0.00114527 -0.00120929
-0.00137386 -0.00115651 -0.00127797
-0.00138975 -0.00116715 -0.00134063
-0.00140457 -0.00117714 -0.00139697
-0.00141819 -0.00118644 -0.00144677
-0.00143049 -0.00119497 -0.00148985
-0.00144015 -0.00120281 -0.00152603
-0.001446 -0.00121004 -0.00155503
-0.00144863 -0.0012164 -0.00157709
-0.00144868 -0.0012218 -0.00159231
-0.0014483 -0.00122598 -0.00160094
-0.00144762 -0.00122885 -0.00160325
-0.00144667 -0.00123024 -0.00160262
-0.00144548 -0.00123022 -0.0016012
-0.00144406 -0.00122966 -0.00159895
-0.00144244 -0.0012286 -0.00159592
-0.00144062 -0.00122702 -0.00159214
-0.00143861 -0.00122493 -0.00158764
-0.00143644 -0.00122233 -0.00158243
-0.00143411 -0.00121925 -0.00157653
-0.00143163 -0.00121569 -0.00156996
-0.00142903 -0.00121171 -0.00156274
-0.00142632 -0.00120733 -0.00155488
-0.00142352 -0.0012026 -0.00154638
-0.00142062 -0.00119758 -0.00153725
-0.00141763 -0.00119232 -0.00152751
-0.00141453 -0.00118689 -0.00151717
-0.00141131 -0.00118135 -0.00150625
-0.001408 -0.00117575 -0.00149477
-0.00140459 -0.00117015 -0.00148278
-0.0014011 -0.00116459 -0.00147033
-0.00139757 -0.00115912 -0.00145745
-0.00139401 -0.00115376 -0.00144424
-0.00139047 -0.00114855 -0.00143079
-0.00138693 -0.00114361 -0.00135319
-0.00138338 -0.00113913 -0.00125067
-0.00136624 -0.00113446 -0.00115344
-0.00134413 -0.00112135 -0.00105381
-0.00132295 -0.00110862 -0.000956721
-0.00130477 -0.0010965 -0.000859813
-0.00129351 -0.00108381 -0.000766981
-0.00128052 -0.00107248 -0.000676128
-0.00126927 -0.00106154 -0.000588125
-0.00125854 -0.00105129 -0.000504726
-0.00124866 -0.00104183 -0.000424856
-0.00123973 -0.001033 -0.000350341
-0.00123169 -0.00102488 -0.000281027
-0.00122456 -0.00101744 -0.000217659
-0.00121834 -0.0010107 -0.000160539
-0.00121308 -0.00100466 -0.000110064
-0.00120882 -0.000999332 -6.66006e-05
-0.00120557 -0.000994734 -3.03812e-05
-0.00120404 -0.000990794 -1.66418e-06
-0.00120416 -0.000987445 1.92743e-05
-0.00120462 -0.000984885 3.261e-05
-0.00120543 -0.000983109 3.83169e-05
-0.00120657 -0.00098223 3.81964e-05
-0.00120804 -0.000982247 3.68884e-05
-0.00120947 -0.0009827 3.45952e-05
-0.00121011 -0.000983802 3.14915e-05
-0.00121118 -0.000985176 2.74251e-05
-0.0012124 -0.000986961 2.247e-05
-0.00121383 -0.000989115 1.66962e-05
-0.00121546 -0.000991634 1.01013e-05
-0.00121727 -0.000994515 2.75895e-06
-0.00121927 -0.00099774 -5.30364e-06
-0.00122144 -0.0010013 -1.40283e-05
-0.00122376 -0.00100512 -2.33943e-05
-0.00122618 -0.00100924 -3.33163e-05
-0.00123595 -0.00101362 -4.37437e-05
-0.00126263 -0.00101799 -5.47509e-05
-0.00128714 -0.00102274 -6.60853e-05
-0.00131351 -0.00103373 -7.77158e-05
-0.00133923 -0.00105049 -8.8658e-05
-0.00136622 -0.00106676 -0.000158857
-0.00139321 -0.00108325 -0.000243641
-0.00141953 -0.00110038 -0.000328037
-0.00144592 -0.00111726 -0.000414277
-0.0014715 -0.00113428 -0.000500375
-0.00149637 -0.00115108 -0.000586858
-0.00152025 -0.00116759 -0.000673292
-0.00154293 -0.0011837 -0.000759384
-0.00156435 -0.00119926 -0.000845005
-0.00158427 -0.00121416 -0.000929745
-0.00160258 -0.0012283 -0.00101331
-0.00161912 -0.00124158 -0.00109535
-0.00163379 -0.00125392 -0.0011755
-0.00164648 -0.00126524 -0.0012534
-0.00165715 -0.00127547 -0.00132861
-0.00166581 -0.00128456 -0.00140071
-0.0016725 -0.00129247 -0.00146924
-0.0016773 -0.00129916 -0.00153374
-0.0016803 -0.00130462 -0.00159373
-0.00168164 -0.00130884 -0.00164873
-0.00168171 -0.00131185 -0.00169824
-0.00168154 -0.00131361 -0.00174184
-0.00168125 -0.00131417 -0.00177904
-0.00168086 -0.00131399 -0.00180933
-0.0016804 -0.00131348 -0.00183222
-0.00167988 -0.00131267 -0.00184734
-0.00167933 -0.00131157 -0.00185432
-0.00167877 -0.00131023 -0.0018544
-0.00167824 -0.00130864 -0.00185283
-0.00167775 -0.00130685 -0.00184996
-0.00167731 -0.00130489 -0.00184579
-0.00167695 -0.00130278 -0.00184032
-0.00167666 -0.00130056 -0.00183359
-0.00167646 -0.00129825 -0.00182564
-0.00167636 -0.00129587 -0.00181652
-0.00167635 -0.00129345 -0.00180632
-0.00167643 -0.001291 -0.00179513
-0.0016766 -0.00128854 -0.00178304
-0.00167685 -0.00128609 -0.00177019
-0.00167716 -0.00128364 -0.0017567
-0.00167752 -0.0012812 -0.00174272
-0.0016779 -0.00127879 -0.00172839
-0.00167828 -0.0012764 -0.00171387
-0.00167863 -0.00127404 -0.00169932
-0.00167886 -0.00127171 -0.00168489
-0.00167883 -0.00126955 -0.00160051
-0.0016785 -0.0012677 -0.00149563
-0.00167796 -0.00126565 -0.00140051
-0.00167709 -0.00126374 -0.00130722
-0.0016759 -0.00126178 -0.00122043
-0.00167436 -0.00125982 -0.00113964
-0.00167242 -0.00125784 -0.0010659
-0.00167007 -0.00125581 -0.000999923
-0.00166728 -0.00125374 -0.000942038
-0.00166404 -0.0012516 -0.000892743
-0.00166035 -0.00124938 -0.000852321
-0.00165623 -0.00124706 -0.000821053
-0.00165174 -0.00124463 -0.000799065
-0.00164753 -0.00124195 -0.000786389
-0.00164441 -0.00123876 -0.000783936
-0.00164074 -0.00123567 -0.000784736
-0.00162381 -0.00123252 -0.00078657
-0.00159485 -0.00122968 -0.000789247
-0.0015667 -0.00122075 -0.000792853
-0.00153871 -0.00121077 -0.000797267
-0.00151032 -0.00120122 -0.000802205
-0.00148253 -0.00119203 -0.000807669
-0.00145536 -0.00118339 -0.000813468
-0.00142929 -0.00117537 -0.000819492
-0.00140452 -0.00116813 -0.000825587
-0.00138137 -0.00116174 -0.000831628
-0.00136009 -0.00115628 -0.000837502
-0.00134086 -0.00115184 -0.000843091
-0.00132385 -0.00114848 -0.000848293
-0.00130923 -0.00114624 -0.000853016
-0.00129712 -0.00114513 -0.000856985
-0.00128761 -0.00114499 -0.000862908
-0.00128077 -0.00114527 -0.000882163
-0.00127659 -0.00114586 -0.000896521
-0.00127499 -0.00114675 -0.000906952
-0.00127514 -0.0011479 -0.000913306
-0.00127562 -0.00114932 -0.000915643
-0.00127642 -0.00115096 -0.0009154
-0.00127752 -0.00115278 -0.000914632
-0.00127888 -0.00115474 -0.000913379
-0.00128045 -0.0011568 -0.000911728
-0.0012822 -0.00115892 -0.00090978
-0.0012841 -0.00116107 -0.000897708
-0.00128609 -0.00116323 -0.000879885
-0.00128823 -0.00116529 -0.000863893
-0.00129058 -0.00116737 -0.00084785
-0.00129304 -0.00117264 -0.000832468
-0.00129556 -0.00117742 -0.000818076
-0.00129807 -0.00118166 -0.000805525
-0.00130051 -0.0011854 -0.000794646
-0.00130283 -0.0011886 -0.000786045
-0.00130498 -0.00119129 -0.000779738
-0.00130696 -0.00119348 -0.000775936
-0.00130875 -0.00119517 -0.000774711
-0.00131034 -0.00119642 -0.000774947
-0.00131174 -0.00119726 -0.000775545
-0.00131296 -0.00119773 -0.000776506
-0.001314 -0.00119789 -0.000777803
-0.00131485 -0.00119785 -0.000779408
-0.00131552 -0.00119773 -0.000781291
-0.00131605 -0.00119757 -0.000783402
-0.0013165 -0.00119737 -0.000785538
-0.00131693 -0.00119713 -0.000788469
-0.0013174 -0.00119686 -0.000804357
-0.001318 -0.00119658 -0.000820845
-0.00131807 -0.00119648 -0.000837223
-0.0013181 -0.00119653 -0.000852765
-0.00131825 -0.00119656 -0.000868511
-0.00131851 -0.00119673 -0.000883172
-0.00131892 -0.00119696 -0.000897147
-0.0013195 -0.0011973 -0.000910036
-0.00132425 -0.00119773 -0.000921751
-0.00133299 -0.00119886 -0.000932366
-0.00134289 -0.00120084 -0.000941223
-0.00135481 -0.00120311 -0.000948739
-0.00136827 -0.00120586 -0.00095467
-0.00138333 -0.00120906 -0.000958979
-0.00139985 -0.00121273 -0.000961815
-0.00141771 -0.00121689 -0.000963156
-0.00143677 -0.00122153 -0.000963312
-0.00145688 -0.00122664 -0.000963136
-0.00147787 -0.00123217 -0.000962815
-0.00149953 -0.0012381 -0.00096239
-0.00152167 -0.00124439 -0.000961908
-0.00154403 -0.00125099 -0.00096142
-0.00156635 -0.00125783 -0.000960981
-0.00158838 -0.00126486 -0.000960646
-0.00160981 -0.00127199 -0.000960472
-0.0016304 -0.00127915 -0.000960516
-0.0016499 -0.00128626 -0.00096083
-0.0016681 -0.00129324 -0.000961467
-0.00168479 -0.00129999 -0.000962395
-0.00169979 -0.00130641 -0.000964955
-0.00171278 -0.00131241 -0.00097664
-0.0017228 -0.00131806 -0.00099067
-0.00172973 -0.00132327 -0.00100766
-0.00173343 -0.00132795 -0.00102766
-0.001734 -0.00133208 -0.00105058
-0.00173365 -0.00133548 -0.00107652
-0.00173293 -0.00133811 -0.00110538
-0.00173186 -0.00133993 -0.00113688
-0.00173047 -0.00134089 -0.00117083
-0.00172881 -0.00134103 -0.00120683
-0.0017269 -0.00134076 -0.00124445
-0.00172479 -0.0013402 -0.00128317
-0.00172251 -0.00133936 -0.00132245
-0.00172012 -0.00133826 -0.00136167
-0.00171763 -0.00133692 -0.00140016
-0.00171508 -0.00133539 -0.00143725
-0.0017125 -0.00133369 -0.00147221
-0.00170993 -0.00133187 -0.00150435
-0.00170741 -0.00132995 -0.00153299
-0.001705 -0.00132797 -0.00155747
-0.00170272 -0.00132598 -0.00157719
-0.00170061 -0.00132401 -0.00159158
-0.00169869 -0.00132209 -0.00160018
-0.00169698 -0.00132026 -0.00160257
-0.00169551 -0.00131855 -0.00160183
-0.00169335 -0.00131695 -0.00160004
-0.00168556 -0.00131556 -0.00159715
-0.00168011 -0.00131428 -0.0015932
-0.00167596 -0.00131318 -0.00158823
-0.00167326 -0.00131223 -0.00158228
-0.00167178 -0.00131143 -0.00157543
-0.00167132 -0.00131077 -0.00156777
-0.00167138 -0.00131023 -0.00155941
-0.00167171 -0.00130978 -0.00155046
-0.00167257 -0.00130926 -0.00154111
-0.00167333 -0.00130885 -0.00153143
-0.00167428 -0.00130845 -0.00152156
-0.00168095 -0.00130801 -0.00151172
-0.00168684 -0.00130764 -0.00144623
-0.00169177 -0.00130738 -0.00137503
-0.00169607 -0.00130688 -0.0013094
-0.00169877 -0.00130638 -0.00124528
-0.00170004 -0.00130572 -0.00118566
-0.00170003 -0.00130493 -0.00113034
-0.00169974 -0.00130397 -0.00108016
-0.00169921 -0.00130283 -0.00103566
-0.00169844 -0.00130152 -0.00099701
-0.0016974 -0.00130003 -0.000964551
-0.00168832 -0.00129842 -0.000938242
-0.00167756 -0.00129667 -0.000917981
-0.00166547 -0.00129476 -0.000904359
-0.00165163 -0.00129279 -0.000896418
-0.00163708 -0.0012907 -0.000894552
-0.00162127 -0.00128855 -0.000895095
-0.00160463 -0.00128638 -0.000896312
-0.00158744 -0.00128336 -0.000898182
-0.00157017 -0.00127521 -0.000900679
-0.00155275 -0.00126759 -0.000903613
-0.00153549 -0.00126023 -0.000906908
-0.00151873 -0.00125326 -0.000910497
-0.00150253 -0.00124687 -0.000914244
-0.00148717 -0.00124111 -0.000918078
-0.00147273 -0.00123613 -0.00092189
-0.00145935 -0.001232 -0.000925602
-0.00144711 -0.0012288 -0.000929138
-0.00143606 -0.00122659 -0.000932425
-0.00142626 -0.00122539 -0.00093541
-0.00141772 -0.00122519 -0.000938047
-0.00141047 -0.00122542 -0.000940313
-0.0014045 -0.0012259 -0.000942199
-0.00139976 -0.00122663 -0.000943696
-0.00139621 -0.00122756 -0.000944818
-0.00139377 -0.00122867 -0.000945538
-0.00139231 -0.00122992 -0.000945948
-0.00139165 -0.00123128 -0.00094609
-0.00139156 -0.0012327 -0.000946007
-0.0013916 -0.00123414 -0.000945735
-0.00139166 -0.00123557 -0.000945325
-0.00139172 -0.00123693 -0.000944875
-0.00139172 -0.00123819 -0.000944398
-0.00139166 -0.0012393 -0.000943951
-0.00139121 -0.00124024 -0.00094356
-0.0013889 -0.00124213 -0.000943246
-0.00138561 -0.00124355 -0.000943044
-0.00138112 -0.00124425 -0.00094301
-0.00137527 -0.00124428 -0.000943132
-0.00136803 -0.00124398 -0.000943434
-0.00135933 -0.00124339 -0.000943901
-0.00134921 -0.00124147 -0.000944524
-0.00133787 -0.00123726 -0.000945269
-0.00132516 -0.00123218 -0.000946077
-0.00131131 -0.00122615 -0.000946947
-0.00129646 -0.00121929 -0.000947831
-0.00128077 -0.00121167 -0.000952409
-0.00126446 -0.00120336 -0.000957419
-0.00124767 -0.00119454 -0.000961254
-0.00123068 -0.00118526 -0.000963688
-0.00121367 -0.0011757 -0.000964233
-0.00119687 -0.00116595 -0.000963918
-0.0011805 -0.00115613 -0.000963176
-0.00116473 -0.00114638 -0.000960155
-0.00114973 -0.00113689 -0.00094717
-0.00113564 -0.00112776 -0.000931385
-0.00112269 -0.00111901 -0.000911583
-0.00111093 -0.00111078 -0.000887435
-0.00110049 -0.00110312 -0.000858984
-0.00109141 -0.0010961 -0.000826228
-0.00108375 -0.00108974 -0.000789295
-0.00107751 -0.00108407 -0.00074842
-0.00107266 -0.00107908 -0.000703866
-0.00106913 -0.00107477 -0.000656001
-0.00106684 -0.0010711 -0.000605262
-0.00106566 -0.00106803 -0.000552166
-0.00106543 -0.00106551 -0.000497285
-0.00106551 -0.00106347 -0.000441227
-0.00106568 -0.00106184 -0.000384622
-0.0010659 -0.00106054 -0.000328176
-0.00106615 -0.00105947 -0.000272583
-0.0010664 -0.00105852 -0.000218541
-0.00106663 -0.00105761 -0.000166733
-0.0010668 -0.00105664 -0.000117813
-0.00106689 -0.00105551 -7.23898e-05
-0.00106688 -0.00105417 -3.10145e-05
-0.00106675 -0.00105252 5.82351e-06
-0.0010665 -0.00105054 3.77177e-05
-0.00106609 -0.00104822 6.43769e-05
-0.00106554 -0.00104548 8.54927e-05
-0.00106127 -0.0010424 0.000100991
-0.00105491 -0.00103906 0.000111007
-0.00104759 -0.00103523 0.000115138
-0.00103921 -0.00103116 0.000115038
-0.00102994 -0.00102684 0.000114042
-0.00101987 -0.00102237 0.000112318
-0.00100924 -0.00101778 0.00010993
-0.000998633 -0.00101311 0.000106937
-0.000988155 -0.00100847 0.000103416
-0.000977977 -0.00100396 9.94617e-05
-0.000968255 -0.000999708 9.51612e-05
-0.000959148 -0.000995825 9.06157e-05
-0.000950808 -0.000992428 8.59219e-05
-0.000943373 -0.000989633 8.11769e-05
-0.000936963 -0.000987543 7.64734e-05
-0.000931685 -0.000986249 7.18985e-05
-0.000927633 -0.000985828 6.7531e-05
-0.000924892 -0.000985976 6.34369e-05
-0.000923546 -0.000986389 5.96636e-05
-0.00092344 -0.000987077 5.62621e-05
-0.00092366 -0.000988047 5.32664e-05
-0.000924086 -0.000989289 5.06948e-05
-0.000924709 -0.000990785 4.85478e-05
-0.000925518 -0.000992514 4.68177e-05
-0.0009265 -0.000994448 4.54797e-05
-0.000927637 -0.000996552 4.44997e-05
-0.000928912 -0.00099879 4.38337e-05
-0.000930302 -0.00100112 4.34296e-05
-0.000931784 -0.0010035 4.32291e-05
-0.000933374 -0.00100589 4.31695e-05
-0.000935197 -0.00100817 4.31599e-05
-0.000936934 -0.00101044 4.31976e-05
-0.000938632 -0.00101259 4.31918e-05
-0.000940243 -0.00101461 4.3096e-05
-0.000941802 -0.00101645 4.28614e-05
-0.000943313 -0.00101809 4.2438e-05
-0.000944758 -0.0010195 4.18016e-05
-0.000946131 -0.00102066 4.09263e-05
-0.000947426 -0.00102158 3.98039e-05
-0.000948642 -0.00102225 3.84356e-05
-0.000949783 -0.00102267 3.68339e-05
-0.000950856 -0.00102285 3.50228e-05
-0.000951871 -0.00102283 3.30362e-05
-0.000952842 -0.00102261 3.09155e-05
-0.000953784 -0.00102223 2.87129e-05
-0.000954717 -0.00102172 2.64842e-05
-0.00095566 -0.00102113 2.42907e-05
-0.000956632 -0.00102048 2.21951e-05
-0.000957657 -0.00101981 2.02598e-05
-0.000958753 -0.00101918 1.85452e-05
-0.000959941 -0.00101861 1.71036e-05
-0.00096124 -0.00101815 1.60064e-05
-0.000962668 -0.00101782 1.53205e-05
-0.000964235 -0.00101765 1.50071e-05
-0.000965952 -0.00101769 1.5082e-05
-0.000967829 -0.00101793 1.5583e-05
-0.000969866 -0.00101841 1.64342e-05
-0.000972063 -0.00101912 1.76519e-05
-0.000974417 -0.00102007 1.92089e-05
-0.000976921 -0.00102126 2.10792e-05
-0.000979561 -0.00102267 2.32122e-05
-0.000982324 -0.00102429 2.55528e-05
-0.000985191 -0.0010261 2.80361e-05
-0.000988144 -0.00102807 3.05912e-05
-0.000991159 -0.00103018 3.31394e-05
-0.000994212 -0.00103239 3.56051e-05
-0.000997279 -0.00103467 3.79076e-05
-0.00100033 -0.00103699 3.99676e-05
-0.00100336 -0.00103932 4.17088e-05
-0.00100632 -0.00104162 4.30597e-05
-0.0010092 -0.00104386 4.39553e-05
-0.00101199 -0.00104602 4.4338e-05
-0.00101458 -0.00104804 4.41078e-05
-0.0010176 -0.00104991 4.32166e-05
-0.0010392 -0.00105156 4.16274e-05
-0.00105892 -0.00105317 3.93044e-05
-0.00107791 -0.00105767 3.64452e-05
-0.00109287 -0.00106189 3.29009e-05
-0.00109895 -0.00106684 2.89341e-05
-0.00110674 -0.00107074 2.42535e-05
-0.00111162 -0.00107454 1.94966e-05
-0.00111555 -0.00107782 1.4355e-05
-0.00111802 -0.00108073 -1.58308e-05
-0.00111952 -0.00108305 -6.14476e-05
-0.00111989 -0.00108532 -0.00010776
-0.00111985 -0.00108724 -0.000156254
-0.00111974 -0.00108898 -0.000205588
-0.00111958 -0.00109059 -0.000255363
-0.00111941 -0.00109212 -0.000305011
-0.00111925 -0.00109364 -0.000353902
-0.00111912 -0.00109521 -0.000401533
-0.00111905 -0.00109688 -0.000447309
-0.00111905 -0.00109872 -0.000490705
-0.00111914 -0.00110075 -0.000531262
-0.00111934 -0.00110303 -0.000568538
-0.00111966 -0.00110559 -0.000602157
-0.00112156 -0.00110843 -0.000631835
-0.0011276 -0.00111141 -0.000657474
-0.00113444 -0.00111477 -0.000678751
-0.00114286 -0.00111838 -0.000695456
-0.00115256 -0.00112224 -0.000707806
-0.00116354 -0.00112636 -0.000715585
-0.00117569 -0.00113066 -0.000719081
-0.00118889 -0.00113513 -0.000719124
-0.00120299 -0.00113967 -0.000718427
-0.00121782 -0.00114423 -0.000717199
-0.00123316 -0.00114876 -0.000715497
-0.00124881 -0.00115319 -0.000713381
-0.00126451 -0.00115745 -0.000710911
-0.00128005 -0.00116149 -0.000708158
-0.00129518 -0.00116524 -0.00070519
-0.00130966 -0.00116863 -0.000702078
-0.00132328 -0.00117162 -0.000698893
-0.00133581 -0.00117414 -0.000695701
-0.00134708 -0.00117616 -0.000692567
-0.00135692 -0.00117762 -0.000689548
-0.00136518 -0.00117852 -0.000686698
-0.00137177 -0.00117882 -0.000684063
-0.0013766 -0.00117872 -0.000681677
-0.00137961 -0.00117844 -0.000679564
-0.00138081 -0.00117797 -0.000677748
-0.00138076 -0.00117731 -0.000676239
-0.00138052 -0.00117647 -0.00067505
-0.00138009 -0.00117547 -0.000674167
-0.00137952 -0.00117431 -0.000673575
-0.00137881 -0.00117303 -0.000673249
-0.00137798 -0.00117165 -0.000673157
-0.00137706 -0.0011702 -0.00067326
-0.00137608 -0.00116869 -0.000673516
-0.00137506 -0.00116718 -0.00067388
-0.00137404 -0.00116567 -0.000674303
-0.00137303 -0.00116421 -0.000674738
-0.00137207 -0.00116282 -0.000675139
-0.00137118 -0.00116152 -0.000675462
-0.00137038 -0.00116035 -0.000675668
-0.00136969 -0.00115932 -0.000675723
-0.00136914 -0.00115845 -0.000675599
-0.00136873 -0.00115776 -0.000675277
-0.00136847 -0.00115726 -0.000674744
-0.00136838 -0.00115695 -0.000673996
-0.00136843 -0.00115684 -0.000673039
-0.00136856 -0.00115694 -0.000671878
-0.00136875 -0.00115725 -0.000670537
-0.001369 -0.00115775 -0.00066905
-0.0013693 -0.00115843 -0.000667455
-0.00136962 -0.00115926 -0.0006658
-0.00136996 -0.00116022 -0.000664138
-0.0013703 -0.00116127 -0.000662523
-0.00137062 -0.00116239 -0.000661013
-0.00137089 -0.00116354 -0.000659667
-0.0013711 -0.00116468 -0.000658541
-0.00137123 -0.00116579 -0.000657687
-0.00137126 -0.00116684 -0.000657152
-0.00137117 -0.00116778 -0.000656977
-0.00137096 -0.0011686 -0.000657194
-0.00137061 -0.00116928 -0.000657824
-0.00137011 -0.00116979 -0.00065888
-0.00136945 -0.00117012 -0.000660363
-0.00136864 -0.00117026 -0.00066226
-0.00136768 -0.00117021 -0.00066455
-0.00136656 -0.00116997 -0.000667198
-0.00136531 -0.00116954 -0.00067016
-0.00136392 -0.00116894 -0.000673381
-0.00136242 -0.00116817 -0.000676798
-0.00136083 -0.00116727 -0.000680341
-0.00135914 -0.00116623 -0.000683934
-0.0013574 -0.00116511 -0.000687496
-0.00135562 -0.0011639 -0.000690948
-0.00135381 -0.00116265 -0.000694207
-0.001352 -0.00116138 -0.000697195
-0.00135021 -0.00116011 -0.000699837
-0.00134846 -0.00115886 -0.000702064
-0.00133876 -0.00115771 -0.000703796
-0.00132811 -0.00115665 -0.000704968
-0.00131822 -0.00115561 -0.000705622
-0.00131138 -0.00115463 -0.000705664
-0.00130497 -0.00115372 -0.000705132
-0.0012998 -0.00115292 -0.000703937
-0.0012955 -0.0011522 -0.000702157
-0.00129214 -0.00115158 -0.000699756
-0.0012897 -0.00115105 -0.000696794
-0.00128811 -0.0011506 -0.000693291
-0.00128727 -0.00115023 -0.000689299
-0.00128708 -0.00114992 -0.000684877
-0.00128714 -0.00114966 -0.000680089
-0.00128725 -0.00114944 -0.000675004
-0.0012874 -0.00114923 -0.000669699
-0.00128756 -0.00114903 -0.000664257
-0.00128772 -0.0011488 -0.000658759
-0.00128784 -0.00114853 -0.000653288
-0.00128791 -0.0011482 -0.0006437
-0.00128788 -0.00114788 -0.000604426
-0.00128776 -0.00114745 -0.000571446
-0.00128754 -0.00114693 -0.000540311
-0.00128719 -0.0011463 -0.000512105
-0.00128474 -0.00114554 -0.000486369
-0.00128053 -0.00114469 -0.000463287
-0.00127549 -0.00114369 -0.000443306
-0.00126945 -0.00114258 -0.000426357
-0.00126251 -0.00114136 -0.000412592
-0.00125474 -0.00113736 -0.000402055
-0.00124624 -0.00113249 -0.000394876
-0.0012369 -0.0011274 -0.00039035
-0.00122698 -0.00112203 -0.000388759
-0.00121649 -0.00111652 -0.000388905
-0.0012056 -0.00111092 -0.000389375
-0.00119442 -0.00110531 -0.000390137
-0.00118312 -0.00109976 -0.000391137
-0.00117184 -0.00109434 -0.000392321
-0.00116072 -0.00108913 -0.000393637
-0.00114991 -0.00108419 -0.000395027
-0.00113956 -0.0010796 -0.000396441
-0.00112979 -0.00107541 -0.000397825
-0.00112072 -0.00107168 -0.000399133
-0.00111246 -0.00106846 -0.000400323
-0.00110508 -0.00106578 -0.000401357
-0.00109866 -0.00106367 -0.000402205
-0.00109324 -0.00106215 -0.000402846
-0.00108885 -0.00106123 -0.000403263
-0.00108547 -0.00106089 -0.00040345
-0.0010831 -0.00106096 -0.000403408
-0.0010817 -0.00106119 -0.000403151
-0.00108121 -0.00106157 -0.000402693
-0.00108126 -0.00106209 -0.000402055
-0.00108142 -0.00106273 -0.000401262
-0.00108166 -0.00106347 -0.000400349
-0.00108198 -0.00106429 -0.000399356
-0.00108235 -0.00106517 -0.000398323
-0.00108275 -0.00106608 -0.000397293
-0.00108315 -0.00106699 -0.00039631
-0.00108354 -0.00106789 -0.000395419
-0.00108388 -0.00106875 -0.000394658
-0.00108417 -0.00106954 -0.000394065
-0.00108438 -0.00107025 -0.000393673
-0.0010845 -0.00107085 -0.000393509
-0.00108451 -0.00107133 -0.000393592
-0.00108441 -0.00107168 -0.000393938
-0.00108419 -0.00107189 -0.00039455
-0.00108384 -0.00107196 -0.000395426
-0.00108337 -0.00107187 -0.000396557
-0.00108278 -0.00107163 -0.000397925
-0.00108209 -0.00107125 -0.000399499
-0.00108128 -0.00107075 -0.000401243
-0.00107588 -0.00107015 -0.000403118
-0.00106943 -0.00106946 -0.000405064
-0.00106256 -0.00106865 -0.000407086
-0.00105548 -0.00106777 -0.000409088
-0.00104848 -0.0010668 -0.000410922
-0.00104159 -0.00106578 -0.000412639
-0.00103491 -0.00106473 -0.000414194
-0.00102855 -0.00106368 -0.000419019
-0.00102261 -0.00106262 -0.000427835
-0.00101716 -0.00106161 -0.0004342
-0.00101227 -0.00106025 -0.000438588
-0.00100812 -0.00105717 -0.000440762
-0.00100462 -0.00105455 -0.000440811
-0.00100188 -0.00105223 -0.000440301
-0.000999918 -0.00105027 -0.000439372
-0.000998741 -0.00104871 -0.000437333
-0.000998344 -0.0010476 -0.000425067
-0.000998405 -0.00104693 -0.000410087
-0.000998583 -0.00104667 -0.000394137
-0.000998868 -0.00104673 -0.000375905
-0.000999261 -0.00104687 -0.000355862
-0.000999743 -0.00104712 -0.00033415
-0.00100031 -0.00104744 -0.000311209
-0.00100094 -0.00104781 -0.000287361
-0.00100162 -0.00104822 -0.000263
-0.00100235 -0.00104866 -0.000238536
-0.00100313 -0.00104908 -0.000214335
-0.00100393 -0.00104948 -0.000190845
-0.0010047 -0.00104986 -0.000168307
-0.00100545 -0.00105019 -0.000147127
-0.00100617 -0.00105045 -0.000127659
-0.00100685 -0.00105063 -0.000110148
-0.0010075 -0.00105073 -9.48527e-05
-0.0010081 -0.00105075 -8.19533e-05
-0.00100865 -0.00105067 -7.16018e-05
-0.00100915 -0.00105051 -6.38891e-05
-0.0010096 -0.00105027 -5.88525e-05
-0.00101 -0.00104996 -5.648e-05
-0.00101036 -0.00104959 -5.63608e-05
-0.00101069 -0.00104918 -5.67956e-05
-0.00101099 -0.00104875 -5.75906e-05
-0.00101128 -0.00104833 -5.87123e-05
-0.00101157 -0.00104792 -6.01255e-05
-0.00101187 -0.00104756 -6.17923e-05
-0.00101219 -0.00104725 -6.36709e-05
-0.00101254 -0.00104704 -6.57182e-05
-0.00101295 -0.00104692 -6.78909e-05
-0.00101341 -0.00104693 -7.01471e-05
-0.00101394 -0.00104708 -7.24472e-05
-0.00101455 -0.00104737 -7.47551e-05
-0.00101524 -0.00104784 -7.70386e-05
-0.00101602 -0.00104846 -7.92731e-05
-0.0010169 -0.00104927 -8.14345e-05
-0.00101787 -0.00105024 -8.35078e-05
-0.00101893 -0.00105138 -8.54839e-05
-0.00102009 -0.00105269 -8.736e-05
-0.00102132 -0.00105414 -8.91392e-05
-0.00102263 -0.00105572 -9.08348e-05
-0.00102401 -0.00105743 -9.23661e-05
-0.00102545 -0.00105921 -9.38165e-05
-0.00102692 -0.00106108 -9.51917e-05
-0.00102843 -0.001063 -9.80361e-05
-0.00102996 -0.00106492 -0.000109164
-0.00103148 -0.00106685 -0.000119991
-0.001033 -0.00106876 -0.00013146
-0.00103449 -0.00107061 -0.000143615
-0.00103594 -0.00107241 -0.000156626
-0.00103733 -0.00107648 -0.000170581
-0.00103866 -0.00108159 -0.000185243
-0.00103993 -0.00108619 -0.000201433
-0.00104111 -0.00109043 -0.000218609
-0.0010422 -0.0010941 -0.000237126
-0.00104319 -0.00109735 -0.000256689
-0.00104413 -0.00110015 -0.000277178
-0.001045 -0.00110249 -0.000298575
-0.00105186 -0.00110433 -0.0003206
-0.00105865 -0.00110571 -0.00034323
-0.00106509 -0.00110685 -0.000365678
-0.00107111 -0.00110762 -0.000388187
-0.00107673 -0.00110819 -0.000410092
-0.00107732 -0.0011092 -0.000430785
-0.0010774 -0.00110993 -0.000450205
-0.00107739 -0.00111045 -0.000469032
-0.00107739 -0.00111096 -0.000485828
-0.0010774 -0.00111132 -0.000501319
-0.00107743 -0.00111165 -0.000514808
-0.00107752 -0.00111192 -0.000526343
-0.00107839 -0.00111216 -0.000535709
-0.00107963 -0.0011124 -0.00054281
-0.00108133 -0.00111266 -0.000547528
-0.0010835 -0.00111293 -0.000549835
-0.00108617 -0.00111325 -0.000549988
-0.00108937 -0.00111359 -0.000549588
-0.0010931 -0.00111395 -0.000548835
-0.00109733 -0.00111435 -0.000547744
-0.00110203 -0.00111477 -0.000546333
-0.00110715 -0.00111521 -0.000544624
-0.00111264 -0.00111566 -0.000542646
-0.00111842 -0.00111611 -0.00054043
-0.00112442 -0.00111655 -0.000538012
-0.00113055 -0.00111696 -0.000535429
-0.00113671 -0.00111733 -0.000532723
-0.00114282 -0.00111763 -0.000529934
-0.00114878 -0.00111786 -0.000527105
-0.00115449 -0.001118 -0.000524279
-0.00115987 -0.00111804 -0.000521497
-0.00116483 -0.00111801 -0.000518798
-0.00116929 -0.00111795 -0.000516218
-0.00117319 -0.00111784 -0.000513794
-0.00117647 -0.00111768 -0.000511556
-0.00117909 -0.00111748 -0.000509531
-0.00118103 -0.00111724 -0.000507743
-0.00118227 -0.00111695 -0.000506209
-0.0011828 -0.00111663 -0.000500895
-0.0011828 -0.00111629 -0.000493416
-0.00118272 -0.0011159 -0.000488415
-0.00118256 -0.00111548 -0.000485218
-0.00118236 -0.00111504 -0.000484013
-0.0011821 -0.00111458 -0.000484111
-0.0011818 -0.00111413 -0.000484451
-0.00118147 -0.00111368 -0.000485018
-0.00118112 -0.00111326 -0.000485795
-0.00118077 -0.00111286 -0.000489313
-0.00118042 -0.00111249 -0.00049738
-0.00118008 -0.00111218 -0.000506008
-0.00117976 -0.00111193 -0.000515496
-0.00117948 -0.00111175 -0.000525504
-0.00117924 -0.00111164 -0.000535888
-0.00117906 -0.00111162 -0.000546485
-0.00117892 -0.00111168 -0.000557128
-0.00117885 -0.00111184 -0.000567691
-0.00117884 -0.0011121 -0.000578055
-0.00117884 -0.00111245 -0.0005881
-0.00117888 -0.0011129 -0.000597762
-0.00117893 -0.00111345 -0.000607012
-0.001179 -0.00111407 -0.000615822
-0.00117909 -0.00111477 -0.000624208
-0.00117919 -0.00111553 -0.000632198
-0.0011793 -0.00111634 -0.000639842
-0.0011794 -0.00111717 -0.000647203
-0.00117949 -0.00111802 -0.000654354
-0.00117955 -0.0011206 -0.000661255
-0.00117959 -0.00112318 -0.000668012
-0.00117959 -0.00112563 -0.000674948
-0.00117955 -0.00112793 -0.000681887
-0.00117946 -0.00113001 -0.000689059
-0.00117932 -0.00113183 -0.000696422
-0.00117912 -0.00113336 -0.000704037
-0.00117886 -0.00113457 -0.000711898
-0.00117853 -0.00113542 -0.000719982
-0.00117813 -0.0011359 -0.000728248
-0.00117767 -0.00113602 -0.00073662
-0.00117715 -0.00113592 -0.000744994
-0.00117656 -0.00113571 -0.000753223
-0.001176 -0.00113537 -0.000761206
-0.0011754 -0.0011349 -0.000768851
-0.00117475 -0.00113435 -0.000775722
-0.00117404 -0.0011337 -0.000781856
-0.00117331 -0.00113298 -0.000786919
-0.00117255 -0.0011322 -0.000790779
-0.00117177 -0.00113137 -0.000793226
-0.001171 -0.0011305 -0.000794086
-0.00116966 -0.00112961 -0.000793944
-0.00116461 -0.00112874 -0.000793523
-0.00116022 -0.00112785 -0.000792818
-0.00115595 -0.00112697 -0.000791835
-0.00115203 -0.00112611 -0.000790543
-0.00114846 -0.00112526 -0.000788964
-0.00114528 -0.00112446 -0.000787085
-0.00114255 -0.00112369 -0.000784925
-0.00114014 -0.00112296 -0.000782497
-0.00113815 -0.00112227 -0.000779827
-0.00113648 -0.00112162 -0.000776936
-0.00113513 -0.00112101 -0.000773858
-0.00113406 -0.00112044 -0.000770627
-0.00113322 -0.00111991 -0.000767279
-0.00113257 -0.0011194 -0.000763851
-0.00113203 -0.00111893 -0.00075451
-0.00113149 -0.00111853 -0.000727819
-0.00113098 -0.00111812 -0.000702986
-0.00113046 -0.00111773 -0.00067831
-0.00112978 -0.00111736 -0.000656704
-0.00112899 -0.00111698 -0.000636144
-0.001128 -0.00111594 -0.000616914
-0.00112681 -0.0011146 -0.000599142
-0.0011253 -0.00111321 -0.000582879
-0.00112351 -0.00111175 -0.000568407
-0.00112138 -0.0011102 -0.000555785
-0.00111891 -0.00110858 -0.000545124
-0.00111609 -0.00110687 -0.00053649
-0.00111292 -0.00110509 -0.000529893
-0.00110942 -0.00110323 -0.00052535
-0.00110559 -0.00110131 -0.000522837
-0.00110147 -0.00109935 -0.000522261
-0.00109709 -0.00109736 -0.000522476
-0.00109249 -0.00109539 -0.000522945
-0.00108771 -0.00109345 -0.000523657
-0.00108281 -0.00109156 -0.000524585
-0.00107785 -0.00108975 -0.000525703
-0.00107287 -0.00108805 -0.000526984
-0.00106794 -0.00108647 -0.000528397
-0.00106313 -0.00108505 -0.000529912
-0.00105847 -0.0010838 -0.000531496
-0.00105404 -0.00108274 -0.00053312
-0.00104988 -0.0010819 -0.000534754
-0.00104602 -0.00108129 -0.00053637
-0.00104252 -0.00108091 -0.00053788
-0.0010394 -0.00108073 -0.000539285
-0.00103667 -0.00108075 -0.00054057
-0.00103435 -0.00108085 -0.000541776
-0.00103245 -0.00108102 -0.000542879
-0.00103095 -0.00108125 -0.000543871
-0.00102984 -0.00108154 -0.000544747
-0.00102909 -0.00108189 -0.000545504
-0.00102867 -0.00108228 -0.000547853
-0.00102855 -0.00108271 -0.000551794
-0.00102857 -0.00108317 -0.000554737
-0.00102862 -0.00108364 -0.000557046
-0.0010287 -0.00108413 -0.000558674
-0.00102878 -0.00108461 -0.000559732
-0.00102887 -0.00108508 -0.000560305
-0.00102895 -0.00108552 -0.000560476
-0.00102901 -0.00108592 -0.000560453
-0.00102906 -0.00108627 -0.000560396
-0.00102907 -0.00108657 -0.000560317
-0.00102904 -0.00108679 -0.000560228
-0.00102897 -0.00108695 -0.000560136
-0.00102885 -0.00108702 -0.000560048
-0.00102869 -0.00108702 -0.00055997
-0.0010281 -0.00108692 -0.000559903
-0.00102627 -0.00108676 -0.000559841
-0.00102423 -0.0010865 -0.00055979
-0.00102182 -0.00108616 -0.000559745
-0.00101912 -0.00108574 -0.000559694
-0.00101614 -0.00108524 -0.000559632
-0.00101292 -0.00108467 -0.000559547
-0.00100951 -0.00108405 -0.000559426
-0.00100595 -0.00108336 -0.000559256
-0.00100237 -0.00108264 -0.000559027
-0.000998845 -0.00108187 -0.000557701
-0.0009954 -0.00108108 -0.0005548
-0.000992099 -0.00107927 -0.000551266
-0.000989044 -0.00107654 -0.000547094
-0.000986132 -0.0010739 -0.000541796
-0.000983496 -0.00107131 -0.000535558
-0.000981121 -0.00106883 -0.000528224
-0.000979049 -0.00106648 -0.000519769
-0.000977302 -0.00106429 -0.000510206
-0.000975887 -0.00106232 -0.000500509
-0.000974822 -0.00106056 -0.000489817
-0.00097412 -0.00105901 -0.000478234
-0.000973768 -0.00105771 -0.000465752
-0.000973733 -0.00105663 -0.000452517
-0.000973788 -0.00105579 -0.000438626
-0.000973895 -0.00105518 -0.000424221
-0.000974051 -0.00105479 -0.000409471
-0.000974249 -0.00105459 -0.000394536
-0.000974485 -0.00105457 -0.000379612
-0.000974752 -0.00105461 -0.000364909
-0.000975045 -0.00105469 -0.000350626
-0.000975357 -0.0010548 -0.000336955
-0.000975681 -0.00105493 -0.000324094
-0.000976011 -0.00105508 -0.000312228
-0.000976342 -0.00105523 -0.000301535
-0.000976667 -0.00105538 -0.000292174
-0.000976982 -0.00105552 -0.000284288
-0.000977282 -0.00105565 -0.000277995
-0.000977565 -0.00105576 -0.00027339
-0.000977829 -0.00105585 -0.00027054
-0.000978072 -0.00105593 -0.000269488
-0.000978295 -0.00105599 -0.000269624
-0.000978496 -0.00105604 -0.000270021
-0.000978679 -0.00105608 -0.000270685
-0.000978846 -0.00105611 -0.000271599
-0.000979002 -0.00105615 -0.000272749
-0.00097915 -0.0010562 -0.000274114
-0.000979297 -0.00105626 -0.000275672
-0.000979447 -0.00105634 -0.000277399
-0.000979607 -0.00105646 -0.000279266
-0.000979783 -0.00105662 -0.000281248
-0.000979981 -0.00105682 -0.000283315
-0.000980205 -0.00105708 -0.000285437
-0.000980463 -0.0010574 -0.000287586
-0.000980758 -0.00105778 -0.000289736
-0.000981095 -0.00105823 -0.000291862
-0.000981476 -0.00105875 -0.000293844
-0.000981905 -0.00105933 -0.000295725
-0.000982382 -0.00105998 -0.000297469
-0.000982904 -0.00106071 -0.000299505
-0.000983477 -0.00106148 -0.000310977
-0.000984095 -0.0010623 -0.000322042
-0.000984749 -0.00106319 -0.000332407
-0.000985442 -0.00106412 -0.00034215
-0.000986165 -0.00106508 -0.000351193
-0.000986914 -0.00106607 -0.00035966
-0.000987683 -0.00106707 -0.000367572
-0.000988466 -0.00106807 -0.000375002
-0.000989256 -0.00106906 -0.000382022
-0.000990047 -0.00107003 -0.000388703
-0.000990833 -0.00107096 -0.000395144
-0.000991609 -0.00107185 -0.000401382
-0.000992365 -0.00107376 -0.000407461
-0.000993093 -0.00107625 -0.000413268
-0.000993803 -0.00107846 -0.000419234
-0.000994482 -0.00108047 -0.000425114
-0.000995134 -0.00108222 -0.000431038
-0.000995754 -0.00108373 -0.000436979
-0.000996343 -0.00108498 -0.000442912
-0.000996901 -0.00108599 -0.00044882
-0.00099743 -0.00108675 -0.000454646
-0.000997914 -0.0010873 -0.000460337
-0.000998388 -0.00108759 -0.000465868
-0.000998824 -0.00108773 -0.000471064
-0.000999248 -0.00108772 -0.000475868
-0.000999661 -0.00108768 -0.000480203
-0.00100007 -0.0010876 -0.000483923
-0.00100048 -0.00108751 -0.000486968
-0.00100089 -0.00108741 -0.00048924
-0.00100117 -0.00108733 -0.000490648
-0.00100121 -0.00108737 -0.000490842
-0.00100136 -0.00108734 -0.000490775
-0.00100179 -0.00108735 -0.000490545
-0.00100365 -0.00108734 -0.000490198
-0.00100551 -0.00108735 -0.000489721
-0.00100769 -0.00108737 -0.000489117
-0.00101007 -0.00108741 -0.000488407
-0.00101265 -0.00108745 -0.000487588
-0.00101542 -0.00108751 -0.000486681
-0.00101835 -0.00108757 -0.000485697
-0.00102141 -0.00108764 -0.000484652
-0.00102456 -0.00108773 -0.00048356
-0.00102776 -0.00108797 -0.000482439
-0.00103097 -0.00108825 -0.000481306
-0.00103417 -0.00108854 -0.000480182
-0.00103729 -0.00108882 -0.000479082
-0.00104031 -0.00108909 -0.000478025
-0.00104319 -0.00108935 -0.000477027
-0.00104589 -0.00108958 -0.000476104
-0.00104838 -0.00108979 -0.000475271
-0.00105064 -0.00108997 -0.00047454
-0.00105264 -0.00109012 -0.000473921
-0.00105436 -0.00109023 -0.000473425
-0.00105579 -0.00109031 -0.000473058
-0.00105694 -0.00109035 -0.000472824
-0.00105779 -0.00109036 -0.000472727
-0.00105837 -0.00109035 -0.000472766
-0.00105867 -0.00109034 -0.000472938
-0.00105873 -0.00109032 -0.000473241
-0.00105871 -0.0010903 -0.000473668
-0.00105867 -0.00109027 -0.000474212
-0.00105861 -0.00109025 -0.000474861
-0.00105854 -0.00109023 -0.000475607
-0.00105846 -0.00109021 -0.000476434
-0.00105837 -0.00109021 -0.000477329
-0.00105829 -0.00109022 -0.000478279
-0.0010582 -0.00109025 -0.000479268
-0.00105813 -0.0010903 -0.000480281
-0.00105807 -0.00109041 -0.000481305
-0.00105802 -0.00109073 -0.000482321
-0.00105799 -0.00109113 -0.00048332
-0.00105798 -0.00109161 -0.000484289
-0.001058 -0.00109219 -0.000485217
-0.00105804 -0.00109285 -0.000486096
-0.00105809 -0.0010936 -0.000486917
-0.00105815 -0.00109445 -0.000487672
-0.00105821 -0.00109538 -0.000488359
-0.00105828 -0.00109638 -0.000488975
-0.00105835 -0.00109743 -0.00048952
-0.00105842 -0.00109853 -0.000489997
-0.00105849 -0.00109964 -0.000490407
-0.00105856 -0.00110075 -0.00049073
-0.00105861 -0.00110183 -0.000491784
-0.00105865 -0.00110286 -0.000493453
-0.00105868 -0.00110384 -0.000494759
-0.00105869 -0.00110473 -0.000495865
-0.00105867 -0.00110568 -0.000496965
-0.00105861 -0.00110644 -0.000497836
-0.0010585 -0.00110696 -0.000498548
-0.00105835 -0.00110723 -0.000499146
-0.00105814 -0.00110724 -0.000499654
-0.00105788 -0.00110715 -0.000500057
-0.00105757 -0.00110696 -0.000500335
-0.00105721 -0.00110668 -0.000500438
-0.00105681 -0.00110632 -0.000500414
-0.00105636 -0.00110588 -0.000500341
-0.00105587 -0.00110537 -0.000500202
-0.00105536 -0.0011048 -0.000499983
-0.00105483 -0.00110418 -0.000499666
-0.00105432 -0.00110352 -0.000499237
-0.00105382 -0.00110284 -0.000498682
-0.00105189 -0.00110216 -0.000497981
-0.00104894 -0.0011015 -0.000497117
-0.00104616 -0.00110085 -0.000496111
-0.0010436 -0.00110022 -0.000494942
-0.00104127 -0.00109962 -0.000493626
-0.00103921 -0.00109907 -0.000492169
-0.00103742 -0.00109855 -0.000490586
-0.00103588 -0.00109808 -0.000488897
-0.00103458 -0.00109766 -0.000487126
-0.00103349 -0.00109729 -0.000485301
-0.0010326 -0.00109697 -0.000483454
-0.00103184 -0.00109668 -0.000481618
-0.00103118 -0.00109601 -0.000479268
-0.00103053 -0.00109537 -0.000467064
-0.00102986 -0.00109475 -0.000455841
-0.00102912 -0.00109422 -0.000445434
-0.00102827 -0.0010937 -0.000436808
-0.00102725 -0.00109321 -0.000429648
-0.00102605 -0.00109269 -0.000423883
-0.00102462 -0.00109216 -0.000419549
-0.00102296 -0.00109158 -0.000416729
-0.00102104 -0.00109095 -0.000415436
-0.00101888 -0.00109027 -0.000415411
-0.00101647 -0.00108956 -0.00041568
-0.00101383 -0.00108882 -0.000416166
-0.00101098 -0.00108805 -0.000416847
-0.00100798 -0.00108727 -0.000417705
-0.00100485 -0.00108649 -0.000418646
-0.00100165 -0.00108571 -0.000419668
-0.000998413 -0.00108497 -0.000420771
-0.000995205 -0.00108428 -0.000421929
-0.000992077 -0.00108362 -0.000429369
-0.000989079 -0.00108305 -0.000437826
-0.000986226 -0.00108258 -0.000446097
-0.000983571 -0.00108222 -0.000453941
-0.000981141 -0.00108198 -0.000461211
-0.000978954 -0.00108186 -0.000467766
-0.000977025 -0.00108185 -0.00047349
-0.00097536 -0.00108189 -0.000478303
-0.000973953 -0.00108195 -0.000482145
-0.000972791 -0.00108205 -0.00048498
-0.000971851 -0.00108216 -0.000486803
-0.000971102 -0.00108229 -0.000487632
-0.000970509 -0.00108243 -0.000487662
-0.000970033 -0.00108256 -0.000487503
-0.000969626 -0.00108267 -0.000487221
-0.000969243 -0.00108277 -0.000486833
-0.000968836 -0.00108283 -0.000486352
-0.000968359 -0.00108286 -0.000485798
-0.000967769 -0.00108284 -0.000485186
-0.00096703 -0.00108277 -0.000484533
-0.000966111 -0.00108264 -0.000483854
-0.000964988 -0.00108245 -0.000483161
-0.000963648 -0.0010822 -0.000482466
-0.000962085 -0.0010819 -0.000481778
-0.000960325 -0.00108081 -0.000481109
-0.000958367 -0.00107943 -0.000478149
-0.000956214 -0.00107791 -0.000473579
-0.000953925 -0.00107623 -0.000469126
-0.000951515 -0.00107444 -0.000464718
-0.000949041 -0.00107255 -0.000460292
-0.00094654 -0.00107062 -0.000456075
-0.000944066 -0.00106867 -0.000451859
-0.000941697 -0.00106673 -0.000447478
-0.000939472 -0.00106484 -0.000442848
-0.000937426 -0.00106303 -0.000437915
-0.000935588 -0.00106133 -0.00043264
-0.000933982 -0.00105978 -0.000426999
-0.000932628 -0.00105839 -0.000420983
-0.000931539 -0.00105719 -0.000414609
-0.000930722 -0.0010562 -0.000407917
-0.00093028 -0.00105539 -0.000400978
-0.000930171 -0.00105479 -0.00039389
-0.000930205 -0.00105439 -0.000386699
-0.000930281 -0.0010542 -0.000379557
-0.000930397 -0.00105418 -0.000372582
-0.000930548 -0.00105423 -0.000365928
-0.000930725 -0.00105433 -0.000359745
-0.000930922 -0.00105446 -0.000354184
-0.000931131 -0.00105463 -0.000349394
-0.000931343 -0.00105482 -0.000345513
-0.000931553 -0.00105502 -0.000342669
-0.000931752 -0.00105524 -0.00034097
-0.000931937 -0.00105545 -0.000340498
-0.000932114 -0.00105566 -0.000340637
-0.000932281 -0.00105587 -0.000340978
-0.000932437 -0.00105607 -0.00034152
-0.000932582 -0.00105625 -0.000342256
-0.000932718 -0.00105643 -0.000343176
-0.000932847 -0.0010566 -0.000344261
-0.000932973 -0.00105676 -0.000345491
-0.0009331 -0.00105693 -0.000346839
-0.000933235 -0.00105711 -0.000348279
-0.000933381 -0.0010573 -0.00034978
-0.000933545 -0.00105751 -0.000351312
-0.000933733 -0.00105775 -0.000352785
-0.000933951 -0.00105801 -0.00035418
-0.0009342 -0.00105831 -0.000357817
-0.000934489 -0.00105862 -0.00036737
-0.000934812 -0.00105899 -0.000375938
-0.000935176 -0.0010594 -0.000383934
-0.000935577 -0.00105985 -0.000391126
-0.000936015 -0.00106033 -0.000397545
-0.000936488 -0.00106085 -0.000403153
-0.000936992 -0.00106139 -0.000407975
-0.000937523 -0.00106195 -0.000412043
-0.000938075 -0.00106252 -0.000415417
-0.000938645 -0.00106309 -0.000418173
-0.000939225 -0.00106365 -0.000420395
-0.00093981 -0.00106419 -0.000422173
-0.000940394 -0.0010647 -0.000423612
-0.000940973 -0.00106518 -0.000424791
-0.00094154 -0.00106562 -0.000425803
-0.000942093 -0.001066 -0.000426718
-0.000942627 -0.00106637 -0.0004276
-0.000943137 -0.00106726 -0.000428435
-0.000943628 -0.00106796 -0.00042935
-0.000944097 -0.0010685 -0.000430308
-0.000944546 -0.00106889 -0.00043134
-0.000944976 -0.00106915 -0.000432405
-0.000945378 -0.00106928 -0.000433483
-0.000945766 -0.00106929 -0.000434546
-0.000946142 -0.00106928 -0.000435476
-0.000946513 -0.00106925 -0.000436263
-0.000946883 -0.00106923 -0.000436803
-0.000947257 -0.00106922 -0.000437066
-0.000947554 -0.00106924 -0.000437065
-0.000947697 -0.00106947 -0.000436957
-0.000947888 -0.00106975 -0.000436844
-0.000948094 -0.00107015 -0.000436661
-0.000948704 -0.0010706 -0.000436455
-0.000951134 -0.00107104 -0.000436232
-0.000953462 -0.00107157 -0.000435985
-0.000955939 -0.00107212 -0.000435739
-0.000958447 -0.00107272 -0.000435493
-0.000960975 -0.00107333 -0.000435267
-0.000963471 -0.00107397 -0.000435067
-0.000965909 -0.00107461 -0.000434907
-0.000968246 -0.00107525 -0.000434796
-0.000970451 -0.00107588 -0.000434742
-0.000972493 -0.00107648 -0.000434754
-0.000974349 -0.00107706 -0.000434836
-0.000975999 -0.00107761 -0.000434993
-0.00097743 -0.00107812 -0.000435225
-0.000978635 -0.00107859 -0.000435532
-0.000979616 -0.00107901 -0.000435911
-0.000980379 -0.00107939 -0.000436357
-0.000980937 -0.00107973 -0.000436862
-0.000981318 -0.00108002 -0.00043895
-0.000981556 -0.00108025 -0.000442935
-0.000981636 -0.00108047 -0.000447089
-0.000981642 -0.00108066 -0.000451396
-0.000981632 -0.00108083 -0.000455771
-0.000981617 -0.00108099 -0.000460136
-0.0009816 -0.00108115 -0.000464411
-0.000981585 -0.00108131 -0.000468522
-0.000981575 -0.00108149 -0.000472395
-0.000981571 -0.00108168 -0.000475965
-0.000981576 -0.0010819 -0.000479173
-0.000981591 -0.00108214 -0.000481974
-0.000981617 -0.0010824 -0.000484333
-0.0009817 -0.00108269 -0.000486221
-0.000982128 -0.00108299 -0.000487637
-0.000982498 -0.00108332 -0.000488551
-0.000982849 -0.00108366 -0.000488995
-0.000983156 -0.00108401 -0.000489029
-0.000983404 -0.00108435 -0.000488962
-0.000983569 -0.00108467 -0.000488838
-0.000983626 -0.00108495 -0.000488666
-0.000983617 -0.00108517 -0.000488455
-0.00098359 -0.00108533 -0.000488215
-0.000983543 -0.0010854 -0.000487955
-0.000983474 -0.0010854 -0.000487682
-0.000983379 -0.00108536 -0.000487403
-0.000983259 -0.00108528 -0.000487124
-0.000983111 -0.00108517 -0.000486851
-0.000982936 -0.00108502 -0.000486585
-0.000982735 -0.00108483 -0.000486329
-0.000982508 -0.00108461 -0.00048608
-0.000982257 -0.00108436 -0.000485839
-0.000981985 -0.00108408 -0.0004856
-0.000981693 -0.00108378 -0.000485359
-0.000981385 -0.00108346 -0.000485111
-0.000981064 -0.00108313 -0.000484851
-0.00098074 -0.00108279 -0.000484571
-0.000980268 -0.00108244 -0.000484265
-0.000978499 -0.0010821 -0.000483931
-0.000976892 -0.00108177 -0.00048356
-0.000975322 -0.00108145 -0.000483148
-0.000973848 -0.00108115 -0.0004827
-0.000972476 -0.00108088 -0.000482209
-0.000971232 -0.00108062 -0.000481681
-0.000970099 -0.0010804 -0.000481118
-0.000969085 -0.0010802 -0.00048053
-0.000968177 -0.00108003 -0.00047992
-0.000967368 -0.00107988 -0.000479299
-0.00096664 -0.00107976 -0.000478678
-0.000965975 -0.00107966 -0.000478069
-0.000965355 -0.00107945 -0.000477485
-0.000964753 -0.00107923 -0.000476937
-0.000964158 -0.00107905 -0.000476437
-0.00096352 -0.0010789 -0.000475996
-0.000962839 -0.00107876 -0.000475625
-0.000962079 -0.00107862 -0.000475334
-0.000961224 -0.00107846 -0.000474195
-0.000960256 -0.00107829 -0.000473365
-0.000959172 -0.00107808 -0.000473179
-0.00095796 -0.00107784 -0.000473252
-0.00095662 -0.00107755 -0.000473497
-0.00095516 -0.00107721 -0.000475252
-0.000953583 -0.00107683 -0.000477534
-0.000951903 -0.00107641 -0.000480321
-0.000950135 -0.00107595 -0.000483501
-0.000948298 -0.00107546 -0.000486991
-0.000946414 -0.00107495 -0.000490683
-0.000944507 -0.00107442 -0.000494468
-0.0009426 -0.00107389 -0.000498236
-0.000940717 -0.00107337 -0.000501873
-0.000938883 -0.00107286 -0.000505274
-0.000937119 -0.00107237 -0.000508335
-0.000935443 -0.00107192 -0.000510965
-0.000933872 -0.0010715 -0.000513088
-0.000932417 -0.00107111 -0.000514635
-0.000931087 -0.00107077 -0.000515558
-0.000929884 -0.00107047 -0.000515824
-0.000928809 -0.0010702 -0.000515762
-0.000927857 -0.00106995 -0.000515608
-0.000927018 -0.00106973 -0.000515363
