0 0 1040.18 0 0 -1040.18 0 0 1027.77 0 0 -1027.77 0 0 36.2628 0 0 -36.2628
0 0 1047.61 0 0 -1047.61 0 0 1026.64 0 0 -1026.64 0 0 36.3111 0 0 -36.3111
0 0 1064.64 0 0 -1064.64 0 0 1024.28 0 0 -1024.28 0 0 36.4033 0 0 -36.4033
0 0 1099.86 0 0 -1099.86 0 0 1020.06 0 0 -1020.06 0 0 36.5211 0 0 -36.5211
0 0 1139.93 0 0 -1139.93 0 0 1015.92 0 0 -1015.92 0 0 36.5827 0 0 -36.5827
0 0 1191.53 0 0 -1191.53 0 0 1011.48 0 0 -1011.48 0 0 36.566 0 0 -36.566
0 0 1255.6 0 0 -1255.6 0 0 1007.27 0 0 -1007.27 0 0 36.4156 0 0 -36.4156
0 0 1333.13 0 0 -1333.13 0 0 1003.92 0 0 -1003.92 0 0 36.0664 0 0 -36.0664
0 0 1425.23 0 0 -1425.23 0 0 1002.08 0 0 -1002.08 0 0 35.4549 0 0 -35.4549
0 0 1533.08 0 0 -1533.08 0 0 1002.46 0 0 -1002.46 0 0 34.5225 0 0 -34.5225
0 0 1657.76 0 0 -1657.76 0 0 1005.88 0 0 -1005.88 0 0 33.2135 0 0 -33.2135
0 0 1799.9 0 0 -1799.9 0 0 1013.28 0 0 -1013.28 0 0 31.4765 0 0 -31.4765
0 0 1959.22 0 0 -1959.22 0 0 1025.77 0 0 -1025.77 0 0 29.2683 0 0 -29.2683
0 0 2134.04 0 0 -2134.04 0 0 1044.37 0 0 -1044.37 0 0 26.5765 0 0 -26.5765
0 0 2322.17 0 0 -2322.17 0 0 1070.72 0 0 -1070.72 0 0 23.3619 0 0 -23.3619
0 0 2519.25 0 0 -2519.25 0 0 1106.21 0 0 -1106.21 0 0 19.6509 0 0 -19.6509
0 0 2720.14 0 0 -2720.14 0 0 1152.24 0 0 -1152.24 0 0 15.5007 0 0 -15.5007
0 0 2919.01 0 0 -2919.01 0 0 1209.99 0 0 -1209.99 0 0 11.0202 0 0 -11.0202
0 0 3109.75 0 0 -3109.75 0 0 1280.31 0 0 -1280.31 0 0 6.37681 0 0 -6.37681
0 0 3286.41 0 0 -3286.41 0 0 1363.56 0 0 -1363.56 0 0 1.78026 0 0 -1.78026
0 0 3443.07 0 0 -3443.07 0 0 1459.59 0 0 -1459.59 0 0 -2.43152 0 0 2.43152
0 0 3573.16 0 0 -3573.16 0 0 1567.81 0 0 -1567.81 0 0 -5.87116 0 0 5.87116
0 0 3668.98 0 0 -3668.98 0 0 1687.22 0 0 -1687.22 0 0 -8.10089 0 0 8.10089
0 0 3721.3 0 0 -3721.3 0 0 1816.42 0 0 -1816.42 0 0 -8.63585 0 0 8.63585
0 0 3719.46 0 0 -3719.46 0 0 1953.62 0 0 -1953.62 0 0 -6.95581 0 0 6.95581
0 0 3652.22 0 0 -3652.22 0 0 2096.09 0 0 -2096.09 0 0 -2.50884 0 0 2.50884
0 0 3510.53 0 0 -3510.53 0 0 2240.57 0 0 -2240.57 0 0 5.17768 0 0 -5.17768
0 0 3291.03 0 0 -3291.03 0 0 2382.55 0 0 -2382.55 0 0 16.8648 0 0 -16.8648
0 0 2998.93 0 0 -2998.93 0 0 2515.26 0 0 -2515.26 0 0 33.2288 0 0 -33.2288
0 0 2646.99 0 0 -2646.99 0 0 2630.91 0 0 -2630.91 0 0 54.889 0 0 -54.889
0 0 2251.5 0 0 -2251.5 0 0 2721.51 0 0 -2721.51 0 0 82.2783 0 0 -82.2783
0 0 1827.16 0 0 -1827.16 0 0 2779.45 0 0 -2779.45 0 0 115.85 0 0 -115.85
0 0 1390 0 0 -1390 0 0 2798.74 0 0 -2798.74 0 0 155.633 0 0 -155.633
0 0 951.137 0 0 -951.137 0 0 2774.83 0 0 -2774.83 0 0 201.382 0 0 -201.382
0 0 519.065 0 0 -519.065 0 0 2705.12 0 0 -2705.12 0 0 252.567 0 0 -252.567
0 0 95.4589 0 0 -95.4589 0 0 2588.94 0 0 -2588.94 0 0 308.311 0 0 -308.311
0 0 -315.735 0 0 315.735 0 0 2427.37 0 0 -2427.37 0 0 367.474 0 0 -367.474
0 0 -714.898 0 0 714.898 0 0 2224.68 0 0 -2224.68 0 0 428.479 0 0 -428.479
0 0 -1100.75 0 0 1100.75 0 0 1984.98 0 0 -1984.98 0 0 489.655 0 0 -489.655
0 0 -1474.37 0 0 1474.37 0 0 1713.48 0 0 -1713.48 0 0 549.006 0 0 -549.006
0 0 -1836.23 0 0 1836.23 0 0 1418.06 0 0 -1418.06 0 0 604.691 0 0 -604.691
0 0 -2184.88 0 0 2184.88 0 0 1105.43 0 0 -1105.43 0 0 654.643 0 0 -654.643
0 0 -2516.03 0 0 2516.03 0 0 782.576 0 0 -782.576 0 0 696.888 0 0 -696.888
0 0 -2822.58 0 0 2822.58 0 0 456.301 0 0 -456.301 0 0 729.521 0 0 -729.521
0 0 -3095.85 0 0 3095.85 0 0 133.207 0 0 -133.207 0 0 750.789 0 0 -750.789
0 0 -3329.01 0 0 3329.01 0 0 -180.936 0 0 180.936 0 0 759.103 0 0 -759.103
0 0 -3521.73 0 0 3521.73 0 0 -480.633 0 0 480.633 0 0 752.843 0 0 -752.843
0 0 -3680.28 0 0 3680.28 0 0 -756.56 0 0 756.56 0 0 731.29 0 0 -731.29
0 0 -3818.66 0 0 3818.66 0 0 -1000.85 0 0 1000.85 0 0 693.501 0 0 -693.501
0 0 -3957.93 0 0 3957.93 0 0 -1206.15 0 0 1206.15 0 0 639.016 0 0 -639.016
0 0 -4175.25 0 0 4175.25 0 0 -1399.29 0 0 1399.29 0 0 547.5 0 0 -547.5
0 0 -4497.29 0 0 4497.29 0 0 -1515.6 0 0 1515.6 0 0 431.089 0 0 -431.089
0 0 -4981.61 0 0 4981.61 0 0 -1554.19 0 0 1554.19 0 0 292.209 0 0 -292.209
0 0 -5671.1 0 0 5671.1 0 0 -1523.4 0 0 1523.4 0 0 134.658 0 0 -134.658
0 0 -6586.23 0 0 6586.23 0 0 -1442.56 0 0 1442.56 0 0 -37.8564 0 0 37.8564
0 0 -7720.96 0 0 7720.96 0 0 -1340.76 0 0 1340.76 0 0 -218.856 0 0 218.856
0 0 -9040.75 0 0 9040.75 0 0 -1254.42 0 0 1254.42 0 0 -400.139 0 0 400.139
0 0 -10485.6 0 0 10485.6 0 0 -1225.24 0 0 1225.24 0 0 -574.721 0 0 574.721
0 0 -11985.1 0 0 11985.1 0 0 -1295.21 0 0 1295.21 0 0 -735.72 0 0 735.72
0 0 -13479.4 0 0 13479.4 0 0 -1499.86 0 0 1499.86 0 0 -877.791 0 0 877.791
0 0 -14931.3 0 0 14931.3 0 0 -1863.68 0 0 1863.68 0 0 -997.142 0 0 997.142
0 0 -16325.1 0 0 16325.1 0 0 -2399.11 0 0 2399.11 0 0 -1091.81 0 0 1091.81
0 0 -17660.4 0 0 17660.4 0 0 -3106.67 0 0 3106.67 0 0 -1161.9 0 0 1161.9
0 0 -18944.9 0 0 18944.9 0 0 -3975.74 0 0 3975.74 0 0 -1209.57 0 0 1209.57
0 0 -20186.9 0 0 20186.9 0 0 -4986.3 0 0 4986.3 0 0 -1238.8 0 0 1238.8
0 0 -21387.2 0 0 21387.2 0 0 -6111.75 0 0 6111.75 0 0 -1254.95 0 0 1254.95
0 0 -22538.7 0 0 22538.7 0 0 -7320.28 0 0 7320.28 0 0 -1264.5 0 0 1264.5
0 0 -23636.5 0 0 23636.5 0 0 -8575.07 0 0 8575.07 0 0 -1274.72 0 0 1274.72
0 0 -24686.6 0 0 24686.6 0 0 -9835.3 0 0 9835.3 0 0 -1293.31 0 0 1293.31
0 0 -25705.1 0 0 25705.1 0 0 -11058.8 0 0 11058.8 0 0 -1327.78 0 0 1327.78
0 0 -26709.9 0 0 26709.9 0 0 -12205.6 0 0 12205.6 0 0 -1384.87 0 0 1384.87
0 0 -27708.2 0 0 27708.2 0 0 -13242.2 0 0 13242.2 0 0 -1470.1 0 0 1470.1
0 0 -28689.8 0 0 28689.8 0 0 -14144 0 0 14144 0 0 -1587.32 0 0 1587.32
0 0 -29634.8 0 0 29634.8 0 0 -14895.7 0 0 14895.7 0 0 -1738.53 0 0 1738.53
0 0 -30525.2 0 0 30525.2 0 0 -15489.6 0 0 15489.6 0 0 -1923.78 0 0 1923.78
0 0 -31347.3 0 0 31347.3 0 0 -15926 0 0 15926 0 0 -2141.17 0 0 2141.17
0 0 -32093 0 0 32093 0 0 -16212.1 0 0 16212.1 0 0 -2386.97 0 0 2386.97
0 0 -32760.1 0 0 32760.1 0 0 -16361.3 0 0 16361.3 0 0 -2655.77 0 0 2655.77
0 0 -33352.1 0 0 33352.1 0 0 -16392.7 0 0 16392.7 0 0 -2940.76 0 0 2940.76
0 0 -33877.5 0 0 33877.5 0 0 -16329.3 0 0 16329.3 0 0 -3233.98 0 0 3233.98
0 0 -34346.2 0 0 34346.2 0 0 -16197.8 0 0 16197.8 0 0 -3526.75 0 0 3526.75
0 0 -34769.3 0 0 34769.3 0 0 -16026.5 0 0 16026.5 0 0 -3810.03 0 0 3810.03
0 0 -35161.3 0 0 35161.3 0 0 -15843.5 0 0 15843.5 0 0 -4074.89 0 0 4074.89
0 0 -35542.7 0 0 35542.7 0 0 -15674.9 0 0 15674.9 0 0 -4312.91 0 0 4312.91
0 0 -35939.4 0 0 35939.4 0 0 -15543.6 0 0 15543.6 0 0 -4516.58 0 0 4516.58
0 0 -36376.4 0 0 36376.4 0 0 -15469.2 0 0 15469.2 0 0 -4679.55 0 0 4679.55
0 0 -36865.6 0 0 36865.6 0 0 -15468.4 0 0 15468.4 0 0 -4796.89 0 0 4796.89
0 0 -37395.9 0 0 37395.9 0 0 -15556.1 0 0 15556.1 0 0 -4865.17 0 0 4865.17
0 0 -37932.8 0 0 37932.8 0 0 -15743.7 0 0 15743.7 0 0 -4882.79 0 0 4882.79
0 0 -38429.4 0 0 38429.4 0 0 -16037 0 0 16037 0 0 -4850.11 0 0 4850.11
0 0 -38764.6 0 0 38764.6 0 0 -16346.5 0 0 16346.5 0 0 -4789.33 0 0 4789.33
0 0 -39069 0 0 39069 0 0 -16817.9 0 0 16817.9 0 0 -4673.76 0 0 4673.76
0 0 -39214.9 0 0 39214.9 0 0 -17364 0 0 17364 0 0 -4520.03 0 0 4520.03
0 0 -39180 0 0 39180 0 0 -17955.6 0 0 17955.6 0 0 -4336.06 0 0 4336.06
0 0 -38947.6 0 0 38947.6 0 0 -18556.7 0 0 18556.7 0 0 -4131.01 0 0 4131.01
0 0 -38500.8 0 0 38500.8 0 0 -19126.9 0 0 19126.9 0 0 -3914.83 0 0 3914.83
0 0 -37823.8 0 0 37823.8 0 0 -19623.8 0 0 19623.8 0 0 -3697.67 0 0 3697.67
0 0 -36901.8 0 0 36901.8 0 0 -20004.7 0 0 20004.7 0 0 -3489.39 0 0 3489.39
0 0 -35720.4 0 0 35720.4 0 0 -20229.8 0 0 20229.8 0 0 -3298.95 0 0 3298.95
0 0 -34267.3 0 0 34267.3 0 0 -20263.3 0 0 20263.3 0 0 -3133.96 0 0 3133.96
0 0 -32534.4 0 0 32534.4 0 0 -20075.1 0 0 20075.1 0 0 -3000.27 0 0 3000.27
0 0 -30516.8 0 0 30516.8 0 0 -19642.6 0 0 19642.6 0 0 -2901.59 0 0 2901.59
0 0 -28216.7 0 0 28216.7 0 0 -18951.2 0 0 18951.2 0 0 -2839.27 0 0 2839.27
0 0 -25651 0 0 25651 0 0 -17993.9 0 0 17993.9 0 0 -2812.27 0 0 2812.27
0 0 -22860.5 0 0 22860.5 0 0 -16770.4 0 0 16770.4 0 0 -2817.14 0 0 2817.14
0 0 -19904.4 0 0 19904.4 0 0 -15288.7 0 0 15288.7 0 0 -2848.02 0 0 2848.02
0 0 -16843.9 0 0 16843.9 0 0 -13567 0 0 13567 0 0 -2896.73 0 0 2896.73
0 0 -13733.9 0 0 13733.9 0 0 -11634.6 0 0 11634.6 0 0 -2953.05 0 0 2953.05
0 0 -10626 0 0 10626 0 0 -9530.07 0 0 9530.07 0 0 -3005.13 0 0 3005.13
0 0 -7569.87 0 0 7569.87 0 0 -7299.5 0 0 7299.5 0 0 -3040.07 0 0 3040.07
0 0 -4611.64 0 0 4611.64 0 0 -4994.63 0 0 4994.63 0 0 -3044.5 0 0 3044.5
0 0 -1789.75 0 0 1789.75 0 0 -2670.83 0 0 2670.83 0 0 -3005.26 0 0 3005.26
0 0 858.467 0 0 -858.467 0 0 -388.27 0 0 388.27 0 0 -2909.91 0 0 2909.91
0 0 3313.74 0 0 -3313.74 0 0 1782.79 0 0 -1782.79 0 0 -2748.98 0 0 2748.98
0 0 5619.19 0 0 -5619.19 0 0 3788.8 0 0 -3788.8 0 0 -2513.09 0 0 2513.09
0 0 7789.86 0 0 -7789.86 0 0 5607.32 0 0 -5607.32 0 0 -2196.65 0 0 2196.65
0 0 9823.59 0 0 -9823.59 0 0 7210.34 0 0 -7210.34 0 0 -1797.44 0 0 1797.44
0 0 11704.3 0 0 -11704.3 0 0 8579.62 0 0 -8579.62 0 0 -1316.98 0 0 1316.98
0 0 13406.7 0 0 -13406.7 0 0 9712.96 0 0 -9712.96 0 0 -760.118 0 0 760.118
0 0 14916.3 0 0 -14916.3 0 0 10623.2 0 0 -10623.2 0 0 -135.899 0 0 135.899
0 0 16247.9 0 0 -16247.9 0 0 11324.9 0 0 -11324.9 0 0 534.286 0 0 -534.286
0 0 17439.8 0 0 -17439.8 0 0 11840.6 0 0 -11840.6 0 0 1245.29 0 0 -1245.29
0 0 18542.9 0 0 -18542.9 0 0 12200.5 0 0 -12200.5 0 0 1982.34 0 0 -1982.34
0 0 19610 0 0 -19610 0 0 12442.1 0 0 -12442.1 0 0 2727.24 0 0 -2727.24
0 0 20695 0 0 -20695 0 0 12605.7 0 0 -12605.7 0 0 3461.44 0 0 -3461.44
0 0 21855.4 0 0 -21855.4 0 0 12733.4 0 0 -12733.4 0 0 4166.18 0 0 -4166.18
0 0 23150.7 0 0 -23150.7 0 0 12869.8 0 0 -12869.8 0 0 4823.36 0 0 -4823.36
0 0 24635.9 0 0 -24635.9 0 0 13057.9 0 0 -13057.9 0 0 5416.31 0 0 -5416.31
0 0 26353.4 0 0 -26353.4 0 0 13338.2 0 0 -13338.2 0 0 5929.96 0 0 -5929.96
0 0 28322.3 0 0 -28322.3 0 0 13749.5 0 0 -13749.5 0 0 6351.38 0 0 -6351.38
0 0 30529.5 0 0 -30529.5 0 0 14327.5 0 0 -14327.5 0 0 6670.88 0 0 -6670.88
0 0 32931 0 0 -32931 0 0 15102.1 0 0 -15102.1 0 0 6882.21 0 0 -6882.21
0 0 35465.1 0 0 -35465.1 0 0 16092.5 0 0 -16092.5 0 0 6983.11 0 0 -6983.11
0 0 38067.3 0 0 -38067.3 0 0 17304.5 0 0 -17304.5 0 0 6975.41 0 0 -6975.41
0 0 40679.1 0 0 -40679.1 0 0 18727.8 0 0 -18727.8 0 0 6865.35 0 0 -6865.35
0 0 43253.2 0 0 -43253.2 0 0 20335.3 0 0 -20335.3 0 0 6663.46 0 0 -6663.46
0 0 45753.7 0 0 -45753.7 0 0 22084.3 0 0 -22084.3 0 0 6383.99 0 0 -6383.99
0 0 48154.8 0 0 -48154.8 0 0 23919.3 0 0 -23919.3 0 0 6044.19 0 0 -6044.19
0 0 50440.2 0 0 -50440.2 0 0 25775.3 0 0 -25775.3 0 0 5663.52 0 0 -5663.52
0 0 52598.3 0 0 -52598.3 0 0 27582.1 0 0 -27582.1 0 0 5262.66 0 0 -5262.66
0 0 54615.8 0 0 -54615.8 0 0 29269.4 0 0 -29269.4 0 0 4862.47 0 0 -4862.47
0 0 56474.3 0 0 -56474.3 0 0 30771.7 0 0 -30771.7 0 0 4482.86 0 0 -4482.86
0 0 58153.5 0 0 -58153.5 0 0 32031.3 0 0 -32031.3 0 0 4141.86 0 0 -4141.86
0 0 59634.4 0 0 -59634.4 0 0 33001.2 0 0 -33001.2 0 0 3854.87 0 0 -3854.87
0 0 60555.5 0 0 -60555.5 0 0 33628 0 0 -33628 0 0 3635.09 0 0 -3635.09
0 0 60631.4 0 0 -60631.4 0 0 33730.6 0 0 -33730.6 0 0 3501.99 0 0 -3501.99
0 0 60697.3 0 0 -60697.3 0 0 33523.2 0 0 -33523.2 0 0 3443.13 0 0 -3443.13
0 0 60732.9 0 0 -60732.9 0 0 33105.4 0 0 -33105.4 0 0 3452.92 0 0 -3452.92
0 0 60752.8 0 0 -60752.8 0 0 32415.2 0 0 -32415.2 0 0 3531.11 0 0 -3531.11
0 0 60623.1 0 0 -60623.1 0 0 31486.9 0 0 -31486.9 0 0 3672.15 0 0 -3672.15
0 0 59248.6 0 0 -59248.6 0 0 30540.7 0 0 -30540.7 0 0 3856.37 0 0 -3856.37
0 0 57704.5 0 0 -57704.5 0 0 29391.2 0 0 -29391.2 0 0 4087.65 0 0 -4087.65
0 0 56031.7 0 0 -56031.7 0 0 28107.2 0 0 -28107.2 0 0 4346.2 0 0 -4346.2
0 0 54222.7 0 0 -54222.7 0 0 26733.1 0 0 -26733.1 0 0 4621.2 0 0 -4621.2
0 0 52350.4 0 0 -52350.4 0 0 25306.8 0 0 -25306.8 0 0 4898.14 0 0 -4898.14
0 0 50523.7 0 0 -50523.7 0 0 23874.2 0 0 -23874.2 0 0 5161.69 0 0 -5161.69
0 0 48778.4 0 0 -48778.4 0 0 22493.5 0 0 -22493.5 0 0 5396.03 0 0 -5396.03
0 0 47184.3 0 0 -47184.3 0 0 21204.4 0 0 -21204.4 0 0 5587.62 0 0 -5587.62
0 0 45810.7 0 0 -45810.7 0 0 20041.8 0 0 -20041.8 0 0 5725.19 0 0 -5725.19
0 0 44701.5 0 0 -44701.5 0 0 19045.8 0 0 -19045.8 0 0 5798.7 0 0 -5798.7
0 0 43897.9 0 0 -43897.9 0 0 18246.9 0 0 -18246.9 0 0 5800.45 0 0 -5800.45
0 0 43434.6 0 0 -43434.6 0 0 17663.4 0 0 -17663.4 0 0 5726.02 0 0 -5726.02
0 0 43324.3 0 0 -43324.3 0 0 17308.8 0 0 -17308.8 0 0 5574.27 0 0 -5574.27
0 0 43569.5 0 0 -43569.5 0 0 17190.2 0 0 -17190.2 0 0 5347.14 0 0 -5347.14
0 0 44159.5 0 0 -44159.5 0 0 17304.9 0 0 -17304.9 0 0 5049.6 0 0 -5049.6
0 0 45037.5 0 0 -45037.5 0 0 17645.8 0 0 -17645.8 0 0 4689.51 0 0 -4689.51
0 0 45936.2 0 0 -45936.2 0 0 18229.2 0 0 -18229.2 0 0 4276.09 0 0 -4276.09
0 0 46793.9 0 0 -46793.9 0 0 19020.1 0 0 -19020.1 0 0 3823.92 0 0 -3823.92
0 0 47566.3 0 0 -47566.3 0 0 19976.6 0 0 -19976.6 0 0 3349.36 0 0 -3349.36
0 0 48226.5 0 0 -48226.5 0 0 21043.7 0 0 -21043.7 0 0 2870.55 0 0 -2870.55
0 0 48659.7 0 0 -48659.7 0 0 21933.8 0 0 -21933.8 0 0 2497.39 0 0 -2497.39
0 0 48999.7 0 0 -48999.7 0 0 22818.7 0 0 -22818.7 0 0 2143.88 0 0 -2143.88
0 0 49239.4 0 0 -49239.4 0 0 23664.5 0 0 -23664.5 0 0 1819.64 0 0 -1819.64
0 0 49370.8 0 0 -49370.8 0 0 24439.1 0 0 -24439.1 0 0 1533.54 0 0 -1533.54
0 0 49386.2 0 0 -49386.2 0 0 25112.8 0 0 -25112.8 0 0 1293.55 0 0 -1293.55
0 0 49278.2 0 0 -49278.2 0 0 25659 0 0 -25659 0 0 1106.46 0 0 -1106.46
0 0 49038.4 0 0 -49038.4 0 0 26055.9 0 0 -26055.9 0 0 977.68 0 0 -977.68
0 0 48655 0 0 -48655 0 0 26288.1 0 0 -26288.1 0 0 911.004 0 0 -911.004
0 0 48111.9 0 0 -48111.9 0 0 26346.4 0 0 -26346.4 0 0 908.461 0 0 -908.461
0 0 47388.8 0 0 -47388.8 0 0 26228 0 0 -26228 0 0 970.297 0 0 -970.297
0 0 46463.4 0 0 -46463.4 0 0 25935.8 0 0 -25935.8 0 0 1095.01 0 0 -1095.01
0 0 45316 0 0 -45316 0 0 25477.8 0 0 -25477.8 0 0 1279.44 0 0 -1279.44
0 0 43935.8 0 0 -43935.8 0 0 24865.6 0 0 -24865.6 0 0 1518.94 0 0 -1518.94
0 0 42324.5 0 0 -42324.5 0 0 24113.2 0 0 -24113.2 0 0 1807.5 0 0 -1807.5
0 0 40498.1 0 0 -40498.1 0 0 23235.9 0 0 -23235.9 0 0 2137.94 0 0 -2137.94
0 0 38484.4 0 0 -38484.4 0 0 22250.5 0 0 -22250.5 0 0 2502.07 0 0 -2502.07
0 0 36316.8 0 0 -36316.8 0 0 21175.5 0 0 -21175.5 0 0 2890.84 0 0 -2890.84
0 0 34028.6 0 0 -34028.6 0 0 20031.4 0 0 -20031.4 0 0 3294.56 0 0 -3294.56
0 0 31649.8 0 0 -31649.8 0 0 18840.4 0 0 -18840.4 0 0 3703.06 0 0 -3703.06
0 0 29207.5 0 0 -29207.5 0 0 17625.6 0 0 -17625.6 0 0 4106.01 0 0 -4106.01
0 0 26728.4 0 0 -26728.4 0 0 16409.9 0 0 -16409.9 0 0 4493.13 0 0 -4493.13
0 0 24239.2 0 0 -24239.2 0 0 15215 0 0 -15215 0 0 4854.48 0 0 -4854.48
0 0 21765.6 0 0 -21765.6 0 0 14061.3 0 0 -14061.3 0 0 5180.69 0 0 -5180.69
0 0 19330.6 0 0 -19330.6 0 0 12966.9 0 0 -12966.9 0 0 5463.18 0 0 -5463.18
0 0 16954 0 0 -16954 0 0 11947.4 0 0 -11947.4 0 0 5694.35 0 0 -5694.35
0 0 14652 0 0 -14652 0 0 11015.2 0 0 -11015.2 0 0 5867.79 0 0 -5867.79
0 0 12438.5 0 0 -12438.5 0 0 10179.1 0 0 -10179.1 0 0 5978.37 0 0 -5978.37
0 0 10325.5 0 0 -10325.5 0 0 9443.83 0 0 -9443.83 0 0 6022.41 0 0 -6022.41
0 0 8322.37 0 0 -8322.37 0 0 8810.12 0 0 -8810.12 0 0 5997.71 0 0 -5997.71
0 0 6436.28 0 0 -6436.28 0 0 8274.57 0 0 -8274.57 0 0 5903.58 0 0 -5903.58
0 0 4671.84 0 0 -4671.84 0 0 7829.88 0 0 -7829.88 0 0 5740.83 0 0 -5740.83
0 0 3030.95 0 0 -3030.95 0 0 7465.23 0 0 -7465.23 0 0 5511.71 0 0 -5511.71
0 0 1513.3 0 0 -1513.3 0 0 7166.58 0 0 -7166.58 0 0 5219.78 0 0 -5219.78
0 0 116.84 0 0 -116.84 0 0 6917.13 0 0 -6917.13 0 0 4869.85 0 0 -4869.85
0 0 -945.623 0 0 945.623 0 0 6681.07 0 0 -6681.07 0 0 4467.73 0 0 -4467.73
0 0 -1473.63 0 0 1473.63 0 0 6383.46 0 0 -6383.46 0 0 4024.79 0 0 -4024.79
0 0 -1936.06 0 0 1936.06 0 0 6109.82 0 0 -6109.82 0 0 3539.08 0 0 -3539.08
0 0 -2337.43 0 0 2337.43 0 0 5815.09 0 0 -5815.09 0 0 3022.07 0 0 -3022.07
0 0 -2708.62 0 0 2708.62 0 0 5502.01 0 0 -5502.01 0 0 2480.13 0 0 -2480.13
0 0 -3055.62 0 0 3055.62 0 0 5155.59 0 0 -5155.59 0 0 1920.84 0 0 -1920.84
0 0 -3401.78 0 0 3401.78 0 0 4767.75 0 0 -4767.75 0 0 1351.53 0 0 -1351.53
0 0 -3788.68 0 0 3788.68 0 0 4329.15 0 0 -4329.15 0 0 779.809 0 0 -779.809
0 0 -4247.42 0 0 4247.42 0 0 3828.56 0 0 -3828.56 0 0 213.572 0 0 -213.572
0 0 -4797.56 0 0 4797.56 0 0 3255.96 0 0 -3255.96 0 0 -346.907 0 0 346.907
0 0 -5461.24 0 0 5461.24 0 0 2608.43 0 0 -2608.43 0 0 -888.837 0 0 888.837
0 0 -6259.31 0 0 6259.31 0 0 1881.56 0 0 -1881.56 0 0 -1405.48 0 0 1405.48
0 0 -7203.66 0 0 7203.66 0 0 1068.58 0 0 -1068.58 0 0 -1891.47 0 0 1891.47
0 0 -8297.28 0 0 8297.28 0 0 161.947 0 0 -161.947 0 0 -2341.53 0 0 2341.53
0 0 -9543.52 0 0 9543.52 0 0 -840.553 0 0 840.553 0 0 -2751.99 0 0 2751.99
0 0 -10940.1 0 0 10940.1 0 0 -1932.98 0 0 1932.98 0 0 -3119.7 0 0 3119.7
0 0 -12482.2 0 0 12482.2 0 0 -3109.07 0 0 3109.07 0 0 -3443.05 0 0 3443.05
0 0 -14164.5 0 0 14164.5 0 0 -4362.76 0 0 4362.76 0 0 -3721.11 0 0 3721.11
0 0 -15980.2 0 0 15980.2 0 0 -5687.67 0 0 5687.67 0 0 -3953.7 0 0 3953.7
0 0 -17918.8 0 0 17918.8 0 0 -7074.81 0 0 7074.81 0 0 -4141.73 0 0 4141.73
0 0 -19965.3 0 0 19965.3 0 0 -8511.72 0 0 8511.72 0 0 -4287.26 0 0 4287.26
0 0 -22100.5 0 0 22100.5 0 0 -9984.41 0 0 9984.41 0 0 -4393.17 0 0 4393.17
0 0 -24300.4 0 0 24300.4 0 0 -11479.2 0 0 11479.2 0 0 -4462.89 0 0 4462.89
0 0 -26537 0 0 26537 0 0 -12982.6 0 0 12982.6 0 0 -4500.36 0 0 4500.36
0 0 -28780.2 0 0 28780.2 0 0 -14479.5 0 0 14479.5 0 0 -4510.06 0 0 4510.06
0 0 -30999.2 0 0 30999.2 0 0 -15953.9 0 0 15953.9 0 0 -4496.96 0 0 4496.96
0 0 -33162.2 0 0 33162.2 0 0 -17389.1 0 0 17389.1 0 0 -4466.35 0 0 4466.35
0 0 -35238 0 0 35238 0 0 -18769.1 0 0 18769.1 0 0 -4423.56 0 0 4423.56
0 0 -37196.8 0 0 37196.8 0 0 -20078.2 0 0 20078.2 0 0 -4373.9 0 0 4373.9
0 0 -39011.8 0 0 39011.8 0 0 -21300.4 0 0 21300.4 0 0 -4322.53 0 0 4322.53
0 0 -40659.4 0 0 40659.4 0 0 -22420.2 0 0 22420.2 0 0 -4274.36 0 0 4274.36
0 0 -42120.3 0 0 42120.3 0 0 -23423.1 0 0 23423.1 0 0 -4233.95 0 0 4233.95
0 0 -43380 0 0 43380 0 0 -24295.6 0 0 24295.6 0 0 -4205.32 0 0 4205.32
0 0 -44429.5 0 0 44429.5 0 0 -25026.1 0 0 25026.1 0 0 -4191.83 0 0 4191.83
0 0 -45265.2 0 0 45265.2 0 0 -25604.2 0 0 25604.2 0 0 -4196.1 0 0 4196.1
0 0 -45888.6 0 0 45888.6 0 0 -26022.2 0 0 26022.2 0 0 -4219.94 0 0 4219.94
0 0 -46305.1 0 0 46305.1 0 0 -26274.9 0 0 26274.9 0 0 -4264.27 0 0 4264.27
0 0 -46522.9 0 0 46522.9 0 0 -26360.2 0 0 26360.2 0 0 -4329.07 0 0 4329.07
0 0 -46552.8 0 0 46552.8 0 0 -26279.2 0 0 26279.2 0 0 -4413.39 0 0 4413.39
0 0 -46406.1 0 0 46406.1 0 0 -26034.8 0 0 26034.8 0 0 -4515.41 0 0 4515.41
0 0 -46104.2 0 0 46104.2 0 0 -25633.8 0 0 25633.8 0 0 -4632.38 0 0 4632.38
0 0 -45671 0 0 45671 0 0 -25087 0 0 25087 0 0 -4760.66 0 0 4760.66
0 0 -45132.2 0 0 45132.2 0 0 -24408.3 0 0 24408.3 0 0 -4895.9 0 0 4895.9
0 0 -44515.2 0 0 44515.2 0 0 -23614.2 0 0 23614.2 0 0 -5033.1 0 0 5033.1
0 0 -43846.4 0 0 43846.4 0 0 -22724.2 0 0 22724.2 0 0 -5166.8 0 0 5166.8
0 0 -43150 0 0 43150 0 0 -21759.8 0 0 21759.8 0 0 -5291.2 0 0 5291.2
0 0 -42448.8 0 0 42448.8 0 0 -20744.6 0 0 20744.6 0 0 -5400.35 0 0 5400.35
0 0 -41765.7 0 0 41765.7 0 0 -19702.5 0 0 19702.5 0 0 -5488.36 0 0 5488.36
0 0 -41123 0 0 41123 0 0 -18657.9 0 0 18657.9 0 0 -5549.59 0 0 5549.59
0 0 -40542.7 0 0 40542.7 0 0 -17634.2 0 0 17634.2 0 0 -5578.83 0 0 5578.83
0 0 -40045.3 0 0 40045.3 0 0 -16654.1 0 0 16654.1 0 0 -5571.48 0 0 5571.48
0 0 -39649.1 0 0 39649.1 0 0 -15738.4 0 0 15738.4 0 0 -5523.71 0 0 5523.71
0 0 -39369.1 0 0 39369.1 0 0 -14905.8 0 0 14905.8 0 0 -5432.58 0 0 5432.58
0 0 -39217.5 0 0 39217.5 0 0 -14172.5 0 0 14172.5 0 0 -5296.18 0 0 5296.18
0 0 -39203.8 0 0 39203.8 0 0 -13551.4 0 0 13551.4 0 0 -5113.73 0 0 5113.73
0 0 -39336.1 0 0 39336.1 0 0 -13052.2 0 0 13052.2 0 0 -4885.63 0 0 4885.63
0 0 -39620.8 0 0 39620.8 0 0 -12680.7 0 0 12680.7 0 0 -4613.49 0 0 4613.49
0 0 -40056 0 0 40056 0 0 -12439.4 0 0 12439.4 0 0 -4300.11 0 0 4300.11
0 0 -40622.9 0 0 40622.9 0 0 -12329.1 0 0 12329.1 0 0 -3949.46 0 0 3949.46
0 0 -41362.3 0 0 41362.3 0 0 -12335.8 0 0 12335.8 0 0 -3567.05 0 0 3567.05
0 0 -42232.5 0 0 42232.5 0 0 -12461.7 0 0 12461.7 0 0 -3158.78 0 0 3158.78
0 0 -43187.3 0 0 43187.3 0 0 -12704.6 0 0 12704.6 0 0 -2730.29 0 0 2730.29
0 0 -44226.4 0 0 44226.4 0 0 -13045.6 0 0 13045.6 0 0 -2289.91 0 0 2289.91
0 0 -45355.4 0 0 45355.4 0 0 -13468.2 0 0 13468.2 0 0 -1845.73 0 0 1845.73
0 0 -46537.8 0 0 46537.8 0 0 -13956.6 0 0 13956.6 0 0 -1406.57 0 0 1406.57
0 0 -47622.1 0 0 47622.1 0 0 -14497 0 0 14497 0 0 -980.987 0 0 980.987
0 0 -48650.7 0 0 48650.7 0 0 -15082.3 0 0 15082.3 0 0 -576.713 0 0 576.713
0 0 -49562.6 0 0 49562.6 0 0 -15698.9 0 0 15698.9 0 0 -202.008 0 0 202.008
0 0 -50322 0 0 50322 0 0 -16328.9 0 0 16328.9 0 0 135.138 0 0 -135.138
0 0 -50897.5 0 0 50897.5 0 0 -16954.6 0 0 16954.6 0 0 422.43 0 0 -422.43
0 0 -51249.9 0 0 51249.9 0 0 -17557.4 0 0 17557.4 0 0 658.429 0 0 -658.429
0 0 -51345.6 0 0 51345.6 0 0 -18120.6 0 0 18120.6 0 0 836.882 0 0 -836.882
0 0 -51156.9 0 0 51156.9 0 0 -18622.3 0 0 18622.3 0 0 952.692 0 0 -952.692
0 0 -50680.4 0 0 50680.4 0 0 -19042 0 0 19042 0 0 1001.67 0 0 -1001.67
0 0 -49916.9 0 0 49916.9 0 0 -19362 0 0 19362 0 0 980.851 0 0 -980.851
0 0 -48873.3 0 0 48873.3 0 0 -19566.7 0 0 19566.7 0 0 888.681 0 0 -888.681
0 0 -47565.2 0 0 47565.2 0 0 -19642.2 0 0 19642.2 0 0 725.187 0 0 -725.187
0 0 -46012.1 0 0 46012.1 0 0 -19578.1 0 0 19578.1 0 0 492.044 0 0 -492.044
0 0 -44236.2 0 0 44236.2 0 0 -19368.4 0 0 19368.4 0 0 192.42 0 0 -192.42
0 0 -42265.1 0 0 42265.1 0 0 -19012.7 0 0 19012.7 0 0 -174.343 0 0 174.343
0 0 -40133.6 0 0 40133.6 0 0 -18510.8 0 0 18510.8 0 0 -597.166 0 0 597.166
0 0 -37880.6 0 0 37880.6 0 0 -17868.8 0 0 17868.8 0 0 -1068.5 0 0 1068.5
0 0 -35546.4 0 0 35546.4 0 0 -17096.3 0 0 17096.3 0 0 -1578.89 0 0 1578.89
0 0 -33168.2 0 0 33168.2 0 0 -16208.6 0 0 16208.6 0 0 -2117.97 0 0 2117.97
0 0 -30778.8 0 0 30778.8 0 0 -15225.5 0 0 15225.5 0 0 -2674.57 0 0 2674.57
0 0 -28407.3 0 0 28407.3 0 0 -14170 0 0 14170 0 0 -3236.91 0 0 3236.91
0 0 -26079.5 0 0 26079.5 0 0 -13067.6 0 0 13067.6 0 0 -3792.64 0 0 3792.64
0 0 -23817.7 0 0 23817.7 0 0 -11945.9 0 0 11945.9 0 0 -4329.2 0 0 4329.2
0 0 -21640.2 0 0 21640.2 0 0 -10833.6 0 0 10833.6 0 0 -4834.22 0 0 4834.22
0 0 -19562.1 0 0 19562.1 0 0 -9758.88 0 0 9758.88 0 0 -5295.97 0 0 5295.97
0 0 -17597 0 0 17597 0 0 -8747.88 0 0 8747.88 0 0 -5703.7 0 0 5703.7
0 0 -15758 0 0 15758 0 0 -7823.9 0 0 7823.9 0 0 -6047.8 0 0 6047.8
0 0 -14057 0 0 14057 0 0 -7006.65 0 0 7006.65 0 0 -6320 0 0 6320
0 0 -12502.8 0 0 12502.8 0 0 -6311.82 0 0 6311.82 0 0 -6513.55 0 0 6513.55
0 0 -11099.5 0 0 11099.5 0 0 -5750.61 0 0 5750.61 0 0 -6623.55 0 0 6623.55
0 0 -9846.23 0 0 9846.23 0 0 -5329.11 0 0 5329.11 0 0 -6646.99 0 0 6646.99
0 0 -8738.09 0 0 8738.09 0 0 -5048.13 0 0 5048.13 0 0 -6582.86 0 0 6582.86
0 0 -7766.61 0 0 7766.61 0 0 -4903.07 0 0 4903.07 0 0 -6432.1 0 0 6432.1
0 0 -6919.95 0 0 6919.95 0 0 -4884.06 0 0 4884.06 0 0 -6197.55 0 0 6197.55
0 0 -6183.01 0 0 6183.01 0 0 -4976.17 0 0 4976.17 0 0 -5883.88 0 0 5883.88
0 0 -5537.33 0 0 5537.33 0 0 -5159.88 0 0 5159.88 0 0 -5497.49 0 0 5497.49
0 0 -4960.61 0 0 4960.61 0 0 -5411.84 0 0 5411.84 0 0 -5046.28 0 0 5046.28
0 0 -4426.51 0 0 4426.51 0 0 -5705.74 0 0 5705.74 0 0 -4539.43 0 0 4539.43
0 0 -3904.74 0 0 3904.74 0 0 -6013.1 0 0 6013.1 0 0 -3987.11 0 0 3987.11
0 0 -3361.85 0 0 3361.85 0 0 -6304.09 0 0 6304.09 0 0 -3400.2 0 0 3400.2
0 0 -3231.46 0 0 3231.46 0 0 -6482.04 0 0 6482.04 0 0 -2792.03 0 0 2792.03
0 0 -3168.56 0 0 3168.56 0 0 -6568.16 0 0 6568.16 0 0 -2173.48 0 0 2173.48
0 0 -3023.13 0 0 3023.13 0 0 -6566.69 0 0 6566.69 0 0 -1550.91 0 0 1550.91
0 0 -2739.64 0 0 2739.64 0 0 -6440.8 0 0 6440.8 0 0 -938.138 0 0 938.138
0 0 -2288.98 0 0 2288.98 0 0 -6183.45 0 0 6183.45 0 0 -342.225 0 0 342.225
0 0 -1665.9 0 0 1665.9 0 0 -5775.87 0 0 5775.87 0 0 222.867 0 0 -222.867
0 0 -859.615 0 0 859.615 0 0 -5209.51 0 0 5209.51 0 0 750.375 0 0 -750.375
0 0 119.319 0 0 -119.319 0 0 -4471.63 0 0 4471.63 0 0 1238.55 0 0 -1238.55
0 0 1254.38 0 0 -1254.38 0 0 -3561.29 0 0 3561.29 0 0 1682.31 0 0 -1682.31
0 0 2573.09 0 0 -2573.09 0 0 -2470.09 0 0 2470.09 0 0 2077.54 0 0 -2077.54
0 0 4060.38 0 0 -4060.38 0 0 -1201.11 0 0 1201.11 0 0 2421.73 0 0 -2421.73
0 0 5706.05 0 0 -5706.05 0 0 218.387 0 0 -218.387 0 0 2712.79 0 0 -2712.79
0 0 7503.76 0 0 -7503.76 0 0 1789.37 0 0 -1789.37 0 0 2953.05 0 0 -2953.05
0 0 9433.35 0 0 -9433.35 0 0 3497.74 0 0 -3497.74 0 0 3143.6 0 0 -3143.6
0 0 11470.2 0 0 -11470.2 0 0 5328.73 0 0 -5328.73 0 0 3288.38 0 0 -3288.38
0 0 13588.6 0 0 -13588.6 0 0 7253.6 0 0 -7253.6 0 0 3392.29 0 0 -3392.29
0 0 15759.3 0 0 -15759.3 0 0 9244.27 0 0 -9244.27 0 0 3460.96 0 0 -3460.96
0 0 17943.4 0 0 -17943.4 0 0 11274.3 0 0 -11274.3 0 0 3500.71 0 0 -3500.71
0 0 20083.2 0 0 -20083.2 0 0 13319.1 0 0 -13319.1 0 0 3518.24 0 0 -3518.24
0 0 22159.4 0 0 -22159.4 0 0 15343 0 0 -15343 0 0 3521.25 0 0 -3521.25
0 0 24155.7 0 0 -24155.7 0 0 17309.4 0 0 -17309.4 0 0 3517.53 0 0 -3517.53
0 0 26062.6 0 0 -26062.6 0 0 19182.8 0 0 -19182.8 0 0 3514.62 0 0 -3514.62
0 0 27876.5 0 0 -27876.5 0 0 20929.6 0 0 -20929.6 0 0 3519.68 0 0 -3519.68
0 0 29596.8 0 0 -29596.8 0 0 22518.6 0 0 -22518.6 0 0 3539.19 0 0 -3539.19
0 0 31223.5 0 0 -31223.5 0 0 23922.1 0 0 -23922.1 0 0 3578.77 0 0 -3578.77
0 0 32755.5 0 0 -32755.5 0 0 25117.8 0 0 -25117.8 0 0 3642.86 0 0 -3642.86
0 0 34121.4 0 0 -34121.4 0 0 26102.2 0 0 -26102.2 0 0 3734.17 0 0 -3734.17
0 0 35187.7 0 0 -35187.7 0 0 26885.2 0 0 -26885.2 0 0 3852.9 0 0 -3852.9
0 0 36096.8 0 0 -36096.8 0 0 27438.4 0 0 -27438.4 0 0 4001.05 0 0 -4001.05
0 0 36829.2 0 0 -36829.2 0 0 27758.9 0 0 -27758.9 0 0 4178.71 0 0 -4178.71
0 0 37380.8 0 0 -37380.8 0 0 27862.2 0 0 -27862.2 0 0 4381.86 0 0 -4381.86
0 0 37757.4 0 0 -37757.4 0 0 27755.6 0 0 -27755.6 0 0 4607.79 0 0 -4607.79
0 0 37970.8 0 0 -37970.8 0 0 27453.2 0 0 -27453.2 0 0 4851.5 0 0 -4851.5
0 0 38033.6 0 0 -38033.6 0 0 26973.6 0 0 -26973.6 0 0 5107.54 0 0 -5107.54
0 0 37961.1 0 0 -37961.1 0 0 26339.8 0 0 -26339.8 0 0 5369.28 0 0 -5369.28
0 0 37779.5 0 0 -37779.5 0 0 25576.8 0 0 -25576.8 0 0 5629.48 0 0 -5629.48
0 0 37516.6 0 0 -37516.6 0 0 24711.2 0 0 -24711.2 0 0 5880.43 0 0 -5880.43
0 0 37199.2 0 0 -37199.2 0 0 23771.7 0 0 -23771.7 0 0 6114.25 0 0 -6114.25
0 0 36855.9 0 0 -36855.9 0 0 22787.5 0 0 -22787.5 0 0 6323.12 0 0 -6323.12
0 0 36516.3 0 0 -36516.3 0 0 21788.4 0 0 -21788.4 0 0 6499.45 0 0 -6499.45
0 0 36207.3 0 0 -36207.3 0 0 20803.4 0 0 -20803.4 0 0 6636.14 0 0 -6636.14
0 0 35953.6 0 0 -35953.6 0 0 19859.6 0 0 -19859.6 0 0 6726.84 0 0 -6726.84
0 0 35778.2 0 0 -35778.2 0 0 18981.8 0 0 -18981.8 0 0 6766.11 0 0 -6766.11
0 0 35701.5 0 0 -35701.5 0 0 18192.1 0 0 -18192.1 0 0 6749.67 0 0 -6749.67
0 0 35739.5 0 0 -35739.5 0 0 17509.6 0 0 -17509.6 0 0 6674.49 0 0 -6674.49
0 0 35903 0 0 -35903 0 0 16949.7 0 0 -16949.7 0 0 6538.89 0 0 -6538.89
0 0 36196.7 0 0 -36196.7 0 0 16523.8 0 0 -16523.8 0 0 6342.67 0 0 -6342.67
0 0 36620.4 0 0 -36620.4 0 0 16239 0 0 -16239 0 0 6087.13 0 0 -6087.13
0 0 37169.5 0 0 -37169.5 0 0 16097.9 0 0 -16097.9 0 0 5775.08 0 0 -5775.08
0 0 37837.5 0 0 -37837.5 0 0 16098.5 0 0 -16098.5 0 0 5410.83 0 0 -5410.83
0 0 38584.5 0 0 -38584.5 0 0 16229.6 0 0 -16229.6 0 0 5000.4 0 0 -5000.4
0 0 39374.2 0 0 -39374.2 0 0 16491.6 0 0 -16491.6 0 0 4550.17 0 0 -4550.17
0 0 40195.7 0 0 -40195.7 0 0 16869.1 0 0 -16869.1 0 0 4068.36 0 0 -4068.36
0 0 41035.7 0 0 -41035.7 0 0 17342.3 0 0 -17342.3 0 0 3564.18 0 0 -3564.18
0 0 41888.2 0 0 -41888.2 0 0 17888 0 0 -17888 0 0 3047.45 0 0 -3047.45
0 0 42741 0 0 -42741 0 0 18481.3 0 0 -18481.3 0 0 2528.61 0 0 -2528.61
0 0 43578.3 0 0 -43578.3 0 0 19096.3 0 0 -19096.3 0 0 2018.24 0 0 -2018.24
0 0 44388.1 0 0 -44388.1 0 0 19706.3 0 0 -19706.3 0 0 1526.92 0 0 -1526.92
0 0 45158.9 0 0 -45158.9 0 0 20285.1 0 0 -20285.1 0 0 1064.78 0 0 -1064.78
0 0 45875.1 0 0 -45875.1 0 0 20809.6 0 0 -20809.6 0 0 641.272 0 0 -641.272
0 0 46516.1 0 0 -46516.1 0 0 21260 0 0 -21260 0 0 264.924 0 0 -264.924
0 0 47058.2 0 0 -47058.2 0 0 21619.5 0 0 -21619.5 0 0 -57.2822 0 0 57.2822
0 0 47477.4 0 0 -47477.4 0 0 21874.9 0 0 -21874.9 0 0 -321.505 0 0 321.505
0 0 47751.4 0 0 -47751.4 0 0 22018.2 0 0 -22018.2 0 0 -519.676 0 0 519.676
0 0 47863.3 0 0 -47863.3 0 0 22044.1 0 0 -22044.1 0 0 -648.049 0 0 648.049
0 0 47797.3 0 0 -47797.3 0 0 21950.9 0 0 -21950.9 0 0 -704.832 0 0 704.832
0 0 47544.4 0 0 -47544.4 0 0 21739.1 0 0 -21739.1 0 0 -689.764 0 0 689.764
0 0 47103.9 0 0 -47103.9 0 0 21413.5 0 0 -21413.5 0 0 -604.263 0 0 604.263
0 0 46480.8 0 0 -46480.8 0 0 20982.5 0 0 -20982.5 0 0 -451.279 0 0 451.279
0 0 45690.1 0 0 -45690.1 0 0 20456.9 0 0 -20456.9 0 0 -235.106 0 0 235.106
0 0 44756.2 0 0 -44756.2 0 0 19848.8 0 0 -19848.8 0 0 35.4034 0 0 -35.4034
0 0 43707.4 0 0 -43707.4 0 0 19173.4 0 0 -19173.4 0 0 355.328 0 0 -355.328
0 0 42573 0 0 -42573 0 0 18448.5 0 0 -18448.5 0 0 718.129 0 0 -718.129
0 0 41380.7 0 0 -41380.7 0 0 17694.3 0 0 -17694.3 0 0 1115.12 0 0 -1115.12
0 0 40154.6 0 0 -40154.6 0 0 16932.8 0 0 -16932.8 0 0 1537.2 0 0 -1537.2
0 0 38916.5 0 0 -38916.5 0 0 16186.8 0 0 -16186.8 0 0 1974.72 0 0 -1974.72
0 0 37688.6 0 0 -37688.6 0 0 15478.9 0 0 -15478.9 0 0 2418.02 0 0 -2418.02
0 0 36495.4 0 0 -36495.4 0 0 14830.8 0 0 -14830.8 0 0 2857.64 0 0 -2857.64
0 0 35362.3 0 0 -35362.3 0 0 14262 0 0 -14262 0 0 3284.5 0 0 -3284.5
0 0 34314.6 0 0 -34314.6 0 0 13790.2 0 0 -13790.2 0 0 3690.06 0 0 -3690.06
0 0 33376.8 0 0 -33376.8 0 0 13429.8 0 0 -13429.8 0 0 4066.51 0 0 -4066.51
0 0 32571.6 0 0 -32571.6 0 0 13192.5 0 0 -13192.5 0 0 4407 0 0 -4407
0 0 31918 0 0 -31918 0 0 13086.8 0 0 -13086.8 0 0 4705.73 0 0 -4705.73
0 0 31429.3 0 0 -31429.3 0 0 13118.1 0 0 -13118.1 0 0 4958.15 0 0 -4958.15
0 0 31110.6 0 0 -31110.6 0 0 13288.9 0 0 -13288.9 0 0 5160.91 0 0 -5160.91
0 0 30957.2 0 0 -30957.2 0 0 13598.6 0 0 -13598.6 0 0 5311.95 0 0 -5311.95
0 0 30954.9 0 0 -30954.9 0 0 14043.8 0 0 -14043.8 0 0 5410.51 0 0 -5410.51
0 0 31082 0 0 -31082 0 0 14617.7 0 0 -14617.7 0 0 5457.18 0 0 -5457.18
0 0 31311 0 0 -31311 0 0 15310 0 0 -15310 0 0 5453.91 0 0 -5453.91
0 0 31608.6 0 0 -31608.6 0 0 16106.9 0 0 -16106.9 0 0 5403.88 0 0 -5403.88
0 0 31937 0 0 -31937 0 0 16991.2 0 0 -16991.2 0 0 5311.41 0 0 -5311.41
0 0 32257.3 0 0 -32257.3 0 0 17942.1 0 0 -17942.1 0 0 5181.89 0 0 -5181.89
0 0 32531.6 0 0 -32531.6 0 0 18935.5 0 0 -18935.5 0 0 5021.6 0 0 -5021.6
0 0 32724.3 0 0 -32724.3 0 0 19944.2 0 0 -19944.2 0 0 4837.55 0 0 -4837.55
0 0 32802.9 0 0 -32802.9 0 0 20938.6 0 0 -20938.6 0 0 4637.24 0 0 -4637.24
0 0 32740.5 0 0 -32740.5 0 0 21887.3 0 0 -21887.3 0 0 4428.46 0 0 -4428.46
0 0 32515.4 0 0 -32515.4 0 0 22757.8 0 0 -22757.8 0 0 4218.99 0 0 -4218.99
0 0 32111.9 0 0 -32111.9 0 0 23517.9 0 0 -23517.9 0 0 4016.37 0 0 -4016.37
0 0 31518.5 0 0 -31518.5 0 0 24136.5 0 0 -24136.5 0 0 3827.61 0 0 -3827.61
0 0 30726.6 0 0 -30726.6 0 0 24585.1 0 0 -24585.1 0 0 3658.97 0 0 -3658.97
0 0 29729.6 0 0 -29729.6 0 0 24839 0 0 -24839 0 0 3515.66 0 0 -3515.66
0 0 28522 0 0 -28522 0 0 24877.9 0 0 -24877.9 0 0 3401.73 0 0 -3401.73
0 0 27101 0 0 -27101 0 0 24686.5 0 0 -24686.5 0 0 3319.86 0 0 -3319.86
0 0 25467.8 0 0 -25467.8 0 0 24254.8 0 0 -24254.8 0 0 3271.3 0 0 -3271.3
0 0 23628.1 0 0 -23628.1 0 0 23578.3 0 0 -23578.3 0 0 3255.8 0 0 -3255.8
0 0 21592.4 0 0 -21592.4 0 0 22658.3 0 0 -22658.3 0 0 3271.62 0 0 -3271.62
0 0 19375.7 0 0 -19375.7 0 0 21501.5 0 0 -21501.5 0 0 3315.53 0 0 -3315.53
0 0 16996.7 0 0 -16996.7 0 0 20120.4 0 0 -20120.4 0 0 3382.92 0 0 -3382.92
0 0 14508.9 0 0 -14508.9 0 0 18529.7 0 0 -18529.7 0 0 3467.9 0 0 -3467.9
0 0 11993.5 0 0 -11993.5 0 0 16739.6 0 0 -16739.6 0 0 3564.15 0 0 -3564.15
0 0 9400.87 0 0 -9400.87 0 0 14801.6 0 0 -14801.6 0 0 3661.86 0 0 -3661.86
0 0 6742.27 0 0 -6742.27 0 0 12730.2 0 0 -12730.2 0 0 3754.58 0 0 -3754.58
0 0 4034.04 0 0 -4034.04 0 0 10574.1 0 0 -10574.1 0 0 3831.5 0 0 -3831.5
0 0 1328.48 0 0 -1328.48 0 0 8362.57 0 0 -8362.57 0 0 3884 0 0 -3884
0 0 -1283.14 0 0 1283.14 0 0 6131.3 0 0 -6131.3 0 0 3903.01 0 0 -3903.01
0 0 -3804.99 0 0 3804.99 0 0 3924.46 0 0 -3924.46 0 0 3879.3 0 0 -3879.3
0 0 -6201.26 0 0 6201.26 0 0 1760.61 0 0 -1760.61 0 0 3806.37 0 0 -3806.37
0 0 -8430.26 0 0 8430.26 0 0 -339.709 0 0 339.709 0 0 3677.19 0 0 -3677.19
0 0 -10484 0 0 10484 0 0 -2350.34 0 0 2350.34 0 0 3485.06 0 0 -3485.06
0 0 -12346 0 0 12346 0 0 -4233.8 0 0 4233.8 0 0 3227.51 0 0 -3227.51
0 0 -13986.1 0 0 13986.1 0 0 -5962.55 0 0 5962.55 0 0 2901.8 0 0 -2901.8
0 0 -15391.9 0 0 15391.9 0 0 -7516.93 0 0 7516.93 0 0 2506.93 0 0 -2506.93
0 0 -16567.6 0 0 16567.6 0 0 -8880.05 0 0 8880.05 0 0 2043.69 0 0 -2043.69
0 0 -17517 0 0 17517 0 0 -10043.8 0 0 10043.8 0 0 1514.74 0 0 -1514.74
0 0 -18244.9 0 0 18244.9 0 0 -11006 0 0 11006 0 0 924.588 0 0 -924.588
0 0 -18767.6 0 0 18767.6 0 0 -11766.6 0 0 11766.6 0 0 279.23 0 0 -279.23
0 0 -19108.7 0 0 19108.7 0 0 -12332.1 0 0 12332.1 0 0 -423.706 0 0 423.706
0 0 -19296.4 0 0 19296.4 0 0 -12710.2 0 0 12710.2 0 0 -1165.83 0 0 1165.83
0 0 -19362.2 0 0 19362.2 0 0 -12917.7 0 0 12917.7 0 0 -1936.02 0 0 1936.02
0 0 -19343.1 0 0 19343.1 0 0 -12972.9 0 0 12972.9 0 0 -2722 0 0 2722
0 0 -19280.7 0 0 19280.7 0 0 -12897.9 0 0 12897.9 0 0 -3511.13 0 0 3511.13
0 0 -19218.2 0 0 19218.2 0 0 -12719.2 0 0 12719.2 0 0 -4290.51 0 0 4290.51
0 0 -19196.7 0 0 19196.7 0 0 -12466 0 0 12466 0 0 -5046.9 0 0 5046.9
0 0 -19254.9 0 0 19254.9 0 0 -12169.1 0 0 12169.1 0 0 -5766.84 0 0 5766.84
0 0 -19420.9 0 0 19420.9 0 0 -11860.4 0 0 11860.4 0 0 -6437.05 0 0 6437.05
0 0 -19725 0 0 19725 0 0 -11569.9 0 0 11569.9 0 0 -7045.14 0 0 7045.14
0 0 -20190.8 0 0 20190.8 0 0 -11329.8 0 0 11329.8 0 0 -7575.48 0 0 7575.48
0 0 -20854.4 0 0 20854.4 0 0 -11102.3 0 0 11102.3 0 0 -7721.7 0 0 7721.7
0 0 -21721 0 0 21721 0 0 -10903.4 0 0 10903.4 0 0 -7741.52 0 0 7741.52
0 0 -22773 0 0 22773 0 0 -10887.7 0 0 10887.7 0 0 -7757.25 0 0 7757.25
0 0 -24025.7 0 0 24025.7 0 0 -11026.7 0 0 11026.7 0 0 -7768.27 0 0 7768.27
0 0 -25458 0 0 25458 0 0 -11386.2 0 0 11386.2 0 0 -7773.15 0 0 7773.15
0 0 -27070.7 0 0 27070.7 0 0 -11946.9 0 0 11946.9 0 0 -7735.17 0 0 7735.17
0 0 -28870.1 0 0 28870.1 0 0 -12655.5 0 0 12655.5 0 0 -7608.46 0 0 7608.46
0 0 -30844.7 0 0 30844.7 0 0 -13508.9 0 0 13508.9 0 0 -7401 0 0 7401
0 0 -32984.5 0 0 32984.5 0 0 -14503.4 0 0 14503.4 0 0 -7115.78 0 0 7115.78
0 0 -35276.8 0 0 35276.8 0 0 -15631.5 0 0 15631.5 0 0 -6749.14 0 0 6749.14
0 0 -37701.9 0 0 37701.9 0 0 -16870.6 0 0 16870.6 0 0 -6306.97 0 0 6306.97
0 0 -40235 0 0 40235 0 0 -18187.6 0 0 18187.6 0 0 -5806.23 0 0 5806.23
0 0 -42847.3 0 0 42847.3 0 0 -19551.5 0 0 19551.5 0 0 -5266.25 0 0 5266.25
0 0 -45506.4 0 0 45506.4 0 0 -20935.9 0 0 20935.9 0 0 -4701.11 0 0 4701.11
0 0 -48175.3 0 0 48175.3 0 0 -22314.5 0 0 22314.5 0 0 -4119.85 0 0 4119.85
0 0 -50813.3 0 0 50813.3 0 0 -23658.6 0 0 23658.6 0 0 -3532.33 0 0 3532.33
0 0 -53378.7 0 0 53378.7 0 0 -24937.8 0 0 24937.8 0 0 -2952.81 0 0 2952.81
0 0 -55829.8 0 0 55829.8 0 0 -26124.2 0 0 26124.2 0 0 -2397.81 0 0 2397.81
0 0 -58125.4 0 0 58125.4 0 0 -27193.9 0 0 27193.9 0 0 -1881.74 0 0 1881.74
0 0 -60216.6 0 0 60216.6 0 0 -28126.2 0 0 28126.2 0 0 -1414.88 0 0 1414.88
0 0 -60765.1 0 0 60765.1 0 0 -28623.9 0 0 28623.9 0 0 -1023.85 0 0 1023.85
0 0 -61139.4 0 0 61139.4 0 0 -28727.8 0 0 28727.8 0 0 -713.057 0 0 713.057
0 0 -61453.6 0 0 61453.6 0 0 -28917.3 0 0 28917.3 0 0 -447.227 0 0 447.227
0 0 -61671.3 0 0 61671.3 0 0 -29000.4 0 0 29000.4 0 0 -250.364 0 0 250.364
0 0 -61822 0 0 61822 0 0 -28970.9 0 0 28970.9 0 0 -134.352 0 0 134.352
0 0 -61889.8 0 0 61889.8 0 0 -28935.8 0 0 28935.8 0 0 -75.442 0 0 75.442
0 0 -61784.8 0 0 61784.8 0 0 -28850.2 0 0 28850.2 0 0 -82.0868 0 0 82.0868
0 0 -61425.1 0 0 61425.1 0 0 -28599.7 0 0 28599.7 0 0 -162.231 0 0 162.231
0 0 -60831.6 0 0 60831.6 0 0 -28192.4 0 0 28192.4 0 0 -315.604 0 0 315.604
0 0 -60027.4 0 0 60027.4 0 0 -27657.4 0 0 27657.4 0 0 -533.846 0 0 533.846
0 0 -58984.4 0 0 58984.4 0 0 -27015.2 0 0 27015.2 0 0 -813.303 0 0 813.303
0 0 -57745.7 0 0 57745.7 0 0 -26278.4 0 0 26278.4 0 0 -1145.29 0 0 1145.29
0 0 -56371 0 0 56371 0 0 -25454.1 0 0 25454.1 0 0 -1523.17 0 0 1523.17
0 0 -54884 0 0 54884 0 0 -24570.7 0 0 24570.7 0 0 -1937.48 0 0 1937.48
0 0 -53310.1 0 0 53310.1 0 0 -23658.6 0 0 23658.6 0 0 -2378.38 0 0 2378.38
0 0 -51697.3 0 0 51697.3 0 0 -22740.3 0 0 22740.3 0 0 -2835.49 0 0 2835.49
0 0 -50092.3 0 0 50092.3 0 0 -21835.7 0 0 21835.7 0 0 -3298.27 0 0 3298.27
0 0 -48530.8 0 0 48530.8 0 0 -20968.7 0 0 20968.7 0 0 -3756.18 0 0 3756.18
0 0 -47049.4 0 0 47049.4 0 0 -20164.9 0 0 20164.9 0 0 -4198.98 0 0 4198.98
0 0 -45689.2 0 0 45689.2 0 0 -19446.2 0 0 19446.2 0 0 -4617.09 0 0 4617.09
0 0 -44485.9 0 0 44485.9 0 0 -18831.2 0 0 18831.2 0 0 -5001.65 0 0 5001.65
0 0 -43468.1 0 0 43468.1 0 0 -18335.9 0 0 18335.9 0 0 -5344.61 0 0 5344.61
0 0 -42661.3 0 0 42661.3 0 0 -17974.2 0 0 17974.2 0 0 -5639.02 0 0 5639.02
0 0 -42087.1 0 0 42087.1 0 0 -17757.4 0 0 17757.4 0 0 -5879.27 0 0 5879.27
0 0 -41760 0 0 41760 0 0 -17693.2 0 0 17693.2 0 0 -6061.19 0 0 6061.19
0 0 -41669.2 0 0 41669.2 0 0 -17787.7 0 0 17787.7 0 0 -6182.07 0 0 6182.07
0 0 -41721.3 0 0 41721.3 0 0 -18054.9 0 0 18054.9 0 0 -6240.02 0 0 6240.02
0 0 -41920.3 0 0 41920.3 0 0 -18486.2 0 0 18486.2 0 0 -6235.78 0 0 6235.78
0 0 -42260 0 0 42260 0 0 -19070.4 0 0 19070.4 0 0 -6171.67 0 0 6171.67
0 0 -42730.5 0 0 42730.5 0 0 -19793.5 0 0 19793.5 0 0 -6051.26 0 0 6051.26
0 0 -43317.8 0 0 43317.8 0 0 -20635.8 0 0 20635.8 0 0 -5879.82 0 0 5879.82
0 0 -44004.6 0 0 44004.6 0 0 -21573.2 0 0 21573.2 0 0 -5663.85 0 0 5663.85
0 0 -44770.1 0 0 44770.1 0 0 -22579.1 0 0 22579.1 0 0 -5410.89 0 0 5410.89
0 0 -45589.7 0 0 45589.7 0 0 -23625.6 0 0 23625.6 0 0 -5129.25 0 0 5129.25
0 0 -46435.5 0 0 46435.5 0 0 -24683.8 0 0 24683.8 0 0 -4827.77 0 0 4827.77
0 0 -47277.3 0 0 47277.3 0 0 -25724.2 0 0 25724.2 0 0 -4515.62 0 0 4515.62
0 0 -48084.3 0 0 48084.3 0 0 -26717.1 0 0 26717.1 0 0 -4202.03 0 0 4202.03
0 0 -48825.8 0 0 48825.8 0 0 -27634.3 0 0 27634.3 0 0 -3896 0 0 3896
0 0 -49473.2 0 0 49473.2 0 0 -28449.5 0 0 28449.5 0 0 -3606.05 0 0 3606.05
0 0 -50000.5 0 0 50000.5 0 0 -29138.9 0 0 29138.9 0 0 -3339.98 0 0 3339.98
0 0 -50386.1 0 0 50386.1 0 0 -29681.3 0 0 29681.3 0 0 -3104.69 0 0 3104.69
0 0 -50613.3 0 0 50613.3 0 0 -30059 0 0 30059 0 0 -2906.02 0 0 2906.02
0 0 -50671.2 0 0 50671.2 0 0 -30258.2 0 0 30258.2 0 0 -2748.51 0 0 2748.51
0 0 -50553.8 0 0 50553.8 0 0 -30269.8 0 0 30269.8 0 0 -2635.34 0 0 2635.34
0 0 -50258.9 0 0 50258.9 0 0 -30089.6 0 0 30089.6 0 0 -2568.21 0 0 2568.21
0 0 -49786.6 0 0 49786.6 0 0 -29718.5 0 0 29718.5 0 0 -2547.29 0 0 2547.29
0 0 -49137.8 0 0 49137.8 0 0 -29162.9 0 0 29162.9 0 0 -2571.26 0 0 2571.26
0 0 -48313.4 0 0 48313.4 0 0 -28434.3 0 0 28434.3 0 0 -2637.33 0 0 2637.33
0 0 -47315.4 0 0 47315.4 0 0 -27549.1 0 0 27549.1 0 0 -2741.38 0 0 2741.38
0 0 -46149.1 0 0 46149.1 0 0 -26527.3 0 0 26527.3 0 0 -2878.09 0 0 2878.09
0 0 -44824.5 0 0 44824.5 0 0 -25391.7 0 0 25391.7 0 0 -3041.18 0 0 3041.18
0 0 -43355.9 0 0 43355.9 0 0 -24166.9 0 0 24166.9 0 0 -3223.56 0 0 3223.56
0 0 -41761.4 0 0 41761.4 0 0 -22879.1 0 0 22879.1 0 0 -3417.6 0 0 3417.6
0 0 -40061.2 0 0 40061.2 0 0 -21555 0 0 21555 0 0 -3615.32 0 0 3615.32
0 0 -38276.7 0 0 38276.7 0 0 -20221.2 0 0 20221.2 0 0 -3808.65 0 0 3808.65
0 0 -36428.5 0 0 36428.5 0 0 -18903.4 0 0 18903.4 0 0 -3989.65 0 0 3989.65
0 0 -34536 0 0 34536 0 0 -17626.1 0 0 17626.1 0 0 -4150.76 0 0 4150.76
0 0 -32617.8 0 0 32617.8 0 0 -16411.1 0 0 16411.1 0 0 -4284.98 0 0 4284.98
0 0 -30693.5 0 0 30693.5 0 0 -15277.3 0 0 15277.3 0 0 -4386.14 0 0 4386.14
0 0 -28786.3 0 0 28786.3 0 0 -14239.1 0 0 14239.1 0 0 -4449.05 0 0 4449.05
0 0 -26924 0 0 26924 0 0 -13306.1 0 0 13306.1 0 0 -4469.61 0 0 4469.61
0 0 -25137.5 0 0 25137.5 0 0 -12483.7 0 0 12483.7 0 0 -4444.93 0 0 4444.93
0 0 -23456.8 0 0 23456.8 0 0 -11773 0 0 11773 0 0 -4373.31 0 0 4373.31
0 0 -21906.9 0 0 21906.9 0 0 -11171.9 0 0 11171.9 0 0 -4254.27 0 0 4254.27
0 0 -20505.3 0 0 20505.3 0 0 -10675.8 0 0 10675.8 0 0 -4088.43 0 0 4088.43
0 0 -19259.9 0 0 19259.9 0 0 -10278.1 0 0 10278.1 0 0 -3877.55 0 0 3877.55
0 0 -18169.8 0 0 18169.8 0 0 -9970.25 0 0 9970.25 0 0 -3624.38 0 0 3624.38
0 0 -17226.7 0 0 17226.7 0 0 -9742.31 0 0 9742.31 0 0 -3332.62 0 0 3332.62
0 0 -16416.3 0 0 16416.3 0 0 -9582.76 0 0 9582.76 0 0 -3006.84 0 0 3006.84
0 0 -15719.2 0 0 15719.2 0 0 -9478.86 0 0 9478.86 0 0 -2652.31 0 0 2652.31
0 0 -15111.9 0 0 15111.9 0 0 -9416.92 0 0 9416.92 0 0 -2274.91 0 0 2274.91
0 0 -14568.6 0 0 14568.6 0 0 -9382.45 0 0 9382.45 0 0 -1881.01 0 0 1881.01
0 0 -14062.7 0 0 14062.7 0 0 -9360.29 0 0 9360.29 0 0 -1477.26 0 0 1477.26
0 0 -13567.8 0 0 13567.8 0 0 -9334.98 0 0 9334.98 0 0 -1070.5 0 0 1070.5
0 0 -13056.3 0 0 13056.3 0 0 -9291.42 0 0 9291.42 0 0 -667.555 0 0 667.555
0 0 -12498.8 0 0 12498.8 0 0 -9215.39 0 0 9215.39 0 0 -275.053 0 0 275.053
0 0 -11862.8 0 0 11862.8 0 0 -9098.22 0 0 9098.22 0 0 66.6517 0 0 -66.6517
0 0 -11116.1 0 0 11116.1 0 0 -8938.52 0 0 8938.52 0 0 375.882 0 0 -375.882
0 0 -10235.5 0 0 10235.5 0 0 -8706.54 0 0 8706.54 0 0 657.64 0 0 -657.64
0 0 -9197.55 0 0 9197.55 0 0 -8396.63 0 0 8396.63 0 0 913.022 0 0 -913.022
0 0 -8026.54 0 0 8026.54 0 0 -7992.11 0 0 7992.11 0 0 1136.67 0 0 -1136.67
0 0 -7093.39 0 0 7093.39 0 0 -7426.67 0 0 7426.67 0 0 1325.19 0 0 -1325.19
0 0 -6064.64 0 0 6064.64 0 0 -6778.09 0 0 6778.09 0 0 1480.37 0 0 -1480.37
0 0 -4920.63 0 0 4920.63 0 0 -6011.72 0 0 6011.72 0 0 1601.79 0 0 -1601.79
0 0 -3590.93 0 0 3590.93 0 0 -5163.3 0 0 5163.3 0 0 1689.52 0 0 -1689.52
0 0 -2106.46 0 0 2106.46 0 0 -4235.15 0 0 4235.15 0 0 1745.53 0 0 -1745.53
0 0 -510.706 0 0 510.706 0 0 -3232.75 0 0 3232.75 0 0 1770.7 0 0 -1770.7
0 0 997.021 0 0 -997.021 0 0 -2215.1 0 0 2215.1 0 0 1770.17 0 0 -1770.17
0 0 2581.43 0 0 -2581.43 0 0 -1167.31 0 0 1167.31 0 0 1743.51 0 0 -1743.51
0 0 4220.99 0 0 -4220.99 0 0 -66.0348 0 0 66.0348 0 0 1691.6 0 0 -1691.6
0 0 5867.15 0 0 -5867.15 0 0 1047.01 0 0 -1047.01 0 0 1619.41 0 0 -1619.41
0 0 7532.05 0 0 -7532.05 0 0 2174.45 0 0 -2174.45 0 0 1532.1 0 0 -1532.1
0 0 9208.34 0 0 -9208.34 0 0 3294.51 0 0 -3294.51 0 0 1434.33 0 0 -1434.33
0 0 10860.2 0 0 -10860.2 0 0 4407.6 0 0 -4407.6 0 0 1331.57 0 0 -1331.57
0 0 12465.8 0 0 -12465.8 0 0 5496.28 0 0 -5496.28 0 0 1229.04 0 0 -1229.04
0 0 14021.8 0 0 -14021.8 0 0 6539.62 0 0 -6539.62 0 0 1132.35 0 0 -1132.35
0 0 15513.8 0 0 -15513.8 0 0 7524.42 0 0 -7524.42 0 0 1046.24 0 0 -1046.24
0 0 16919.7 0 0 -16919.7 0 0 8442.98 0 0 -8442.98 0 0 974.938 0 0 -974.938
0 0 18227 0 0 -18227 0 0 9285.47 0 0 -9285.47 0 0 922.372 0 0 -922.372
0 0 19429.3 0 0 -19429.3 0 0 10039.8 0 0 -10039.8 0 0 892.139 0 0 -892.139
0 0 20519.1 0 0 -20519.1 0 0 10697.3 0 0 -10697.3 0 0 887.061 0 0 -887.061
0 0 21489.4 0 0 -21489.4 0 0 11253.2 0 0 -11253.2 0 0 909.036 0 0 -909.036
0 0 22338.7 0 0 -22338.7 0 0 11705.4 0 0 -11705.4 0 0 959.141 0 0 -959.141
0 0 23068.9 0 0 -23068.9 0 0 12052.4 0 0 -12052.4 0 0 1037.71 0 0 -1037.71
0 0 23682.7 0 0 -23682.7 0 0 12295.1 0 0 -12295.1 0 0 1144.31 0 0 -1144.31
0 0 24185.2 0 0 -24185.2 0 0 12436.9 0 0 -12436.9 0 0 1277.68 0 0 -1277.68
0 0 24585.4 0 0 -24585.4 0 0 12483.8 0 0 -12483.8 0 0 1435.72 0 0 -1435.72
0 0 24895.4 0 0 -24895.4 0 0 12443.9 0 0 -12443.9 0 0 1615.57 0 0 -1615.57
0 0 25129.6 0 0 -25129.6 0 0 12326.7 0 0 -12326.7 0 0 1805.02 0 0 -1805.02
0 0 25306.8 0 0 -25306.8 0 0 12135.6 0 0 -12135.6 0 0 1992.33 0 0 -1992.33
0 0 25443.5 0 0 -25443.5 0 0 11887.8 0 0 -11887.8 0 0 2186.71 0 0 -2186.71
0 0 25558.7 0 0 -25558.7 0 0 11602.3 0 0 -11602.3 0 0 2386.24 0 0 -2386.24
0 0 25672.7 0 0 -25672.7 0 0 11292.5 0 0 -11292.5 0 0 2586.04 0 0 -2586.04
0 0 25803.6 0 0 -25803.6 0 0 10976.2 0 0 -10976.2 0 0 2781.31 0 0 -2781.31
0 0 25970.2 0 0 -25970.2 0 0 10667.7 0 0 -10667.7 0 0 2968.58 0 0 -2968.58
0 0 26190.8 0 0 -26190.8 0 0 10383 0 0 -10383 0 0 3144.14 0 0 -3144.14
0 0 26482.8 0 0 -26482.8 0 0 10138.4 0 0 -10138.4 0 0 3303.95 0 0 -3303.95
0 0 26861.2 0 0 -26861.2 0 0 9949.28 0 0 -9949.28 0 0 3444.03 0 0 -3444.03
0 0 27338.2 0 0 -27338.2 0 0 9829.52 0 0 -9829.52 0 0 3561.05 0 0 -3561.05
0 0 27922 0 0 -27922 0 0 9791.48 0 0 -9791.48 0 0 3652.64 0 0 -3652.64
0 0 28615.5 0 0 -28615.5 0 0 9846.36 0 0 -9846.36 0 0 3717.18 0 0 -3717.18
0 0 29417.6 0 0 -29417.6 0 0 10003.7 0 0 -10003.7 0 0 3753.54 0 0 -3753.54
0 0 30323.2 0 0 -30323.2 0 0 10270.8 0 0 -10270.8 0 0 3760.64 0 0 -3760.64
0 0 31324.9 0 0 -31324.9 0 0 10650.6 0 0 -10650.6 0 0 3735.34 0 0 -3735.34
0 0 32413.1 0 0 -32413.1 0 0 11143.4 0 0 -11143.4 0 0 3678.59 0 0 -3678.59
0 0 33576.8 0 0 -33576.8 0 0 11747 0 0 -11747 0 0 3592.89 0 0 -3592.89
0 0 34803.8 0 0 -34803.8 0 0 12455.4 0 0 -12455.4 0 0 3481.55 0 0 -3481.55
0 0 36081.2 0 0 -36081.2 0 0 13260.1 0 0 -13260.1 0 0 3348.49 0 0 -3348.49
0 0 37395.8 0 0 -37395.8 0 0 14148.8 0 0 -14148.8 0 0 3198.38 0 0 -3198.38
0 0 38734.5 0 0 -38734.5 0 0 15106.8 0 0 -15106.8 0 0 3036.69 0 0 -3036.69
0 0 40084.7 0 0 -40084.7 0 0 16116.9 0 0 -16116.9 0 0 2869.43 0 0 -2869.43
0 0 41430.7 0 0 -41430.7 0 0 17161.2 0 0 -17161.2 0 0 2702.88 0 0 -2702.88
0 0 42738.7 0 0 -42738.7 0 0 18224.9 0 0 -18224.9 0 0 2543.09 0 0 -2543.09
0 0 44004 0 0 -44004 0 0 19284.9 0 0 -19284.9 0 0 2396.48 0 0 -2396.48
0 0 45219.4 0 0 -45219.4 0 0 20320.8 0 0 -20320.8 0 0 2269.17 0 0 -2269.17
0 0 46377.9 0 0 -46377.9 0 0 21312.7 0 0 -21312.7 0 0 2166.78 0 0 -2166.78
0 0 47470 0 0 -47470 0 0 22242.9 0 0 -22242.9 0 0 2094.5 0 0 -2094.5
0 0 48485.2 0 0 -48485.2 0 0 23095.8 0 0 -23095.8 0 0 2056.67 0 0 -2056.67
0 0 49413.9 0 0 -49413.9 0 0 23858.4 0 0 -23858.4 0 0 2056.73 0 0 -2056.73
0 0 50179.9 0 0 -50179.9 0 0 24536.8 0 0 -24536.8 0 0 2096.31 0 0 -2096.31
0 0 50787 0 0 -50787 0 0 25117.7 0 0 -25117.7 0 0 2177.42 0 0 -2177.42
0 0 51260.1 0 0 -51260.1 0 0 25591.8 0 0 -25591.8 0 0 2300.31 0 0 -2300.31
0 0 51589.7 0 0 -51589.7 0 0 25952.4 0 0 -25952.4 0 0 2465.72 0 0 -2465.72
0 0 51769.2 0 0 -51769.2 0 0 26208.7 0 0 -26208.7 0 0 2670.72 0 0 -2670.72
0 0 51802.7 0 0 -51802.7 0 0 26358.6 0 0 -26358.6 0 0 2913.5 0 0 -2913.5
0 0 51688.8 0 0 -51688.8 0 0 26402.3 0 0 -26402.3 0 0 3190.55 0 0 -3190.55
0 0 51434.7 0 0 -51434.7 0 0 26345.5 0 0 -26345.5 0 0 3497.81 0 0 -3497.81
0 0 51051.9 0 0 -51051.9 0 0 26199.1 0 0 -26199.1 0 0 3815.25 0 0 -3815.25
0 0 50560.9 0 0 -50560.9 0 0 25960.2 0 0 -25960.2 0 0 4122.46 0 0 -4122.46
0 0 49975.8 0 0 -49975.8 0 0 25654 0 0 -25654 0 0 4440.08 0 0 -4440.08
0 0 49314.8 0 0 -49314.8 0 0 25298.1 0 0 -25298.1 0 0 4764.25 0 0 -4764.25
0 0 48596.3 0 0 -48596.3 0 0 24906.2 0 0 -24906.2 0 0 5087.18 0 0 -5087.18
0 0 47837.6 0 0 -47837.6 0 0 24496.8 0 0 -24496.8 0 0 5402.47 0 0 -5402.47
0 0 47059.8 0 0 -47059.8 0 0 24081.7 0 0 -24081.7 0 0 5705.56 0 0 -5705.56
0 0 46283 0 0 -46283 0 0 23675.6 0 0 -23675.6 0 0 5991.42 0 0 -5991.42
0 0 45526.5 0 0 -45526.5 0 0 23292.5 0 0 -23292.5 0 0 6254.45 0 0 -6254.45
0 0 44807.4 0 0 -44807.4 0 0 22945.5 0 0 -22945.5 0 0 6488.94 0 0 -6488.94
0 0 44124.1 0 0 -44124.1 0 0 22647.6 0 0 -22647.6 0 0 6690.1 0 0 -6690.1
0 0 43433.9 0 0 -43433.9 0 0 22414.9 0 0 -22414.9 0 0 6854.17 0 0 -6854.17
0 0 42739 0 0 -42739 0 0 22252.5 0 0 -22252.5 0 0 6978.88 0 0 -6978.88
0 0 42035.1 0 0 -42035.1 0 0 22163.1 0 0 -22163.1 0 0 7062.5 0 0 -7062.5
0 0 41316.5 0 0 -41316.5 0 0 22147.2 0 0 -22147.2 0 0 7103.59 0 0 -7103.59
0 0 40580.1 0 0 -40580.1 0 0 22200.1 0 0 -22200.1 0 0 7099.98 0 0 -7099.98
0 0 39828 0 0 -39828 0 0 22310 0 0 -22310 0 0 7048.61 0 0 -7048.61
0 0 39064.8 0 0 -39064.8 0 0 22463 0 0 -22463 0 0 6951.63 0 0 -6951.63
0 0 38293.8 0 0 -38293.8 0 0 22643 0 0 -22643 0 0 6812.5 0 0 -6812.5
0 0 37514.6 0 0 -37514.6 0 0 22832.6 0 0 -22832.6 0 0 6634.9 0 0 -6634.9
0 0 36722.6 0 0 -36722.6 0 0 23013.2 0 0 -23013.2 0 0 6422.96 0 0 -6422.96
0 0 35910 0 0 -35910 0 0 23165 0 0 -23165 0 0 6181.58 0 0 -6181.58
0 0 35068.2 0 0 -35068.2 0 0 23268 0 0 -23268 0 0 5916.26 0 0 -5916.26
0 0 34189 0 0 -34189 0 0 23302.7 0 0 -23302.7 0 0 5632.7 0 0 -5632.7
0 0 33263.2 0 0 -33263.2 0 0 23251.2 0 0 -23251.2 0 0 5336.32 0 0 -5336.32
0 0 32278.5 0 0 -32278.5 0 0 23097.3 0 0 -23097.3 0 0 5032.22 0 0 -5032.22
0 0 31220.8 0 0 -31220.8 0 0 22827.3 0 0 -22827.3 0 0 4725.14 0 0 -4725.14
0 0 30077.3 0 0 -30077.3 0 0 22429.8 0 0 -22429.8 0 0 4419.55 0 0 -4419.55
0 0 28839.8 0 0 -28839.8 0 0 21895.8 0 0 -21895.8 0 0 4119.45 0 0 -4119.45
0 0 27505.3 0 0 -27505.3 0 0 21218.9 0 0 -21218.9 0 0 3828.11 0 0 -3828.11
0 0 26074.8 0 0 -26074.8 0 0 20395.7 0 0 -20395.7 0 0 3548.01 0 0 -3548.01
0 0 24552.2 0 0 -24552.2 0 0 19426 0 0 -19426 0 0 3280.76 0 0 -3280.76
0 0 22941.8 0 0 -22941.8 0 0 18313.3 0 0 -18313.3 0 0 3027.24 0 0 -3027.24
0 0 21248 0 0 -21248 0 0 17065.3 0 0 -17065.3 0 0 2787.54 0 0 -2787.54
0 0 19473.6 0 0 -19473.6 0 0 15692.9 0 0 -15692.9 0 0 2560.96 0 0 -2560.96
0 0 17620.7 0 0 -17620.7 0 0 14210.7 0 0 -14210.7 0 0 2346.03 0 0 -2346.03
0 0 15691.9 0 0 -15691.9 0 0 12635.9 0 0 -12635.9 0 0 2140.63 0 0 -2140.63
0 0 13691.2 0 0 -13691.2 0 0 10987.5 0 0 -10987.5 0 0 1942.16 0 0 -1942.16
0 0 11625.6 0 0 -11625.6 0 0 9285.91 0 0 -9285.91 0 0 1747.65 0 0 -1747.65
0 0 9505.73 0 0 -9505.73 0 0 7551.82 0 0 -7551.82 0 0 1553.98 0 0 -1553.98
0 0 7346.03 0 0 -7346.03 0 0 5805.72 0 0 -5805.72 0 0 1357.94 0 0 -1357.94
0 0 5163.35 0 0 -5163.35 0 0 4067.59 0 0 -4067.59 0 0 1156.32 0 0 -1156.32
0 0 2975.49 0 0 -2975.49 0 0 2356.53 0 0 -2356.53 0 0 946.108 0 0 -946.108
0 0 818.295 0 0 -818.295 0 0 687.632 0 0 -687.632 0 0 724.251 0 0 -724.251
0 0 -1145.06 0 0 1145.06 0 0 -896.124 0 0 896.124 0 0 485.232 0 0 -485.232
0 0 -3054.62 0 0 3054.62 0 0 -2396.59 0 0 2396.59 0 0 229.604 0 0 -229.604
0 0 -4900.47 0 0 4900.47 0 0 -3816.11 0 0 3816.11 0 0 -28.6346 0 0 28.6346
0 0 -6344.91 0 0 6344.91 0 0 -5196.74 0 0 5196.74 0 0 -284.337 0 0 284.337
0 0 -7682.17 0 0 7682.17 0 0 -6466.77 0 0 6466.77 0 0 -552.789 0 0 552.789
0 0 -8893.73 0 0 8893.73 0 0 -7620.24 0 0 7620.24 0 0 -838.019 0 0 838.019
0 0 -9980.7 0 0 9980.7 0 0 -8665.29 0 0 8665.29 0 0 -1134.81 0 0 1134.81
0 0 -10930.1 0 0 10930.1 0 0 -9589.68 0 0 9589.68 0 0 -1443.86 0 0 1443.86
0 0 -11751.8 0 0 11751.8 0 0 -10385.4 0 0 10385.4 0 0 -1763.48 0 0 1763.48
0 0 -12455.3 0 0 12455.3 0 0 -11048.6 0 0 11048.6 0 0 -2092.51 0 0 2092.51
0 0 -13044 0 0 13044 0 0 -11585.8 0 0 11585.8 0 0 -2427.29 0 0 2427.29
0 0 -13527.4 0 0 13527.4 0 0 -12003.2 0 0 12003.2 0 0 -2763.57 0 0 2763.57
0 0 -13923.2 0 0 13923.2 0 0 -12303.7 0 0 12303.7 0 0 -3097.27 0 0 3097.27
0 0 -14249.3 0 0 14249.3 0 0 -12492.3 0 0 12492.3 0 0 -3424.57 0 0 3424.57
0 0 -14523.1 0 0 14523.1 0 0 -12578.8 0 0 12578.8 0 0 -3741.41 0 0 3741.41
0 0 -14764 0 0 14764 0 0 -12575.8 0 0 12575.8 0 0 -4043.13 0 0 4043.13
0 0 -14993.3 0 0 14993.3 0 0 -12496.2 0 0 12496.2 0 0 -4324.65 0 0 4324.65
0 0 -15230.9 0 0 15230.9 0 0 -12353.2 0 0 12353.2 0 0 -4580.98 0 0 4580.98
0 0 -15495.5 0 0 15495.5 0 0 -12161.1 0 0 12161.1 0 0 -4807.53 0 0 4807.53
0 0 -15806.2 0 0 15806.2 0 0 -11935.6 0 0 11935.6 0 0 -5000.15 0 0 5000.15
0 0 -16180.7 0 0 16180.7 0 0 -11692.7 0 0 11692.7 0 0 -5154.98 0 0 5154.98
0 0 -16634.8 0 0 16634.8 0 0 -11448 0 0 11448 0 0 -5268.45 0 0 5268.45
0 0 -17181 0 0 17181 0 0 -11216.4 0 0 11216.4 0 0 -5337.47 0 0 5337.47
0 0 -17828.5 0 0 17828.5 0 0 -11012.3 0 0 11012.3 0 0 -5359.72 0 0 5359.72
0 0 -18583.1 0 0 18583.1 0 0 -10848.4 0 0 10848.4 0 0 -5328.53 0 0 5328.53
0 0 -19446.7 0 0 19446.7 0 0 -10735.1 0 0 10735.1 0 0 -5242.16 0 0 5242.16
0 0 -20417.9 0 0 20417.9 0 0 -10682.5 0 0 10682.5 0 0 -5100.78 0 0 5100.78
0 0 -21493.2 0 0 21493.2 0 0 -10698.2 0 0 10698.2 0 0 -4905.77 0 0 4905.77
0 0 -22667 0 0 22667 0 0 -10787.3 0 0 10787.3 0 0 -4659.37 0 0 4659.37
0 0 -23932.3 0 0 23932.3 0 0 -10952.2 0 0 10952.2 0 0 -4365.09 0 0 4365.09
0 0 -25281 0 0 25281 0 0 -11192 0 0 11192 0 0 -4027.69 0 0 4027.69
0 0 -26704.1 0 0 26704.1 0 0 -11503.2 0 0 11503.2 0 0 -3652.97 0 0 3652.97
0 0 -28191.8 0 0 28191.8 0 0 -11879.7 0 0 11879.7 0 0 -3247.45 0 0 3247.45
0 0 -29732.9 0 0 29732.9 0 0 -12313.3 0 0 12313.3 0 0 -2818.25 0 0 2818.25
0 0 -31314.5 0 0 31314.5 0 0 -12794.5 0 0 12794.5 0 0 -2373.03 0 0 2373.03
0 0 -32921.8 0 0 32921.8 0 0 -13312.3 0 0 13312.3 0 0 -1920 0 0 1920
0 0 -34538.4 0 0 34538.4 0 0 -13855 0 0 13855 0 0 -1467.65 0 0 1467.65
0 0 -36146.6 0 0 36146.6 0 0 -14410.5 0 0 14410.5 0 0 -1024.52 0 0 1024.52
0 0 -37728 0 0 37728 0 0 -14967.1 0 0 14967.1 0 0 -598.918 0 0 598.918
0 0 -39264.3 0 0 39264.3 0 0 -15513.2 0 0 15513.2 0 0 -198.853 0 0 198.853
0 0 -40736.7 0 0 40736.7 0 0 -16043.8 0 0 16043.8 0 0 139.176 0 0 -139.176
0 0 -42129.2 0 0 42129.2 0 0 -16551.1 0 0 16551.1 0 0 432.844 0 0 -432.844
0 0 -43429.6 0 0 43429.6 0 0 -17016 0 0 17016 0 0 685.296 0 0 -685.296
0 0 -44625.2 0 0 44625.2 0 0 -17433.2 0 0 17433.2 0 0 892.218 0 0 -892.218
0 0 -45707.2 0 0 45707.2 0 0 -17794.1 0 0 17794.1 0 0 1048.7 0 0 -1048.7
0 0 -46668.7 0 0 46668.7 0 0 -18097.9 0 0 18097.9 0 0 1152.6 0 0 -1152.6
0 0 -47505.8 0 0 47505.8 0 0 -18344.6 0 0 18344.6 0 0 1202.77 0 0 -1202.77
0 0 -48217.9 0 0 48217.9 0 0 -18534.4 0 0 18534.4 0 0 1196.63 0 0 -1196.63
0 0 -48806.6 0 0 48806.6 0 0 -18671.3 0 0 18671.3 0 0 1130 0 0 -1130
0 0 -49276.5 0 0 49276.5 0 0 -18759.9 0 0 18759.9 0 0 1003.28 0 0 -1003.28
0 0 -49633.8 0 0 49633.8 0 0 -18807.8 0 0 18807.8 0 0 818.907 0 0 -818.907
0 0 -49886.7 0 0 49886.7 0 0 -18824.2 0 0 18824.2 0 0 580.405 0 0 -580.405
0 0 -50046 0 0 50046 0 0 -18819 0 0 18819 0 0 292.046 0 0 -292.046
0 0 -50125.1 0 0 50125.1 0 0 -18803.1 0 0 18803.1 0 0 -39.9114 0 0 39.9114
0 0 -50142 0 0 50142 0 0 -18782.4 0 0 18782.4 0 0 -397.238 0 0 397.238
0 0 -50109.5 0 0 50109.5 0 0 -18771.9 0 0 18771.9 0 0 -786.108 0 0 786.108
0 0 -50048.8 0 0 50048.8 0 0 -18786.9 0 0 18786.9 0 0 -1201.27 0 0 1201.27
0 0 -49980.6 0 0 49980.6 0 0 -18838.9 0 0 18838.9 0 0 -1635.23 0 0 1635.23
0 0 -49910.8 0 0 49910.8 0 0 -18944 0 0 18944 0 0 -2081.06 0 0 2081.06
0 0 -49535.3 0 0 49535.3 0 0 -19163.7 0 0 19163.7 0 0 -2530.44 0 0 2530.44
0 0 -49221.6 0 0 49221.6 0 0 -19444.4 0 0 19444.4 0 0 -2981.48 0 0 2981.48
0 0 -49006.7 0 0 49006.7 0 0 -19785.9 0 0 19785.9 0 0 -3427.81 0 0 3427.81
0 0 -48881.8 0 0 48881.8 0 0 -20209.1 0 0 20209.1 0 0 -3862.89 0 0 3862.89
0 0 -48859.2 0 0 48859.2 0 0 -20712.5 0 0 20712.5 0 0 -4281.56 0 0 4281.56
0 0 -48953.9 0 0 48953.9 0 0 -21293.9 0 0 21293.9 0 0 -4679.93 0 0 4679.93
0 0 -49170.6 0 0 49170.6 0 0 -21951.2 0 0 21951.2 0 0 -5054.49 0 0 5054.49
0 0 -49507.5 0 0 49507.5 0 0 -22683.9 0 0 22683.9 0 0 -5402.28 0 0 5402.28
0 0 -49963.8 0 0 49963.8 0 0 -23489.7 0 0 23489.7 0 0 -5720.42 0 0 5720.42
0 0 -50493.8 0 0 50493.8 0 0 -24352.6 0 0 24352.6 0 0 -6007.42 0 0 6007.42
0 0 -51120.4 0 0 51120.4 0 0 -25265.4 0 0 25265.4 0 0 -6262.28 0 0 6262.28
0 0 -51850.2 0 0 51850.2 0 0 -26217 0 0 26217 0 0 -6484.77 0 0 6484.77
0 0 -52644.4 0 0 52644.4 0 0 -27211.2 0 0 27211.2 0 0 -6674.27 0 0 6674.27
0 0 -53506.8 0 0 53506.8 0 0 -28232.8 0 0 28232.8 0 0 -6831.3 0 0 6831.3
0 0 -54391.1 0 0 54391.1 0 0 -29273.7 0 0 29273.7 0 0 -6957.54 0 0 6957.54
0 0 -55281.5 0 0 55281.5 0 0 -30320.9 0 0 30320.9 0 0 -7054.32 0 0 7054.32
0 0 -56159.1 0 0 56159.1 0 0 -31360.7 0 0 31360.7 0 0 -7124.23 0 0 7124.23
0 0 -57006.8 0 0 57006.8 0 0 -32378.7 0 0 32378.7 0 0 -7169.72 0 0 7169.72
0 0 -57803.3 0 0 57803.3 0 0 -33359.2 0 0 33359.2 0 0 -7193.88 0 0 7193.88
0 0 -58530.1 0 0 58530.1 0 0 -34286.1 0 0 34286.1 0 0 -7199.81 0 0 7199.81
0 0 -59175.5 0 0 59175.5 0 0 -35142 0 0 35142 0 0 -7190.2 0 0 7190.2
0 0 -59730.9 0 0 59730.9 0 0 -35910.7 0 0 35910.7 0 0 -7168.44 0 0 7168.44
0 0 -60188.1 0 0 60188.1 0 0 -36577 0 0 36577 0 0 -7137.88 0 0 7137.88
0 0 -60540.5 0 0 60540.5 0 0 -37126.6 0 0 37126.6 0 0 -7101.64 0 0 7101.64
0 0 -60784.9 0 0 60784.9 0 0 -37546.7 0 0 37546.7 0 0 -7062.46 0 0 7062.46
0 0 -60919.8 0 0 60919.8 0 0 -37827.1 0 0 37827.1 0 0 -7022.62 0 0 7022.62
0 0 -60944.7 0 0 60944.7 0 0 -37960.1 0 0 37960.1 0 0 -6983.86 0 0 6983.86
0 0 -60852 0 0 60852 0 0 -37938.5 0 0 37938.5 0 0 -6947.48 0 0 6947.48
0 0 -60649.4 0 0 60649.4 0 0 -37759.3 0 0 37759.3 0 0 -6914.04 0 0 6914.04
0 0 -60344.2 0 0 60344.2 0 0 -37424.3 0 0 37424.3 0 0 -6883.26 0 0 6883.26
0 0 -59943.5 0 0 59943.5 0 0 -36938.9 0 0 36938.9 0 0 -6854.22 0 0 6854.22
0 0 -59453.1 0 0 59453.1 0 0 -36312 0 0 36312 0 0 -6825.32 0 0 6825.32
0 0 -58875.1 0 0 58875.1 0 0 -35556.4 0 0 35556.4 0 0 -6794.39 0 0 6794.39
0 0 -58207 0 0 58207 0 0 -34687.9 0 0 34687.9 0 0 -6758.74 0 0 6758.74
0 0 -57445.7 0 0 57445.7 0 0 -33724.9 0 0 33724.9 0 0 -6715.33 0 0 6715.33
0 0 -56590.1 0 0 56590.1 0 0 -32686.6 0 0 32686.6 0 0 -6660.91 0 0 6660.91
0 0 -55642.9 0 0 55642.9 0 0 -31592.6 0 0 31592.6 0 0 -6592.17 0 0 6592.17
0 0 -54610.5 0 0 54610.5 0 0 -30462.1 0 0 30462.1 0 0 -6505.92 0 0 6505.92
0 0 -53503.7 0 0 53503.7 0 0 -29313.2 0 0 29313.2 0 0 -6399.18 0 0 6399.18
0 0 -52335.1 0 0 52335.1 0 0 -28162.7 0 0 28162.7 0 0 -6269.33 0 0 6269.33
0 0 -51117 0 0 51117 0 0 -27025.9 0 0 27025.9 0 0 -6114.18 0 0 6114.18
0 0 -49860.7 0 0 49860.7 0 0 -25916.6 0 0 25916.6 0 0 -5932.07 0 0 5932.07
0 0 -48575.9 0 0 48575.9 0 0 -24846.5 0 0 24846.5 0 0 -5721.94 0 0 5721.94
0 0 -47269.8 0 0 47269.8 0 0 -23825 0 0 23825 0 0 -5483.43 0 0 5483.43
0 0 -45947.2 0 0 45947.2 0 0 -22859.5 0 0 22859.5 0 0 -5216.84 0 0 5216.84
0 0 -44610.4 0 0 44610.4 0 0 -21954.7 0 0 21954.7 0 0 -4923.23 0 0 4923.23
0 0 -43259.5 0 0 43259.5 0 0 -21112.6 0 0 21112.6 0 0 -4604.37 0 0 4604.37
0 0 -41892.6 0 0 41892.6 0 0 -20332.9 0 0 20332.9 0 0 -4262.75 0 0 4262.75
0 0 -40505.9 0 0 40505.9 0 0 -19612.6 0 0 19612.6 0 0 -3901.49 0 0 3901.49
0 0 -39093.8 0 0 39093.8 0 0 -18946.5 0 0 18946.5 0 0 -3524.35 0 0 3524.35
0 0 -37649.8 0 0 37649.8 0 0 -18326.9 0 0 18326.9 0 0 -3135.55 0 0 3135.55
0 0 -36166.8 0 0 36166.8 0 0 -17744.5 0 0 17744.5 0 0 -2739.75 0 0 2739.75
0 0 -34637.9 0 0 34637.9 0 0 -17188.3 0 0 17188.3 0 0 -2341.91 0 0 2341.91
0 0 -33057.3 0 0 33057.3 0 0 -16645.8 0 0 16645.8 0 0 -1947.14 0 0 1947.14
0 0 -31421.3 0 0 31421.3 0 0 -16103.6 0 0 16103.6 0 0 -1560.6 0 0 1560.6
0 0 -29296 0 0 29296 0 0 -15405.5 0 0 15405.5 0 0 -1096.67 0 0 1096.67
0 0 -27082.8 0 0 27082.8 0 0 -14660 0 0 14660 0 0 -662.708 0 0 662.708
0 0 -24783.3 0 0 24783.3 0 0 -13843.7 0 0 13843.7 0 0 -266.888 0 0 266.888
0 0 -22393.2 0 0 22393.2 0 0 -12943.3 0 0 12943.3 0 0 56.99 0 0 -56.99
0 0 -19901 0 0 19901 0 0 -11950.4 0 0 11950.4 0 0 321.372 0 0 -321.372
0 0 -17291.8 0 0 17291.8 0 0 -10849.1 0 0 10849.1 0 0 538.918 0 0 -538.918
0 0 -14552.1 0 0 14552.1 0 0 -9637.04 0 0 9637.04 0 0 710.536 0 0 -710.536
0 0 -11677.6 0 0 11677.6 0 0 -8319.59 0 0 8319.59 0 0 836.435 0 0 -836.435
0 0 -8673.94 0 0 8673.94 0 0 -6908.73 0 0 6908.73 0 0 921.01 0 0 -921.01
0 0 -5551.66 0 0 5551.66 0 0 -5417.67 0 0 5417.67 0 0 968.441 0 0 -968.441
0 0 -2621.08 0 0 2621.08 0 0 -3825.45 0 0 3825.45 0 0 982.51 0 0 -982.51
0 0 -126.301 0 0 126.301 0 0 -2132.11 0 0 2132.11 0 0 964.137 0 0 -964.137
0 0 2138.85 0 0 -2138.85 0 0 -530.572 0 0 530.572 0 0 933.905 0 0 -933.905
0 0 4491.35 0 0 -4491.35 0 0 1032.72 0 0 -1032.72 0 0 890.537 0 0 -890.537
0 0 6791.66 0 0 -6791.66 0 0 2528.73 0 0 -2528.73 0 0 846.586 0 0 -846.586
0 0 9042.24 0 0 -9042.24 0 0 3942.52 0 0 -3942.52 0 0 808.385 0 0 -808.385
0 0 11244.5 0 0 -11244.5 0 0 5256.39 0 0 -5256.39 0 0 784.84 0 0 -784.84
0 0 13332.2 0 0 -13332.2 0 0 6461.8 0 0 -6461.8 0 0 781.741 0 0 -781.741
0 0 15291.2 0 0 -15291.2 0 0 7535.96 0 0 -7535.96 0 0 805.684 0 0 -805.684
0 0 17114.9 0 0 -17114.9 0 0 8471.96 0 0 -8471.96 0 0 860.456 0 0 -860.456
0 0 18774.8 0 0 -18774.8 0 0 9274.57 0 0 -9274.57 0 0 947.967 0 0 -947.967
0 0 20264.4 0 0 -20264.4 0 0 9941.08 0 0 -9941.08 0 0 1059.44 0 0 -1059.44
0 0 21588.9 0 0 -21588.9 0 0 10469.6 0 0 -10469.6 0 0 1194.33 0 0 -1194.33
0 0 22749.9 0 0 -22749.9 0 0 10875.9 0 0 -10875.9 0 0 1356.99 0 0 -1356.99
0 0 23763.7 0 0 -23763.7 0 0 11173.2 0 0 -11173.2 0 0 1544.05 0 0 -1544.05
0 0 24652.5 0 0 -24652.5 0 0 11375 0 0 -11375 0 0 1751.29 0 0 -1751.29
0 0 25437.7 0 0 -25437.7 0 0 11498.3 0 0 -11498.3 0 0 1974.49 0 0 -1974.49
0 0 26143.7 0 0 -26143.7 0 0 11564.7 0 0 -11564.7 0 0 2208.15 0 0 -2208.15
0 0 26796.3 0 0 -26796.3 0 0 11596.9 0 0 -11596.9 0 0 2445.89 0 0 -2445.89
0 0 27420.2 0 0 -27420.2 0 0 11617.5 0 0 -11617.5 0 0 2681.28 0 0 -2681.28
0 0 28040.5 0 0 -28040.5 0 0 11648.5 0 0 -11648.5 0 0 2908.36 0 0 -2908.36
0 0 28681.8 0 0 -28681.8 0 0 11711.8 0 0 -11711.8 0 0 3121.38 0 0 -3121.38
0 0 29367.5 0 0 -29367.5 0 0 11827 0 0 -11827 0 0 3314.9 0 0 -3314.9
0 0 30118.9 0 0 -30118.9 0 0 12010.5 0 0 -12010.5 0 0 3484.22 0 0 -3484.22
0 0 30955.1 0 0 -30955.1 0 0 12275.7 0 0 -12275.7 0 0 3625.75 0 0 -3625.75
0 0 31891.7 0 0 -31891.7 0 0 12632.4 0 0 -12632.4 0 0 3737.04 0 0 -3737.04
0 0 32940 0 0 -32940 0 0 13086.7 0 0 -13086.7 0 0 3816.76 0 0 -3816.76
0 0 34104.3 0 0 -34104.3 0 0 13641.2 0 0 -13641.2 0 0 3864.67 0 0 -3864.67
0 0 35380.4 0 0 -35380.4 0 0 14295.4 0 0 -14295.4 0 0 3881.78 0 0 -3881.78
0 0 36756.2 0 0 -36756.2 0 0 15045.2 0 0 -15045.2 0 0 3867.91 0 0 -3867.91
0 0 38213.7 0 0 -38213.7 0 0 15882.5 0 0 -15882.5 0 0 3825.48 0 0 -3825.48
0 0 39730.7 0 0 -39730.7 0 0 16796.8 0 0 -16796.8 0 0 3759.67 0 0 -3759.67
0 0 41282.1 0 0 -41282.1 0 0 17774.3 0 0 -17774.3 0 0 3676.41 0 0 -3676.41
0 0 42841.3 0 0 -42841.3 0 0 18797.9 0 0 -18797.9 0 0 3582.59 0 0 -3582.59
0 0 44382.7 0 0 -44382.7 0 0 19847.8 0 0 -19847.8 0 0 3485.81 0 0 -3485.81
0 0 45883.7 0 0 -45883.7 0 0 20901.7 0 0 -20901.7 0 0 3393.96 0 0 -3393.96
0 0 47325.6 0 0 -47325.6 0 0 21936.5 0 0 -21936.5 0 0 3314.73 0 0 -3314.73
0 0 48693.1 0 0 -48693.1 0 0 22928.9 0 0 -22928.9 0 0 3255.4 0 0 -3255.4
0 0 49973 0 0 -49973 0 0 23857.2 0 0 -23857.2 0 0 3222.57 0 0 -3222.57
0 0 51153.3 0 0 -51153.3 0 0 24702.7 0 0 -24702.7 0 0 3221.81 0 0 -3221.81
0 0 52222.9 0 0 -52222.9 0 0 25450.6 0 0 -25450.6 0 0 3257.31 0 0 -3257.31
0 0 53171.3 0 0 -53171.3 0 0 26091.1 0 0 -26091.1 0 0 3331.73 0 0 -3331.73
0 0 53989 0 0 -53989 0 0 26619.1 0 0 -26619.1 0 0 3446.11 0 0 -3446.11
0 0 54669.7 0 0 -54669.7 0 0 27034.3 0 0 -27034.3 0 0 3599.86 0 0 -3599.86
0 0 55210.6 0 0 -55210.6 0 0 27341.1 0 0 -27341.1 0 0 3790.81 0 0 -3790.81
0 0 55613.6 0 0 -55613.6 0 0 27544.6 0 0 -27544.6 0 0 3995.77 0 0 -3995.77
0 0 55884.7 0 0 -55884.7 0 0 27649.8 0 0 -27649.8 0 0 4218.61 0 0 -4218.61
0 0 56029.7 0 0 -56029.7 0 0 27681.2 0 0 -27681.2 0 0 4460.27 0 0 -4460.27
0 0 56059.4 0 0 -56059.4 0 0 27652.9 0 0 -27652.9 0 0 4715.89 0 0 -4715.89
0 0 55978.8 0 0 -55978.8 0 0 27580.7 0 0 -27580.7 0 0 4978.54 0 0 -4978.54
0 0 55805.5 0 0 -55805.5 0 0 27479.9 0 0 -27479.9 0 0 5242.87 0 0 -5242.87
0 0 55409.2 0 0 -55409.2 0 0 27393.5 0 0 -27393.5 0 0 5501.01 0 0 -5501.01
0 0 54944.4 0 0 -54944.4 0 0 27309 0 0 -27309 0 0 5747.5 0 0 -5747.5
0 0 54513.7 0 0 -54513.7 0 0 27225 0 0 -27225 0 0 5976.49 0 0 -5976.49
0 0 54113.1 0 0 -54113.1 0 0 27162.4 0 0 -27162.4 0 0 6182.15 0 0 -6182.15
0 0 53621.6 0 0 -53621.6 0 0 27145.5 0 0 -27145.5 0 0 6359.62 0 0 -6359.62
0 0 53003.3 0 0 -53003.3 0 0 27181.2 0 0 -27181.2 0 0 6504.82 0 0 -6504.82
0 0 52263 0 0 -52263 0 0 27266.1 0 0 -27266.1 0 0 6615.4 0 0 -6615.4
0 0 51408.2 0 0 -51408.2 0 0 27394 0 0 -27394 0 0 6689.96 0 0 -6689.96
0 0 50446.8 0 0 -50446.8 0 0 27548.4 0 0 -27548.4 0 0 6728.84 0 0 -6728.84
0 0 49386.4 0 0 -49386.4 0 0 27707.3 0 0 -27707.3 0 0 6732.63 0 0 -6732.63
0 0 48239.2 0 0 -48239.2 0 0 27845.5 0 0 -27845.5 0 0 6700.27 0 0 -6700.27
0 0 47019 0 0 -47019 0 0 27936.6 0 0 -27936.6 0 0 6634.51 0 0 -6634.51
0 0 45739.4 0 0 -45739.4 0 0 27952.4 0 0 -27952.4 0 0 6539.49 0 0 -6539.49
0 0 44409.9 0 0 -44409.9 0 0 27866.5 0 0 -27866.5 0 0 6419.22 0 0 -6419.22
0 0 43032.5 0 0 -43032.5 0 0 27656.8 0 0 -27656.8 0 0 6277.67 0 0 -6277.67
0 0 41598.7 0 0 -41598.7 0 0 27306.2 0 0 -27306.2 0 0 6118.53 0 0 -6118.53
0 0 40089.3 0 0 -40089.3 0 0 26803.4 0 0 -26803.4 0 0 5944.89 0 0 -5944.89
0 0 38478.8 0 0 -38478.8 0 0 26142.9 0 0 -26142.9 0 0 5759.05 0 0 -5759.05
0 0 36744.4 0 0 -36744.4 0 0 25323.8 0 0 -25323.8 0 0 5562.57 0 0 -5562.57
0 0 34872 0 0 -34872 0 0 24348.7 0 0 -24348.7 0 0 5356.41 0 0 -5356.41
0 0 32858.6 0 0 -32858.6 0 0 23222.5 0 0 -23222.5 0 0 5140.88 0 0 -5140.88
0 0 30707.1 0 0 -30707.1 0 0 21953.8 0 0 -21953.8 0 0 4915.6 0 0 -4915.6
0 0 28421.4 0 0 -28421.4 0 0 20554.6 0 0 -20554.6 0 0 4679.57 0 0 -4679.57
0 0 26005.8 0 0 -26005.8 0 0 19040.2 0 0 -19040.2 0 0 4431.3 0 0 -4431.3
0 0 23466 0 0 -23466 0 0 17427.7 0 0 -17427.7 0 0 4168.99 0 0 -4168.99
0 0 20808.3 0 0 -20808.3 0 0 15736.2 0 0 -15736.2 0 0 3890.67 0 0 -3890.67
0 0 18037.1 0 0 -18037.1 0 0 13985.5 0 0 -13985.5 0 0 3594.31 0 0 -3594.31
0 0 15152.6 0 0 -15152.6 0 0 12196.2 0 0 -12196.2 0 0 3278.09 0 0 -3278.09
0 0 12153.3 0 0 -12153.3 0 0 10387.3 0 0 -10387.3 0 0 2940.59 0 0 -2940.59
0 0 9043.92 0 0 -9043.92 0 0 8575.19 0 0 -8575.19 0 0 2580.97 0 0 -2580.97
0 0 5841.19 0 0 -5841.19 0 0 6771.54 0 0 -6771.54 0 0 2199.17 0 0 -2199.17
0 0 2571.05 0 0 -2571.05 0 0 4983.81 0 0 -4983.81 0 0 1795.93 0 0 -1795.93
0 0 -74.1638 0 0 74.1638 0 0 3128.18 0 0 -3128.18 0 0 1375.72 0 0 -1375.72
0 0 -2134.29 0 0 2134.29 0 0 1316.93 0 0 -1316.93 0 0 934.704 0 0 -934.704
0 0 -4177.03 0 0 4177.03 0 0 -465.004 0 0 465.004 0 0 474.672 0 0 -474.672
0 0 -6122.05 0 0 6122.05 0 0 -2204.41 0 0 2204.41 0 0 1.55203 0 0 -1.55203
0 0 -7994.92 0 0 7994.92 0 0 -3860.27 0 0 3860.27 0 0 -432.618 0 0 432.618
0 0 -9763.33 0 0 9763.33 0 0 -5426.14 0 0 5426.14 0 0 -882.831 0 0 882.831
0 0 -11398.7 0 0 11398.7 0 0 -6901.64 0 0 6901.64 0 0 -1339.72 0 0 1339.72
0 0 -12902 0 0 12902 0 0 -8288.81 0 0 8288.81 0 0 -1796.39 0 0 1796.39
0 0 -14265.7 0 0 14265.7 0 0 -9574.17 0 0 9574.17 0 0 -2250.88 0 0 2250.88
0 0 -15484.9 0 0 15484.9 0 0 -10751.3 0 0 10751.3 0 0 -2700.49 0 0 2700.49
0 0 -16569.1 0 0 16569.1 0 0 -11819.8 0 0 11819.8 0 0 -3139.39 0 0 3139.39
0 0 -17527.2 0 0 17527.2 0 0 -12780.6 0 0 12780.6 0 0 -3560.96 0 0 3560.96
0 0 -18369.1 0 0 18369.1 0 0 -13630.5 0 0 13630.5 0 0 -3960.22 0 0 3960.22
0 0 -19109.2 0 0 19109.2 0 0 -14368.2 0 0 14368.2 0 0 -4333.2 0 0 4333.2
0 0 -19762 0 0 19762 0 0 -14996.9 0 0 14996.9 0 0 -4674.68 0 0 4674.68
0 0 -20344.2 0 0 20344.2 0 0 -15520.3 0 0 15520.3 0 0 -4979.07 0 0 4979.07
0 0 -20876.2 0 0 20876.2 0 0 -15940.7 0 0 15940.7 0 0 -5241.52 0 0 5241.52
0 0 -21378 0 0 21378 0 0 -16262.1 0 0 16262.1 0 0 -5458.37 0 0 5458.37
0 0 -21866.6 0 0 21866.6 0 0 -16491.1 0 0 16491.1 0 0 -5626.21 0 0 5626.21
0 0 -22354.4 0 0 22354.4 0 0 -16635.6 0 0 16635.6 0 0 -5741.76 0 0 5741.76
0 0 -22848.2 0 0 22848.2 0 0 -16704.5 0 0 16704.5 0 0 -5802.4 0 0 5802.4
0 0 -23351.8 0 0 23351.8 0 0 -16707.1 0 0 16707.1 0 0 -5805.39 0 0 5805.39
0 0 -23870.9 0 0 23870.9 0 0 -16650.2 0 0 16650.2 0 0 -5745.1 0 0 5745.1
0 0 -24412.4 0 0 24412.4 0 0 -16541.1 0 0 16541.1 0 0 -5621.55 0 0 5621.55
0 0 -24983.8 0 0 24983.8 0 0 -16386 0 0 16386 0 0 -5436.49 0 0 5436.49
0 0 -25588.5 0 0 25588.5 0 0 -16191.8 0 0 16191.8 0 0 -5192.67 0 0 5192.67
0 0 -26223.4 0 0 26223.4 0 0 -15964.7 0 0 15964.7 0 0 -4894.3 0 0 4894.3
0 0 -26879.4 0 0 26879.4 0 0 -15710.7 0 0 15710.7 0 0 -4546.83 0 0 4546.83
0 0 -27544.2 0 0 27544.2 0 0 -15435 0 0 15435 0 0 -4156.5 0 0 4156.5
0 0 -28203.7 0 0 28203.7 0 0 -15142.2 0 0 15142.2 0 0 -3730.29 0 0 3730.29
0 0 -28841.9 0 0 28841.9 0 0 -14835.3 0 0 14835.3 0 0 -3276.11 0 0 3276.11
0 0 -29440.9 0 0 29440.9 0 0 -14516.3 0 0 14516.3 0 0 -2802.55 0 0 2802.55
0 0 -29981.4 0 0 29981.4 0 0 -14186 0 0 14186 0 0 -2318.65 0 0 2318.65
0 0 -30443.6 0 0 30443.6 0 0 -13844.3 0 0 13844.3 0 0 -1833.54 0 0 1833.54
0 0 -30809 0 0 30809 0 0 -13489.8 0 0 13489.8 0 0 -1356.42 0 0 1356.42
0 0 -31052.5 0 0 31052.5 0 0 -13121.6 0 0 13121.6 0 0 -896.324 0 0 896.324
0 0 -31086.2 0 0 31086.2 0 0 -12750.2 0 0 12750.2 0 0 -461.245 0 0 461.245
0 0 -30889.7 0 0 30889.7 0 0 -12360.3 0 0 12360.3 0 0 -64.6727 0 0 64.6727
0 0 -30475.8 0 0 30475.8 0 0 -11953 0 0 11953 0 0 256.362 0 0 -256.362
0 0 -29874.4 0 0 29874.4 0 0 -11503.8 0 0 11503.8 0 0 532.467 0 0 -532.467
0 0 -29114.3 0 0 29114.3 0 0 -11002.8 0 0 11002.8 0 0 763.401 0 0 -763.401
0 0 -28226 0 0 28226 0 0 -10438.7 0 0 10438.7 0 0 942.798 0 0 -942.798
0 0 -27230.3 0 0 27230.3 0 0 -9814.34 0 0 9814.34 0 0 1070.98 0 0 -1070.98
0 0 -26143.5 0 0 26143.5 0 0 -9134.28 0 0 9134.28 0 0 1148.48 0 0 -1148.48
0 0 -24976.5 0 0 24976.5 0 0 -8405.89 0 0 8405.89 0 0 1176.71 0 0 -1176.71
0 0 -23735 0 0 23735 0 0 -7642.89 0 0 7642.89 0 0 1154.42 0 0 -1154.42
0 0 -22425 0 0 22425 0 0 -6864.66 0 0 6864.66 0 0 1084.61 0 0 -1084.61
0 0 -21058.3 0 0 21058.3 0 0 -6090.02 0 0 6090.02 0 0 973.916 0 0 -973.916
0 0 -19653.5 0 0 19653.5 0 0 -5337.12 0 0 5337.12 0 0 829.133 0 0 -829.133
0 0 -18235 0 0 18235 0 0 -4624.03 0 0 4624.03 0 0 657.143 0 0 -657.143
0 0 -16828.2 0 0 16828.2 0 0 -3969.01 0 0 3969.01 0 0 465.695 0 0 -465.695
0 0 -15454.6 0 0 15454.6 0 0 -3389.06 0 0 3389.06 0 0 263.022 0 0 -263.022
0 0 -14132.6 0 0 14132.6 0 0 -2898.89 0 0 2898.89 0 0 56.8897 0 0 -56.8897
0 0 -12876.4 0 0 12876.4 0 0 -2509.4 0 0 2509.4 0 0 -140.016 0 0 140.016
0 0 -11692 0 0 11692 0 0 -2230.14 0 0 2230.14 0 0 -326.407 0 0 326.407
0 0 -10575.6 0 0 10575.6 0 0 -2069.4 0 0 2069.4 0 0 -498.721 0 0 498.721
0 0 -9513.65 0 0 9513.65 0 0 -2029.31 0 0 2029.31 0 0 -651.63 0 0 651.63
0 0 -8485.15 0 0 8485.15 0 0 -2107.46 0 0 2107.46 0 0 -782.96 0 0 782.96
0 0 -7465.59 0 0 7465.59 0 0 -2295.32 0 0 2295.32 0 0 -891.492 0 0 891.492
0 0 -6429.05 0 0 6429.05 0 0 -2578.88 0 0 2578.88 0 0 -977.017 0 0 977.017
0 0 -5349.7 0 0 5349.7 0 0 -2938.37 0 0 2938.37 0 0 -1040.07 0 0 1040.07
0 0 -4202.38 0 0 4202.38 0 0 -3348.44 0 0 3348.44 0 0 -1082.8 0 0 1082.8
0 0 -2961.38 0 0 2961.38 0 0 -3779.29 0 0 3779.29 0 0 -1108.47 0 0 1108.47
0 0 -1722.22 0 0 1722.22 0 0 -4183.9 0 0 4183.9 0 0 -1121.01 0 0 1121.01
0 0 -1062.15 0 0 1062.15 0 0 -4437.07 0 0 4437.07 0 0 -1128.45 0 0 1128.45
0 0 -210.711 0 0 210.711 0 0 -4644.87 0 0 4644.87 0 0 -1126.17 0 0 1126.17
0 0 689.8 0 0 -689.8 0 0 -4771.41 0 0 4771.41 0 0 -1118.57 0 0 1118.57
0 0 1719.29 0 0 -1719.29 0 0 -4794.64 0 0 4794.64 0 0 -1107.27 0 0 1107.27
0 0 2861.47 0 0 -2861.47 0 0 -4690.01 0 0 4690.01 0 0 -1094.65 0 0 1094.65
0 0 4127.19 0 0 -4127.19 0 0 -4445.81 0 0 4445.81 0 0 -1080.97 0 0 1080.97
0 0 5518.21 0 0 -5518.21 0 0 -4046.06 0 0 4046.06 0 0 -1067.04 0 0 1067.04
0 0 7022.08 0 0 -7022.08 0 0 -3484.09 0 0 3484.09 0 0 -1052.23 0 0 1052.23
0 0 8642.18 0 0 -8642.18 0 0 -2763.48 0 0 2763.48 0 0 -1034.31 0 0 1034.31
0 0 10376.1 0 0 -10376.1 0 0 -1887.66 0 0 1887.66 0 0 -1010.53 0 0 1010.53
0 0 12211.8 0 0 -12211.8 0 0 -862.424 0 0 862.424 0 0 -977.504 0 0 977.504
0 0 14136.8 0 0 -14136.8 0 0 292.782 0 0 -292.782 0 0 -931.208 0 0 931.208
0 0 16130.9 0 0 -16130.9 0 0 1562.26 0 0 -1562.26 0 0 -867.821 0 0 867.821
0 0 18173.3 0 0 -18173.3 0 0 2925.87 0 0 -2925.87 0 0 -781.833 0 0 781.833
0 0 20245.9 0 0 -20245.9 0 0 4373.94 0 0 -4373.94 0 0 -667.922 0 0 667.922
0 0 22326.6 0 0 -22326.6 0 0 5883.31 0 0 -5883.31 0 0 -521.634 0 0 521.634
0 0 24395.6 0 0 -24395.6 0 0 7429.41 0 0 -7429.41 0 0 -338.22 0 0 338.22
0 0 26434.2 0 0 -26434.2 0 0 8991.74 0 0 -8991.74 0 0 -115.513 0 0 115.513
0 0 28423.5 0 0 -28423.5 0 0 10547.8 0 0 -10547.8 0 0 130.185 0 0 -130.185
0 0 30344.5 0 0 -30344.5 0 0 12073.3 0 0 -12073.3 0 0 410.188 0 0 -410.188
0 0 32177.5 0 0 -32177.5 0 0 13559.3 0 0 -13559.3 0 0 730.655 0 0 -730.655
0 0 33907.2 0 0 -33907.2 0 0 14992.4 0 0 -14992.4 0 0 1091.46 0 0 -1091.46
0 0 35518.6 0 0 -35518.6 0 0 16363.2 0 0 -16363.2 0 0 1490.33 0 0 -1490.33
0 0 36999.2 0 0 -36999.2 0 0 17662.3 0 0 -17662.3 0 0 1925.5 0 0 -1925.5
0 0 38339.1 0 0 -38339.1 0 0 18885.7 0 0 -18885.7 0 0 2392.87 0 0 -2392.87
0 0 39533.5 0 0 -39533.5 0 0 20032.5 0 0 -20032.5 0 0 2886.88 0 0 -2886.88
0 0 40584.3 0 0 -40584.3 0 0 21102.3 0 0 -21102.3 0 0 3401.03 0 0 -3401.03
0 0 41500 0 0 -41500 0 0 22095.2 0 0 -22095.2 0 0 3928.84 0 0 -3928.84
0 0 42293.1 0 0 -42293.1 0 0 23013.7 0 0 -23013.7 0 0 4463.04 0 0 -4463.04
0 0 42979.1 0 0 -42979.1 0 0 23861.5 0 0 -23861.5 0 0 4995.55 0 0 -4995.55
0 0 43573.9 0 0 -43573.9 0 0 24643.5 0 0 -24643.5 0 0 5517.92 0 0 -5517.92
0 0 44092.6 0 0 -44092.6 0 0 25364.9 0 0 -25364.9 0 0 6021.94 0 0 -6021.94
0 0 44548.5 0 0 -44548.5 0 0 26032 0 0 -26032 0 0 6499.67 0 0 -6499.67
0 0 44954 0 0 -44954 0 0 26650.7 0 0 -26650.7 0 0 6943.41 0 0 -6943.41
0 0 45321.8 0 0 -45321.8 0 0 27225.8 0 0 -27225.8 0 0 7345.93 0 0 -7345.93
0 0 45664.9 0 0 -45664.9 0 0 27760.9 0 0 -27760.9 0 0 7700.89 0 0 -7700.89
0 0 46015 0 0 -46015 0 0 28196.2 0 0 -28196.2 0 0 7719.31 0 0 -7719.31
0 0 46369.4 0 0 -46369.4 0 0 28549.7 0 0 -28549.7 0 0 7724.41 0 0 -7724.41
0 0 46725.4 0 0 -46725.4 0 0 28904.7 0 0 -28904.7 0 0 7728.45 0 0 -7728.45
0 0 47102.4 0 0 -47102.4 0 0 29243.4 0 0 -29243.4 0 0 7731.09 0 0 -7731.09
0 0 47496.6 0 0 -47496.6 0 0 29559 0 0 -29559 0 0 7732.49 0 0 -7732.49
0 0 47912.4 0 0 -47912.4 0 0 29825.8 0 0 -29825.8 0 0 7733.02 0 0 -7733.02
0 0 48344.3 0 0 -48344.3 0 0 30047.9 0 0 -30047.9 0 0 7699.03 0 0 -7699.03
0 0 48780.7 0 0 -48780.7 0 0 30215.6 0 0 -30215.6 0 0 7600.95 0 0 -7600.95
0 0 49203.8 0 0 -49203.8 0 0 30321.6 0 0 -30321.6 0 0 7444.46 0 0 -7444.46
0 0 49593.3 0 0 -49593.3 0 0 30359.3 0 0 -30359.3 0 0 7238.64 0 0 -7238.64
0 0 49921.6 0 0 -49921.6 0 0 30330.2 0 0 -30330.2 0 0 6989.24 0 0 -6989.24
0 0 50133.3 0 0 -50133.3 0 0 30236.8 0 0 -30236.8 0 0 6697.27 0 0 -6697.27
0 0 50209.6 0 0 -50209.6 0 0 30070.1 0 0 -30070.1 0 0 6368.63 0 0 -6368.63
0 0 50134.7 0 0 -50134.7 0 0 29819.8 0 0 -29819.8 0 0 6012.69 0 0 -6012.69
0 0 49906.2 0 0 -49906.2 0 0 29474.4 0 0 -29474.4 0 0 5638.61 0 0 -5638.61
0 0 49528.7 0 0 -49528.7 0 0 29024.2 0 0 -29024.2 0 0 5252.15 0 0 -5252.15
0 0 49008.4 0 0 -49008.4 0 0 28460.3 0 0 -28460.3 0 0 4859.24 0 0 -4859.24
0 0 48352.1 0 0 -48352.1 0 0 27777.3 0 0 -27777.3 0 0 4466.95 0 0 -4466.95
0 0 47564.1 0 0 -47564.1 0 0 26973.4 0 0 -26973.4 0 0 4082.21 0 0 -4082.21
0 0 46645.3 0 0 -46645.3 0 0 26050.7 0 0 -26050.7 0 0 3709.59 0 0 -3709.59
0 0 45593.2 0 0 -45593.2 0 0 25016.5 0 0 -25016.5 0 0 3352.08 0 0 -3352.08
0 0 44400.8 0 0 -44400.8 0 0 23882.7 0 0 -23882.7 0 0 3012.24 0 0 -3012.24
0 0 43058.1 0 0 -43058.1 0 0 22664.6 0 0 -22664.6 0 0 2692.3 0 0 -2692.3
0 0 41552 0 0 -41552 0 0 21380.2 0 0 -21380.2 0 0 2393.18 0 0 -2393.18
0 0 39868.9 0 0 -39868.9 0 0 20049.8 0 0 -20049.8 0 0 2114.43 0 0 -2114.43
0 0 38002.2 0 0 -38002.2 0 0 18693.1 0 0 -18693.1 0 0 1855.16 0 0 -1855.16
0 0 35959.1 0 0 -35959.1 0 0 17327 0 0 -17327 0 0 1614.54 0 0 -1614.54
0 0 33759.4 0 0 -33759.4 0 0 15965.5 0 0 -15965.5 0 0 1391.5 0 0 -1391.5
0 0 31430.4 0 0 -31430.4 0 0 14620.1 0 0 -14620.1 0 0 1184.51 0 0 -1184.51
0 0 29002.9 0 0 -29002.9 0 0 13300.4 0 0 -13300.4 0 0 991.837 0 0 -991.837
0 0 26508.1 0 0 -26508.1 0 0 12013.8 0 0 -12013.8 0 0 811.898 0 0 -811.898
0 0 23976.6 0 0 -23976.6 0 0 10766.2 0 0 -10766.2 0 0 643.211 0 0 -643.211
0 0 21436.9 0 0 -21436.9 0 0 9562.15 0 0 -9562.15 0 0 484.212 0 0 -484.212
0 0 18914.1 0 0 -18914.1 0 0 8405.31 0 0 -8405.31 0 0 333.299 0 0 -333.299
0 0 16428.6 0 0 -16428.6 0 0 7298.62 0 0 -7298.62 0 0 189.026 0 0 -189.026
0 0 13993 0 0 -13993 0 0 6244.76 0 0 -6244.76 0 0 50.1142 0 0 -50.1142
0 0 11610.1 0 0 -11610.1 0 0 5249.85 0 0 -5249.85 0 0 -64.0921 0 0 64.0921
0 0 9276.85 0 0 -9276.85 0 0 4319.81 0 0 -4319.81 0 0 -169.716 0 0 169.716
0 0 6993.88 0 0 -6993.88 0 0 3445.98 0 0 -3445.98 0 0 -273.026 0 0 273.026
0 0 4767.67 0 0 -4767.67 0 0 2626.34 0 0 -2626.34 0 0 -374.283 0 0 374.283
0 0 2617.35 0 0 -2617.35 0 0 1854.95 0 0 -1854.95 0 0 -473.819 0 0 473.819
0 0 593.548 0 0 -593.548 0 0 1125.62 0 0 -1125.62 0 0 -573.007 0 0 573.007
0 0 -922.438 0 0 922.438 0 0 419.861 0 0 -419.861 0 0 -672.413 0 0 672.413
0 0 -1997.32 0 0 1997.32 0 0 -310.772 0 0 310.772 0 0 -767.752 0 0 767.752
0 0 -2976.22 0 0 2976.22 0 0 -984.262 0 0 984.262 0 0 -864.439 0 0 864.439
0 0 -3856.02 0 0 3856.02 0 0 -1621 0 0 1621 0 0 -959.699 0 0 959.699
0 0 -4633.08 0 0 4633.08 0 0 -2198.59 0 0 2198.59 0 0 -1056.59 0 0 1056.59
0 0 -5280.35 0 0 5280.35 0 0 -2715.87 0 0 2715.87 0 0 -1154.1 0 0 1154.1
0 0 -5809.77 0 0 5809.77 0 0 -3168.85 0 0 3168.85 0 0 -1252.25 0 0 1252.25
0 0 -6225.27 0 0 6225.27 0 0 -3555.39 0 0 3555.39 0 0 -1350.49 0 0 1350.49
0 0 -6525.58 0 0 6525.58 0 0 -3869.62 0 0 3869.62 0 0 -1448.48 0 0 1448.48
0 0 -6723.89 0 0 6723.89 0 0 -4105.74 0 0 4105.74 0 0 -1545.68 0 0 1545.68
0 0 -6831.86 0 0 6831.86 0 0 -4263.91 0 0 4263.91 0 0 -1640.76 0 0 1640.76
0 0 -6857.14 0 0 6857.14 0 0 -4345.42 0 0 4345.42 0 0 -1732.23 0 0 1732.23
0 0 -6805.04 0 0 6805.04 0 0 -4348.76 0 0 4348.76 0 0 -1818.61 0 0 1818.61
0 0 -6683.92 0 0 6683.92 0 0 -4277.44 0 0 4277.44 0 0 -1898.11 0 0 1898.11
0 0 -6498.67 0 0 6498.67 0 0 -4139.58 0 0 4139.58 0 0 -1968.52 0 0 1968.52
0 0 -6256.68 0 0 6256.68 0 0 -3943.2 0 0 3943.2 0 0 -2027.55 0 0 2027.55
0 0 -5966.06 0 0 5966.06 0 0 -3696.39 0 0 3696.39 0 0 -2073.03 0 0 2073.03
0 0 -5634.14 0 0 5634.14 0 0 -3408.59 0 0 3408.59 0 0 -2102.85 0 0 2102.85
0 0 -5269.65 0 0 5269.65 0 0 -3089.3 0 0 3089.3 0 0 -2115.03 0 0 2115.03
0 0 -4860.6 0 0 4860.6 0 0 -2749.77 0 0 2749.77 0 0 -2104.88 0 0 2104.88
0 0 -4410.12 0 0 4410.12 0 0 -2396.28 0 0 2396.28 0 0 -2068.13 0 0 2068.13
0 0 -3947.79 0 0 3947.79 0 0 -2031.23 0 0 2031.23 0 0 -2004.17 0 0 2004.17
0 0 -3505.81 0 0 3505.81 0 0 -1656.65 0 0 1656.65 0 0 -1912.64 0 0 1912.64
0 0 -3109.51 0 0 3109.51 0 0 -1274.27 0 0 1274.27 0 0 -1793.76 0 0 1793.76
0 0 -2773.17 0 0 2773.17 0 0 -886.094 0 0 886.094 0 0 -1648.47 0 0 1648.47
0 0 -2499.88 0 0 2499.88 0 0 -495.607 0 0 495.607 0 0 -1478.36 0 0 1478.36
0 0 -2281.96 0 0 2281.96 0 0 -107.687 0 0 107.687 0 0 -1285.3 0 0 1285.3
0 0 -2103.97 0 0 2103.97 0 0 270.328 0 0 -270.328 0 0 -1071.75 0 0 1071.75
0 0 -1948.65 0 0 1948.65 0 0 633.783 0 0 -633.783 0 0 -840.683 0 0 840.683
0 0 -1800.95 0 0 1800.95 0 0 982.652 0 0 -982.652 0 0 -595.411 0 0 595.411
0 0 -1654.08 0 0 1654.08 0 0 1317.52 0 0 -1317.52 0 0 -340.013 0 0 340.013
0 0 -1504.2 0 0 1504.2 0 0 1639.07 0 0 -1639.07 0 0 -78.7038 0 0 78.7038
0 0 -1346.57 0 0 1346.57 0 0 1943.28 0 0 -1943.28 0 0 164.471 0 0 -164.471
0 0 -1181.89 0 0 1181.89 0 0 2238.82 0 0 -2238.82 0 0 402.041 0 0 -402.041
0 0 -1014.74 0 0 1014.74 0 0 2531.15 0 0 -2531.15 0 0 633.31 0 0 -633.31
0 0 -853.776 0 0 853.776 0 0 2826.51 0 0 -2826.51 0 0 852.928 0 0 -852.928
0 0 -709.388 0 0 709.388 0 0 3127.58 0 0 -3127.58 0 0 1057.9 0 0 -1057.9
0 0 -594.564 0 0 594.564 0 0 3436.47 0 0 -3436.47 0 0 1245.47 0 0 -1245.47
0 0 -523.201 0 0 523.201 0 0 3754.79 0 0 -3754.79 0 0 1412.85 0 0 -1412.85
0 0 -510.697 0 0 510.697 0 0 4081.96 0 0 -4081.96 0 0 1557.57 0 0 -1557.57
0 0 -572.023 0 0 572.023 0 0 4413.74 0 0 -4413.74 0 0 1678.22 0 0 -1678.22
0 0 -721.292 0 0 721.292 0 0 4742.86 0 0 -4742.86 0 0 1774.49 0 0 -1774.49
0 0 -971.773 0 0 971.773 0 0 5060.16 0 0 -5060.16 0 0 1846.45 0 0 -1846.45
0 0 -1338.54 0 0 1338.54 0 0 5354.13 0 0 -5354.13 0 0 1894.59 0 0 -1894.59
0 0 -1657.93 0 0 1657.93 0 0 5585.68 0 0 -5585.68 0 0 1920.59 0 0 -1920.59
0 0 -1845.85 0 0 1845.85 0 0 5727.12 0 0 -5727.12 0 0 1927.32 0 0 -1927.32
0 0 -2125.21 0 0 2125.21 0 0 5812.27 0 0 -5812.27 0 0 1911.84 0 0 -1911.84
0 0 -2479.32 0 0 2479.32 0 0 5813.89 0 0 -5813.89 0 0 1876.77 0 0 -1876.77
0 0 -2904.61 0 0 2904.61 0 0 5728.8 0 0 -5728.8 0 0 1822.9 0 0 -1822.9
0 0 -3392.69 0 0 3392.69 0 0 5552.39 0 0 -5552.39 0 0 1751.41 0 0 -1751.41
0 0 -3938.52 0 0 3938.52 0 0 5278.41 0 0 -5278.41 0 0 1663.54 0 0 -1663.54
0 0 -4531.97 0 0 4531.97 0 0 4901.88 0 0 -4901.88 0 0 1560.45 0 0 -1560.45
0 0 -5161.17 0 0 5161.17 0 0 4424.35 0 0 -4424.35 0 0 1442.77 0 0 -1442.77
0 0 -5813.01 0 0 5813.01 0 0 3850.41 0 0 -3850.41 0 0 1310.68 0 0 -1310.68
0 0 -6472.01 0 0 6472.01 0 0 3185.49 0 0 -3185.49 0 0 1164.2 0 0 -1164.2
0 0 -7086.02 0 0 7086.02 0 0 2443.94 0 0 -2443.94 0 0 1002.88 0 0 -1002.88
0 0 -7604.4 0 0 7604.4 0 0 1636.89 0 0 -1636.89 0 0 826.036 0 0 -826.036
0 0 -8009.27 0 0 8009.27 0 0 759.475 0 0 -759.475 0 0 633.695 0 0 -633.695
0 0 -8305.95 0 0 8305.95 0 0 -162.697 0 0 162.697 0 0 425.658 0 0 -425.658
0 0 -8507.31 0 0 8507.31 0 0 -1114.34 0 0 1114.34 0 0 199.589 0 0 -199.589
0 0 -8607.97 0 0 8607.97 0 0 -2059.66 0 0 2059.66 0 0 -31.4538 0 0 31.4538
0 0 -8614.94 0 0 8614.94 0 0 -2954.59 0 0 2954.59 0 0 -250.654 0 0 250.654
0 0 -8531.14 0 0 8531.14 0 0 -3781.26 0 0 3781.26 0 0 -482.918 0 0 482.918
0 0 -8364.72 0 0 8364.72 0 0 -4519.95 0 0 4519.95 0 0 -730.354 0 0 730.354
0 0 -8123.57 0 0 8123.57 0 0 -5153.95 0 0 5153.95 0 0 -989.263 0 0 989.263
0 0 -7817.18 0 0 7817.18 0 0 -5663.09 0 0 5663.09 0 0 -1259.67 0 0 1259.67
0 0 -7449.81 0 0 7449.81 0 0 -6038.7 0 0 6038.7 0 0 -1539.15 0 0 1539.15
0 0 -7027.2 0 0 7027.2 0 0 -6280.13 0 0 6280.13 0 0 -1822.8 0 0 1822.8
0 0 -6562.09 0 0 6562.09 0 0 -6389.23 0 0 6389.23 0 0 -2104.74 0 0 2104.74
0 0 -6071.98 0 0 6071.98 0 0 -6370.56 0 0 6370.56 0 0 -2379.83 0 0 2379.83
0 0 -5574.99 0 0 5574.99 0 0 -6234.75 0 0 6234.75 0 0 -2642.68 0 0 2642.68
0 0 -5085.38 0 0 5085.38 0 0 -5998.17 0 0 5998.17 0 0 -2886.68 0 0 2886.68
0 0 -4612.86 0 0 4612.86 0 0 -5680.33 0 0 5680.33 0 0 -3104.65 0 0 3104.65
0 0 -4166.09 0 0 4166.09 0 0 -5302.31 0 0 5302.31 0 0 -3290.05 0 0 3290.05
0 0 -3754.76 0 0 3754.76 0 0 -4886.02 0 0 4886.02 0 0 -3437.15 0 0 3437.15
0 0 -3389.66 0 0 3389.66 0 0 -4452.87 0 0 4452.87 0 0 -3540.71 0 0 3540.71
0 0 -3081.95 0 0 3081.95 0 0 -4022.33 0 0 4022.33 0 0 -3596.06 0 0 3596.06
0 0 -2840.94 0 0 2840.94 0 0 -3611.19 0 0 3611.19 0 0 -3597.53 0 0 3597.53
0 0 -2672.32 0 0 2672.32 0 0 -3230.19 0 0 3230.19 0 0 -3534.23 0 0 3534.23
0 0 -2575.33 0 0 2575.33 0 0 -2888.88 0 0 2888.88 0 0 -3404.77 0 0 3404.77
0 0 -2543.94 0 0 2543.94 0 0 -2593.88 0 0 2593.88 0 0 -3210.41 0 0 3210.41
0 0 -2568.9 0 0 2568.9 0 0 -2347.82 0 0 2347.82 0 0 -2953.75 0 0 2953.75
0 0 -2640.91 0 0 2640.91 0 0 -2147.76 0 0 2147.76 0 0 -2639.76 0 0 2639.76
0 0 -2752.15 0 0 2752.15 0 0 -1985.63 0 0 1985.63 0 0 -2275.6 0 0 2275.6
0 0 -2894.88 0 0 2894.88 0 0 -1849.76 0 0 1849.76 0 0 -1869.66 0 0 1869.66
0 0 -3058.43 0 0 3058.43 0 0 -1726.16 0 0 1726.16 0 0 -1431.17 0 0 1431.17
0 0 -3226.71 0 0 3226.71 0 0 -1599.44 0 0 1599.44 0 0 -970.22 0 0 970.22
0 0 -3380.82 0 0 3380.82 0 0 -1453.45 0 0 1453.45 0 0 -497.673 0 0 497.673
0 0 -3503.26 0 0 3503.26 0 0 -1272.14 0 0 1272.14 0 0 -29.0761 0 0 29.0761
0 0 -3574.72 0 0 3574.72 0 0 -1062.33 0 0 1062.33 0 0 360.662 0 0 -360.662
0 0 -3589.03 0 0 3589.03 0 0 -788.994 0 0 788.994 0 0 739.164 0 0 -739.164
0 0 -3529.06 0 0 3529.06 0 0 -441.928 0 0 441.928 0 0 1095.37 0 0 -1095.37
0 0 -3376.85 0 0 3376.85 0 0 -15.4743 0 0 15.4743 0 0 1419.59 0 0 -1419.59
0 0 -3110.56 0 0 3110.56 0 0 488.675 0 0 -488.675 0 0 1709.09 0 0 -1709.09
0 0 -2722.51 0 0 2722.51 0 0 1069.41 0 0 -1069.41 0 0 1961.63 0 0 -1961.63
0 0 -2221.81 0 0 2221.81 0 0 1724.53 0 0 -1724.53 0 0 2173.59 0 0 -2173.59
0 0 -1611.67 0 0 1611.67 0 0 2447.23 0 0 -2447.23 0 0 2342.53 0 0 -2342.53
0 0 -899.304 0 0 899.304 0 0 3224.51 0 0 -3224.51 0 0 2468.38 0 0 -2468.38
0 0 -108.03 0 0 108.03 0 0 4040.59 0 0 -4040.59 0 0 2553.69 0 0 -2553.69
0 0 683.876 0 0 -683.876 0 0 4876.89 0 0 -4876.89 0 0 2601.16 0 0 -2601.16
0 0 1499.35 0 0 -1499.35 0 0 5716.88 0 0 -5716.88 0 0 2612.81 0 0 -2612.81
0 0 2370.98 0 0 -2370.98 0 0 6530.96 0 0 -6530.96 0 0 2589.1 0 0 -2589.1
0 0 3217.09 0 0 -3217.09 0 0 7305.34 0 0 -7305.34 0 0 2534.79 0 0 -2534.79
0 0 4022.02 0 0 -4022.02 0 0 8018.76 0 0 -8018.76 0 0 2455.8 0 0 -2455.8
0 0 4759.08 0 0 -4759.08 0 0 8649.64 0 0 -8649.64 0 0 2358.23 0 0 -2358.23
0 0 5405.48 0 0 -5405.48 0 0 9179.61 0 0 -9179.61 0 0 2247.53 0 0 -2247.53
0 0 5941.69 0 0 -5941.69 0 0 9591.65 0 0 -9591.65 0 0 2129.61 0 0 -2129.61
0 0 6349.5 0 0 -6349.5 0 0 9871.24 0 0 -9871.24 0 0 2009.97 0 0 -2009.97
0 0 6612.59 0 0 -6612.59 0 0 10008 0 0 -10008 0 0 1892.97 0 0 -1892.97
0 0 6720.32 0 0 -6720.32 0 0 9995.53 0 0 -9995.53 0 0 1781.79 0 0 -1781.79
0 0 6665.14 0 0 -6665.14 0 0 9830.5 0 0 -9830.5 0 0 1678.86 0 0 -1678.86
0 0 6455.42 0 0 -6455.42 0 0 9511.5 0 0 -9511.5 0 0 1585.81 0 0 -1585.81
0 0 6119.92 0 0 -6119.92 0 0 9041.06 0 0 -9041.06 0 0 1502.99 0 0 -1502.99
0 0 5679.82 0 0 -5679.82 0 0 8428.75 0 0 -8428.75 0 0 1429.27 0 0 -1429.27
0 0 5159.06 0 0 -5159.06 0 0 7688.33 0 0 -7688.33 0 0 1362.53 0 0 -1362.53
0 0 4578.86 0 0 -4578.86 0 0 6838.97 0 0 -6838.97 0 0 1299.7 0 0 -1299.7
0 0 3872.27 0 0 -3872.27 0 0 5917.59 0 0 -5917.59 0 0 1236.31 0 0 -1236.31
0 0 3125.74 0 0 -3125.74 0 0 4935.84 0 0 -4935.84 0 0 1169.02 0 0 -1169.02
0 0 2365.51 0 0 -2365.51 0 0 3923.36 0 0 -3923.36 0 0 1092.87 0 0 -1092.87
0 0 1609.02 0 0 -1609.02 0 0 2906.2 0 0 -2906.2 0 0 1003.58 0 0 -1003.58
0 0 873.315 0 0 -873.315 0 0 1910.79 0 0 -1910.79 0 0 897.096 0 0 -897.096
0 0 178.421 0 0 -178.421 0 0 962.323 0 0 -962.323 0 0 769.624 0 0 -769.624
0 0 -416.725 0 0 416.725 0 0 94.0098 0 0 -94.0098 0 0 618.081 0 0 -618.081
0 0 -959.734 0 0 959.734 0 0 -690.589 0 0 690.589 0 0 441.689 0 0 -441.689
0 0 -1443.84 0 0 1443.84 0 0 -1376.85 0 0 1376.85 0 0 240.522 0 0 -240.522
0 0 -1898.66 0 0 1898.66 0 0 -1943.85 0 0 1943.85 0 0 14.3277 0 0 -14.3277
0 0 -2340.84 0 0 2340.84 0 0 -2376.26 0 0 2376.26 0 0 -196.686 0 0 196.686
0 0 -2775.08 0 0 2775.08 0 0 -2678.87 0 0 2678.87 0 0 -424.483 0 0 424.483
0 0 -3203.26 0 0 3203.26 0 0 -2867.78 0 0 2867.78 0 0 -663.821 0 0 663.821
0 0 -3320.4 0 0 3320.4 0 0 -3016.41 0 0 3016.41 0 0 -905.308 0 0 905.308
0 0 -3440.48 0 0 3440.48 0 0 -3069.23 0 0 3069.23 0 0 -1147.92 0 0 1147.92
0 0 -3574.8 0 0 3574.8 0 0 -3046.34 0 0 3046.34 0 0 -1386.97 0 0 1386.97
0 0 -3740.32 0 0 3740.32 0 0 -2967.92 0 0 2967.92 0 0 -1615.47 0 0 1615.47
0 0 -3961.27 0 0 3961.27 0 0 -2851.31 0 0 2851.31 0 0 -1826.59 0 0 1826.59
0 0 -4253.21 0 0 4253.21 0 0 -2715.24 0 0 2715.24 0 0 -2014.98 0 0 2014.98
0 0 -4621.43 0 0 4621.43 0 0 -2587.1 0 0 2587.1 0 0 -2175.22 0 0 2175.22
0 0 -5070.31 0 0 5070.31 0 0 -2490 0 0 2490 0 0 -2302.54 0 0 2302.54
0 0 -5600.54 0 0 5600.54 0 0 -2443.61 0 0 2443.61 0 0 -2392.42 0 0 2392.42
0 0 -6206.08 0 0 6206.08 0 0 -2466.5 0 0 2466.5 0 0 -2441.83 0 0 2441.83
0 0 -6879.11 0 0 6879.11 0 0 -2573.69 0 0 2573.69 0 0 -2448.37 0 0 2448.37
0 0 -7612.69 0 0 7612.69 0 0 -2771.25 0 0 2771.25 0 0 -2406.71 0 0 2406.71
0 0 -8400.85 0 0 8400.85 0 0 -3059.45 0 0 3059.45 0 0 -2317.43 0 0 2317.43
0 0 -9236.91 0 0 9236.91 0 0 -3434.24 0 0 3434.24 0 0 -2184.11 0 0 2184.11
0 0 -10111.1 0 0 10111.1 0 0 -3886.8 0 0 3886.8 0 0 -2011.68 0 0 2011.68
0 0 -11009.6 0 0 11009.6 0 0 -4402.77 0 0 4402.77 0 0 -1806.94 0 0 1806.94
0 0 -11895.1 0 0 11895.1 0 0 -4967.87 0 0 4967.87 0 0 -1577.73 0 0 1577.73
0 0 -12724.6 0 0 12724.6 0 0 -5564.72 0 0 5564.72 0 0 -1332.68 0 0 1332.68
0 0 -13500.8 0 0 13500.8 0 0 -6164.06 0 0 6164.06 0 0 -1081.53 0 0 1081.53
0 0 -14226.9 0 0 14226.9 0 0 -6737.2 0 0 6737.2 0 0 -833.969 0 0 833.969
0 0 -14904.8 0 0 14904.8 0 0 -7255.33 0 0 7255.33 0 0 -599.636 0 0 599.636
0 0 -15538.1 0 0 15538.1 0 0 -7691.95 0 0 7691.95 0 0 -387.404 0 0 387.404
0 0 -16131.3 0 0 16131.3 0 0 -8025.33 0 0 8025.33 0 0 -204.894 0 0 204.894
0 0 -16686.7 0 0 16686.7 0 0 -8240.64 0 0 8240.64 0 0 -61.3508 0 0 61.3508
0 0 -17203.6 0 0 17203.6 0 0 -8332.3 0 0 8332.3 0 0 35.929 0 0 -35.929
0 0 -17681 0 0 17681 0 0 -8296.18 0 0 8296.18 0 0 91.7252 0 0 -91.7252
0 0 -17942.3 0 0 17942.3 0 0 -8175.18 0 0 8175.18 0 0 112.852 0 0 -112.852
0 0 -18022.3 0 0 18022.3 0 0 -7964.7 0 0 7964.7 0 0 95.5482 0 0 -95.5482
0 0 -18022.1 0 0 18022.1 0 0 -7654.39 0 0 7654.39 0 0 37.8885 0 0 -37.8885
0 0 -17935 0 0 17935 0 0 -7276.2 0 0 7276.2 0 0 -47.7979 0 0 47.7979
0 0 -17785.5 0 0 17785.5 0 0 -6840.39 0 0 6840.39 0 0 -157.024 0 0 157.024
0 0 -17597.2 0 0 17597.2 0 0 -6367.32 0 0 6367.32 0 0 -287.114 0 0 287.114
0 0 -17388.3 0 0 17388.3 0 0 -5886.51 0 0 5886.51 0 0 -433.047 0 0 433.047
0 0 -17181.9 0 0 17181.9 0 0 -5425.64 0 0 5425.64 0 0 -587.55 0 0 587.55
0 0 -17002.8 0 0 17002.8 0 0 -5008.32 0 0 5008.32 0 0 -744.507 0 0 744.507
0 0 -16874.2 0 0 16874.2 0 0 -4657.36 0 0 4657.36 0 0 -898.083 0 0 898.083
0 0 -16819 0 0 16819 0 0 -4395.12 0 0 4395.12 0 0 -1042.47 0 0 1042.47
0 0 -16858.5 0 0 16858.5 0 0 -4239.97 0 0 4239.97 0 0 -1172.38 0 0 1172.38
0 0 -17009.9 0 0 17009.9 0 0 -4204.96 0 0 4204.96 0 0 -1283.78 0 0 1283.78
0 0 -17286.3 0 0 17286.3 0 0 -4298.86 0 0 4298.86 0 0 -1373.98 0 0 1373.98
0 0 -17695.3 0 0 17695.3 0 0 -4526.5 0 0 4526.5 0 0 -1441.33 0 0 1441.33
0 0 -18208.7 0 0 18208.7 0 0 -4884.2 0 0 4884.2 0 0 -1485.45 0 0 1485.45
0 0 -18829.8 0 0 18829.8 0 0 -5357.56 0 0 5357.56 0 0 -1507.71 0 0 1507.71
0 0 -19555.8 0 0 19555.8 0 0 -5941.5 0 0 5941.5 0 0 -1509.48 0 0 1509.48
0 0 -20371 0 0 20371 0 0 -6631.86 0 0 6631.86 0 0 -1491.59 0 0 1491.59
0 0 -21271.5 0 0 21271.5 0 0 -7405.29 0 0 7405.29 0 0 -1458.68 0 0 1458.68
0 0 -22199.6 0 0 22199.6 0 0 -8251.79 0 0 8251.79 0 0 -1415.59 0 0 1415.59
0 0 -23106 0 0 23106 0 0 -9153.97 0 0 9153.97 0 0 -1368.12 0 0 1368.12
0 0 -23959.6 0 0 23959.6 0 0 -10088.3 0 0 10088.3 0 0 -1322.56 0 0 1322.56
0 0 -24728.4 0 0 24728.4 0 0 -11029 0 0 11029 0 0 -1285.63 0 0 1285.63
0 0 -25389.5 0 0 25389.5 0 0 -11947.9 0 0 11947.9 0 0 -1263.96 0 0 1263.96
0 0 -25931.4 0 0 25931.4 0 0 -12815.4 0 0 12815.4 0 0 -1263.71 0 0 1263.71
0 0 -26342.4 0 0 26342.4 0 0 -13603.8 0 0 13603.8 0 0 -1290.2 0 0 1290.2
0 0 -26606.2 0 0 26606.2 0 0 -14289.4 0 0 14289.4 0 0 -1347.62 0 0 1347.62
0 0 -26702.6 0 0 26702.6 0 0 -14853.1 0 0 14853.1 0 0 -1438.78 0 0 1438.78
0 0 -26598.2 0 0 26598.2 0 0 -15277.5 0 0 15277.5 0 0 -1558.59 0 0 1558.59
0 0 -26275.3 0 0 26275.3 0 0 -15543.8 0 0 15543.8 0 0 -1701.21 0 0 1701.21
0 0 -25720.9 0 0 25720.9 0 0 -15652 0 0 15652 0 0 -1873.82 0 0 1873.82
0 0 -24924.7 0 0 24924.7 0 0 -15602.5 0 0 15602.5 0 0 -2072.5 0 0 2072.5
0 0 -23882.1 0 0 23882.1 0 0 -15400.2 0 0 15400.2 0 0 -2292.34 0 0 2292.34
0 0 -22596.4 0 0 22596.4 0 0 -15052.4 0 0 15052.4 0 0 -2528.03 0 0 2528.03
0 0 -21082 0 0 21082 0 0 -14569.9 0 0 14569.9 0 0 -2773.11 0 0 2773.11
0 0 -19365.2 0 0 19365.2 0 0 -13965.1 0 0 13965.1 0 0 -3019.69 0 0 3019.69
0 0 -17480.7 0 0 17480.7 0 0 -13251.6 0 0 13251.6 0 0 -3259.52 0 0 3259.52
0 0 -15465.4 0 0 15465.4 0 0 -12444.3 0 0 12444.3 0 0 -3484.31 0 0 3484.31
0 0 -13357.5 0 0 13357.5 0 0 -11559.5 0 0 11559.5 0 0 -3685.83 0 0 3685.83
0 0 -11197.4 0 0 11197.4 0 0 -10613.5 0 0 10613.5 0 0 -3855.79 0 0 3855.79
0 0 -9028.53 0 0 9028.53 0 0 -9622.42 0 0 9622.42 0 0 -3986.3 0 0 3986.3
0 0 -6894.41 0 0 6894.41 0 0 -8601.25 0 0 8601.25 0 0 -4070.32 0 0 4070.32
0 0 -4832.13 0 0 4832.13 0 0 -7564.93 0 0 7564.93 0 0 -4101.84 0 0 4101.84
0 0 -2868.61 0 0 2868.61 0 0 -6527.19 0 0 6527.19 0 0 -4071.48 0 0 4071.48
0 0 -1020.08 0 0 1020.08 0 0 -5499.75 0 0 5499.75 0 0 -3972.24 0 0 3972.24
0 0 616.934 0 0 -616.934 0 0 -4509.04 0 0 4509.04 0 0 -3800.87 0 0 3800.87
0 0 2068.01 0 0 -2068.01 0 0 -3567.68 0 0 3567.68 0 0 -3556.1 0 0 3556.1
0 0 3106.89 0 0 -3106.89 0 0 -2597.56 0 0 2597.56 0 0 -3244.88 0 0 3244.88
0 0 3983.44 0 0 -3983.44 0 0 -1676.3 0 0 1676.3 0 0 -2864.34 0 0 2864.34
0 0 4743.28 0 0 -4743.28 0 0 -793.905 0 0 793.905 0 0 -2421.92 0 0 2421.92
0 0 5379.39 0 0 -5379.39 0 0 42.3654 0 0 -42.3654 0 0 -1922.86 0 0 1922.86
0 0 5890.6 0 0 -5890.6 0 0 828.692 0 0 -828.692 0 0 -1375.66 0 0 1375.66
0 0 6302.64 0 0 -6302.64 0 0 1564.83 0 0 -1564.83 0 0 -788.284 0 0 788.284
0 0 6635.55 0 0 -6635.55 0 0 2264.63 0 0 -2264.63 0 0 -171.807 0 0 171.807
0 0 6920.28 0 0 -6920.28 0 0 2906.24 0 0 -2906.24 0 0 352.326 0 0 -352.326
0 0 7187.16 0 0 -7187.16 0 0 3507.61 0 0 -3507.61 0 0 870.144 0 0 -870.144
0 0 7469.18 0 0 -7469.18 0 0 4087.96 0 0 -4087.96 0 0 1389.62 0 0 -1389.62
0 0 7798.54 0 0 -7798.54 0 0 4666.69 0 0 -4666.69 0 0 1893.88 0 0 -1893.88
0 0 8205.99 0 0 -8205.99 0 0 5247.13 0 0 -5247.13 0 0 2377.02 0 0 -2377.02
0 0 8714.22 0 0 -8714.22 0 0 5834.69 0 0 -5834.69 0 0 2834.19 0 0 -2834.19
0 0 9336.91 0 0 -9336.91 0 0 6443.71 0 0 -6443.71 0 0 3257.87 0 0 -3257.87
0 0 10081.3 0 0 -10081.3 0 0 7089.22 0 0 -7089.22 0 0 3638.42 0 0 -3638.42
0 0 10949.8 0 0 -10949.8 0 0 7778.44 0 0 -7778.44 0 0 3969.46 0 0 -3969.46
0 0 11941.4 0 0 -11941.4 0 0 8515.29 0 0 -8515.29 0 0 4248.34 0 0 -4248.34
0 0 13051 0 0 -13051 0 0 9303.58 0 0 -9303.58 0 0 4472.79 0 0 -4472.79
0 0 14268.9 0 0 -14268.9 0 0 10143.9 0 0 -10143.9 0 0 4640.17 0 0 -4640.17
0 0 15582.7 0 0 -15582.7 0 0 11031 0 0 -11031 0 0 4749.55 0 0 -4749.55
0 0 16980 0 0 -16980 0 0 11954.7 0 0 -11954.7 0 0 4802.8 0 0 -4802.8
0 0 18450.6 0 0 -18450.6 0 0 12900.9 0 0 -12900.9 0 0 4800.98 0 0 -4800.98
0 0 19985.5 0 0 -19985.5 0 0 13849.1 0 0 -13849.1 0 0 4740.59 0 0 -4740.59
0 0 21573 0 0 -21573 0 0 14779.5 0 0 -14779.5 0 0 4627.29 0 0 -4627.29
0 0 23197.8 0 0 -23197.8 0 0 15672.1 0 0 -15672.1 0 0 4468.57 0 0 -4468.57
0 0 24841 0 0 -24841 0 0 16507.9 0 0 -16507.9 0 0 4272.91 0 0 -4272.91
0 0 26483.3 0 0 -26483.3 0 0 17268 0 0 -17268 0 0 4049.25 0 0 -4049.25
0 0 28106.3 0 0 -28106.3 0 0 17935.3 0 0 -17935.3 0 0 3806.61 0 0 -3806.61
0 0 29690.2 0 0 -29690.2 0 0 18496.2 0 0 -18496.2 0 0 3553.62 0 0 -3553.62
0 0 31211.8 0 0 -31211.8 0 0 18941.9 0 0 -18941.9 0 0 3298.5 0 0 -3298.5
0 0 32645.4 0 0 -32645.4 0 0 19267.6 0 0 -19267.6 0 0 3048.74 0 0 -3048.74
0 0 33966.5 0 0 -33966.5 0 0 19472.6 0 0 -19472.6 0 0 2810.9 0 0 -2810.9
0 0 35154.4 0 0 -35154.4 0 0 19560.4 0 0 -19560.4 0 0 2590.45 0 0 -2590.45
0 0 36196 0 0 -36196 0 0 19537.2 0 0 -19537.2 0 0 2391.79 0 0 -2391.79
0 0 37088.8 0 0 -37088.8 0 0 19411 0 0 -19411 0 0 2218.24 0 0 -2218.24
0 0 37842.7 0 0 -37842.7 0 0 19191.6 0 0 -19191.6 0 0 2072.03 0 0 -2072.03
0 0 38475.7 0 0 -38475.7 0 0 18891.1 0 0 -18891.1 0 0 1954.22 0 0 -1954.22
0 0 39010.4 0 0 -39010.4 0 0 18524.1 0 0 -18524.1 0 0 1864.73 0 0 -1864.73
0 0 39471 0 0 -39471 0 0 18108.1 0 0 -18108.1 0 0 1802.44 0 0 -1802.44
0 0 39879.3 0 0 -39879.3 0 0 17663.2 0 0 -17663.2 0 0 1765.28 0 0 -1765.28
0 0 40253.9 0 0 -40253.9 0 0 17212.3 0 0 -17212.3 0 0 1750.4 0 0 -1750.4
0 0 40610 0 0 -40610 0 0 16779.6 0 0 -16779.6 0 0 1754.35 0 0 -1754.35
0 0 40961.3 0 0 -40961.3 0 0 16389.3 0 0 -16389.3 0 0 1773.42 0 0 -1773.42
0 0 41320.3 0 0 -41320.3 0 0 16064.6 0 0 -16064.6 0 0 1803.87 0 0 -1803.87
0 0 41697.6 0 0 -41697.6 0 0 15826.5 0 0 -15826.5 0 0 1842.14 0 0 -1842.14
0 0 42100.8 0 0 -42100.8 0 0 15693.4 0 0 -15693.4 0 0 1885.1 0 0 -1885.1
0 0 42533.7 0 0 -42533.7 0 0 15679.7 0 0 -15679.7 0 0 1930.23 0 0 -1930.23
0 0 42995.9 0 0 -42995.9 0 0 15795.7 0 0 -15795.7 0 0 1975.83 0 0 -1975.83
0 0 43484 0 0 -43484 0 0 16046.7 0 0 -16046.7 0 0 2021.04 0 0 -2021.04
0 0 43991.5 0 0 -43991.5 0 0 16432.5 0 0 -16432.5 0 0 2065.99 0 0 -2065.99
0 0 44499.8 0 0 -44499.8 0 0 16949.2 0 0 -16949.2 0 0 2111.71 0 0 -2111.71
0 0 44911.4 0 0 -44911.4 0 0 17601.5 0 0 -17601.5 0 0 2159.38 0 0 -2159.38
0 0 45208.8 0 0 -45208.8 0 0 18369 0 0 -18369 0 0 2212.26 0 0 -2212.26
0 0 45389.1 0 0 -45389.1 0 0 19225.5 0 0 -19225.5 0 0 2274.31 0 0 -2274.31
0 0 45454.5 0 0 -45454.5 0 0 20138.7 0 0 -20138.7 0 0 2349.96 0 0 -2349.96
0 0 45399.7 0 0 -45399.7 0 0 21072.2 0 0 -21072.2 0 0 2443.89 0 0 -2443.89
0 0 45218.2 0 0 -45218.2 0 0 21987.1 0 0 -21987.1 0 0 2560.67 0 0 -2560.67
0 0 44899.6 0 0 -44899.6 0 0 22848.9 0 0 -22848.9 0 0 2704 0 0 -2704
0 0 44428.4 0 0 -44428.4 0 0 23625.7 0 0 -23625.7 0 0 2876.58 0 0 -2876.58
0 0 43786.1 0 0 -43786.1 0 0 24288.8 0 0 -24288.8 0 0 3079.88 0 0 -3079.88
0 0 42946.9 0 0 -42946.9 0 0 24815.3 0 0 -24815.3 0 0 3313.94 0 0 -3313.94
0 0 41881.6 0 0 -41881.6 0 0 25188 0 0 -25188 0 0 3577.14 0 0 -3577.14
0 0 40562.8 0 0 -40562.8 0 0 25394.6 0 0 -25394.6 0 0 3866.3 0 0 -3866.3
0 0 38967 0 0 -38967 0 0 25427.5 0 0 -25427.5 0 0 4176.68 0 0 -4176.68
0 0 37075.9 0 0 -37075.9 0 0 25282.8 0 0 -25282.8 0 0 4502.12 0 0 -4502.12
0 0 34881.1 0 0 -34881.1 0 0 24960 0 0 -24960 0 0 4827.11 0 0 -4827.11
0 0 32392.4 0 0 -32392.4 0 0 24442.3 0 0 -24442.3 0 0 5097.38 0 0 -5097.38
0 0 29624.3 0 0 -29624.3 0 0 23747.8 0 0 -23747.8 0 0 5363.04 0 0 -5363.04
0 0 26610.6 0 0 -26610.6 0 0 22885.3 0 0 -22885.3 0 0 5613.59 0 0 -5613.59
0 0 23391.3 0 0 -23391.3 0 0 21863.5 0 0 -21863.5 0 0 5839.01 0 0 -5839.01
0 0 20008.5 0 0 -20008.5 0 0 20686.2 0 0 -20686.2 0 0 6033.28 0 0 -6033.28
0 0 16501.1 0 0 -16501.1 0 0 19364.8 0 0 -19364.8 0 0 6189.72 0 0 -6189.72
0 0 12900.3 0 0 -12900.3 0 0 17915.5 0 0 -17915.5 0 0 6299.5 0 0 -6299.5
0 0 9231.57 0 0 -9231.57 0 0 16355.5 0 0 -16355.5 0 0 6353.71 0 0 -6353.71
0 0 5519.57 0 0 -5519.57 0 0 14699.7 0 0 -14699.7 0 0 6341.7 0 0 -6341.7
0 0 2680.21 0 0 -2680.21 0 0 12821.2 0 0 -12821.2 0 0 6255.34 0 0 -6255.34
0 0 -5.70454 0 0 5.70454 0 0 10910.1 0 0 -10910.1 0 0 6075.73 0 0 -6075.73
0 0 -2387.75 0 0 2387.75 0 0 9021.49 0 0 -9021.49 0 0 5797.65 0 0 -5797.65
0 0 -4758.23 0 0 4758.23 0 0 7122.16 0 0 -7122.16 0 0 5422.05 0 0 -5422.05
0 0 -6951.49 0 0 6951.49 0 0 5232.64 0 0 -5232.64 0 0 4947.12 0 0 -4947.12
0 0 -9033.47 0 0 9033.47 0 0 3376.35 0 0 -3376.35 0 0 4375.64 0 0 -4375.64
0 0 -10994 0 0 10994 0 0 1560.17 0 0 -1560.17 0 0 3712.02 0 0 -3712.02
0 0 -12792.9 0 0 12792.9 0 0 -221.841 0 0 221.841 0 0 2962.88 0 0 -2962.88
0 0 -14450.6 0 0 14450.6 0 0 -1965.88 0 0 1965.88 0 0 2135.69 0 0 -2135.69
0 0 -15974.6 0 0 15974.6 0 0 -3658.56 0 0 3658.56 0 0 1243.88 0 0 -1243.88
0 0 -17364.5 0 0 17364.5 0 0 -5306.05 0 0 5306.05 0 0 300.556 0 0 -300.556
0 0 -18657 0 0 18657 0 0 -6870.13 0 0 6870.13 0 0 -534.957 0 0 534.957
0 0 -19879.3 0 0 19879.3 0 0 -8350.66 0 0 8350.66 0 0 -1356 0 0 1356
0 0 -21051 0 0 21051 0 0 -9800.72 0 0 9800.72 0 0 -2188.42 0 0 2188.42
0 0 -22216.2 0 0 22216.2 0 0 -11226.7 0 0 11226.7 0 0 -3009.63 0 0 3009.63
0 0 -23409.6 0 0 23409.6 0 0 -12631.6 0 0 12631.6 0 0 -3811.44 0 0 3811.44
0 0 -24666 0 0 24666 0 0 -14015.4 0 0 14015.4 0 0 -4588.48 0 0 4588.48
0 0 -26017.2 0 0 26017.2 0 0 -15391.8 0 0 15391.8 0 0 -5329.85 0 0 5329.85
0 0 -27487.4 0 0 27487.4 0 0 -16775.9 0 0 16775.9 0 0 -6019.48 0 0 6019.48
0 0 -29095.3 0 0 29095.3 0 0 -18173.4 0 0 18173.4 0 0 -6647.24 0 0 6647.24
0 0 -30855.6 0 0 30855.6 0 0 -19588.3 0 0 19588.3 0 0 -7208.06 0 0 7208.06
0 0 -32779.6 0 0 32779.6 0 0 -21025.5 0 0 21025.5 0 0 -7697.09 0 0 7697.09
0 0 -34891.3 0 0 34891.3 0 0 -22417.7 0 0 22417.7 0 0 -7792.73 0 0 7792.73
0 0 -37176.1 0 0 37176.1 0 0 -23772.9 0 0 23772.9 0 0 -7815.48 0 0 7815.48
0 0 -39606.1 0 0 39606.1 0 0 -25199.6 0 0 25199.6 0 0 -7833.49 0 0 7833.49
0 0 -42177.7 0 0 42177.7 0 0 -26670.1 0 0 26670.1 0 0 -7845.57 0 0 7845.57
0 0 -44857.2 0 0 44857.2 0 0 -28182.9 0 0 28182.9 0 0 -7852.18 0 0 7852.18
0 0 -47630.2 0 0 47630.2 0 0 -29690.8 0 0 29690.8 0 0 -7854.84 0 0 7854.84
0 0 -50470.3 0 0 50470.3 0 0 -31186.5 0 0 31186.5 0 0 -7819.59 0 0 7819.59
0 0 -53352.4 0 0 53352.4 0 0 -32645.1 0 0 32645.1 0 0 -7709.49 0 0 7709.49
0 0 -56249.8 0 0 56249.8 0 0 -34045.7 0 0 34045.7 0 0 -7534.76 0 0 7534.76
0 0 -59115.5 0 0 59115.5 0 0 -35368.9 0 0 35368.9 0 0 -7310.88 0 0 7310.88
0 0 -61162.1 0 0 61162.1 0 0 -36752.1 0 0 36752.1 0 0 -7043.09 0 0 7043.09
0 0 -62137.7 0 0 62137.7 0 0 -37814 0 0 37814 0 0 -6761.53 0 0 6761.53
0 0 -62693.3 0 0 62693.3 0 0 -38398.1 0 0 38398.1 0 0 -6487.18 0 0 6487.18
0 0 -63178.3 0 0 63178.3 0 0 -38747.7 0 0 38747.7 0 0 -6214.82 0 0 6214.82
0 0 -63521.8 0 0 63521.8 0 0 -39242.8 0 0 39242.8 0 0 -5922.93 0 0 5922.93
0 0 -63868.5 0 0 63868.5 0 0 -39541 0 0 39541 0 0 -5637.52 0 0 5637.52
0 0 -64214.6 0 0 64214.6 0 0 -39594.8 0 0 39594.8 0 0 -5378.28 0 0 5378.28
0 0 -64461.5 0 0 64461.5 0 0 -39728.6 0 0 39728.6 0 0 -5122.32 0 0 5122.32
0 0 -64664.1 0 0 64664.1 0 0 -39753.9 0 0 39753.9 0 0 -4887 0 0 4887
0 0 -64849.9 0 0 64849.9 0 0 -39629.1 0 0 39629.1 0 0 -4680.48 0 0 4680.48
0 0 -64976.4 0 0 64976.4 0 0 -39468.2 0 0 39468.2 0 0 -4500.95 0 0 4500.95
0 0 -65049.2 0 0 65049.2 0 0 -39255.9 0 0 39255.9 0 0 -4352.57 0 0 4352.57
0 0 -65088.8 0 0 65088.8 0 0 -38971.2 0 0 38971.2 0 0 -4236.01 0 0 4236.01
0 0 -65047.3 0 0 65047.3 0 0 -38608.8 0 0 38608.8 0 0 -4153.96 0 0 4153.96
0 0 -64842 0 0 64842 0 0 -38175.9 0 0 38175.9 0 0 -4107.04 0 0 4107.04
0 0 -64546.5 0 0 64546.5 0 0 -37677.9 0 0 37677.9 0 0 -4093.94 0 0 4093.94
0 0 -64140 0 0 64140 0 0 -37139 0 0 37139 0 0 -4110.4 0 0 4110.4
0 0 -63655.6 0 0 63655.6 0 0 -36579 0 0 36579 0 0 -4152.33 0 0 4152.33
0 0 -63142.7 0 0 63142.7 0 0 -36019.9 0 0 36019.9 0 0 -4215.17 0 0 4215.17
0 0 -62621.6 0 0 62621.6 0 0 -35487.8 0 0 35487.8 0 0 -4293.83 0 0 4293.83
0 0 -62122.2 0 0 62122.2 0 0 -35002.1 0 0 35002.1 0 0 -4382.88 0 0 4382.88
0 0 -61682.4 0 0 61682.4 0 0 -34581.4 0 0 34581.4 0 0 -4476.83 0 0 4476.83
0 0 -61324.2 0 0 61324.2 0 0 -34247.1 0 0 34247.1 0 0 -4570.62 0 0 4570.62
0 0 -61070.5 0 0 61070.5 0 0 -34015 0 0 34015 0 0 -4660.05 0 0 4660.05
0 0 -60942.3 0 0 60942.3 0 0 -33896.2 0 0 33896.2 0 0 -4741.55 0 0 4741.55
0 0 -60951.6 0 0 60951.6 0 0 -33900.3 0 0 33900.3 0 0 -4812.2 0 0 4812.2
0 0 -61105.9 0 0 61105.9 0 0 -34033.3 0 0 34033.3 0 0 -4870.2 0 0 4870.2
0 0 -61408 0 0 61408 0 0 -34295.8 0 0 34295.8 0 0 -4915.02 0 0 4915.02
0 0 -61854.5 0 0 61854.5 0 0 -34684.4 0 0 34684.4 0 0 -4947.21 0 0 4947.21
0 0 -62436.7 0 0 62436.7 0 0 -35191.9 0 0 35191.9 0 0 -4968.25 0 0 4968.25
0 0 -63140.9 0 0 63140.9 0 0 -35808 0 0 35808 0 0 -4980.58 0 0 4980.58
0 0 -63948.3 0 0 63948.3 0 0 -36518.3 0 0 36518.3 0 0 -4987.58 0 0 4987.58
0 0 -64794.8 0 0 64794.8 0 0 -37312 0 0 37312 0 0 -4993.09 0 0 4993.09
0 0 -65166.8 0 0 65166.8 0 0 -38127.8 0 0 38127.8 0 0 -5004.42 0 0 5004.42
0 0 -65326.7 0 0 65326.7 0 0 -38915.5 0 0 38915.5 0 0 -5028.76 0 0 5028.76
0 0 -65457.7 0 0 65457.7 0 0 -39766.1 0 0 39766.1 0 0 -5062.56 0 0 5062.56
0 0 -65538.8 0 0 65538.8 0 0 -40551.7 0 0 40551.7 0 0 -5105.18 0 0 5105.18
0 0 -65568.4 0 0 65568.4 0 0 -41278.8 0 0 41278.8 0 0 -5126.11 0 0 5126.11
0 0 -65487.6 0 0 65487.6 0 0 -41973.1 0 0 41973.1 0 0 -5192.33 0 0 5192.33
0 0 -65116.5 0 0 65116.5 0 0 -42619.2 0 0 42619.2 0 0 -5288.03 0 0 5288.03
0 0 -64501.6 0 0 64501.6 0 0 -43186.1 0 0 43186.1 0 0 -5413.12 0 0 5413.12
0 0 -63615.1 0 0 63615.1 0 0 -43669.1 0 0 43669.1 0 0 -5582.79 0 0 5582.79
0 0 -62421.9 0 0 62421.9 0 0 -44056.1 0 0 44056.1 0 0 -5787.92 0 0 5787.92
0 0 -60965.2 0 0 60965.2 0 0 -44274.9 0 0 44274.9 0 0 -6034.11 0 0 6034.11
0 0 -59200.8 0 0 59200.8 0 0 -44294.9 0 0 44294.9 0 0 -6309.43 0 0 6309.43
0 0 -57185.5 0 0 57185.5 0 0 -44264.9 0 0 44264.9 0 0 -6618.79 0 0 6618.79
0 0 -54922.2 0 0 54922.2 0 0 -44024.2 0 0 44024.2 0 0 -6952.97 0 0 6952.97
0 0 -52404.8 0 0 52404.8 0 0 -43570 0 0 43570 0 0 -7301.53 0 0 7301.53
0 0 -49659.6 0 0 49659.6 0 0 -42944.4 0 0 42944.4 0 0 -7650.3 0 0 7650.3
0 0 -46726 0 0 46726 0 0 -42111.3 0 0 42111.3 0 0 -7860.4 0 0 7860.4
0 0 -43638.3 0 0 43638.3 0 0 -40993.1 0 0 40993.1 0 0 -7883.52 0 0 7883.52
0 0 -40401.3 0 0 40401.3 0 0 -39686.9 0 0 39686.9 0 0 -7901.05 0 0 7901.05
0 0 -37028.4 0 0 37028.4 0 0 -38276 0 0 38276 0 0 -7915.13 0 0 7915.13
0 0 -33545.3 0 0 33545.3 0 0 -36777.1 0 0 36777.1 0 0 -7925.53 0 0 7925.53
0 0 -29977.8 0 0 29977.8 0 0 -35171.7 0 0 35171.7 0 0 -7933.15 0 0 7933.15
0 0 -26355 0 0 26355 0 0 -33498 0 0 33498 0 0 -7938.27 0 0 7938.27
0 0 -22714.5 0 0 22714.5 0 0 -31797 0 0 31797 0 0 -7936.95 0 0 7936.95
0 0 -19092.8 0 0 19092.8 0 0 -30073.2 0 0 30073.2 0 0 -7858.24 0 0 7858.24
0 0 -15523.4 0 0 15523.4 0 0 -28318.1 0 0 28318.1 0 0 -7690.32 0 0 7690.32
0 0 -12028.6 0 0 12028.6 0 0 -26549 0 0 26549 0 0 -7436.62 0 0 7436.62
0 0 -8622.53 0 0 8622.53 0 0 -24784.7 0 0 24784.7 0 0 -7090.47 0 0 7090.47
0 0 -5311.9 0 0 5311.9 0 0 -23033.3 0 0 23033.3 0 0 -6645.12 0 0 6645.12
0 0 -2955.28 0 0 2955.28 0 0 -21158.9 0 0 21158.9 0 0 -6110.57 0 0 6110.57
0 0 -1288.06 0 0 1288.06 0 0 -19275.7 0 0 19275.7 0 0 -5491.08 0 0 5491.08
0 0 109.554 0 0 -109.554 0 0 -17466.6 0 0 17466.6 0 0 -4787.38 0 0 4787.38
0 0 1192.42 0 0 -1192.42 0 0 -15770.3 0 0 15770.3 0 0 -4005.64 0 0 4005.64
0 0 2176.51 0 0 -2176.51 0 0 -14132.5 0 0 14132.5 0 0 -3154.92 0 0 3154.92
0 0 3012.55 0 0 -3012.55 0 0 -12538.2 0 0 12538.2 0 0 -2252.62 0 0 2252.62
0 0 3785.22 0 0 -3785.22 0 0 -11007.8 0 0 11007.8 0 0 -1312.05 0 0 1312.05
0 0 4505.39 0 0 -4505.39 0 0 -9539.32 0 0 9539.32 0 0 -346.471 0 0 346.471
0 0 5168.49 0 0 -5168.49 0 0 -8195.47 0 0 8195.47 0 0 320.202 0 0 -320.202
0 0 5816.87 0 0 -5816.87 0 0 -6977.16 0 0 6977.16 0 0 908.562 0 0 -908.562
0 0 6456.88 0 0 -6456.88 0 0 -5800.56 0 0 5800.56 0 0 1493.67 0 0 -1493.67
0 0 7097.92 0 0 -7097.92 0 0 -4637.48 0 0 4637.48 0 0 2052.83 0 0 -2052.83
0 0 7762.86 0 0 -7762.86 0 0 -3491.17 0 0 3491.17 0 0 2581.65 0 0 -2581.65
0 0 8481.04 0 0 -8481.04 0 0 -2378.66 0 0 2378.66 0 0 3084.9 0 0 -3084.9
0 0 9262.37 0 0 -9262.37 0 0 -1280.24 0 0 1280.24 0 0 3557.19 0 0 -3557.19
0 0 10119.3 0 0 -10119.3 0 0 -200.116 0 0 200.116 0 0 3984.57 0 0 -3984.57
0 0 11061 0 0 -11061 0 0 875.144 0 0 -875.144 0 0 4356.46 0 0 -4356.46
0 0 12110 0 0 -12110 0 0 1943.51 0 0 -1943.51 0 0 4678.56 0 0 -4678.56
0 0 13265 0 0 -13265 0 0 3027.22 0 0 -3027.22 0 0 4948.53 0 0 -4948.53
0 0 14537.2 0 0 -14537.2 0 0 4120.23 0 0 -4120.23 0 0 5163.47 0 0 -5163.47
0 0 15919.4 0 0 -15919.4 0 0 5228.1 0 0 -5228.1 0 0 5318.86 0 0 -5318.86
0 0 17407.7 0 0 -17407.7 0 0 6340.98 0 0 -6340.98 0 0 5416.23 0 0 -5416.23
0 0 18993.1 0 0 -18993.1 0 0 7454.53 0 0 -7454.53 0 0 5459.02 0 0 -5459.02
0 0 20662.5 0 0 -20662.5 0 0 8558.38 0 0 -8558.38 0 0 5436.29 0 0 -5436.29
0 0 22401.7 0 0 -22401.7 0 0 9634.67 0 0 -9634.67 0 0 5331.97 0 0 -5331.97
0 0 24193.1 0 0 -24193.1 0 0 10672.3 0 0 -10672.3 0 0 5152.95 0 0 -5152.95
0 0 26016.8 0 0 -26016.8 0 0 11660.1 0 0 -11660.1 0 0 4910 0 0 -4910
0 0 27850.9 0 0 -27850.9 0 0 12587.3 0 0 -12587.3 0 0 4612.45 0 0 -4612.45
0 0 29672.7 0 0 -29672.7 0 0 13441.3 0 0 -13441.3 0 0 4270.96 0 0 -4270.96
0 0 31458 0 0 -31458 0 0 14211 0 0 -14211 0 0 3896.91 0 0 -3896.91
0 0 33182.2 0 0 -33182.2 0 0 14887.5 0 0 -14887.5 0 0 3502.83 0 0 -3502.83
0 0 34821.7 0 0 -34821.7 0 0 15463 0 0 -15463 0 0 3100.32 0 0 -3100.32
0 0 36354.2 0 0 -36354.2 0 0 15931.6 0 0 -15931.6 0 0 2700.39 0 0 -2700.39
0 0 37490.2 0 0 -37490.2 0 0 16226.9 0 0 -16226.9 0 0 2389.26 0 0 -2389.26
0 0 38537.1 0 0 -38537.1 0 0 16450.6 0 0 -16450.6 0 0 2091.5 0 0 -2091.5
0 0 39488.9 0 0 -39488.9 0 0 16602.6 0 0 -16602.6 0 0 1811.79 0 0 -1811.79
0 0 40341.5 0 0 -40341.5 0 0 16683.6 0 0 -16683.6 0 0 1554.15 0 0 -1554.15
0 0 41093 0 0 -41093 0 0 16695.4 0 0 -16695.4 0 0 1321.93 0 0 -1321.93
0 0 41743.6 0 0 -41743.6 0 0 16639.8 0 0 -16639.8 0 0 1117.82 0 0 -1117.82
0 0 42295 0 0 -42295 0 0 16521.1 0 0 -16521.1 0 0 943.728 0 0 -943.728
0 0 42751.9 0 0 -42751.9 0 0 16343.7 0 0 -16343.7 0 0 801.362 0 0 -801.362
0 0 43120.4 0 0 -43120.4 0 0 16114.2 0 0 -16114.2 0 0 691.619 0 0 -691.619
0 0 43408.5 0 0 -43408.5 0 0 15840.2 0 0 -15840.2 0 0 614.653 0 0 -614.653
0 0 43625.8 0 0 -43625.8 0 0 15530.1 0 0 -15530.1 0 0 570.001 0 0 -570.001
0 0 43783.1 0 0 -43783.1 0 0 15193.8 0 0 -15193.8 0 0 556.608 0 0 -556.608
0 0 43892.1 0 0 -43892.1 0 0 14841.7 0 0 -14841.7 0 0 572.936 0 0 -572.936
0 0 43965.7 0 0 -43965.7 0 0 14484.2 0 0 -14484.2 0 0 617.017 0 0 -617.017
0 0 44017.4 0 0 -44017.4 0 0 14133.1 0 0 -14133.1 0 0 686.347 0 0 -686.347
0 0 44061.7 0 0 -44061.7 0 0 13801.3 0 0 -13801.3 0 0 777.984 0 0 -777.984
0 0 44113.5 0 0 -44113.5 0 0 13500.8 0 0 -13500.8 0 0 888.873 0 0 -888.873
0 0 44187.4 0 0 -44187.4 0 0 13244 0 0 -13244 0 0 1015.74 0 0 -1015.74
0 0 44297.7 0 0 -44297.7 0 0 13042.8 0 0 -13042.8 0 0 1155.29 0 0 -1155.29
0 0 44458.2 0 0 -44458.2 0 0 12908.8 0 0 -12908.8 0 0 1304.22 0 0 -1304.22
0 0 44681.9 0 0 -44681.9 0 0 12852.5 0 0 -12852.5 0 0 1459.33 0 0 -1459.33
0 0 44974.3 0 0 -44974.3 0 0 12880.7 0 0 -12880.7 0 0 1617.85 0 0 -1617.85
0 0 45353 0 0 -45353 0 0 12998.5 0 0 -12998.5 0 0 1777.36 0 0 -1777.36
0 0 45817.8 0 0 -45817.8 0 0 13222.3 0 0 -13222.3 0 0 1934.67 0 0 -1934.67
0 0 46382.3 0 0 -46382.3 0 0 13550 0 0 -13550 0 0 2088.27 0 0 -2088.27
0 0 46921.4 0 0 -46921.4 0 0 14032.2 0 0 -14032.2 0 0 2234.71 0 0 -2234.71
0 0 47445.8 0 0 -47445.8 0 0 14655.5 0 0 -14655.5 0 0 2372.98 0 0 -2372.98
0 0 48095.7 0 0 -48095.7 0 0 15372.8 0 0 -15372.8 0 0 2505.88 0 0 -2505.88
0 0 48854.1 0 0 -48854.1 0 0 16192 0 0 -16192 0 0 2633.99 0 0 -2633.99
0 0 49697.2 0 0 -49697.2 0 0 17089.1 0 0 -17089.1 0 0 2752.26 0 0 -2752.26
0 0 50619 0 0 -50619 0 0 18077.2 0 0 -18077.2 0 0 2866.68 0 0 -2866.68
0 0 51621.6 0 0 -51621.6 0 0 19143.9 0 0 -19143.9 0 0 2979.93 0 0 -2979.93
0 0 52687.4 0 0 -52687.4 0 0 20285.4 0 0 -20285.4 0 0 3091.74 0 0 -3091.74
0 0 53805.3 0 0 -53805.3 0 0 21489.3 0 0 -21489.3 0 0 3205.83 0 0 -3205.83
0 0 54957.9 0 0 -54957.9 0 0 22749.3 0 0 -22749.3 0 0 3323.82 0 0 -3323.82
0 0 56134 0 0 -56134 0 0 24051.8 0 0 -24051.8 0 0 3448.53 0 0 -3448.53
0 0 57319.2 0 0 -57319.2 0 0 25382.8 0 0 -25382.8 0 0 3582.82 0 0 -3582.82
0 0 58496 0 0 -58496 0 0 26731.1 0 0 -26731.1 0 0 3729.01 0 0 -3729.01
0 0 59649.4 0 0 -59649.4 0 0 28084.2 0 0 -28084.2 0 0 3889.62 0 0 -3889.62
0 0 60762.7 0 0 -60762.7 0 0 29428.9 0 0 -29428.9 0 0 4066.86 0 0 -4066.86
0 0 60854.4 0 0 -60854.4 0 0 30581.2 0 0 -30581.2 0 0 4274.59 0 0 -4274.59
0 0 60965.9 0 0 -60965.9 0 0 31638.3 0 0 -31638.3 0 0 4505.5 0 0 -4505.5
0 0 61058 0 0 -61058 0 0 32701 0 0 -32701 0 0 4754.72 0 0 -4754.72
0 0 61127.3 0 0 -61127.3 0 0 33760 0 0 -33760 0 0 5022.49 0 0 -5022.49
0 0 61185.3 0 0 -61185.3 0 0 34833.9 0 0 -34833.9 0 0 5300.91 0 0 -5300.91
0 0 61243.1 0 0 -61243.1 0 0 35780.5 0 0 -35780.5 0 0 5536.54 0 0 -5536.54
0 0 61294 0 0 -61294 0 0 36625.3 0 0 -36625.3 0 0 5750.38 0 0 -5750.38
0 0 61331.9 0 0 -61331.9 0 0 37425.2 0 0 -37425.2 0 0 5954.21 0 0 -5954.21
0 0 61361.8 0 0 -61361.8 0 0 38140.2 0 0 -38140.2 0 0 6167.08 0 0 -6167.08
0 0 61387.8 0 0 -61387.8 0 0 38761.5 0 0 -38761.5 0 0 6385.12 0 0 -6385.12
0 0 61407.9 0 0 -61407.9 0 0 39282.4 0 0 -39282.4 0 0 6607.76 0 0 -6607.76
0 0 61419.8 0 0 -61419.8 0 0 39712.6 0 0 -39712.6 0 0 6835.85 0 0 -6835.85
0 0 61424.4 0 0 -61424.4 0 0 40052.8 0 0 -40052.8 0 0 7068.7 0 0 -7068.7
0 0 61389.4 0 0 -61389.4 0 0 40296.5 0 0 -40296.5 0 0 7303.36 0 0 -7303.36
0 0 61254.4 0 0 -61254.4 0 0 40437 0 0 -40437 0 0 7536.2 0 0 -7536.2
0 0 61011.2 0 0 -61011.2 0 0 40483.6 0 0 -40483.6 0 0 7733.65 0 0 -7733.65
0 0 60676.9 0 0 -60676.9 0 0 40392.6 0 0 -40392.6 0 0 7739.78 0 0 -7739.78
0 0 60241.8 0 0 -60241.8 0 0 40190.4 0 0 -40190.4 0 0 7745.93 0 0 -7745.93
0 0 59698.4 0 0 -59698.4 0 0 39941.1 0 0 -39941.1 0 0 7751.89 0 0 -7751.89
0 0 59059.5 0 0 -59059.5 0 0 39641.1 0 0 -39641.1 0 0 7757.39 0 0 -7757.39
0 0 58328 0 0 -58328 0 0 39311.1 0 0 -39311.1 0 0 7762.26 0 0 -7762.26
0 0 57509.3 0 0 -57509.3 0 0 38952.7 0 0 -38952.7 0 0 7766.54 0 0 -7766.54
0 0 56610.2 0 0 -56610.2 0 0 38565.4 0 0 -38565.4 0 0 7770.36 0 0 -7770.36
0 0 55632 0 0 -55632 0 0 38164.5 0 0 -38164.5 0 0 7773.71 0 0 -7773.71
0 0 54576 0 0 -54576 0 0 37760.9 0 0 -37760.9 0 0 7776.44 0 0 -7776.44
0 0 53442.7 0 0 -53442.7 0 0 37362.9 0 0 -37362.9 0 0 7778.4 0 0 -7778.4
0 0 52233.3 0 0 -52233.3 0 0 36972.7 0 0 -36972.7 0 0 7779.55 0 0 -7779.55
0 0 50949 0 0 -50949 0 0 36589.1 0 0 -36589.1 0 0 7779.93 0 0 -7779.93
0 0 49592.3 0 0 -49592.3 0 0 36206 0 0 -36206 0 0 7751.84 0 0 -7751.84
0 0 48167.7 0 0 -48167.7 0 0 35809.6 0 0 -35809.6 0 0 7681.79 0 0 -7681.79
0 0 46677.3 0 0 -46677.3 0 0 35396.1 0 0 -35396.1 0 0 7567.52 0 0 -7567.52
0 0 45123.8 0 0 -45123.8 0 0 34958.8 0 0 -34958.8 0 0 7409.48 0 0 -7409.48
0 0 43508.7 0 0 -43508.7 0 0 34490.7 0 0 -34490.7 0 0 7208.97 0 0 -7208.97
0 0 41833.3 0 0 -41833.3 0 0 33982.3 0 0 -33982.3 0 0 6969.24 0 0 -6969.24
0 0 40100.7 0 0 -40100.7 0 0 33421.5 0 0 -33421.5 0 0 6694.21 0 0 -6694.21
0 0 38316.8 0 0 -38316.8 0 0 32796.5 0 0 -32796.5 0 0 6387.26 0 0 -6387.26
0 0 36489.8 0 0 -36489.8 0 0 32096.4 0 0 -32096.4 0 0 6051.31 0 0 -6051.31
0 0 34628 0 0 -34628 0 0 31311.4 0 0 -31311.4 0 0 5689.57 0 0 -5689.57
0 0 32739.5 0 0 -32739.5 0 0 30432.1 0 0 -30432.1 0 0 5305.92 0 0 -5305.92
0 0 30832.2 0 0 -30832.2 0 0 29450.2 0 0 -29450.2 0 0 4904.52 0 0 -4904.52
0 0 28913.7 0 0 -28913.7 0 0 28360 0 0 -28360 0 0 4489.11 0 0 -4489.11
0 0 26989.2 0 0 -26989.2 0 0 27159.3 0 0 -27159.3 0 0 4062.65 0 0 -4062.65
0 0 25060.6 0 0 -25060.6 0 0 25849.1 0 0 -25849.1 0 0 3627.64 0 0 -3627.64
0 0 23126.7 0 0 -23126.7 0 0 24433.3 0 0 -24433.3 0 0 3186.39 0 0 -3186.39
0 0 21184.6 0 0 -21184.6 0 0 22918.5 0 0 -22918.5 0 0 2741.12 0 0 -2741.12
0 0 19231.9 0 0 -19231.9 0 0 21313.9 0 0 -21313.9 0 0 2293.64 0 0 -2293.64
0 0 17268.3 0 0 -17268.3 0 0 19631.1 0 0 -19631.1 0 0 1845.26 0 0 -1845.26
0 0 15295.9 0 0 -15295.9 0 0 17883.1 0 0 -17883.1 0 0 1396.77 0 0 -1396.77
0 0 13319 0 0 -13319 0 0 16084.6 0 0 -16084.6 0 0 948.745 0 0 -948.745
0 0 11342.9 0 0 -11342.9 0 0 14251.2 0 0 -14251.2 0 0 501.68 0 0 -501.68
0 0 9373.19 0 0 -9373.19 0 0 12399.4 0 0 -12399.4 0 0 52.9443 0 0 -52.9443
0 0 7403.4 0 0 -7403.4 0 0 10584.1 0 0 -10584.1 0 0 -182.885 0 0 182.885
0 0 5442.53 0 0 -5442.53 0 0 8832.87 0 0 -8832.87 0 0 -415.697 0 0 415.697
0 0 3504.67 0 0 -3504.67 0 0 7104.07 0 0 -7104.07 0 0 -646.71 0 0 646.71
0 0 1583.98 0 0 -1583.98 0 0 5427.19 0 0 -5427.19 0 0 -878.083 0 0 878.083
0 0 -131.252 0 0 131.252 0 0 3807.74 0 0 -3807.74 0 0 -1105.73 0 0 1105.73
0 0 -1369.98 0 0 1369.98 0 0 2399.09 0 0 -2399.09 0 0 -1337.6 0 0 1337.6
0 0 -2677.86 0 0 2677.86 0 0 1131.2 0 0 -1131.2 0 0 -1573.81 0 0 1573.81
0 0 -3898.55 0 0 3898.55 0 0 -68.6111 0 0 68.6111 0 0 -1811.3 0 0 1811.3
0 0 -4903.02 0 0 4903.02 0 0 -1268.04 0 0 1268.04 0 0 -2044.82 0 0 2044.82
0 0 -5693.42 0 0 5693.42 0 0 -2413.21 0 0 2413.21 0 0 -2273.38 0 0 2273.38
0 0 -6383.54 0 0 6383.54 0 0 -3510.07 0 0 3510.07 0 0 -2496.87 0 0 2496.87
0 0 -7078.6 0 0 7078.6 0 0 -4450.24 0 0 4450.24 0 0 -2718.64 0 0 2718.64
0 0 -7661.95 0 0 7661.95 0 0 -5324.24 0 0 5324.24 0 0 -2938.26 0 0 2938.26
0 0 -8167.74 0 0 8167.74 0 0 -6117.82 0 0 6117.82 0 0 -3150.57 0 0 3150.57
0 0 -8622.06 0 0 8622.06 0 0 -6800.34 0 0 6800.34 0 0 -3357.12 0 0 3357.12
0 0 -9011.87 0 0 9011.87 0 0 -7389.5 0 0 7389.5 0 0 -3553.83 0 0 3553.83
0 0 -9327.13 0 0 9327.13 0 0 -7882.56 0 0 7882.56 0 0 -3741.16 0 0 3741.16
0 0 -9577.53 0 0 9577.53 0 0 -8287.91 0 0 8287.91 0 0 -3918.16 0 0 3918.16
0 0 -9778.66 0 0 9778.66 0 0 -8604.98 0 0 8604.98 0 0 -4083.4 0 0 4083.4
0 0 -9933.58 0 0 9933.58 0 0 -8834.79 0 0 8834.79 0 0 -4235.12 0 0 4235.12
0 0 -10043.3 0 0 10043.3 0 0 -8984.38 0 0 8984.38 0 0 -4371.22 0 0 4371.22
0 0 -10119.3 0 0 10119.3 0 0 -9057.86 0 0 9057.86 0 0 -4490.47 0 0 4490.47
0 0 -10172.9 0 0 10172.9 0 0 -9060.44 0 0 9060.44 0 0 -4591.96 0 0 4591.96
0 0 -10210 0 0 10210 0 0 -8997.26 0 0 8997.26 0 0 -4674.59 0 0 4674.59
0 0 -10236.6 0 0 10236.6 0 0 -8874.94 0 0 8874.94 0 0 -4737.03 0 0 4737.03
0 0 -10263 0 0 10263 0 0 -8699.59 0 0 8699.59 0 0 -4777.99 0 0 4777.99
0 0 -10298.2 0 0 10298.2 0 0 -8479.13 0 0 8479.13 0 0 -4796.45 0 0 4796.45
0 0 -10349.5 0 0 10349.5 0 0 -8220.62 0 0 8220.62 0 0 -4782.21 0 0 4782.21
0 0 -10425.5 0 0 10425.5 0 0 -7923.95 0 0 7923.95 0 0 -4721.84 0 0 4721.84
0 0 -10533.7 0 0 10533.7 0 0 -7594.94 0 0 7594.94 0 0 -4614.97 0 0 4614.97
0 0 -10680.7 0 0 10680.7 0 0 -7240.16 0 0 7240.16 0 0 -4462.17 0 0 4462.17
0 0 -10867.6 0 0 10867.6 0 0 -6863.55 0 0 6863.55 0 0 -4263.68 0 0 4263.68
0 0 -11101.1 0 0 11101.1 0 0 -6474.22 0 0 6474.22 0 0 -4020.24 0 0 4020.24
0 0 -11382.7 0 0 11382.7 0 0 -6080.91 0 0 6080.91 0 0 -3733.66 0 0 3733.66
0 0 -11717.3 0 0 11717.3 0 0 -5682.61 0 0 5682.61 0 0 -3407.84 0 0 3407.84
0 0 -12102.9 0 0 12102.9 0 0 -5288.21 0 0 5288.21 0 0 -3045.84 0 0 3045.84
0 0 -12539.9 0 0 12539.9 0 0 -4902.02 0 0 4902.02 0 0 -2651.19 0 0 2651.19
0 0 -13027 0 0 13027 0 0 -4529.25 0 0 4529.25 0 0 -2227.7 0 0 2227.7
0 0 -13561.8 0 0 13561.8 0 0 -4173.39 0 0 4173.39 0 0 -1779.93 0 0 1779.93
0 0 -14140.8 0 0 14140.8 0 0 -3837.35 0 0 3837.35 0 0 -1313.26 0 0 1313.26
0 0 -14759.6 0 0 14759.6 0 0 -3524.49 0 0 3524.49 0 0 -833.265 0 0 833.265
0 0 -15413.1 0 0 15413.1 0 0 -3237.82 0 0 3237.82 0 0 -345.575 0 0 345.575
0 0 -16094.7 0 0 16094.7 0 0 -2985.35 0 0 2985.35 0 0 48.8438 0 0 -48.8438
0 0 -16787.5 0 0 16787.5 0 0 -2832.69 0 0 2832.69 0 0 359.722 0 0 -359.722
0 0 -17502 0 0 17502 0 0 -2700.33 0 0 2700.33 0 0 656.384 0 0 -656.384
0 0 -18231 0 0 18231 0 0 -2600.79 0 0 2600.79 0 0 949.479 0 0 -949.479
0 0 -18965.7 0 0 18965.7 0 0 -2526.71 0 0 2526.71 0 0 1227.69 0 0 -1227.69
0 0 -19706.4 0 0 19706.4 0 0 -2474.56 0 0 2474.56 0 0 1488.31 0 0 -1488.31
0 0 -20443.2 0 0 20443.2 0 0 -2458.94 0 0 2458.94 0 0 1732.69 0 0 -1732.69
0 0 -21172.5 0 0 21172.5 0 0 -2478.49 0 0 2478.49 0 0 1960.69 0 0 -1960.69
0 0 -21888.8 0 0 21888.8 0 0 -2529.43 0 0 2529.43 0 0 2168.93 0 0 -2168.93
0 0 -22588 0 0 22588 0 0 -2607.89 0 0 2607.89 0 0 2352.47 0 0 -2352.47
0 0 -23266.3 0 0 23266.3 0 0 -2713.9 0 0 2713.9 0 0 2507.85 0 0 -2507.85
0 0 -23919.9 0 0 23919.9 0 0 -2850.73 0 0 2850.73 0 0 2634.35 0 0 -2634.35
0 0 -24546 0 0 24546 0 0 -3019.49 0 0 3019.49 0 0 2732.14 0 0 -2732.14
0 0 -25142.4 0 0 25142.4 0 0 -3219.68 0 0 3219.68 0 0 2800.5 0 0 -2800.5
0 0 -25707.8 0 0 25707.8 0 0 -3450.56 0 0 3450.56 0 0 2837.53 0 0 -2837.53
0 0 -26242 0 0 26242 0 0 -3712.59 0 0 3712.59 0 0 2838.06 0 0 -2838.06
0 0 -26744.4 0 0 26744.4 0 0 -4012.13 0 0 4012.13 0 0 2787.18 0 0 -2787.18
0 0 -27215.7 0 0 27215.7 0 0 -4352.81 0 0 4352.81 0 0 2684.41 0 0 -2684.41
0 0 -27657.8 0 0 27657.8 0 0 -4735.41 0 0 4735.41 0 0 2531.96 0 0 -2531.96
0 0 -28072.8 0 0 28072.8 0 0 -5161 0 0 5161 0 0 2330.65 0 0 -2330.65
0 0 -28463.8 0 0 28463.8 0 0 -5629.82 0 0 5629.82 0 0 2080.96 0 0 -2080.96
0 0 -28834.2 0 0 28834.2 0 0 -6143.25 0 0 6143.25 0 0 1784.83 0 0 -1784.83
0 0 -29188.1 0 0 29188.1 0 0 -6703.12 0 0 6703.12 0 0 1445.95 0 0 -1445.95
0 0 -29529.7 0 0 29529.7 0 0 -7310.78 0 0 7310.78 0 0 1068.66 0 0 -1068.66
0 0 -29863.9 0 0 29863.9 0 0 -7962.21 0 0 7962.21 0 0 656.989 0 0 -656.989
0 0 -30189.9 0 0 30189.9 0 0 -8654.55 0 0 8654.55 0 0 217.392 0 0 -217.392
0 0 -30520.5 0 0 30520.5 0 0 -9381.29 0 0 9381.29 0 0 -145.527 0 0 145.527
0 0 -30870.7 0 0 30870.7 0 0 -10098.9 0 0 10098.9 0 0 -457.273 0 0 457.273
0 0 -31226.8 0 0 31226.8 0 0 -10861.9 0 0 10861.9 0 0 -780.927 0 0 780.927
0 0 -31594.7 0 0 31594.7 0 0 -11679.9 0 0 11679.9 0 0 -1114.15 0 0 1114.15
0 0 -31982.6 0 0 31982.6 0 0 -12543.9 0 0 12543.9 0 0 -1451.08 0 0 1451.08
0 0 -32386.7 0 0 32386.7 0 0 -13460.7 0 0 13460.7 0 0 -1789.74 0 0 1789.74
0 0 -32811 0 0 32811 0 0 -14413.8 0 0 14413.8 0 0 -2132.46 0 0 2132.46
0 0 -33257.3 0 0 33257.3 0 0 -15401.5 0 0 15401.5 0 0 -2478.6 0 0 2478.6
0 0 -33725.3 0 0 33725.3 0 0 -16425.8 0 0 16425.8 0 0 -2824.25 0 0 2824.25
0 0 -34214.6 0 0 34214.6 0 0 -17484.5 0 0 17484.5 0 0 -3164.99 0 0 3164.99
0 0 -34723.2 0 0 34723.2 0 0 -18572.8 0 0 18572.8 0 0 -3498.27 0 0 3498.27
0 0 -35250 0 0 35250 0 0 -19682 0 0 19682 0 0 -3823.88 0 0 3823.88
0 0 -35792.5 0 0 35792.5 0 0 -20804.9 0 0 20804.9 0 0 -4141.81 0 0 4141.81
0 0 -36347.1 0 0 36347.1 0 0 -21936.3 0 0 21936.3 0 0 -4450.62 0 0 4450.62
0 0 -36903.5 0 0 36903.5 0 0 -23072.5 0 0 23072.5 0 0 -4747.85 0 0 4747.85
0 0 -37434.7 0 0 37434.7 0 0 -24213.5 0 0 24213.5 0 0 -5031.18 0 0 5031.18
0 0 -37937.6 0 0 37937.6 0 0 -25349.2 0 0 25349.2 0 0 -5299.96 0 0 5299.96
0 0 -38411.5 0 0 38411.5 0 0 -26466 0 0 26466 0 0 -5554.47 0 0 5554.47
0 0 -38850.5 0 0 38850.5 0 0 -27555.5 0 0 27555.5 0 0 -5794.57 0 0 5794.57
0 0 -39247 0 0 39247 0 0 -28607.9 0 0 28607.9 0 0 -6019.49 0 0 6019.49
0 0 -39594.2 0 0 39594.2 0 0 -29612.8 0 0 29612.8 0 0 -6228.41 0 0 6228.41
0 0 -39885.9 0 0 39885.9 0 0 -30559.3 0 0 30559.3 0 0 -6420.92 0 0 6420.92
0 0 -40115.4 0 0 40115.4 0 0 -31436.5 0 0 31436.5 0 0 -6597.26 0 0 6597.26
0 0 -40276.1 0 0 40276.1 0 0 -32234.2 0 0 32234.2 0 0 -6757.73 0 0 6757.73
0 0 -40362 0 0 40362 0 0 -32942.4 0 0 32942.4 0 0 -6902.39 0 0 6902.39
0 0 -40356.4 0 0 40356.4 0 0 -33551.3 0 0 33551.3 0 0 -7031.03 0 0 7031.03
0 0 -40223 0 0 40223 0 0 -34044.2 0 0 34044.2 0 0 -7143.8 0 0 7143.8
0 0 -39954.8 0 0 39954.8 0 0 -34410.9 0 0 34410.9 0 0 -7240.79 0 0 7240.79
0 0 -39547.6 0 0 39547.6 0 0 -34646 0 0 34646 0 0 -7321.96 0 0 7321.96
0 0 -39003.6 0 0 39003.6 0 0 -34742.7 0 0 34742.7 0 0 -7387.26 0 0 7387.26
0 0 -38334.3 0 0 38334.3 0 0 -34692.9 0 0 34692.9 0 0 -7436.25 0 0 7436.25
0 0 -37551.8 0 0 37551.8 0 0 -34492.9 0 0 34492.9 0 0 -7468.05 0 0 7468.05
0 0 -36667.9 0 0 36667.9 0 0 -34141 0 0 34141 0 0 -7482 0 0 7482
0 0 -35693.6 0 0 35693.6 0 0 -33638.8 0 0 33638.8 0 0 -7472.37 0 0 7472.37
0 0 -34640.8 0 0 34640.8 0 0 -32986.4 0 0 32986.4 0 0 -7431.75 0 0 7431.75
0 0 -33517.6 0 0 33517.6 0 0 -32190.4 0 0 32190.4 0 0 -7358.58 0 0 7358.58
0 0 -32330 0 0 32330 0 0 -31260.2 0 0 31260.2 0 0 -7251.35 0 0 7251.35
0 0 -31085.4 0 0 31085.4 0 0 -30207.5 0 0 30207.5 0 0 -7108.03 0 0 7108.03
0 0 -29792.7 0 0 29792.7 0 0 -29044.8 0 0 29044.8 0 0 -6926.78 0 0 6926.78
0 0 -28461.7 0 0 28461.7 0 0 -27785.3 0 0 27785.3 0 0 -6706.35 0 0 6706.35
0 0 -27102.6 0 0 27102.6 0 0 -26443 0 0 26443 0 0 -6445.86 0 0 6445.86
0 0 -25725.4 0 0 25725.4 0 0 -25032.9 0 0 25032.9 0 0 -6144.61 0 0 6144.61
0 0 -24339.8 0 0 24339.8 0 0 -23570.6 0 0 23570.6 0 0 -5802.04 0 0 5802.04
0 0 -22954.5 0 0 22954.5 0 0 -22071.1 0 0 22071.1 0 0 -5418.01 0 0 5418.01
0 0 -21578.2 0 0 21578.2 0 0 -20549 0 0 20549 0 0 -4993.01 0 0 4993.01
0 0 -20219.4 0 0 20219.4 0 0 -19018.1 0 0 19018.1 0 0 -4528.26 0 0 4528.26
0 0 -18886.6 0 0 18886.6 0 0 -17491 0 0 17491 0 0 -4025.6 0 0 4025.6
0 0 -17587.7 0 0 17587.7 0 0 -15979.3 0 0 15979.3 0 0 -3487.36 0 0 3487.36
0 0 -16328.4 0 0 16328.4 0 0 -14493.4 0 0 14493.4 0 0 -2916.45 0 0 2916.45
