0 1.5761e-05 7.97802e-06 0 -1.57069e-05 -8.02467e-06
0 1.57043e-05 7.98615e-06 0 -1.57621e-05 -8.01738e-06
0 1.5586e-05 8.0001e-06 0 -1.58786e-05 -8.00066e-06
0 1.53578e-05 8.02253e-06 0 -1.61013e-05 -7.97294e-06
0 1.51177e-05 8.0412e-06 0 -1.63342e-05 -7.94916e-06
0 1.48346e-05 8.05655e-06 0 -1.66073e-05 -7.9289e-06
0 1.45184e-05 8.06321e-06 0 -1.69096e-05 -7.91754e-06
0 1.41813e-05 8.05505e-06 0 -1.72282e-05 -7.92118e-06
0 1.38369e-05 8.02605e-06 0 -1.75486e-05 -7.94651e-06
0 1.35002e-05 7.9702e-06 0 -1.78549e-05 -8.00049e-06
0 1.31885e-05 7.8812e-06 0 -1.81288e-05 -8.09032e-06
0 1.29232e-05 7.75217e-06 0 -1.8348e-05 -8.22326e-06
0 1.27314e-05 7.5762e-06 0 -1.84944e-05 -8.40611e-06
0 1.26429e-05 7.347e-06 0 -1.85375e-05 -8.64323e-06
0 1.27055e-05 7.05808e-06 0 -1.84181e-05 -8.94665e-06
0 1.29683e-05 6.70413e-06 0 -1.80897e-05 -9.32272e-06
0 1.34795e-05 6.28288e-06 0 -1.75055e-05 -9.77473e-06
0 1.42831e-05 5.79551e-06 0 -1.66187e-05 -1.03024e-05
0 1.54145e-05 5.2477e-06 0 -1.53947e-05 -1.09004e-05
0 1.68957e-05 4.65045e-06 0 -1.38135e-05 -1.15578e-05
0 1.87338e-05 4.02166e-06 0 -1.18688e-05 -1.2257e-05
0 2.09265e-05 3.3835e-06 0 -9.56526e-06 -1.29746e-05
0 2.34643e-05 2.76291e-06 0 -6.91516e-06 -1.36822e-05
0 2.63323e-05 2.19103e-06 0 -3.9365e-06 -1.43471e-05
0 2.95093e-05 1.70346e-06 0 -6.54503e-07 -1.49336e-05
0 3.29593e-05 1.33932e-06 0 2.88611e-06 -1.5417e-05
0 3.66143e-05 1.14146e-06 0 6.62167e-06 -1.57234e-05
0 4.03525e-05 1.16857e-06 0 1.04186e-05 -1.58037e-05
0 4.39801e-05 1.48346e-06 0 1.40792e-05 -1.55852e-05
0 4.7251e-05 2.15134e-06 0 1.73514e-05 -1.49957e-05
0 4.99051e-05 3.22879e-06 0 1.99698e-05 -1.39652e-05
0 5.16964e-05 4.76371e-06 0 2.16457e-05 -1.24291e-05
0 5.24355e-05 6.78435e-06 0 2.22204e-05 -1.03647e-05
0 5.19874e-05 9.29663e-06 0 2.15596e-05 -7.75705e-06
0 5.02836e-05 1.22818e-05 0 1.96066e-05 -4.62545e-06
0 4.73023e-05 1.56974e-05 0 1.63612e-05 -1.01832e-06
0 4.3096e-05 1.94773e-05 0 1.18797e-05 2.99172e-06
0 3.78409e-05 2.35223e-05 0 6.3027e-06 7.31055e-06
0 3.16759e-05 2.77269e-05 0 -2.03939e-07 1.18047e-05
0 2.47948e-05 3.19616e-05 0 -7.43867e-06 1.63387e-05
0 1.74275e-05 3.61005e-05 0 -1.51785e-05 2.07851e-05
0 9.79059e-06 4.00086e-05 0 -2.31892e-05 2.50088e-05
0 2.09151e-06 4.35559e-05 0 -3.12519e-05 2.88606e-05
0 -5.47846e-06 4.66146e-05 0 -3.9169e-05 3.22069e-05
0 -1.27432e-05 4.90651e-05 0 -4.6758e-05 3.49225e-05
0 -1.95246e-05 5.07924e-05 0 -5.38313e-05 3.68908e-05
0 -2.56328e-05 5.1667e-05 0 -6.01827e-05 3.79965e-05
0 -3.08222e-05 5.16465e-05 0 -6.55725e-05 3.8152e-05
0 -3.48531e-05 5.0654e-05 0 -6.97512e-05 3.72769e-05
0 -3.74803e-05 4.8634e-05 0 -7.24706e-05 3.53167e-05
0 -3.84428e-05 4.46371e-05 0 -7.34737e-05 3.12986e-05
0 -3.65131e-05 3.90442e-05 0 -7.15063e-05 2.55617e-05
0 -3.15647e-05 3.19827e-05 0 -6.64547e-05 1.82365e-05
0 -2.37778e-05 2.36877e-05 0 -5.85216e-05 9.57628e-06
0 -1.36832e-05 1.44888e-05 0 -4.82646e-05 -6.17538e-08
0 -2.16122e-06 4.84674e-06 0 -3.65958e-05 -1.02107e-05
0 9.60206e-06 -4.72939e-06 0 -2.47387e-05 -2.02772e-05
0 2.02191e-05 -1.37076e-05 0 -1.41113e-05 -2.96938e-05
0 2.82954e-05 -2.1579e-05 0 -6.13857e-06 -3.78885e-05
0 3.26577e-05 -2.79212e-05 0 -2.01572e-06 -4.44084e-05
0 3.2507e-05 -3.24437e-05 0 -2.55397e-06 -4.89255e-05
0 2.74571e-05 -3.50045e-05 0 -8.1458e-06 -5.12887e-05
0 1.75086e-05 -3.56126e-05 0 -1.87873e-05 -5.15061e-05
0 3.00318e-06 -3.44236e-05 0 -3.41256e-05 -4.97514e-05
0 -1.54525e-05 -3.17227e-05 0 -5.35335e-05 -4.63332e-05
0 -3.70799e-05 -2.78964e-05 0 -7.62059e-05 -4.16714e-05
0 -6.09706e-05 -2.34102e-05 0 -0.000101201 -3.62692e-05
0 -8.60703e-05 -1.879e-05 0 -0.000127426 -3.06948e-05
0 -0.000111186 -1.4595e-05 0 -0.000153648 -2.55553e-05
0 -0.000135065 -1.13795e-05 0 -0.000178574 -2.14562e-05
0 -0.000156525 -9.65012e-06 0 -0.000200987 -1.8952e-05
0 -0.000174608 -9.82292e-06 0 -0.000219898 -1.84972e-05
0 -0.000188677 -1.21919e-05 0 -0.000234648 -2.04109e-05
0 -0.000198384 -1.69201e-05 0 -0.000244873 -2.48691e-05
0 -0.000203619 -2.40382e-05 0 -0.000250455 -3.19068e-05
0 -0.000204488 -3.34462e-05 0 -0.000251498 -4.14196e-05
0 -0.000201296 -4.49201e-05 0 -0.000248319 -5.31708e-05
0 -0.000194528 -5.81253e-05 0 -0.000241418 -6.68035e-05
0 -0.000184812 -7.26324e-05 0 -0.000231446 -8.18602e-05
0 -0.000172893 -8.79374e-05 0 -0.000219181 -9.7804e-05
0 -0.000159611 -0.000103485 0 -0.000205493 -0.000114042
0 -0.000145851 -0.000118696 0 -0.000191304 -0.000129955
0 -0.00013248 -0.000132996 0 -0.000177518 -0.000144929
0 -0.000120282 -0.00014585 0 -0.000164952 -0.000158391
0 -0.000109921 -0.000156778 0 -0.000154302 -0.000169831
0 -0.00010195 -0.000165376 0 -0.000146148 -0.000178819
0 -9.68697e-05 -0.000171322 0 -0.000141013 -0.000185012
0 -9.51624e-05 -0.000174384 0 -0.000139394 -0.000188159
0 -9.72586e-05 -0.000174437 0 -0.000141727 -0.000188119
0 -0.000103435 -0.000171482 0 -0.000148283 -0.000184884
0 -0.000111345 -0.000167043 0 -0.000156589 -0.000180091
0 -0.00012474 -0.000159132 0 -0.000170573 -0.000171585
0 -0.000141516 -0.000148978 0 -0.000188012 -0.000160695
0 -0.00016083 -0.000137109 0 -0.000208025 -0.000147987
0 -0.000181629 -0.000124147 0 -0.000229513 -0.00013413
0 -0.000202739 -0.000110765 0 -0.000251258 -0.00011985
0 -0.000222927 -9.76593e-05 0 -0.000271977 -0.000105895
0 -0.000240969 -8.55082e-05 0 -0.000290399 -9.29958e-05
0 -0.000255724 -7.49328e-05 0 -0.00030534 -8.18222e-05
0 -0.00026618 -6.64675e-05 0 -0.000315749 -7.29512e-05
0 -0.000271498 -6.05312e-05 0 -0.000320757 -6.68359e-05
0 -0.000271066 -5.74027e-05 0 -0.00031973 -6.378e-05
0 -0.000264498 -5.72075e-05 0 -0.000312273 -6.39228e-05
0 -0.000251606 -5.99164e-05 0 -0.000298199 -6.72385e-05
0 -0.000232353 -6.53473e-05 0 -0.000277482 -7.35402e-05
0 -0.000206897 -7.31605e-05 0 -0.000250308 -8.24762e-05
0 -0.000175707 -8.28538e-05 0 -0.000217183 -9.35195e-05
0 -0.000139585 -9.37771e-05 0 -0.000178959 -0.000105979
0 -9.96105e-05 -0.000105162 0 -0.00013677 -0.000119032
0 -5.70694e-05 -0.000116153 0 -9.1964e-05 -0.000131766
0 -1.34028e-05 -0.000125852 0 -4.60494e-05 -0.000143217
0 2.98425e-05 -0.000133356 0 -6.38784e-07 -0.000152412
0 7.08268e-05 -0.000137766 0 4.2565e-05 -0.000158419
0 0.000108056 -0.000138565 0 8.16146e-05 -0.000160378
0 0.000140037 -0.000134894 0 0.00011506 -0.000157834
0 0.000165616 -0.000126288 0 0.000141918 -0.00015002
0 0.000184131 -0.000112546 0 0.000161314 -0.000136735
0 0.000195322 -9.36331e-05 0 0.0001731 -0.000117906
0 0.000199426 -6.98065e-05 0 0.00017749 -9.38817e-05
0 0.000196985 -4.15949e-05 0 0.000175027 -6.51517e-05
0 0.00018868 -9.77925e-06 0 0.000166446 -3.24869e-05
0 0.00017531 2.49749e-05 0 0.000152586 3.2229e-06
0 0.000157876 6.16674e-05 0 0.000134485 4.11078e-05
0 0.000137566 9.92246e-05 0 0.000113402 7.99594e-05
0 0.000115701 0.000136523 0 9.07268e-05 0.00011861
0 9.36483e-05 0.000172426 0 6.78856e-05 0.000155823
0 7.2762e-05 0.000205799 0 4.63037e-05 0.000190411
0 5.43583e-05 0.000235579 0 2.73604e-05 0.000221261
0 3.97022e-05 0.00026082 0 1.23755e-05 0.000247352
0 3.00157e-05 0.000280706 0 2.62346e-06 0.000267813
0 2.64697e-05 0.000294584 0 -6.86108e-07 0.000281946
0 3.00978e-05 0.000302011 0 3.5077e-06 0.000289268
0 4.16356e-05 0.000302795 0 1.59516e-05 0.000289559
0 6.13705e-05 0.000297026 0 3.69257e-05 0.000282899
0 8.90623e-05 0.000285082 0 6.61649e-05 0.000269688
0 0.000123916 0.000267631 0 0.000102832 0.000250631
0 0.000164625 0.000245595 0 0.000145562 0.000226713
0 0.000209459 0.000220111 0 0.000192552 0.000199147
0 0.000256363 0.000192464 0 0.000241671 0.000169312
0 0.000303118 0.000164021 0 0.000290612 0.000138677
0 0.000347513 0.000136157 0 0.000337081 0.000108713
0 0.000387487 0.000110175 0 0.000378938 8.08199e-05
0 0.00042123 8.72502e-05 0 0.000414301 5.62552e-05
0 0.000447257 6.83718e-05 0 0.000441626 3.60784e-05
0 0.000462786 5.45449e-05 0 0.000459444 2.11366e-05
0 0.000460104 4.78796e-05 0 0.000465438 1.20278e-05
0 0.00044953 4.6386e-05 0 0.000462781 8.38048e-06
0 0.000435861 4.882e-05 0 0.000451142 1.07513e-05
0 0.000415113 5.6007e-05 0 0.00043132 1.83627e-05
0 0.000388477 6.75437e-05 0 0.000409121 2.98265e-05
0 0.000364957 8.14439e-05 0 0.00038503 4.4347e-05
0 0.00033647 9.83215e-05 0 0.000356157 6.23802e-05
0 0.000303917 0.000117439 0 0.000323679 8.26061e-05
0 0.000269309 0.000137679 0 0.000288983 0.000104096
0 0.000233843 0.000158203 0 0.000253149 0.000125904
0 0.000198449 0.000178058 0 0.000217826 0.000146875
0 0.000164776 0.000196127 0 0.000184122 0.000166093
0 0.000134042 0.000211571 0 0.000153337 0.000182582
0 0.000107215 0.000223661 0 0.00012662 0.000195472
0 8.53456e-05 0.000231671 0 0.000104907 0.000204092
0 6.91847e-05 0.000235083 0 8.89591e-05 0.000207919
0 5.92116e-05 0.000233622 0 7.93448e-05 0.000206596
0 5.57633e-05 0.000227163 0 7.63524e-05 0.000199994
0 5.89122e-05 0.000215767 0 8.00436e-05 0.0001882
0 6.84708e-05 0.000199711 0 9.02343e-05 0.000171503
0 8.43256e-05 0.000179437 0 0.000106871 0.000150346
0 0.00010725 0.000155423 0 0.000130974 0.0001251
0 0.000136402 0.000128555 0 0.000161508 9.67273e-05
0 0.000170371 9.986e-05 0 0.000196978 6.63295e-05
0 0.000207376 7.05187e-05 0 0.000235576 3.51889e-05
0 0.000237834 4.74381e-05 0 0.000267301 1.06532e-05
0 0.000267895 2.54262e-05 0 0.000298582 -1.27842e-05
0 0.000296501 5.11999e-06 0 0.000328323 -3.44366e-05
0 0.000322654 -1.28882e-05 0 0.000355488 -5.36588e-05
0 0.000345447 -2.80613e-05 0 0.000379133 -6.98713e-05
0 0.000364091 -3.99347e-05 0 0.00039844 -8.25794e-05
0 0.000377956 -4.81405e-05 0 0.000412755 -9.13891e-05
0 0.000386608 -5.24229e-05 0 0.000421628 -9.60213e-05
0 0.000389832 -5.26427e-05 0 0.000424831 -9.63227e-05
0 0.000387627 -4.87767e-05 0 0.000422359 -9.22697e-05
0 0.000380191 -4.09162e-05 0 0.000414416 -8.3964e-05
0 0.000367874 -2.92594e-05 0 0.000401361 -7.16205e-05
0 0.000351123 -1.40992e-05 0 0.000383653 -5.55517e-05
0 0.000330433 4.19173e-06 0 0.000361807 -3.61534e-05
0 0.000306323 2.5174e-05 0 0.000336363 -1.38916e-05
0 0.000279331 4.83502e-05 0 0.000307887 1.07076e-05
0 0.000250045 7.31706e-05 0 0.000276995 3.70641e-05
0 0.000219122 9.90427e-05 0 0.000244376 6.4552e-05
0 0.00018728 0.000125345 0 0.000210785 9.25126e-05
0 0.000155277 0.000151442 0 0.000177014 0.000120272
0 0.000123862 0.000176706 0 0.000143849 0.000147164
0 9.37502e-05 0.00020053 0 0.000112036 0.000172544
0 6.5604e-05 0.000222343 0 8.22701e-05 0.000195809
0 4.00234e-05 0.000241624 0 5.51792e-05 0.000216411
0 1.75306e-05 0.000257916 0 3.13104e-05 0.000233864
0 -1.45016e-06 0.000270836 0 1.11084e-05 0.000247764
0 -1.66112e-05 0.000280084 0 -5.10368e-06 0.000257794
0 -2.77741e-05 0.000285451 0 -1.71373e-05 0.000263738
0 -3.48921e-05 0.000286823 0 -2.49411e-05 0.000265475
0 -3.80508e-05 0.00028418 0 -2.86013e-05 0.000262991
0 -3.74622e-05 0.000277599 0 -2.8336e-05 0.000256368
0 -3.3455e-05 0.000267242 0 -2.44845e-05 0.000245783
0 -2.64646e-05 0.000253358 0 -1.74977e-05 0.000231502
0 -1.70206e-05 0.000236266 0 -7.93177e-06 0.000213871
0 -6.78203e-06 0.000216395 0 2.42816e-07 0.000193762
0 2.04944e-06 0.000194329 0 8.63549e-06 0.000171715
0 1.18252e-05 0.000170395 0 1.81221e-05 0.000146995
0 2.20444e-05 0.00014478 0 2.8036e-05 0.000120822
0 3.25061e-05 0.000117966 0 3.81094e-05 9.33766e-05
0 4.2608e-05 9.0389e-05 0 4.80087e-05 6.51838e-05
0 5.19172e-05 6.24907e-05 0 5.71942e-05 3.66542e-05
0 6.02292e-05 3.46945e-05 0 6.52555e-05 8.29749e-06
0 6.72649e-05 7.45065e-06 0 7.18993e-05 -1.94391e-05
0 7.26718e-05 -1.89098e-05 0 7.68456e-05 -4.62297e-05
0 7.61601e-05 -4.39282e-05 0 7.97601e-05 -7.16184e-05
0 7.75317e-05 -6.73123e-05 0 8.03402e-05 -9.52775e-05
0 7.65416e-05 -8.87708e-05 0 7.83577e-05 -0.000116888
0 7.29648e-05 -0.00010812 0 7.3617e-05 -0.000136164
0 6.67006e-05 -0.000125038 0 6.5975e-05 -0.00015288
0 5.76788e-05 -0.0001394 0 5.53691e-05 -0.000166891
0 4.5907e-05 -0.000151141 0 4.18215e-05 -0.000178108
0 3.14761e-05 -0.000160244 0 2.54282e-05 -0.000186508
0 1.45566e-05 -0.000166728 0 6.35654e-06 -0.000192141
0 -4.62713e-06 -0.000170676 0 -1.51557e-05 -0.000195116
0 -2.58066e-05 -0.000172243 0 -3.88159e-05 -0.000195594
0 -4.86766e-05 -0.000171636 0 -6.42947e-05 -0.00019378
0 -7.29075e-05 -0.000169088 0 -9.12346e-05 -0.000189928
0 -9.81516e-05 -0.000164856 0 -0.000119251 -0.00018433
0 -0.000124036 -0.000159232 0 -0.00014793 -0.000177306
0 -0.000150164 -0.000152542 0 -0.000176835 -0.000169198
0 -0.000176128 -0.000145122 0 -0.000205516 -0.000160364
0 -0.000201514 -0.000137311 0 -0.000233517 -0.00015117
0 -0.000225901 -0.000129445 0 -0.000260377 -0.000141982
0 -0.000248868 -0.000121853 0 -0.000285638 -0.000133156
0 -0.00027 -0.000114854 0 -0.000308855 -0.000125028
0 -0.0002889 -0.00010874 0 -0.000329602 -0.00011791
0 -0.00030519 -0.000103769 0 -0.000347484 -0.000112078
0 -0.000318527 -0.000100161 0 -0.000362143 -0.000107768
0 -0.000328608 -9.80912e-05 0 -0.000373275 -0.000105168
0 -0.00033519 -9.76851e-05 0 -0.000380637 -0.000104408
0 -0.000338107 -9.90093e-05 0 -0.00038407 -0.000105558
0 -0.000337279 -0.000102069 0 -0.000383507 -0.000108622
0 -0.000332711 -0.000106808 0 -0.000378972 -0.000113539
0 -0.000324419 -0.000113127 0 -0.000370558 -0.000120187
0 -0.000312567 -0.000120853 0 -0.000358474 -0.000128375
0 -0.000297433 -0.000129755 0 -0.000343008 -0.000137857
0 -0.000279386 -0.000139546 0 -0.000324538 -0.000148336
0 -0.000258865 -0.000149903 0 -0.000303537 -0.000159463
0 -0.000236394 -0.000160463 0 -0.000280554 -0.000170851
0 -0.000212572 -0.000170838 0 -0.000256206 -0.000182087
0 -0.000188045 -0.000180625 0 -0.000231154 -0.000192743
0 -0.000163471 -0.000189423 0 -0.00020608 -0.000202389
0 -0.000139505 -0.000196843 0 -0.000181655 -0.000210609
0 -0.000116778 -0.00020252 0 -0.000158529 -0.000217015
0 -9.58806e-05 -0.000206125 0 -0.000137307 -0.000221254
0 -7.73492e-05 -0.000207379 0 -0.000118543 -0.000223023
0 -6.16551e-05 -0.000206053 0 -0.00010272 -0.000222079
0 -4.91888e-05 -0.000201987 0 -9.02372e-05 -0.000218244
0 -4.02427e-05 -0.000195088 0 -8.1395e-05 -0.000211415
0 -3.49976e-05 -0.000185339 0 -7.63804e-05 -0.000201571
0 -3.35166e-05 -0.000172803 0 -7.52612e-05 -0.000188771
0 -3.57209e-05 -0.000157623 0 -7.84405e-05 -0.000173103
0 -4.11333e-05 -0.000140153 0 -8.66008e-05 -0.00015448
0 -4.9918e-05 -0.000120513 0 -9.75254e-05 -0.000133749
0 -6.18363e-05 -9.90202e-05 0 -0.000111471 -0.000111096
0 -7.69343e-05 -7.59822e-05 0 -0.000127887 -8.69967e-05
0 -9.44528e-05 -5.18968e-05 0 -0.000146296 -6.1922e-05
0 -0.000113656 -2.73213e-05 0 -0.000166466 -3.62383e-05
0 -0.000134104 -2.73343e-06 0 -0.000188072 -1.04849e-05
0 -0.00015516 2.13228e-05 0 -0.000210766 1.48859e-05
0 -0.000176821 4.44433e-05 0 -0.000234185 3.93325e-05
0 -0.000198814 6.61653e-05 0 -0.000257683 6.23129e-05
0 -0.000220582 8.5994e-05 0 -0.000280777 8.33076e-05
0 -0.000241547 0.000103397 0 -0.000302956 0.000101818
0 -0.000261279 0.000118039 0 -0.000323696 0.000117398
0 -0.000279325 0.000129519 0 -0.000342444 0.000129662
0 -0.000295036 0.000137466 0 -0.00035862 0.000138232
0 -0.000307785 0.000141577 0 -0.000371659 0.000142803
0 -0.000317078 0.000141641 0 -0.000381016 0.000143129
0 -0.000322491 0.00013753 0 -0.000386224 0.000139047
0 -0.000323654 0.000129185 0 -0.000386925 0.000130501
0 -0.00032031 0.000116648 0 -0.000382881 0.000117534
0 -0.000312346 0.000100065 0 -0.000373967 0.000100288
0 -0.000299755 7.96147e-05 0 -0.000360182 7.8961e-05
0 -0.000282653 5.57087e-05 0 -0.000341665 5.39084e-05
0 -0.000261271 2.87533e-05 0 -0.000318675 2.5625e-05
0 -0.000235988 -7.36737e-07 0 -0.000291617 -5.36292e-06
0 -0.000207335 -3.21657e-05 0 -0.000261054 -3.84344e-05
0 -0.000175992 -6.48678e-05 0 -0.000227705 -7.28992e-05
0 -0.000142753 -9.81316e-05 0 -0.000192407 -0.000108004
0 -0.000108499 -0.000131217 0 -0.00015608 -0.000142961
0 -7.41685e-05 -0.000163373 0 -0.000119703 -0.000176967
0 -4.07212e-05 -0.000193852 0 -8.42827e-05 -0.000209233
0 -9.10217e-06 -0.00022194 0 -5.08029e-05 -0.000239
0 1.98055e-05 -0.000246974 0 -2.01837e-05 -0.000265565
0 4.52191e-05 -0.000268365 0 6.75903e-06 -0.000288299
0 6.6479e-05 -0.000285613 0 2.93374e-05 -0.000306668
0 8.30577e-05 -0.000298312 0 4.70019e-05 -0.000320242
0 9.45688e-05 -0.000306169 0 5.93501e-05 -0.000328709
0 0.00010078 -0.000309009 0 6.61413e-05 -0.000331883
0 0.000101627 -0.000306778 0 6.73096e-05 -0.000329706
0 9.72167e-05 -0.000299546 0 6.29698e-05 -0.000322253
0 8.78275e-05 -0.000287504 0 5.34134e-05 -0.00030973
0 7.38971e-05 -0.000270958 0 3.90993e-05 -0.000292462
0 5.60067e-05 -0.000250319 0 2.0636e-05 -0.00027089
0 3.48571e-05 -0.000226091 0 -1.24285e-06 -0.00024555
0 1.12421e-05 -0.000198853 0 -2.57059e-05 -0.000217061
0 -1.39779e-05 -0.000169246 0 -5.18519e-05 -0.000186107
0 -3.99003e-05 -0.000137953 0 -7.87348e-05 -0.000153414
0 -6.2627e-05 -0.000106037 0 -0.000100229 -0.000120612
0 -8.35985e-05 -7.37826e-05 0 -0.000121064 -8.74412e-05
0 -0.000102509 -4.18441e-05 0 -0.000139606 -5.45796e-05
0 -0.000118888 -1.08677e-05 0 -0.000156049 -2.27816e-05
0 -0.000132322 1.86126e-05 0 -0.000169178 7.48004e-06
0 -0.000142019 4.60672e-05 0 -0.000178422 3.55661e-05
0 -0.00014745 7.10886e-05 0 -0.000183309 6.09861e-05
0 -0.000148484 9.33513e-05 0 -0.000183481 8.33722e-05
0 -0.000145112 0.000112587 0 -0.000178923 0.000102526
0 -0.000136826 0.00012854 0 -0.00016907 0.000118191
0 -0.000123466 0.000141111 0 -0.000154082 0.000130247
0 -0.00010526 0.000150102 0 -0.000134104 0.000138657
0 -8.24929e-05 0.000155823 0 -0.000109427 0.000143344
0 -5.55383e-05 0.000158385 0 -8.03389e-05 0.000144795
0 -2.48365e-05 0.000158062 0 -4.74303e-05 0.000143179
0 9.00739e-06 0.000155225 0 -1.13091e-05 0.000138908
0 4.53009e-05 0.000150309 0 2.73273e-05 0.0001324
0 8.33603e-05 0.000143745 0 6.77998e-05 0.000124146
0 0.000122525 0.000135992 0 0.000109425 0.00011465
0 0.000161854 0.000127589 0 0.000151175 0.000104514
0 0.000200345 0.000119102 0 0.000192014 9.43157e-05
0 0.000236973 0.000111074 0 0.000230874 8.46461e-05
0 0.000270733 0.000104014 0 0.000266714 7.6068e-05
0 0.000300697 9.83836e-05 0 0.00029857 6.90927e-05
0 0.000326062 9.4587e-05 0 0.000325616 6.41536e-05
0 0.000346195 9.29457e-05 0 0.000347194 6.15922e-05
0 0.00036158 9.3549e-05 0 0.000363008 6.16465e-05
0 0.000372006 9.65184e-05 0 0.000374852 6.4129e-05
0 0.000376868 0.00010201 0 0.000380576 6.92952e-05
0 0.000376145 0.000109969 0 0.00038071 7.71461e-05
0 0.000370183 0.000120195 0 0.000375303 8.7526e-05
0 0.000359283 0.000132464 0 0.000364818 0.000100181
0 0.000343885 0.000146492 0 0.000349694 0.000114752
0 0.000324572 0.000161899 0 0.000330496 0.000130841
0 0.000301967 0.000178237 0 0.000307877 0.000147995
0 0.000276749 0.000195024 0 0.000282585 0.000165699
0 0.000249686 0.000211751 0 0.000255421 0.0001834
0 0.000221608 0.000227888 0 0.000227211 0.000200531
0 0.000193346 0.000242902 0 0.0001988 0.000216524
0 0.000165711 0.000256272 0 0.000171035 0.000230828
0 0.000139495 0.000267507 0 0.000144727 0.000242921
0 0.000115447 0.000276161 0 0.000120636 0.000252331
0 9.42344e-05 0.000281854 0 9.94441e-05 0.000258642
0 7.64331e-05 0.00028427 0 8.17455e-05 0.000261518
0 6.25215e-05 0.000283172 0 6.80274e-05 0.000260705
0 5.2873e-05 0.000278408 0 5.86677e-05 0.000256042
0 4.77446e-05 0.000269924 0 5.39259e-05 0.000247464
0 4.72671e-05 0.000257761 0 5.39318e-05 0.000235008
0 5.14314e-05 0.000242056 0 5.86706e-05 0.000218815
0 6.00781e-05 0.000223046 0 6.79766e-05 0.00019913
0 7.26775e-05 0.000201112 0 8.1535e-05 0.000176298
0 8.93015e-05 0.000176574 0 9.94404e-05 0.000150648
0 0.000109444 0.00014993 0 0.000120966 0.000122725
0 0.000132436 0.000121735 0 0.000145405 9.3142e-05
0 0.000157428 9.26109e-05 0 0.000171939 6.25341e-05
0 0.000183565 6.31995e-05 0 0.000199684 3.15888e-05
0 0.00021 3.41546e-05 0 0.000227704 1.01455e-06
0 0.000235846 6.13704e-06 0 0.000255073 -2.84899e-05
0 0.000260231 -2.02161e-05 0 0.000280906 -5.62528e-05
0 0.000282387 -4.43209e-05 0 0.000304394 -8.16452e-05
0 0.000301678 -6.56545e-05 0 0.000324848 -0.000104104
0 0.000317589 -8.37675e-05 0 0.000341729 -0.000123174
0 0.000329743 -9.83215e-05 0 0.000354635 -0.00013845
0 0.000337867 -0.000108975 0 0.000363271 -0.000149625
0 0.000341808 -0.000115556 0 0.000367459 -0.00015647
0 0.000341487 -0.000117961 0 0.000367137 -0.000158903
0 0.000336915 -0.000116181 0 0.000362353 -0.000156924
0 0.000328256 -0.000110305 0 0.000353285 -0.000150633
0 0.000315774 -0.000100521 0 0.000340193 -0.000140223
0 0.000299793 -8.70972e-05 0 0.000323414 -0.000125978
0 0.000280692 -7.04104e-05 0 0.000303355 -0.000108293
0 0.000258923 -5.08512e-05 0 0.000280495 -8.75902e-05
0 0.000235031 -2.88841e-05 0 0.000255399 -6.43804e-05
0 0.000209644 -5.04452e-06 0 0.000228727 -3.91925e-05
0 0.000183465 2.01034e-05 0 0.000201217 -1.26456e-05
0 0.000157239 4.59705e-05 0 0.000173649 1.46335e-05
0 0.000131708 7.19631e-05 0 0.000146795 4.20111e-05
0 0.000107572 9.74976e-05 0 0.00012139 6.88713e-05
0 8.54737e-05 0.000122017 0 9.81084e-05 9.46269e-05
0 6.59869e-05 0.000145004 0 7.75506e-05 0.000118733
0 4.96017e-05 0.000165996 0 6.0232e-05 0.000140699
0 3.67144e-05 0.000184592 0 4.65699e-05 0.000160101
0 2.76277e-05 0.000200457 0 3.68841e-05 0.00017659
0 2.25589e-05 0.000213332 0 3.14035e-05 0.000189895
0 2.16481e-05 0.000223035 0 3.02762e-05 0.000199825
0 2.49628e-05 0.000229464 0 3.35723e-05 0.000206276
0 3.24931e-05 0.000232599 0 4.12793e-05 0.000209227
0 4.41359e-05 0.000232504 0 5.32862e-05 0.000208747
0 5.96853e-05 0.000229326 0 6.93732e-05 0.000204993
0 7.88382e-05 0.000223291 0 8.92188e-05 0.000198209
0 0.000101192 0.000214701 0 0.000112397 0.000188716
0 0.000126232 0.000203927 0 0.000138366 0.000176908
0 0.000153333 0.000191399 0 0.000166468 0.000163246
0 0.000181773 0.000177598 0 0.000195946 0.000148247
0 0.000210743 0.00016304 0 0.000225954 0.000132462
0 0.000239368 0.000148261 0 0.00025558 0.00011647
0 0.00026673 0.000133802 0 0.000283867 0.000100852
0 0.000291903 0.00012019 0 0.000309851 8.6176e-05
0 0.000313993 0.000107918 0 0.000332602 7.29754e-05
0 0.000332178 9.7425e-05 0 0.000351268 6.17277e-05
0 0.00034575 8.90853e-05 0 0.000365114 5.28369e-05
0 0.000354135 8.319e-05 0 0.000373544 4.66189e-05
0 0.000356908 7.99394e-05 0 0.000376119 4.3292e-05
0 0.000353798 7.94368e-05 0 0.000372557 4.29701e-05
0 0.000344691 8.16842e-05 0 0.000362743 4.56588e-05
0 0.000329633 8.6582e-05 0 0.000346726 5.12542e-05
0 0.000308831 9.39303e-05 0 0.000324725 5.9545e-05
0 0.000282649 0.000103434 0 0.000297122 7.02169e-05
0 0.00025178 0.000114654 0 0.000263002 8.312e-05
0 0.000215838 0.000127239 0 0.000224637 9.75939e-05
0 0.000176379 0.000140676 0 0.000183158 0.000112618
0 0.00013437 0.0001543 0 0.000139343 0.000128023
0 9.10042e-05 0.000167483 0 9.39845e-05 0.000142972
0 4.70792e-05 0.000179597 0 4.80427e-05 0.000156887
0 3.73353e-06 0.00019002 0 2.18159e-06 0.00016912
0 -3.80344e-05 0.000198061 0 -4.22196e-05 0.000179082
0 -7.76667e-05 0.000203342 0 -8.45433e-05 0.000186151
0 -0.000114647 0.000205425 0 -0.000123896 0.000189494
0 -0.000148046 0.000203575 0 -0.0001594 0.000189014
0 -0.000177 0.000197763 0 -0.000190361 0.000184326
0 -0.000201136 0.000187798 0 -0.000216205 0.000175172
0 -0.000220053 0.00017353 0 -0.000236482 0.000161443
0 -0.00023335 0.00015491 0 -0.000250908 0.000143139
0 -0.000240862 0.000132056 0 -0.000259323 0.00012035
0 -0.000242637 0.000105211 0 -0.000261717 9.32707e-05
0 -0.000238812 7.4686e-05 0 -0.000258258 6.22401e-05
0 -0.000229623 4.07632e-05 0 -0.000249252 2.76284e-05
0 -0.000215515 4.12719e-06 0 -0.000235161 -9.98789e-06
0 -0.00019704 -3.46393e-05 0 -0.000216563 -4.9875e-05
0 -0.000174839 -7.48476e-05 0 -0.000194164 -9.13291e-05
0 -0.000149649 -0.000115761 0 -0.000168768 -0.000133567
0 -0.000122333 -0.000156585 0 -0.000141271 -0.000175768
0 -9.3836e-05 -0.000196499 0 -0.000112643 -0.000217073
0 -6.5152e-05 -0.000234683 0 -8.39116e-05 -0.00025661
0 -3.72741e-05 -0.000270341 0 -5.61288e-05 -0.000293524
0 -1.11382e-05 -0.000302725 0 -3.03148e-05 -0.000327007
0 1.2239e-05 -0.000331094 0 -7.49292e-06 -0.000356282
0 3.16051e-05 -0.000351225 0 1.08697e-05 -0.000375108
0 4.65335e-05 -0.000365126 0 2.43434e-05 -0.000388753
0 5.64744e-05 -0.000375359 0 3.32049e-05 -0.000399449
0 6.11196e-05 -0.000381013 0 3.61294e-05 -0.000404648
0 5.99399e-05 -0.000382281 0 3.31504e-05 -0.000405533
0 5.28004e-05 -0.000378815 0 2.40253e-05 -0.00040148
0 3.97234e-05 -0.000369759 0 8.62598e-06 -0.000391294
0 2.09302e-05 -0.000355424 0 -1.26635e-05 -0.00037562
0 -3.14069e-06 -0.000336104 0 -3.9414e-05 -0.000354734
0 -3.18692e-05 -0.000312269 0 -7.1026e-05 -0.000329167
0 -6.45165e-05 -0.000284582 0 -0.000106753 -0.000299496
0 -0.000100258 -0.000253763 0 -0.000145719 -0.000266467
0 -0.000138193 -0.000220537 0 -0.000186971 -0.00023091
0 -0.000177368 -0.000185659 0 -0.000229522 -0.000193689
0 -0.00021682 -0.000149952 0 -0.000272371 -0.000155657
0 -0.000255605 -0.000114283 0 -0.000314524 -0.000117669
0 -0.000292811 -7.94866e-05 0 -0.000355018 -8.05834e-05
0 -0.000327588 -4.63302e-05 0 -0.000392946 -4.52495e-05
0 -0.000359165 -1.55219e-05 0 -0.00042748 -1.24585e-05
0 -0.000386818 1.22677e-05 0 -0.000457813 1.70819e-05
0 -0.000396349 3.40756e-05 0 -0.000463968 3.95695e-05
0 -0.000395112 5.17768e-05 0 -0.000457751 5.49139e-05
0 -0.000393428 6.55241e-05 0 -0.000460738 7.08417e-05
0 -0.000393223 7.61914e-05 0 -0.000457192 8.06036e-05
0 -0.000392032 8.27789e-05 0 -0.00045092 8.60324e-05
0 -0.000390768 8.5751e-05 0 -0.000447823 8.8535e-05
0 -0.000387694 8.47577e-05 0 -0.00044716 8.8107e-05
0 -0.00038088 7.9513e-05 0 -0.00043931 8.22466e-05
0 -0.000368863 6.97836e-05 0 -0.000427711 7.23319e-05
0 -0.00035238 5.61231e-05 0 -0.000411659 5.82726e-05
0 -0.000332379 3.90281e-05 0 -0.000391597 4.03862e-05
0 -0.000309246 1.88079e-05 0 -0.000368086 1.9151e-05
0 -0.000283256 -4.16901e-06 0 -0.000341893 -4.81577e-06
0 -0.000255212 -2.92666e-05 0 -0.000313631 -3.09524e-05
0 -0.000225993 -5.57854e-05 0 -0.000283952 -5.86738e-05
0 -0.000196249 -8.31206e-05 0 -0.00025365 -8.73051e-05
0 -0.000166649 -0.000110687 0 -0.00022352 -0.000116144
0 -0.000137989 -0.000137844 0 -0.000194293 -0.000144526
0 -0.000111013 -0.000163944 0 -0.000166682 -0.000171811
0 -8.6343e-05 -0.00018839 0 -0.000141389 -0.000197382
0 -6.45613e-05 -0.000210655 0 -0.000119045 -0.000220668
0 -4.6215e-05 -0.000230269 0 -0.000100188 -0.000241162
0 -3.17493e-05 -0.000246826 0 -8.52793e-05 -0.000258432
0 -2.14977e-05 -0.00025999 0 -7.46888e-05 -0.00027213
0 -1.57033e-05 -0.000269512 0 -6.86763e-05 -0.000282002
0 -1.46962e-05 -0.000275217 0 -6.75408e-05 -0.000287872
0 -1.90286e-05 -0.000276984 0 -7.20214e-05 -0.000289552
0 -2.85367e-05 -0.000274897 0 -8.18855e-05 -0.000287116
0 -4.29053e-05 -0.000269116 0 -9.68621e-05 -0.00028074
0 -6.16997e-05 -0.000259887 0 -0.000116469 -0.000270706
0 -8.43508e-05 -0.000247559 0 -0.000140115 -0.000257394
0 -0.000110181 -0.000232568 0 -0.000167094 -0.000241263
0 -0.000138429 -0.000215416 0 -0.00019661 -0.000222841
0 -0.000168278 -0.000196643 0 -0.00022781 -0.00020271
0 -0.000198882 -0.00017682 0 -0.000259806 -0.000181489
0 -0.000229386 -0.00015654 0 -0.000291701 -0.00015981
0 -0.000258941 -0.000136399 0 -0.000322608 -0.000138305
0 -0.000286733 -0.000116974 0 -0.000351669 -0.000117587
0 -0.000311994 -9.88085e-05 0 -0.00037808 -9.82385e-05
0 -0.000334024 -8.23995e-05 0 -0.000401106 -8.07906e-05
0 -0.000352204 -6.8186e-05 0 -0.000420099 -6.57112e-05
0 -0.000366009 -5.6538e-05 0 -0.000434508 -5.33923e-05
0 -0.000375027 -4.77429e-05 0 -0.000443901 -4.414e-05
0 -0.00037897 -4.19976e-05 0 -0.000447979 -3.81653e-05
0 -0.0003777 -3.94031e-05 0 -0.000446596 -3.55768e-05
0 -0.000371236 -3.99616e-05 0 -0.000439774 -3.63762e-05
0 -0.000359765 -4.35764e-05 0 -0.000427707 -4.04583e-05
0 -0.00034364 -5.00543e-05 0 -0.00041076 -4.76154e-05
0 -0.000323355 -5.91143e-05 0 -0.000389447 -5.75457e-05
0 -0.000299512 -7.04006e-05 0 -0.000364394 -6.98677e-05
0 -0.000272793 -8.3496e-05 0 -0.00033631 -8.41341e-05
0 -0.000243932 -9.79347e-05 0 -0.00030596 -9.98466e-05
0 -0.000213699 -0.000113217 0 -0.00027415 -0.000116471
0 -0.00018288 -0.000128823 0 -0.0002417 -0.000133453
0 -0.000152257 -0.000144232 0 -0.000209427 -0.000150235
0 -0.000122594 -0.000158929 0 -0.000178131 -0.000166267
0 -9.46136e-05 -0.000172428 0 -0.000148568 -0.000181029
0 -6.8967e-05 -0.000184282 0 -0.000121419 -0.000194044
0 -4.62015e-05 -0.000194099 0 -9.72589e-05 -0.000204892
0 -2.67253e-05 -0.000201555 0 -7.6518e-05 -0.000213229
0 -1.07883e-05 -0.000206403 0 -5.94648e-05 -0.000218791
0 1.50931e-06 -0.000208474 0 -4.62127e-05 -0.000221401
0 1.01915e-05 -0.000207677 0 -3.67468e-05 -0.000220968
0 1.53756e-05 -0.000203995 0 -3.09543e-05 -0.000217476
0 1.72444e-05 -0.000197481 0 -2.86515e-05 -0.000210985
0 1.60294e-05 -0.000188254 0 -2.96017e-05 -0.00020162
0 1.20035e-05 -0.00017649 0 -3.35222e-05 -0.000189573
0 5.47999e-06 -0.000162423 0 -4.00853e-05 -0.000175089
0 -3.1879e-06 -0.000146336 0 -4.892e-05 -0.000158469
0 -1.36139e-05 -0.000128552 0 -5.96194e-05 -0.000140058
0 -2.53847e-05 -0.000109431 0 -7.17467e-05 -0.000120236
0 -3.80629e-05 -8.93607e-05 0 -8.484e-05 -9.94137e-05
0 -5.11882e-05 -6.87457e-05 0 -9.84124e-05 -7.80194e-05
0 -6.42889e-05 -4.80006e-05 0 -0.000111966 -5.64926e-05
0 -7.69056e-05 -2.75374e-05 0 -0.000125014 -3.52699e-05
0 -8.86111e-05 -7.75501e-06 0 -0.000137105 -1.47737e-05
0 -9.89908e-05 1.06568e-05 0 -0.000147784 4.11962e-06
0 -0.00010771 2.73008e-05 0 -0.000156657 2.11782e-05
0 -0.000114482 4.23767e-05 0 -0.000163551 3.66437e-05
0 -0.000119052 5.55554e-05 0 -0.000168066 5.00588e-05
0 -0.000121288 6.66389e-05 0 -0.000167583 6.09579e-05
0 -0.000118449 7.53597e-05 0 -0.000161361 6.84278e-05
0 -0.000111705 8.14544e-05 0 -0.000153987 7.45157e-05
0 -0.00010186 8.52199e-05 0 -0.000143256 7.77113e-05
0 -8.96447e-05 8.66572e-05 0 -0.000129768 7.86701e-05
0 -7.51105e-05 8.59681e-05 0 -0.000113717 7.72145e-05
0 -5.81202e-05 8.3236e-05 0 -9.53708e-05 7.36954e-05
0 -4.15178e-05 7.91299e-05 0 -7.73761e-05 6.8586e-05
0 -2.38365e-05 7.33095e-05 0 -5.76792e-05 6.19688e-05
0 -4.79547e-06 6.61189e-05 0 -3.65772e-05 5.35493e-05
0 1.56601e-05 5.75254e-05 0 -1.44187e-05 4.41379e-05
0 3.68047e-05 4.81919e-05 0 8.38497e-06 3.36856e-05
0 5.80434e-05 3.83723e-05 0 3.15912e-05 2.26302e-05
0 7.92868e-05 2.83147e-05 0 5.4678e-05 1.13929e-05
0 0.000100162 1.83572e-05 0 7.72149e-05 3.79129e-07
0 0.000120085 8.91894e-06 0 9.88009e-05 -1.01336e-05
0 0.000138651 3.09318e-07 0 0.000119045 -1.98184e-05
0 0.000155613 -7.24636e-06 0 0.00013756 -2.83448e-05
0 0.000170657 -1.35062e-05 0 0.000154021 -3.54426e-05
0 0.000183448 -1.82228e-05 0 0.000168164 -4.0899e-05
0 0.000193765 -2.12104e-05 0 0.000179752 -4.45356e-05
0 0.000201471 -2.23575e-05 0 0.000188603 -4.62128e-05
0 0.000206453 -2.16008e-05 0 0.000194615 -4.58496e-05
0 0.000208655 -1.8917e-05 0 0.000197759 -4.34268e-05
0 0.000208115 -1.4333e-05 0 0.000198067 -3.89813e-05
0 0.00020494 -7.93134e-06 0 0.000195639 -3.26035e-05
0 0.000199282 1.51e-07 0 0.000190644 -2.44363e-05
0 0.000191349 9.7298e-06 0 0.000183307 -1.46713e-05
0 0.000181407 2.05307e-05 0 0.000173903 -3.55179e-06
0 0.000169792 3.20232e-05 0 0.000162788 8.25011e-06
0 0.000156796 4.42886e-05 0 0.000150297 2.08368e-05
0 0.000142825 5.69709e-05 0 0.000136805 3.38708e-05
0 0.000128267 6.97692e-05 0 0.000122753 4.70555e-05
0 0.000113568 8.23722e-05 0 0.000108589 6.00279e-05
0 9.91624e-05 9.44667e-05 0 9.47599e-05 7.24629e-05
0 8.54815e-05 0.000105745 0 8.17158e-05 8.40347e-05
0 7.29405e-05 0.000115912 0 6.98834e-05 9.44388e-05
0 6.19358e-05 0.000124701 0 5.96702e-05 0.000103393
0 5.28413e-05 0.000131879 0 5.14569e-05 0.000110647
0 4.60054e-05 0.00013725 0 4.55938e-05 0.000115987
0 4.17459e-05 0.000140655 0 4.23934e-05 0.000119251
0 4.0335e-05 0.000141983 0 4.21172e-05 0.000120324
0 4.19786e-05 0.000141175 0 4.49581e-05 0.000119147
0 4.6803e-05 0.000138192 0 5.103e-05 0.000115666
0 5.48347e-05 0.000133098 0 6.03469e-05 0.000109947
0 6.60007e-05 0.000126025 0 7.28189e-05 0.000102131
0 8.01242e-05 0.000117166 0 8.82576e-05 9.24259e-05
0 9.69307e-05 0.000106774 0 0.000106377 8.10968e-05
0 0.000116052 9.51521e-05 0 0.000126801 6.84628e-05
0 0.000137035 8.26503e-05 0 0.000149068 5.48892e-05
0 0.00015936 6.96485e-05 0 0.000172657 4.07775e-05
0 0.000182492 5.65458e-05 0 0.000197101 2.65386e-05
0 0.000206012 4.37359e-05 0 0.000222005 1.25569e-05
0 0.000229263 3.1638e-05 0 0.000246575 -6.74897e-07
0 0.000251595 2.06609e-05 0 0.000270169 -1.27379e-05
0 0.000272408 1.11785e-05 0 0.000292158 -2.32193e-05
0 0.00029118 3.52831e-06 0 0.000312002 -3.17588e-05
0 0.000307475 -2.00068e-06 0 0.000329236 -3.8046e-05
0 0.000320938 -5.17539e-06 0 0.000343493 -4.18343e-05
0 0.000332241 -6.00556e-06 0 0.000354459 -4.29051e-05
0 0.000340544 -4.21351e-06 0 0.000363375 -4.13918e-05
0 0.00034568 2.80444e-07 0 0.00036889 -3.71336e-05
0 0.00034764 7.40393e-06 0 0.000371256 -3.00592e-05
0 0.000346612 1.70499e-05 0 0.000370334 -2.02968e-05
0 0.000342625 2.90842e-05 0 0.000366352 -7.95828e-06
0 0.000335653 4.33627e-05 0 0.000359262 6.74646e-06
0 0.000325925 5.96288e-05 0 0.000349362 2.35482e-05
0 0.000313817 7.74678e-05 0 0.000336961 4.21066e-05
0 0.00029977 9.60353e-05 0 0.000322555 6.12617e-05
0 0.000284117 0.00011561 0 0.000306497 8.16195e-05
0 0.000267363 0.0001357 0 0.000289271 0.000102433
0 0.000249998 0.000155886 0 0.000271401 0.000123434
0 0.000232535 0.000175776 0 0.00025339 0.000144117
0 0.00021545 0.000194964 0 0.000235739 0.000164091
0 0.000199203 0.000213062 0 0.00021892 0.000182939
0 0.000184224 0.000229696 0 0.000203371 0.000200283
0 0.000170901 0.000244532 0 0.000189493 0.000215768
0 0.000159743 0.000257257 0 0.000177737 0.000229075
0 0.00015132 0.000267592 0 0.000168829 0.000239873
0 0.000145884 0.000275359 0 0.000162999 0.000247962
0 0.000143574 0.000280434 0 0.00016043 0.000253217
0 0.000144432 0.000282757 0 0.000161146 0.000255581
0 0.000148349 0.000282335 0 0.000165037 0.00025507
0 0.000155067 0.0002792 0 0.000171841 0.000251692
0 0.000164191 0.000273532 0 0.00018115 0.000245655
0 0.000175242 0.000265555 0 0.000192464 0.000237201
0 0.000187687 0.000255541 0 0.000205232 0.000226635
0 0.000200965 0.000243806 0 0.000218875 0.000214292
0 0.000214499 0.000230693 0 0.000232792 0.000200537
0 0.000227697 0.000216565 0 0.000246368 0.000185756
0 0.000239971 0.000201783 0 0.00025899 0.000170343
0 0.000250767 0.000186703 0 0.000270083 0.00015468
0 0.000259597 0.000171664 0 0.000279137 0.000139129
0 0.000266045 0.000156977 0 0.000285719 0.000124019
0 0.000269757 0.00014292 0 0.000289459 0.000109643
0 0.000270438 0.000129731 0 0.000290047 9.62532e-05
0 0.000267851 0.0001176 0 0.000287236 8.40553e-05
0 0.000261839 0.00010667 0 0.000280861 7.31995e-05
0 0.000252335 9.70282e-05 0 0.000270855 6.37755e-05
0 0.000239386 8.87032e-05 0 0.000257265 5.58104e-05
0 0.000223151 8.16642e-05 0 0.000240256 4.92675e-05
0 0.000203906 7.58231e-05 0 0.000220114 4.40486e-05
0 0.000182028 7.10415e-05 0 0.00019723 3.99996e-05
0 0.000157974 6.71379e-05 0 0.000172074 3.69195e-05
0 0.000132253 6.3897e-05 0 0.000145177 3.45712e-05
0 0.000105405 6.10801e-05 0 0.000117096 3.26932e-05
0 7.79698e-05 5.84354e-05 0 8.83911e-05 3.10112e-05
0 5.04725e-05 5.57085e-05 0 5.96096e-05 2.92483e-05
0 2.34159e-05 5.26501e-05 0 3.12748e-05 2.71335e-05
0 -2.72614e-06 4.90243e-05 0 3.88093e-06 2.44102e-05
0 -2.74675e-05 4.45899e-05 0 -2.20862e-05 2.05873e-05
0 -4.90397e-05 3.87506e-05 0 -4.37489e-05 1.52739e-05
0 -6.77601e-05 3.16368e-05 0 -6.43387e-05 8.98533e-06
0 -8.43943e-05 2.34734e-05 0 -8.23778e-05 1.44368e-06
0 -0.000101625 1.49055e-05 0 -0.00010189 -6.28528e-06
0 -0.000116625 4.87582e-06 0 -0.000117768 -1.57765e-05
0 -0.000128897 -6.49305e-06 0 -0.000131458 -2.64847e-05
0 -0.000138561 -1.90461e-05 0 -0.000142149 -3.86801e-05
0 -0.000145587 -3.27641e-05 0 -0.000150157 -5.22059e-05
0 -0.000149885 -4.76384e-05 0 -0.00015532 -6.69483e-05
0 -0.00015142 -6.35509e-05 0 -0.000157671 -8.27475e-05
0 -0.00015035 -8.02668e-05 0 -0.000157301 -9.94774e-05
0 -0.000146843 -9.75528e-05 0 -0.000154393 -0.000116919
0 -0.000141044 -0.000115199 0 -0.000149155 -0.000134799
0 -0.000133172 -0.00013296 0 -0.000141825 -0.000152819
0 -0.000123531 -0.000150528 0 -0.000132694 -0.000170684
0 -0.000112448 -0.000167574 0 -0.000122108 -0.000188072
0 -0.000100269 -0.000183776 0 -0.000110457 -0.000204642
0 -8.73843e-05 -0.000198818 0 -9.81471e-05 -0.000220042
0 -7.42129e-05 -0.000212385 0 -8.56031e-05 -0.000233932
0 -6.11724e-05 -0.000224163 0 -7.32607e-05 -0.000245987
0 -4.86749e-05 -0.000233856 0 -6.15537e-05 -0.000255902
0 -3.71294e-05 -0.000241202 0 -5.09024e-05 -0.000263398
0 -2.69327e-05 -0.000245979 0 -4.17086e-05 -0.000268233
0 -1.84565e-05 -0.000248002 0 -3.43496e-05 -0.000270204
0 -1.20461e-05 -0.00024707 0 -2.91719e-05 -0.000269103
0 -7.99717e-06 -0.000243067 0 -2.64732e-05 -0.000264784
0 -6.54167e-06 -0.000235971 0 -2.64694e-05 -0.000257238
0 -7.82909e-06 -0.000225827 0 -2.9305e-05 -0.000246501
0 -1.19249e-05 -0.000212745 0 -3.50352e-05 -0.000232687
0 -1.8803e-05 -0.000196903 0 -4.36233e-05 -0.00021598
0 -2.8343e-05 -0.000178544 0 -5.49385e-05 -0.000196635
0 -4.03335e-05 -0.000157975 0 -6.87602e-05 -0.00017497
0 -5.44824e-05 -0.000135556 0 -8.4788e-05 -0.000151361
0 -7.04347e-05 -0.000111691 0 -0.000102657 -0.000126231
0 -8.77872e-05 -8.68221e-05 0 -0.000121955 -0.000100041
0 -0.000106106 -6.14165e-05 0 -0.000142234 -7.32801e-05
0 -0.000124941 -3.59555e-05 0 -0.000163032 -4.64511e-05
0 -0.000143841 -1.09235e-05 0 -0.000183879 -2.00623e-05
0 -0.000162361 1.32016e-05 0 -0.000204314 5.38564e-06
0 -0.000180075 3.59588e-05 0 -0.000223893 2.941e-05
0 -0.000196551 5.65781e-05 0 -0.000242155 5.10652e-05
0 -0.000211464 7.48903e-05 0 -0.000258752 7.04073e-05
0 -0.000224494 9.07575e-05 0 -0.000273406 8.71887e-05
0 -0.000235403 0.000103875 0 -0.000285814 0.000101109
0 -0.000243968 0.000113994 0 -0.000295768 0.000111917
0 -0.000250054 0.000120955 0 -0.000303121 0.000119437
0 -0.000253584 0.000124653 0 -0.000307789 0.000123551
0 -0.000254544 0.000125018 0 -0.000309763 0.0001242
0 -0.00025299 0.000121994 0 -0.000309094 0.000121312
0 -0.000249056 0.000115672 0 -0.000305918 0.000114994
0 -0.000242947 0.000106205 0 -0.000300445 0.000105389
0 -0.000234931 9.38018e-05 0 -0.000292948 9.27222e-05
0 -0.000225321 7.87176e-05 0 -0.00028375 7.72665e-05
0 -0.000214459 6.12452e-05 0 -0.000273195 5.93152e-05
0 -0.000202734 4.20009e-05 0 -0.000261628 3.95567e-05
0 -0.000190462 2.10687e-05 0 -0.000249467 1.80424e-05
0 -0.000178069 -1.12269e-06 0 -0.000237136 -4.72738e-06
0 -0.000165982 -2.41768e-05 0 -0.000225103 -2.83914e-05
0 -0.000154804 -4.76737e-05 0 -0.000213795 -5.24995e-05
0 -0.000147274 -7.08097e-05 0 -0.000205419 -7.64838e-05
0 -0.000140703 -9.38852e-05 0 -0.000199171 -9.98311e-05
0 -0.000135579 -0.000116361 0 -0.000194336 -0.000122716
0 -0.000132245 -0.000137923 0 -0.000191269 -0.000144533
0 -0.000130911 -0.000158257 0 -0.000190137 -0.000165178
0 -0.000131624 -0.000177195 0 -0.000191171 -0.000184313
0 -0.000134475 -0.000194545 0 -0.000194449 -0.000201735
0 -0.000139551 -0.00021012 0 -0.000199973 -0.000217292
0 -0.000146832 -0.000223788 0 -0.000207729 -0.000230875
0 -0.000155647 -0.000235599 0 -0.000217531 -0.000242422
0 -0.000166069 -0.0002455 0 -0.000229303 -0.000251878
0 -0.000178136 -0.00025343 0 -0.000241878 -0.0002595
0 -0.000191805 -0.000259433 0 -0.000256358 -0.000265066
0 -0.000206851 -0.000263588 0 -0.000272166 -0.000268769
0 -0.000223166 -0.000266024 0 -0.000289521 -0.0002706
0 -0.000240542 -0.000266873 0 -0.000307897 -0.000270804
0 -0.000258649 -0.000266311 0 -0.000326997 -0.000269555
0 -0.00027711 -0.000264545 0 -0.000346481 -0.00026708
0 -0.000295576 -0.0002618 0 -0.000365972 -0.000263612
0 -0.000313671 -0.000258313 0 -0.000385031 -0.000259413
0 -0.000330951 -0.000254325 0 -0.0004032 -0.000254734
0 -0.000346958 -0.00025008 0 -0.000420022 -0.00024984
0 -0.000361272 -0.000245811 0 -0.000435052 -0.000244989
0 -0.000373507 -0.000241733 0 -0.000447873 -0.000240415
0 -0.000383304 -0.000238043 0 -0.000458121 -0.000236322
0 -0.000390363 -0.000234899 0 -0.000465489 -0.00023288
0 -0.000394445 -0.000232418 0 -0.00046973 -0.000230219
0 -0.000395283 -0.000230696 0 -0.000470566 -0.000228441
0 -0.000392753 -0.000229768 0 -0.000467902 -0.000227586
0 -0.000386879 -0.000229615 0 -0.000461752 -0.000227626
0 -0.000377799 -0.000230161 0 -0.000452248 -0.000228491
0 -0.000365746 -0.000231288 0 -0.00043964 -0.000230047
0 -0.000351073 -0.000232832 0 -0.000424304 -0.000232115
0 -0.000334242 -0.000234587 0 -0.000406714 -0.000234472
0 -0.000315776 -0.000236323 0 -0.000387404 -0.000236867
0 -0.000296221 -0.000237794 0 -0.000366943 -0.000239032
0 -0.000276117 -0.000238753 0 -0.000345894 -0.000240697
0 -0.00025598 -0.000238955 0 -0.000324789 -0.000241597
0 -0.000236279 -0.000238176 0 -0.000304117 -0.000241489
0 -0.000217437 -0.000236213 0 -0.00028432 -0.000240151
0 -0.000199833 -0.00023289 0 -0.000265796 -0.000237392
0 -0.000183795 -0.000228067 0 -0.000248887 -0.000233059
0 -0.000169591 -0.000221645 0 -0.000233874 -0.000227041
0 -0.000157428 -0.000213566 0 -0.000220974 -0.000219271
0 -0.000147447 -0.000203818 0 -0.000210333 -0.000209733
0 -0.000139718 -0.000192438 0 -0.000202024 -0.000198462
0 -0.000134234 -0.000179509 0 -0.000196041 -0.000185543
0 -0.000130918 -0.000165163 0 -0.000192302 -0.000171112
0 -0.000129621 -0.000149573 0 -0.000190651 -0.000155352
0 -0.000130127 -0.000132955 0 -0.00019086 -0.000138488
0 -0.000132156 -0.000115559 0 -0.000192639 -0.000120785
0 -0.000135375 -9.76618e-05 0 -0.000195639 -0.000102538
0 -0.000139405 -7.95645e-05 0 -0.000199464 -8.40627e-05
0 -0.000143823 -6.1581e-05 0 -0.000203674 -6.56946e-05
0 -0.00014818 -4.40302e-05 0 -0.000207803 -4.77727e-05
0 -0.000152835 -2.31786e-05 0 -0.000212117 -2.65078e-05
0 -0.000155786 -4.07427e-06 0 -0.000214634 -7.08299e-06
0 -0.00015624 1.27701e-05 0 -0.000214534 9.95365e-06
0 -0.000153559 2.66644e-05 0 -0.000211128 2.36621e-05
0 -0.000147374 3.73311e-05 0 -0.000204059 3.41464e-05
0 -0.000137582 4.50322e-05 0 -0.000193231 4.14379e-05
0 -0.000124216 4.96733e-05 0 -0.00017866 4.5545e-05
0 -0.000107438 5.13508e-05 0 -0.000160511 4.65217e-05
0 -8.75253e-05 5.02595e-05 0 -0.000139076 4.45724e-05
0 -6.48881e-05 4.668e-05 0 -0.000114787 4.0003e-05
0 -3.88601e-05 4.09965e-05 0 -8.27179e-05 3.22388e-05
0 -7.89522e-06 3.3125e-05 0 -4.97908e-05 2.29466e-05
0 1.95096e-05 2.48785e-05 0 -2.09943e-05 1.35495e-05
0 4.55454e-05 1.62624e-05 0 8.94608e-06 3.21618e-06
0 7.10055e-05 7.60977e-06 0 3.69184e-05 -6.70606e-06
0 9.46395e-05 -3.26837e-07 0 6.31094e-05 -1.60987e-05
0 0.000115502 -7.0517e-06 0 8.68409e-05 -2.42074e-05
0 0.000133686 -1.2262e-05 0 0.000107647 -3.05866e-05
0 0.000148724 -1.55046e-05 0 0.000125072 -3.49009e-05
0 0.000160234 -1.653e-05 0 0.000139054 -3.69213e-05
0 0.000168352 -1.53048e-05 0 0.000149394 -3.64645e-05
0 0.000173112 -1.18762e-05 0 0.000156181 -3.35475e-05
0 0.000174581 -6.26457e-06 0 0.000159589 -2.84791e-05
0 0.000173058 1.42652e-06 0 0.000159808 -2.11339e-05
0 0.000168833 1.0967e-05 0 0.000157172 -1.1804e-05
0 0.000162269 2.20868e-05 0 0.000152094 -7.92651e-07
0 0.000153864 3.44323e-05 0 0.000145062 1.15214e-05
0 0.000144173 4.75838e-05 0 0.000136657 2.47119e-05
0 0.000133789 6.1096e-05 0 0.000127502 3.83075e-05
0 0.000123344 7.45209e-05 0 0.000118242 5.18261e-05
0 0.000113457 8.74094e-05 0 0.000109515 6.47882e-05
0 0.000104709 9.93282e-05 0 0.000101924 7.67437e-05
0 9.76214e-05 0.000109888 0 9.60087e-05 8.72839e-05
0 9.26343e-05 0.000118764 0 9.22262e-05 9.60559e-05
0 9.00907e-05 0.000125694 0 9.09393e-05 0.000102781
0 9.0228e-05 0.000130491 0 9.23999e-05 0.000107266
0 9.3178e-05 0.000133055 0 9.67517e-05 0.000109401
0 9.89878e-05 0.00013337 0 0.000104047 0.000109166
0 0.000107636 0.000131501 0 0.000114258 0.000106628
0 0.000119024 0.000127564 0 0.000127271 0.000101905
0 0.000132957 0.000121769 0 0.000142872 9.52192e-05
0 0.000149142 0.00011443 0 0.000160741 8.69008e-05
0 0.000167182 0.000105926 0 0.000180457 7.73538e-05
0 0.000186595 9.66904e-05 0 0.000201512 6.70379e-05
0 0.000206805 8.72018e-05 0 0.000223309 5.6457e-05
0 0.000227162 7.79598e-05 0 0.000245186 4.6139e-05
0 0.00024697 6.94659e-05 0 0.000266437 3.66138e-05
0 0.000265529 6.22003e-05 0 0.000286362 2.83873e-05
0 0.000282193 5.65966e-05 0 0.000304313 2.19166e-05
0 0.000296413 5.30196e-05 0 0.000319739 1.75871e-05
0 0.000307769 5.17476e-05 0 0.000332217 1.5694e-05
0 0.000315999 5.29597e-05 0 0.000341476 1.64282e-05
0 0.000321 5.67291e-05 0 0.000347405 1.98689e-05
0 0.00032282 6.30228e-05 0 0.000350038 2.59848e-05
0 0.000321636 7.17058e-05 0 0.00034955 3.46361e-05
0 0.000317772 8.2328e-05 0 0.000346242 4.54732e-05
0 0.000311608 9.46209e-05 0 0.000340558 5.78313e-05
0 0.000303628 0.000108364 0 0.000332896 7.18348e-05
0 0.00029432 0.000123146 0 0.000323759 8.69767e-05
0 0.00028413 0.000138558 0 0.000313595 0.0001028
0 0.00027359 0.000154145 0 0.000303011 0.00011883
0 0.000264613 0.000169195 0 0.000293035 0.000134575
0 0.000256038 0.00018369 0 0.000284421 0.000149373
0 0.000248064 0.000197128 0 0.000276335 0.000163198
0 0.0002412 0.000209141 0 0.000269124 0.000175597
0 0.000236757 0.000219288 0 0.000264334 0.000186105
0 0.000235026 0.000227395 0 0.000262335 0.000194406
0 0.000236041 0.000233327 0 0.000263187 0.000200397
0 0.000239586 0.000237029 0 0.000266626 0.000204075
0 0.00024526 0.000238587 0 0.000272276 0.000205521
0 0.000252523 0.000238172 0 0.000279552 0.000204909
0 0.000260685 0.00023596 0 0.000287758 0.000202431
0 0.000268961 0.000232228 0 0.000296086 0.000198417
0 0.000276543 0.0002273 0 0.000303697 0.000193215
0 0.000282667 0.000221507 0 0.000309804 0.000187178
0 0.000286683 0.000215146 0 0.000313739 0.000180635
0 0.000288119 0.000208471 0 0.000315007 0.000173867
0 0.000286694 0.000201689 0 0.000313317 0.00016709
0 0.000282301 0.000194943 0 0.000308551 0.000160452
0 0.000274951 0.000188321 0 0.000300715 0.000154043
0 0.000264718 0.00018186 0 0.00028988 0.0001479
0 0.000251725 0.000175551 0 0.000276172 0.00014201
0 0.000236173 0.000169339 0 0.000259797 0.000136309
0 0.000218362 0.000163118 0 0.000241064 0.000130681
0 0.000198676 0.000156748 0 0.00022037 0.000124971
0 0.000177556 0.000150062 0 0.000198171 0.00011899
0 0.000155482 0.000142875 0 0.000174965 0.000112538
0 0.000132967 0.000135001 0 0.000151279 0.000105406
0 0.00011054 0.000126259 0 0.000127661 9.73933e-05
0 8.8699e-05 0.000116496 0 0.000104623 8.8326e-05
0 6.78293e-05 0.000105602 0 8.25618e-05 7.8079e-05
0 4.81437e-05 9.35249e-05 0 6.16989e-05 6.65922e-05
0 2.9702e-05 8.02722e-05 0 4.20994e-05 5.38705e-05
0 8.30313e-06 6.65164e-05 0 1.92793e-05 4.06957e-05
0 -1.1168e-05 5.12124e-05 0 -2.96552e-06 2.6186e-05
0 -2.95678e-05 3.45794e-05 0 -2.38016e-05 1.05321e-05
0 -4.69051e-05 1.70171e-05 0 -4.32194e-05 -6.45204e-06
0 -6.2413e-05 -8.32856e-07 0 -6.07897e-05 -2.35256e-05
0 -7.61348e-05 -1.97069e-05 0 -7.66958e-05 -4.17253e-05
0 -8.82595e-05 -3.92759e-05 0 -9.06293e-05 -6.07287e-05
0 -9.86548e-05 -5.93205e-05 0 -0.00010283 -8.02976e-05
0 -0.000107388 -7.96781e-05 0 -0.000113223 -0.000100289
0 -0.00011458 -0.000100121 0 -0.000121872 -0.000120395
0 -0.000120231 -0.000120366 0 -0.000128856 -0.000140401
0 -0.000124419 -0.000140115 0 -0.000134254 -0.000159983
0 -0.000127264 -0.000159101 0 -0.000138177 -0.000178865
0 -0.000128869 -0.00017704 0 -0.00014076 -0.000196718
0 -0.000129377 -0.000193615 0 -0.000142172 -0.000213252
0 -0.000128936 -0.000208536 0 -0.000142566 -0.000228162
0 -0.00012767 -0.000221547 0 -0.000142108 -0.00024116
0 -0.000125727 -0.000232399 0 -0.00014097 -0.00025198
0 -0.000123294 -0.000240849 0 -0.000139357 -0.000260386
0 -0.000120593 -0.000246697 0 -0.000137506 -0.000266162
0 -0.000117886 -0.00024978 0 -0.00013568 -0.000269126
0 -0.000115429 -0.000249964 0 -0.000134132 -0.000269141
0 -0.000113427 -0.000247098 0 -0.00013307 -0.000266033
0 -0.000112003 -0.000241184 0 -0.000132625 -0.000259806
0 -0.00011122 -0.000232292 0 -0.000132865 -0.00025052
0 -0.000111117 -0.000220552 0 -0.000133836 -0.00023831
0 -0.000111737 -0.000206152 0 -0.00013557 -0.000223369
0 -0.00011311 -0.000189336 0 -0.000138079 -0.000205947
0 -0.000115234 -0.000170403 0 -0.000141341 -0.000186356
0 -0.000118062 -0.000149704 0 -0.000145282 -0.000164958
0 -0.000121502 -0.000127632 0 -0.000149788 -0.000142162
0 -0.000125432 -0.000104619 0 -0.000154706 -0.000118418
0 -0.000129694 -8.11205e-05 0 -0.000159853 -9.42008e-05
0 -0.000134099 -5.76115e-05 0 -0.000165008 -7.00036e-05
0 -0.000138422 -3.45724e-05 0 -0.000169924 -4.63268e-05
0 -0.000142526 -1.2464e-05 0 -0.000174459 -2.36497e-05
0 -0.000146671 8.32304e-06 0 -0.000178988 -2.32685e-06
0 -0.000150209 2.72419e-05 0 -0.00018275 1.704e-05
0 -0.000152456 4.33755e-05 0 -0.000185092 3.33684e-05
0 -0.000152955 5.69769e-05 0 -0.000185584 4.71886e-05
0 -0.000151245 6.77259e-05 0 -0.00018368 5.79756e-05
0 -0.000146954 7.54106e-05 0 -0.000179075 6.55927e-05
0 -0.000139948 7.99636e-05 0 -0.000171604 6.99305e-05
0 -0.000130265 8.14163e-05 0 -0.000161315 7.10134e-05
0 -0.000118129 7.98733e-05 0 -0.000148456 6.89865e-05
0 -0.000103939 7.5528e-05 0 -0.000133432 6.40449e-05
0 -8.82102e-05 6.86769e-05 0 -0.000116773 5.64858e-05
0 -7.15076e-05 5.9708e-05 0 -9.90799e-05 4.67294e-05
0 -5.44112e-05 4.90455e-05 0 -8.09536e-05 3.52413e-05
0 -3.74884e-05 3.71546e-05 0 -6.29893e-05 2.25086e-05
0 -2.13013e-05 2.452e-05 0 -4.57786e-05 9.03555e-06
0 -6.40246e-06 1.16174e-05 0 -2.9902e-05 -4.67134e-06
0 6.69482e-06 -1.10197e-06 0 -1.58984e-05 -1.81275e-05
0 1.75276e-05 -1.31353e-05 0 -4.25032e-06 -3.08136e-05
0 2.57201e-05 -2.41881e-05 0 4.63414e-06 -4.23792e-05
0 3.09504e-05 -3.39734e-05 0 1.04458e-05 -5.25718e-05
0 3.29987e-05 -4.2273e-05 0 1.29431e-05 -6.11446e-05
0 3.17635e-05 -4.89477e-05 0 1.20315e-05 -6.79593e-05
0 2.73063e-05 -5.39509e-05 0 7.78104e-06 -7.29664e-05
0 1.9863e-05 -5.73304e-05 0 4.41531e-07 -7.62326e-05
0 9.84588e-06 -5.92277e-05 0 -9.55312e-06 -7.79064e-05
0 -2.17384e-06 -5.98623e-05 0 -2.16063e-05 -7.82349e-05
0 -1.55022e-05 -5.95175e-05 0 -3.49921e-05 -7.75296e-05
0 -2.83971e-05 -5.85982e-05 0 -4.67611e-05 -7.64049e-05
0 -3.67114e-05 -5.78834e-05 0 -5.45383e-05 -7.58273e-05
0 -4.4498e-05 -5.69434e-05 0 -6.13059e-05 -7.48447e-05
0 -5.15209e-05 -5.60019e-05 0 -6.74206e-05 -7.40182e-05
0 -5.69242e-05 -5.5363e-05 0 -7.15778e-05 -7.34567e-05
0 -5.97506e-05 -5.51615e-05 0 -7.33688e-05 -7.34713e-05
0 -5.98106e-05 -5.54958e-05 0 -7.22e-05 -7.41483e-05
0 -5.68556e-05 -5.64646e-05 0 -6.78657e-05 -7.55565e-05
0 -5.0645e-05 -5.80598e-05 0 -6.02566e-05 -7.76571e-05
0 -4.12769e-05 -6.01364e-05 0 -4.94107e-05 -8.03768e-05
0 -2.89381e-05 -6.25456e-05 0 -3.54835e-05 -8.35465e-05
0 -1.38475e-05 -6.51031e-05 0 -1.87637e-05 -8.6921e-05
0 3.6331e-06 -6.75676e-05 0 3.9934e-07 -9.0232e-05
0 2.30293e-05 -6.97166e-05 0 2.15577e-05 -9.31985e-05
0 4.3924e-05 -7.11066e-05 0 4.42022e-05 -9.55734e-05
0 6.57893e-05 -7.14385e-05 0 6.77868e-05 -9.69523e-05
0 8.80712e-05 -7.03596e-05 0 9.17847e-05 -9.68275e-05
0 0.000110204 -6.75104e-05 0 0.000115605 -9.49314e-05
0 0.000131647 -6.26301e-05 0 0.000138677 -9.09722e-05
0 0.000151951 -5.57822e-05 0 0.000160541 -8.48757e-05
0 0.000170684 -4.66523e-05 0 0.000180791 -7.65629e-05
0 0.000187532 -3.50516e-05 0 0.000199033 -6.56558e-05
0 0.000202251 -2.09668e-05 0 0.000215049 -5.21236e-05
0 0.000214726 -4.4429e-06 0 0.000228702 -3.60443e-05
0 0.000224937 1.43883e-05 0 0.000239962 -1.75443e-05
0 0.000232959 3.53121e-05 0 0.000248899 3.16152e-06
0 0.000238934 5.80373e-05 0 0.000255654 2.57839e-05
0 0.000243039 8.22293e-05 0 0.000260406 4.9971e-05
0 0.00024548 0.000107502 0 0.000263375 7.53208e-05
0 0.0002465 0.000133423 0 0.000264816 0.000101391
0 0.000246373 0.000159529 0 0.00026502 0.000127705
0 0.000245406 0.000185346 0 0.000264312 0.000153766
0 0.000243935 0.000210387 0 0.000263043 0.000179069
0 0.00024231 0.000234175 0 0.000261577 0.000203119
0 0.000240864 0.000256253 0 0.000260261 0.000225444
0 0.000239887 0.000276206 0 0.000259399 0.000245612
0 0.000239606 0.00029367 0 0.00025923 0.000263244
0 0.000240504 0.000304904 0 0.000260085 0.00027623
0 0.000242134 0.000313533 0 0.000262089 0.000284342
0 0.000244627 0.000319907 0 0.00026468 0.000290993
0 0.000247705 0.000324018 0 0.000268071 0.000295023
0 0.000251375 0.000326001 0 0.000272041 0.000296792
0 0.000255529 0.000325675 0 0.000276514 0.000296245
0 0.000260117 0.000322696 0 0.000281447 0.000293051
0 0.00026509 0.000316856 0 0.00028682 0.000286946
0 0.000270355 0.000308432 0 0.000292496 0.000278121
0 0.000275794 0.000297625 0 0.000298347 0.000266869
0 0.00028133 0.000284653 0 0.000304281 0.000253481
0 0.00028702 0.000269831 0 0.00031039 0.000238213
0 0.000292597 0.000253561 0 0.000316361 0.000221444
0 0.000297602 0.000236246 0 0.000321719 0.000203625
0 0.000301496 0.000218298 0 0.000325921 0.000185237
0 0.000303812 0.000200154 0 0.000328469 0.000166715
0 0.000304122 0.000182231 0 0.000328915 0.000148473
0 0.000302073 0.000164882 0 0.000326905 0.000130893
0 0.000297442 0.000148398 0 0.000322198 0.000114301
0 0.000290145 0.000133023 0 0.000314702 9.89388e-05
0 0.000280245 0.000118927 0 0.000304487 8.49633e-05
0 0.000267962 0.000106194 0 0.000291772 7.24591e-05
0 0.000253644 9.48408e-05 0 0.000276914 6.14395e-05
0 0.000237746 8.48281e-05 0 0.000260377 5.18478e-05
0 0.000220785 7.60699e-05 0 0.000242694 4.35748e-05
0 0.000203258 6.84501e-05 0 0.000224373 3.64854e-05
0 0.000185565 6.18426e-05 0 0.000205828 3.04402e-05
0 0.000168001 5.61216e-05 0 0.000187366 2.53015e-05
0 0.000150784 5.11626e-05 0 0.000169216 2.09345e-05
0 0.000134072 4.68446e-05 0 0.000151548 1.72086e-05
0 0.00011798 4.30514e-05 0 0.000134489 1.40006e-05
0 0.00010259 3.96735e-05 0 0.00011813 1.11953e-05
0 8.79579e-05 3.66086e-05 0 0.000102536 8.68581e-06
0 7.41265e-05 3.37622e-05 0 8.77588e-05 6.37287e-06
0 6.11379e-05 3.1048e-05 0 7.38475e-05 4.16576e-06
0 4.90529e-05 2.83855e-05 0 6.08692e-05 1.9808e-06
0 3.79288e-05 2.59542e-05 0 4.89021e-05 -9.34162e-08
0 2.78912e-05 2.35253e-05 0 3.80072e-05 -2.04575e-06
0 1.89556e-05 2.09669e-05 0 2.83012e-05 -4.22014e-06
0 1.10659e-05 1.82617e-05 0 1.96588e-05 -6.60092e-06
0 4.01592e-06 1.54091e-05 0 1.18991e-05 -9.15292e-06
0 -2.338e-06 1.24165e-05 0 4.98339e-06 -1.19415e-05
0 -9.77936e-06 9.52997e-06 0 -2.84422e-06 -1.48376e-05
0 -1.77624e-05 6.44701e-06 0 -1.29187e-05 -1.70902e-05
0 -2.57474e-05 3.2331e-06 0 -2.19606e-05 -1.98194e-05
0 -3.30421e-05 -1.16653e-07 0 -3.02266e-05 -2.29014e-05
0 -3.94115e-05 -3.7546e-06 0 -3.75317e-05 -2.61726e-05
0 -4.50741e-05 -7.68816e-06 0 -4.38964e-05 -2.98455e-05
0 -4.9749e-05 -1.19303e-05 0 -4.90925e-05 -3.38691e-05
0 -5.32998e-05 -1.6453e-05 0 -5.31509e-05 -3.82574e-05
0 -5.57235e-05 -2.12519e-05 0 -5.58611e-05 -4.30079e-05
0 -5.68673e-05 -2.63225e-05 0 -5.72087e-05 -4.80559e-05
0 -5.66637e-05 -3.15815e-05 0 -5.71384e-05 -5.33524e-05
0 -5.51458e-05 -3.6925e-05 0 -5.56606e-05 -5.88078e-05
0 -5.22844e-05 -4.22737e-05 0 -5.276e-05 -6.43162e-05
0 -4.81852e-05 -4.74993e-05 0 -4.8602e-05 -6.97216e-05
0 -4.30807e-05 -5.24237e-05 0 -4.33853e-05 -7.48664e-05
0 -3.72119e-05 -5.68764e-05 0 -3.73599e-05 -7.95679e-05
0 -3.08311e-05 -6.06922e-05 0 -3.07933e-05 -8.36379e-05
0 -2.42116e-05 -6.36979e-05 0 -2.39515e-05 -8.68982e-05
0 -1.76061e-05 -6.57313e-05 0 -1.70925e-05 -8.91825e-05
0 -1.1412e-05 -6.65987e-05 0 -1.05914e-05 -9.02998e-05
0 -5.81542e-06 -6.61592e-05 0 -4.71843e-06 -9.00506e-05
0 -8.09857e-07 -6.43618e-05 0 5.31985e-07 -8.83965e-05
0 3.67436e-06 -6.11829e-05 0 5.22848e-06 -8.53199e-05
0 7.69619e-06 -5.66338e-05 0 9.42338e-06 -8.08354e-05
0 1.12714e-05 -5.07563e-05 0 1.31282e-05 -7.49778e-05
0 1.43656e-05 -4.36086e-05 0 1.63068e-05 -6.78051e-05
0 1.68996e-05 -3.52661e-05 0 1.88805e-05 -5.93973e-05
0 1.87649e-05 -2.58706e-05 0 2.07505e-05 -4.98614e-05
0 1.98998e-05 -1.55286e-05 0 2.1844e-05 -3.93382e-05
0 2.03027e-05 -4.40642e-06 0 2.21756e-05 -2.79913e-05
0 2.00674e-05 7.28975e-06 0 2.18457e-05 -1.60321e-05
0 1.93435e-05 1.93369e-05 0 2.10021e-05 -3.71651e-06
0 1.83289e-05 3.1234e-05 0 1.98652e-05 8.39335e-06
0 1.7216e-05 4.299e-05 0 1.8633e-05 2.041e-05
0 1.6258e-05 5.43639e-05 0 1.75611e-05 3.19985e-05
0 1.57126e-05 6.51203e-05 0 1.69192e-05 4.29648e-05
0 1.5819e-05 7.50545e-05 0 1.69564e-05 5.30727e-05
0 1.67843e-05 8.39843e-05 0 1.78701e-05 6.21241e-05
0 1.87622e-05 9.17543e-05 0 1.98382e-05 6.99691e-05
0 2.18429e-05 9.8258e-05 0 2.29405e-05 7.64941e-05
0 2.60263e-05 0.000103444 0 2.71853e-05 8.1641e-05
0 3.12133e-05 0.000107309 0 3.24481e-05 8.54132e-05
0 3.72253e-05 0.000109893 0 3.85443e-05 8.78631e-05
0 4.38207e-05 0.000111281 0 4.52267e-05 8.90845e-05
0 4.916e-05 0.000111818 0 5.05947e-05 8.94264e-05
0 5.3365e-05 0.000111504 0 5.42593e-05 8.91736e-05
0 5.66825e-05 0.000110315 0 5.71197e-05 8.804e-05
0 5.90705e-05 0.000108477 0 5.90969e-05 8.62028e-05
0 6.0234e-05 0.000106045 0 5.97616e-05 8.38136e-05
0 5.99323e-05 0.000103086 0 5.89506e-05 8.09428e-05
0 5.80003e-05 9.96934e-05 0 5.64885e-05 7.77012e-05
0 5.43093e-05 9.59559e-05 0 5.22535e-05 7.4122e-05
0 4.88005e-05 9.18898e-05 0 4.62244e-05 7.02503e-05
0 4.15013e-05 8.74822e-05 0 3.84186e-05 6.60842e-05
0 3.2506e-05 8.27175e-05 0 2.89616e-05 6.15883e-05
0 2.23928e-05 7.74819e-05 0 1.81319e-05 5.66848e-05
0 1.09711e-05 7.1711e-05 0 6.08736e-06 5.12979e-05
0 -2.00671e-06 6.54535e-05 0 -7.45768e-06 4.52677e-05
0 -1.60595e-05 5.85346e-05 0 -2.18917e-05 3.85808e-05
0 -3.04501e-05 5.06376e-05 0 -3.67266e-05 3.10709e-05
0 -4.45794e-05 4.18943e-05 0 -5.12174e-05 2.25349e-05
0 -5.78313e-05 3.26316e-05 0 -6.47262e-05 1.35579e-05
0 -6.93284e-05 2.21008e-05 0 -7.64206e-05 3.17311e-06
0 -7.85107e-05 1.03278e-05 0 -8.57211e-05 -8.50624e-06
0 -8.49708e-05 -2.68015e-06 0 -9.21561e-05 -2.1557e-05
0 -8.84041e-05 -1.687e-05 0 -9.5458e-05 -3.59033e-05
0 -8.87157e-05 -3.20826e-05 0 -9.55161e-05 -5.13751e-05
0 -8.59598e-05 -4.80586e-05 0 -9.23879e-05 -6.77488e-05
0 -8.0293e-05 -6.45076e-05 0 -8.62502e-05 -8.46966e-05
0 -7.19904e-05 -8.10791e-05 0 -7.73931e-05 -0.000101844
0 -6.14591e-05 -9.73526e-05 0 -6.62386e-05 -0.000118759
0 -4.92377e-05 -0.000112866 0 -5.33549e-05 -0.000134965
0 -3.59712e-05 -0.000127148 0 -3.94146e-05 -0.000149952
0 -2.23505e-05 -0.000139729 0 -2.51358e-05 -0.000163212
0 -9.06002e-06 -0.000150155 0 -1.12305e-05 -0.000174266
0 3.26096e-06 -0.000158014 0 1.63642e-06 -0.000182679
0 1.40483e-05 -0.000162966 0 1.28777e-05 -0.000188083
0 2.28254e-05 -0.00016473 0 2.1998e-05 -0.00019018
0 2.92032e-05 -0.000162995 0 2.85872e-05 -0.000188621
0 3.29176e-05 -0.000157681 0 3.23761e-05 -0.000183332
0 3.38359e-05 -0.00014883 0 3.32286e-05 -0.00017434
0 3.19768e-05 -0.000136594 0 3.11678e-05 -0.000161808
0 2.75292e-05 -0.000121251 0 2.63939e-05 -0.000146021
0 2.08488e-05 -0.000103183 0 1.92808e-05 -0.000127381
0 1.24253e-05 -8.28613e-05 0 1.03409e-05 -0.000106388
0 2.83203e-06 -6.08296e-05 0 1.73135e-07 -8.3616e-05
0 -7.32313e-06 -3.76794e-05 0 -1.05865e-05 -5.96858e-05
0 -1.74145e-05 -1.40285e-05 0 -2.12821e-05 -3.52475e-05
0 -2.68036e-05 9.47212e-06 0 -3.12441e-05 -1.10061e-05
0 -3.47915e-05 3.1323e-05 0 -3.96908e-05 1.13948e-05
0 -4.09319e-05 5.2063e-05 0 -4.62699e-05 3.27598e-05
0 -4.48251e-05 7.11345e-05 0 -5.04514e-05 5.22718e-05
0 -4.62079e-05 8.80842e-05 0 -5.20114e-05 6.96173e-05
0 -4.49577e-05 0.000102699 0 -5.07981e-05 8.44853e-05
0 -4.10668e-05 0.000114781 0 -4.65506e-05 9.66258e-05
0 -3.44102e-05 0.000124139 0 -3.94846e-05 0.00010588
0 -2.51219e-05 0.000130741 0 -2.98745e-05 0.000112259
0 -1.34944e-05 0.000134672 0 -1.77918e-05 0.000115861
0 1.56457e-07 0.000136072 0 -3.61232e-06 0.000116801
0 1.52204e-05 0.000135171 0 1.22613e-05 0.000115304
0 3.14271e-05 0.000132212 0 2.92814e-05 0.000111722
0 4.7901e-05 0.000127535 0 4.64491e-05 0.000106347
0 6.45088e-05 0.00012141 0 6.36867e-05 9.95704e-05
0 8.05859e-05 0.00011426 0 8.03267e-05 9.17687e-05
0 9.55438e-05 0.000106501 0 9.58345e-05 8.33754e-05
0 0.000108857 9.85183e-05 0 0.000109623 7.48108e-05
0 0.000120015 9.0681e-05 0 0.000121191 6.64696e-05
0 0.000128608 8.33168e-05 0 0.000130112 5.8692e-05
0 0.000134325 7.66952e-05 0 0.000136053 5.17672e-05
0 0.000136943 7.10223e-05 0 0.000138789 4.59092e-05
0 0.000136316 6.64387e-05 0 0.000138171 4.12655e-05
0 0.000132322 6.3022e-05 0 0.000134056 3.79207e-05
0 0.000124924 6.07666e-05 0 0.000126384 3.58814e-05
0 0.000114294 5.95803e-05 0 0.000115348 3.50439e-05
0 0.000100742 5.92934e-05 0 0.000101273 3.52227e-05
0 8.47398e-05 5.96624e-05 0 8.46553e-05 3.61513e-05
0 6.74468e-05 6.03261e-05 0 6.69845e-05 3.73611e-05
0 4.91021e-05 6.09945e-05 0 4.79712e-05 3.86542e-05
0 3.02929e-05 6.13444e-05 0 2.86059e-05 3.96172e-05
0 1.17618e-05 6.10179e-05 0 9.49839e-06 3.98928e-05
0 -5.80308e-06 5.9698e-05 0 -8.60063e-06 3.91265e-05
0 -2.16796e-05 5.70721e-05 0 -2.46795e-05 3.68459e-05
0 -3.50033e-05 5.28786e-05 0 -3.82788e-05 3.2862e-05
0 -4.55495e-05 4.68989e-05 0 -4.93529e-05 2.71872e-05
0 -5.3267e-05 3.92237e-05 0 -5.74166e-05 1.96635e-05
0 -5.76596e-05 2.98443e-05 0 -6.19673e-05 1.02653e-05
0 -5.85884e-05 1.92628e-05 0 -6.30439e-05 -4.46173e-07
0 -5.616e-05 7.29848e-06 0 -6.06109e-05 -1.26771e-05
0 -5.08802e-05 -5.74596e-06 0 -5.4891e-05 -2.60826e-05
0 -4.56519e-05 -1.91878e-05 0 -5.0067e-05 -3.98607e-05
0 -3.81831e-05 -3.30814e-05 0 -4.23242e-05 -5.4169e-05
0 -2.89616e-05 -4.70646e-05 0 -3.35773e-05 -6.84056e-05
0 -1.86664e-05 -6.0582e-05 0 -2.35192e-05 -8.23534e-05
0 -7.78101e-06 -7.32921e-05 0 -1.3066e-05 -9.54241e-05
0 3.05813e-06 -8.47739e-05 0 -2.73646e-06 -0.000107186
0 1.31037e-05 -9.45588e-05 0 6.70367e-06 -0.000117195
0 2.1677e-05 -0.00010226 0 1.45928e-05 -0.000125065
0 2.81529e-05 -0.000107584 0 2.02959e-05 -0.00013043
0 3.19661e-05 -0.000110284 0 2.32808e-05 -0.000133047
0 3.27007e-05 -0.000110192 0 2.31491e-05 -0.00013275
0 3.01281e-05 -0.00010719 0 1.96733e-05 -0.000129413
0 2.42352e-05 -0.000101365 0 1.28612e-05 -0.000123116
0 1.52028e-05 -9.29191e-05 0 2.89362e-06 -0.00011407
0 3.36906e-06 -8.21558e-05 0 -9.88233e-06 -0.000102603
0 -1.07953e-05 -6.94803e-05 0 -2.49847e-05 -8.91408e-05
0 -2.69005e-05 -5.53515e-05 0 -4.2108e-05 -7.41457e-05
0 -4.44313e-05 -4.03073e-05 0 -6.06907e-05 -5.81526e-05
0 -6.24263e-05 -2.49517e-05 0 -7.97238e-05 -4.1842e-05
0 -7.98953e-05 -9.9083e-06 0 -9.81894e-05 -2.58725e-05
0 -9.58867e-05 4.2179e-06 0 -0.000115102 -1.08942e-05
0 -0.000109522 1.68662e-05 0 -0.000129551 2.49984e-06
0 -0.000120053 2.75581e-05 0 -0.000140769 1.37998e-05
0 -0.00012693 3.58863e-05 0 -0.000148187 2.25416e-05
0 -0.000129843 4.15453e-05 0 -0.000151462 2.83874e-05
0 -0.000128725 4.4529e-05 0 -0.00015057 3.14386e-05
0 -0.000125666 4.52614e-05 0 -0.000146877 3.18388e-05
0 -0.000119705 4.33478e-05 0 -0.000141312 2.99819e-05
0 -0.000110847 3.90874e-05 0 -0.00013268 2.55045e-05
0 -9.95167e-05 3.28246e-05 0 -0.000121381 1.88182e-05
0 -8.62338e-05 2.48896e-05 0 -0.000108089 1.04156e-05
0 -7.15901e-05 1.56058e-05 0 -9.34683e-05 6.48e-07
0 -5.63503e-05 5.43793e-06 0 -7.81971e-05 -1.00196e-05
0 -4.12455e-05 -5.12766e-06 0 -6.30619e-05 -2.11277e-05
0 -2.69836e-05 -1.56459e-05 0 -4.87861e-05 -3.21547e-05
0 -1.42511e-05 -2.56773e-05 0 -3.60681e-05 -4.26337e-05
0 -3.64991e-06 -3.48021e-05 0 -2.55179e-05 -5.21344e-05
0 4.32303e-06 -4.2667e-05 0 -1.76627e-05 -6.02866e-05
0 9.27655e-06 -4.90004e-05 0 -1.2898e-05 -6.67915e-05
0 1.095e-05 -5.36078e-05 0 -1.14968e-05 -7.144e-05
0 9.21441e-06 -5.63739e-05 0 -1.35965e-05 -7.41175e-05
0 4.34121e-06 -5.73202e-05 0 -1.91407e-05 -7.48105e-05
0 -3.2714e-06 -5.66026e-05 0 -2.79304e-05 -7.35857e-05
0 -1.36495e-05 -5.42445e-05 0 -3.89187e-05 -7.07851e-05
0 -2.66188e-05 -5.04554e-05 0 -5.26714e-05 -6.64163e-05
0 -4.16435e-05 -4.5547e-05 0 -6.8603e-05 -6.08561e-05
0 -5.8551e-05 -3.98359e-05 0 -8.65251e-05 -5.43857e-05
0 -7.69764e-05 -3.36758e-05 0 -0.000105957 -4.74305e-05
0 -9.62998e-05 -2.75043e-05 0 -0.000126317 -4.04352e-05
0 -0.000115877 -2.17666e-05 0 -0.000146897 -3.3882e-05
0 -0.00013496 -1.69144e-05 0 -0.000166891 -2.82615e-05
0 -0.000152721 -1.33868e-05 0 -0.00018546 -2.40454e-05
0 -0.000168412 -1.15693e-05 0 -0.00020182 -2.16543e-05
0 -0.000181437 -1.17718e-05 0 -0.000215339 -2.14257e-05
0 -0.000191363 -1.42135e-05 0 -0.000225569 -2.35946e-05
0 -0.000197786 -1.89677e-05 0 -0.000232091 -2.82907e-05
0 -0.00020039 -2.59716e-05 0 -0.000234623 -3.5326e-05
0 -0.000199158 -3.52761e-05 0 -0.000233099 -4.48789e-05
0 -0.000194239 -4.66893e-05 0 -0.000227683 -5.67028e-05
0 -0.000185903 -5.99339e-05 0 -0.000218659 -7.05073e-05
0 -0.000174514 -7.46553e-05 0 -0.000206408 -8.59247e-05
0 -0.000160489 -9.04239e-05 0 -0.000191358 -0.000102506
0 -0.000144259 -0.000106767 0 -0.000173975 -0.000119758
0 -0.000126283 -0.000123177 0 -0.000154744 -0.000137142
0 -0.00010706 -0.000139122 0 -0.000134193 -0.0001541
0 -8.71095e-05 -0.000154058 0 -0.000112878 -0.000170062
0 -6.69423e-05 -0.000167458 0 -9.13417e-05 -0.000184472
0 -4.70287e-05 -0.000178824 0 -7.00861e-05 -0.000196805
0 -2.78012e-05 -0.000187701 0 -4.95742e-05 -0.00020658
0 -9.67893e-06 -0.000193685 0 -3.02529e-05 -0.000213372
0 6.92083e-06 -0.000196384 0 -1.25623e-05 -0.000216776
0 2.16162e-05 -0.00019549 0 3.08735e-06 -0.000216443
0 3.32502e-05 -0.000190691 0 1.53647e-05 -0.00021204
0 4.18715e-05 -0.000181985 0 2.5139e-05 -0.000203592
0 5.04428e-05 -0.000169792 0 3.54523e-05 -0.000191919
0 5.71405e-05 -0.000154071 0 4.23732e-05 -0.000176093
0 6.12091e-05 -0.000134888 0 4.70568e-05 -0.000156913
0 6.3013e-05 -0.000112633 0 4.93483e-05 -0.000134412
0 6.28949e-05 -8.77865e-05 0 4.95065e-05 -0.000109137
0 6.10064e-05 -6.07034e-05 0 4.78177e-05 -8.15686e-05
0 5.76849e-05 -3.19859e-05 0 4.46391e-05 -5.2366e-05
0 5.34563e-05 -3.67821e-06 0 4.04926e-05 -2.36032e-05
0 4.84488e-05 2.50686e-05 0 3.55774e-05 5.78419e-06
0 4.30325e-05 5.37136e-05 0 3.02765e-05 3.48249e-05
0 3.75939e-05 8.16641e-05 0 2.49861e-05 6.33165e-05
0 3.25173e-05 0.000108413 0 2.01438e-05 9.0527e-05
0 2.82503e-05 0.000133447 0 1.62221e-05 0.000115908
0 2.52828e-05 0.000156216 0 1.37071e-05 0.00013896
0 2.40752e-05 0.000176258 0 1.3072e-05 0.000159184
0 2.50248e-05 0.000193218 0 1.47244e-05 0.000176185
0 2.84424e-05 0.000206809 0 1.89598e-05 0.000189655
0 3.45261e-05 0.000216813 0 2.59724e-05 0.000199404
0 4.33535e-05 0.000223138 0 3.5833e-05 0.000205342
0 5.48631e-05 0.00022582 0 4.84674e-05 0.000207482
0 6.88289e-05 0.000224991 0 6.36401e-05 0.000205968
0 8.48631e-05 0.000220853 0 8.09532e-05 0.000201035
0 0.000102454 0.000213624 0 9.98959e-05 0.000192899
0 0.000120995 0.000203737 0 0.00011985 0.000182025
0 0.000139849 0.000191675 0 0.000140169 0.000168912
0 0.000158385 0.000177951 0 0.000160205 0.000154113
0 0.000175976 0.000163105 0 0.000179315 0.000138197
0 0.000192037 0.000147679 0 0.000196898 0.000121724
0 0.00020607 0.000132182 0 0.000212437 0.000105233
0 0.000217713 0.000117075 0 0.000225549 8.92105e-05
0 0.000226745 0.000102764 0 0.000235986 7.4079e-05
0 0.000233067 8.95895e-05 0 0.000243624 6.01916e-05
0 0.000236677 7.78207e-05 0 0.00024844 4.78285e-05
0 0.000237642 6.76584e-05 0 0.000250486 3.71969e-05
0 0.00023606 5.92393e-05 0 0.000249856 2.84331e-05
0 0.000232056 5.26346e-05 0 0.00024668 2.16042e-05
0 0.000225798 4.7846e-05 0 0.000241144 1.6705e-05
0 0.000217538 4.4806e-05 0 0.000233518 1.36561e-05
0 0.00020762 4.33809e-05 0 0.000224165 1.23072e-05
0 0.000196492 4.33748e-05 0 0.000213552 1.24436e-05
0 0.000184702 4.45406e-05 0 0.000202241 1.37971e-05
0 0.00017286 4.65971e-05 0 0.00019085 1.60638e-05
0 0.00016159 4.92484e-05 0 0.000180015 1.89247e-05
0 0.000151498 5.22013e-05 0 0.000170346 2.20646e-05
0 0.000143143 5.51821e-05 0 0.00016241 2.51906e-05
0 0.000137016 5.79522e-05 0 0.000156701 2.80469e-05
0 0.00013352 6.03209e-05 0 0.000153623 3.04293e-05
0 0.000132949 6.21569e-05 0 0.000153467 3.21976e-05
0 0.000135465 6.33968e-05 0 0.000156391 3.32845e-05
0 0.000141087 6.405e-05 0 0.000162407 3.37005e-05
0 0.000149802 6.41842e-05 0 0.00017151 3.35193e-05
0 0.000161992 6.38636e-05 0 0.000184198 3.27634e-05
0 0.00017721 6.33472e-05 0 0.000199947 3.17162e-05
0 0.000194705 6.29529e-05 0 0.000217993 3.07149e-05
0 0.000213562 6.30416e-05 0 0.000237404 3.01806e-05
0 0.000232769 6.40155e-05 0 0.000257139 3.05443e-05
0 0.000251294 6.62722e-05 0 0.000276132 3.22373e-05
0 0.000268243 7.01464e-05 0 0.00029346 3.56337e-05
0 0.000282841 7.59087e-05 0 0.000308305 4.10467e-05
0 0.000294448 8.37576e-05 0 0.000320013 4.8692e-05
0 0.000302623 9.37888e-05 0 0.000328123 5.86814e-05
0 0.000307114 0.000105988 0 0.000332366 7.1014e-05
0 0.000307822 0.000120241 0 0.000332642 8.55771e-05
0 0.000304793 0.000136335 0 0.000328993 0.000102152
0 0.00029819 0.000153963 0 0.000321585 0.000120422
0 0.000288252 0.000172695 0 0.000310664 0.000139982
0 0.000275314 0.000191354 0 0.000296605 0.000159499
0 0.000259532 0.000210359 0 0.00027954 0.00017958
0 0.000241164 0.000229156 0 0.000259778 0.000199424
0 0.000220497 0.00024723 0 0.000237599 0.000218671
0 0.000197869 0.000264078 0 0.000213373 0.000236719
0 0.000173703 0.000279151 0 0.000187543 0.000253024
0 0.000148505 0.000291895 0 0.000160645 0.000267015
0 0.000122826 0.000301799 0 0.000133259 0.000278137
0 9.72163e-05 0.000308352 0 0.000105835 0.000285871
0 6.6462e-05 0.000311582 0 7.04771e-05 0.000291019
0 3.61879e-05 0.000310455 0 3.96312e-05 0.00029097
0 1.09764e-05 0.000304076 0 1.23794e-05 0.000285451
0 -1.13225e-05 0.000292427 0 -1.29941e-05 0.000275155
0 -3.16237e-05 0.000275778 0 -3.5412e-05 0.000259193
0 -4.87418e-05 0.000253881 0 -5.45999e-05 0.00023802
0 -6.2513e-05 0.000227016 0 -7.07521e-05 0.000211698
0 -7.35482e-05 0.000195584 0 -8.36465e-05 0.000180349
0 -8.17481e-05 0.0001597 0 -9.37044e-05 0.000144496
0 -8.73234e-05 0.000120201 0 -0.00010108 0.000105039
0 -9.08118e-05 7.78898e-05 0 -0.000106129 6.24855e-05
0 -9.2715e-05 3.5326e-05 0 -0.000109477 1.954e-05
0 -9.31699e-05 -8.24777e-06 0 -0.000111513 -2.42912e-05
0 -9.276e-05 -5.2316e-05 0 -0.000112546 -6.84403e-05
0 -9.17891e-05 -9.61688e-05 0 -0.000113031 -0.000112729
0 -9.06957e-05 -0.000139149 0 -0.000113489 -0.000155921
0 -8.9958e-05 -0.000180489 0 -0.000114405 -0.000197462
0 -9.00391e-05 -0.000219422 0 -0.000116266 -0.000236521
0 -9.14076e-05 -0.000255285 0 -0.000119603 -0.000272433
0 -9.4512e-05 -0.000287517 0 -0.000124863 -0.000304527
0 -9.97275e-05 -0.000315594 0 -0.00013244 -0.000332287
0 -0.000107336 -0.000339071 0 -0.000142625 -0.000355303
0 -0.000117896 -0.000353753 0 -0.000155906 -0.000369819
0 -0.000130925 -0.000363468 0 -0.000172226 -0.000377945
0 -0.000146509 -0.000369315 0 -0.000190979 -0.000382728
0 -0.0001643 -0.000371377 0 -0.000212259 -0.000383531
0 -0.000184202 -0.000370041 0 -0.000235739 -0.000380754
0 -0.000205847 -0.000365364 0 -0.00026109 -0.000374564
0 -0.000228901 -0.000357203 0 -0.000287927 -0.000364816
0 -0.000252922 -0.000345506 0 -0.000315821 -0.000351467
0 -0.000277328 -0.000330958 0 -0.00034415 -0.000335113
0 -0.000301863 -0.000314129 0 -0.000372476 -0.000316434
0 -0.000332471 -0.000294756 0 -0.000407697 -0.000294952
0 -0.000349944 -0.00027668 0 -0.000437135 -0.000273223
0 -0.000348983 -0.000261806 0 -0.000459846 -0.000251232
0 -0.000347661 -0.000245692 0 -0.000454035 -0.000235812
0 -0.000353961 -0.000227779 0 -0.000455801 -0.000219475
0 -0.000353943 -0.000212507 0 -0.000460961 -0.000202197
0 -0.000350336 -0.000198884 0 -0.000459977 -0.00018727
0 -0.000351033 -0.000185126 0 -0.000462443 -0.000172851
0 -0.000349857 -0.000172953 0 -0.000462946 -0.000160297
0 -0.000345569 -0.000163186 0 -0.00046313 -0.000149148
0 -0.000342154 -0.00015496 0 -0.00046402 -0.000139518
0 -0.000338629 -0.000148302 0 -0.000463336 -0.000132205
0 -0.000333294 -0.000143815 0 -0.000462055 -0.000126715
0 -0.000326935 -0.000141309 0 -0.000457773 -0.000123762
0 -0.000318572 -0.000140865 0 -0.000450843 -0.000123074
0 -0.000307822 -0.000142393 0 -0.000441959 -0.000124419
0 -0.000295669 -0.000145601 0 -0.00043135 -0.000127573
0 -0.000282659 -0.000150211 0 -0.000419584 -0.000132208
0 -0.000269104 -0.000155894 0 -0.000407327 -0.000137929
0 -0.000255734 -0.000162231 0 -0.000395115 -0.000144389
0 -0.000243124 -0.000168887 0 -0.000383518 -0.000151185
0 -0.000231718 -0.000175533 0 -0.000373123 -0.000157921
0 -0.000222059 -0.000181802 0 -0.000364415 -0.00016426
0 -0.00021458 -0.000187397 0 -0.000357823 -0.000169898
0 -0.000209592 -0.000192102 0 -0.000353711 -0.000174571
0 -0.000207361 -0.000195734 0 -0.000352324 -0.000178094
0 -0.000208038 -0.000198174 0 -0.000353812 -0.000180358
0 -0.000211646 -0.000199393 0 -0.000358215 -0.000181322
0 -0.000218112 -0.000199433 0 -0.000365458 -0.000181027
0 -0.000227248 -0.000198405 0 -0.000375361 -0.000179589
0 -0.000238766 -0.000196482 0 -0.000387645 -0.000177192
0 -0.000252301 -0.000193898 0 -0.000401945 -0.000174081
0 -0.000267703 -0.00019089 0 -0.000418188 -0.000170496
0 -0.000281807 -0.000188344 0 -0.000435429 -0.000166784
0 -0.00029364 -0.000186698 0 -0.000453578 -0.000163131
0 -0.000307828 -0.000185209 0 -0.000472528 -0.000159977
0 -0.00032413 -0.000183202 0 -0.000490728 -0.000155853
0 -0.000340327 -0.000180824 0 -0.000503873 -0.000143107
0 -0.000356754 -0.000179955 0 -0.000518502 -0.000136633
0 -0.00037215 -0.00018103 0 -0.000531348 -0.000131983
0 -0.000385074 -0.00018447 0 -0.000541933 -0.000129344
0 -0.00039565 -0.000190364 0 -0.000550792 -0.000131339
0 -0.000403394 -0.000198774 0 -0.000556403 -0.000136314
0 -0.000407488 -0.000209948 0 -0.000559169 -0.0001456
0 -0.000407555 -0.000222858 0 -0.000558412 -0.000158838
0 -0.000404184 -0.000238712 0 -0.000554032 -0.000175941
0 -0.000396405 -0.000257083 0 -0.000545049 -0.000194792
0 -0.000384455 -0.000276973 0 -0.000531582 -0.000215369
0 -0.000368548 -0.000297519 0 -0.000513892 -0.000237164
0 -0.000349036 -0.00031733 0 -0.000492397 -0.000259182
0 -0.000326659 -0.000334354 0 -0.000467744 -0.000279423
0 -0.000301714 -0.000350869 0 -0.000440566 -0.000296904
0 -0.000274887 -0.000366351 0 -0.000411499 -0.000313803
0 -0.000246867 -0.000380654 0 -0.000381216 -0.000329241
0 -0.000218412 -0.000393228 0 -0.000350464 -0.000342809
0 -0.000190252 -0.000403349 0 -0.000319945 -0.000354115
0 -0.000162946 -0.00041059 0 -0.00029035 -0.00036267
0 -0.000137115 -0.000413946 0 -0.000262312 -0.000367254
0 -0.000113218 -0.000412886 0 -0.000236362 -0.000367112
0 -9.16375e-05 -0.000407052 0 -0.000212862 -0.000362041
0 -7.26401e-05 -0.000396243 0 -0.000192107 -0.000351925
0 -5.63571e-05 -0.000380538 0 -0.000174249 -0.000336695
0 -3.56232e-05 -0.000361417 0 -0.000154958 -0.000316899
0 -1.69234e-05 -0.000337076 0 -0.000137141 -0.000292837
0 -1.53889e-06 -0.000308425 0 -0.00012175 -0.000263881
0 6.42065e-06 -0.000274876 0 -0.000110802 -0.000230671
0 1.19704e-05 -0.000237714 0 -0.000101421 -0.000194124
0 1.6311e-05 -0.000197845 0 -9.50169e-05 -0.000154132
0 1.81847e-05 -0.000155574 0 -9.054e-05 -0.000111945
0 1.81376e-05 -0.00011176 0 -8.77472e-05 -6.81256e-05
0 1.75064e-05 -7.12775e-05 0 -8.61482e-05 -2.78636e-05
0 1.57824e-05 -3.14469e-05 0 -8.54429e-05 1.22139e-05
0 1.34753e-05 7.71648e-06 0 -8.50966e-05 5.1052e-05
0 1.12132e-05 4.55735e-05 0 -8.50561e-05 8.92075e-05
0 9.17134e-06 8.17968e-05 0 -8.45789e-05 0.000125389
0 7.66062e-06 0.000115792 0 -8.34086e-05 0.000159212
0 7.14587e-06 0.000146921 0 -8.12182e-05 0.000190105
0 7.78679e-06 0.000174504 0 -7.78818e-05 0.000216972
0 9.83527e-06 0.000198303 0 -7.29771e-05 0.00023927
0 1.36371e-05 0.000218096 0 -6.63284e-05 0.000257573
0 1.93616e-05 0.000233651 0 -5.74738e-05 0.000271449
0 2.70245e-05 0.000244796 0 -4.65108e-05 0.000280832
0 3.66907e-05 0.000251553 0 -3.33755e-05 0.000285576
0 4.82857e-05 0.000253957 0 -1.81654e-05 0.00028578
0 6.16626e-05 0.000252111 0 -1.01246e-06 0.000281588
0 7.66448e-05 0.000246075 0 1.7856e-05 0.000273098
0 9.29632e-05 0.000235935 0 3.81727e-05 0.000260363
0 0.000110252 0.00022215 0 5.95501e-05 0.00024388
0 0.000128101 0.000205221 0 8.1549e-05 0.000224229
0 0.000146072 0.000185725 0 0.000103709 0.000202019
0 0.000163707 0.000164302 0 0.000125544 0.000177915
0 0.000180572 0.000141607 0 0.000146585 0.000152602
0 0.00019626 0.00011828 0 0.000166385 0.000126778
0 0.000210401 9.4959e-05 0 0.000184534 0.000101121
0 0.000222674 7.22589e-05 0 0.000200669 7.62692e-05
0 0.000230963 5.49269e-05 0 0.000211917 5.73673e-05
0 0.000237765 3.8614e-05 0 0.000221547 3.96363e-05
0 0.000242984 2.35538e-05 0 0.000229451 2.33212e-05
0 0.000246547 9.95092e-06 0 0.000235549 8.63145e-06
0 0.000248405 -2.02377e-06 0 0.000239792 -4.26117e-06
0 0.000248534 -1.22477e-05 0 0.000242152 -1.52469e-05
0 0.000246943 -2.06322e-05 0 0.000242631 -2.42967e-05
0 0.000243674 -2.71255e-05 0 0.000241285 -3.13343e-05
0 0.00023881 -3.17098e-05 0 0.000238208 -3.63541e-05
0 0.000232465 -3.4406e-05 0 0.00023353 -3.93869e-05
0 0.000224789 -3.5274e-05 0 0.000227415 -4.05003e-05
0 0.000215961 -3.44094e-05 0 0.000220065 -3.98016e-05
0 0.00020619 -3.19396e-05 0 0.0002117 -3.74288e-05
0 0.000195695 -2.80189e-05 0 0.000202453 -3.35263e-05
0 0.000184741 -2.28315e-05 0 0.000192659 -2.82942e-05
0 0.000173603 -1.65732e-05 0 0.000182651 -2.19643e-05
0 0.000162566 -9.45418e-06 0 0.000172784 -1.47725e-05
0 0.00015192 -1.69263e-06 0 0.000163409 -6.96698e-06
0 0.000141952 6.48968e-06 0 0.000154871 1.20583e-06
0 0.000132932 1.48758e-05 0 0.000147501 9.50396e-06
0 0.000125117 2.32594e-05 0 0.000141608 1.76967e-05
0 0.000118635 3.14669e-05 0 0.000136988 2.56468e-05
0 0.000113808 3.92537e-05 0 0.000133684 3.33053e-05
0 0.000110762 4.65332e-05 0 0.000132541 4.02234e-05
0 0.000109666 5.31472e-05 0 0.000133335 4.64686e-05
0 0.000113233 5.85627e-05 0 0.000137804 5.16703e-05
0 0.000119379 6.32614e-05 0 0.000146662 5.54527e-05
0 0.000127596 6.71428e-05 0 0.000156372 5.87711e-05
0 0.000137461 7.03456e-05 0 0.000168779 6.1046e-05
0 0.00014911 7.25816e-05 0 0.000182341 6.14373e-05
0 0.000162492 7.41542e-05 0 0.000197883 6.139e-05
0 0.000177379 7.52817e-05 0 0.000214657 6.06898e-05
0 0.000193562 7.60929e-05 0 0.000232968 5.94753e-05
0 0.000210914 7.6702e-05 0 0.000252263 5.80477e-05
0 0.000229221 7.72695e-05 0 0.000272457 5.65357e-05
0 0.000248185 7.80012e-05 0 0.000293217 5.5161e-05
0 0.000267536 7.90975e-05 0 0.000314282 5.41431e-05
0 0.000287034 8.07431e-05 0 0.000335362 5.3686e-05
0 0.000306402 8.31139e-05 0 0.00035616 5.4018e-05
0 0.000325335 8.63889e-05 0 0.000376396 5.53302e-05
0 0.000333848 9.27119e-05 0 0.000393566 5.80248e-05
0 0.00033875 0.000100662 0 0.00040982 6.19199e-05
0 0.000345279 0.000109336 0 0.000421139 6.75591e-05
0 0.000354976 0.00011793 0 0.000428713 7.64788e-05
0 0.000364277 0.000127802 0 0.000438999 8.48391e-05
0 0.000370611 0.000138813 0 0.000447191 9.48813e-05
0 0.000376181 0.000150135 0 0.000454445 0.000105566
0 0.000382047 0.00016196 0 0.000460524 0.000116313
0 0.000386335 0.000174794 0 0.000464546 0.000128964
0 0.000388152 0.000188805 0 0.000467067 0.000142399
0 0.000388188 0.000203793 0 0.000467742 0.000156983
0 0.000387148 0.000219459 0 0.000466447 0.000172581
0 0.000384725 0.000235689 0 0.000463603 0.000188949
0 0.000380433 0.000252406 0 0.000458974 0.000205958
0 0.000374123 0.00026948 0 0.0004522 0.000223538
0 0.000366141 0.000286523 0 0.000443716 0.000241311
0 0.000357102 0.000300802 0 0.000434013 0.000256992
0 0.000346881 0.000314844 0 0.00042352 0.000271039
0 0.000336074 0.000328404 0 0.000411995 0.000285636
0 0.000324828 0.000341297 0 0.000400215 0.000299167
0 0.000313497 0.000353467 0 0.000388341 0.000311985
0 0.000302401 0.000364718 0 0.000376673 0.000323778
0 0.000291813 0.000374764 0 0.000365547 0.000334327
0 0.000282016 0.000383428 0 0.000355203 0.00034356
0 0.000273226 0.000390609 0 0.000345902 0.000351284
0 0.000265615 0.000396274 0 0.000337825 0.000357378
0 0.0002593 0.000400357 0 0.000331093 0.000361751
0 0.000254345 0.00040275 0 0.000325766 0.000364344
0 0.000250783 0.000403074 0 0.000321854 0.000364919
0 0.000248543 0.000401089 0 0.000319347 0.000363023
0 0.000247479 0.000396872 0 0.000318046 0.000358862
0 0.00024737 0.000390537 0 0.000317745 0.000352479
0 0.000247955 0.0003822 0 0.000318174 0.00034404
0 0.000248934 0.000372023 0 0.000319017 0.000333725
0 0.000249958 0.000360209 0 0.000319912 0.000321751
0 0.000250641 0.000346986 0 0.000320459 0.000308354
0 0.00025058 0.000332586 0 0.000320243 0.000293781
0 0.000249387 0.000317242 0 0.000318864 0.000278288
0 0.000246704 0.000301186 0 0.000315951 0.000262121
0 0.000242217 0.00028464 0 0.000311181 0.000245518
0 0.000235675 0.000267808 0 0.000304291 0.000228692
0 0.000226907 0.000250861 0 0.000295106 0.000211823
0 0.000215841 0.000233939 0 0.000283552 0.000195057
0 0.000202503 0.00021715 0 0.000269655 0.000178502
0 0.000187005 0.000200572 0 0.000253528 0.000162231
0 0.000169527 0.000184247 0 0.000235353 0.000146283
0 0.000150297 0.000168193 0 0.000215368 0.000130667
0 0.000129587 0.000152402 0 0.000193851 0.000115369
0 0.000107701 0.00013685 0 0.000171116 0.00010035
0 8.49747e-05 0.000121493 0 0.000147509 8.55557e-05
0 6.17725e-05 0.000106237 0 0.000123406 7.09083e-05
0 3.819e-05 9.36088e-05 0 9.90563e-05 5.79564e-05
0 1.50371e-05 8.11455e-05 0 7.46857e-05 4.68075e-05
0 -7.4856e-06 6.85446e-05 0 5.14037e-05 3.44905e-05
0 -2.87669e-05 5.56671e-05 0 2.91778e-05 2.22358e-05
0 -4.80707e-05 4.23635e-05 0 8.6751e-06 9.36854e-06
0 -5.91304e-05 2.7363e-05 0 -5.54433e-06 -4.48092e-06
0 -6.72635e-05 1.19225e-05 0 -1.58491e-05 -1.95571e-05
0 -7.43614e-05 -3.4888e-06 0 -2.4459e-05 -3.42132e-05
0 -8.4653e-05 -1.84106e-05 0 -3.01412e-05 -4.90176e-05
0 -9.47219e-05 -3.32396e-05 0 -3.81978e-05 -6.40271e-05
0 -0.000102504 -4.88372e-05 0 -4.94537e-05 -7.73713e-05
0 -0.000108454 -6.44509e-05 0 -5.6606e-05 -9.22937e-05
0 -0.000113498 -7.99474e-05 0 -6.34709e-05 -0.000106525
0 -0.000117375 -9.521e-05 0 -6.80207e-05 -0.000121279
0 -0.000119468 -0.000110331 0 -7.14336e-05 -0.000135823
0 -0.000120176 -0.000125272 0 -7.35711e-05 -0.000150133
0 -0.000119875 -0.000139736 0 -7.43114e-05 -0.000164135
0 -0.000118507 -0.000153579 0 -7.38156e-05 -0.000177689
0 -0.000115964 -0.000166705 0 -7.2251e-05 -0.000190623
0 -0.000112451 -0.000178987 0 -6.97072e-05 -0.000202799
0 -0.000108199 -0.000190286 0 -6.63036e-05 -0.000214043
0 -0.000103256 -0.000200455 0 -6.21643e-05 -0.000224206
0 -9.76788e-05 -0.000209337 0 -5.74222e-05 -0.000233137
0 -9.16571e-05 -0.000216768 0 -5.21534e-05 -0.000240653
0 -8.53739e-05 -0.000222631 0 -4.65768e-05 -0.000246591
0 -7.89513e-05 -0.000226824 0 -4.08886e-05 -0.000250814
0 -7.25214e-05 -0.000229242 0 -3.52946e-05 -0.000253196
0 -6.62587e-05 -0.000229688 0 -2.99843e-05 -0.000253574
0 -6.03159e-05 -0.00022787 0 -2.51658e-05 -0.000251568
0 -5.47928e-05 -0.00022378 0 -2.09813e-05 -0.000247203
0 -4.97817e-05 -0.00021741 0 -1.75698e-05 -0.00024042
0 -4.5276e-05 -0.000208776 0 -1.44093e-05 -0.000231356
0 -4.1462e-05 -0.000197874 0 -1.20533e-05 -0.00022003
0 -3.83415e-05 -0.000184842 0 -1.05536e-05 -0.000206403
0 -3.59486e-05 -0.00016978 0 -9.8687e-06 -0.00019071
0 -3.43267e-05 -0.00015284 0 -1.01112e-05 -0.000173015
0 -3.34811e-05 -0.000134175 0 -1.12197e-05 -0.000153542
0 -3.33901e-05 -0.000113987 0 -1.32091e-05 -0.000132472
0 -3.40256e-05 -9.25069e-05 0 -1.60325e-05 -0.00011004
0 -3.53523e-05 -6.99822e-05 0 -1.96395e-05 -8.64996e-05
0 -3.73195e-05 -4.66748e-05 0 -2.39689e-05 -6.21246e-05
0 -3.98613e-05 -2.28597e-05 0 -2.89428e-05 -3.72056e-05
0 -4.28533e-05 4.52012e-07 0 -3.44312e-05 -1.26517e-05
0 -4.61764e-05 2.17248e-05 0 -4.01376e-05 9.21416e-06
0 -4.98432e-05 4.31555e-05 0 -4.64209e-05 3.20741e-05
0 -5.38024e-05 6.40886e-05 0 -5.28034e-05 5.39071e-05
0 -5.7946e-05 8.42582e-05 0 -5.95759e-05 7.53161e-05
0 -6.21826e-05 0.000103544 0 -6.62771e-05 9.567e-05
0 -6.64554e-05 0.000121731 0 -7.30948e-05 0.000114925
0 -7.06772e-05 0.000138605 0 -7.97773e-05 0.000132804
0 -7.47746e-05 0.000153946 0 -8.63228e-05 0.000149156
0 -7.86793e-05 0.000167589 0 -9.26199e-05 0.000163789
0 -8.23337e-05 0.000179415 0 -9.86002e-05 0.000176527
0 -8.56903e-05 0.000189299 0 -0.000104213 0.000187232
0 -8.87076e-05 0.000197107 0 -0.000109408 0.000195793
0 -9.13547e-05 0.000202727 0 -0.000114154 0.000202127
0 -9.36115e-05 0.000206097 0 -0.000118427 0.00020616
0 -9.54678e-05 0.000207173 0 -0.000122214 0.000207832
0 -9.69106e-05 0.000205716 0 -0.000125501 0.000206876
0 -9.7966e-05 0.000201736 0 -0.000128314 0.000203317
0 -9.8665e-05 0.000195265 0 -0.000130686 0.0001972
0 -9.90655e-05 0.000186378 0 -0.000132683 0.000188615
0 -9.92337e-05 0.000175188 0 -0.000134372 0.000177664
0 -9.92499e-05 0.000161836 0 -0.000135836 0.000164483
0 -9.92019e-05 0.000146484 0 -0.000137171 0.000149245
0 -9.91832e-05 0.000129311 0 -0.000138478 0.000132144
0 -9.92768e-05 0.000110532 0 -0.000139853 0.000113411
0 -9.9551e-05 9.04944e-05 0 -0.000141089 9.41095e-05
0 -0.000100189 7.0354e-05 0 -0.000142813 7.36975e-05
0 -0.000101322 5.07192e-05 0 -0.000145016 5.50967e-05
0 -0.000102992 3.02471e-05 0 -0.000147657 3.48792e-05
0 -0.00010527 9.25756e-06 0 -0.000150949 1.46679e-05
0 -0.000108141 -1.20197e-05 0 -0.000154743 -6.07711e-06
0 -0.000111741 -3.34815e-05 0 -0.000159332 -2.68101e-05
0 -0.000116074 -5.4954e-05 0 -0.00016457 -4.75399e-05
0 -0.000121161 -7.62707e-05 0 -0.000170567 -6.80731e-05
0 -0.000127003 -9.7281e-05 0 -0.00017732 -8.82678e-05
0 -0.000133603 -0.00011786 0 -0.000184804 -0.000108014
0 -0.00014094 -0.000137919 0 -0.000193019 -0.000127166
0 -0.000148965 -0.000157353 0 -0.000201906 -0.000145636
0 -0.000157624 -0.000176053 0 -0.000211415 -0.000163344
0 -0.00016685 -0.00019393 0 -0.000221466 -0.000180225
0 -0.000176734 -0.000210902 0 -0.000231993 -0.000196223
0 -0.000187462 -0.000226892 0 -0.000243305 -0.000211229
0 -0.000198846 -0.000241902 0 -0.000255221 -0.000225196
0 -0.000210661 -0.000255915 0 -0.000267574 -0.000238171
0 -0.000222743 -0.000268926 0 -0.000280182 -0.000250145
0 -0.00023494 -0.000280942 0 -0.000292853 -0.000261169
0 -0.000247067 -0.000292 0 -0.000305394 -0.000271271
0 -0.00025892 -0.000302142 0 -0.000317609 -0.000280498
0 -0.000270309 -0.000311401 0 -0.000329291 -0.000288906
0 -0.000281049 -0.000319809 0 -0.000340234 -0.000296558
0 -0.00029095 -0.00032741 0 -0.000350238 -0.000303512
0 -0.000299788 -0.000334256 0 -0.000359105 -0.000309822
0 -0.000307026 -0.000340455 0 -0.000366266 -0.000315611
0 -0.000312415 -0.000346046 0 -0.000371597 -0.00032092
0 -0.000315831 -0.000351039 0 -0.000374894 -0.000325774
0 -0.000317149 -0.000355433 0 -0.000376006 -0.000330206
0 -0.000316192 -0.00035922 0 -0.000374766 -0.000334163
0 -0.000312835 -0.000362372 0 -0.000371019 -0.000337509
0 -0.00030705 -0.000364826 0 -0.000364747 -0.000340241
0 -0.000298884 -0.000366469 0 -0.000355981 -0.000342249
0 -0.000288443 -0.00036711 0 -0.00034486 -0.000343291
0 -0.000275902 -0.000366652 0 -0.000331565 -0.000343289
0 -0.000261507 -0.000364971 0 -0.000316348 -0.000342096
0 -0.000245537 -0.00036193 0 -0.0002995 -0.000339576
0 -0.000228292 -0.000357402 0 -0.000281341 -0.000335583
0 -0.000210094 -0.000351262 0 -0.000262204 -0.000329978
0 -0.000191275 -0.000343396 0 -0.000242436 -0.000322631
0 -0.000172171 -0.000333697 0 -0.000222388 -0.000313428
0 -0.000153117 -0.000322079 0 -0.000202408 -0.000302271
0 -0.000134429 -0.000308484 0 -0.000182829 -0.000289088
0 -0.000116402 -0.000292882 0 -0.000163956 -0.000273836
0 -9.92928e-05 -0.000275274 0 -0.000146057 -0.000256509
0 -8.3314e-05 -0.000255698 0 -0.000129353 -0.000237139
0 -6.86359e-05 -0.000234227 0 -0.000114021 -0.000215797
0 -5.53884e-05 -0.000210972 0 -0.000100197 -0.000192592
0 -4.36637e-05 -0.000186084 0 -8.7974e-05 -0.000167672
0 -3.35151e-05 -0.000159747 0 -7.74063e-05 -0.000141222
0 -2.49536e-05 -0.000132178 0 -6.85021e-05 -0.000113466
0 -1.7948e-05 -0.000103629 0 -6.12255e-05 -8.46616e-05
0 -1.22514e-05 -7.61344e-05 0 -5.53844e-05 -5.65027e-05
0 -7.73306e-06 -5.11968e-05 0 -5.03494e-05 -3.22689e-05
0 -4.53939e-06 -2.53953e-05 0 -4.71743e-05 -5.58723e-06
0 -2.65491e-06 3.92932e-07 0 -4.51173e-05 2.03059e-05
0 -1.88894e-06 2.59334e-05 0 -4.42327e-05 4.64287e-05
0 -2.06099e-06 5.11061e-05 0 -4.43219e-05 7.20274e-05
0 -2.97636e-06 7.56511e-05 0 -4.51298e-05 9.69708e-05
0 -4.33292e-06 9.92728e-05 0 -4.64131e-05 0.000120983
0 -5.84418e-06 0.000121629 0 -4.78489e-05 0.000143692
0 -4.79301e-06 0.000142034 0 -4.7798e-05 0.000164066
0 -1.82099e-06 0.000160681 0 -4.40707e-05 0.000182306
0 7.008e-07 0.000177763 0 -4.15392e-05 0.000199154
0 3.02894e-06 0.000193131 0 -3.75352e-05 0.000213774
0 5.88564e-06 0.000206484 0 -3.32662e-05 0.000226423
0 9.74843e-06 0.000217628 0 -2.83311e-05 0.000237013
0 1.43252e-05 0.000226692 0 -2.26489e-05 0.000245403
0 1.93937e-05 0.000233678 0 -1.61094e-05 0.000251509
0 2.51919e-05 0.000238461 0 -8.81361e-06 0.000255372
0 3.17984e-05 0.000241 0 -8.46108e-07 0.000257038
0 3.90008e-05 0.000241398 0 7.76441e-06 0.000256537
0 4.66589e-05 0.000239771 0 1.69506e-05 0.000253917
0 5.47752e-05 0.000235978 0 2.65915e-05 0.000249083
0 6.32442e-05 0.000230036 0 3.65559e-05 0.000242092
0 7.18604e-05 0.000222122 0 4.66843e-05 0.000233133
0 8.04373e-05 0.000212433 0 5.68062e-05 0.000222402
0 8.88303e-05 0.000201166 0 6.67232e-05 0.000210117
0 9.68528e-05 0.000188541 0 7.62422e-05 0.000196504
0 0.00010429 0.000174792 0 8.51687e-05 0.00018181
0 0.000110951 0.000160157 0 9.33108e-05 0.000166286
0 0.000116673 0.000144868 0 0.000100484 0.000150185
0 0.000121296 0.000129156 0 0.000106524 0.000133742
0 0.000124673 0.000113235 0 0.000111269 0.000117116
0 0.000126689 9.7312e-05 0 0.000114612 0.000100535
0 0.000127267 8.15807e-05 0 0.000116463 8.41993e-05
0 0.000126365 6.6215e-05 0 0.000116779 6.82869e-05
0 0.000123973 5.13661e-05 0 0.000115554 5.29523e-05
0 0.000120128 3.71598e-05 0 0.000112823 3.83213e-05
0 0.000114903 2.36975e-05 0 0.000108654 2.44951e-05
0 0.000108401 1.1056e-05 0 0.000103153 1.15487e-05
0 0.000100648 4.14e-07 0 9.64032e-05 1.80816e-07
0 9.19642e-05 -9.28832e-06 0 8.85046e-05 -9.31252e-06
0 8.24327e-05 -1.81642e-05 0 7.98743e-05 -1.84474e-05
0 7.23324e-05 -2.62884e-05 0 7.0504e-05 -2.66059e-05
0 6.18535e-05 -3.37013e-05 0 6.07172e-05 -3.41046e-05
0 5.12169e-05 -4.04808e-05 0 5.07484e-05 -4.08934e-05
0 4.0648e-05 -4.66781e-05 0 4.08728e-05 -4.70982e-05
0 3.03747e-05 -5.23493e-05 0 3.13465e-05 -5.27963e-05
0 2.06201e-05 -5.75579e-05 0 2.24237e-05 -5.80815e-05
0 1.15981e-05 -6.23867e-05 0 1.43524e-05 -6.30287e-05
0 3.5194e-06 -6.69082e-05 0 7.3693e-06 -6.77082e-05
0 -3.45967e-06 -7.12083e-05 0 1.59733e-06 -7.21791e-05
0 -9.1533e-06 -7.52786e-05 0 -3.22044e-06 -7.63854e-05
0 -1.34194e-05 -7.91404e-05 0 -6.34192e-06 -8.05148e-05
0 -1.6132e-05 -8.2834e-05 0 -7.93139e-06 -8.44959e-05
0 -1.72056e-05 -8.63632e-05 0 -7.77449e-06 -8.83808e-05
0 -1.65608e-05 -8.97098e-05 0 -5.86608e-06 -9.21329e-05
0 -1.41704e-05 -9.28358e-05 0 -2.156e-06 -9.57381e-05
0 -1.00298e-05 -9.56928e-05 0 3.34827e-06 -9.91447e-05
0 -4.18184e-06 -9.82878e-05 0 1.06027e-05 -0.000102294
0 3.32618e-06 -0.000100485 0 1.95257e-05 -0.00010509
0 1.23658e-05 -0.000102108 0 2.99925e-05 -0.000107349
0 2.27894e-05 -0.000103043 0 4.18457e-05 -0.000108937
0 3.44127e-05 -0.000103165 0 5.48885e-05 -0.000109722
0 4.70179e-05 -0.000102339 0 6.88948e-05 -0.000109566
0 6.03598e-05 -0.000100433 0 8.36189e-05 -0.00010833
0 7.41881e-05 -9.73235e-05 0 9.88062e-05 -0.000105875
0 8.82535e-05 -9.28954e-05 0 0.000114198 -0.000102075
0 0.000102307 -8.70451e-05 0 0.000129538 -9.68191e-05
0 0.000116106 -7.96837e-05 0 0.000144581 -9.00123e-05
0 0.000129328 -7.0953e-05 0 0.000158821 -8.21457e-05
0 0.000141857 -6.05604e-05 0 0.000172255 -7.31942e-05
0 0.000153534 -4.89664e-05 0 0.000184703 -6.23812e-05
0 0.000164402 -3.72335e-05 0 0.000196439 -5.19601e-05
0 0.000174165 -2.37308e-05 0 0.000206835 -3.90997e-05
0 0.000182771 -8.78755e-06 0 0.000216114 -2.51091e-05
0 0.00019017 7.49653e-06 0 0.000224014 -9.41817e-06
0 0.000196358 2.51017e-05 0 0.000230651 7.60597e-06
0 0.000201304 4.39259e-05 0 0.000235908 2.59795e-05
0 0.000205021 6.38315e-05 0 0.000239859 4.55182e-05
0 0.000207555 8.46356e-05 0 0.000242514 6.60901e-05
0 0.000208977 0.00010616 0 0.000243957 8.75077e-05
0 0.000209377 0.000128233 0 0.000244282 0.000109557
0 0.000208867 0.000150655 0 0.000243609 0.000132021
0 0.000207515 0.0001732 0 0.000241965 0.00015469
0 0.00020532 0.000195645 0 0.000239411 0.000177358
0 0.00020242 0.00021776 0 0.000236157 0.000199745
0 0.000199013 0.000239308 0 0.000232362 0.000221607
0 0.000195393 0.000260036 0 0.000228253 0.000242684
0 0.000191866 0.00027969 0 0.000224247 0.000262686
0 0.000188568 0.000298055 0 0.000220481 0.000281388
0 0.000185619 0.000314931 0 0.000217094 0.000298587
0 0.000183117 0.000330142 0 0.00021418 0.000314096
0 0.000181117 0.000343541 0 0.000211804 0.000327754
0 0.00017963 0.000354999 0 0.000209983 0.000339434
0 0.000178625 0.000364419 0 0.000208685 0.000349041
0 0.000178035 0.000371727 0 0.000207846 0.000356507
0 0.000177782 0.000376878 0 0.000207389 0.00036179
0 0.000177783 0.000379846 0 0.00020723 0.000364854
0 0.00017796 0.000380615 0 0.000207272 0.000365665
0 0.00017826 0.000379007 0 0.000207469 0.00036406
0 0.000178607 0.000375043 0 0.000207754 0.000360044
0 0.000178927 0.000368794 0 0.000208031 0.000353702
0 0.000179121 0.000360356 0 0.000208205 0.000345137
0 0.000179078 0.000349847 0 0.000208159 0.000334473
0 0.000178674 0.000337413 0 0.000207762 0.000321862
0 0.000177777 0.000323217 0 0.000206875 0.000307471
0 0.000176258 0.000307435 0 0.000205362 0.000291486
0 0.000173999 0.000290251 0 0.000203099 0.000274099
0 0.000170893 0.000271854 0 0.000199972 0.000255509
0 0.000166853 0.00025244 0 0.00019589 0.000235915
0 0.000161812 0.000232207 0 0.000190781 0.000215517
0 0.000155725 0.000211343 0 0.000184596 0.000194513
0 0.000148572 0.000190034 0 0.000177308 0.000173091
0 0.000140352 0.000168458 0 0.000168917 0.000151435
0 0.000131089 0.000146782 0 0.000159444 0.000129712
0 0.000120831 0.000125166 0 0.000148938 0.000108082
0 0.000109651 0.000103752 0 0.000137473 8.66874e-05
0 9.76232e-05 8.30928e-05 0 0.000125145 6.56878e-05
0 8.45464e-05 6.59239e-05 0 0.000111721 4.85952e-05
0 7.11167e-05 4.86525e-05 0 9.77015e-05 3.14521e-05
0 5.72601e-05 3.18764e-05 0 8.35256e-05 1.49062e-05
0 4.33481e-05 1.55905e-05 0 6.90563e-05 -1.22423e-06
0 2.94586e-05 -3.06829e-07 0 5.46832e-05 -1.69234e-05
0 1.57826e-05 -1.57818e-05 0 4.0497e-05 -3.21589e-05
0 2.45818e-06 -3.08115e-05 0 2.6692e-05 -4.69588e-05
0 -1.03658e-05 -4.53529e-05 0 1.34073e-05 -6.13261e-05
0 -2.2536e-05 -5.94121e-05 0 7.68135e-07 -7.53173e-05
0 -3.38433e-05 -7.30581e-05 0 -1.05829e-05 -8.79986e-05
0 -4.42137e-05 -8.61811e-05 0 -2.11788e-05 -0.000100661
0 -5.3594e-05 -9.88124e-05 0 -3.07131e-05 -0.000112673
0 -6.18982e-05 -0.000110927 0 -3.90924e-05 -0.000124322
0 -6.90085e-05 -0.000122484 0 -4.62957e-05 -0.000135452
0 -7.48846e-05 -0.000133458 0 -5.22324e-05 -0.000146088
0 -7.94966e-05 -0.0001438 0 -5.68784e-05 -0.000156161
0 -8.28207e-05 -0.000153464 0 -6.02104e-05 -0.000165629
0 -8.48542e-05 -0.000162385 0 -6.22278e-05 -0.00017443
0 -8.56202e-05 -0.00017049 0 -6.2954e-05 -0.000182501
0 -8.51592e-05 -0.000177714 0 -6.24289e-05 -0.000189766
0 -8.35262e-05 -0.000183987 0 -6.07175e-05 -0.000196142
0 -8.08246e-05 -0.000189229 0 -5.79114e-05 -0.000201541
0 -7.67653e-05 -0.000193419 0 -5.39921e-05 -0.000205853
0 -7.18605e-05 -0.00019639 0 -4.92736e-05 -0.000208929
0 -6.63972e-05 -0.000198022 0 -4.38058e-05 -0.000210722
0 -6.04558e-05 -0.000198141 0 -3.77631e-05 -0.000211043
0 -5.40593e-05 -0.000196594 0 -3.1332e-05 -0.00020962
0 -4.73722e-05 -0.000193326 0 -2.46466e-05 -0.000206454
0 -4.05957e-05 -0.000188284 0 -1.78662e-05 -0.000201487
0 -3.38589e-05 -0.000181445 0 -1.11602e-05 -0.000194693
0 -2.72706e-05 -0.00017282 0 -4.68862e-06 -0.000186057
0 -2.0967e-05 -0.000162434 0 1.41722e-06 -0.000175597
0 -1.50682e-05 -0.000150332 0 7.04633e-06 -0.00016336
0 -1.09542e-05 -0.000136399 0 1.07536e-05 -0.000149227
0 -7.95315e-06 -0.000120884 0 1.33534e-05 -0.000133355
0 -5.63287e-06 -0.000103948 0 1.54748e-05 -0.000116197
0 -3.77865e-06 -8.58187e-05 0 1.69778e-05 -9.76934e-05
0 -2.39065e-06 -6.66428e-05 0 1.79898e-05 -7.81541e-05
0 -1.45747e-06 -4.67066e-05 0 1.84933e-05 -5.80159e-05
0 -6.95985e-07 -2.63287e-05 0 1.86343e-05 -3.74133e-05
0 -3.29039e-08 -6.2339e-06 0 1.87877e-05 -1.68998e-05
0 5.17993e-07 1.22711e-05 0 1.89482e-05 1.3951e-06
0 8.88118e-07 3.11381e-05 0 1.88447e-05 2.07602e-05
0 1.20503e-06 4.98034e-05 0 1.88119e-05 3.94562e-05
0 1.53453e-06 6.80474e-05 0 1.86409e-05 5.80667e-05
0 1.90176e-06 8.58226e-05 0 1.86523e-05 7.60388e-05
0 2.35207e-06 0.000102964 0 1.87146e-05 9.33794e-05
0 2.96422e-06 0.000119301 0 1.89869e-05 0.000109865
0 3.77424e-06 0.000134656 0 1.94552e-05 0.000125394
0 4.79334e-06 0.000148913 0 2.0183e-05 0.000139816
0 6.04937e-06 0.000161986 0 2.11927e-05 0.000153
0 7.62787e-06 0.00017377 0 2.25757e-05 0.000164826
0 9.54738e-06 0.000184154 0 2.43209e-05 0.000175217
0 1.17952e-05 0.000193048 0 2.64382e-05 0.000184109
0 1.43573e-05 0.000200405 0 2.892e-05 0.00019144
0 1.7222e-05 0.000206201 0 3.17488e-05 0.000197165
0 2.03656e-05 0.00021042 0 3.48956e-05 0.00020126
0 2.363e-05 0.000213064 0 3.80415e-05 0.00020378
0 2.70031e-05 0.000214118 0 4.13782e-05 0.000204704
0 3.05007e-05 0.000213603 0 4.48092e-05 0.000204052
0 3.39486e-05 0.000211454 0 4.8354e-05 0.000201723
0 3.72514e-05 0.000207739 0 5.19508e-05 0.000197746
0 4.05785e-05 0.000202485 0 5.56259e-05 0.00019219
0 4.39478e-05 0.000195757 0 5.92849e-05 0.000185192
0 4.72493e-05 0.000187677 0 6.28806e-05 0.000176841
0 5.03894e-05 0.000178384 0 6.63433e-05 0.000167244
0 5.33251e-05 0.00016801 0 6.95786e-05 0.000156556
0 5.59699e-05 0.000156701 0 7.24726e-05 0.000144938
0 5.81852e-05 0.000144623 0 7.49067e-05 0.00013256
0 5.97267e-05 0.000131938 0 7.60674e-05 0.000119717
0 6.01292e-05 0.000118879 0 7.65848e-05 0.000106451
0 5.96363e-05 0.000105576 0 7.61418e-05 9.29225e-05
0 5.81723e-05 9.21598e-05 0 7.47382e-05 7.93255e-05
0 5.57108e-05 7.87661e-05 0 7.22496e-05 6.5781e-05
0 5.21717e-05 6.55258e-05 0 6.86688e-05 5.24305e-05
0 4.75371e-05 5.25556e-05 0 6.39872e-05 3.93849e-05
0 4.16758e-05 4.05846e-05 0 5.80861e-05 2.69142e-05
0 3.44823e-05 3.00835e-05 0 5.06795e-05 1.67931e-05
0 2.70068e-05 1.97141e-05 0 4.2449e-05 6.4506e-06
0 1.87528e-05 9.74769e-06 0 3.311e-05 -3.09507e-06
0 9.57672e-06 2.75155e-07 0 2.29558e-05 -1.22845e-05
0 -2.56896e-07 -8.77546e-06 0 1.30256e-05 -2.11755e-05
0 -1.04526e-05 -1.74366e-05 0 2.299e-06 -2.96744e-05
0 -2.07865e-05 -2.58049e-05 0 -8.15997e-06 -3.71831e-05
0 -2.9598e-05 -3.40547e-05 0 -1.73542e-05 -4.4909e-05
0 -3.82969e-05 -4.19178e-05 0 -2.61504e-05 -5.23886e-05
0 -4.66757e-05 -4.95946e-05 0 -3.46741e-05 -5.95012e-05
0 -5.46008e-05 -5.70447e-05 0 -4.26609e-05 -6.65586e-05
0 -6.18785e-05 -6.43233e-05 0 -5.00345e-05 -7.33635e-05
0 -6.83625e-05 -7.13907e-05 0 -5.65711e-05 -8.00818e-05
0 -7.39684e-05 -7.82622e-05 0 -6.21812e-05 -8.66793e-05
0 -7.86061e-05 -8.4963e-05 0 -6.67762e-05 -9.31704e-05
0 -8.21914e-05 -9.14915e-05 0 -7.02981e-05 -9.95304e-05
0 -8.47019e-05 -9.78096e-05 0 -7.27077e-05 -0.000105746
0 -8.60355e-05 -0.000103886 0 -7.39054e-05 -0.000111807
0 -8.6085e-05 -0.000109697 0 -7.37765e-05 -0.000117701
0 -8.4854e-05 -0.00011521 0 -7.2387e-05 -0.000123346
0 -8.24152e-05 -0.000120351 0 -6.97567e-05 -0.000128681
0 -7.88296e-05 -0.000125038 0 -6.59284e-05 -0.000133576
0 -7.41609e-05 -0.000129189 0 -6.09994e-05 -0.000137967
0 -6.85078e-05 -0.000132719 0 -5.50719e-05 -0.000141757
0 -6.19944e-05 -0.000135545 0 -4.82616e-05 -0.000144856
0 -5.47572e-05 -0.000137576 0 -4.07332e-05 -0.000147159
0 -4.6875e-05 -0.000138659 0 -3.2539e-05 -0.000148542
0 -3.85887e-05 -0.000138618 0 -2.42295e-05 -0.000148726
0 -3.03205e-05 -0.000137359 0 -1.56429e-05 -0.000147673
0 -2.21401e-05 -0.000134772 0 -7.00934e-06 -0.000145379
0 -1.39505e-05 -0.000130862 0 1.67506e-06 -0.000141742
0 -5.782e-06 -0.000125614 0 1.0168e-05 -0.000136688
0 2.10124e-06 -0.000118973 0 1.83448e-05 -0.000130205
0 9.48971e-06 -0.000110917 0 2.60388e-05 -0.000122276
0 1.62815e-05 -0.000101466 0 3.30611e-05 -0.000112896
0 2.23093e-05 -9.07144e-05 0 3.91845e-05 -0.00010222
0 2.74145e-05 -7.87332e-05 0 4.42493e-05 -9.0491e-05
0 3.15488e-05 -6.55252e-05 0 4.83169e-05 -7.73763e-05
0 3.46976e-05 -5.11851e-05 0 5.13331e-05 -6.30817e-05
0 3.68405e-05 -3.58467e-05 0 5.32841e-05 -4.77055e-05
0 3.79907e-05 -1.96918e-05 0 5.42065e-05 -3.14949e-05
0 3.84006e-05 -4.73998e-06 0 5.43062e-05 -1.64849e-05
0 3.78636e-05 1.09927e-05 0 5.35365e-05 -4.17472e-07
0 3.66076e-05 2.69962e-05 0 5.2e-05 1.5725e-05
0 3.46671e-05 4.31459e-05 0 4.9924e-05 3.21818e-05
0 3.22516e-05 5.92983e-05 0 4.73488e-05 4.85876e-05
0 2.94915e-05 7.52742e-05 0 4.44366e-05 6.48351e-05
0 2.65386e-05 9.08966e-05 0 4.13093e-05 8.07151e-05
0 2.3548e-05 0.000105957 0 3.81082e-05 9.60656e-05
0 2.06695e-05 0.000120273 0 3.49745e-05 0.000110702
0 1.80348e-05 0.000133704 0 3.20408e-05 0.000124444
0 1.57498e-05 0.000146115 0 2.94838e-05 0.000137112
0 1.39171e-05 0.000157362 0 2.74066e-05 0.000148567
0 1.263e-05 0.000167306 0 2.58679e-05 0.000158695
0 1.20356e-05 0.000175811 0 2.45009e-05 0.000167488
0 1.16203e-05 0.000182907 0 2.38901e-05 0.000174739
0 1.17546e-05 0.00018849 0 2.39122e-05 0.000180374
0 1.24919e-05 0.000192497 0 2.45944e-05 0.000184389
0 1.38706e-05 0.000194893 0 2.58759e-05 0.000186756
0 1.58089e-05 0.000195674 0 2.77576e-05 0.000187478
0 1.8241e-05 0.000194832 0 3.01981e-05 0.000186541
0 2.11403e-05 0.000192277 0 3.31445e-05 0.000183825
0 2.44348e-05 0.00018809 0 3.65057e-05 0.000179452
0 2.80215e-05 0.00018236 0 4.01961e-05 0.000173494
0 3.17996e-05 0.000175188 0 4.4114e-05 0.00016608
0 3.56687e-05 0.000166697 0 4.81397e-05 0.000157331
0 3.95108e-05 0.000157035 0 5.2145e-05 0.000147384
0 4.31977e-05 0.000146358 0 5.60039e-05 0.000136404
0 4.66043e-05 0.000134827 0 5.95833e-05 0.000124564
0 4.96078e-05 0.000122611 0 6.27506e-05 0.000112043
0 5.2085e-05 0.000109885 0 6.53789e-05 9.90224e-05
0 5.38292e-05 9.68381e-05 0 6.71988e-05 8.57081e-05
0 5.48444e-05 8.36234e-05 0 6.83737e-05 7.2227e-05
0 5.51015e-05 7.03937e-05 0 6.87236e-05 5.87539e-05
0 5.44807e-05 5.73087e-05 0 6.81406e-05 4.54711e-05
0 5.28995e-05 4.45173e-05 0 6.65814e-05 3.25128e-05
0 5.02585e-05 3.28511e-05 0 6.39935e-05 2.02383e-05
0 4.65952e-05 2.24277e-05 0 6.01816e-05 1.0147e-05
0 4.19731e-05 1.24481e-05 0 5.54788e-05 -4.82819e-08
0 3.64433e-05 3.03629e-06 0 4.97929e-05 -9.35181e-06
0 3.00722e-05 -5.74918e-06 0 4.32262e-05 -1.81299e-05
0 2.29282e-05 -1.39386e-05 0 3.58541e-05 -2.62075e-05
0 1.59504e-05 -2.16521e-05 0 2.79645e-05 -3.36597e-05
0 9.25837e-06 -2.89345e-05 0 1.964e-05 -4.04379e-05
0 2.55186e-06 -3.56778e-05 0 1.24793e-05 -4.69259e-05
0 -4.79345e-06 -4.16942e-05 0 4.65002e-06 -5.22849e-05
0 -1.22579e-05 -4.71569e-05 0 -3.20908e-06 -5.72405e-05
0 -1.96213e-05 -5.21521e-05 0 -1.12561e-05 -6.16229e-05
0 -2.70196e-05 -5.66787e-05 0 -1.93024e-05 -6.54743e-05
0 -3.44233e-05 -6.06895e-05 0 -2.72181e-05 -6.89275e-05
0 -4.16158e-05 -6.42689e-05 0 -3.49692e-05 -7.19509e-05
0 -4.84711e-05 -6.74796e-05 0 -4.24342e-05 -7.46061e-05
0 -5.49813e-05 -7.03565e-05 0 -4.95008e-05 -7.69418e-05
0 -6.10758e-05 -7.29273e-05 0 -5.60757e-05 -7.90118e-05
0 -6.66212e-05 -7.52252e-05 0 -6.20812e-05 -8.08592e-05
0 -7.15351e-05 -7.7287e-05 0 -6.7437e-05 -8.25228e-05
0 -7.57728e-05 -7.91481e-05 0 -7.20558e-05 -8.40403e-05
0 -7.92686e-05 -8.08409e-05 0 -7.58717e-05 -8.54404e-05
0 -8.19506e-05 -8.23845e-05 0 -7.88356e-05 -8.67443e-05
0 -8.37783e-05 -8.37836e-05 0 -8.09058e-05 -8.79695e-05
0 -8.47344e-05 -8.50409e-05 0 -8.20529e-05 -8.91233e-05
0 -8.48028e-05 -8.61591e-05 0 -8.22655e-05 -9.0201e-05
0 -8.3971e-05 -8.71288e-05 0 -8.15411e-05 -9.11832e-05
0 -8.21194e-05 -8.79447e-05 0 -7.97231e-05 -9.20351e-05
0 -7.92304e-05 -8.85762e-05 0 -7.68717e-05 -9.2737e-05
0 -7.53794e-05 -8.89423e-05 0 -7.30545e-05 -9.31933e-05
0 -7.06658e-05 -8.89882e-05 0 -6.83585e-05 -9.3349e-05
0 -6.51868e-05 -8.86621e-05 0 -6.28893e-05 -9.31423e-05
0 -5.9049e-05 -8.7905e-05 0 -5.67755e-05 -9.25081e-05
0 -5.23914e-05 -8.66513e-05 0 -5.01545e-05 -9.13801e-05
0 -4.53684e-05 -8.48376e-05 0 -4.31775e-05 -8.96913e-05
0 -3.81375e-05 -8.24058e-05 0 -3.60071e-05 -8.73748e-05
0 -3.08612e-05 -7.93008e-05 0 -2.88101e-05 -8.43688e-05
0 -2.37065e-05 -7.54719e-05 0 -2.17503e-05 -8.06204e-05
0 -1.68334e-05 -7.0879e-05 0 -1.49859e-05 -7.60866e-05
0 -1.03883e-05 -6.54967e-05 0 -8.66446e-06 -7.07369e-05
0 -4.50295e-06 -5.93137e-05 0 -2.91771e-06 -6.45558e-05
0 7.08433e-07 -5.23338e-05 0 2.14156e-06 -5.75451e-05
0 5.15303e-06 -4.45778e-05 0 6.42102e-06 -4.97246e-05
0 8.76108e-06 -3.60848e-05 0 9.85095e-06 -4.11325e-05
0 1.14861e-05 -2.69126e-05 0 1.23856e-05 -3.18263e-05
0 1.33066e-05 -1.71348e-05 0 1.40047e-05 -2.18814e-05
0 1.42061e-05 -6.87829e-06 0 1.46713e-05 -1.14773e-05
0 1.42207e-05 3.58037e-06 0 1.44232e-05 -1.01545e-06
0 1.35253e-05 1.32842e-05 0 1.35247e-05 8.73153e-06
0 1.20496e-05 2.33774e-05 0 1.17787e-05 1.91274e-05
0 9.88999e-06 3.35272e-05 0 9.38184e-06 2.94406e-05
0 7.14439e-06 4.36077e-05 0 6.39639e-06 3.98258e-05
0 3.9202e-06 5.35253e-05 0 2.93217e-06 5.00235e-05
0 3.13113e-07 6.31576e-05 0 -9.21916e-07 5.99518e-05
0 -3.63954e-06 7.23855e-05 0 -5.15478e-06 6.94788e-05
0 -7.8236e-06 8.10599e-05 0 -9.60998e-06 7.84738e-05
0 -1.2109e-05 8.90516e-05 0 -1.41597e-05 8.67885e-05
0 -1.63624e-05 9.6253e-05 0 -1.86574e-05 9.4289e-05
0 -2.04534e-05 0.000102559 0 -2.29691e-05 0.000100852
0 -2.42645e-05 0.000107861 0 -2.69737e-05 0.000106373
0 -2.76935e-05 0.000112056 0 -3.05631e-05 0.000110762
0 -3.06518e-05 0.000115069 0 -3.36426e-05 0.000113939
0 -3.30645e-05 0.00011685 0 -3.61323e-05 0.000115836
0 -3.48706e-05 0.000117358 0 -3.79669e-05 0.000116403
0 -3.60118e-05 0.000116465 0 -3.90869e-05 0.000115521
0 -3.64574e-05 0.000114146 0 -3.9451e-05 0.000113157
0 -3.61859e-05 0.00011042 0 -3.90484e-05 0.000109338
0 -3.51975e-05 0.000105329 0 -3.78729e-05 0.000104103
0 -3.35066e-05 9.89388e-05 0 -3.59413e-05 9.75137e-05
0 -3.11475e-05 9.13332e-05 0 -3.32897e-05 8.96595e-05
0 -2.81725e-05 8.26178e-05 0 -2.99748e-05 8.0651e-05
0 -2.46477e-05 7.29155e-05 0 -2.60695e-05 7.06183e-05
0 -2.06572e-05 6.23666e-05 0 -2.16635e-05 5.97072e-05
0 -1.52075e-05 5.095e-05 0 -1.57235e-05 4.7908e-05
0 -9.38832e-06 3.90796e-05 0 -9.38278e-06 3.54978e-05
0 -3.52839e-06 2.72606e-05 0 -3.69226e-06 2.31438e-05
0 1.19686e-06 1.6273e-05 0 1.97357e-06 1.17661e-05
0 5.74411e-06 5.20088e-06 0 7.6278e-06 1.03449e-08
0 1.03177e-05 -5.75856e-06 0 1.30473e-05 -1.14083e-05
0 1.47678e-05 -1.64202e-05 0 1.82108e-05 -2.25581e-05
0 1.87763e-05 -2.66393e-05 0 2.30463e-05 -3.32491e-05
0 2.23348e-05 -3.63044e-05 0 2.74709e-05 -4.33706e-05
0 2.54893e-05 -4.53147e-05 0 3.13518e-05 -5.27736e-05
0 2.81348e-05 -5.35314e-05 0 3.46507e-05 -6.13602e-05
0 3.01653e-05 -6.08533e-05 0 3.73346e-05 -6.90376e-05
0 3.15871e-05 -6.7229e-05 0 3.93609e-05 -7.57122e-05
0 3.24167e-05 -7.26047e-05 0 4.06966e-05 -8.13119e-05
0 3.26194e-05 -7.6911e-05 0 4.13368e-05 -8.57951e-05
0 3.21764e-05 -8.01006e-05 0 4.12865e-05 -8.91333e-05
0 3.11198e-05 -8.21667e-05 0 4.05587e-05 -9.1305e-05
0 2.94985e-05 -8.31227e-05 0 3.91911e-05 -9.23065e-05
0 2.73666e-05 -8.29801e-05 0 3.72507e-05 -9.21567e-05
0 2.47963e-05 -8.16748e-05 0 3.48139e-05 -9.0801e-05
0 2.18855e-05 -7.92497e-05 0 3.19567e-05 -8.82819e-05
0 1.86745e-05 -7.5766e-05 0 2.87286e-05 -8.46609e-05
0 1.52443e-05 -7.13033e-05 0 2.5255e-05 -8.00332e-05
0 1.17034e-05 -6.59579e-05 0 2.16365e-05 -7.44944e-05
0 8.16414e-06 -5.9835e-05 0 1.79781e-05 -6.81543e-05
0 4.72467e-06 -5.30448e-05 0 1.43891e-05 -6.11322e-05
0 1.47775e-06 -4.57037e-05 0 1.09763e-05 -5.35525e-05
0 -1.48082e-06 -3.79328e-05 0 7.83479e-06 -4.55389e-05
0 -3.95735e-06 -2.98695e-05 0 5.13971e-06 -3.72259e-05
0 -5.90152e-06 -2.16214e-05 0 2.9982e-06 -2.87475e-05
0 -7.2764e-06 -1.32979e-05 0 1.44157e-06 -2.02107e-05
0 -8.04181e-06 -5.00247e-06 0 5.14319e-07 -1.17257e-05
0 -8.09921e-06 2.59887e-06 0 3.25736e-07 -4.05188e-06
0 -7.49889e-06 9.744e-06 0 8.35531e-07 3.10177e-06
0 -6.19734e-06 1.66549e-05 0 1.98016e-06 1.00687e-05
0 -4.23776e-06 2.32734e-05 0 3.8655e-06 1.66734e-05
0 -1.60996e-06 2.9552e-05 0 6.40858e-06 2.29222e-05
0 1.629e-06 3.54817e-05 0 9.59642e-06 2.87729e-05
0 5.41913e-06 4.1055e-05 0 1.33507e-05 3.4224e-05
0 9.67975e-06 4.62575e-05 0 1.75835e-05 3.92829e-05
0 1.43017e-05 5.10904e-05 0 2.21876e-05 4.39675e-05
0 1.91542e-05 5.55793e-05 0 2.70305e-05 4.82982e-05
0 2.40946e-05 5.97583e-05 0 3.19674e-05 5.23028e-05
0 2.89814e-05 6.36551e-05 0 3.68492e-05 5.60184e-05
0 3.36826e-05 6.72899e-05 0 4.1539e-05 5.9485e-05
0 3.74994e-05 7.0751e-05 0 4.51566e-05 6.28246e-05
0 3.95901e-05 7.41274e-05 0 4.67769e-05 6.63348e-05
0 4.12386e-05 7.7321e-05 0 4.83791e-05 6.94928e-05
0 4.24356e-05 8.02644e-05 0 4.93336e-05 7.24953e-05
0 4.31039e-05 8.29805e-05 0 4.97279e-05 7.52479e-05
0 4.32075e-05 8.5447e-05 0 4.95277e-05 7.7799e-05
0 4.27106e-05 8.76304e-05 0 4.87535e-05 8.01101e-05
0 4.16148e-05 8.95148e-05 0 4.73728e-05 8.21448e-05
0 3.99233e-05 9.10921e-05 0 4.53814e-05 8.38709e-05
0 3.76436e-05 9.23394e-05 0 4.27969e-05 8.52615e-05
0 3.48063e-05 9.32155e-05 0 3.96547e-05 8.62892e-05
0 3.14868e-05 9.36406e-05 0 3.60126e-05 8.68891e-05
0 2.86664e-05 9.33769e-05 0 3.21541e-05 8.69774e-05
0 2.56467e-05 9.25501e-05 0 2.7782e-05 8.65854e-05
0 2.22497e-05 9.12007e-05 0 2.33948e-05 8.55897e-05
0 1.85591e-05 8.93329e-05 0 1.96846e-05 8.37454e-05
0 1.48599e-05 8.68112e-05 0 1.53069e-05 8.1476e-05
0 1.11356e-05 8.36728e-05 0 1.10218e-05 7.85181e-05
0 7.32134e-06 7.99217e-05 0 6.61992e-06 7.49776e-05
0 3.47004e-06 7.55744e-05 0 2.26336e-06 7.07995e-05
0 -2.95359e-07 7.06241e-05 0 -2.0871e-06 6.6021e-05
0 -3.96982e-06 6.50927e-05 0 -6.38347e-06 6.06599e-05
0 -7.57147e-06 5.90124e-05 0 -1.05821e-05 5.47329e-05
0 -1.10642e-05 5.2416e-05 0 -1.4665e-05 4.82796e-05
0 -1.43789e-05 4.54039e-05 0 -1.85678e-05 4.14444e-05
0 -1.75622e-05 3.78723e-05 0 -2.22899e-05 3.43798e-05
0 -2.06481e-05 3.05879e-05 0 -2.58758e-05 2.70181e-05
0 -2.36071e-05 2.32717e-05 0 -2.94433e-05 2.02679e-05
0 -2.64381e-05 1.57088e-05 0 -3.27954e-05 1.29198e-05
0 -2.91312e-05 7.933e-06 0 -3.60636e-05 5.50634e-06
0 -3.16951e-05 1.58477e-08 0 -3.91657e-05 -2.14324e-06
0 -3.4159e-05 -8.01348e-06 0 -4.21813e-05 -9.87111e-06
0 -3.65274e-05 -1.61e-05 0 -4.50703e-05 -1.76726e-05
0 -3.88113e-05 -2.41833e-05 0 -4.78746e-05 -2.54753e-05
0 -4.10289e-05 -3.21993e-05 0 -5.05958e-05 -3.32311e-05
0 -4.31987e-05 -4.00965e-05 0 -5.32533e-05 -4.08806e-05
0 -4.5334e-05 -4.78307e-05 0 -5.58612e-05 -4.83634e-05
0 -4.74472e-05 -5.53484e-05 0 -5.84318e-05 -5.56279e-05
0 -4.95543e-05 -6.25902e-05 0 -6.09779e-05 -6.26256e-05
0 -5.16704e-05 -6.95027e-05 0 -6.35106e-05 -6.93098e-05
0 -5.38059e-05 -7.60451e-05 0 -6.604e-05 -7.56327e-05
0 -5.59693e-05 -8.21823e-05 0 -6.85729e-05 -8.15504e-05
0 -5.81665e-05 -8.7877e-05 0 -7.11122e-05 -8.70267e-05
0 -6.04001e-05 -9.30923e-05 0 -7.36563e-05 -9.20323e-05
0 -6.26678e-05 -9.77987e-05 0 -7.62004e-05 -9.65426e-05
0 -6.49626e-05 -0.000101977 0 -7.87346e-05 -0.000100536
0 -6.72725e-05 -0.000105614 0 -8.12441e-05 -0.000103998
0 -6.95787e-05 -0.000108701 0 -8.37075e-05 -0.00010692
0 -7.20851e-05 -0.000111196 0 -8.63116e-05 -0.000109271
0 -7.47819e-05 -0.000113109 0 -8.9095e-05 -0.000111026
0 -7.75649e-05 -0.000114459 0 -9.19188e-05 -0.000112239
0 -8.02631e-05 -0.000115286 0 -9.46571e-05 -0.000112926
0 -8.26866e-05 -0.000115629 0 -9.71014e-05 -0.000113157
0 -8.47214e-05 -0.000115523 0 -9.91646e-05 -0.000112954
0 -8.62829e-05 -0.000114953 0 -0.000100732 -0.000112323
0 -8.72711e-05 -0.000113941 0 -0.000101712 -0.000111275
0 -8.75968e-05 -0.000112519 0 -0.000102002 -0.000109821
0 -8.71976e-05 -0.00011071 0 -0.000101545 -0.000108002
0 -8.60389e-05 -0.000108537 0 -0.000100299 -0.000105841
0 -8.41023e-05 -0.000106023 0 -9.82481e-05 -0.000103357
0 -8.13897e-05 -0.00010318 0 -9.53964e-05 -0.000100563
0 -7.79256e-05 -0.000100017 0 -9.17682e-05 -9.74668e-05
0 -7.37513e-05 -9.65349e-05 0 -8.74056e-05 -9.40697e-05
0 -6.89234e-05 -9.27305e-05 0 -8.23688e-05 -9.03675e-05
0 -6.35182e-05 -8.85986e-05 0 -7.67376e-05 -8.63502e-05
0 -5.76343e-05 -8.4129e-05 0 -7.06138e-05 -8.2004e-05
0 -5.13912e-05 -7.93076e-05 0 -6.41202e-05 -7.73118e-05
0 -4.49218e-05 -7.412e-05 0 -5.73943e-05 -7.22551e-05
0 -3.83616e-05 -6.85545e-05 0 -5.05755e-05 -6.68174e-05
0 -3.18395e-05 -6.26045e-05 0 -4.37964e-05 -6.09872e-05
0 -2.54724e-05 -5.62694e-05 0 -3.71773e-05 -5.47598e-05
0 -1.93595e-05 -4.95566e-05 0 -3.08207e-05 -4.81402e-05
0 -1.35791e-05 -4.2483e-05 0 -2.48076e-05 -4.11431e-05
0 -8.18279e-06 -3.50763e-05 0 -1.91927e-05 -3.37947e-05
0 -3.20235e-06 -2.73743e-05 0 -1.401e-05 -2.61318e-05
0 1.34084e-06 -1.94215e-05 0 -9.28005e-06 -1.82108e-05
0 5.4944e-06 -1.18847e-05 0 -4.94692e-06 -1.08001e-05
0 9.19993e-06 -4.61072e-06 0 -1.00652e-06 -3.58872e-06
0 1.23266e-05 2.85564e-06 0 1.77657e-06 3.9945e-06
0 1.48052e-05 1.02792e-05 0 3.9434e-06 1.13599e-05
0 1.60311e-05 1.78166e-05 0 5.39687e-06 1.88172e-05
0 1.79427e-05 2.51557e-05 0 7.36921e-06 2.61091e-05
0 1.98549e-05 3.24229e-05 0 9.82684e-06 3.30452e-05
0 2.16564e-05 3.947e-05 0 1.16362e-05 4.00323e-05
0 2.30951e-05 4.63149e-05 0 1.34915e-05 4.66917e-05
0 2.43789e-05 5.28574e-05 0 1.51037e-05 5.31416e-05
0 2.56027e-05 5.90634e-05 0 1.65314e-05 5.9255e-05
0 2.6709e-05 6.49196e-05 0 1.78075e-05 6.50088e-05
0 2.76819e-05 7.03667e-05 0 1.89938e-05 7.03419e-05
0 2.86106e-05 7.53298e-05 0 2.01033e-05 7.52289e-05
0 2.95368e-05 7.97722e-05 0 2.11483e-05 7.9625e-05
0 3.04432e-05 8.36859e-05 0 2.21537e-05 8.34863e-05
0 3.13372e-05 8.70479e-05 0 2.31345e-05 8.67822e-05
0 3.22471e-05 8.98199e-05 0 2.40912e-05 8.9499e-05
0 3.33414e-05 9.19526e-05 0 2.51857e-05 9.16011e-05
0 3.45878e-05 9.34564e-05 0 2.64306e-05 9.30627e-05
0 3.58945e-05 9.43488e-05 0 2.77291e-05 9.39139e-05
0 3.7208e-05 9.46462e-05 0 2.90484e-05 9.41517e-05
0 3.84819e-05 9.43317e-05 0 3.03194e-05 9.37936e-05
0 3.96431e-05 9.33804e-05 0 3.14704e-05 9.28014e-05
0 4.00587e-05 9.19065e-05 0 3.18055e-05 9.12852e-05
0 3.95709e-05 8.99309e-05 0 3.10155e-05 8.94107e-05
0 3.86802e-05 8.74406e-05 0 3.00457e-05 8.69142e-05
0 3.74115e-05 8.44287e-05 0 2.85683e-05 8.39515e-05
0 3.5738e-05 8.09492e-05 0 2.66629e-05 8.04992e-05
0 3.36521e-05 7.70188e-05 0 2.43335e-05 7.66112e-05
0 3.11513e-05 7.26567e-05 0 2.15895e-05 7.23071e-05
0 2.82467e-05 6.78927e-05 0 1.84235e-05 6.76162e-05
0 2.49463e-05 6.27661e-05 0 1.48393e-05 6.25661e-05
0 2.19836e-05 5.71617e-05 0 1.0996e-05 5.71764e-05
0 1.89348e-05 5.12061e-05 0 6.69442e-06 5.15237e-05
0 1.56162e-05 4.49667e-05 0 2.30682e-06 4.5588e-05
0 1.18697e-05 3.85626e-05 0 -1.50589e-06 3.91574e-05
0 7.92994e-06 3.19246e-05 0 -6.04197e-06 3.26888e-05
0 3.82361e-06 2.51059e-05 0 -1.06472e-05 2.60606e-05
0 -5.83057e-07 1.84575e-05 0 -1.55313e-05 1.96469e-05
0 -5.29118e-06 1.22108e-05 0 -2.06327e-05 1.37777e-05
0 -1.01632e-05 5.85602e-06 0 -2.5929e-05 7.73797e-06
0 -1.51517e-05 -5.71926e-07 0 -3.13363e-05 1.69397e-06
0 -2.02056e-05 -7.04089e-06 0 -3.67929e-05 -4.4476e-06
0 -2.5293e-05 -1.35614e-05 0 -4.2246e-05 -1.06198e-05
0 -3.03175e-05 -2.01258e-05 0 -4.76131e-05 -1.68439e-05
0 -3.52135e-05 -2.67188e-05 0 -5.28423e-05 -2.31108e-05
0 -3.99331e-05 -3.33216e-05 0 -5.7866e-05 -2.94154e-05
0 -4.44179e-05 -3.99256e-05 0 -6.26238e-05 -3.57481e-05
0 -4.8604e-05 -4.65265e-05 0 -6.7064e-05 -4.20882e-05
0 -5.24424e-05 -5.31043e-05 0 -7.11362e-05 -4.8422e-05
0 -5.58998e-05 -5.96283e-05 0 -7.47997e-05 -5.47325e-05
0 -5.89463e-05 -6.60686e-05 0 -7.80227e-05 -6.09969e-05
0 -6.1555e-05 -7.23997e-05 0 -8.07819e-05 -6.71842e-05
0 -6.37054e-05 -7.85937e-05 0 -8.30573e-05 -7.32594e-05
0 -6.53819e-05 -8.46145e-05 0 -8.48333e-05 -7.91872e-05
0 -6.65723e-05 -9.04193e-05 0 -8.61007e-05 -8.49297e-05
0 -6.72727e-05 -9.59638e-05 0 -8.686e-05 -9.04449e-05
0 -6.74903e-05 -0.000101204 0 -8.71216e-05 -9.56855e-05
0 -6.72396e-05 -0.000106096 0 -8.69027e-05 -0.000100601
0 -6.65379e-05 -0.000110592 0 -8.62201e-05 -0.000105141
0 -6.5376e-05 -0.000114645 0 -8.50544e-05 -0.000109265
0 -6.37756e-05 -0.000118206 0 -8.34675e-05 -0.000112912
0 -6.17925e-05 -0.000121219 0 -8.15071e-05 -0.000116018
0 -5.94951e-05 -0.000123632 0 -7.92323e-05 -0.000118517
0 -5.69507e-05 -0.000125396 0 -7.67162e-05 -0.00012036
0 -5.42296e-05 -0.000126465 0 -7.4035e-05 -0.000121498
0 -5.1411e-05 -0.000126771 0 -7.12658e-05 -0.00012187
0 -4.8577e-05 -0.000126219 0 -6.84943e-05 -0.000121357
0 -4.57998e-05 -0.000124791 0 -6.57902e-05 -0.000119954
0 -4.31466e-05 -0.000122469 0 -6.32227e-05 -0.000117633
0 -4.06786e-05 -0.000119248 0 -6.08515e-05 -0.000114392
0 -3.84476e-05 -0.000115136 0 -5.87273e-05 -0.000110237
0 -3.64931e-05 -0.000110155 0 -5.68891e-05 -0.00010519
0 -3.48427e-05 -0.000104342 0 -5.53636e-05 -9.92872e-05
0 -3.35112e-05 -9.77439e-05 0 -5.41646e-05 -9.25771e-05
0 -3.25014e-05 -9.0422e-05 0 -5.32939e-05 -8.51227e-05
0 -3.1805e-05 -8.24493e-05 0 -5.2742e-05 -7.69984e-05
0 -3.14039e-05 -7.39106e-05 0 -5.24893e-05 -6.82904e-05
0 -3.12718e-05 -6.48995e-05 0 -5.25067e-05 -5.90951e-05
0 -3.13745e-05 -5.55177e-05 0 -5.27567e-05 -4.95183e-05
0 -3.16707e-05 -4.58735e-05 0 -5.31948e-05 -3.96722e-05
0 -3.21134e-05 -3.60806e-05 0 -5.37701e-05 -2.96743e-05
0 -3.26505e-05 -2.62566e-05 0 -5.44267e-05 -1.96456e-05
0 -3.32895e-05 -1.65093e-05 0 -5.51905e-05 -9.69601e-06
0 -3.39788e-05 -7.51992e-06 0 -5.5988e-05 -6.99478e-07
0 -3.46778e-05 6.64164e-07 0 -5.67247e-05 7.62264e-06
0 -3.53555e-05 8.60105e-06 0 -5.75273e-05 1.57825e-05
0 -3.59839e-05 1.61011e-05 0 -5.81971e-05 2.34268e-05
0 -3.64747e-05 2.30827e-05 0 -5.87345e-05 3.05854e-05
0 -3.67925e-05 2.94935e-05 0 -5.90609e-05 3.71282e-05
0 -3.68905e-05 3.52746e-05 0 -5.91373e-05 4.30037e-05
0 -3.6718e-05 4.03539e-05 0 -5.89182e-05 4.81517e-05
0 -3.62278e-05 4.46667e-05 0 -5.83483e-05 5.25228e-05
0 -3.53696e-05 4.81758e-05 0 -5.73721e-05 5.6067e-05
0 -3.40868e-05 5.08591e-05 0 -5.59286e-05 5.87405e-05
0 -3.23142e-05 5.26928e-05 0 -5.39553e-05 6.05152e-05
0 -2.99854e-05 5.36516e-05 0 -5.13879e-05 6.13784e-05
0 -2.62672e-05 5.36275e-05 0 -4.72233e-05 6.12187e-05
0 -2.12121e-05 5.27091e-05 0 -4.15673e-05 5.99363e-05
0 -1.5578e-05 5.09082e-05 0 -3.55649e-05 5.79265e-05
0 -9.66749e-06 4.83622e-05 0 -2.9504e-05 5.50937e-05
0 -3.82935e-06 4.50857e-05 0 -2.36541e-05 5.17144e-05
0 1.21184e-06 4.13754e-05 0 -1.77792e-05 4.73822e-05
0 6.26869e-06 3.71556e-05 0 -1.16118e-05 4.25476e-05
0 1.16442e-05 3.24697e-05 0 -5.52107e-06 3.73059e-05
0 1.70611e-05 2.74501e-05 0 5.55642e-07 3.17695e-05
0 2.2214e-05 2.22532e-05 0 6.52803e-06 2.60294e-05
0 2.71279e-05 1.69706e-05 0 1.22745e-05 2.02134e-05
0 3.18179e-05 1.16967e-05 0 1.76433e-05 1.44614e-05
0 3.61065e-05 6.55832e-06 0 2.25636e-05 8.87422e-06
0 3.98482e-05 1.66155e-06 0 2.69617e-05 3.55155e-06
0 4.30186e-05 -2.91804e-06 0 3.07411e-05 -1.39973e-06
0 4.5582e-05 -7.09973e-06 0 3.38233e-05 -5.88984e-06
0 4.74535e-05 -1.08004e-05 0 3.61634e-05 -9.8501e-06
0 4.85818e-05 -1.39035e-05 0 3.77297e-05 -1.32096e-05
0 4.89703e-05 -1.63264e-05 0 3.84918e-05 -1.58555e-05
0 4.86432e-05 -1.81743e-05 0 3.84438e-05 -1.77576e-05
0 4.76063e-05 -1.94633e-05 0 3.76354e-05 -1.91185e-05
0 4.59029e-05 -2.0189e-05 0 3.60912e-05 -1.98507e-05
0 4.35661e-05 -2.03721e-05 0 3.38316e-05 -2.00054e-05
0 4.05768e-05 -2.00325e-05 0 3.0851e-05 -1.95845e-05
0 3.69929e-05 -1.9187e-05 0 2.72651e-05 -1.86411e-05
0 3.29193e-05 -1.78721e-05 0 2.31491e-05 -1.71951e-05
0 2.84666e-05 -1.61554e-05 0 1.8607e-05 -1.53233e-05
0 2.37359e-05 -1.41106e-05 0 1.3754e-05 -1.30994e-05
0 1.8838e-05 -1.18168e-05 0 8.71148e-06 -1.06122e-05
0 1.38996e-05 -9.39553e-06 0 3.60399e-06 -8.03695e-06
0 9.02887e-06 -6.89024e-06 0 -1.45017e-06 -5.40429e-06
0 4.46586e-06 -4.54267e-06 0 -6.27056e-06 -2.80624e-06
0 3.13219e-07 -2.24275e-06 0 -1.06407e-05 -3.02267e-07
0 -3.36203e-06 -6.51195e-08 0 -1.45013e-05 2.13607e-06
0 -6.55649e-06 1.931e-06 0 -1.7883e-05 4.33641e-06
0 -9.26933e-06 3.70164e-06 0 -2.07674e-05 6.3048e-06
0 -1.15104e-05 5.2219e-06 0 -2.316e-05 7.98654e-06
0 -1.3289e-05 6.46819e-06 0 -2.50773e-05 9.36574e-06
0 -1.462e-05 7.4179e-06 0 -2.65279e-05 1.04216e-05
0 -1.55168e-05 8.05695e-06 0 -2.75244e-05 1.11435e-05
0 -1.59919e-05 8.38059e-06 0 -2.80787e-05 1.15242e-05
0 -1.60608e-05 8.37297e-06 0 -2.82074e-05 1.15487e-05
0 -1.57511e-05 8.03642e-06 0 -2.79362e-05 1.12144e-05
0 -1.51012e-05 7.3857e-06 0 -2.73073e-05 1.05448e-05
0 -1.41607e-05 6.44314e-06 0 -2.63712e-05 9.56541e-06
0 -1.29831e-05 5.23872e-06 0 -2.51827e-05 8.30986e-06
0 -1.14371e-05 3.76971e-06 0 -2.37501e-05 6.81157e-06
0 -9.73381e-06 2.10924e-06 0 -2.21935e-05 5.12282e-06
0 -7.97348e-06 3.98212e-07 0 -2.05018e-05 3.3049e-06
0 -6.13599e-06 -1.41772e-06 0 -1.86942e-05 1.37066e-06
0 -4.16473e-06 -3.27501e-06 0 -1.67958e-05 -5.17342e-07
0 -2.06237e-06 -5.18414e-06 0 -1.48194e-05 -2.48602e-06
0 -5.35766e-07 -7.01035e-06 0 -1.36855e-05 -4.28729e-06
0 5.77671e-07 -8.75473e-06 0 -1.26623e-05 -6.04261e-06
0 1.573e-06 -1.04195e-05 0 -1.18083e-05 -7.73516e-06
