-6.81312e-06 -1.63099e-05 -7.11685e-07 7.15372e-06 1.63292e-05 6.62914e-07
-7.02522e-06 -1.6292e-05 -7.12629e-07 6.93393e-06 1.63503e-05 6.61271e-07
-7.49627e-06 -1.62535e-05 -7.14623e-07 6.45008e-06 1.63914e-05 6.59395e-07
-8.45138e-06 -1.61851e-05 -7.16684e-07 5.46696e-06 1.64656e-05 6.56212e-07
-9.51557e-06 -1.61221e-05 -7.17426e-07 4.37198e-06 1.65339e-05 6.55002e-07
-1.08565e-05 -1.60617e-05 -7.15992e-07 2.99249e-06 1.66007e-05 6.55651e-07
-1.24812e-05 -1.60148e-05 -7.11029e-07 1.32155e-06 1.6654e-05 6.59963e-07
-1.43952e-05 -1.59942e-05 -7.0096e-07 -6.46193e-07 1.66801e-05 6.69406e-07
-1.66048e-05 -1.60144e-05 -6.8437e-07 -2.91699e-06 1.66638e-05 6.85623e-07
-1.91162e-05 -1.60915e-05 -6.59896e-07 -5.49659e-06 1.65887e-05 7.10154e-07
-2.19308e-05 -1.62426e-05 -6.26211e-07 -8.38632e-06 1.64366e-05 7.44409e-07
-2.50366e-05 -1.64867e-05 -5.82107e-07 -1.15732e-05 1.61876e-05 7.89666e-07
-2.83984e-05 -1.68446e-05 -5.26692e-07 -1.50125e-05 1.5823e-05 8.46672e-07
-3.19448e-05 -1.73366e-05 -4.59876e-07 -1.86281e-05 1.53173e-05 9.16096e-07
-3.55774e-05 -1.79904e-05 -3.81242e-07 -2.23298e-05 1.46424e-05 9.97899e-07
-3.9161e-05 -1.8831e-05 -2.91819e-07 -2.59763e-05 1.37717e-05 1.09276e-06
-4.25373e-05 -1.98799e-05 -1.9318e-07 -2.94034e-05 1.26834e-05 1.1979e-06
-4.55385e-05 -2.11529e-05 -8.84815e-08 -3.24406e-05 1.13587e-05 1.31033e-06
-4.80065e-05 -2.26581e-05 1.75128e-08 -3.4926e-05 9.78861e-06 1.42557e-06
-4.97998e-05 -2.43928e-05 1.19535e-07 -3.67145e-05 7.9762e-06 1.53755e-06
-5.07917e-05 -2.63425e-05 2.07659e-07 -3.76767e-05 5.93623e-06 1.63767e-06
-5.08549e-05 -2.84823e-05 2.72464e-07 -3.76832e-05 3.69424e-06 1.71571e-06
-4.98492e-05 -3.07778e-05 3.02746e-07 -3.65911e-05 1.28593e-06 1.76013e-06
-4.76099e-05 -3.3185e-05 2.86099e-07 -3.42332e-05 -1.24347e-06 1.75824e-06
-4.39507e-05 -3.5651e-05 2.08847e-07 -3.04207e-05 -3.83743e-06 1.69634e-06
-3.86926e-05 -3.81086e-05 5.68742e-08 -2.4974e-05 -6.4109e-06 1.56462e-06
-3.17371e-05 -4.04729e-05 -1.80662e-07 -1.7793e-05 -8.89936e-06 1.33657e-06
-2.31596e-05 -4.26381e-05 -5.24621e-07 -8.95842e-06 -1.11796e-05 1.00361e-06
-1.32821e-05 -4.44665e-05 -9.9028e-07 1.1979e-06 -1.311e-05 5.4642e-07
-2.63551e-06 -4.58017e-05 -1.5922e-06 1.21282e-05 -1.45248e-05 -4.81568e-08
8.16543e-06 -4.64862e-05 -2.3387e-06 2.32008e-05 -1.52596e-05 -7.91787e-07
1.85454e-05 -4.63756e-05 -3.24013e-06 3.38573e-05 -1.51556e-05 -1.696e-06
2.79926e-05 -4.53613e-05 -4.29684e-06 4.35446e-05 -1.41038e-05 -2.76028e-06
3.61137e-05 -4.33744e-05 -5.50129e-06 5.18517e-05 -1.20298e-05 -3.98258e-06
4.26635e-05 -4.03879e-05 -6.83907e-06 5.85192e-05 -8.91152e-06 -5.34355e-06
4.75703e-05 -3.64134e-05 -8.28652e-06 6.34598e-05 -4.76574e-06 -6.8204e-06
5.09011e-05 -3.15146e-05 -9.81103e-06 6.67298e-05 3.47779e-07 -8.38202e-06
5.2742e-05 -2.58117e-05 -1.13767e-05 6.84646e-05 6.30806e-06 -9.9886e-06
5.33017e-05 -1.94304e-05 -1.2938e-05 6.88632e-05 1.29878e-05 -1.15914e-05
5.28147e-05 -1.25271e-05 -1.44442e-05 6.81697e-05 2.0224e-05 -1.31495e-05
5.15304e-05 -5.29883e-06 -1.58472e-05 6.66519e-05 2.78088e-05 -1.45999e-05
4.96777e-05 2.06702e-06 -1.70943e-05 6.45499e-05 3.55339e-05 -1.58987e-05
4.74179e-05 9.37935e-06 -1.81353e-05 6.20303e-05 4.32035e-05 -1.69884e-05
4.48241e-05 1.6454e-05 -1.89215e-05 5.91751e-05 5.06246e-05 -1.78202e-05
4.19245e-05 2.31158e-05 -1.94079e-05 5.60198e-05 5.76135e-05 -1.83481e-05
3.87945e-05 2.91988e-05 -1.95524e-05 5.26462e-05 6.39914e-05 -1.85308e-05
3.56457e-05 3.45702e-05 -1.93218e-05 4.92792e-05 6.95883e-05 -1.83291e-05
3.28766e-05 3.90135e-05 -1.86855e-05 4.63275e-05 7.42208e-05 -1.77189e-05
3.10446e-05 4.23831e-05 -1.76286e-05 4.43649e-05 7.77262e-05 -1.66769e-05
3.08438e-05 4.45499e-05 -1.6139e-05 4.41063e-05 7.99621e-05 -1.5193e-05
3.41015e-05 4.54171e-05 -1.36724e-05 4.74279e-05 8.08172e-05 -1.27178e-05
4.27312e-05 4.41635e-05 -1.05651e-05 5.63087e-05 7.94403e-05 -9.58367e-06
5.80084e-05 4.08742e-05 -6.88081e-06 7.20527e-05 7.59159e-05 -5.85548e-06
8.05645e-05 3.58405e-05 -2.71791e-06 9.53012e-05 7.05457e-05 -1.63423e-06
0.000110194 2.95671e-05 1.84241e-06 0.000125833 6.3858e-05 2.99168e-06
0.000145773 2.27618e-05 6.60999e-06 0.000162476 5.66008e-05 7.86865e-06
0.000185262 1.63005e-05 1.13904e-05 0.000203123 4.97002e-05 1.2722e-05
0.000225896 1.11435e-05 1.60077e-05 0.000244919 4.41558e-05 1.7425e-05
0.000264707 8.22473e-06 2.0298e-05 0.000284797 4.09588e-05 2.17617e-05
0.000299176 8.33279e-06 2.41171e-05 0.000320155 4.09369e-05 2.56163e-05
0.000327659 1.20198e-05 2.73668e-05 0.000349289 4.46679e-05 2.88736e-05
0.000349408 1.95623e-05 3.00024e-05 0.000371423 5.2444e-05 3.14916e-05
0.000364409 3.09598e-05 3.20302e-05 0.000386537 6.42645e-05 3.34674e-05
0.000373202 4.5954e-05 3.35027e-05 0.000395192 7.98603e-05 3.48601e-05
0.000376646 6.40667e-05 3.45166e-05 0.000398276 9.87273e-05 3.57728e-05
0.000375642 8.46492e-05 3.52088e-05 0.000396731 0.000120187 3.63466e-05
0.000371095 0.000106921 3.57459e-05 0.000391505 0.000143422 3.6752e-05
0.000364116 0.000129991 3.63126e-05 0.000383763 0.000167497 3.71803e-05
0.000356186 0.00015289 3.71008e-05 0.000375048 0.000191392 3.78332e-05
0.000349051 0.000174627 3.82992e-05 0.000367175 0.000214069 3.89073e-05
0.000344408 0.000194278 4.00786e-05 0.00036191 0.000234558 4.05796e-05
0.000343487 0.000211066 4.2578e-05 0.000360537 0.000252045 4.2994e-05
0.000346818 0.000224429 4.58936e-05 0.000363616 0.000265941 4.62516e-05
0.000354413 0.000234019 5.00741e-05 0.000371175 0.000275879 5.04044e-05
0.000366042 0.000239694 5.51195e-05 0.000382979 0.000281712 5.54532e-05
0.000381315 0.000241507 6.09804e-05 0.000398629 0.000283498 6.13474e-05
0.000399723 0.000239701 6.75599e-05 0.000417596 0.000281491 6.79876e-05
0.000420667 0.000234685 7.47176e-05 0.000439256 0.000276121 7.52305e-05
0.000443504 0.000227008 8.22772e-05 0.00046293 0.000267966 8.28953e-05
0.00046754 0.000217337 9.00338e-05 0.000487891 0.000257724 9.07713e-05
0.000492013 0.000206417 9.77634e-05 0.000513335 0.000246178 9.86281e-05
0.000516132 0.000195039 0.000105233 0.000538427 0.000234158 0.000106226
0.000539188 0.000183989 0.000112213 0.00056242 0.00022249 0.000113329
0.00056069 0.000174003 0.000118485 0.000584788 0.000211943 0.000119713
0.000580385 0.000165731 0.000123856 0.000605255 0.000203198 0.000125179
0.000598127 0.000159725 0.000128162 0.000623652 0.000196836 0.000129558
0.000613574 0.000156442 0.000131275 0.000639617 0.000193337 0.000132718
0.000625955 0.000156248 0.000133109 0.00065235 0.000193085 0.00013457
0.000634106 0.000159388 0.000133623 0.000660651 0.00019634 0.000135071
0.000636792 0.000165937 0.000132828 0.000663252 0.000203184 0.000134231
0.000634327 0.000173549 0.000131292 0.000660532 0.000211156 0.000132637
0.000624986 0.000185737 0.00012834 0.000650635 0.000223941 0.000129587
0.000608667 0.000200361 0.000124395 0.000633507 0.000239295 0.00012552
0.000585895 0.000216641 0.000119657 0.000609707 0.000256404 0.000120643
0.000557545 0.000233637 0.000114363 0.000580154 0.00027428 0.000115199
0.000524624 0.00025031 0.000108765 0.000545913 0.000291835 0.00010945
0.000488231 0.000265574 0.000103123 0.00050814 0.000307928 0.000103665
0.000449471 0.000278355 9.76882e-05 0.000468 0.000321434 9.81032e-05
0.000409362 0.000287652 9.26893e-05 0.000426566 0.0003313 9.30006e-05
0.00036882 0.000292578 8.83197e-05 0.000384803 0.0003366 8.8558e-05
0.000328637 0.000292411 8.47273e-05 0.000343547 0.000336573 8.49286e-05
0.000289419 0.000286627 8.20052e-05 0.000303435 0.000330672 8.22097e-05
0.000251642 0.000274921 8.01866e-05 0.000264965 0.000318576 8.04367e-05
0.000215858 0.000257204 7.92421e-05 0.000228709 0.000300191 7.95809e-05
0.000182903 0.000233593 7.90803e-05 0.000195519 0.000275639 7.95497e-05
0.000153752 0.000204428 7.95479e-05 0.000166386 0.000245275 8.01871e-05
0.000129066 0.00017031 8.04327e-05 0.000141969 0.000209731 8.12757e-05
0.000109007 0.000132098 8.14708e-05 0.000122411 0.000169908 8.25447e-05
9.33595e-05 9.08728e-05 8.23575e-05 0.000107459 0.000126937 8.36809e-05
8.16284e-05 4.78788e-05 8.27613e-05 9.6573e-05 8.21227e-05 8.4343e-05
7.30763e-05 4.47535e-06 8.23401e-05 8.8956e-05 3.68914e-05 8.41781e-05
6.6691e-05 -3.79199e-05 8.0758e-05 8.35311e-05 -7.27135e-06 8.28388e-05
6.12902e-05 -7.78178e-05 7.76924e-05 7.88731e-05 -4.88626e-05 8.00002e-05
5.49811e-05 -0.000113705 7.29063e-05 7.33536e-05 -8.6344e-05 7.53812e-05
4.57915e-05 -0.000144524 6.61804e-05 6.47715e-05 -0.000118288 6.87972e-05
3.19953e-05 -0.000169367 5.73574e-05 5.12697e-05 -0.000144041 6.00635e-05
1.27089e-05 -0.000187682 4.63985e-05 3.19902e-05 -0.000162871 4.9127e-05
-1.19296e-05 -0.000199245 3.33327e-05 7.04272e-06 -0.000174681 3.60444e-05
-4.11462e-05 -0.000204206 1.83008e-05 -2.2786e-05 -0.000179539 2.09324e-05
-7.40992e-05 -0.000202986 1.53778e-06 -5.66056e-05 -0.00017793 4.05055e-06
-0.000110259 -0.000196258 -1.63339e-05 -9.38596e-05 -0.000170575 -1.40861e-05
-0.000149457 -0.000184861 -3.53223e-05 -0.000134354 -0.000158334 -3.31264e-05
-0.000191561 -0.000169838 -5.49294e-05 -0.000177917 -0.000142291 -5.29609e-05
-0.00023624 -0.000152392 -7.47e-05 -0.000224178 -0.000123716 -7.2941e-05
-0.000283041 -0.000133851 -9.41645e-05 -0.000272635 -0.000104012 -9.26298e-05
-0.000331538 -0.000115594 -0.000112858 -0.000322814 -8.45911e-05 -0.000111535
-0.000381353 -9.89812e-05 -0.000130303 -0.000374282 -6.68993e-05 -0.000129152
-0.000432059 -8.53246e-05 -0.000146049 -0.000426567 -5.23041e-05 -0.000145067
-0.000483046 -7.58457e-05 -0.000159711 -0.000479008 -4.20798e-05 -0.000158866
-0.000533291 -7.16405e-05 -0.000170973 -0.000530523 -3.7379e-05 -0.000170214
-0.000581197 -7.36435e-05 -0.000179582 -0.000579453 -3.91831e-05 -0.000178857
-0.000624718 -8.25679e-05 -0.000185375 -0.000623688 -4.82446e-05 -0.00018463
-0.0006618 -9.88191e-05 -0.000188292 -0.000661119 -6.49878e-05 -0.000187476
-0.000690846 -0.000122415 -0.000188389 -0.000690113 -8.94348e-05 -0.000187444
-0.000710972 -0.00015295 -0.000185832 -0.000709782 -0.000121164 -0.000184699
-0.000722149 -0.00018959 -0.000180887 -0.000720123 -0.000159303 -0.000179519
-0.000725161 -0.000231112 -0.00017392 -0.000721973 -0.000202569 -0.000172278
-0.000721477 -0.000275967 -0.000165374 -0.000716882 -0.000249339 -0.00016343
-0.000713119 -0.000322366 -0.00015575 -0.000706967 -0.000297739 -0.000153487
-0.000702397 -0.000368395 -0.000145578 -0.000694646 -0.000345764 -0.000142993
-0.000691577 -0.000412138 -0.000135392 -0.00068229 -0.000391408 -0.000132499
-0.000682652 -0.000451787 -0.000125702 -0.000671988 -0.000432778 -0.000122527
-0.000677299 -0.000485735 -0.000116973 -0.000665499 -0.000468196 -0.000113557
-0.000676841 -0.000512656 -0.000109604 -0.000664214 -0.000496272 -0.000105993
-0.00068033 -0.000530975 -0.000103977 -0.000668728 -0.000515814 -0.000100171
-0.000682464 -0.000537564 -0.000100424 -0.000677825 -0.000525368 -9.64099e-05
-0.000691937 -0.000535939 -9.87338e-05 -0.000693881 -0.00052617 -9.46781e-05
-0.000710669 -0.000528253 -9.88709e-05 -0.000715664 -0.000518834 -9.47895e-05
-0.000735664 -0.000513273 -0.000100795 -0.000743139 -0.000503616 -9.67797e-05
-0.000826831 -0.000491958 -0.000104294 -0.00103266 -0.000483293 -0.000100198
-0.00164804 -0.000468303 -0.000108884 -0.00192286 -0.000458343 -0.00010526
-0.00263466 -0.000439782 -0.000114746 -0.00293345 -0.000429174 -0.000110995
-0.00374488 -0.0004076 -0.000121278 -0.00408613 -0.000396106 -0.000117896
-0.00496627 -0.000373236 -0.000128257 -0.00535162 -0.00036086 -0.000124985
-0.00626061 -0.000338059 -0.000135238 -0.00668877 -0.000324581 -0.000132194
-0.00757449 -0.000303194 -0.000141844 -0.00804944 -0.000288779 -0.000139016
-0.00885606 -0.000270092 -0.000147701 -0.00937586 -0.000254788 -0.000145083
-0.0100583 -0.000240019 -0.000152474 -0.0106186 -0.000223908 -0.000150015
-0.0111473 -0.000214054 -0.000155845 -0.0117448 -0.000197279 -0.00015352
-0.0121068 -0.000193191 -0.000157544 -0.0127358 -0.00017591 -0.000155338
-0.0129298 -0.000178181 -0.000157391 -0.0135834 -0.000160596 -0.000155267
-0.0136112 -0.000169548 -0.000155288 -0.0142826 -0.000151886 -0.000153192
-0.0141436 -0.000167604 -0.000151198 -0.0148255 -0.000150078 -0.000149081
-0.0145166 -0.00017239 -0.000145163 -0.015201 -0.000155221 -0.000142988
-0.0147177 -0.000183688 -0.000137314 -0.015397 -0.000167097 -0.000135047
-0.0147504 -0.000201153 -0.000127864 -0.0154227 -0.000185381 -0.000125453
-0.0147419 -0.000224576 -0.000117075 -0.0154132 -0.000209939 -0.00011447
-0.0147254 -0.000253019 -0.000105305 -0.0153955 -0.000239752 -0.000102466
-0.0147018 -0.000285139 -9.29708e-05 -0.0153704 -0.000273391 -8.98865e-05
-0.0146724 -0.000319326 -8.05517e-05 -0.0153393 -0.000309223 -7.71958e-05
-0.0146461 -0.000346995 -7.08893e-05 -0.0153116 -0.000338222 -6.73138e-05
-0.0146184 -0.000373946 -6.17455e-05 -0.0152825 -0.000366466 -5.79528e-05
-0.0145904 -0.000399261 -5.33627e-05 -0.0152531 -0.000392995 -4.93679e-05
-0.014563 -0.000422071 -4.59688e-05 -0.0152245 -0.000416905 -4.17938e-05
-0.0145372 -0.000441585 -3.97703e-05 -0.0151975 -0.000437367 -3.54406e-05
-0.0145137 -0.000457116 -3.49429e-05 -0.0151731 -0.000453661 -3.04874e-05
-0.0144931 -0.000468107 -3.16241e-05 -0.0151516 -0.000465203 -2.70764e-05
-0.0144756 -0.000474154 -2.99083e-05 -0.0151336 -0.000471574 -2.53076e-05
-0.0144611 -0.000475019 -2.98468e-05 -0.0151188 -0.000472526 -2.52347e-05
-0.0144493 -0.000470635 -3.14465e-05 -0.0151068 -0.000467993 -2.68642e-05
-0.0144395 -0.000461098 -3.46702e-05 -0.0150971 -0.000458077 -3.01561e-05
-0.0144308 -0.000446646 -3.94365e-05 -0.0150887 -0.000443025 -3.5027e-05
-0.0144227 -0.000427628 -4.56241e-05 -0.015081 -0.000423205 -4.13535e-05
-0.0144144 -0.000404481 -5.30766e-05 -0.0150733 -0.000399074 -4.89765e-05
-0.0144059 -0.000377712 -6.16079e-05 -0.0150654 -0.000371162 -5.77054e-05
-0.0143969 -0.000347886 -7.10056e-05 -0.0150571 -0.000340059 -6.73223e-05
-0.0143875 -0.000315626 -8.10352e-05 -0.0150486 -0.000306416 -7.75872e-05
-0.0143776 -0.000281612 -9.14444e-05 -0.0150395 -0.000270944 -8.82426e-05
-0.014367 -0.000246568 -0.000101969 -0.0150297 -0.0002344 -9.90196e-05
-0.0143553 -0.000211239 -0.000112342 -0.0150188 -0.000197562 -0.000109644
-0.0143421 -0.000176363 -0.000122295 -0.0150065 -0.000161203 -0.000119845
-0.0143273 -0.000142651 -0.000131573 -0.0149924 -0.000126065 -0.000129357
-0.0143106 -0.000110761 -0.000139931 -0.0149763 -9.28401e-05 -0.000137934
-0.0142916 -8.12926e-05 -0.000147146 -0.0149578 -6.21537e-05 -0.000145348
-0.0142703 -5.4765e-05 -0.000153022 -0.0149369 -3.45507e-05 -0.000151399
-0.0142464 -3.16042e-05 -0.000157391 -0.0149132 -1.04768e-05 -0.000155916
-0.0142199 -1.21283e-05 -0.00016012 -0.0148867 9.73465e-06 -0.000158763
-0.0141908 3.46179e-06 -0.000161112 -0.0148574 2.58728e-05 -0.000159842
-0.0141593 1.50858e-05 -0.00016031 -0.0148255 3.78534e-05 -0.000159096
-0.0141255 2.27843e-05 -0.000157694 -0.0147912 4.57188e-05 -0.000156504
-0.0140898 2.6715e-05 -0.000153283 -0.0147548 4.96343e-05 -0.000152088
-0.0140527 2.71446e-05 -0.000147135 -0.0147168 4.98795e-05 -0.000145905
-0.0140145 2.44395e-05 -0.00013934 -0.0146777 4.68382e-05 -0.00013805
-0.0139759 1.90525e-05 -0.00013002 -0.0146381 4.09883e-05 -0.000128648
-0.0138689 1.18887e-05 -0.000119351 -0.0144226 3.41858e-05 -0.000117995
-0.0134474 4.09979e-06 -0.000107485 -0.0139731 2.56944e-05 -0.000105972
-0.0130392 -5.15344e-06 -9.4588e-05 -0.0135452 1.63398e-05 -9.30038e-05
-0.0126479 -1.50873e-05 -8.08648e-05 -0.0131299 5.91647e-06 -7.91118e-05
-0.0122738 -2.55185e-05 -6.64408e-05 -0.0127319 -4.83864e-06 -6.45938e-05
-0.0119151 -3.58442e-05 -5.15421e-05 -0.0123505 -1.56128e-05 -4.95877e-05
-0.0115681 -4.55923e-05 -3.63734e-05 -0.0119823 -2.58375e-05 -3.42848e-05
-0.0112292 -5.44223e-05 -2.11345e-05 -0.0116225 -3.5075e-05 -1.89262e-05
-0.0108944 -6.19747e-05 -6.02835e-06 -0.0112664 -4.29481e-05 -3.70037e-06
-0.0105595 -6.78809e-05 9.01465e-06 -0.0109108 -4.90948e-05 1.14088e-05
-0.0102221 -7.17656e-05 2.35172e-05 -0.010553 -5.31293e-05 2.60341e-05
-0.00988145 -7.33637e-05 3.73743e-05 -0.0101918 -5.47128e-05 4.00318e-05
-0.00953834 -7.2398e-05 5.04394e-05 -0.00982842 -5.35596e-05 5.31795e-05
-0.00919484 -6.85944e-05 6.26065e-05 -0.00946487 -4.94978e-05 6.53817e-05
-0.00885348 -6.1911e-05 7.37241e-05 -0.00910387 -4.23862e-05 7.65081e-05
-0.00851641 -5.22787e-05 8.37289e-05 -0.00874764 -3.21692e-05 8.65086e-05
-0.00818484 -3.97014e-05 9.25738e-05 -0.00839758 -1.88648e-05 9.53291e-05
-0.00785888 -2.42612e-05 0.000100233 -0.00805379 -2.56498e-06 0.000102941
-0.00753775 -6.12682e-06 0.000106707 -0.0077154 1.65782e-05 0.000109338
-0.00722046 1.44757e-05 0.00011202 -0.00738136 3.8338e-05 0.000114543
-0.00690661 3.72757e-05 0.000116218 -0.00705122 6.24206e-05 0.000118612
-0.00659691 6.19549e-05 0.000119371 -0.00672568 8.84806e-05 0.000121619
-0.0062933 8.81494e-05 0.000121565 -0.00640673 0.000116136 0.000123655
-0.00599864 0.000115459 0.000122906 -0.00609734 0.000144971 0.000124824
-0.005716 0.000143457 0.00012351 -0.00580074 0.000174538 0.000125246
-0.00544841 0.000171697 0.000123507 -0.00552008 0.000204361 0.000125053
-0.00519886 0.000199719 0.00012303 -0.00525846 0.000233951 0.000124383
-0.00497004 0.000227058 0.000122215 -0.00501869 0.000262814 0.00012338
-0.00476383 0.000253245 0.000121199 -0.00480273 0.000290461 0.000122185
-0.00458109 0.000277827 0.000120118 -0.00461144 0.000316411 0.000120934
-0.00442155 0.000300367 0.000119099 -0.0044445 0.000340205 0.000119759
-0.00428371 0.000320461 0.000118259 -0.00430032 0.000361414 0.000118779
-0.00416471 0.00033774 0.0001177 -0.00417582 0.00037965 0.000118101
-0.00406033 0.000351881 0.000117508 -0.00406652 0.000394579 0.000117815
-0.00396523 0.000362621 0.000117752 -0.00396677 0.000405925 0.000117989
-0.00387351 0.000369764 0.000118477 -0.00387028 0.000413485 0.00011867
-0.00377948 0.000373192 0.000119707 -0.00377103 0.000417137 0.000119884
-0.00367823 0.000372873 0.000121441 -0.00366381 0.000416852 0.000121628
-0.00356543 0.000368859 0.000123653 -0.00354402 0.000412687 0.000123878
-0.00343755 0.000361266 0.000126297 -0.00340742 0.000404784 0.000126584
-0.00329073 0.00035031 0.0001293 -0.00324981 0.000393384 0.000129671
-0.00312162 0.000336306 0.00013257 -0.00306784 0.000378809 0.000133045
-0.00292808 0.000319648 0.000135993 -0.00285945 0.000361471 0.000136589
-0.00270979 0.000300797 0.000139442 -0.0026244 0.000341854 0.000140172
-0.00246852 0.000280279 0.000142776 -0.00236469 0.00032051 0.000143649
-0.00220812 0.000258673 0.000145847 -0.00208457 0.000298043 0.000146867
-0.00193403 0.000236594 0.000148503 -0.00178994 0.00027509 0.00014967
-0.00165225 0.000214664 0.000150592 -0.00148731 0.000252303 0.000151901
-0.00136871 0.000193502 0.000151972 -0.00118308 0.000230326 0.000153413
-0.00108897 0.000173704 0.000152509 -0.000883303 0.000209779 0.000154069
-0.000818262 0.000155824 0.000152087 -0.000593648 0.000191239 0.000153747
-0.000561567 0.000140364 0.000150609 -0.000319492 0.00017523 0.000152347
-0.000323524 0.000127758 0.000148001 -6.58387e-05 0.000162202 0.000149792
-0.000108114 0.000118363 0.000144217 0.000163017 0.000152525 0.000146034
8.18609e-05 0.000112442 0.000139238 0.000364051 0.000146473 0.000141052
0.000245411 0.00011016 0.000133078 0.00053617 0.000144218 0.000134859
0.000383612 0.000111577 0.00012578 0.000680477 0.000145821 0.000127498
0.00049901 0.000116644 0.000117421 0.000821526 0.000151418 0.000119029
0.000591776 0.000125192 0.000108107 0.0010291 0.000161055 0.000109544
0.000670117 0.000136973 9.79596e-05 0.00120016 0.000173884 9.9277e-05
0.000735095 0.000151752 8.71603e-05 0.00133868 0.00018979 8.82547e-05
0.000807188 0.000169268 7.58445e-05 0.00144435 0.000208272 7.67969e-05
0.000888241 0.000188938 6.42674e-05 0.00151151 0.000228928 6.49894e-05
0.00093218 0.000210249 5.2607e-05 0.00154117 0.00025122 5.31215e-05
0.000938525 0.00023267 4.10832e-05 0.00154108 0.000274743 4.13795e-05
0.000935769 0.000255625 2.9917e-05 0.00153799 0.000298939 3.00032e-05
0.000930803 0.000278684 1.93344e-05 0.00153266 0.000323339 1.92043e-05
0.000923479 0.000301412 9.54386e-06 0.00152481 0.000347293 9.20861e-06
0.000913554 0.000323206 7.62898e-07 0.00151424 0.000370238 2.30815e-07
0.00090079 0.000343455 -6.67372e-06 0.00150077 0.000391568 -7.42534e-06
0.000885036 0.000361652 -1.28045e-05 0.00148422 0.000410732 -1.36615e-05
0.000866298 0.000377291 -1.74173e-05 0.00146458 0.000427162 -1.83734e-05
0.000844735 0.00038982 -2.03732e-05 0.00144211 0.00044032 -2.14185e-05
0.000820824 0.000398728 -2.15683e-05 0.00141733 0.000449701 -2.26908e-05
0.000795223 0.000403608 -2.09399e-05 0.00139094 0.000454867 -2.21077e-05
0.000768632 0.000404137 -1.8458e-05 0.00136364 0.000455464 -1.96279e-05
0.000741726 0.00040007 -1.41245e-05 0.00133614 0.000451241 -1.52525e-05
0.000715139 0.000391276 -7.97802e-06 0.00130911 0.000442064 -9.02772e-06
0.000689468 0.000377749 -1.01207e-07 0.00128315 0.000427924 -1.04076e-06
0.000665276 0.000359587 9.56282e-06 0.00125883 0.000408922 8.72608e-06
0.000643091 0.000337037 2.06345e-05 0.00123669 0.000385317 2.00441e-05
0.000623401 0.000310446 3.29548e-05 0.00121723 0.000357467 3.26227e-05
0.000606568 0.000280289 4.62896e-05 0.00120079 0.000325879 4.62257e-05
0.000592719 0.000247161 6.03731e-05 0.0011875 0.000291175 6.05841e-05
0.000581714 0.000211762 7.49057e-05 0.00117719 0.000254096 7.54119e-05
0.000573212 0.000174884 8.95686e-05 0.00116949 0.000215467 9.03942e-05
0.000566715 0.000137376 0.000104038 0.00116386 0.000176178 0.000105197
0.000561588 0.000100124 0.000117995 0.00115964 0.000137158 0.000119483
0.000557091 6.40175e-05 0.000131125 0.00115602 9.93451e-05 0.000132924
0.000552442 2.99204e-05 0.000143123 0.0011522 6.3647e-05 0.000145209
0.0005469 -1.3593e-06 0.000153705 0.00114737 3.091e-05 0.000156053
0.000539823 -2.91015e-05 0.000162618 0.00114088 1.88724e-06 0.000165198
0.000530691 -5.26965e-05 0.000169648 0.00113217 -2.27819e-05 0.000172424
0.000519073 -7.16602e-05 0.000174622 0.00112078 -4.25884e-05 0.000177549
0.000504606 -8.56448e-05 0.000177415 0.00110632 -5.71664e-05 0.000180443
0.000487008 -9.44499e-05 0.000177947 0.00108852 -6.63061e-05 0.000181025
0.000466109 -9.80316e-05 0.000176188 0.00106718 -6.99624e-05 0.000179268
0.000441866 -9.6506e-05 0.000172163 0.00104227 -6.82569e-05 0.000175197
0.000414364 -9.0146e-05 0.000165944 0.00101389 -6.14748e-05 0.000168886
0.000383806 -7.93728e-05 0.000157653 0.000982247 -5.00567e-05 0.000160459
0.000350495 -6.47414e-05 0.000147457 0.000947673 -3.45842e-05 0.000150088
0.000314793 -4.69222e-05 0.000135557 0.000910557 -1.57599e-05 0.000137981
0.000277091 -2.66799e-05 0.000122191 0.000871319 5.61516e-06 0.000124384
0.000237776 -4.85001e-06 0.000107621 0.000830381 2.8666e-05 0.000109566
0.000197225 1.7685e-05 9.21294e-05 0.000788153 5.2468e-05 9.38165e-05
-3.37704e-05 3.8971e-05 7.60997e-05 0.000421692 7.41185e-05 7.76442e-05
-0.000488344 5.89385e-05 5.97531e-05 -7.32286e-05 9.51096e-05 6.08323e-05
-0.000947778 7.71582e-05 4.31842e-05 -0.00057205 0.00011381 4.43047e-05
-0.00140649 9.29056e-05 2.69135e-05 -0.0010688 0.000130447 2.77319e-05
-0.00185828 0.000105754 1.10478e-05 -0.00155687 0.000143749 1.17495e-05
-0.00229648 0.000114949 -3.99776e-06 -0.00202943 0.0001533 -3.49768e-06
-0.00271389 0.000120004 -1.81225e-05 -0.00247825 0.00015857 -1.76935e-05
-0.00310179 0.000120661 -3.12415e-05 -0.00289537 0.00015923 -3.08165e-05
-0.00345027 0.000116767 -4.32017e-05 -0.00327159 0.000155095 -4.28229e-05
-0.00375865 0.000108082 -5.39153e-05 -0.00360407 0.000145829 -5.35391e-05
-0.00402465 9.45076e-05 -6.33157e-05 -0.00388971 0.000131543 -6.29198e-05
-0.00424749 7.64093e-05 -7.13874e-05 -0.00412752 0.000112389 -7.08959e-05
-0.00442732 5.38685e-05 -7.81184e-05 -0.00431856 8.88128e-05 -7.74728e-05
-0.00456591 2.73149e-05 -8.35828e-05 -0.00446464 6.09319e-05 -8.28232e-05
-0.00466539 -2.81921e-06 -8.78619e-05 -0.00456793 2.93643e-05 -8.69386e-05
-0.00472826 -3.59451e-05 -9.10781e-05 -0.00463107 -5.31821e-06 -8.99609e-05
-0.00475765 -7.14017e-05 -9.33801e-05 -0.00465787 -4.23977e-05 -9.20472e-05
-0.0047607 -0.000108466 -9.49275e-05 -0.00465871 -8.11578e-05 -9.33603e-05
-0.0047584 -0.000146393 -9.58917e-05 -0.00465587 -0.00012083 -9.40848e-05
-0.00475466 -0.000184323 -9.64603e-05 -0.00465152 -0.000160509 -9.44204e-05
-0.00475031 -0.000221375 -9.68343e-05 -0.00464656 -0.00019926 -9.45619e-05
-0.00474631 -0.000256666 -9.72071e-05 -0.00464198 -0.000236155 -9.47139e-05
-0.00474375 -0.000289343 -9.77614e-05 -0.00463892 -0.00027031 -9.50606e-05
-0.00474368 -0.000318628 -9.86599e-05 -0.00463848 -0.000300914 -9.57755e-05
-0.00474701 -0.000343854 -0.000100043 -0.0046416 -0.000327271 -9.70042e-05
-0.00475444 -0.000364492 -0.000102024 -0.00464902 -0.00034882 -9.88631e-05
-0.00480729 -0.00038047 -0.000104645 -0.0046712 -0.000365235 -0.000101431
-0.00498899 -0.000391598 -0.000108014 -0.00485663 -0.000377098 -0.000104669
-0.00522325 -0.000397611 -0.000112058 -0.00510692 -0.000383342 -0.000108752
-0.00550883 -0.000398475 -0.000116828 -0.00541336 -0.000384413 -0.000113467
-0.00584171 -0.000394454 -0.000122215 -0.00577107 -0.000380292 -0.000118943
-0.00621575 -0.000385809 -0.000128164 -0.00617365 -0.000371432 -0.000124945
-0.00662385 -0.000372976 -0.000134539 -0.00661384 -0.000358199 -0.000131419
-0.00705939 -0.00035649 -0.000141199 -0.00708421 -0.000341155 -0.000138188
-0.00751605 -0.00033696 -0.00014797 -0.00757792 -0.000320937 -0.000145094
-0.00798752 -0.00031505 -0.000154666 -0.00808835 -0.000298265 -0.000151944
-0.00846722 -0.0002915 -0.000161094 -0.00860831 -0.000273909 -0.000158533
-0.00894823 -0.000267097 -0.000167054 -0.00913008 -0.000248668 -0.000164654
-0.00942359 -0.000242631 -0.000172345 -0.0096459 -0.000223361 -0.000170101
-0.00988633 -0.000218876 -0.00017677 -0.0101481 -0.000198799 -0.000174677
-0.0103296 -0.000196579 -0.000180149 -0.0106291 -0.000175762 -0.000178196
-0.0107468 -0.000176445 -0.000182321 -0.0110816 -0.000154977 -0.000180491
-0.0111321 -0.000159104 -0.00018315 -0.0114993 -0.000137096 -0.000181421
-0.0114808 -0.000145097 -0.000182528 -0.0118766 -0.000122682 -0.000180874
-0.0117886 -0.000134866 -0.000180377 -0.012209 -0.000112196 -0.000178771
-0.0120515 -0.000128746 -0.000176656 -0.0124921 -0.000105985 -0.00017507
-0.0122661 -0.000126955 -0.000171364 -0.012722 -0.000104273 -0.000169767
-0.0124293 -0.000129584 -0.000164536 -0.0128955 -0.000107154 -0.000162896
-0.0125398 -0.000136596 -0.000156248 -0.0130112 -0.000114587 -0.000154533
-0.0125986 -0.000147816 -0.000146612 -0.0130702 -0.00012639 -0.000144793
-0.0126087 -0.000162877 -0.000135788 -0.0130789 -0.000142245 -0.000133828
-0.0126051 -0.000181501 -0.000123941 -0.0130749 -0.000161916 -0.000121807
-0.0125981 -0.000203213 -0.000111274 -0.0130673 -0.000184779 -0.000108963
-0.0125884 -0.000227374 -9.80429e-05 -0.0130568 -0.000210202 -9.55176e-05
-0.0125765 -0.000253235 -8.44956e-05 -0.0130441 -0.000237403 -8.17504e-05
-0.0125632 -0.000280009 -7.09034e-05 -0.01303 -0.000265578 -6.79259e-05
-0.0125494 -0.000306913 -5.75395e-05 -0.0130152 -0.000293876 -5.43297e-05
-0.0125357 -0.00033314 -4.46765e-05 -0.0130007 -0.000321451 -4.12391e-05
-0.0125229 -0.0003579 -3.25765e-05 -0.012987 -0.000347485 -2.89239e-05
-0.0125116 -0.000380472 -2.14846e-05 -0.012975 -0.000371222 -1.76347e-05
-0.0125021 -0.000400226 -1.16227e-05 -0.0129648 -0.000391998 -7.5982e-06
-0.0124945 -0.000416632 -3.1757e-06 -0.0129567 -0.000409257 1.05154e-06
-0.0124888 -0.000429272 3.79378e-06 -0.0129506 -0.000422562 8.12609e-06
-0.0124849 -0.000437824 9.00516e-06 -0.0129463 -0.000431573 1.34469e-05
-0.0124825 -0.000442089 1.24032e-05 -0.0129438 -0.000436075 1.68809e-05
-0.0124815 -0.000441966 1.39333e-05 -0.0129428 -0.000435971 1.84178e-05
-0.0124818 -0.000437463 1.35946e-05 -0.0129432 -0.000431285 1.80492e-05
-0.0124829 -0.000428716 1.14184e-05 -0.0129446 -0.000422162 1.5806e-05
-0.0124849 -0.000415968 7.47407e-06 -0.012947 -0.00040885 1.17595e-05
-0.0124875 -0.00039955 1.87206e-06 -0.0129502 -0.000391693 6.02323e-06
-0.012491 -0.000379876 -5.12993e-06 -0.0129543 -0.000371123 -1.17801e-06
-0.0124952 -0.000357428 -1.34457e-05 -0.0129593 -0.000347655 -9.67848e-06
-0.0125001 -0.000332776 -2.28824e-05 -0.0129651 -0.000321875 -1.92853e-05
-0.0125056 -0.000306552 -3.32075e-05 -0.0129716 -0.000294444 -2.98298e-05
-0.0125114 -0.00027944 -4.41911e-05 -0.0129783 -0.000266077 -4.10415e-05
-0.012517 -0.000252155 -5.55901e-05 -0.0129849 -0.000237525 -5.26675e-05
-0.012522 -0.000225413 -6.7157e-05 -0.0129908 -0.000209535 -6.44499e-05
-0.0125261 -0.000199902 -7.86437e-05 -0.0129958 -0.000182827 -7.61389e-05
-0.0125291 -0.000176265 -8.98104e-05 -0.0129996 -0.000158076 -8.74957e-05
-0.0125308 -0.000155087 -0.000100434 -0.013002 -0.000135895 -9.82946e-05
-0.0125311 -0.00013688 -0.000110315 -0.0130029 -0.000116817 -0.000108329
-0.01253 -0.000122069 -0.000119275 -0.0130023 -0.000101289 -0.000117416
-0.0125276 -0.000110989 -0.000127164 -0.0130002 -8.966e-05 -0.000125403
-0.0125239 -0.000103878 -0.000133859 -0.0129966 -8.21819e-05 -0.000132167
-0.0125187 -0.000100883 -0.000139273 -0.0129914 -7.90078e-05 -0.000137619
-0.012512 -0.000102054 -0.000143351 -0.0129845 -8.01914e-05 -0.000141705
-0.0125034 -0.000107342 -0.000146072 -0.0129756 -8.56832e-05 -0.000144403
-0.0124927 -0.000116594 -0.000147453 -0.0129644 -9.53249e-05 -0.000145729
-0.0124795 -0.000129549 -0.00014754 -0.0129505 -0.000108846 -0.000145733
-0.0124636 -0.000145847 -0.000146413 -0.0129337 -0.00012587 -0.000144497
-0.0124446 -0.000165025 -0.000144183 -0.0129137 -0.000145915 -0.000142136
-0.0124223 -0.000186525 -0.000140988 -0.0128904 -0.000168398 -0.000138791
-0.0123968 -0.000209698 -0.000136987 -0.0128636 -0.000192644 -0.000134626
-0.0123681 -0.000233823 -0.000132361 -0.0128335 -0.000217897 -0.000129825
-0.0123365 -0.000258116 -0.0001273 -0.0128006 -0.000243341 -0.000124585
-0.0123026 -0.000281759 -0.000122002 -0.0127652 -0.000268117 -0.00011911
-0.0122668 -0.000303913 -0.000116665 -0.012728 -0.00029135 -0.000113605
-0.01223 -0.000323753 -0.000111482 -0.0126898 -0.000312177 -0.000108267
-0.012193 -0.000340495 -0.000106631 -0.0126514 -0.00032978 -0.000103281
-0.0121565 -0.000353428 -0.00010227 -0.0126137 -0.000343412 -9.88098e-05
-0.0121212 -0.000361937 -9.85322e-05 -0.0125774 -0.000352433 -9.4991e-05
-0.0120876 -0.000365529 -9.55188e-05 -0.012543 -0.000356326 -9.19304e-05
-0.0120562 -0.000363843 -9.3298e-05 -0.012511 -0.000354714 -8.96983e-05
-0.0120274 -0.000356662 -9.19007e-05 -0.0124817 -0.000347368 -8.83273e-05
-0.0120013 -0.000343914 -9.13195e-05 -0.0124554 -0.000334214 -8.78104e-05
-0.0119782 -0.00032568 -9.15084e-05 -0.0124323 -0.000315335 -8.81013e-05
-0.011958 -0.000302189 -9.2384e-05 -0.0124124 -0.000290968 -8.91147e-05
-0.0119408 -0.000273817 -9.38273e-05 -0.0123956 -0.000261505 -9.07286e-05
-0.0119265 -0.000241104 -9.56745e-05 -0.0122996 -0.000226929 -9.28575e-05
-0.0118581 -0.000204336 -9.78299e-05 -0.0121738 -0.000188694 -9.51263e-05
-0.0117548 -0.000164672 -9.99395e-05 -0.0120776 -0.000147208 -9.756e-05
-0.0116706 -0.000122818 -0.000101877 -0.012001 -0.000103822 -9.97297e-05
-0.0116023 -7.98837e-05 -0.000103377 -0.011942 -5.91173e-05 -0.000101519
-0.0115471 -3.66679e-05 -0.000104225 -0.0118967 -1.41562e-05 -0.000102628
-0.0115033 5.82633e-06 -0.00010417 -0.0118596 3.02573e-05 -0.000102852
-0.011469 4.66955e-05 -0.000103025 -0.0118287 7.29758e-05 -0.000101955
-0.011436 8.52037e-05 -0.000100593 -0.0117978 0.000113295 -9.97347e-05
-0.0113979 0.000120709 -9.6676e-05 -0.0117627 0.000150675 -9.60181e-05
-0.0113501 0.000152648 -9.11309e-05 -0.0117157 0.000184001 -9.06497e-05
-0.0112868 0.000180006 -8.38572e-05 -0.0116509 0.000212669 -8.35444e-05
-0.0112024 0.000202412 -7.48451e-05 -0.0115626 0.000236138 -7.46094e-05
-0.0110917 0.000219498 -6.4041e-05 -0.0114457 0.000254001 -6.38633e-05
-0.0109506 0.000230983 -5.14685e-05 -0.0112948 0.000265991 -5.13122e-05
-0.0107751 0.000236756 -3.72008e-05 -0.0111056 0.000272014 -3.70262e-05
-0.0105614 0.000236891 -2.13588e-05 -0.0108745 0.000272138 -2.11188e-05
-0.010307 0.000231592 -4.10329e-06 -0.0105987 0.000266579 -3.7524e-06
-0.0100104 0.000221166 1.4716e-05 -0.0102764 0.000255666 1.51442e-05
-0.00967028 0.000206136 3.44283e-05 -0.0099065 0.000239938 3.51705e-05
-0.00928623 0.000187098 5.48552e-05 -0.00948855 0.00022002 5.58823e-05
-0.00885845 0.000164763 7.56858e-05 -0.00902286 0.000196681 7.69801e-05
-0.00838803 0.000139934 9.65966e-05 -0.00851063 0.000170767 9.81438e-05
-0.00787718 0.000113501 0.000117232 -0.00795452 0.000143208 0.00011905
-0.00733004 8.64162e-05 0.000137229 -0.00735933 0.000114989 0.000139344
-0.00675312 5.96611e-05 0.000156236 -0.00673231 8.71319e-05 0.000158657
-0.00615528 3.42127e-05 0.000173923 -0.00608303 6.06677e-05 0.00017663
-0.00554732 1.10078e-05 0.000189978 -0.00542277 3.65929e-05 0.000192932
-0.00493942 -9.02363e-06 0.000204059 -0.00476292 1.58713e-05 0.000207215
-0.00434273 -2.42718e-05 0.000208347 -0.00411643 6.99056e-07 0.000206876
-0.0037664 -3.48288e-05 0.000207609 -0.00349649 -8.83406e-06 0.000203578
-0.00322344 -3.99356e-05 0.000206526 -0.00290649 -1.49605e-05 0.000205688
-0.00272091 -4.00245e-05 0.000205631 -0.00236339 -1.45569e-05 0.000204752
-0.00226719 -3.46013e-05 0.000205828 -0.00187399 -8.51534e-06 0.000204835
-0.00186775 -2.34535e-05 0.00020602 -0.00144339 3.50754e-06 0.000204499
-0.00152383 -6.39523e-06 0.0002035 -0.00107403 2.18655e-05 0.00020093
-0.0012327 1.6414e-05 0.000198067 -0.00076198 4.59685e-05 0.000195508
-0.000988452 4.44763e-05 0.000190102 -0.000501214 7.55091e-05 0.000187905
-0.000783909 7.71371e-05 0.00018028 -0.000284285 0.000109963 0.000178159
-0.000611481 0.000113695 0.000169065 -0.000102735 0.000148596 0.000166415
-0.000463206 0.000153391 0.000156533 5.20739e-05 0.000190535 0.0001531
-0.000331275 0.000195374 0.000142685 0.000188906 0.000234809 0.000138726
-0.000208316 0.000238689 0.000127801 0.00031587 0.000280444 0.000123669
-8.78785e-05 0.000282344 0.000112436 0.000439992 0.000326454 0.000108183
3.51725e-05 0.000325363 9.714e-05 0.000566864 0.00037184 9.25357e-05
0.000164562 0.000366816 8.22564e-05 0.000700678 0.000415607 7.70993e-05
0.000302733 0.000405824 6.79725e-05 0.000844295 0.000456802 6.23085e-05
0.000450974 0.000441568 5.45088e-05 0.00099927 0.000494553 4.85457e-05
0.000609323 0.000473293 4.22066e-05 0.00116569 0.000528052 3.60908e-05
0.000669891 0.000495715 3.19597e-05 0.00122669 0.000548512 2.61099e-05
0.000696038 0.000509078 2.37515e-05 0.00122274 0.000562887 1.72798e-05
0.000752655 0.000520276 1.6824e-05 0.00125267 0.000575036 1.03176e-05
0.000861962 0.000528698 1.16594e-05 0.00134753 0.000582477 5.44343e-06
0.00106104 0.000533347 8.54111e-06 0.00146628 0.000585704 2.24663e-06
0.00149108 0.000534609 6.91616e-06 0.00174846 0.00058633 1.0929e-06
0.0020127 0.000532164 7.09605e-06 0.00230716 0.000584544 1.05749e-06
0.00260354 0.000525122 9.15591e-06 0.00290403 0.000576881 3.38349e-06
0.0032492 0.000513065 1.31626e-05 0.00356779 0.000564598 7.22641e-06
0.00394843 0.00049645 1.87819e-05 0.00429629 0.000547493 1.31147e-05
0.00470112 0.000475891 2.6002e-05 0.00507749 0.000526348 2.04055e-05
0.00549589 0.000451961 3.46103e-05 0.00590171 0.000501539 2.92306e-05
0.00631528 0.000425124 4.44494e-05 0.0067549 0.000473801 3.9221e-05
0.00714076 0.000396126 5.52404e-05 0.0076174 0.000443801 5.02001e-05
0.00795344 0.000365753 6.67078e-05 0.0084666 0.000412321 6.18847e-05
0.00873287 0.000334732 7.85884e-05 0.0092817 0.000380159 7.40087e-05
0.00945974 0.000303815 9.06306e-05 0.010044 0.000348112 8.6292e-05
0.0101195 0.000273802 0.000102572 0.0107376 0.00031697 9.84507e-05
0.0107027 0.000245439 0.000114135 0.0113518 0.000287503 0.000110217
0.0112043 0.000219395 0.000125057 0.0118811 0.000260441 0.000121336
0.0116213 0.000196296 0.000135105 0.0123226 0.00023644 0.000131574
0.0119529 0.000176715 0.000144078 0.0126748 0.000216074 0.000140713
0.0121992 0.00016112 0.000151803 0.0129372 0.000199833 0.000148569
0.0123612 0.000149873 0.000158132 0.013111 0.000188104 0.000154993
0.0124409 0.000143231 0.00016295 0.0131979 0.000181166 0.000159873
0.0124501 0.000141414 0.000166177 0.013209 0.000179237 0.000163134
0.0124462 0.000144633 0.000167784 0.0132049 0.000182613 0.000164723
0.0124393 0.000152781 0.000167777 0.0131976 0.000191118 0.000164677
0.0124295 0.000165573 0.00016622 0.0131873 0.000204514 0.00016302
0.0124173 0.000182608 0.000163201 0.0131743 0.000222356 0.000159875
0.0124029 0.000203358 0.000158856 0.013159 0.000244104 0.000155367
0.0123868 0.000227198 0.000153351 0.0131419 0.000269098 0.000149673
0.0123695 0.00025342 0.000146882 0.0131234 0.000296589 0.000142992
0.0123514 0.00028125 0.00013966 0.0131041 0.00032577 0.000135543
0.012333 0.000309876 0.000131915 0.0130845 0.000355794 0.000127561
0.0123146 0.000338474 0.000123882 0.0130648 0.000385796 0.000119291
0.0122965 0.000366224 0.000115798 0.0130456 0.000414914 0.000110975
0.0122793 0.000392336 0.000107897 0.0130271 0.000442317 0.000102854
0.012263 0.000416062 0.000100398 0.0130098 0.000467223 9.51522e-05
0.0122481 0.000436722 9.35015e-05 0.012994 0.000488918 8.80772e-05
0.0122349 0.000453719 8.73865e-05 0.0129799 0.000506775 8.18121e-05
0.0122235 0.000466554 8.22031e-05 0.0129679 0.00052027 7.6511e-05
0.0122143 0.000474838 7.80691e-05 0.0129582 0.000528993 7.22948e-05
0.0122074 0.000478308 7.50663e-05 0.012951 0.000532669 6.92475e-05
0.0122031 0.000476835 7.32387e-05 0.0129465 0.000531162 6.74143e-05
0.0122012 0.000470434 7.25916e-05 0.0129447 0.000524489 6.68003e-05
0.0122016 0.000459262 7.30916e-05 0.0129454 0.000512814 6.73706e-05
0.0122038 0.000443617 7.46676e-05 0.0129481 0.00049645 6.90519e-05
0.0122074 0.000423922 7.72142e-05 0.0129522 0.000475843 7.17354e-05
0.0122118 0.000400702 8.05954e-05 0.0129573 0.000451545 7.52812e-05
0.0122163 0.000374565 8.46501e-05 0.0129626 0.000424193 7.9523e-05
0.0122205 0.000346182 8.91965e-05 0.0129677 0.000394491 8.42736e-05
0.0122238 0.000316261 9.40381e-05 0.0129718 0.000363186 8.93308e-05
0.0122257 0.000285536 9.89698e-05 0.0129745 0.000331045 9.44836e-05
0.0122257 0.000254739 0.000103784 0.0129752 0.000298838 9.95181e-05
0.0122233 0.000224587 0.000108276 0.0129736 0.000267315 0.000104224
0.0122182 0.000195755 0.000112251 0.012969 0.000237186 0.0001084
0.0122098 0.00016886 0.000115528 0.0129611 0.000209096 0.000111862
0.0121981 0.000144433 0.000117949 0.0129496 0.000183603 0.000114444
0.0121829 0.000122901 0.000119378 0.0129346 0.000161152 0.00011601
0.0121645 0.000104573 0.00011971 0.0129162 0.000142065 0.00011645
0.0121434 8.96405e-05 0.000118868 0.0128949 0.000126541 0.000115687
0.0121203 7.81836e-05 0.000116807 0.0128714 0.000114665 0.000113675
0.0120957 7.01875e-05 0.000113515 0.0128464 0.000106417 0.0001104
0.0120703 6.55534e-05 0.000109006 0.0128203 0.000101695 0.00010588
0.0120443 6.41097e-05 0.000103326 0.0127937 0.000100318 0.00010016
0.0120182 6.56193e-05 9.6545e-05 0.0127668 0.000102035 9.33137e-05
0.0119921 6.97846e-05 8.87593e-05 0.0127398 0.000106536 8.54398e-05
0.0119661 7.62541e-05 8.00869e-05 0.0127129 0.000113452 7.66595e-05
0.0119404 8.46304e-05 7.06651e-05 0.0126862 0.000122366 6.71133e-05
0.0119148 9.4479e-05 6.06466e-05 0.0126597 0.000132823 5.6958e-05
0.0118895 0.000105336 5.01964e-05 0.0126334 0.000144338 4.63627e-05
0.0118644 0.000116717 3.94878e-05 0.0126073 0.000156402 3.55048e-05
0.0118395 0.000128127 2.86984e-05 0.0125814 0.000168497 2.45662e-05
0.0118149 0.000139077 1.80052e-05 0.0125558 0.000180112 1.3728e-05
0.0117904 0.000149098 7.58097e-06 0.0125303 0.000190755 3.16682e-06
0.0117658 0.000157689 -1.75705e-06 0.0125049 0.000199865 -5.88079e-06
0.011741 0.000164462 -9.68647e-06 0.0124792 0.00020694 -1.3441e-05
0.0117158 0.000169077 -1.70123e-05 0.0124532 0.000212005 -2.09402e-05
0.01169 0.000171314 -2.36958e-05 0.0124267 0.000214458 -2.75395e-05
0.0116639 0.000170897 -2.96524e-05 0.0122822 0.000213168 -3.33125e-05
0.0114472 0.000166618 -3.4708e-05 0.0118633 0.000208247 -3.82751e-05
0.0110548 0.000159265 -3.89729e-05 0.0114653 0.000200252 -4.24028e-05
0.0106578 0.000148711 -4.23583e-05 0.0110547 0.000189399 -4.56055e-05
0.0102567 0.000135585 -4.48268e-05 0.0106417 0.000175541 -4.80627e-05
0.00985524 0.000119926 -4.65105e-05 0.0102276 0.000159023 -4.95777e-05
0.00945593 0.000101774 -4.74271e-05 0.00981836 0.000140051 -5.04142e-05
0.00909017 8.22544e-05 -4.77166e-05 0.00943815 0.000119905 -5.05789e-05
0.00874399 6.14628e-05 -4.72845e-05 0.0090874 9.76133e-05 -4.99065e-05
0.00841991 3.90421e-05 -4.61073e-05 0.00874961 7.4188e-05 -4.87223e-05
0.00811193 1.55676e-05 -4.44692e-05 0.00843612 4.93544e-05 -4.68738e-05
0.00782281 -8.70095e-06 -4.24115e-05 0.00814137 2.40001e-05 -4.46726e-05
0.00754999 -3.31279e-05 -4.01013e-05 0.00786193 -1.64718e-06 -4.22118e-05
0.00728749 -5.74576e-05 -3.76537e-05 0.00759384 -2.71631e-05 -3.95882e-05
0.00702947 -8.12855e-05 -3.5198e-05 0.00733143 -5.21266e-05 -3.69883e-05
0.00677171 -0.00010413 -3.2885e-05 0.00706886 -7.60635e-05 -3.4521e-05
0.0065101 -0.000125583 -3.08394e-05 0.00680118 -9.85544e-05 -3.23311e-05
0.00624027 -0.000145309 -2.91729e-05 0.00652471 -0.000119237 -3.05278e-05
0.00595852 -0.000162981 -2.7984e-05 0.00623557 -0.000137776 -2.92202e-05
0.00566145 -0.0001783 -2.73627e-05 0.00592956 -0.000153876 -2.8499e-05
0.00534532 -0.000191051 -2.73821e-05 0.00560264 -0.000167298 -2.84368e-05
0.00500648 -0.000201082 -2.80929e-05 0.00525128 -0.000177875 -2.90845e-05
0.00464223 -0.000208287 -2.95239e-05 0.00487256 -0.000185511 -3.04718e-05
0.00425089 -0.000212628 -3.1684e-05 0.00446457 -0.000190179 -3.2608e-05
0.00383168 -0.000214153 -3.45616e-05 0.0040265 -0.000191919 -3.5481e-05
0.00338449 -0.000212979 -3.81232e-05 0.00355836 -0.000190845 -3.90566e-05
0.00290967 -0.000209278 -4.23143e-05 0.0030605 -0.000187141 -4.328e-05
0.00240764 -0.000203279 -4.70617e-05 0.00253343 -0.000181054 -4.80763e-05
0.00187883 -0.00019528 -5.21835e-05 0.00197766 -0.000172886 -5.33377e-05
0.00132395 -0.000185705 -5.69182e-05 0.00139397 -0.000163074 -5.80944e-05
0.00074356 -0.000174799 -6.1955e-05 0.000783769 -0.000151979 -6.30285e-05
0.000139874 -0.000163044 -6.7034e-05 0.000148276 -0.000139894 -6.8174e-05
-0.000484376 -0.000150807 -7.21674e-05 -0.00050856 -0.000127395 -7.32699e-05
-0.00112506 -0.000138567 -7.72289e-05 -0.00118273 -0.000114881 -7.82738e-05
-0.00177769 -0.000126773 -8.20868e-05 -0.00186926 -0.000102844 -8.30595e-05
-0.00243779 -0.000115875 -8.66098e-05 -0.00256334 -9.17348e-05 -8.75446e-05
-0.00310085 -0.000106293 -9.07035e-05 -0.00326015 -8.19963e-05 -9.16308e-05
-0.00376192 -9.8421e-05 -9.4302e-05 -0.0039543 -7.40473e-05 -9.52148e-05
-0.00441478 -9.26238e-05 -9.73407e-05 -0.00463919 -6.82625e-05 -9.82155e-05
-0.00505146 -8.92244e-05 -9.97492e-05 -0.00530635 -6.49735e-05 -0.000100571
-0.00566211 -8.84972e-05 -0.000101464 -0.00594542 -6.44577e-05 -0.000102242
-0.00623571 -9.06539e-05 -0.000102449 -0.00654481 -6.6932e-05 -0.0001032
-0.00676138 -9.58344e-05 -0.000102696 -0.00709306 -7.25393e-05 -0.000103428
-0.00722963 -0.000104109 -0.000102126 -0.0075802 -8.13518e-05 -0.0001028
-0.00763328 -0.000115446 -0.000100763 -0.00799867 -9.33422e-05 -0.000101337
-0.007968 -0.000129732 -9.86489e-05 -0.00834404 -0.000108372 -9.91185e-05
-0.00823256 -0.000146753 -9.58691e-05 -0.00861506 -0.000126226 -9.62265e-05
-0.00842897 -0.000166214 -9.25342e-05 -0.00881391 -0.000146596 -9.27676e-05
-0.00856256 -0.000187741 -8.87761e-05 -0.0089463 -0.000169094 -8.88648e-05
-0.00864196 -0.00021089 -8.47355e-05 -0.00902138 -0.00019326 -8.46615e-05
-0.00867836 -0.000235168 -8.05594e-05 -0.00905103 -0.000218581 -8.03163e-05
-0.00868456 -0.000260048 -7.64032e-05 -0.00905242 -0.000244545 -7.59901e-05
-0.0086835 -0.000285041 -7.24273e-05 -0.00905077 -0.000270637 -7.18473e-05
-0.0086819 -0.000309558 -6.87971e-05 -0.00904857 -0.000296221 -6.80602e-05
-0.0086804 -0.000333022 -6.5676e-05 -0.0090465 -0.0003207 -6.47781e-05
-0.0086795 -0.000354891 -6.32056e-05 -0.00904509 -0.000343506 -6.21631e-05
-0.00867963 -0.000374679 -6.15159e-05 -0.00904478 -0.000364137 -6.03427e-05
-0.0086811 -0.000391973 -6.07162e-05 -0.0090459 -0.000382151 -5.94366e-05
-0.00868411 -0.000406431 -6.08969e-05 -0.00904868 -0.000397194 -5.95328e-05
-0.00873866 -0.000418065 -6.20976e-05 -0.00905524 -0.000409 -6.07049e-05
-0.00883104 -0.000426573 -6.43915e-05 -0.00914045 -0.000417935 -6.29073e-05
-0.00894722 -0.000431797 -6.77549e-05 -0.00926092 -0.000423253 -6.6311e-05
-0.00908744 -0.000433636 -7.22224e-05 -0.00940672 -0.000425255 -7.07249e-05
-0.00924945 -0.000432255 -7.76992e-05 -0.00957643 -0.000423743 -7.62728e-05
-0.00943059 -0.000427703 -8.41591e-05 -0.00976673 -0.000419006 -8.27722e-05
-0.00962539 -0.000420118 -9.15025e-05 -0.00997271 -0.000411079 -9.01993e-05
-0.00983019 -0.000409747 -9.96252e-05 -0.0101906 -0.000400285 -9.84032e-05
-0.0100418 -0.000396961 -0.000108222 -0.0104167 -0.000386947 -0.000107242
-0.0102563 -0.000382288 -0.00011601 -0.0106469 -0.000371686 -0.000114805
-0.0104693 -0.00036595 -0.000124236 -0.0108756 -0.000354765 -0.000123073
-0.0106738 -0.000348512 -0.000132522 -0.011097 -0.00033657 -0.000131405
-0.0108632 -0.000330384 -0.000140849 -0.0113026 -0.000317764 -0.000139676
-0.0110306 -0.000312104 -0.000149052 -0.0114856 -0.000298758 -0.000147771
-0.0111707 -0.000294142 -0.000156937 -0.0116401 -0.000280099 -0.000155535
-0.0112793 -0.000276975 -0.000164313 -0.0117616 -0.00026224 -0.000162862
-0.0113529 -0.000261032 -0.000171055 -0.0118462 -0.00024564 -0.000169607
-0.0113882 -0.000246697 -0.000177074 -0.0118902 -0.00023071 -0.000175622
-0.0113899 -0.000234367 -0.000182272 -0.0118953 -0.000217846 -0.000180784
-0.0113859 -0.000224423 -0.000186548 -0.0118915 -0.000207501 -0.000184995
-0.0113784 -0.000217098 -0.000189792 -0.0118841 -0.000199871 -0.000188209
-0.0113671 -0.000212502 -0.000191949 -0.0118727 -0.000195112 -0.000190359
-0.0113519 -0.000210654 -0.000193004 -0.0118572 -0.000193231 -0.000191428
-0.0113328 -0.000211463 -0.000192939 -0.0118378 -0.000194141 -0.000191373
-0.0113102 -0.000214737 -0.000191632 -0.0118146 -0.000197651 -0.000190001
-0.0112846 -0.000220169 -0.000189127 -0.0117883 -0.000203431 -0.000187425
-0.0112566 -0.000227375 -0.000185485 -0.0117595 -0.000211068 -0.000183722
-0.0112269 -0.000235904 -0.000180812 -0.0117289 -0.000220104 -0.000178988
-0.0111959 -0.000245269 -0.000175236 -0.011697 -0.000230028 -0.000173335
-0.0111642 -0.000254961 -0.000168892 -0.0116643 -0.000240307 -0.00016689
-0.0111323 -0.000264454 -0.000161908 -0.0116314 -0.00025039 -0.000159796
-0.0111007 -0.000273227 -0.000154413 -0.0115989 -0.000259727 -0.000152204
-0.0110698 -0.000280779 -0.000146546 -0.0115671 -0.000267795 -0.000144256
-0.01104 -0.00028665 -0.000138447 -0.0115365 -0.000274118 -0.000136087
-0.0110115 -0.000290438 -0.000130249 -0.0115072 -0.000278273 -0.000127823
-0.0109844 -0.000291799 -0.000122066 -0.0114795 -0.0002799 -0.000119582
-0.0109589 -0.00029045 -0.000113993 -0.0114535 -0.000278702 -0.000111469
-0.0109352 -0.000286176 -0.000106111 -0.0114294 -0.000274452 -0.000103572
-0.0109136 -0.000278839 -9.84871e-05 -0.0114074 -0.000267006 -9.59564e-05
-0.0108941 -0.000268389 -9.11704e-05 -0.0113878 -0.000256311 -8.8666e-05
-0.0108768 -0.000254868 -8.41866e-05 -0.0113704 -0.000242409 -8.17248e-05
-0.0108615 -0.000238414 -7.7537e-05 -0.0113554 -0.000225444 -7.5136e-05
-0.0108482 -0.000219256 -7.12027e-05 -0.0113422 -0.000205655 -6.88826e-05
-0.0108363 -0.000197706 -6.51482e-05 -0.0113307 -0.000183366 -6.29274e-05
-0.0108254 -0.000174145 -5.93239e-05 -0.0113202 -0.000158976 -5.72158e-05
-0.0108149 -0.000149003 -5.36673e-05 -0.0113103 -0.000132934 -5.16804e-05
-0.0108045 -0.000122745 -4.81051e-05 -0.0113004 -0.000105726 -4.6245e-05
-0.0107937 -9.58504e-05 -4.25576e-05 -0.0112901 -7.7852e-05 -4.08282e-05
-0.0107822 -6.87992e-05 -3.69433e-05 -0.0112791 -4.98131e-05 -3.53462e-05
-0.0107698 -4.20596e-05 -3.11834e-05 -0.0112671 -2.20988e-05 -2.97162e-05
-0.0107562 -1.60786e-05 -2.52037e-05 -0.0112539 4.82391e-06 -2.38596e-05
-0.0107414 8.73262e-06 -1.8928e-05 -0.0112395 3.07084e-05 -1.76357e-05
-0.0107266 3.16046e-05 -1.21952e-05 -0.0112257 5.39695e-05 -1.10184e-05
-0.010711 5.22587e-05 -5.08055e-06 -0.0112097 7.5719e-05 -4.0982e-06
-0.010694 7.09445e-05 2.23261e-06 -0.0111886 9.51227e-05 3.28642e-06
-0.0105139 8.84542e-05 9.13276e-06 -0.0109491 0.000113952 9.51641e-06
-0.010246 0.000103779 1.63788e-05 -0.0106728 0.000129619 1.69404e-05
-0.00996167 0.000116382 2.40923e-05 -0.0103766 0.000142948 2.42896e-05
-0.00966146 0.000126304 3.2101e-05 -0.010064 0.000153278 3.22889e-05
-0.00934421 0.000133487 4.0474e-05 -0.00973331 0.000160927 4.04101e-05
-0.00900924 0.000137969 4.90909e-05 -0.00938297 0.000165684 4.88546e-05
-0.00865536 0.000139774 5.78687e-05 -0.00901131 0.000167647 5.74753e-05
-0.00828044 0.000139043 6.67264e-05 -0.0086169 0.000166963 6.62494e-05
-0.00788227 0.000135956 7.56082e-05 -0.00819769 0.000163849 7.50537e-05
-0.00745891 0.000130735 8.44371e-05 -0.00775135 0.000158542 8.37761e-05
-0.0070085 0.000123666 9.30933e-05 -0.00727583 0.000151316 9.2315e-05
-0.00652938 0.000115086 0.000101435 -0.00676975 0.000142513 0.000100566
-0.00602086 0.000105356 0.000109331 -0.00623257 0.000132523 0.000108414
-0.00548354 9.48608e-05 0.000116672 -0.00566493 0.000121765 0.000115727
-0.00491915 8.40224e-05 0.000123355 -0.00506873 0.000110672 0.000122376
-0.0043302 7.32787e-05 0.000129265 -0.00444682 9.96906e-05 0.000128243
-0.00371987 6.30619e-05 0.000134277 -0.00380267 8.92721e-05 0.000133222
-0.00309198 5.37916e-05 0.000138281 -0.00314037 7.98599e-05 0.000137216
-0.00245117 4.58735e-05 0.000141191 -0.00246492 7.18763e-05 0.000140131
-0.00180327 3.96887e-05 0.000142942 -0.00178258 6.57139e-05 0.000141891
-0.0011554 3.55808e-05 0.000143483 -0.0011009 6.17276e-05 0.000142436
-0.000515815 3.38598e-05 0.000142648 -0.000428594 6.02374e-05 0.0001416
0.00010673 3.47678e-05 0.000140352 0.000224982 6.15148e-05 0.000139237
0.000703981 3.84847e-05 0.000136588 0.000851173 6.57162e-05 0.000135419
0.0012689 4.51018e-05 0.000131408 0.00144255 7.29443e-05 0.000130162
0.00179621 5.46307e-05 0.000124889 0.00199357 8.32092e-05 0.000123536
0.00228287 6.69991e-05 0.000117131 0.00250101 9.64342e-05 0.000115632
0.00272828 8.20515e-05 0.000108253 0.00296432 0.000112455 0.000106581
0.00313444 9.9553e-05 9.83963e-05 0.00338564 0.000131023 9.65366e-05
0.00350546 0.000119195 8.77294e-05 0.00376939 0.000151816 8.56734e-05
0.00384677 0.000140608 7.64462e-05 0.00412137 0.000174451 7.41819e-05
0.00416445 0.000163375 6.47551e-05 0.00444809 0.000198495 6.22675e-05
0.00446458 0.000187045 5.28704e-05 0.00475609 0.000223477 5.0149e-05
0.00475279 0.000211147 4.1009e-05 0.00505143 0.000248906 3.80531e-05
0.00503405 0.000235204 2.93904e-05 0.00533949 0.000274282 2.6207e-05
0.00531276 0.000258739 1.82338e-05 0.00562505 0.00029911 1.48327e-05
0.00559277 0.000281297 7.75263e-06 0.0059123 0.000322912 4.14356e-06
0.00587747 0.000302369 -1.11648e-06 0.00620499 0.000345123 -4.55095e-06
0.00616953 0.00032165 -8.68558e-06 0.00650657 0.000365376 -1.20332e-05
0.00647163 0.000338755 -1.51072e-05 0.00681862 0.00038353 -1.86518e-05
0.00678539 0.000353492 -2.04062e-05 0.00714408 0.000399105 -2.39847e-05
0.0071124 0.000365601 -2.44548e-05 0.00748424 0.000411949 -2.805e-05
0.00745365 0.000374931 -2.71692e-05 0.00784032 0.000421872 -3.07394e-05
0.0078097 0.000381383 -2.84604e-05 0.00821286 0.000428798 -3.20358e-05
0.00818052 0.000384938 -2.82572e-05 0.00860181 0.00043271 -3.18983e-05
0.00856524 0.000385645 -2.64437e-05 0.00900633 0.000433631 -3.01035e-05
0.00896188 0.000383638 -2.30734e-05 0.00942438 0.0004317 -2.67188e-05
0.00936728 0.000379113 -1.82005e-05 0.00985246 0.00042713 -2.1793e-05
0.00977725 0.000372333 -1.18988e-05 0.0102862 0.000420195 -1.54189e-05
0.0101875 0.000363616 -4.26864e-06 0.0107209 0.000411225 -7.71099e-06
0.0105944 0.000353316 4.61543e-06 0.0111526 0.000400582 1.27587e-06
0.0109949 0.000341894 1.39656e-05 0.0115775 0.00038872 1.06666e-05
0.0113862 0.000329655 2.42267e-05 0.0119926 0.000376065 2.09521e-05
0.0117652 0.000317093 3.51172e-05 0.0123955 0.000362979 3.19312e-05
0.0121295 0.000304609 4.65635e-05 0.0127829 0.000350026 4.33921e-05
0.0124831 0.000292725 5.83795e-05 0.0131519 0.000337609 5.52029e-05
0.0130112 0.000282548 7.0371e-05 0.0136385 0.000326957 6.71342e-05
0.0135295 0.000273705 8.22986e-05 0.0141812 0.000317666 7.9125e-05
0.0140133 0.000266221 9.41284e-05 0.0146801 0.000310042 9.09549e-05
0.0144581 0.000260519 0.000105683 0.0151408 0.00030411 0.000102511
0.0148642 0.000256769 0.000116851 0.0155592 0.000300236 0.000113671
0.0152299 0.000255116 0.000127525 0.0159351 0.000298565 0.000124287
0.0155536 0.000255683 0.000137579 0.0162676 0.00029919 0.000134297
0.0158338 0.000258534 0.000146925 0.0165542 0.000302171 0.000143596
0.0160683 0.000263665 0.000155496 0.0167925 0.00030751 0.000152131
0.0162475 0.000270823 0.000163281 0.0169795 0.000315099 0.000159843
0.0163715 0.000279927 0.000170229 0.017115 0.000324826 0.000166704
0.0164466 0.000290894 0.000176312 0.0171883 0.000336191 0.000172741
0.0164811 0.000303643 0.000181559 0.017221 0.000349505 0.000177853
0.0164846 0.000317911 0.00018594 0.0172226 0.000364356 0.000182191
0.0164831 0.000333483 0.000189519 0.017221 0.000380679 0.000185644
0.0164807 0.000350105 0.000192319 0.0172182 0.000398047 0.000188367
0.0164772 0.000367421 0.000194412 0.0172144 0.000416149 0.000190341
0.0164726 0.000385051 0.000195853 0.0172095 0.000434595 0.000191684
0.0164671 0.000402616 0.00019672 0.0172035 0.000452995 0.000192448
0.0164606 0.000419731 0.000197094 0.0171965 0.000470918 0.000192725
0.0164534 0.00043598 0.000197041 0.0171889 0.000487932 0.000192568
0.016446 0.000450943 0.000196645 0.017181 0.000503612 0.000192073
0.0164385 0.000464237 0.000195988 0.0171731 0.000517548 0.000191329
0.0164314 0.00047551 0.000195152 0.0171655 0.000529368 0.000190418
0.016425 0.000484451 0.000194208 0.0171587 0.000538745 0.000189412
0.0164196 0.000490802 0.000193215 0.017153 0.00054541 0.000188371
0.0164154 0.000494371 0.000192217 0.0171486 0.000549161 0.000187341
0.0164127 0.000494996 0.000191245 0.0171458 0.000549821 0.000186359
0.0164116 0.000492608 0.000190314 0.0171447 0.000547344 0.000185432
0.0164123 0.000487253 0.000189416 0.0171455 0.000541756 0.000184562
0.0164148 0.000479063 0.00018853 0.0171483 0.000533199 0.000183719
0.0164189 0.000468251 0.000187616 0.0171528 0.000521895 0.000182863
0.0164243 0.000455112 0.000186617 0.0171586 0.000508161 0.000181938
0.0164304 0.00044002 0.000185468 0.0171652 0.000492387 0.000180872
0.0164366 0.000423399 0.00018409 0.0171719 0.000475017 0.000179586
0.0164421 0.000405697 0.000182404 0.017178 0.000456523 0.000177995
0.0164465 0.000387372 0.000180326 0.0171829 0.000437386 0.000176013
0.0164492 0.000368871 0.000177775 0.0171861 0.000418075 0.000173555
0.01645 0.000350618 0.000174678 0.0171872 0.000399034 0.000170545
0.0164485 0.000333002 0.000170968 0.0171861 0.000380671 0.000166912
0.0164447 0.000316374 0.00016659 0.0171826 0.000363354 0.000162601
0.0164384 0.000301036 0.000161504 0.0171763 0.0003474 0.000157567
0.0164293 0.000287236 0.000155685 0.0171673 0.000333068 0.000151785
0.0164175 0.000275163 0.000149124 0.0171554 0.000320555 0.000145245
0.0164029 0.00026494 0.000141833 0.0171405 0.00030999 0.000137957
0.0163854 0.000256622 0.000133839 0.0171227 0.00030143 0.000129949
0.0163651 0.000250195 0.00012519 0.0171019 0.00029486 0.00012127
0.016342 0.000245576 0.000115952 0.0170781 0.000290192 0.000111986
0.0163161 0.000242615 0.000106208 0.0170516 0.000287268 0.000102182
0.0162877 0.000241102 9.60544e-05 0.0170223 0.000285869 9.19563e-05
0.016257 0.000240772 8.56029e-05 0.0169906 0.000285713 8.14236e-05
0.0162241 0.000241311 7.49744e-05 0.0169567 0.000286473 7.07075e-05
0.0161893 0.000242366 6.42975e-05 0.0169209 0.000287777 5.99397e-05
0.0161531 0.000243556 5.37051e-05 0.0168837 0.000289226 4.92565e-05
0.0161159 0.000244484 4.33306e-05 0.0168453 0.000290401 3.87948e-05
0.0160687 0.000244661 3.08674e-05 0.0167967 0.000290842 2.62326e-05
0.0160217 0.000243044 1.91871e-05 0.0167484 0.000289402 1.44704e-05
0.0159759 0.00023896 8.50081e-06 0.0167014 0.000285374 3.72482e-06
0.0159318 0.000231819 -4.47346e-07 0.0166563 0.00027807 -4.70006e-06
0.0158898 0.000221257 -7.4591e-06 0.0166134 0.000267178 -1.1574e-05
0.0158496 0.000207152 -1.33254e-05 0.0165724 0.000252661 -1.73701e-05
0.0158109 0.000189532 -1.80788e-05 0.0165331 0.000234425 -2.20103e-05
0.0157734 0.000168509 -2.17499e-05 0.0164951 0.00021261 -2.54684e-05
0.015737 0.000144323 -2.43297e-05 0.0164584 0.000187501 -2.78712e-05
0.0157014 0.000117357 -2.58978e-05 0.0164225 0.000159499 -2.93192e-05
0.0155721 8.75682e-05 -2.66014e-05 0.0160597 0.000127091 -2.97169e-05
0.0150233 5.5183e-05 -2.64933e-05 0.0155031 9.34176e-05 -2.96277e-05
0.0144933 2.36097e-05 -2.60927e-05 0.0149723 6.06463e-05 -2.89281e-05
0.0139315 -7.23985e-06 -2.53622e-05 0.0143852 2.77618e-05 -2.79666e-05
0.0133164 -3.72862e-05 -2.45473e-05 0.0137549 -3.93214e-06 -2.69322e-05
0.0126492 -6.56817e-05 -2.38664e-05 0.0130695 -3.36699e-05 -2.61041e-05
0.0119327 -9.15798e-05 -2.35557e-05 0.0123294 -6.1069e-05 -2.56183e-05
0.0111654 -0.000114737 -2.37676e-05 0.0115369 -8.55677e-05 -2.56703e-05
0.010351 -0.000134738 -2.46582e-05 0.0106955 -0.000106692 -2.64266e-05
0.00949682 -0.000151221 -2.63243e-05 0.00981034 -0.000124229 -2.79838e-05
0.00861061 -0.000164123 -2.88249e-05 0.00889132 -0.000138017 -3.04068e-05
0.00770158 -0.000173475 -3.19374e-05 0.00794784 -0.000148082 -3.36109e-05
0.0067775 -0.000179366 -3.55966e-05 0.0069873 -0.000154587 -3.70936e-05
0.00584225 -0.000182037 -3.99174e-05 0.00601437 -0.000157697 -4.13814e-05
0.00489792 -0.00018179 -4.48735e-05 0.00503128 -0.000157795 -4.62286e-05
0.00394653 -0.000179043 -5.03611e-05 0.00403993 -0.000155285 -5.16095e-05
0.00299169 -0.000174317 -5.62376e-05 0.00304442 -0.000150705 -5.73776e-05
0.00203942 -0.000168184 -6.23513e-05 0.00205117 -0.000144647 -6.34195e-05
0.00109735 -0.000161254 -6.85659e-05 0.00106823 -0.000137762 -6.9559e-05
0.000173768 -0.000154173 -7.47348e-05 0.000104486 -0.000130713 -7.56393e-05
-0.000723037 -0.000147576 -8.06923e-05 -0.000831223 -0.000124154 -8.15074e-05
-0.00158595 -0.000142062 -8.62789e-05 -0.00173132 -0.00011871 -8.70166e-05
-0.00240987 -0.000138173 -9.13639e-05 -0.00259028 -0.000114947 -9.20317e-05
-0.00319181 -0.000136376 -9.58404e-05 -0.00340478 -0.00011335 -9.64311e-05
-0.00393083 -0.000137046 -9.96156e-05 -0.00417374 -0.000114308 -0.000100124
-0.00462839 -0.000140452 -0.000102619 -0.00489854 -0.000118102 -0.000103049
-0.00528726 -0.000146752 -0.000104815 -0.00558198 -0.000124901 -0.000105172
-0.00590861 -0.000156002 -0.000106205 -0.00622527 -0.00013476 -0.000106486
-0.00649017 -0.000168154 -0.000106818 -0.00682608 -0.00014763 -0.000107018
-0.00702741 -0.000183066 -0.000106645 -0.00737972 -0.000163363 -0.000106746
-0.00751537 -0.000200486 -0.000105732 -0.00788112 -0.000181698 -0.00010571
-0.00795029 -0.000220057 -0.000104207 -0.00832652 -0.000202251 -0.000104058
-0.00833054 -0.000241323 -0.000102236 -0.00871438 -0.00022455 -0.000101949
-0.00865745 -0.000263748 -0.000100003 -0.00904628 -0.000248036 -9.95646e-05
-0.00893686 -0.000286728 -9.76989e-05 -0.00932848 -0.000272079 -9.71047e-05
-0.00918006 -0.000309613 -9.5521e-05 -0.00957297 -0.000296003 -9.47771e-05
-0.00940328 -0.000331732 -9.36701e-05 -0.00979685 -0.000319116 -9.27847e-05
-0.00962554 -0.00035243 -9.23377e-05 -0.0100201 -0.000340741 -9.1319e-05
-0.00986499 -0.000371104 -9.16927e-05 -0.0102619 -0.000360258 -9.05533e-05
-0.0101364 -0.00038724 -9.18746e-05 -0.0105377 -0.000377137 -9.0634e-05
-0.0104498 -0.000400438 -9.29908e-05 -0.0108581 -0.000390961 -9.16716e-05
-0.0108087 -0.000410428 -9.51113e-05 -0.0112269 -0.000401455 -9.37357e-05
-0.0112104 -0.000417086 -9.82635e-05 -0.0116414 -0.000408486 -9.68538e-05
-0.0116482 -0.000420421 -0.000102431 -0.0120946 -0.000412063 -0.000101011
-0.012112 -0.000420579 -0.000107556 -0.0125762 -0.000412333 -0.000106148
-0.0125896 -0.000417876 -0.000113079 -0.0130732 -0.000409586 -0.000111939
-0.0130672 -0.000412645 -0.000118898 -0.0135709 -0.000404328 -0.000117431
-0.0135302 -0.000405342 -0.000125159 -0.0140547 -0.000396791 -0.000123734
-0.0139642 -0.000396402 -0.000131826 -0.0145085 -0.00038759 -0.000130333
-0.0143542 -0.000386343 -0.000138722 -0.0149169 -0.000377194 -0.000137109
-0.0146873 -0.000375707 -0.000145627 -0.015267 -0.000366187 -0.000143932
-0.0150424 -0.000365431 -0.000152347 -0.0155853 -0.000355352 -0.000150615
-0.0153361 -0.000355651 -0.000158756 -0.0158937 -0.000345147 -0.000156985
-0.0155091 -0.000346465 -0.000164737 -0.0160764 -0.0003357 -0.000162867
-0.0155555 -0.000338399 -0.000170113 -0.0161296 -0.000327248 -0.000168215
-0.015551 -0.00033206 -0.000174755 -0.0161251 -0.000320674 -0.000172779
-0.0155408 -0.000327728 -0.000178554 -0.0161148 -0.000316146 -0.000176567
-0.015525 -0.000325433 -0.000181474 -0.0160988 -0.000313786 -0.00017943
-0.015504 -0.000325026 -0.000183464 -0.0160774 -0.000313414 -0.000181385
-0.0154785 -0.00032622 -0.000184524 -0.0160513 -0.000314748 -0.000182414
-0.0154492 -0.000328614 -0.000184671 -0.0160214 -0.000317338 -0.000182545
-0.0154171 -0.000331692 -0.000183854 -0.0159885 -0.000320663 -0.000181684
-0.0153833 -0.000334856 -0.000182139 -0.015954 -0.0003241 -0.00017993
-0.0153492 -0.000337486 -0.000179622 -0.0159191 -0.000326995 -0.00017738
-0.0153158 -0.000338985 -0.000176414 -0.0158849 -0.000328717 -0.000174141
-0.0152837 -0.000338818 -0.000172617 -0.0158522 -0.000328714 -0.000170316
-0.0152535 -0.000336557 -0.00016832 -0.0158214 -0.000326538 -0.000166002
-0.015225 -0.000331902 -0.000163597 -0.0157925 -0.000321875 -0.00016128
-0.0151979 -0.000324676 -0.000158512 -0.015765 -0.000314538 -0.000156211
-0.0151717 -0.000314803 -0.00015311 -0.0157386 -0.000304452 -0.000150836
-0.0151461 -0.000302295 -0.000147415 -0.0157128 -0.00029163 -0.000145182
-0.0151208 -0.000287241 -0.000141433 -0.0156874 -0.000276162 -0.000139258
-0.0150956 -0.000269809 -0.000135158 -0.0156623 -0.000258222 -0.000133054
-0.0150704 -0.000250251 -0.000128568 -0.0156371 -0.000238076 -0.000126545
-0.0150448 -0.000228893 -0.000121626 -0.0156115 -0.000216062 -0.000119693
-0.0150183 -0.000206111 -0.00011429 -0.0155852 -0.000192572 -0.000112452
-0.0149906 -0.000182314 -0.00010651 -0.0155575 -0.000168034 -0.000104772
-0.0149611 -0.000157932 -9.82384e-05 -0.0155282 -0.000142895 -9.66011e-05
-0.0149293 -0.000133391 -8.94325e-05 -0.0154964 -0.000117602 -8.78924e-05
-0.0148946 -0.00010909 -8.00588e-05 -0.0154616 -9.25708e-05 -7.86102e-05
-0.0148566 -8.53537e-05 -7.00989e-05 -0.0154234 -6.81393e-05 -6.87346e-05
-0.0148154 -6.24053e-05 -5.95539e-05 -0.015382 -4.45389e-05 -5.82651e-05
-0.0147715 -4.03686e-05 -4.84451e-05 -0.0153377 -2.18973e-05 -4.72219e-05
-0.0144362 -1.79549e-05 -3.69276e-05 -0.0149154 1.35571e-06 -3.57814e-05
-0.013738 3.1211e-06 -2.48152e-05 -0.0141972 2.37148e-05 -2.36568e-05
-0.0130166 2.30545e-05 -1.21456e-05 -0.0134492 4.47148e-05 -1.11668e-05
-0.012275 4.16774e-05 8.12933e-07 -0.012685 6.42791e-05 1.75841e-06
-0.011528 5.85395e-05 1.26557e-05 -0.0119137 8.21467e-05 1.29446e-05
-0.010788 7.35743e-05 2.47074e-05 -0.011147 9.80153e-05 2.49833e-05
-0.0100668 8.67473e-05 3.69468e-05 -0.0104008 0.000111882 3.70947e-05
-0.00937512 9.79763e-05 4.93055e-05 -0.00968375 0.000123818 4.91366e-05
-0.00871942 0.000107333 6.1615e-05 -0.00900337 0.000133801 6.11851e-05
-0.00810172 0.000114959 7.36671e-05 -0.00836189 0.000141899 7.30303e-05
-0.00752076 0.000120903 8.5367e-05 -0.00775801 0.000148238 8.46275e-05
-0.00697263 0.000125281 9.66474e-05 -0.00718762 0.000152964 9.57351e-05
-0.00645247 0.000128277 0.00010737 -0.0066461 0.000156245 0.000106267
-0.00595625 0.00013008 0.000117343 -0.00612905 0.000158256 0.000116087
-0.0054793 0.000130887 0.000126422 -0.00563173 0.000159231 0.000125078
-0.00501428 0.00013091 0.000134515 -0.00514674 0.000159395 0.000133088
-0.00455213 0.00013037 0.000141519 -0.0046647 0.000158984 0.000139991
-0.00408453 0.000129495 0.000147303 -0.00417698 0.000158231 0.00014569
-0.00360649 0.00012852 0.000151755 -0.00367849 0.000157389 0.000150098
-0.00311874 0.00012769 0.000154809 -0.00317005 0.000156716 0.000153129
-0.00262759 0.000127251 0.00015642 -0.00265831 0.000156465 0.000154717
-0.00214105 0.000127431 0.000156524 -0.00215166 0.00015687 0.000154809
-0.00166403 0.000128427 0.000154923 -0.00165535 0.000158144 0.000153161
-0.00119662 0.000130366 0.000151617 -0.00116954 0.000160411 0.000149817
-0.000736059 0.000133312 0.000146662 -0.000691364 0.000163744 0.000144808
-0.000281395 0.00013729 0.000140153 -0.000219837 0.000168169 0.000138217
0.000163225 0.000142289 0.000132197 0.000240763 0.000173674 0.000130155
0.000589844 0.000148264 0.000122926 0.000682203 0.000180203 0.00012077
0.000989404 0.000155124 0.000112507 0.0010951 0.000187653 0.000110231
0.0013535 0.000162725 0.000101136 0.00147075 0.000195872 9.87279e-05
0.00167434 0.00017088 8.90255e-05 0.00180111 0.00020466 8.64729e-05
0.00194397 0.000179367 7.63983e-05 0.00207799 0.000213774 7.36982e-05
0.00215479 0.000187925 6.349e-05 0.00229361 0.00022294 6.06466e-05
0.00230066 0.000196269 5.05468e-05 0.00244163 0.000231853 4.75642e-05
0.00237755 0.000204088 3.78154e-05 0.002518 0.000240184 3.46981e-05
0.00238941 0.0002111 2.55301e-05 0.00252815 0.000247649 2.22868e-05
0.0023852 0.000217166 1.39113e-05 0.00252361 0.000254141 1.05509e-05
0.00237718 0.000221824 3.23969e-06 0.00251521 0.000259134 -1.72216e-07
0.0023663 0.000224505 -5.23277e-06 0.00250396 0.000261963 -8.20719e-06
0.00235376 0.000224931 -1.25527e-05 0.00249104 0.000262574 -1.565e-05
0.00234069 0.000222834 -1.86763e-05 0.00247765 0.000260461 -2.16885e-05
0.00232801 0.000217986 -2.35521e-05 0.00246473 0.000255483 -2.64738e-05
0.00231634 0.000210324 -2.71109e-05 0.00245294 0.00024754 -2.99038e-05
0.00230597 0.000199911 -2.93047e-05 0.00244255 0.000236734 -3.20267e-05
0.00229682 0.00018698 -3.0184e-05 0.00243349 0.00022329 -3.28718e-05
0.00228857 0.000171881 -2.97856e-05 0.00242541 0.000207559 -3.23911e-05
0.00228075 0.000155063 -2.81547e-05 0.00241784 0.00019001 -3.0621e-05
0.00227294 0.000137039 -2.54117e-05 0.00241031 0.000171207 -2.77547e-05
0.00226484 0.000118375 -2.1734e-05 0.00240251 0.000151725 -2.3971e-05
0.00225629 9.96421e-05 -1.73396e-05 0.00239425 0.000132161 -1.94545e-05
0.00224714 8.14081e-05 -1.24375e-05 0.00238536 0.000113112 -1.44084e-05
0.00223717 6.42222e-05 -7.21579e-06 0.00237562 9.51568e-05 -9.05156e-06
0.00222617 4.8594e-05 -1.86411e-06 0.00236477 7.8829e-05 -3.58976e-06
0.00221387 3.49899e-05 3.26459e-06 0.00235255 6.46093e-05 1.63678e-06
0.00219996 2.37469e-05 8.12081e-06 0.00233861 5.28926e-05 6.50527e-06
0.00218401 1.51502e-05 1.25974e-05 0.00232251 4.39109e-05 1.10607e-05
0.00216549 9.34669e-06 1.66383e-05 0.0023037 3.78735e-05 1.51044e-05
0.00214388 6.37653e-06 2.01492e-05 0.00228165 3.48036e-05 1.86015e-05
0.00211876 6.13054e-06 2.30628e-05 0.00225592 3.45863e-05 2.14985e-05
0.00208988 8.34621e-06 2.53719e-05 0.00222629 3.69512e-05 2.38016e-05
0.00205721 1.26128e-05 2.71193e-05 0.00219271 4.14717e-05 2.5515e-05
0.00202091 1.83897e-05 2.83563e-05 0.00215537 4.75864e-05 2.66958e-05
0.00198126 2.50331e-05 2.91425e-05 0.00211458 5.46177e-05 2.74249e-05
0.00189321 3.14749e-05 2.9585e-05 0.00196501 6.09622e-05 2.78809e-05
0.00136172 3.58134e-05 2.98735e-05 0.00140343 6.56042e-05 2.80208e-05
0.000806749 3.93042e-05 2.98136e-05 0.000824998 6.88003e-05 2.81029e-05
0.000244235 4.1433e-05 2.96602e-05 0.000234874 7.09731e-05 2.78336e-05
-0.0003217 4.18465e-05 2.93487e-05 -0.000356195 7.09981e-05 2.75995e-05
-0.000881894 3.97793e-05 2.89835e-05 -0.000940826 6.87361e-05 2.72173e-05
-0.0014255 3.50664e-05 2.85623e-05 -0.00150724 6.36468e-05 2.68538e-05
-0.00194396 2.75281e-05 2.81102e-05 -0.00204709 5.56013e-05 2.64296e-05
-0.00243393 1.7023e-05 2.75844e-05 -0.00255582 4.44806e-05 2.59714e-05
-0.00289541 3.60681e-06 2.69333e-05 -0.00303386 3.0362e-05 2.54062e-05
-0.00333077 -1.2541e-05 2.60955e-05 -0.00348391 1.34036e-05 2.46677e-05
-0.00374311 -3.11692e-05 2.49847e-05 -0.00390895 -6.12506e-06 2.36587e-05
-0.00413494 -5.19008e-05 2.34975e-05 -0.00431182 -2.78545e-05 2.22755e-05
-0.00450896 -7.41756e-05 2.15026e-05 -0.00469536 -5.13017e-05 2.04072e-05
-0.00486811 -9.76646e-05 1.88839e-05 -0.00506314 -7.58521e-05 1.79004e-05
-0.00521625 -0.000121829 1.55179e-05 -0.00541913 -0.000101029 1.46903e-05
-0.00555842 -0.000146132 1.12776e-05 -0.0057688 -0.000126394 1.05657e-05
-0.00590024 -0.00017005 6.03956e-06 -0.00611814 -0.00015132 5.44172e-06
-0.00624678 -0.000193055 -2.6921e-07 -0.00647265 -0.000175268 -7.37675e-07
-0.0066015 -0.00021474 -7.13223e-06 -0.00683607 -0.000197824 -7.61209e-06
-0.00696621 -0.000234657 -1.48541e-05 -0.00721009 -0.000218627 -1.49798e-05
-0.00734107 -0.000252512 -2.3573e-05 -0.0075957 -0.000237163 -2.35774e-05
-0.00772504 -0.000268015 -3.33758e-05 -0.00799122 -0.0002533 -3.31935e-05
-0.0081148 -0.000281045 -4.42113e-05 -0.00839363 -0.000266849 -4.38085e-05
-0.00850521 -0.000291566 -5.59624e-05 -0.00879746 -0.000277774 -5.53517e-05
-0.00889007 -0.000299631 -6.8509e-05 -0.00919629 -0.000286124 -6.77293e-05
-0.00926376 -0.000305362 -8.17365e-05 -0.00958423 -0.000292037 -8.07907e-05
-0.00962265 -0.000308948 -9.55013e-05 -0.00995738 -0.000295715 -9.43676e-05
-0.00996496 -0.000310636 -0.00010961 -0.0103139 -0.000297407 -0.00010829
-0.01029 -0.000310716 -0.000123851 -0.0106528 -0.000297416 -0.000122367
-0.0105973 -0.000309514 -0.000138024 -0.0109737 -0.000296088 -0.00013639
-0.0108862 -0.000307384 -0.000151925 -0.0112757 -0.000293796 -0.000150139
-0.0111545 -0.000304705 -0.000165337 -0.0115564 -0.000290931 -0.000163399
-0.0113992 -0.000301855 -0.000178042 -0.0118125 -0.000287889 -0.000175965
-0.0116172 -0.000299194 -0.000189836 -0.0120408 -0.000285045 -0.000187636
-0.0118067 -0.000297046 -0.00020054 -0.0122392 -0.000282739 -0.000198226
-0.0119676 -0.000295681 -0.000209992 -0.0124075 -0.000281252 -0.00020757
-0.0121008 -0.000296207 -0.00021051 -0.0125481 -0.00028114 -0.00021177
-0.0122133 -0.000297608 -0.000209576 -0.0126639 -0.000282871 -0.000210132
-0.0123095 -0.000300088 -0.000208718 -0.0127647 -0.000284942 -0.000211044
-0.0123961 -0.000303168 -0.000208865 -0.0128532 -0.000288378 -0.000210671
-0.0124768 -0.000307102 -0.000209415 -0.012936 -0.000292524 -0.000210662
-0.0125537 -0.00031185 -0.000209424 -0.0130142 -0.000297457 -0.000210691
-0.0126252 -0.000317367 -0.000208283 -0.0130873 -0.00030311 -0.000209958
-0.0126886 -0.000323521 -0.000205742 -0.013151 -0.000309615 -0.000207345
-0.0127385 -0.000330216 -0.000201854 -0.0132006 -0.000316659 -0.000203181
-0.0127683 -0.000337264 -0.000196484 -0.0132291 -0.000324061 -0.000197681
-0.0127734 -0.000344447 -0.00018972 -0.0132329 -0.000331606 -0.000191001
-0.0127709 -0.000351569 -0.000181895 -0.0132302 -0.000339137 -0.000183183
-0.0127659 -0.00035832 -0.000173242 -0.0132248 -0.000346313 -0.00017437
-0.0127585 -0.000364303 -0.000163839 -0.0132171 -0.000352693 -0.000164818
-0.0127492 -0.000369068 -0.000153807 -0.0132075 -0.000357827 -0.000154758
-0.0127388 -0.000372214 -0.000143403 -0.0131968 -0.000361285 -0.000144357
-0.0127279 -0.000373376 -0.00013288 -0.0131856 -0.000362689 -0.000133765
-0.0127169 -0.000372255 -0.000122377 -0.0131744 -0.000361726 -0.000123175
-0.0127063 -0.000368652 -0.000111995 -0.0131636 -0.000358178 -0.000112767
-0.0126961 -0.000362472 -0.000101871 -0.0131534 -0.000351941 -0.000102668
-0.0126862 -0.00035373 -9.21435e-05 -0.0131436 -0.000343036 -9.29572e-05
-0.0126763 -0.000342556 -8.28913e-05 -0.0131338 -0.000331601 -8.37065e-05
-0.0126657 -0.000329181 -7.41349e-05 -0.0131234 -0.000317874 -7.49766e-05
-0.0126537 -0.000313921 -6.58893e-05 -0.0131116 -0.00030218 -6.67938e-05
-0.0126394 -0.000297141 -5.81737e-05 -0.0130975 -0.000284904 -5.91496e-05
-0.0126221 -0.000279216 -5.09853e-05 -0.0130805 -0.000266439 -5.20234e-05
-0.0126016 -0.000260493 -4.42918e-05 -0.0130601 -0.000247148 -4.53947e-05
-0.0125778 -0.000241279 -3.80538e-05 -0.0130364 -0.000227345 -3.92364e-05
-0.0125511 -0.00022184 -3.22397e-05 -0.0130097 -0.000207306 -3.3509e-05
-0.0125219 -0.000202404 -2.68179e-05 -0.0129804 -0.000187271 -2.81681e-05
-0.0124907 -0.00018317 -2.17469e-05 -0.0129491 -0.000167445 -2.31722e-05
-0.012458 -0.000164307 -1.69796e-05 -0.0129162 -0.000148002 -1.84822e-05
-0.0124243 -0.000145957 -1.2475e-05 -0.0128823 -0.000129087 -1.4057e-05
-0.01239 -0.000128241 -8.19739e-06 -0.0128478 -0.000110828 -9.85459e-06
-0.0123555 -0.000111262 -4.11137e-06 -0.012813 -9.33314e-05 -5.83649e-06
-0.0123209 -9.51137e-05 -1.80095e-07 -0.0127782 -7.6695e-05 -1.96898e-06
-0.0122864 -7.98151e-05 3.10481e-06 -0.0127433 -6.09799e-05 1.43932e-06
-0.0122516 -6.55033e-05 6.05551e-06 -0.0127081 -4.61732e-05 4.16561e-06
-0.0122165 -5.21758e-05 8.86908e-06 -0.0126726 -3.2516e-05 7.0427e-06
-0.0121815 -3.98612e-05 1.16974e-05 -0.0126371 -1.98288e-05 9.80504e-06
-0.0121469 -2.84397e-05 1.45179e-05 -0.0126021 -8.08109e-06 1.25436e-05
-0.0121139 -1.78024e-05 1.72794e-05 -0.0125686 2.84235e-06 1.52526e-05
-0.0119484 -7.41469e-06 1.99322e-05 -0.0123595 1.37588e-05 1.78551e-05
-0.0115405 2.79172e-06 2.25522e-05 -0.0119289 2.45146e-05 2.0671e-05
-0.0111718 1.23339e-05 2.53004e-05 -0.0115494 3.47027e-05 2.3055e-05
-0.0108482 2.09191e-05 2.79301e-05 -0.0112159 4.37302e-05 2.57899e-05
-0.0105727 2.8339e-05 3.0575e-05 -0.0109303 5.15958e-05 2.835e-05
-0.0103442 3.46917e-05 3.32154e-05 -0.0106944 5.82687e-05 3.09714e-05
-0.0101607 3.97809e-05 3.58647e-05 -0.0105051 6.35789e-05 3.36062e-05
-0.0100162 4.35073e-05 3.85044e-05 -0.0103552 6.75337e-05 3.62211e-05
-0.00990128 4.58818e-05 4.11213e-05 -0.0102362 7.00245e-05 3.88332e-05
-0.00980649 4.68581e-05 4.36936e-05 -0.0101376 7.1041e-05 4.14025e-05
-0.00972225 4.64268e-05 4.61913e-05 -0.0100495 7.05984e-05 4.39118e-05
-0.00964074 4.46532e-05 4.85806e-05 -0.00996391 6.87589e-05 4.63141e-05
-0.00955901 4.16117e-05 5.08224e-05 -0.00987783 6.55908e-05 4.85737e-05
-0.00947771 3.74427e-05 5.28663e-05 -0.00979151 6.12564e-05 5.06402e-05
-0.00940011 3.23527e-05 5.46559e-05 -0.00970866 5.59654e-05 5.24604e-05
-0.00933123 2.65692e-05 5.61386e-05 -0.00963457 4.99552e-05 5.39761e-05
-0.00927653 2.03352e-05 5.72608e-05 -0.0095749 4.34777e-05 5.51296e-05
-0.00924115 1.3903e-05 5.79674e-05 -0.00953518 3.67898e-05 5.58682e-05
-0.00922924 7.51008e-06 5.82082e-05 -0.00951981 3.01415e-05 5.61419e-05
-0.00923028 1.4376e-06 5.78718e-05 -0.00952068 2.38233e-05 5.58448e-05
-0.00923281 -4.11208e-06 5.68261e-05 -0.00952313 1.80603e-05 5.48117e-05
-0.00923626 -9.04979e-06 5.5044e-05 -0.00952652 1.29437e-05 5.30481e-05
-0.00923993 -1.33376e-05 5.25236e-05 -0.00953016 8.51294e-06 5.05439e-05
-0.00924323 -1.69531e-05 4.92836e-05 -0.00953346 4.79553e-06 4.73033e-05
-0.00924588 -1.98712e-05 4.53482e-05 -0.0095361 1.81193e-06 4.33535e-05
-0.00924786 -2.20657e-05 4.075e-05 -0.00953808 -4.12552e-07 3.87357e-05
-0.00924939 -2.3513e-05 3.55391e-05 -0.00953963 -1.85038e-06 3.35021e-05
-0.0092509 -2.41641e-05 2.97936e-05 -0.00954118 -2.48113e-06 2.77177e-05
-0.00925282 -2.40559e-05 2.35787e-05 -0.00954317 -2.31266e-06 2.14622e-05
-0.00925543 -2.32584e-05 1.69948e-05 -0.00954587 -1.42444e-06 1.48282e-05
-0.00925874 -2.18892e-05 1.01441e-05 -0.00954932 6.01543e-08 7.92308e-06
-0.00926268 -2.01072e-05 3.14014e-06 -0.00955342 1.9954e-06 8.68179e-07
-0.0092671 -1.81414e-05 -3.33669e-06 -0.00955802 4.13413e-06 -5.54681e-06
-0.00927176 -1.61417e-05 -9.67111e-06 -0.00956286 6.30654e-06 -1.1973e-05
-0.00927629 -1.43213e-05 -1.57986e-05 -0.00956757 8.30729e-06 -1.81513e-05
-0.00928022 -1.28736e-05 -2.16598e-05 -0.00957166 9.90017e-06 -2.40401e-05
-0.00928307 -1.19842e-05 -2.71514e-05 -0.00957462 1.08993e-05 -2.95423e-05
-0.00928436 -1.18064e-05 -3.21639e-05 -0.00957595 1.11595e-05 -3.45754e-05
-0.00928361 -1.2433e-05 -3.66303e-05 -0.00957518 1.05638e-05 -3.90742e-05
-0.00928043 -1.38995e-05 -4.05147e-05 -0.00957191 9.0769e-06 -4.29717e-05
-0.00927453 -1.61728e-05 -4.37834e-05 -0.00956582 6.72798e-06 -4.62274e-05
-0.00926574 -1.91427e-05 -4.6404e-05 -0.00955675 3.64144e-06 -4.8834e-05
-0.00925398 -2.26272e-05 -4.83699e-05 -0.00954463 3.02707e-09 -5.07908e-05
-0.00923925 -2.63856e-05 -4.97035e-05 -0.00952946 -3.93941e-06 -5.21093e-05
-0.00914189 -2.96143e-05 -5.04906e-05 -0.00942139 -7.25455e-06 -5.28795e-05
-0.00884579 -3.21272e-05 -5.0702e-05 -0.00911121 -9.78128e-06 -5.30166e-05
-0.0085187 -3.3925e-05 -5.02782e-05 -0.00877161 -1.14941e-05 -5.26828e-05
-0.00817543 -3.49022e-05 -4.93578e-05 -0.00841568 -1.2441e-05 -5.17037e-05
-0.00783173 -3.48446e-05 -4.79047e-05 -0.00805931 -1.22604e-05 -5.02783e-05
-0.00750172 -3.35512e-05 -4.59691e-05 -0.00771783 -1.08396e-05 -4.8338e-05
-0.00719765 -3.09147e-05 -4.35789e-05 -0.00740355 -8.04256e-06 -4.59608e-05
-0.00693068 -2.68715e-05 -4.07617e-05 -0.00712831 -3.78032e-06 -4.31533e-05
-0.00671116 -2.14027e-05 -3.75288e-05 -0.00690282 1.93855e-06 -3.99431e-05
-0.006548 -1.45608e-05 -3.38898e-05 -0.00673623 9.05896e-06 -3.63333e-05
-0.00644765 -6.47177e-06 -2.98513e-05 -0.00663521 1.74465e-05 -3.23251e-05
-0.00641588 2.53642e-06 -2.53908e-05 -0.00660323 2.68668e-05 -2.79103e-05
-0.00641887 1.23492e-05 -2.05177e-05 -0.00660638 3.70839e-05 -2.30689e-05
-0.00642557 2.28738e-05 -1.52232e-05 -0.00661345 4.81751e-05 -1.78223e-05
-0.00643545 3.37325e-05 -9.49138e-06 -0.00662387 5.95047e-05 -1.21126e-05
-0.00644784 4.44882e-05 -3.28674e-06 -0.00663679 7.0654e-05 -5.94788e-06
-0.00646185 5.4507e-05 3.29703e-06 -0.00665139 8.10677e-05 7.11721e-07
-0.00647658 6.34546e-05 9.04913e-06 -0.00666672 9.03542e-05 6.30709e-06
-0.00649118 7.06471e-05 1.5194e-05 -0.00668184 9.77641e-05 1.2653e-05
-0.00650479 7.56436e-05 2.17469e-05 -0.00669589 0.000102933 1.92185e-05
-0.00651672 7.81552e-05 2.86995e-05 -0.00670816 0.000105505 2.61131e-05
-0.0065265 7.80031e-05 3.59141e-05 -0.00671815 0.000105299 3.32895e-05
-0.00653394 7.51572e-05 4.32502e-05 -0.00672567 0.000102246 4.06815e-05
-0.00653895 6.96896e-05 5.06413e-05 -0.00673063 9.6458e-05 4.81709e-05
-0.00654149 6.1795e-05 5.80151e-05 -0.00673299 8.81462e-05 5.55968e-05
-0.00654153 5.1792e-05 6.52096e-05 -0.00673273 7.7633e-05 6.28268e-05
-0.00653918 4.01026e-05 7.20253e-05 -0.00672997 6.53493e-05 6.97196e-05
-0.00653477 2.72362e-05 7.82981e-05 -0.00672508 5.1841e-05 7.61047e-05
-0.00652885 1.37774e-05 8.38919e-05 -0.00671863 3.7724e-05 8.17969e-05
-0.00652204 3.47491e-07 8.86491e-05 -0.00671126 2.3647e-05 8.66243e-05
-0.00651493 -1.2438e-05 9.23952e-05 -0.00670361 1.02523e-05 9.0441e-05
-0.00650804 -2.40023e-05 9.49854e-05 -0.00669623 -1.85504e-06 9.3111e-05
-0.0065018 -3.38341e-05 9.6321e-05 -0.00668955 -1.21381e-05 9.45145e-05
-0.00649656 -4.15025e-05 9.6292e-05 -0.00668397 -2.01473e-05 9.45393e-05
-0.00649266 -4.66506e-05 9.45538e-05 -0.00667983 -2.54971e-05 9.27857e-05
-0.00649042 -4.90639e-05 9.10472e-05 -0.00667748 -2.79744e-05 8.9272e-05
-0.0064901 -4.86634e-05 8.58074e-05 -0.00667719 -2.74951e-05 8.40126e-05
-0.00649187 -4.55142e-05 7.89412e-05 -0.00667911 -2.4122e-05 7.70871e-05
-0.00649569 -3.98242e-05 7.05866e-05 -0.0066832 -1.80723e-05 6.86264e-05
-0.0065013 -3.19369e-05 6.09054e-05 -0.0066892 -9.71272e-06 5.88214e-05
-0.0065083 -2.23139e-05 5.0107e-05 -0.00669667 4.70885e-07 4.78968e-05
-0.00651624 -1.1502e-05 3.84476e-05 -0.00670515 1.19078e-05 3.60993e-05
-0.00652474 -9.532e-08 2.62029e-05 -0.00671422 2.39757e-05 2.3699e-05
-0.00653345 1.12887e-05 1.3649e-05 -0.0067235 3.60245e-05 1.09854e-05
-0.00654199 2.20237e-05 1.11668e-06 -0.00673259 4.73936e-05 -1.63681e-06
-0.00654992 3.13242e-05 -9.14031e-06 -0.00674099 5.7148e-05 -1.15847e-05
-0.00655687 3.88404e-05 -1.89963e-05 -0.00674838 6.5229e-05 -2.18562e-05
-0.0065627 4.42111e-05 -2.83016e-05 -0.00675453 7.09452e-05 -3.12423e-05
-0.0065675 4.71663e-05 -3.69386e-05 -0.00675956 7.41059e-05 -3.99074e-05
-0.00657153 4.74612e-05 -4.47176e-05 -0.00676371 7.4447e-05 -4.76196e-05
-0.00657495 4.49839e-05 -5.1451e-05 -0.00678056 7.18274e-05 -5.43726e-05
-0.00658701 3.97265e-05 -5.70829e-05 -0.00680444 6.63864e-05 -6.00944e-05
-0.00660468 3.18009e-05 -6.16752e-05 -0.00682123 5.82111e-05 -6.46327e-05
-0.00661509 2.14352e-05 -6.5207e-05 -0.00682984 4.74627e-05 -6.80862e-05
-0.00661706 8.936e-06 -6.76593e-05 -0.00683028 3.44899e-05 -7.04589e-05
-0.00661565 -5.23419e-06 -6.90743e-05 -0.00682859 1.97235e-05 -7.18316e-05
-0.00660952 -2.06381e-05 -6.95788e-05 -0.0068254 3.6346e-06 -7.22663e-05
-0.00655867 -3.66673e-05 -6.9172e-05 -0.00677681 -1.29996e-05 -7.176e-05
-0.00649564 -5.28803e-05 -6.79495e-05 -0.00670467 -2.98837e-05 -7.03881e-05
-0.00642481 -6.86914e-05 -6.60187e-05 -0.00662469 -4.63046e-05 -6.83821e-05
-0.00635143 -8.35221e-05 -6.35695e-05 -0.00654245 -6.17256e-05 -6.58522e-05
-0.00628106 -9.68353e-05 -6.07705e-05 -0.00646385 -7.55709e-05 -6.29569e-05
-0.00621837 -0.000108132 -5.77612e-05 -0.00639395 -8.73328e-05 -5.98564e-05
-0.00616644 -0.000116998 -5.4661e-05 -0.00633622 -9.65722e-05 -5.66879e-05
-0.00612689 -0.000123108 -5.15844e-05 -0.00629239 -0.000102947 -5.35715e-05
-0.00610061 -0.000126227 -4.86324e-05 -0.00626354 -0.00010622 -5.05903e-05
-0.0060885 -0.000126221 -4.5871e-05 -0.00625071 -0.000106249 -4.78105e-05
-0.00608828 -0.000123036 -4.33317e-05 -0.00625063 -0.000102967 -4.5275e-05
-0.00609003 -0.000116721 -4.10183e-05 -0.00625259 -9.64199e-05 -4.29929e-05
-0.00609341 -0.000107485 -3.89125e-05 -0.0062563 -8.68234e-05 -4.09379e-05
-0.00609852 -9.56558e-05 -3.69657e-05 -0.00626185 -7.45221e-05 -3.90529e-05
-0.00610525 -8.16917e-05 -3.50979e-05 -0.00626913 -5.99909e-05 -3.72599e-05
-0.00616011 -6.63437e-05 -3.32086e-05 -0.00633548 -4.41283e-05 -3.54376e-05
-0.00623278 -5.00655e-05 -3.11732e-05 -0.00641523 -2.72007e-05 -3.35054e-05
-0.00630742 -3.34476e-05 -2.89091e-05 -0.00649773 -9.96461e-06 -3.13326e-05
-0.00637902 -1.71355e-05 -2.63009e-05 -0.00657686 6.9522e-06 -2.88049e-05
-0.00644248 -1.7555e-06 -2.32429e-05 -0.00664728 2.28945e-05 -2.5824e-05
-0.00649377 1.21068e-05 -1.96401e-05 -0.00670606 3.72046e-05 -2.22692e-05
-0.00653077 2.38129e-05 -1.54181e-05 -0.0067492 4.93968e-05 -1.81114e-05
-0.00654825 3.31387e-05 -1.05713e-05 -0.00676893 5.90997e-05 -1.32743e-05
-0.00654796 3.98553e-05 -5.08368e-06 -0.00676903 6.60444e-05 -7.80788e-06
-0.00654378 4.36819e-05 1.00822e-06 -0.00676482 6.99419e-05 -1.71081e-06
-0.0065361 4.4666e-05 6.70085e-06 -0.00675686 7.08684e-05 4.06694e-06
-0.00652463 4.2851e-05 1.26982e-05 -0.00674499 6.88975e-05 1.019e-05
-0.00649653 3.86203e-05 1.89207e-05 -0.00672905 6.42375e-05 1.6477e-05
-0.00624178 3.32249e-05 2.5329e-05 -0.0064752 5.88086e-05 2.28611e-05
-0.0059236 2.61272e-05 3.17132e-05 -0.006144 5.12815e-05 2.932e-05
-0.00554935 1.78292e-05 3.79471e-05 -0.0057493 4.27531e-05 3.55847e-05
-0.00511881 8.84832e-06 4.38534e-05 -0.00529785 3.34964e-05 4.15959e-05
-0.00463915 -2.4474e-07 4.93442e-05 -0.00479437 2.41634e-05 4.71527e-05
-0.0041236 -8.85159e-06 5.42681e-05 -0.00425374 1.53454e-05 5.2096e-05
-0.00359054 -1.63386e-05 5.84363e-05 -0.00369499 7.71198e-06 5.62959e-05
-0.00306058 -2.21265e-05 6.17212e-05 -0.00314011 1.86584e-06 5.96412e-05
-0.00255455 -2.56872e-05 6.40519e-05 -0.00261064 -1.65717e-06 6.19974e-05
-0.00209294 -2.65826e-05 6.53642e-05 -0.00212834 -2.41215e-06 6.33022e-05
-0.00169393 -2.45107e-05 6.55873e-05 -0.00171218 -8.65065e-08 6.35018e-05
-0.00136902 -1.93054e-05 6.45349e-05 -0.00137427 5.49766e-06 6.23983e-05
-0.00112167 -1.09844e-05 6.22339e-05 -0.0011183 1.43054e-05 6.00334e-05
-0.000949847 2.61766e-07 5.8782e-05 -0.000942067 2.61417e-05 5.64943e-05
-0.000848096 1.40913e-05 5.43206e-05 -0.000839818 4.06585e-05 5.1917e-05
-0.000808532 3.00399e-05 4.90212e-05 -0.000803205 5.73715e-05 4.64811e-05
-0.000808366 4.76023e-05 4.30793e-05 -0.000804351 7.57971e-05 4.03885e-05
-0.000812175 6.61895e-05 3.6721e-05 -0.000808688 9.52761e-05 3.38827e-05
-0.000817552 8.498e-05 3.02027e-05 -0.000814625 0.000114983 2.72036e-05
-0.000823326 0.000103142 2.37757e-05 -0.000820971 0.00013403 2.06235e-05
-0.000828354 0.000119869 1.76862e-05 -0.000826518 0.000151579 1.439e-05
-0.000831554 0.00013443 1.21604e-05 -0.000830139 0.000166852 8.7403e-06
-0.000831998 0.000146198 7.39686e-06 -0.000830859 0.000179196 3.87621e-06
-0.000829007 0.000154701 3.63441e-06 -0.000827971 0.000188116 9.67583e-08
-0.000822233 0.000159666 1.08554e-06 -0.000821089 0.000193266 -2.25858e-06
-0.000811621 0.000161012 -3.65168e-07 -0.000810193 0.000194695 -3.74684e-06
-0.000686216 0.00015946 -9.23268e-07 -0.00072244 0.000193001 -4.32477e-06
-0.000448399 0.000155112 -5.25298e-07 -0.000468741 0.00018844 -3.87185e-06
-0.000165764 0.000147818 8.96475e-07 -0.000172307 0.000181024 -2.45708e-06
0.00015353 0.000138118 3.07084e-06 0.000163334 0.000170959 -6.91589e-08
0.000502442 0.000126502 5.85513e-06 0.000530559 0.000158947 2.79112e-06
0.000871315 0.00011357 9.15427e-06 0.000919216 0.000145589 6.1681e-06
0.00124929 0.000100008 1.28448e-05 0.00131777 0.000131534 9.94778e-06
0.00162501 8.64866e-05 1.67929e-05 0.00171386 0.000117544 1.39755e-05
0.00198812 7.36936e-05 2.08294e-05 0.0020967 0.00010431 1.80695e-05
0.00233013 6.22873e-05 2.47799e-05 0.00245713 9.25023e-05 2.20861e-05
0.00264434 5.28436e-05 2.84972e-05 0.00278791 8.27264e-05 2.58713e-05
0.00292603 4.58482e-05 3.18678e-05 0.00308397 7.55014e-05 2.92907e-05
0.00317242 4.16912e-05 3.47935e-05 0.00334222 7.12239e-05 3.2237e-05
0.00338227 4.06398e-05 3.71913e-05 0.00356128 7.01686e-05 3.46397e-05
0.00355547 4.28272e-05 3.90123e-05 0.00374099 7.24793e-05 3.64561e-05
0.00369083 4.81655e-05 4.02621e-05 0.00388204 7.81365e-05 3.76742e-05
0.00378695 5.64336e-05 4.0963e-05 0.00398604 8.69709e-05 3.83166e-05
0.00385153 6.74508e-05 4.11405e-05 0.00405003 9.84565e-05 3.84564e-05
0.00388929 8.10036e-05 4.08388e-05 0.00408639 0.000112592 3.80513e-05
0.00390181 9.65746e-05 4.01512e-05 0.00409566 0.000128888 3.72584e-05
0.00390062 0.000113799 3.92045e-05 0.00409412 0.000146898 3.62106e-05
0.0038974 0.000132157 3.81551e-05 0.00409045 0.000166087 3.50406e-05
0.00389206 0.000151004 3.71673e-05 0.00408459 0.0001858 3.39303e-05
0.00388476 0.000169664 3.64102e-05 0.00407673 0.000205323 3.30503e-05
0.00387597 0.000187425 3.60492e-05 0.00406734 0.000223893 3.25777e-05
0.00386634 0.000203547 3.62422e-05 0.00405711 0.000240749 3.26729e-05
0.00385651 0.000217357 3.71264e-05 0.00404672 0.000255186 3.34767e-05
0.00384686 0.000228292 3.88073e-05 0.00403656 0.000266609 3.50982e-05
0.00383747 0.000235916 4.13526e-05 0.00402675 0.000274562 3.7611e-05
0.00382821 0.000239895 4.46484e-05 0.00401717 0.000278678 4.1008e-05
0.00381894 0.000240002 4.84526e-05 0.00400769 0.000278797 4.47316e-05
0.00380951 0.000236188 5.29676e-05 0.00399815 0.000274775 4.93506e-05
0.00379957 0.000228545 5.81565e-05 0.00398816 0.000266778 5.45965e-05
0.00378867 0.000217314 6.38931e-05 0.00397731 0.000255029 6.039e-05
0.00377647 0.000202835 7.00102e-05 0.00396521 0.000239893 6.65866e-05
0.00376279 0.000185529 7.63168e-05 0.00395167 0.000221799 7.30135e-05
0.00374764 0.000165866 8.26338e-05 0.00393668 0.000201254 7.94664e-05
0.00373117 0.000144368 8.87648e-05 0.00392038 0.000178803 8.57272e-05
0.00371354 0.000121598 9.44865e-05 0.00390293 0.000155033 9.15776e-05
0.0036949 9.81408e-05 9.95694e-05 0.00388445 0.000130555 9.68025e-05
0.00367545 7.45756e-05 0.000103804 0.00386515 0.000105977 0.000101183
0.00365551 5.14578e-05 0.000106999 0.00384533 8.18807e-05 0.000104513
0.00363544 2.93068e-05 0.000108973 0.00382534 5.88099e-05 0.000106607
0.00361549 8.60505e-06 0.000109563 0.00380544 3.72684e-05 0.000107307
0.00359571 -1.01976e-05 0.000108531 0.00378565 1.77237e-05 0.000106386
0.00357598 -2.67189e-05 0.000105673 0.00376585 5.91953e-07 0.000103586
0.00355694 -4.03835e-05 0.000100879 0.00374669 -1.34123e-05 9.88278e-05
0.00353812 -5.10258e-05 9.41713e-05 0.00371549 -2.46528e-05 9.21943e-05
0.00334344 -5.97853e-05 8.56665e-05 0.00347101 -3.39691e-05 8.36723e-05
0.00309803 -6.59368e-05 7.54036e-05 0.00322043 -4.02694e-05 7.33816e-05
0.00285015 -6.92669e-05 6.34917e-05 0.00296095 -4.36169e-05 6.13608e-05
0.00259989 -6.99687e-05 5.00592e-05 0.00269899 -4.43631e-05 4.78782e-05
0.00234861 -6.83301e-05 3.53589e-05 0.00243551 -4.26271e-05 3.30657e-05
0.00209801 -6.46973e-05 1.96189e-05 0.00217207 -3.87982e-05 1.71998e-05
0.00184669 -5.94501e-05 3.11477e-06 0.00190691 -3.32276e-05 5.77629e-07
0.00159059 -5.33895e-05 -1.07501e-05 0.00163671 -2.68808e-05 -1.29523e-05
0.00132301 -4.66186e-05 -2.44353e-05 0.00135522 -1.97983e-05 -2.70148e-05
0.00103799 -3.96762e-05 -3.78521e-05 0.00105422 -1.24242e-05 -4.05771e-05
0.000729285 -3.2941e-05 -5.11337e-05 0.000729429 -5.36579e-06 -5.39523e-05
0.000394444 -2.69222e-05 -6.40142e-05 0.000377602 9.103e-07 -6.67392e-05
3.53172e-05 -2.21597e-05 -7.60826e-05 7.54007e-07 5.90241e-06 -7.88157e-05
-0.000341734 -1.91207e-05 -8.71344e-05 -0.000394201 9.10831e-06 -9.00424e-05
-0.00072757 -1.82167e-05 -9.7139e-05 -0.00079755 1.00536e-05 -0.00010013
-0.00111247 -1.98155e-05 -0.000105993 -0.001199 8.35389e-06 -0.000108924
-0.00148748 -2.42037e-05 -0.000113486 -0.00158919 3.75896e-06 -0.000116359
-0.0018448 -3.15356e-05 -0.000119486 -0.00195993 -3.90116e-06 -0.000122367
-0.0021779 -4.18384e-05 -0.000124002 -0.00230435 -1.46668e-05 -0.000126891
-0.00248268 -5.5017e-05 -0.000127084 -0.00261818 -2.84388e-05 -0.000129898
-0.00275948 -7.08436e-05 -0.000128742 -0.00290186 -4.49729e-05 -0.000131436
-0.00301402 -8.89607e-05 -0.00012895 -0.00316144 -6.38915e-05 -0.000131555
-0.00325587 -0.000108916 -0.000127577 -0.003407 -8.47473e-05 -0.000130046
-0.00349604 -0.000130155 -0.000124798 -0.00365023 -0.000106945 -0.000127139
-0.00374464 -0.00015207 -0.000120816 -0.00390184 -0.000129864 -0.000123005
-0.00401014 -0.000174038 -0.000115844 -0.0041709 -0.000152858 -0.000117875
-0.00430049 -0.000195444 -0.000110108 -0.00446589 -0.000175285 -0.000111985
-0.00462301 -0.000215703 -0.000103842 -0.00479465 -0.000196533 -0.000105572
-0.00498201 -0.000234293 -9.72783e-05 -0.00516186 -0.000216063 -9.88661e-05
-0.00537648 -0.000250788 -9.06315e-05 -0.00556663 -0.000233429 -9.20862e-05
-0.00580053 -0.00026487 -8.40961e-05 -0.00600298 -0.000248296 -8.54326e-05
-0.00624541 -0.000276327 -7.78445e-05 -0.0064619 -0.000260436 -7.9081e-05
-0.0067016 -0.000285044 -7.20245e-05 -0.00693352 -0.000269726 -7.31787e-05
-0.00716119 -0.000290998 -6.67556e-05 -0.00740964 -0.000276139 -6.78448e-05
-0.00762044 -0.00029424 -6.21272e-05 -0.00788633 -0.000279723 -6.31699e-05
-0.00808052 -0.000294891 -5.81993e-05 -0.00836478 -0.000280605 -5.92147e-05
-0.00854527 -0.000293147 -5.50031e-05 -0.00884891 -0.000278989 -5.60093e-05
-0.00901851 -0.000289291 -5.25412e-05 -0.00934261 -0.00027517 -5.35535e-05
-0.00950208 -0.000283688 -5.07884e-05 -0.0098477 -0.00026953 -5.18195e-05
-0.00999417 -0.000276783 -4.9694e-05 -0.0103621 -0.000262531 -5.0755e-05
-0.0104886 -0.000269092 -4.91878e-05 -0.0108794 -0.000254706 -5.02863e-05
-0.010976 -0.000261167 -4.91854e-05 -0.0113895 -0.00024663 -5.03253e-05
-0.0114459 -0.000253572 -4.95946e-05 -0.0118813 -0.000238886 -5.07757e-05
-0.0118878 -0.000246852 -5.03213e-05 -0.0123437 -0.000232036 -5.15402e-05
-0.0122914 -0.000241504 -5.12764e-05 -0.0127659 -0.000226597 -5.25267e-05
-0.0126471 -0.00023796 -5.23816e-05 -0.0131376 -0.000223014 -5.3654e-05
-0.0129456 -0.000236564 -5.35742e-05 -0.0134491 -0.000221644 -5.48569e-05
-0.0131789 -0.000237556 -5.48106e-05 -0.0136919 -0.000222734 -5.60904e-05
-0.013341 -0.000241054 -5.607e-05 -0.0138597 -0.000226404 -5.7333e-05
-0.0134283 -0.000247048 -5.73554e-05 -0.0139488 -0.000232642 -5.85878e-05
-0.0134433 -0.000255435 -5.86901e-05 -0.0139629 -0.000241353 -5.98781e-05
-0.0134376 -0.000266168 -6.01134e-05 -0.0139568 -0.000252535 -6.12377e-05
-0.0134263 -0.000278834 -6.17021e-05 -0.0139448 -0.000265728 -6.27538e-05
-0.01341 -0.000292812 -6.35523e-05 -0.0139277 -0.00028028 -6.45238e-05
-0.0133899 -0.000307354 -6.57757e-05 -0.0139067 -0.000295436 -6.66624e-05
-0.013367 -0.000321656 -6.84887e-05 -0.013883 -0.000310343 -6.92935e-05
-0.0133424 -0.000334888 -7.18012e-05 -0.0138575 -0.000324137 -7.2531e-05
-0.0133169 -0.000346292 -7.58018e-05 -0.0138311 -0.000336023 -7.64714e-05
-0.013291 -0.000355187 -8.05552e-05 -0.0138044 -0.000345292 -8.11828e-05
-0.0132652 -0.000361003 -8.60948e-05 -0.0137778 -0.000351349 -8.67017e-05
-0.0132394 -0.000363312 -9.24153e-05 -0.0137514 -0.00035375 -9.30247e-05
-0.0132133 -0.000361833 -9.94694e-05 -0.0137249 -0.000352205 -0.000100107
-0.0131865 -0.000356424 -0.00010717 -0.0136977 -0.000346572 -0.000107863
-0.0131585 -0.00034708 -0.00011539 -0.0136694 -0.000336845 -0.000116162
-0.0131287 -0.000333913 -0.000123966 -0.0136394 -0.000323146 -0.000124841
-0.0130967 -0.000317139 -0.000132615 -0.0136072 -0.000305696 -0.000133686
-0.0130623 -0.000297223 -0.00013947 -0.0135727 -0.00028501 -0.000140554
-0.0130256 -0.000274271 -0.000146094 -0.0135359 -0.000261143 -0.000147626
-0.012987 -0.000248639 -0.000152315 -0.0134972 -0.000234547 -0.000153972
-0.0129469 -0.00022073 -0.000157991 -0.0134571 -0.000205594 -0.000159766
-0.0129058 -0.000191012 -0.000162838 -0.013416 -0.000174788 -0.000164668
-0.0128639 -0.000160012 -0.000166554 -0.0133742 -0.000142634 -0.000168571
-0.0128214 -0.000128266 -0.000168988 -0.0133316 -0.000109718 -0.000171234
-0.0127781 -9.63346e-05 -0.000170021 -0.0132883 -7.66458e-05 -0.000172417
-0.0127338 -6.4785e-05 -0.000169379 -0.0132386 -4.39399e-05 -0.00017192
-0.0122046 -3.21931e-05 -0.000166548 -0.0126009 -9.1548e-06 -0.000169362
-0.0115045 -9.91616e-07 -0.000161396 -0.0118995 2.27596e-05 -0.00016432
-0.0108098 2.65372e-05 -0.000153606 -0.0111981 5.16201e-05 -0.000156674
-0.0100903 5.10414e-05 -0.000143207 -0.0104491 7.73933e-05 -0.000146362
-0.00933127 7.25986e-05 -0.000130195 -0.00966849 0.000100029 -0.000133483
-0.00853869 9.06493e-05 -0.000114632 -0.00884972 0.000118839 -0.000117949
-0.00771748 0.000104996 -9.66234e-05 -0.0079969 0.000134046 -9.99868e-05
-0.00687308 0.000116011 -7.63667e-05 -0.00712105 0.000145763 -7.97581e-05
-0.00601675 0.000123966 -5.40971e-05 -0.00623057 0.000154228 -5.73823e-05
-0.00515639 0.000128934 -3.00866e-05 -0.00533344 0.0001595 -3.33341e-05
-0.00429615 0.000131375 -4.73232e-06 -0.0044361 0.000162157 -7.8845e-06
-0.00343936 0.00013228 1.76032e-05 -0.00354072 0.000163027 1.47087e-05
-0.00258232 0.000131593 3.94003e-05 -0.00264687 0.000162723 3.64952e-05
-0.00171932 0.000130137 6.09022e-05 -0.00174288 0.000161121 5.82665e-05
-0.000839927 0.000128143 8.26407e-05 -0.000824264 0.000159261 8.01442e-05
6.26774e-05 0.000126305 0.000104157 0.000119806 0.000157557 0.000101317
0.000994256 0.000125257 0.000124752 0.00109359 0.000156665 0.000121922
0.00195675 0.00012555 0.000144128 0.00209962 0.00015713 0.00014157
0.0029484 0.000127685 0.000162303 0.00313545 0.00015962 0.000159868
0.00396411 0.000132166 0.000179106 0.00419566 0.000164598 0.000176557
0.00499819 0.000139427 0.00019414 0.00527427 0.000172503 0.000191475
0.00604656 0.000149781 0.000207134 0.00636705 0.000183642 0.000204529
0.00710489 0.000164393 0.000209612 0.00747034 0.000198951 0.000208097
0.00817382 0.00018206 0.000209414 0.00857774 0.000218558 0.000206235
0.00924582 0.000203067 0.000208804 0.00969526 0.000240292 0.000207183
0.0103184 0.000226475 0.000209221 0.0108071 0.000265574 0.000206839
0.0113838 0.000252424 0.000210193 0.0119135 0.000293197 0.000207113
0.0124381 0.000280553 0.000210657 0.0130069 0.000323119 0.000207344
0.013479 0.000310526 0.000209784 0.0140873 0.000354809 0.000206761
0.0145088 0.00034179 0.000207158 0.0151544 0.000388082 0.000203908
0.0155318 0.000373805 0.000203059 0.0162146 0.000422113 0.000199362
0.01657 0.000406044 0.000197521 0.0172851 0.000456332 0.00019346
0.018124 0.000440107 0.00019071 0.0188577 0.000492915 0.00018634
0.019628 0.000468932 0.000183528 0.0205009 0.000526077 0.000178789
0.0208915 0.000489264 0.000176268 0.0221238 0.000554234 0.000170999
0.0222132 0.000506645 0.000168885 0.0234243 0.000570792 0.000163954
0.0237267 0.000525242 0.000161448 0.0248222 0.000588918 0.000155893
0.0252599 0.000540153 0.000154032 0.0264307 0.000605219 0.000148611
0.0268166 0.000551227 0.000147074 0.0280107 0.000617629 0.000141332
0.0284942 0.000562055 0.000140224 0.0297159 0.000629072 0.000134556
0.0302301 0.00056993 0.000134023 0.0314776 0.00063777 0.000128223
0.0319856 0.00057449 0.000128596 0.0332895 0.000643942 0.000122534
0.0337984 0.000577415 0.000123777 0.0351773 0.000648111 0.000117643
0.0356575 0.000578138 0.00011971 0.0370875 0.000649797 0.000113532
0.0375272 0.000576207 0.000116534 0.0390267 0.000649075 0.000110306
0.0394021 0.000571984 0.00011432 0.040945 0.000645436 0.000107997
0.04125 0.000565419 0.000112987 0.0428302 0.000639042 0.000106647
0.043051 0.000556467 0.000112483 0.0446731 0.000630457 0.00010617
0.0447953 0.000545886 0.000112765 0.0464591 0.000620052 0.000106513
0.0464724 0.000534221 0.000113758 0.0481748 0.000608408 0.000107522
0.0480709 0.000521906 0.000115305 0.0498124 0.000596122 0.000109104
0.0495847 0.000509585 0.000117254 0.0513637 0.0005838 0.000111116
0.0510075 0.000497851 0.000119485 0.0528212 0.000572021 0.000113417
0.0523298 0.000487208 0.000121877 0.0541761 0.000561357 0.000115858
0.0535406 0.000478164 0.000124293 0.0554166 0.000552325 0.000118311
0.0546288 0.000471155 0.00012661 0.056531 0.000545372 0.000120663
0.0555843 0.000466521 0.000128736 0.0575089 0.000540854 0.000122819
0.0563986 0.000464519 0.000130608 0.0583418 0.000539032 0.000124701
0.0570667 0.000465295 0.000132181 0.059024 0.000540063 0.000126263
0.0575883 0.000468885 0.000133434 0.0595556 0.000543987 0.000127491
0.0579717 0.000475218 0.000134378 0.059945 0.000550726 0.000128398
0.0582322 0.000484112 0.000135054 0.0602076 0.000560098 0.000129021
0.0583867 0.000495287 0.000135526 0.0603611 0.000571818 0.000129427
0.05845 0.000508378 0.000135881 0.0604208 0.00058551 0.000129703
0.0584516 0.000523043 0.000136211 0.060421 0.000600869 0.000129942
0.0584442 0.000537939 0.000136758 0.0604156 0.000617104 0.000130315
0.0584314 0.000552038 0.000137539 0.0604067 0.000633789 0.000130916
0.0584168 0.000566914 0.00013858 0.0603948 0.000650631 0.000131878
0.0584009 0.000581123 0.000139858 0.0603799 0.000664994 0.000132518
0.0583827 0.000593245 0.000140871 0.0603644 0.000665891 0.000133204
0.058362 0.000604229 0.000142752 0.0603442 0.000671374 0.000134462
0.0583381 0.000613465 0.000145498 0.0603205 0.000674421 0.0001366
0.058311 0.000620053 0.000149102 0.0602941 0.000674317 0.000139896
0.0582814 0.000623761 0.000153796 0.0602646 0.000673856 0.00014404
0.0582498 0.000624298 0.000159342 0.0602329 0.000669968 0.000149468
0.0582165 0.000621072 0.000165902 0.0601993 0.000664222 0.000155939
0.0581823 0.000613067 0.000173314 0.0601642 0.000655855 0.000163388
0.0581473 0.000602094 0.000181563 0.0601282 0.000644883 0.000171742
0.0581119 0.000587119 0.000190394 0.0600923 0.000629065 0.000180667
0.0580766 0.000568039 0.000199472 0.0600563 0.000608947 0.000189939
0.0580415 0.000544991 0.000208533 0.0600207 0.000584854 0.00019927
0.0580067 0.000518712 0.000214997 0.0599854 0.000557251 0.000207666
0.0579722 0.000490433 0.000214351 0.0599505 0.000526917 0.000212168
0.0579376 0.000459903 0.00021268 0.0599156 0.000494539 0.000211693
0.0579027 0.000427326 0.000211898 0.0598802 0.000460754 0.000210999
0.0578669 0.000393634 0.000212106 0.0598439 0.000425814 0.00021011
0.0578299 0.000359686 0.000212112 0.0598064 0.00039052 0.000209253
0.0577914 0.000326214 0.000211297 0.0597675 0.000355492 0.000208809
0.0577516 0.000293658 0.000210389 0.059727 0.000321518 0.000208446
0.0577105 0.000262775 0.000208218 0.0596852 0.000289371 0.000206318
0.0576681 0.00023415 0.000203808 0.059642 0.000259656 0.00020159
0.0576244 0.000208215 0.000196576 0.0595975 0.000232665 0.000194526
0.0575795 0.000185168 0.000186656 0.0595516 0.000208745 0.000184981
0.0575332 0.000165122 0.000174425 0.0595043 0.000188044 0.00017278
0.0570404 0.000145961 0.000160133 0.0591608 0.00016871 0.000158166
0.0560954 0.000129069 0.00014327 0.0582194 0.000152556 0.000141032
0.0551035 0.000115997 0.000123968 0.0572475 0.000138962 0.000122193
0.0541264 0.00010764 0.000102814 0.056222 0.000129902 0.000100697
0.0530839 0.00010229 7.9951e-05 0.0551189 0.000123483 7.78418e-05
0.0519651 9.91787e-05 5.57378e-05 0.0539544 0.000119988 5.33797e-05
0.0507839 9.85797e-05 3.03931e-05 0.0527202 0.000118945 2.79573e-05
0.0495454 9.99943e-05 4.38298e-06 0.0514239 0.000119799 1.87693e-06
0.0482543 0.000101675 -1.3287e-05 0.0500785 0.00012114 -1.47529e-05
0.046921 0.000104241 -2.85646e-05 0.0486971 0.000122988 -3.05508e-05
0.0455589 0.000106916 -4.25863e-05 0.0472732 0.0001256 -4.55595e-05
0.0441685 0.000109643 -5.68953e-05 0.0458311 0.000127861 -6.03455e-05
0.0427572 0.000111804 -7.11129e-05 0.0443639 0.000129492 -7.4247e-05
0.0413266 0.000112862 -8.42122e-05 0.0428781 0.000129983 -8.73907e-05
0.0398792 0.000112341 -9.59316e-05 0.0413744 0.000129031 -9.98479e-05
0.0384197 0.000110273 -0.000106681 0.0398588 0.000126746 -0.000110945
0.0369563 0.000106192 -0.000116569 0.0383305 0.00012308 -0.000120978
0.0354927 9.97084e-05 -0.000125189 0.0368101 0.000116489 -0.000129238
0.0340341 9.04542e-05 -0.000132162 0.0352908 0.000107242 -0.000136474
0.0325827 7.84865e-05 -0.000137665 0.0337815 9.49934e-05 -0.000142136
0.0311417 6.37373e-05 -0.000141894 0.0322825 7.98899e-05 -0.000146324
0.0297145 4.63127e-05 -0.000144792 0.0307992 6.19294e-05 -0.000148951
0.028305 2.63726e-05 -0.000146193 0.0293344 4.13606e-05 -0.000150201
0.0269144 4.15102e-06 -0.00014585 0.0278898 1.83882e-05 -0.000149737
0.0255404 -2.0052e-05 -0.000143381 0.0264636 -6.74161e-06 -0.000146945
0.0241769 -4.58134e-05 -0.000138954 0.0250491 -3.35141e-05 -0.000142192
0.0228158 -7.26229e-05 -0.000132766 0.0236382 -6.14452e-05 -0.000135709
0.0214489 -9.99383e-05 -0.000125091 0.0222221 -8.99706e-05 -0.000127768
0.0200695 -0.000127193 -0.000116259 0.0207943 -0.000118515 -0.000118638
0.0186745 -0.000153828 -0.000106573 0.0193515 -0.000146492 -0.000108633
0.0172646 -0.000179298 -9.63141e-05 0.0178942 -0.000173338 -9.8079e-05
0.0158433 -0.000203094 -8.57848e-05 0.016426 -0.000198524 -8.72924e-05
0.0144158 -0.000224759 -7.5299e-05 0.0149524 -0.000221569 -7.65647e-05
0.0132734 -0.000240286 -6.71361e-05 0.0137737 -0.00023818 -6.82125e-05
0.012133 -0.00025402 -5.93119e-05 0.0125974 -0.000252971 -6.02131e-05
0.0109955 -0.000265822 -5.19403e-05 0.0114247 -0.000265792 -5.26914e-05
0.00986025 -0.000275585 -4.51277e-05 0.0102547 -0.000276532 -4.57555e-05
0.00872566 -0.000283239 -3.89702e-05 0.00908569 -0.000285115 -3.94955e-05
0.00758924 -0.000288741 -3.35447e-05 0.00791512 -0.000291482 -3.39782e-05
0.00644809 -0.0002921 -2.89044e-05 0.00673949 -0.000295572 -2.92622e-05
0.0052992 -0.000293362 -2.50879e-05 0.00555574 -0.000297468 -2.53888e-05
0.00413981 -0.000292628 -2.21184e-05 0.00436111 -0.000297267 -2.2381e-05
0.00296778 -0.000290039 -2.00042e-05 0.00315323 -0.000295115 -2.02477e-05
0.00178171 -0.000285772 -1.87392e-05 0.00193073 -0.000291203 -1.89746e-05
0.000581211 -0.000280044 -1.82986e-05 0.000693131 -0.000285758 -1.85365e-05
-0.000633166 -0.000273103 -1.8642e-05 -0.000558965 -0.000279038 -1.88929e-05
-0.00185978 -0.000265218 -1.97167e-05 -0.0018227 -0.000271286 -1.99965e-05
-0.00309653 -0.000256688 -2.1462e-05 -0.00309588 -0.000262848 -2.17737e-05
-0.00434042 -0.000247839 -2.3803e-05 -0.00437638 -0.000254061 -2.41569e-05
-0.00558798 -0.000238999 -2.66636e-05 -0.00566111 -0.000245292 -2.70563e-05
-0.00683537 -0.000230504 -2.99585e-05 -0.00694676 -0.000236901 -3.03894e-05
-0.00807875 -0.00022268 -3.36019e-05 -0.00822993 -0.000229245 -3.40664e-05
-0.00931445 -0.000215843 -3.75088e-05 -0.00950738 -0.000222667 -3.8e-05
-0.0105389 -0.000210288 -4.1598e-05 -0.0107759 -0.000217489 -4.21055e-05
-0.0117469 -0.000206249 -4.57996e-05 -0.0120278 -0.000213794 -4.6328e-05
-0.0129352 -0.000203941 -5.00457e-05 -0.0132503 -0.000211877 -5.05747e-05
-0.0140976 -0.000203649 -5.42649e-05 -0.0144514 -0.000212041 -5.4782e-05
-0.01523 -0.000205483 -5.84119e-05 -0.0156191 -0.00021444 -5.89183e-05
-0.0164403 -0.000210403 -6.23544e-05 -0.0168204 -0.000219819 -6.28525e-05
-0.0177059 -0.000218037 -6.62013e-05 -0.0181196 -0.000228313 -6.65934e-05
-0.018923 -0.000227805 -6.99117e-05 -0.0193524 -0.000238756 -7.03011e-05
-0.0200813 -0.000239615 -7.35018e-05 -0.0205338 -0.000251668 -7.37119e-05
-0.0211771 -0.00025317 -7.69064e-05 -0.0216544 -0.000265164 -7.68729e-05
-0.0221997 -0.000268609 -8.01369e-05 -0.0227046 -0.000280828 -8.01252e-05
-0.0231408 -0.000285642 -8.34097e-05 -0.0236652 -0.00029802 -8.30967e-05
-0.0239895 -0.000304115 -8.6656e-05 -0.0245373 -0.000316562 -8.62151e-05
-0.0247414 -0.000323739 -8.99865e-05 -0.0253087 -0.000336256 -8.93184e-05
-0.0253937 -0.000344266 -9.34362e-05 -0.0259786 -0.000356799 -9.25502e-05
-0.0259452 -0.000365377 -9.70696e-05 -0.0265464 -0.000377867 -9.59784e-05
-0.0263976 -0.000386754 -0.000100963 -0.0270133 -0.00039917 -9.96497e-05
-0.0267538 -0.000408098 -0.000105174 -0.0273823 -0.00042036 -0.000103655
-0.0270182 -0.000429075 -0.000109771 -0.0276577 -0.00044113 -0.000108043
-0.0271978 -0.000449355 -0.000114807 -0.0278469 -0.000461153 -0.00011288
-0.0272169 -0.000465593 -0.000120628 -0.0279366 -0.000479081 -0.000118344
-0.0272085 -0.000478895 -0.000127012 -0.0279459 -0.000495769 -0.000124367
-0.0271997 -0.000491996 -0.00013375 -0.027941 -0.000509123 -0.000131168
-0.0271925 -0.000504841 -0.000141076 -0.0279317 -0.000521424 -0.000138296
-0.0271851 -0.000516607 -0.000148827 -0.0279257 -0.000532447 -0.000145785
-0.027177 -0.000525925 -0.000155821 -0.027919 -0.000541595 -0.000153743
-0.02717 -0.000533725 -0.000161327 -0.0279131 -0.00054932 -0.000160524
-0.0271651 -0.000540447 -0.00016618 -0.0279087 -0.00055517 -0.000165507
-0.0271618 -0.000544921 -0.000171511 -0.0279054 -0.000559128 -0.000171244
-0.0271598 -0.000546971 -0.000177162 -0.0279042 -0.000560813 -0.000176969
-0.0271595 -0.000546853 -0.00018313 -0.0279048 -0.000560449 -0.000182796
-0.0271614 -0.000544955 -0.000189128 -0.027907 -0.000557983 -0.00018873
-0.027165 -0.000541226 -0.000194996 -0.0279108 -0.000553597 -0.000194814
-0.0271694 -0.000535533 -0.000200782 -0.0279157 -0.000547314 -0.000200953
-0.0271741 -0.000527938 -0.000206586 -0.0279207 -0.000539202 -0.000207008
-0.0271786 -0.000518771 -0.000212071 -0.0279256 -0.000529506 -0.000212868
-0.0271825 -0.000509009 -0.000211557 -0.0279299 -0.000518857 -0.000214291
-0.0271855 -0.000497963 -0.000210799 -0.0279332 -0.000507811 -0.000212293
-0.0271872 -0.000486387 -0.000209578 -0.0279354 -0.000495197 -0.000213193
-0.0271874 -0.000474153 -0.000208704 -0.027936 -0.000482465 -0.000212676
-0.0271858 -0.000461617 -0.000208438 -0.0279348 -0.000469512 -0.000212326
-0.0271823 -0.000449147 -0.00020838 -0.0279316 -0.000456558 -0.00021205
-0.0271765 -0.000437005 -0.000208069 -0.0279261 -0.000443976 -0.000211683
-0.0271682 -0.000425447 -0.000207448 -0.0279181 -0.000431894 -0.000211572
-0.0271573 -0.000414608 -0.000206825 -0.0279073 -0.000420607 -0.000211453
-0.0271434 -0.000404618 -0.000206506 -0.0278935 -0.000410275 -0.000211293
-0.0271265 -0.000395591 -0.000206494 -0.0278766 -0.000400998 -0.000211108
-0.0271066 -0.000387609 -0.000206558 -0.0278565 -0.000392827 -0.000210944
-0.0270836 -0.000380767 -0.000205872 -0.0278334 -0.000385794 -0.00021039
-0.0270577 -0.000375044 -0.000203896 -0.0278072 -0.000380017 -0.000208364
-0.0270292 -0.000370347 -0.000200679 -0.0277782 -0.000375279 -0.000205276
-0.0269983 -0.000366486 -0.000196354 -0.0277469 -0.000371441 -0.000200982
-0.0269653 -0.000363243 -0.000190975 -0.0277134 -0.000368285 -0.000195555
-0.0269307 -0.000360372 -0.000184566 -0.0276782 -0.000365542 -0.000189074
-0.0268948 -0.000357595 -0.000177165 -0.0276417 -0.000362913 -0.000181638
-0.0268584 -0.000354613 -0.000168857 -0.0276046 -0.00036007 -0.00017334
-0.0268218 -0.000351105 -0.000159763 -0.0275675 -0.00035669 -0.000164254
-0.0267859 -0.000346762 -0.00015 -0.027531 -0.000352457 -0.000154469
-0.0267512 -0.000341304 -0.000139659 -0.0274957 -0.000347074 -0.000144085
-0.0267181 -0.000334488 -0.000128816 -0.0274622 -0.000340279 -0.000133212
-0.0266871 -0.000326117 -0.00011755 -0.0274308 -0.00033186 -0.000121949
-0.0266585 -0.000316051 -0.000105952 -0.027402 -0.000321672 -0.000110374
-0.0266325 -0.000304218 -9.41103e-05 -0.0273758 -0.000309642 -9.85562e-05
-0.026609 -0.000290615 -8.20946e-05 -0.0273522 -0.000295769 -8.65574e-05
-0.0265877 -0.00027531 -6.99529e-05 -0.027331 -0.000280119 -7.44373e-05
-0.0265685 -0.000258427 -5.77219e-05 -0.0273119 -0.000262818 -6.22458e-05
-0.0265511 -0.000240138 -4.54375e-05 -0.0272947 -0.000244045 -5.00187e-05
-0.0265352 -0.000220656 -3.31342e-05 -0.027279 -0.000224023 -3.77799e-05
-0.0265206 -0.000200228 -2.08386e-05 -0.0272647 -0.000203011 -2.55467e-05
-0.0265069 -0.000179131 -8.566e-06 -0.0272514 -0.000181297 -1.33339e-05
-0.026494 -0.000157673 3.79386e-06 -0.0272389 -0.000159196 -1.13457e-06
-0.0264814 -0.000135492 1.06061e-05 -0.0272266 -0.000136728 7.63739e-06
-0.0264688 -0.000113756 1.66881e-05 -0.0272145 -0.00011372 1.19144e-05
-0.0264557 -9.23697e-05 2.21557e-05 -0.0272017 -9.21595e-05 1.90679e-05
-0.0264416 -7.21341e-05 2.79533e-05 -0.0271879 -7.12341e-05 2.49084e-05
-0.0264267 -5.34067e-05 3.41629e-05 -0.0271728 -5.17453e-05 3.10781e-05
-0.0264155 -3.83898e-05 4.05039e-05 -0.0271592 -3.58359e-05 3.72523e-05
-0.026402 -2.58703e-05 4.67636e-05 -0.0271452 -2.18707e-05 4.32858e-05
-0.0263859 -1.45298e-05 5.26272e-05 -0.0271276 -1.04775e-05 4.9556e-05
-0.0261697 -3.08449e-06 5.83171e-05 -0.0271079 -1.73539e-06 5.60056e-05
-0.0257203 7.13567e-06 6.43055e-05 -0.0268543 7.88632e-06 6.16067e-05
-0.0252463 1.60267e-05 7.03416e-05 -0.0263222 1.63842e-05 6.77115e-05
-0.0247376 2.29132e-05 7.61042e-05 -0.0257963 2.33292e-05 7.36161e-05
-0.024195 2.85718e-05 8.1648e-05 -0.0252238 2.89176e-05 7.88851e-05
-0.0236271 3.28415e-05 8.68931e-05 -0.0246314 3.25497e-05 8.48651e-05
-0.0230433 3.53646e-05 9.20587e-05 -0.0240244 3.51717e-05 8.98887e-05
-0.022449 3.65376e-05 9.71034e-05 -0.0234007 3.61672e-05 9.51625e-05
-0.0218439 3.64874e-05 0.000101918 -0.0227705 3.59892e-05 9.99161e-05
-0.0212305 3.52843e-05 0.000106381 -0.0221337 3.4614e-05 0.000104465
-0.0206101 3.29732e-05 0.000110447 -0.0214883 3.21973e-05 0.000108746
-0.0199803 2.97318e-05 0.000114163 -0.0208337 2.89369e-05 0.000112628
-0.0193382 2.57875e-05 0.000117543 -0.0201678 2.4945e-05 0.000116115
-0.0186828 2.12622e-05 0.000120536 -0.0194893 2.04133e-05 0.000119147
-0.0180144 1.62934e-05 0.000123061 -0.0187974 1.55038e-05 0.00012172
-0.0173325 1.10676e-05 0.000125064 -0.0180932 1.03242e-05 0.000123806
-0.0166376 5.79772e-06 0.000126536 -0.0173763 5.07485e-06 0.000125379
-0.015931 6.52979e-07 0.000127488 -0.0166477 -2.88375e-08 0.000126386
-0.0152138 -4.1948e-06 0.000127908 -0.0159076 -4.78489e-06 0.000126811
-0.0144866 -8.54421e-06 0.000127565 -0.0151565 -8.9856e-06 0.0001265
-0.0137494 -1.21832e-05 0.000125948 -0.014394 -1.23662e-05 0.000124773
-0.0130012 -1.4973e-05 0.000123045 -0.0136186 -1.48075e-05 0.000121842
-0.0122409 -1.67953e-05 0.000118867 -0.0128286 -1.6182e-05 0.000117657
-0.0114689 -1.76053e-05 0.000113472 -0.0120293 -1.6625e-05 0.000112262
-0.0106836 -1.73288e-05 0.000106934 -0.0112202 -1.57907e-05 0.000105623
-0.00988714 -1.58626e-05 9.92736e-05 -0.0103964 -1.37782e-05 9.78649e-05
-0.00907944 -1.32326e-05 9.05633e-05 -0.00956278 -1.04671e-05 8.90214e-05
-0.00826168 -9.39387e-06 8.08618e-05 -0.00871782 -5.90473e-06 7.92151e-05
-0.00743452 -4.39058e-06 7.02823e-05 -0.00786351 -9.97986e-08 6.85334e-05
-0.006599 1.7267e-06 5.89561e-05 -0.00700049 6.90195e-06 5.7073e-05
-0.00575645 8.89242e-06 4.70106e-05 -0.00613002 1.50172e-05 4.49696e-05
-0.00490838 1.70217e-05 3.45736e-05 -0.00525383 2.41557e-05 3.23563e-05
-0.00405681 2.60119e-05 2.17758e-05 -0.00437388 3.41999e-05 1.93899e-05
-0.00320411 3.57379e-05 8.76741e-06 -0.00349263 4.50231e-05 6.21969e-06
-0.00235252 4.59358e-05 -2.83952e-06 -0.00261237 5.63724e-05 -5.68264e-06
-0.0015019 5.61796e-05 -9.87023e-06 -0.00173215 6.74002e-05 -1.13891e-05
-0.000656784 6.6752e-05 -1.71628e-05 -0.000855984 7.93222e-05 -2.00709e-05
0.000185029 7.75543e-05 -2.41793e-05 1.21861e-05 9.134e-05 -2.74459e-05
0.00102167 8.85465e-05 -3.11508e-05 0.000880165 0.000103427 -3.47573e-05
0.00185373 9.95096e-05 -3.80221e-05 0.00174082 0.000115462 -4.15763e-05
0.00268006 0.000110327 -4.44599e-05 0.00259727 0.000127339 -4.79634e-05
0.00349963 0.000120826 -5.01977e-05 0.00344613 0.000138945 -5.39379e-05
0.00431123 0.000130927 -5.5234e-05 0.00428667 0.000150157 -5.94083e-05
0.00511362 0.000140558 -5.97101e-05 0.00511827 0.000160815 -6.42087e-05
0.00590613 0.00014962 -6.36704e-05 0.00593979 0.000170836 -6.82698e-05
0.00668804 0.000158023 -6.69929e-05 0.00675072 0.000180139 -7.15591e-05
0.00745877 0.000165688 -6.95029e-05 0.00755017 0.000188672 -7.41012e-05
0.0082178 0.000172569 -7.11276e-05 0.00833761 0.00019638 -7.58794e-05
0.0089649 0.000178644 -7.19164e-05 0.00911291 0.000203221 -7.68392e-05
0.00970021 0.000183899 -7.19003e-05 0.00987625 0.000209176 -7.69166e-05
0.0104241 0.000188281 -7.0578e-05 0.010628 0.000214191 -7.55636e-05
0.0111364 0.000191821 -6.78857e-05 0.0113683 0.000218281 -7.27963e-05
0.0118361 0.000194543 -6.37523e-05 0.0120956 0.000221528 -6.8701e-05
0.0125215 0.00019653 -5.8247e-05 0.0128085 0.000223982 -6.32838e-05
0.0131905 0.000197871 -5.14833e-05 0.0135048 0.000225733 -5.6569e-05
0.0138407 0.000198671 -4.35559e-05 0.014182 0.000226886 -4.86067e-05
0.01447 0.000199042 -3.4516e-05 0.014838 0.000227565 -3.94922e-05
0.0150765 0.000199107 -2.44123e-05 0.0154707 0.000227909 -2.93409e-05
0.0156584 0.000198974 -1.33414e-05 0.0160782 0.000228036 -1.8267e-05
0.0162144 0.000198653 -1.46108e-06 0.0166616 0.000227145 -6.52693e-06
0.0167402 0.000198653 8.91445e-06 0.0172182 0.000226602 5.57008e-06
0.0172335 0.000199201 1.65818e-05 0.0177373 0.00022698 1.2014e-05
0.0176946 0.000200124 2.45604e-05 0.0182225 0.000227457 2.10641e-05
0.0181193 0.00020157 3.28274e-05 0.0186749 0.000228248 2.97654e-05
0.0185068 0.000203417 4.16206e-05 0.0190851 0.000229772 3.8577e-05
0.018855 0.000205919 5.07239e-05 0.0194571 0.000231814 4.75224e-05
0.0191628 0.000209118 5.98133e-05 0.0197873 0.000234542 5.65352e-05
0.0194297 0.000213077 6.87083e-05 0.0200753 0.000237968 6.56499e-05
0.0196554 0.0002178 7.74791e-05 0.0203221 0.000242116 7.47899e-05
0.0198405 0.000223262 8.62702e-05 0.0205264 0.000247058 8.37834e-05
0.0199852 0.000229468 9.50747e-05 0.0206893 0.000252759 9.25936e-05
0.0200898 0.0002364 0.000103732 0.0208108 0.000259188 0.000101206
0.0201552 0.00024402 0.000112083 0.0208918 0.000266295 0.000109624
0.0201832 0.00025226 0.000120087 0.0209345 0.000274015 0.000117816
0.0201842 0.000261083 0.000127796 0.0209427 0.000282292 0.000125707
0.0201823 0.000270481 0.000135258 0.0209413 0.000291196 0.00013323
0.0201792 0.000280341 0.000142417 0.0209386 0.000300532 0.000140391
0.020175 0.000290471 0.000149189 0.0209347 0.000310202 0.000147164
0.0201697 0.000300714 0.000155523 0.0209298 0.000319995 0.000153567
0.0201636 0.000310895 0.000161428 0.0209238 0.000329755 0.000159573
0.0201565 0.000320825 0.000166944 0.0209168 0.000339292 0.00016515
0.0201487 0.000330304 0.000172076 0.020909 0.000348409 0.000170296
0.0201402 0.000339138 0.000176796 0.0209005 0.000356911 0.000175009
0.0201311 0.00034714 0.00018107 0.0208913 0.000364599 0.0001793
0.0201216 0.000354121 0.000184892 0.0208815 0.000371284 0.000183169
0.0201115 0.000359886 0.000188282 0.0208712 0.000376782 0.000186607
0.0201008 0.000364144 0.00019126 0.0208602 0.000380777 0.000189624
0.0200894 0.000366691 0.000193826 0.0208485 0.000383161 0.000192191
0.0200775 0.000367429 0.000195954 0.0208364 0.000383755 0.000194349
0.0200654 0.000366263 0.000197629 0.020824 0.000382484 0.000196062
0.0200534 0.000363081 0.000198847 0.0208117 0.000379202 0.000197322
0.020042 0.000357826 0.000199602 0.0208001 0.000373711 0.000198124
0.0200312 0.000350501 0.000199878 0.0207892 0.000366086 0.000198433
0.0200215 0.000341193 0.000199548 0.0207794 0.000356383 0.000198168
0.0200127 0.000330046 0.000198343 0.0207707 0.000344776 0.000196973
0.020005 0.000317232 0.000196222 0.020763 0.000331433 0.000194908
0.0199981 0.000302976 0.000193142 0.0207562 0.00031658 0.000191906
0.0199918 0.000287525 0.000189076 0.0207501 0.000300493 0.000187917
0.0199861 0.000271152 0.000183998 0.0207445 0.000283457 0.000182898
0.0199807 0.00025415 0.000177873 0.0207393 0.00026578 0.000176811
0.0199754 0.000236822 0.000170661 0.0207342 0.000247773 0.000169637
0.0199701 0.000219469 0.000162339 0.0207291 0.000229752 0.000161357
0.0199645 0.000202384 0.000152903 0.0207237 0.000212026 0.00015196
0.0199585 0.000185846 0.000142364 0.0207178 0.000194889 0.000141444
0.0199519 0.000170108 0.000130743 0.0207113 0.000178604 0.000129824
0.0199446 0.000155395 0.000118069 0.020704 0.000163404 0.000117134
0.0199364 0.000141889 0.000104384 0.0206959 0.000149479 0.000103426
0.0199275 0.000129733 8.97548e-05 0.0206869 0.000136979 8.87647e-05
0.0199176 0.000119029 7.42649e-05 0.0206769 0.000126009 7.32289e-05
0.0199069 0.000109836 5.80149e-05 0.0206659 0.00011663 5.69154e-05
0.0198952 0.000102172 4.11167e-05 0.020654 0.000108858 3.99384e-05
0.0198824 9.60097e-05 2.36949e-05 0.0206409 0.000102664 2.24276e-05
0.0198686 9.12808e-05 5.88835e-06 0.0206268 9.79737e-05 4.5256e-06
0.0198538 8.74927e-05 -8.45411e-06 0.0206114 9.44125e-05 -1.05875e-05
0.0198378 8.43215e-05 -1.62989e-05 0.0205951 9.05885e-05 -1.55929e-05
0.0198205 8.20746e-05 -2.44067e-05 0.0205773 8.90108e-05 -2.62083e-05
0.0198018 8.08743e-05 -3.24186e-05 0.020558 8.80944e-05 -3.4692e-05
0.0197814 8.05899e-05 -4.08013e-05 0.020537 8.79282e-05 -4.35477e-05
0.0197594 8.09063e-05 -4.94333e-05 0.0205143 8.84431e-05 -5.20371e-05
0.0197357 8.15741e-05 -5.77769e-05 0.02049 8.9253e-05 -6.0194e-05
0.0197106 8.22374e-05 -6.54142e-05 0.0204641 9.02656e-05 -6.82701e-05
0.0196843 8.27295e-05 -7.2432e-05 0.020437 9.11706e-05 -7.59786e-05
0.0195173 8.21679e-05 -7.90625e-05 0.0202362 9.18092e-05 -8.30677e-05
0.0190423 8.04223e-05 -8.56369e-05 0.0197437 9.04606e-05 -8.97946e-05
0.0185739 7.82653e-05 -9.17882e-05 0.0192683 8.88154e-05 -9.58315e-05
0.0181181 7.55158e-05 -9.72305e-05 0.0187869 8.59851e-05 -0.00010117
0.0176684 7.18273e-05 -0.000101893 0.0183094 8.24876e-05 -0.000106292
0.0172232 6.70663e-05 -0.000105948 0.0178432 7.77721e-05 -0.000110538
0.0167882 6.1266e-05 -0.000109503 0.0173879 7.20808e-05 -0.00011428
0.0163681 5.45607e-05 -0.000112552 0.0169461 6.52592e-05 -0.000117246
0.0159641 4.68657e-05 -0.000114964 0.0165211 5.73888e-05 -0.000119557
0.0155773 3.8173e-05 -0.000116642 0.0161154 4.85275e-05 -0.000121238
0.0152096 2.86217e-05 -0.000117623 0.01573 3.874e-05 -0.000122278
0.0148615 1.83333e-05 -0.000118007 0.0153644 2.81413e-05 -0.000122679
0.0145314 7.35139e-06 -0.000117415 0.0150178 1.67934e-05 -0.000121965
0.014217 -4.19074e-06 -0.000115659 0.0146888 4.78671e-06 -0.000119946
0.0139156 -1.61242e-05 -0.000112712 0.0143735 -7.63293e-06 -0.000116863
0.0136235 -2.82472e-05 -0.000108668 0.014068 -2.02978e-05 -0.000112759
0.0133358 -4.03703e-05 -0.000103671 0.0137677 -3.30004e-05 -0.000107707
0.0130472 -5.22819e-05 -9.78673e-05 0.0134671 -4.55341e-05 -0.000101783
0.0127517 -6.37616e-05 -9.13547e-05 0.01316 -5.76867e-05 -9.5099e-05
0.0124434 -7.46102e-05 -8.42016e-05 0.01284 -6.92398e-05 -8.77923e-05
0.0121165 -8.46432e-05 -7.64976e-05 0.0125012 -7.99927e-05 -7.99901e-05
0.011766 -9.36768e-05 -6.83687e-05 0.0121385 -8.97577e-05 -7.17954e-05
0.0113874 -0.000101538 -5.99506e-05 0.0117471 -9.83e-05 -6.32943e-05
0.0109769 -0.000108096 -5.13557e-05 0.0113225 -0.000105498 -5.45979e-05
0.0105311 -0.000113254 -4.26739e-05 0.0108617 -0.000111247 -4.58058e-05
0.0100482 -0.000116953 -3.39805e-05 0.0103627 -0.000115477 -3.7031e-05
0.00952854 -0.000119165 -2.53614e-05 0.00982552 -0.000118161 -2.83577e-05
0.00897372 -0.000119901 -1.69059e-05 0.00925202 -0.000119311 -1.98585e-05
0.00838657 -0.000119209 -8.69247e-06 0.00864506 -0.000118975 -1.1596e-05
0.00777064 -0.000117169 -7.76636e-07 0.00800829 -0.000117239 -3.62873e-06
0.00712939 -0.000113609 4.39741e-06 0.00734581 -0.000114101 2.63943e-06
0.00646798 -0.000109044 8.9375e-06 0.00666095 -0.000109467 6.28972e-06
0.00579087 -0.00010347 1.29543e-05 0.00596047 -0.000104226 1.10576e-05
0.00510257 -9.72816e-05 1.69015e-05 0.00524926 -9.81019e-05 1.50295e-05
0.00440748 -9.06578e-05 2.07742e-05 0.00453061 -9.14918e-05 1.88847e-05
0.00370886 -8.37921e-05 2.44529e-05 0.00380885 -8.46401e-05 2.24325e-05
0.00301021 -7.69101e-05 2.77986e-05 0.00308649 -7.77863e-05 2.57507e-05
0.00231454 -7.02409e-05 3.07924e-05 0.00236696 -7.12045e-05 2.88817e-05
0.00162549 -6.40392e-05 3.35445e-05 0.00165336 -6.51066e-05 3.17746e-05
