-4.30419e-05 3.89998e-05 -5.17235e-05 4.62614e-05 -3.60068e-06 2.83313e-06
-4.33837e-05 3.86783e-05 -5.16855e-05 4.63018e-05 -3.60572e-06 2.82822e-06
-4.41666e-05 3.79433e-05 -5.16013e-05 4.63824e-05 -3.61418e-06 2.81955e-06
-4.57835e-05 3.64278e-05 -5.14429e-05 4.65314e-05 -3.62439e-06 2.80661e-06
-4.762e-05 3.47051e-05 -5.12935e-05 4.66701e-05 -3.6279e-06 2.80063e-06
-4.99831e-05 3.24887e-05 -5.11458e-05 4.68105e-05 -3.62161e-06 2.80308e-06
-5.29133e-05 2.97405e-05 -5.10221e-05 4.69304e-05 -3.59852e-06 2.81976e-06
-5.64539e-05 2.64207e-05 -5.09486e-05 4.70033e-05 -3.55116e-06 2.85678e-06
-6.06534e-05 2.24837e-05 -5.09569e-05 4.70005e-05 -3.47268e-06 2.92084e-06
-6.55636e-05 1.7882e-05 -5.10832e-05 4.689e-05 -3.35681e-06 3.01827e-06
-7.12314e-05 1.25719e-05 -5.13663e-05 4.66365e-05 -3.19728e-06 3.15479e-06
-7.76834e-05 6.5295e-06 -5.18493e-05 4.61993e-05 -2.98832e-06 3.33537e-06
-8.49054e-05 -3.40584e-07 -5.25808e-05 4.55354e-05 -2.72572e-06 3.56373e-06
-9.28155e-05 -8.60179e-06 -5.36093e-05 4.4592e-05 -2.40923e-06 3.84119e-06
-0.000101301 -1.74204e-05 -5.50042e-05 4.33244e-05 -2.03668e-06 4.16919e-06
-0.00011018 -2.66084e-05 -5.68299e-05 4.16569e-05 -1.61214e-06 4.54502e-06
-0.000119203 -3.5942e-05 -5.91459e-05 3.95328e-05 -1.14431e-06 4.96451e-06
-0.000128098 -4.51465e-05 -6.20018e-05 3.69091e-05 -6.48042e-07 5.41712e-06
-0.00013659 -5.39285e-05 -6.54331e-05 3.37565e-05 -1.45538e-07 5.88185e-06
-0.00014441 -6.20027e-05 -6.94533e-05 3.00622e-05 2.80494e-07 6.33173e-06
-0.000151286 -6.90894e-05 -7.40534e-05 2.58339e-05 6.32461e-07 6.73272e-06
-0.000156923 -7.48818e-05 -7.92022e-05 2.10986e-05 8.89835e-07 7.04602e-06
-0.000160974 -7.90214e-05 -8.48493e-05 1.59023e-05 1.00852e-06 7.22568e-06
-0.000163027 -8.10786e-05 -9.09235e-05 1.03093e-05 9.38559e-07 7.21993e-06
-0.000162599 -8.05563e-05 -9.73384e-05 4.40665e-06 6.25658e-07 6.97346e-06
-0.000159188 -7.69287e-05 -0.000103967 -2.00585e-06 1.2292e-08 6.43726e-06
-0.000152392 -6.97931e-05 -0.000110647 -8.85511e-06 -1.12455e-06 5.53695e-06
-0.000142075 -5.90069e-05 -0.000117174 -1.5519e-05 -2.76409e-06 4.20895e-06
-0.000128491 -4.48382e-05 -0.00012326 -2.17207e-05 -4.98454e-06 2.37433e-06
-0.000112248 -2.79127e-05 -0.000128564 -2.71129e-05 -7.85399e-06 -9.24023e-08
-9.41114e-05 -9.02088e-06 -0.000132727 -3.13395e-05 -1.14168e-05 -3.65885e-06
-7.47932e-05 9.57578e-06 -0.000135411 -3.40224e-05 -1.57163e-05 -7.99511e-06
-5.49846e-05 2.82657e-05 -0.000136346 -3.49435e-05 -2.07569e-05 -1.30909e-05
-3.52484e-05 4.67366e-05 -0.000135339 -3.38846e-05 -2.65062e-05 -1.89159e-05
-1.59819e-05 6.47389e-05 -0.000132274 -3.0698e-05 -3.28908e-05 -2.54027e-05
2.30889e-06 8.21303e-05 -0.000127117 -2.53647e-05 -3.97958e-05 -3.24538e-05
1.83888e-05 9.88514e-05 -0.000119893 -1.79363e-05 -4.70805e-05 -3.99218e-05
3.38699e-05 0.000114858 -0.000110775 -8.57771e-06 -5.45469e-05 -4.76104e-05
4.87617e-05 0.000130198 -9.99494e-05 2.37693e-06 -6.19964e-05 -5.5295e-05
6.31074e-05 0.000144938 -8.7633e-05 1.36898e-05 -6.91848e-05 -6.27486e-05
7.69099e-05 0.00015913 -7.41491e-05 2.61124e-05 -7.58795e-05 -6.9685e-05
9.01561e-05 0.000172724 -5.98037e-05 3.93379e-05 -8.18296e-05 -7.58802e-05
0.000102713 0.000185577 -4.49077e-05 5.30805e-05 -8.67945e-05 -8.10874e-05
0.000114302 0.000197423 -2.97602e-05 6.70498e-05 -9.05423e-05 -8.50731e-05
0.000124584 0.000207922 -1.46488e-05 8.097e-05 -9.28579e-05 -8.7612e-05
0.000133311 0.000216816 4.4788e-08 9.45694e-05 -9.35496e-05 -8.85001e-05
0.000140491 0.000224103 1.28282e-05 0.000107591 -9.24172e-05 -8.75459e-05
0.000146388 0.000230083 2.47285e-05 0.000119713 -8.93895e-05 -8.4635e-05
0.000151612 0.000235377 3.54853e-05 0.000130636 -8.43423e-05 -7.96604e-05
0.000157033 0.000240895 4.48418e-05 0.000140079 -7.72251e-05 -7.25721e-05
0.0001658 0.000249901 5.42169e-05 0.00014946 -6.54401e-05 -6.07466e-05
0.000179104 0.000263663 6.07457e-05 0.000155907 -5.05963e-05 -4.57667e-05
0.00019928 0.000284606 6.44311e-05 0.000159411 -3.29955e-05 -2.79375e-05
0.000228028 0.000314503 6.56364e-05 0.000160338 -1.31049e-05 -7.7456e-06
0.000266115 0.000354148 6.51185e-05 0.000159463 7.23308e-06 1.17601e-05
0.000313203 0.000403185 6.39841e-05 0.000157976 2.64524e-05 3.10939e-05
0.000367769 0.000460016 6.36491e-05 0.000157301 4.56656e-05 5.08147e-05
0.000427245 0.000521962 6.57421e-05 0.000159089 6.42495e-05 6.96767e-05
0.000488647 0.000585893 7.1867e-05 0.000165038 8.15069e-05 8.71817e-05
0.000549438 0.000649156 8.33838e-05 0.000176495 9.68771e-05 0.000102698
0.000608034 0.000710062 0.000101253 0.000194491 0.000109956 0.000115807
0.000663774 0.000767909 0.000125961 0.000219488 0.00012057 0.00012635
0.000716635 0.000822653 0.000157521 0.000251532 0.00012874 0.000134285
0.000766967 0.00087466 0.000195518 0.000290183 0.000134678 0.000139888
0.000815177 0.000924357 0.000239173 0.000334648 0.000138776 0.000143542
0.000861376 0.000971875 0.000287435 0.000383845 0.000141583 0.00014584
0.000905377 0.00101705 0.000339041 0.000436475 0.000143766 0.000147451
0.000947098 0.00105981 0.000392541 0.000491041 0.000146067 0.000149155
0.000986901 0.00110057 0.000446329 0.000545887 0.000149258 0.000151759
0.00102557 0.00114015 0.000498738 0.000599305 0.000154097 0.000156058
0.00106395 0.00117947 0.000548191 0.000649676 0.000161271 0.000162766
0.00110242 0.00121895 0.000593351 0.000695631 0.000171338 0.000172463
0.00114064 0.00125826 0.00063323 0.000736155 0.000184684 0.000185557
0.00117785 0.00129662 0.000667192 0.000770588 0.000201504 0.000202255
0.00121333 0.00133331 0.000694911 0.000798596 0.000221798 0.000222559
0.00124652 0.00136772 0.000716354 0.000820151 0.000245366 0.000246265
0.00127705 0.00139948 0.000731773 0.000835515 0.000271819 0.000272972
0.00130479 0.00142843 0.000741669 0.000845207 0.000300593 0.000302104
0.00132982 0.00145464 0.000746757 0.000849967 0.000330979 0.000332931
0.00135239 0.00147835 0.000747922 0.000850711 0.000362154 0.000364607
0.0013728 0.00149987 0.000746179 0.000848489 0.000393219 0.000396205
0.00139143 0.00151954 0.000742619 0.000844428 0.000423238 0.00042676
0.00140874 0.00153786 0.000738334 0.00083965 0.000451285 0.00045532
0.00142548 0.00155557 0.000734338 0.000835205 0.00047649 0.000480989
0.00144263 0.00157367 0.000731526 0.000832015 0.000498073 0.000502964
0.00146112 0.00159312 0.000730658 0.000830869 0.000515377 0.00052057
0.00148138 0.00161435 0.000732388 0.000832447 0.000527892 0.000533279
0.00150291 0.00163683 0.00073728 0.000837333 0.000535268 0.000540729
0.00152429 0.00165909 0.000745768 0.000845972 0.000537343 0.000542749
0.0015436 0.00167911 0.000758058 0.00085857 0.00053416 0.000539378
0.00155623 0.00169214 0.000770565 0.000871434 0.000527995 0.000532969
0.00156703 0.00170317 0.00078917 0.00089061 0.000516147 0.000520709
0.00157111 0.0017071 0.000810321 0.000912448 0.000500302 0.000504352
0.00156764 0.00170311 0.000832867 0.000935761 0.000481274 0.000484736
0.00155609 0.00169065 0.000855386 0.00095909 0.000460004 0.000462837
0.00153588 0.00166914 0.000876294 0.000980803 0.000437512 0.00043971
0.00150651 0.00163811 0.000893918 0.000999175 0.000414841 0.000416433
0.00146752 0.00159709 0.000906586 0.00101248 0.000392999 0.000394051
0.00141843 0.00154562 0.000912715 0.0010191 0.000372903 0.000373515
0.00135886 0.00148333 0.000910888 0.00101757 0.000355331 0.000355633
0.00128856 0.00141 0.00089991 0.00100666 0.000340876 0.000341022
0.00120741 0.00132551 0.000878874 0.000985436 0.000329914 0.000330075
0.00111549 0.00122999 0.00084719 0.000953296 0.000322575 0.000322932
0.00101353 0.00112419 0.000804569 0.00090994 0.000318743 0.000319479
0.000903145 0.0010098 0.000751004 0.000855362 0.000318051 0.000319343
0.000786701 0.000889293 0.000686803 0.00078989 0.000319883 0.000321901
0.000666602 0.000765155 0.000612682 0.000714275 0.000323389 0.000326278
0.00054497 0.000639586 0.000529794 0.000629706 0.000327508 0.000331386
0.000423765 0.000514607 0.000439666 0.000537754 0.000331016 0.000335964
0.000304849 0.000392128 0.000344121 0.000440297 0.000332583 0.000338639
0.000189931 0.000273889 0.000245201 0.000339445 0.000330835 0.000337994
8.03941e-05 0.000161292 0.000145104 0.00023746 0.000324423 0.000332629
-2.70985e-05 5.52341e-05 4.61535e-05 0.000136708 0.000312085 0.000321239
-0.000134309 -5.06247e-05 -5.52634e-05 3.98998e-05 0.000292845 0.0003027
-0.000235331 -0.000153563 -0.000154701 -5.73691e-05 0.000265706 0.000276331
-0.000330908 -0.000252055 -0.000246237 -0.000149089 0.000230199 0.000241025
-0.000421435 -0.000344741 -0.000328299 -0.000232347 0.000186107 0.000197246
-0.00050593 -0.000431615 -0.000400392 -0.000304985 0.00013357 0.000144537
-0.000583212 -0.000511112 -0.000462387 -0.000367031 7.3111e-05 8.37874e-05
-0.000652677 -0.000582626 -0.000514529 -0.00041909 5.70791e-06 1.58921e-05
-0.000714825 -0.000646714 -0.000557297 -0.000461562 -7.97298e-05 -6.74851e-05
-0.000771263 -0.000705002 -0.000591877 -0.000495497 -0.000170374 -0.000159277
-0.000824214 -0.000759777 -0.000619421 -0.000522117 -0.000264075 -0.000254158
-0.00087588 -0.000813244 -0.000641406 -0.000543294 -0.000358546 -0.000349425
-0.000928519 -0.000867809 -0.000659616 -0.000560489 -0.000451546 -0.000443941
-0.00098458 -0.000925897 -0.000675913 -0.000575786 -0.000540892 -0.000534236
-0.00104657 -0.00099011 -0.000692149 -0.00059109 -0.000624257 -0.000618637
-0.00111682 -0.00106282 -0.00071015 -0.000608264 -0.000699522 -0.00069485
-0.00119709 -0.00114581 -0.000731701 -0.000629198 -0.000764839 -0.000760896
-0.00128811 -0.00123979 -0.000758478 -0.000655561 -0.000818688 -0.000815288
-0.00138914 -0.00134399 -0.000791986 -0.000688952 -0.000859872 -0.000856682
-0.00149805 -0.0014562 -0.000833486 -0.000730669 -0.000887597 -0.000884352
-0.00161197 -0.00157341 -0.000883816 -0.000781549 -0.000901584 -0.000897996
-0.00172793 -0.00169257 -0.000943206 -0.000841831 -0.000902097 -0.000897837
-0.00184331 -0.00181095 -0.00101119 -0.000911033 -0.000889921 -0.000884684
-0.00195605 -0.00192646 -0.00108658 -0.000987942 -0.000866339 -0.000859853
-0.00206469 -0.00203759 -0.00116755 -0.00107066 -0.00083309 -0.000825147
-0.00216826 -0.00214339 -0.0012517 -0.0011567 -0.000792295 -0.000782745
-0.00226627 -0.00224341 -0.0013362 -0.00124318 -0.000746348 -0.000735101
-0.00235848 -0.00233744 -0.00141803 -0.00132698 -0.000697784 -0.000684828
-0.00244457 -0.00242519 -0.00149414 -0.00140496 -0.000649148 -0.000634559
-0.00252397 -0.00250612 -0.00156171 -0.00147421 -0.000602883 -0.000586808
-0.00259598 -0.00257957 -0.00161823 -0.00153216 -0.00056121 -0.000543856
-0.00265993 -0.00264488 -0.00166168 -0.00157672 -0.000526024 -0.000507649
-0.0027033 -0.00269953 -0.00169037 -0.00160614 -0.000498878 -0.000479778
-0.00270336 -0.00273718 -0.00169616 -0.00161687 -0.000482185 -0.000461858
-0.00269828 -0.00276801 -0.00168755 -0.00161246 -0.000474382 -0.000453365
-0.0027063 -0.00278947 -0.00166971 -0.00159506 -0.000474866 -0.000454078
-0.00271131 -0.00280334 -0.00163915 -0.00156439 -0.000483999 -0.00046359
-0.0027062 -0.00278674 -0.00159697 -0.00152533 -0.000500911 -0.000480486
-0.00264683 -0.00273458 -0.00155353 -0.00148004 -0.000523069 -0.000503613
-0.00258293 -0.00266788 -0.00150235 -0.00142755 -0.000550632 -0.00053216
-0.00250957 -0.00259622 -0.00144338 -0.00136838 -0.000581877 -0.000564399
-0.00243194 -0.00251809 -0.00138029 -0.00130475 -0.000615103 -0.000598786
-0.00235259 -0.00243867 -0.00131538 -0.00123894 -0.000648443 -0.0006331
-0.00227363 -0.00236006 -0.00125 -0.00117277 -0.000680001 -0.000665855
-0.0021987 -0.00228557 -0.00118641 -0.00110867 -0.000707957 -0.000694884
-0.00213054 -0.00221762 -0.00112675 -0.00104847 -0.00073072 -0.000718519
-0.00207133 -0.00215904 -0.00107275 -0.000993985 -0.000746812 -0.000735339
-0.00202357 -0.00211195 -0.001026 -0.000946854 -0.000754918 -0.000744034
-0.00198908 -0.00207826 -0.00098774 -0.000908437 -0.000754167 -0.000743726
-0.00196904 -0.00205932 -0.000958956 -0.000879677 -0.000744107 -0.000733804
-0.00196423 -0.00205581 -0.00094036 -0.000861225 -0.000724564 -0.000714133
-0.00197476 -0.0020678 -0.000932191 -0.000853378 -0.000695724 -0.000684979
-0.00200007 -0.00209474 -0.000934344 -0.000856063 -0.000658229 -0.000646969
-0.00203772 -0.00213324 -0.000946523 -0.000869067 -0.000613125 -0.000601093
-0.00207536 -0.00217209 -0.000969359 -0.000893011 -0.000561577 -0.000548505
-0.00211043 -0.00220769 -0.00100152 -0.000926437 -0.000505342 -0.000491079
-0.00214111 -0.0022387 -0.00104109 -0.000967439 -0.000446438 -0.000430825
-0.00216627 -0.00226392 -0.00108557 -0.00101351 -0.000387118 -0.000370102
-0.002182 -0.00227953 -0.00112289 -0.00105214 -0.000340969 -0.000322803
-0.00219359 -0.00229084 -0.00116016 -0.00109067 -0.000297299 -0.000277999
-0.0022008 -0.00229765 -0.0011959 -0.00112758 -0.000257267 -0.00023691
-0.00220341 -0.00229975 -0.00122867 -0.00116143 -0.000221958 -0.00020066
-0.00220119 -0.00229694 -0.00125716 -0.00119086 -0.000192355 -0.000170256
-0.0021939 -0.00228898 -0.00128024 -0.0012147 -0.0001693 -0.000146552
-0.00218124 -0.00227557 -0.00129694 -0.00123196 -0.000153449 -0.000130227
-0.00216273 -0.00225625 -0.00130658 -0.00124193 -0.000145254 -0.000121757
-0.00213765 -0.00223027 -0.0013087 -0.00124418 -0.000144956 -0.000121401
-0.0021051 -0.00219672 -0.00130316 -0.00123853 -0.00015259 -0.000129188
-0.00206403 -0.00215451 -0.00129006 -0.00122511 -0.000167977 -0.000144927
-0.0020135 -0.00210267 -0.00126973 -0.00120423 -0.000190727 -0.000168216
-0.00195297 -0.00204063 -0.00124262 -0.00117639 -0.000220263 -0.000198468
-0.00188244 -0.00196839 -0.00120933 -0.00114218 -0.000255836 -0.000234922
-0.00180258 -0.00188661 -0.00117049 -0.00110226 -0.000296559 -0.000276666
-0.00171457 -0.00179649 -0.00112682 -0.00105738 -0.000341419 -0.000322663
-0.00161987 -0.00169951 -0.00107911 -0.00100835 -0.000389297 -0.000371766
-0.0015199 -0.00159712 -0.00102821 -0.000956066 -0.000438989 -0.000422746
-0.00141593 -0.00149061 -0.000975079 -0.000901502 -0.000489235 -0.000474315
-0.00130909 -0.00138115 -0.000920687 -0.00084567 -0.000538753 -0.000525162
-0.00120051 -0.00126986 -0.000866012 -0.000789571 -0.000586273 -0.000573984
-0.00109129 -0.00115788 -0.000811977 -0.000734161 -0.000630563 -0.00061952
-0.000982522 -0.00104632 -0.000759434 -0.000680326 -0.000670461 -0.000660582
-0.000875182 -0.00093616 -0.000709145 -0.000628857 -0.000704903 -0.00069608
-0.000770088 -0.000828242 -0.000661766 -0.00058043 -0.000732945 -0.000725051
-0.000667928 -0.000723267 -0.000617813 -0.000535582 -0.000753789 -0.000746678
-0.000569294 -0.000621839 -0.000577649 -0.000494687 -0.000766798 -0.000760309
-0.000474698 -0.000524486 -0.000541462 -0.000457944 -0.000771511 -0.000765476
-0.000384563 -0.000431641 -0.000509266 -0.000425372 -0.000767648 -0.000761895
-0.00029922 -0.000343653 -0.000480903 -0.000396809 -0.000755119 -0.000749477
-0.000218902 -0.000260766 -0.000456049 -0.000371923 -0.000734017 -0.000728321
-0.000143733 -0.000183121 -0.000434228 -0.000350226 -0.000704612 -0.000698707
-7.37486e-05 -0.000110766 -0.000414832 -0.00033109 -0.00066734 -0.000661086
-8.9173e-06 -4.36571e-05 -0.000397136 -0.000313763 -0.000622787 -0.000616064
3.67104e-05 -1.29283e-06 -0.000380188 -0.00029516 -0.00057162 -0.000564657
5.77825e-05 2.62284e-05 -0.000360193 -0.000275461 -0.000515289 -0.000507706
7.82918e-05 5.07416e-05 -0.000339725 -0.000255264 -0.000453602 -0.000445593
9.69161e-05 7.00265e-05 -0.000318663 -0.000235214 -0.000387845 -0.00037922
0.000113185 8.68656e-05 -0.000296897 -0.000213304 -0.000318932 -0.00030952
0.000128556 0.000103568 -0.000273374 -0.000189616 -0.000247754 -0.000237639
0.000144439 0.000120807 -0.000247435 -0.000163864 -0.000175268 -0.000164549
0.000161719 0.000139252 -0.000218947 -0.000135637 -0.000102451 -9.11758e-05
0.000181429 0.000160302 -0.000187752 -0.000104441 -3.02683e-05 -1.84129e-05
0.00020476 0.000185297 -0.000153341 -6.98335e-05 3.29379e-05 4.42444e-05
0.00023263 0.000215159 -0.000115552 -3.17619e-05 9.13398e-05 0.000103581
0.000265568 0.000250502 -7.41136e-05 9.41002e-06 0.000147051 0.00015984
0.000304028 0.000291775 -2.88396e-05 5.03444e-05 0.000199599 0.000212486
0.000348259 0.000339288 1.79408e-05 9.51246e-05 0.000248446 0.000261398
0.000398313 0.000393029 6.57224e-05 0.000143656 0.000293201 0.000306192
0.000454043 0.000452881 0.000116792 0.000195752 0.000333455 0.000346474
0.000515302 0.000518693 0.000171109 0.000251182 0.000369029 0.000381951
0.000581887 0.000590253 0.000228428 0.000309664 0.000399849 0.000412511
0.000653508 0.00066726 0.000288331 0.000370869 0.000425908 0.000438182
0.000729769 0.000749283 0.000350361 0.000434385 0.000447294 0.000459096
0.000810117 0.000835723 0.000414067 0.000499707 0.000464201 0.000475459
0.000893796 0.000925778 0.00047896 0.000566276 0.000476912 0.00048755
0.000979868 0.00101844 0.000544476 0.000633512 0.000485778 0.000495726
0.00106725 0.00111255 0.000610002 0.00070082 0.000491212 0.000500415
0.0011548 0.00120685 0.000674913 0.000767562 0.000493686 0.000502103
0.0012413 0.00130005 0.000738588 0.00083307 0.000493716 0.000501322
0.00132553 0.00139082 0.000800392 0.000896664 0.000491841 0.00049863
0.00140628 0.00147786 0.000859675 0.000957671 0.000488608 0.000494596
0.00148242 0.00155993 0.000915783 0.00101542 0.000484566 0.000489787
0.00155291 0.00163592 0.000968082 0.00106927 0.000480258 0.000484755
0.00161686 0.00170486 0.00101597 0.00111857 0.000476196 0.000480026
0.00167355 0.00176596 0.00105888 0.00116274 0.00047285 0.000476082
0.00172242 0.00181865 0.00109628 0.00120122 0.000470629 0.000473354
0.00176316 0.00186257 0.0011277 0.00123354 0.000469878 0.000472197
0.00179566 0.00189762 0.00115275 0.00125929 0.00047087 0.000472892
0.00182001 0.00192389 0.00117112 0.00127817 0.000473795 0.000475629
0.00183643 0.00194164 0.00118262 0.00128996 0.000478745 0.000480505
0.00184526 0.00195124 0.00118717 0.00129461 0.000485715 0.000487516
0.00184695 0.00195322 0.00118481 0.00129216 0.000494601 0.000496559
0.00184195 0.00194821 0.00117567 0.00128278 0.000505218 0.000507436
0.00183101 0.00193712 0.00116003 0.00126676 0.000517276 0.000519849
0.00181509 0.00192092 0.00113831 0.00124454 0.000530403 0.000533412
0.00179526 0.00190069 0.00111108 0.0012167 0.000544144 0.000547662
0.00177252 0.00187749 0.00107899 0.0011839 0.000557986 0.000562069
0.00174786 0.00185236 0.0010428 0.00114695 0.000571366 0.000576051
0.00172222 0.00182625 0.00100338 0.00110673 0.000583686 0.000588994
0.00169645 0.00180003 0.000961651 0.00106418 0.000594337 0.000600266
0.00167138 0.00177458 0.000918582 0.00102029 0.000602713 0.000609245
0.00164786 0.00175075 0.000875136 0.000976055 0.000608237 0.000615333
0.0016267 0.00172937 0.00083226 0.000932436 0.000610377 0.000617979
0.00160866 0.00171123 0.000790859 0.000890362 0.000608665 0.000616698
0.00159443 0.00169702 0.000751777 0.000850696 0.000602711 0.000611084
0.00158455 0.00168731 0.000715777 0.000814216 0.00059222 0.000600832
0.00157948 0.00168256 0.000683524 0.0007816 0.000577005 0.000585742
0.00157957 0.00168314 0.000655563 0.000753403 0.000556994 0.000565736
0.00158512 0.00168934 0.000632305 0.000730043 0.000532237 0.00054086
0.00159639 0.00170144 0.000614018 0.000711791 0.000502912 0.00051129
0.0016134 0.00171744 0.000600855 0.000699008 0.000469317 0.000477305
0.0016356 0.00173594 0.000592828 0.000692172 0.000431889 0.000439186
0.00166345 0.00176164 0.00058969 0.000690065 0.000391162 0.000397802
0.00169698 0.0017938 0.00059132 0.000692671 0.000347758 0.00035358
0.00173355 0.00183111 0.000597439 0.000699631 0.00030236 0.000307437
0.00177307 0.00187276 0.000607653 0.000710597 0.00025579 0.000260063
0.00181621 0.00191803 0.000621321 0.00072501 0.000208928 0.000212322
0.00186126 0.00196467 0.000637887 0.000742512 0.000162636 0.000165099
0.00190232 0.00200925 0.000656753 0.000762495 0.000117812 0.00011932
0.0019406 0.00205067 0.000677681 0.000784649 7.52725e-05 7.58798e-05
0.00197469 0.0020872 0.00070012 0.000808219 3.59295e-05 3.56616e-05
0.00200296 0.00211731 0.000723401 0.000832552 6.32759e-07 -4.65284e-07
0.00202365 0.0021394 0.00074682 0.000856933 -3.49555e-05 -3.67401e-05
0.00203548 0.00215195 0.000769583 0.000880638 -6.41562e-05 -6.66255e-05
0.00203745 0.00215368 0.000791096 0.000902909 -8.6167e-05 -8.93314e-05
0.00202841 0.00214384 0.000810532 0.000922955 -0.000100283 -0.000104065
0.00200797 0.00212226 0.000827045 0.000939955 -0.000105994 -0.000110246
0.00197636 0.00208912 0.000839917 0.000953156 -0.000102999 -0.000107487
0.00193407 0.00204485 0.000848526 0.000961892 -9.11569e-05 -9.56184e-05
0.00188165 0.00199008 0.000852317 0.000965605 -7.04714e-05 -7.46827e-05
0.00181982 0.00192563 0.000850861 0.000963871 -4.11275e-05 -4.49182e-05
0.00174956 0.00185248 0.000843892 0.000956419 -3.57065e-06 -6.74355e-06
0.00167199 0.00177179 0.000831376 0.000943161 3.51876e-05 3.29818e-05
0.00158846 0.00168499 0.000813198 0.000924127 7.97218e-05 7.83263e-05
0.00150049 0.00159367 0.000789607 0.000899503 0.000129232 0.000128619
0.00140966 0.00149946 0.000760963 0.000869673 0.0001828 0.000183199
0.00131743 0.00140385 0.000727798 0.000835167 0.000239364 0.00024101
0.00122501 0.00130815 0.000690814 0.000796727 0.000297731 0.000300745
0.00113349 0.00121344 0.000650864 0.000755251 0.000356622 0.000361024
0.00104381 0.0011207 0.000608919 0.000711753 0.000414738 0.000420507
0.000956766 0.00103072 0.000566016 0.000667307 0.000470791 0.000477892
0.000872986 0.000944148 0.000523217 0.000623016 0.000523516 0.000531896
0.000792975 0.00086149 0.000481572 0.000579966 0.000571691 0.000581273
0.000717183 0.000783195 0.000442072 0.000539179 0.000614177 0.000624855
0.000646046 0.000709698 0.000405604 0.000501568 0.000649958 0.000661599
0.000579971 0.000641405 0.000372912 0.000467906 0.000678174 0.000690617
0.000519254 0.000578609 0.000344579 0.000438801 0.000698137 0.000711196
0.000464014 0.000521427 0.000321016 0.000414682 0.000709338 0.000722813
0.000414192 0.00046979 0.00030245 0.000395781 0.000711459 0.000725146
0.000369581 0.000423482 0.000288905 0.000382121 0.000704383 0.000718084
0.000329854 0.000382161 0.000280194 0.000373509 0.000688201 0.000701722
0.000294563 0.000345368 0.000275924 0.000369542 0.000663211 0.000676361
0.000263151 0.000312529 0.000275509 0.000369618 0.000629901 0.0006425
0.000234938 0.000282949 0.000278189 0.000372954 0.000588932 0.000600821
0.000209104 0.000255788 0.000283059 0.000378615 0.000541121 0.000552165
0.000184677 0.000230054 0.000289099 0.000385549 0.000487416 0.00049751
0.000160533 0.000204596 0.000295204 0.000392617 0.000428871 0.000437942
0.000135425 0.000178137 0.00030022 0.000398627 0.000366623 0.000374623
0.000127286 0.000173331 0.000301221 0.000398388 0.000301954 0.000309348
0.00012263 0.000167868 0.000297525 0.00039627 0.000236083 0.000242365
0.000113483 0.000160328 0.000289643 0.000388999 0.000169898 0.000175254
9.94525e-05 0.000147002 0.000277254 0.000376864 0.000104473 0.000108811
7.97106e-05 0.000125909 0.000259639 0.000358888 4.07327e-05 4.45213e-05
5.30638e-05 9.80697e-05 0.000235772 0.000334984 -2.53912e-05 -1.83229e-05
1.91678e-05 6.34687e-05 0.000205195 0.000304377 -9.27961e-05 -8.68452e-05
-2.36014e-05 2.14946e-05 0.000167643 0.000266672 -0.000155478 -0.0001503
-7.50495e-05 -3.05376e-05 0.000123401 0.000221822 -0.000212701 -0.000207922
-0.000133891 -9.33263e-05 7.20806e-05 0.000169544 -0.000263902 -0.000259135
-0.000200116 -0.000163296 1.36536e-05 0.000110069 -0.000308855 -0.000303819
-0.000273044 -0.000240462 -5.82711e-05 4.38488e-05 -0.000347331 -0.000341839
-0.00035215 -0.000324284 -0.000137117 -3.22326e-05 -0.000379674 -0.000373318
-0.000436598 -0.000413936 -0.000221776 -0.000118761 -0.00040586 -0.000398702
-0.000525581 -0.000508235 -0.000311455 -0.000210202 -0.000426339 -0.000418311
-0.000617883 -0.000606041 -0.000405147 -0.000305725 -0.000441743 -0.000432812
-0.000712178 -0.000705973 -0.000501707 -0.000404095 -0.000452798 -0.000442855
-0.000806852 -0.000805956 -0.000599807 -0.000504091 -0.000460261 -0.000449181
-0.0008994 -0.000903737 -0.000698179 -0.000604463 -0.000464915 -0.000452626
-0.000989055 -0.000998352 -0.000795283 -0.000703598 -0.000467684 -0.000454167
-0.00107519 -0.00108919 -0.000889592 -0.000799848 -0.000469522 -0.00045478
-0.00115748 -0.00117596 -0.000979535 -0.000891595 -0.000471354 -0.000455442
-0.00123589 -0.00125864 -0.00106356 -0.000977282 -0.000474048 -0.000457057
-0.00131053 -0.00133735 -0.00114025 -0.00105548 -0.00047838 -0.000460447
-0.00138148 -0.00141221 -0.0012084 -0.00112495 -0.000485026 -0.000466306
-0.00144876 -0.00148325 -0.00126707 -0.00118467 -0.000494522 -0.000475184
-0.00150887 -0.00154909 -0.00131575 -0.00123406 -0.000507234 -0.00048746
-0.00155673 -0.00159942 -0.00135524 -0.00127442 -0.000523112 -0.000503072
-0.00159762 -0.00164176 -0.00138426 -0.00130361 -0.000542528 -0.000522436
-0.00163104 -0.00167706 -0.00140265 -0.00132249 -0.000565333 -0.000545172
-0.00165719 -0.00170471 -0.00141081 -0.00133076 -0.000591122 -0.000571196
-0.0016761 -0.00172461 -0.00140917 -0.00132908 -0.000619531 -0.000599945
-0.00168799 -0.001737 -0.00139843 -0.00131809 -0.000649995 -0.000630935
-0.00169348 -0.00174264 -0.00137945 -0.0012987 -0.000681817 -0.000663395
-0.00169333 -0.00174247 -0.0013532 -0.00127189 -0.000714166 -0.000696492
-0.00168848 -0.00173754 -0.0013207 -0.00123879 -0.000746154 -0.000729304
-0.00168004 -0.001729 -0.00128316 -0.00120061 -0.00077686 -0.000760865
-0.00166923 -0.00171802 -0.00124191 -0.00115867 -0.000805329 -0.000790191
-0.00165725 -0.00170587 -0.00119824 -0.00111428 -0.000830602 -0.0008163
-0.00164528 -0.00169378 -0.00115346 -0.00106881 -0.00085174 -0.00083824
-0.00163445 -0.00168291 -0.00110884 -0.00102355 -0.000867875 -0.000855123
-0.00162582 -0.00167433 -0.00106561 -0.000979759 -0.000878243 -0.000866147
-0.00162034 -0.00166901 -0.00102489 -0.00093857 -0.000882195 -0.000870633
-0.00161886 -0.00166783 -0.0009877 -0.000901007 -0.000879213 -0.000868041
-0.00162205 -0.00167148 -0.000954883 -0.000867951 -0.000868927 -0.000857998
-0.00163037 -0.0016804 -0.000927148 -0.000840123 -0.000851142 -0.000840298
-0.00164401 -0.00169481 -0.000905036 -0.000818066 -0.000825847 -0.000814923
-0.00166293 -0.00171465 -0.000888904 -0.000802135 -0.000793218 -0.000782041
-0.00168694 -0.00173972 -0.000878911 -0.000792484 -0.000753614 -0.000742015
-0.00171577 -0.00176974 -0.000875001 -0.000789055 -0.000707574 -0.000695393
-0.00174808 -0.00180377 -0.000876742 -0.000791526 -0.000655839 -0.000642919
-0.00178098 -0.00183918 -0.000884126 -0.000799929 -0.00059922 -0.0005854
-0.00181511 -0.00187556 -0.000896587 -0.000813475 -0.000538749 -0.000523905
-0.00185007 -0.00191257 -0.000913326 -0.000831378 -0.000475542 -0.000459574
-0.00188523 -0.00194979 -0.000933301 -0.000852609 -0.000410833 -0.000393683
-0.00192011 -0.00198677 -0.000955441 -0.000876099 -0.000345912 -0.00032754
-0.00195436 -0.002023 -0.000978699 -0.000900699 -0.000282083 -0.000262496
-0.00198754 -0.00205801 -0.00100196 -0.000925242 -0.000220649 -0.000199883
-0.00201909 -0.00209133 -0.00102411 -0.000948601 -0.000162865 -0.000140985
-0.00204844 -0.00212234 -0.00104415 -0.000969749 -0.000109899 -8.70009e-05
-0.0020748 -0.00215016 -0.00106121 -0.000987793 -6.28062e-05 -3.90154e-05
-0.00209716 -0.00217375 -0.0010746 -0.00100199 -2.24564e-05 1.24718e-06
-0.00211442 -0.00219197 -0.00108374 -0.00101181 7.17539e-06 2.93081e-05
-0.00212563 -0.00220382 -0.00108833 -0.00101677 2.81778e-05 5.03806e-05
-0.00213008 -0.00220851 -0.0010881 -0.00101672 4.18142e-05 6.42545e-05
-0.00212708 -0.00220545 -0.00108298 -0.0010116 4.79612e-05 7.06176e-05
-0.00211614 -0.00219429 -0.00107299 -0.00100145 4.66042e-05 6.92294e-05
-0.00209717 -0.00217497 -0.00105837 -0.000986483 3.78676e-05 6.01781e-05
-0.00207046 -0.00214771 -0.00103948 -0.000967054 2.20283e-05 4.38343e-05
-0.00203665 -0.00211318 -0.00101677 -0.000943637 -4.72352e-07 2.07277e-05
-0.00199674 -0.00207243 -0.000990745 -0.000916781 -3.39036e-05 -9.19604e-06
-0.00195196 -0.00202671 -0.0009621 -0.000887202 -7.35846e-05 -5.00569e-05
-0.00190361 -0.00197731 -0.000931596 -0.000855601 -0.000118616 -9.62757e-05
-0.00185285 -0.00192545 -0.000900077 -0.000822932 -0.000167918 -0.000146777
-0.00180067 -0.00187213 -0.000868481 -0.000790156 -0.000220368 -0.000200373
-0.00174798 -0.00181826 -0.00083779 -0.000758291 -0.000274804 -0.000255912
-0.00169568 -0.00176478 -0.000808975 -0.000728324 -0.000330043 -0.000312217
-0.0016448 -0.00171271 -0.000782945 -0.000701194 -0.000384899 -0.000368114
-0.00159641 -0.00166316 -0.000760528 -0.000677757 -0.000438231 -0.000422451
-0.00155158 -0.00161721 -0.000742457 -0.000658774 -0.000488973 -0.000474136
-0.00151136 -0.00157593 -0.000729348 -0.000644879 -0.000536169 -0.000522164
-0.00147671 -0.00154033 -0.000721683 -0.000636576 -0.000578971 -0.000565657
-0.00144848 -0.00151124 -0.000719804 -0.000634223 -0.00061666 -0.000603879
-0.00142723 -0.00148926 -0.000723914 -0.000638041 -0.000648654 -0.000636247
-0.00141317 -0.00147459 -0.000734089 -0.000648113 -0.000674526 -0.000662337
-0.00140608 -0.00146702 -0.000750278 -0.000664389 -0.000694017 -0.000681883
-0.00140531 -0.00146587 -0.000772297 -0.000686683 -0.000707033 -0.000694788
-0.00140988 -0.00147016 -0.000799813 -0.000714655 -0.000713641 -0.000701122
-0.00141858 -0.00147862 -0.000832337 -0.000747808 -0.000714072 -0.000701123
-0.00142993 -0.00148974 -0.00086923 -0.000785488 -0.000708704 -0.00069519
-0.00144227 -0.00150181 -0.000909705 -0.000826888 -0.000698067 -0.000683865
-0.00145388 -0.0015131 -0.000952821 -0.000871041 -0.000682816 -0.000667825
-0.00146312 -0.0015219 -0.000997488 -0.000916829 -0.000663719 -0.000647858
-0.00146846 -0.00152667 -0.00104249 -0.000963001 -0.00064163 -0.000624845
-0.00146854 -0.001526 -0.0010865 -0.0010082 -0.000617461 -0.000599731
-0.00146222 -0.00151877 -0.00112812 -0.00105099 -0.000592157 -0.000573494
-0.00144865 -0.0015041 -0.00116591 -0.00108988 -0.000566667 -0.000547112
-0.00142722 -0.00148138 -0.00119843 -0.00112342 -0.000541907 -0.000521533
-0.00139752 -0.00145021 -0.00122432 -0.00115018 -0.000518729 -0.00049764
-0.00135927 -0.00141032 -0.00124229 -0.00116888 -0.000497889 -0.000476216
-0.00131225 -0.00136151 -0.00125126 -0.00117837 -0.00048002 -0.000457918
-0.0012563 -0.0013036 -0.00125032 -0.00117774 -0.000465609 -0.000443253
-0.00119134 -0.00123653 -0.00123878 -0.00116628 -0.00045498 -0.000432557
-0.00111745 -0.0011604 -0.00121619 -0.00114352 -0.000448279 -0.000425986
-0.00103491 -0.0010755 -0.00118235 -0.00110926 -0.000445472 -0.000423507
-0.000944196 -0.000982295 -0.0011373 -0.00106355 -0.000446339 -0.000424897
-0.000845964 -0.000881472 -0.00108134 -0.00100668 -0.000450482 -0.000429749
-0.000741016 -0.000773845 -0.00101501 -0.000939215 -0.000457332 -0.000437481
-0.000631189 -0.000667319 -0.00093894 -0.000860752 -0.000466174 -0.000447546
-0.000522161 -0.000554923 -0.000853868 -0.00077413 -0.000476141 -0.000458811
-0.000409038 -0.00043895 -0.000761294 -0.000679784 -0.000486276 -0.000470198
-0.000292402 -0.000320076 -0.000662742 -0.00057982 -0.000495542 -0.00048066
-0.000174716 -0.000199133 -0.000560087 -0.000475083 -0.00050269 -0.000489163
-5.73966e-05 -7.82293e-05 -0.000454509 -0.000367525 -0.000506672 -0.000494551
4.78249e-05 3.41842e-05 -0.000347295 -0.000258418 -0.00050646 -0.000495686
0.000145045 0.000137236 -0.000240968 -0.000149687 -0.00050087 -0.000491463
0.000237293 0.000236162 -0.000136212 -4.26509e-05 -0.00048912 -0.000480971
0.000324338 0.000328278 -3.39243e-05 5.3406e-05 -0.000470374 -0.000463051
0.000404668 0.000412624 5.715e-05 0.000143943 -0.000443742 -0.000437309
0.000476875 0.000489078 0.000140679 0.000229169 -0.000409043 -0.000403416
0.000540884 0.000556993 0.000218102 0.000308111 -0.000365913 -0.00036087
0.000596448 0.000615613 0.000288915 0.00037997 -0.000314263 -0.000309527
0.000643182 0.000664807 0.000352415 0.000444209 -0.000254166 -0.000249467
0.000681189 0.000704857 0.000408098 0.000500466 -0.000185972 -0.000181085
0.000711008 0.000736188 0.000455759 0.000548529 -0.000110272 -0.000104983
0.000733257 0.000759423 0.000495396 0.00058835 -2.7832e-05 -2.19521e-05
0.000748665 0.000775441 0.000527352 0.000620157 4.91163e-05 5.49644e-05
0.000758355 0.000785435 0.000551725 0.000644325 0.000128518 0.000135118
0.000763623 0.000790733 0.000569172 0.000661416 0.000210647 0.000217811
0.000765865 0.000792861 0.000580363 0.000672172 0.000294362 0.000302414
0.000766598 0.000793507 0.000586132 0.000677394 0.00037838 0.000387661
0.00076748 0.000794398 0.000587463 0.00067809 0.000461291 0.000471922
0.000770122 0.000797158 0.000585451 0.000675416 0.000541638 0.000553558
0.000775951 0.000803253 0.000581271 0.000670617 0.00061801 0.000631105
0.000786021 0.00081395 0.000576147 0.000664957 0.000689073 0.000703236
0.000801343 0.000830305 0.000571233 0.000659652 0.000753582 0.000768702
0.000822743 0.000853308 0.000567738 0.000655916 0.000809877 0.000825776
0.000851727 0.0008847 0.000562564 0.000648922 0.000825406 0.000823584
0.000887992 0.000924419 0.000559135 0.00064623 0.000824868 0.000815384
0.000931596 0.000970613 0.0005632 0.000649817 0.000820929 0.000818182
0.000981944 0.00102505 0.000573034 0.00066002 0.000817527 0.0008153
0.00103939 0.00108662 0.000589817 0.000677951 0.000818272 0.000815406
0.00110356 0.00115534 0.000613638 0.000703183 0.000817885 0.000813173
0.00117424 0.00123128 0.000643284 0.000734196 0.000807814 0.000799949
0.00125128 0.00131393 0.00067898 0.000771046 0.000786138 0.000778099
0.00133442 0.00140302 0.000719927 0.000813319 0.000754348 0.000747423
0.00142314 0.00149809 0.000765219 0.000860492 0.000715015 0.000708113
0.00151671 0.00159841 0.000814137 0.000911603 0.000669942 0.000660938
0.00161426 0.001703 0.000865924 0.000965588 0.000619534 0.000607569
0.00171473 0.0018107 0.000919566 0.00102134 0.00056392 0.000549901
0.00181689 0.00192022 0.000973841 0.00107779 0.000504229 0.000489403
0.00191937 0.0020301 0.00102756 0.0011338 0.000442602 0.000427137
0.00202068 0.00213874 0.00107965 0.0011882 0.00038119 0.000364237
0.00211925 0.00224446 0.00112909 0.00123985 0.000321385 0.000302214
0.00221347 0.00234555 0.00117488 0.0012877 0.000263995 0.000242782
0.00230177 0.00244032 0.00121608 0.00133082 0.000209934 0.000187453
0.0023824 0.00252673 0.0012519 0.00136836 0.000160553 0.00013735
0.00241334 0.00254023 0.00127328 0.00138493 0.000118934 9.60751e-05
0.00241229 0.00252293 0.00127894 0.00139271 8.59214e-05 6.27877e-05
0.00241601 0.00254217 0.00128367 0.00140004 5.86698e-05 3.39813e-05
0.00242859 0.0025445 0.00128786 0.00140277 3.80037e-05 1.3573e-05
0.00243762 0.00254524 0.00128867 0.00140108 2.52124e-05 1.77993e-06
0.00243608 0.00254819 0.00128718 0.00139843 1.86572e-05 -3.48363e-06
0.00243203 0.00254793 0.00128279 0.00139515 1.92633e-05 -1.71089e-06
0.00242041 0.00253605 0.00127318 0.00138471 2.77519e-05 7.05429e-06
0.00239787 0.00251426 0.00125801 0.00136905 4.3755e-05 2.26117e-05
0.00236563 0.00248267 0.00123753 0.00134834 6.64562e-05 4.5764e-05
0.0023258 0.00244271 0.00121275 0.00132344 9.53887e-05 7.54011e-05
0.00227924 0.00239555 0.00118447 0.00129466 0.000129962 0.000110901
0.00222649 0.00234251 0.00115325 0.00126274 0.000169483 0.000151133
0.00216922 0.00228478 0.00111996 0.00122863 0.000212854 0.000195237
0.00210923 0.00222381 0.00108553 0.00119336 0.000258917 0.0002422
0.00204785 0.00216128 0.00105081 0.00115788 0.000306629 0.000290934
0.00198646 0.00209879 0.00101677 0.00112306 0.000354998 0.000340297
0.00192675 0.00203787 0.000984409 0.00108985 0.000402963 0.00038916
0.00187031 0.00198006 0.000954606 0.00105916 0.000449407 0.000436442
0.00181848 0.00192689 0.000928086 0.00103188 0.00049327 0.000481119
0.00177256 0.00187975 0.000905587 0.00100875 0.000533621 0.000522241
0.00173376 0.00183984 0.000887816 0.000990423 0.000569659 0.000558947
0.00170308 0.00180818 0.000875315 0.000977432 0.000600686 0.000590497
0.00168125 0.00178561 0.000868451 0.000970213 0.000626107 0.000616293
0.00166884 0.00177273 0.000867479 0.000969059 0.000645458 0.000635892
0.0016654 0.00176896 0.000872595 0.000974192 0.000658446 0.000648997
0.00166711 0.00177066 0.000884341 0.00098618 0.000664881 0.000655398
0.00167415 0.00177781 0.00090243 0.00100465 0.000664869 0.000655176
0.00168628 0.0017902 0.000926409 0.0010292 0.000658627 0.000648527
0.00170316 0.00180742 0.00095564 0.0010592 0.000646519 0.000635881
0.0017243 0.00182901 0.000989332 0.00109387 0.000629079 0.000617775
0.00174908 0.00185434 0.00102659 0.00113224 0.000606983 0.000594897
0.00177673 0.00188262 0.00106639 0.00117324 0.000581013 0.000568044
0.00180637 0.00191294 0.00110763 0.00121574 0.000552026 0.000538107
0.00183697 0.00194425 0.00114914 0.00125856 0.000520931 0.000506031
0.00186741 0.0019754 0.00118977 0.0013005 0.000488676 0.000472792
0.00189655 0.0020052 0.00122838 0.00134039 0.000456219 0.00043937
0.00192326 0.0020325 0.00126387 0.00137707 0.000424493 0.000406723
0.00194645 0.0020562 0.00129521 0.00140949 0.000394377 0.00037576
0.00196517 0.00207529 0.00132146 0.00143668 0.000366681 0.000347314
0.00197862 0.00208895 0.00134179 0.00145779 0.000342119 0.000322124
0.00198619 0.00209657 0.00135553 0.00147212 0.000321297 0.000300808
0.00198748 0.00209773 0.00136214 0.0014791 0.000304687 0.000283854
0.00198228 0.00209223 0.00136128 0.00147838 0.000292619 0.0002716
0.00197053 0.00207998 0.00135277 0.00146979 0.000285269 0.00026423
0.00195222 0.002061 0.00133665 0.00145337 0.000282659 0.000261764
0.00192737 0.00203529 0.00131318 0.00142938 0.000284655 0.000264061
0.00189598 0.00200286 0.00128281 0.00139828 0.000290972 0.000270827
0.00185807 0.00196371 0.00124617 0.00136073 0.000301185 0.000281624
0.0018138 0.00191801 0.00120404 0.00131753 0.000314749 0.000295887
0.00176349 0.00186607 0.0011573 0.00126959 0.000331015 0.000312947
0.00170764 0.0018084 0.00110693 0.00121792 0.000349255 0.000332052
0.00164688 0.00174564 0.00105393 0.00116355 0.000368678 0.000352387
0.00158194 0.00167855 0.000999348 0.00110757 0.000388462 0.000373105
0.0015136 0.0016079 0.00094422 0.00105105 0.000407772 0.000393344
0.0014426 0.00153447 0.000889551 0.00099502 0.000425787 0.000412261
0.00136962 0.00145895 0.000836293 0.000940468 0.000441724 0.000429046
0.00129535 0.00138206 0.000785302 0.000888277 0.000454859 0.000442957
0.00122051 0.00130452 0.00073731 0.0008392 0.000464553 0.000453334
0.00114598 0.00122726 0.000692889 0.000793822 0.000470263 0.000459621
0.00107285 0.00115139 0.000652428 0.000752547 0.000471565 0.000461382
0.00100235 0.0010782 0.000616141 0.000715596 0.000468154 0.000458307
0.000935667 0.00100892 0.000584085 0.000683028 0.00045985 0.000450214
0.000873838 0.00094464 0.00055619 0.000654777 0.000446599 0.000437048
0.000817575 0.000886092 0.000532287 0.000630665 0.000428465 0.000418877
0.000767225 0.000833651 0.000512126 0.000610436 0.000405626 0.000395885
0.000722786 0.000787319 0.000495387 0.000593757 0.000378367 0.000368367
0.000683956 0.00074679 0.000481687 0.000580231 0.000347073 0.000336717
0.000650203 0.000711516 0.000470583 0.0005694 0.000312218 0.000301423
0.000620794 0.000680741 0.000461586 0.000560759 0.000274352 0.000263047
0.000594836 0.000653544 0.000454169 0.000553761 0.000234089 0.00022222
0.000571334 0.000628897 0.000447774 0.000547829 0.00019209 0.000179619
0.000549278 0.000605755 0.00044182 0.00054236 0.000149052 0.000135959
0.000527658 0.000583076 0.000435714 0.000536742 0.000105687 9.19686e-05
0.000505422 0.00055977 0.000428875 0.000530373 6.27075e-05 4.83783e-05
0.000481433 0.000534664 0.000420753 0.000522687 2.08066e-05 5.89811e-06
0.000454423 0.000506433 0.00041115 0.000513654 -1.709e-05 -3.47805e-05
0.000423181 0.000473778 0.000399899 0.000502641 -5.62504e-05 -7.19452e-05
0.000386722 0.000435854 0.000385679 0.000488786 -9.14292e-05 -0.000107087
0.000344236 0.000391634 0.000368367 0.000471675 -0.000123303 -0.000138715
0.000296081 0.000352419 0.000347517 0.000449626 -0.000151729 -0.000166551
0.000259575 0.000316101 0.000321223 0.000421794 -0.000176377 -0.000189958
0.000219388 0.000273325 0.000290448 0.000390221 -0.000196617 -0.000209624
0.000172311 0.000224821 0.000255626 0.000355753 -0.000212563 -0.000225026
0.000120018 0.000170668 0.00021802 0.000317234 -0.000224368 -0.000236697
6.25621e-05 0.0001104 0.000177445 0.000275436 -0.000232404 -0.000244223
-1.99714e-07 4.4817e-05 0.000133747 0.000230729 -0.000236832 -0.000248069
-6.89037e-05 -1.92408e-05 8.8997e-05 0.000185581 -0.000238025 -0.000248581
-0.000135726 -9.32408e-05 4.33068e-05 0.000138056 -0.000235852 -0.000245637
-0.000205789 -0.000168549 -3.77576e-06 8.99525e-05 -0.000230607 -0.000239677
-0.000278253 -0.000244614 -5.72764e-05 4.02276e-05 -0.000222672 -0.000231145
-0.000351294 -0.000321218 -0.000111604 -1.04164e-05 -0.000213006 -0.000220657
-0.000423413 -0.00039808 -0.000165445 -6.60102e-05 -0.000202045 -0.000208818
-0.000494793 -0.000473899 -0.000218505 -0.000120643 -0.000190389 -0.000196205
-0.000564932 -0.000547851 -0.000270314 -0.000173859 -0.000178684 -0.000183676
-0.000632677 -0.000619394 -0.000320189 -0.000224968 -0.000167665 -0.000171873
-0.00069731 -0.000687927 -0.000367501 -0.000273404 -0.000157944 -0.000161414
-0.0007585 -0.000752742 -0.000411733 -0.000318687 -0.00015002 -0.000152829
-0.000815724 -0.000813254 -0.000452383 -0.000360346 -0.000144364 -0.000146605
-0.00086839 -0.000869059 -0.000489021 -0.000397938 -0.000141419 -0.000143167
-0.000916206 -0.000919845 -0.000521366 -0.000431103 -0.000141541 -0.000142863
-0.00095908 -0.000965412 -0.000549197 -0.0004596 -0.000144962 -0.000145947
-0.000996923 -0.00100569 -0.000572319 -0.000483294 -0.000151817 -0.000152571
-0.00102971 -0.00104074 -0.000590661 -0.000502142 -0.000162149 -0.00016278
-0.0010576 -0.00107069 -0.000604312 -0.000516194 -0.000175906 -0.000176517
-0.00108085 -0.00109579 -0.000613462 -0.000525613 -0.000192929 -0.000193615
-0.00109983 -0.00111645 -0.000618355 -0.000530668 -0.000212956 -0.000213811
-0.00111502 -0.00113318 -0.000619317 -0.000531722 -0.000235639 -0.000236748
-0.00112705 -0.00114665 -0.000616751 -0.000529212 -0.000259466 -0.000261825
-0.00113674 -0.00115768 -0.000610686 -0.000523149 -0.000282964 -0.000284419
-0.00114473 -0.00116707 -0.000602307 -0.000514666 -0.000306706 -0.000308388
-0.00115193 -0.0011756 -0.000592117 -0.000504227 -0.00033105 -0.000332913
-0.00115909 -0.00118418 -0.000580755 -0.000492748 -0.000355574 -0.000357298
-0.00116706 -0.00119361 -0.000568985 -0.000480869 -0.000379758 -0.000381129
-0.00117658 -0.00120471 -0.000557555 -0.000469354 -0.000402967 -0.000403964
-0.00118844 -0.00121828 -0.000547195 -0.000458926 -0.000424588 -0.000425388
-0.00120335 -0.00123507 -0.000538585 -0.000450308 -0.000444166 -0.000444925
-0.00122196 -0.00125575 -0.00053238 -0.000444189 -0.000461375 -0.000462083
-0.00124478 -0.00128082 -0.000529213 -0.000441202 -0.000475905 -0.000476455
-0.00127212 -0.00131061 -0.000529665 -0.000441928 -0.000487422 -0.000487742
-0.00130408 -0.0013452 -0.000534241 -0.000446877 -0.00049563 -0.000495745
-0.00134058 -0.00138447 -0.000543356 -0.000456477 -0.000500357 -0.000500332
-0.00138136 -0.00142814 -0.000557319 -0.000471037 -0.000501532 -0.000501403
-0.00142609 -0.00147584 -0.000576253 -0.000490668 -0.000498834 -0.000498378
-0.00147431 -0.00152708 -0.000600208 -0.000515407 -0.000492329 -0.000491387
-0.00152556 -0.00158135 -0.000629087 -0.000545136 -0.000482258 -0.000480768
-0.00157929 -0.00163809 -0.000662639 -0.00057961 -0.000469006 -0.000466932
-0.00163497 -0.00169673 -0.000700476 -0.000618428 -0.000453105 -0.000450382
-0.00169205 -0.0017567 -0.000742077 -0.000661057 -0.000435181 -0.000431707
-0.00174999 -0.00181746 -0.000786808 -0.000706844 -0.000415906 -0.000411596
-0.00180828 -0.0018785 -0.000833933 -0.000755039 -0.000395985 -0.000390804
-0.00186632 -0.0019388 -0.000882656 -0.000804891 -0.000376163 -0.000370113
-0.00192256 -0.00199735 -0.000932305 -0.000855706 -0.000357193 -0.000350281
-0.00197695 -0.00205381 -0.000981934 -0.000906442 -0.000339891 -0.000332141
-0.00202927 -0.00210807 -0.00103063 -0.000956172 -0.00032501 -0.000316441
-0.0020792 -0.00215983 -0.00107749 -0.00100401 -0.000313239 -0.00030392
-0.00212638 -0.00220876 -0.00112173 -0.00104916 -0.000305192 -0.000295211
-0.00217044 -0.00225446 -0.00116268 -0.0010909 -0.000301398 -0.000290866
-0.00221098 -0.00229651 -0.00119979 -0.00112865 -0.000302285 -0.000291317
-0.00224399 -0.0023339 -0.00123315 -0.00116205 -0.000308077 -0.000296882
-0.00227136 -0.00236214 -0.00126223 -0.00119176 -0.000319008 -0.000307546
-0.0022924 -0.00238366 -0.00128667 -0.00121626 -0.00033514 -0.000323638
-0.00230711 -0.00239909 -0.00130628 -0.00123623 -0.000356438 -0.000344918
-0.00231587 -0.00240818 -0.00132118 -0.00125113 -0.000382637 -0.000371322
-0.00231851 -0.002411 -0.00133134 -0.00126125 -0.00041348 -0.000402424
-0.00231472 -0.00240701 -0.00133681 -0.00126647 -0.000448571 -0.000437904
-0.00230474 -0.00239673 -0.00133785 -0.00126722 -0.000487366 -0.000477175
-0.00228928 -0.00238077 -0.00133484 -0.00126383 -0.000527364 -0.00051932
-0.00226921 -0.00236008 -0.00132736 -0.00125581 -0.000565938 -0.000556231
-0.00224495 -0.00233521 -0.00131716 -0.0012451 -0.000604887 -0.00059543
-0.00221741 -0.00230686 -0.00130453 -0.00123166 -0.000644534 -0.000635007
-0.00218726 -0.00227588 -0.00129009 -0.00121662 -0.000684327 -0.000674468
-0.00215533 -0.00224301 -0.00127456 -0.00120044 -0.000723518 -0.000713111
-0.00212243 -0.00220915 -0.00125863 -0.00118385 -0.000761179 -0.000750296
-0.00208944 -0.00217518 -0.00124292 -0.00116744 -0.000796433 -0.000785397
-0.00205716 -0.00214192 -0.00122798 -0.00115182 -0.000828664 -0.000817697
-0.00202635 -0.00211014 -0.00121431 -0.00113756 -0.000857435 -0.000846494
-0.00199682 -0.00207979 -0.00120242 -0.00112516 -0.000882304 -0.000871207
-0.00196667 -0.00204886 -0.00119305 -0.0011154 -0.000902707 -0.000891372
-0.0019359 -0.00201726 -0.00118642 -0.00110847 -0.000918208 -0.000906721
-0.00190427 -0.00198473 -0.00118264 -0.00110452 -0.000928521 -0.000917008
-0.00187155 -0.001951 -0.00118166 -0.00110352 -0.000933563 -0.000922102
-0.00183761 -0.00191596 -0.00118321 -0.00110522 -0.000933162 -0.000921741
-0.00180258 -0.00187975 -0.00118679 -0.00110906 -0.000926934 -0.000915186
-0.00176669 -0.00184262 -0.00119183 -0.00111446 -0.00091495 -0.000902834
-0.00173016 -0.0018048 -0.00119762 -0.00112067 -0.00089754 -0.00088508
-0.00169306 -0.00176635 -0.00120335 -0.00112689 -0.000875203 -0.000862393
-0.00165522 -0.00172715 -0.00120818 -0.00113228 -0.000848552 -0.000835302
-0.00161638 -0.00168691 -0.00121127 -0.00113594 -0.000818224 -0.000804423
-0.00157621 -0.00164534 -0.00121176 -0.00113699 -0.000784835 -0.000770445
-0.00153443 -0.00160213 -0.0012088 -0.00113455 -0.000749008 -0.000734081
-0.00149067 -0.00155694 -0.00120159 -0.00112781 -0.000711403 -0.00069602
-0.00144445 -0.00150926 -0.00118942 -0.00111604 -0.000672692 -0.000656908
-0.00139518 -0.00145851 -0.0011717 -0.00109863 -0.000633504 -0.000617348
-0.00134233 -0.00140415 -0.00114795 -0.00107508 -0.000594382 -0.000577904
-0.00128557 -0.00134583 -0.0011178 -0.00104498 -0.000555785 -0.00053908
-0.00122478 -0.00128345 -0.00108097 -0.00100808 -0.000518099 -0.000501292
-0.00116004 -0.00121708 -0.00103734 -0.000964233 -0.000481645 -0.000464857
-0.00109154 -0.0011469 -0.000986915 -0.000913454 -0.000446657 -0.000429985
-0.00101947 -0.00107313 -0.000929893 -0.000855928 -0.000413255 -0.000396789
-0.000944018 -0.000995934 -0.000866621 -0.000792014 -0.000381449 -0.000365286
-0.000865272 -0.000915411 -0.000797614 -0.000722239 -0.000351148 -0.000335392
-0.00078329 -0.000831607 -0.000723534 -0.000647276 -0.000322182 -0.000306928
-0.000698134 -0.000744573 -0.000645162 -0.000567924 -0.000294314 -0.000279632
-0.00060993 -0.000654424 -0.000563366 -0.000485067 -0.000267245 -0.000253181
-0.000518929 -0.000561401 -0.000479066 -0.000399648 -0.000240626 -0.000227209
-0.000425552 -0.000465925 -0.000393202 -0.000312628 -0.000214075 -0.000201326
-0.000330394 -0.00036859 -0.000306709 -0.000224962 -0.000187206 -0.000175132
-0.000234159 -0.000270108 -0.000220497 -0.000137585 -0.000159641 -0.000148229
-0.000137599 -0.000171241 -0.00013544 -5.13889e-05 -0.000131027 -0.000120243
-4.20573e-05 -7.34949e-05 -5.22125e-05 2.89573e-05 -0.000101012 -9.06552e-05
3.93045e-05 1.13724e-05 2.3594e-05 0.000100453 -6.90054e-05 -5.88981e-05
0.000112874 8.89345e-05 9.13769e-05 0.00016991 -3.49449e-05 -2.54521e-05
0.000184685 0.00016401 0.000155646 0.000235621 -3.21521e-06 5.55407e-06
0.000241901 0.000224485 0.000218082 0.000299553 2.53044e-05 3.15669e-05
0.000295349 0.000277807 0.000276396 0.000358102 5.46814e-05 6.09431e-05
0.000343076 0.000327634 0.000330019 0.000412716 8.54525e-05 9.14018e-05
0.000385801 0.000373199 0.000378578 0.000462084 0.000117688 0.000123273
0.000423806 0.000413701 0.000421991 0.000506185 0.000151312 0.000155858
0.000456982 0.000448611 0.000460207 0.000544805 0.00018596 0.000189608
0.000485336 0.00047864 0.000493079 0.00057799 0.000221269 0.000224278
0.000509347 0.000504374 0.000520588 0.000605763 0.000256904 0.00025955
0.000529549 0.000526143 0.000542822 0.000628202 0.000292616 0.000294916
0.00054641 0.000544412 0.00055999 0.000645507 0.000328101 0.000329941
0.000560557 0.000559914 0.000572415 0.000657966 0.000362892 0.000364224
0.000572774 0.000573478 0.000580465 0.00066596 0.000396424 0.000397348
0.00058384 0.000585906 0.000584523 0.000669935 0.000428166 0.000428845
0.000594489 0.000597981 0.00058505 0.000670402 0.000457676 0.000458202
0.000605468 0.000610487 0.000582616 0.000667915 0.000484536 0.000484898
0.000617533 0.0006242 0.000577837 0.000663071 0.000508284 0.000508456
0.00063139 0.000639865 0.000571315 0.000656501 0.000528428 0.000528445
0.000647693 0.000658169 0.000563649 0.000648851 0.000544524 0.000544475
0.000667028 0.000679714 0.000555462 0.000640762 0.000556224 0.000556184
0.000689867 0.000704984 0.000547379 0.000632854 0.000563268 0.000563258
0.000716541 0.000734316 0.000539995 0.000625722 0.000565449 0.000565458
0.000747237 0.000767896 0.000533785 0.000619863 0.00056206 0.000562038
0.000781996 0.000805763 0.000529192 0.000615723 0.000552829 0.000552595
0.000820756 0.000847816 0.000526652 0.000613726 0.000537728 0.000537252
0.000863354 0.000893879 0.000526494 0.0006142 0.000516934 0.000516143
0.000909563 0.000943704 0.000528942 0.000617375 0.000490759 0.00048953
0.000959111 0.000996993 0.000534115 0.000623369 0.000459607 0.000457791
0.00101169 0.00105342 0.000542027 0.000632189 0.000423953 0.000421435
0.00106697 0.00111263 0.00055259 0.000643733 0.000384367 0.000381082
0.00112458 0.00117425 0.000565612 0.000657801 0.000341528 0.000337431
0.00118413 0.00123787 0.000580819 0.000674112 0.000296212 0.000291249
0.00124515 0.00130298 0.000597874 0.000692318 0.000249255 0.000243362
0.00130708 0.00136904 0.000616394 0.000712023 0.000201518 0.00019465
0.00136933 0.00143542 0.00063597 0.000732799 0.000153872 0.000146021
0.00143124 0.00150143 0.000656176 0.000754203 0.000107202 9.83891e-05
0.00149212 0.00156634 0.000676588 0.000775796 6.23867e-05 5.26484e-05
0.00155131 0.00162947 0.000696793 0.000797149 2.02832e-05 9.6581e-06
0.00160807 0.00169002 0.000716794 0.000818398 -1.67238e-05 -3.00951e-05
0.00166187 0.0017474 0.000736019 0.000838623 -5.2965e-05 -6.60919e-05
0.00171215 0.00180119 0.000753846 0.000857528 -8.3866e-05 -9.72621e-05
0.00175854 0.00185083 0.000770116 0.000874679 -0.000109143 -0.000122723
0.00180064 0.00189597 0.000784662 0.000889981 -0.000128468 -0.00014211
0.0018382 0.00193634 0.000797342 0.000903302 -0.000141405 -0.000155024
0.00187111 0.00197181 0.000808084 0.000914619 -0.000147552 -0.00016128
0.00189934 0.00200235 0.000816954 0.00092397 -0.000146504 -0.000160559
0.00192293 0.00202801 0.000824193 0.00093156 -0.000137865 -0.000151996
0.00194205 0.00204897 0.000829985 0.000937568 -0.000121755 -0.000135795
0.00195694 0.00206546 0.000834589 0.000942305 -9.84672e-05 -0.00011223
0.00196791 0.00207779 0.000838341 0.000946115 -6.83587e-05 -8.17486e-05
0.00197533 0.00208638 0.000841638 0.000949399 -3.19107e-05 -4.48935e-05
0.00197973 0.00209171 0.000844928 0.0009526 6.01058e-06 -3.21193e-06
0.00198177 0.00209433 0.000848275 0.000955732 4.4096e-05 3.41633e-05
0.00198191 0.00209499 0.000852527 0.00095981 8.51105e-05 7.52659e-05
0.00198096 0.0020944 0.000858055 0.00096506 0.000128925 0.000119308
0.00197964 0.00209347 0.000865339 0.000972142 0.000174932 0.000165519
0.00197829 0.00209291 0.000874881 0.000981449 0.000222441 0.000213075
0.00196388 0.00208129 0.00088901 0.000995165 0.000270377 0.000261092
0.00195276 0.00207089 0.000905635 0.00101158 0.000318557 0.000309087
0.00194441 0.00206306 0.000925218 0.00103125 0.000366105 0.000356665
0.00193987 0.00205887 0.000947912 0.00105402 0.000412554 0.000403104
0.00193949 0.0020592 0.000973719 0.00108014 0.000457437 0.000447873
0.00194344 0.00206414 0.00100267 0.00110938 0.000500322 0.000490487
0.00195191 0.00207364 0.00103474 0.00114171 0.000540742 0.00053066
0.00196506 0.00208782 0.00106979 0.00117708 0.000578309 0.000568031
0.00198282 0.00210674 0.00110757 0.0012153 0.000612763 0.000602296
0.00200386 0.00212997 0.00114752 0.00125594 0.000643997 0.000633239
0.00202751 0.00215704 0.00118931 0.00129867 0.000671939 0.000660747
0.00205494 0.00218591 0.00123254 0.00134245 0.000696506 0.000684931
0.00208577 0.0022184 0.00127718 0.00138788 0.000717553 0.000705549
0.00211885 0.00225308 0.00132259 0.0014341 0.000735191 0.000722859
0.00215227 0.00228864 0.00136849 0.00148092 0.000749569 0.000736785
0.002186 0.00232416 0.00141438 0.00152768 0.000760857 0.000747662
0.00221933 0.00235909 0.00145965 0.00157384 0.000769282 0.000755621
0.00225126 0.00239265 0.00150363 0.00161877 0.000775094 0.000760985
0.00228104 0.002424 0.00154569 0.00166182 0.0007786 0.000764042
0.00230817 0.00245246 0.00158526 0.0017023 0.000780117 0.000765135
0.00233217 0.00247757 0.00162162 0.0017395 0.000779921 0.000764502
0.00235265 0.002499 0.0016541 0.00177274 0.000778343 0.000762511
0.00236936 0.00251647 0.00168207 0.00180141 0.000775721 0.000759519
0.00238215 0.00252978 0.00170498 0.00182491 0.000772373 0.000755854
0.00239088 0.00253882 0.00172235 0.00184273 0.00076859 0.000751807
0.00239551 0.00254356 0.00173377 0.00185446 0.000764607 0.000747621
0.00239606 0.00254408 0.00173892 0.00185978 0.000760598 0.000743482
0.00239232 0.00254012 0.00173756 0.00185842 0.000756691 0.00073953
0.00238443 0.00253192 0.00172955 0.00185029 0.000752942 0.000735816
0.00237273 0.00251983 0.00171498 0.00183545 0.000749329 0.000732317
0.00235758 0.00250418 0.00169408 0.00181412 0.000745759 0.000728935
0.00233915 0.00248515 0.0016672 0.00178668 0.000742072 0.000725504
0.00231745 0.00246278 0.00163484 0.00175366 0.000738047 0.000721795
0.00229235 0.00243691 0.00159763 0.00171569 0.000733411 0.000717524
0.0022637 0.00240735 0.00155631 0.00167352 0.000727858 0.00071237
0.00223138 0.002374 0.00151163 0.00162795 0.000721062 0.000705991
0.00219543 0.00233687 0.00146439 0.00157976 0.000712691 0.000698038
0.00215606 0.00229618 0.00141534 0.00152977 0.00070242 0.000688176
0.00211366 0.00225231 0.00136521 0.0014787 0.000689951 0.000676093
0.00206868 0.00220574 0.0013147 0.00142728 0.000675018 0.00066151
0.00202157 0.00215692 0.00126442 0.00137613 0.000657405 0.0006442
0.00197275 0.00210629 0.00121495 0.00132585 0.000636947 0.000623988
0.00192258 0.00205421 0.00116676 0.00127693 0.000613543 0.000600767
0.00187133 0.00200096 0.00112025 0.00122977 0.000587161 0.0005745
0.00181917 0.00194673 0.00107574 0.0011847 0.000557842 0.000545224
0.00176618 0.0018916 0.00103344 0.00114193 0.000525702 0.000513054
0.00171238 0.00183557 0.000993459 0.00110157 0.000490931 0.000478183
0.00165769 0.00177859 0.000955802 0.00106362 0.000453793 0.000440878
0.00160197 0.00172049 0.000920382 0.001028 0.000414619 0.000401477
0.00154503 0.0016611 0.000887014 0.000994495 0.000373801 0.00036038
0.00148663 0.00160017 0.000855429 0.000962837 0.000331785 0.000318042
0.00142653 0.00153744 0.00082528 0.000932662 0.000289055 0.000274961
0.00136449 0.00147268 0.000796155 0.000903543 0.00024613 0.000231667
0.00130033 0.00140571 0.000767591 0.000874998 0.000203542 0.000188707
0.00123393 0.00133642 0.000739084 0.000846505 0.000161828 0.000146633
0.00114779 0.00124656 0.000702741 0.000810146 0.000111711 9.61049e-05
0.00105828 0.00115323 0.000664685 0.000772002 6.47376e-05 4.87886e-05
0.000965561 0.00105663 0.00062402 0.00073115 2.17564e-05 5.5576e-06
0.000869527 0.000956627 0.000580366 0.000687385 -1.46086e-05 -3.30005e-05
0.00076977 0.00085284 0.000533253 0.000639738 -4.88893e-05 -6.58969e-05
0.000665699 0.000744671 0.000481955 0.000588015 -7.71099e-05 -9.37532e-05
0.000556752 0.000631543 0.00042662 0.00053194 -9.98543e-05 -0.000115794
0.000442725 0.000513229 0.000367421 0.000471824 -0.000117423 -0.00013236
0.000323845 0.000389958 0.000304645 0.000408054 -0.000129778 -0.000143852
0.000200475 0.000262111 0.000238826 0.000341136 -0.000137331 -0.00015073
8.38683e-05 0.000151489 0.000169893 0.000268136 -0.000140836 -0.000152937
-1.31538e-05 5.15653e-05 9.64406e-05 0.00019413 -0.000140564 -0.000151991
-0.000114549 -4.78563e-05 2.62019e-05 0.00012298 -0.00013861 -0.000148693
-0.000214348 -0.000155226 -4.56266e-05 5.33291e-05 -0.000134966 -0.000144347
-0.000315219 -0.000262926 -0.000118466 -1.5398e-05 -0.000131091 -0.000139226
-0.000414641 -0.000368084 -0.000187989 -8.65911e-05 -0.000127938 -0.00013533
-0.00051015 -0.000470923 -0.000252333 -0.000152953 -0.000126517 -0.000132911
-0.000602015 -0.000569091 -0.000311515 -0.000213792 -0.000127555 -0.00013326
-0.000688876 -0.000661879 -0.000365131 -0.000268911 -0.000131852 -0.000136821
-0.00076934 -0.000748439 -0.000412542 -0.000317586 -0.000139872 -0.00014428
-0.000843265 -0.000827921 -0.000453683 -0.000360009 -0.000151853 -0.000155874
-0.000910178 -0.000899906 -0.000488533 -0.000396056 -0.000166787 -0.000171212
-0.000969788 -0.00096442 -0.00051732 -0.000425684 -0.000184218 -0.000187968
-0.00102258 -0.00102166 -0.000540573 -0.000449663 -0.000204905 -0.000208166
-0.00106918 -0.00107237 -0.000558732 -0.000468421 -0.00022858 -0.000231548
-0.00111037 -0.00111742 -0.000572503 -0.000482741 -0.000254818 -0.000257116
-0.00114717 -0.00115783 -0.000582768 -0.000493395 -0.000282909 -0.000284745
-0.00118061 -0.00119468 -0.000590404 -0.000501328 -0.000312143 -0.000313607
-0.0012117 -0.00122904 -0.00059636 -0.0005076 -0.000341855 -0.000342927
-0.00124152 -0.00126203 -0.00060169 -0.000513203 -0.000371344 -0.000372016
-0.00127111 -0.00129472 -0.000607413 -0.000519187 -0.000399825 -0.00040005
-0.0013015 -0.00132818 -0.000614464 -0.000526529 -0.000426538 -0.000426393
-0.00133367 -0.00136344 -0.000623703 -0.000536116 -0.000450855 -0.000450369
-0.00136855 -0.00140146 -0.000635888 -0.000548714 -0.000472264 -0.000471399
-0.00140693 -0.00144307 -0.000651622 -0.000564938 -0.000490322 -0.000489062
-0.0014495 -0.00148898 -0.000671344 -0.00058525 -0.000504693 -0.000503047
-0.00149675 -0.00153973 -0.000695332 -0.00060994 -0.000515212 -0.000513196
-0.00154888 -0.00159552 -0.000723716 -0.000639136 -0.000521881 -0.000519481
-0.0016057 -0.00165614 -0.000756487 -0.000672825 -0.000524835 -0.000522024
-0.00166668 -0.00172102 -0.000793446 -0.000710796 -0.000524025 -0.000520697
-0.00173104 -0.00178934 -0.000834257 -0.000752699 -0.000519689 -0.000515735
-0.0017978 -0.00186006 -0.000878466 -0.000798044 -0.00051244 -0.000507833
-0.00186589 -0.00193206 -0.000925456 -0.000846206 -0.000503062 -0.000497738
-0.00193417 -0.00200413 -0.000974476 -0.000896416 -0.000492429 -0.000486324
-0.00200155 -0.00207515 -0.00102466 -0.00094778 -0.000481456 -0.00047455
-0.00206711 -0.00214417 -0.00107506 -0.000999312 -0.000471087 -0.000463406
-0.00213009 -0.0022104 -0.00112463 -0.00104998 -0.000462278 -0.000453865
-0.00218988 -0.00227328 -0.00117237 -0.00109874 -0.000455945 -0.000446845
-0.00224599 -0.00233229 -0.00121732 -0.00114464 -0.000452893 -0.000443174
-0.00229793 -0.00238697 -0.00125867 -0.00118685 -0.00045379 -0.000443553
-0.00234527 -0.00243688 -0.00129576 -0.0012247 -0.000459149 -0.000448509
-0.00238756 -0.00248156 -0.00132814 -0.00125772 -0.000469303 -0.000458378
-0.00242439 -0.00252057 -0.00135557 -0.00128569 -0.000484384 -0.00047329
-0.00245545 -0.0025536 -0.00137803 -0.00130856 -0.000504312 -0.000493172
-0.00248061 -0.00258047 -0.00139567 -0.0013265 -0.000528812 -0.000517749
-0.00249989 -0.00260118 -0.00140859 -0.00133973 -0.000555103 -0.00054497
-0.00251344 -0.00261601 -0.00141721 -0.00134833 -0.000582899 -0.000571687
-0.00252158 -0.00262506 -0.00142244 -0.00135339 -0.000612935 -0.000601896
-0.00252462 -0.00262866 -0.00142487 -0.00135567 -0.000644791 -0.000633321
-0.00252281 -0.00262706 -0.00142517 -0.00135572 -0.000677747 -0.000665771
-0.00251669 -0.00262102 -0.00142408 -0.00135431 -0.000710747 -0.000698426
-0.00249988 -0.00260634 -0.00142333 -0.0013528 -0.000742796 -0.000730356
-0.00248089 -0.00258736 -0.0014223 -0.00135151 -0.000773481 -0.000760776
-0.00246221 -0.00256813 -0.00142133 -0.00135031 -0.000802083 -0.000789027
-0.00244523 -0.00255067 -0.00142084 -0.00134952 -0.000827798 -0.000814454
-0.00242375 -0.00252833 -0.00142185 -0.00135034 -0.000849944 -0.000836464
-0.00239596 -0.00249982 -0.00142487 -0.00135324 -0.000868139 -0.000854451
-0.00236234 -0.00246511 -0.00142968 -0.0013579 -0.000882091 -0.0008682
-0.00232318 -0.00242468 -0.00143573 -0.00136404 -0.000891597 -0.000877519
-0.0022788 -0.00237886 -0.00144234 -0.00137086 -0.000896648 -0.00088241
-0.0022297 -0.00232815 -0.00144864 -0.0013774 -0.000897302 -0.000882993
-0.00217649 -0.0022732 -0.00145344 -0.00138246 -0.000893401 -0.000878838
-0.00211987 -0.00221477 -0.00145549 -0.00138481 -0.000885191 -0.000870423
-0.00206059 -0.00215362 -0.00145357 -0.00138319 -0.000873149 -0.000858187
-0.00199917 -0.00209032 -0.00144656 -0.00137639 -0.000857801 -0.000842658
-0.00193576 -0.00202506 -0.00143342 -0.00136341 -0.000839638 -0.000824334
-0.00187006 -0.00195751 -0.00141339 -0.00134346 -0.000819082 -0.00080367
-0.00180122 -0.00188683 -0.00138597 -0.00131601 -0.000796493 -0.000781061
-0.0017281 -0.00181185 -0.00135091 -0.0012808 -0.00077217 -0.000756793
-0.00164967 -0.0017315 -0.00130817 -0.00123779 -0.000746325 -0.000731069
-0.00156529 -0.00164511 -0.00125784 -0.00118709 -0.000719074 -0.000704012
-0.00147479 -0.00155251 -0.00120018 -0.00112893 -0.000690455 -0.000675664
-0.00137831 -0.00145382 -0.00113559 -0.00106373 -0.000660431 -0.000645982
-0.00127598 -0.00134915 -0.0010646 -0.000992056 -0.000628895 -0.000614844
-0.00116796 -0.00123867 -0.000987925 -0.000914605 -0.00059568 -0.00058207
-0.00105447 -0.00112256 -0.000906355 -0.000832193 -0.000560576 -0.000547438
-0.000935731 -0.00100107 -0.000820757 -0.000745705 -0.00052335 -0.000510706
-0.0008119 -0.0008743 -0.00073204 -0.000656074 -0.000483775 -0.000471627
-0.000682929 -0.0007422 -0.000641134 -0.000564246 -0.000441646 -0.000429978
-0.0005487 -0.000604625 -0.000548925 -0.000471124 -0.000396803 -0.000385586
-0.000409387 -0.000461737 -0.000456174 -0.000377477 -0.000349158 -0.000338354
-0.000265734 -0.000314284 -0.000363448 -0.000283881 -0.000298718 -0.000288282
-0.00011892 -0.000163465 -0.000271129 -0.000190726 -0.000245585 -0.000235468
-2.51777e-06 -4.88116e-05 -0.000176571 -9.43215e-05 -0.000190178 -0.00018067
7.9305e-05 4.14491e-05 -8.26838e-05 -1.07617e-06 -0.00013224 -0.000122809
0.000159206 0.000127354 7.7977e-06 8.28935e-05 -7.20867e-05 -6.32523e-05
0.000237181 0.000208966 8.80824e-05 0.000164825 -1.21031e-05 -2.96542e-06
0.000311399 0.000288641 0.000164612 0.000243149 3.56462e-05 4.10795e-05
0.000381238 0.000362913 0.000238042 0.000317437 8.41322e-05 9.05696e-05
0.000446495 0.000432746 0.000307768 0.000388245 0.000133428 0.000138199
0.000506358 0.000496531 0.000373132 0.000454667 0.000183079 0.000187271
0.000560588 0.000554814 0.000434028 0.000516615 0.000232584 0.000235258
0.00060937 0.000606941 0.000490455 0.000573825 0.00028105 0.000283036
0.000652762 0.000653567 0.000542035 0.000626015 0.000328126 0.000329498
0.000691154 0.000694835 0.000588551 0.000673268 0.000373479 0.000374109
0.000725061 0.000731379 0.000630036 0.000715308 0.000416576 0.000416411
0.000754937 0.000763635 0.00066648 0.000752221 0.000456672 0.000455791
0.000781339 0.000792274 0.00069786 0.000783988 0.000493182 0.000491907
0.000804985 0.00081799 0.000724233 0.000810753 0.000525717 0.000524018
0.000826637 0.000841651 0.000745736 0.00083259 0.000553866 0.000551742
0.000847067 0.00086408 0.000762534 0.000849686 0.000577115 0.000574597
0.000866957 0.000885998 0.000774838 0.000862286 0.000595014 0.000592293
0.000886766 0.000907896 0.00078294 0.000870701 0.000607295 0.000604453
0.000906737 0.000930021 0.000787214 0.000875294 0.000613779 0.000610832
0.000927015 0.000952499 0.00078804 0.000876444 0.000614148 0.000611153
0.000947795 0.000975534 0.000785669 0.000874413 0.000607738 0.000604561
0.000969349 0.000999405 0.000780446 0.000869541 0.000594463 0.000591129
0.000991966 0.00102442 0.000772673 0.000862133 0.000574567 0.000571016
0.00101579 0.00105073 0.000762637 0.000852489 0.00054842 0.00054455
0.00104069 0.00107819 0.000750641 0.000840919 0.00051646 0.000512173
0.00106632 0.00110641 0.000736999 0.000827717 0.000479218 0.000474481
0.00109219 0.00113485 0.000721989 0.000813154 0.000437362 0.000432145
0.00111775 0.0011629 0.000705848 0.000797461 0.000391677 0.000385932
0.00114239 0.00118989 0.00068877 0.000780826 0.000343018 0.000336692
0.0011654 0.00121507 0.000670915 0.00076339 0.000292281 0.000285358
0.00118605 0.00123763 0.000652399 0.000745253 0.000240411 0.000232904
0.00120357 0.00125674 0.000633286 0.00072647 0.000188398 0.000180318
0.00121725 0.00127165 0.000613598 0.000707046 0.000137231 0.000128594
0.00122609 0.00128103 0.000593342 0.000687026 8.78687e-05 7.87041e-05
0.00122659 0.00128192 0.000572965 0.000666842 4.11564e-05 3.15059e-05
0.00121808 0.00127304 0.000552057 0.000646031 -1.47362e-06 -1.22432e-05
0.0012008 0.00125522 0.000530843 0.000624895 -4.10046e-05 -5.20767e-05
0.00117623 0.00122982 0.00050797 0.00060212 -7.59766e-05 -8.68707e-05
0.00114565 0.00119811 0.000483394 0.000577458 -0.000105186 -0.000115909
0.00111012 0.00116133 0.000456888 0.000550732 -0.0001285 -0.000138795
0.00107061 0.00112045 0.000428369 0.000521815 -0.000145499 -0.000155103
0.00102778 0.00107614 0.000397973 0.00049101 -0.000156007 -0.000165316
0.000981996 0.00102882 0.000366121 0.000458604 -0.000160237 -0.000169298
0.000933464 0.000978673 0.000333416 0.000425221 -0.000158332 -0.000166967
0.000882387 0.000925899 0.000300525 0.000391599 -0.00015055 -0.000158512
0.000829153 0.000870908 0.00026815 0.000358473 -0.000137474 -0.000144792
0.000774456 0.000814396 0.000237044 0.000326591 -0.000119937 -0.000126706
0.000719219 0.000757311 0.000207919 0.000296672 -9.89725e-05 -0.000105104
0.00066439 0.000700626 0.000181432 0.000269433 -7.55772e-05 -8.09862e-05
0.000610784 0.000645178 0.000158217 0.000245529 -5.06563e-05 -5.53814e-05
0.000559075 0.000591658 0.000138838 0.000225531 -2.51147e-05 -2.92733e-05
0.000509782 0.000540593 0.000123647 0.000209824 -3.63239e-06 -6.07848e-06
0.000463097 0.000492196 0.000113057 0.000198805 1.57943e-05 1.38298e-05
0.000418844 0.00044625 0.000107283 0.000192707 3.37937e-05 3.1987e-05
0.00037644 0.000402161 0.000106357 0.000191635 5.00261e-05 4.83056e-05
0.000335034 0.000359047 0.000110135 0.000195368 6.41273e-05 6.23308e-05
0.000293636 0.00031587 0.00011824 0.000203583 7.5834e-05 7.39633e-05
0.000251223 0.000271588 0.000130059 0.000215604 8.51145e-05 8.32125e-05
0.000206802 0.000225163 0.00014474 0.000230605 9.2136e-05 9.00644e-05
0.000159414 0.000175622 0.000161228 0.000247479 9.71001e-05 9.4803e-05
0.000108092 0.000121971 0.000178298 0.000264989 0.000100254 9.76984e-05
5.60061e-05 7.41836e-05 0.000194452 0.000280559 0.000101923 9.93088e-05
2.97813e-05 4.15881e-05 0.000204633 0.000290743 0.00010286 0.000100271
-5.71667e-06 4.79864e-06 0.000211666 0.000298371 0.000102925 0.000100126
-4.7405e-05 -3.94249e-05 0.000215883 0.000302084 0.000102237 9.94745e-05
-9.36224e-05 -8.94258e-05 0.000215712 0.000301521 0.000101056 9.81787e-05
-0.000145651 -0.000144518 0.00020981 0.000295184 9.95508e-05 9.68571e-05
-0.00020286 -0.000205246 0.000197745 0.000282817 9.78496e-05 9.52539e-05
-0.000264953 -0.000271127 0.000179279 0.000263659 9.59979e-05 9.36035e-05
-0.000332165 -0.000342083 0.000153963 0.000237562 9.38727e-05 9.17314e-05
-0.000404266 -0.000418007 0.000121719 0.000204522 9.12287e-05 8.94508e-05
-0.00048104 -0.000498794 8.27694e-05 0.00016466 8.78267e-05 8.64917e-05
-0.000562265 -0.000584035 3.7444e-05 0.000118299 8.33299e-05 8.24206e-05
-0.000647305 -0.000673135 -1.45874e-05 6.59268e-05 7.72658e-05 7.68661e-05
-0.000735275 -0.000765263 -7.74704e-05 8.34013e-06 6.92378e-05 6.93377e-05
-0.000825375 -0.000859487 -0.000145192 -5.90334e-05 5.86887e-05 5.93235e-05
-0.000916774 -0.000954877 -0.000216984 -0.000132134 4.51232e-05 4.63377e-05
-0.00100858 -0.00105063 -0.000292006 -0.000208668 2.80418e-05 2.98132e-05
-0.00109997 -0.00114594 -0.000369376 -0.000287181 6.94368e-06 9.14869e-06
-0.00119015 -0.00123985 -0.000448015 -0.000367043 -1.92653e-05 -1.62606e-05
-0.00127834 -0.00133167 -0.000526615 -0.00044689 -5.23034e-05 -4.89896e-05
-0.00136366 -0.00142054 -0.000604412 -0.00052574 -8.912e-05 -8.4756e-05
-0.00144537 -0.00150552 -0.000680875 -0.0006031 -0.000130905 -0.000125619
-0.00152271 -0.00158598 -0.000755235 -0.000678333 -0.000177771 -0.000171601
-0.00159506 -0.00166121 -0.000826988 -0.000750853 -0.000229573 -0.000222292
-0.00166182 -0.0017306 -0.000895782 -0.000820284 -0.000285746 -0.000277418
-0.00172253 -0.00179367 -0.000961342 -0.000886323 -0.000345735 -0.000336567
-0.00177695 -0.00185016 -0.00102346 -0.000948836 -0.000408973 -0.000398956
-0.00182512 -0.00190013 -0.00108205 -0.00100772 -0.000474772 -0.000463847
-0.0018674 -0.00194394 -0.00113708 -0.00106292 -0.000542213 -0.000530393
-0.00190429 -0.00198213 -0.00118857 -0.0011145 -0.000610298 -0.000597686
-0.00193646 -0.00201539 -0.00123657 -0.00116253 -0.000678054 -0.000664736
-0.00196457 -0.00204444 -0.00128122 -0.00120716 -0.000744514 -0.000730483
-0.00198926 -0.00206991 -0.00132268 -0.00124857 -0.00080864 -0.000793909
-0.00201107 -0.00209239 -0.00136116 -0.00128696 -0.000869383 -0.000854023
-0.00203051 -0.0021124 -0.00139682 -0.00132254 -0.000925776 -0.000909864
-0.0020481 -0.00213049 -0.00142982 -0.00135547 -0.000976961 -0.000960538
-0.00206441 -0.00214725 -0.00146025 -0.00138585 -0.00102216 -0.00100525
-0.00208083 -0.0021637 -0.00148374 -0.00141142 -0.00102529 -0.00102347
-0.00209668 -0.00218059 -0.00150536 -0.00143238 -0.00101979 -0.00101881
-0.0021131 -0.00219728 -0.0015253 -0.00145197 -0.00101577 -0.00102253
-0.0021299 -0.00221484 -0.00154276 -0.00147017 -0.00101628 -0.00102069
-0.00214761 -0.0022332 -0.00155849 -0.00148624 -0.0010187 -0.0010207
-0.00216609 -0.0022524 -0.0015721 -0.00149986 -0.00101874 -0.00102111
-0.00218512 -0.00227216 -0.00158274 -0.00151072 -0.00101318 -0.00101686
-0.00220423 -0.00229213 -0.0015897 -0.00151813 -0.00100097 -0.00100453
-0.00222265 -0.00231139 -0.00159314 -0.00152189 -0.00098234 -0.000984583
-0.00223938 -0.00232895 -0.00159293 -0.00152192 -0.000956672 -0.000958261
-0.00225323 -0.00234339 -0.00158882 -0.00151813 -0.000924387 -0.000926253
-0.00226171 -0.00235239 -0.0015809 -0.00151062 -0.000886996 -0.000888782
-0.00226401 -0.00235492 -0.001569 -0.00149905 -0.000845616 -0.000846612
-0.0022595 -0.00235053 -0.00155273 -0.00148303 -0.000800656 -0.000800874
-0.00224801 -0.00233901 -0.00153155 -0.00146212 -0.000752709 -0.000752702
-0.00222988 -0.00232073 -0.00150511 -0.00143592 -0.000702989 -0.000702893
-0.0022055 -0.00229606 -0.00147317 -0.00140409 -0.000652676 -0.000652197
-0.00217518 -0.00226535 -0.00143552 -0.00136645 -0.000602461 -0.000601521
-0.00213916 -0.00222884 -0.00139212 -0.001323 -0.000552827 -0.000551719
-0.00209751 -0.0021866 -0.0013432 -0.00127389 -0.00050443 -0.000503393
-0.00205012 -0.0021385 -0.00128911 -0.0012195 -0.000457928 -0.000456938
-0.00199664 -0.0020842 -0.00123042 -0.00116041 -0.000413686 -0.000412697
-0.00193659 -0.00202317 -0.00116786 -0.00109737 -0.000371813 -0.00037095
-0.00186933 -0.00195474 -0.00110229 -0.00103124 -0.000332386 -0.000331819
-0.00179419 -0.0018782 -0.00103464 -0.000962966 -0.000295489 -0.000295266
-0.00171081 -0.00179316 -0.000965801 -0.000893459 -0.000261104 -0.000261193
-0.00161948 -0.00169989 -0.000896569 -0.000823531 -0.000229081 -0.000229499
-0.00152106 -0.00159927 -0.000827614 -0.00075386 -0.000199235 -0.00020005
-0.00141679 -0.00149255 -0.000759483 -0.000685007 -0.000171414 -0.00017266
-0.00130803 -0.00138114 -0.000692626 -0.000617433 -0.000145467 -0.000147118
-0.0011962 -0.00126647 -0.000627408 -0.00055151 -0.000121193 -0.000123227
-0.00108267 -0.00114998 -0.000564121 -0.000487532 -9.83721e-05 -0.000100796
-0.000968741 -0.001033 -0.00050299 -0.000425731 -7.68079e-05 -7.96309e-05
-0.000855538 -0.000916679 -0.00044419 -0.000366286 -5.63296e-05 -5.95306e-05
-0.000743977 -0.000801981 -0.000387861 -0.000309342 -3.67673e-05 -4.03129e-05
-0.000634625 -0.000689488 -0.000334125 -0.000255026 -1.79435e-05 -2.18138e-05
-0.000527582 -0.000579337 -0.000283391 -0.000203622 -4.64296e-06 -7.60975e-06
-0.000422766 -0.000471327 -0.000235592 -0.000155397 7.08329e-06 4.32973e-06
-0.000320087 -0.000365549 -0.000190547 -0.00010995 1.85087e-05 1.5417e-05
-0.000219927 -0.00026227 -0.000148206 -6.71353e-05 2.98811e-05 2.68158e-05
-0.00012312 -0.000162407 -0.00010827 -2.67949e-05 4.12344e-05 3.76717e-05
-3.17196e-05 -6.88404e-05 -7.03166e-05 9.06525e-06 5.23258e-05 4.86705e-05
3.0798e-05 -5.85562e-06 -3.42768e-05 4.33996e-05 6.32952e-05 5.93322e-05
7.21764e-05 4.16681e-05 1.53572e-06 7.61649e-05 7.39813e-05 7.01501e-05
0.000111775 8.23637e-05 3.28094e-05 0.000108686 8.46258e-05 8.01783e-05
0.000146761 0.000119833 6.16245e-05 0.000137796 9.52166e-05 9.09225e-05
0.000176948 0.000152134 8.78467e-05 0.000164992 0.000105833 0.000101257
0.000202792 0.000179492 0.00011179 0.000189149 0.000116466 0.000111809
0.000223836 0.000201828 0.000132878 0.000210558 0.000127117 0.000122378
0.000240126 0.000219189 0.00015081 0.000228858 0.000137727 0.000132873
0.000252176 0.00023199 0.000165626 0.000243909 0.000148234 0.000143395
0.000260211 0.000240459 0.000177179 0.000255539 0.000158575 0.000153685
0.000264631 0.000245269 0.000185294 0.000263695 0.000168612 0.000163792
0.000265955 0.000246717 0.000189978 0.000268398 0.000178207 0.000173421
0.000264307 0.000245065 0.000191283 0.000269631 0.000187209 0.000182517
0.00025988 0.000240589 0.000189347 0.000267567 0.000195419 0.00019081
0.000252993 0.000233566 0.000184422 0.000262482 0.000202607 0.000198133
0.000243894 0.000224241 0.000176815 0.000254688 0.000208558 0.000204222
0.000232832 0.000212899 0.000166878 0.000244533 0.000213062 0.000208862
0.000220116 0.000199825 0.000154984 0.000232385 0.000215897 0.000211833
0.000206069 0.000185349 0.000141481 0.000218623 0.00021686 0.000212937
0.000190133 0.000169049 0.000126777 0.000203672 0.000215475 0.000211714
0.000172457 0.0001509 0.00011117 0.000187822 0.00021126 0.00020757
0.000154197 0.000132184 9.4806e-05 0.00017121 0.000204089 0.000200477
0.000136671 0.00011421 7.77428e-05 0.000153933 0.000193952 0.000190405
0.000120917 9.80682e-05 6.0063e-05 0.00013608 0.00018092 0.000177374
0.000107504 8.43553e-05 4.19057e-05 0.000117771 0.000165093 0.000161495
9.65579e-05 7.31998e-05 2.34438e-05 9.91768e-05 0.000146605 0.000142926
8.77665e-05 6.42787e-05 4.87454e-06 8.05102e-05 0.000125656 0.000121883
8.05001e-05 5.69321e-05 -1.43246e-05 6.20206e-05 0.000102528 9.86193e-05
7.4037e-05 5.04157e-05 -3.44008e-05 4.39135e-05 7.7566e-05 7.34651e-05
6.77971e-05 4.41302e-05 -5.39777e-05 2.6291e-05 5.10982e-05 4.67814e-05
6.15261e-05 3.7795e-05 -7.29787e-05 9.18703e-06 2.35557e-05 1.90052e-05
5.50676e-05 3.12658e-05 -9.14351e-05 -7.58695e-06 -4.60612e-06 -9.3924e-06
4.82683e-05 2.43843e-05 -0.000109017 -2.53106e-05 -3.37339e-05 -4.00585e-05
4.11944e-05 1.7175e-05 -0.000126294 -4.24308e-05 -6.38244e-05 -7.08163e-05
3.40428e-05 9.91633e-06 -0.000143316 -5.93648e-05 -9.30919e-05 -0.000100191
2.71845e-05 2.95175e-06 -0.000160232 -7.62508e-05 -0.000121087 -0.000128466
2.10826e-05 -3.22305e-06 -0.000177196 -9.32025e-05 -0.000147318 -0.000154725
1.62792e-05 -8.23017e-06 -0.000194301 -0.00011032 -0.000171268 -0.000178785
1.33643e-05 -1.13895e-05 -0.000211523 -0.000127583 -0.000192611 -0.000200316
1.29597e-05 -1.16711e-05 -0.000228756 -0.000144937 -0.000211173 -0.000218918
1.56743e-05 -8.34863e-06 -0.0002458 -0.000162133 -0.000226787 -0.000234499
2.20721e-05 -1.38168e-06 -0.000262315 -0.000178833 -0.000239308 -0.000246948
3.26808e-05 9.77847e-06 -0.000277836 -0.000194568 -0.000248702 -0.00025629
4.80699e-05 2.59373e-05 -0.000291809 -0.000208785 -0.000255074 -0.000262589
6.12319e-05 3.85746e-05 -0.000302997 -0.000219606 -0.000258594 -0.000266095
6.93753e-05 4.89877e-05 -0.000309267 -0.000226303 -0.000259606 -0.000267052
8.11071e-05 6.06483e-05 -0.00031247 -0.000229422 -0.000257823 -0.000265122
9.56272e-05 7.67149e-05 -0.000311771 -0.000228517 -0.000253375 -0.000260712
0.000112961 9.4864e-05 -0.000306785 -0.000223266 -0.000246454 -0.000253711
0.000132755 0.000115939 -0.000297051 -0.000213325 -0.000237187 -0.000244514
0.000154689 0.00013896 -0.000282448 -0.000198482 -0.000225752 -0.000233114
0.000178402 0.000163857 -0.00026294 -0.000178635 -0.000212279 -0.000219692
0.000203421 0.000189954 -0.000238515 -0.000153797 -0.000196823 -0.000204345
0.000229174 0.00021673 -0.000209301 -0.000124204 -0.00017942 -0.000187081
0.000255072 0.000243538 -0.000175647 -9.0144e-05 -0.000160106 -0.000167924
0.000279386 0.000269501 -0.000138155 -5.2169e-05 -0.000138847 -0.000146824
0.00029889 0.000290185 -9.7632e-05 -1.09172e-05 -0.000115527 -0.000123701
0.000313964 0.000305881 -5.36681e-05 2.9492e-05 -9.01707e-05 -9.86136e-05
0.000325121 0.000316894 -7.45585e-06 7.14294e-05 -6.27721e-05 -7.12819e-05
0.000331893 0.000323533 3.51841e-05 0.000114589 -3.31029e-05 -4.19063e-05
0.00033479 0.000326041 7.74044e-05 0.000157425 -5.5939e-06 -1.09059e-05
0.000334229 0.000324806 0.000117543 0.000198096 1.8361e-05 1.14355e-05
0.000330029 0.000319955 0.000155289 0.000236199 4.31487e-05 3.68863e-05
0.000322693 0.000311949 0.00018937 0.00027056 6.94488e-05 6.31832e-05
0.000312746 0.000301207 0.000218979 0.000300453 9.73775e-05 9.09468e-05
0.000300421 0.000288114 0.000243565 0.000325129 0.000126338 0.000119766
0.000285932 0.000272853 0.000262746 0.000344241 0.000155826 0.000149451
0.00026955 0.000255704 0.000276278 0.000357584 0.000185523 0.000179553
0.000251724 0.000237144 0.000284162 0.000365221 0.000215138 0.000209365
0.000233132 0.000217878 0.000286633 0.000367303 0.000244024 0.000238437
0.00021447 0.000198601 0.000284073 0.000364256 0.000271398 0.000266111
0.000196239 0.00017984 0.000277031 0.000356678 0.000296594 0.000291774
0.000178763 0.000161916 0.000266239 0.000345326 0.000319058 0.000314633
0.00016232 0.000145103 0.000252529 0.000331037 0.000338156 0.000334037
0.000147219 0.000129709 0.000236743 0.000314684 0.000353195 0.00034937
0.000133828 0.000116097 0.000219697 0.000297123 0.000363594 0.000360102
0.000122538 0.000104658 0.000202157 0.000279137 0.000368955 0.000365745
0.000113671 9.57153e-05 0.000184787 0.000261411 0.000368748 0.00036578
0.000107414 8.94569e-05 0.000167975 0.000244353 0.000361777 0.000358758
0.000103707 8.58124e-05 0.000152167 0.000228402 0.000347684 0.000344639
0.000102293 8.45125e-05 0.000137641 0.000213841 0.00032663 0.000323497
0.000102807 8.51785e-05 0.000124499 0.000200782 0.000299036 0.000295666
0.0001049 8.74462e-05 0.000112669 0.000189149 0.000265457 0.000261654
0.000108297 9.10346e-05 0.000101909 0.000178668 0.000226548 0.00022224
0.000112743 9.56848e-05 9.18143e-05 0.000168924 0.000183151 0.000178313
0.000117877 0.00010103 8.18828e-05 0.000159396 0.000136293 0.000130873
0.000123121 0.000106484 7.15694e-05 0.000149515 8.70782e-05 8.10038e-05
0.000127784 0.000111344 6.03133e-05 0.000138689 3.66172e-05 2.98694e-05
0.000131238 0.000114969 4.75621e-05 0.000126353 -1.34756e-05 -2.17295e-05
0.000132805 0.000116613 3.39487e-05 0.000113066 -6.28854e-05 -7.10959e-05
0.000132261 0.00011617 1.7473e-05 9.69309e-05 -0.000109962 -0.000118953
0.000129011 0.000112897 -1.80588e-06 7.79098e-05 -0.000154343 -0.000164335
0.000122275 0.000106086 -2.59074e-05 5.57649e-05 -0.000195542 -0.000205559
0.000111224 9.48633e-05 -5.39199e-05 3.04698e-05 -0.000232706 -0.000242448
9.55175e-05 7.96362e-05 -8.5226e-05 2.05676e-06 -0.000264873 -0.000274808
7.58388e-05 5.97131e-05 -0.000119457 -3.16958e-05 -0.000291836 -0.000301994
5.17437e-05 3.5137e-05 -0.000156244 -6.89594e-05 -0.000313753 -0.00032383
2.38788e-05 6.66641e-06 -0.000195068 -0.000108324 -0.000330631 -0.000340239
-6.81351e-06 -2.6905e-05 -0.000235288 -0.000149039 -0.000342359 -0.000351643
-4.11202e-05 -6.2614e-05 -0.000275995 -0.000190501 -0.000349173 -0.000358148
-7.60815e-05 -9.80199e-05 -0.000316376 -0.000231636 -0.000351538 -0.000360211
-0.000113608 -0.000136155 -0.000355128 -0.000271016 -0.00034964 -0.000357725
-0.00015009 -0.000173925 -0.000391599 -0.000308208 -0.000343782 -0.000351201
-0.000184584 -0.000209287 -0.000424864 -0.000342129 -0.000334592 -0.000341588
-0.000216079 -0.000241818 -0.00045399 -0.000371818 -0.000322913 -0.000329448
-0.000243705 -0.000270211 -0.000478128 -0.000396467 -0.000309552 -0.00031562
-0.000266559 -0.000293783 -0.000496509 -0.000415291 -0.000295183 -0.000300767
-0.000283863 -0.000311628 -0.000508535 -0.000427665 -0.000280379 -0.000285619
-0.000294971 -0.000323112 -0.000513769 -0.000433122 -0.000265688 -0.000270706
-0.000299397 -0.000327718 -0.000511913 -0.000431376 -0.000251586 -0.000256449
-0.000296843 -0.000325165 -0.000502841 -0.00042229 -0.000238388 -0.000243157
-0.000287657 -0.000315867 -0.000486546 -0.000405835 -0.000226244 -0.000231033
-0.000273152 -0.000301157 -0.000463174 -0.000382163 -0.000215185 -0.000220126
-0.000254296 -0.000282023 -0.000433156 -0.000351704 -0.00020511 -0.000210308
-0.000232114 -0.000259531 -0.000397145 -0.000315141 -0.000195791 -0.000201308
-0.000207515 -0.00023461 -0.000356034 -0.000273367 -0.000186849 -0.000192751
-0.000177396 -0.000203577 -0.000311366 -0.000228073 -0.000177722 -0.000184071
-0.000145457 -0.00017112 -0.000263865 -0.000179972 -0.000168051 -0.000174818
-0.000113041 -0.000138044 -0.000214787 -0.000130063 -0.000157222 -0.000164467
-8.06815e-05 -0.000105125 -0.000165258 -7.99125e-05 -0.000144736 -0.000152399
-4.91591e-05 -7.29979e-05 -0.000116569 -3.05367e-05 -0.000130106 -0.000138158
-1.92563e-05 -4.39467e-05 -6.98863e-05 1.36665e-05 -0.000112884 -0.000121176
4.54206e-06 -1.78381e-05 -2.65764e-05 5.35452e-05 -9.27025e-05 -0.00010131
2.49867e-05 4.5752e-06 1.06464e-05 8.946e-05 -6.94669e-05 -7.82043e-05
4.40841e-05 2.437e-05 4.22012e-05 0.00012128 -4.32897e-05 -5.20589e-05
6.24203e-05 4.32314e-05 6.8983e-05 0.000148339 -1.49749e-05 -2.29525e-05
8.02053e-05 6.19097e-05 9.02255e-05 0.000169683 7.92425e-06 1.55828e-06
9.82296e-05 8.08325e-05 0.000106534 0.000185973 3.18227e-05 2.56679e-05
0.000116408 0.000100686 0.000118012 0.000197213 5.68754e-05 5.12301e-05
0.000122003 0.000107 0.000127238 0.000206594 8.24528e-05 7.69499e-05
0.000127762 0.000113976 0.000133036 0.000212207 0.000108248 0.000102632
0.000134193 0.000120954 0.000135513 0.000214202 0.000133282 0.000128104
0.00014219 0.000130439 0.00013535 0.000214247 0.000157017 0.000152034
0.000152436 0.000141691 0.000133467 0.000212214 0.000179073 0.000174575
0.000165352 0.000156426 0.000130709 0.000209449 0.000198863 0.000194282
0.000181309 0.000174032 0.000127961 0.000206684 0.000215612 0.0002113
0.000200316 0.00019506 0.000126085 0.000204945 0.00022882 0.000224661
0.000222283 0.000219086 0.000125967 0.000205027 0.000238193 0.000234195
0.000246987 0.000245973 0.000128352 0.000207643 0.000243476 0.000239415
0.000274049 0.000275198 0.000133752 0.000213396 0.000244327 0.00024021
0.000303146 0.000306464 0.000142392 0.000222484 0.000240126 0.000235765
0.000334063 0.000339492 0.000154386 0.000234992 0.000230894 0.000226267
0.000366546 0.000374029 0.00016958 0.000250748 0.000217038 0.000212033
0.000400236 0.000409707 0.000187592 0.00026941 0.000199123 0.000193632
0.000434649 0.000446023 0.000207898 0.000290422 0.000177839 0.000171773
0.000468295 0.000481265 0.000229959 0.000313288 0.000153977 0.000147284
0.000499567 0.000513887 0.000253114 0.000337259 0.000128439 0.0001211
0.000528681 0.000544269 0.000276283 0.000361235 0.000102253 9.42371e-05
0.000555804 0.000572535 0.000298316 0.000384067 7.64346e-05 6.77601e-05
0.000581158 0.000598972 0.000318134 0.000404626 5.19689e-05 4.2678e-05
0.000604998 0.000623847 0.000334767 0.000421889 2.9768e-05 1.99467e-05
0.000627552 0.000647446 0.000347388 0.000435012 1.06304e-05 3.73201e-07
0.000648984 0.00066995 0.000355444 0.000443452 -4.45262e-06 -1.44442e-05
0.000669319 0.000691372 0.000358749 0.000446988 -1.47369e-05 -2.61262e-05
0.000688501 0.000711709 0.000357128 0.000445469 -2.09394e-05 -3.33495e-05
0.000698552 0.000723887 0.000352048 0.000440092 -2.35704e-05 -3.58302e-05
0.000703264 0.000729864 0.000343505 0.000431369 -2.16948e-05 -3.39816e-05
0.000703828 0.000730424 0.000331496 0.000419386 -1.58121e-05 -2.68651e-05
0.000701493 0.000728894 0.000316619 0.000404243 -7.0107e-06 -1.57517e-05
0.000696967 0.000724479 0.00029957 0.000386986 4.15123e-06 -4.07967e-06
0.000690843 0.00071887 0.000281392 0.000368449 1.73561e-05 9.43677e-06
0.000684044 0.000712376 0.000263071 0.000349711 3.21905e-05 2.4711e-05
0.000677385 0.000706053 0.00024557 0.000331864 4.8053e-05 4.08777e-05
0.000671695 0.000700733 0.000229927 0.000315926 6.42629e-05 5.73722e-05
0.000667902 0.000697324 0.000217131 0.000302817 8.01381e-05 7.35173e-05
0.000666861 0.00069672 0.000207982 0.000293433 9.50779e-05 8.87441e-05
0.000669344 0.000699717 0.000203155 0.000288482 0.000108623 0.000102494
0.000676022 0.000707007 0.000203214 0.000288519 0.000120379 0.000114342
0.000687389 0.000719092 0.000208531 0.0002939 0.000130018 0.000124003
0.000703724 0.000736273 0.000219257 0.000304814 0.000137343 0.000131303
0.000724187 0.000758434 0.000235312 0.000321197 0.000142334 0.000136196
0.000748154 0.000785395 0.000256033 0.000342684 0.000145163 0.000138776
0.000775856 0.000814421 0.000281351 0.000368508 0.000145941 0.000139291
0.00080758 0.000847788 0.000310887 0.000398645 0.000144722 0.000137683
0.000841992 0.000883936 0.000343861 0.000432418 0.000141973 0.000134518
0.000877336 0.000920951 0.000379814 0.000469218 0.000138198 0.000130263
0.000911849 0.00095691 0.000418023 0.000508284 0.000134003 0.000125576
0.00094405 0.00099048 0.000457503 0.00054869 0.000130056 0.000121085
0.000972816 0.00102042 0.000497249 0.000589349 0.000127032 0.000117545
0.000997414 0.0010459 0.000536149 0.000629103 0.0001256 0.000115624
0.00101735 0.00106649 0.000572997 0.000666741 0.000126392 0.000115996
0.00103227 0.00108181 0.000606677 0.000701117 0.000129961 0.000119214
0.00104161 0.00109126 0.000636233 0.000731239 0.000136728 0.000125725
0.00104458 0.00109406 0.000660881 0.000756304 0.000146967 0.00013582
0.00103997 0.00108903 0.000679883 0.000775578 0.000160119 0.000149368
0.00102687 0.00107527 0.000692483 0.000788255 0.000175459 0.000164482
0.00100486 0.00105233 0.000698658 0.000794336 0.000193615 0.00018295
0.000973574 0.00101978 0.00069833 0.000793742 0.000214457 0.000204064
0.00093271 0.000977373 0.000691634 0.00078665 0.00023749 0.000227317
0.000882375 0.000925194 0.000678861 0.000773307 0.000262051 0.000252242
0.000823122 0.000863788 0.000660379 0.000754132 0.000287374 0.000278035
0.000755933 0.000794196 0.00063661 0.000729564 0.000312734 0.000303974
0.000682149 0.000717794 0.000608054 0.000700133 0.00033734 0.000329107
0.000603207 0.00063607 0.000575275 0.000666414 0.000360298 0.000352616
0.000520568 0.000550543 0.000538879 0.000629043 0.00038069 0.000373592
0.000435797 0.000462832 0.000499485 0.000588666 0.000397674 0.000391185
0.000350589 0.000374691 0.000457702 0.00054591 0.000410477 0.000404553
0.000266643 0.000287879 0.000414114 0.000501385 0.000418377 0.000412959
0.000185403 0.000203891 0.000369297 0.000455688 0.000420718 0.000415768
0.000107909 0.000123797 0.000323769 0.000409364 0.000416516 0.000412023
3.47793e-05 4.82576e-05 0.000278008 0.000362898 0.000404993 0.000400775
-3.35804e-05 -1.94389e-05 0.000232865 0.000317513 0.000385793 0.000381728
-9.77436e-05 -8.66796e-05 0.000189222 0.000272922 0.000358797 0.000354884
-0.000143477 -0.000132688 0.000144209 0.000226834 0.000324723 0.000320826
-0.000183371 -0.000175236 0.000100129 0.000182452 0.00028334 0.000279364
-0.000217542 -0.000210347 5.73944e-05 0.000139455 0.00023535 0.000231088
-0.000246279 -0.000241092 1.62855e-05 9.78116e-05 0.000181381 0.000176923
-0.000270326 -0.000265866 -2.60494e-05 5.79357e-05 0.000122311 0.000117283
-0.000289882 -0.000286443 -6.85712e-05 1.9507e-05 5.90111e-05 5.35998e-05
-0.000305943 -0.00030321 -0.000109563 -1.88646e-05 -7.34588e-06 -1.33828e-05
-0.000320225 -0.000318098 -0.000147139 -5.66671e-05 -7.45349e-05 -7.87887e-05
-0.000333571 -0.000332186 -0.000183895 -9.32279e-05 -0.000138917 -0.000144911
-0.000347636 -0.000346972 -0.000219703 -0.000128844 -0.000202994 -0.000209518
-0.000363928 -0.000364157 -0.000254776 -0.000163779 -0.0002664 -0.000274037
-0.000383667 -0.000384917 -0.000289618 -0.000198801 -0.000327867 -0.000334691
-0.000407784 -0.000410364 -0.000324827 -0.000234022 -0.00038551 -0.000392659
-0.000436886 -0.000441026 -0.00036073 -0.000269926 -0.000438338 -0.000446315
-0.000471237 -0.000477176 -0.000397642 -0.000307139 -0.000486151 -0.000494445
-0.000510882 -0.000518894 -0.000435978 -0.000345826 -0.000528429 -0.000536634
-0.000555737 -0.000566017 -0.000476011 -0.000386276 -0.000564233 -0.000572139
-0.00060554 -0.000618282 -0.00051778 -0.000428574 -0.000592923 -0.000600895
-0.000659851 -0.000675217 -0.000561186 -0.000472645 -0.00061453 -0.000622536
-0.000718116 -0.000736231 -0.000606017 -0.000518256 -0.000629275 -0.000636896
-0.000779801 -0.000800774 -0.000651852 -0.000564929 -0.000637207 -0.000644268
-0.00084449 -0.000868414 -0.000698025 -0.000612028 -0.000638142 -0.000644703
-0.000911833 -0.000938817 -0.000743593 -0.000658604 -0.000631637 -0.000637538
-0.000981388 -0.00101153 -0.000787761 -0.000703807 -0.000618395 -0.000623602
-0.00105254 -0.00108594 -0.000829661 -0.000746766 -0.000599402 -0.000603803
-0.00112452 -0.00116126 -0.000868441 -0.000786621 -0.000575673 -0.000579255
-0.00119655 -0.00123669 -0.000903323 -0.000822573 -0.000548293 -0.000551058
-0.00126786 -0.00131145 -0.000933621 -0.000853897 -0.000518383 -0.000520368
-0.00133763 -0.00138469 -0.000958777 -0.000880024 -0.000487048 -0.000488285
-0.00140488 -0.00145537 -0.000978424 -0.000900583 -0.000455315 -0.000455852
-0.00146846 -0.00152232 -0.000992409 -0.000915396 -0.000424112 -0.000424031
-0.00152728 -0.00158437 -0.00100077 -0.000924477 -0.000394264 -0.000393656
-0.00158042 -0.00164054 -0.00100369 -0.000928012 -0.000366476 -0.000365435
-0.00162728 -0.00169019 -0.0010015 -0.00092632 -0.000341316 -0.000339935
-0.00166773 -0.0017332 -0.000994626 -0.000919824 -0.000319212 -0.000317588
-0.0017022 -0.00176999 -0.000983566 -0.000909029 -0.000300453 -0.000298686
-0.0017315 -0.00180142 -0.000968915 -0.000894544 -0.000285187 -0.00028337
-0.00175661 -0.0018285 -0.000951382 -0.000877097 -0.000273427 -0.000271641
-0.0017786 -0.00185234 -0.0009318 -0.000857534 -0.000265053 -0.000263366
-0.00179839 -0.00187391 -0.000911121 -0.000836825 -0.000259824 -0.000258294
-0.00181676 -0.001894 -0.000890393 -0.00081604 -0.000257406 -0.000256072
-0.00183433 -0.00191322 -0.000870726 -0.000796304 -0.000257395 -0.000256277
-0.00185164 -0.00193213 -0.000853223 -0.000778737 -0.000259351 -0.000258448
-0.00186918 -0.00195121 -0.000838936 -0.000764406 -0.000262825 -0.00026212
-0.00188736 -0.00197086 -0.000828816 -0.000754281 -0.000267391 -0.000266853
-0.00190647 -0.00199136 -0.000823686 -0.000749197 -0.000272676 -0.000272256
-0.00192663 -0.00201282 -0.0008242 -0.000749817 -0.000278381 -0.000278017
-0.00194778 -0.00203516 -0.000830817 -0.000756604 -0.000284297 -0.000283921
-0.00196977 -0.0020582 -0.000843765 -0.00076979 -0.000290325 -0.000289865
-0.00199227 -0.0020816 -0.000863033 -0.000789359 -0.000296479 -0.000295864
-0.00201447 -0.00210427 -0.00088839 -0.000815124 -0.000302885 -0.000302042
-0.00203184 -0.00212203 -0.000919951 -0.000847239 -0.000309695 -0.000308536
-0.00204379 -0.00213387 -0.000956898 -0.000884762 -0.000317294 -0.000315767
-0.00205018 -0.00213983 -0.000997994 -0.000926499 -0.00032615 -0.000324199
-0.0020512 -0.00214014 -0.00104173 -0.000970941 -0.000336784 -0.0003344
-0.00204682 -0.0021349 -0.0010865 -0.00101642 -0.000349755 -0.000346952
-0.00203673 -0.00212377 -0.00113058 -0.00106117 -0.000365593 -0.000362403
-0.00202059 -0.00210644 -0.00117238 -0.00110356 -0.000384717 -0.000381219
-0.00199786 -0.00208235 -0.00121038 -0.00114207 -0.000407434 -0.000403725
-0.00196771 -0.00205068 -0.00124327 -0.00117533 -0.000433906 -0.000430098
-0.00192903 -0.00201031 -0.00126995 -0.00120224 -0.000464105 -0.000460323
-0.00188052 -0.00195991 -0.00128955 -0.00122192 -0.000497806 -0.000494186
-0.00182095 -0.00189821 -0.00130143 -0.00123371 -0.000534591 -0.000531272
-0.00174923 -0.00182411 -0.00130514 -0.00123718 -0.000573856 -0.000570969
-0.00166451 -0.00173671 -0.00130042 -0.00123205 -0.000614817 -0.000612484
-0.00156637 -0.00163558 -0.0012871 -0.00121822 -0.000655527 -0.000654719
-0.00145518 -0.00152112 -0.00126408 -0.00119453 -0.000688949 -0.000688524
-0.00133161 -0.00139396 -0.00123277 -0.0011625 -0.000720455 -0.000721083
-0.00119715 -0.00125568 -0.00119299 -0.00112172 -0.000750112 -0.000751973
-0.00105361 -0.00110808 -0.00114493 -0.00107267 -0.000777156 -0.000779612
-0.000902847 -0.000953053 -0.00108904 -0.00101577 -0.000800251 -0.000802999
-0.000746558 -0.000792369 -0.00102579 -0.000951308 -0.000817966 -0.000821819
-0.000586103 -0.000627395 -0.000955702 -0.000880043 -0.000829565 -0.000834465
-0.00042259 -0.000459269 -0.000879452 -0.000802636 -0.000834448 -0.000840182
-0.000257037 -0.000289563 -0.000797735 -0.000719715 -0.00083121 -0.000837672
-0.000131417 -0.000164047 -0.000706005 -0.00062592 -0.000818336 -0.000825444
-1.29572e-05 -4.32168e-05 -0.000610716 -0.000528526 -0.00079318 -0.000801647
8.21917e-05 6.00566e-05 -0.000515098 -0.000432574 -0.000755586 -0.000764613
0.000173066 0.000156802 -0.000419067 -0.000333671 -0.000705863 -0.000715565
0.000261379 0.000250006 -0.000321438 -0.000234754 -0.000643717 -0.000653851
0.000344459 0.000337689 -0.000224051 -0.00013625 -0.000569243 -0.000579382
0.000421753 0.000420424 -0.00012801 -3.86129e-05 -0.000483113 -0.000493646
0.000494229 0.000497287 -3.29122e-05 5.05452e-05 -0.000386302 -0.000396623
0.000561114 0.000568492 5.37482e-05 0.000135885 -0.000279694 -0.000289793
0.000622268 0.000634072 0.000136536 0.000219665 -0.000165051 -0.000174613
0.00067882 0.000694471 0.000217646 0.000301854 -4.39071e-05 -5.30995e-05
0.000731647 0.000750898 0.000294865 0.000380035 4.82877e-05 4.18823e-05
0.000781198 0.0008045 0.000370133 0.000456043 0.000134199 0.000129094
0.000829231 0.000856068 0.000443837 0.000530247 0.000220829 0.000216719
0.000876859 0.000907552 0.00051586 0.00060288 0.000308129 0.000304985
0.000925575 0.000960107 0.000586712 0.000674893 0.000394518 0.000389399
0.000976704 0.0010155 0.000656809 0.000745531 0.000477221 0.000472787
0.00103142 0.00107462 0.000726221 0.000815879 0.000555128 0.000551032
0.00109065 0.00113879 0.000795166 0.000885832 0.000628139 0.000624885
0.00115511 0.00120851 0.000863984 0.000955839 0.000695598 0.000691528
0.0012253 0.00128447 0.00093291 0.001026 0.00075596 0.000751572
0.00130164 0.00136701 0.00100199 0.00109645 0.000808177 0.000803781
0.0013852 0.00145699 0.00106657 0.00116345 0.000819114 0.000816104
0.00147464 0.00155429 0.0011315 0.00122951 0.00081711 0.000811739
0.00157018 0.00165711 0.00119778 0.00129699 0.000814983 0.000813583
0.0016705 0.00176573 0.00126413 0.00136558 0.000816557 0.000813212
0.00177522 0.00187868 0.00133115 0.00143495 0.000820207 0.000813442
0.00188315 0.00199528 0.00139814 0.00150394 0.00082205 0.000814961
0.0019935 0.00211438 0.00146385 0.00157174 0.000818471 0.000811761
0.00210533 0.00223521 0.00152685 0.00163717 0.000807913 0.000800586
0.00221764 0.0023566 0.00158678 0.00169939 0.000791458 0.000782284
0.00232859 0.00247652 0.00164304 0.0017579 0.000769302 0.000758678
0.00240595 0.00256365 0.00169986 0.00181763 0.000741506 0.000730245
0.00245282 0.00264224 0.00174648 0.00186857 0.000712073 0.000699621
0.00245723 0.0027003 0.00177326 0.00190632 0.00068372 0.000668274
0.00246417 0.00270122 0.00179085 0.00192297 0.000654988 0.000639491
0.00248679 0.00271365 0.00181042 0.00194166 0.000624294 0.000608793
0.00249669 0.00273422 0.00182307 0.00195631 0.000594819 0.000578177
0.00249921 0.00274357 0.00182844 0.00196258 0.000567096 0.00054973
0.00251102 0.00275964 0.00183348 0.00196828 0.000539521 0.000522142
0.00251923 0.00277221 0.00183334 0.00196937 0.00051449 0.000496909
0.00252106 0.0027849 0.00182814 0.00196629 0.000492774 0.000474086
0.00252485 0.00279881 0.00182141 0.00196081 0.000473499 0.000454303
0.00252854 0.0028101 0.00181176 0.00195232 0.000457107 0.000437883
0.00252855 0.00281946 0.00179858 0.00194099 0.000444356 0.000424857
0.00252602 0.00282244 0.001783 0.00192602 0.000435437 0.000415606
0.00251925 0.00281929 0.00176461 0.00190781 0.000430079 0.000410152
0.00250676 0.00281129 0.00174334 0.00188726 0.000428067 0.000408288
0.00249078 0.00279917 0.00172069 0.0018651 0.000429207 0.000409622
0.00247244 0.00278396 0.00169766 0.00184217 0.00043318 0.000413714
0.00245241 0.00276715 0.00167474 0.0018195 0.000439393 0.000420048
0.00243224 0.00274987 0.00165297 0.00179799 0.000447214 0.000428145
0.00241318 0.00273338 0.00163335 0.00177854 0.00045617 0.000437384
0.00239617 0.0027189 0.0016166 0.00176195 0.00046578 0.000447193
0.00238236 0.00270747 0.00160347 0.00174902 0.000475482 0.000457044
0.00237262 0.00269995 0.00159459 0.0017404 0.000484782 0.000466495
0.0023676 0.00269711 0.00159048 0.00173658 0.000493327 0.000475152
0.00236782 0.00269943 0.00159152 0.00173794 0.000500855 0.000482712
0.00237361 0.00270721 0.00159788 0.00174469 0.000507179 0.000488987
0.002385 0.00272055 0.0016096 0.00175688 0.00051222 0.000493918
0.00240188 0.00273932 0.00162658 0.00177436 0.000516023 0.000497558
0.00242394 0.00276323 0.00164852 0.00179686 0.000518752 0.000500061
0.00245063 0.00279177 0.00167497 0.00182394 0.000520667 0.000501689
0.00248125 0.00282421 0.00170538 0.00185502 0.000522108 0.000502795
0.00251326 0.00285773 0.00173925 0.00188969 0.000523465 0.000503772
0.00252978 0.0028853 0.00177467 0.00192656 0.000525411 0.000505253
0.00252914 0.00290857 0.0018091 0.00196469 0.000528784 0.000507704
0.00253053 0.0029271 0.00184606 0.00200434 0.000533135 0.000511415
0.00253418 0.00293833 0.00188077 0.00203191 0.000538637 0.000515438
0.00253335 0.00293534 0.0019101 0.00201446 0.000542614 0.000515984
0.0025278 0.00292686 0.00193875 0.0020156 0.000550146 0.000521743
0.00251326 0.0029073 0.00196619 0.0020139 0.000561209 0.000530678
0.00248691 0.00287672 0.00199045 0.00200887 0.000575902 0.000543086
0.00245028 0.00283622 0.00201129 0.00200965 0.000594747 0.000560315
0.00240306 0.00278391 0.002028 0.00200768 0.000617091 0.00058174
0.00234433 0.00272125 0.00203864 0.00200818 0.000643607 0.000607784
0.00227443 0.00264776 0.0020406 0.0020091 0.000673214 0.000637692
0.00219538 0.00256445 0.00203894 0.00200947 0.00070632 0.00067137
0.00210577 0.00247062 0.00203134 0.00200059 0.000741798 0.000707156
0.00200693 0.0023669 0.00201536 0.00198307 0.000778302 0.000744362
0.00189974 0.00225428 0.00198996 0.0019571 0.000814635 0.000781772
0.00178508 0.00213399 0.00195508 0.00192229 0.000836321 0.00081379
0.00166451 0.00200729 0.00190913 0.00187678 0.0008364 0.00083483
0.00153826 0.00187486 0.00185641 0.00182126 0.000830386 0.000832507
0.00140699 0.00173722 0.00179678 0.00176073 0.00082713 0.000829101
0.0012713 0.00159516 0.00173194 0.00169445 0.00082765 0.000825929
0.00113216 0.00144946 0.00166339 0.00162417 0.000827508 0.000821878
0.000990775 0.0013014 0.00159174 0.0015504 0.000824361 0.000820427
0.000848412 0.00115237 0.00151747 0.0014747 0.00082067 0.000818611
0.000706647 0.00100397 0.00144082 0.00139686 0.000811662 0.000809858
0.000566635 0.000857453 0.00136244 0.00131709 0.000793726 0.000790806
0.000429219 0.000713668 0.00128279 0.00123597 0.000764665 0.000762528
0.000294966 0.000573203 0.00120209 0.00115413 0.000724846 0.000724122
0.000164153 0.000436359 0.00112078 0.00107187 0.000675665 0.00067519
7.43331e-05 0.000334758 0.00103485 0.000985575 0.00061776 0.000616314
6.73154e-06 0.000271048 0.000947684 0.000899376 0.000550151 0.000548273
-5.33164e-05 0.000218613 0.000861901 0.00081233 0.000473008 0.000471519
-9.97236e-05 0.000168966 0.000780558 0.000729521 0.000387695 0.0003862
-0.000140562 0.000125054 0.000701136 0.000647605 0.00029594 0.00029384
-0.000179638 8.41392e-05 0.00062247 0.000567948 0.000198632 0.000195901
-0.000214241 4.71899e-05 0.000546405 0.000490591 9.67729e-05 9.3589e-05
-0.000245504 1.21146e-05 0.000473043 0.000415621 -7.76761e-06 -1.10702e-05
-0.000276606 -2.27775e-05 0.000406387 0.000347869 -9.48931e-05 -9.09925e-05
-0.000305916 -5.89195e-05 0.000342597 0.000282779 -0.000164212 -0.000165632
-0.000334795 -9.4735e-05 0.000280952 0.000220358 -0.000231904 -0.000236418
-0.000364265 -0.000130851 0.000221421 0.000159707 -0.000300032 -0.000308676
-0.000394914 -0.000168221 0.000163352 9.98373e-05 -0.00036763 -0.000373717
-0.000427338 -0.000208049 0.000106228 4.15893e-05 -0.00043004 -0.00043723
-0.000462688 -0.000250789 4.99899e-05 -1.63562e-05 -0.000486059 -0.00049673
-0.000501202 -0.000296794 -4.48325e-06 -7.6375e-05 -0.000537478 -0.000549724
-0.000543433 -0.000346714 -6.36008e-05 -0.000132025 -0.000584547 -0.000597279
-0.000589926 -0.00040128 -0.000122414 -0.000187598 -0.000625556 -0.000637309
-0.000641176 -0.00046101 -0.000181013 -0.000242921 -0.000658918 -0.00067155
-0.00069703 -0.000525977 -0.000239097 -0.000298027 -0.000685237 -0.000698845
-0.000757646 -0.00059604 -0.000296818 -0.000352742 -0.000705455 -0.00071872
-0.000822704 -0.000670978 -0.000353991 -0.000406959 -0.000719283 -0.000731393
-0.000891768 -0.0007503 -0.000410289 -0.00046036 -0.000726022 -0.000737344
-0.000964345 -0.000833426 -0.000465176 -0.000512525 -0.0007243 -0.000734826
-0.00103983 -0.000919736 -0.000517878 -0.00056272 -0.000712547 -0.000721574
-0.00111747 -0.0010084 -0.000568047 -0.000610512 -0.000691471 -0.000698772
-0.00119644 -0.00109854 -0.000615149 -0.000655508 -0.000661969 -0.000667766
-0.00127585 -0.00118919 -0.000658689 -0.000697264 -0.000625376 -0.000629734
-0.00135474 -0.00127932 -0.000698237 -0.000735347 -0.000583239 -0.000586047
-0.00143209 -0.00136782 -0.0007334 -0.000769355 -0.00053702 -0.00053818
-0.00150687 -0.00145356 -0.000763812 -0.00079898 -0.000488064 -0.000487689
-0.00157809 -0.00153543 -0.000789205 -0.000823961 -0.000437817 -0.000436094
-0.00164479 -0.00161238 -0.000809416 -0.000844119 -0.000387772 -0.000384785
-0.00169434 -0.00166978 -0.000821798 -0.000856709 -0.00034881 -0.000344846
-0.00174013 -0.00172305 -0.000830809 -0.000866154 -0.000311462 -0.000306599
-0.0017819 -0.00177191 -0.000836488 -0.000872489 -0.000276273 -0.00027064
-0.00181947 -0.00181618 -0.000838921 -0.000875786 -0.000243753 -0.000237483
-0.00185277 -0.00185577 -0.000838237 -0.000876162 -0.00021436 -0.000207561
-0.00188181 -0.00189069 -0.000834552 -0.000873621 -0.000188462 -0.000181209
-0.00190668 -0.00192101 -0.000828066 -0.000868105 -0.000166307 -0.000158669
-0.00192755 -0.00194696 -0.000819031 -0.000859955 -0.000148085 -0.000140159
-0.00194472 -0.00196884 -0.000807782 -0.00084949 -0.000133907 -0.000125793
-0.00195851 -0.00198704 -0.000794697 -0.000837092 -0.000123815 -0.000115601
-0.00196934 -0.002002 -0.000780193 -0.000823195 -0.000117776 -0.000109525
-0.00197767 -0.00201424 -0.000764727 -0.000808272 -0.000115673 -0.00010744
-0.00198399 -0.00202429 -0.000748795 -0.00079283 -0.000117314 -0.000109153
-0.00198884 -0.00203241 -0.000732892 -0.000777312 -0.000122452 -0.000114429
-0.00199279 -0.0020394 -0.000717573 -0.000762348 -0.000130783 -0.000122945
-0.00199648 -0.00204605 -0.000703409 -0.000748512 -0.000141967 -0.00013434
-0.00200051 -0.00205315 -0.000690971 -0.000736431 -0.00015563 -0.000148214
-0.0020055 -0.00206151 -0.000680833 -0.0007267 -0.000171371 -0.000164157
-0.00201208 -0.00207192 -0.000673541 -0.000719906 -0.000188778 -0.000181745
-0.00202082 -0.00208513 -0.000669608 -0.000716602 -0.000207447 -0.000200559
-0.00203226 -0.00210184 -0.000669511 -0.000717298 -0.00022699 -0.000220194
-0.00204669 -0.00212099 -0.000673606 -0.000722093 -0.000247066 -0.000240333
-0.00206461 -0.00214341 -0.000682128 -0.000731382 -0.000267368 -0.000260698
-0.00208649 -0.0021702 -0.000695599 -0.000745672 -0.000287547 -0.000280813
-0.00211239 -0.00220119 -0.000714185 -0.000765231 -0.000307381 -0.000300579
-0.00213515 -0.00223021 -0.00073948 -0.000791456 -0.000326526 -0.000319536
-0.00216051 -0.00226097 -0.00077159 -0.000824987 -0.000344745 -0.000337376
-0.00218949 -0.0022956 -0.000808747 -0.000862882 -0.000362388 -0.000354846
-0.0022224 -0.00233543 -0.000850493 -0.000906021 -0.000379536 -0.000371384
-0.00225923 -0.00237763 -0.000895699 -0.000947434 -0.000395656 -0.00038655
-0.0023001 -0.00242392 -0.00094519 -0.000994255 -0.000411444 -0.000401736
-0.00234399 -0.00247324 -0.000998685 -0.00104426 -0.000427044 -0.000416329
-0.00239052 -0.00252551 -0.0010558 -0.00109755 -0.000442659 -0.000431026
-0.00243923 -0.00257966 -0.00111602 -0.00115372 -0.000458629 -0.000445914
-0.00248961 -0.00263518 -0.00117889 -0.00121231 -0.000475166 -0.000461366
-0.00254092 -0.00269134 -0.00124383 -0.00127279 -0.000492596 -0.000477721
-0.00259248 -0.00274755 -0.00131029 -0.00133468 -0.000511257 -0.000495284
-0.00264372 -0.00280308 -0.00137775 -0.00139736 -0.000531452 -0.000514398
-0.00269397 -0.00285721 -0.00144554 -0.00146032 -0.000553479 -0.000535366
-0.00274249 -0.00290929 -0.00151304 -0.00152297 -0.000577603 -0.00055848
-0.00275333 -0.00295385 -0.00157338 -0.00158223 -0.000605341 -0.000584637
-0.00274532 -0.00299631 -0.00162984 -0.00163996 -0.00063582 -0.000613472
-0.00274153 -0.00301204 -0.00168596 -0.00169254 -0.000668601 -0.000645249
-0.00274879 -0.00301239 -0.00174244 -0.00174534 -0.000703473 -0.000680232
-0.00275479 -0.00302313 -0.00179765 -0.00179561 -0.00074026 -0.000716138
-0.00275196 -0.00302824 -0.00184744 -0.00184322 -0.00077168 -0.000752572
-0.00274975 -0.00303313 -0.00189313 -0.00188724 -0.000799271 -0.000786435
-0.00275295 -0.00303816 -0.00193669 -0.00192643 -0.00082339 -0.000810761
-0.00275588 -0.00304089 -0.00197593 -0.00196293 -0.000848362 -0.000837764
-0.00275575 -0.00304446 -0.00200976 -0.00199472 -0.000875415 -0.000864964
-0.00275535 -0.00304742 -0.00203903 -0.00202245 -0.000903861 -0.000892847
-0.00275703 -0.00304931 -0.00206442 -0.00204579 -0.000932434 -0.000921407
-0.00275908 -0.00305105 -0.00208543 -0.00206492 -0.000960432 -0.0009506
-0.00275857 -0.00305049 -0.00210147 -0.0020797 -0.000988053 -0.000979968
-0.00275355 -0.00304518 -0.00211244 -0.00208998 -0.00101577 -0.00100898
-0.00274399 -0.00303525 -0.00211881 -0.00209595 -0.00103969 -0.00103699
-0.00273038 -0.00302099 -0.00211734 -0.00209525 -0.0010398 -0.00104103
-0.00271171 -0.00300247 -0.00211234 -0.00208929 -0.00103503 -0.0010362
-0.00268863 -0.0029787 -0.00210431 -0.00208059 -0.00102946 -0.00103849
-0.00266098 -0.00295064 -0.00209312 -0.00206896 -0.00102527 -0.00103681
-0.0026291 -0.00291826 -0.00207962 -0.00205527 -0.00102376 -0.0010352
-0.0025933 -0.00288178 -0.00206446 -0.0020397 -0.00102326 -0.0010336
-0.00255364 -0.00284139 -0.00204792 -0.0020227 -0.00102165 -0.00103199
-0.00251022 -0.00279711 -0.00203035 -0.00200468 -0.00101869 -0.00103128
-0.00246309 -0.00274902 -0.00201201 -0.00198603 -0.00101574 -0.00103068
-0.00241228 -0.00269715 -0.00199322 -0.00196699 -0.00101419 -0.00102996
-0.00235783 -0.00264151 -0.00197419 -0.00194772 -0.00101405 -0.00102913
-0.00229975 -0.00258213 -0.00195494 -0.00192823 -0.00101429 -0.00102842
-0.00223817 -0.0025191 -0.00193505 -0.00190825 -0.00101067 -0.0010251
-0.00217324 -0.00245267 -0.00191391 -0.00188708 -0.00100114 -0.00101575
-0.00210512 -0.00238293 -0.00189143 -0.00186457 -0.000985798 -0.00100087
-0.00203394 -0.00231006 -0.00186727 -0.00184039 -0.000965107 -0.000980283
-0.00195981 -0.00223417 -0.00184101 -0.00181419 -0.000939358 -0.000954246
-0.00188284 -0.00215538 -0.00181222 -0.00178553 -0.000908681 -0.000923165
-0.00180321 -0.00207386 -0.00178049 -0.00175393 -0.000873268 -0.000887515
-0.00172123 -0.00198996 -0.00174535 -0.00171889 -0.00083353 -0.000847726
-0.00163733 -0.00190412 -0.00170631 -0.0016799 -0.000790035 -0.00080418
-0.00155195 -0.00181679 -0.0016629 -0.00163653 -0.000743334 -0.000757294
-0.0014655 -0.00172841 -0.00161475 -0.00158837 -0.000693864 -0.000707555
-0.00137838 -0.0016394 -0.00156156 -0.00153511 -0.000641993 -0.000655476
-0.00129097 -0.00155014 -0.00150314 -0.00147653 -0.000588108 -0.000601527
-0.00120353 -0.00146091 -0.00143942 -0.00141256 -0.000532641 -0.000546096
-0.00111617 -0.00137182 -0.00137045 -0.00134325 -0.000476007 -0.000489512
-0.00102882 -0.00128282 -0.00129645 -0.00126883 -0.000418539 -0.000432077
-0.000941353 -0.00119374 -0.00121776 -0.00118964 -0.000360467 -0.000374073
-0.000853634 -0.00110446 -0.00113485 -0.00110612 -0.000301972 -0.000315732
-0.000765627 -0.00101493 -0.00104827 -0.00101886 -0.000243225 -0.000257228
-0.000677404 -0.000925207 -0.000958629 -0.000928472 -0.000184388 -0.000198674
-0.000589125 -0.000835447 -0.00086663 -0.000835672 -0.000125588 -0.000140157
-0.000500998 -0.00074585 -0.00077302 -0.000741216 -6.68978e-05 -8.17453e-05
-0.000413239 -0.000656625 -0.000678571 -0.000645898 -1.25836e-05 -2.33546e-05
-0.000325475 -0.000567637 -0.000587183 -0.000552415 1.50149e-05 8.81539e-06
-0.000238588 -0.000478672 -0.000497058 -0.000461873 3.85818e-05 3.04832e-05
-0.000152217 -0.000391008 -0.000408209 -0.000372401 6.11274e-05 5.71612e-05
-6.67661e-05 -0.000303811 -0.000322041 -0.000285457 8.43707e-05 8.15351e-05
8.13677e-06 -0.000217804 -0.000239055 -0.000201466 0.000109113 0.000106148
5.83246e-05 -0.000152085 -0.000164911 -0.000125642 0.000134848 0.000130641
0.000104056 -9.20082e-05 -9.65933e-05 -5.46813e-05 0.000159624 0.000155266
0.000153007 -3.04254e-05 -3.22284e-05 4.65576e-06 0.00018342 0.000180418
0.000192572 2.44638e-05 2.60696e-05 5.48542e-05 0.000206713 0.000205758
0.000225438 6.10423e-05 8.03838e-05 0.000106094 0.000230056 0.00022938
0.000253849 9.72652e-05 0.000131716 0.000153703 0.000253974 0.000253012
0.000278326 0.00012572 0.000177807 0.000197641 0.000277306 0.000276292
0.0003019 0.000152293 0.000220417 0.000237772 0.000299467 0.000298527
0.000323407 0.000175866 0.000258797 0.00027409 0.000320559 0.000321447
0.000341281 0.000197728 0.000292347 0.00030647 0.000341204 0.00034226
0.000356372 0.000216501 0.000321803 0.000334361 0.000361436 0.000362935
0.000369396 0.000232069 0.000347245 0.000358401 0.000380711 0.000382217
0.000380226 0.000245096 0.000368516 0.00037862 0.000398562 0.000400549
0.000388624 0.000256066 0.000385495 0.000395046 0.000414862 0.000417614
0.000395067 0.000265084 0.000398498 0.000407781 0.000429753 0.000433135
0.000400131 0.000272327 0.000407894 0.000416932 0.000443286 0.000447061
0.000403946 0.00027819 0.000413742 0.000422745 0.000455263 0.000459233
0.000406664 0.000283005 0.000416111 0.000425393 0.000465366 0.000469575
0.000408686 0.000286976 0.000415245 0.000424798 0.000473383 0.000477951
0.000410424 0.000290501 0.000411497 0.000421244 0.000479285 0.000484234
0.000412113 0.000294035 0.000405143 0.000415053 0.000483103 0.000488267
0.000414021 0.000298035 0.000396447 0.00040656 0.000484787 0.000489973
0.000416512 0.000302927 0.000385632 0.000396045 0.000483187 0.000488434
0.00041994 0.000309184 0.000372693 0.00038349 0.00047672 0.000481635
0.00042453 0.000317157 0.000358032 0.000369289 0.000465059 0.000469877
0.000430523 0.000327189 0.000341931 0.000353702 0.000448285 0.000453077
0.000437985 0.00033796 0.000324516 0.000336623 0.000426638 0.00043135
0.000447151 0.000350794 0.000306116 0.000318843 0.000400338 0.00040475
0.000458207 0.000365731 0.000287054 0.000300355 0.000369574 0.000373529
0.000471099 0.000382871 0.000267571 0.000281582 0.000334565 0.000338033
0.00048595 0.000402289 0.000247989 0.000262683 0.000295593 0.000298623
0.000502731 0.000423867 0.000228491 0.000243946 0.000253095 0.000255696
0.000521379 0.00044759 0.000209291 0.000225608 0.000207585 0.000209654
0.000541804 0.000473352 0.000190613 0.000207864 0.000159587 0.000161004
0.00056389 0.000501007 0.000172676 0.000190906 0.00010961 0.000110307
0.00058748 0.000530362 0.000155661 0.000174905 5.81862e-05 5.81768e-05
0.000612375 0.000561187 0.000139719 0.000160029 5.917e-06 5.22379e-06
0.000638302 0.000593169 0.00012546 0.000146945 -3.93245e-05 -4.52901e-05
0.000664737 0.000625598 0.000115904 0.000138328 -7.85944e-05 -7.74848e-05
0.00069206 0.000659161 0.000106345 0.00012985 -0.000112948 -0.000116131
0.000719859 0.000693026 9.83604e-05 0.00012343 -0.000146318 -0.000152236
0.000747989 0.000727427 9.21732e-05 0.000118279 -0.000179559 -0.000187532
0.000776179 0.000761734 8.75157e-05 0.000114703 -0.000212198 -0.000220499
0.00080435 0.000796077 8.43751e-05 0.000112726 -0.000242777 -0.000251262
0.000832247 0.000830035 8.27224e-05 0.000112344 -0.000270124 -0.000279793
0.000859685 0.000863488 8.27144e-05 0.000113552 -0.000294185 -0.000305754
0.000886494 0.000896172 8.44265e-05 0.000116321 -0.00031554 -0.000328563
0.000912522 0.000927925 8.7821e-05 0.000120724 -0.000334386 -0.000347891
0.000937653 0.00095861 9.28724e-05 0.000126813 -0.000350171 -0.000363631
0.000961777 0.000988108 9.96126e-05 0.000134619 -0.000362111 -0.000375824
0.000984815 0.00101633 0.000108117 0.000144146 -0.000369864 -0.000384357
0.00100672 0.00104322 0.00011843 0.000155407 -0.000373637 -0.000388965
0.00102746 0.00106876 0.000130575 0.000168448 -0.000373307 -0.000389257
0.00104703 0.00109293 0.000144878 0.00018359 -0.000367062 -0.000382722
0.00106549 0.00111576 0.000161348 0.000200864 -0.000354119 -0.000369489
0.00108286 0.00113733 0.000180037 0.000220359 -0.000334362 -0.000349854
0.00109925 0.00115773 0.00020101 0.000242091 -0.00030806 -0.000323927
0.00111476 0.00117707 0.000224315 0.000266111 -0.000275738 -0.000291807
0.0011295 0.00119548 0.00024998 0.000292459 -0.000237837 -0.000253738
0.00114364 0.00121313 0.000278022 0.000321166 -0.000194616 -0.000210164
0.00115732 0.0012302 0.000308454 0.000352253 -0.000146323 -0.000161623
0.00117072 0.00124687 0.000341107 0.00038555 -9.33972e-05 -0.000108634
0.00118385 0.00126272 0.000375704 0.000417344 -3.68117e-05 -5.24015e-05
0.00119717 0.00127887 0.000411589 0.000451879 2.81564e-06 -1.58671e-06
0.00121098 0.00129551 0.000447418 0.000485436 3.55217e-05 2.76982e-05
0.00122512 0.00131233 0.000486117 0.000522117 6.75914e-05 6.30428e-05
0.00123985 0.00132967 0.000526982 0.000560066 0.000100884 9.8099e-05
0.00125501 0.00134747 0.000569571 0.000600426 0.000136125 0.00013363
0.00127094 0.00136602 0.000614171 0.000642438 0.000172583 0.000169418
0.00128759 0.00138515 0.000660679 0.000686186 0.000209008 0.000205599
0.00130497 0.00140505 0.000708943 0.000731453 0.000244726 0.0002422
0.00132313 0.00142568 0.000758696 0.000778093 0.00027998 0.000278838
0.00134204 0.00144705 0.000809686 0.000826004 0.000315263 0.000314945
0.00136169 0.00146911 0.00086175 0.000874909 0.000350551 0.000350285
0.00138196 0.00149176 0.000914654 0.000924558 0.000385244 0.000384821
0.00140276 0.0015149 0.000968103 0.000974675 0.000418736 0.000418566
0.00142397 0.0015384 0.00102176 0.00102498 0.000450865 0.000451389
0.00144508 0.00156199 0.00107533 0.0010752 0.000481834 0.000483014
0.00146516 0.00158448 0.00112878 0.0011253 0.000511738 0.000513187
0.0014842 0.00160566 0.00118171 0.0011748 0.000540431 0.000541855
0.00150193 0.00162542 0.00123359 0.00122339 0.000567581 0.000568994
0.00151818 0.00164352 0.001284 0.00127056 0.000592987 0.00059463
0.00153277 0.00165966 0.00133248 0.00131595 0.000616683 0.000618671
0.00154547 0.00167358 0.0013786 0.00135913 0.000638805 0.000641009
0.00155595 0.00168501 0.00142188 0.00139964 0.000659382 0.000661604
0.00156401 0.00169367 0.00146187 0.00143706 0.000678299 0.000680466
0.00156943 0.00169932 0.00149813 0.00147099 0.00069543 0.000697636
0.00157199 0.0017017 0.00153023 0.001501 0.000710756 0.000713113
0.00157113 0.00170048 0.00155776 0.00152673 0.000724345 0.000726866
0.00156543 0.00169392 0.00158008 0.00154754 0.000736284 0.000738908
0.00155419 0.00168195 0.00159675 0.00156319 0.000746552 0.000749202
0.00153752 0.00166443 0.00160751 0.0015733 0.000755071 0.000757805
0.00151572 0.00164156 0.00161213 0.00157768 0.000761777 0.000764662
0.0014891 0.00161374 0.00161029 0.00157581 0.000766655 0.000769728
0.0014581 0.00158141 0.00160178 0.00156706 0.000769669 0.000772918
0.00142324 0.00154513 0.00158652 0.00155148 0.000770764 0.000774144
0.00138504 0.00150537 0.00156456 0.0015291 0.000769313 0.000772934
0.00134389 0.00146259 0.00153589 0.00149992 0.000764471 0.000768193
0.00130006 0.00141709 0.00150085 0.00146425 0.000755932 0.000759913
0.00125381 0.00136912 0.00145979 0.00142246 0.000743542 0.00074787
0.00120542 0.00131895 0.00141316 0.00137503 0.000727191 0.000731862
0.00115518 0.0012669 0.00136144 0.00132247 0.00070677 0.00071171
0.00110346 0.00121336 0.0013052 0.00126536 0.000682135 0.000687284
0.00105064 0.00115869 0.00124504 0.00120429 0.000653137 0.000658495
0.000997089 0.00110329 0.00118159 0.0011399 0.000619682 0.000625269
0.000943144 0.0010475 0.00111548 0.00107286 0.00058175 0.000587555
0.000889135 0.000991654 0.00104734 0.00100381 0.000539388 0.000545345
0.000835374 0.000936081 0.000977798 0.000933389 0.000492675 0.000498701
0.000782181 0.000881104 0.000907458 0.00086221 0.000441729 0.000447759
0.000729875 0.000827051 0.000836873 0.000790837 0.000386725 0.000392722
0.000678753 0.000774227 0.000766555 0.000719792 0.000327924 0.000333848
0.00062904 0.00072286 0.000696971 0.000649551 0.000265665 0.000271455
0.000580856 0.000673075 0.000628544 0.000580538 0.00020035 0.000205931
0.000534215 0.000624884 0.000561646 0.000513126 0.000132427 0.000137732
0.000489048 0.000578212 0.00049659 0.000447632 6.23985e-05 6.73768e-05
0.000445205 0.000532903 0.000433635 0.00038431 -9.17781e-06 -4.56225e-06
0.000402165 0.000488519 0.00037442 0.000324518 -6.71475e-05 -6.7034e-05
0.000359255 0.000443786 0.000322501 0.000272117 -0.000111647 -0.000100892
0.000316819 0.000400156 0.000271038 0.000220499 -0.000150292 -0.000148054
0.000274284 0.000356002 0.000222357 0.00017242 -0.000188428 -0.000191122
0.000230947 0.000311057 0.000176477 0.000126218 -0.000228314 -0.000234155
0.000186248 0.000264761 0.000132934 8.24698e-05 -0.000269252 -0.000274914
0.000139875 0.000216663 9.13704e-05 4.07336e-05 -0.000308805 -0.000313961
9.15142e-05 0.000166543 5.14842e-05 9.55093e-07 -0.00034522 -0.000352042
4.10569e-05 0.000114278 1.34202e-05 -4.03699e-05 -0.000378795 -0.0003885
2.24244e-06 8.33379e-05 -2.52688e-05 -7.83625e-05 -0.000410862 -0.000422447
-2.28372e-05 5.73682e-05 -6.80406e-05 -0.000119088 -0.000441502 -0.000454113
-4.82219e-05 3.23769e-05 -0.000109188 -0.000156843 -0.000470583 -0.000483005
-7.23605e-05 6.83711e-06 -0.000147994 -0.000193593 -0.000496719 -0.000509184
-9.80874e-05 -2.08514e-05 -0.000185309 -0.000229317 -0.000519161 -0.000533428
-0.000126067 -5.21078e-05 -0.00022174 -0.000264415 -0.00053845 -0.000554093
-0.000155394 -8.49399e-05 -0.000257141 -0.000298177 -0.000555388 -0.000571714
-0.000185353 -0.000119242 -0.000291101 -0.000330676 -0.000569924 -0.000585793
-0.000216461 -0.000154637 -0.000323685 -0.000361891 -0.000581419 -0.000596784
-0.000248861 -0.000190942 -0.000354856 -0.000391764 -0.000589424 -0.000604808
-0.00028196 -0.0002281 -0.000384365 -0.000420127 -0.000594127 -0.000609822
-0.000315397 -0.000265913 -0.000412051 -0.000446755 -0.000595999 -0.000611728
-0.000349226 -0.000304084 -0.000437546 -0.00047127 -0.000593031 -0.000608123
-0.000383276 -0.000342363 -0.000460499 -0.000493439 -0.000584594 -0.000598571
-0.000417162 -0.000380479 -0.0004807 -0.000513016 -0.00057055 -0.000583767
-0.000450566 -0.000418182 -0.000497951 -0.000529841 -0.000551268 -0.00056409
-0.000483319 -0.000455165 -0.000512085 -0.000543715 -0.000527431 -0.000539884
-0.000515181 -0.00049116 -0.000522901 -0.000554466 -0.00049972 -0.000511528
-0.000545858 -0.000525928 -0.000530197 -0.000561936 -0.000468605 -0.000479558
-0.000575127 -0.000559245 -0.000533838 -0.000565978 -0.000434432 -0.00044461
-0.000602815 -0.000590887 -0.000533738 -0.000566487 -0.000397639 -0.000407283
-0.00062873 -0.000620654 -0.00052979 -0.000563342 -0.000358824 -0.000368085
