-0.844979 -2.91372e-05 -1.62536 -5.6047e-05 -0.279768 -9.64718e-06
-0.852994 -2.94136e-05 -1.62342 -5.59801e-05 -0.280107 -9.65886e-06
-0.871219 -3.0042e-05 -1.61925 -5.58361e-05 -0.280678 -9.67857e-06
-0.908709 -3.13348e-05 -1.61136 -5.55641e-05 -0.281456 -9.70538e-06
-0.951117 -3.27971e-05 -1.60357 -5.52957e-05 -0.281901 -9.72072e-06
-1.00545 -3.46707e-05 -1.59524 -5.50083e-05 -0.281891 -9.72037e-06
-1.07251 -3.69832e-05 -1.58715 -5.47294e-05 -0.28105 -9.69137e-06
-1.15314 -3.97634e-05 -1.58026 -5.44918e-05 -0.278973 -9.61975e-06
-1.24827 -4.30438e-05 -1.57569 -5.4334e-05 -0.275285 -9.4926e-06
-1.35891 -4.6859e-05 -1.57469 -5.42996e-05 -0.269634 -9.29773e-06
-1.48593 -5.1239e-05 -1.57864 -5.4436e-05 -0.26166 -9.02277e-06
-1.62972 -5.61972e-05 -1.5891 -5.47966e-05 -0.251013 -8.65562e-06
-1.78972 -6.17146e-05 -1.60785 -5.5443e-05 -0.237408 -8.18648e-06
-1.96386 -6.77192e-05 -1.6367 -5.6438e-05 -0.220732 -7.61144e-06
-2.14925 -7.4112e-05 -1.67831 -5.78729e-05 -0.200801 -6.92416e-06
-2.34143 -8.07391e-05 -1.73522 -5.98351e-05 -0.177692 -6.12732e-06
-2.53458 -8.73994e-05 -1.80976 -6.24054e-05 -0.151722 -5.23179e-06
-2.72229 -9.38721e-05 -1.90392 -6.56524e-05 -0.123517 -4.25921e-06
-2.89825 -9.99395e-05 -2.01913 -6.96252e-05 -0.0940816 -3.24419e-06
-3.05636 -0.000105392 -2.15598 -7.4344e-05 -0.063824 -2.20083e-06
-3.19062 -0.000110021 -2.31415 -7.97983e-05 -0.0358058 -1.23468e-06
-3.29454 -0.000113605 -2.49256 -8.59502e-05 -0.0123904 -4.27254e-07
-3.36066 -0.000115885 -2.68942 -9.27387e-05 0.00376585 1.29857e-07
-3.38004 -0.000116553 -2.9023 -0.000100079 0.00964227 3.32492e-07
-3.34232 -0.000115252 -3.12817 -0.000107868 0.00191743 6.61183e-08
-3.23682 -0.000111615 -3.36269 -0.000115955 -0.0229451 -7.91209e-07
-3.05537 -0.000105358 -3.60001 -0.000124138 -0.0673528 -2.32251e-06
-2.79609 -9.64171e-05 -3.83222 -0.000132146 -0.135073 -4.6577e-06
-2.46627 -8.50437e-05 -4.04804 -0.000139588 -0.23114 -7.97034e-06
-2.08137 -7.17713e-05 -4.23398 -0.000145999 -0.359496 -1.23964e-05
-1.66044 -5.72567e-05 -4.37586 -0.000150892 -0.52285 -1.80293e-05
-1.22125 -4.21122e-05 -4.46045 -0.000153808 -0.723726 -2.49561e-05
-0.780619 -2.69179e-05 -4.47733 -0.000154391 -0.962794 -3.31998e-05
-0.352093 -1.21411e-05 -4.41921 -0.000152386 -1.23885 -4.27188e-05
0.0550389 1.89789e-06 -4.28213 -0.00014766 -1.54855 -5.33984e-05
0.440407 1.51864e-05 -4.06514 -0.000140177 -1.88652 -6.50524e-05
0.798499 2.75345e-05 -3.7705 -0.000130017 -2.24586 -7.74435e-05
1.13943 3.92907e-05 -3.40643 -0.000117463 -2.61695 -9.02396e-05
1.45774 5.02671e-05 -2.98095 -0.000102791 -2.98993 -0.000103101
1.75622 6.05594e-05 -2.50406 -8.63469e-05 -3.35271 -0.000115611
2.03691 7.02384e-05 -1.98919 -6.85928e-05 -3.69371 -0.000127369
2.30136 7.93572e-05 -1.44911 -4.99695e-05 -4.00047 -0.000137947
2.54802 8.78628e-05 -0.896606 -3.09174e-05 -4.26108 -0.000146934
2.77161 9.55728e-05 -0.343847 -1.18568e-05 -4.46395 -0.000153929
2.96521 0.000102249 0.1976 6.81379e-06 -4.59835 -0.000158564
3.12418 0.00010773 0.717682 2.47476e-05 -4.65455 -0.000160502
3.2504 0.000112083 1.21324 4.18358e-05 -4.62234 -0.000159391
3.35259 0.000115607 1.65918 5.7213e-05 -4.49798 -0.000155103
3.44811 0.0001189 2.04317 7.0454e-05 -4.27525 -0.000147422
3.56084 0.000122788 2.35313 8.11425e-05 -3.95114 -0.000136246
3.77181 0.000130063 2.62019 9.03515e-05 -3.40395 -0.000117378
4.12144 0.000142119 2.74091 9.4514e-05 -2.70574 -9.33015e-05
4.66919 0.000161006 2.71471 9.36106e-05 -1.87091 -6.45141e-05
5.456 0.000188138 2.55778 8.81994e-05 -0.922359 -3.18055e-05
6.49653 0.000224018 2.30469 7.94722e-05 0.130253 4.49147e-06
7.7748 0.000268097 2.00704 6.92082e-05 1.25465 4.32638e-05
9.24253 0.000318708 1.73131 5.97005e-05 2.37769 8.19893e-05
10.8235 0.000373225 1.55364 5.35738e-05 3.45931 0.000119286
12.4312 0.000428663 1.54924 5.34221e-05 4.45626 0.000153664
13.9918 0.000482477 1.78172 6.14386e-05 5.33322 0.000183904
15.4587 0.000533059 2.29549 7.91549e-05 6.06504 0.000209139
16.8118 0.000579717 3.1128 0.000107338 6.64071 0.00022899
18.0504 0.000622427 4.23397 0.000145999 7.06155 0.000243502
19.186 0.000661588 5.63963 0.00019447 7.34073 0.000253128
20.2341 0.000697727 7.29401 0.000251518 7.5025 0.000258707
21.204 0.000731173 9.14933 0.000315494 7.58084 0.000261408
22.099 0.000762035 11.1485 0.000384432 7.61702 0.000262656
22.9262 0.000790558 13.2259 0.000456067 7.65695 0.000264033
23.7051 0.000817417 15.3087 0.000527887 7.74863 0.000267194
24.4663 0.000843666 17.3213 0.000597287 7.9392 0.000273766
25.2415 0.000870396 19.1923 0.000661803 8.2716 0.000285228
26.0489 0.000898238 20.8619 0.000719378 8.78074 0.000302784
26.8855 0.000927085 22.2873 0.000768527 9.49084 0.00032727
27.7355 0.000956396 23.4417 0.000808334 10.4144 0.000359117
28.5817 0.000985577 24.3131 0.000838382 11.5519 0.000398342
29.4093 0.00101412 24.9029 0.000858721 12.8918 0.000444544
30.2065 0.0010416 25.2256 0.000869847 14.4107 0.00049692
30.9654 0.00106777 25.3071 0.000872657 16.0748 0.000554303
31.6823 0.00109249 25.183 0.000868378 17.8414 0.000615221
32.357 0.00111576 24.8966 0.000858504 19.6609 0.000677963
32.9898 0.00113758 24.4973 0.000844735 21.4789 0.000740653
33.5817 0.00115799 24.0377 0.000828886 23.2388 0.00080134
34.1373 0.00117715 23.5699 0.000812756 24.8847 0.000858093
34.6681 0.00119545 23.1424 0.000798012 26.3638 0.000909098
35.1927 0.00121354 22.7972 0.000786109 27.6292 0.000952731
35.7297 0.00123206 22.5701 0.000778279 28.6411 0.000987624
36.2857 0.00125123 22.4919 0.000775584 29.3684 0.0010127
36.8436 0.00127047 22.5896 0.000778951 29.7899 0.00102724
37.3638 0.00128841 22.8841 0.000789108 29.8953 0.00103087
37.7956 0.0013033 23.386 0.000806414 29.6866 0.00102368
38.0436 0.00131185 23.9345 0.000825326 29.3036 0.00101047
38.1969 0.00131714 24.7869 0.000854721 28.5777 0.000985437
38.1503 0.00131553 25.79 0.00088931 27.6138 0.000952201
37.8912 0.00130659 26.8904 0.000927256 26.4617 0.000912471
37.4146 0.00129016 28.0225 0.000966294 25.1788 0.000868233
36.7172 0.00126611 29.1131 0.0010039 23.8275 0.000821639
35.7973 0.00123439 30.0853 0.00103742 22.4718 0.000774891
34.6541 0.00119497 30.8625 0.00106422 21.1735 0.000730122
33.2864 0.00114781 31.3725 0.00108181 19.9889 0.000689274
31.6935 0.00109288 31.5511 0.00108797 18.966 0.000653999
29.877 0.00103024 31.3449 0.00108086 18.1413 0.000625564
27.8393 0.000959975 30.7138 0.0010591 17.5385 0.000604776
25.5869 0.000882307 29.6327 0.00102182 17.1661 0.000591934
23.1394 0.00079791 28.0901 0.000968626 17.0178 0.00058682
20.5381 0.000708211 26.0873 0.000899562 17.072 0.000588691
17.8412 0.000615212 23.6395 0.000815154 17.2924 0.00059629
15.1046 0.000520849 20.781 0.000716585 17.6278 0.000607855
12.3745 0.000426705 17.5659 0.000605719 18.0142 0.000621178
9.69011 0.000334142 14.0651 0.000485004 18.3774 0.000633704
7.08665 0.000244367 10.3627 0.000357336 18.6365 0.000642638
4.59391 0.000158411 6.55219 0.000225938 18.7076 0.000645091
2.23274 7.69911e-05 2.73326 9.42503e-05 18.5081 0.000638212
0.0535211 1.84556e-06 -0.985746 -3.39912e-05 17.9596 0.000619298
-1.96832 -6.78729e-05 -4.45819 -0.000153731 17.0048 0.000586373
-3.89939 -0.000134462 -7.59734 -0.000261977 15.5796 0.000537228
-5.76725 -0.000198871 -10.3781 -0.000357864 13.6525 0.000470777
-7.58629 -0.000261596 -12.7475 -0.000439568 11.2097 0.00038654
-9.33703 -0.000321967 -14.688 -0.000506482 8.25734 0.000284736
-10.9914 -0.000379014 -16.2027 -0.000558713 4.82627 0.000166423
-12.5316 -0.000432124 -17.311 -0.000596932 0.974467 3.36023e-05
-13.9625 -0.000481466 -18.0437 -0.000622197 -3.05692 -0.000105411
-15.3123 -0.000528012 -18.4515 -0.000636258 -7.33083 -0.000252787
-16.6209 -0.000573134 -18.5898 -0.000641029 -11.7599 -0.000405514
-17.9258 -0.00061813 -18.5267 -0.000638852 -16.2334 -0.000559772
-19.2648 -0.000664304 -18.3407 -0.000632439 -20.6418 -0.000711786
-20.6794 -0.000713082 -18.1136 -0.000624607 -24.8782 -0.00085787
-22.2122 -0.000765939 -17.9263 -0.00061815 -28.8288 -0.000994095
-23.9024 -0.000824222 -17.858 -0.000615793 -32.3891 -0.00111687
-25.7772 -0.00088887 -17.9848 -0.000620166 -35.4685 -0.00122305
-27.8412 -0.000960041 -18.378 -0.000633724 -37.9923 -0.00131008
-30.0679 -0.00103682 -19.1019 -0.000658685 -39.9009 -0.00137589
-32.402 -0.00111731 -20.21 -0.000696897 -41.1546 -0.00141912
-34.7744 -0.00119912 -21.7378 -0.000749579 -41.7388 -0.00143927
-37.1186 -0.00127995 -23.6947 -0.000817059 -41.6661 -0.00143676
-39.3799 -0.00135793 -26.0607 -0.000898645 -40.9748 -0.00141293
-41.5211 -0.00143176 -28.7856 -0.000992606 -39.728 -0.00136993
-43.5222 -0.00150077 -31.7912 -0.00109625 -38.0117 -0.00131075
-45.3777 -0.00156475 -34.976 -0.00120607 -35.931 -0.001239
-47.0953 -0.00162398 -38.2212 -0.00131797 -33.6047 -0.00115878
-48.689 -0.00167894 -41.3985 -0.00142753 -31.1584 -0.00107443
-50.1708 -0.00173003 -44.3802 -0.00153035 -28.7185 -0.000990293
-51.5459 -0.00177746 -47.0468 -0.0016223 -26.4059 -0.000910549
-52.8151 -0.00182122 -49.2928 -0.00169975 -24.3306 -0.000838985
-53.9762 -0.00186126 -51.0323 -0.00175973 -22.586 -0.000778826
-54.793 -0.00188943 -52.1642 -0.00179876 -21.2527 -0.000732853
-54.8053 -0.00188985 -52.3477 -0.00180509 -20.4623 -0.000705597
-54.7799 -0.00188898 -51.9757 -0.00179226 -20.1184 -0.000693739
-55.0742 -0.00189913 -51.2659 -0.00176779 -20.1769 -0.000695754
-55.362 -0.00190905 -50.063 -0.00172631 -20.6676 -0.000712676
-55.4519 -0.00191215 -48.4226 -0.00166975 -21.5468 -0.000742992
-54.3672 -0.00187475 -46.7667 -0.00161264 -22.6776 -0.000781985
-53.2033 -0.00183461 -44.7963 -0.0015447 -24.0775 -0.00083026
-51.866 -0.0017885 -42.5379 -0.00146682 -25.6655 -0.000885016
-50.4532 -0.00173978 -40.1255 -0.00138364 -27.3529 -0.000943203
-49.0113 -0.00169006 -37.6484 -0.00129822 -29.0487 -0.00100168
-47.5774 -0.00164062 -35.1663 -0.00121263 -30.6602 -0.00105725
-46.2188 -0.00159377 -32.7744 -0.00113015 -32.0957 -0.00110675
-44.9849 -0.00155122 -30.5569 -0.00105368 -33.277 -0.00114748
-43.9143 -0.0015143 -28.5827 -0.000985609 -34.1311 -0.00117693
-43.0525 -0.00148459 -26.9167 -0.000928164 -34.592 -0.00119283
-42.4321 -0.00146319 -25.6087 -0.000883057 -34.6161 -0.00119366
-42.0736 -0.00145083 -24.6954 -0.000851566 -34.1811 -0.00117866
-41.9911 -0.00144798 -24.2024 -0.000834566 -33.2776 -0.0011475
-42.1861 -0.00145471 -24.1367 -0.000832299 -31.9135 -0.00110047
-42.6483 -0.00147065 -24.4898 -0.000844475 -30.1199 -0.00103862
-43.324 -0.00149395 -25.2486 -0.00087064 -27.9468 -0.000963683
-43.9391 -0.00151516 -26.4353 -0.000911563 -25.4499 -0.000877581
-44.4436 -0.00153255 -27.9945 -0.000965327 -22.7148 -0.000783269
-44.8107 -0.00154521 -29.8429 -0.00102907 -19.8406 -0.000684159
-45.0322 -0.00155285 -31.8752 -0.00109914 -16.9389 -0.000584101
-45.1071 -0.00155543 -33.5566 -0.00115712 -14.6774 -0.000506117
-45.0959 -0.00155505 -35.2207 -0.00121451 -12.5345 -0.000432226
-45.0028 -0.00155184 -36.8053 -0.00126915 -10.568 -0.000364415
-44.8318 -0.00154594 -38.2511 -0.001319 -8.8318 -0.000304545
-44.5857 -0.00153745 -39.5042 -0.00136221 -7.37492 -0.000254308
-44.2661 -0.00152643 -40.5177 -0.00139716 -6.2394 -0.000215152
-43.8718 -0.00151284 -41.2531 -0.00142252 -5.45807 -0.00018821
-43.3962 -0.00149643 -41.6826 -0.00143733 -5.05348 -0.000174258
-42.8257 -0.00147676 -41.7897 -0.00144102 -5.03777 -0.000173716
-42.1404 -0.00145313 -41.57 -0.00143345 -5.41275 -0.000186647
-41.3161 -0.00142471 -41.0303 -0.00141484 -6.16964 -0.000212746
-40.3293 -0.00139068 -40.1863 -0.00138574 -7.28936 -0.000251357
-39.1644 -0.00135051 -39.0601 -0.0013469 -8.74338 -0.000301496
-37.8175 -0.00130407 -37.678 -0.00129924 -10.4951 -0.0003619
-36.298 -0.00125167 -36.0695 -0.00124378 -12.501 -0.000431068
-34.6271 -0.00119405 -34.2666 -0.00118161 -14.7116 -0.000507296
-32.831 -0.00113212 -32.3043 -0.00111394 -17.0722 -0.000588696
-30.9346 -0.00106673 -30.2214 -0.00104212 -19.5239 -0.000673239
-28.9592 -0.00099861 -28.0599 -0.000967582 -22.0052 -0.0007588
-26.9228 -0.000928388 -25.8636 -0.00089185 -24.4533 -0.000843216
-24.8428 -0.000856663 -23.6761 -0.000816417 -26.806 -0.000924344
-22.7372 -0.000784055 -21.5387 -0.000742713 -29.0032 -0.00100011
-20.6236 -0.000711174 -19.4897 -0.000672059 -30.9881 -0.00106856
-18.5178 -0.00063856 -17.5637 -0.000605646 -32.7089 -0.00112789
-16.433 -0.00056667 -15.7907 -0.000544505 -34.1194 -0.00117653
-14.3803 -0.000495888 -14.1945 -0.000489464 -35.181 -0.00121314
-12.3699 -0.000426562 -12.7924 -0.000441118 -35.8627 -0.00123665
-10.4112 -0.000359023 -11.5943 -0.000399805 -36.1423 -0.00124629
-8.51316 -0.000293572 -10.6024 -0.000365601 -36.0065 -0.0012416
-6.68365 -0.000230486 -9.81132 -0.000338322 -35.4514 -0.00122246
-4.92968 -0.000170004 -9.20842 -0.000317532 -34.4818 -0.00118903
-3.25695 -0.000112324 -8.77442 -0.000302566 -33.1115 -0.00114178
-1.67014 -5.7606e-05 -8.48403 -0.000292553 -31.3623 -0.00108146
-0.173351 -5.99264e-06 -8.30671 -0.000286438 -29.2633 -0.00100908
1.02771 3.54234e-05 -8.18403 -0.000282208 -26.8491 -0.000925831
1.637 5.64332e-05 -7.98169 -0.000275231 -24.1858 -0.000833992
2.22899 7.68468e-05 -7.80291 -0.000269066 -21.2754 -0.000733633
2.7748 9.56679e-05 -7.62801 -0.000263035 -18.1707 -0.000626577
3.26478 0.000112564 -7.44865 -0.00025685 -14.9167 -0.000514369
3.73001 0.000128606 -7.22329 -0.000249079 -11.5572 -0.000398523
4.20139 0.00014486 -6.9236 -0.000238745 -8.13875 -0.000280647
4.6992 0.000162027 -6.53892 -0.00022548 -4.70837 -0.000162358
5.24689 0.000180912 -6.05664 -0.00020885 -1.31266 -4.52643e-05
5.87103 0.000202434 -5.45475 -0.000188095 2.13019 7.34546e-05
6.59203 0.000227296 -4.71975 -0.00016275 5.47685 0.000188857
7.4215 0.000255899 -3.83868 -0.000132368 8.66177 0.000298681
8.36873 0.000288562 -2.79975 -9.65432e-05 11.6562 0.000401939
9.4382 0.00032544 -1.56629 -5.40099e-05 14.4309 0.000497617
10.6301 0.00036654 -0.152666 -5.26436e-06 16.9597 0.000584816
11.9406 0.000411729 1.42882 4.92697e-05 19.2202 0.000662767
13.3661 0.000460887 3.17699 0.000109551 21.2025 0.000731121
14.9026 0.000513867 5.08309 0.000175279 22.9024 0.000789738
16.5442 0.000570473 7.13154 0.000245915 24.32 0.000838619
18.283 0.000630435 9.30407 0.00032083 25.4609 0.000877964
20.1078 0.000693356 11.5813 0.000399354 26.3376 0.000908193
22.0022 0.000758681 13.9415 0.000480743 26.9674 0.000929911
23.9457 0.0008257 16.3603 0.000564148 27.3718 0.000943857
25.9144 0.000893586 18.8108 0.00064865 27.5759 0.000950895
27.8825 0.000961451 21.2655 0.000733293 27.6083 0.000952011
29.8233 0.00102837 23.696 0.000817102 27.5003 0.000948285
31.7095 0.00109342 26.0732 0.000899077 27.2844 0.000940841
33.5142 0.00115565 28.3676 0.000978195 26.9937 0.000930816
35.2126 0.00121421 30.5494 0.00105343 26.6613 0.000919354
36.7822 0.00126834 32.5893 0.00112377 26.32 0.000907585
38.2041 0.00131737 34.4594 0.00118826 26.0008 0.000896581
39.4633 0.00136079 36.1332 0.00124597 25.7322 0.000887318
40.5494 0.00139824 37.5863 0.00129608 25.5389 0.000880653
41.4574 0.00142955 38.7965 0.00133781 25.442 0.000877309
42.187 0.00145471 39.7455 0.00137054 25.458 0.000877861
42.7427 0.00147387 40.4189 0.00139376 25.5985 0.000882706
43.1315 0.00148728 40.8075 0.00140716 25.8693 0.000892046
43.3628 0.00149526 40.9077 0.00141061 26.2703 0.000905872
43.4477 0.00149819 40.7214 0.00140419 26.7952 0.000923973
43.3976 0.00149646 40.2538 0.00138806 27.4331 0.000945969
43.2295 0.00149066 39.5175 0.00136268 28.1667 0.000971266
42.9657 0.00148156 38.5325 0.00132871 28.9733 0.000999079
42.6291 0.00146996 37.3241 0.00128704 29.8254 0.00102846
42.2415 0.00145659 35.9224 0.00123871 30.6919 0.00105834
41.8228 0.00144215 34.3625 0.00118492 31.5385 0.00108753
41.3909 0.00142726 32.684 0.00112704 32.3287 0.00111478
40.9618 0.00141246 30.9292 0.00106653 33.0252 0.0011388
40.5504 0.00139828 29.1415 0.00100488 33.5911 0.00115831
40.172 0.00138523 27.3645 0.000943605 33.9908 0.00117209
39.8416 0.00137384 25.6404 0.000884153 34.1915 0.00117902
39.5731 0.00136458 24.0092 0.000827906 34.1644 0.00117808
39.3787 0.00135788 22.5078 0.000776134 33.8852 0.00116846
39.2685 0.00135408 21.169 0.000729969 33.3355 0.0011495
39.2504 0.00135345 20.0208 0.000690374 32.503 0.00112079
39.3309 0.00135623 19.0852 0.000658113 31.3826 0.00108216
39.5158 0.0013626 18.3779 0.000633722 29.9768 0.00103368
39.8112 0.00137279 17.9074 0.0006175 28.2954 0.000975702
40.2188 0.00138685 17.6759 0.000609515 26.3558 0.000908822
40.7266 0.00140436 17.6741 0.000609452 24.1862 0.000834006
41.3489 0.00142581 17.8943 0.000617049 21.8146 0.000752228
42.0859 0.00145123 18.3268 0.000631961 19.2781 0.000664764
42.8718 0.00147833 18.9611 0.000653832 16.616 0.000572965
43.7114 0.00150728 19.7674 0.000681638 13.8783 0.000478561
44.6267 0.00153884 20.7112 0.00071418 11.118 0.00038338
45.5789 0.00157168 21.7637 0.000750476 8.38621 0.000289179
46.4273 0.00160093 22.8921 0.000789387 5.73682 0.000197821
47.199 0.00162754 24.0839 0.000830483 3.21799 0.000110965
47.8626 0.00165043 25.3147 0.000872922 0.882977 3.04474e-05
48.3814 0.00166831 26.5502 0.000915525 -1.19278 -4.11305e-05
48.7162 0.00167986 27.755 0.00095707 -2.93097 -0.000101068
48.8389 0.00168409 28.895 0.000996381 -4.36387 -0.000150478
48.7277 0.00168026 29.9409 0.00103245 -5.45121 -0.000187973
48.3597 0.00166756 30.8539 0.00106393 -6.15778 -0.000212337
47.7308 0.00164588 31.5955 0.0010895 -6.45774 -0.000222681
46.8513 0.00161555 32.134 0.00110807 -6.33581 -0.000218476
45.7372 0.00157713 32.4426 0.00111871 -5.78437 -0.000199461
44.406 0.00153123 32.4979 0.00112062 -4.80252 -0.000165604
42.8784 0.00147856 32.2833 0.00111322 -3.39824 -0.000117181
41.1798 0.00141998 31.79 0.00109621 -1.58958 -5.48133e-05
39.3389 0.00135651 31.0186 0.00106961 0.67956 2.3433e-05
37.3888 0.00128926 29.9715 0.0010335 3.31124 0.000114181
35.3654 0.00121949 28.6636 0.000988402 6.24324 0.000215284
33.3053 0.00114845 27.1165 0.000935055 9.42119 0.000324869
31.2403 0.00107724 25.3606 0.000874507 12.7822 0.000440765
29.195 0.00100671 23.4341 0.000808075 16.255 0.000560517
27.1893 0.000937554 21.3821 0.000737317 19.7635 0.000681501
25.2393 0.000870312 19.255 0.00066397 23.2302 0.000801041
23.3565 0.000805387 17.1062 0.00058987 26.578 0.000916482
21.548 0.000743024 14.9898 0.000516894 29.731 0.00102521
19.8181 0.000683374 12.9595 0.000446882 32.6162 0.0011247
18.1704 0.000626556 11.0654 0.000381566 35.1651 0.00121259
16.609 0.000572713 9.35207 0.000322488 37.3169 0.00128679
15.1381 0.000521995 7.8573 0.000270944 39.02 0.00134552
13.7607 0.000474498 6.61075 0.000227959 40.2331 0.00138735
12.4764 0.00043021 5.63369 0.000194268 40.9259 0.00141124
11.2816 0.00038901 4.93821 0.000170285 41.0793 0.00141653
10.1706 0.000350701 4.52648 0.000156088 40.6867 0.00140299
9.13617 0.00031503 4.39042 0.000151396 39.7537 0.00137082
8.16949 0.000281697 4.51187 0.000155584 38.2984 0.00132064
7.26041 0.000250349 4.86319 0.000167699 36.3506 0.00125347
6.39699 0.000220576 5.4083 0.000186495 33.9503 0.0011707
5.56481 0.00019188 6.10392 0.000210482 31.1469 0.00107403
4.74647 0.000163661 6.90106 0.00023797 27.9976 0.000965435
3.9214 0.000135211 7.74659 0.000267126 24.5662 0.000847111
3.0663 0.000105724 8.58477 0.000296029 20.921 0.000721414
2.65794 9.16429e-05 9.25474 0.000319132 17.1449 0.000591204
2.36623 8.1584e-05 9.75921 0.000336527 13.3026 0.00045871
1.97844 6.82122e-05 10.1005 0.000348297 9.44849 0.00032581
1.48833 5.13117e-05 10.253 0.000353554 5.64982 0.000194821
0.881191 3.03758e-05 10.1858 0.000351238 1.9606 6.76068e-05
0.135174 4.6511e-06 9.8502 0.000339665 -1.48251 -5.11212e-05
-0.753768 -2.60021e-05 9.2195 0.000317916 -4.64776 -0.000160268
-1.76359 -6.08236e-05 8.28133 0.000285566 -7.5748 -0.0002612
-2.87246 -9.90605e-05 7.04069 0.000242785 -10.2287 -0.000352712
-4.08145 -0.00014075 5.47673 0.000188855 -12.5824 -0.000433876
-5.40661 -0.000186445 3.5851 0.000123627 -14.6254 -0.000504326
-6.8351 -0.000235703 1.44728 4.99085e-05 -16.346 -0.000563655
-8.35731 -0.000288193 -0.976924 -3.36847e-05 -17.7622 -0.000612489
-9.95884 -0.000343418 -3.65047 -0.000125876 -18.8754 -0.000650877
-11.626 -0.000400908 -6.54258 -0.000225604 -19.7083 -0.000679596
-13.3379 -0.000459936 -9.61355 -0.000331499 -20.2926 -0.000699745
-15.0715 -0.000519718 -12.818 -0.000441996 -20.6655 -0.000712604
-16.7977 -0.000579241 -16.1055 -0.000555358 -20.8649 -0.000719479
-18.468 -0.000636836 -19.427 -0.000669894 -20.9301 -0.000721728
-20.0737 -0.000692207 -22.722 -0.000783513 -20.9076 -0.00072095
-21.6101 -0.000745187 -25.9288 -0.000894095 -20.8455 -0.000718809
-23.0794 -0.000795851 -28.9848 -0.000999472 -20.7907 -0.00071692
-24.4894 -0.000844474 -31.828 -0.00109752 -20.7868 -0.000716787
-25.8504 -0.000891405 -34.4022 -0.00118628 -20.8731 -0.000719763
-27.1712 -0.000936949 -36.6592 -0.00126411 -21.0837 -0.000727024
-28.4577 -0.000981312 -38.5608 -0.00132968 -21.4457 -0.000739508
-29.6249 -0.00102156 -40.1023 -0.00138284 -21.975 -0.00075776
-30.5712 -0.00105419 -41.2959 -0.00142399 -22.6734 -0.00078184
-31.4113 -0.00108316 -42.1001 -0.00145173 -23.5566 -0.000812296
-32.1355 -0.00110813 -42.5108 -0.00146589 -24.6181 -0.000848901
-32.7461 -0.00112919 -42.5458 -0.00146709 -25.8383 -0.000890976
-33.2415 -0.00114627 -42.2228 -0.00145596 -27.1988 -0.000937889
-33.6226 -0.00115941 -41.5704 -0.00143346 -28.6719 -0.000988686
-33.8983 -0.00116892 -40.6242 -0.00140083 -30.2228 -0.00104217
-34.0802 -0.00117519 -39.4234 -0.00135943 -31.8101 -0.0010969
-34.1831 -0.00117874 -38.0105 -0.0013107 -33.3899 -0.00115138
-34.2243 -0.00118016 -36.4343 -0.00125635 -34.9162 -0.00120401
-34.2236 -0.00118013 -34.748 -0.0011982 -36.3415 -0.00125316
-34.2001 -0.00117933 -33.0044 -0.00113808 -37.6179 -0.00129717
-34.1723 -0.00117837 -31.2554 -0.00107777 -38.6986 -0.00133444
-34.158 -0.00117787 -29.5519 -0.00101903 -39.5401 -0.00136345
-34.1737 -0.00117841 -27.9424 -0.000963528 -40.104 -0.0013829
-34.2342 -0.0011805 -26.4713 -0.000912802 -40.3577 -0.00139165
-34.3528 -0.00118459 -25.1773 -0.000868179 -40.2748 -0.00138879
-34.54 -0.00119104 -24.0928 -0.000830783 -39.8365 -0.00137367
-34.8021 -0.00120008 -23.2439 -0.000801513 -39.032 -0.00134593
-35.1411 -0.00121177 -22.6498 -0.000781026 -37.8603 -0.00130553
-35.5549 -0.00122604 -22.3217 -0.000769712 -36.3291 -0.00125273
-36.0394 -0.00124275 -22.2624 -0.000767667 -34.4552 -0.00118811
-36.5901 -0.00126174 -22.4659 -0.000774683 -32.2646 -0.00111257
-37.1809 -0.00128211 -22.9093 -0.000789973 -29.7937 -0.00102737
-37.7515 -0.00130179 -23.5895 -0.000813427 -27.0808 -0.000933821
-38.317 -0.00132129 -24.4795 -0.000844117 -24.1759 -0.000833651
-38.8756 -0.00134055 -25.5424 -0.00088077 -21.1339 -0.000728755
-39.4209 -0.00135935 -26.7315 -0.000921774 -18.0152 -0.000621215
-39.95 -0.0013776 -27.9989 -0.000965477 -14.8831 -0.00051321
-40.4631 -0.00139529 -29.2974 -0.00101025 -11.8014 -0.000406943
-40.9579 -0.00141235 -30.5775 -0.00105439 -8.83405 -0.000304622
-41.4302 -0.00142864 -31.7899 -0.0010962 -6.04284 -0.000208374
-41.8741 -0.00144394 -32.8905 -0.00113415 -3.48502 -0.000120173
-42.2783 -0.00145788 -33.8416 -0.00116695 -1.21233 -4.18045e-05
-42.6249 -0.00146984 -34.6125 -0.00119353 0.732264 2.52504e-05
-42.8939 -0.00147911 -35.1786 -0.00121305 2.37619 8.19374e-05
-43.0669 -0.00148507 -35.5247 -0.00122499 3.60658 0.000124365
-43.1295 -0.00148723 -35.6398 -0.00122896 4.40002 0.000151725
-43.0679 -0.00148511 -35.5192 -0.0012248 4.74844 0.000163739
-42.8711 -0.00147833 -35.1639 -0.00121255 4.65107 0.000160382
-42.536 -0.00146677 -34.5835 -0.00119253 4.11553 0.000141915
-42.0663 -0.00145057 -33.7937 -0.0011653 3.15869 0.00010892
-41.4732 -0.00143012 -32.8141 -0.00113152 1.80716 6.23156e-05
-40.7751 -0.00140605 -31.667 -0.00109196 0.145332 5.01136e-06
-39.9949 -0.00137914 -30.3821 -0.00104766 -1.79573 -6.19219e-05
-39.1555 -0.0013502 -28.9923 -0.000999734 -3.99457 -0.000137744
-38.277 -0.00131991 -27.5351 -0.000949482 -6.39816 -0.000220626
-37.3745 -0.00128879 -26.0514 -0.000898321 -8.9515 -0.000308672
-36.4611 -0.00125729 -24.5846 -0.000847742 -11.5977 -0.000399921
-35.5502 -0.00122588 -23.1777 -0.000799228 -14.2788 -0.000492372
-34.6576 -0.0011951 -21.8712 -0.000754178 -16.9367 -0.000584026
-33.8009 -0.00116556 -20.7025 -0.000713877 -19.5157 -0.000672954
-32.9984 -0.00113789 -19.7048 -0.000679474 -21.9637 -0.000757368
-32.2685 -0.00111272 -18.9066 -0.000651949 -24.2341 -0.000835659
-31.6288 -0.00109066 -18.3306 -0.000632089 -26.286 -0.000906415
-31.0947 -0.00107224 -17.9939 -0.000620476 -28.0845 -0.000968432
-30.6765 -0.00105782 -17.9075 -0.000617498 -29.6016 -0.00102074
-30.3777 -0.00104752 -18.0774 -0.000623358 -30.8168 -0.00106265
-30.1928 -0.00104114 -18.5042 -0.000638074 -31.718 -0.00109372
-30.1079 -0.00103821 -19.1828 -0.000661475 -32.301 -0.00111383
-30.1028 -0.00103804 -20.1021 -0.000693175 -32.5698 -0.0011231
-30.1529 -0.00103977 -21.2444 -0.000732562 -32.5359 -0.00112193
-30.2289 -0.00104239 -22.5855 -0.000778808 -32.2187 -0.00111099
-30.2983 -0.00104478 -24.0953 -0.000830871 -31.6446 -0.00109119
-30.3287 -0.00104583 -25.7371 -0.000887485 -30.8465 -0.00106367
-30.2898 -0.00104449 -27.4681 -0.000947172 -29.8627 -0.00102975
-30.1551 -0.00103984 -29.2397 -0.00100826 -28.736 -0.000990896
-29.9019 -0.00103111 -30.9994 -0.00106894 -27.5119 -0.000948686
-29.5134 -0.00101772 -32.6912 -0.00112728 -26.2378 -0.000904752
-28.9792 -0.000999291 -34.2574 -0.00118129 -24.9613 -0.000860734
-28.2938 -0.00097566 -35.6403 -0.00122897 -23.7283 -0.000818217
-27.4563 -0.00094678 -36.785 -0.00126844 -22.5817 -0.000778678
-26.4676 -0.000912684 -37.6407 -0.00129795 -21.5595 -0.00074343
-25.3287 -0.000873415 -38.1637 -0.00131599 -20.6936 -0.000713573
-24.041 -0.00082901 -38.3183 -0.00132132 -20.0087 -0.000689957
-22.6064 -0.000779542 -38.0776 -0.00131302 -19.5213 -0.00067315
-21.029 -0.000725149 -37.4246 -0.0012905 -19.2391 -0.000663418
-19.3156 -0.000666067 -36.352 -0.00125351 -19.1607 -0.000660712
-17.476 -0.000602632 -34.8623 -0.00120215 -19.2754 -0.000664668
-15.5227 -0.000535276 -32.9686 -0.00113685 -19.5637 -0.000674611
-13.4698 -0.000464488 -30.6935 -0.00105839 -19.9977 -0.000689575
-11.351 -0.000391424 -28.0691 -0.000967899 -20.5406 -0.000708297
-9.2941 -0.000320496 -25.1102 -0.000865867 -21.1524 -0.000729393
-7.18164 -0.000247653 -21.8891 -0.000754793 -21.7846 -0.000751194
-5.01292 -0.000172869 -18.465 -0.000636723 -22.3838 -0.000771855
-2.8325 -9.76824e-05 -14.9132 -0.000514244 -22.8892 -0.000789283
-0.664543 -2.29253e-05 -11.2829 -0.000389064 -23.2478 -0.000801648
1.46921 5.06523e-05 -7.63415 -0.000263244 -23.4073 -0.00080715
3.52213 0.000121443 -4.05137 -0.0001397 -23.3088 -0.000803752
5.47047 0.000188627 -0.568717 -1.96086e-05 -22.9137 -0.000790128
7.31194 0.000252126 2.77675 9.57524e-05 -22.1804 -0.000764842
9.01732 0.000310932 5.97206 0.000205935 -21.0606 -0.000726226
10.56 0.000364126 8.93739 0.000308188 -19.546 -0.000673999
11.9407 0.00041174 11.6039 0.000400135 -17.6197 -0.000607575
13.1569 0.000453677 13.9471 0.000480938 -15.275 -0.000526724
14.2025 0.000489732 15.939 0.000549623 -12.5138 -0.000431511
15.0818 0.000520051 17.5624 0.000605601 -9.35238 -0.000322496
15.8076 0.00054508 18.8136 0.000648747 -5.81885 -0.00020065
16.3943 0.000565311 19.6975 0.000679226 -1.94958 -6.72268e-05
16.858 0.000581299 20.2307 0.000697614 2.37293 8.18251e-05
17.2227 0.000593875 20.4299 0.000704483 6.96636 0.000240219
17.5159 0.000603987 20.3287 0.000700991 11.7325 0.000404569
17.7669 0.000612642 19.9639 0.000688414 16.6029 0.000572515
18.0069 0.000620919 19.3796 0.000668265 21.5013 0.000741422
18.2698 0.000629985 18.6267 0.000642302 26.343 0.000908379
18.5875 0.000640938 17.761 0.000612452 31.041 0.00107038
18.9868 0.000654708 16.8417 0.000580752 35.5108 0.00122451
19.4858 0.000671913 15.9291 0.000549282 39.6724 0.00136801
20.1006 0.000693115 15.0802 0.000520008 43.4509 0.00149831
20.844 0.00071875 14.3545 0.000494984 46.7518 0.00161213
21.7422 0.00074972 13.7146 0.000472919 47.8849 0.0016512
22.7845 0.000785661 13.253 0.000457002 48.0776 0.00165785
23.9662 0.000826412 13.1365 0.000452984 48.0306 0.00165623
25.2721 0.000871441 13.319 0.000459278 47.9365 0.00165298
26.7054 0.000920868 13.8459 0.000477448 47.9974 0.00165509
28.2558 0.000974329 14.7246 0.000507748 47.9412 0.00165315
29.9182 0.00103165 15.9264 0.000549187 47.2985 0.00163098
31.6907 0.00109277 17.4514 0.000601774 45.9698 0.00158517
33.5705 0.00115759 19.2655 0.000664331 44.0407 0.00151864
35.5499 0.00122585 21.327 0.000735416 41.6629 0.00143665
37.6174 0.00129714 23.5963 0.000813669 38.944 0.0013429
39.7581 0.00137096 26.0309 0.00089762 35.9095 0.00123826
41.9534 0.00144666 28.579 0.000985486 32.5681 0.00112304
44.1807 0.00152346 31.1814 0.00107522 28.9876 0.000999574
46.4142 0.00160048 33.7789 0.00116479 25.2952 0.00087225
48.6249 0.00167671 36.3157 0.00125227 21.6191 0.000745488
50.781 0.00175106 38.7388 0.00133582 18.0425 0.000622155
52.8498 0.0018224 40.9969 0.00141369 14.6139 0.000503928
54.7986 0.0018896 43.0427 0.00148423 11.388 0.000392691
56.5899 0.00195138 44.8337 0.00154599 8.44518 0.000291214
57.2742 0.00197497 45.8516 0.00158109 5.99387 0.000206686
57.2748 0.00197499 46.1741 0.00159221 4.0416 0.000139366
57.3871 0.00197887 46.4351 0.00160121 2.44746 8.43963e-05
57.7083 0.00198994 46.6629 0.00160907 1.23337 4.25309e-05
57.9421 0.00199801 46.7339 0.00161152 0.480393 1.65663e-05
57.9268 0.00199748 46.6953 0.00161019 0.100795 3.47668e-06
57.8592 0.00199515 46.5017 0.00160351 0.148262 5.11348e-06
57.6326 0.00198733 46.0515 0.00158798 0.661262 2.28031e-05
57.1762 0.00197159 45.3088 0.00156237 1.62658 5.60899e-05
56.5158 0.00194882 44.2971 0.00152749 2.99205 0.000103175
55.695 0.00192052 43.0656 0.00148502 4.72719 0.000163007
54.7316 0.0018873 41.649 0.00143617 6.79778 0.000234407
53.6373 0.00184956 40.0723 0.00138181 9.16323 0.000315974
52.4464 0.0018085 38.3809 0.00132348 11.7572 0.000405422
51.1963 0.00176539 36.623 0.00126286 14.5096 0.000500333
49.9149 0.0017212 34.8406 0.0012014 17.3582 0.00059856
48.6312 0.00167694 33.0791 0.00114066 20.244 0.000698069
47.3804 0.00163381 31.3882 0.00108235 23.1031 0.00079666
46.1962 0.00159297 29.8118 0.001028 25.8687 0.000892024
45.1077 0.00155544 28.3877 0.000978888 28.4772 0.000981974
44.1423 0.00152215 27.1524 0.000936291 30.8731 0.00106459
43.3259 0.001494 26.1403 0.000901393 33.0086 0.00113823
42.6797 0.00147172 25.379 0.000875139 34.842 0.00120145
42.2199 0.00145586 24.8878 0.000858201 36.3377 0.00125302
41.9585 0.00144685 24.6806 0.000851058 37.4681 0.001292
41.8806 0.00144416 24.7706 0.000854162 38.2155 0.00131778
41.8869 0.00144438 25.1829 0.000868378 38.5686 0.00132995
41.9817 0.00144765 25.9061 0.000893318 38.5339 0.00132876
42.1621 0.00145387 26.9199 0.000928276 38.1251 0.00131466
42.4235 0.00146288 28.1957 0.000972267 37.3644 0.00128843
42.7583 0.00147443 29.6971 0.00102404 36.2844 0.00125119
43.1567 0.00148816 31.382 0.00108214 34.9264 0.00120436
43.6062 0.00150366 33.2028 0.00114493 33.338 0.00114959
44.0914 0.00152039 35.1078 0.00121061 31.5711 0.00108866
44.5939 0.00153772 37.0427 0.00127734 29.681 0.00102348
45.093 0.00155493 38.9532 0.00134322 27.725 0.000956037
45.5673 0.00157129 40.7857 0.0014064 25.7612 0.000888317
45.9954 0.00158605 42.4883 0.00146512 23.8459 0.000822273
46.3569 0.00159851 44.0122 0.00151766 22.0324 0.000759738
46.6339 0.00160807 45.313 0.00156252 20.3694 0.000702395
46.8117 0.0016142 46.3516 0.00159833 18.9003 0.000651735
46.8795 0.00161653 47.0955 0.00162399 17.6614 0.000609015
46.8311 0.00161487 47.5194 0.0016386 16.6813 0.000575219
46.6638 0.0016091 47.6059 0.00164158 15.9798 0.000551029
46.3771 0.00159921 47.3469 0.00163265 15.5674 0.000536807
45.9707 0.0015852 46.7438 0.00161186 15.4452 0.000532593
45.4434 0.00156701 45.8084 0.0015796 15.6049 0.000538099
44.7921 0.00154456 44.5618 0.00153661 16.0289 0.000552722
44.013 0.00151769 43.0337 0.00148392 16.6914 0.000575565
43.1044 0.00148636 41.2607 0.00142279 17.5589 0.000605482
42.0686 0.00145064 39.2847 0.00135465 18.5922 0.000641111
40.9116 0.00141075 37.1509 0.00128107 19.7468 0.000680924
39.6427 0.00136699 34.9075 0.00120371 20.9748 0.000723269
38.2733 0.00131977 32.6032 0.00112425 22.2263 0.000766424
36.816 0.00126952 30.287 0.00104438 23.4507 0.000808645
35.283 0.00121666 28.0065 0.000965744 24.5983 0.000848218
33.6855 0.00116157 25.8065 0.000889881 25.6217 0.000883508
32.0349 0.00110465 23.7275 0.000818193 26.4772 0.000913006
30.3448 0.00104637 21.8042 0.000751872 27.126 0.00093538
28.6339 0.000987378 20.0634 0.000691844 27.5357 0.000949508
26.9277 0.000928543 18.5232 0.000638734 27.6808 0.00095451
25.2561 0.000870902 17.1933 0.000592876 27.5431 0.000949763
23.6498 0.000815511 16.076 0.000554347 27.1122 0.000934906
22.1355 0.000763293 15.1674 0.000523016 26.3851 0.000909832
20.7327 0.00071492 14.4591 0.000498591 25.3658 0.000874683
19.4522 0.000670765 13.9387 0.000480646 24.0652 0.000829836
18.2962 0.000630903 13.5904 0.000468638 22.5007 0.000775887
17.2598 0.000595167 13.3956 0.000461919 20.6955 0.000713638
16.3327 0.000563199 13.3325 0.000459742 18.678 0.000644069
15.4998 0.000534476 13.377 0.000461278 16.4813 0.00056832
14.7421 0.000508349 13.5033 0.000465632 14.1421 0.00048766
14.0385 0.000484085 13.6838 0.000471857 11.7002 0.000403457
13.3674 0.000460947 13.8898 0.00047896 9.19723 0.000317147
12.7078 0.000438202 14.0919 0.00048593 6.6758 0.000230201
12.0372 0.000415077 14.2614 0.000491774 4.17851 0.000144088
11.3307 0.000390714 14.371 0.000495553 1.74678 6.02346e-05
10.5602 0.000364147 14.4023 0.000496632 -0.366537 -1.26382e-05
9.69841 0.000334429 14.3404 0.000494499 -2.23594 -7.71005e-05
8.72302 0.000300795 14.1423 0.000487668 -3.91753 -0.000135086
7.6159 0.000262618 13.7979 0.000475792 -5.43322 -0.000187351
6.38645 0.000220223 13.2898 0.000458271 -6.77646 -0.00023367
5.49407 0.000189452 12.5112 0.000431421 -7.928 -0.000273378
4.54928 0.000156873 11.5155 0.000397089 -8.8562 -0.000305385
3.45901 0.000119277 10.3239 0.000356 -9.57012 -0.000330003
2.25738 7.78414e-05 8.98874 0.000309959 -10.0758 -0.000347439
0.946833 3.26503e-05 7.50663 0.000258852 -10.3935 -0.000358394
-0.474287 -1.63538e-05 5.87224 0.000202493 -10.5313 -0.000363146
-1.8415 -6.34993e-05 4.19695 0.000144725 -10.5153 -0.000362595
-3.15431 -0.000108769 2.46346 8.49492e-05 -10.3326 -0.000356294
-4.52115 -0.000155901 0.664268 2.29082e-05 -10.0007 -0.000344852
-5.92851 -0.000204431 -1.17379 -4.04731e-05 -9.53658 -0.000328847
-7.34129 -0.000253147 -3.05206 -0.000105241 -8.98975 -0.000309991
-8.73202 -0.000301103 -4.92286 -0.000169751 -8.38265 -0.000289056
-10.1063 -0.000348492 -6.77429 -0.000233594 -7.74307 -0.000267001
-11.4564 -0.000395047 -8.58479 -0.000296025 -7.10277 -0.000244922
-12.7617 -0.000440059 -10.3237 -0.000355987 -6.49898 -0.000224102
-14.0101 -0.000483105 -11.9651 -0.000412586 -5.96189 -0.000205581
-15.1966 -0.00052402 -13.4888 -0.000465127 -5.51548 -0.000190188
-16.3127 -0.000562504 -14.8741 -0.000512896 -5.18279 -0.000178716
-17.348 -0.000598206 -16.1023 -0.00055525 -4.98604 -0.000171932
-18.2982 -0.000630971 -17.161 -0.000591756 -4.94275 -0.000170439
-19.1625 -0.000660775 -18.0409 -0.000622098 -5.06432 -0.000174631
-19.9399 -0.000687583 -18.7345 -0.000646016 -5.35722 -0.000184731
-20.6305 -0.000711395 -19.2388 -0.000663406 -5.82363 -0.000200814
-21.2371 -0.000732314 -19.5572 -0.000674384 -6.46097 -0.000222791
-21.7649 -0.000750514 -19.6972 -0.000679211 -7.26138 -0.000250391
-22.2205 -0.000766222 -19.669 -0.000678238 -8.21193 -0.000283169
-22.6126 -0.000779745 -19.4861 -0.000671933 -9.29533 -0.000320528
-22.953 -0.000791481 -19.166 -0.000660894 -10.4484 -0.000360289
-23.2563 -0.000801941 -18.7202 -0.000645523 -11.5945 -0.000399811
-23.5341 -0.000811522 -18.1835 -0.000627014 -12.7643 -0.000440146
-23.8031 -0.000820797 -17.5795 -0.000606189 -13.9638 -0.000481509
-24.076 -0.000830205 -16.9338 -0.000583923 -15.1739 -0.000523238
-24.3672 -0.000840248 -16.2768 -0.000561267 -16.3684 -0.000564428
-24.6898 -0.000851372 -15.6382 -0.000539247 -17.5149 -0.00060396
-25.0567 -0.000864023 -15.0473 -0.000518869 -18.582 -0.000640759
-25.48 -0.00087862 -14.5313 -0.000501075 -19.5468 -0.000674026
-25.9703 -0.000895528 -14.1164 -0.000486769 -20.3925 -0.000703187
-26.5354 -0.000915012 -13.8275 -0.000476809 -21.1032 -0.000727697
-27.1788 -0.000937201 -13.6875 -0.000471981 -21.6619 -0.000746963
-27.9004 -0.000962082 -13.7163 -0.000472975 -22.0531 -0.000760452
-28.6957 -0.000989508 -13.9303 -0.000480352 -22.2678 -0.000767853
-29.5578 -0.00101923 -14.3413 -0.000494524 -22.3025 -0.000769052
-30.4779 -0.00105096 -14.9549 -0.000515685 -22.144 -0.000763586
-31.4466 -0.00108437 -15.7723 -0.000543869 -21.7959 -0.000751583
-32.454 -0.00111911 -16.7884 -0.000578909 -21.2696 -0.000733435
-33.4904 -0.00115484 -17.992 -0.000620413 -20.5839 -0.00070979
-34.5462 -0.00119125 -19.366 -0.00066779 -19.7649 -0.000681547
-35.6128 -0.00122803 -20.8878 -0.000720267 -18.8434 -0.000649772
-36.6826 -0.00126492 -22.5303 -0.000776903 -17.8527 -0.000615609
-37.7489 -0.00130169 -24.262 -0.000836619 -16.8275 -0.000580256
-38.8027 -0.00133803 -26.0498 -0.000898267 -15.8044 -0.000544979
-39.8147 -0.00137292 -27.8653 -0.000960871 -14.8209 -0.000511065
-40.7886 -0.00140651 -29.6693 -0.00102308 -13.9171 -0.0004799
-41.7255 -0.00143881 -31.4234 -0.00108356 -13.1307 -0.000452782
-42.6238 -0.00146979 -33.0908 -0.00114106 -12.4958 -0.000430888
-43.4802 -0.00149932 -34.6394 -0.00119446 -12.0429 -0.000415271
-44.2905 -0.00152726 -36.042 -0.00124283 -11.7982 -0.000406834
-45.0489 -0.00155342 -37.2759 -0.00128537 -11.7832 -0.000406316
-45.6622 -0.00157457 -38.3536 -0.00132254 -12.0066 -0.00041402
-46.1775 -0.00159234 -39.2463 -0.00135332 -12.4832 -0.000430452
-46.5824 -0.0016063 -39.9411 -0.00137728 -13.2162 -0.000455732
-46.8775 -0.00161647 -40.4329 -0.00139424 -14.2031 -0.00048976
-47.0694 -0.00162309 -40.7288 -0.00140444 -15.431 -0.000532104
-47.1543 -0.00162602 -40.8298 -0.00140792 -16.8877 -0.000582333
-47.1252 -0.00162502 -40.7382 -0.00140476 -18.5546 -0.000639811
-46.9858 -0.00162021 -40.4673 -0.00139542 -20.4051 -0.000703624
-46.7485 -0.00161203 -40.0363 -0.00138056 -22.3353 -0.000770182
-46.4286 -0.001601 -39.4498 -0.00136033 -24.2113 -0.00083487
-46.0325 -0.00158734 -38.7552 -0.00133638 -26.1201 -0.000900692
-45.5751 -0.00157156 -37.9744 -0.00130946 -28.0637 -0.000967714
-45.0672 -0.00155405 -37.1341 -0.00128048 -30.0171 -0.00103507
-44.5226 -0.00153527 -36.2661 -0.00125055 -31.9435 -0.0011015
-43.9546 -0.00151569 -35.3992 -0.00122066 -33.7958 -0.00116537
-43.3781 -0.00149581 -34.5612 -0.00119176 -35.5302 -0.00122518
-42.8074 -0.00147613 -33.7768 -0.00116471 -37.1159 -0.00127986
-42.255 -0.00145708 -33.0684 -0.00114029 -38.5313 -0.00132866
-41.7122 -0.00143836 -32.4606 -0.00111933 -39.7542 -0.00137083
-41.132 -0.00141835 -31.9837 -0.00110288 -40.7567 -0.0014054
-40.5127 -0.001397 -31.6499 -0.00109137 -41.5166 -0.0014316
-39.8476 -0.00137407 -31.4652 -0.001085 -42.0199 -0.00144896
-39.1313 -0.00134937 -31.4293 -0.00108377 -42.2629 -0.00145734
-38.3624 -0.00132285 -31.5336 -0.00108736 -42.2399 -0.00145655
-37.5454 -0.00129468 -31.7599 -0.00109517 -41.9353 -0.00144604
-36.6891 -0.00126515 -32.0855 -0.00110639 -41.3542 -0.00142601
-35.8024 -0.00123457 -32.4819 -0.00112006 -40.5131 -0.001397
-34.891 -0.00120315 -32.9168 -0.00113506 -39.4371 -0.0013599
-33.9566 -0.00117093 -33.3561 -0.00115021 -38.1571 -0.00131576
-32.9983 -0.00113788 -33.765 -0.00116431 -36.7051 -0.00126569
-32.0142 -0.00110395 -34.1081 -0.00117614 -35.1115 -0.00121074
-31.0032 -0.00106908 -34.3504 -0.0011845 -33.4074 -0.00115198
-29.9621 -0.00103319 -34.4585 -0.00118822 -31.6252 -0.00109052
-28.8847 -0.000996033 -34.4029 -0.00118631 -29.7984 -0.00102753
-27.7617 -0.000957308 -34.1585 -0.00117788 -27.958 -0.000964067
-26.5846 -0.000916721 -33.7042 -0.00116221 -26.1305 -0.000901052
-25.3488 -0.000874106 -33.0233 -0.00113873 -24.3384 -0.000839255
-24.0539 -0.000829453 -32.103 -0.001107 -22.6005 -0.000779325
-22.7029 -0.000782866 -30.9362 -0.00106676 -20.9321 -0.000721797
-21.3001 -0.000734496 -29.5214 -0.00101798 -19.3446 -0.000667053
-19.8497 -0.000684482 -27.8641 -0.00096083 -17.8432 -0.000615283
-18.354 -0.000632904 -25.9764 -0.000895735 -16.428 -0.00056648
-16.8127 -0.000579756 -23.877 -0.000823341 -15.0935 -0.000520463
-15.2237 -0.000524963 -21.5906 -0.000744502 -13.8306 -0.000476916
-13.5843 -0.000468433 -19.147 -0.000660238 -12.6268 -0.000435406
-11.8928 -0.000410105 -16.579 -0.000571688 -11.4664 -0.000395392
-10.1498 -0.000350002 -13.922 -0.000480066 -10.3312 -0.000356249
-8.35971 -0.000288275 -11.2117 -0.000386606 -9.20161 -0.000317296
-6.53077 -0.000225208 -8.4836 -0.000292535 -8.0575 -0.000277844
-4.6738 -0.000161175 -5.77234 -0.000199044 -6.87948 -0.000237222
-2.80092 -9.65927e-05 -3.11085 -0.000107268 -5.64926 -0.000194801
-0.936103 -3.22886e-05 -0.527408 -1.81841e-05 -4.34863 -0.000149952
0.823561 2.83894e-05 1.93227 6.66324e-05 -2.94319 -0.000101488
2.49046 8.58687e-05 4.24502 0.000146382 -1.4334 -4.94267e-05
4.1318 0.000142467 6.40878 0.000220995 0.109471 3.77586e-06
5.40799 0.000186473 8.51758 0.000293712 1.68169 5.79903e-05
6.60043 0.000227592 10.4564 0.000360568 3.32194 0.000114551
7.67808 0.000264752 12.1954 0.000420534 5.05517 0.000174317
8.65571 0.000298464 13.7274 0.000473361 6.88207 0.000237314
9.53936 0.000328934 15.0489 0.000518929 8.79922 0.000303422
10.327 0.000356094 16.1577 0.000557164 10.787 0.000371966
11.0191 0.00037996 17.0498 0.000587928 12.8241 0.000442211
11.6262 0.000400895 17.7292 0.000611353 14.8901 0.000513453
12.1601 0.000419303 18.2031 0.000627694 16.9697 0.000585164
12.631 0.000435543 18.4821 0.000637317 19.0447 0.000656713
13.0527 0.000450084 18.5821 0.000640765 21.0871 0.000727143
13.442 0.00046351 18.5218 0.000638684 23.0628 0.000795271
13.8155 0.000476388 18.321 0.000631761 24.9395 0.000859982
14.1884 0.000489246 18.0024 0.000620775 26.6898 0.00092034
14.5759 0.00050261 17.5924 0.000606638 28.2882 0.000975456
14.9933 0.000517001 17.1195 0.000590329 29.7061 0.00102435
15.4544 0.000532903 16.6114 0.00057281 30.9134 0.00106598
15.9721 0.000550755 16.0958 0.000555031 31.8825 0.0010994
16.5575 0.000570938 15.6006 0.000537953 32.5917 0.00112385
17.2189 0.000593745 15.1531 0.000522524 33.0245 0.00113878
17.9614 0.000619348 14.7792 0.000509629 33.1675 0.00114371
18.7867 0.000647809 14.5006 0.000500022 32.9823 0.00113732
19.6935 0.000679076 14.3365 0.000494364 32.4524 0.00111905
20.678 0.000713027 14.3041 0.000493248 31.576 0.00108883
21.7351 0.000749479 14.4155 0.000497089 30.3629 0.001047
22.8586 0.000788219 14.6775 0.000506122 28.8309 0.000994172
24.0419 0.000829022 15.0916 0.000520403 27.0035 0.000931157
25.2783 0.000871657 15.6543 0.000539806 24.9084 0.000858913
26.5614 0.000915903 16.3567 0.000564027 22.5792 0.000778596
27.8848 0.000961538 17.1852 0.000592594 20.0559 0.000691586
29.2414 0.00100832 18.122 0.000624899 17.3844 0.000599464
30.6229 0.00105595 19.1466 0.00066023 14.6141 0.000503935
32.0195 0.00110411 20.2362 0.000697802 11.7959 0.000406757
33.42 0.00115241 21.3668 0.000736788 8.98161 0.000309712
34.8119 0.0012004 22.5139 0.000776344 6.22344 0.000214603
36.1819 0.00124764 23.6532 0.000815628 3.57355 0.000123228
37.5166 0.00129367 24.761 0.000853831 1.08264 3.7334e-05
38.8018 0.00133799 25.8239 0.000890481 -0.998346 -3.44241e-05
40.027 0.00138023 26.8178 0.000924754 -2.77795 -9.57898e-05
41.1807 0.00142002 27.7165 0.000955744 -4.29745 -0.000148186
42.2557 0.00145709 28.5096 0.000983091 -5.54327 -0.000191146
43.2436 0.00149115 29.1856 0.0010064 -6.4988 -0.000224095
44.1398 0.00152206 29.7368 0.00102541 -7.14257 -0.000246294
44.9416 0.00154971 30.1587 0.00103996 -7.45481 -0.000257061
45.6483 0.00157408 30.4525 0.00105009 -7.41753 -0.000255775
46.2609 0.0015952 30.626 0.00105607 -7.01426 -0.00024187
46.7824 0.00161319 30.6878 0.0010582 -6.25232 -0.000215595
47.2166 0.00162816 30.6503 0.00105691 -5.14603 -0.000177448
47.569 0.00164031 30.5301 0.00105277 -3.71284 -0.000128027
47.8465 0.00164988 30.3466 0.00104644 -1.97624 -6.81447e-05
48.0589 0.00165721 30.1214 0.00103867 0.0317978 1.09813e-06
48.2194 0.00166274 29.8686 0.00102996 2.26168 7.79907e-05
48.3373 0.0016668 29.6191 0.00102135 4.66795 0.000160965
48.4286 0.00166995 29.3958 0.00101365 7.23458 0.00024947
48.5083 0.0016727 29.2233 0.0010077 9.9267 0.000342302
48.5763 0.00167505 29.1309 0.00100452 12.7026 0.000438024
48.291 0.00166521 29.2348 0.0010081 15.4952 0.000534319
48.0744 0.00165774 29.4364 0.00101505 18.2972 0.000630941
47.9165 0.0016523 29.755 0.00102604 21.0578 0.000726134
47.8391 0.00164963 30.2058 0.00104158 23.7484 0.000818912
47.8494 0.00164998 30.7945 0.00106188 26.3407 0.000908302
47.951 0.00165349 31.5247 0.00108706 28.8102 0.000993455
48.1482 0.00166029 32.3989 0.0011172 31.1295 0.00107343
48.4441 0.00167049 33.4158 0.00115227 33.2759 0.00114745
48.8373 0.00168405 34.5685 0.00119202 35.2343 0.00121498
49.2987 0.00169996 35.8294 0.0012355 37.0006 0.00127588
49.8148 0.00171775 37.1895 0.0012824 38.57 0.00133
50.4099 0.00173828 38.6383 0.00133236 39.9368 0.00137713
51.076 0.00176125 40.1731 0.00138528 41.0953 0.00141708
51.7866 0.00178575 41.7703 0.00144036 42.0516 0.00145006
52.495 0.00181018 43.418 0.00149718 42.8158 0.00147641
53.2014 0.00183453 45.0967 0.00155506 43.3982 0.00149649
53.8904 0.00185829 46.7805 0.00161312 43.8135 0.00151081
54.5407 0.00188072 48.4408 0.00167038 44.0774 0.00151991
55.1361 0.00190125 50.0515 0.00172592 44.2091 0.00152445
55.667 0.00191955 51.5859 0.00177883 44.2285 0.00152512
56.1251 0.00193535 53.0134 0.00182805 44.1534 0.00152253
56.5047 0.00194844 54.3036 0.00187254 44.0045 0.0015174
56.8034 0.00195874 55.4284 0.00191133 43.8026 0.00151043
57.0204 0.00196622 56.3631 0.00194356 43.5672 0.00150232
57.1556 0.00197088 57.0852 0.00196846 43.3162 0.00149366
57.2106 0.00197278 57.5759 0.00198538 43.0641 0.00148497
57.1885 0.00197202 57.821 0.00199383 42.8216 0.00147661
57.0859 0.00196848 57.8075 0.00199336 42.5966 0.00146885
56.9075 0.00196233 57.5294 0.00198377 42.3926 0.00146182
56.662 0.00195387 56.9898 0.00196517 42.2081 0.00145545
56.3572 0.00194336 56.1986 0.00193789 42.0372 0.00144956
55.9954 0.00193088 55.1715 0.00190247 41.8699 0.00144379
55.5734 0.00191633 53.9309 0.00185969 41.6925 0.00143767
55.084 0.00189945 52.5054 0.00181053 41.4878 0.00143061
54.5185 0.00187995 50.9276 0.00175613 41.2365 0.00142195
53.8692 0.00185756 49.2318 0.00169765 40.9183 0.00141098
53.1321 0.00183215 47.4529 0.00163631 40.5125 0.00139698
52.3083 0.00180374 45.6247 0.00157327 39.9986 0.00137926
51.4033 0.00177253 43.7792 0.00150963 39.3579 0.00135717
50.425 0.0017388 41.9457 0.0014464 38.5738 0.00133013
49.3814 0.00170281 40.1511 0.00138452 37.6325 0.00129767
48.2805 0.00166485 38.4192 0.0013248 36.5234 0.00125943
47.129 0.00162514 36.77 0.00126793 35.2399 0.00121517
45.9321 0.00158387 35.2194 0.00121447 33.7793 0.0011648
44.6929 0.00154114 33.7795 0.00116481 32.1436 0.0011084
43.4132 0.00149701 32.4573 0.00111922 30.3391 0.00104618
42.0933 0.0014515 31.2554 0.00107777 28.377 0.00097852
40.7322 0.00140456 30.1716 0.0010404 26.2727 0.000905955
39.3278 0.00135614 29.1993 0.00100687 24.0455 0.000829158
37.8773 0.00130612 28.3274 0.000976808 21.719 0.000748932
36.3773 0.00125439 27.5409 0.00094969 19.3195 0.00066619
34.8245 0.00120085 26.8216 0.000924886 16.876 0.000581933
33.2164 0.0011454 26.1481 0.000901662 14.4196 0.000497228
31.5521 0.00108801 25.4967 0.000879199 11.9821 0.000413178
29.833 0.00102873 24.8421 0.000856627 9.59589 0.000330894
27.613 0.000952176 23.9798 0.000826891 6.73301 0.000232175
25.3247 0.000873271 23.0223 0.000793874 4.05712 0.000139902
22.9792 0.00079239 21.9253 0.000756046 1.61926 5.58382e-05
20.5793 0.000709635 20.661 0.000712451 -0.362653 -1.25036e-05
18.118 0.000624763 19.2068 0.000662305 -1.93624 -6.67653e-05
15.5814 0.000537294 17.5407 0.000604856 -3.21407 -0.000110828
12.955 0.000446728 15.6676 0.000540264 -4.21962 -0.000145502
10.2324 0.000352845 13.5959 0.000468825 -4.96803 -0.00017131
7.41682 0.000255756 11.3406 0.000391057 -5.45722 -0.000188178
4.51394 0.000155657 8.92716 0.000307835 -5.70782 -0.00019682
1.82412 6.29042e-05 6.34332 0.000218737 -5.7588 -0.000198578
-0.292069 -1.00679e-05 3.53371 0.000121854 -5.62055 -0.00019381
-2.27649 -7.84962e-05 0.871287 3.00467e-05 -5.40769 -0.00018647
-4.23405 -0.000145998 -1.63834 -5.64921e-05 -5.12041 -0.000176564
-6.22171 -0.000214538 -4.07743 -0.000140599 -4.82152 -0.000166258
-8.19146 -0.000282461 -6.39154 -0.000220396 -4.5641 -0.000157381
-10.0964 -0.000348147 -8.51187 -0.00029351 -4.39734 -0.000151631
-11.9428 -0.000411819 -10.4371 -0.000359898 -4.35586 -0.0001502
-13.7049 -0.000472578 -12.146 -0.000418824 -4.47949 -0.000154464
-15.3549 -0.000529478 -13.613 -0.000469413 -4.79129 -0.000165215
-16.8896 -0.000582397 -14.8378 -0.000511646 -5.30154 -0.00018281
-18.2984 -0.000630977 -15.8209 -0.000545546 -5.96931 -0.000205837
-19.5746 -0.000674982 -16.5701 -0.000571382 -6.77376 -0.000233576
-20.7267 -0.000714711 -17.105 -0.000589826 -7.74421 -0.00026704
-21.7659 -0.000750545 -17.4439 -0.000601512 -8.86741 -0.000305771
-22.7064 -0.000782978 -17.6141 -0.000607382 -10.1219 -0.00034903
-23.5666 -0.000812638 -17.6504 -0.000608632 -11.4717 -0.000395574
-24.3639 -0.000840133 -17.5886 -0.000606503 -12.8806 -0.000444155
-25.1158 -0.000866058 -17.4676 -0.000602329 -14.3148 -0.00049361
-25.8403 -0.000891041 -17.3295 -0.000597568 -15.7389 -0.000542719
-26.555 -0.000915686 -17.2156 -0.000593638 -17.1132 -0.000590108
-27.277 -0.000940585 -17.1637 -0.00059185 -18.399 -0.000634447
-28.0237 -0.000966333 -17.2087 -0.000593403 -19.5646 -0.000674641
-28.8111 -0.000993483 -17.3808 -0.000599337 -20.5842 -0.000709799
-29.6535 -0.00102253 -17.7039 -0.000610477 -21.4353 -0.000739148
-30.5636 -0.00105391 -18.1951 -0.000627416 -22.101 -0.000762103
-31.5509 -0.00108796 -18.8649 -0.000650512 -22.5728 -0.00077837
-32.6191 -0.0011248 -19.7176 -0.000679916 -22.8507 -0.000787954
-33.7641 -0.00116428 -20.7521 -0.000715586 -22.9414 -0.000791083
-34.9756 -0.00120605 -21.9602 -0.000757245 -22.8449 -0.000787754
-36.2381 -0.00124959 -23.328 -0.00080441 -22.5739 -0.000778409
-37.5334 -0.00129426 -24.8357 -0.000856402 -22.1585 -0.000764083
-38.8416 -0.00133937 -26.4572 -0.000912315 -21.6371 -0.000746105
-40.1424 -0.00138423 -28.1608 -0.000971058 -21.0528 -0.000725956
-41.4174 -0.00142819 -29.9099 -0.00103137 -20.4505 -0.000705187
-42.6517 -0.00147076 -31.6641 -0.00109186 -19.8767 -0.000685402
-43.8348 -0.00151155 -33.3807 -0.00115106 -19.3789 -0.000668236
-44.9595 -0.00155034 -35.0171 -0.00120749 -19.0023 -0.000655249
-46.02 -0.00158691 -36.5341 -0.00125979 -18.7869 -0.000647822
-47.0105 -0.00162107 -37.8978 -0.00130682 -18.7658 -0.000647095
-47.9248 -0.0016526 -39.0817 -0.00134764 -18.9645 -0.000653947
-48.7554 -0.00168125 -40.0681 -0.00138165 -19.3996 -0.00066895
-49.4945 -0.00170673 -40.8483 -0.00140856 -20.0777 -0.000692331
-50.1353 -0.00172883 -41.4228 -0.00142837 -20.9948 -0.000723958
-50.6734 -0.00174739 -41.7999 -0.00144137 -22.1377 -0.000763366
-51.1075 -0.00176236 -41.9908 -0.00144796 -23.3876 -0.000806466
-51.4376 -0.00177375 -42.0157 -0.00144882 -24.7223 -0.00085249
-51.6672 -0.00178166 -41.9085 -0.00144512 -26.1715 -0.000902463
-51.799 -0.00178621 -41.6955 -0.00143777 -27.7132 -0.000955626
-51.8351 -0.00178745 -41.406 -0.00142779 -29.3118 -0.00101075
-51.7826 -0.00178564 -41.0722 -0.00141628 -30.914 -0.001066
-51.4857 -0.00177541 -40.7744 -0.00140601 -32.4675 -0.00111957
-51.1396 -0.00176347 -40.4834 -0.00139598 -33.9564 -0.00117091
-50.7988 -0.00175172 -40.2112 -0.00138659 -35.3437 -0.00121875
-50.4885 -0.00174102 -39.9824 -0.0013787 -36.5899 -0.00126172
-50.0609 -0.00172628 -39.8475 -0.00137405 -37.6594 -0.0012986
-49.4743 -0.00170605 -39.8265 -0.00137332 -38.5342 -0.00132877
-48.7383 -0.00168067 -39.9155 -0.00137639 -39.2007 -0.00135175
-47.861 -0.00165042 -40.0966 -0.00138264 -39.6494 -0.00136722
-46.8526 -0.00161565 -40.3446 -0.00139119 -39.8812 -0.00137521
-45.7291 -0.0015769 -40.6268 -0.00140092 -39.9014 -0.00137591
-44.5091 -0.00153484 -40.8987 -0.0014103 -39.7063 -0.00136918
-43.2149 -0.00149021 -41.1123 -0.00141766 -39.3104 -0.00135553
-41.8694 -0.00144381 -41.2197 -0.00142137 -38.7381 -0.0013358
-40.4904 -0.00139626 -41.1756 -0.00141985 -38.0168 -0.00131092
-39.0868 -0.00134786 -40.9402 -0.00141173 -37.1713 -0.00128177
-37.656 -0.00129852 -40.483 -0.00139596 -36.2229 -0.00124906
-36.1821 -0.0012477 -39.7843 -0.00137187 -35.1894 -0.00121343
-34.6413 -0.00119457 -38.8346 -0.00133912 -34.0856 -0.00117536
-33.0111 -0.00113835 -37.6318 -0.00129765 -32.9215 -0.00113522
-31.2768 -0.00107855 -36.1795 -0.00124757 -31.7026 -0.00109319
-29.4339 -0.001015 -34.4861 -0.00118917 -30.4301 -0.00104931
-27.483 -0.000947728 -32.5658 -0.00112296 -29.1015 -0.0010035
-25.4246 -0.000876747 -30.4389 -0.00104961 -27.7109 -0.000955548
-23.2584 -0.000802051 -28.131 -0.000970034 -26.2493 -0.000905145
-20.985 -0.00072366 -25.672 -0.000885239 -24.705 -0.000851896
-18.6053 -0.000641599 -23.094 -0.000796342 -23.0658 -0.000795371
-16.1174 -0.00055581 -20.431 -0.000704514 -21.3192 -0.000735144
-13.5156 -0.000466092 -17.7176 -0.000610949 -19.454 -0.000670827
-10.7925 -0.000372193 -14.9868 -0.000516783 -17.4611 -0.000602106
-7.94831 -0.000274118 -12.2658 -0.000422956 -15.3351 -0.000528796
-4.99703 -0.000172349 -9.57371 -0.000330126 -13.0754 -0.000450875
-1.96344 -6.7743e-05 -6.92174 -0.000238679 -10.6863 -0.000368491
0.42349 1.4565e-05 -4.17077 -0.000143817 -8.19672 -0.000282644
2.258 7.78241e-05 -1.4811 -5.10704e-05 -5.57701 -0.000192309
4.07337 0.000140423 1.1466 3.95402e-05 -2.84385 -9.8062e-05
5.85408 0.000201827 3.72992 0.00012862 -0.0230248 -7.92272e-07
7.5595 0.000260634 6.16496 0.000212587 2.6722 9.21465e-05
9.17369 0.000316296 8.46803 0.000292003 5.41776 0.000186821
10.6895 0.000368567 10.6259 0.000366414 8.21626 0.000283321
12.0877 0.000416781 12.6186 0.000435125 11.0434 0.00038081
13.3617 0.000460711 14.4452 0.000498112 13.8693 0.000478252
14.5145 0.000500463 16.1095 0.000555501 16.6424 0.000573878
15.5475 0.000536081 17.6024 0.000606982 19.3418 0.000666959
16.4693 0.000567869 18.9213 0.00065246 21.9476 0.000756815
17.2917 0.000596228 20.0712 0.000692114 24.4286 0.000842366
18.0249 0.000621509 21.0563 0.000726081 26.7409 0.000922103
18.6814 0.000644147 21.8808 0.000754513 28.8498 0.000994821
19.2777 0.000664711 22.5515 0.000777639 30.7317 0.00105972
19.8318 0.000683817 23.0768 0.000795754 32.3623 0.00111594
20.3616 0.000702086 23.4666 0.000809196 33.7109 0.00116245
20.8824 0.000720045 23.7324 0.000818362 34.7505 0.00119829
21.4038 0.000738024 23.8886 0.000823747 35.4644 0.00122291
21.9295 0.00075615 23.9521 0.000825938 35.8415 0.00123591
22.4607 0.000774469 23.9399 0.000825516 35.8636 0.00123668
23.0006 0.000793085 23.8642 0.000822907 35.4942 0.00122394
23.5547 0.000812195 23.7376 0.000818541 34.7289 0.00119755
24.1299 0.000832028 23.5697 0.000812751 33.5815 0.00115799
24.7293 0.000852696 23.3687 0.00080582 32.073 0.00110597
25.3492 0.000874073 23.143 0.000798036 30.2284 0.00104236
25.9806 0.000895846 22.9002 0.000789665 28.0783 0.000968219
26.6113 0.000917593 22.6463 0.000780909 25.6612 0.000884873
27.2277 0.00093885 22.3844 0.00077188 23.0228 0.000793891
27.8154 0.000959114 22.1156 0.000762609 20.2124 0.000696981
28.3578 0.000977819 21.8388 0.000753063 17.2821 0.000595937
28.8376 0.000994362 21.5508 0.000743134 14.2871 0.00049266
29.2374 0.00100815 21.2465 0.000732641 11.2848 0.000389134
29.5415 0.00101863 20.9185 0.00072133 8.3331 0.000287351
29.7251 0.00102497 20.5609 0.000709 5.48757 0.000189229
29.6997 0.00102409 20.187 0.000696106 2.79728 9.64606e-05
29.4524 0.00101556 19.77 0.000681727 0.348333 1.2014e-05
28.9967 0.00099985 19.2975 0.000665432 -1.58941 -5.48049e-05
28.3734 0.000978357 18.7238 0.000645651 -3.24058 -0.000111742
27.6188 0.000952334 18.0373 0.000621977 -4.60862 -0.000158915
26.7625 0.000922809 17.2232 0.000593907 -5.68856 -0.000196155
25.8307 0.000890677 16.2767 0.000561267 -6.45957 -0.000222741
24.8394 0.000856494 15.2026 0.000524231 -6.91327 -0.000238386
23.7957 0.000820504 14.0186 0.000483403 -7.06039 -0.000243459
22.7014 0.000782769 12.7511 0.000439695 -6.91242 -0.000238357
21.557 0.000743307 11.4312 0.000394183 -6.48405 -0.000223585
20.3673 0.000702284 10.0929 0.000348034 -5.80381 -0.000200129
19.1447 0.000660125 8.77219 0.000302491 -4.91273 -0.000169402
17.9074 0.000617458 7.50393 0.000258758 -3.86186 -0.000133165
16.6741 0.000574931 6.32152 0.000217986 -2.70005 -9.31026e-05
15.4605 0.000533082 5.25728 0.000181288 -1.47128 -5.07313e-05
14.2789 0.000492339 4.34064 0.000149679 -0.219511 -7.56684e-06
13.1384 0.00045301 3.59418 0.00012394 0.988998 3.41059e-05
12.0404 0.000415147 3.03885 0.00010479 2.1472 7.40438e-05
10.9776 0.000378502 2.68906 9.27283e-05 3.21218 0.000110767
9.93366 0.000342503 2.55099 8.79672e-05 4.16488 0.000143619
8.88625 0.000306385 2.62298 9.04499e-05 4.98398 0.000171864
7.81116 0.000269313 2.89293 9.97584e-05 5.65486 0.000194998
6.68487 0.000230476 3.33779 0.000115098 6.17673 0.000212993
5.48609 0.000189138 3.92371 0.000135303 6.56096 0.000226243
4.19584 0.000144647 4.60738 0.000158877 6.8213 0.00023522
2.79607 9.63793e-05 5.33787 0.000184067 6.97445 0.000240501
1.40142 4.82878e-05 6.03557 0.000208125 7.04362 0.000242886
0.656278 2.25933e-05 6.48206 0.000223521 7.0795 0.000244123
-0.286888 -9.92969e-06 6.82784 0.000235445 7.06658 0.000243678
-1.26007 -4.34878e-05 7.07032 0.000243806 7.0168 0.000241961
-2.31678 -7.9926e-05 7.15154 0.000246607 6.94667 0.000239543
-3.47789 -0.000119964 7.01184 0.00024179 6.86753 0.000236814
-4.72715 -0.000163042 6.63497 0.000228794 6.78746 0.000234053
-6.05568 -0.000208853 6.0086 0.000207195 6.71047 0.000231398
-7.46677 -0.000257512 5.1156 0.000176402 6.62979 0.000228616
-8.9559 -0.000308861 3.95635 0.000136428 6.5308 0.000225203
-10.5198 -0.000362789 2.54193 8.76548e-05 6.39925 0.000220666
-12.1556 -0.000419196 0.887739 3.06139e-05 6.21522 0.000214321
-13.8525 -0.000477708 -0.960179 -3.31074e-05 5.95101 0.00020521
-15.595 -0.000537797 -2.97416 -0.000102555 5.58248 0.000192502
-17.3698 -0.000598997 -5.13564 -0.000177089 5.0747 0.000174992
-19.163 -0.00066083 -7.41144 -0.000255565 4.39817 0.000151663
-20.96 -0.000722795 -9.76693 -0.000336789 3.52169 0.00012144
-22.748 -0.00078445 -12.1667 -0.000419539 2.41413 8.32484e-05
-24.514 -0.000845346 -14.5708 -0.00050244 1.07159 3.69538e-05
-26.2452 -0.000905043 -16.9375 -0.000584048 -0.393231 -1.35572e-05
-27.9264 -0.000963015 -19.2371 -0.000663345 -2.04816 -7.06236e-05
-29.5438 -0.00101879 -21.4488 -0.000739613 -3.94529 -0.000136042
-31.0834 -0.00107188 -23.5477 -0.000811988 -6.09131 -0.000210043
-32.5328 -0.00112186 -25.5191 -0.000879966 -8.48018 -0.000292417
-33.8796 -0.0011683 -27.3545 -0.000943257 -11.0844 -0.00038222
-35.1131 -0.00121083 -29.0497 -0.00100171 -13.8776 -0.000478535
-36.2272 -0.00124925 -30.6041 -0.00105531 -16.8325 -0.000580429
-37.2218 -0.00128355 -32.0209 -0.00110417 -19.9165 -0.000686774
-38.1026 -0.00131392 -33.3064 -0.00114849 -23.085 -0.000796031
-38.8791 -0.0013407 -34.4686 -0.00118857 -26.2895 -0.00090653
-39.5633 -0.00136429 -35.5177 -0.00122475 -29.483 -0.00101665
-40.1673 -0.00138512 -36.4663 -0.00125746 -32.6188 -0.00112478
-40.7019 -0.00140355 -37.3287 -0.00128719 -35.6465 -0.00122919
-41.176 -0.0014199 -38.1197 -0.00131447 -38.5152 -0.00132811
-41.5981 -0.00143445 -38.8535 -0.00133977 -41.178 -0.00141993
-41.9771 -0.00144752 -39.5424 -0.00136353 -43.5933 -0.00150321
-42.3234 -0.00145946 -40.1957 -0.00138606 -45.7236 -0.00157667
-42.6639 -0.00147121 -40.7389 -0.00140479 -46.0513 -0.00158797
-42.9878 -0.00148238 -41.2666 -0.00142299 -45.9449 -0.00158431
-43.317 -0.00149373 -41.7842 -0.00144083 -45.8651 -0.00158155
-43.6498 -0.00150521 -42.2625 -0.00145733 -45.9607 -0.00158485
-43.9974 -0.00151719 -42.7232 -0.00147321 -46.1091 -0.00158997
-44.3578 -0.00152962 -43.1566 -0.00148815 -46.105 -0.00158982
-44.7266 -0.00154234 -43.5409 -0.00150141 -45.8199 -0.00157999
-45.0948 -0.00155503 -43.8578 -0.00151234 -45.226 -0.00155952
-45.4465 -0.00156716 -44.1087 -0.00152099 -44.335 -0.00152879
-45.7612 -0.00157801 -44.2863 -0.00152711 -43.1128 -0.00148665
-46.014 -0.00158673 -44.3805 -0.00153036 -41.5782 -0.00143373
-46.1502 -0.00159142 -44.3911 -0.00153073 -39.8073 -0.00137266
-46.1545 -0.00159157 -44.3064 -0.0015278 -37.8548 -0.00130534
-46.0174 -0.00158685 -44.1048 -0.00152085 -35.7387 -0.00123237
-45.7395 -0.00157726 -43.76 -0.00150896 -33.4864 -0.0011547
-45.3322 -0.00156322 -43.2517 -0.00149144 -31.1577 -0.0010744
-44.8076 -0.00154513 -42.5625 -0.00146767 -28.8105 -0.000993465
-44.1751 -0.00152332 -41.6784 -0.00143718 -26.4776 -0.000913018
-43.4419 -0.00149804 -40.5925 -0.00139974 -24.1808 -0.000833817
-42.6104 -0.00146936 -39.3066 -0.0013554 -21.9513 -0.000756939
-41.6769 -0.00143717 -37.8304 -0.00130449 -19.8206 -0.000683466
-40.6325 -0.00140116 -36.1812 -0.00124763 -17.8052 -0.000613971
-39.4633 -0.00136084 -34.3837 -0.00118564 -15.9087 -0.000548572
-38.1514 -0.0013156 -32.4684 -0.0011196 -14.133 -0.000487342
-36.6774 -0.00126478 -30.4687 -0.00105064 -12.4811 -0.000430379
-35.0293 -0.00120795 -28.4173 -0.000979905 -10.9508 -0.000377611
-33.2096 -0.0011452 -26.3428 -0.000908371 -9.53358 -0.000328742
-31.2342 -0.00107708 -24.2689 -0.000836858 -8.21939 -0.000283425
-29.1276 -0.00100444 -22.2149 -0.00076603 -7.00022 -0.000241385
-26.9179 -0.000928243 -20.1965 -0.000696428 -5.86823 -0.00020235
-24.6348 -0.000849513 -18.2263 -0.00062849 -4.81334 -0.000165975
-22.3071 -0.00076925 -16.3145 -0.000562568 -3.82452 -0.000131878
-19.9625 -0.0006884 -14.4692 -0.000498935 -2.89202 -9.97222e-05
-17.6251 -0.000607801 -12.6966 -0.00043781 -2.00751 -6.92221e-05
-15.3145 -0.000528124 -11.0019 -0.000379373 -1.16272 -4.00914e-05
-13.0425 -0.000449779 -9.39021 -0.000323798 -0.348969 -1.2031e-05
-10.8108 -0.000372823 -7.87188 -0.000271442 0.339598 1.17127e-05
-8.61649 -0.000297159 -6.44897 -0.000222376 0.964331 3.32552e-05
-6.45778 -0.000222721 -5.11793 -0.000176478 1.57926 5.44596e-05
-4.34346 -0.000149813 -3.87731 -0.000133698 2.19545 7.57075e-05
-2.29377 -7.91343e-05 -2.71566 -9.36414e-05 2.81405 9.70387e-05
-0.35384 -1.224e-05 -1.61976 -5.58518e-05 3.42105 0.00011797
1.06075 3.65389e-05 -0.554386 -1.91146e-05 4.01807 0.000138557
2.01702 6.95137e-05 0.547447 1.88797e-05 4.60582 0.000158824
2.92747 0.000100909 1.60153 5.52275e-05 5.19526 0.000179149
3.7318 0.000128644 2.57209 8.86949e-05 5.78309 0.000199419
4.42536 0.00015256 3.44572 0.00011882 6.37663 0.000219886
5.0175 0.000172979 4.23505 0.000146038 6.97579 0.000240547
5.49914 0.000189587 4.91836 0.000169601 7.58107 0.000261419
5.87258 0.000202464 5.48444 0.000189121 8.18898 0.000282381
6.15048 0.000212047 5.93444 0.000204638 8.79626 0.000303322
6.33971 0.000218572 6.26163 0.00021592 9.39952 0.000324124
6.45081 0.000222403 6.46039 0.000222774 9.99063 0.000344507
6.49633 0.000223973 6.53233 0.000225255 10.5609 0.000364171
6.47954 0.000223394 6.47943 0.000223431 11.1015 0.000382813
6.40437 0.000220802 6.30884 0.000217548 11.6002 0.00040001
6.27674 0.000216401 6.03344 0.000208052 12.0425 0.000415261
6.1008 0.000210334 5.66793 0.000195448 12.4149 0.000428102
5.88051 0.000202737 5.22865 0.0001803 12.7041 0.000438074
5.62123 0.000193797 4.7328 0.000163202 12.896 0.000444691
5.32888 0.000183716 4.19654 0.00014471 12.9777 0.000447511
4.98584 0.000171887 3.64018 0.000125526 12.9225 0.000445606
4.59441 0.000158389 3.07713 0.00010611 12.7035 0.000438054
4.18337 0.000144216 2.51229 8.66329e-05 12.3133 0.000424599
3.78622 0.000130521 1.94667 6.71288e-05 11.7512 0.000405216
3.42931 0.000118213 1.38185 4.76522e-05 11.0211 0.000380041
3.12698 0.000107788 0.821512 2.83302e-05 10.1288 0.000349273
2.88202 9.93413e-05 0.270978 9.34625e-06 9.08179 0.000313168
2.68594 9.25798e-05 -0.259698 -8.95293e-06 7.89133 0.000272117
2.52211 8.69306e-05 -0.755153 -2.60376e-05 6.57421 0.000226699
2.37188 8.17503e-05 -1.2183 -4.20081e-05 5.14923 0.000177562
2.22094 7.65454e-05 -1.64947 -5.6876e-05 3.63586 0.000125377
2.06367 7.11226e-05 -2.05 -7.06874e-05 2.05907 7.10049e-05
1.8975 6.53924e-05 -2.42516 -8.36241e-05 0.449873 1.55153e-05
1.72029 5.92817e-05 -2.77384 -9.56476e-05 -1.01754 -3.50851e-05
1.53634 5.29386e-05 -3.11391 -0.000107374 -2.43962 -8.41223e-05
1.35334 4.66285e-05 -3.4532 -0.000119074 -3.82091 -0.000131753
1.18124 4.0694e-05 -3.80152 -0.000131085 -5.14126 -0.000177282
1.03352 3.56001e-05 -4.16865 -0.000143744 -6.37651 -0.000219877
0.925296 3.18682e-05 -4.56201 -0.000157309 -7.50141 -0.000258667
0.872391 3.00438e-05 -4.98459 -0.00017188 -8.50029 -0.000293111
0.890794 3.06784e-05 -5.43584 -0.000187441 -9.36518 -0.000322935
0.995421 3.42863e-05 -5.91088 -0.000203821 -10.0885 -0.000347878
1.1992 4.1313e-05 -6.39901 -0.000220653 -10.6638 -0.000367714
1.51345 5.21493e-05 -6.8846 -0.000237398 -11.0899 -0.000382409
1.95 6.72029e-05 -7.3482 -0.000253384 -11.373 -0.000392172
2.32419 8.0106e-05 -7.72369 -0.000266332 -11.5267 -0.000397471
2.55947 8.82191e-05 -7.96201 -0.00027455 -11.5629 -0.00039872
2.87676 9.91599e-05 -8.10822 -0.000279592 -11.4703 -0.000395525
3.25611 0.000112241 -8.14206 -0.000280758 -11.2586 -0.000388224
3.69468 0.000127364 -8.04722 -0.000277488 -10.9358 -0.000377094
4.18204 0.00014417 -7.80668 -0.000269194 -10.5085 -0.000362361
4.70888 0.000162336 -7.41387 -0.000255648 -9.98565 -0.00034433
5.26519 0.00018152 -6.86532 -0.000236733 -9.37379 -0.000323232
5.8388 0.000201299 -6.15951 -0.000212395 -8.67525 -0.000299144
6.41573 0.000221193 -5.30036 -0.000182769 -7.89143 -0.000272116
6.98212 0.000240724 -4.29892 -0.000148236 -7.0237 -0.000242194
7.49942 0.000258562 -3.18191 -0.000109719 -6.06854 -0.000209258
7.88552 0.000271876 -1.96631 -6.78018e-05 -5.02045 -0.000173117
8.14846 0.000280943 -0.640481 -2.20834e-05 -3.88126 -0.000133834
8.30324 0.00028628 0.756432 2.6086e-05 -2.64743 -9.12884e-05
8.3456 0.000287741 2.20268 7.59565e-05 -1.30481 -4.49908e-05
8.29319 0.000285933 3.63856 0.00012547 0.0846219 2.92046e-06
8.16206 0.000281412 4.99271 0.000172164 1.42986 4.93078e-05
7.95531 0.000274282 6.23421 0.000214975 2.84736 9.81873e-05
7.6905 0.000265151 7.31587 0.000252273 4.36193 0.000150414
7.38432 0.000254593 8.20669 0.000282991 5.98115 0.000206249
7.04535 0.000242904 8.88546 0.000306397 7.67155 0.000264539
6.6798 0.000230299 9.34049 0.000322088 9.40377 0.000324271
6.29404 0.000216997 9.56739 0.000329912 11.1587 0.000384785
5.89796 0.000203339 9.5713 0.000330047 12.9184 0.000445464
5.50604 0.000189825 9.36693 0.000323 14.644 0.000504969
5.13207 0.000176929 8.97622 0.000309527 16.2882 0.000561663
4.78382 0.000164921 8.4286 0.000290643 17.8097 0.000614131
4.46373 0.000153883 7.76083 0.000267617 19.174 0.000661176
4.17261 0.000143845 7.0135 0.000241847 20.3416 0.000701435
3.91222 0.000134865 6.22721 0.000214733 21.2694 0.00073343
3.68607 0.000127067 5.44069 0.000187612 21.9214 0.000755913
3.49898 0.000120616 4.68934 0.000161704 22.2722 0.000768009
3.35485 0.000115646 4.00345 0.000138052 22.2912 0.000768664
3.25488 0.000112199 3.40384 0.000117376 21.9125 0.000755607
3.19532 0.000110145 2.90898 0.000100312 21.1164 0.000728155
3.16858 0.000109223 2.52908 8.72119e-05 19.9116 0.00068661
3.16576 0.000109125 2.26549 7.81226e-05 18.3226 0.000631818
3.17977 0.000109609 2.11058 7.27809e-05 16.382 0.0005649
3.20688 0.000110544 2.04785 7.06176e-05 14.1286 0.000487196
3.24502 0.000111859 2.05306 7.07972e-05 11.6123 0.000400427
3.29015 0.000113415 2.0969 7.2309e-05 8.894 0.000306692
3.33317 0.000114898 2.14782 7.4065e-05 6.03922 0.000208251
3.36236 0.000115905 2.17327 7.49424e-05 3.11377 0.000107374
3.36757 0.000116085 2.14057 7.38149e-05 0.224489 7.74348e-06
3.33797 0.000115064 2.04427 7.04943e-05 -2.15395 -7.42718e-05
3.2718 0.000112782 1.82364 6.28863e-05 -4.41382 -0.000152198
3.15783 0.000108852 1.47647 5.09149e-05 -6.53636 -0.000225389
2.97885 0.00010268 0.990595 3.41606e-05 -8.49871 -0.000293057
2.71533 9.35933e-05 0.351087 1.21086e-05 -10.2591 -0.000353759
2.35878 8.12985e-05 -0.441357 -1.5217e-05 -11.7708 -0.000405889
1.92714 6.64146e-05 -1.38025 -4.75925e-05 -13.0238 -0.000449093
1.40916 4.85532e-05 -2.45369 -8.46077e-05 -14.0274 -0.000483702
0.817074 2.81364e-05 -3.64249 -0.000125601 -14.7833 -0.000509765
0.187041 6.41108e-06 -4.92333 -0.000169768 -15.2865 -0.00052712
-0.429171 -1.48376e-05 -6.26005 -0.000215862 -15.5499 -0.000536203
-1.05018 -3.62516e-05 -7.62415 -0.0002629 -15.5985 -0.000537877
-1.72299 -5.9452e-05 -8.96478 -0.000309128 -15.446 -0.000532618
-2.37347 -8.18824e-05 -10.2591 -0.000353759 -15.1079 -0.00052096
-2.98546 -0.000102986 -11.4681 -0.000395448 -14.6158 -0.00050399
-3.54195 -0.000122175 -12.5539 -0.000432892 -14.0118 -0.000483162
-4.02855 -0.000138954 -13.4821 -0.000464899 -13.336 -0.000459859
-4.42994 -0.000152795 -14.2208 -0.00049037 -12.6216 -0.000435224
-4.73271 -0.000163236 -14.7445 -0.000508429 -11.8966 -0.000410225
-4.92546 -0.000169882 -15.0343 -0.000518422 -11.1879 -0.000385788
-4.99951 -0.000172436 -15.0769 -0.000519889 -10.5189 -0.000362718
-4.94965 -0.000170716 -14.8652 -0.00051259 -9.90471 -0.000341539
-4.78469 -0.000165028 -14.3966 -0.000496431 -9.35248 -0.000322497
-4.53356 -0.000156368 -13.6745 -0.000471532 -8.86316 -0.000305624
-4.21612 -0.000145422 -12.714 -0.00043841 -8.43143 -0.000290736
-3.85192 -0.000132863 -11.539 -0.000397894 -8.04531 -0.000277422
-3.45668 -0.000119235 -10.183 -0.000351135 -7.68521 -0.000265005
-2.95072 -0.000101787 -8.70829 -0.000300284 -7.3225 -0.000252497
-2.41611 -8.33528e-05 -7.14133 -0.000246251 -6.93701 -0.000239205
-1.87432 -6.46705e-05 -5.52724 -0.000190592 -6.49924 -0.000224109
-1.33159 -4.59555e-05 -3.91143 -0.000134875 -5.98271 -0.000206298
-0.798739 -2.75813e-05 -2.34204 -8.07578e-05 -5.36239 -0.000184908
-0.287245 -9.94362e-06 -0.864344 -2.98028e-05 -4.61475 -0.000159127
0.16236 5.56001e-06 0.469246 1.61831e-05 -3.72061 -0.000128294
0.574845 1.97836e-05 1.648 5.68299e-05 -2.67247 -9.21517e-05
0.98257 3.38431e-05 2.664 9.18643e-05 -1.47648 -5.09108e-05
1.40034 4.82489e-05 3.47068 0.000119681 -0.12494 -4.3058e-06
1.83493 6.32347e-05 4.04312 0.00013942 1.18674 4.09246e-05
2.30512 7.94483e-05 4.399 0.000151692 2.58419 8.91126e-05
2.79802 9.64449e-05 4.55395 0.000157035 4.05657 0.000139884
2.98495 0.000102891 4.63507 0.000159832 5.56449 0.000191881
3.19311 0.000110069 4.57055 0.000157607 7.09035 0.000244497
3.43104 0.000118273 4.37767 0.000150956 8.57867 0.000295819
3.71747 0.00012815 4.09138 0.000141084 9.99328 0.000344598
4.06488 0.00014013 3.75068 0.000129336 11.3112 0.000390042
4.47854 0.000154394 3.39527 0.00011708 12.4955 0.000430882
4.96117 0.000171036 3.06811 0.000105799 13.4987 0.000465476
5.50732 0.000189869 2.80964 9.68862e-05 14.289 0.000492727
6.10946 0.000210632 2.6595 9.17092e-05 14.8477 0.000511991
6.75724 0.00023297 2.65146 9.14319e-05 15.1579 0.00052269
7.4377 0.000256434 2.80915 9.68694e-05 15.1997 0.000524131
8.1409 0.000280682 3.14413 0.00010842 14.9392 0.000515149
8.86132 0.000305524 3.65927 0.000126184 14.3793 0.000495839
9.59411 0.000330793 4.34517 0.000149836 13.5436 0.000467024
10.3332 0.000356277 5.18215 0.000178697 12.466 0.000429864
11.0704 0.000381698 6.14309 0.000211833 11.1876 0.000385781
11.7715 0.000405874 7.20111 0.000248316 9.75564 0.000336404
12.4009 0.000427578 8.32309 0.000287005 8.22433 0.0002836
12.9721 0.000447276 9.45531 0.000326047 6.65542 0.0002295
13.4982 0.000465415 10.5415 0.000363504 5.1102 0.000176216
13.9929 0.000482474 11.5284 0.000397534 3.6481 0.000125799
14.4703 0.000498938 12.3675 0.000426466 2.32413 8.01448e-05
14.9428 0.000515232 13.0173 0.000448875 1.18631 4.09096e-05
15.4194 0.000531664 13.4488 0.000463754 0.298781 1.03053e-05
15.9033 0.000548351 13.6486 0.000470644 -0.293543 -1.01197e-05
16.3939 0.000565268 13.6101 0.000469316 -0.626197 -2.15905e-05
16.6759 0.000574993 13.4121 0.000462488 -0.745055 -2.56891e-05
16.8417 0.000580709 13.042 0.000449725 -0.637466 -2.19791e-05
16.9328 0.00058385 12.4974 0.000430947 -0.292458 -1.00823e-05
16.9727 0.000585228 11.8079 0.000407172 0.237527 8.19304e-06
16.9745 0.000585291 11.0062 0.000379525 0.921799 3.17886e-05
16.9481 0.000584378 10.1363 0.00034953 1.73813 5.99379e-05
16.9097 0.000583056 9.2449 0.000318792 2.65048 9.13985e-05
16.8736 0.000581809 8.37715 0.000288869 3.62159 0.000124885
16.8543 0.000581144 7.58007 0.000261384 4.60964 0.000158956
16.8692 0.000581657 6.8987 0.000237888 5.57264 0.000192162
16.9345 0.00058391 6.37078 0.000219684 6.47346 0.000223225
17.0654 0.000588423 6.02796 0.000207863 7.28363 0.000251162
17.2753 0.00059566 5.89616 0.000203318 7.97893 0.000275138
17.5744 0.000605974 5.99257 0.000206643 8.53943 0.000294466
17.9686 0.000619567 6.32497 0.000218105 8.95317 0.000308733
18.4398 0.000635815 6.88603 0.000237451 9.21981 0.000317927
18.9747 0.00065426 7.64966 0.000263784 9.3504 0.00032243
19.58 0.000675135 8.61189 0.000296964 9.35069 0.00032244
20.263 0.000698685 9.75741 0.000336465 9.22739 0.000318188
20.9961 0.000723966 11.0508 0.000381063 9.0086 0.000310644
21.7361 0.000749482 12.4724 0.000430086 8.72496 0.000300863
22.4421 0.000773826 13.9909 0.000482448 8.41286 0.000290101
23.0821 0.000795897 15.5625 0.00053664 8.11308 0.000279764
23.6337 0.000814917 17.1421 0.000591108 7.86689 0.000271274
24.0848 0.000830473 18.6797 0.00064413 7.71521 0.000266044
24.4304 0.00084239 20.1215 0.000693848 7.69714 0.000265421
24.668 0.000850582 21.418 0.000738555 7.84677 0.000270581
24.7888 0.000854747 22.5277 0.000776818 8.19046 0.000282432
24.7767 0.00085433 23.4176 0.000807505 8.7455 0.000301571
24.6051 0.000848413 24.0579 0.000829585 9.48573 0.000327097
24.2536 0.000836292 24.4213 0.000842116 10.3723 0.000357668
23.712 0.000817618 24.5062 0.000845042 11.4376 0.000394402
22.9698 0.000792025 24.314 0.000838416 12.6731 0.000437005
22.0172 0.000759177 23.8558 0.000822616 14.0494 0.000484465
20.8537 0.000719055 23.1494 0.000798256 15.5268 0.00053541
19.4896 0.000672017 22.2164 0.000766085 17.0593 0.000588254
17.9459 0.000618785 21.081 0.000726934 18.6031 0.000641489
16.2522 0.000560382 19.7704 0.00068174 20.1104 0.000693465
14.4404 0.000497907 18.3147 0.000631542 21.5273 0.000742324
12.5427 0.000432469 16.7455 0.000577433 22.7984 0.000786154
10.5939 0.00036527 15.0949 0.000520515 23.8727 0.000823197
8.63253 0.000297635 13.3934 0.000461843 24.7034 0.000851842
6.69728 0.000230902 11.67 0.000402415 25.2466 0.000870574
4.82072 0.000166193 9.95267 0.000343198 25.4625 0.000878021
3.0252 0.000104279 8.26736 0.000285083 25.2957 0.000872268
1.32908 4.57919e-05 6.63755 0.000228883 24.7014 0.000851776
-0.17637 -6.12034e-06 5.11039 0.000176222 23.6563 0.000815737
-1.51083 -5.21362e-05 3.71017 0.000127939 22.1552 0.000763977
-2.43479 -8.39969e-05 2.30312 7.942e-05 20.2403 0.000697943
-3.25165 -0.000112165 0.985612 3.39888e-05 17.9013 0.000617288
-3.96343 -0.000136709 -0.217612 -7.50168e-06 15.1728 0.000523203
-4.5757 -0.000157821 -1.30758 -4.50868e-05 12.093 0.000417001
-5.10205 -0.000175971 -2.27485 -7.84409e-05 8.71428 0.000300495
-5.54524 -0.000191254 -3.14286 -0.000108372 5.08674 0.000175407
-5.9241 -0.000204318 -3.93196 -0.000135583 1.27896 4.41046e-05
-6.2717 -0.000216304 -4.61922 -0.000159281 -1.9338 -6.66801e-05
-6.60557 -0.000227817 -5.26736 -0.000181631 -5.03458 -0.000173604
-6.95811 -0.000239973 -5.88591 -0.00020296 -8.11389 -0.000279787
-7.35909 -0.0002538 -6.49027 -0.0002238 -11.1622 -0.000384903
-7.83159 -0.000270094 -7.10516 -0.000245003 -14.1159 -0.000486752
-8.392 -0.000289418 -7.75879 -0.000267542 -16.8809 -0.000582098
-9.04926 -0.000312082 -8.47221 -0.000292143 -19.4075 -0.000669221
-9.80511 -0.000338146 -9.26495 -0.000319479 -21.6865 -0.000747806
-10.6571 -0.000367526 -10.1575 -0.000350258 -23.6928 -0.000816989
-11.6008 -0.000400065 -11.165 -0.000384997 -25.3791 -0.000875138
-12.6286 -0.000435509 -12.2932 -0.0004239 -26.7135 -0.000921153
-13.7305 -0.000473505 -13.5413 -0.00046694 -27.6982 -0.000955108
-14.895 -0.000513659 -14.9024 -0.000513874 -28.3451 -0.000977416
-16.1124 -0.000555639 -16.3604 -0.00056415 -28.6574 -0.000988183
-17.3771 -0.000599247 -17.8895 -0.000616878 -28.6292 -0.00098721
-18.6857 -0.000644374 -19.4546 -0.000670846 -28.2459 -0.000973994
-20.0339 -0.000690863 -21.021 -0.000724859 -27.544 -0.000949789
-21.4136 -0.000738438 -22.5511 -0.00077762 -26.5719 -0.000916271
-22.8135 -0.000786711 -24.0075 -0.000827842 -25.3793 -0.000875144
-24.2217 -0.000835271 -25.3548 -0.000874301 -24.019 -0.000828239
-25.6268 -0.000883722 -26.5607 -0.000915884 -22.5457 -0.000777435
-27.0151 -0.000931594 -27.5978 -0.000951648 -21.013 -0.000724585
-28.368 -0.000978245 -28.4465 -0.000980913 -19.4703 -0.000671389
-29.663 -0.0010229 -29.0955 -0.00100329 -17.9622 -0.000619385
-30.8775 -0.00106478 -29.5412 -0.00101866 -16.5278 -0.000569921
-31.9916 -0.0011032 -29.786 -0.0010271 -15.2003 -0.000524146
-32.9919 -0.00113769 -29.8379 -0.00102889 -14.0064 -0.000482976
-33.8752 -0.00116815 -29.7085 -0.00102443 -12.9657 -0.000447091
-34.6499 -0.00119486 -29.4126 -0.00101423 -12.0911 -0.000416934
-35.3317 -0.00121837 -28.9688 -0.000998922 -11.3889 -0.000392718
-35.9401 -0.00123935 -28.4006 -0.000979329 -10.8584 -0.000374426
-36.4948 -0.00125848 -27.7369 -0.000956444 -10.4927 -0.000361813
-37.0123 -0.00127632 -27.0121 -0.000931449 -10.2786 -0.00035443
-37.5046 -0.0012933 -26.265 -0.000905686 -10.1984 -0.000351666
-37.98 -0.00130969 -25.5373 -0.000880593 -10.2311 -0.000352796
-38.4448 -0.00132572 -24.871 -0.000857619 -10.354 -0.000357034
-38.9047 -0.00134158 -24.3064 -0.00083815 -10.544 -0.000363582
-39.3638 -0.00135741 -23.8802 -0.000823453 -10.779 -0.000371689
-39.824 -0.00137328 -23.6242 -0.000814625 -11.0401 -0.000380692
-40.2845 -0.00138916 -23.5639 -0.000812546 -11.3119 -0.000390064
-40.7418 -0.00140493 -23.7173 -0.000817837 -11.5838 -0.000399437
-41.1908 -0.00142041 -24.0937 -0.000830817 -11.8505 -0.000408636
-41.625 -0.00143538 -24.6929 -0.000851477 -12.113 -0.000417686
-42.0255 -0.00144919 -25.508 -0.000879584 -12.3773 -0.000426802
-42.2921 -0.00145839 -26.5465 -0.000915393 -12.6509 -0.000436236
-42.4143 -0.0014626 -27.7776 -0.000957845 -12.9537 -0.000446676
-42.3959 -0.00146197 -29.1536 -0.00100529 -13.3098 -0.000458957
-42.2495 -0.00145692 -30.6165 -0.00105574 -13.7465 -0.000474016
-41.9834 -0.00144774 -32.1038 -0.00110702 -14.2932 -0.000492867
-41.5995 -0.00143451 -33.5502 -0.0011569 -14.978 -0.00051648
-41.0987 -0.00141723 -34.8957 -0.0012033 -15.8233 -0.000545629
-40.4759 -0.00139576 -36.0857 -0.00124433 -16.8461 -0.000580899
-39.7185 -0.00136964 -37.073 -0.00127838 -18.0563 -0.000622629
-38.8065 -0.00133819 -37.8205 -0.00130415 -19.4543 -0.000670835
-37.7141 -0.00130052 -38.3014 -0.00132074 -21.0305 -0.000725187
-36.4149 -0.00125572 -38.4976 -0.0013275 -22.766 -0.000785031
-34.8851 -0.00120297 -38.3997 -0.00132413 -24.6326 -0.000849399
-33.1049 -0.00114159 -38.0062 -0.00131056 -26.5934 -0.000917012
-31.0626 -0.00107116 -37.32 -0.00128689 -28.5646 -0.000984982
-28.7636 -0.000991888 -36.3279 -0.00125268 -30.2339 -0.00104254
-26.2204 -0.000904191 -35.0659 -0.00120917 -31.8262 -0.00109745
-23.4628 -0.000809102 -33.5378 -0.00115647 -33.3405 -0.00114967
-20.5271 -0.000707871 -31.7583 -0.00109511 -34.7408 -0.00119796
-17.4506 -0.000601782 -29.7489 -0.00102582 -35.9604 -0.00124001
-14.2658 -0.000491963 -27.5342 -0.000949454 -36.9278 -0.00127337
-10.9978 -0.000379274 -25.1406 -0.000866916 -37.6062 -0.00129676
-7.66564 -0.000264371 -22.5994 -0.000779286 -37.9662 -0.00130918
-4.28634 -0.000147844 -19.9423 -0.000687663 -37.942 -0.00130834
-1.83678 -6.33763e-05 -16.971 -0.000585205 -37.4665 -0.00129195
0.478132 1.64483e-05 -13.9458 -0.000480886 -36.4203 -0.00125587
2.59957 8.96013e-05 -11.0408 -0.000380716 -34.7796 -0.0011993
4.65603 0.000160514 -8.21417 -0.000283245 -32.5572 -0.00112266
6.66813 0.000229896 -5.42247 -0.00018698 -29.7464 -0.00102573
8.57992 0.00029582 -2.73332 -9.42504e-05 -26.3454 -0.000908461
10.3788 0.000357851 -0.177368 -6.114e-06 -22.3865 -0.000771944
12.0834 0.000416629 2.26896 7.8242e-05 -17.9164 -0.000617805
13.6752 0.000471521 4.64492 0.000160172 -12.9733 -0.000447352
15.1498 0.000522369 6.92226 0.000238701 -7.64144 -0.000263495
16.5296 0.000569948 9.08943 0.000313431 -1.99729 -6.88695e-05
17.8322 0.000614866 11.1114 0.000383154 3.2557 0.000112268
19.068 0.000657479 13.0389 0.00044962 8.29267 0.000285957
20.2749 0.000699095 14.9025 0.000513882 13.3641 0.000460835
21.4788 0.000740611 16.7071 0.000576109 18.4765 0.000637123
22.7129 0.000783164 18.4822 0.00063732 23.5348 0.000811546
24.0064 0.000827769 20.2548 0.000698445 28.3763 0.000978494
25.3848 0.000875299 22.0416 0.000760058 32.9319 0.00113559
26.8674 0.000926425 23.8624 0.000822845 37.194 0.00128256
28.4685 0.000981634 25.74 0.000887587 41.122 0.001418
30.1977 0.00104126 27.6922 0.000954905 44.6243 0.00153877
32.0627 0.00110557 29.7289 0.00102514 47.6379 0.00164269
34.0846 0.00117529 31.7563 0.00109505 48.4405 0.00167037
36.2358 0.00124947 33.8734 0.00116805 48.4944 0.00167223
38.5198 0.00132823 36.1121 0.00124525 48.4698 0.00167138
40.9091 0.00141062 38.4209 0.00132486 48.587 0.00167542
43.3932 0.00149628 40.8153 0.00140743 48.7622 0.00168146
45.9462 0.00158432 43.2672 0.00149198 48.7809 0.00168211
48.5505 0.00167412 45.7346 0.00157706 48.4617 0.0016711
51.1863 0.00176502 48.1657 0.0016609 47.7377 0.00164613
53.8332 0.0018563 50.5353 0.00174261 46.6746 0.00160948
56.4397 0.00194618 52.8156 0.00182124 45.2848 0.00156155
58.1584 0.00200546 55.2268 0.00190439 43.567 0.00150232
59.2248 0.00204223 57.1064 0.00196921 41.7898 0.00144103
59.3881 0.00204787 58.0815 0.00200284 40.1178 0.00138338
59.5845 0.00205464 58.7706 0.0020266 38.4019 0.00132421
60.0955 0.00207226 59.6401 0.00205659 36.565 0.00126087
60.383 0.00208218 60.1854 0.00207539 34.8326 0.00120113
60.53 0.00208725 60.4334 0.00208395 33.2116 0.00114523
60.8566 0.00209851 60.7327 0.00209427 31.5959 0.00108952
61.1077 0.00210717 60.8278 0.00209755 30.1366 0.0010392
61.2293 0.00211137 60.698 0.00209307 28.8849 0.00099604
61.3852 0.00211674 60.5177 0.00208686 27.7797 0.000957927
61.5341 0.00212188 60.2283 0.00207688 26.8438 0.000925657
61.6053 0.00212433 59.7823 0.0020615 26.1283 0.000900985
61.6197 0.00212483 59.2258 0.00204231 25.6393 0.000884121
61.5399 0.00212208 58.5333 0.00201843 25.3627 0.000874582
61.3356 0.00211504 57.6965 0.00198957 25.2858 0.000871933
61.053 0.00210529 56.78 0.00195797 25.3954 0.00087571
60.7156 0.00209366 55.825 0.00192504 25.6713 0.000885226
60.3387 0.00208066 54.8554 0.0018916 26.0776 0.000899235
59.9553 0.00206744 53.9182 0.00185929 26.575 0.000916389
59.5923 0.00205492 53.0559 0.00182955 27.1348 0.00093569
59.2702 0.00204381 52.3014 0.00180353 27.7276 0.000956131
59.0133 0.00203496 51.689 0.00178242 28.319 0.000976524
58.8408 0.00202901 51.248 0.00176721 28.8789 0.000995833
58.7664 0.00202644 51.0011 0.0017587 29.3861 0.00101332
58.8016 0.00202766 50.9656 0.00175747 29.8246 0.00102844
58.953 0.00203287 51.1507 0.00176385 30.1831 0.00104081
59.2218 0.00204215 51.558 0.0017779 30.457 0.00105025
59.6061 0.0020554 52.1826 0.00179944 30.6491 0.00105687
60.0992 0.0020724 53.0118 0.00182803 30.7696 0.00106103
60.6903 0.00209278 54.0256 0.00186299 30.8346 0.00106327
61.3642 0.00211602 55.199 0.00190345 30.8648 0.00106431
62.0573 0.00213992 56.5122 0.00194873 30.8837 0.00106496
62.3683 0.00215064 57.8498 0.00199486 30.9411 0.00106694
62.2709 0.00214729 59.1173 0.00203857 31.0835 0.00107185
62.2075 0.0021451 60.4957 0.0020861 31.2775 0.00107854
62.1758 0.00214401 61.8372 0.00213236 31.52 0.0010869
62.0214 0.00213868 63.0074 0.00217271 31.686 0.00109263
61.7397 0.00212897 64.1468 0.002212 32.0487 0.00110514
61.2319 0.00211146 65.2141 0.0022488 32.6232 0.00112494
60.4432 0.00208426 66.1245 0.00228019 33.4214 0.00115247
59.4137 0.00204876 66.8704 0.00230591 34.4675 0.00118854
58.1376 0.00200476 67.4217 0.00232492 35.7301 0.00123208
56.6001 0.00195174 67.7083 0.00233481 37.2475 0.00128441
54.8134 0.00189013 67.6422 0.00233253 38.9508 0.00134314
52.8228 0.00182149 67.3891 0.0023238 40.8786 0.00140962
50.6015 0.00174489 66.8593 0.00230553 42.9672 0.00148163
48.1793 0.00166137 65.992 0.00227562 45.1307 0.00155624
45.5772 0.00157164 64.7657 0.00223334 47.2968 0.00163093
42.8149 0.00147639 63.1953 0.00217919 48.7392 0.00168067
39.9222 0.00137664 61.268 0.00211273 49.0177 0.00169027
36.9047 0.00127259 59.0957 0.00203782 48.9641 0.00168842
33.7756 0.00116469 56.6882 0.0019548 49.0488 0.00169135
30.545 0.00105329 54.1135 0.00186602 49.3227 0.00170079
27.2308 0.000939006 51.4337 0.00177361 49.5308 0.00170797
23.8579 0.000822702 48.6859 0.00167886 49.5313 0.00170798
20.4542 0.000705331 45.8974 0.00158271 49.4557 0.00170538
17.0537 0.000588073 43.0948 0.00148607 49.063 0.00169184
13.6815 0.00047179 40.3096 0.00139003 48.1507 0.00166038
10.3558 0.000357112 37.5656 0.0012954 46.5897 0.00160655
7.08909 0.000244465 34.8756 0.00120264 44.4009 0.00153107
3.88724 0.000134057 32.2542 0.00111225 41.6666 0.00143679
1.74267 6.01059e-05 29.4623 0.00101598 38.4437 0.00132565
0.202049 6.98119e-06 26.702 0.000920798 34.6406 0.00119451
-1.06002 -3.65385e-05 24.0824 0.000830465 30.2835 0.00104427
-2.03655 -7.02118e-05 21.755 0.000750209 25.4383 0.00087719
-2.91265 -0.000100422 19.5565 0.000674399 20.2125 0.000696989
-3.76151 -0.000129693 17.4281 0.000601007 14.6637 0.000505653
-4.52943 -0.000156173 15.4396 0.000532436 8.84475 0.000304999
-5.23718 -0.000180579 13.578 0.000468246 2.86614 9.88405e-05
-5.94139 -0.000204862 11.9012 0.000410426 -1.38542 -4.77651e-05
-6.61081 -0.000227945 10.3274 0.000356156 -4.86584 -0.00016778
-7.27242 -0.000250759 8.81881 0.000304135 -8.24404 -0.000284269
-7.94526 -0.000273961 7.36453 0.000253987 -11.645 -0.000401543
-8.63955 -0.000297901 5.93634 0.00020474 -15.018 -0.000517853
-9.36597 -0.000322951 4.50869 0.00015551 -18.1281 -0.0006251
-10.1459 -0.000349846 3.06633 0.000105774 -20.912 -0.000721095
-10.983 -0.000378709 1.66152 5.73317e-05 -23.4545 -0.000808769
-11.8869 -0.000409879 0.251512 8.71089e-06 -25.7734 -0.000888731
-12.8675 -0.000443692 -1.2131 -4.17931e-05 -27.7785 -0.000957871
-13.9336 -0.000480457 -2.74128 -9.4489e-05 -29.3922 -0.00101352
-15.0822 -0.000520061 -4.3257 -0.000149124 -30.6434 -0.00105666
-16.3157 -0.000562598 -5.97154 -0.000205877 -31.5806 -0.00108898
-17.6281 -0.000607852 -7.67228 -0.000264523 -32.1899 -0.00110999
-19.0108 -0.00065553 -9.41597 -0.000324651 -32.4366 -0.0011185
-20.4545 -0.000705314 -11.1846 -0.000385638 -32.2676 -0.00111267
-21.9482 -0.000756823 -12.9527 -0.000446607 -31.6234 -0.00109045
-23.4784 -0.000809588 -14.701 -0.000506895 -30.5399 -0.00105309
-25.0305 -0.000863108 -16.4042 -0.000565626 -29.0591 -0.00100203
-26.589 -0.000916849 -18.0368 -0.000621922 -27.2459 -0.000939508
-28.1364 -0.00097021 -19.5744 -0.000674943 -25.1755 -0.000868112
-29.6546 -0.00102256 -20.9937 -0.000723885 -22.9183 -0.000790279
-31.1249 -0.00107326 -22.2728 -0.00076799 -20.5383 -0.000708211
-32.5286 -0.00112167 -23.3927 -0.00080661 -18.1049 -0.000624299
-33.8484 -0.00116718 -24.3387 -0.000839229 -15.6897 -0.000541017
-34.8334 -0.00120115 -24.9623 -0.000860733 -13.8152 -0.000476378
-35.7486 -0.00123271 -25.4628 -0.000877992 -12.0232 -0.000414586
-36.5893 -0.00126169 -25.8377 -0.000890919 -10.3396 -0.000356531
-37.3525 -0.00128801 -26.0862 -0.00089949 -8.78851 -0.000303046
-38.0371 -0.00131162 -26.2096 -0.000903744 -7.39165 -0.000254878
-38.6435 -0.00133253 -26.2094 -0.000903736 -6.16628 -0.000212624
-39.1737 -0.00135082 -26.0902 -0.000899629 -5.12396 -0.000176682
-39.6315 -0.0013666 -25.8591 -0.00089166 -4.27317 -0.000147344
-40.022 -0.00138007 -25.5262 -0.000880179 -3.61864 -0.000124774
-40.3519 -0.00139144 -25.1036 -0.000865606 -3.16182 -0.000109022
-40.6286 -0.00140099 -24.6053 -0.000848425 -2.90056 -0.000100013
-40.8606 -0.00140899 -24.0474 -0.000829187 -2.82852 -9.75285e-05
-41.0572 -0.00141577 -23.4476 -0.000808503 -2.93571 -0.000101225
-41.2278 -0.00142165 -22.824 -0.000787 -3.20947 -0.000110665
-41.383 -0.001427 -22.1973 -0.000765388 -3.63442 -0.000125318
-41.5337 -0.0014322 -21.5889 -0.000744408 -4.19346 -0.000144596
-41.691 -0.00143762 -21.0205 -0.000724811 -4.86799 -0.000167855
-41.8657 -0.00144365 -20.5142 -0.000707352 -5.63798 -0.000194406
-42.0686 -0.00145064 -20.0911 -0.00069276 -6.48296 -0.000223544
-42.31 -0.00145897 -19.771 -0.000681725 -7.38284 -0.000254574
-42.5993 -0.00146895 -19.5729 -0.000674894 -8.31848 -0.000286837
-42.9412 -0.00148074 -19.5099 -0.000672721 -9.2731 -0.000319755
-43.3443 -0.00149464 -19.5952 -0.000675662 -10.2299 -0.00035275
-43.8166 -0.00151092 -19.8462 -0.000684315 -11.1738 -0.000385297
-44.3589 -0.00152963 -20.2708 -0.000698958 -12.0927 -0.000416983
-44.7898 -0.00154449 -20.9583 -0.000722665 -12.9629 -0.00044699
-45.2494 -0.00156033 -21.8751 -0.000754279 -13.7855 -0.000475355
-45.7718 -0.00157835 -22.9663 -0.000791907 -14.5707 -0.00050243
-46.3633 -0.00159875 -24.2133 -0.000834905 -15.3243 -0.000528417
-47.0248 -0.00162156 -25.5886 -0.000882332 -16.0212 -0.00055245
-47.7582 -0.00164686 -27.1121 -0.000934866 -16.6922 -0.000575588
-48.5444 -0.00167397 -28.7701 -0.000992039 -17.3488 -0.000598229
-49.3767 -0.00170267 -30.5485 -0.00105336 -18.0012 -0.000620724
-50.2469 -0.00173268 -32.4298 -0.00111823 -18.6648 -0.000643609
-51.1462 -0.0017637 -34.3967 -0.00118606 -19.3511 -0.000667271
-52.061 -0.00179525 -36.4275 -0.00125609 -20.0763 -0.00069228
-52.9795 -0.00182693 -38.5017 -0.00132761 -20.8578 -0.000719227
-53.8915 -0.00185839 -40.5992 -0.00139994 -21.7108 -0.000748642
-54.7852 -0.00188921 -42.6967 -0.00147226 -22.6505 -0.000781046
-55.6474 -0.00191895 -44.7707 -0.00154378 -23.6907 -0.000816914
-55.7942 -0.00192402 -46.4727 -0.00160247 -24.9294 -0.000859627
-55.5556 -0.00191579 -47.9921 -0.00165486 -26.3058 -0.000907091
-55.3973 -0.00191033 -49.5246 -0.00170771 -27.7854 -0.000958112
-55.4613 -0.00191254 -51.1098 -0.00176237 -29.3485 -0.00101201
-55.501 -0.00191391 -52.643 -0.00181524 -31.0155 -0.00106949
-55.3699 -0.00190939 -53.9766 -0.00186123 -32.4934 -0.00112045
-55.2608 -0.00190563 -55.187 -0.00190297 -33.8034 -0.00116563
-55.2715 -0.00190599 -56.3393 -0.0019427 -34.9689 -0.00120582
-55.2907 -0.00190665 -57.3397 -0.0019772 -36.19 -0.00124792
-55.2631 -0.0019057 -58.1471 -0.00200504 -37.5235 -0.00129391
-55.2457 -0.0019051 -58.796 -0.00202741 -38.9364 -0.00134263
-55.2847 -0.00190645 -59.3178 -0.00204541 -40.3626 -0.00139181
-55.3446 -0.00190851 -59.6953 -0.00205842 -41.7674 -0.00144025
-55.3656 -0.00190924 -59.9064 -0.0020657 -43.1616 -0.00148832
-55.3073 -0.00190723 -59.9475 -0.00206712 -44.5681 -0.00153682
-55.1664 -0.00190237 -59.839 -0.00206338 -45.8341 -0.00158048
-54.95 -0.00189491 -59.532 -0.00205279 -46.0779 -0.00158889
-54.6368 -0.00188411 -59.113 -0.00203834 -46.1022 -0.00158972
-54.2342 -0.00187022 -58.6096 -0.00202099 -46.0752 -0.00158879
-53.7374 -0.00185309 -58.0196 -0.00200064 -46.1028 -0.00158975
-53.1513 -0.00183288 -57.3721 -0.00197831 -46.2451 -0.00159465
-52.4789 -0.0018097 -56.6919 -0.00195486 -46.4189 -0.00160065
-51.7196 -0.00178351 -55.9938 -0.00193078 -46.5194 -0.00160411
-50.8729 -0.00175432 -55.2928 -0.00190661 -46.5315 -0.00160453
-49.9377 -0.00172207 -54.5997 -0.00188271 -46.5181 -0.00160406
-48.9135 -0.00168675 -53.926 -0.00185948 -46.5442 -0.00160496
-47.7996 -0.00164834 -53.2797 -0.0018372 -46.6099 -0.00160723
-46.5957 -0.00160683 -52.6637 -0.00181596 -46.664 -0.0016091
-45.3045 -0.0015623 -52.0702 -0.00179549 -46.5251 -0.00160431
-43.93 -0.00151491 -51.4847 -0.0017753 -46.1025 -0.00158973
-42.477 -0.0014648 -50.9015 -0.00175519 -45.4043 -0.00156566
-40.9499 -0.00141215 -50.3073 -0.0017347 -44.4549 -0.00153292
-39.3534 -0.00135709 -49.6854 -0.00171325 -43.2688 -0.00149202
-37.6923 -0.00129981 -49.0184 -0.00169026 -41.8519 -0.00144316
-35.9734 -0.00124054 -48.2879 -0.00166507 -40.2136 -0.00138667
-34.2067 -0.00117962 -47.4736 -0.00163699 -38.3741 -0.00132324
-32.4048 -0.00111749 -46.554 -0.00160528 -36.362 -0.00125386
-30.5805 -0.00105458 -45.5084 -0.00156922 -34.2044 -0.00117946
-28.7458 -0.000991313 -44.3188 -0.0015282 -31.9228 -0.00110078
-26.912 -0.000928078 -42.9709 -0.00148172 -29.5346 -0.00101843
-25.0893 -0.000865228 -41.4537 -0.0014294 -27.0585 -0.000933046
-23.2852 -0.000803016 -39.7609 -0.00137103 -24.5153 -0.000845349
-21.5023 -0.000741536 -37.8916 -0.00130657 -21.9249 -0.000756024
-19.7391 -0.000680738 -35.8507 -0.0012362 -19.3027 -0.000665604
-17.9918 -0.000620487 -33.6488 -0.00116027 -16.6592 -0.000574448
-16.2561 -0.000560634 -31.3005 -0.00107929 -14.0019 -0.000482819
-14.5291 -0.000501082 -28.8237 -0.000993887 -11.3382 -0.000390966
-12.8099 -0.000441801 -26.2394 -0.000904772 -8.67478 -0.000299124
-11.0995 -0.000382819 -23.571 -0.000812757 -6.01669 -0.000207465
-9.39916 -0.000324188 -20.844 -0.000718725 -3.36617 -0.000116068
-7.71046 -0.000265957 -18.0856 -0.000623608 -0.70252 -2.42181e-05
-6.02344 -0.000207784 -15.3794 -0.00053029 0.881354 3.03982e-05
-4.35012 -0.000150083 -12.7118 -0.000438302 2.26933 7.82593e-05
-2.68176 -9.25537e-05 -10.0867 -0.000347781 3.59853 0.000124094
-1.0215 -3.53031e-05 -7.55625 -0.000260525 4.97344 0.000171505
0.526066 1.80612e-05 -5.14809 -0.000177485 6.4407 0.0002221
1.63258 5.62167e-05 -3.11222 -0.000107283 7.98782 0.000275449
2.66409 9.17863e-05 -1.28475 -4.42666e-05 9.49055 0.000327267
3.80917 0.000131272 0.421823 1.45807e-05 10.9358 0.000377103
4.69415 0.000161788 2.17197 7.49307e-05 12.3464 0.000425743
5.41043 0.000186487 3.86032 0.00013315 13.7657 0.000474685
6.03716 0.000208099 5.41946 0.000186913 15.2311 0.000525216
6.58602 0.000227025 6.78826 0.000234113 16.6634 0.000574607
7.11924 0.000245412 8.03678 0.000277165 18.032 0.0006218
7.61199 0.000262403 9.13962 0.000315194 19.3413 0.000666947
8.03126 0.000276861 10.0671 0.000347175 20.6273 0.000711293
8.394 0.000289369 10.8495 0.000374157 21.8925 0.000754921
8.71498 0.000300438 11.4965 0.000396467 23.1021 0.000796632
8.99135 0.000309967 12.0041 0.00041397 24.2284 0.00083547
9.21808 0.000317786 12.3683 0.000426527 25.2632 0.000871153
9.40523 0.000324239 12.6027 0.00043461 26.2134 0.000903916
9.56497 0.000329747 12.7235 0.000438777 27.0803 0.00093381
9.70007 0.000334406 12.7347 0.000439163 27.8511 0.00096039
9.81371 0.000338325 12.641 0.000435931 28.5062 0.000982981
9.91422 0.000341791 12.4541 0.000429486 29.0316 0.0010011
10.0101 0.000345098 12.1887 0.000420337 29.4244 0.00101464
10.1062 0.000348411 11.8564 0.000408876 29.6851 0.00102363
10.2079 0.000351919 11.4683 0.000395492 29.8098 0.00102793
10.3229 0.000355883 11.0356 0.000380572 29.7385 0.00102547
10.4585 0.000360559 10.5635 0.000364293 29.3842 0.00101326
10.6195 0.000366111 10.0658 0.000347132 28.7306 0.000990716
10.8111 0.000372717 9.55284 0.000329444 27.7812 0.00095798
11.0345 0.000380422 9.02841 0.00031136 26.5495 0.000915509
11.2949 0.0003894 8.50474 0.000293302 25.0474 0.000863712
11.5959 0.000399779 7.9916 0.000275608 23.2864 0.000802986
11.9364 0.000411522 7.49534 0.000258495 21.2783 0.000733742
12.3189 0.00042471 7.02542 0.000242291 19.0395 0.000656543
12.7427 0.000439323 6.58601 0.000227139 16.5949 0.000572244
13.2064 0.000455314 6.18149 0.00021319 13.9742 0.000481876
13.708 0.000472611 5.81626 0.000200596 11.2077 0.000386478
14.245 0.000491129 5.49412 0.000189488 8.32473 0.000287067
14.814 0.000510748 5.21748 0.000179949 5.35618 0.000184703
15.4105 0.000531317 4.98744 0.000172016 2.33672 8.0584e-05
16.0287 0.000552635 4.81396 0.000166034 -0.143813 -4.95174e-06
16.6578 0.000574327 4.76654 0.000164399 -2.08317 -7.18261e-05
17.3053 0.000596654 4.72887 0.0001631 -3.82867 -0.000132016
17.9627 0.000619326 4.73917 0.000163455 -5.52073 -0.000190363
18.627 0.000642231 4.80097 0.000165586 -7.20562 -0.000248462
19.2924 0.000665177 4.90287 0.0001691 -8.86196 -0.000305578
19.9572 0.000688101 5.04207 0.0001739 -10.4156 -0.000359151
20.616 0.000710818 5.21406 0.00017983 -11.8073 -0.000407142
21.2647 0.000733188 5.42059 0.000186952 -13.0338 -0.000449434
21.8998 0.000755086 5.66155 0.000195261 -14.124 -0.000487028
22.5179 0.000776399 5.93373 0.000204646 -15.0882 -0.000520275
23.1165 0.000797041 6.23445 0.000215016 -15.8986 -0.00054822
23.6933 0.000816931 6.56281 0.000226339 -16.5156 -0.000569497
24.2465 0.000836009 6.91961 0.000238643 -16.9218 -0.000583502
24.7752 0.000854239 7.3054 0.000251945 -17.1275 -0.000590595
25.2789 0.000871609 7.72041 0.000266256 -17.1316 -0.000590738
25.7573 0.000888103 8.17205 0.00028183 -16.8553 -0.000581211
26.2117 0.000903773 8.66144 0.000298705 -16.2641 -0.000560824
26.6428 0.000918639 9.19067 0.000316955 -15.3503 -0.000529313
27.0525 0.000932768 9.76351 0.000336708 -14.1274 -0.000487146
27.4428 0.000946225 10.3835 0.000358085 -12.6218 -0.000435228
27.8161 0.000959098 11.0539 0.000381204 -10.8552 -0.000374309
28.1754 0.000971487 11.7782 0.000406181 -8.83919 -0.000304792
28.5239 0.000983506 12.5599 0.000433136 -6.58495 -0.00022706
28.8651 0.00099527 13.3974 0.000462016 -4.11352 -0.000141838
29.1989 0.00100678 14.2848 0.000492613 -1.47048 -5.0699e-05
29.5345 0.00101835 15.2152 0.000524699 0.801955 2.76609e-05
29.8775 0.00103018 16.1595 0.000557258 2.76216 9.52544e-05
30.2251 0.00104217 17.1906 0.000592816 4.70391 0.000162211
30.5828 0.0010545 18.294 0.000630865 6.71647 0.00023161
30.9469 0.00106706 19.4563 0.000670943 8.83977 0.000304827
31.3245 0.00108008 20.6906 0.000713504 11.0323 0.000380432
31.7141 0.00109351 21.9949 0.000758479 13.2211 0.000455907
32.1164 0.00110738 23.3664 0.000805773 15.3664 0.000529883
32.5316 0.0011217 24.7985 0.000855157 17.4812 0.000602808
32.9598 0.00113647 26.2845 0.000906396 19.5931 0.000675632
33.4001 0.00115165 27.8198 0.000959339 21.7005 0.000748301
33.8503 0.00116717 29.3976 0.00101374 23.7687 0.000819618
34.3081 0.00118296 31.0088 0.0010693 25.7623 0.000888362
34.7715 0.00119894 32.6428 0.00112565 27.6717 0.000954203
35.2261 0.00121462 34.2931 0.00118255 29.5078 0.00101752
35.6473 0.00122914 35.9613 0.00124008 31.2763 0.0010785
36.0362 0.00124255 37.6325 0.00129771 32.9691 0.00113687
36.3878 0.00125468 39.2875 0.00135478 34.5675 0.00119199
36.699 0.00126541 40.9101 0.00141073 36.0605 0.00124347
36.9672 0.00127466 42.4843 0.00146501 37.4504 0.0012914
37.1872 0.00128224 43.993 0.00151703 38.7459 0.00133607
37.3533 0.00128797 45.4184 0.00156619 39.9495 0.00137758
37.4613 0.00129169 46.7431 0.00161187 41.0552 0.00141571
37.5077 0.0012933 47.9502 0.00165349 42.0567 0.00145024
37.4886 0.00129264 49.023 0.00169048 42.9534 0.00148116
37.392 0.0012893 49.9452 0.00172228 43.7501 0.00150863
37.1857 0.00128219 50.6879 0.00174789 44.4535 0.00153289
36.8555 0.0012708 51.2329 0.00176669 45.0631 0.00155391
36.4047 0.00125526 51.5705 0.00177833 45.5746 0.00157155
35.8421 0.00123586 51.6916 0.0017825 45.9846 0.00158568
35.1774 0.00121294 51.5836 0.00177878 46.2923 0.00159629
34.4223 0.0011869 51.2384 0.00176688 46.4958 0.00160331
33.5908 0.00115823 50.6537 0.00174672 46.5913 0.0016066
32.6953 0.00112735 49.8326 0.0017184 46.546 0.00160504
31.7445 0.00109457 48.7789 0.00168207 46.3131 0.00159701
30.7442 0.00106007 47.5061 0.00163818 45.8757 0.00158193
29.6988 0.00102402 46.0305 0.00158729 45.2237 0.00155945
28.6125 0.000986563 44.3709 0.00153007 44.3501 0.00152932
27.4904 0.000947871 42.5486 0.00146723 43.2474 0.0014913
26.3389 0.000908163 40.5871 0.00139959 41.9063 0.00144505
25.1646 0.000867672 38.5115 0.00132802 40.3173 0.00139026
23.974 0.000826615 36.3469 0.00125337 38.4736 0.00132668
22.7727 0.000785193 34.1187 0.00117654 36.373 0.00125425
21.5664 0.000743596 31.8521 0.00109839 34.0172 0.00117301
20.3604 0.000702009 29.5714 0.00101974 31.4098 0.0010831
19.1606 0.000660636 27.2989 0.000941377 28.5566 0.000984718
17.9732 0.000619692 25.0546 0.000863989 25.4671 0.000878182
16.8044 0.000579387 22.8564 0.000788185 22.1555 0.00076399
15.6587 0.00053988 20.7194 0.000714497 18.641 0.000642801
14.5384 0.000501251 18.6568 0.000643373 14.9463 0.000515398
13.4436 0.0004635 16.6791 0.000575177 11.0971 0.000382667
12.3725 0.000426564 14.7941 0.000510177 7.12215 0.000245599
11.3216 0.000390327 13.0069 0.00044855 3.05362 0.000105305
10.2805 0.000354426 11.3488 0.000391373 0.0339657 1.17889e-06
9.23499 0.000318374 9.90444 0.000341568 -2.17745 -7.50768e-05
8.19015 0.000282345 8.50488 0.000293307 -4.16167 -0.000143498
7.13221 0.000245864 7.21126 0.0002487 -6.11905 -0.000210994
6.04492 0.000208372 6.01923 0.000207595 -8.16353 -0.000281493
4.91622 0.000169451 4.90973 0.000169336 -10.2621 -0.000353858
3.73967 0.00012888 3.86711 0.000133384 -12.2916 -0.000423839
2.51025 8.64866e-05 2.87401 9.9139e-05 -14.1625 -0.000488356
1.24243 4.27686e-05 1.94389 6.70661e-05 -15.8868 -0.000547813
0.297715 1.01921e-05 1.00674 3.47504e-05 -17.5205 -0.000604149
-0.255778 -8.8938e-06 -0.0176908 -5.74749e-07 -19.0817 -0.000657981
-0.792087 -2.73872e-05 -1.0061 -3.46578e-05 -20.557 -0.000708853
-1.30208 -4.49732e-05 -1.9476 -6.71232e-05 -21.8781 -0.00075441
-1.84 -6.35221e-05 -2.87671 -9.91615e-05 -23.0084 -0.000793384
-2.419 -8.34877e-05 -3.81651 -0.000131569 -23.9721 -0.000826616
-3.02097 -0.000104245 -4.75896 -0.000164067 -24.8107 -0.000855533
-3.63163 -0.000125302 -5.68966 -0.00019616 -25.522 -0.000880062
-4.26084 -0.000146999 -6.61459 -0.000228054 -26.0733 -0.000899074
-4.91136 -0.000169431 -7.53421 -0.000259765 -26.4419 -0.000911784
-5.57169 -0.000192201 -8.43791 -0.000290927 -26.6382 -0.000918551
-6.23506 -0.000215076 -9.3183 -0.000321286 -26.6867 -0.000920223
-6.90281 -0.000238102 -10.1665 -0.000350534 -26.5067 -0.000914017
-7.57215 -0.000261183 -10.9713 -0.000378285 -26.069 -0.000898924
-8.23629 -0.000284084 -11.7224 -0.000404186 -25.3673 -0.000874728
-8.88985 -0.00030662 -12.41 -0.000427894 -24.4197 -0.000842053
-9.53045 -0.00032871 -13.0253 -0.000449111 -23.2601 -0.000802066
-10.1544 -0.000350227 -13.5579 -0.00046748 -21.9221 -0.000755927
-10.7571 -0.000371009 -13.9971 -0.000482624 -20.4282 -0.000704413
-11.3352 -0.000390944 -14.3342 -0.000494247 -18.7944 -0.000648075
-11.8864 -0.00040995 -14.5622 -0.000502109 -17.0412 -0.00058762
-12.4078 -0.000427928 -14.6737 -0.000505954 -15.1975 -0.000524045
-12.8964 -0.000444779 -14.6625 -0.000505567 -13.2938 -0.0004584
-13.3509 -0.000460449 -14.5249 -0.000500823 -11.3564 -0.000391593
-13.7705 -0.000474918 -14.2607 -0.000491712 -9.40497 -0.000324302
-14.1549 -0.000488174 -13.8719 -0.000478307 -7.45676 -0.000257122
-14.5037 -0.0005002 -13.363 -0.000460758 -5.53088 -0.000190713
-14.817 -0.000511005 -12.7408 -0.000439302 -3.64725 -0.00012576
-15.0959 -0.000520621 -12.0147 -0.000414264 -1.82313 -6.28594e-05
-15.3418 -0.000529102 -11.1963 -0.000386044 -0.0702499 -2.41509e-06
-15.5533 -0.000536396 -10.3244 -0.000355977 1.12435 3.87781e-05
-15.7407 -0.000542857 -9.39478 -0.000323923 2.17277 7.49303e-05
-15.9026 -0.000548439 -8.411 -0.000289999 3.13855 0.000108233
-16.049 -0.000553487 -7.40006 -0.000255139 4.06483 0.000140174
-16.1848 -0.000558171 -6.37946 -0.000219946 4.96747 0.000171299
-16.3166 -0.000562715 -5.36523 -0.000184973 5.82231 0.000200777
-16.452 -0.000567385 -4.37577 -0.000150853 6.59936 0.000227571
-16.5984 -0.000572433 -3.43146 -0.000118291 7.29622 0.000251601
-16.7629 -0.000578105 -2.55316 -8.80049e-05 7.93612 0.000273667
-16.9515 -0.00058461 -1.75872 -6.06104e-05 8.54037 0.000294503
-17.1699 -0.000592139 -1.06449 -3.66714e-05 9.10869 0.0003141
-17.4205 -0.000600782 -0.48128 -1.65607e-05 9.62669 0.000331962
-17.7086 -0.000610715 -0.0222549 -7.32194e-07 10.0839 0.000347729
-18.0372 -0.000622045 0.296265 1.02513e-05 10.4847 0.00036155
-18.4078 -0.000634827 0.460021 1.5898e-05 10.8412 0.000373843
-18.8225 -0.000649126 0.461159 1.59373e-05 11.157 0.000384731
-19.2815 -0.000664953 0.293073 1.01412e-05 11.4244 0.000393953
-19.7824 -0.000682226 -0.0469388 -1.58336e-06 11.6322 0.000401118
-20.322 -0.000700831 -0.553904 -1.90649e-05 11.7747 0.000406033
-20.8955 -0.000720608 -1.21845 -4.19804e-05 11.854 0.000408766
-21.4997 -0.000741442 -2.04201 -7.03789e-05 11.8607 0.000408997
-22.1283 -0.00076312 -3.02064 -0.000104125 11.7572 0.000405429
-22.7766 -0.000785475 -4.14228 -0.000142802 11.5224 0.000397332
-23.44 -0.000808351 -5.39359 -0.00018595 11.1416 0.0003842
-24.1146 -0.000831611 -6.75958 -0.000233054 10.6052 0.000365704
-24.7956 -0.000855095 -8.22311 -0.00028352 9.90627 0.000341603
-25.4785 -0.000878643 -9.76572 -0.000336714 9.03671 0.000311618
-26.1584 -0.000902086 -11.3683 -0.000391975 7.98624 0.000275395
-26.8302 -0.000925254 -13.0116 -0.000448642 6.74537 0.000232606
-27.489 -0.000947969 -14.6768 -0.000506062 5.30878 0.000183069
-28.1252 -0.000969908 -16.3209 -0.000562756 3.68513 0.000127081
-28.7401 -0.000991113 -17.9512 -0.00061897 1.88107 6.48719e-05
-29.3225 -0.0010112 -19.5417 -0.000673818 0.217526 7.50822e-06
-29.8828 -0.00103052 -21.0458 -0.000725683 -1.21725 -4.19668e-05
-30.4 -0.00104835 -22.5147 -0.000776333 -2.67045 -9.20772e-05
-30.8753 -0.00106474 -23.9161 -0.000824656 -4.23016 -0.00014586
-31.3024 -0.00107947 -25.2361 -0.000870176 -5.92609 -0.00020434
-31.68 -0.00109249 -26.4758 -0.000912922 -7.75223 -0.000267311
-32.0043 -0.00110367 -27.6312 -0.000952766 -9.66678 -0.00033333
-32.2752 -0.00111301 -28.7003 -0.000989629 -11.6301 -0.000401032
-32.4934 -0.00112054 -29.679 -0.00102338 -13.6322 -0.000470069
-32.6599 -0.00112628 -30.5659 -0.00105396 -15.6828 -0.000540778
-32.7759 -0.00113028 -31.3638 -0.00108147 -17.7811 -0.000613134
-32.8424 -0.00113257 -32.0771 -0.00110607 -19.902 -0.000686269
-32.8577 -0.0011331 -32.7084 -0.00112784 -22.0093 -0.000758935
-32.8178 -0.00113172 -33.2555 -0.00114671 -24.0779 -0.000830264
-32.7255 -0.00112854 -33.7238 -0.00116286 -26.0969 -0.000899886
-32.5878 -0.00112379 -34.122 -0.00117658 -28.0587 -0.000967535
-32.3993 -0.00111729 -34.4612 -0.00118828 -29.9462 -0.00103262
-32.1354 -0.00110819 -34.7553 -0.00119842 -31.7319 -0.0010942
-31.8036 -0.00109675 -35.0092 -0.00120718 -33.3918 -0.00115144
-31.4106 -0.0010832 -35.2273 -0.0012147 -34.9099 -0.00120378
-30.9629 -0.00106776 -35.4133 -0.00122111 -36.277 -0.00125092
-30.4673 -0.00105067 -35.5683 -0.00122646 -37.484 -0.00129255
-29.9327 -0.00103224 -35.6916 -0.00123071 -38.5184 -0.00132821
-29.3711 -0.00101287 -35.7803 -0.00123377 -39.367 -0.00135747
-28.7946 -0.000992991 -35.83 -0.00123548 -40.0206 -0.00138001
-28.2133 -0.000972945 -35.8354 -0.00123567 -40.4756 -0.0013957
-27.6338 -0.000952965 -35.7903 -0.00123411 -40.7314 -0.00140452
-27.0597 -0.000933167 -35.6886 -0.00123061 -40.7796 -0.00140619
-26.4917 -0.00091358 -35.5203 -0.0012248 -40.5424 -0.00139801
-25.9269 -0.000894106 -35.28 -0.00121652 -40.002 -0.00137937
-25.3618 -0.000874619 -34.9634 -0.0012056 -39.1592 -0.00135031
-24.7923 -0.000854983 -34.5646 -0.00119185 -38.0273 -0.00131128
-24.2158 -0.000835101 -34.0775 -0.00117505 -36.6253 -0.00126293
-23.6302 -0.000814909 -33.4964 -0.00115501 -34.9705 -0.00120587
-23.0345 -0.000794368 -32.8163 -0.00113156 -33.0772 -0.00114059
-22.4276 -0.000773439 -32.0327 -0.00110454 -30.961 -0.00106761
-21.8082 -0.000752081 -31.1415 -0.00107381 -28.6424 -0.000987661
-21.175 -0.000730245 -30.14 -0.00103928 -26.1462 -0.000901587
-20.5262 -0.000707874 -29.0272 -0.0010009 -23.4978 -0.000810262
-19.86 -0.0006849 -27.8038 -0.000958715 -20.72 -0.000714474
-19.1744 -0.000661261 -26.4719 -0.000912788 -17.8341 -0.00061496
-18.4682 -0.000636909 -25.0355 -0.000863258 -14.8622 -0.000512482
-17.7405 -0.000611814 -23.5001 -0.000810314 -11.8279 -0.000407853
-16.9909 -0.000585969 -21.8731 -0.000754209 -8.75508 -0.000301892
-16.22 -0.000559385 -20.1633 -0.000695252 -5.66548 -0.000195354
-15.4283 -0.000532084 -18.3816 -0.000633813 -2.57875 -8.89152e-05
-14.616 -0.000504074 -16.5424 -0.000570393 0.111797 3.86237e-06
-13.7698 -0.000474894 -14.7461 -0.000508451 1.91026 6.58781e-05
-12.9135 -0.000445367 -12.8901 -0.000444452 3.48966 0.00012034
-12.0375 -0.000415159 -11.0143 -0.000379767 5.02551 0.000173301
-11.1524 -0.000384639 -9.15495 -0.000315653 6.60962 0.000227925
-10.2605 -0.000353885 -7.31209 -0.000252106 8.23683 0.000284036
-9.37197 -0.000323246 -5.499 -0.000189585 9.82267 0.00033872
-8.49702 -0.000293075 -3.72733 -0.000128493 11.3039 0.000389797
-7.64479 -0.000263688 -2.01581 -6.94755e-05 12.6927 0.000437688
-6.82188 -0.000235311 -0.382668 -1.31602e-05 14.0464 0.000484364
-6.03808 -0.000208284 1.18417 4.08686e-05 15.3946 0.000530856
-5.29692 -0.000182727 2.65196 9.14822e-05 16.7078 0.000576138
-4.60079 -0.000158722 4.01145 0.000138361 17.9454 0.000618814
-3.95371 -0.000136409 5.25603 0.000181278 19.0911 0.00065832
-3.36009 -0.000115939 6.37246 0.000219775 20.1626 0.000695268
-2.82042 -9.73301e-05 7.35519 0.000253662 21.1813 0.000730397
-2.33448 -8.05736e-05 8.19977 0.000282786 22.1457 0.000763651
-1.90195 -6.56588e-05 8.90409 0.000307073 23.0345 0.000794299
-1.52127 -5.25319e-05 9.46699 0.000326483 23.8274 0.000821641
-1.18892 -4.10715e-05 9.88816 0.000341006 24.521 0.000845558
-0.900122 -3.11129e-05 10.1691 0.000350694 25.1234 0.000866332
-0.649754 -2.24795e-05 10.3132 0.000355665 25.6385 0.000884094
-0.431635 -1.49582e-05 10.3271 0.000356141 26.0576 0.000898544
-0.277823 -9.65432e-06 10.2011 0.000351798 26.3684 0.000909263
-0.144981 -5.07355e-06 9.95934 0.000343461 26.5583 0.000915811
-0.0203131 -7.74671e-07 9.6159 0.000331618 26.6263 0.000918156
0.0990791 3.3423e-06 9.1766 0.00031647 26.5161 0.000914355
0.212477 7.25258e-06 8.64295 0.000298068 26.1798 0.00090276
0.32639 1.11806e-05 8.02929 0.000276907 25.6024 0.000882849
0.447156 1.5345e-05 7.35024 0.000253492 24.7789 0.000854453
0.575089 1.97564e-05 6.6167 0.000228197 23.715 0.000817764
0.70992 2.44058e-05 5.83949 0.000201397 22.4206 0.000773133
0.854557 2.93932e-05 5.03145 0.000173533 20.9032 0.000720808
1.01174 3.48135e-05 4.20475 0.000145026 19.1676 0.000660959
1.06034 3.64892e-05 3.40787 0.000117548 17.2169 0.000593693
1.03938 3.57663e-05 2.64834 9.13574e-05 15.0644 0.000519469
1.04647 3.60108e-05 1.89531 6.53908e-05 12.742 0.000439387
1.07161 3.68778e-05 1.14292 3.94463e-05 10.2743 0.000354292
1.11398 3.83389e-05 0.395909 1.36872e-05 7.68207 0.000264906
1.17036 4.02832e-05 -0.315535 -1.08453e-05 4.99316 0.000172185
1.23224 4.24167e-05 -1.00437 -3.45983e-05 2.24496 7.74199e-05
1.29376 4.45382e-05 -1.6817 -5.79546e-05 -0.0626026 -2.15127e-06
1.35163 4.65338e-05 -2.28179 -7.86471e-05 -1.90481 -6.56755e-05
1.41773 4.88129e-05 -2.90029 -9.99746e-05 -3.59773 -0.000124052
1.4808 5.0988e-05 -3.50641 -0.000120876 -5.26793 -0.000181645
1.54068 5.30527e-05 -4.09341 -0.000141117 -6.95765 -0.000239911
1.59593 5.49579e-05 -4.66951 -0.000160983 -8.65262 -0.000298359
1.64695 5.67173e-05 -5.23675 -0.000180542 -10.2894 -0.000354798
1.68955 5.81863e-05 -5.79789 -0.000199892 -11.8159 -0.000407438
1.72193 5.93028e-05 -6.34827 -0.000218871 -13.2294 -0.000456178
1.74244 6.00099e-05 -6.88447 -0.00023736 -14.5568 -0.000501953
1.74729 6.01772e-05 -7.40717 -0.000255384 -15.8091 -0.000545133
1.73091 5.96123e-05 -7.91946 -0.00027305 -16.9622 -0.000584896
1.68914 5.81721e-05 -8.41995 -0.000290308 -17.9812 -0.000620034
1.62139 5.58358e-05 -8.90457 -0.000307019 -18.8503 -0.000650002
1.52808 5.26181e-05 -9.37007 -0.000323071 -19.5782 -0.000675102
1.41021 4.85537e-05 -9.81433 -0.00033839 -20.1783 -0.000695794
1.26988 4.37147e-05 -10.2347 -0.000352885 -20.6497 -0.000712053
1.1009 3.78879e-05 -10.6223 -0.000366252 -20.98 -0.00072344
0.902576 3.10491e-05 -10.9745 -0.000378396 -21.1579 -0.000729577
0.684665 2.35349e-05 -11.2894 -0.000389255 -21.1827 -0.000730431
0.473462 1.62521e-05 -11.5574 -0.000398497 -21.0109 -0.000724505
0.27704 9.47889e-06 -11.7689 -0.000405791 -20.6408 -0.000711743
0.0878493 2.95507e-06 -11.9314 -0.000411391 -20.0696 -0.000692046
-0.0919579 -3.24518e-06 -12.0437 -0.000415265 -19.3031 -0.000665615
-0.250985 -8.72889e-06 -12.0994 -0.000417185 -18.3563 -0.000632967
-0.379167 -1.3149e-05 -12.0932 -0.000416973 -17.2473 -0.000594728
-0.47202 -1.63508e-05 -12.0231 -0.000414556 -15.9927 -0.000551464
-0.525784 -1.82047e-05 -11.8851 -0.000409797 -14.6064 -0.000503663
-0.536083 -1.85598e-05 -11.6729 -0.00040248 -13.104 -0.000451853
-0.520434 -1.80202e-05 -11.3766 -0.000392261 -11.5038 -0.000396676
-0.511929 -1.7727e-05 -10.9789 -0.000378548 -9.83022 -0.000338966
-0.456039 -1.57997e-05 -10.4913 -0.000361733 -8.09801 -0.000279234
-0.35607 -1.23525e-05 -9.91247 -0.000341774 -6.32619 -0.000218137
-0.21534 -7.49975e-06 -9.24447 -0.00031874 -4.5292 -0.000156172
-0.0334147 -1.22645e-06 -8.48605 -0.000292587 -2.72287 -9.38845e-05
0.187707 6.39845e-06 -7.64034 -0.000263425 -0.922315 -3.17965e-05
0.431454 1.48035e-05 -6.71909 -0.000231658 0.522969 1.80409e-05
0.683332 2.34889e-05 -5.74997 -0.00019824 1.64119 5.66e-05
0.854102 2.93776e-05 -4.72441 -0.000162876 2.68969 9.27553e-05
1.00494 3.45789e-05 -3.64443 -0.000125635 3.71835 0.000128226
1.15213 3.96545e-05 -2.51864 -8.68145e-05 4.76325 0.000164257
1.28675 4.42964e-05 -1.3611 -4.68994e-05 5.80729 0.000200259
1.40116 4.82416e-05 -0.190549 -6.53545e-06 6.81021 0.000234842
1.49606 5.15142e-05 0.986811 3.40632e-05 7.75356 0.000267372
1.70379 5.86773e-05 2.101 7.24835e-05 8.65566 0.000298478
1.88971 6.50882e-05 3.18147 0.000109741 9.53733 0.000328881
2.06595 7.11656e-05 4.2201 0.000145556 10.4136 0.000359098
2.22248 7.6563e-05 5.20114 0.000179385 11.2645 0.000388439
2.35681 8.1195e-05 6.11425 0.000210871 12.0734 0.000416331
2.4691 8.50671e-05 6.94315 0.000239454 12.8338 0.000442552
2.55754 8.81167e-05 7.67961 0.000264849 13.5585 0.000467542
2.6204 9.02844e-05 8.31701 0.000286829 14.2575 0.000491646
2.65373 9.14337e-05 8.84806 0.000305141 14.9276 0.000514754
2.65543 9.14924e-05 9.2682 0.000319628 15.5554 0.000536401
2.6174 9.01809e-05 9.57107 0.000330072 16.1313 0.000556258
2.53086 8.71967e-05 9.74981 0.000336235 16.6558 0.000574345
2.3958 8.25395e-05 9.80468 0.000338128 17.1321 0.00059077
2.2148 7.62981e-05 9.73812 0.000335832 17.5576 0.000605442
1.99225 6.86241e-05 9.55294 0.000329447 17.9231 0.000618047
1.73468 5.97422e-05 9.25257 0.000319089 18.2185 0.000628231
1.44466 4.97417e-05 8.84372 0.000304991 18.4373 0.000635775
1.12935 3.88688e-05 8.33505 0.000287451 18.5765 0.000640578
0.797139 2.74133e-05 7.73622 0.000266802 18.6332 0.000642533
0.464999 1.59602e-05 7.0527 0.000243232 18.5677 0.000640275
0.142074 4.82488e-06 6.2975 0.00021719 18.3448 0.000632588
-0.131458 -4.60724e-06 5.48975 0.000189337 17.9508 0.000618999
-0.369735 -1.28237e-05 4.64518 0.000160214 17.3788 0.000599278
-0.584218 -2.02197e-05 3.76189 0.000129756 16.6333 0.000573568
-0.777872 -2.68974e-05 2.84612 9.81774e-05 15.7163 0.000541948
-0.941274 -3.25319e-05 1.91683 6.61326e-05 14.6248 0.000504313
-1.072 -3.70398e-05 0.989833 3.41674e-05 13.3581 0.000460633
-1.17636 -4.06383e-05 0.0749814 2.62078e-06 11.9202 0.000411048
-1.25702 -4.34197e-05 -0.799237 -2.75247e-05 10.3214 0.000355919
-1.31348 -4.53666e-05 -1.6187 -5.5782e-05 8.58229 0.000295948
-1.35011 -4.66296e-05 -2.38925 -8.23527e-05 6.70117 0.000231082
-1.37118 -4.73564e-05 -3.11307 -0.000107312 4.69568 0.000161928
-1.37788 -4.75874e-05 -3.78341 -0.000130427 2.58072 8.89978e-05
-1.3701 -4.7319e-05 -4.39723 -0.000151594 0.459701 1.58592e-05
-1.3558 -4.6826e-05 -4.9055 -0.00016912 -0.978672 -3.37399e-05
-1.32298 -4.56944e-05 -5.37341 -0.000185255 -2.39465 -8.25668e-05
-1.27563 -4.40616e-05 -5.78852 -0.000199569 -3.80826 -0.000131312
-1.21038 -4.18116e-05 -6.14783 -0.000211959 -5.25126 -0.000181071
-1.13063 -3.90613e-05 -6.46357 -0.000222846 -6.7307 -0.000232086
-1.03681 -3.58264e-05 -6.74278 -0.000232475 -8.20172 -0.00028281
-0.930235 -3.21513e-05 -6.99451 -0.000241155 -9.61109 -0.000331409
-0.813387 -2.8122e-05 -7.2232 -0.000249041 -10.9387 -0.00037719
-0.689405 -2.38468e-05 -7.43315 -0.00025628 -12.1976 -0.000420601
-0.561309 -1.94297e-05 -7.63047 -0.000263085 -13.3995 -0.000462044
-0.4311 -1.49397e-05 -7.82153 -0.000269673 -14.5302 -0.000501033
-0.301021 -1.04542e-05 -8.01132 -0.000276217 -15.558 -0.000536474
-0.173286 -6.04959e-06 -8.20277 -0.000282819 -16.4592 -0.000567552
-0.0557826 -1.99776e-06 -8.39836 -0.000289563 -17.2308 -0.000594157
-0.00669802 -3.05187e-07 -8.58267 -0.000295919 -17.8837 -0.000616673
0.0247948 7.8077e-07 -8.76933 -0.000302356 -18.4171 -0.000635066
0.0331844 1.07007e-06 -8.95738 -0.00030884 -18.8201 -0.000648963
0.0152981 4.53301e-07 -9.14858 -0.000315433 -19.0797 -0.000657914
-0.0269607 -1.0039e-06 -9.33732 -0.000321941 -19.1934 -0.000661834
-0.0923344 -3.25817e-06 -9.51889 -0.000328202 -19.1462 -0.000660207
-0.181121 -6.31979e-06 -9.68666 -0.000333987 -18.9021 -0.00065179
-0.290451 -1.00898e-05 -9.83781 -0.0003392 -18.4575 -0.000636456
-0.415475 -1.44009e-05 -9.96631 -0.000343631 -17.8167 -0.000614361
-0.55091 -1.90711e-05 -10.0658 -0.000347061 -16.9913 -0.0005859
-0.691596 -2.39224e-05 -10.1304 -0.00034929 -15.999 -0.000551682
-0.831546 -2.87482e-05 -10.1543 -0.000350112 -14.8577 -0.000512328
-0.964531 -3.33339e-05 -10.131 -0.00034931 -13.5828 -0.000468367
-1.08488 -3.7484e-05 -10.0546 -0.000346675 -12.1887 -0.000420294
-1.18732 -4.10165e-05 -9.91927 -0.000342009 -10.6927 -0.000368705
-1.26672 -4.37544e-05 -9.71972 -0.000335127 -9.11535 -0.000314315
-1.31376 -4.53762e-05 -9.44816 -0.000325763 -7.47907 -0.000257891
-1.32918 -4.59079e-05 -9.10422 -0.000313903 -5.80236 -0.000200074
-1.31267 -4.53388e-05 -8.6884 -0.000299565 -4.10181 -0.000141434
-1.25861 -4.34745e-05 -8.19749 -0.000282637 -2.39474 -8.25697e-05
-1.16169 -4.01324e-05 -7.62986 -0.000263063 -0.698106 -2.40652e-05
-1.01756 -3.51626e-05 -6.99846 -0.000241291 0.624884 2.15552e-05
-0.825597 -2.85431e-05 -6.32219 -0.000217971 1.67041 5.76079e-05
-0.590582 -2.04391e-05 -5.56568 -0.000191885 2.64571 9.12387e-05
-0.313115 -1.08713e-05 -4.74623 -0.000163628 3.59436 0.000123951
0.00266526 1.76844e-08 -3.87445 -0.000133566 4.54509 0.000156735
0.357166 1.22418e-05 -2.95272 -0.000101783 5.47744 0.000188885
0.693726 2.38474e-05 -2.01014 -6.92799e-05 6.35442 0.000219125
1.01319 3.48632e-05 -1.076 -3.70682e-05 7.16695 0.000247144
1.34311 4.62399e-05 -0.143641 -4.91794e-06 7.92244 0.000273195
1.70067 5.85694e-05 0.82386 2.84442e-05 8.63653 0.000297819
2.06845 7.12516e-05 1.79893 6.20673e-05 9.32365 0.000321513
2.43256 8.38072e-05 2.75726 9.5113e-05 9.97103 0.000343836
2.80086 9.65072e-05 3.70491 0.000127791 10.5606 0.000364167
3.17669 0.000109467 4.63038 0.000159704 11.0906 0.000382443
3.54534 0.000122179 5.51987 0.000190375 11.5772 0.00039922
3.89777 0.000134332 6.36368 0.000219472 12.0321 0.000414906
4.23317 0.000145897 7.15862 0.000246884 12.4544 0.000429471
4.54816 0.000156759 7.89774 0.000272371 12.8357 0.000442619
4.83653 0.000166703 8.5702 0.000295559 13.1727 0.000454237
5.09505 0.000175617 9.16885 0.000316203 13.4707 0.000464513
5.32279 0.00018347 9.68945 0.000334154 13.7379 0.000473728
5.51805 0.000190203 10.1271 0.000349246 13.9777 0.000481998
5.67884 0.000195748 10.4765 0.000361294 14.1873 0.000489223
5.80463 0.000200085 10.7341 0.000370175 14.3625 0.000495265
5.89596 0.000203235 10.8982 0.000375835 14.5031 0.000500113
5.95339 0.000205215 10.9681 0.000378247 14.6119 0.000503866
5.97749 0.000206046 10.9433 0.00037739 14.6907 0.000506582
5.96303 0.000205547 10.8197 0.000373127 14.7378 0.000508207
5.91041 0.000203733 10.5972 0.000365456 14.7473 0.000508535
5.82434 0.000200765 10.2802 0.000354524 14.6982 0.000506844
5.71086 0.000196852 9.876 0.000340587 14.583 0.00050287
5.57574 0.000192193 9.39242 0.000323912 14.3975 0.000496473
5.42451 0.000186978 8.83764 0.000304782 14.1379 0.000487523
5.26327 0.000181418 8.22184 0.000283547 13.7999 0.000475866
5.09761 0.000175705 7.55655 0.000260606 13.3785 0.000461336
4.9321 0.000169998 6.85379 0.000236373 12.8695 0.000443782
4.77095 0.000164441 6.1259 0.000211273 12.2693 0.000423086
4.61818 0.000159173 5.38541 0.000185739 11.5759 0.000399177
4.47747 0.000154321 4.64461 0.000160194 10.7885 0.000372024
4.3521 0.000149998 3.91526 0.000135044 9.90721 0.000341635
4.24513 0.00014631 3.20836 0.000110668 8.93363 0.000308064
4.15938 0.000143353 2.53389 8.74106e-05 7.87092 0.000271418
4.0971 0.000141205 1.9005 6.55697e-05 6.72426 0.000231879
4.05996 0.000139924 1.31552 4.53979e-05 5.50085 0.000189692
4.04894 0.000139544 0.784866 2.70996e-05 4.20962 0.000145167
4.06428 0.000140073 0.323143 1.11781e-05 2.86099 9.86624e-05
4.10662 0.000141533 -0.0730507 -2.48377e-06 1.46936 5.06752e-05
4.17447 0.000143873 -0.400396 -1.37716e-05 0.200315 6.91486e-06
4.26087 0.000146852 -0.633349 -2.18044e-05 -0.727926 -2.50935e-05
4.3715 0.000150667 -0.823763 -2.83704e-05 -1.62703 -5.60972e-05
4.50203 0.000155168 -0.956382 -3.29435e-05 -2.51413 -8.66868e-05
4.65054 0.000160289 -1.03385 -3.56148e-05 -3.40585 -0.000117436
4.81233 0.000165868 -1.06377 -3.66465e-05 -4.29866 -0.000148222
4.98368 0.000171777 -1.05263 -3.62622e-05 -5.16169 -0.000177982
5.1458 0.000177367 -1.00481 -3.46135e-05 -5.96397 -0.000205647
