0.660349 2.27706e-05 0.564771 1.94749e-05 0.00562733 1.94046e-07
0.663808 2.28899e-05 0.564234 1.94564e-05 0.00564712 1.94728e-07
0.671814 2.3166e-05 0.563187 1.94203e-05 0.00571144 1.96946e-07
0.688495 2.37412e-05 0.561549 1.93637e-05 0.00577645 1.99188e-07
0.707636 2.44012e-05 0.55996 1.9309e-05 0.00579712 1.99901e-07
0.732464 2.52574e-05 0.558256 1.92502e-05 0.00575209 1.98348e-07
0.763546 2.63292e-05 0.556738 1.91979e-05 0.00561456 1.93606e-07
0.801502 2.7638e-05 0.555777 1.91647e-05 0.00533964 1.84125e-07
0.846997 2.92068e-05 0.555696 1.91619e-05 0.00487671 1.68162e-07
0.900752 3.10604e-05 0.556802 1.92001e-05 0.00418075 1.44164e-07
0.96346 3.32228e-05 0.559489 1.92927e-05 0.00321835 1.10978e-07
1.03562 3.5711e-05 0.56426 1.94572e-05 0.00196446 6.774e-08
1.11723 3.85251e-05 0.571676 1.9713e-05 0.000395848 1.36499e-08
1.20769 4.16444e-05 0.582214 2.00763e-05 -0.00148411 -5.11761e-08
1.30632 4.50456e-05 0.596721 2.05766e-05 -0.00372326 -1.28388e-07
1.41094 4.86532e-05 0.615798 2.12344e-05 -0.00627243 -2.16291e-07
1.51934 5.23911e-05 0.640115 2.20729e-05 -0.00907803 -3.13035e-07
1.62888 5.61683e-05 0.670267 2.31127e-05 -0.012047 -4.15415e-07
1.73656 5.98813e-05 0.706677 2.43682e-05 -0.0150506 -5.18987e-07
1.83938 6.34269e-05 0.749528 2.58458e-05 -0.0217283 -7.49252e-07
1.93436 6.67022e-05 0.798777 2.7544e-05 -0.0277108 -9.55545e-07
2.01807 6.95887e-05 0.854188 2.94548e-05 -0.0323486 -1.11547e-06
2.08638 7.19442e-05 0.915331 3.15631e-05 -0.0349014 -1.2035e-06
2.13438 7.35992e-05 0.981566 3.38471e-05 -0.0345851 -1.19259e-06
2.15633 7.43563e-05 1.05199 3.62757e-05 -0.0305963 -1.05504e-06
2.14614 7.40048e-05 1.12513 3.87977e-05 -0.0220881 -7.61659e-07
2.09857 7.23645e-05 1.1996 4.13656e-05 -0.010305 -3.55343e-07
2.01095 6.93429e-05 1.27335 4.39087e-05 5.77349e-05 1.99086e-09
1.88461 6.49867e-05 1.34295 4.63087e-05 0.0133833 4.61492e-07
1.72442 5.94626e-05 1.40481 4.84416e-05 0.0305935 1.05495e-06
1.53699 5.29996e-05 1.45538 5.01856e-05 0.0519818 1.79247e-06
1.32796 4.57916e-05 1.49114 5.14186e-05 0.0779659 2.68848e-06
1.10504 3.81049e-05 1.50935 5.20464e-05 0.108391 3.73761e-06
0.872433 3.00839e-05 1.50753 5.19837e-05 0.142973 4.9301e-06
0.633994 2.18619e-05 1.48419 5.11789e-05 0.181358 6.25374e-06
0.391421 1.34973e-05 1.43889 4.96169e-05 0.222923 7.68699e-06
0.145748 5.02578e-06 1.37194 4.73083e-05 0.266804 9.20014e-06
-0.162655 -5.6088e-06 1.28483 4.43044e-05 0.311854 1.07536e-05
-0.469342 -1.61842e-05 1.179 4.06551e-05 0.356725 1.23009e-05
-0.773723 -2.66801e-05 1.05632 3.64247e-05 0.399924 1.37905e-05
-1.07493 -3.70664e-05 0.920575 3.1744e-05 0.440233 1.51805e-05
-1.3697 -4.72309e-05 0.774249 2.66983e-05 0.476081 1.64166e-05
-1.65311 -5.70038e-05 0.620224 2.1387e-05 0.505979 1.74476e-05
-1.91908 -6.61752e-05 0.461442 1.59118e-05 0.528515 1.82247e-05
-2.16054 -7.45012e-05 0.300904 1.0376e-05 0.542422 1.87042e-05
-2.37128 -8.17683e-05 0.141264 4.87117e-06 0.546554 1.88467e-05
-2.54943 -8.79113e-05 -0.0745949 -2.57224e-06 0.53983 1.86148e-05
-2.69724 -9.30081e-05 -0.280478 -9.67167e-06 0.521505 1.79829e-05
-2.82142 -9.72904e-05 -0.470261 -1.62159e-05 0.491052 1.69328e-05
-2.93376 -0.000101164 -0.638566 -2.20195e-05 0.4482 1.54552e-05
-3.08237 -0.000106288 -0.813918 -2.80661e-05 0.377226 1.30078e-05
-3.27438 -0.00011291 -0.947308 -3.26658e-05 0.287723 9.9215e-06
-3.54644 -0.000122291 -1.03746 -3.57744e-05 0.181607 6.2623e-06
-3.92841 -0.000135462 -1.08874 -3.75429e-05 0.0617543 2.12946e-06
-4.43825 -0.000153043 -1.11326 -3.83883e-05 -0.130295 -4.49293e-06
-5.07953 -0.000175156 -1.12953 -3.89494e-05 -0.424381 -1.46338e-05
-5.83988 -0.000201375 -1.15948 -3.9982e-05 -0.720378 -2.48406e-05
-6.69193 -0.000230756 -1.22813 -4.23494e-05 -1.00539 -3.46686e-05
-7.60151 -0.000262121 -1.36174 -4.69565e-05 -1.26847 -4.37403e-05
-8.53947 -0.000294464 -1.58253 -5.45701e-05 -1.50191 -5.17899e-05
-9.48837 -0.000327185 -1.90542 -6.57042e-05 -1.70029 -5.86306e-05
-10.4415 -0.000360051 -2.3382 -8.06275e-05 -1.85988 -6.41337e-05
-11.3985 -0.00039305 -2.88165 -9.93672e-05 -1.98054 -6.82944e-05
-12.3614 -0.000426256 -3.52934 -0.000121701 -2.06583 -7.12355e-05
-13.3308 -0.000459682 -4.26871 -0.000147197 -2.12252 -7.31904e-05
-14.3002 -0.000493112 -5.08322 -0.000175284 -2.15897 -7.44471e-05
-15.2573 -0.000526115 -5.95308 -0.000205279 -2.18522 -7.53526e-05
-16.1898 -0.000558268 -6.85506 -0.000236381 -2.21279 -7.63031e-05
-17.091 -0.000589345 -7.76346 -0.000267705 -2.25407 -7.77266e-05
-17.9607 -0.000619335 -8.65189 -0.000298341 -2.32097 -8.00335e-05
-18.8003 -0.000648285 -9.49542 -0.000327428 -2.42407 -8.35888e-05
-19.6061 -0.000676072 -10.2728 -0.000354233 -2.57198 -8.86891e-05
-20.3658 -0.000702267 -10.968 -0.000378208 -2.77086 -9.55468e-05
-21.0634 -0.000726322 -11.5707 -0.000398991 -3.02387 -0.000104271
-21.6859 -0.000747791 -12.0752 -0.000416387 -3.33103 -0.000114863
-22.2256 -0.000766399 -12.4808 -0.000430373 -3.68917 -0.000127213
-22.6796 -0.000782057 -12.791 -0.00044107 -4.09227 -0.000141113
-23.051 -0.000794861 -13.0131 -0.000448727 -4.53168 -0.000156265
-23.3475 -0.000805086 -13.1576 -0.000453709 -4.99647 -0.000172292
-23.5813 -0.000813147 -13.2378 -0.000456475 -5.47385 -0.000188753
-23.7663 -0.000819526 -13.2691 -0.000457553 -5.94987 -0.000205168
-23.9176 -0.000824743 -13.2678 -0.00045751 -6.41009 -0.000221037
-24.0523 -0.000829389 -13.2504 -0.00045691 -6.84018 -0.000235868
-24.1908 -0.000834165 -13.2321 -0.000456278 -7.22669 -0.000249196
-24.3558 -0.000839857 -13.2264 -0.000456081 -7.55754 -0.000260605
-24.5686 -0.000847195 -13.2448 -0.000456716 -7.82259 -0.000269745
-24.8415 -0.000856603 -13.2975 -0.000458534 -8.01394 -0.000276343
-25.1712 -0.000867973 -13.3934 -0.000461841 -8.12616 -0.000280212
-25.5391 -0.00088066 -13.5394 -0.000466877 -8.1567 -0.000281265
-25.917 -0.000893689 -13.739 -0.000473758 -8.10618 -0.000279523
-26.2051 -0.000903623 -13.9365 -0.000480569 -8.00998 -0.000276206
-26.5216 -0.000914538 -14.2254 -0.000490529 -7.82591 -0.000269859
-26.7647 -0.000922919 -14.5494 -0.000501703 -7.58026 -0.000261388
-26.9124 -0.000928014 -14.8909 -0.000513478 -7.28565 -0.000251229
-26.9446 -0.000929124 -15.2281 -0.000525105 -6.95672 -0.000239887
-26.8399 -0.000925515 -15.5364 -0.000535739 -6.60929 -0.000227907
-26.5771 -0.000916453 -15.7899 -0.000544478 -6.25955 -0.000215847
-26.1358 -0.000901234 -15.9622 -0.000550422 -5.92319 -0.000204248
-25.4962 -0.000879179 -16.0289 -0.000552721 -5.61448 -0.000193603
-24.6415 -0.000849706 -15.9676 -0.000550607 -5.34551 -0.000184328
-23.5588 -0.000812372 -15.7593 -0.000543423 -5.12556 -0.000176744
-22.2396 -0.000766881 -15.3895 -0.000530672 -4.96049 -0.000171051
-20.6816 -0.000713159 -14.8485 -0.000512018 -4.85241 -0.000167324
-18.8945 -0.000651533 -14.131 -0.000487276 -4.79955 -0.000165502
-16.9043 -0.000582907 -13.2358 -0.000456407 -4.79629 -0.000165389
-14.7515 -0.000508671 -12.1669 -0.00041955 -4.83321 -0.000166662
-12.4802 -0.000430351 -10.935 -0.000377068 -4.89716 -0.000168867
-10.1336 -0.000349436 -9.55694 -0.00032955 -4.97169 -0.000171438
-7.75514 -0.000267419 -8.05558 -0.000277779 -5.03788 -0.00017372
-5.38867 -0.000185816 -6.45876 -0.000222716 -5.07512 -0.000175004
-3.07724 -0.000106112 -4.79824 -0.000165456 -5.06209 -0.000174555
-0.859606 -2.96416e-05 -3.1082 -0.000107179 -4.97777 -0.000171647
0.984641 3.39531e-05 -1.42587 -4.91681e-05 -4.80247 -0.000165602
2.5259 8.71001e-05 0.0301282 1.0389e-06 -4.52016 -0.000155868
3.95228 0.000136286 1.151 3.96897e-05 -4.11822 -0.000142007
5.26354 0.000181501 2.20338 7.59786e-05 -3.58612 -0.000123659
6.448 0.000222345 3.17666 0.00010954 -2.92027 -0.000100699
7.49953 0.000258604 4.05455 0.000139812 -2.1246 -7.3262e-05
8.40698 0.000289896 4.83218 0.000166627 -1.20668 -4.16097e-05
9.16477 0.000316027 5.51706 0.000190243 -0.18041 -6.22103e-06
9.78709 0.000337486 6.11286 0.000210788 0.430839 1.48565e-05
10.3 0.000355173 6.62379 0.000228406 0.974138 3.3591e-05
10.7369 0.000370238 7.06185 0.000243512 1.53781 5.30281e-05
11.1346 0.000383953 7.44291 0.000256652 2.10849 7.27065e-05
11.5311 0.000397624 7.78076 0.000268302 2.67128 9.2113e-05
11.9663 0.000412632 8.09033 0.000278977 3.20972 0.00011068
12.4816 0.000430402 8.39 0.00028931 3.71183 0.000127994
13.1155 0.00045226 8.69736 0.000299909 4.16629 0.000143665
13.8995 0.000479295 9.02794 0.000311308 4.5617 0.0001573
14.8528 0.000512165 9.39737 0.000324047 4.88707 0.00016852
15.9771 0.000550933 9.82114 0.00033866 5.13549 0.000177086
17.2568 0.000595062 10.3119 0.000355584 5.30291 0.000182859
18.665 0.000643622 10.8777 0.000375093 5.38798 0.000185792
20.17 0.000695516 11.5212 0.000397283 5.39152 0.000185915
21.7389 0.000749617 12.2391 0.000422038 5.31807 0.000183382
23.341 0.000804861 13.0206 0.000448986 5.17566 0.000178471
24.9477 0.000860265 13.848 0.000477518 4.97514 0.000171556
26.5327 0.00091492 14.6987 0.00050685 4.72911 0.000163073
28.0722 0.000968008 15.5457 0.000536058 4.45184 0.000153512
29.5441 0.00101876 16.36 0.000564137 4.15865 0.000143402
30.9253 0.00106639 17.1124 0.000590082 3.86513 0.00013328
32.1911 0.00111004 17.7757 0.000612956 3.58603 0.000123656
33.3178 0.00114889 18.3262 0.000631937 3.33462 0.000114987
34.2847 0.00118223 18.7445 0.000646363 3.12228 0.000107665
34.8255 0.00120088 19.0105 0.000655534 2.95865 0.000102022
34.9053 0.00120363 19.055 0.000657069 2.85353 9.83974e-05
34.9975 0.00120681 18.9656 0.000653986 2.80498 9.67236e-05
34.8506 0.00120175 18.7634 0.000647014 2.81261 9.69867e-05
34.6897 0.0011962 18.4462 0.000636075 2.86496 9.87918e-05
34.4827 0.00118906 18.0322 0.000621801 2.96151 0.000102121
33.5898 0.00115827 17.6014 0.000606944 3.09391 0.000106687
32.5518 0.00112247 17.0548 0.000588095 3.26717 0.000112661
31.4759 0.00108538 16.4762 0.000568144 3.45264 0.000119057
30.2914 0.00104453 15.8546 0.00054671 3.65051 0.00012588
29.0522 0.0010018 15.1944 0.000523944 3.85099 0.000132793
27.8607 0.000960713 14.5279 0.000500962 4.04265 0.000139402
26.7148 0.000921201 13.8855 0.00047881 4.21211 0.000145245
25.6639 0.000884961 13.2769 0.000457824 4.34792 0.000149928
24.763 0.000853895 12.7136 0.000438399 4.44332 0.000153218
24.0337 0.000828748 12.2169 0.000421273 4.49272 0.000154921
23.5029 0.000810446 11.8028 0.000406994 4.48915 0.000154798
23.1973 0.000799906 11.4769 0.000395755 4.42784 0.000152684
23.1228 0.000797338 11.2443 0.000387733 4.30881 0.00014858
23.2811 0.000802798 11.1111 0.000383141 4.13482 0.00014258
23.6666 0.00081609 11.0783 0.000382012 3.90926 0.000134802
24.2479 0.000836136 11.1432 0.000384248 3.6372 0.000125421
24.8918 0.000858339 11.3164 0.000390222 3.32553 0.000114673
25.5592 0.000881352 11.579 0.000399275 2.98612 0.00010297
26.2158 0.000903993 11.9174 0.000410946 2.63118 9.07305e-05
26.836 0.00092538 12.3114 0.000424532 2.27371 7.84039e-05
27.2879 0.000940963 12.6479 0.000436134 1.99516 6.87985e-05
27.6874 0.000954737 12.9865 0.000447811 1.73144 5.97048e-05
28.0233 0.000966321 13.3135 0.000459086 1.48992 5.13766e-05
28.2842 0.000975317 13.6161 0.000469519 1.2772 4.40414e-05
28.4591 0.00098135 13.8816 0.000478676 1.09891 3.78934e-05
28.5386 0.00098409 14.0982 0.000486145 0.959844 3.30981e-05
28.5138 0.000983235 14.2563 0.000491595 0.864033 2.97942e-05
28.3754 0.000978461 14.3491 0.000494798 0.814444 2.80843e-05
28.1131 0.000969419 14.3729 0.000495617 0.81265 2.80224e-05
27.7166 0.000955745 14.3259 0.000493996 0.858729 2.96113e-05
27.1754 0.000937084 14.2086 0.000489951 0.951432 3.2808e-05
26.4819 0.000913171 14.0237 0.000483574 1.0884 3.75312e-05
25.6336 0.000883919 13.7754 0.000475015 1.26628 4.36647e-05
24.6351 0.000849487 13.4691 0.000464452 1.48065 5.10568e-05
23.4985 0.000810293 13.1103 0.000452081 1.72614 5.95222e-05
22.2424 0.000766981 12.7053 0.000438114 1.99658 6.88477e-05
20.8889 0.000720308 12.2608 0.000422788 2.28519 7.87998e-05
19.4603 0.000671043 11.7848 0.000406371 2.58475 8.91293e-05
17.9775 0.000619915 11.2854 0.000389151 2.88771 9.9576e-05
16.4606 0.000567608 10.7713 0.000371423 3.18634 0.000109874
14.9291 0.000514796 10.2509 0.00035348 3.47296 0.000119757
13.4021 0.000462143 9.73255 0.000335605 3.74011 0.000128969
11.8983 0.000410286 9.22375 0.00031806 3.98077 0.000137268
10.4341 0.000359797 8.73128 0.000301079 4.18853 0.000144432
9.02378 0.000311165 8.26075 0.000284854 4.35768 0.000150265
7.67903 0.000264794 7.81653 0.000269535 4.4834 0.0001546
6.40949 0.000221017 7.40154 0.000255225 4.56183 0.000157305
5.22271 0.000180094 7.01718 0.000241972 4.59018 0.000158282
4.12404 0.000142208 6.66322 0.000229766 4.56676 0.000157474
3.1166 0.000107469 6.33778 0.000218544 4.49103 0.000154863
2.20125 7.59052e-05 6.03746 0.000208188 4.36355 0.000150467
1.37657 4.74679e-05 5.75749 0.000198534 4.18596 0.000144343
0.639177 2.20407e-05 5.49192 0.000189377 3.9609 0.000136583
-0.0158977 -5.48082e-07 5.23374 0.000180474 3.69193 0.000127308
-0.61314 -2.11427e-05 4.96422 0.00017118 3.38358 0.000116675
-0.900499 -3.10516e-05 4.65103 0.00016038 3.04542 0.000105014
-1.10771 -3.81967e-05 4.35902 0.000150311 2.67099 9.2103e-05
-1.2632 -4.35584e-05 4.03463 0.000139125 2.27479 7.8441e-05
-1.41825 -4.89051e-05 3.68648 0.00012712 1.85938 6.41167e-05
-1.55773 -5.37149e-05 3.31626 0.000114354 1.43116 4.93503e-05
-1.69134 -5.8322e-05 2.92819 0.000100972 0.994799 3.43034e-05
-1.86279 -6.42339e-05 2.51486 8.67195e-05 0.555696 1.91619e-05
-2.09849 -7.23617e-05 2.06724 7.12841e-05 0.12017 4.14378e-06
-2.40604 -8.29667e-05 1.58323 5.4594e-05 -0.674701 -2.32655e-05
-2.8014 -9.66e-05 1.0662 3.67654e-05 -1.56446 -5.39469e-05
-3.30541 -0.00011398 0.517057 1.78296e-05 -2.41531 -8.32867e-05
-3.9279 -0.000135445 -0.067317 -2.32128e-06 -3.21635 -0.000110909
-4.66972 -0.000161025 -0.848757 -2.92675e-05 -3.95744 -0.000136463
-5.53551 -0.00019088 -1.7399 -5.99967e-05 -4.63412 -0.000159797
-6.52494 -0.000224998 -2.68255 -9.25016e-05 -5.24258 -0.000180779
-7.63382 -0.000263235 -3.6658 -0.000126407 -5.78024 -0.000199319
-8.85775 -0.000305439 -4.68442 -0.000161532 -6.24476 -0.000215337
-10.1914 -0.000351429 -5.73731 -0.000197838 -6.63536 -0.000228805
-11.6259 -0.000400893 -6.82035 -0.000235184 -6.95346 -0.000239775
-13.1487 -0.000453402 -7.92372 -0.000273232 -7.20264 -0.000248367
-14.7445 -0.000508431 -9.03631 -0.000311597 -7.38776 -0.00025475
-16.395 -0.000565344 -10.1497 -0.000349988 -7.51438 -0.000259117
-18.0785 -0.000623398 -11.2569 -0.000388168 -7.58857 -0.000261675
-19.772 -0.000681795 -12.3494 -0.00042584 -7.61726 -0.000262664
-21.4518 -0.000739717 -13.4164 -0.000462635 -7.60837 -0.000262358
-23.0936 -0.00079633 -14.4473 -0.000498183 -7.57057 -0.000261054
-24.6731 -0.000850797 -15.4326 -0.00053216 -7.51264 -0.000259057
-26.1673 -0.00090232 -16.3636 -0.00056426 -7.44304 -0.000256657
-27.5548 -0.000950165 -17.2307 -0.000594163 -7.36985 -0.000254133
-28.8166 -0.000993677 -18.0246 -0.000621536 -7.30083 -0.000251753
-29.9367 -0.0010323 -18.736 -0.00064607 -7.24335 -0.000249771
-30.9021 -0.00106559 -19.3574 -0.000667496 -7.204 -0.000248414
-31.7041 -0.00109325 -19.8818 -0.000685578 -7.1882 -0.000247869
-32.3377 -0.00111509 -20.3031 -0.000700107 -7.20003 -0.000248277
-32.8018 -0.0011311 -20.6164 -0.000710912 -7.24227 -0.000249734
-33.0983 -0.00114132 -20.8186 -0.000717883 -7.3164 -0.00025229
-33.2322 -0.00114594 -20.9084 -0.000720979 -7.42244 -0.000255946
-33.21 -0.00114517 -20.8864 -0.000720221 -7.55888 -0.000260651
-33.0394 -0.00113929 -20.7543 -0.000715666 -7.72276 -0.000266302
-32.7378 -0.00112889 -20.5162 -0.000707455 -7.90956 -0.000272743
-32.3222 -0.00111456 -20.1784 -0.000695807 -8.1135 -0.000279776
-31.8117 -0.00109696 -19.7492 -0.000681008 -8.32764 -0.00028716
-31.2288 -0.00107686 -19.2388 -0.000663407 -8.544 -0.000294621
-30.596 -0.00105504 -18.6588 -0.000643407 -8.75381 -0.000301855
-29.9338 -0.0010322 -18.0224 -0.000621461 -8.94783 -0.000308546
-29.2628 -0.00100906 -17.3438 -0.000598063 -9.11659 -0.000314365
-28.6038 -0.000986337 -16.638 -0.000573726 -9.25072 -0.00031899
-27.9774 -0.000964737 -15.92 -0.000548967 -9.34124 -0.000322112
-27.4032 -0.000944939 -15.2046 -0.000524297 -9.37988 -0.000323444
-26.8999 -0.000927581 -14.506 -0.000500207 -9.35933 -0.000322736
-26.4839 -0.000913238 -13.8376 -0.000477159 -9.27354 -0.000319777
-26.1693 -0.000902391 -13.2116 -0.000455574 -9.11788 -0.00031441
-25.9674 -0.000895426 -12.6389 -0.000435823 -8.88939 -0.000306531
-25.8867 -0.000892646 -12.1283 -0.000418216 -8.58688 -0.000296099
-25.9341 -0.00089428 -11.6868 -0.000402995 -8.21107 -0.00028314
-26.1143 -0.000900491 -11.3195 -0.000390327 -7.76463 -0.000267746
-26.4232 -0.000911144 -11.0298 -0.000380337 -7.25209 -0.000250072
-26.8431 -0.000925625 -10.8252 -0.000373284 -6.67839 -0.000230289
-27.4214 -0.000945567 -10.685 -0.000368447 -6.05514 -0.000208798
-28.0985 -0.000968914 -10.6203 -0.000366217 -5.3919 -0.000185928
-28.8589 -0.000995134 -10.634 -0.000366691 -4.69586 -0.000161926
-29.6983 -0.00102408 -10.7118 -0.000369371 -3.98125 -0.000137284
-30.6077 -0.00105544 -10.8464 -0.000374014 -3.26 -0.000112414
-31.5652 -0.00108846 -11.0284 -0.00038029 -2.54815 -8.78672e-05
-32.4623 -0.00111939 -11.255 -0.000388102 -1.85927 -6.41128e-05
-33.3384 -0.0011496 -11.5212 -0.000397284 -1.20585 -4.15811e-05
-34.1307 -0.00117692 -11.819 -0.000407553 -0.600418 -2.07041e-05
-34.8164 -0.00120056 -12.1385 -0.000418569 -0.169854 -5.85704e-06
-35.3804 -0.00122001 -12.4713 -0.000430044 0.0456476 1.57405e-06
-35.7885 -0.00123409 -12.8063 -0.000441595 0.220872 7.61627e-06
-36.0094 -0.0012417 -13.1323 -0.000452839 0.351999 1.21379e-05
-36.0212 -0.00124211 -13.436 -0.000463311 0.436767 1.50609e-05
-35.822 -0.00123524 -13.7053 -0.000472595 0.472199 1.62827e-05
-35.4053 -0.00122087 -13.9293 -0.000480319 0.455151 1.56949e-05
-34.7686 -0.00119892 -14.0974 -0.000486117 0.383795 1.32343e-05
-33.9209 -0.00116969 -14.1999 -0.000489651 0.258532 8.91488e-06
-32.8742 -0.00113359 -14.229 -0.000490654 0.0813997 2.80689e-06
-31.6405 -0.00109105 -14.1796 -0.000488952 -0.144836 -4.99434e-06
-30.2373 -0.00104267 -14.0503 -0.000484493 -0.662277 -2.28371e-05
-28.6893 -0.000989285 -13.8393 -0.000477218 -1.34694 -4.64461e-05
-27.0241 -0.000931866 -13.5475 -0.000467156 -2.1109 -7.27897e-05
-25.2711 -0.000871418 -13.178 -0.000454414 -2.9368 -0.000101269
-23.4594 -0.000808945 -12.7383 -0.000439251 -3.80702 -0.000131277
-21.6168 -0.000745406 -12.2387 -0.000422025 -4.70437 -0.000162219
-19.7693 -0.000681701 -11.6909 -0.000403136 -5.61099 -0.000193482
-17.9417 -0.000618679 -11.1077 -0.000383025 -6.50729 -0.000224389
-16.1568 -0.000557132 -10.5037 -0.000362196 -7.37232 -0.000254218
-14.4353 -0.000497769 -9.89455 -0.000341191 -8.1855 -0.000282259
-12.7954 -0.00044122 -9.29589 -0.000320548 -8.92799 -0.000307862
-11.2537 -0.00038806 -8.72185 -0.000300754 -9.58303 -0.000330449
-9.8258 -0.000338821 -8.18485 -0.000282236 -10.1356 -0.000349502
-8.52528 -0.000293975 -7.69558 -0.000265365 -10.5722 -0.000364557
-7.36255 -0.000253881 -7.26278 -0.000250441 -10.8817 -0.000375231
-6.34363 -0.000218746 -6.89256 -0.000237674 -11.056 -0.000381242
-5.47006 -0.000188623 -6.58796 -0.000227171 -11.0905 -0.00038243
-4.73919 -0.000163421 -6.34894 -0.000218929 -10.9836 -0.000378745
-4.14453 -0.000142915 -6.17253 -0.000212846 -10.737 -0.000370242
-3.67588 -0.000126754 -6.05292 -0.000208721 -10.3551 -0.000357072
-3.31952 -0.000114466 -5.98137 -0.000206254 -9.84509 -0.000339486
-3.05826 -0.000105457 -5.94646 -0.00020505 -9.21726 -0.000317837
-2.87135 -9.90119e-05 -5.93464 -0.000204643 -8.48434 -0.000292563
-2.73454 -9.42946e-05 -5.93071 -0.000204507 -7.6611 -0.000264176
-2.62043 -9.03597e-05 -5.91838 -0.000204082 -6.76383 -0.000233235
-2.49913 -8.61767e-05 -5.88061 -0.00020278 -5.80989 -0.000200341
-2.62462 -9.0504e-05 -5.74844 -0.000198222 -4.82083 -0.000166235
-2.75729 -9.50789e-05 -5.5596 -0.00019171 -3.8157 -0.000131576
-2.84569 -9.81273e-05 -5.32035 -0.00018346 -2.79796 -9.64813e-05
-2.81555 -9.70879e-05 -4.97982 -0.000171718 -1.79861 -6.20211e-05
-2.63665 -9.09188e-05 -4.54615 -0.000156764 -0.824483 -2.84304e-05
-2.31811 -7.99348e-05 -4.01818 -0.000138558 -0.139771 -4.81968e-06
-1.84772 -6.37145e-05 -3.39838 -0.000117186 0.265323 9.14905e-06
-1.22369 -4.21961e-05 -2.67158 -9.21235e-05 0.64099 2.21031e-05
-0.469621 -1.61938e-05 -1.83254 -6.31911e-05 0.984939 3.39634e-05
0.279579 9.64066e-06 -0.880059 -3.03469e-05 1.29484 4.46496e-05
1.14905 3.96225e-05 0.177127 6.10782e-06 1.56708 5.40373e-05
2.13527 7.36299e-05 1.01685 3.5064e-05 1.79986 6.20641e-05
3.23702 0.000111621 1.91371 6.59901e-05 1.99346 6.874e-05
4.44025 0.000153112 2.86818 9.89029e-05 2.15057 7.41577e-05
5.72528 0.000197423 3.87629 0.000133665 2.27458 7.84339e-05
7.07595 0.000243998 4.91904 0.000169622 2.36836 8.16674e-05
8.47296 0.000292171 5.98154 0.00020626 2.43508 8.39684e-05
9.89016 0.00034104 7.05406 0.000243243 2.47962 8.55041e-05
11.292 0.000389379 8.12872 0.000280301 2.50736 8.64608e-05
12.6617 0.00043661 9.18823 0.000316836 2.52419 8.7041e-05
13.9835 0.000482189 10.2147 0.000352231 2.53554 8.74324e-05
15.2451 0.000525693 11.1922 0.000385937 2.54664 8.78153e-05
16.4371 0.000566798 12.107 0.000417482 2.56275 8.83708e-05
17.5525 0.00060526 12.946 0.000446413 2.58872 8.92663e-05
18.5856 0.000640884 13.6964 0.000472289 2.62874 9.06463e-05
19.5314 0.000673497 14.3474 0.00049474 2.68603 9.26216e-05
20.3617 0.000702129 14.8969 0.000513686 2.76276 9.52677e-05
20.9876 0.000723709 15.3521 0.000529382 2.85899 9.85858e-05
21.4997 0.00074137 15.6955 0.000541224 2.97481 0.00010258
21.8822 0.000754558 15.9253 0.000549147 3.11285 0.00010734
22.1285 0.000763051 16.0536 0.000553572 3.26844 0.000112705
22.2467 0.000767127 16.0811 0.000554519 3.44022 0.000118628
22.2494 0.00076722 16.0122 0.000552143 3.62352 0.000124949
22.1458 0.000763649 15.8533 0.000546665 3.81493 0.000131549
21.9459 0.000756755 15.6157 0.000538473 4.00993 0.000138274
21.6707 0.000747267 15.3114 0.00052798 4.20316 0.000144936
21.3411 0.0007359 14.9515 0.000515568 4.38856 0.00015133
20.9753 0.000723286 14.5469 0.000501619 4.56014 0.000157246
20.5943 0.000710148 14.1105 0.000486567 4.71226 0.000162492
20.2202 0.000697247 13.6557 0.000470886 4.83958 0.000166882
19.8729 0.000685271 13.1958 0.000455027 4.93695 0.00017024
19.5702 0.000674835 12.7424 0.000439393 4.99956 0.000172398
19.3292 0.000666523 12.3063 0.000424354 5.02328 0.000173217
19.1649 0.000660859 11.8975 0.000410259 5.00502 0.000172587
19.0893 0.00065825 11.5253 0.000397425 4.94272 0.000170439
19.1104 0.000658978 11.1973 0.000386112 4.83529 0.000166734
19.2328 0.000663199 10.9189 0.000376514 4.68259 0.000161469
19.4572 0.000670939 10.6942 0.000368764 4.4856 0.000154676
19.7813 0.000682113 10.5253 0.000362941 4.24647 0.00014643
20.2003 0.000696561 10.4127 0.000359058 3.96854 0.000136846
20.6847 0.000713265 10.3531 0.000357003 3.65625 0.000126078
21.2314 0.000732116 10.3488 0.000356855 3.31455 0.000114295
21.8179 0.000752342 10.3928 0.000358373 2.94952 0.000101707
22.4302 0.000773457 10.4773 0.000361285 2.56833 8.8563e-05
23.0655 0.00079536 10.5953 0.000365357 2.17795 7.51016e-05
23.7113 0.000817633 10.7378 0.000370267 1.78628 6.15958e-05
24.3497 0.000839644 10.894 0.000375654 1.40126 4.83192e-05
24.9678 0.000860959 11.0531 0.000381143 1.03079 3.55444e-05
25.5554 0.000881222 11.2055 0.000386398 0.682398 2.3531e-05
26.0982 0.000899938 11.3426 0.000391126 0.363112 1.25211e-05
26.5795 0.000916535 11.4568 0.000395063 0.0792658 2.7333e-06
26.9836 0.00093047 11.5416 0.000397985 -0.164157 -5.66059e-06
27.2954 0.000941222 11.5915 0.000399706 -0.592288 -2.04237e-05
27.5011 0.000948314 11.6035 0.000400121 -0.914588 -3.15375e-05
27.5902 0.000951385 11.5765 0.000399189 -1.12504 -3.87946e-05
27.5533 0.000950113 11.5103 0.000396908 -1.21931 -4.20453e-05
27.3872 0.000944387 11.4052 0.000393283 -1.19658 -4.12613e-05
27.093 0.000934243 11.2628 0.000388372 -1.0597 -3.65414e-05
26.6742 0.000919799 11.0863 0.000382287 -0.814138 -2.80737e-05
26.1408 0.000901408 10.8804 0.000375185 -0.466908 -1.61003e-05
25.5092 0.000879629 10.6496 0.000367227 -0.153585 -5.29603e-06
24.7976 0.000855091 10.3993 0.000358597 0.0844537 2.9122e-06
24.025 0.000828447 10.1367 0.00034954 0.35524 1.22497e-05
23.2105 0.000800363 9.86978 0.000340337 0.652437 2.24978e-05
22.3724 0.000771464 9.60719 0.000331282 0.969168 3.34196e-05
21.5275 0.000742327 9.35735 0.000322667 1.29769 4.4748e-05
20.6927 0.000713542 9.12872 0.000314783 1.63058 5.62268e-05
19.8862 0.00068573 8.92949 0.000307913 1.961 6.76205e-05
19.1261 0.00065952 8.76717 0.000302316 2.2825 7.8707e-05
18.43 0.000635516 8.64813 0.000298211 2.58877 8.9268e-05
17.8142 0.000614284 8.57745 0.000295774 2.87373 9.90942e-05
17.2938 0.000596337 8.559 0.000295138 3.13202 0.000108001
16.8809 0.0005821 8.59552 0.000296397 3.35931 0.000115838
16.5842 0.00057187 8.68849 0.000299603 3.55228 0.000122492
16.4074 0.000565773 8.83814 0.000304763 3.70849 0.000127879
16.3486 0.000563743 9.04347 0.000311844 3.82629 0.000131941
16.4001 0.000565522 9.30231 0.000320769 3.90496 0.000134654
16.55 0.000570688 9.61119 0.00033142 3.94486 0.00013603
16.7821 0.000578694 9.96517 0.000343626 3.94744 0.000136118
17.0769 0.000588859 10.3579 0.00035717 3.91507 0.000135002
17.4115 0.000600397 10.7818 0.000371785 3.85094 0.000132791
17.7617 0.000612472 11.2274 0.00038715 3.75896 0.000129619
18.1029 0.000624239 11.684 0.000402898 3.64372 0.000125646
18.4112 0.00063487 12.1399 0.000418617 3.51037 0.000121047
18.6637 0.000643577 12.582 0.000433862 3.36447 0.000116016
18.8397 0.000649646 12.9965 0.000448156 3.21175 0.00011075
18.9214 0.000652462 13.3692 0.000461009 3.05791 0.000105445
18.8936 0.000651503 13.686 0.00047193 2.90845 0.000100291
18.7439 0.00064634 13.9331 0.000480452 2.76851 9.5466e-05
18.4619 0.000636616 14.0981 0.00048614 2.64267 9.11266e-05
18.039 0.000622033 14.1698 0.000488615 2.53476 8.74054e-05
17.4682 0.000602352 14.1393 0.000487562 2.4477 8.44036e-05
16.7452 0.000577419 13.9995 0.00048274 2.38346 8.21881e-05
15.8685 0.000547189 13.7456 0.000473987 2.34289 8.07894e-05
14.8403 0.000511736 13.3755 0.000461225 2.3258 8.02002e-05
13.6667 0.000471265 12.8893 0.000444458 2.33087 8.0375e-05
12.3569 0.000426101 12.2895 0.000423777 2.3557 8.12311e-05
10.9235 0.000376673 11.5813 0.000399355 2.39686 8.26504e-05
9.40671 0.000324369 10.7678 0.000371304 2.45034 8.44944e-05
7.81842 0.000269601 9.85558 0.000339848 2.512 8.66206e-05
6.1766 0.000212986 8.87775 0.000306129 2.57063 8.86426e-05
4.49458 0.000154985 7.82221 0.000269731 2.62655 9.05707e-05
2.76277 9.5268e-05 6.71661 0.000231607 2.66994 9.20669e-05
1.02609 3.53823e-05 5.5755 0.000192258 2.69466 9.29195e-05
-0.835911 -2.88245e-05 4.4164 0.00015229 2.69302 9.28628e-05
-2.86131 -9.86658e-05 3.25546 0.000112257 2.65918 9.16959e-05
-4.78764 -0.000165091 2.10022 7.24214e-05 2.588 8.92413e-05
-6.55731 -0.000226114 0.959418 3.30834e-05 2.47383 8.53045e-05
-8.18124 -0.000282112 -0.352054 -1.21398e-05 2.31451 7.98108e-05
-9.65614 -0.00033297 -1.81189 -6.24789e-05 2.10571 7.26105e-05
-10.9387 -0.000377195 -3.1901 -0.000110004 1.84552 6.36387e-05
-12.013 -0.000414241 -4.4669 -0.000154031 1.53348 5.28786e-05
-12.8899 -0.000444478 -5.63028 -0.000194148 1.17114 4.03841e-05
-13.5713 -0.000467977 -6.67699 -0.000230241 0.760499 2.62241e-05
-14.0544 -0.000484635 -7.6055 -0.000262259 0.304568 1.05023e-05
-14.3513 -0.000494874 -8.41226 -0.000290078 -0.192143 -6.62563e-06
-14.4837 -0.000499439 -9.09796 -0.000313723 -1.19024 -4.10426e-05
-14.4731 -0.000499071 -9.66539 -0.000333289 -2.40383 -8.28908e-05
-14.3433 -0.000494595 -10.1229 -0.000349065 -3.66377 -0.000126337
-14.1249 -0.000487065 -10.4785 -0.000361328 -4.94648 -0.000170568
-13.8533 -0.000477699 -10.7435 -0.000370465 -6.23047 -0.000214844
-13.564 -0.000467726 -10.9317 -0.000376956 -7.49672 -0.000258508
-13.2915 -0.000458328 -11.059 -0.000381344 -8.72606 -0.000300899
-13.0702 -0.000450696 -11.142 -0.000384208 -9.89703 -0.000341277
-12.9264 -0.000445738 -11.1982 -0.000386146 -10.9868 -0.000378857
-12.8908 -0.000444509 -11.2445 -0.000387741 -11.9744 -0.000412911
-12.9874 -0.000447843 -11.2992 -0.000389629 -12.8332 -0.000442523
-13.2478 -0.000456821 -11.3182 -0.000390282 -12.9664 -0.000447117
-13.6872 -0.000471973 -11.2668 -0.000388512 -12.9663 -0.000447113
-14.2842 -0.00049256 -11.3183 -0.000390286 -13.0591 -0.000450312
-15.0724 -0.000519737 -11.4511 -0.000394865 -13.1524 -0.000453532
-16.0192 -0.000552385 -11.7568 -0.000405408 -13.1461 -0.000453315
-17.1334 -0.000590808 -12.1943 -0.000420492 -13.001 -0.00044831
-18.428 -0.000635449 -12.6839 -0.000437375 -12.728 -0.000438897
-19.8882 -0.000685799 -13.2196 -0.000455848 -12.4095 -0.000427913
-21.5018 -0.00074144 -13.8183 -0.000476491 -12.0191 -0.000414452
-23.2564 -0.000801945 -14.495 -0.000499827 -11.4699 -0.000395513
-25.133 -0.000866655 -15.2347 -0.000525335 -10.7385 -0.000370292
-27.1075 -0.000934742 -16.0052 -0.000551904 -9.88952 -0.000341018
-29.1532 -0.00100528 -16.7847 -0.000578784 -9.00611 -0.000310555
-31.2412 -0.00107728 -17.5647 -0.000605678 -8.12027 -0.000280009
-33.3382 -0.00114959 -18.3375 -0.000632327 -7.21367 -0.000248747
-35.4088 -0.00122099 -19.0877 -0.000658196 -6.27133 -0.000216253
-37.4176 -0.00129026 -19.7957 -0.000682611 -5.31883 -0.000183408
-39.3303 -0.00135622 -20.4449 -0.000704997 -4.4082 -0.000152007
-41.1129 -0.00141768 -21.0235 -0.000724948 -3.57894 -0.000123412
-42.7247 -0.00147326 -21.5221 -0.000742142 -2.84017 -9.79368e-05
-42.984 -0.00148221 -21.7455 -0.000749844 -2.21513 -7.63839e-05
-43.5163 -0.00150056 -21.7159 -0.000748823 -1.72018 -5.93167e-05
-43.878 -0.00151303 -21.8887 -0.000754783 -1.26168 -4.35064e-05
-43.943 -0.00151528 -21.8858 -0.000754683 -0.937713 -3.23349e-05
-43.9795 -0.00151653 -21.7818 -0.000751095 -0.764213 -2.63522e-05
-44.0876 -0.00152026 -21.743 -0.000749758 -0.674827 -2.32699e-05
-43.9896 -0.00151688 -21.7173 -0.000748873 -0.68275 -2.35431e-05
-43.6504 -0.00150518 -21.5618 -0.00074351 -0.805944 -2.77912e-05
-43.1534 -0.00148805 -21.3164 -0.000735049 -1.04932 -3.61835e-05
-42.5119 -0.00146593 -21.0191 -0.000724796 -1.39941 -4.82554e-05
-41.6527 -0.0014363 -20.6742 -0.000712903 -1.85388 -6.3927e-05
-40.6235 -0.00140081 -20.2808 -0.000699338 -2.38948 -8.2396e-05
-39.5005 -0.00136209 -19.8352 -0.000683971 -2.99507 -0.000103278
-38.2913 -0.00132039 -19.3587 -0.000667543 -3.65887 -0.000126168
-37.0036 -0.00127599 -18.8749 -0.000650857 -4.36898 -0.000150654
-35.6843 -0.00123049 -18.3963 -0.000634354 -5.10754 -0.000176122
-34.3779 -0.00118545 -17.9288 -0.000618233 -5.85442 -0.000201877
-33.1082 -0.00114166 -17.4828 -0.000602853 -6.59164 -0.000227298
-31.9019 -0.00110006 -17.075 -0.000588793 -7.30423 -0.00025187
-30.7952 -0.0010619 -16.7207 -0.000576577 -7.97841 -0.000275117
-29.818 -0.00102821 -16.4292 -0.000566523 -8.59996 -0.000296551
-28.9913 -0.000999701 -16.2062 -0.000558834 -9.1549 -0.000315686
-28.3353 -0.000977078 -16.0588 -0.000553751 -9.63121 -0.000332111
-27.8682 -0.000960972 -15.9945 -0.000551534 -10.0201 -0.000345519
-27.6019 -0.000951789 -16.0182 -0.000552352 -10.3155 -0.000355707
-27.5319 -0.000949376 -16.1323 -0.000556287 -10.5136 -0.000362537
-27.6014 -0.000951771 -16.3451 -0.000563625 -10.6109 -0.000365894
-27.8123 -0.000959045 -16.6489 -0.0005741 -10.6079 -0.00036579
-28.1584 -0.00097098 -17.0365 -0.000587467 -10.5087 -0.000362368
-28.6289 -0.000987204 -17.5019 -0.000603514 -10.3189 -0.000355824
-29.2097 -0.00100723 -18.0332 -0.000621835 -10.0473 -0.000346459
-29.8837 -0.00103047 -18.615 -0.000641896 -9.70398 -0.00033462
-30.6308 -0.00105624 -19.2303 -0.000663114 -9.30087 -0.00032072
-31.4277 -0.00108371 -19.8631 -0.000684934 -8.85127 -0.000305216
-32.2487 -0.00111202 -20.497 -0.000706792 -8.36944 -0.000288601
-33.0666 -0.00114023 -21.1145 -0.000728085 -7.87008 -0.000271382
-33.8538 -0.00116737 -21.6975 -0.000748191 -7.3679 -0.000254066
-34.5831 -0.00119252 -22.2293 -0.000766527 -6.87727 -0.000237147
-35.2291 -0.0012148 -22.6945 -0.00078257 -6.41186 -0.000221099
-35.7686 -0.0012334 -23.0796 -0.000795848 -5.98421 -0.000206352
-36.1819 -0.00124765 -23.3721 -0.000805934 -5.60542 -0.00019329
-36.4536 -0.00125702 -23.5614 -0.000812461 -5.28478 -0.000182234
-36.5729 -0.00126113 -23.6395 -0.000815154 -5.02962 -0.000173435
-36.5332 -0.00125977 -23.6012 -0.000813835 -4.84505 -0.000167071
-36.332 -0.00125283 -23.4444 -0.000808429 -4.73381 -0.000163235
-35.9694 -0.00124032 -23.1698 -0.000798959 -4.69622 -0.000161939
-35.4476 -0.00122233 -22.7811 -0.000785556 -4.73017 -0.000163109
-34.7704 -0.00119898 -22.2854 -0.000768463 -4.83122 -0.000166594
-33.9435 -0.00117047 -21.6925 -0.000748018 -4.99279 -0.000172165
-32.9757 -0.00113709 -21.0143 -0.000724633 -5.20643 -0.000179532
-31.8794 -0.00109929 -20.2644 -0.000698773 -5.46206 -0.000188347
-30.6707 -0.00105761 -19.4575 -0.000670947 -5.74838 -0.00019822
-29.3679 -0.00101269 -18.609 -0.00064169 -6.05315 -0.000208729
-27.9912 -0.000965215 -17.7349 -0.000611548 -6.36362 -0.000219435
-26.5615 -0.000915913 -16.8508 -0.000581063 -6.66687 -0.000229892
-25.0988 -0.000865477 -15.9721 -0.00055076 -6.9502 -0.000239662
-23.6222 -0.00081456 -15.1129 -0.000521136 -7.20148 -0.000248327
-22.1495 -0.000763776 -14.2864 -0.000492635 -7.40952 -0.000255501
-20.6982 -0.000713732 -13.5034 -0.000465633 -7.56441 -0.000260842
-19.287 -0.000665069 -12.7722 -0.000440421 -7.65782 -0.000264063
-17.9363 -0.000618491 -12.0986 -0.000417192 -7.68317 -0.000264937
-16.6669 -0.000574722 -11.4854 -0.000396049 -7.63579 -0.000263303
-15.4984 -0.000534429 -10.9334 -0.000377015 -7.51294 -0.000259067
-14.4462 -0.000498144 -10.4414 -0.000360048 -7.31376 -0.000252199
-13.5199 -0.000466202 -10.0065 -0.000345052 -7.03927 -0.000242733
-12.7228 -0.000438716 -9.62494 -0.000331894 -6.69222 -0.000230766
-12.0519 -0.000415582 -9.29182 -0.000320408 -6.27704 -0.00021645
-11.4991 -0.00039652 -9.0015 -0.000310397 -5.79967 -0.000199988
-11.0518 -0.000381098 -8.74752 -0.000301639 -5.26739 -0.000181634
-10.6942 -0.000368764 -8.52279 -0.000293889 -4.68871 -0.00016168
-10.4071 -0.000358866 -8.31973 -0.000286887 -4.07307 -0.000140451
-10.1698 -0.000350684 -8.13034 -0.000280357 -3.43068 -0.000118299
-9.96093 -0.00034348 -7.94625 -0.000274009 -2.77228 -9.5596e-05
-9.75895 -0.000336515 -7.75898 -0.000267551 -2.10888 -7.27199e-05
-9.54186 -0.00032903 -7.56029 -0.0002607 -1.45144 -5.00495e-05
-9.28658 -0.000320227 -7.34246 -0.000253188 -0.810661 -2.79538e-05
-8.96828 -0.000309251 -7.10216 -0.000244902 -0.400251 -1.38017e-05
-8.56203 -0.000295242 -6.84702 -0.000236104 -0.167748 -5.78442e-06
-8.05168 -0.000277644 -6.55141 -0.000225911 0.0518632 1.78839e-06
-7.4178 -0.000255786 -6.21178 -0.000214199 0.253952 8.75695e-06
-6.68769 -0.00023061 -5.80901 -0.000200311 0.425256 1.4664e-05
-6.03935 -0.000208254 -5.29344 -0.000182533 0.56275 1.94052e-05
-5.29488 -0.000182582 -4.77307 -0.000164589 0.682983 2.35512e-05
-4.49717 -0.000155075 -4.16869 -0.000143748 0.781454 2.69467e-05
-3.52004 -0.000121381 -3.5107 -0.000121059 0.856247 2.95257e-05
-2.40558 -8.2951e-05 -2.80574 -9.67498e-05 0.905828 3.12354e-05
-1.21696 -4.19641e-05 -2.06775 -7.13018e-05 0.929872 3.20645e-05
-0.239395 -8.25498e-06 -1.32964 -4.58495e-05 0.934032 3.2208e-05
0.750025 2.58629e-05 -0.575617 -1.98489e-05 0.921716 3.17833e-05
1.76855 6.09846e-05 0.113527 3.91473e-06 0.889105 3.06588e-05
2.76882 9.54767e-05 0.681748 2.35085e-05 0.84473 2.91286e-05
3.78725 0.000130595 1.24814 4.30392e-05 0.785905 2.71002e-05
4.8329 0.000166652 1.80814 6.23498e-05 0.718133 2.47632e-05
5.86082 0.000202097 2.36896 8.16883e-05 0.647424 2.2325e-05
6.85096 0.00023624 2.91767 0.000100609 0.577636 1.99185e-05
7.81237 0.000269392 3.4414 0.000118669 0.511828 1.76492e-05
8.73625 0.00030125 3.93573 0.000135715 0.45299 1.56203e-05
9.60048 0.000331051 4.40087 0.000151754 0.40487 1.3961e-05
10.3958 0.000358475 4.83429 0.0001667 0.370677 1.2782e-05
11.1217 0.000383506 5.22914 0.000180315 0.352942 1.21704e-05
11.772 0.000405933 5.57981 0.000192407 0.353623 1.21939e-05
12.3394 0.000425497 5.88494 0.000202929 0.374175 1.29026e-05
12.8227 0.000442162 6.14533 0.000211908 0.415422 1.43249e-05
13.2241 0.000456003 6.36089 0.000219341 0.477562 1.64676e-05
13.5448 0.000467061 6.53079 0.0002252 0.560256 1.93192e-05
13.7873 0.000475425 6.6557 0.000229507 0.662625 2.28492e-05
13.958 0.000481312 6.73856 0.000232364 0.783172 2.70059e-05
14.0652 0.000485008 6.78345 0.000233912 0.919777 3.17164e-05
14.1181 0.000486831 6.79424 0.000234284 1.05945 3.65328e-05
14.1287 0.000487198 6.7692 0.000233421 1.19535 4.12191e-05
14.109 0.000486516 6.71382 0.000231511 1.34342 4.63249e-05
14.0701 0.000485177 6.64201 0.000229035 1.49582 5.158e-05
14.0274 0.000483704 6.55866 0.000226161 1.64523 5.67319e-05
13.9924 0.000482496 6.47233 0.000223184 1.78704 6.16222e-05
13.9785 0.000482019 6.38684 0.000220236 1.92273 6.63012e-05
13.9987 0.000482715 6.30892 0.000217549 2.05264 7.07807e-05
14.0651 0.000485005 6.24655 0.000215398 2.17328 7.49408e-05
14.1886 0.00048926 6.20717 0.00021404 2.27902 7.8587e-05
14.378 0.000495794 6.19682 0.000213684 2.3658 8.15793e-05
14.6405 0.000504844 6.22045 0.000214498 2.43288 8.38923e-05
14.9798 0.000516545 6.28294 0.000216653 2.48104 8.55533e-05
15.3972 0.000530937 6.38891 0.000220307 2.51021 8.65589e-05
15.8914 0.000547978 6.54194 0.000225584 2.51847 8.68437e-05
16.4592 0.00056756 6.74341 0.000232531 2.50143 8.62562e-05
17.096 0.000589517 6.99306 0.00024114 2.46055 8.48467e-05
17.7951 0.000613623 7.29032 0.00025139 2.39906 8.27261e-05
18.5487 0.000639612 7.63324 0.000263215 2.31987 7.99954e-05
19.3481 0.000667177 8.01883 0.000276511 2.22504 7.67257e-05
20.1835 0.000695983 8.44232 0.000291114 2.11719 7.30067e-05
21.0447 0.00072568 8.8976 0.000306814 2.00035 6.89775e-05
21.9213 0.000755906 9.37775 0.000323371 1.87964 6.48153e-05
22.8011 0.000786245 9.87562 0.000340539 1.76021 6.0697e-05
23.6638 0.000815992 10.3858 0.000358131 1.64631 5.67692e-05
24.5015 0.000844879 10.8971 0.000375763 1.54234 5.31842e-05
25.3053 0.000872596 11.4016 0.000393159 1.45259 5.00894e-05
26.0681 0.000898899 11.8916 0.000410056 1.38131 4.76315e-05
26.781 0.000923482 12.3595 0.00042619 1.33267 4.59542e-05
27.4347 0.000946025 12.7982 0.000441316 1.30992 4.51696e-05
28.0217 0.000966267 13.2018 0.000455233 1.31548 4.53612e-05
28.5138 0.000983234 13.5718 0.000467995 1.35091 4.65831e-05
28.885 0.000996036 13.9055 0.000479501 1.41681 4.88555e-05
29.1723 0.00100594 14.1967 0.00048954 1.51273 5.21631e-05
29.364 0.00101255 14.4386 0.000497883 1.6418 5.6614e-05
29.4485 0.00101547 14.6405 0.000504846 1.79997 6.20678e-05
29.433 0.00101493 14.7987 0.000510301 1.98646 6.84986e-05
29.3201 0.00101104 14.9124 0.000514221 2.19763 7.57803e-05
29.116 0.001004 14.9822 0.000516627 2.43112 8.38316e-05
28.8259 0.000993997 15.013 0.000517689 2.66579 9.19238e-05
28.4638 0.000981511 14.9982 0.000517178 2.89008 9.96579e-05
28.0418 0.00096696 14.9471 0.000515418 3.13293 0.000108032
27.5713 0.000950735 14.8731 0.000512867 3.38242 0.000116635
27.0668 0.000933338 14.7808 0.000509682 3.62481 0.000124993
26.5393 0.000915148 14.6788 0.000506165 3.8546 0.000132917
26.0047 0.000896715 14.5681 0.00050235 4.07531 0.000140528
25.4768 0.000878511 14.4542 0.00049842 4.288 0.000147862
24.9686 0.000860985 14.3433 0.000494595 4.48735 0.000154736
24.4918 0.000844545 14.2416 0.000491089 4.66444 0.000160843
24.0501 0.000829315 14.1541 0.000488072 4.81324 0.000165974
23.6244 0.000814635 14.087 0.000485759 4.9328 0.000170097
23.2183 0.00080063 14.0407 0.000484161 5.02444 0.000173256
22.831 0.000787276 14.0156 0.000483298 5.0881 0.000175452
22.4595 0.000774464 14.013 0.000483208 5.12091 0.000176583
22.101 0.000762104 14.0306 0.000483812 5.1186 0.000176503
21.7552 0.000750178 14.0617 0.000484886 5.07787 0.000175099
21.4216 0.000738677 14.0991 0.000486174 5.0031 0.000172521
21.0985 0.000727533 14.1357 0.000487438 4.89852 0.000168914
20.7816 0.000716608 14.1646 0.000488434 4.76583 0.000164339
20.4647 0.000705678 14.1781 0.000488899 4.606 0.000158827
20.1392 0.000694456 14.1673 0.000488528 4.42194 0.000152481
19.7966 0.00068264 14.1233 0.000487011 4.21875 0.000145474
19.4281 0.000669935 14.0379 0.000484066 4.00194 0.000137998
19.0249 0.000656032 13.9038 0.000479442 3.77569 0.000130196
18.5771 0.000640588 13.7145 0.000472914 3.54288 0.000122168
18.074 0.000623242 13.4644 0.000464289 3.3063 0.00011401
17.5066 0.000603676 13.1487 0.000453405 3.06941 0.000105842
16.8683 0.000581664 12.7641 0.000440142 2.83586 9.77883e-05
16.1557 0.000557093 12.3084 0.000424426 2.6085 8.99484e-05
15.3683 0.000529942 11.7806 0.000406228 2.38896 8.2378e-05
14.5076 0.00050026 11.1814 0.000385567 2.17803 7.51044e-05
13.5761 0.000468141 10.513 0.000362519 1.97623 6.81458e-05
12.5773 0.000433699 9.77925 0.000337215 1.78392 6.15147e-05
11.5146 0.000397055 8.98556 0.000309847 1.60095 5.52053e-05
10.3919 0.00035834 8.13891 0.000280652 1.42633 4.91838e-05
9.21369 0.000317714 7.24737 0.000249909 1.25836 4.33916e-05
7.98594 0.000275377 6.31989 0.000217927 1.09501 3.77591e-05
6.71611 0.00023159 5.36595 0.000185033 0.934236 3.2215e-05
5.41377 0.000186682 4.39517 0.000151558 0.773919 2.66869e-05
4.09031 0.000141045 3.41709 0.000117831 0.611837 2.10978e-05
2.75824 9.51117e-05 2.44105 8.41741e-05 0.445652 1.53673e-05
1.43035 4.93223e-05 1.476 5.08966e-05 0.273101 9.41726e-06
0.132684 4.57532e-06 0.527792 1.81997e-05 0.0917929 3.16527e-06
-1.2358 -4.26137e-05 -0.541299 -1.86655e-05 -0.102037 -3.51852e-06
-2.68381 -9.25451e-05 -1.73863 -5.99527e-05 -0.30695 -1.05845e-05
-4.06062 -0.000140021 -2.88817 -9.9592e-05 -0.507642 -1.75049e-05
-5.14428 -0.000177389 -4.0032 -0.000138042 -0.930647 -3.20913e-05
-6.13918 -0.000211696 -5.02964 -0.000173436 -1.37956 -4.7571e-05
-7.04265 -0.00024285 -5.97705 -0.000206105 -1.86095 -6.41706e-05
-7.84494 -0.000270515 -6.86557 -0.000236744 -2.35097 -8.10681e-05
-8.52301 -0.000293897 -7.67482 -0.000264649 -2.85438 -9.84269e-05
-9.09262 -0.000313539 -8.39141 -0.000289359 -3.37266 -0.000116299
-9.56664 -0.000329884 -9.01066 -0.000310713 -3.91045 -0.000134843
-9.94205 -0.000342829 -9.54242 -0.000329049 -4.46075 -0.000153819
-10.2234 -0.000352531 -9.99289 -0.000344582 -5.01153 -0.000172811
-10.4279 -0.000359583 -10.3602 -0.000357248 -5.55281 -0.000191476
-10.5708 -0.000364512 -10.6428 -0.000366994 -6.08032 -0.000209666
-10.6639 -0.00036772 -10.8461 -0.000374002 -6.59166 -0.000227299
-10.7223 -0.000369735 -10.9796 -0.000378605 -7.08082 -0.000244166
-10.7647 -0.000371195 -11.0518 -0.000381096 -7.53753 -0.000259915
-10.8076 -0.000372674 -11.069 -0.000381689 -7.95122 -0.00027418
-10.8663 -0.000374701 -11.0383 -0.000380633 -8.31441 -0.000286704
-10.9571 -0.000377832 -10.9696 -0.000378262 -8.62241 -0.000297324
-11.0958 -0.000382615 -10.8736 -0.00037495 -8.8706 -0.000305883
-11.2962 -0.000389526 -10.7601 -0.000371037 -9.05296 -0.000312171
-11.5698 -0.000398957 -10.638 -0.000366827 -9.16327 -0.000315975
-11.9258 -0.000411234 -10.5163 -0.00036263 -9.19716 -0.000317143
-12.3711 -0.000426589 -10.4034 -0.000358738 -9.14256 -0.000315261
-12.9095 -0.000445155 -10.3057 -0.000355367 -8.9991 -0.000310314
-13.5418 -0.000466957 -10.23 -0.000352759 -8.7685 -0.000302362
-14.2669 -0.000491962 -10.182 -0.000351105 -8.45246 -0.000291464
-15.0818 -0.000520061 -10.1668 -0.000350579 -8.05273 -0.00027768
-15.9812 -0.000551077 -10.1875 -0.000351294 -7.57423 -0.000261181
-16.9588 -0.000584787 -10.2452 -0.000353284 -7.0256 -0.000242262
-18.0068 -0.000620924 -10.3392 -0.000356525 -6.41742 -0.00022129
-19.1161 -0.000659176 -10.4676 -0.000360952 -5.76047 -0.000198637
-20.2761 -0.000699177 -10.6277 -0.000366471 -5.06552 -0.000174673
-21.4748 -0.00074051 -10.8157 -0.000372955 -4.34425 -0.000149802
-22.6985 -0.000782707 -11.0269 -0.000380239 -3.60997 -0.000124482
-23.9325 -0.000825259 -11.2561 -0.000388143 -2.87698 -9.92061e-05
-25.1611 -0.000867624 -11.4979 -0.00039648 -2.15946 -7.44641e-05
-26.3682 -0.000909249 -11.747 -0.000405071 -1.47073 -5.07148e-05
-27.5381 -0.00094959 -11.9984 -0.000413738 -0.823331 -2.83907e-05
-28.6546 -0.00098809 -12.2522 -0.000422489 -0.474088 -1.63479e-05
-29.7032 -0.00102425 -12.5101 -0.000431383 -0.254817 -8.78678e-06
-30.6752 -0.00105776 -12.7548 -0.000439819 -0.0626224 -2.15939e-06
-31.5578 -0.0010882 -12.9837 -0.000447714 0.0947773 3.26818e-06
-32.3454 -0.00111536 -13.1888 -0.000454785 0.209011 7.20726e-06
-33.0311 -0.001139 -13.3739 -0.000461168 0.281536 9.70815e-06
-33.6117 -0.00115902 -13.5417 -0.000466956 0.316073 1.08991e-05
-34.0869 -0.00117541 -13.6924 -0.000472152 0.311501 1.07414e-05
-34.4581 -0.00118821 -13.8275 -0.000476812 0.261578 9.01995e-06
-34.7297 -0.00119757 -13.9501 -0.000481037 0.164823 5.68356e-06
-34.9074 -0.0012037 -14.0654 -0.000485013 0.0232339 8.01168e-07
-34.9989 -0.00120686 -14.1793 -0.000488941 -0.159177 -5.48887e-06
-35.0142 -0.00120739 -14.2967 -0.000492989 -0.378356 -1.30468e-05
-34.9651 -0.00120569 -14.4232 -0.00049735 -0.627501 -2.1638e-05
-34.8668 -0.00120231 -14.5597 -0.000502059 -1.20339 -4.1496e-05
-34.7309 -0.00119762 -14.713 -0.000507345 -1.83961 -6.34349e-05
-34.5749 -0.00119224 -14.8956 -0.00051364 -2.51992 -8.68939e-05
-34.4171 -0.0011868 -15.1121 -0.000521108 -3.22673 -0.000111267
-34.2659 -0.00118158 -15.3723 -0.000530079 -3.94819 -0.000136144
-33.9489 -0.00117065 -15.7103 -0.000541735 -4.6779 -0.000161307
-33.6673 -0.00116094 -16.0945 -0.000554982 -5.41068 -0.000186575
-33.4818 -0.00115454 -16.5109 -0.000569341 -6.14149 -0.000211776
-33.363 -0.00115045 -16.9882 -0.000585801 -6.85409 -0.000236348
-33.323 -0.00114907 -17.5197 -0.000604127 -7.53828 -0.000259941
-33.3803 -0.00115104 -18.0986 -0.000624088 -8.18802 -0.000282345
-33.5386 -0.0011565 -18.7193 -0.000645492 -8.80008 -0.000303451
-33.7927 -0.00116527 -19.3819 -0.00066834 -9.37168 -0.000323161
-34.1425 -0.00117733 -20.0869 -0.000692651 -9.89695 -0.000341274
-34.5454 -0.00119122 -20.8234 -0.000718047 -10.371 -0.000357621
-35.0441 -0.00120842 -21.5841 -0.000744279 -10.7915 -0.00037212
-35.6294 -0.0012286 -22.3559 -0.000770892 -11.1601 -0.000384831
-36.2524 -0.00125008 -23.1477 -0.000798195 -11.4767 -0.000395747
-36.9385 -0.00127374 -23.9473 -0.00082577 -11.7407 -0.000404853
-37.6575 -0.00129853 -24.7478 -0.000853371 -11.9552 -0.000412247
-38.3866 -0.00132368 -25.5386 -0.000880642 -12.1211 -0.000417969
-39.1108 -0.00134865 -26.3122 -0.000907318 -12.2436 -0.000422191
-39.8219 -0.00137317 -27.0614 -0.000933152 -12.3261 -0.000425038
-40.502 -0.00139662 -27.775 -0.00095776 -12.3739 -0.000426687
-41.132 -0.00141834 -28.4413 -0.000980735 -12.3917 -0.000427298
-41.7016 -0.00143798 -29.0494 -0.0010017 -12.3832 -0.000427007
-42.2029 -0.00145527 -29.5898 -0.00102034 -12.3542 -0.000426007
-42.6261 -0.00146986 -30.0537 -0.00103633 -12.3102 -0.000424489
-42.9624 -0.00148146 -30.4315 -0.00104936 -12.2561 -0.000422623
-43.2072 -0.0014899 -30.7151 -0.00105914 -12.1959 -0.000420549
-43.3573 -0.00149508 -30.8982 -0.00106546 -12.1333 -0.000418391
-43.4094 -0.00149688 -30.9766 -0.00106816 -12.0711 -0.000416246
-43.3557 -0.00149502 -30.9458 -0.0010671 -12.0116 -0.000414191
-43.2032 -0.00148977 -30.8041 -0.00106221 -11.9555 -0.000412259
-42.9559 -0.00148124 -30.5528 -0.00105355 -11.9024 -0.000410427
-42.6178 -0.00146958 -30.1953 -0.00104122 -11.8508 -0.000408647
-42.1955 -0.00145502 -29.7372 -0.00102542 -11.7981 -0.000406831
-41.6944 -0.00143774 -29.1868 -0.00100644 -11.741 -0.000404864
-41.1163 -0.0014178 -28.5541 -0.000984622 -11.6754 -0.000402599
-40.4634 -0.00139529 -27.8504 -0.000960357 -11.5963 -0.000399872
-39.7404 -0.00137036 -27.0879 -0.000934065 -11.4986 -0.000396504
-38.9537 -0.00134323 -26.2792 -0.000906178 -11.3771 -0.000392314
-38.1119 -0.0013142 -25.4364 -0.000877118 -11.2268 -0.00038713
-37.226 -0.00128366 -24.5713 -0.000847288 -11.043 -0.000380792
-36.3081 -0.001252 -23.6949 -0.000817064 -10.8215 -0.000373156
-35.3694 -0.00121963 -22.8171 -0.000786797 -10.559 -0.000364103
-34.42 -0.0011869 -21.9472 -0.000756801 -10.2528 -0.000353543
-33.4685 -0.00115409 -21.0931 -0.000727349 -9.90124 -0.000341422
-32.5214 -0.00112143 -20.2615 -0.000698673 -9.50389 -0.00032772
-31.5829 -0.00108907 -19.4577 -0.000670954 -9.06128 -0.000312458
-30.6551 -0.00105707 -18.6854 -0.000644324 -8.57516 -0.000295695
-29.7379 -0.00102545 -17.9469 -0.000618859 -8.04841 -0.000277531
-28.8293 -0.000994115 -17.2429 -0.000594584 -7.48505 -0.000258105
-27.9254 -0.000962944 -16.5726 -0.00057147 -6.89017 -0.000237592
-27.0205 -0.000931742 -15.9337 -0.000549439 -6.2698 -0.0002162
-26.108 -0.000900277 -15.3226 -0.000528364 -5.63077 -0.000194165
-25.1802 -0.000868283 -14.7343 -0.000508079 -4.98059 -0.000171744
-24.2292 -0.000835488 -14.163 -0.000488381 -4.3272 -0.000149214
-23.2474 -0.000801635 -13.6021 -0.000469037 -3.67886 -0.000126857
-22.2285 -0.000766499 -13.044 -0.000449793 -3.04385 -0.00010496
-20.8947 -0.000720509 -12.3387 -0.000425474 -2.28115 -7.86604e-05
-19.4878 -0.000671993 -11.6112 -0.000400386 -1.56679 -5.40273e-05
-18.0018 -0.000620751 -10.848 -0.000374071 -0.913902 -3.15139e-05
-16.4282 -0.000566489 -10.044 -0.000346346 -0.508847 -1.75464e-05
-14.756 -0.000508829 -9.19892 -0.000317204 -0.301241 -1.03876e-05
-12.9748 -0.000447405 -8.29822 -0.000286146 -0.124339 -4.28756e-06
-11.0762 -0.000381939 -7.33448 -0.000252913 0.0161098 5.55509e-07
-9.05906 -0.000312382 -6.31165 -0.000217643 0.115308 3.97612e-06
-6.92881 -0.000238925 -5.24169 -0.000180748 0.186789 6.44101e-06
-4.69631 -0.000161942 -4.13166 -0.000142471 0.235369 8.11617e-06
-2.57433 -8.87703e-05 -2.95095 -0.000101757 0.258122 8.90074e-06
-0.711376 -2.45304e-05 -1.73799 -5.99307e-05 0.254022 8.75937e-06
0.634437 2.1877e-05 -0.594329 -2.04941e-05 0.242045 8.3464e-06
2.09819 7.23511e-05 0.243878 8.40958e-06 0.21841 7.53139e-06
3.4825 0.000120086 1.02511 3.53485e-05 0.197227 6.80092e-06
4.82088 0.000166237 1.75834 6.06323e-05 0.177968 6.13683e-06
6.1449 0.000211893 2.45662 8.4711e-05 0.168992 5.8273e-06
7.37408 0.000254278 3.10843 0.000107187 0.174792 6.02732e-06
8.50879 0.000293406 3.69304 0.000127346 0.200338 6.90821e-06
9.55887 0.000329616 4.21472 0.000145335 0.248424 8.56633e-06
10.4936 0.000361849 4.68061 0.0001614 0.320934 1.10667e-05
11.3124 0.000390083 5.08643 0.000175394 0.406945 1.40326e-05
12.0253 0.000414665 5.42519 0.000187076 0.512289 1.76651e-05
12.6289 0.00043548 5.7084 0.000196841 0.639201 2.20414e-05
13.1348 0.000452923 5.94498 0.000204999 0.782572 2.69852e-05
13.5594 0.000467565 6.13905 0.000211691 0.9378 3.23379e-05
13.916 0.00047986 6.29527 0.000217078 1.10544 3.81186e-05
14.2212 0.000490386 6.42477 0.000221544 1.28244 4.42219e-05
14.4939 0.00049979 6.53843 0.000225463 1.46228 5.04235e-05
14.751 0.000508654 6.64483 0.000229132 1.63886 5.65123e-05
15.0101 0.000517588 6.75277 0.000232854 1.80906 6.23815e-05
15.2888 0.000527198 6.8723 0.000236976 1.96992 6.79282e-05
15.6029 0.00053803 7.0121 0.000241797 2.11696 7.29985e-05
15.9669 0.000550584 7.17887 0.000247547 2.24569 7.74377e-05
16.3936 0.000565296 7.37831 0.000254424 2.35368 8.11615e-05
16.8928 0.00058251 7.61502 0.000262587 2.43992 8.41353e-05
17.4716 0.000602468 7.89184 0.000272132 2.50349 8.63271e-05
18.1326 0.000625263 8.20998 0.000283103 2.54368 8.77132e-05
18.8735 0.000650809 8.56959 0.000295503 2.56111 8.83141e-05
19.6869 0.00067886 8.96914 0.000309281 2.55522 8.81109e-05
20.5621 0.000709039 9.40493 0.000324308 2.52849 8.71895e-05
21.4849 0.00074086 9.87284 0.000340443 2.48528 8.56993e-05
22.4392 0.000773765 10.3677 0.000357507 2.42912 8.37627e-05
23.4072 0.000807143 10.883 0.000375275 2.36473 8.15426e-05
24.3711 0.000840384 11.4104 0.00039346 2.29812 7.92456e-05
25.3145 0.000872913 11.9407 0.000411749 2.23567 7.70921e-05
26.2223 0.000904216 12.4646 0.000429815 2.18283 7.52699e-05
27.0816 0.000933847 12.9726 0.00044733 2.14464 7.39531e-05
27.8808 0.000961409 13.4554 0.000463978 2.12599 7.33101e-05
28.6099 0.000986548 13.9051 0.000479488 2.1313 7.34932e-05
29.2599 0.00100896 14.3156 0.00049364 2.16369 7.46101e-05
29.8235 0.0010284 14.6823 0.000506286 2.22494 7.6722e-05
30.2949 0.00104465 15.003 0.000517343 2.31572 7.98524e-05
30.6708 0.00105761 15.277 0.000526794 2.43573 8.39908e-05
30.9512 0.00106728 15.5058 0.000534684 2.58343 8.90838e-05
31.1389 0.00107376 15.6907 0.000541058 2.73365 9.4264e-05
31.2408 0.00107727 15.8275 0.000545775 2.90563 0.000100194
31.2614 0.00107798 15.9321 0.000549383 3.09153 0.000106604
31.2115 0.00107626 16.0104 0.000552083 3.28499 0.000113276
31.0955 0.00107226 16.0685 0.000554087 3.47862 0.000119952
30.9291 0.00106652 16.1104 0.00055553 3.67582 0.000126753
30.6616 0.0010573 16.1529 0.000556995 3.87248 0.000133534
30.3463 0.00104642 16.1942 0.000558421 4.05821 0.000139938
30.0671 0.0010368 16.2257 0.000559508 4.22932 0.000145839
29.8032 0.0010277 16.2637 0.000560819 4.38294 0.000151136
29.5092 0.00101756 16.3148 0.000562578 4.51757 0.000155778
29.1706 0.00100588 16.3776 0.000564745 4.62778 0.000159578
28.7866 0.000992643 16.4496 0.000567226 4.71163 0.00016247
28.3607 0.000977957 16.5316 0.000570054 4.76842 0.000164428
27.8957 0.000961919 16.6142 0.000572905 4.79881 0.000165476
27.3899 0.00094448 16.6844 0.000575322 4.80265 0.000165609
26.8455 0.000925708 16.7306 0.000576918 4.77811 0.000164762
26.2645 0.000905672 16.7419 0.000577307 4.7281 0.000163038
25.6476 0.000884401 16.7046 0.000576022 4.65588 0.000160547
24.9946 0.000861883 16.6062 0.000572628 4.5634 0.000157359
24.302 0.000837999 16.4372 0.000566801 4.45333 0.000153563
23.5616 0.000812471 16.1904 0.00055829 4.3288 0.000149269
22.7616 0.000784883 15.8604 0.000546909 4.19243 0.000144567
21.8877 0.00075475 15.4444 0.000532567 4.04568 0.000139506
20.928 0.000721656 14.9427 0.000515267 3.88948 0.00013412
19.8756 0.000685367 14.3568 0.000495062 3.72467 0.000128437
18.7298 0.000645857 13.6891 0.000472037 3.55175 0.000122474
17.4937 0.000603232 12.9438 0.000446339 3.37048 0.000116224
16.1715 0.000557637 12.1272 0.000418178 3.18003 0.000109656
14.7681 0.000509246 11.2463 0.000387805 2.97935 0.000102736
13.29 0.000458275 10.3096 0.000355502 2.76729 9.54238e-05
11.7438 0.000404959 9.3259 0.000321583 2.54253 8.76736e-05
10.1357 0.000349508 8.30507 0.000286382 2.30363 7.94357e-05
8.46972 0.00029206 7.25684 0.000250236 2.04929 7.0665e-05
6.74873 0.000232715 6.19046 0.000213464 1.77856 6.13298e-05
4.97804 0.000171657 5.11393 0.000176343 1.49101 5.14142e-05
3.16809 0.000109245 4.0334 0.000139083 1.18666 4.09194e-05
1.33294 4.59637e-05 2.95329 0.000101838 0.8661 2.98655e-05
-0.194262 -6.69833e-06 1.83119 6.31445e-05 0.53204 1.83462e-05
-1.59956 -5.51567e-05 0.738432 2.54632e-05 0.183862 6.34006e-06
-3.12403 -0.000107725 -0.346908 -1.19623e-05 -0.179137 -6.17715e-06
-4.53581 -0.000156407 -1.80262 -6.21591e-05 -0.548926 -1.89285e-05
-5.90226 -0.000203526 -3.2052 -0.000110524 -1.25525 -4.32844e-05
-7.18954 -0.000247915 -4.53128 -0.000156251 -2.01054 -6.93289e-05
-8.36242 -0.000288359 -5.78932 -0.000199632 -2.77135 -9.55636e-05
-9.4368 -0.000325407 -6.99706 -0.000241278 -3.51788 -0.000121306
-10.4073 -0.000358874 -8.12984 -0.000280339 -4.25518 -0.00014673
-11.2644 -0.000388428 -9.17317 -0.000316316 -4.99496 -0.00017224
-12.0206 -0.000414502 -10.1325 -0.000349397 -5.72066 -0.000197264
-12.682 -0.00043731 -11.0115 -0.000379706 -6.4117 -0.000221093
-13.2538 -0.000457027 -11.8007 -0.000406919 -7.06009 -0.000243452
-13.7487 -0.000474094 -12.4945 -0.000430844 -7.66822 -0.000264421
-14.1777 -0.000488884 -13.0963 -0.000451597 -8.22889 -0.000283755
-14.552 -0.000501791 -13.6083 -0.000469253 -8.72762 -0.000300952
-14.8871 -0.000513347 -14.0288 -0.000483753 -9.15391 -0.000315652
-15.1977 -0.000524059 -14.3585 -0.00049512 -9.50558 -0.000327779
-15.4964 -0.000534359 -14.6016 -0.000503504 -9.77973 -0.000337232
-15.7935 -0.000544604 -14.763 -0.00050907 -9.96925 -0.000343767
-16.0958 -0.000555029 -14.8474 -0.000511981 -10.0676 -0.000347159
-16.408 -0.000565792 -14.8608 -0.00051244 -10.0708 -0.000347269
-16.7355 -0.000577085 -14.8071 -0.000510591 -9.97049 -0.00034381
-17.0841 -0.000589106 -14.6912 -0.000506592 -9.7687 -0.000336852
-17.4591 -0.000602038 -14.5183 -0.00050063 -9.46699 -0.000326448
-17.8632 -0.000615973 -14.2951 -0.000492935 -9.068 -0.00031269
-18.2946 -0.000630846 -14.0278 -0.000483717 -8.57908 -0.00029583
-18.7473 -0.000646457 -13.7219 -0.000473168 -8.01061 -0.000276228
-19.2131 -0.00066252 -13.3834 -0.000461498 -7.37278 -0.000254234
-19.6821 -0.000678691 -13.0185 -0.000448913 -6.67602 -0.000230208
-20.1428 -0.000694578 -12.6321 -0.000435591 -5.93291 -0.000204583
-20.5822 -0.00070973 -12.2287 -0.000421679 -5.15815 -0.000177867
-20.9859 -0.000723651 -11.812 -0.000407309 -4.36677 -0.000150578
-21.3392 -0.000735833 -11.3852 -0.000392594 -3.57332 -0.000123218
-21.6277 -0.000745781 -10.9509 -0.000377619 -2.79241 -9.629e-05
-21.8342 -0.000752904 -10.5117 -0.000362472 -2.03897 -7.03092e-05
-21.9016 -0.000755226 -10.0778 -0.000347511 -1.32625 -4.57329e-05
-21.8103 -0.000752079 -9.63908 -0.000332382 -0.70924 -2.44565e-05
-21.5683 -0.000743734 -9.20665 -0.000317471 -0.466784 -1.6096e-05
-21.1873 -0.000730595 -8.76583 -0.00030227 -0.252761 -8.71588e-06
-20.6802 -0.00071311 -8.30666 -0.000286436 -0.0691057 -2.38295e-06
-20.0682 -0.000692008 -7.81813 -0.000269591 0.0674126 2.32457e-06
-19.3609 -0.000667615 -7.309 -0.000252034 0.165176 5.69573e-06
-18.5692 -0.000640319 -6.7842 -0.000233938 0.228751 7.88796e-06
-17.7034 -0.00061046 -6.24546 -0.000215361 0.258397 8.91023e-06
-16.77 -0.000578275 -5.69998 -0.000196551 0.246359 8.49514e-06
-15.7773 -0.000544046 -5.16233 -0.000178011 0.19614 6.76343e-06
-14.7384 -0.000508221 -4.6442 -0.000160145 0.11685 4.0293e-06
-13.6702 -0.000471387 -4.15443 -0.000143256 0.0136431 4.7045e-07
-12.594 -0.000434275 -3.70258 -0.000127675 -0.111693 -3.85149e-06
-11.5311 -0.000397625 -3.29961 -0.00011378 -0.25405 -8.76035e-06
-10.5008 -0.000362095 -2.95484 -0.000101891 -0.405169 -1.39713e-05
-9.51928 -0.000328251 -2.67533 -9.22528e-05 -0.558144 -1.92464e-05
-8.60013 -0.000296556 -2.46577 -8.50265e-05 -0.736217 -2.53868e-05
-7.75088 -0.000267271 -2.32945 -8.0326e-05 -1.03892 -3.58248e-05
-6.97145 -0.000240395 -2.27189 -7.8341e-05 -1.32143 -4.55664e-05
-6.25531 -0.0002157 -2.29276 -7.90607e-05 -1.56857 -5.40888e-05
-5.58935 -0.000192736 -2.3887 -8.23688e-05 -1.78044 -6.13946e-05
-4.95722 -0.000170938 -2.55218 -8.80064e-05 -1.95834 -6.75288e-05
-4.3399 -0.000149652 -2.77307 -9.5623e-05 -2.10167 -7.24713e-05
-3.7169 -0.000128169 -3.03789 -0.000104755 -2.20761 -7.61243e-05
-3.06682 -0.000105752 -3.32935 -0.000114805 -2.27938 -7.85993e-05
-2.36683 -8.16143e-05 -3.62716 -0.000125074 -2.32404 -8.01394e-05
-1.66558 -5.74333e-05 -3.89871 -0.000134438 -2.34845 -8.09811e-05
-1.29373 -4.46111e-05 -4.06175 -0.00014006 -2.36536 -8.15643e-05
-0.847644 -2.92287e-05 -4.20991 -0.000145169 -2.36106 -8.1416e-05
-0.430315 -1.48381e-05 -4.27803 -0.000147518 -2.34992 -8.10318e-05
0.0824705 2.84418e-06 -4.2651 -0.000147072 -2.33151 -8.03969e-05
0.658583 2.27101e-05 -4.16665 -0.000143678 -2.31136 -7.9702e-05
1.32092 4.55494e-05 -3.97212 -0.00013697 -2.28685 -7.88568e-05
2.07718 7.16274e-05 -3.66021 -0.000126214 -2.25976 -7.79228e-05
2.9109 0.000100376 -3.23034 -0.000111391 -2.23045 -7.69119e-05
3.82888 0.000132031 -2.68893 -9.27218e-05 -2.19563 -7.57114e-05
4.83035 0.000166564 -2.03473 -7.0163e-05 -2.14946 -7.41191e-05
5.90339 0.000203566 -1.26783 -4.37184e-05 -2.08599 -7.19308e-05
7.0405 0.000242776 -0.497164 -1.71436e-05 -1.99991 -6.89626e-05
8.22809 0.000283728 0.196877 6.78886e-06 -1.8852 -6.5007e-05
9.45078 0.000325889 0.943397 3.25309e-05 -1.73324 -5.97669e-05
10.6966 0.00036885 1.74708 6.02442e-05 -1.53372 -5.28867e-05
11.9493 0.000412046 2.59406 8.94504e-05 -1.28104 -4.41738e-05
13.1943 0.000454977 3.46893 0.000119618 -0.968248 -3.33879e-05
14.4183 0.000497183 4.3646 0.000150504 -0.619881 -2.13752e-05
15.6076 0.000538195 5.27225 0.000181802 -0.427818 -1.47523e-05
16.75 0.000577587 6.1734 0.000212876 -0.203785 -7.02708e-06
17.8316 0.000614884 7.06719 0.000243696 0.051528 1.77683e-06
18.8439 0.00064979 7.94813 0.000274073 0.335374 1.15646e-05
19.7771 0.000681971 8.81091 0.000303825 0.643295 2.21826e-05
20.6251 0.000711211 9.64689 0.000332651 0.979948 3.37913e-05
21.3831 0.00073735 10.4528 0.000360441 1.34291 4.63073e-05
22.0495 0.000760328 11.2276 0.000387159 1.72559 5.9503e-05
22.6266 0.000780227 11.9688 0.000412716 2.12084 7.31323e-05
23.1204 0.000797256 12.6732 0.000437008 2.52565 8.70915e-05
23.5394 0.000811705 13.3399 0.000459996 2.93621 0.000101249
23.8938 0.000823924 13.9685 0.000481673 3.34577 0.000115371
24.1943 0.000834286 14.5588 0.000502028 3.74644 0.000129188
24.4513 0.000843149 15.1106 0.000521056 4.13229 0.000142493
24.6744 0.000850842 15.6244 0.000538773 4.49839 0.000155117
24.8727 0.000857679 16.1008 0.0005552 4.83909 0.000166865
25.0548 0.00086396 16.5399 0.000570343 5.14819 0.000177524
25.2295 0.000869984 16.9416 0.000584191 5.42064 0.000186918
25.4159 0.000876411 17.2618 0.000595233 5.35716 0.00018473
25.618 0.00088338 17.4734 0.000602531 5.41002 0.000186552
25.8184 0.000890289 17.693 0.000610103 5.45031 0.000187942
26.0408 0.000897958 17.911 0.000617621 5.42383 0.000187029
26.2736 0.000905985 18.1059 0.000624341 5.37487 0.00018534
26.5231 0.000914589 18.2462 0.000629179 5.37791 0.000185445
26.7858 0.000923649 18.3497 0.000632748 5.3808 0.000185545
27.0541 0.0009329 18.4131 0.000634933 5.3074 0.000183014
27.3175 0.000941984 18.4249 0.000635341 5.17006 0.000178278
27.566 0.000950552 18.3799 0.000633788 5.00743 0.00017267
27.7832 0.000958042 18.2856 0.000630537 4.82952 0.000166535
27.9405 0.000963467 18.1459 0.000625722 4.61206 0.000159036
28.0258 0.000966407 17.9546 0.000619123 4.35273 0.000150094
28.0268 0.000966443 17.7087 0.000610645 4.07238 0.000140427
27.9408 0.000963476 17.4066 0.000600227 3.78785 0.000130616
27.7654 0.000957429 17.0455 0.000587776 3.49457 0.000120502
27.5002 0.000948283 16.6227 0.000573195 3.18911 0.000109969
27.147 0.000936105 16.1381 0.000556485 2.88037 9.93231e-05
26.7062 0.000920903 15.5929 0.000537685 2.58071 8.89899e-05
26.1773 0.000902665 14.9892 0.000516869 2.29229 7.90444e-05
25.5597 0.000881369 14.332 0.000494207 2.01256 6.93986e-05
24.8511 0.000856936 13.6287 0.000469956 1.74305 6.01051e-05
24.0488 0.000829269 12.8875 0.000444397 1.48909 5.13481e-05
23.1492 0.000798248 12.1172 0.000417833 1.25253 4.31906e-05
22.1489 0.000763755 11.3279 0.000390617 1.03107 3.55543e-05
21.0479 0.000725791 10.5298 0.000363097 0.822855 2.83743e-05
19.8531 0.00068459 9.73122 0.000335559 0.628574 2.1675e-05
18.577 0.000640587 8.93883 0.000308235 0.448679 1.54717e-05
17.2357 0.000594334 8.15846 0.000281326 0.281558 9.70889e-06
15.8464 0.000546427 7.39501 0.000255 0.12497 4.30932e-06
14.4264 0.000497463 6.65208 0.000229382 -0.0220808 -7.61407e-07
12.9925 0.000448017 5.93232 0.000204563 -0.159972 -5.51626e-06
11.56 0.000398621 5.23787 0.000180616 -0.289775 -9.99225e-06
10.1424 0.000349739 4.57047 0.000157602 -0.413183 -1.42477e-05
8.75071 0.000301749 3.93138 0.000135565 -0.531448 -1.83258e-05
7.39198 0.000254896 3.32162 0.000114539 -0.645189 -2.22479e-05
6.0682 0.000209249 2.74419 9.46271e-05 -0.731718 -2.52317e-05
4.77787 0.000164754 2.20641 7.6083e-05 -0.89606 -3.08986e-05
3.52283 0.000121477 1.69785 5.85464e-05 -1.07639 -3.71167e-05
2.30489 7.94793e-05 1.21644 4.19462e-05 -1.24687 -4.29954e-05
1.13324 3.90777e-05 0.760048 2.62086e-05 -1.40846 -4.85677e-05
0.0374561 1.29196e-06 0.327214 1.12833e-05 -1.57389 -5.4272e-05
-0.808013 -2.78622e-05 -0.0889132 -3.06597e-06 -1.74492 -6.01697e-05
-1.6094 -5.54961e-05 -0.520312 -1.79418e-05 -1.90192 -6.55835e-05
-2.30907 -7.96227e-05 -1.01633 -3.50459e-05 -2.06422 -7.11798e-05
-2.94856 -0.000101674 -1.53197 -5.28266e-05 -2.22082 -7.658e-05
-3.52618 -0.000121592 -2.00442 -6.91179e-05 -2.38212 -8.21419e-05
-3.99635 -0.000137805 -2.42272 -8.35422e-05 -2.54363 -8.77113e-05
-4.38295 -0.000151136 -2.7945 -9.63619e-05 -2.70518 -9.32819e-05
-4.68985 -0.000161719 -3.12354 -0.000107708 -2.86589 -9.88239e-05
-4.90557 -0.000169157 -3.39809 -0.000117175 -3.02579 -0.000104338
-5.04366 -0.000173919 -3.61198 -0.000124551 -3.18395 -0.000109791
-5.11271 -0.0001763 -3.76939 -0.000129979 -3.33823 -0.000115111
-5.11401 -0.000176345 -3.87163 -0.000133504 -3.48591 -0.000120204
-5.05265 -0.000174229 -3.91452 -0.000134984 -3.62441 -0.000124979
-4.93752 -0.000170259 -3.89964 -0.00013447 -3.75133 -0.000129356
-4.7711 -0.00016452 -3.83321 -0.00013218 -3.86343 -0.000133222
-4.56071 -0.000157265 -3.72004 -0.000128277 -3.95674 -0.000136439
-4.31489 -0.000148789 -3.56388 -0.000122892 -4.02755 -0.000138881
-4.03998 -0.000139309 -3.37041 -0.000116221 -4.07287 -0.000140444
-3.74393 -0.0001291 -3.14619 -0.000108489 -4.08986 -0.00014103
-3.42306 -0.000118036 -2.89814 -9.99357e-05 -4.0697 -0.000140335
-3.08009 -0.00010621 -2.62868 -9.06442e-05 -4.00571 -0.000138128
-2.73519 -9.43165e-05 -2.33887 -8.06506e-05 -3.89849 -0.000134431
-2.40868 -8.30574e-05 -2.03183 -7.0063e-05 -3.74674 -0.000129198
-2.11651 -7.29829e-05 -1.70969 -5.89547e-05 -3.54965 -0.000122402
-1.86811 -6.44174e-05 -1.37361 -4.7366e-05 -3.30883 -0.000114098
-1.66576 -5.74396e-05 -1.02644 -3.53944e-05 -3.02793 -0.000104411
-1.50497 -5.18951e-05 -0.701213 -2.41797e-05 -2.71015 -9.34535e-05
-1.37644 -4.74631e-05 -0.436401 -1.50483e-05 -2.35877 -8.13369e-05
-1.26983 -4.37867e-05 -0.174413 -6.01422e-06 -1.97847 -6.82229e-05
-1.17458 -4.05025e-05 0.0845311 2.91487e-06 -1.57517 -5.43161e-05
-1.08535 -3.74257e-05 0.34052 1.17421e-05 -1.15566 -3.98502e-05
-0.998618 -3.44347e-05 0.591592 2.03997e-05 -0.74732 -2.57697e-05
-0.909254 -3.13532e-05 0.832613 2.87108e-05 -0.563531 -1.94321e-05
-0.823869 -2.84089e-05 1.06602 3.67593e-05 -0.379867 -1.30988e-05
-0.747916 -2.57898e-05 1.29527 4.46644e-05 -0.199973 -6.89561e-06
-0.672133 -2.31766e-05 1.52381 5.25452e-05 -0.0322334 -1.1115e-06
-0.599904 -2.0686e-05 1.75005 6.03464e-05 0.123273 4.25078e-06
-0.536559 -1.85017e-05 1.97284 6.8029e-05 0.267512 9.22455e-06
-0.488018 -1.68278e-05 2.19285 7.56154e-05 0.398012 1.37245e-05
-0.461839 -1.59251e-05 2.40953 8.30872e-05 0.510379 1.75993e-05
-0.465763 -1.60604e-05 2.61953 9.03288e-05 0.603256 2.08019e-05
-0.50782 -1.75107e-05 2.81843 9.71874e-05 0.678038 2.33806e-05
-0.596083 -2.05542e-05 3.00183 0.000103512 0.735332 2.53563e-05
-0.740381 -2.553e-05 3.16411 0.000109107 0.774334 2.67012e-05
-0.898701 -3.09893e-05 3.28615 0.000113315 0.795151 2.7419e-05
-0.986927 -3.40316e-05 3.3557 0.000115714 0.801786 2.76478e-05
-1.14284 -3.9408e-05 3.39606 0.000117105 0.78982 2.72352e-05
-1.35785 -4.68221e-05 3.37951 0.000116535 0.763343 2.63222e-05
-1.62906 -5.61742e-05 3.31059 0.000114158 0.721826 2.48905e-05
-1.95248 -6.73266e-05 3.19221 0.000110076 0.666324 2.29767e-05
-2.32801 -8.02759e-05 3.01908 0.000104106 0.597265 2.05954e-05
-2.74887 -9.47883e-05 2.786 9.6069e-05 0.515703 1.77829e-05
-3.20744 -0.000110601 2.49605 8.60708e-05 0.422634 1.45736e-05
-3.69568 -0.000127437 2.15361 7.42624e-05 0.318053 1.09674e-05
-4.20216 -0.000144902 1.7603 6.06999e-05 0.20156 6.95034e-06
-4.68198 -0.000161447 1.32173 4.5577e-05 0.0730777 2.51992e-06
-5.12566 -0.000176746 0.844384 2.91167e-05 -0.0673772 -2.32335e-06
-5.50159 -0.00018971 0.327797 1.13034e-05 -0.220419 -7.60064e-06
-5.80593 -0.000200204 -0.213221 -7.35244e-06 -0.385353 -1.3288e-05
-6.06025 -0.000208974 -0.855785 -2.95098e-05 -0.563918 -1.94455e-05
-6.24343 -0.00021529 -1.62482 -5.60284e-05 -0.740244 -2.55256e-05
-6.35324 -0.000219077 -2.35645 -8.12569e-05 -1.06156 -3.66054e-05
-6.39145 -0.000220394 -3.03876 -0.000104785 -1.45071 -5.00245e-05
-6.35631 -0.000219183 -3.66765 -0.000126471 -1.86321 -6.42486e-05
-6.24633 -0.00021539 -4.23344 -0.000145981 -2.27885 -7.85811e-05
-6.06847 -0.000209257 -4.71317 -0.000162523 -2.71329 -9.35618e-05
-5.82407 -0.000200829 -5.09876 -0.000175819 -3.16922 -0.000109284
-5.51644 -0.000190222 -5.39203 -0.000185932 -3.63342 -0.00012529
-5.15618 -0.000177799 -5.5929 -0.000192859 -4.0877 -0.000140955
-4.75718 -0.00016404 -5.69967 -0.00019654 -4.52691 -0.0001561
-4.33472 -0.000149473 -5.71696 -0.000197137 -4.94873 -0.000170646
-3.90316 -0.000134591 -5.65495 -0.000194998 -5.34247 -0.000184223
-3.4745 -0.00011981 -5.52457 -0.000190502 -5.69191 -0.000196273
-3.06039 -0.00010553 -5.33701 -0.000184035 -5.98579 -0.000206407
-2.67332 -9.21831e-05 -5.10503 -0.000176036 -6.21827 -0.000214423
-2.32596 -8.02052e-05 -4.84176 -0.000166957 -6.38251 -0.000220087
-2.03053 -7.00179e-05 -4.55899 -0.000157207 -6.46922 -0.000223077
-1.79731 -6.19758e-05 -4.26707 -0.00014714 -6.46702 -0.000223001
-1.63347 -5.63263e-05 -3.97158 -0.000136951 -6.35743 -0.000219222
-1.54081 -5.31311e-05 -3.6776 -0.000126814 -6.1433 -0.000211838
-1.5165 -5.22928e-05 -3.39036 -0.000116909 -5.82629 -0.000200907
-1.55418 -5.35919e-05 -3.11388 -0.000107375 -5.40677 -0.00018644
-1.64598 -5.67577e-05 -2.84791 -9.82037e-05 -4.89198 -0.000168689
-1.78364 -6.15046e-05 -2.58884 -8.92703e-05 -4.2962 -0.000148145
-1.95774 -6.75078e-05 -2.3317 -8.04036e-05 -3.6341 -0.000125314
-2.15613 -7.43489e-05 -2.07071 -7.14037e-05 -2.91902 -0.000100656
-2.36286 -8.14775e-05 -1.79897 -6.20335e-05 -2.16602 -7.46905e-05
-2.55995 -8.82738e-05 -1.50893 -5.20321e-05 -1.39355 -4.80535e-05
-2.73025 -9.4146e-05 -1.19327 -4.11472e-05 -0.707172 -2.43852e-05
-2.8545 -9.84308e-05 -0.868499 -2.99482e-05 -0.422121 -1.45559e-05
-2.92527 -0.000100871 -0.530442 -1.82911e-05 -0.12742 -4.3938e-06
-2.92674 -0.000100922 -0.227231 -7.83556e-06 0.151421 5.22142e-06
-2.84644 -9.81528e-05 0.112267 3.87128e-06 0.39436 1.35986e-05
-2.66818 -9.20057e-05 0.477302 1.64587e-05 0.60837 2.09783e-05
-2.38749 -8.23268e-05 0.866668 2.98851e-05 0.803599 2.77103e-05
-2.00367 -6.90917e-05 1.28086 4.41675e-05 0.973109 3.35555e-05
-1.52986 -5.27533e-05 1.71673 5.91975e-05 1.10644 3.81531e-05
-0.96701 -3.33448e-05 2.1664 7.47036e-05 1.20284 4.14772e-05
-0.456533 -1.57421e-05 2.62028 9.03544e-05 1.27144 4.38428e-05
0.0635015 2.19008e-06 3.07194 0.000105929 1.31555 4.53639e-05
0.607669 2.09545e-05 3.51362 0.000121159 1.33212 4.59353e-05
1.18353 4.08117e-05 3.93128 0.000135561 1.31759 4.54342e-05
1.74421 6.01455e-05 4.31797 0.000148895 1.28023 4.41458e-05
2.28196 7.86888e-05 4.66496 0.000160861 1.22606 4.22779e-05
2.77686 9.57542e-05 4.96246 0.000171119 1.15778 3.99235e-05
3.21182 0.000110753 5.20345 0.000179429 1.07687 3.71336e-05
3.57406 0.000123244 5.38132 0.000185563 0.98877 3.40955e-05
3.85117 0.0001328 5.48946 0.000189292 0.899422 3.10146e-05
4.03158 0.00013902 5.52365 0.000190471 0.811929 2.79976e-05
4.10857 0.000141675 5.48203 0.000189036 0.727231 2.50769e-05
4.07676 0.000140578 5.36383 0.00018496 0.646979 2.23096e-05
3.94017 0.000135868 5.16854 0.000178226 0.573332 1.97701e-05
3.71351 0.000128052 4.89782 0.00016889 0.507014 1.74832e-05
3.40852 0.000117535 4.55698 0.000157137 0.44661 1.54004e-05
3.04034 0.00010484 4.15237 0.000143185 0.39021 1.34555e-05
2.62341 9.04626e-05 3.69279 0.000127337 0.335935 1.1584e-05
2.13139 7.34967e-05 3.19627 0.000110216 0.280932 9.68729e-06
1.61158 5.5572e-05 2.66481 9.189e-05 0.222731 7.68039e-06
1.08056 3.72609e-05 2.11563 7.29529e-05 0.157409 5.4279e-06
0.554449 1.91193e-05 1.56072 5.3818e-05 0.0819704 2.82657e-06
0.0460097 1.58691e-06 1.01106 3.4864e-05 -0.00646637 -2.22978e-07
-0.428988 -1.47923e-05 0.477454 1.64639e-05 -0.110518 -3.81096e-06
-0.828435 -2.85664e-05 -0.0217802 -7.5104e-07 -0.232317 -8.01093e-06
-1.24721 -4.30069e-05 -0.48753 -1.68114e-05 -0.371449 -1.28086e-05
-1.62563 -5.60559e-05 -1.02968 -3.55061e-05 -0.529899 -1.82724e-05
-1.95471 -6.74034e-05 -1.52874 -5.27151e-05 -0.705642 -2.43325e-05
-2.253 -7.76892e-05 -1.93896 -6.68608e-05 -0.971643 -3.35049e-05
-2.51286 -8.665e-05 -2.25703 -7.78287e-05 -1.34996 -4.65505e-05
-2.74681 -9.4717e-05 -2.50216 -8.62815e-05 -1.74554 -6.0191e-05
-2.77114 -9.55563e-05 -2.72329 -9.39067e-05 -2.1343 -7.35965e-05
-2.78347 -9.59814e-05 -2.86656 -9.88468e-05 -2.51982 -8.68902e-05
-2.79341 -9.6324e-05 -2.95749 -0.000101983 -2.90669 -0.000100231
-2.8108 -9.69237e-05 -3.00954 -0.000103777 -3.2802 -0.00011311
-2.86063 -9.86419e-05 -3.02801 -0.000104414 -3.62025 -0.000124836
-2.96103 -0.000102104 -3.02036 -0.00010415 -3.91984 -0.000135167
-3.11746 -0.000107498 -3.00794 -0.000103722 -4.17659 -0.00014402
-3.34031 -0.000115183 -3.00586 -0.00010365 -4.38374 -0.000151163
-3.63626 -0.000125388 -3.02331 -0.000104252 -4.52963 -0.000156194
-4.00466 -0.000138091 -3.07159 -0.000105917 -4.60837 -0.000158909
-4.44421 -0.000153248 -3.16236 -0.000109047 -4.61846 -0.000159257
-4.95261 -0.000170779 -3.29889 -0.000113755 -4.55158 -0.000156951
-5.52558 -0.000190537 -3.47972 -0.00011999 -4.40901 -0.000152035
-6.15729 -0.00021232 -3.70381 -0.000127717 -4.19583 -0.000144684
-6.83844 -0.000235808 -3.96834 -0.000136839 -3.91867 -0.000135127
-7.55577 -0.000260543 -4.2653 -0.000147079 -3.58904 -0.00012376
-8.28194 -0.000285584 -4.58668 -0.000158161 -3.22037 -0.000111047
-8.98307 -0.000309761 -4.92297 -0.000169758 -2.8264 -9.74621e-05
-9.65271 -0.000332852 -5.25683 -0.00018127 -2.42238 -8.35305e-05
-10.2853 -0.000354665 -5.57363 -0.000192194 -2.02355 -6.97777e-05
-10.8733 -0.00037494 -5.85664 -0.000201953 -1.64578 -5.67509e-05
-11.411 -0.000393482 -6.09001 -0.00021 -1.30352 -4.4949e-05
-11.8953 -0.000410183 -6.26183 -0.000215925 -1.00886 -3.47882e-05
-12.3227 -0.00042492 -6.36461 -0.000219469 -0.813924 -2.80663e-05
-12.6898 -0.00043758 -6.39719 -0.000220593 -0.742295 -2.55964e-05
-12.9956 -0.000448125 -6.35647 -0.000219188 -0.69868 -2.40924e-05
-13.1527 -0.00045354 -6.2679 -0.000216134 -0.679628 -2.34354e-05
-13.1402 -0.000453111 -6.13161 -0.000211435 -0.691574 -2.38474e-05
-13.0705 -0.000450707 -5.92989 -0.000204479 -0.7362 -2.53862e-05
-12.9162 -0.000445385 -5.70193 -0.000196618 -0.796344 -2.74601e-05
-12.702 -0.000438001 -5.44425 -0.000187733 -0.931947 -3.21361e-05
-12.4542 -0.000429454 -5.16424 -0.000178077 -1.13952 -3.92937e-05
-12.1861 -0.000420209 -4.8847 -0.000168438 -1.37394 -4.73771e-05
-11.9198 -0.000411027 -4.62599 -0.000159517 -1.61972 -5.58524e-05
-11.6797 -0.000402747 -4.39958 -0.00015171 -1.8687 -6.4438e-05
-11.4853 -0.000396043 -4.21681 -0.000145407 -2.11407 -7.2899e-05
-11.3569 -0.000391618 -4.09326 -0.000141147 -2.34689 -8.09272e-05
-11.3135 -0.00039012 -4.0413 -0.000139355 -2.55648 -8.81543e-05
-11.3691 -0.000392038 -4.06729 -0.000140251 -2.73598 -9.43441e-05
-11.5347 -0.000397748 -4.17571 -0.00014399 -2.88244 -9.93944e-05
-11.8165 -0.000407466 -4.37016 -0.000150695 -2.99406 -0.000103243
-12.1882 -0.000420284 -4.64886 -0.000160305 -3.06919 -0.000105834
-12.6647 -0.000436714 -5.00302 -0.000172518 -3.10893 -0.000107204
-13.2368 -0.000456442 -5.42591 -0.0001871 -3.11679 -0.000107475
-13.8768 -0.00047851 -5.92039 -0.000204151 -3.09337 -0.000106668
-14.6001 -0.00050345 -6.46743 -0.000223015 -3.04656 -0.000105054
-15.3572 -0.000529558 -7.06193 -0.000243515 -2.98395 -0.000102895
-16.1095 -0.000555499 -7.6932 -0.000265283 -2.91479 -0.00010051
-16.8369 -0.000580581 -8.34773 -0.000287853 -2.84855 -9.82259e-05
-17.5108 -0.000603821 -9.00849 -0.000310638 -2.79635 -9.64258e-05
-18.1082 -0.000624419 -9.65771 -0.000333025 -2.76906 -9.54849e-05
-18.6162 -0.000641936 -10.2775 -0.000354395 -2.77631 -9.57348e-05
-19.0201 -0.000655866 -10.8504 -0.00037415 -2.82628 -9.74578e-05
-19.3035 -0.000665638 -11.3607 -0.00039175 -2.92563 -0.000100884
-19.45 -0.000670689 -11.796 -0.000406758 -3.07897 -0.000106171
-19.432 -0.000670069 -12.1442 -0.000418766 -3.27553 -0.000112949
-19.2402 -0.000663456 -12.3893 -0.000427217 -3.50696 -0.00012093
-18.8638 -0.000650474 -12.5324 -0.000432153 -3.79068 -0.000130713
-18.2959 -0.000630893 -12.5731 -0.000433555 -4.11291 -0.000141824
-17.5377 -0.000604748 -12.5132 -0.000431491 -4.46515 -0.000153971
-16.5942 -0.000572213 -12.3538 -0.000425992 -4.84193 -0.000166963
-15.4778 -0.000533718 -12.0999 -0.000417236 -5.2355 -0.000180535
-14.2104 -0.000490014 -11.758 -0.000405449 -5.63057 -0.000194157
-12.8184 -0.000442012 -11.3347 -0.000390853 -6.01213 -0.000207315
-11.3302 -0.000390698 -10.837 -0.000373691 -6.36785 -0.000219581
-9.77582 -0.000337097 -10.2732 -0.000354247 -6.68638 -0.000230565
-8.18594 -0.000282273 -9.65178 -0.00033282 -6.95397 -0.000239792
-6.59319 -0.000227351 -8.98133 -0.000309701 -7.15676 -0.000246785
-5.02998 -0.000173447 -8.26999 -0.000285172 -7.28342 -0.000251152
-3.52431 -0.000121528 -7.52615 -0.000259522 -7.32525 -0.000252595
-2.09748 -7.23265e-05 -6.7575 -0.000233017 -7.26579 -0.000250545
-0.815554 -2.81222e-05 -5.9696 -0.000205848 -7.09426 -0.00024463
0.111505 3.84536e-06 -5.17913 -0.000178591 -6.80676 -0.000234716
0.933268 3.2182e-05 -4.39279 -0.000151475 -6.40003 -0.000220691
1.54167 5.31615e-05 -3.5575 -0.000122673 -5.88581 -0.000202959
2.0312 7.00417e-05 -2.75136 -9.48745e-05 -5.25595 -0.00018124
2.45321 8.45937e-05 -1.93854 -6.68461e-05 -4.52781 -0.000156131
2.79601 9.64145e-05 -1.13332 -3.90798e-05 -3.7075 -0.000127845
3.04961 0.000105159 -0.504622 -1.74007e-05 -2.80883 -9.68562e-05
3.24191 0.00011179 0.0650746 2.24395e-06 -1.84458 -6.36062e-05
3.384 0.00011669 0.626762 2.16125e-05 -0.832773 -2.87163e-05
3.49048 0.000120362 1.16193 4.00667e-05 -0.454485 -1.56719e-05
3.58513 0.000123625 1.66134 5.72875e-05 -0.0545736 -1.88185e-06
3.68532 0.00012708 2.14715 7.40396e-05 0.35784 1.23393e-05
3.8092 0.000131352 2.63855 9.09844e-05 0.736997 2.54137e-05
3.97747 0.000137154 3.12653 0.000107811 1.08852 3.75353e-05
4.20587 0.00014503 3.6031 0.000124245 1.43179 4.93722e-05
4.50447 0.000155327 4.07704 0.000140588 1.76275 6.07846e-05
4.88044 0.000168291 4.55897 0.000157206 2.05661 7.09174e-05
5.33833 0.000184081 5.04779 0.000174062 2.3037 7.94378e-05
5.87958 0.000202745 5.54075 0.00019106 2.51324 8.66634e-05
6.50314 0.000224247 6.03999 0.000208275 2.69002 9.27592e-05
7.20451 0.000248432 6.54677 0.000225751 2.82558 9.7434e-05
7.97647 0.000275051 7.05753 0.000243363 2.91291 0.000100445
8.81096 0.000303827 7.56672 0.000260921 2.95641 0.000101945
9.69985 0.000334478 8.0684 0.000278221 2.96118 0.00010211
10.6347 0.000366715 8.5529 0.000294928 2.9223 0.000100769
11.6051 0.000400176 9.01117 0.00031073 2.84319 9.8041e-05
12.5984 0.000434429 9.43559 0.000325365 2.7283 9.40794e-05
13.6 0.000468968 9.81979 0.000338614 2.58473 8.91287e-05
14.5953 0.000503287 10.1564 0.000350222 2.41946 8.34297e-05
15.5703 0.000536906 10.439 0.000359967 2.23934 7.72188e-05
16.5109 0.000569342 10.6637 0.000367712 2.05029 7.06998e-05
17.4023 0.000600079 10.8284 0.000373392 1.85862 6.40905e-05
18.2291 0.00062859 10.9326 0.000376985 1.67019 5.75927e-05
18.9775 0.000654397 10.9775 0.000378536 1.49018 5.13855e-05
19.6364 0.000677118 10.9667 0.00037816 1.32256 4.56055e-05
20.1991 0.000696523 10.9044 0.000376015 1.17066 4.03677e-05
20.665 0.000712588 10.7959 0.000372273 1.03714 3.57633e-05
21.04 0.000725516 10.6469 0.000367135 0.923885 3.18581e-05
21.3348 0.000735682 10.4643 0.000360838 0.831748 2.8681e-05
21.5631 0.000743557 10.2559 0.000353651 0.760701 2.62311e-05
21.7402 0.000749661 10.0304 0.000345875 0.710002 2.44828e-05
21.8807 0.000754508 9.79779 0.000337855 0.678302 2.33897e-05
21.9985 0.000758568 9.56903 0.000329966 0.663594 2.28825e-05
22.1057 0.000762265 9.35548 0.000322603 0.6634 2.28759e-05
22.214 0.000766002 9.16836 0.00031615 0.675033 2.3277e-05
22.3345 0.000770155 9.0184 0.000310979 0.695834 2.39943e-05
22.4766 0.000775055 8.91533 0.000307425 0.723267 2.49403e-05
22.6478 0.00078096 8.86749 0.000305775 0.755065 2.60367e-05
22.853 0.000788036 8.88151 0.000306259 0.789396 2.72206e-05
23.0942 0.000796351 8.96205 0.000309036 0.825022 2.8449e-05
23.3705 0.00080588 9.11144 0.000314188 0.861358 2.9702e-05
23.6787 0.000816508 9.32959 0.00032171 0.898492 3.09825e-05
24.0094 0.000827911 9.61463 0.000331539 0.937166 3.23161e-05
24.3139 0.000838411 9.96925 0.000343767 0.978207 3.37313e-05
24.5791 0.000847555 10.3813 0.000357977 1.02401 3.53106e-05
24.7987 0.000855129 10.8399 0.00037379 1.07746 3.71537e-05
24.9677 0.000860955 11.3314 0.000390736 1.14169 3.93687e-05
25.0745 0.000864638 11.8381 0.00040821 1.21987 4.20646e-05
25.1103 0.000865871 12.3411 0.000425555 1.31527 4.53542e-05
25.0625 0.000864226 12.8244 0.00044222 1.43059 4.93306e-05
24.9168 0.000859199 13.2727 0.000457678 1.56766 5.40573e-05
24.6595 0.000850326 13.6713 0.000471425 1.72728 5.95612e-05
24.2738 0.000837029 14.008 0.000483036 1.90932 6.58386e-05
23.7425 0.000818708 14.2734 0.000492187 2.11256 7.28468e-05
23.0508 0.000794857 14.4599 0.000498616 2.33446 8.04986e-05
22.1868 0.000765064 14.5614 0.000502117 2.5713 8.86654e-05
21.1422 0.000729041 14.5739 0.000502547 2.81833 9.71839e-05
19.9144 0.000686705 14.4945 0.00049981 3.06038 0.00010553
18.5116 0.000638332 14.3067 0.000493335 3.25092 0.000112101
16.9425 0.000584223 14.0163 0.000483322 3.45559 0.000119158
15.2269 0.000525064 13.6339 0.000470136 3.64407 0.000125658
13.3878 0.00046165 13.1636 0.000453916 3.80013 0.000131039
11.4503 0.000394837 12.5989 0.000434445 3.93006 0.000135519
9.43789 0.000325445 11.9425 0.000411811 4.03995 0.000139309
7.37095 0.000254171 11.2028 0.000386303 4.11719 0.000141972
5.26667 0.00018161 10.387 0.000358171 4.14646 0.000142981
3.14256 0.000108364 9.49856 0.000327537 4.12011 0.000142073
1.43137 4.93579e-05 8.46663 0.000291953 4.03855 0.00013926
-0.188792 -6.5097e-06 7.41801 0.000255793 3.88935 0.000134116
-1.81276 -6.25087e-05 6.33463 0.000218436 3.6658 0.000126407
-3.62003 -0.000124828 5.19219 0.000179041 3.36618 0.000116075
-5.20887 -0.000179616 4.0443 0.000139459 2.98754 0.000103019
-6.71573 -0.000231577 2.88678 9.95441e-05 2.53861 8.75384e-05
-8.13569 -0.00028054 1.7124 5.90482e-05 2.02078 6.9682e-05
-9.39757 -0.000324054 0.52577 1.813e-05 1.43652 4.95352e-05
-10.5442 -0.000363594 -0.81785 -2.82017e-05 0.794039 2.73806e-05
-11.59 -0.000399656 -2.3984 -8.27034e-05 0.102241 3.52556e-06
-12.5171 -0.000431624 -3.97094 -0.000136929 -0.627942 -2.16532e-05
-13.3644 -0.000460841 -5.48845 -0.000189257 -1.76799 -6.09653e-05
-14.1627 -0.000488369 -6.91553 -0.000238466 -3.13148 -0.000107982
-14.9109 -0.00051417 -8.33 -0.000287241 -4.53027 -0.000156216
-15.6523 -0.000539734 -9.74054 -0.000335881 -5.85953 -0.000202053
-16.4108 -0.000565889 -11.1319 -0.000383858 -7.12638 -0.000245737
-17.2136 -0.000593573 -12.4859 -0.000430548 -8.38226 -0.000289043
-18.0867 -0.000623679 -13.8162 -0.000476421 -9.60994 -0.000331377
-19.0498 -0.00065689 -15.1371 -0.00052197 -10.7407 -0.000370368
-20.1186 -0.000693745 -16.4439 -0.000567031 -11.7475 -0.000405087
-21.3068 -0.000734717 -17.7313 -0.000611426 -12.6502 -0.000436214
-22.6244 -0.00078015 -19.0019 -0.000655239 -13.4561 -0.000464003
-24.0897 -0.00083068 -20.195 -0.000696381 -13.5147 -0.000466024
-25.7029 -0.000886306 -21.2568 -0.000732993 -13.5922 -0.000468697
-27.4215 -0.000945569 -22.3679 -0.000771307 -13.6849 -0.000471892
-29.2615 -0.00100902 -23.512 -0.000810757 -13.6849 -0.000471893
-31.1828 -0.00107527 -24.6757 -0.000850888 -13.6334 -0.000470117
-33.1847 -0.0011443 -25.7907 -0.000889333 -13.6367 -0.000470232
-35.243 -0.00121528 -26.872 -0.00092662 -13.6259 -0.000469859
-37.3372 -0.00128749 -27.9091 -0.000962383 -13.4657 -0.000464334
-39.4445 -0.00136016 -28.8807 -0.000995885 -13.1713 -0.000454184
-41.5377 -0.00143233 -29.7696 -0.00102654 -12.8071 -0.000441626
-43.1412 -0.00148763 -30.68 -0.00105793 -12.3973 -0.000427491
-43.7175 -0.0015075 -31.3592 -0.00108135 -11.9529 -0.000412167
-44.3838 -0.00153047 -31.7735 -0.00109564 -11.4921 -0.000396279
-44.8038 -0.00154496 -31.9483 -0.00110167 -11.0606 -0.000381401
-44.6362 -0.00153918 -32.2697 -0.00111275 -10.5974 -0.000365426
-45.0108 -0.0015521 -32.4483 -0.00111891 -10.1148 -0.000348785
-45.6242 -0.00157325 -32.3768 -0.00111644 -9.69846 -0.00033443
-45.8085 -0.0015796 -32.419 -0.0011179 -9.29452 -0.000320501
-45.9789 -0.00158548 -32.4004 -0.00111726 -8.91096 -0.000307275
-46.2597 -0.00159516 -32.2575 -0.00111233 -8.56088 -0.000295203
-46.367 -0.00159886 -32.0821 -0.00110628 -8.26456 -0.000284985
-46.3613 -0.00159867 -31.8865 -0.00109954 -8.03 -0.000276896
-46.3695 -0.00159895 -31.6643 -0.00109187 -7.8366 -0.000270228
-46.2993 -0.00159653 -31.3737 -0.00108185 -7.6937 -0.0002653
-46.068 -0.00158855 -31.0458 -0.00107054 -7.61058 -0.000262434
-45.8031 -0.00157942 -30.6963 -0.00105849 -7.58721 -0.000261628
-45.4398 -0.00156689 -30.3258 -0.00104572 -7.61057 -0.000262433
-45.0073 -0.00155198 -29.9425 -0.0010325 -7.67149 -0.000264534
-44.5646 -0.00153671 -29.5711 -0.00101969 -7.76622 -0.000267801
-44.1149 -0.0015212 -29.2276 -0.00100785 -7.88993 -0.000272066
-43.6806 -0.00150623 -28.9187 -0.000997198 -8.0316 -0.000276952
-43.3001 -0.00149311 -28.6565 -0.000988157 -8.17996 -0.000282068
-42.9859 -0.00148227 -28.457 -0.000981276 -8.3283 -0.000287183
-42.7564 -0.00147436 -28.3296 -0.000976882 -8.47156 -0.000292123
-42.6306 -0.00147002 -28.279 -0.000975138 -8.60355 -0.000296674
-42.617 -0.00146955 -28.3112 -0.000976247 -8.71853 -0.000300639
-42.7212 -0.00147314 -28.4311 -0.000980382 -8.81359 -0.000303917
-42.9464 -0.00148091 -28.6388 -0.000987543 -8.88856 -0.000306502
-43.2892 -0.00149273 -28.931 -0.000997619 -8.94453 -0.000308432
-43.7421 -0.00150835 -29.3036 -0.00101047 -8.98344 -0.000309774
-44.2942 -0.00152739 -29.7506 -0.00102588 -9.00886 -0.00031065
-44.9298 -0.00154931 -30.263 -0.00104355 -9.02638 -0.000311254
-45.6067 -0.00157264 -30.8341 -0.00106325 -9.04243 -0.000311808
-45.8993 -0.00158273 -31.4296 -0.00108378 -9.06689 -0.000312652
-46.201 -0.00159314 -32.0212 -0.00110418 -9.11053 -0.000314156
-46.5141 -0.00160394 -32.6532 -0.00112597 -9.17289 -0.000316307
-46.7334 -0.0016115 -33.1896 -0.00114447 -9.25243 -0.000319049
-46.9767 -0.00161989 -33.7356 -0.0011633 -9.26976 -0.000319647
-47.1215 -0.00162488 -34.2417 -0.00118075 -9.39994 -0.000324136
-46.9801 -0.00162 -34.7077 -0.00119682 -9.56474 -0.000329819
-46.7056 -0.00161054 -35.1347 -0.00121154 -9.75818 -0.000336489
-46.2282 -0.00159408 -35.5192 -0.0012248 -10.0375 -0.000346121
-45.502 -0.00156904 -35.8593 -0.00123653 -10.3762 -0.0003578
-44.5999 -0.00153793 -36.0691 -0.00124376 -10.7818 -0.000371786
-43.4499 -0.00149827 -36.1521 -0.00124662 -11.2324 -0.000387324
-42.0979 -0.00145165 -36.2715 -0.00125074 -11.7322 -0.00040456
-40.5687 -0.00139892 -36.1895 -0.00124791 -12.2694 -0.000423082
-38.831 -0.001339 -35.943 -0.00123941 -12.8365 -0.000442639
-36.9059 -0.00127262 -35.6253 -0.00122846 -13.4035 -0.000462188
-34.8349 -0.0012012 -35.1589 -0.00121237 -13.6811 -0.000471764
-32.6439 -0.00112565 -34.4077 -0.00118647 -13.6561 -0.000470899
-30.3354 -0.00104605 -33.4756 -0.00115433 -13.76 -0.000474483
-27.9186 -0.00096271 -32.5111 -0.00112107 -13.7841 -0.000475315
-25.4222 -0.000876628 -31.4981 -0.00108614 -13.7039 -0.000472547
-22.8693 -0.000788596 -30.3592 -0.00104687 -13.6416 -0.0004704
-20.2824 -0.000699395 -29.14 -0.00100483 -13.6645 -0.000471189
-17.6938 -0.000610132 -27.8981 -0.000962005 -13.6936 -0.000472193
-15.1297 -0.000521714 -26.6235 -0.000918052 -13.521 -0.000466242
-12.6182 -0.000435111 -25.2784 -0.000871669 -13.1874 -0.000454739
-10.1776 -0.000350952 -23.8785 -0.000823398 -12.7683 -0.000440286
-7.81837 -0.000269599 -22.4504 -0.00077415 -12.2237 -0.000421506
-5.54553 -0.000191226 -20.9986 -0.000724088 -11.4851 -0.000396039
-3.82511 -0.000131901 -19.4355 -0.00067019 -10.5712 -0.000364523
-2.73266 -9.42298e-05 -17.8342 -0.000614971 -9.54361 -0.00032909
-1.92634 -6.64256e-05 -16.2735 -0.000561154 -8.39356 -0.000289433
-1.30076 -4.4854e-05 -14.721 -0.000507622 -7.11826 -0.000245457
-0.724998 -2.50001e-05 -13.1882 -0.000454765 -5.70862 -0.000196849
-0.302632 -1.04358e-05 -11.6881 -0.000403039 -4.21636 -0.000145392
0.0983053 3.38964e-06 -10.2103 -0.000352078 -2.67694 -9.23084e-05
0.477112 1.64519e-05 -8.75989 -0.000302065 -1.09894 -3.78944e-05
0.792342 2.7322e-05 -7.41415 -0.00025566 -0.618519 -2.13282e-05
1.1128 3.83723e-05 -6.23132 -0.000214873 -0.148837 -5.1323e-06
1.4286 4.92619e-05 -5.08112 -0.000175211 0.347915 1.19971e-05
1.73841 5.99451e-05 -3.91852 -0.000135122 0.760956 2.62398e-05
2.06211 7.11071e-05 -2.76913 -9.54871e-05 1.09562 3.77801e-05
2.42669 8.36789e-05 -1.68243 -5.80148e-05 1.44978 4.99922e-05
2.82993 9.75836e-05 -0.632203 -2.18001e-05 1.83036 6.31158e-05
3.28399 0.000113241 0.130522 4.50074e-06 2.16637 7.47025e-05
3.79303 0.000130794 0.883392 3.04618e-05 2.42072 8.34731e-05
4.37697 0.00015093 1.59593 5.50321e-05 2.64223 9.11115e-05
5.02845 0.000173395 2.29499 7.91375e-05 2.85177 9.83369e-05
5.76259 0.00019871 2.97599 0.00010262 3.0306 0.000104503
6.56932 0.000226528 3.64402 0.000125656 3.1482 0.000108559
7.44815 0.000256833 4.28858 0.000147882 3.21403 0.000110829
8.39411 0.000289452 4.91015 0.000169316 3.25049 0.000112086
9.39803 0.00032407 5.50393 0.000189791 3.24471 0.000111886
10.4505 0.000360361 6.05855 0.000208916 3.1711 0.000109348
11.5398 0.000397925 6.56884 0.000226512 3.03694 0.000104722
12.6525 0.000436292 7.033 0.000242517 2.85861 9.85727e-05
13.773 0.000474932 7.4498 0.00025689 2.64001 9.10347e-05
14.8865 0.000513327 7.81473 0.000269474 2.38541 8.22554e-05
15.9764 0.000550911 8.12499 0.000280172 2.10273 7.25078e-05
17.0266 0.000587123 8.38002 0.000288966 1.80559 6.22616e-05
18.0214 0.000621429 8.57931 0.000295838 1.50298 5.18269e-05
18.9466 0.000653331 8.72251 0.000300776 1.20138 4.1427e-05
19.628 0.000676826 8.79745 0.00030336 0.965158 3.32813e-05
20.2512 0.000698319 8.83848 0.000304775 0.738406 2.54623e-05
20.8124 0.000717668 8.84694 0.000305067 0.525465 1.81195e-05
21.3085 0.000734777 8.8243 0.000304286 0.329449 1.13603e-05
21.7383 0.000749598 8.77248 0.000302499 0.152358 5.25373e-06
22.1016 0.000762123 8.69297 0.000299758 -0.0041622 -1.43524e-07
22.399 0.000772381 8.58945 0.000296188 -0.138673 -4.78184e-06
22.6338 0.000780475 8.4644 0.000291876 -0.249237 -8.59437e-06
22.8095 0.000786535 8.32155 0.00028695 -0.334931 -1.15493e-05
22.9312 0.000790731 8.16493 0.000281549 -0.39583 -1.36493e-05
23.0051 0.00079328 7.99897 0.000275826 -0.432501 -1.49138e-05
23.0384 0.000794427 7.82873 0.000269956 -0.445761 -1.53711e-05
23.0386 0.000794435 7.65927 0.000264113 -0.436515 -1.50522e-05
23.0146 0.000793607 7.49518 0.000258455 -0.405972 -1.3999e-05
22.9751 0.000792245 7.34221 0.00025318 -0.355927 -1.22734e-05
22.9299 0.000790687 7.20654 0.000248501 -0.288838 -9.95992e-06
22.8893 0.000789286 7.0933 0.000244597 -0.206949 -7.13616e-06
22.863 0.000788378 7.00804 0.000241657 -0.112635 -3.88395e-06
22.8606 0.000788296 6.95614 0.000239867 -0.00819821 -2.82697e-07
22.8916 0.000789365 6.94279 0.000239406 0.103926 3.58366e-06
22.9648 0.000791889 6.97259 0.000240434 0.221293 7.63079e-06
23.0838 0.000795992 7.0481 0.000243038 0.341809 1.17865e-05
23.2633 0.000802183 7.16923 0.000247215 0.464396 1.60137e-05
23.4978 0.000810269 7.34959 0.000253434 0.585201 2.01793e-05
23.8027 0.000820783 7.58188 0.000261444 0.704163 2.42815e-05
24.1494 0.000832738 7.88882 0.000272028 0.819664 2.82643e-05
24.4609 0.000843478 8.26973 0.000285163 0.928351 3.20121e-05
24.877 0.000857827 8.68789 0.000299582 1.0348 3.56828e-05
25.3741 0.000874969 9.16526 0.000316043 1.13859 3.92616e-05
25.9242 0.00089394 9.68232 0.000333873 1.23395 4.255e-05
26.5193 0.000914459 10.2471 0.000353348 1.32738 4.57719e-05
27.1738 0.000937029 10.8494 0.000374118 1.42253 4.90529e-05
27.8719 0.0009611 11.4917 0.000396264 1.51503 5.22425e-05
28.6058 0.000986407 12.1658 0.000419511 1.61013 5.55217e-05
29.3611 0.00101245 12.8726 0.000443883 1.70854 5.8915e-05
30.1337 0.00103909 13.6045 0.000469121 1.81254 6.25013e-05
30.9144 0.00106601 14.353 0.000494931 1.92436 6.63572e-05
31.6896 0.00109274 15.1134 0.000521152 2.04525 7.05259e-05
32.4493 0.00111894 15.8805 0.000547602 2.17716 7.50746e-05
33.1831 0.00114424 16.6488 0.000574095 2.32163 8.00562e-05
33.1951 0.00114466 17.349 0.000598243 2.48392 8.56525e-05
33.4762 0.00115435 18.0149 0.000621203 2.66449 9.18788e-05
33.6835 0.0011615 18.6814 0.000644187 2.86154 9.86737e-05
33.7226 0.00116285 19.3134 0.00066598 3.08278 0.000106303
33.7641 0.00116428 19.9956 0.000689502 3.29788 0.00011372
33.9145 0.00116947 20.6069 0.000710582 3.45595 0.000119171
34.0429 0.00117389 21.1411 0.000729003 3.61055 0.000124502
34.0798 0.00117517 21.6436 0.000746332 3.78766 0.000130609
34.102 0.00117593 22.1091 0.000762382 3.97121 0.000136938
34.1496 0.00117757 22.5483 0.000777528 4.12966 0.000142402
34.184 0.00117876 22.932 0.000790758 4.27315 0.00014735
34.1728 0.00117837 23.2569 0.000801961 4.42771 0.00015268
34.1399 0.00117724 23.5333 0.000811493 4.6038 0.000158752
34.0861 0.00117538 23.7644 0.000819461 4.78898 0.000165137
33.9675 0.00117129 23.9427 0.00082561 4.96444 0.000171188
33.777 0.00116472 24.0698 0.000829994 5.08701 0.000175414
33.5295 0.00115619 24.1109 0.00083141 5.01773 0.000173025
33.2275 0.00114578 24.0551 0.000829485 5.02698 0.000173344
32.8579 0.00113303 23.9789 0.000826859 5.05397 0.000174275
32.438 0.00111855 23.8786 0.000823399 5.06013 0.000174487
31.9684 0.00110236 23.7673 0.000819563 5.02346 0.000173223
31.4534 0.0010846 23.6335 0.000814949 4.97383 0.000171511
30.901 0.00106555 23.4686 0.000809261 4.94905 0.000170657
30.3133 0.00104529 23.2855 0.00080295 4.95445 0.000170843
29.6923 0.00102387 23.0943 0.000796355 4.9672 0.000171283
29.039 0.00100135 22.9004 0.000789667 4.96358 0.000171158
28.3553 0.000977768 22.7023 0.000782836 4.94344 0.000170464
27.6425 0.000953188 22.4966 0.000775745 4.92522 0.000169835
26.902 0.000927654 22.2794 0.000768254 4.89305 0.000168726
26.1363 0.000901253 22.0384 0.000759944 4.84009 0.0001669
25.345 0.000873964 21.7717 0.000750748 4.75679 0.000164027
24.528 0.000845792 21.4771 0.000740589 4.63582 0.000159856
23.6843 0.000816701 21.1538 0.000729443 4.47577 0.000154337
22.8124 0.000786635 20.798 0.000717171 4.28397 0.000147723
21.9114 0.000755567 20.4026 0.000703538 4.06849 0.000140293
20.9818 0.000723511 19.962 0.000688346 3.8319 0.000132135
20.0249 0.000690514 19.4728 0.000671474 3.57261 0.000123193
19.0422 0.000656626 18.9322 0.000652833 3.29016 0.000113454
18.0352 0.000621905 18.3369 0.000632305 2.98824 0.000103043
17.0061 0.000586418 17.6831 0.000609761 2.67271 9.21625e-05
15.9568 0.000550235 16.9686 0.000585126 2.34778 8.09579e-05
14.8889 0.00051341 16.1939 0.00055841 2.01469 6.9472e-05
13.8027 0.000475956 15.3608 0.000529683 1.67353 5.7708e-05
12.6977 0.000437851 14.4723 0.000499045 1.32557 4.57093e-05
11.5731 0.000399072 13.5319 0.000466618 0.973512 3.35694e-05
10.4289 0.000359617 12.5447 0.000432575 0.619964 2.13781e-05
9.26655 0.000319536 11.5169 0.000397135 0.266076 9.17504e-06
8.08906 0.000278933 10.456 0.000360552 -0.0882393 -3.04273e-06
6.90081 0.000237959 9.36967 0.000323092 -0.443093 -1.52791e-05
5.70701 0.000196793 8.26602 0.000285035 -0.797865 -2.75126e-05
4.51319 0.000155627 7.1535 0.000246673 -1.15281 -3.9752e-05
3.31818 0.00011442 6.06419 0.00020911 -1.37182 -4.7304e-05
2.12471 7.3266e-05 5.04509 0.000173969 -1.77716 -6.12812e-05
0.954607 3.29175e-05 4.03437 0.000139116 -2.20166 -7.59194e-05
-0.200841 -6.92555e-06 3.04515 0.000105005 -2.60658 -8.98821e-05
-1.19125 -4.10775e-05 2.06996 7.13778e-05 -2.95181 -0.000101787
-1.91361 -6.59867e-05 1.1889 4.09964e-05 -3.27901 -0.000113069
-2.76367 -9.52989e-05 0.393108 1.35554e-05 -3.6464 -0.000125738
-3.62875 -0.000125129 -0.372661 -1.28504e-05 -4.04624 -0.000139526
-4.38422 -0.00015118 -1.25484 -4.32703e-05 -4.44427 -0.000153251
-4.96354 -0.000171156 -2.22186 -7.66158e-05 -4.81588 -0.000166065
-5.46834 -0.000188563 -3.18823 -0.000109939 -5.14322 -0.000177353
-6.03949 -0.000208258 -3.99414 -0.000137729 -5.47818 -0.000188903
-6.46355 -0.000222881 -4.7599 -0.000164134 -5.83303 -0.000201139
-6.80806 -0.000234761 -5.47656 -0.000188847 -6.18247 -0.000213188
-7.1353 -0.000246045 -6.10749 -0.000210603 -6.51671 -0.000224714
-7.41378 -0.000255648 -6.66466 -0.000229816 -6.81626 -0.000235043
-7.61796 -0.000262688 -7.1364 -0.000246083 -7.09932 -0.000244804
-7.76382 -0.000267718 -7.54109 -0.000260037 -7.37449 -0.000254293
-7.87736 -0.000271633 -7.88041 -0.000271738 -7.63909 -0.000263417
-7.95529 -0.00027432 -8.14681 -0.000280924 -7.88207 -0.000271796
-7.98976 -0.000275509 -8.3422 -0.000287662 -8.09327 -0.000279078
-7.99509 -0.000275693 -8.47155 -0.000292122 -8.27308 -0.000285279
-7.9847 -0.000275335 -8.5413 -0.000294527 -8.42651 -0.000290569
-7.96094 -0.000274515 -8.55293 -0.000294929 -8.55518 -0.000295006
-7.92584 -0.000273305 -8.50853 -0.000293398 -8.65438 -0.000298427
-7.89015 -0.000272074 -8.4116 -0.000290055 -8.71801 -0.000300621
-7.86274 -0.000271129 -8.26917 -0.000285144 -8.74332 -0.000301494
-7.8483 -0.000270631 -8.08661 -0.000278849 -8.71227 -0.000300423
-7.85315 -0.000270798 -7.86014 -0.000271039 -8.60451 -0.000296707
-7.88446 -0.000271878 -7.59103 -0.00026176 -8.42615 -0.000290557
-7.94773 -0.00027406 -7.28446 -0.000251188 -8.17795 -0.000281998
-8.04352 -0.000277363 -6.94509 -0.000239486 -7.85476 -0.000270854
-8.17746 -0.000281982 -6.58146 -0.000226947 -7.45449 -0.000257051
-8.34908 -0.000287899 -6.2031 -0.0002139 -6.97995 -0.000240688
-8.56592 -0.000295376 -5.80375 -0.000200129 -6.44315 -0.000222178
-8.82337 -0.000304254 -5.39342 -0.00018598 -5.85032 -0.000201735
-9.12247 -0.000314568 -4.97727 -0.00017163 -5.20588 -0.000179513
-9.46246 -0.000326292 -4.56197 -0.000157309 -4.51308 -0.000155624
-9.84157 -0.000339364 -4.15102 -0.000143139 -3.77854 -0.000130294
-10.2566 -0.000353675 -3.74719 -0.000129213 -3.01282 -0.00010389
-10.7038 -0.000369097 -3.35508 -0.000115692 -2.22678 -7.67855e-05
-11.1796 -0.000385503 -2.97957 -0.000102744 -1.42967 -4.9299e-05
-11.6787 -0.000402713 -2.62867 -9.06438e-05 -1.05301 -3.63107e-05
-12.1856 -0.000420193 -2.37668 -8.19545e-05 -0.840707 -2.89899e-05
-12.7092 -0.000438247 -2.1558 -7.43381e-05 -0.600528 -2.07079e-05
-13.2459 -0.000456755 -1.96293 -6.76872e-05 -0.351641 -1.21256e-05
-13.7856 -0.000475366 -1.78189 -6.14444e-05 -0.143525 -4.94913e-06
-14.3329 -0.000494239 -1.61397 -5.5654e-05 0.0235305 8.11396e-07
-14.8751 -0.000512936 -1.48836 -5.13229e-05 0.180013 6.20734e-06
-15.4113 -0.000531423 -1.40568 -4.84716e-05 0.346679 1.19545e-05
-15.9366 -0.000549538 -1.35762 -4.68146e-05 0.514811 1.77521e-05
-16.448 -0.000567171 -1.33708 -4.61062e-05 0.659732 2.27494e-05
-16.9425 -0.000584224 -1.34631 -4.64244e-05 0.767695 2.64722e-05
-17.4168 -0.000600579 -1.39326 -4.80433e-05 0.846465 2.91884e-05
-17.8685 -0.000616156 -1.48064 -5.10566e-05 0.910766 3.14057e-05
-18.2959 -0.000630892 -1.60697 -5.54126e-05 0.964696 3.32654e-05
-18.6979 -0.000644755 -1.77048 -6.10511e-05 0.999026 3.44492e-05
-19.0745 -0.00065774 -1.97185 -6.79947e-05 0.999099 3.44517e-05
-19.4251 -0.000669831 -2.21785 -7.64775e-05 0.94964 3.27462e-05
-19.7498 -0.000681026 -2.51445 -8.67053e-05 0.861634 2.97115e-05
-20.0505 -0.000691398 -2.86167 -9.86784e-05 0.744211 2.56625e-05
-20.3291 -0.000701005 -3.25889 -0.000112375 0.594975 2.05164e-05
-20.5883 -0.000709942 -3.70415 -0.000127729 0.405867 1.39954e-05
-20.8312 -0.000718317 -4.19764 -0.000144746 0.174791 6.02726e-06
-21.0611 -0.000726244 -4.74045 -0.000163464 -0.0917006 -3.16209e-06
-21.2818 -0.000733856 -5.3327 -0.000183886 -0.384866 -1.32712e-05
-21.4975 -0.000741293 -5.96795 -0.000205791 -0.700561 -2.41573e-05
-21.7073 -0.000748529 -6.64499 -0.000229138 -1.03626 -3.57331e-05
-21.9221 -0.000755934 -7.35635 -0.000253667 -1.28109 -4.41754e-05
-22.1593 -0.000764113 -8.04121 -0.000277283 -1.77665 -6.12639e-05
-22.4012 -0.000772457 -8.75033 -0.000301735 -2.33449 -8.04996e-05
-22.6525 -0.000781119 -9.51217 -0.000328006 -2.90261 -0.00010009
-22.9272 -0.000790594 -10.3191 -0.00035583 -3.43601 -0.000118483
-23.2146 -0.000800505 -11.1746 -0.000385329 -3.94507 -0.000136037
-23.5218 -0.000811098 -12.0493 -0.000415492 -4.47414 -0.000154281
-23.8505 -0.000822433 -12.942 -0.000446276 -5.03888 -0.000173755
-24.2003 -0.000834492 -13.8609 -0.000477963 -5.61553 -0.000193639
-24.5705 -0.00084726 -14.8068 -0.00051058 -6.17141 -0.000212807
-24.959 -0.000860656 -15.7738 -0.000543926 -6.69574 -0.000230887
-25.3659 -0.000874685 -16.7502 -0.000577595 -7.20369 -0.000248403
-25.7891 -0.000889281 -17.7292 -0.000611353 -7.71163 -0.000265918
-26.2255 -0.000904328 -18.7081 -0.000645108 -8.21754 -0.000283364
-26.6711 -0.000919694 -19.6848 -0.000678785 -8.70526 -0.000300182
-27.1064 -0.000934704 -20.658 -0.000712343 -9.16173 -0.000315922
-27.5259 -0.000949168 -21.6191 -0.000745487 -9.58771 -0.000330611
-27.9325 -0.000963189 -22.5564 -0.000777807 -9.99321 -0.000344594
-28.3202 -0.000976558 -23.4651 -0.000809141 -10.3826 -0.000358022
-28.6803 -0.000988974 -24.3381 -0.000839243 -10.7515 -0.000370741
-29.0068 -0.00100023 -25.1679 -0.000867857 -11.092 -0.000382483
-29.2954 -0.00101019 -25.9463 -0.000894699 -11.4013 -0.000393147
-29.5398 -0.00101861 -26.6652 -0.00091949 -11.683 -0.000402861
-29.7331 -0.00102528 -27.3173 -0.000941977 -11.9416 -0.000411779
-29.87 -0.00103 -27.8955 -0.000961913 -12.1775 -0.000419915
-29.9356 -0.00103226 -28.3928 -0.000979061 -12.3877 -0.000427161
-29.9029 -0.00103113 -28.7979 -0.000993032 -12.5695 -0.000433432
-29.7727 -0.00102664 -29.1045 -0.0010036 -12.7239 -0.000438755
-29.5366 -0.0010185 -29.3092 -0.00101066 -12.8524 -0.000443186
-29.1908 -0.00100658 -29.4058 -0.00101399 -12.9565 -0.000446775
-28.7445 -0.000991191 -29.3876 -0.00101337 -13.0345 -0.000449466
-28.2061 -0.000972623 -29.2537 -0.00100875 -13.0834 -0.000451151
-27.5814 -0.000951083 -29.0021 -0.00100007 -13.102 -0.000451792
-26.877 -0.000926793 -28.6339 -0.000987377 -13.0796 -0.000451019
-26.1028 -0.000900098 -28.1468 -0.000970579 -13.0045 -0.000448432
-25.2662 -0.000871247 -27.5433 -0.000949769 -12.8777 -0.00044406
-24.3723 -0.000840425 -26.8301 -0.000925176 -12.6969 -0.000437825
-23.4285 -0.000807878 -26.0157 -0.000897092 -12.4563 -0.000429528
-22.4433 -0.000773909 -25.1088 -0.00086582 -12.151 -0.000419001
-21.4262 -0.000738835 -24.1176 -0.00083164 -11.7797 -0.000406196
-20.3863 -0.000702977 -23.0511 -0.000794865 -11.3429 -0.000391135
-19.3333 -0.000666665 -21.9198 -0.000755856 -10.8406 -0.000373814
-18.2762 -0.000630214 -20.735 -0.000715 -10.2712 -0.00035418
-17.2236 -0.000593916 -19.5075 -0.000672672 -9.63338 -0.000332186
-16.1834 -0.000558047 -18.2477 -0.000629231 -8.92764 -0.00030785
-15.1634 -0.000522876 -16.9657 -0.000585023 -8.15679 -0.000281269
-14.171 -0.000488657 -15.6712 -0.000540386 -7.32471 -0.000252576
-13.2127 -0.00045561 -14.3736 -0.000495641 -6.4353 -0.000221907
-12.2931 -0.000423901 -13.0815 -0.000451086 -5.49276 -0.000189406
-11.4152 -0.000393626 -11.8027 -0.000406991 -4.50249 -0.000155258
-10.5794 -0.000364806 -10.5445 -0.000363602 -3.47148 -0.000119706
-9.78451 -0.000337397 -9.31294 -0.000321136 -2.40802 -8.30351e-05
-9.0276 -0.000311297 -8.11372 -0.000279783 -1.32094 -4.55497e-05
-8.29935 -0.000286184 -6.96446 -0.000240154 -0.897117 -3.09351e-05
-7.57489 -0.000261203 -5.98782 -0.000206477 -0.664496 -2.29136e-05
-6.87853 -0.000237191 -5.05818 -0.00017442 -0.374883 -1.2927e-05
-6.18827 -0.000213389 -4.1775 -0.000144052 -0.0665807 -2.29589e-06
-5.49724 -0.00018956 -3.30223 -0.00011387 0.179844 6.20151e-06
-4.79876 -0.000165474 -2.44604 -8.43461e-05 0.370621 1.278e-05
-4.07588 -0.000140548 -1.64882 -5.6856e-05 0.561136 1.93495e-05
-3.32402 -0.000114621 -0.904286 -3.11823e-05 0.785371 2.70818e-05
-2.66083 -9.17527e-05 -0.333283 -1.14925e-05 1.02805 3.54501e-05
-2.15876 -7.44398e-05 0.195216 6.73158e-06 1.24685 4.29949e-05
-1.85106 -6.38297e-05 0.740623 2.55387e-05 1.41836 4.89089e-05
-1.57861 -5.44349e-05 1.23378 4.25442e-05 1.56267 5.38851e-05
-1.25388 -4.32374e-05 1.7045 5.87757e-05 1.7055 5.88104e-05
-0.900008 -3.10348e-05 2.16637 7.47023e-05 1.85206 6.38641e-05
-0.558331 -1.92528e-05 2.60822 8.99386e-05 1.98955 6.86052e-05
-0.195877 -6.7544e-06 3.03007 0.000104485 2.09496 7.22398e-05
0.210726 7.26641e-06 3.42652 0.000118156 2.16861 7.47798e-05
0.636879 2.19613e-05 3.80292 0.000131135 2.22415 7.66947e-05
1.06853 3.68457e-05 4.15951 0.000143431 2.2721 7.83481e-05
1.51754 5.23288e-05 4.49082 0.000154856 2.30976 7.96469e-05
1.98614 6.84875e-05 4.79366 0.000165299 2.32724 8.02497e-05
2.46218 8.49027e-05 5.06573 0.00017468 2.30066 7.93332e-05
2.93978 0.000101372 5.30221 0.000182835 2.23691 7.71349e-05
3.4195 0.000117914 5.50081 0.000189683 2.1484 7.40828e-05
3.89829 0.000134424 5.65788 0.000195099 2.0389 7.03069e-05
4.36781 0.000150614 5.77343 0.000199084 1.90245 6.56018e-05
4.82255 0.000166295 5.84797 0.000201654 1.7351 5.9831e-05
5.26018 0.000181386 5.88036 0.000202771 1.54139 5.31513e-05
5.67655 0.000195743 5.86866 0.000202367 1.3307 4.58862e-05
6.06648 0.000209189 5.81155 0.000200398 1.10977 3.8268e-05
6.42624 0.000221594 5.70881 0.000196856 0.879625 3.03319e-05
6.75291 0.000232859 5.56198 0.000191792 0.638933 2.20322e-05
7.04416 0.000242902 5.37217 0.000185247 0.389453 1.34294e-05
7.29806 0.000251657 5.14048 0.000177258 0.136452 4.70523e-06
7.51347 0.000259085 4.86882 0.00016789 -0.114871 -3.96108e-06
7.69052 0.00026519 4.56001 0.000157242 -0.361754 -1.24743e-05
7.82948 0.000269982 4.21823 0.000145456 -0.60379 -2.08203e-05
7.93134 0.000273494 3.84799 0.000132689 -0.84047 -2.89817e-05
7.99821 0.0002758 3.4539 0.0001191 -1.06976 -3.68882e-05
8.03137 0.000276944 3.05141 0.000105221 -1.18617 -4.09025e-05
8.03126 0.00027694 2.66298 9.18271e-05 -1.44496 -4.98262e-05
8.01201 0.000276276 2.26101 7.79659e-05 -1.73512 -5.98319e-05
7.97475 0.000274992 1.85194 6.38599e-05 -1.99938 -6.89441e-05
7.92549 0.000273293 1.4368 4.95448e-05 -2.21883 -7.65115e-05
7.87238 0.000271462 1.03032 3.55282e-05 -2.41447 -8.32575e-05
7.82122 0.000269697 0.644717 2.22316e-05 -2.61057 -9.00198e-05
7.77904 0.000268243 0.282248 9.73269e-06 -2.80991 -9.68936e-05
7.75243 0.000267325 -0.0551648 -1.90224e-06 -2.99704 -0.000103346
7.74847 0.000267189 -0.363137 -1.2522e-05 -3.1578 -0.00010889
7.77274 0.000268026 -0.633673 -2.18508e-05 -3.29431 -0.000113597
7.82755 0.000269915 -0.861073 -2.96922e-05 -3.41909 -0.0001179
7.92161 0.000273159 -1.0587 -3.6507e-05 -3.53989 -0.000122065
8.05201 0.000277655 -1.23507 -4.25886e-05 -3.65334 -0.000125977
8.22835 0.000283736 -1.3376 -4.61241e-05 -3.7508 -0.000129338
8.44982 0.000291373 -1.36232 -4.69767e-05 -3.82723 -0.000131973
8.71669 0.000300576 -1.30579 -4.50274e-05 -3.88679 -0.000134027
9.02902 0.000311346 -1.16703 -4.02423e-05 -3.934 -0.000135655
9.38536 0.000323633 -0.988385 -3.40822e-05 -3.96943 -0.000136877
9.78248 0.000337327 -0.768752 -2.65087e-05 -3.98823 -0.000137525
10.2159 0.000352273 -0.49208 -1.69683e-05 -3.98321 -0.000137352
10.6824 0.000368359 -0.15814 -5.4531e-06 -3.94185 -0.000135926
11.1774 0.000385426 0.232768 8.0265e-06 -3.86588 -0.000133306
11.6952 0.000403283 0.677354 2.3357e-05 -3.75539 -0.000129496
12.2305 0.00042174 1.17079 4.0372e-05 -3.60602 -0.000124346
12.778 0.000440622 1.70745 5.88776e-05 -3.41119 -0.000117627
13.3322 0.000459732 2.2825 7.87069e-05 -3.167 -0.000109207
13.8867 0.000478853 2.89126 9.96986e-05 -2.87322 -9.90765e-05
14.4354 0.000497773 3.52836 0.000121668 -2.53066 -8.72641e-05
14.9726 0.000516295 4.18778 0.000144406 -2.1386 -7.3745e-05
15.4909 0.000534167 4.84662 0.000167125 -1.69719 -5.85237e-05
15.9797 0.000551023 5.52985 0.000190684 -1.21239 -4.18065e-05
16.4503 0.000567251 6.20476 0.000213957 -1.01339 -3.49444e-05
16.8886 0.000582364 6.85273 0.000236301 -0.849589 -2.92962e-05
17.2931 0.000596313 7.48145 0.000257981 -0.649964 -2.24126e-05
17.6567 0.000608852 8.10264 0.000279402 -0.427009 -1.47245e-05
17.9806 0.00062002 8.71743 0.000300601 -0.209535 -7.22535e-06
18.2559 0.000629515 9.32549 0.000321569 -0.000749932 -2.58597e-08
18.4868 0.000637474 9.90909 0.000341693 0.216846 7.47743e-06
18.6723 0.000643872 10.465 0.000360864 0.456769 1.57507e-05
18.813 0.000648725 10.9967 0.000379196 0.714816 2.46488e-05
18.9099 0.000652065 11.5066 0.000396781 0.97574 3.36462e-05
18.9649 0.000653962 11.9931 0.000413555 1.22909 4.23826e-05
18.9809 0.000654515 12.4513 0.000429356 1.47727 5.09404e-05
18.9558 0.000653649 12.8792 0.00044411 1.72774 5.95772e-05
18.89 0.000651379 13.276 0.000457793 1.98223 6.83527e-05
18.7909 0.000647963 13.644 0.000470484 2.23376 7.70261e-05
18.6608 0.000643477 13.9829 0.000482168 2.47375 8.53019e-05
18.4996 0.000637916 14.2926 0.000492847 2.69887 9.30646e-05
18.2996 0.000631019 14.5754 0.000502601 2.91068 0.000100368
18.0685 0.000623051 14.8309 0.000511412 3.1108 0.000107269
17.8106 0.000614159 15.0585 0.000519258 3.29731 0.0001137
17.5299 0.00060448 15.2584 0.000526151 3.46531 0.000119493
17.2315 0.00059419 15.43 0.000532068 3.61113 0.000124522
16.9207 0.000583472 15.5719 0.000536962 3.7341 0.000128762
16.603 0.000572518 15.6821 0.000540761 3.83527 0.000132251
16.2841 0.000561521 15.7584 0.000543392 3.91484 0.000134994
15.9686 0.000550641 15.799 0.000544794 3.97127 0.00013694
15.659 0.000539966 15.8017 0.000544887 4.00267 0.000138023
15.3558 0.000529512 15.7651 0.000543623 4.00656 0.000138157
15.0591 0.000519278 15.6844 0.000540841 3.96906 0.000136864
14.7666 0.000509195 15.5546 0.000536367 3.89462 0.000134297
14.4751 0.000499141 15.3746 0.00053016 3.78643 0.000130566
14.1813 0.000489012 15.144 0.000522207 3.64364 0.000125643
13.8821 0.000478694 14.8638 0.000512545 3.46353 0.000119432
13.5748 0.000468097 14.5334 0.00050115 3.24689 0.000111962
13.257 0.000457136 14.1515 0.000487983 2.99823 0.000103387
12.9263 0.000445734 13.7179 0.000473029 2.72262 9.38835e-05
12.5805 0.000433811 13.2333 0.00045632 2.42288 8.35475e-05
12.2173 0.000421287 12.6994 0.000437912 2.09995 7.24119e-05
11.8345 0.000408086 12.1179 0.000417859 1.75529 6.05272e-05
11.43 0.00039414 11.4905 0.000396226 1.39225 4.80087e-05
11.0023 0.00037939 10.8197 0.000373094 1.01522 3.50076e-05
10.5502 0.000363798 10.1087 0.000348575 0.627936 2.1653e-05
10.0729 0.000347343 9.36126 0.000322802 0.232841 8.029e-06
9.57074 0.000330026 8.58167 0.00029592 -0.168105 -5.79673e-06
9.04426 0.000311871 7.77448 0.000268086 -0.572396 -1.97378e-05
8.49466 0.000292919 6.94471 0.000239473 -0.976868 -3.36851e-05
7.92309 0.00027321 6.09796 0.000210275 -1.2832 -4.42481e-05
7.31922 0.000252387 5.29494 0.000182584 -1.62607 -5.60715e-05
6.69709 0.000230934 4.52613 0.000156073 -2.10847 -7.27057e-05
6.06998 0.00020931 3.73886 0.000128926 -2.5912 -8.93516e-05
5.42816 0.000187178 2.94794 0.000101653 -3.01636 -0.000104012
4.788 0.000165104 2.14581 7.39934e-05 -3.37169 -0.000116265
4.15155 0.000143157 1.36909 4.72098e-05 -3.71896 -0.00012824
3.52579 0.000121579 0.624643 2.15394e-05 -4.09879 -0.000141338
2.91725 0.000100595 -0.092183 -3.17873e-06 -4.49947 -0.000155154
2.33283 8.04422e-05 -0.784333 -2.7046e-05 -4.87854 -0.000168226
1.78298 6.14822e-05 -1.62368 -5.5989e-05 -5.21013 -0.00017966
1.2619 4.35136e-05 -2.47084 -8.52015e-05 -5.50933 -0.000189977
0.779342 2.68739e-05 -3.25643 -0.000112291 -5.80896 -0.000200309
0.339886 1.17202e-05 -3.97633 -0.000137115 -6.11121 -0.000210731
-0.0596813 -2.05799e-06 -4.62672 -0.000159542 -6.40493 -0.00022086
-0.415018 -1.4311e-05 -5.21466 -0.000179816 -6.66879 -0.000229958
-0.72428 -2.49752e-05 -5.73529 -0.000197769 -6.90004 -0.000237932
-0.988735 -3.40943e-05 -6.18198 -0.000213172 -7.10937 -0.000245151
-1.21027 -4.17334e-05 -6.55127 -0.000225906 -7.30652 -0.000251949
-1.3904 -4.79449e-05 -6.84402 -0.000236001 -7.48959 -0.000258262
-1.53147 -5.28094e-05 -7.06331 -0.000243562 -7.64814 -0.000263729
-1.63745 -5.64639e-05 -7.21033 -0.000248632 -7.77477 -0.000268095
-1.7123 -5.90449e-05 -7.28544 -0.000251222 -7.87066 -0.000271402
-1.73395 -5.97915e-05 -7.2839 -0.000251169 -7.94119 -0.000273834
-1.74961 -6.03313e-05 -7.21487 -0.000248789 -7.98831 -0.000275459
-1.74259 -6.00894e-05 -7.08235 -0.000244219 -8.00837 -0.000276151
-1.71978 -5.93026e-05 -6.88927 -0.000237561 -7.97267 -0.00027492
-1.69701 -5.85177e-05 -6.63267 -0.000228713 -7.87069 -0.000271403
-1.67555 -5.77775e-05 -6.31586 -0.000217788 -7.70851 -0.000265811
-1.65305 -5.70018e-05 -5.9445 -0.000204983 -7.48983 -0.00025827
-1.63464 -5.63668e-05 -5.5262 -0.000190558 -7.21014 -0.000248626
-1.62609 -5.60722e-05 -5.06744 -0.000174739 -6.86472 -0.000236714
-1.62851 -5.61556e-05 -4.57297 -0.000157689 -6.45476 -0.000222578
-1.64253 -5.6639e-05 -4.04773 -0.000139577 -5.98667 -0.000206437
-1.63418 -5.63509e-05 -3.51255 -0.000121122 -5.46607 -0.000188485
-1.59092 -5.48595e-05 -2.97079 -0.000102441 -4.89434 -0.00016877
-1.56909 -5.41065e-05 -2.40278 -8.28545e-05 -4.27928 -0.000147561
-1.57441 -5.42901e-05 -1.82925 -6.30777e-05 -3.62163 -0.000124884
-1.59973 -5.51633e-05 -1.24933 -4.30804e-05 -2.92997 -0.000101033
-1.6266 -5.60896e-05 -0.79725 -2.74914e-05 -2.21383 -7.63388e-05
-1.66425 -5.73879e-05 -0.358154 -1.23501e-05 -1.48422 -5.11799e-05
-1.71317 -5.90747e-05 0.0770454 2.65673e-06 -1.12909 -3.89341e-05
-1.75405 -6.04846e-05 0.459888 1.58582e-05 -0.924146 -3.18671e-05
-1.79441 -6.18762e-05 0.829258 2.85951e-05 -0.690457 -2.38089e-05
-1.83993 -6.3446e-05 1.1955 4.12241e-05 -0.445399 -1.53586e-05
-1.88288 -6.49268e-05 1.56667 5.40231e-05 -0.232275 -8.00949e-06
-1.9252 -6.63863e-05 1.94161 6.6952e-05 -0.0527417 -1.81868e-06
-1.95886 -6.75471e-05 2.29777 7.92333e-05 0.120721 4.1628e-06
-1.98708 -6.852e-05 2.63523 9.087e-05 0.307165 1.05919e-05
-2.00703 -6.92081e-05 2.9599 0.000102066 0.499467 1.7223e-05
-2.01623 -6.95253e-05 3.27594 0.000112963 0.67577 2.33024e-05
-2.01218 -6.93854e-05 3.58022 0.000123456 0.823548 2.83982e-05
-1.99155 -6.86742e-05 3.86694 0.000133343 0.949577 3.2744e-05
-1.95355 -6.73636e-05 4.13369 0.000142541 1.06702 3.6794e-05
-1.89616 -6.5385e-05 4.3808 0.000151062 1.17981 4.0683e-05
-1.81905 -6.27258e-05 4.60879 0.000158924 1.27968 4.41267e-05
-1.72396 -5.9447e-05 4.81604 0.00016607 1.357 4.67932e-05
-1.61271 -5.56106e-05 5.0003 0.000172424 1.41042 4.86353e-05
-1.48334 -5.11495e-05 5.15824 0.00017787 1.44606 4.9864e-05
-1.33569 -4.60583e-05 5.28979 0.000182406 1.46942 5.06695e-05
-1.17475 -4.05085e-05 5.39507 0.000186037 1.47847 5.09818e-05
-1.02279 -3.52687e-05 5.46962 0.000188608 1.45837 5.02887e-05
-0.867374 -2.99095e-05 5.50917 0.000189971 1.40881 4.85795e-05
-0.713015 -2.45867e-05 5.51612 0.000190211 1.33417 4.60057e-05
-0.571277 -1.96992e-05 5.49016 0.000189316 1.23821 4.26968e-05
-0.440368 -1.51851e-05 5.43176 0.000187302 1.12071 3.86451e-05
-0.321707 -1.10934e-05 5.34032 0.000184149 0.980562 3.38125e-05
-0.224504 -7.74152e-06 5.21514 0.000179833 0.819108 2.82451e-05
-0.154385 -5.32363e-06 5.05621 0.000174352 0.639946 2.20671e-05
-0.11171 -3.85207e-06 4.86358 0.00016771 0.446913 1.54108e-05
-0.0879756 -3.03366e-06 4.63415 0.000159798 0.242631 8.3666e-06
-0.0848137 -2.92462e-06 4.36873 0.000150646 0.0283513 9.77631e-07
-0.108228 -3.73202e-06 4.0719 0.00014041 -0.195749 -6.74998e-06
-0.168119 -5.79721e-06 3.73962 0.000128952 -0.425362 -1.46676e-05
-0.267476 -9.22334e-06 3.37648 0.00011643 -0.658638 -2.27117e-05
-0.400924 -1.3825e-05 2.98423 0.000102904 -0.892707 -3.0783e-05
-0.566962 -1.95504e-05 2.56579 8.84755e-05 -1.12642 -3.8842e-05
-0.761588 -2.62617e-05 2.12439 7.3255e-05 -1.28642 -4.43593e-05
-0.981807 -3.38554e-05 1.69261 5.8366e-05 -1.49711 -5.16245e-05
-1.14984 -3.96498e-05 1.25685 4.33397e-05 -1.80813 -6.23491e-05
-1.35321 -4.66623e-05 0.79885 2.75466e-05 -2.11193 -7.28253e-05
-1.55319 -5.35582e-05 0.321905 1.11002e-05 -2.37825 -8.20087e-05
-1.73672 -5.98869e-05 -0.165005 -5.68983e-06 -2.61532 -9.01835e-05
-1.92448 -6.63615e-05 -0.6464 -2.22897e-05 -2.85466 -9.84365e-05
-2.11414 -7.29016e-05 -1.16359 -4.01239e-05 -3.10641 -0.000107118
-2.3259 -8.02035e-05 -1.77298 -6.11373e-05 -3.36246 -0.000115947
-2.54934 -8.79084e-05 -2.36748 -8.16373e-05 -3.60638 -0.000124358
-2.7477 -9.47483e-05 -2.95259 -0.000101813 -3.82193 -0.000131791
-2.92931 -0.000101011 -3.49203 -0.000120415 -4.02648 -0.000138844
-3.09941 -0.000106876 -3.9969 -0.000137824 -4.2304 -0.000145876
-3.27398 -0.000112896 -4.46174 -0.000153853 -4.43578 -0.000152958
-3.4163 -0.000117803 -4.88451 -0.000168431 -4.63353 -0.000159777
-3.52364 -0.000121505 -5.25953 -0.000181363 -4.81379 -0.000165993
-3.59687 -0.00012403 -5.58041 -0.000192428 -4.97775 -0.000171646
-3.63312 -0.00012528 -5.84646 -0.000201602 -5.13155 -0.00017695
-3.61951 -0.000124811 -6.05601 -0.000208828 -5.27901 -0.000182035
-3.55715 -0.00012266 -6.20543 -0.00021398 -5.41719 -0.0001868
-3.4471 -0.000118866 -6.29456 -0.000217054 -5.5398 -0.000191028
-3.28721 -0.000113352 -6.32237 -0.000218013 -5.64369 -0.00019461
-3.09233 -0.000106632 -6.29015 -0.000216902 -5.72974 -0.000197577
-2.89256 -9.97433e-05 -6.19908 -0.000213761 -5.79984 -0.000199995
-2.66423 -9.18702e-05 -6.05082 -0.000208649 -5.85339 -0.000201841
-2.41103 -8.31391e-05 -5.84781 -0.000201649 -5.88684 -0.000202994
-2.14009 -7.37963e-05 -5.59372 -0.000192887 -5.89686 -0.00020334
-1.86069 -6.41618e-05 -5.29021 -0.000182421 -5.86914 -0.000202384
-1.58197 -5.45506e-05 -4.94105 -0.000170381 -5.79907 -0.000199968
-1.33733 -4.61149e-05 -4.55124 -0.000156939 -5.68735 -0.000196116
-1.09602 -3.77937e-05 -4.1224 -0.000142152 -5.53421 -0.000190835
-0.867489 -2.99134e-05 -3.66137 -0.000126254 -5.33356 -0.000183916
-0.666707 -2.29899e-05 -3.17236 -0.000109392 -5.08353 -0.000175294
-0.484759 -1.67158e-05 -2.66027 -9.17336e-05 -4.78533 -0.000165011
-0.318941 -1.0998e-05 -2.13023 -7.34564e-05 -4.44256 -0.000153192
-0.178285 -6.14778e-06 -1.58843 -5.47734e-05 -4.05722 -0.000139904
-0.0655058 -2.25884e-06 -1.11822 -3.85593e-05 -3.63021 -0.00012518
0.0214438 7.39427e-07 -0.717473 -2.47404e-05 -3.1667 -0.000109197
0.0880817 3.03728e-06 -0.325229 -1.12148e-05 -2.66157 -9.17783e-05
0.129417 4.46263e-06 0.0632195 2.17998e-06 -2.12526 -7.3285e-05
0.149254 5.14666e-06 0.443149 1.5281e-05 -1.56167 -5.38508e-05
0.148367 5.1161e-06 0.813085 2.80374e-05 -1.17036 -4.03572e-05
0.133626 4.60777e-06 1.14491 3.94795e-05 -1.03556 -3.57088e-05
0.100857 3.47782e-06 1.43882 4.96146e-05 -0.850314 -2.93212e-05
0.0451664 1.55745e-06 1.72089 5.93412e-05 -0.646852 -2.23053e-05
-0.0224587 -7.74453e-07 1.99025 6.86294e-05 -0.455099 -1.56931e-05
-0.108556 -3.74331e-06 2.25919 7.79032e-05 -0.291219 -1.0042e-05
-0.206215 -7.11087e-06 2.51062 8.65733e-05 -0.137703 -4.74837e-06
-0.311995 -1.07585e-05 2.74147 9.45333e-05 0.0246257 8.49162e-07
-0.422502 -1.4569e-05 2.95562 0.000101918 0.197087 6.79611e-06
-0.535263 -1.84573e-05 3.15946 0.000108947 0.363774 1.25439e-05
-0.646921 -2.23076e-05 3.35452 0.000115673 0.50991 1.75831e-05
-0.754553 -2.60191e-05 3.53774 0.000121991 0.635555 2.19157e-05
-0.854772 -2.94749e-05 3.70705 0.000127829 0.750481 2.58787e-05
-0.945408 -3.26003e-05 3.86293 0.000133204 0.860852 2.96846e-05
-1.01761 -3.509e-05 4.00555 0.000138122 0.962645 3.31946e-05
-1.06273 -3.66459e-05 4.13458 0.000142572 1.04681 3.60968e-05
-1.07877 -3.7199e-05 4.2525 0.000146638 1.10883 3.82355e-05
-1.0727 -3.69896e-05 4.3537 0.000150128 1.15291 3.97557e-05
-1.05054 -3.62256e-05 4.44028 0.000153113 1.18328 4.08027e-05
-1.00637 -3.47025e-05 4.5113 0.000155562 1.20105 4.14156e-05
-0.938833 -3.23736e-05 4.56607 0.000157451 1.19832 4.13213e-05
-0.852464 -2.93953e-05 4.60004 0.000158622 1.16506 4.01743e-05
-0.750757 -2.58882e-05 4.61079 0.000158993 1.10543 3.81183e-05
-0.635217 -2.1904e-05 4.59777 0.000158544 1.02425 3.53191e-05
-0.509454 -1.75674e-05 4.56093 0.000157274 0.922518 3.1811e-05
-0.379365 -1.30815e-05 4.49992 0.00015517 0.798832 2.75459e-05
-0.249724 -8.61119e-06 4.41358 0.000152192 0.653196 2.2524e-05
-0.124613 -4.29701e-06 4.3007 0.0001483 0.488679 1.6851e-05
-0.00893522 -3.08126e-07 4.16087 0.000143478 0.30959 1.06755e-05
0.0923192 3.18341e-06 3.99403 0.000137725 0.119049 4.10514e-06
0.174882 6.03038e-06 3.80015 0.00013104 -0.081561 -2.81245e-06
0.230282 7.94074e-06 3.5782 0.000123386 -0.291031 -1.00355e-05
0.26338 9.08206e-06 3.33014 0.000114833 -0.507219 -1.74903e-05
0.268128 9.24578e-06 3.05717 0.00010542 -0.727152 -2.50742e-05
0.237825 8.20086e-06 2.75868 9.51269e-05 -0.947321 -3.26662e-05
0.174649 6.02235e-06 2.43681 8.40278e-05 -1.16598 -4.0206e-05
0.0753162 2.59709e-06 2.0971 7.23137e-05 -1.30525 -4.50085e-05
-0.0686104 -2.36589e-06 1.76903 6.1001e-05 -1.50741 -5.19797e-05
-0.246711 -8.50729e-06 1.42734 4.92186e-05 -1.79725 -6.1974e-05
-0.457187 -1.57651e-05 1.06313 3.66598e-05 -2.07548 -7.15682e-05
-0.701824 -2.42009e-05 0.677816 2.3373e-05 -2.31401 -7.97935e-05
-0.974688 -3.36099e-05 0.276444 9.53256e-06 -2.52342 -8.70145e-05
-1.21144 -4.17737e-05 -0.122365 -4.21948e-06 -2.73273 -9.42322e-05
-1.48707 -5.12783e-05 -0.514257 -1.7733e-05 -2.95324 -0.000101836
-1.78075 -6.14052e-05 -0.894398 -3.08413e-05 -3.1722 -0.000109386
-2.04853 -7.0639e-05 -1.32762 -4.57801e-05 -3.36882 -0.000116166
-2.32807 -8.02783e-05 -1.86305 -6.42429e-05 -3.53681 -0.000121959
-2.63278 -9.07855e-05 -2.37678 -8.19581e-05 -3.69227 -0.00012732
-2.93368 -0.000101161 -2.87621 -9.91796e-05 -3.84311 -0.000132521
-3.27633 -0.000112977 -3.35522 -0.000115697 -3.99326 -0.000137699
-3.63044 -0.000125188 -3.81935 -0.000131702 -4.13165 -0.000142471
-3.97862 -0.000137194 -4.26064 -0.000146919 -4.25152 -0.000146604
