-0.0454168 -2.28564e-05 -0.118993 -3.74163e-05 -0.0369526 -6.63378e-06
-0.0458708 -2.30849e-05 -0.118847 -3.73705e-05 -0.0369966 -6.64167e-06
-0.0469021 -2.36039e-05 -0.118531 -3.72709e-05 -0.037069 -6.65467e-06
-0.0490218 -2.46706e-05 -0.117923 -3.70799e-05 -0.0371688 -6.67259e-06
-0.0514172 -2.58762e-05 -0.117323 -3.68912e-05 -0.0372268 -6.68301e-06
-0.0544838 -2.74195e-05 -0.116681 -3.66892e-05 -0.0372281 -6.68324e-06
-0.0582651 -2.93224e-05 -0.116054 -3.64921e-05 -0.0371242 -6.66458e-06
-0.0628064 -3.16079e-05 -0.11551 -3.63212e-05 -0.0368635 -6.61779e-06
-0.0681589 -3.43016e-05 -0.115135 -3.62031e-05 -0.0363993 -6.53446e-06
-0.0743768 -3.74308e-05 -0.115022 -3.61678e-05 -0.0356872 -6.40661e-06
-0.0815072 -4.10192e-05 -0.115277 -3.62477e-05 -0.0346811 -6.226e-06
-0.0895689 -4.50763e-05 -0.116011 -3.64787e-05 -0.033336 -5.98452e-06
-0.0985292 -4.95857e-05 -0.117359 -3.69025e-05 -0.0316151 -5.67559e-06
-0.108267 -5.44862e-05 -0.119458 -3.75624e-05 -0.0295033 -5.29647e-06
-0.118615 -5.9694e-05 -0.122503 -3.852e-05 -0.0269789 -4.84329e-06
-0.129323 -6.50827e-05 -0.126688 -3.98358e-05 -0.0240493 -4.31735e-06
-0.140057 -7.04848e-05 -0.132188 -4.15652e-05 -0.0207533 -3.72566e-06
-0.150454 -7.57173e-05 -0.139151 -4.37547e-05 -0.0171692 -3.08223e-06
-0.160159 -8.06013e-05 -0.147683 -4.64377e-05 -0.0134231 -2.40973e-06
-0.168829 -8.49647e-05 -0.157829 -4.96279e-05 -0.00978354 -1.75635e-06
-0.176128 -8.86379e-05 -0.169564 -5.33177e-05 -0.00640153 -1.14921e-06
-0.181693 -9.14385e-05 -0.182803 -5.74806e-05 -0.00355382 -6.37987e-07
-0.185109 -9.31576e-05 -0.197412 -6.20743e-05 -0.00155089 -2.78418e-07
-0.185878 -9.35446e-05 -0.213206 -6.70406e-05 -0.000749163 -1.34491e-07
-0.183424 -9.23099e-05 -0.229959 -7.23087e-05 -0.00154402 -2.77184e-07
-0.177155 -8.91547e-05 -0.247355 -7.77786e-05 -0.00435693 -7.82161e-07
-0.166621 -8.38535e-05 -0.264946 -8.33097e-05 -0.00958194 -1.72016e-06
-0.151732 -7.63602e-05 -0.282133 -8.87142e-05 -0.0179973 -3.2309e-06
-0.132914 -6.68901e-05 -0.298079 -9.37284e-05 -0.030016 -5.3885e-06
-0.11106 -5.58921e-05 -0.311766 -9.80321e-05 -0.0461092 -8.27759e-06
-0.0872627 -4.39157e-05 -0.322119 -0.000101287 -0.0666208 -1.19598e-05
-0.0625441 -3.14759e-05 -0.328139 -0.00010318 -0.0918624 -1.64913e-05
-0.0378536 -1.90502e-05 -0.329042 -0.000103464 -0.121933 -2.18895e-05
-0.0139728 -7.03193e-06 -0.324289 -0.00010197 -0.156687 -2.81286e-05
0.00857119 4.31352e-06 -0.313596 -9.86076e-05 -0.195703 -3.51328e-05
0.0297701 1.49821e-05 -0.296896 -9.33564e-05 -0.238297 -4.27795e-05
0.0493005 2.48109e-05 -0.274367 -8.62722e-05 -0.283605 -5.09131e-05
0.0672773 3.38579e-05 -0.246648 -7.75563e-05 -0.330409 -5.93154e-05
0.0839061 4.22265e-05 -0.214362 -6.74042e-05 -0.377475 -6.77647e-05
0.0993593 5.00034e-05 -0.178285 -5.60601e-05 -0.42328 -7.59878e-05
0.113768 5.72546e-05 -0.139423 -4.38404e-05 -0.466353 -8.37203e-05
0.127251 6.40401e-05 -0.098766 -3.10561e-05 -0.505126 -9.06809e-05
0.139757 7.0334e-05 -0.0572899 -1.80143e-05 -0.538097 -9.65999e-05
0.151019 7.60014e-05 -0.0159219 -5.00648e-06 -0.563808 -0.000101215
0.160677 8.08619e-05 0.0244643 7.69256e-06 -0.580901 -0.000104284
0.168504 8.48012e-05 0.0631096 1.98443e-05 -0.588147 -0.000105585
0.174629 8.78835e-05 0.0982081 3.08807e-05 -0.584251 -0.000104885
0.179559 9.03644e-05 0.129477 4.0713e-05 -0.568755 -0.000102104
0.184282 9.27413e-05 0.156065 4.90732e-05 -0.540863 -9.70965e-05
0.19014 9.56895e-05 0.177118 5.56932e-05 -0.500191 -8.9795e-05
0.201614 0.000101464 0.194436 6.11387e-05 -0.431444 -7.74534e-05
0.22108 0.00011126 0.2008 6.31396e-05 -0.343661 -6.16945e-05
0.251814 0.000126728 0.196196 6.16922e-05 -0.238647 -4.28422e-05
0.296036 0.000148983 0.181846 5.71797e-05 -0.119287 -2.14146e-05
0.354478 0.000178394 0.160274 5.03968e-05 0.00969487 1.74044e-06
0.426149 0.000214463 0.135245 4.25265e-05 0.142242 2.55355e-05
0.508244 0.000255778 0.111657 3.51095e-05 0.274496 4.92778e-05
0.596401 0.000300144 0.0951218 2.99102e-05 0.401875 7.21451e-05
0.685688 0.000345078 0.091144 2.86594e-05 0.519261 9.32185e-05
0.771904 0.000388467 0.104376 3.28201e-05 0.622401 0.000111734
0.852384 0.00042897 0.138084 4.34192e-05 0.70826 0.000127148
0.925977 0.000466006 0.193894 6.09682e-05 0.775591 0.000139235
0.992641 0.000499555 0.271812 8.5469e-05 0.824578 0.000148029
1.05306 0.000529959 0.370412 0.000116473 0.856766 0.000153808
1.10814 0.000557682 0.487079 0.000153158 0.874991 0.000157079
1.15852 0.000583035 0.618312 0.000194423 0.883287 0.000158569
1.20449 0.000606169 0.759934 0.000238954 0.886564 0.000159157
1.24658 0.000627351 0.907148 0.000285245 0.890265 0.000159822
1.28602 0.000647199 1.05463 0.00033162 0.900054 0.000161579
1.32465 0.000666644 1.19686 0.000376342 0.921516 0.000165432
1.36438 0.000686636 1.3286 0.000417767 0.959749 0.000172295
1.40633 0.000707747 1.4455 0.000454525 1.0189 0.000182915
1.45042 0.000729935 1.54444 0.000485635 1.10184 0.000197803
1.49583 0.000752788 1.6235 0.000510496 1.21003 0.000217227
1.54163 0.000775841 1.68184 0.000528839 1.34356 0.000241198
1.58701 0.000798674 1.71959 0.00054071 1.50106 0.000269471
1.63125 0.000820943 1.73786 0.000546453 1.67976 0.000301553
1.67388 0.000842394 1.73858 0.000546681 1.87569 0.000336726
1.7146 0.000862888 1.72442 0.000542228 2.08378 0.000374084
1.7533 0.000882362 1.69859 0.000534108 2.29818 0.000412573
1.78988 0.000900772 1.66476 0.00052347 2.51246 0.000451041
1.82427 0.000918082 1.62683 0.000511541 2.71993 0.000488286
1.85662 0.000934358 1.58866 0.000499539 2.91398 0.000523121
1.88744 0.000949869 1.55383 0.000488588 3.08836 0.000554427
1.91766 0.00096508 1.52547 0.000479669 3.23753 0.000581205
1.94824 0.000980471 1.50621 0.000473614 3.35679 0.000602615
1.97947 0.000996184 1.49833 0.000471136 3.44247 0.000617996
2.01034 0.00101172 1.5038 0.000472857 3.49204 0.000626895
2.03862 0.00102595 1.52418 0.000479265 3.50428 0.000629093
2.06149 0.00103746 1.56024 0.000490605 3.47945 0.000624635
2.07404 0.00104378 1.60021 0.000503171 3.43406 0.000616488
2.08065 0.0010471 1.66281 0.000522857 3.34815 0.000601063
2.07583 0.00104468 1.73691 0.000546157 3.23414 0.000580598
2.05899 0.00103621 1.81858 0.000571837 3.09793 0.000556144
2.03002 0.00102163 1.90298 0.000598376 2.94631 0.000528925
1.98889 0.00100093 1.98474 0.000624082 2.78667 0.000500267
1.93566 0.000974138 2.05819 0.00064718 2.62657 0.000471526
1.87047 0.000941331 2.11773 0.000665901 2.47334 0.000444016
1.79339 0.000902541 2.15806 0.000678582 2.33363 0.000418936
1.70454 0.000857826 2.17448 0.000683745 2.21312 0.000397302
1.60412 0.000807285 2.16308 0.00068016 2.11616 0.000379896
1.49233 0.000751026 2.12095 0.000666912 2.04553 0.000367216
1.36959 0.000689256 2.04627 0.000643431 2.00226 0.000359448
1.23699 0.000622528 1.93825 0.000609465 1.9856 0.000356458
1.09682 0.000551986 1.79701 0.000565054 1.99302 0.00035779
0.95224 0.000479223 1.62371 0.000510562 2.02022 0.000362673
0.806254 0.000405754 1.4209 0.000446788 2.06116 0.000370021
0.661276 0.000332793 1.19258 0.000374995 2.10826 0.000378478
0.519322 0.000261353 0.943996 0.000296831 2.15278 0.000386469
0.38214 0.000192315 0.681339 0.000214241 2.18512 0.000392275
0.25117 0.000126404 0.411472 0.000129384 2.19536 0.000394114
0.127347 6.40886e-05 0.141709 4.4559e-05 2.17373 0.000390232
0.0113869 5.73056e-06 -0.120007 -3.77353e-05 2.11095 0.00037896
-0.0976064 -4.91213e-05 -0.367478 -0.00011555 2.00031 0.000359098
-0.202086 -0.000101701 -0.596481 -0.000187558 1.83402 0.000329245
-0.303713 -0.000152846 -0.797728 -0.000250838 1.6085 0.00028876
-0.40345 -0.00020304 -0.967135 -0.000304107 1.32211 0.000237347
-0.500176 -0.000251718 -1.10369 -0.000347046 0.975463 0.000175116
-0.592293 -0.000298076 -1.20778 -0.000379777 0.572206 0.000102723
-0.678773 -0.000341598 -1.28082 -0.000402741 0.119252 2.14083e-05
-0.759795 -0.000382373 -1.32523 -0.000416706 -0.382044 -6.8585e-05
-0.83684 -0.000421147 -1.34509 -0.000422951 -0.919656 -0.000165098
-0.912028 -0.000458986 -1.34467 -0.000422819 -1.47675 -0.000265108
-0.987322 -0.000496878 -1.32915 -0.000417938 -2.03935 -0.000366106
-1.06468 -0.000535811 -1.30464 -0.000410232 -2.59374 -0.000465631
-1.14627 -0.000576871 -1.2775 -0.000401699 -3.12664 -0.000561298
-1.23432 -0.000621183 -1.25393 -0.000394286 -3.62358 -0.000650509
-1.33086 -0.000669768 -1.23997 -0.000389896 -4.07133 -0.00073089
-1.43728 -0.000723323 -1.2415 -0.000390378 -4.45845 -0.000800387
-1.55368 -0.000781905 -1.26399 -0.000397449 -4.77565 -0.000857331
-1.67847 -0.000844706 -1.31232 -0.000412647 -5.01539 -0.00090037
-1.80844 -0.000910115 -1.39059 -0.000437257 -5.17262 -0.000928595
-1.93966 -0.000976148 -1.50149 -0.00047213 -5.24547 -0.000941673
-2.06837 -0.00104092 -1.64574 -0.000517489 -5.23557 -0.000939897
-2.19155 -0.00110292 -1.82178 -0.000572842 -5.14777 -0.000924133
-2.30723 -0.00116113 -2.02574 -0.000636976 -4.98999 -0.000895809
-2.41443 -0.00121508 -2.25165 -0.000708011 -4.77305 -0.000856864
-2.51305 -0.00126471 -2.49174 -0.000783505 -4.51024 -0.000809684
-2.60373 -0.00131035 -2.73691 -0.000860595 -4.21653 -0.000756956
-2.68752 -0.00135252 -2.97736 -0.000936204 -3.90777 -0.000701527
-2.76531 -0.00139167 -3.20333 -0.00100726 -3.59987 -0.000646253
-2.83765 -0.00142807 -3.40566 -0.00107088 -3.3081 -0.000593874
-2.90475 -0.00146184 -3.57632 -0.00112454 -3.04631 -0.000546877
-2.96667 -0.001493 -3.7087 -0.00116617 -2.8263 -0.000507381
-3.01138 -0.0015155 -3.79501 -0.00119331 -2.65825 -0.000477213
-3.01146 -0.00151554 -3.80897 -0.0011977 -2.5591 -0.000459413
-3.00916 -0.00151439 -3.78065 -0.00118879 -2.51612 -0.000451698
-3.02811 -0.00152392 -3.72749 -0.00117207 -2.52346 -0.000453015
-3.04678 -0.00153332 -3.6367 -0.00114353 -2.58578 -0.000464203
-3.0539 -0.0015369 -3.51238 -0.00110444 -2.69727 -0.000484217
-2.99598 -0.00150775 -3.38724 -0.00106509 -2.84018 -0.000509872
-2.93449 -0.00147681 -3.23926 -0.00101855 -3.01656 -0.000541536
-2.86287 -0.00144076 -3.06834 -0.000964811 -3.21726 -0.000577567
-2.78759 -0.00140288 -2.88587 -0.000907436 -3.4305 -0.000615848
-2.71103 -0.00136435 -2.6991 -0.000848706 -3.64471 -0.000654303
-2.63454 -0.00132586 -2.51208 -0.0007899 -3.84819 -0.000690833
-2.56222 -0.00128946 -2.33186 -0.000733231 -4.02953 -0.000723386
-2.49661 -0.00125644 -2.16513 -0.000680806 -4.17896 -0.000750213
-2.4396 -0.00122775 -2.01728 -0.000634317 -4.28718 -0.000769639
-2.39375 -0.00120467 -1.8931 -0.000595267 -4.34569 -0.000780144
-2.36078 -0.00118808 -1.79624 -0.000564811 -4.34912 -0.00078076
-2.34172 -0.00117849 -1.72961 -0.000543861 -4.29476 -0.000771
-2.33737 -0.0011763 -1.69518 -0.000533034 -4.18135 -0.00075064
-2.3478 -0.00118155 -1.69335 -0.000532458 -4.0098 -0.000719844
-2.37244 -0.00119395 -1.72341 -0.00054191 -3.78404 -0.000679315
-2.40832 -0.00121201 -1.78433 -0.000561068 -3.51044 -0.000630198
-2.44003 -0.00122797 -1.87769 -0.000590422 -3.19601 -0.000573751
-2.46488 -0.00124047 -1.99939 -0.00062869 -2.85148 -0.000511901
-2.48155 -0.00124886 -2.14293 -0.000673825 -2.48933 -0.000446887
-2.48974 -0.00125299 -2.30016 -0.000723264 -2.12365 -0.000381241
-2.49051 -0.00125337 -2.42996 -0.000764078 -1.83865 -0.000330077
-2.48652 -0.00125136 -2.55827 -0.000804424 -1.56859 -0.000281596
-2.47813 -0.00124714 -2.68033 -0.000842805 -1.32073 -0.000237099
-2.46567 -0.00124087 -2.79158 -0.000877788 -1.10186 -0.000197807
-2.4494 -0.00123268 -2.88792 -0.00090808 -0.918194 -0.000164835
-2.42949 -0.00122266 -2.96578 -0.000932562 -0.775047 -0.000139137
-2.40595 -0.00121081 -3.02226 -0.000950322 -0.676558 -0.000121456
-2.37845 -0.00119697 -3.05522 -0.000960688 -0.625555 -0.0001123
-2.34626 -0.00118078 -3.06343 -0.000963267 -0.623567 -0.000111944
-2.30828 -0.00116166 -3.04655 -0.000957961 -0.670829 -0.000120428
-2.26311 -0.00113893 -3.00514 -0.00094494 -0.766245 -0.000137557
-2.20943 -0.00111192 -2.94042 -0.00092459 -0.907409 -0.000162899
-2.14631 -0.00108015 -2.8541 -0.000897446 -1.09072 -0.000195807
-2.07346 -0.00104349 -2.74821 -0.000864151 -1.31155 -0.000235452
-1.99137 -0.00100217 -2.62504 -0.000825421 -1.56443 -0.000280849
-1.90115 -0.000956769 -2.48706 -0.000782034 -1.84312 -0.00033088
-1.80419 -0.000907975 -2.33698 -0.000734841 -2.14074 -0.000384308
-1.70182 -0.000856457 -2.17779 -0.000684785 -2.44985 -0.000439801
-1.59514 -0.000802769 -2.01273 -0.000632886 -2.7627 -0.000495964
-1.48507 -0.000747373 -1.84521 -0.000580209 -3.07138 -0.000551378
-1.37249 -0.000690717 -1.67857 -0.000527812 -3.36806 -0.000604639
-1.25833 -0.000633266 -1.51602 -0.000476699 -3.64516 -0.000654384
-1.1435 -0.000575478 -1.36052 -0.000427803 -3.89553 -0.000699331
-1.02881 -0.000517759 -1.21474 -0.000381964 -4.11263 -0.000738304
-0.914942 -0.000460452 -1.08099 -0.000339908 -4.29066 -0.000770265
-0.802462 -0.000403846 -0.961148 -0.000302224 -4.42474 -0.000794335
-0.691902 -0.000348205 -0.856553 -0.000269335 -4.51097 -0.000809816
-0.583776 -0.00029379 -0.767977 -0.000241483 -4.54657 -0.000816205
-0.478567 -0.000240843 -0.69561 -0.000218728 -4.52985 -0.000813204
-0.376732 -0.000189593 -0.63906 -0.000200947 -4.46032 -0.000800722
-0.278682 -0.000140249 -0.597378 -0.00018784 -4.33861 -0.000778873
-0.184774 -9.29889e-05 -0.5691 -0.000178948 -4.16644 -0.000747965
-0.0953164 -4.79688e-05 -0.552295 -0.000173664 -3.94657 -0.000708493
-0.0105986 -5.33385e-06 -0.544631 -0.000171254 -3.68266 -0.000661116
0.0567877 2.85789e-05 -0.541788 -0.00017036 -3.37907 -0.000606614
0.0911015 4.58476e-05 -0.533545 -0.000167768 -3.04402 -0.000546467
0.125038 6.29266e-05 -0.526676 -0.000165609 -2.67819 -0.000480791
0.156622 7.88216e-05 -0.521004 -0.000163825 -2.28775 -0.000410699
0.184848 9.30261e-05 -0.515605 -0.000162127 -1.87853 -0.000337236
0.211711 0.000106545 -0.507003 -0.000159423 -1.456 -0.000261384
0.238993 0.000120276 -0.492745 -0.000154939 -1.02611 -0.000184209
0.267555 0.000134649 -0.472148 -0.000148463 -0.594783 -0.000106776
0.298586 0.000150266 -0.444416 -0.000139743 -0.167866 -3.01355e-05
0.333627 0.000167901 -0.407788 -0.000128225 0.244198 4.38387e-05
0.373774 0.000188105 -0.361057 -0.000113531 0.637862 0.00011451
0.419553 0.000211144 -0.303127 -9.53155e-05 1.01226 0.000181722
0.471442 0.000237257 -0.23311 -7.32993e-05 1.36421 0.000244904
0.529704 0.000266578 -0.152353 -4.79061e-05 1.69039 0.000303461
0.594311 0.000299092 -0.0596819 -1.87665e-05 1.98759 0.000356814
0.665037 0.000334685 0.0454639 1.42957e-05 2.25306 0.000404472
0.741703 0.000373268 0.163281 5.13421e-05 2.4856 0.000446219
0.824093 0.000414732 0.293188 9.21903e-05 2.68482 0.000481982
0.911904 0.000458924 0.433927 0.000136444 2.85076 0.000511772
1.00474 0.000505645 0.5841 0.000183665 2.98411 0.00053571
1.10202 0.000554599 0.742371 0.000233432 3.08628 0.000554053
1.20288 0.000605361 0.907254 0.000285278 3.15932 0.000567166
1.30626 0.000657384 1.07695 0.000338637 3.20577 0.000575504
1.41087 0.000710032 1.24944 0.000392874 3.22861 0.000579604
1.51536 0.000762619 1.42266 0.000447343 3.23124 0.000580076
1.61833 0.000814436 1.59458 0.0005014 3.21736 0.000577585
1.71832 0.000864757 1.76307 0.000554382 3.19081 0.000572819
1.81392 0.00091287 1.92596 0.000605601 3.15548 0.000566475
1.90382 0.000958114 2.08101 0.000654355 3.11527 0.000559258
1.98685 0.000999901 2.22607 0.000699967 3.07409 0.000551865
2.06203 0.00103773 2.35908 0.000741792 3.03562 0.000544959
2.12858 0.00107123 2.47811 0.000779221 3.00321 0.00053914
2.18599 0.00110012 2.58134 0.000811679 2.97976 0.000534931
2.23403 0.0011243 2.66714 0.000838657 2.96777 0.000532778
2.27273 0.00114377 2.73413 0.000859724 2.96921 0.000533036
2.30234 0.00115867 2.78129 0.000874551 2.98545 0.000535951
2.3233 0.00116922 2.80792 0.000882926 3.01718 0.000541649
2.33613 0.00117568 2.81377 0.000884764 3.06438 0.000550121
2.34143 0.00117834 2.79897 0.000880111 3.12631 0.000561239
2.33982 0.00117753 2.76391 0.000869088 3.20168 0.00057477
2.3322 0.0011737 2.70954 0.00085199 3.28846 0.000590348
2.31975 0.00116744 2.6373 0.000829276 3.38396 0.000607492
2.30371 0.00115936 2.54908 0.000801537 3.48492 0.000625617
2.2852 0.00115005 2.4471 0.000769468 3.58767 0.000644063
2.26523 0.00114 2.33393 0.000733882 3.68815 0.000662101
2.24471 0.00112967 2.21248 0.000695694 3.78204 0.000678957
2.22443 0.00111946 2.08587 0.000655884 3.86494 0.000693839
2.20512 0.00110974 1.95729 0.000615451 3.93246 0.00070596
2.18752 0.00110089 1.82991 0.000575398 3.9804 0.000714566
2.17237 0.00109327 1.70683 0.000536699 4.00488 0.000718962
2.16038 0.00108723 1.59098 0.00050027 4.00248 0.00071853
2.15212 0.00108307 1.48503 0.000466955 3.97032 0.000712757
2.14809 0.00108105 1.39137 0.000437504 3.90621 0.000701248
2.14868 0.00108134 1.31201 0.000412549 3.8087 0.000683743
2.15419 0.00108411 1.24853 0.00039259 3.67719 0.000660134
2.16493 0.00108952 1.20204 0.000377971 3.51195 0.000630469
2.18123 0.00109772 1.17312 0.000368876 3.31413 0.000594956
2.20322 0.00110879 1.16183 0.000365325 3.0858 0.000553967
2.23032 0.00112243 1.16721 0.000367018 2.8304 0.000508117
2.26301 0.00113888 1.1892 0.000373934 2.55101 0.00045796
2.30178 0.00115839 1.22668 0.000385717 2.25199 0.000404281
2.34281 0.00117904 1.2787 0.000402076 1.93816 0.00034794
2.38642 0.00120099 1.34321 0.000422361 1.61534 0.000289988
2.43401 0.00122494 1.41753 0.00044573 1.28992 0.000231567
2.48342 0.0012498 1.49956 0.000471524 0.967725 0.000173727
2.52708 0.00127177 1.58665 0.000498908 0.655169 0.000117617
2.5663 0.00129151 1.6779 0.000527602 0.357925 6.42551e-05
2.59969 0.00130832 1.77152 0.000557038 0.0823565 1.47847e-05
2.62525 0.00132118 1.86494 0.000586413 -0.168948 -3.03297e-05
2.64074 0.00132898 1.95547 0.000614879 -0.387914 -6.96389e-05
2.64475 0.00133099 2.04058 0.000641643 -0.568566 -0.00010207
2.63622 0.0013267 2.11816 0.000666038 -0.705758 -0.000126699
2.61396 0.0013155 2.18537 0.000687169 -0.794934 -0.000142707
2.57773 0.00129727 2.23935 0.000704143 -0.832825 -0.00014951
2.52822 0.00127235 2.27778 0.000716227 -0.817578 -0.000146773
2.46639 0.00124123 2.29872 0.000722813 -0.748286 -0.000134333
2.39325 0.00120442 2.30052 0.000723378 -0.624807 -0.000112166
2.30992 0.00116249 2.282 0.000717555 -0.448082 -8.04403e-05
2.21785 0.00111615 2.24259 0.000705162 -0.220356 -3.95586e-05
2.11861 0.00106621 2.18236 0.000686224 0.0516098 9.26505e-06
2.01399 0.00101356 2.10157 0.000660819 0.362054 6.49964e-05
1.90592 0.000959173 2.00141 0.000629326 0.707858 0.000127076
1.79638 0.000904046 1.88361 0.000592283 1.08279 0.000194385
1.68703 0.000849013 1.75045 0.000550412 1.47952 0.000265605
1.57912 0.000794708 1.60481 0.000504618 1.88955 0.000339214
1.47365 0.000741625 1.45011 0.000455975 2.30379 0.000413579
1.37135 0.000690145 1.29017 0.000405683 2.71307 0.000487053
1.27275 0.000640523 1.12899 0.000355002 3.10833 0.000558012
1.1781 0.000592889 0.970644 0.00030521 3.4807 0.00062486
1.08751 0.000547298 0.819113 0.000257563 3.82153 0.000686045
1.00105 0.000503788 0.678165 0.000213243 4.12268 0.00074011
0.918848 0.000462418 0.551158 0.000173307 4.37695 0.000785755
0.841044 0.000423263 0.44091 0.00013864 4.57823 0.00082189
0.767726 0.000386365 0.349641 0.000109941 4.72169 0.000847644
0.698819 0.000351687 0.278941 8.77106e-05 4.80376 0.000862377
0.634101 0.000319117 0.229728 7.22358e-05 4.82218 0.000865685
0.573249 0.000288492 0.202181 6.3574e-05 4.77614 0.000857419
0.515876 0.000259619 0.195713 6.15403e-05 4.66631 0.000837702
0.461541 0.000232274 0.208982 6.57125e-05 4.49484 0.000806919
0.409742 0.000206206 0.239941 7.54471e-05 4.26525 0.000765703
0.359906 0.000181126 0.285916 8.99038e-05 3.9823 0.000714908
0.311335 0.000156682 0.343702 0.000108074 3.65181 0.000655577
0.263183 0.000132449 0.40966 0.000128814 3.28054 0.000588926
0.214436 0.000107917 0.479843 0.000150882 2.87602 0.000516307
0.16394 8.25044e-05 0.550107 0.000172976 2.44635 0.000439171
0.138305 6.96032e-05 0.60903 0.000191504 2.00129 0.000359275
0.119636 6.02079e-05 0.655813 0.000206214 1.54836 0.000277963
0.0955477 4.80852e-05 0.690483 0.000217116 1.0946 0.000196504
0.0662789 3.33554e-05 0.71229 0.000223973 0.647142 0.000116176
0.0311952 1.56993e-05 0.718474 0.000225918 0.212788 3.82e-05
-0.0110952 -5.58375e-06 0.705031 0.00022169 -0.205789 -3.69436e-05
-0.0607347 -3.05652e-05 0.669696 0.00021058 -0.603784 -0.000108392
-0.116381 -5.85697e-05 0.611855 0.000192392 -0.971763 -0.000174452
-0.176914 -8.90337e-05 0.532064 0.000167303 -1.3052 -0.000234312
-0.243518 -0.000122553 0.428632 0.00013478 -1.60065 -0.00028735
-0.316122 -0.000159091 0.300964 9.46356e-05 -1.85691 -0.000333354
-0.39398 -0.000198274 0.147075 4.62464e-05 -2.0725 -0.000372059
-0.476526 -0.000239816 -0.0289262 -9.09559e-06 -2.24985 -0.000403896
-0.563008 -0.000283339 -0.223967 -7.04245e-05 -2.38897 -0.00042887
-0.652766 -0.00032851 -0.435613 -0.000136975 -2.49266 -0.000447486
-0.744668 -0.000374761 -0.661097 -0.000207876 -2.56502 -0.000460476
-0.837501 -0.00042148 -0.897071 -0.000282076 -2.61079 -0.000468692
-0.929716 -0.000467887 -1.13964 -0.000358349 -2.63474 -0.000472992
-1.01869 -0.000512665 -1.38496 -0.000435488 -2.6418 -0.000474259
-1.10405 -0.000555621 -1.62849 -0.000512065 -2.6378 -0.000473542
-1.18562 -0.000596676 -1.86564 -0.000586635 -2.62886 -0.000471937
-1.26365 -0.000635945 -2.09165 -0.000657701 -2.62091 -0.000470509
-1.3387 -0.000673711 -2.30179 -0.000723777 -2.61945 -0.000470246
-1.41142 -0.000710309 -2.49174 -0.000783506 -2.62942 -0.000472037
-1.4824 -0.000746032 -2.65789 -0.00083575 -2.65513 -0.000476652
-1.55205 -0.000781081 -2.79738 -0.00087961 -2.7 -0.000484708
-1.61546 -0.000812993 -2.90986 -0.000914978 -2.76603 -0.000496562
-1.66726 -0.000839064 -2.99614 -0.000942109 -2.85344 -0.000512252
-1.71361 -0.00086239 -3.05329 -0.000960079 -2.96433 -0.00053216
-1.75406 -0.000882745 -3.081 -0.000968794 -3.09768 -0.000556099
-1.7888 -0.000900228 -3.08042 -0.00096861 -3.25113 -0.000583647
-1.81765 -0.000914747 -3.05299 -0.000959987 -3.42233 -0.000614382
-1.84058 -0.000926288 -3.00096 -0.000943625 -3.60787 -0.000647689
-1.85804 -0.000935076 -2.9271 -0.000920399 -3.80329 -0.000682772
-1.87066 -0.000941426 -2.83432 -0.000891227 -4.00336 -0.000718689
-1.87914 -0.000945691 -2.72583 -0.000857113 -4.20253 -0.000754443
-1.88436 -0.000948318 -2.60536 -0.000819232 -4.39502 -0.000789
-1.88734 -0.000949822 -2.477 -0.000778869 -4.57488 -0.000821288
-1.88909 -0.0009507 -2.34477 -0.000737292 -4.73604 -0.000850219
-1.89052 -0.000951419 -2.21259 -0.000695729 -4.87257 -0.00087473
-1.89253 -0.000952432 -2.0843 -0.000655388 -4.97899 -0.000893834
-1.89598 -0.00095417 -1.9636 -0.000617437 -5.05045 -0.000906664
-1.90163 -0.000957012 -1.85388 -0.000582935 -5.08286 -0.000912482
-1.91014 -0.000961292 -1.75803 -0.000552798 -5.0729 -0.000910693
-1.92203 -0.00096728 -1.67851 -0.000527793 -5.01814 -0.000900862
-1.93765 -0.000975138 -1.61726 -0.000508534 -4.91725 -0.000882752
-1.95705 -0.000984901 -1.57571 -0.000495469 -4.77008 -0.000856331
-1.98011 -0.000996507 -1.55469 -0.000488858 -4.57761 -0.000821778
-2.00661 -0.00100984 -1.55436 -0.000488754 -4.34195 -0.000779473
-2.0363 -0.00102479 -1.57421 -0.000494997 -4.06636 -0.000729999
-2.06786 -0.00104067 -1.61246 -0.000507022 -3.75545 -0.000674183
-2.0977 -0.00105568 -1.66876 -0.000524727 -3.414 -0.000612886
-2.1269 -0.00107038 -1.74109 -0.000547471 -3.04835 -0.000547243
-2.15546 -0.00108476 -1.82662 -0.000574364 -2.66537 -0.000478491
-2.18304 -0.00109863 -1.92166 -0.000604248 -2.27272 -0.000408002
-2.20955 -0.00111198 -2.02251 -0.000635959 -1.87835 -0.000337203
-2.23516 -0.00112486 -2.12555 -0.00066836 -1.4903 -0.000267541
-2.25984 -0.00113728 -2.22699 -0.000700257 -1.11665 -0.000200463
-2.28341 -0.00114915 -2.32303 -0.000730455 -0.76517 -0.000137364
-2.30565 -0.00116034 -2.41024 -0.000757877 -0.443078 -7.95419e-05
-2.326 -0.00117058 -2.48572 -0.000781613 -0.1569 -2.81669e-05
-2.34353 -0.0011794 -2.54711 -0.000800917 0.0879305 1.57854e-05
-2.35714 -0.00118625 -2.59253 -0.000815197 0.281829 5.05943e-05
-2.36585 -0.00119064 -2.62079 -0.000824085 0.426842 7.66272e-05
-2.36889 -0.00119216 -2.63103 -0.000827305 0.520202 9.33874e-05
-2.36548 -0.00119045 -2.62286 -0.000824734 0.561091 0.000100728
-2.35501 -0.00118518 -2.59635 -0.000816399 0.549452 9.86383e-05
-2.33726 -0.00117625 -2.55226 -0.000802536 0.486133 8.72712e-05
-2.31245 -0.00116376 -2.49179 -0.000783521 0.373061 6.69724e-05
-2.28115 -0.00114801 -2.41643 -0.000759824 0.213371 3.83045e-05
-2.24434 -0.00112948 -2.32791 -0.000731992 0.0103342 1.85522e-06
-2.20325 -0.0011088 -2.22854 -0.000700743 -0.234343 -4.20696e-05
-2.1591 -0.00108659 -2.12083 -0.000666877 -0.511446 -9.18155e-05
-2.11294 -0.00106335 -2.00767 -0.000631293 -0.814285 -0.000146181
-2.06553 -0.0010395 -1.8922 -0.000594986 -1.13593 -0.000203923
-2.01752 -0.00101534 -1.77779 -0.00055901 -1.46925 -0.000263762
-1.96958 -0.00099121 -1.66775 -0.000524409 -1.80697 -0.00032439
-1.92251 -0.00096752 -1.56521 -0.000492167 -2.14176 -0.000384491
-1.87721 -0.000944724 -1.47306 -0.000463189 -2.46653 -0.000442794
-1.83466 -0.000923306 -1.39386 -0.000438286 -2.77475 -0.000498127
-1.7958 -0.000903752 -1.32983 -0.000418152 -3.06056 -0.000549436
-1.76159 -0.000886534 -1.28275 -0.000403349 -3.31882 -0.000595799
-1.73284 -0.000872066 -1.25394 -0.00039429 -3.54513 -0.000636427
-1.71011 -0.00086063 -1.24429 -0.000391256 -3.73595 -0.000670683
-1.69358 -0.00085231 -1.25428 -0.000394397 -3.88872 -0.000698107
-1.68293 -0.00084695 -1.28398 -0.000403736 -4.00188 -0.000718423
-1.67739 -0.000844162 -1.33304 -0.000419162 -4.07495 -0.000731541
-1.67584 -0.000843383 -1.40063 -0.000440414 -4.10842 -0.000737549
-1.67694 -0.000843933 -1.48541 -0.000467074 -4.10376 -0.000736712
-1.67907 -0.000845007 -1.58558 -0.00049857 -4.06339 -0.000729466
-1.68048 -0.000845715 -1.69884 -0.000534184 -3.99066 -0.000716408
-1.6794 -0.000845173 -1.82241 -0.000573042 -3.8897 -0.000698284
-1.67423 -0.000842572 -1.95305 -0.000614119 -3.76538 -0.000675966
-1.66356 -0.000837202 -2.08708 -0.000656263 -3.62307 -0.000650417
-1.64622 -0.000828474 -2.22049 -0.000698212 -3.46852 -0.000622673
-1.62136 -0.000815965 -2.34903 -0.000738632 -3.30771 -0.000593804
-1.58851 -0.00079943 -2.46833 -0.000776143 -3.14664 -0.000564888
-1.54746 -0.000778774 -2.57401 -0.000809373 -2.99111 -0.000536968
-1.49826 -0.000754013 -2.66188 -0.000837004 -2.84654 -0.000511014
-1.44105 -0.00072522 -2.72811 -0.00085783 -2.71771 -0.000487887
-1.37597 -0.000692466 -2.76937 -0.000870805 -2.60867 -0.000468312
-1.30314 -0.000655816 -2.78297 -0.000875079 -2.52252 -0.000452846
-1.22273 -0.00061535 -2.76687 -0.000870018 -2.46135 -0.000441864
-1.135 -0.000571197 -2.7198 -0.000855215 -2.42612 -0.000435541
-1.04033 -0.000523553 -2.64119 -0.0008305 -2.41667 -0.000433844
-0.939261 -0.000472691 -2.53129 -0.000795942 -2.43166 -0.000436535
-0.832475 -0.00041895 -2.39107 -0.000751851 -2.46863 -0.000443171
-0.720718 -0.000362708 -2.22228 -0.000698777 -2.52404 -0.000453119
-0.60568 -0.000304814 -2.02749 -0.000637527 -2.59325 -0.000465543
-0.494964 -0.000249095 -1.80774 -0.000568426 -2.67115 -0.000479528
-0.381346 -0.000191916 -1.56809 -0.000493071 -2.75196 -0.000494035
-0.264673 -0.000133199 -1.31378 -0.000413107 -2.82851 -0.000507779
-0.147708 -7.43355e-05 -1.05027 -0.000330248 -2.89332 -0.000519412
-0.0315347 -1.58701e-05 -0.781247 -0.000245656 -2.93965 -0.00052773
0.0815398 4.10356e-05 -0.511176 -0.000160735 -2.96101 -0.000531565
0.188392 9.48097e-05 -0.246609 -7.75441e-05 -2.94987 -0.000529565
0.289766 0.000145827 0.00984147 3.09456e-06 -2.9014 -0.000520863
0.386002 0.000194259 0.25535 8.02924e-05 -2.8104 -0.000504526
0.475251 0.000239174 0.483836 0.000152138 -2.67053 -0.000479416
0.555933 0.000279778 0.68931 0.000216747 -2.48097 -0.000445386
0.628463 0.000316279 0.872303 0.000274288 -2.23956 -0.000402049
0.692803 0.000348659 1.03134 0.000324296 -1.94544 -0.000349249
0.748508 0.000376693 1.16442 0.00036614 -1.59878 -0.000287016
0.795814 0.0004005 1.27021 0.000399405 -1.20163 -0.000215717
0.835526 0.000420485 1.34845 0.000424009 -0.757542 -0.000135995
0.868398 0.000437029 1.39965 0.000440106 -0.271114 -4.86707e-05
0.895226 0.00045053 1.42515 0.000448125 0.246226 4.42028e-05
0.917281 0.000461629 1.42625 0.000448472 0.786996 0.000141282
0.936018 0.000471059 1.40551 0.00044195 1.34806 0.000242005
0.952946 0.000479578 1.36576 0.00042945 1.92168 0.000344982
0.969654 0.000487987 1.31032 0.000412018 2.49894 0.000448612
0.987886 0.000497162 1.24303 0.000390858 3.0697 0.000551076
1.00928 0.000507927 1.16807 0.000367289 3.62349 0.000650493
1.03516 0.000520954 1.08988 0.000342703 4.15028 0.000745064
1.06641 0.000536678 1.01297 0.000318519 4.64078 0.000833119
1.10373 0.000555463 0.941584 0.000296073 5.08624 0.000913088
1.14771 0.000577593 0.880154 0.000276756 5.47564 0.000982994
1.19964 0.000603729 0.82678 0.000259974 5.6188 0.00100869
1.25877 0.000633488 0.790036 0.00024842 5.6445 0.00101331
1.325 0.000666817 0.779018 0.000244955 5.63277 0.0010112
1.39711 0.000703109 0.790505 0.000248567 5.61474 0.00100797
1.47559 0.000742605 0.825762 0.000259653 5.62323 0.00100949
1.55973 0.000784948 0.886519 0.000278758 5.62428 0.00100968
1.64912 0.000829935 0.972549 0.000305809 5.55468 0.000997183
1.74377 0.000877567 1.08404 0.000340866 5.39635 0.000968759
1.84361 0.000927811 1.21771 0.000382898 5.16222 0.000926728
1.94828 0.000980487 1.3697 0.00043069 4.87764 0.000875641
2.05724 0.00103532 1.53716 0.000483346 4.55833 0.000818317
2.1698 0.00109197 1.71744 0.000540032 4.20386 0.000754682
2.28506 0.00114997 1.90685 0.000599592 3.81053 0.000684071
2.40189 0.00120877 2.10074 0.000660558 3.38547 0.000607764
2.51903 0.00126772 2.29441 0.000721456 2.94672 0.000528999
2.63501 0.00132609 2.48368 0.000780971 2.51224 0.000451001
2.74822 0.00138306 2.6647 0.00083789 2.09162 0.00037549
2.85696 0.00143779 2.83368 0.000891024 1.68826 0.000303079
2.95956 0.00148942 2.98702 0.000939243 1.30714 0.00023466
3.05409 0.001537 3.12149 0.000981525 0.958413 0.000172056
3.09316 0.00155666 3.19954 0.00100607 0.668499 0.00012001
3.08878 0.00155445 3.22698 0.0010147 0.437438 7.85294e-05
3.09254 0.00155635 3.24387 0.00102001 0.251961 4.52323e-05
3.11135 0.00156581 3.26277 0.00102595 0.109218 1.96069e-05
3.12513 0.00157275 3.27145 0.00102868 0.0190762 3.42458e-06
3.12331 0.00157183 3.26931 0.00102801 -0.026254 -4.71316e-06
3.12005 0.00157019 3.254 0.00102319 -0.0203943 -3.66121e-06
3.10922 0.00156474 3.22102 0.00101282 0.0407254 7.31108e-06
3.08585 0.00155298 3.16631 0.000995617 0.155055 2.78356e-05
3.05139 0.00153564 3.09077 0.000971866 0.316435 5.68068e-05
3.00908 0.00151434 2.99837 0.00094281 0.52094 9.35197e-05
2.95959 0.00148944 2.89198 0.000909358 0.765378 0.000137402
2.90299 0.00146096 2.77379 0.000872194 1.04499 0.000187599
2.84129 0.00142991 2.64695 0.00083231 1.35164 0.000242649
2.77668 0.00139739 2.51482 0.000790761 1.67668 0.000301
2.71043 0.00136405 2.38052 0.000748533 2.01286 0.000361352
2.64395 0.00133059 2.24765 0.000706755 2.3535 0.000422504
2.57915 0.00129798 2.12003 0.000666625 2.69117 0.000483123
2.51783 0.00126712 2.00084 0.000629146 3.01782 0.000541762
2.46144 0.00123874 1.89277 0.000595166 3.32579 0.000597051
2.4114 0.00121356 1.79861 0.000565557 3.60853 0.000647808
2.36908 0.00119226 1.72104 0.000541165 3.86048 0.000693038
2.3356 0.00117541 1.66213 0.000522642 4.07679 0.000731871
2.31178 0.00116343 1.62329 0.000510429 4.25324 0.000763548
2.29825 0.00115661 1.60554 0.000504847 4.38651 0.000787473
2.29414 0.00115454 1.60989 0.000506214 4.47447 0.000803262
2.29394 0.00115444 1.63819 0.000515113 4.5158 0.000810682
2.2979 0.00115644 1.68972 0.000531316 4.51135 0.000809884
2.3059 0.00116046 1.76298 0.000554353 4.46271 0.000801151
2.31774 0.00116642 1.85578 0.000583533 4.37249 0.000784955
2.33309 0.00117415 1.96544 0.000618014 4.24454 0.000761986
2.35149 0.00118341 2.08889 0.000656832 4.08376 0.000733122
2.37237 0.00119392 2.22266 0.000698896 3.89579 0.000699377
2.39499 0.0012053 2.36291 0.000742996 3.68677 0.000661854
2.41845 0.0012171 2.50561 0.000787867 3.46322 0.000621722
2.44173 0.00122882 2.64673 0.000832241 3.23192 0.000580199
2.46377 0.00123991 2.78234 0.000874881 2.99974 0.000538518
2.4835 0.00124984 2.90861 0.000914585 2.77336 0.000497877
2.49992 0.00125811 3.02191 0.000950213 2.55905 0.000459404
2.51213 0.00126425 3.11895 0.000980726 2.36259 0.000424135
2.51941 0.00126791 3.19684 0.00100522 2.18908 0.000392987
2.52124 0.00126884 3.25317 0.00102293 2.04284 0.000366733
2.51734 0.00126687 3.28608 0.00103328 1.92724 0.00034598
2.50759 0.00126197 3.29426 0.00103585 1.8446 0.000331146
2.49199 0.00125412 3.2771 0.00103045 1.79618 0.000322453
2.47052 0.00124331 3.23472 0.00101713 1.78211 0.000319926
2.44309 0.0012295 3.16795 0.000996135 1.80139 0.000323388
2.40947 0.00121259 3.07838 0.000967969 1.85196 0.000332466
2.36941 0.00119242 2.96818 0.000933318 1.93074 0.000346609
2.32271 0.00116892 2.84006 0.000893033 2.03379 0.000365109
2.26941 0.0011421 2.69711 0.000848082 2.15646 0.00038713
2.20975 0.00111208 2.54267 0.000799521 2.29348 0.000411729
2.14413 0.00107905 2.38029 0.000748462 2.43921 0.00043789
2.07307 0.00104329 2.21359 0.000696042 2.58773 0.000464553
1.99715 0.00100508 2.04616 0.000643397 2.73307 0.000490643
1.91695 0.00096472 1.88154 0.000591633 2.86934 0.000515108
1.83297 0.00092246 1.72303 0.000541793 2.99094 0.000536938
1.74577 0.000878574 1.57365 0.000494821 3.09271 0.000555208
1.65601 0.000833401 1.43595 0.000451522 3.17007 0.000569095
1.56467 0.000787433 1.31192 0.000412522 3.21918 0.00057791
1.4731 0.000741352 1.20291 0.000378245 3.23702 0.000581113
1.38295 0.000695983 1.10964 0.000348915 3.22146 0.000578321
1.29589 0.000652169 1.03226 0.000324586 3.17127 0.00056931
1.21341 0.000610659 0.970518 0.000305171 3.08607 0.000554016
1.1366 0.000572005 0.923767 0.00029047 2.96638 0.000532528
1.06609 0.000536518 0.891098 0.000280198 2.81347 0.000505078
1.00203 0.000504279 0.871343 0.000273986 2.62939 0.000472032
0.944194 0.000475174 0.863101 0.000271394 2.41689 0.000433884
0.892065 0.000448939 0.864757 0.000271915 2.17934 0.000391237
0.844863 0.000425184 0.874516 0.000274984 1.92063 0.000344793
0.801608 0.000403416 0.89044 0.000279991 1.64511 0.000295332
0.761197 0.000383079 0.910476 0.000286291 1.35747 0.000243694
0.722515 0.000363612 0.932473 0.000293208 1.06263 0.000190764
0.684463 0.000344462 0.954238 0.000300052 0.765627 0.000137446
0.645871 0.00032504 0.973613 0.000306144 0.47149 8.46425e-05
0.605435 0.000304691 0.988561 0.000310844 0.18511 3.32312e-05
0.561671 0.000282666 0.997646 0.000313701 -0.0723841 -1.29945e-05
0.513134 0.000258239 0.999437 0.000314264 -0.307837 -5.52634e-05
0.458619 0.000230804 0.991071 0.000311633 -0.51902 -9.31751e-05
0.397194 0.000199892 0.971807 0.000305576 -0.709124 -0.000127303
0.3292 0.000165673 0.940729 0.000295804 -0.878056 -0.00015763
0.280829 0.00014133 0.890353 0.000279963 -1.02343 -0.000183728
0.230098 0.000115799 0.822179 0.000258527 -1.14006 -0.000204664
0.171047 8.60808e-05 0.740093 0.000232716 -1.22941 -0.000220705
0.106775 5.37357e-05 0.647594 0.00020363 -1.29239 -0.000232012
0.0370835 1.86626e-05 0.544227 0.000171127 -1.33181 -0.000239089
-0.0386534 -1.94527e-05 0.429175 0.00013495 -1.34877 -0.000242132
-0.112894 -5.68147e-05 0.310747 9.77115e-05 -1.34639 -0.000241706
-0.183759 -9.24782e-05 0.187941 5.90962e-05 -1.32276 -0.000237464
-0.257637 -0.000129658 0.0579524 1.82226e-05 -1.28046 -0.00022987
-0.334107 -0.000168142 -0.0785181 -2.46893e-05 -1.22122 -0.000219234
-0.410752 -0.000206715 -0.21836 -6.86613e-05 -1.1518 -0.000206773
-0.485844 -0.000244505 -0.357758 -0.000112494 -1.07488 -0.000192964
-0.560091 -0.000281871 -0.495533 -0.000155816 -0.993806 -0.000178409
-0.633196 -0.000318661 -0.630255 -0.000198178 -0.912579 -0.000163827
-0.703844 -0.000354215 -0.759739 -0.000238893 -0.835986 -0.000150077
-0.77137 -0.000388199 -0.88196 -0.000277324 -0.76787 -0.000137849
-0.835668 -0.000420557 -0.995248 -0.000312947 -0.71121 -0.000127677
-0.896292 -0.000451066 -1.09796 -0.000345245 -0.668885 -0.000120079
-0.95263 -0.000479419 -1.18875 -0.000373792 -0.643708 -0.000115559
-1.00447 -0.000505506 -1.26672 -0.000398309 -0.637898 -0.000114516
-1.05182 -0.000529336 -1.33116 -0.00041857 -0.652891 -0.000117208
-1.09463 -0.000550884 -1.38141 -0.000434372 -0.689498 -0.00012378
-1.1329 -0.000570141 -1.41724 -0.000445638 -0.748 -0.000134282
-1.16678 -0.00058719 -1.43894 -0.000452463 -0.828072 -0.000148656
-1.19655 -0.000602176 -1.44713 -0.000455037 -0.928718 -0.000166725
-1.22257 -0.000615271 -1.44256 -0.000453599 -1.0483 -0.000188193
-1.24531 -0.000626711 -1.42624 -0.000448467 -1.18465 -0.00021267
-1.26537 -0.000636806 -1.3995 -0.00044006 -1.3301 -0.000238781
-1.28355 -0.000645956 -1.36335 -0.000428694 -1.47485 -0.000264767
-1.30044 -0.00065446 -1.32051 -0.000415222 -1.62202 -0.000291188
-1.31697 -0.000662775 -1.27256 -0.000400145 -1.77292 -0.000318277
-1.33375 -0.000671223 -1.22147 -0.000384081 -1.9254 -0.00034565
-1.35158 -0.000680197 -1.16953 -0.000367748 -2.07625 -0.000372731
-1.37113 -0.000690032 -1.11909 -0.000351888 -2.22105 -0.000398725
-1.39306 -0.000701068 -1.07238 -0.0003372 -2.35562 -0.000422884
-1.418 -0.000713622 -1.03144 -0.000324326 -2.4771 -0.000444691
-1.44651 -0.000727969 -0.99823 -0.000313885 -2.58357 -0.000463807
-1.47897 -0.000744305 -0.974648 -0.000306469 -2.67319 -0.000479895
-1.51555 -0.000762715 -0.962444 -0.000302632 -2.74371 -0.000492554
-1.5562 -0.000783169 -0.963133 -0.000302849 -2.79301 -0.000501404
-1.60064 -0.000805535 -0.97794 -0.000307504 -2.81989 -0.000506231
-1.64846 -0.000829601 -1.00775 -0.000316879 -2.82404 -0.000506975
-1.69917 -0.000855122 -1.053 -0.000331105 -2.80392 -0.000503363
-1.75223 -0.000881827 -1.11376 -0.000350213 -2.75994 -0.000495467
-1.80711 -0.000909446 -1.18967 -0.00037408 -2.69342 -0.000483525
-1.86328 -0.000937713 -1.27982 -0.000402428 -2.60669 -0.000467957
-1.92024 -0.00096638 -1.38289 -0.000434838 -2.50312 -0.000449363
-1.97756 -0.000995223 -1.49715 -0.000470767 -2.38666 -0.000428456
-2.03485 -0.00102406 -1.62052 -0.000509558 -2.2615 -0.000405988
-2.09181 -0.00105272 -1.75059 -0.000550458 -2.13197 -0.000382734
-2.14798 -0.00108099 -1.88481 -0.000592662 -2.00266 -0.00035952
-2.20178 -0.00110807 -2.02099 -0.000635483 -1.87829 -0.000337193
-2.25349 -0.00113409 -2.15618 -0.000677992 -1.76396 -0.000316669
-2.30326 -0.00115914 -2.28744 -0.000719265 -1.66444 -0.000298802
-2.35104 -0.00118318 -2.41193 -0.000758411 -1.58402 -0.000284364
-2.39671 -0.00120617 -2.52721 -0.000794658 -1.52652 -0.000274043
-2.44009 -0.001228 -2.63121 -0.00082736 -1.49526 -0.00026843
-2.4809 -0.00124854 -2.72222 -0.000855978 -1.49292 -0.000268012
-2.51377 -0.00126507 -2.80124 -0.000880825 -1.52061 -0.000272983
-2.54172 -0.00127914 -2.86596 -0.000901175 -1.58025 -0.000283688
-2.56373 -0.00129022 -2.91548 -0.000916746 -1.6723 -0.000300213
-2.57991 -0.00129836 -2.94956 -0.000927463 -1.79622 -0.000322459
-2.59077 -0.00130383 -2.96854 -0.000933432 -1.95056 -0.000350168
-2.59601 -0.00130647 -2.9726 -0.000934709 -2.13371 -0.000383047
-2.5952 -0.00130605 -2.96197 -0.000931364 -2.34343 -0.000420696
-2.5885 -0.00130268 -2.9377 -0.000923733 -2.57632 -0.000462504
-2.57661 -0.0012967 -2.90126 -0.000912274 -2.81974 -0.000506204
-2.56034 -0.00128851 -2.85321 -0.000897165 -3.05655 -0.000548716
-2.53998 -0.00127827 -2.79721 -0.000879557 -3.29665 -0.000591819
-2.51634 -0.00126637 -2.73471 -0.000859903 -3.541 -0.000635684
-2.48993 -0.00125308 -2.66779 -0.000838863 -3.78706 -0.000679858
-2.4615 -0.00123877 -2.59884 -0.000817183 -4.03027 -0.000723518
-2.43173 -0.00122379 -2.53022 -0.000795605 -4.26414 -0.000765503
-2.40138 -0.00120852 -2.46407 -0.000774806 -4.48276 -0.000804751
-2.37122 -0.00119334 -2.40228 -0.000755374 -4.68235 -0.000840582
-2.3419 -0.00117858 -2.34651 -0.000737839 -4.86057 -0.000872575
-2.31287 -0.00116397 -2.29867 -0.000722795 -5.01479 -0.000900261
-2.28146 -0.00114816 -2.26108 -0.000710977 -5.14135 -0.000922981
-2.24753 -0.00113109 -2.23476 -0.000702699 -5.23723 -0.000940194
-2.21068 -0.00111254 -2.22018 -0.000698115 -5.30056 -0.000951562
-2.17062 -0.00109238 -2.21728 -0.000697205 -5.33102 -0.000957031
-2.12728 -0.00107057 -2.22542 -0.000699765 -5.32809 -0.000956505
-2.08094 -0.00104725 -2.24328 -0.000705378 -5.28988 -0.000949647
-2.03213 -0.00102269 -2.26917 -0.000713519 -5.21684 -0.000936534
-1.98141 -0.000997159 -2.30092 -0.000723505 -5.1109 -0.000917516
-1.92914 -0.000970857 -2.33607 -0.000734555 -4.97531 -0.000893174
-1.8755 -0.00094386 -2.37199 -0.000745851 -4.81414 -0.000864241
-1.82047 -0.000916168 -2.40606 -0.000756564 -4.63146 -0.000831445
-1.76405 -0.000887771 -2.4356 -0.000765853 -4.43104 -0.000795466
-1.70621 -0.000858663 -2.45793 -0.000772873 -4.21668 -0.000756985
-1.64685 -0.000828792 -2.47049 -0.000776822 -3.9925 -0.000716738
-1.58567 -0.000798003 -2.47101 -0.000776987 -3.76274 -0.000675491
-1.5222 -0.000766062 -2.45758 -0.000772765 -3.53138 -0.000633958
-1.45602 -0.000732753 -2.4286 -0.000763651 -3.30178 -0.000592739
-1.38688 -0.000697958 -2.38275 -0.000749234 -3.07669 -0.000552331
-1.31479 -0.000661682 -2.31906 -0.000729207 -2.85845 -0.000513152
-1.23995 -0.000624017 -2.23694 -0.000703386 -2.64903 -0.000475557
-1.16261 -0.000585091 -2.13628 -0.000671734 -2.44987 -0.000439803
-1.08297 -0.000545015 -2.01745 -0.000634369 -2.26166 -0.000406016
-1.00117 -0.000503846 -1.88135 -0.000591575 -2.08436 -0.000374187
-0.917148 -0.000461563 -1.72939 -0.000543792 -1.91728 -0.000344193
-0.830754 -0.000418084 -1.56342 -0.000491604 -1.75925 -0.000315824
-0.741785 -0.00037331 -1.38567 -0.000435711 -1.60871 -0.000288797
-0.650088 -0.000327162 -1.19862 -0.000376896 -1.46367 -0.000262761
-0.555638 -0.00027963 -1.00493 -0.000315991 -1.32185 -0.0002373
-0.458622 -0.000230806 -0.80729 -0.000253845 -1.18074 -0.000211968
-0.359441 -0.000180892 -0.608384 -0.000191301 -1.0378 -0.000186307
-0.258643 -0.000130164 -0.410812 -0.000129176 -0.890585 -0.000159879
-0.156852 -7.89371e-05 -0.217053 -6.82502e-05 -0.736788 -0.000132269
-0.0552958 -2.78281e-05 -0.0292852 -9.20848e-06 -0.574122 -0.000103067
0.0393398 1.97981e-05 0.144987 4.559e-05 -0.398225 -7.14898e-05
0.127729 6.42807e-05 0.303653 9.5481e-05 -0.209073 -3.75331e-05
0.215169 0.000108286 0.451303 0.000141908 -0.0152647 -2.74034e-06
0.283047 0.000142446 0.595347 0.000187201 0.169379 3.04072e-05
0.346618 0.000174438 0.727746 0.000228833 0.361566 6.49087e-05
0.404032 0.000203332 0.845776 0.000265947 0.564233 0.000101292
0.456262 0.000229618 0.948296 0.000298183 0.778876 0.000139825
0.50386 0.000253572 1.03557 0.000325626 1.00476 0.000180375
0.546575 0.000275069 1.10778 0.000348333 1.23918 0.000222459
0.58433 0.000294069 1.16473 0.00036624 1.47902 0.000265516
0.617784 0.000310905 1.20647 0.000379363 1.72199 0.000309133
0.647603 0.000325912 1.23343 0.00038784 1.96673 0.000353071
0.674272 0.000339333 1.24655 0.000391965 2.21142 0.000396996
0.698485 0.000351519 1.24716 0.000392158 2.45258 0.00044029
0.721163 0.000362931 1.23668 0.000388862 2.6858 0.000482158
0.743172 0.000374008 1.21648 0.000382511 2.90712 0.00052189
0.765279 0.000385133 1.18821 0.00037362 3.11353 0.000558944
0.788264 0.000396701 1.15387 0.000362825 3.3022 0.000592816
0.812912 0.000409105 1.11563 0.0003508 3.4698 0.000622904
0.839935 0.000422704 1.07552 0.000338187 3.61258 0.000648535
0.869965 0.000437817 1.03552 0.000325611 3.72713 0.000669099
0.903557 0.000454723 0.997681 0.000313712 3.81092 0.000684141
0.941124 0.000473629 0.96402 0.000303127 3.8621 0.00069333
0.982891 0.000494648 0.93642 0.000294449 3.87917 0.000696394
1.02891 0.000517807 0.916457 0.000288172 3.8577 0.000692539
1.07906 0.000543044 0.905548 0.000284741 3.79553 0.000681378
1.13311 0.000570249 0.904921 0.000284544 3.69229 0.000662845
1.19077 0.000599265 0.91542 0.000287846 3.54921 0.000637159
1.25168 0.000629918 0.937472 0.00029478 3.36856 0.000604729
1.31549 0.00066203 0.971125 0.000305361 3.15317 0.000566061
1.38185 0.000695428 1.01605 0.000319487 2.90624 0.000521732
1.45044 0.000729948 1.07153 0.000336933 2.6316 0.000472429
1.52095 0.000765432 1.1365 0.000357361 2.33398 0.000418998
1.59304 0.00080171 1.20956 0.000380335 2.01883 0.000362422
1.6663 0.000838582 1.28912 0.000405351 1.69206 0.00030376
1.74028 0.000875809 1.37341 0.000431857 1.35968 0.000244091
1.8144 0.000913111 1.46061 0.000459276 1.02774 0.000184501
1.88804 0.000950173 1.54883 0.000487016 0.702369 0.00012609
1.96054 0.000986661 1.63621 0.00051449 0.389737 6.99662e-05
2.03123 0.00102224 1.72093 0.000541131 0.0958604 1.7209e-05
2.09939 0.00105653 1.80187 0.000566581 -0.160923 -2.88891e-05
2.16448 0.00108929 1.877 0.000590205 -0.385188 -6.91494e-05
2.22591 0.00112021 1.94462 0.000611469 -0.576381 -0.000103473
2.28334 0.00114911 2.00394 0.000630121 -0.733149 -0.000131616
2.33631 0.00117577 2.05424 0.000645938 -0.853769 -0.00015327
2.3846 0.00120007 2.09477 0.00065868 -0.935297 -0.000167906
2.42808 0.00122195 2.12508 0.000668212 -0.974876 -0.000175011
2.46671 0.00124139 2.14527 0.000674562 -0.970177 -0.000174167
2.50053 0.00125841 2.15595 0.000677919 -0.919372 -0.000165047
2.52968 0.00127309 2.15774 0.000678482 -0.823521 -0.000147839
2.55437 0.00128551 2.15153 0.000676529 -0.684418 -0.000122868
2.57483 0.00129581 2.13852 0.000672438 -0.504152 -9.05059e-05
2.59142 0.00130415 2.12018 0.000666672 -0.285613 -5.12736e-05
2.60462 0.0013108 2.09815 0.000659746 -0.032663 -5.8637e-06
2.6151 0.00131607 2.07358 0.000652018 0.230634 4.14037e-05
2.62333 0.00132021 2.04882 0.000644232 0.513887 9.22536e-05
2.63012 0.00132363 2.02543 0.00063688 0.81592 0.000146475
2.63623 0.0013267 2.00532 0.000630556 1.13312 0.000203418
2.64158 0.0013294 1.99065 0.000625943 1.46062 0.000262213
2.62702 0.00132207 1.99009 0.000625766 1.78986 0.000321317
2.61632 0.00131668 1.99635 0.000627734 2.12017 0.000380616
2.60834 0.00131267 2.0114 0.000632468 2.44508 0.000438944
2.60466 0.00131082 2.03574 0.000640119 2.76173 0.00049579
2.60561 0.0013113 2.06999 0.00065089 3.06696 0.000550584
2.61126 0.00131414 2.11465 0.000664934 3.35784 0.000602803
2.62183 0.00131946 2.17007 0.00068236 3.63093 0.000651829
2.63754 0.00132736 2.23615 0.000703138 3.88335 0.000697145
2.65832 0.00133782 2.31231 0.000727086 4.11344 0.00073845
2.68277 0.00135013 2.39655 0.000753572 4.32095 0.000775702
2.70972 0.00136369 2.48833 0.000782433 4.50536 0.000808809
2.74071 0.00137929 2.58713 0.000813501 4.66584 0.000837617
2.77567 0.00139688 2.6925 0.000846632 4.8016 0.00086199
2.81277 0.00141555 2.80281 0.000881319 4.91351 0.00088208
2.84948 0.00143402 2.91728 0.000917313 5.00274 0.000898099
2.88598 0.00145239 3.03456 0.000954191 5.07061 0.000910282
2.92147 0.00147026 3.15273 0.000991348 5.11875 0.000918924
2.95474 0.001487 3.26962 0.0010281 5.14906 0.000924366
2.98496 0.00150221 3.38338 0.00106387 5.1638 0.000927011
3.01171 0.00151567 3.49211 0.00109806 5.16534 0.000927288
3.03458 0.00152718 3.59359 0.00112997 5.15583 0.000925581
3.05329 0.00153659 3.68554 0.00115889 5.1377 0.000922326
3.06777 0.00154388 3.76592 0.00118416 5.11337 0.000917958
3.07805 0.00154905 3.83292 0.00120523 5.08518 0.000912898
3.08416 0.00155213 3.8849 0.00122157 5.05527 0.000907528
3.08623 0.00155317 3.92048 0.00123276 5.02536 0.000902158
3.08447 0.00155229 3.93861 0.00123846 4.9967 0.000897013
3.07874 0.0015494 3.93832 0.00123837 4.97022 0.00089226
3.06925 0.00154463 3.91918 0.00123235 4.94633 0.000887971
3.05652 0.00153822 3.88141 0.00122047 4.92486 0.000884117
3.04097 0.00153039 3.82572 0.00120296 4.90512 0.000880574
3.02268 0.00152119 3.75326 0.00118018 4.88593 0.000877129
3.00141 0.00151049 3.66566 0.00115263 4.86564 0.000873486
2.97673 0.00149807 3.56502 0.00112099 4.84222 0.000869281
2.94808 0.00148365 3.45371 0.00108599 4.81339 0.000864105
2.91497 0.00146699 3.33425 0.00104843 4.77673 0.000857525
2.8771 0.00144793 3.20917 0.0010091 4.72979 0.000849097
2.83447 0.00142647 3.08095 0.000968776 4.67014 0.00083839
2.78731 0.00140274 2.95189 0.000928194 4.59557 0.000825003
2.73599 0.00137691 2.82413 0.000888023 4.50411 0.000808583
2.68092 0.0013492 2.69963 0.000848874 4.3941 0.000788835
2.62249 0.00131979 2.58009 0.000811286 4.26431 0.000765535
2.56102 0.00128886 2.46695 0.00077571 4.11393 0.000738539
2.49678 0.00125653 2.36136 0.000742508 3.94266 0.000707791
2.42993 0.00122288 2.26415 0.000711941 3.75071 0.000673332
2.36055 0.00118797 2.17581 0.000684165 3.53883 0.000635295
2.28866 0.00115179 2.0965 0.000659226 3.30833 0.000593915
2.21422 0.00111432 2.02602 0.000637063 3.06102 0.000549518
2.13713 0.00107553 1.96383 0.000617508 2.79921 0.000502518
2.05727 0.00103534 1.90908 0.000600294 2.52565 0.000453407
1.97449 0.000993679 1.86065 0.000585064 2.24346 0.000402748
1.88866 0.000950484 1.81714 0.000571384 1.95607 0.000351156
1.79969 0.000905709 1.77696 0.000558748 1.66714 0.000299287
1.70759 0.00085936 1.73832 0.000546599 1.38044 0.000247819
1.6125 0.000811506 1.69934 0.000534342 1.09979 0.000197435
1.48985 0.000749782 1.64718 0.000517941 0.763121 0.000136996
1.3637 0.000686295 1.58776 0.000499258 0.448531 8.05208e-05
1.23475 0.000621401 1.51779 0.000477254 0.162047 2.90908e-05
1.10326 0.000555224 1.4351 0.000451253 -0.078251 -1.40477e-05
0.968884 0.000487599 1.33783 0.000420667 -0.275747 -4.95024e-05
0.830877 0.000418146 1.22456 0.000385052 -0.435633 -7.82054e-05
0.688434 0.00034646 1.09589 0.000344593 -0.561378 -0.000100779
0.541178 0.000272353 0.952416 0.000299479 -0.655281 -0.000117637
0.389263 0.0001959 0.795052 0.000249997 -0.71627 -0.000128586
0.232937 0.000117227 0.625707 0.000196748 -0.746808 -0.000134068
0.0885264 4.45517e-05 0.444197 0.000139674 -0.752265 -0.000135048
-0.0234826 -1.18178e-05 0.244908 7.70093e-05 -0.734081 -0.000131783
-0.131843 -6.63511e-05 0.0559045 1.75787e-05 -0.706418 -0.000126817
-0.237608 -0.000119578 -0.128741 -4.04813e-05 -0.669524 -0.000120194
-0.345844 -0.000174049 -0.3091 -9.71938e-05 -0.630939 -0.000113267
-0.453382 -0.000228169 -0.480434 -0.000151068 -0.597766 -0.000107312
-0.557134 -0.000280383 -0.636704 -0.000200206 -0.576071 -0.000103417
-0.658153 -0.000331221 -0.778115 -0.000244671 -0.570201 -0.000102363
-0.754869 -0.000379894 -0.90347 -0.000284088 -0.585174 -0.000105051
-0.845545 -0.000425528 -1.01055 -0.000317759 -0.623898 -0.000112003
-0.930225 -0.000468144 -1.09912 -0.00034561 -0.687633 -0.000123445
-1.00829 -0.000507429 -1.16936 -0.000367695 -0.771565 -0.000138512
-1.07924 -0.000543135 -1.22209 -0.000384276 -0.872574 -0.000156646
-1.14362 -0.000575538 -1.25862 -0.000395761 -0.994438 -0.000178523
-1.20202 -0.000604926 -1.28021 -0.000402552 -1.13569 -0.000203881
-1.25515 -0.000631663 -1.28903 -0.000405322 -1.29374 -0.000232254
-1.30399 -0.000656246 -1.28779 -0.000404935 -1.46376 -0.000262777
-1.34949 -0.000679141 -1.27919 -0.00040223 -1.64111 -0.000294613
-1.39251 -0.000700791 -1.26612 -0.000398119 -1.82166 -0.000327026
-1.43401 -0.000721678 -1.25183 -0.000393627 -2.00106 -0.000359234
-1.47491 -0.00074226 -1.2395 -0.000389748 -2.1742 -0.000390315
-1.51609 -0.000762984 -1.23198 -0.000387385 -2.3361 -0.000419379
-1.55845 -0.000784306 -1.23192 -0.000387365 -2.48278 -0.000445713
-1.60286 -0.000806652 -1.24162 -0.000390416 -2.61109 -0.000468746
-1.65006 -0.000830405 -1.26291 -0.000397112 -2.71816 -0.000487968
-1.70073 -0.000855908 -1.29709 -0.000407859 -2.8018 -0.000502983
-1.7554 -0.00088342 -1.34493 -0.000422902 -2.86093 -0.000513599
-1.81426 -0.00091304 -1.40677 -0.000442346 -2.89561 -0.000519823
-1.87708 -0.000944656 -1.4825 -0.000466157 -2.90667 -0.00052181
-1.9433 -0.000977981 -1.57149 -0.000494141 -2.89416 -0.000519563
-2.01208 -0.0010126 -1.67269 -0.000525963 -2.85961 -0.000513362
-2.08245 -0.00104801 -1.78459 -0.000561149 -2.80679 -0.000503878
-2.15333 -0.00108368 -1.90516 -0.000599059 -2.74061 -0.000491998
-2.22365 -0.00111907 -2.03195 -0.000638928 -2.66653 -0.000478699
-2.29245 -0.0011537 -2.16218 -0.000679877 -2.59018 -0.000464992
-2.35897 -0.00118717 -2.29275 -0.000720933 -2.51739 -0.000451925
-2.42271 -0.00121925 -2.42038 -0.000761067 -2.45416 -0.000440573
-2.48333 -0.00124976 -2.54183 -0.000799255 -2.40621 -0.000431966
-2.54058 -0.00127857 -2.65408 -0.000834552 -2.37861 -0.00042701
-2.59419 -0.00130555 -2.75457 -0.00086615 -2.37548 -0.00042645
-2.64387 -0.00133055 -2.84127 -0.000893412 -2.40006 -0.000430862
-2.68924 -0.00135338 -2.91283 -0.000915913 -2.45444 -0.000440624
-2.72985 -0.00137382 -2.96861 -0.000933454 -2.53946 -0.000455887
-2.76533 -0.00139168 -3.00866 -0.000946046 -2.65463 -0.000476563
-2.79542 -0.00140682 -3.03362 -0.000953894 -2.79824 -0.000502344
-2.82001 -0.00141919 -3.04439 -0.00095728 -2.95598 -0.000530661
-2.83905 -0.00142878 -3.04275 -0.000956764 -3.12373 -0.000560777
-2.8527 -0.00143565 -3.03106 -0.000953089 -3.30593 -0.000593485
-2.86106 -0.00143985 -3.01134 -0.00094689 -3.50001 -0.000628327
-2.8642 -0.00144143 -2.98586 -0.000938876 -3.70166 -0.000664527
-2.86241 -0.00144053 -2.95715 -0.00092985 -3.90359 -0.000700777
-2.84675 -0.00143265 -2.9314 -0.000921752 -4.09904 -0.000735865
-2.82852 -0.00142348 -2.90624 -0.00091384 -4.28654 -0.000769526
-2.81031 -0.00141431 -2.8829 -0.000906503 -4.46136 -0.000800909
-2.7938 -0.00140601 -2.86297 -0.000900237 -4.61839 -0.000829099
-2.77049 -0.00139427 -2.85045 -0.000896298 -4.753 -0.000853265
-2.73797 -0.00137791 -2.84701 -0.000895217 -4.86311 -0.000873032
-2.69682 -0.0013572 -2.85241 -0.000896916 -4.947 -0.000888092
-2.64751 -0.00133238 -2.86516 -0.000900925 -5.00346 -0.000898227
-2.59064 -0.00130376 -2.88341 -0.000906663 -5.03256 -0.000903451
-2.52716 -0.00127182 -2.90483 -0.000913397 -5.03502 -0.000903893
-2.4582 -0.00123711 -2.92604 -0.000920066 -5.01047 -0.000899486
-2.38507 -0.00120031 -2.94337 -0.000925517 -4.96064 -0.000890541
-2.30915 -0.0011621 -2.95326 -0.000928625 -4.88863 -0.000877613
-2.2315 -0.00112302 -2.95228 -0.000928318 -4.79794 -0.000861332
-2.15271 -0.00108337 -2.93741 -0.000923641 -4.69174 -0.000842267
-2.07268 -0.00104309 -2.90631 -0.000913862 -4.57267 -0.000820892
-1.99054 -0.00100176 -2.85752 -0.000898521 -4.44297 -0.000797607
-1.90499 -0.000958701 -2.79032 -0.00087739 -4.30449 -0.000772748
-1.81476 -0.000913292 -2.70453 -0.000850414 -4.15855 -0.000746548
-1.71903 -0.000865115 -2.6004 -0.000817672 -4.0058 -0.000719127
-1.61753 -0.000814036 -2.47857 -0.000779365 -3.84639 -0.000690509
-1.51028 -0.000760063 -2.3401 -0.000735822 -3.68 -0.000660638
-1.39727 -0.000703187 -2.18648 -0.00068752 -3.50588 -0.000629381
-1.27844 -0.000643385 -2.01966 -0.000635065 -3.32289 -0.00059653
-1.15377 -0.000580647 -1.84186 -0.000579157 -3.12957 -0.000561825
-1.02326 -0.000514966 -1.6555 -0.000520558 -2.92434 -0.000524981
-0.886756 -0.000446267 -1.46313 -0.000460067 -2.70563 -0.000485719
-0.743864 -0.000374356 -1.26733 -0.000398501 -2.47202 -0.000443781
-0.594127 -0.000299 -1.07059 -0.000336636 -2.22236 -0.000398961
-0.437507 -0.000220179 -0.874928 -0.000275113 -1.95595 -0.000351135
-0.274763 -0.000138277 -0.681767 -0.000214375 -1.67271 -0.000300286
-0.10727 -5.39845e-05 -0.491907 -0.000154676 -1.37317 -0.000246513
0.023829 1.19922e-05 -0.295004 -9.27614e-05 -1.06105 -0.00019048
0.122667 6.17335e-05 -0.102372 -3.21901e-05 -0.732406 -0.000131482
0.219365 0.000110397 0.0853416 2.68349e-05 -0.389518 -6.99268e-05
0.314909 0.000158481 0.259369 8.15563e-05 -0.0353474 -6.34561e-06
0.406295 0.000204471 0.422584 0.000132878 0.282292 5.06773e-05
0.492842 0.000248027 0.576966 0.000181422 0.603759 0.000108388
0.574415 0.000289079 0.721198 0.000226774 0.931956 0.000167306
0.649719 0.000326976 0.853137 0.000268261 1.26481 0.000227061
0.718401 0.000361541 0.97339 0.000306074 1.59804 0.000286881
0.780727 0.000392907 1.08265 0.00034043 1.92409 0.000345415
0.83667 0.000421061 1.18003 0.00037105 2.24114 0.000402332
0.886708 0.000446243 1.2652 0.000397832 2.54777 0.000457378
0.931498 0.000468784 1.33885 0.00042099 2.84026 0.000509887
0.971551 0.000488941 1.40146 0.000440676 3.11265 0.000558788
1.00753 0.00050705 1.45329 0.000456974 3.36071 0.000603319
1.04035 0.000523565 1.49484 0.00047004 3.58218 0.000643077
1.07094 0.000538961 1.52686 0.000480109 3.77441 0.000677588
1.10027 0.000553723 1.55015 0.000487431 3.93345 0.000706139
1.12917 0.000568263 1.56553 0.000492267 4.05586 0.000728114
1.15811 0.000582826 1.57407 0.000494951 4.13986 0.000743193
1.18726 0.000597498 1.57703 0.000495883 4.18432 0.000751175
1.21667 0.000612298 1.57566 0.000495452 4.18709 0.000751672
1.24647 0.000627295 1.57086 0.000493943 4.14376 0.000743894
1.27695 0.000642638 1.56354 0.00049164 4.05364 0.000727716
1.30849 0.000658507 1.55434 0.000488749 3.91848 0.00070345
1.34123 0.000674987 1.54378 0.000485426 3.7409 0.000671572
1.375 0.000691979 1.53236 0.000481836 3.52384 0.000632605
1.40927 0.000709228 1.52058 0.000478133 3.27074 0.000587168
1.44339 0.0007264 1.50876 0.000474416 2.98614 0.000536077
1.47663 0.000743129 1.497 0.000470719 2.67551 0.00048031
1.50821 0.000759019 1.48524 0.000467022 2.34468 0.000420921
1.53723 0.000773627 1.47329 0.000463262 1.99975 0.000358997
1.56278 0.000786483 1.46078 0.000459328 1.64715 0.000295699
1.58393 0.000797129 1.44718 0.000455053 1.29372 0.000232251
1.59985 0.000805141 1.43183 0.000450227 0.946291 0.000169879
1.6092 0.000809846 1.41418 0.000444675 0.611393 0.000109758
1.60711 0.000808793 1.39503 0.000438653 0.294788 5.29207e-05
1.59298 0.000801679 1.37245 0.000431554 0.00471616 8.4665e-07
1.56754 0.000788878 1.34511 0.000422957 -0.23926 -4.29522e-05
1.53316 0.000771574 1.30964 0.000411806 -0.446716 -8.01949e-05
1.49191 0.000750816 1.26535 0.000397878 -0.618227 -0.000110985
1.44541 0.000727417 1.21132 0.000380888 -0.754117 -0.00013538
1.39516 0.000702124 1.1469 0.000360631 -0.851117 -0.000152794
1.34202 0.000675381 1.07237 0.000337196 -0.907839 -0.000162976
1.28633 0.000647358 0.98913 0.000311023 -0.925702 -0.000166183
1.22816 0.000618083 0.899174 0.000282737 -0.906691 -0.00016277
1.16747 0.000587538 0.804687 0.000253027 -0.852557 -0.000153052
1.10443 0.000555814 0.708145 0.00022267 -0.766568 -0.000137615
1.03965 0.000523213 0.612289 0.000192529 -0.653888 -0.000117387
0.97405 0.000490199 0.519741 0.000163428 -0.521214 -9.3569e-05
0.908583 0.000457252 0.432964 0.000136142 -0.374757 -6.72768e-05
0.844032 0.000424766 0.354373 0.00011143 -0.219892 -3.94753e-05
0.781006 0.000393048 0.286211 8.99964e-05 -0.0620713 -1.11431e-05
0.719934 0.000362313 0.230215 7.23891e-05 0.0885084 1.58891e-05
0.660843 0.000332575 0.188027 5.91234e-05 0.225053 4.04018e-05
0.6033 0.000303616 0.160687 5.05267e-05 0.350364 6.28978e-05
0.546361 0.000274961 0.148717 4.67626e-05 0.462789 8.30806e-05
0.488798 0.000245992 0.152069 4.78168e-05 0.559486 0.00010044
0.429289 0.000216043 0.169947 5.34382e-05 0.638429 0.000114612
0.366572 0.000184481 0.200721 6.31148e-05 0.699547 0.000125584
0.299537 0.000150744 0.24196 7.60821e-05 0.744521 0.000133657
0.227217 0.000114349 0.290553 9.13619e-05 0.774994 0.000139128
0.148715 7.48422e-05 0.342843 0.000107804 0.792777 0.00014232
0.0705315 3.54956e-05 0.393133 0.000123617 0.800559 0.000143717
0.0287359 1.44616e-05 0.425607 0.000133828 0.804346 0.000144397
-0.0243709 -1.22649e-05 0.450164 0.00014155 0.802877 0.000144134
-0.0795241 -4.00212e-05 0.468352 0.000147269 0.796899 0.00014306
-0.138916 -6.99109e-05 0.475412 0.000149489 0.788635 0.000141577
-0.204071 -0.000102701 0.466535 0.000146698 0.779274 0.000139896
-0.273821 -0.000137803 0.440664 0.000138563 0.770045 0.00013824
-0.347566 -0.000174915 0.397358 0.000124946 0.761378 0.000136684
-0.425641 -0.000214208 0.335216 0.000105406 0.752351 0.000135063
-0.507718 -0.000255513 0.254097 7.98984e-05 0.741206 0.000133062
-0.593607 -0.000298738 0.154949 4.87223e-05 0.726391 0.000130403
-0.683232 -0.000343842 0.0390428 1.22767e-05 0.705598 0.00012667
-0.776002 -0.00039053 -0.0927654 -2.91693e-05 0.67545 0.000121258
-0.871108 -0.000438393 -0.240365 -7.55806e-05 0.633085 0.000113652
-0.967865 -0.000487086 -0.39873 -0.000125377 0.574353 0.000103109
-1.06553 -0.000536239 -0.564992 -0.000177657 0.495929 8.90298e-05
-1.16338 -0.000585479 -0.736668 -0.000231638 0.393986 7.07288e-05
-1.26074 -0.00063448 -0.911244 -0.000286533 0.264783 4.75342e-05
-1.35696 -0.000682901 -1.08562 -0.000341363 0.106357 1.90934e-05
-1.45136 -0.000730412 -1.25657 -0.000395118 -0.077557 -1.39231e-05
-1.54315 -0.000776603 -1.42217 -0.000447188 -0.284926 -5.11502e-05
-1.6316 -0.000821115 -1.5807 -0.000497037 -0.522733 -9.38418e-05
-1.71593 -0.000863556 -1.73026 -0.000544064 -0.79203 -0.000142186
-1.79549 -0.000903597 -1.86977 -0.000587933 -1.09227 -0.000196086
-1.86957 -0.000940879 -1.99878 -0.000628499 -1.41953 -0.000254837
-1.93758 -0.000975104 -2.11702 -0.000665679 -1.77042 -0.000317827
-1.99916 -0.00100609 -2.22447 -0.000699464 -2.1417 -0.000384481
-2.05427 -0.00103383 -2.32146 -0.000729963 -2.52945 -0.000454089
-2.10323 -0.00105847 -2.4086 -0.000757361 -2.92788 -0.000525617
-2.14653 -0.00108026 -2.48657 -0.00078188 -3.33079 -0.000597947
-2.1848 -0.00109952 -2.55624 -0.000803785 -3.73228 -0.000670024
-2.21868 -0.00111657 -2.61863 -0.000823405 -4.12661 -0.000740815
-2.24875 -0.0011317 -2.67494 -0.000841112 -4.50741 -0.000809177
-2.27545 -0.00114514 -2.72639 -0.000857288 -4.86818 -0.000873942
-2.29923 -0.00115711 -2.77412 -0.000872296 -5.203 -0.000934049
-2.32055 -0.00116784 -2.81915 -0.000886455 -5.50669 -0.000988569
-2.33996 -0.0011776 -2.86225 -0.000900009 -5.77457 -0.00103666
-2.35892 -0.00118715 -2.89847 -0.000911398 -5.82197 -0.00104517
-2.37675 -0.00119612 -2.93634 -0.000923305 -5.80469 -0.00104207
-2.39492 -0.00120526 -2.97315 -0.00093488 -5.79169 -0.00103973
-2.41312 -0.00121442 -3.00677 -0.000945451 -5.80599 -0.0010423
-2.43212 -0.00122399 -3.03955 -0.00095576 -5.82864 -0.00104637
-2.45176 -0.00123387 -3.07156 -0.000965824 -5.82791 -0.00104623
-2.4718 -0.00124395 -3.10051 -0.000974926 -5.78975 -0.00103938
-2.49175 -0.00125399 -3.12498 -0.000982621 -5.71493 -0.00102595
-2.51075 -0.00126356 -3.14538 -0.000989037 -5.60426 -0.00100608
-2.52764 -0.00127206 -3.16127 -0.000994032 -5.45094 -0.00097856
-2.54106 -0.00127881 -3.1716 -0.000997281 -5.2569 -0.000943725
-2.54796 -0.00128228 -3.17626 -0.000998746 -5.0337 -0.000903655
-2.54751 -0.00128206 -3.17443 -0.000998172 -4.78874 -0.000859682
-2.53925 -0.0012779 -3.16443 -0.000995026 -4.52323 -0.000812016
-2.52322 -0.00126983 -3.14412 -0.000988642 -4.2398 -0.000761134
-2.50015 -0.00125822 -3.1119 -0.00097851 -3.94672 -0.000708519
-2.47075 -0.00124343 -3.06641 -0.000964204 -3.65189 -0.000655591
-2.43559 -0.00122573 -3.00648 -0.000945359 -3.35914 -0.000603038
-2.39508 -0.00120535 -2.93152 -0.00092179 -3.07068 -0.000551252
-2.34939 -0.00118235 -2.84163 -0.000893524 -2.79053 -0.000500959
-2.29829 -0.00115663 -2.73745 -0.000860768 -2.52303 -0.000452938
-2.24125 -0.00112793 -2.62024 -0.000823911 -2.2703 -0.000407568
-2.17749 -0.00109584 -2.4918 -0.000783524 -2.03249 -0.000364875
-2.10593 -0.00105983 -2.35441 -0.000740324 -1.80977 -0.000324892
-2.02545 -0.00101933 -2.21057 -0.000695094 -1.60265 -0.000287709
-1.93532 -0.000973966 -2.0627 -0.000648596 -1.41096 -0.000253298
-1.83563 -0.000923794 -1.91292 -0.000601502 -1.23352 -0.000221444
-1.72723 -0.000869244 -1.76304 -0.000554371 -1.06897 -0.000191902
-1.61147 -0.000810987 -1.61447 -0.000507655 -0.916322 -0.000164499
-1.48991 -0.000749809 -1.46838 -0.000461717 -0.774676 -0.000139071
-1.36417 -0.00068653 -1.32571 -0.000416859 -0.642745 -0.000115386
-1.23587 -0.000621961 -1.18726 -0.000373322 -0.519078 -9.31855e-05
-1.10653 -0.000556871 -1.0536 -0.000331295 -0.402441 -7.22468e-05
-0.977507 -0.000491939 -0.925216 -0.000290926 -0.291825 -5.23888e-05
-0.849881 -0.00042771 -0.802508 -0.000252342 -0.186199 -3.34267e-05
-0.724308 -0.000364514 -0.685863 -0.000215664 -0.0844435 -1.51594e-05
-0.60087 -0.000302393 -0.576055 -0.000181135 0.00222983 4.00303e-07
-0.479411 -0.000241268 -0.473056 -0.000148748 0.0758196 1.36112e-05
-0.359801 -0.000181073 -0.376857 -0.000118499 0.147162 2.64188e-05
-0.242557 -0.000122069 -0.287392 -9.03679e-05 0.219252 3.93605e-05
-0.128822 -6.48307e-05 -0.203775 -6.40753e-05 0.292187 5.24538e-05
-0.021068 -1.06026e-05 -0.124952 -3.929e-05 0.36335 6.5229e-05
0.0571205 2.87464e-05 -0.0481983 -1.51555e-05 0.432853 7.77063e-05
0.108071 5.43876e-05 0.0311539 9.79606e-06 0.501945 9.01098e-05
0.157105 7.90645e-05 0.104814 3.29577e-05 0.570952 0.000102498
0.200246 0.000100776 0.171042 5.37826e-05 0.64008 0.000114908
0.23723 0.000119388 0.230431 7.2457e-05 0.709691 0.000127405
0.268995 0.000135374 0.284322 8.94024e-05 0.78004 0.000140034
0.294798 0.00014836 0.330713 0.00010399 0.851201 0.000152809
0.314745 0.000158398 0.368576 0.000115895 0.922762 0.000165655
0.329694 0.000165921 0.398322 0.000125249 0.994288 0.000178496
0.339946 0.000171081 0.419565 0.000131928 1.06538 0.000191258
0.346065 0.00017416 0.431727 0.000135753 1.13508 0.000203771
0.348796 0.000175535 0.434904 0.000136752 1.20239 0.000215855
0.348294 0.000175282 0.429373 0.000135012 1.26629 0.000227326
0.34472 0.000173484 0.415683 0.000130708 1.32529 0.000237917
0.338414 0.00017031 0.39473 0.000124119 1.37764 0.000247315
0.329561 0.000165854 0.367596 0.000115587 1.42177 0.000255239
0.318331 0.000160203 0.335532 0.000105505 1.45615 0.000261409
0.304995 0.000153491 0.299804 9.42705e-05 1.47905 0.000265522
0.289841 0.000145865 0.261568 8.22477e-05 1.48895 0.000267299
0.271841 0.000136806 0.222318 6.99059e-05 1.48278 0.00026619
0.251109 0.000126373 0.183093 5.75721e-05 1.45736 0.000261627
0.229213 0.000115353 0.144273 4.53653e-05 1.41166 0.000253423
0.208 0.000104678 0.105853 3.32845e-05 1.34568 0.000241578
0.188926 9.50788e-05 0.0679079 2.1353e-05 1.25997 0.000226192
0.172777 8.69516e-05 0.03071 9.65647e-06 1.15523 0.000207388
0.159701 8.03709e-05 -0.00537764 -1.69095e-06 1.03221 0.000185304
0.149224 7.50985e-05 -0.0404187 -1.27093e-05 0.892256 0.000160179
0.140423 7.06691e-05 -0.0741844 -2.33266e-05 0.737396 0.000132378
0.132259 6.65604e-05 -0.105357 -3.31286e-05 0.569862 0.000102302
0.123958 6.23827e-05 -0.133971 -4.2126e-05 0.391902 7.03547e-05
0.115226 5.79883e-05 -0.160134 -5.03526e-05 0.206443 3.70609e-05
0.105936 5.33133e-05 -0.184334 -5.79622e-05 0.0160081 2.87379e-06
0.0960043 4.8315e-05 -0.206618 -6.49692e-05 -0.168738 -3.02921e-05
0.0856331 4.30956e-05 -0.228397 -7.18174e-05 -0.347451 -6.23748e-05
0.0752414 3.78659e-05 -0.250224 -7.86806e-05 -0.520949 -9.35215e-05
0.0655044 3.29657e-05 -0.272816 -8.57846e-05 -0.687042 -0.000123339
0.0572062 2.87895e-05 -0.297024 -9.33965e-05 -0.842513 -0.000151249
0.0512131 2.57734e-05 -0.323493 -0.000101719 -0.98394 -0.000176638
0.0484291 2.43724e-05 -0.35245 -0.000110825 -1.10938 -0.000199158
0.0497546 2.50394e-05 -0.383866 -0.000120703 -1.21803 -0.000218663
0.0560236 2.81943e-05 -0.417428 -0.000131256 -1.30897 -0.000234988
0.0679479 3.41954e-05 -0.452372 -0.000142244 -1.38123 -0.00024796
0.0861429 4.33522e-05 -0.487525 -0.000153298 -1.43465 -0.000257551
0.11124 5.59823e-05 -0.521433 -0.00016396 -1.47009 -0.000263912
0.132464 6.66635e-05 -0.549151 -0.000172676 -1.48934 -0.000267369
0.145903 7.34268e-05 -0.566958 -0.000178275 -1.49378 -0.000268165
0.16372 8.23933e-05 -0.577944 -0.000181729 -1.48214 -0.000266075
0.184785 9.29945e-05 -0.581187 -0.000182749 -1.45548 -0.000261289
0.208951 0.000105156 -0.575217 -0.000180872 -1.41491 -0.000254006
0.235622 0.000118579 -0.558548 -0.00017563 -1.36123 -0.00024437
0.264239 0.00013298 -0.530781 -0.000166899 -1.29561 -0.00023259
0.294255 0.000148087 -0.491772 -0.000154633 -1.21887 -0.000218812
0.325001 0.00016356 -0.441308 -0.000138765 -1.13125 -0.000203083
0.3557 0.000179009 -0.379598 -0.000119361 -1.03294 -0.000185435
0.385614 0.000194064 -0.307509 -9.66934e-05 -0.924156 -0.000165906
0.412792 0.000207741 -0.227097 -7.14086e-05 -0.804423 -0.000144411
0.432368 0.000217593 -0.139589 -4.38927e-05 -0.673009 -0.000120819
0.445088 0.000223994 -0.0440372 -1.38471e-05 -0.530195 -9.51813e-05
0.451887 0.000227416 0.0567261 1.7837e-05 -0.375468 -6.74045e-05
0.452329 0.000227638 0.158817 4.99387e-05 -0.207044 -3.71688e-05
0.447654 0.000225286 0.256632 8.06955e-05 -0.0322512 -5.78978e-06
0.438845 0.000220853 0.348705 0.000109647 0.128124 2.3001e-05
0.426077 0.000214427 0.432808 0.000136093 0.294141 5.28046e-05
0.410419 0.000206547 0.50515 0.00015884 0.471721 8.46839e-05
0.39289 0.000197725 0.563435 0.000177167 0.663062 0.000119034
0.373949 0.000188193 0.60653 0.000190718 0.862782 0.000154888
0.353959 0.000178133 0.633689 0.000199258 1.06681 0.000191516
0.333276 0.000167724 0.6445 0.000202657 1.27338 0.000228599
0.312408 0.000157222 0.639388 0.00020105 1.48117 0.000265902
0.292111 0.000147007 0.619616 0.000194833 1.68531 0.000302548
0.27309 0.000137435 0.586873 0.000184537 1.8796 0.000337429
0.255694 0.00012868 0.54331 0.000170839 2.05922 0.000369674
0.239969 0.000120766 0.491673 0.000154602 2.22048 0.000398624
0.225869 0.00011367 0.43501 0.000136785 2.35879 0.000423453
0.213395 0.000107393 0.37633 0.000118333 2.46877 0.000443196
0.202654 0.000101987 0.318478 0.000100142 2.54599 0.00045706
0.193836 9.75494e-05 0.264058 8.30307e-05 2.58764 0.000464537
0.187088 9.41538e-05 0.215294 6.76971e-05 2.59031 0.000465015
0.182425 9.18072e-05 0.173754 5.46352e-05 2.54629 0.000457113
0.179606 9.03884e-05 0.140826 4.42816e-05 2.45279 0.000440328
0.178198 8.96795e-05 0.117213 3.68567e-05 2.31087 0.000414851
0.177715 8.94367e-05 0.102918 3.23616e-05 2.12379 0.000381266
0.177798 8.94784e-05 0.0973161 3.06002e-05 1.89545 0.000340274
0.17829 8.97258e-05 0.0991423 3.11744e-05 1.63019 0.000292653
0.179143 9.01554e-05 0.106529 3.34971e-05 1.3338 0.000239445
0.180216 9.06955e-05 0.117212 3.68561e-05 1.01359 0.000181962
0.181094 9.11371e-05 0.12877 4.04904e-05 0.677436 0.000121614
0.181218 9.11994e-05 0.138718 4.36187e-05 0.333007 5.97818e-05
0.18012 9.06468e-05 0.144557 4.54546e-05 -0.0116665 -2.09438e-06
0.177307 8.92311e-05 0.145388 4.57158e-05 -0.311866 -5.59867e-05
0.172735 8.69303e-05 0.136307 4.28604e-05 -0.595697 -0.00010694
0.165858 8.34695e-05 0.11583 3.64216e-05 -0.862159 -0.000154776
0.155744 7.83797e-05 0.0848759 2.66884e-05 -1.10939 -0.000199158
0.141351 7.1136e-05 0.0419212 1.31817e-05 -1.33139 -0.000239014
0.122203 6.15e-05 -0.0130093 -4.09066e-06 -1.52138 -0.00027312
0.0993891 5.00184e-05 -0.0793662 -2.4956e-05 -1.67838 -0.000301305
0.0721202 3.62951e-05 -0.156252 -4.9132e-05 -1.80429 -0.000323909
0.0411263 2.06972e-05 -0.242294 -7.61872e-05 -1.89935 -0.000340974
0.0074128 3.73055e-06 -0.335826 -0.000105598 -1.96239 -0.00035229
-0.0253891 -1.27773e-05 -0.434034 -0.000136478 -1.99489 -0.000358126
-0.0582796 -2.93297e-05 -0.534774 -0.000168155 -2.00039 -0.000359113
-0.0940275 -4.73201e-05 -0.634226 -0.000199427 -1.98092 -0.000355618
-0.128556 -6.46971e-05 -0.730686 -0.000229758 -1.93806 -0.000347924
-0.160957 -8.10031e-05 -0.821174 -0.000258211 -1.87567 -0.000336722
-0.190371 -9.58056e-05 -0.902829 -0.000283887 -1.79919 -0.000322992
-0.216071 -0.00010874 -0.972989 -0.000305948 -1.71388 -0.000307679
-0.237243 -0.000119394 -1.0292 -0.000323622 -1.62386 -0.000291518
-0.253181 -0.000127415 -1.06954 -0.000336307 -1.5325 -0.000275117
-0.263294 -0.000132505 -1.09255 -0.000343544 -1.44321 -0.000259087
-0.267116 -0.000134428 -1.09719 -0.000345003 -1.35903 -0.000243975
-0.264376 -0.00013305 -1.0829 -0.00034051 -1.2819 -0.000230128
-0.255574 -0.00012862 -1.04948 -0.000329998 -1.21264 -0.000217694
-0.242328 -0.000121954 -0.997147 -0.000313544 -1.15133 -0.000206688
-0.225737 -0.000113604 -0.92702 -0.000291493 -1.09735 -0.000196997
-0.206855 -0.000104101 -0.8409 -0.000264413 -1.04921 -0.000188355
-0.186507 -9.38614e-05 -0.741312 -0.000233099 -1.00441 -0.000180313
-0.160113 -8.05782e-05 -0.632921 -0.000199016 -0.959307 -0.000172216
-0.132224 -6.6543e-05 -0.517852 -0.000162834 -0.911358 -0.000163608
-0.103996 -5.23368e-05 -0.399368 -0.000125578 -0.85686 -0.000153825
-0.0756698 -3.80815e-05 -0.280897 -8.83255e-05 -0.792461 -0.000142264
-0.0477925 -2.4052e-05 -0.166119 -5.22348e-05 -0.714995 -0.000128357
-0.0209242 -1.05303e-05 -0.0584819 -1.83891e-05 -0.62148 -0.000111569
0.00284294 1.43074e-06 0.0381806 1.20055e-05 -0.509485 -9.14635e-05
0.0242142 1.2186e-05 0.122958 3.86631e-05 -0.377987 -6.78567e-05
0.0456334 2.29654e-05 0.192223 6.04429e-05 -0.227922 -4.09169e-05
0.0680666 3.42551e-05 0.245362 7.71519e-05 -0.0581435 -1.0438e-05
0.0917679 4.6183e-05 0.281554 8.8532e-05 0.101014 1.81342e-05
0.117932 5.93505e-05 0.302348 9.50706e-05 0.264995 4.75723e-05
0.145679 7.33144e-05 0.308517 9.70104e-05 0.437947 7.86208e-05
0.156736 7.88786e-05 0.309236 9.72365e-05 0.616036 0.000110592
0.169171 8.51367e-05 0.300031 9.4342e-05 0.796708 0.000143026
0.183418 9.23069e-05 0.281636 8.85581e-05 0.972295 0.000174548
0.200526 0.000100916 0.256578 8.06788e-05 1.13885 0.000204447
0.221036 0.000111238 0.227933 7.16715e-05 1.29447 0.000232386
0.245118 0.000123358 0.198779 6.25044e-05 1.43469 0.000257557
0.272889 0.000137334 0.172088 5.41117e-05 1.55328 0.000278847
0.303935 0.000152958 0.150792 4.74153e-05 1.64642 0.000295567
0.337747 0.000169974 0.137918 4.33669e-05 1.71228 0.000307392
0.373707 0.000188071 0.135947 4.27473e-05 1.749 0.000313983
0.411046 0.000206863 0.146518 4.60714e-05 1.75398 0.000314877
0.449184 0.000226056 0.170497 5.36113e-05 1.7232 0.000309351
0.487823 0.000245501 0.208162 6.54545e-05 1.65696 0.000297459
0.52672 0.000265076 0.258762 8.13653e-05 1.55813 0.000279718
0.565585 0.000284635 0.320749 0.000100856 1.43082 0.000256863
0.604038 0.000303988 0.392098 0.000123292 1.27984 0.000229759
0.640243 0.000322208 0.470807 0.000148041 1.1107 0.000199393
0.672339 0.00033836 0.554397 0.000174325 0.929796 0.000166918
0.701193 0.000352881 0.638898 0.000200896 0.744476 0.000133649
0.72763 0.000366186 0.720061 0.000226417 0.562009 0.000100893
0.752551 0.000378728 0.793933 0.000249645 0.38938 6.9902e-05
0.776849 0.000390956 0.856931 0.000269454 0.233069 4.18409e-05
0.801292 0.000403257 0.905967 0.000284873 0.0987671 1.77308e-05
0.826449 0.000415918 0.938833 0.000295208 -0.00804466 -1.44419e-06
0.852552 0.000429054 0.954459 0.000300121 -0.0827683 -1.48587e-05
0.879565 0.000442648 0.952379 0.000299467 -0.124535 -2.23566e-05
0.895247 0.000450541 0.938418 0.000295077 -0.139254 -2.4999e-05
0.905335 0.000455617 0.911526 0.000286621 -0.125618 -2.25512e-05
0.911398 0.000458669 0.871998 0.000274192 -0.0822653 -1.47684e-05
0.915084 0.000460524 0.821208 0.000258221 -0.0151738 -2.72402e-06
0.91697 0.000461473 0.761945 0.000239587 0.0680409 1.22148e-05
0.917431 0.000461705 0.697661 0.000219373 0.164621 2.9553e-05
0.917344 0.000461661 0.631584 0.000198596 0.27242 4.89052e-05
0.917373 0.000461676 0.566897 0.000178256 0.387379 6.95428e-05
0.918203 0.000462094 0.507175 0.000159477 0.504409 9.05522e-05
0.920711 0.000463356 0.455831 0.000143332 0.618312 0.000111
0.92571 0.000465871 0.415562 0.00013067 0.724668 0.000130093
0.933952 0.000470019 0.388647 0.000122207 0.820309 0.000147263
0.946132 0.000476149 0.377056 0.000118562 0.902411 0.000162002
0.962773 0.000484524 0.382088 0.000120144 0.968492 0.000173865
0.984179 0.000495297 0.404287 0.000127124 1.01707 0.000182585
1.00948 0.000508028 0.443096 0.000139328 1.04818 0.000188171
1.03774 0.000522253 0.496599 0.000156151 1.06325 0.000190875
1.06946 0.000538215 0.564649 0.000177549 1.06282 0.000190799
1.10529 0.000556245 0.645903 0.000203098 1.04777 0.000188097
1.14345 0.00057545 0.737949 0.000232041 1.02136 0.000183356
1.18174 0.000594719 0.839309 0.000263913 0.987247 0.000177232
1.21802 0.000612978 0.947675 0.000297988 0.949723 0.000170495
1.25054 0.000629344 1.0598 0.000333243 0.913667 0.000164023
1.27817 0.00064325 1.17241 0.000368654 0.883929 0.000158684
1.30039 0.000654432 1.28187 0.000403073 0.86532 0.000155343
1.31699 0.000662788 1.38422 0.000435254 0.862486 0.000154835
1.32795 0.000668302 1.47582 0.000464059 0.879488 0.000157887
1.33288 0.000670781 1.55368 0.000488541 0.919446 0.00016506
1.33093 0.000669803 1.61542 0.000507955 0.984395 0.00017672
1.32075 0.000664677 1.6589 0.000521626 1.07148 0.000192354
1.30117 0.000654824 1.68229 0.00052898 1.17602 0.000211121
1.27167 0.00063998 1.68543 0.000529967 1.3013 0.000233611
1.23168 0.000619852 1.66845 0.00052463 1.447 0.000259767
1.18059 0.000594143 1.63222 0.000513237 1.6097 0.000288975
1.11834 0.000562813 1.57817 0.000496243 1.78442 0.000320342
1.04543 0.000526124 1.50797 0.000474168 1.9655 0.00035285
0.962966 0.000484621 1.42342 0.000447583 2.14801 0.000385613
0.8725 0.000439093 1.3266 0.000417139 2.32644 0.000417645
0.775718 0.000390387 1.21981 0.000383558 2.49434 0.000447787
0.67431 0.000339352 1.10544 0.000347595 2.645 0.000474833
0.570119 0.000286917 0.985887 0.000310003 2.77242 0.000497708
0.465192 0.000234112 0.863464 0.000271508 2.8712 0.000515441
0.361596 0.000181976 0.740337 0.000232792 2.93614 0.000527099
0.261057 0.000131379 0.618593 0.000194511 2.96246 0.000531825
0.164745 8.29096e-05 0.500163 0.000157272 2.94373 0.000528461
0.0732195 3.68483e-05 0.386839 0.000121638 2.87462 0.000516055
-0.00976535 -4.9145e-06 0.282064 8.86926e-05 2.75224 0.000494086
-0.0833245 -4.19338e-05 0.187665 5.90095e-05 2.57613 0.00046247
-0.133929 -6.74008e-05 0.0940246 2.95652e-05 2.35117 0.000422085
-0.179068 -9.01177e-05 0.00699376 2.19912e-06 2.07651 0.000372778
-0.218439 -0.000109931 -0.0704155 -2.21415e-05 1.75573 0.00031519
-0.252473 -0.000127059 -0.138674 -4.36049e-05 1.39353 0.000250168
-0.282071 -0.000141955 -0.201573 -6.33827e-05 0.996124 0.000178825
-0.307169 -0.000154586 -0.257867 -8.10841e-05 0.569409 0.000102221
-0.328809 -0.000165476 -0.30786 -9.68036e-05 0.121471 2.18067e-05
-0.348862 -0.000175568 -0.350157 -0.000110104 -0.28443 -5.10613e-05
-0.368185 -0.000185292 -0.390189 -0.000122692 -0.674139 -0.000121022
-0.388588 -0.00019556 -0.428145 -0.000134626 -1.06025 -0.000190337
-0.411711 -0.000207197 -0.464777 -0.000146145 -1.44419 -0.000259263
-0.438774 -0.000220817 -0.502372 -0.000157966 -1.81713 -0.000326214
-0.470633 -0.00023685 -0.543476 -0.000170891 -2.16543 -0.000388741
-0.507743 -0.000255526 -0.589591 -0.000185392 -2.48267 -0.000445692
-0.550149 -0.000276867 -0.642042 -0.000201884 -2.7691 -0.000497112
-0.597669 -0.000300782 -0.702554 -0.000220912 -3.02194 -0.000542502
-0.650015 -0.000327126 -0.772443 -0.000242888 -3.23434 -0.000580633
-0.706752 -0.000355679 -0.852137 -0.000267947 -3.40178 -0.000610691
-0.767302 -0.000386151 -0.941538 -0.000296058 -3.52503 -0.000632818
-0.831035 -0.000418226 -1.04016 -0.000327069 -3.60611 -0.000647373
-0.897439 -0.000451644 -1.14683 -0.000360611 -3.64516 -0.000654384
-0.966237 -0.000486267 -1.25958 -0.000396064 -3.64112 -0.000653659
-1.03731 -0.000522033 -1.37576 -0.000432596 -3.59233 -0.0006449
-1.11046 -0.000558848 -1.49276 -0.000469386 -3.50344 -0.000628942
-1.18532 -0.000596522 -1.60768 -0.000505522 -3.38066 -0.0006069
-1.26133 -0.000634775 -1.71761 -0.000540085 -3.23016 -0.000579882
-1.33789 -0.000673306 -1.8198 -0.00057222 -3.05861 -0.000549085
-1.41444 -0.000711827 -1.91178 -0.000601141 -2.87286 -0.000515739
-1.49025 -0.000749982 -1.99138 -0.000626171 -2.67972 -0.000481067
-1.56434 -0.000787269 -2.05703 -0.000646815 -2.48541 -0.000446184
-1.63549 -0.000823072 -2.10783 -0.000662788 -2.29551 -0.000412093
-1.70243 -0.000856761 -2.14342 -0.00067398 -2.11494 -0.000379676
-1.76406 -0.00088778 -2.16395 -0.000680433 -1.94789 -0.000349687
-1.81964 -0.000915752 -2.16991 -0.00068231 -1.79771 -0.000322727
-1.86898 -0.000940582 -2.16216 -0.000679872 -1.66688 -0.00029924
-1.91253 -0.000962497 -2.14175 -0.000673454 -1.55699 -0.000279513
-1.95115 -0.000981933 -2.11003 -0.000663479 -1.46882 -0.000263685
-1.9859 -0.000999422 -2.06873 -0.000650492 -1.40231 -0.000251744
-2.01784 -0.00101549 -2.02 -0.000635171 -1.35655 -0.000243529
-2.04784 -0.00103059 -1.96641 -0.000618321 -1.32988 -0.000238741
-2.07652 -0.00104503 -1.91088 -0.000600859 -1.32006 -0.000236979
-2.10426 -0.00105899 -1.85654 -0.000583773 -1.32444 -0.000237765
-2.13136 -0.00107262 -1.80657 -0.000568058 -1.34013 -0.000240582
-2.15806 -0.00108606 -1.76398 -0.000554668 -1.36422 -0.000244906
-2.18453 -0.00109938 -1.73156 -0.000544474 -1.39393 -0.00025024
-2.21083 -0.00111262 -1.7117 -0.00053823 -1.42686 -0.000256151
-2.23686 -0.00112572 -1.70634 -0.000536545 -1.46106 -0.000262291
-2.26241 -0.00113858 -1.71684 -0.000539846 -1.49519 -0.000268418
-2.28716 -0.00115103 -1.7439 -0.000548352 -1.5286 -0.000274416
-2.31075 -0.00116291 -1.78749 -0.00056206 -1.56139 -0.000280303
-2.33213 -0.00117367 -1.84711 -0.000580808 -1.59435 -0.000286219
-2.34567 -0.00118048 -1.92331 -0.000604767 -1.62839 -0.000292331
-2.35082 -0.00118307 -2.01386 -0.000633241 -1.66605 -0.000299091
-2.3479 -0.0011816 -2.11513 -0.000665083 -1.71037 -0.000307047
-2.33768 -0.00117646 -2.22269 -0.000698904 -1.76479 -0.000316817
-2.32077 -0.00116795 -2.33184 -0.000733227 -1.83304 -0.00032907
-2.29735 -0.00115616 -2.43773 -0.000766521 -1.91869 -0.000344445
-2.26758 -0.00114118 -2.5358 -0.000797361 -2.02456 -0.000363452
-2.23128 -0.00112291 -2.62198 -0.000824458 -2.15281 -0.000386474
-2.1878 -0.00110103 -2.69275 -0.000846712 -2.30469 -0.000413741
-2.13607 -0.00107499 -2.7454 -0.000863267 -2.48029 -0.000445264
-2.07468 -0.0010441 -2.77795 -0.0008735 -2.67839 -0.000480828
-2.00216 -0.00100761 -2.78911 -0.00087701 -2.89662 -0.000520005
-1.91719 -0.000964843 -2.77828 -0.000873606 -3.13145 -0.000562162
-1.81863 -0.000915241 -2.74543 -0.000863276 -3.37823 -0.000606464
-1.70581 -0.000858463 -2.69089 -0.000846126 -3.62668 -0.000651066
-1.57897 -0.000794632 -2.61401 -0.000821953 -3.83793 -0.00068899
-1.43881 -0.000724094 -2.51761 -0.000791641 -4.03809 -0.000724924
-1.28695 -0.000647669 -2.40172 -0.0007552 -4.22882 -0.000759163
-1.12539 -0.00056636 -2.26744 -0.000712977 -4.40626 -0.000791017
-0.956153 -0.000481192 -2.11673 -0.000665586 -4.56114 -0.000818822
-0.781024 -0.000393057 -1.95153 -0.00061364 -4.6836 -0.000840805
-0.601336 -0.000302627 -1.7738 -0.000557755 -4.76947 -0.000856221
-0.418091 -0.000210408 -1.58594 -0.000498684 -4.81571 -0.000864523
-0.232172 -0.000116843 -1.39047 -0.000437221 -4.81404 -0.000864223
-0.0988269 -4.97355e-05 -1.17293 -0.000368816 -4.75547 -0.000853708
0.0271637 1.36704e-05 -0.95138 -0.000299153 -4.62482 -0.000830254
0.14147 7.11961e-05 -0.740711 -0.00023291 -4.41933 -0.000793363
0.250344 0.000125988 -0.538106 -0.000169203 -4.14077 -0.000743356
0.358356 0.000180346 -0.338536 -0.00010645 -3.78846 -0.000680109
0.461006 0.000232005 -0.147699 -4.64427e-05 -3.36163 -0.000603484
0.557579 0.000280606 0.0316786 9.96105e-06 -2.86449 -0.000514237
0.649778 0.000327007 0.201668 6.34128e-05 -2.30315 -0.000413464
0.736147 0.000370473 0.361599 0.000113701 -1.68219 -0.000301988
0.81629 0.000410805 0.506971 0.000159413 -1.01232 -0.000181733
0.891705 0.000448758 0.64346 0.00020233 -0.303094 -5.44118e-05
0.963135 0.000484706 0.769443 0.000241944 0.329897 5.92236e-05
1.03094 0.000518832 0.890067 0.000279874 0.920961 0.000165332
1.09743 0.000552291 1.00576 0.000316251 1.51454 0.000271893
1.16379 0.00058569 1.11667 0.000351128 2.11766 0.000380166
1.23183 0.00061993 1.22568 0.000385403 2.71725 0.000487805
1.30308 0.000655787 1.33548 0.000419931 3.28859 0.000590372
1.37886 0.000693924 1.4471 0.000455028 3.8235 0.0006864
1.46017 0.000734844 1.56178 0.000491089 4.32499 0.000776428
1.54774 0.000778914 1.68153 0.000528743 4.78924 0.000859771
1.64203 0.000826368 1.80798 0.000568502 5.20289 0.000934029
1.74344 0.000877401 1.94186 0.000610601 5.55711 0.00099762
1.85307 0.000932572 2.07707 0.000653115 5.66062 0.0010162
1.96925 0.000991043 2.22324 0.000699078 5.66325 0.00101667
2.09257 0.0010531 2.37812 0.000747778 5.65452 0.00101511
2.22122 0.00111785 2.5379 0.000798019 5.67014 0.00101791
2.3549 0.00118512 2.70422 0.000850318 5.69651 0.00102265
2.49207 0.00125416 2.87661 0.000904525 5.69881 0.00102306
2.63186 0.00132451 3.05119 0.00095942 5.65691 0.00101554
2.77326 0.00139567 3.22398 0.00101375 5.56984 0.000999905
2.91522 0.00146711 3.39345 0.00106704 5.44549 0.000977581
3.05486 0.00153738 3.55779 0.00111871 5.28169 0.000948177
3.1451 0.0015828 3.73236 0.00117361 5.07687 0.000911407
3.20455 0.00161272 3.86927 0.00121666 4.86617 0.000873581
3.20886 0.00161489 3.93862 0.00123846 4.67045 0.000838445
3.21721 0.00161909 3.99083 0.00125488 4.46716 0.00080195
3.24938 0.00163528 4.05397 0.00127474 4.24961 0.000762895
3.2636 0.00164243 4.0942 0.00128738 4.04712 0.000726545
3.26737 0.00164433 4.11662 0.00129443 3.85558 0.000692159
3.28551 0.00165346 4.14021 0.00130185 3.66402 0.00065777
3.29923 0.00166037 4.14857 0.00130448 3.49212 0.000626909
3.30422 0.00166288 4.14171 0.00130232 3.3459 0.00060066
3.31272 0.00166716 4.13156 0.00129913 3.21603 0.000577346
3.32174 0.00167169 4.11294 0.00129328 3.10511 0.000557433
3.32596 0.00167382 4.08211 0.00128358 3.02114 0.000542358
3.32741 0.00167455 4.044 0.0012716 2.96436 0.000532166
3.32452 0.00167309 3.99567 0.0012564 2.93239 0.000526426
3.31442 0.00166801 3.93599 0.00123764 2.92352 0.000524835
3.3004 0.00166096 3.8703 0.00121698 2.93675 0.000527209
3.28367 0.00165254 3.80178 0.00119543 2.96994 0.000533168
3.26464 0.00164296 3.73173 0.00117341 3.01851 0.000541887
3.24528 0.00163322 3.66359 0.00115198 3.07753 0.000552482
3.22702 0.00162402 3.60071 0.00113221 3.14379 0.000564377
3.21077 0.00161585 3.54548 0.00111484 3.21406 0.000576993
3.1979 0.00160937 3.50029 0.00110063 3.28415 0.000589575
3.18942 0.0016051 3.4673 0.00109026 3.35035 0.000601459
3.18598 0.00160337 3.44827 0.00108428 3.41018 0.0006122
3.18821 0.00160449 3.44447 0.00108308 3.46186 0.000621477
3.19647 0.00160865 3.45652 0.00108687 3.50404 0.00062905
3.21079 0.00161586 3.48455 0.00109568 3.53612 0.000634809
3.23109 0.00162607 3.52824 0.00110942 3.55843 0.000638814
3.25704 0.00163913 3.58666 0.00112779 3.57221 0.000641287
3.28806 0.00165474 3.65832 0.00115032 3.57937 0.000642572
3.32338 0.00167252 3.74139 0.00117645 3.58236 0.000643111
3.35951 0.0016907 3.83442 0.0012057 3.58395 0.000643394
3.37581 0.00169891 3.92881 0.00123538 3.59016 0.00064451
3.36745 0.0016947 4.01752 0.00126327 3.60656 0.000647454
3.36103 0.00169147 4.11429 0.0012937 3.62874 0.000651437
3.3573 0.00168959 4.2106 0.00132399 3.65639 0.0006564
3.34599 0.0016839 4.2925 0.00134974 3.67749 0.000660188
3.32782 0.00167476 4.37294 0.00137503 3.71817 0.000667491
3.29841 0.00165995 4.4485 0.00139879 3.78503 0.000679494
3.25319 0.00163719 4.51216 0.00141881 3.88003 0.000696549
3.19514 0.00160798 4.56337 0.00143491 4.00301 0.000718625
3.1243 0.00157233 4.59972 0.00144634 4.15136 0.000745257
3.03918 0.00152949 4.61772 0.001452 4.32972 0.000777277
2.9411 0.00148014 4.61001 0.00144958 4.5302 0.000813268
2.83242 0.00142544 4.58587 0.00144199 4.75772 0.000854113
2.71132 0.00136449 4.54432 0.00142892 5.00446 0.000898408
2.57984 0.00129833 4.47934 0.00140849 5.25943 0.00094418
2.43908 0.00122749 4.38664 0.00137934 5.51475 0.000990016
2.28988 0.0011524 4.26952 0.00134251 5.69065 0.00102159
2.13382 0.00107386 4.13063 0.00129884 5.72924 0.00102852
1.97122 0.000992036 3.97639 0.00125034 5.71598 0.00102614
1.8028 0.000907276 3.80359 0.00119601 5.72585 0.00102791
1.62892 0.00081977 3.61831 0.00113774 5.76707 0.00103531
1.45048 0.000729967 3.42774 0.00107782 5.79846 0.00104095
1.26879 0.000638529 3.23372 0.00101681 5.79718 0.00104072
1.08525 0.000546161 3.03696 0.000954946 5.7854 0.0010386
0.901702 0.000453789 2.83992 0.000892987 5.74322 0.00103103
0.719422 0.000362055 2.64623 0.000832082 5.64126 0.00101273
0.539357 0.000271436 2.45741 0.000772711 5.45788 0.000979805
0.362168 0.000182264 2.27382 0.000714983 5.19822 0.000933191
0.188169 9.46979e-05 2.09655 0.00065924 4.87726 0.000875572
0.0732689 3.68732e-05 1.90819 0.000600012 4.50152 0.000808118
-0.0104624 -5.26529e-06 1.72349 0.000541935 4.05513 0.000727982
-0.0797896 -4.01548e-05 1.5493 0.000487163 3.54212 0.000635885
-0.133418 -6.71435e-05 1.39903 0.000439911 2.97143 0.000533434
-0.18141 -9.12962e-05 1.25888 0.000395842 2.35791 0.000423295
-0.229033 -0.000115263 1.12363 0.000353316 1.70621 0.000306302
-0.27196 -0.000136866 0.999338 0.000314233 1.02129 0.000183343
-0.311446 -0.000156738 0.884795 0.000278216 0.317356 5.69721e-05
-0.351246 -0.000176767 0.782681 0.000246107 -0.220977 -3.96701e-05
-0.388907 -0.000195721 0.684665 0.000215287 -0.657174 -0.000117977
-0.426137 -0.000214457 0.591156 0.000185884 -1.07816 -0.000193552
-0.464092 -0.000233558 0.502469 0.000157997 -1.50709 -0.000270555
-0.503224 -0.000253252 0.415581 0.000130676 -1.93692 -0.000347717
-0.543952 -0.000273749 0.327041 0.000102835 -2.33056 -0.000418386
-0.587585 -0.000295707 0.236299 7.4302e-05 -2.67917 -0.000480968
-0.634233 -0.000319183 0.140881 4.42987e-05 -2.99824 -0.000538249
-0.684455 -0.000344458 0.0447673 1.40767e-05 -3.29231 -0.00059104
-0.738672 -0.000371743 -0.0569488 -1.7907e-05 -3.54649 -0.000636671
-0.797485 -0.000401341 -0.164281 -5.16566e-05 -3.74923 -0.000673066
-0.860571 -0.00043309 -0.276746 -8.70204e-05 -3.90544 -0.00070111
-0.92818 -0.000467114 -0.394638 -0.00012409 -4.02344 -0.000722292
-0.999934 -0.000503225 -0.517699 -0.000162786 -4.10075 -0.000736173
-1.07537 -0.000541188 -0.644931 -0.000202793 -4.1315 -0.000741691
-1.154 -0.000580759 -0.774975 -0.000243684 -4.10931 -0.000737708
-1.23524 -0.000621644 -0.906034 -0.000284894 -4.02778 -0.000723073
-1.31837 -0.000663479 -1.03666 -0.000325969 -3.89129 -0.000698569
-1.40262 -0.000705881 -1.16481 -0.000366263 -3.70443 -0.000665024
-1.4872 -0.000748444 -1.2884 -0.000405126 -3.47566 -0.000623954
-1.57117 -0.000790702 -1.40555 -0.000441962 -3.21471 -0.000577108
-1.65357 -0.000832173 -1.51441 -0.000476191 -2.93053 -0.000526093
-1.73342 -0.000872357 -1.61317 -0.000507247 -2.63083 -0.000472291
-1.80971 -0.000910753 -1.7003 -0.000534644 -2.32434 -0.000417268
-1.88153 -0.000946896 -1.77457 -0.000557998 -2.02021 -0.000362672
-1.93521 -0.000973912 -1.82406 -0.000573559 -1.7843 -0.00032032
-1.98517 -0.000999052 -1.8643 -0.000586212 -1.55883 -0.000279843
-2.03115 -0.00102219 -1.89504 -0.000595878 -1.34699 -0.000241813
-2.073 -0.00104326 -1.91618 -0.000602527 -1.15181 -0.000206774
-2.11067 -0.00106221 -1.92778 -0.000606172 -0.976069 -0.000175225
-2.14418 -0.00107908 -1.92991 -0.000606843 -0.821974 -0.000147562
-2.17365 -0.00109391 -1.92287 -0.000604629 -0.69098 -0.000124046
-2.19928 -0.00110681 -1.90716 -0.00059969 -0.584101 -0.000104859
-2.22134 -0.00111791 -1.88352 -0.000592256 -0.501914 -9.01043e-05
-2.2402 -0.0011274 -1.85285 -0.000582611 -0.444619 -7.98185e-05
-2.25626 -0.00113548 -1.81618 -0.00057108 -0.411958 -7.39552e-05
-2.26996 -0.00114238 -1.77469 -0.000558036 -0.403138 -7.23718e-05
-2.28179 -0.00114833 -1.72972 -0.000543896 -0.416879 -7.48386e-05
-2.29227 -0.00115361 -1.68265 -0.000529093 -0.451565 -8.10655e-05
-2.30195 -0.00115847 -1.63501 -0.000514114 -0.505253 -9.07037e-05
-2.3114 -0.00116323 -1.58842 -0.000499465 -0.575809 -0.00010337
-2.32121 -0.00116817 -1.54453 -0.000485665 -0.660883 -0.000118643
-2.33195 -0.00117357 -1.50501 -0.000473238 -0.757949 -0.000136068
-2.34419 -0.00117973 -1.47146 -0.000462687 -0.864415 -0.000155181
-2.35847 -0.00118692 -1.44539 -0.000454489 -0.977743 -0.000175526
-2.37529 -0.00119539 -1.42821 -0.000449089 -1.09553 -0.000196671
-2.3949 -0.00120525 -1.42097 -0.00044681 -1.21566 -0.000218237
-2.41769 -0.00121672 -1.42473 -0.000447995 -1.33596 -0.000239834
-2.44419 -0.00123006 -1.44059 -0.000452979 -1.45464 -0.00026114
-2.47433 -0.00124523 -1.46938 -0.000462034 -1.5701 -0.000281867
-2.49741 -0.00125684 -1.51787 -0.000477281 -1.67928 -0.000301466
-2.52251 -0.00126947 -1.5833 -0.000497856 -1.78251 -0.000319998
-2.55053 -0.00128357 -1.66214 -0.000522644 -1.88089 -0.000337659
-2.58204 -0.00129943 -1.75223 -0.000550974 -1.97521 -0.000354593
-2.61732 -0.00131719 -1.85187 -0.000582303 -2.06249 -0.00037026
-2.65656 -0.00133694 -1.96244 -0.000617073 -2.14641 -0.000385327
-2.69849 -0.00135804 -2.08312 -0.000655018 -2.22832 -0.000400031
-2.74284 -0.00138036 -2.21266 -0.00069575 -2.30981 -0.000414661
-2.78917 -0.00140368 -2.34983 -0.000738884 -2.39266 -0.000429534
-2.83709 -0.00142779 -2.49319 -0.000783963 -2.47832 -0.000444912
-2.88579 -0.0014523 -2.64116 -0.00083049 -2.56886 -0.000461165
-2.93465 -0.00147689 -2.79226 -0.000878002 -2.66642 -0.00047868
-2.98316 -0.0015013 -2.94496 -0.000926017 -2.773 -0.000497812
-3.03071 -0.00152523 -3.09749 -0.000973977 -2.89047 -0.000518901
-3.07656 -0.00154831 -3.24804 -0.00102132 -3.02059 -0.00054226
-3.08531 -0.00155271 -3.3697 -0.00105957 -3.17612 -0.000570181
-3.06861 -0.0015443 -3.4772 -0.00109337 -3.34894 -0.000601205
-3.05735 -0.00153864 -3.58577 -0.00112751 -3.53453 -0.000634523
-3.06089 -0.00154042 -3.69962 -0.00116331 -3.72981 -0.000669581
-3.06293 -0.00154145 -3.80783 -0.00119734 -3.93932 -0.000707192
-3.05379 -0.00153685 -3.90147 -0.00122678 -4.12697 -0.00074088
-3.04616 -0.00153301 -3.987 -0.00125368 -4.29247 -0.000770589
-3.04649 -0.00153317 -4.0686 -0.00127933 -4.43737 -0.000796602
-3.04746 -0.00153366 -4.13865 -0.00130136 -4.5893 -0.000823877
-3.04541 -0.00153263 -4.19346 -0.0013186 -4.75769 -0.000854107
-3.04407 -0.00153196 -4.23669 -0.00133219 -4.93754 -0.000886394
-3.04652 -0.00153319 -4.27101 -0.00134298 -5.11852 -0.000918883
-3.0504 -0.00153514 -4.29472 -0.00135043 -5.29538 -0.000950633
-3.05211 -0.001536 -4.30591 -0.00135395 -5.47027 -0.000982031
-3.04958 -0.00153473 -4.30447 -0.0013535 -5.6474 -0.00101383
-3.04267 -0.00153125 -4.29208 -0.00134961 -5.80891 -0.00104282
-3.03169 -0.00152573 -4.2656 -0.00134128 -5.84548 -0.00104939
-3.01533 -0.00151749 -4.2325 -0.00133087 -5.84816 -0.00104987
-2.99415 -0.00150683 -4.19298 -0.00131844 -5.84298 -0.00104894
-2.96771 -0.00149353 -4.14695 -0.00130397 -5.8463 -0.00104953
-2.9363 -0.00147772 -4.09647 -0.0012881 -5.86742 -0.00105333
-2.90008 -0.00145949 -4.04389 -0.00127157 -5.8935 -0.00105801
-2.85893 -0.00143878 -3.99068 -0.00125483 -5.90834 -0.00106067
-2.8128 -0.00141557 -3.93773 -0.00123818 -5.90964 -0.00106091
-2.76163 -0.00138981 -3.88565 -0.00122181 -5.9071 -0.00106045
-2.70536 -0.00136149 -3.83523 -0.00120595 -5.91079 -0.00106111
-2.64393 -0.00133058 -3.78721 -0.00119085 -5.92074 -0.0010629
-2.57734 -0.00129707 -3.74188 -0.0011766 -5.92902 -0.00106438
-2.50571 -0.00126102 -3.69872 -0.00116303 -5.9124 -0.0010614
-2.42927 -0.00122255 -3.65688 -0.00114987 -5.8592 -0.00105185
-2.34832 -0.00118181 -3.61592 -0.00113699 -5.77105 -0.00103603
-2.26312 -0.00113894 -3.5748 -0.00112406 -5.65165 -0.00101459
-2.17396 -0.00109407 -3.53217 -0.00111066 -5.50298 -0.000987902
-2.08115 -0.00104736 -3.4867 -0.00109636 -5.32544 -0.00095603
-1.98509 -0.000999013 -3.43704 -0.00108075 -5.11978 -0.00091911
-1.88639 -0.000949343 -3.38169 -0.00106334 -4.88857 -0.000877602
-1.7858 -0.00089872 -3.31896 -0.00104362 -4.63567 -0.000832201
-1.68407 -0.000847525 -3.24721 -0.00102105 -4.36475 -0.000783565
-1.58192 -0.000796114 -3.16504 -0.000995218 -4.07844 -0.000732167
-1.48 -0.000744824 -3.07137 -0.000965765 -3.77874 -0.000678364
-1.37893 -0.000693958 -2.96537 -0.000932432 -3.46787 -0.000622557
-1.27912 -0.000643729 -2.84648 -0.000895051 -3.14854 -0.000565229
-1.18075 -0.000594221 -2.71459 -0.00085358 -2.82339 -0.000506858
-1.08372 -0.00054539 -2.57004 -0.000808125 -2.49441 -0.000447799
-0.987804 -0.000497121 -2.41358 -0.000758928 -2.16282 -0.000388272
-0.892751 -0.000449284 -2.24629 -0.000706325 -1.82949 -0.000328433
-0.798372 -0.000401788 -2.06949 -0.000650731 -1.49532 -0.000268442
-0.704593 -0.000354593 -1.8847 -0.000592626 -1.16122 -0.000208463
-0.611426 -0.000307705 -1.69364 -0.000532551 -0.827855 -0.000148618
-0.518917 -0.00026115 -1.49823 -0.000471104 -0.495498 -8.89524e-05
-0.427108 -0.000214946 -1.30045 -0.000408916 -0.161399 -2.89746e-05
-0.335409 -0.000168797 -1.10636 -0.000347885 0.0367961 6.60568e-06
-0.244522 -0.000123058 -0.913556 -0.00028726 0.197925 3.55318e-05
-0.153742 -7.73717e-05 -0.724038 -0.000227667 0.350096 6.28497e-05
-0.0633262 -3.18695e-05 -0.54176 -0.000170352 0.509508 9.14676e-05
0.0216696 1.09054e-05 -0.369203 -0.000116092 0.684739 0.000122925
0.0823238 4.14302e-05 -0.224854 -7.07033e-05 0.871673 0.000156484
0.137403 6.91491e-05 -0.0954148 -3.00023e-05 1.05033 0.000188556
0.199197 0.000100247 0.0248494 7.81367e-06 1.21941 0.000218911
0.246233 0.000123919 0.145564 4.57714e-05 1.38398 0.000248454
0.284571 0.000143213 0.258878 8.14019e-05 1.55127 0.000278487
0.318133 0.000160103 0.361537 0.000113682 1.72731 0.000310089
0.346454 0.000174356 0.452811 0.000142382 1.89849 0.000340819
0.375053 0.000188749 0.535235 0.0001683 2.06001 0.000369815
0.401875 0.000202247 0.606953 0.000190851 2.21393 0.000397448
0.424413 0.00021359 0.666501 0.000209575 2.36566 0.000424686
0.443952 0.000223423 0.716069 0.000225161 2.51665 0.000451792
0.461591 0.0002323 0.756755 0.000237955 2.6612 0.000477743
0.477027 0.000240068 0.787738 0.000247697 2.79512 0.000501783
0.489741 0.000246467 0.808641 0.00025427 2.91746 0.000523746
0.500367 0.000251814 0.820798 0.000258092 3.02979 0.000543911
0.509702 0.000256512 0.825496 0.00025957 3.1329 0.000562422
0.517795 0.000260585 0.822922 0.00025876 3.22505 0.000578965
0.524725 0.000264072 0.813292 0.000255732 3.30333 0.000593018
0.530975 0.000267218 0.797535 0.000250778 3.36578 0.000604228
0.537043 0.000270272 0.776818 0.000244263 3.41228 0.000612577
0.543125 0.000273332 0.751985 0.000236455 3.44328 0.000618143
0.54948 0.000276531 0.723774 0.000227584 3.45842 0.000620861
0.556523 0.000280075 0.692967 0.000217897 3.45074 0.000619481
0.56465 0.000284165 0.660094 0.000207561 3.40987 0.000612144
0.574089 0.000288915 0.626263 0.000196923 3.33324 0.000598388
0.585101 0.000294457 0.59218 0.000186206 3.22133 0.000578296
0.597764 0.00030083 0.558038 0.00017547 3.0762 0.000552243
0.612336 0.000308163 0.524615 0.00016496 2.89956 0.000520533
0.629042 0.000316571 0.49246 0.00015485 2.69278 0.000483411
0.647753 0.000325987 0.462267 0.000145356 2.45674 0.000441038
0.668654 0.000336506 0.434548 0.00013664 2.19326 0.000393737
0.691698 0.000348103 0.409506 0.000128765 1.90537 0.000342055
0.716808 0.00036074 0.387324 0.00012179 1.59687 0.000286673
0.743877 0.000374363 0.368269 0.000115799 1.27139 0.000228242
0.772779 0.000388908 0.352582 0.000110866 0.932231 0.000167355
0.803338 0.000404287 0.340337 0.000107016 0.582855 0.000104635
0.835321 0.000420382 0.331492 0.000104235 0.227347 4.08136e-05
0.868417 0.000437038 0.326653 0.000102713 -0.0810706 -1.45539e-05
0.902102 0.00045399 0.329553 0.000103625 -0.327034 -5.87096e-05
0.936759 0.000471432 0.332417 0.000104526 -0.545524 -9.79331e-05
0.971908 0.000489121 0.338486 0.000106434 -0.756379 -0.000135786
1.00744 0.000507002 0.348489 0.000109579 -0.968677 -0.000173898
1.04298 0.000524888 0.36145 0.000113655 -1.17959 -0.000211761
1.07852 0.000542777 0.376347 0.000118339 -1.37743 -0.000247278
1.11376 0.000560507 0.392792 0.00012351 -1.5531 -0.000278814
1.14847 0.000577979 0.411154 0.000129284 -1.70666 -0.000306381
1.18248 0.000595094 0.431615 0.000135718 -1.84342 -0.000330933
1.21561 0.000611764 0.45385 0.000142709 -1.96556 -0.00035286
1.24773 0.00062793 0.477423 0.000150121 -2.06893 -0.000371417
1.27872 0.000643528 0.502185 0.000157908 -2.14737 -0.000385499
1.3085 0.000658515 0.528243 0.000166101 -2.19833 -0.000394647
1.33701 0.000672862 0.555689 0.000174731 -2.22372 -0.000399206
1.36423 0.000686559 0.584526 0.000183799 -2.22427 -0.000399304
1.39013 0.000699594 0.615181 0.000193438 -2.19036 -0.000393216
1.4148 0.000712013 0.647585 0.000203627 -2.11675 -0.000380001
1.43828 0.000723825 0.681912 0.000214421 -2.00187 -0.000359379
1.46065 0.000735082 0.718489 0.000225922 -1.84769 -0.000331699
1.482 0.00074583 0.757656 0.000238238 -1.65816 -0.000297675
1.50247 0.000756131 0.799692 0.000251456 -1.43632 -0.000257849
1.5222 0.000766062 0.844844 0.000265654 -1.18333 -0.000212433
1.54137 0.000775706 0.893398 0.000280921 -0.900158 -0.000161597
1.56013 0.000785147 0.9454 0.000297272 -0.589367 -0.000105804
1.57849 0.000794389 1.00039 0.000314562 -0.256886 -4.61164e-05
1.59693 0.000803667 1.05801 0.000332681 0.0315535 5.66453e-06
1.61562 0.000813073 1.11748 0.000351383 0.263636 4.73282e-05
1.63455 0.0008226 1.18348 0.000372136 0.489595 8.78928e-05
1.654 0.000832391 1.25403 0.000394318 0.724386 0.000130043
1.67366 0.000842283 1.32822 0.000417646 0.975978 0.000175209
1.69401 0.000852527 1.40704 0.00044243 1.23823 0.000222288
1.71493 0.000863055 1.49112 0.000468868 1.4988 0.000269066
1.73644 0.000873877 1.58027 0.000496902 1.75148 0.000314428
1.75855 0.000885005 1.67372 0.000526286 1.9994 0.000358935
1.78127 0.000896438 1.77088 0.000556838 2.24815 0.000403591
1.80456 0.000908163 1.87156 0.000588494 2.49816 0.000448472
1.82831 0.00092011 1.97548 0.000621172 2.7439 0.000492588
1.85237 0.000932222 2.0821 0.000654698 2.9797 0.000534919
1.87666 0.000944446 2.19061 0.000688817 3.2044 0.000575258
1.90035 0.000956368 2.30051 0.000723375 3.42041 0.000614037
1.92211 0.000967317 2.412 0.00075843 3.62924 0.000651526
1.94205 0.000977355 2.52406 0.000793667 3.82978 0.000687527
1.95986 0.000986317 2.63542 0.000828683 4.01894 0.000721486
1.97539 0.000994132 2.74488 0.000863103 4.195 0.000753092
1.98856 0.00100076 2.8513 0.000896567 4.35854 0.00078245
1.9991 0.00100606 2.95349 0.000928699 4.51116 0.000809849
2.00671 0.00100989 3.05019 0.000959105 4.65336 0.000835377
2.01119 0.00101215 3.14017 0.000987399 4.78415 0.000858857
2.01238 0.00101275 3.22225 0.00101321 4.9024 0.000880085
2.0101 0.0010116 3.29523 0.00103616 5.00802 0.000899046
2.00373 0.0010084 3.35796 0.00105588 5.10184 0.000915889
1.99158 0.00100228 3.40835 0.00107173 5.18489 0.000930798
1.97277 0.000992814 3.44508 0.00108328 5.25704 0.000943751
1.94758 0.000980136 3.46743 0.0010903 5.31765 0.000954631
1.91656 0.000964528 3.47482 0.00109263 5.36617 0.000963341
1.88023 0.000946242 3.4664 0.00108998 5.40259 0.000969879
1.83922 0.000925601 3.4415 0.00108215 5.42684 0.000974233
1.79432 0.000903005 3.40001 0.0010691 5.43847 0.00097632
1.74622 0.0008788 3.34213 0.0010509 5.43375 0.000975474
1.69538 0.000853212 3.26827 0.00102768 5.40712 0.000970694
1.64207 0.000826384 3.17945 0.000999748 5.35629 0.000961567
1.58651 0.000798426 3.07684 0.000967485 5.28004 0.000947879
1.52891 0.000769436 2.96177 0.000931303 5.17776 0.000929518
1.4695 0.000739537 2.83576 0.000891681 5.04876 0.00090636
1.40857 0.000708877 2.70055 0.000849162 4.89189 0.000878198
1.34647 0.000677624 2.55793 0.000804317 4.70582 0.000844794
1.28349 0.000645929 2.40971 0.000757712 4.48965 0.000805988
1.21991 0.00061393 2.25769 0.000709912 4.24321 0.000761746
1.15598 0.000581757 2.10366 0.000661478 3.96677 0.000712119
1.09197 0.000549543 1.94933 0.00061295 3.6608 0.000657191
1.02816 0.000517431 1.79628 0.000564825 3.32591 0.000597071
0.964876 0.000485582 1.6459 0.000517539 2.96312 0.000531942
0.902424 0.000454153 1.49941 0.000471474 2.57411 0.000462107
0.841045 0.000423263 1.35783 0.000426956 2.16118 0.000387978
0.780854 0.000392972 1.22203 0.000384256 1.72705 0.000310042
0.721846 0.000363275 1.09269 0.000343587 1.27472 0.000228839
0.663924 0.000334125 0.970288 0.000305098 0.807541 0.000144971
0.606907 0.000305431 0.85509 0.000268875 0.329281 5.9113e-05
0.55024 0.000276913 0.749202 0.00023558 -0.0482085 -8.65445e-06
0.493276 0.000248246 0.656305 0.000206369 -0.329233 -5.91044e-05
0.436121 0.000219481 0.565836 0.000177922 -0.576629 -0.000103517
0.378126 0.000190295 0.482795 0.000151811 -0.819348 -0.00014709
0.318369 0.000160222 0.408 0.000128292 -1.07731 -0.000193401
0.256181 0.000128925 0.339506 0.000106755 -1.34576 -0.000241593
0.191312 9.62796e-05 0.274942 8.6453e-05 -1.60501 -0.000288134
0.1235 6.21526e-05 0.213044 6.69896e-05 -1.84116 -0.000330528
0.0526401 2.64916e-05 0.151654 4.76863e-05 -2.05667 -0.000369217
-9.59317e-05 -4.82784e-08 0.0885328 2.78383e-05 -2.26153 -0.000405992
-0.0308808 -1.5541e-05 0.0186593 5.86726e-06 -2.45949 -0.00044153
-0.0609229 -3.066e-05 -0.049652 -1.56126e-05 -2.64761 -0.000475302
-0.0889467 -4.47632e-05 -0.114695 -3.60648e-05 -2.81527 -0.0005054
-0.118411 -5.95912e-05 -0.178954 -5.62705e-05 -2.95727 -0.000530894
-0.15045 -7.57153e-05 -0.244638 -7.69243e-05 -3.07762 -0.000552498
-0.183701 -9.24489e-05 -0.311082 -9.78168e-05 -3.18317 -0.000571447
-0.217108 -0.000109262 -0.377242 -0.00011862 -3.27364 -0.000587688
-0.251472 -0.000126555 -0.443468 -0.000139445 -3.34385 -0.000600292
-0.287072 -0.000144472 -0.509791 -0.000160299 -3.39015 -0.000608604
-0.323121 -0.000162613 -0.575483 -0.000180955 -3.41409 -0.000612901
-0.359189 -0.000180765 -0.64002 -0.000201249 -3.41952 -0.000613876
-0.395459 -0.000199018 -0.702731 -0.000220967 -3.3971 -0.000609852
-0.431813 -0.000217314 -0.762815 -0.00023986 -3.34252 -0.000600053
-0.467836 -0.000235442 -0.819495 -0.000257683 -3.25421 -0.000584201
-0.503229 -0.000253254 -0.872044 -0.000274206 -3.13437 -0.000562687
-0.537919 -0.000270712 -0.919747 -0.000289206 -2.98786 -0.000536385
-0.57173 -0.000287728 -0.961736 -0.000302409 -2.81939 -0.000506141
-0.6044 -0.00030417 -0.997141 -0.000313542 -2.6317 -0.000472446
-0.635767 -0.000319955 -1.0253 -0.000322398 -2.42636 -0.000435583
-0.66573 -0.000335034 -1.04568 -0.000328805 -2.20571 -0.000395972
-0.694148 -0.000349336 -1.05767 -0.000332576 -1.97355 -0.000354294
-0.720872 -0.000362785 -1.06072 -0.000333534 -1.73401 -0.000311291
-0.745828 -0.000375344 -1.05449 -0.000331574 -1.49049 -0.000267575
-0.768995 -0.000387003 -1.03893 -0.000326681 -1.24531 -0.000223559
-0.790361 -0.000397756 -1.01416 -0.000318895 -1.00046 -0.000179604
-0.809899 -0.000407589 -0.980476 -0.000308302 -0.758327 -0.000136136
-0.827619 -0.000416506 -0.938321 -0.000295046 -0.521539 -9.36273e-05
-0.843569 -0.000424533 -0.888353 -0.000279335 -0.292366 -5.2486e-05
-0.857828 -0.00043171 -0.831408 -0.000261429 -0.0722522 -1.29708e-05
-0.870292 -0.000437982 -0.770265 -0.000242203 0.0801006 1.43798e-05
-0.881579 -0.000443662 -0.70398 -0.00022136 0.204598 3.67296e-05
-0.891488 -0.000448649 -0.633584 -0.000199225 0.316238 5.67714e-05
-0.900614 -0.000453242 -0.561136 -0.000176444 0.424137 7.61416e-05
-0.909204 -0.000457565 -0.488055 -0.000153465 0.531521 9.54194e-05
-0.917581 -0.00046178 -0.415266 -0.000130577 0.633936 0.000113805
-0.926162 -0.000466099 -0.343958 -0.000108154 0.725955 0.000130324
-0.935328 -0.000470712 -0.275755 -8.67086e-05 0.807099 0.000144892
-0.945456 -0.000475809 -0.212326 -6.6764e-05 0.88137 0.000158225
-0.95685 -0.000481543 -0.155029 -4.87473e-05 0.952442 0.000170984
-0.969799 -0.00048806 -0.104997 -3.30153e-05 1.02015 0.000183139
-0.98444 -0.000495428 -0.0629692 -1.98001e-05 1.08184 0.000194214
-1.00101 -0.000503767 -0.0303954 -9.55758e-06 1.13567 0.000203877
-1.01972 -0.000513182 -0.00885371 -2.78397e-06 1.18241 0.000212269
-1.04058 -0.000523681 0.00190052 5.97601e-07 1.22419 0.000219768
-1.06372 -0.000535326 0.00132562 4.1683e-07 1.26177 0.000226515
-1.08915 -0.000548125 -0.0110308 -3.46852e-06 1.29391 0.000232285
-1.11673 -0.000562005 -0.0353651 -1.11202e-05 1.31883 0.000236757
-1.14627 -0.000576871 -0.0724129 -2.27696e-05 1.33573 0.000239793
-1.17752 -0.000592599 -0.12137 -3.81636e-05 1.34519 0.000241491
-1.21032 -0.000609103 -0.181919 -5.72029e-05 1.34638 0.000241704
-1.24431 -0.000626212 -0.25373 -7.97832e-05 1.33503 0.000239666
-1.27926 -0.000643797 -0.335814 -0.000105594 1.3082 0.00023485
-1.31492 -0.000661744 -0.427157 -0.000134316 1.26395 0.000226906
-1.35111 -0.000679956 -0.526654 -0.000165601 1.20125 0.00021565
-1.38759 -0.000698314 -0.633039 -0.000199053 1.11957 0.000200986
-1.42412 -0.0007167 -0.744917 -0.000234232 1.01804 0.000182761
-1.46047 -0.000734993 -0.860838 -0.000270683 0.895332 0.000160731
-1.49638 -0.000753068 -0.979359 -0.000307951 0.750115 0.000134662
-1.53161 -0.000770794 -1.09908 -0.000345596 0.581725 0.000104432
-1.56563 -0.000787916 -1.21708 -0.000382699 0.39131 7.02484e-05
-1.59861 -0.000804515 -1.33327 -0.000419234 0.179404 3.22068e-05
-1.62979 -0.000820204 -1.44641 -0.00045481 -0.030586 -5.49084e-06
-1.6599 -0.000835359 -1.55313 -0.000488368 -0.212159 -3.8087e-05
-1.68769 -0.000849347 -1.65747 -0.000521175 -0.39408 -7.07458e-05
-1.71331 -0.000862236 -1.75643 -0.000552293 -0.588823 -0.000105706
-1.73634 -0.00087383 -1.84885 -0.000581353 -0.802042 -0.000143984
-1.7568 -0.000884127 -1.93481 -0.000608382 -1.03313 -0.000185468
-1.77442 -0.000892994 -2.01447 -0.000633432 -1.27547 -0.000228974
-1.7892 -0.000900429 -2.08774 -0.000656472 -1.52301 -0.000273412
-1.80117 -0.000906456 -2.15421 -0.000677372 -1.77464 -0.000318586
-1.8104 -0.000911101 -2.21368 -0.000696073 -2.03256 -0.000364888
-1.81693 -0.000914385 -2.26644 -0.000712662 -2.2973 -0.000412414
-1.8208 -0.000916335 -2.31297 -0.000727292 -2.56535 -0.000460534
-1.82193 -0.000916903 -2.35355 -0.000740051 -2.83145 -0.000508305
-1.82007 -0.000915968 -2.38801 -0.000750888 -3.09215 -0.000555106
-1.81533 -0.000913583 -2.41674 -0.000759922 -3.34642 -0.000600754
-1.80812 -0.000909954 -2.44046 -0.000767382 -3.59375 -0.000645155
-1.79811 -0.000904914 -2.46011 -0.000773559 -3.83204 -0.000687933
-1.78387 -0.000897748 -2.47676 -0.000778794 -4.05756 -0.000728418
-1.7658 -0.000888656 -2.49081 -0.000783214 -4.267 -0.000766018
-1.74427 -0.00087782 -2.50268 -0.000786944 -4.45834 -0.000800368
-1.71963 -0.000865421 -2.51263 -0.000790075 -4.63065 -0.0008313
-1.69226 -0.000851642 -2.5208 -0.000792643 -4.78293 -0.000858637
-1.66264 -0.000836738 -2.52714 -0.000794638 -4.91355 -0.000882086
-1.63145 -0.00082104 -2.53149 -0.000796005 -5.02068 -0.000901319
-1.59937 -0.000804896 -2.53353 -0.000796647 -5.1031 -0.000916115
-1.56697 -0.000788592 -2.53288 -0.000796442 -5.16042 -0.000926405
-1.53464 -0.000772321 -2.52908 -0.000795245 -5.19266 -0.000932193
-1.50258 -0.000756184 -2.52167 -0.000792917 -5.19886 -0.000933307
-1.47082 -0.000740205 -2.50995 -0.00078923 -5.16946 -0.000928027
-1.43923 -0.000724307 -2.4936 -0.000784091 -5.10181 -0.000915884
-1.40762 -0.000708395 -2.47232 -0.000777399 -4.99586 -0.000896862
-1.37575 -0.00069236 -2.44561 -0.000769001 -4.85342 -0.000871291
-1.34351 -0.000676132 -2.41295 -0.000758732 -4.67716 -0.000839651
-1.31079 -0.000659666 -2.37389 -0.000746449 -4.46938 -0.000802348
-1.27755 -0.000642936 -2.32804 -0.000732032 -4.2317 -0.00075968
-1.24373 -0.000625919 -2.27504 -0.000715365 -3.96589 -0.000711961
-1.2093 -0.000608588 -2.21453 -0.000696338 -3.67453 -0.000659656
-1.17417 -0.000590911 -2.14624 -0.000674865 -3.36087 -0.000603347
-1.13827 -0.000572843 -2.07004 -0.000650905 -3.02819 -0.000543625
-1.1015 -0.000554337 -1.98594 -0.000624461 -2.67935 -0.000481001
-1.06375 -0.000535343 -1.89406 -0.00059557 -2.31694 -0.000415939
-1.02497 -0.000515824 -1.79464 -0.000564307 -1.94366 -0.000348929
-0.985094 -0.000495757 -1.68802 -0.000530782 -1.56254 -0.000280509
-0.944115 -0.000475134 -1.5747 -0.000495149 -1.17661 -0.000211227
-0.902049 -0.000453964 -1.45529 -0.000457604 -0.788653 -0.00014158
-0.858921 -0.00043226 -1.33055 -0.00041838 -0.401087 -7.20036e-05
-0.814736 -0.000410023 -1.20152 -0.000377808 -0.0605451 -1.08691e-05
-0.768776 -0.000386893 -1.07485 -0.000337978 0.158962 2.8537e-05
-0.722362 -0.000363535 -0.942329 -0.000296307 0.34107 6.12293e-05
-0.6748 -0.000339599 -0.80866 -0.000254276 0.517355 9.28762e-05
-0.626814 -0.00031545 -0.676459 -0.000212706 0.703457 0.000126285
-0.578407 -0.000291088 -0.545919 -0.000171659 0.89941 0.000161463
-0.530167 -0.000266811 -0.417152 -0.00013117 1.09032 0.000195736
-0.482659 -0.000242902 -0.290933 -9.14814e-05 1.26538 0.000227163
-0.436375 -0.00021961 -0.168936 -5.31206e-05 1.4269 0.000256159
-0.391658 -0.000197105 -0.0527467 -1.65857e-05 1.58499 0.00028454
-0.34901 -0.000175642 0.0539832 1.69745e-05 1.74517 0.000313295
-0.308692 -0.000155352 0.15232 4.78956e-05 1.90257 0.000341552
-0.270766 -0.000136265 0.243375 7.6527e-05 2.04988 0.000367997
-0.235437 -0.000118486 0.326714 0.000102732 2.18479 0.000392215
-0.202997 -0.00010216 0.401348 0.0001262 2.3103 0.000414748
-0.173439 -8.72849e-05 0.466626 0.000146726 2.43054 0.000436334
-0.146736 -7.38462e-05 0.522312 0.000164236 2.54546 0.000456965
-0.122878 -6.18395e-05 0.568413 0.000178732 2.6516 0.000476018
-0.101787 -5.12253e-05 0.604924 0.000190213 2.74567 0.000492906
-0.0832636 -4.19031e-05 0.631797 0.000198663 2.82733 0.000507567
-0.0670394 -3.37382e-05 0.649073 0.000204095 2.89829 0.000520306
-0.0528389 -2.65916e-05 0.657004 0.000206589 2.95949 0.000531292
-0.0403225 -2.02926e-05 0.656113 0.000206309 3.0097 0.000540305
-0.0312382 -1.57209e-05 0.645749 0.00020305 3.04698 0.000546997
-0.0233671 -1.17597e-05 0.627644 0.000197357 3.06951 0.000551043
-0.0158005 -7.95172e-06 0.602857 0.000189563 3.07739 0.000552458
-0.00842053 -4.2377e-06 0.57179 0.000179794 3.0648 0.000550198
-0.00140203 -7.05584e-07 0.534647 0.000168115 3.02599 0.000543229
0.00563672 2.83673e-06 0.492523 0.000154869 2.95858 0.000531128
0.0130967 6.59104e-06 0.446473 0.000140389 2.8617 0.000513735
0.0209546 1.05456e-05 0.397191 0.000124893 2.73636 0.000491234
0.029146 1.4668e-05 0.345396 0.000108607 2.58418 0.000463916
0.0378372 1.90419e-05 0.292021 9.18233e-05 2.40608 0.000431942
0.047188 2.37478e-05 0.237936 7.48168e-05 2.20231 0.000395361
0.0501842 2.52556e-05 0.186584 5.86696e-05 1.97296 0.000354189
0.0492802 2.48007e-05 0.138496 4.35487e-05 1.71974 0.000308729
0.0498882 2.51067e-05 0.0916539 2.88198e-05 1.44642 0.000259662
0.0513584 2.58466e-05 0.0450143 1.41543e-05 1.15623 0.000207568
0.0537003 2.70251e-05 -0.00100794 -3.16937e-07 0.851459 0.000152855
0.0568735 2.86221e-05 -0.0475503 -1.49518e-05 0.535239 9.60869e-05
0.060288 3.03404e-05 -0.0925766 -2.91099e-05 0.211911 3.80425e-05
0.0635877 3.20011e-05 -0.136758 -4.30022e-05 -0.0747222 -1.34142e-05
0.0667343 3.35846e-05 -0.175974 -5.53333e-05 -0.308172 -5.53233e-05
0.0703806 3.54196e-05 -0.217075 -6.82574e-05 -0.520036 -9.33575e-05
0.0738021 3.71415e-05 -0.25724 -8.08867e-05 -0.728204 -0.000130728
0.0770524 3.87773e-05 -0.295691 -9.29773e-05 -0.940851 -0.000168903
0.080029 4.02753e-05 -0.333139 -0.000104753 -1.15617 -0.000207558
0.0828229 4.16814e-05 -0.370364 -0.000116458 -1.36409 -0.000244884
0.0851548 4.28549e-05 -0.40759 -0.000128163 -1.55657 -0.000279437
0.0869394 4.3753e-05 -0.444274 -0.000139698 -1.73362 -0.000311222
0.0880983 4.43362e-05 -0.48002 -0.000150938 -1.90016 -0.000341119
0.0884242 4.45002e-05 -0.514969 -0.000161927 -2.05834 -0.000369517
0.0876084 4.40897e-05 -0.549532 -0.000172795 -2.20461 -0.000395774
0.0854081 4.29824e-05 -0.583662 -0.000183527 -2.3335 -0.000418913
0.0818032 4.11682e-05 -0.617011 -0.000194014 -2.44268 -0.000438513
0.0768224 3.86615e-05 -0.649298 -0.000204166 -2.53381 -0.000454873
0.0705118 3.54857e-05 -0.680392 -0.000213943 -2.60923 -0.000468413
0.0629822 3.16964e-05 -0.710133 -0.000223295 -2.66892 -0.000479129
0.0538778 2.71144e-05 -0.737883 -0.000232021 -2.71084 -0.000486653
0.043157 2.17191e-05 -0.763417 -0.00024005 -2.73318 -0.000490664
0.031367 1.57857e-05 -0.786585 -0.000247334 -2.73595 -0.000491161
0.0199064 1.00181e-05 -0.80671 -0.000253663 -2.71423 -0.000487262
0.00936482 4.71292e-06 -0.823113 -0.00025882 -2.66782 -0.000478931
-0.000750065 -3.77477e-07 -0.836341 -0.00026298 -2.59609 -0.000466054
-0.0104044 -5.23611e-06 -0.846325 -0.000266119 -2.49959 -0.000448729
-0.018897 -9.51009e-06 -0.852505 -0.000268062 -2.38032 -0.000427319
-0.0256334 -1.29002e-05 -0.854471 -0.000268681 -2.24078 -0.000402268
-0.0304199 -1.53091e-05 -0.852066 -0.000267925 -2.08307 -0.000373956
-0.0330767 -1.66461e-05 -0.844965 -0.000265692 -1.90887 -0.000342683
-0.0333431 -1.67802e-05 -0.832647 -0.000261818 -1.72 -0.000308776
-0.0322038 -1.62068e-05 -0.814372 -0.000256072 -1.51877 -0.000272651
-0.0316654 -1.59359e-05 -0.7887 -0.000248 -1.30834 -0.000234874
-0.0284934 -1.43395e-05 -0.756446 -0.000237858 -1.09067 -0.000195799
-0.0229689 -1.15593e-05 -0.71762 -0.000225649 -0.868056 -0.000155834
-0.0153168 -7.7083e-06 -0.672261 -0.000211386 -0.642298 -0.000115306
-0.00546611 -2.75087e-06 -0.620219 -0.000195022 -0.415342 -7.45627e-05
0.0064751 3.25865e-06 -0.561675 -0.000176614 -0.189136 -3.39539e-05
0.0195419 9.83463e-06 -0.497511 -0.000156438 -0.00593886 -1.06615e-06
0.0328863 1.65503e-05 -0.429133 -0.000134937 0.130689 2.34615e-05
0.0417783 2.10253e-05 -0.3562 -0.000112004 0.252127 4.52621e-05
0.0491771 2.47488e-05 -0.279372 -8.78461e-05 0.371343 6.6664e-05
0.0563842 2.83758e-05 -0.199273 -6.26597e-05 0.494929 8.88504e-05
0.0629702 3.16903e-05 -0.116821 -3.67333e-05 0.620121 0.000111325
0.0683042 3.43747e-05 -0.0331442 -1.04219e-05 0.7397 0.000132792
0.0724477 3.64599e-05 0.0501263 1.57618e-05 0.850609 0.000152702
0.0832033 4.18728e-05 0.125684 3.95202e-05 0.955769 0.000171581
0.0925482 4.65757e-05 0.198859 6.25294e-05 1.05892 0.000190099
0.101519 5.10901e-05 0.268831 8.45316e-05 1.16302 0.000208787
0.10944 5.50766e-05 0.335282 0.000105426 1.26438 0.000226984
0.11612 5.84385e-05 0.397056 0.000124851 1.36019 0.000244182
0.121436 6.11137e-05 0.452956 0.000142428 1.44944 0.000260206
0.125582 6.32004e-05 0.502358 0.000157962 1.53439 0.000275456
0.128479 6.46581e-05 0.544869 0.000171329 1.61694 0.000290276
0.129879 6.53627e-05 0.580059 0.000182394 1.69661 0.000304577
0.129681 6.52631e-05 0.607569 0.000191045 1.77122 0.000317972
0.127503 6.4167e-05 0.62692 0.000197129 1.83929 0.000330191
0.122808 6.18041e-05 0.637643 0.000200501 1.90106 0.000341281
0.115586 5.81696e-05 0.639765 0.000201168 1.95733 0.000351382
0.10601 5.33506e-05 0.633514 0.000199203 2.00792 0.000360465
0.0942223 4.74182e-05 0.619088 0.000194667 2.05157 0.000368301
0.0803653 4.04445e-05 0.596738 0.000187639 2.08681 0.000374627
0.0647912 3.26067e-05 0.566973 0.00017828 2.11282 0.000379296
0.0478997 2.41059e-05 0.530444 0.000166793 2.12941 0.000382275
0.0301376 1.5167e-05 0.487849 0.0001534 2.13638 0.000383525
0.0124499 6.26552e-06 0.439594 0.000138226 2.12928 0.000382251
-0.00468849 -2.35952e-06 0.386652 0.000121579 2.1037 0.000377658
-0.0191346 -9.62964e-06 0.330469 0.000103913 2.05775 0.00036941
-0.0314849 -1.58451e-05 0.2723 8.56224e-05 1.99054 0.000357344
-0.0425082 -2.13926e-05 0.211804 6.65997e-05 1.90298 0.000341625
-0.052507 -2.64246e-05 0.149381 4.69716e-05 1.79548 0.000322327
-0.0608399 -3.06182e-05 0.086465 2.71881e-05 1.66757 0.000299365
-0.0673386 -3.38887e-05 0.0242251 7.61736e-06 1.51892 0.000272679
-0.0724576 -3.64649e-05 -0.0366935 -1.1538e-05 1.34996 0.000242346
-0.0763807 -3.84392e-05 -0.0961924 -3.02468e-05 1.16201 0.000208606
-0.0790604 -3.97878e-05 -0.153047 -4.81243e-05 0.957504 0.000171892
-0.0807138 -4.06199e-05 -0.206091 -6.48035e-05 0.736524 0.000132222
-0.0816405 -4.10863e-05 -0.255377 -8.03011e-05 0.500805 8.99051e-05
-0.0818796 -4.12066e-05 -0.300476 -9.44819e-05 0.2521 4.52573e-05
-0.0814181 -4.09743e-05 -0.341176 -0.00010728 -0.00754415 -1.35434e-06
-0.0806792 -4.06025e-05 -0.374188 -0.00011766 -0.191302 -3.43428e-05
-0.0789744 -3.97446e-05 -0.40489 -0.000127314 -0.369109 -6.62629e-05
-0.0765843 -3.85417e-05 -0.431552 -0.000135698 -0.545528 -9.79339e-05
-0.0732151 -3.68461e-05 -0.453948 -0.00014274 -0.726553 -0.000130432
-0.0691253 -3.47879e-05 -0.472755 -0.000148654 -0.914073 -0.000164095
-0.0642846 -3.23518e-05 -0.489019 -0.000153768 -1.10108 -0.000197667
-0.0587427 -2.95628e-05 -0.50357 -0.000158343 -1.27935 -0.000229671
-0.0526213 -2.64821e-05 -0.516669 -0.000162462 -1.44614 -0.000259613
-0.046089 -2.31947e-05 -0.528498 -0.000166181 -1.60411 -0.000287971
-0.0392997 -1.97779e-05 -0.539522 -0.000169648 -1.75568 -0.000315181
-0.0323499 -1.62803e-05 -0.550348 -0.000173052 -1.89897 -0.000340905
-0.0253463 -1.27557e-05 -0.561446 -0.000176542 -2.02918 -0.00036428
-0.0184045 -9.26221e-06 -0.573045 -0.000180189 -2.14279 -0.000384677
-0.0119261 -6.0019e-06 -0.585344 -0.000184056 -2.23963 -0.000402061
-0.00934388 -4.70239e-06 -0.59708 -0.000187746 -2.32169 -0.000416794
-0.00758012 -3.81476e-06 -0.60931 -0.000191592 -2.38913 -0.0004289
-0.00702447 -3.53512e-06 -0.622107 -0.000195616 -2.44025 -0.000438076
-0.00791805 -3.98483e-06 -0.63556 -0.000199846 -2.47306 -0.000443966
-0.010097 -5.08141e-06 -0.649231 -0.000204145 -2.48716 -0.000446498
-0.0134744 -6.78111e-06 -0.662748 -0.000208395 -2.48103 -0.000445398
-0.0181058 -9.11192e-06 -0.675688 -0.000212464 -2.45046 -0.00043991
-0.0238473 -1.20014e-05 -0.687885 -0.000216299 -2.39471 -0.000429901
-0.0304194 -1.53088e-05 -0.698852 -0.000219748 -2.31409 -0.000415428
-0.0375337 -1.88892e-05 -0.708067 -0.000222645 -2.21008 -0.000396756
-0.0449284 -2.26106e-05 -0.715057 -0.000224843 -2.08511 -0.000374322
-0.0522826 -2.63117e-05 -0.719362 -0.000226197 -1.94158 -0.000348556
-0.0592547 -2.98205e-05 -0.720495 -0.000226553 -1.78136 -0.000319792
-0.0655444 -3.29858e-05 -0.717965 -0.000225758 -1.60611 -0.000288331
-0.0708747 -3.56683e-05 -0.711299 -0.000223662 -1.41794 -0.00025455
-0.0749722 -3.77304e-05 -0.700059 -0.000220127 -1.21953 -0.000218932
-0.0773456 -3.89248e-05 -0.68363 -0.000214961 -1.01379 -0.000181998
-0.0779999 -3.92541e-05 -0.661928 -0.000208137 -0.803061 -0.000144167
-0.0769665 -3.87341e-05 -0.634962 -0.000199658 -0.589371 -0.000105805
-0.0739617 -3.72218e-05 -0.602483 -0.000189445 -0.374826 -6.72892e-05
