-0.0193558 -9.74099e-06 -0.0581541 -1.8286e-05 -0.0157048 -2.81935e-06
-0.0196112 -9.86952e-06 -0.0580773 -1.82619e-05 -0.0157221 -2.82246e-06
-0.0201884 -1.016e-05 -0.0579058 -1.82079e-05 -0.0157472 -2.82695e-06
-0.0213702 -1.07547e-05 -0.057563 -1.81002e-05 -0.0157842 -2.83361e-06
-0.0227001 -1.1424e-05 -0.0572233 -1.79934e-05 -0.0158076 -2.83781e-06
-0.0243962 -1.22776e-05 -0.0568597 -1.7879e-05 -0.015813 -2.83878e-06
-0.0264784 -1.33255e-05 -0.0564996 -1.77658e-05 -0.0157819 -2.83319e-06
-0.0289667 -1.45778e-05 -0.0561743 -1.76635e-05 -0.0156964 -2.81784e-06
-0.0318846 -1.60462e-05 -0.0559279 -1.7586e-05 -0.0155412 -2.78998e-06
-0.0352565 -1.77431e-05 -0.0558126 -1.75498e-05 -0.0153016 -2.74696e-06
-0.0391021 -1.96785e-05 -0.0558822 -1.75716e-05 -0.0149608 -2.68579e-06
-0.0434253 -2.18542e-05 -0.0561939 -1.76697e-05 -0.0145017 -2.60337e-06
-0.0482026 -2.42584e-05 -0.0568152 -1.7865e-05 -0.0139106 -2.49724e-06
-0.0533596 -2.68537e-05 -0.0578195 -1.81808e-05 -0.0131803 -2.36614e-06
-0.0587904 -2.95868e-05 -0.0593058 -1.86482e-05 -0.0123064 -2.20927e-06
-0.0643596 -3.23895e-05 -0.0613798 -1.93003e-05 -0.011287 -2.02626e-06
-0.0698734 -3.51644e-05 -0.0641337 -2.01662e-05 -0.0101334 -1.81917e-06
-0.0751244 -3.7807e-05 -0.0676434 -2.12699e-05 -0.00887021 -1.59239e-06
-0.0799188 -4.02198e-05 -0.0719642 -2.26285e-05 -0.00753921 -1.35345e-06
-0.0840717 -4.23098e-05 -0.0771181 -2.42491e-05 -0.0066495 -1.19373e-06
-0.0874017 -4.39856e-05 -0.0830908 -2.61271e-05 -0.00579885 -1.04102e-06
-0.0897183 -4.51515e-05 -0.0898348 -2.82477e-05 -0.00503972 -9.04737e-07
-0.090807 -4.56994e-05 -0.0972767 -3.05878e-05 -0.00442968 -7.95222e-07
-0.0904097 -4.54995e-05 -0.105317 -3.31161e-05 -0.00404191 -7.25608e-07
-0.088229 -4.4402e-05 -0.11384 -3.57961e-05 -0.00396467 -7.11743e-07
-0.0839624 -4.22548e-05 -0.12269 -3.85786e-05 -0.00429313 -7.70708e-07
-0.0773934 -3.89489e-05 -0.131619 -4.13864e-05 -0.00533471 -9.57693e-07
-0.0685097 -3.44781e-05 -0.140308 -4.41184e-05 -0.00793674 -1.42481e-06
-0.0575895 -2.89824e-05 -0.148325 -4.66395e-05 -0.0118111 -2.12035e-06
-0.0451728 -2.27336e-05 -0.155129 -4.87788e-05 -0.017067 -3.06388e-06
-0.0319072 -1.60576e-05 -0.160135 -5.0353e-05 -0.0238244 -4.27698e-06
-0.0184109 -9.26546e-06 -0.162813 -5.11949e-05 -0.0321762 -5.77632e-06
-0.00520816 -2.62105e-06 -0.16274 -5.11722e-05 -0.0421826 -7.57268e-06
0.00722679 3.63694e-06 -0.159653 -5.02014e-05 -0.0538102 -9.66007e-06
0.0185943 9.35776e-06 -0.153416 -4.82404e-05 -0.0669104 -1.20118e-05
0.028922 1.45553e-05 -0.144002 -4.52802e-05 -0.0812489 -1.45859e-05
0.0379998 1.91237e-05 -0.131517 -4.13544e-05 -0.096536 -1.73303e-05
0.044735 2.25133e-05 -0.116332 -3.65794e-05 -0.112358 -2.01707e-05
0.0505435 2.54364e-05 -0.0988046 -3.10682e-05 -0.128315 -2.30354e-05
0.0555597 2.79609e-05 -0.0793826 -2.49611e-05 -0.143896 -2.58323e-05
0.059894 3.01422e-05 -0.0585942 -1.84244e-05 -0.15858 -2.84685e-05
0.0636958 3.20554e-05 -0.0370041 -1.16356e-05 -0.171845 -3.08499e-05
0.0670251 3.3731e-05 -0.0151545 -4.7652e-06 -0.183188 -3.28862e-05
0.069811 3.5133e-05 0.00644793 2.02749e-06 -0.192117 -3.44891e-05
0.0719374 3.62031e-05 0.0273339 8.5949e-06 -0.198169 -3.55756e-05
0.0733641 3.69211e-05 0.0470976 1.48094e-05 -0.200924 -3.607e-05
0.0742196 3.73516e-05 0.0624339 1.96318e-05 -0.199925 -3.58909e-05
0.074821 3.76543e-05 0.0755966 2.37707e-05 -0.195053 -3.50162e-05
0.0757405 3.81171e-05 0.0862454 2.71191e-05 -0.186011 -3.33929e-05
0.0777021 3.91043e-05 0.0940129 2.95615e-05 -0.172659 -3.0996e-05
0.0829516 4.17461e-05 0.0990414 3.11427e-05 -0.149934 -2.69164e-05
0.0930398 4.68231e-05 0.0983463 3.09241e-05 -0.120797 -2.16855e-05
0.109581 5.51477e-05 0.0919666 2.89181e-05 -0.0858368 -1.54095e-05
0.133568 6.72194e-05 0.0805502 2.53283e-05 -0.0460195 -8.26148e-06
0.16517 8.3123e-05 0.0653285 2.05419e-05 -0.00970297 -1.74189e-06
0.203609 0.000102468 0.0481153 1.51294e-05 0.0172376 3.09451e-06
0.24713 0.00012437 0.0313548 9.85922e-06 0.0438436 7.87086e-06
0.293165 0.000147538 0.0178482 5.61219e-06 0.0694773 1.24726e-05
0.338872 0.00017054 0.0102811 3.2328e-06 0.093054 1.67052e-05
0.381831 0.00019216 0.0109218 3.43425e-06 0.113524 2.038e-05
0.420488 0.000211614 0.0213883 6.72537e-06 0.13013 2.3361e-05
0.454155 0.000228557 0.0424729 1.33552e-05 0.14272 2.56212e-05
0.482808 0.000242977 0.0741505 2.3316e-05 0.151392 2.71781e-05
0.50689 0.000255097 0.115711 3.63844e-05 0.156445 2.80853e-05
0.52705 0.000265242 0.165883 5.21604e-05 0.158405 2.84371e-05
0.543853 0.000273699 0.222952 7.01053e-05 0.158156 2.83923e-05
0.557758 0.000280696 0.284876 8.95767e-05 0.156784 2.81461e-05
0.569383 0.000286547 0.349327 0.000109843 0.15546 2.79083e-05
0.579736 0.000291757 0.413721 0.000130091 0.15535 2.78886e-05
0.590138 0.000296992 0.475361 0.000149473 0.157643 2.83003e-05
0.601909 0.000302916 0.531698 0.000167187 0.163453 2.93433e-05
0.615928 0.000309971 0.580624 0.000182572 0.173688 3.11807e-05
0.63238 0.000318251 0.620654 0.000195159 0.18895 3.39205e-05
0.650998 0.00032762 0.650907 0.000204672 0.209551 3.76189e-05
0.671376 0.000337876 0.671023 0.000210997 0.235522 4.22813e-05
0.693077 0.000348797 0.681125 0.000214174 0.266599 4.78602e-05
0.715663 0.000360164 0.681809 0.000214389 0.302214 5.42539e-05
0.738722 0.000371768 0.674101 0.000211965 0.341531 6.13121e-05
0.761898 0.000383432 0.659374 0.000207334 0.383497 6.88459e-05
0.784867 0.000394991 0.639276 0.000201014 0.426894 7.66365e-05
0.807289 0.000406275 0.615667 0.000193591 0.470383 8.44437e-05
0.828818 0.00041711 0.590533 0.000185688 0.512563 9.2016e-05
0.84921 0.000427372 0.56584 0.000177923 0.552048 9.91044e-05
0.868444 0.000437052 0.543399 0.000170867 0.587537 0.000105475
0.88673 0.000446254 0.524785 0.000165014 0.617868 0.00011092
0.90433 0.000455112 0.511324 0.000160781 0.64206 0.000115263
0.921204 0.000463604 0.504148 0.000158525 0.659341 0.000118366
0.936706 0.000471405 0.504245 0.000158555 0.669175 0.000120131
0.94961 0.000477899 0.512387 0.000161116 0.671301 0.000120513
0.958466 0.000482356 0.528964 0.000166328 0.665764 0.000119519
0.961735 0.000484001 0.548206 0.000172378 0.656055 0.000117776
0.96021 0.000483234 0.579109 0.000182096 0.637889 0.000114515
0.951988 0.000479096 0.616343 0.000193804 0.613935 0.000110214
0.937082 0.000471594 0.657958 0.000206889 0.585431 0.000105097
0.915806 0.000460887 0.701545 0.000220594 0.553813 9.94212e-05
0.888557 0.000447174 0.744435 0.000234081 0.52064 9.34659e-05
0.855805 0.000430691 0.783845 0.000246473 0.487512 8.75187e-05
0.818047 0.000411689 0.817006 0.0002569 0.455977 8.18575e-05
0.775722 0.000390389 0.841316 0.000264544 0.427445 7.67355e-05
0.729246 0.000366999 0.854474 0.000268682 0.403121 7.23688e-05
0.67901 0.000341718 0.854588 0.000268718 0.383933 6.89242e-05
0.625338 0.000314707 0.840261 0.000264213 0.370474 6.6508e-05
0.568564 0.000286135 0.810643 0.0002549 0.362976 6.51619e-05
0.509284 0.000256302 0.765405 0.000240675 0.361296 6.48604e-05
0.448603 0.000225764 0.70467 0.000221577 0.364922 6.55112e-05
0.387981 0.000195255 0.62906 0.000197802 0.372963 6.69547e-05
0.328692 0.000165417 0.539873 0.000169758 0.384167 6.89661e-05
0.271605 0.000136688 0.439143 0.000138085 0.396959 7.12626e-05
0.217301 0.000109359 0.329514 0.000103613 0.409502 7.35144e-05
0.166161 8.3622e-05 0.214062 6.73099e-05 0.419779 7.53593e-05
0.118364 5.95676e-05 0.0961728 3.02407e-05 0.425699 7.64221e-05
0.073811 3.7146e-05 -0.0205586 -6.46448e-06 0.425202 7.63328e-05
0.0275069 1.38431e-05 -0.132234 -4.15797e-05 0.416303 7.47353e-05
-0.0198004 -9.96471e-06 -0.242799 -7.63459e-05 0.397768 7.14078e-05
-0.0661537 -3.32924e-05 -0.353465 -0.000111144 0.367508 6.59754e-05
-0.112742 -5.67385e-05 -0.448233 -0.000140943 0.325076 5.83581e-05
-0.160482 -8.07637e-05 -0.524785 -0.000165014 0.270131 4.84942e-05
-0.208693 -0.000105027 -0.58305 -0.000183335 0.202525 3.63575e-05
-0.256459 -0.000129065 -0.623465 -0.000196043 0.123051 2.20903e-05
-0.303155 -0.000152565 -0.646685 -0.000203344 0.0332715 5.97293e-06
-0.34863 -0.000175451 -0.654191 -0.000205705 -0.122379 -2.19696e-05
-0.393426 -0.000197995 -0.648534 -0.000203926 -0.301349 -5.40985e-05
-0.438397 -0.000220627 -0.632101 -0.000198759 -0.486729 -8.73782e-05
-0.484215 -0.000243685 -0.607746 -0.0001911 -0.673789 -0.000120959
-0.53153 -0.000267497 -0.579022 -0.000182068 -0.858071 -0.000154042
-0.581093 -0.00029244 -0.549594 -0.000172815 -1.03548 -0.000185891
-0.633684 -0.000318907 -0.522895 -0.00016442 -1.20092 -0.000215591
-0.68999 -0.000347243 -0.502295 -0.000157942 -1.34977 -0.000242312
-0.750375 -0.000377632 -0.491121 -0.000154429 -1.47819 -0.000265366
-0.814545 -0.000409927 -0.492425 -0.000154838 -1.58327 -0.00028423
-0.88132 -0.000443532 -0.508879 -0.000160012 -1.66242 -0.000298439
-0.948726 -0.000477455 -0.542729 -0.000170656 -1.71384 -0.000307671
-1.01449 -0.000510548 -0.595478 -0.000187243 -1.73686 -0.000311804
-1.07656 -0.000541787 -0.667494 -0.000209888 -1.73212 -0.000310952
-1.13343 -0.00057041 -0.757864 -0.000238304 -1.70125 -0.00030541
-1.18431 -0.000596013 -0.864424 -0.00027181 -1.64689 -0.000295652
-1.22905 -0.000618528 -0.983857 -0.000309365 -1.57267 -0.000282328
-1.2681 -0.000638182 -1.11185 -0.00034961 -1.48308 -0.000266244
-1.30239 -0.000655441 -1.24334 -0.000390957 -1.38321 -0.000248315
-1.3331 -0.000670896 -1.37291 -0.000431699 -1.2784 -0.0002295
-1.36134 -0.000685104 -1.49515 -0.000470136 -1.17401 -0.00021076
-1.38795 -0.000698496 -1.60499 -0.000504673 -1.07519 -0.000193019
-1.41357 -0.00071139 -1.69796 -0.000533907 -0.986629 -0.000177121
-1.43864 -0.00072401 -1.7704 -0.000556685 -0.912316 -0.00016378
-1.45985 -0.000734684 -1.81788 -0.000571615 -0.855708 -0.000153618
-1.45834 -0.000733921 -1.8255 -0.000574013 -0.823228 -0.000147787
-1.45489 -0.000732184 -1.81 -0.000569139 -0.809471 -0.000145317
-1.47128 -0.000740435 -1.78217 -0.000560387 -0.811891 -0.000145752
-1.48775 -0.000748723 -1.73361 -0.000545118 -0.833778 -0.000149681
-1.49691 -0.00075333 -1.66636 -0.000523972 -0.872619 -0.000156654
-1.47322 -0.000741411 -1.59919 -0.00050285 -0.921483 -0.000165426
-1.44985 -0.000729647 -1.52112 -0.000478303 -0.980736 -0.000176063
-1.42 -0.000714628 -1.42901 -0.000449339 -1.04941 -0.000188392
-1.38969 -0.000699376 -1.33082 -0.000418465 -1.12229 -0.000201475
-1.35954 -0.000684203 -1.2312 -0.000387139 -1.19532 -0.000214585
-1.32851 -0.000668586 -1.13164 -0.000355835 -1.26456 -0.000227015
-1.29955 -0.000654008 -1.03571 -0.000325671 -1.3264 -0.000238117
-1.2735 -0.0006409 -0.947492 -0.00029793 -1.37778 -0.000247341
-1.25062 -0.000629386 -0.870132 -0.000273605 -1.4153 -0.000254077
-1.23231 -0.00062017 -0.806019 -0.000253445 -1.43583 -0.000257761
-1.21927 -0.000613609 -0.757 -0.000238032 -1.43772 -0.000258102
-1.21171 -0.000609805 -0.724795 -0.000227905 -1.42031 -0.000254975
-1.21008 -0.000608983 -0.710521 -0.000223417 -1.38303 -0.000248283
-1.2144 -0.000611155 -0.714215 -0.000224579 -1.32599 -0.000238043
-1.22436 -0.000616169 -0.735375 -0.000231232 -1.25055 -0.000224501
-1.23847 -0.000623273 -0.773423 -0.000243196 -1.159 -0.000208065
-1.24839 -0.000628261 -0.828997 -0.000260671 -1.05367 -0.000189157
-1.25295 -0.000630557 -0.900093 -0.000283026 -0.938039 -0.000168398
-1.25189 -0.000630027 -0.982887 -0.00030906 -0.816293 -0.000146542
-1.24552 -0.000626818 -1.07272 -0.000337306 -0.693267 -0.000124456
-1.23716 -0.000622614 -1.14646 -0.000360494 -0.597376 -0.000107242
-1.22645 -0.000617224 -1.21914 -0.000383348 -0.506487 -9.09251e-05
-1.21386 -0.000610886 -1.2881 -0.000405031 -0.42301 -7.59393e-05
-1.19984 -0.00060383 -1.35079 -0.000424742 -0.349241 -6.26962e-05
-1.1848 -0.000596261 -1.40494 -0.000441769 -0.287314 -5.15791e-05
-1.16905 -0.000588335 -1.44863 -0.000455508 -0.239061 -4.29165e-05
-1.15276 -0.000580138 -1.48029 -0.000465463 -0.205875 -3.69589e-05
-1.1359 -0.000571649 -1.49874 -0.000471266 -0.188686 -3.38732e-05
-1.11813 -0.000562707 -1.50331 -0.000472703 -0.188002 -3.37503e-05
-1.09887 -0.000553016 -1.49384 -0.000469726 -0.203915 -3.66072e-05
-1.07735 -0.000542184 -1.47069 -0.000462444 -0.236079 -4.23812e-05
-1.05276 -0.000529809 -1.43455 -0.00045108 -0.283682 -5.09269e-05
-1.02448 -0.000515581 -1.3864 -0.000435942 -0.345497 -6.20241e-05
-0.992244 -0.000499355 -1.32742 -0.000417395 -0.419956 -7.53911e-05
-0.956135 -0.000481183 -1.2589 -0.000395848 -0.505218 -9.06973e-05
-0.916587 -0.00046128 -1.18225 -0.000371747 -0.599195 -0.000107568
-0.874159 -0.000439928 -1.09902 -0.000345577 -0.699575 -0.000125589
-0.829355 -0.00041738 -1.01091 -0.000317873 -0.803855 -0.000144309
-0.782543 -0.000393821 -0.919778 -0.000289216 -0.909419 -0.00016326
-0.733985 -0.000369384 -0.827543 -0.000260213 -1.01361 -0.000181964
-0.683933 -0.000344195 -0.736127 -0.000231468 -1.11378 -0.000199948
-0.632662 -0.000318393 -0.647351 -0.000203554 -1.20741 -0.000216756
-0.58046 -0.000292122 -0.562901 -0.000176999 -1.29209 -0.000231957
-0.527577 -0.000265507 -0.484301 -0.000152284 -1.36561 -0.000245155
-0.474214 -0.000238653 -0.412878 -0.000129826 -1.42603 -0.000256002
-0.420552 -0.000211646 -0.349714 -0.000109964 -1.47171 -0.000264204
-0.366777 -0.000184583 -0.295593 -9.29465e-05 -1.50135 -0.000269525
-0.313106 -0.000157573 -0.250975 -7.89168e-05 -1.51402 -0.000271799
-0.259778 -0.000130736 -0.215994 -6.79175e-05 -1.50916 -0.000270926
-0.207057 -0.000104203 -0.190461 -5.98886e-05 -1.4866 -0.000266876
-0.155221 -7.81161e-05 -0.173869 -5.46717e-05 -1.44656 -0.000259688
-0.104548 -5.26149e-05 -0.165424 -5.2016e-05 -1.38963 -0.000249469
-0.0553288 -2.78447e-05 -0.164063 -5.15881e-05 -1.31674 -0.000236384
-0.00786513 -3.95819e-06 -0.168497 -5.29822e-05 -1.22913 -0.000220656
0.0283881 1.42865e-05 -0.176548 -5.55139e-05 -1.12823 -0.000202542
0.0471787 2.37431e-05 -0.182626 -5.7425e-05 -1.01665 -0.000182511
0.0672793 3.38589e-05 -0.188835 -5.93774e-05 -0.895374 -0.000160739
0.0867222 4.36437e-05 -0.197032 -6.19548e-05 -0.765573 -0.000137437
0.10378 5.22283e-05 -0.206286 -6.48649e-05 -0.629544 -0.000113017
0.120174 6.04788e-05 -0.21423 -6.73626e-05 -0.489019 -8.77893e-05
0.136983 6.8938e-05 -0.219076 -6.88863e-05 -0.346114 -6.21348e-05
0.153958 7.74806e-05 -0.220646 -6.93803e-05 -0.202871 -3.64197e-05
0.171427 8.62722e-05 -0.218746 -6.87828e-05 -0.0611908 -1.0985e-05
0.190338 9.57894e-05 -0.212283 -6.67505e-05 0.0353736 6.35031e-06
0.211158 0.000106267 -0.200331 -6.29924e-05 0.113635 2.03999e-05
0.233851 0.000117688 -0.182131 -5.72693e-05 0.187569 3.36726e-05
0.258564 0.000130125 -0.157207 -4.94322e-05 0.256939 4.6126e-05
0.285469 0.000143665 -0.132421 -4.16387e-05 0.321372 5.7693e-05
0.314452 0.000158251 -0.103773 -3.26305e-05 0.379924 6.82044e-05
0.34536 0.000173805 -0.0687441 -2.16159e-05 0.431795 7.75164e-05
0.378149 0.000190307 -0.0268024 -8.42778e-06 0.476731 8.55834e-05
0.41275 0.00020772 0.0218603 6.87376e-06 0.514806 9.24186e-05
0.449052 0.000225989 0.0764484 2.40385e-05 0.546128 9.80415e-05
0.48695 0.000245062 0.136187 4.28227e-05 0.570844 0.000102479
0.526272 0.000264851 0.20055 6.30613e-05 0.589198 0.000105774
0.566714 0.000285204 0.268963 8.45729e-05 0.60157 0.000107995
0.607865 0.000305913 0.34054 0.00010708 0.608483 0.000109236
0.649248 0.00032674 0.414198 0.000130241 0.6106 0.000109616
0.690351 0.000347425 0.488889 0.000153727 0.608682 0.000109271
0.730634 0.000367698 0.563646 0.000177233 0.603511 0.000108343
0.769546 0.000387281 0.63747 0.000200447 0.59585 0.000106968
0.806558 0.000405907 0.70925 0.000223017 0.586472 0.000105284
0.841189 0.000423336 0.777836 0.000244584 0.576198 0.00010344
0.873027 0.000439358 0.842138 0.000264803 0.565877 0.000101587
0.901741 0.000453809 0.901153 0.000283359 0.556306 9.98687e-05
0.927103 0.000466573 0.953922 0.000299952 0.548167 9.84076e-05
0.948997 0.000477591 0.999526 0.000314292 0.542043 9.73082e-05
0.96743 0.000486868 1.03713 0.000326118 0.538446 9.66624e-05
0.982523 0.000494463 1.06607 0.000335215 0.537809 9.65482e-05
0.994487 0.000500484 1.08581 0.000341423 0.540444 9.70212e-05
1.00358 0.000505061 1.09603 0.000344638 0.546496 9.81077e-05
1.01008 0.000508332 1.0966 0.000344817 0.555947 9.98043e-05
1.01429 0.000510452 1.08759 0.000341983 0.568639 0.000102083
1.01651 0.000511567 1.06919 0.000336198 0.584317 0.000104897
1.01702 0.000511824 1.04188 0.000327611 0.602569 0.000108174
1.01634 0.00051148 1.00639 0.000316451 0.622832 0.000111812
1.01496 0.000510789 0.963666 0.000303016 0.644413 0.000115686
1.01325 0.000509928 0.914797 0.00028765 0.666543 0.000119659
1.01149 0.000509039 0.861067 0.000270755 0.688373 0.000123578
1.0099 0.000508243 0.803927 0.000252788 0.708995 0.00012728
1.00867 0.000507622 0.744914 0.000234231 0.727471 0.000130597
1.00789 0.000507229 0.685593 0.000215579 0.742876 0.000133362
1.00769 0.000507127 0.627524 0.000197319 0.754321 0.000135417
1.00821 0.000507388 0.572216 0.000179928 0.76098 0.000136612
1.00957 0.000508075 0.521082 0.00016385 0.762123 0.000136817
1.01188 0.000509238 0.475407 0.000149487 0.757137 0.000135922
1.01521 0.000510911 0.436321 0.000137197 0.745546 0.000133841
1.0196 0.000513122 0.404767 0.000127275 0.727032 0.000130518
1.02512 0.000515898 0.381465 0.000119948 0.701453 0.000125926
1.03184 0.000519281 0.366885 0.000115364 0.668849 0.000120073
1.0399 0.00052334 0.361233 0.000113587 0.629451 0.000113
1.04949 0.000528164 0.364421 0.000114589 0.583681 0.000104783
1.06053 0.000533721 0.375536 0.000118084 0.532525 9.55996e-05
1.07243 0.000539709 0.395307 0.000124301 0.476097 8.54695e-05
1.08672 0.000546902 0.422566 0.000132872 0.415301 7.45554e-05
1.10098 0.000554078 0.45659 0.000143571 0.351483 6.30987e-05
1.11552 0.000561395 0.496542 0.000156133 0.285696 5.12884e-05
1.13152 0.000569446 0.540905 0.000170083 0.219468 3.93992e-05
1.14787 0.000577674 0.588641 0.000185093 0.153659 2.7585e-05
1.16131 0.000584439 0.638091 0.000200642 0.0896377 1.60919e-05
1.172 0.000589818 0.68884 0.0002166 0.0285689 5.12872e-06
1.18019 0.000593942 0.739994 0.000232684 -0.0280826 -5.04142e-06
1.1849 0.00059631 0.790221 0.000248478 -0.0927902 -1.66578e-05
1.18483 0.000596274 0.838036 0.000263513 -0.166304 -2.98551e-05
1.17964 0.000593665 0.882179 0.000277393 -0.22723 -4.07926e-05
1.16922 0.000588418 0.921649 0.000289804 -0.273708 -4.91363e-05
1.15312 0.000580317 0.955055 0.000300308 -0.303968 -5.45687e-05
1.13123 0.000569301 0.980957 0.000308453 -0.316889 -5.68882e-05
1.10416 0.000555676 0.998205 0.000313877 -0.311989 -5.60087e-05
1.07264 0.000539818 1.00591 0.000316298 -0.289065 -5.18933e-05
1.03722 0.000521988 1.00332 0.000315485 -0.24801 -4.45231e-05
0.998459 0.000502483 0.989955 0.000311282 -0.189022 -3.39335e-05
0.957149 0.000481694 0.965616 0.000303629 -0.112794 -2.0249e-05
0.914073 0.000460015 0.930409 0.000292559 -0.0482902 -8.66912e-06
0.870017 0.000437843 0.884563 0.000278143 0.0152517 2.73801e-06
0.825813 0.000415598 0.828844 0.000260623 0.0858895 1.5419e-05
0.782286 0.000393692 0.764279 0.000240321 0.162739 2.92151e-05
0.740049 0.000372436 0.69211 0.000217628 0.244447 4.38835e-05
0.699451 0.000352005 0.613867 0.000193025 0.329117 5.90836e-05
0.660679 0.000332492 0.53139 0.000167091 0.414651 7.44387e-05
0.623787 0.000313926 0.446736 0.000140472 0.499101 8.95992e-05
0.588682 0.000296259 0.36203 0.000113837 0.580722 0.000104252
0.555144 0.000279381 0.279389 8.78512e-05 0.657804 0.00011809
0.522893 0.00026315 0.200887 6.31671e-05 0.728548 0.00013079
0.491653 0.000247428 0.128502 4.04063e-05 0.791171 0.000142032
0.461201 0.000232103 0.0640051 2.01258e-05 0.844096 0.000151533
0.431377 0.000217094 0.00887132 2.78951e-06 0.886079 0.00015907
0.402034 0.000202327 -0.0357481 -1.12407e-05 0.91618 0.000164474
0.373003 0.000187717 -0.0690222 -2.17034e-05 0.933693 0.000167618
0.344094 0.000173168 -0.0904551 -2.84428e-05 0.938129 0.000168414
0.315128 0.000158591 -0.0999247 -3.14204e-05 0.929275 0.000166825
0.285959 0.000143911 -0.0977124 -3.07248e-05 0.907263 0.000162873
0.256473 0.000129072 -0.0844948 -2.65686e-05 0.872571 0.000156645
0.226583 0.00011403 -0.0613078 -1.92777e-05 0.82597 0.000148279
0.196218 9.87482e-05 -0.0295048 -9.27753e-06 0.768463 0.000137956
0.16529 8.31834e-05 0.0092859 2.91987e-06 0.701252 0.00012589
0.133673 6.72719e-05 0.0532099 1.67314e-05 0.625736 0.000112333
0.101186 5.09225e-05 0.100248 3.1522e-05 0.543492 9.75683e-05
0.0675942 3.40174e-05 0.148278 4.66246e-05 0.456223 8.19018e-05
0.046856 2.35807e-05 0.192261 6.04547e-05 0.365938 6.56936e-05
0.0309404 1.5571e-05 0.230276 7.24082e-05 0.273898 4.91705e-05
0.0120349 6.05667e-06 0.262111 8.24183e-05 0.182847 3.28249e-05
-0.00822696 -4.14029e-06 0.289142 9.0918e-05 0.0926045 1.66245e-05
-0.0297022 -1.49479e-05 0.309238 9.72371e-05 0.00543839 9.76306e-07
-0.0535626 -2.69558e-05 0.319785 0.000100553 -0.105822 -1.89973e-05
-0.0796686 -4.00939e-05 0.319187 0.000100365 -0.238003 -4.27266e-05
-0.107029 -5.38631e-05 0.307597 9.67211e-05 -0.360095 -6.46448e-05
-0.13531 -6.8096e-05 0.285576 8.97969e-05 -0.470347 -8.44373e-05
-0.168013 -8.45539e-05 0.252048 7.92542e-05 -0.567485 -0.000101876
-0.202622 -0.000101971 0.206294 6.48672e-05 -0.651368 -0.000116934
-0.238676 -0.000120116 0.135117 4.24862e-05 -0.721541 -0.000129532
-0.275794 -0.000138796 0.0513697 1.61527e-05 -0.779035 -0.000139853
-0.313719 -0.000157882 -0.0428902 -1.34864e-05 -0.823574 -0.000147849
-0.352367 -0.000177332 -0.146194 -4.59693e-05 -0.856032 -0.000153676
-0.391249 -0.0001969 -0.257405 -8.09386e-05 -0.877903 -0.000157602
-0.429883 -0.000216342 -0.37485 -0.000117868 -0.890943 -0.000159943
-0.467678 -0.000235363 -0.496301 -0.000156057 -0.896734 -0.000160983
-0.503467 -0.000253374 -0.619502 -0.000194797 -0.896873 -0.000161008
-0.53731 -0.000270406 -0.742075 -0.000233339 -0.893304 -0.000160367
-0.569405 -0.000286558 -0.86163 -0.000270932 -0.888139 -0.00015944
-0.600157 -0.000302034 -0.975596 -0.000306767 -0.883438 -0.000158596
-0.630151 -0.000317129 -1.08134 -0.000340017 -0.881064 -0.00015817
-0.660002 -0.000332152 -1.17648 -0.000369934 -0.882679 -0.00015846
-0.690233 -0.000347366 -1.25909 -0.000395909 -0.889731 -0.000159726
-0.72123 -0.000362965 -1.32766 -0.000417471 -0.903389 -0.000162178
-0.75006 -0.000377474 -1.38206 -0.000434575 -0.924296 -0.000165931
-0.774647 -0.000389848 -1.42254 -0.000447305 -0.952544 -0.000171002
-0.797587 -0.000401393 -1.44781 -0.000455251 -0.989057 -0.000177557
-0.818875 -0.000412106 -1.45773 -0.000458371 -1.0331 -0.000185463
-0.838777 -0.000422122 -1.45261 -0.000456761 -1.08413 -0.000194624
-0.857006 -0.000431296 -1.4334 -0.000450719 -1.14125 -0.000204879
-0.873294 -0.000439493 -1.4014 -0.000440658 -1.20347 -0.000216048
-0.887776 -0.000446781 -1.35823 -0.000427084 -1.26917 -0.000227844
-0.900704 -0.000453287 -1.30542 -0.000410476 -1.33655 -0.000239939
-0.912163 -0.000459054 -1.24463 -0.000391362 -1.40371 -0.000251996
-0.922374 -0.000464193 -1.17794 -0.000370392 -1.46877 -0.000263676
-0.931708 -0.00046889 -1.10766 -0.000348292 -1.52974 -0.000274621
-0.940456 -0.000473293 -1.03599 -0.000325757 -1.58454 -0.000284459
-0.948841 -0.000477513 -0.965023 -0.000303443 -1.63114 -0.000292824
-0.957117 -0.000481677 -0.89683 -0.000282 -1.66765 -0.000299379
-0.965539 -0.000485916 -0.83344 -0.000262068 -1.69248 -0.000303836
-0.97431 -0.00049033 -0.776693 -0.000244224 -1.70424 -0.000305947
-0.983605 -0.000495008 -0.72815 -0.00022896 -1.7018 -0.000305509
-0.993573 -0.000500024 -0.689092 -0.000216679 -1.68431 -0.00030237
-1.00428 -0.000505414 -0.660538 -0.0002077 -1.65132 -0.000296447
-1.0157 -0.000511158 -0.643225 -0.000202256 -1.60275 -0.000287728
-1.02771 -0.000517203 -0.637557 -0.000200474 -1.53894 -0.000276273
-1.04021 -0.000523493 -0.643564 -0.000202363 -1.4606 -0.000262209
-1.05311 -0.000529988 -0.660895 -0.000207812 -1.3688 -0.000245728
-1.06606 -0.000536504 -0.688476 -0.000216485 -1.26509 -0.00022711
-1.07655 -0.000541785 -0.726006 -0.000228286 -1.15106 -0.00020664
-1.08581 -0.000546442 -0.772393 -0.000242872 -1.02885 -0.000184701
-1.0941 -0.000550616 -0.826045 -0.000259743 -0.900734 -0.000161701
-1.10124 -0.000554208 -0.884772 -0.000278209 -0.769333 -0.000138112
-1.10741 -0.000557313 -0.946458 -0.000297605 -0.637309 -0.000114411
-1.11308 -0.000560169 -1.00909 -0.0003173 -0.507365 -9.10829e-05
-1.11849 -0.000562891 -1.07055 -0.000336626 -0.382212 -6.86152e-05
-1.12372 -0.000565521 -1.12868 -0.000354902 -0.264474 -4.74787e-05
-1.12887 -0.000568114 -1.1815 -0.000371513 -0.156584 -2.81101e-05
-1.13389 -0.000570642 -1.2274 -0.000385944 -0.0607406 -1.09042e-05
-1.13842 -0.000572922 -1.26502 -0.000397774 0.0211919 3.8044e-06
-1.14198 -0.000574713 -1.29332 -0.000406674 0.0608251 1.09194e-05
-1.14414 -0.000575799 -1.31164 -0.000412433 0.09024 1.62e-05
-1.14455 -0.000576004 -1.31943 -0.000414884 0.10886 1.95427e-05
-1.14285 -0.000575149 -1.31645 -0.000413945 0.11679 2.09663e-05
-1.13866 -0.000573039 -1.30273 -0.000409632 0.114093 2.04821e-05
-1.13181 -0.000569592 -1.27872 -0.000402081 0.100836 1.81021e-05
-1.12237 -0.000564845 -1.24509 -0.000391506 0.0772834 1.3874e-05
-1.11057 -0.000558906 -1.20266 -0.000378166 0.044066 7.91079e-06
-1.09679 -0.000551968 -1.15242 -0.000362368 -0.01192 -2.1399e-06
-1.08152 -0.000544285 -1.09569 -0.000344529 -0.0943626 -1.69401e-05
-1.06528 -0.000536113 -1.03389 -0.000325097 -0.187602 -3.36785e-05
-1.04843 -0.000527632 -0.968616 -0.000304573 -0.289365 -5.19472e-05
-1.03116 -0.000518941 -0.901661 -0.000283519 -0.397332 -7.13295e-05
-1.01359 -0.0005101 -0.834934 -0.000262537 -0.509189 -9.14102e-05
-0.995874 -0.000501182 -0.770327 -0.000242222 -0.622516 -0.000111755
-0.978217 -0.000492296 -0.709616 -0.000223132 -0.734813 -0.000131915
-0.960912 -0.000483587 -0.654432 -0.00020578 -0.843648 -0.000151453
-0.944298 -0.000475226 -0.606254 -0.000190631 -0.946813 -0.000169973
-0.928738 -0.000467396 -0.566362 -0.000178087 -1.04238 -0.000187129
-0.914611 -0.000460286 -0.535793 -0.000168475 -1.12864 -0.000202615
-0.902256 -0.000454068 -0.515326 -0.000162039 -1.20413 -0.000216167
-0.891908 -0.00044886 -0.505493 -0.000158948 -1.26764 -0.000227568
-0.883611 -0.000444685 -0.506604 -0.000159297 -1.3183 -0.000236662
-0.877181 -0.000441449 -0.518746 -0.000163115 -1.3556 -0.000243359
-0.872217 -0.000438951 -0.541763 -0.000170353 -1.37941 -0.000247633
-0.868164 -0.000436911 -0.575234 -0.000180877 -1.3899 -0.000249516
-0.86437 -0.000435002 -0.618455 -0.000194468 -1.38756 -0.000249097
-0.860085 -0.000432845 -0.670456 -0.000210819 -1.37322 -0.000246523
-0.854496 -0.000430032 -0.730003 -0.000229543 -1.348 -0.000241995
-0.846832 -0.000426175 -0.795594 -0.000250167 -1.31332 -0.000235768
-0.836429 -0.00042094 -0.865463 -0.000272137 -1.27081 -0.000228138
-0.822754 -0.000414058 -0.937611 -0.000294823 -1.22231 -0.000219431
-0.805422 -0.000405336 -1.00986 -0.000317541 -1.16976 -0.000209997
-0.784245 -0.000394678 -1.07989 -0.000339563 -1.11518 -0.000200198
-0.759225 -0.000382087 -1.14533 -0.000360139 -1.0606 -0.0001904
-0.730526 -0.000367644 -1.20379 -0.000378522 -1.008 -0.000180957
-0.698417 -0.000351484 -1.25301 -0.000393996 -0.959208 -0.000172198
-0.663203 -0.000333763 -1.29088 -0.000405906 -0.915857 -0.000164416
-0.625158 -0.000314616 -1.31562 -0.000413686 -0.879313 -0.000157855
-0.584507 -0.000294158 -1.32577 -0.000416877 -0.850633 -0.000152707
-0.541453 -0.000272491 -1.32025 -0.00041514 -0.830529 -0.000149098
-0.496205 -0.000249719 -1.29836 -0.000408258 -0.819335 -0.000147088
-0.448996 -0.000225961 -1.25984 -0.000396144 -0.816997 -0.000146668
-0.400098 -0.000201353 -1.20482 -0.000378845 -0.823068 -0.000147758
-0.349804 -0.000176042 -1.13387 -0.000356534 -0.836719 -0.000150209
-0.298403 -0.000150174 -1.04795 -0.000329519 -0.856758 -0.000153806
-0.246307 -0.000123956 -0.948659 -0.000298297 -0.881564 -0.00015826
-0.198699 -9.99968e-05 -0.836436 -0.00026301 -0.90933 -0.000163244
-0.150077 -7.55274e-05 -0.713431 -0.000224332 -0.938701 -0.000168517
-0.10007 -5.0361e-05 -0.583561 -0.000183496 -0.966488 -0.000173505
-0.0508353 -2.55833e-05 -0.449428 -0.000141318 -0.990432 -0.000177804
-0.00226068 -1.1377e-06 -0.312946 -9.84029e-05 -1.00823 -0.000180998
0.0416376 2.09545e-05 -0.176431 -5.54772e-05 -1.01783 -0.000182722
0.0778834 3.91955e-05 -0.0436377 -1.37215e-05 -1.01655 -0.000182492
0.112178 5.64543e-05 0.0839789 2.64064e-05 -1.00279 -0.000180023
0.145896 7.34235e-05 0.204865 6.44179e-05 -0.97488 -0.000175012
0.177506 8.93314e-05 0.308159 9.68978e-05 -0.930246 -0.000166999
0.205947 0.000103645 0.390708 0.000122855 -0.868992 -0.000156003
0.232368 0.000116941 0.461346 0.000145066 -0.790369 -0.000141888
0.257054 0.000129365 0.519823 0.000163454 -0.694049 -0.000124597
0.279477 0.000140649 0.56525 0.000177738 -0.579936 -0.000104111
0.299763 0.000150858 0.596869 0.00018768 -0.448719 -8.05545e-05
0.318544 0.00016031 0.614565 0.000193244 -0.301652 -5.41529e-05
0.33612 0.000169155 0.618794 0.000194574 -0.140272 -2.51818e-05
0.352629 0.000177463 0.610435 0.000191946 -0.0190524 -3.42032e-06
0.368554 0.000185478 0.590244 0.000185597 0.0893823 1.6046e-05
0.384462 0.000193484 0.559606 0.000175963 0.201799 3.62273e-05
0.400825 0.000201718 0.520106 0.000163543 0.317317 5.69651e-05
0.41808 0.000210402 0.473539 0.0001489 0.434301 7.79664e-05
0.436768 0.000219807 0.421933 0.000132673 0.550324 9.87949e-05
0.457377 0.000230179 0.36749 0.000115554 0.662814 0.000118989
0.480181 0.000241655 0.312529 9.8272e-05 0.769657 0.00013817
0.505276 0.000254284 0.259406 8.15679e-05 0.869186 0.000156037
0.532575 0.000268023 0.21032 6.61333e-05 0.959811 0.000172307
0.562003 0.000282833 0.167528 5.26777e-05 1.03952 0.000186616
0.593882 0.000298876 0.131403 4.13184e-05 1.0884 0.000195392
0.627362 0.000315725 0.108908 3.42451e-05 1.09976 0.00019743
0.662793 0.000333556 0.0996968 3.13488e-05 1.08463 0.000194714
0.698656 0.000351604 0.102425 3.22067e-05 1.06665 0.000191486
0.735929 0.000370363 0.114551 3.60196e-05 1.07107 0.00019228
0.773936 0.00038949 0.138749 4.36283e-05 1.08711 0.00019516
0.812133 0.000408713 0.177795 5.59061e-05 1.08569 0.000194904
0.850816 0.000428181 0.23204 7.29627e-05 1.04999 0.000188495
0.890174 0.000447988 0.298688 9.39197e-05 0.988548 0.000177465
0.930198 0.00046813 0.374616 0.000117795 0.92189 0.000165499
0.970878 0.000488603 0.458486 0.000144167 0.859452 0.00015429
1.01219 0.000509396 0.54973 0.000172858 0.794108 0.000142559
1.05403 0.00053045 0.646706 0.000203351 0.715313 0.000128414
1.09616 0.000551651 0.746636 0.000234773 0.622774 0.000111801
1.13832 0.000572871 0.846687 0.000266233 0.526421 9.45037e-05
1.18019 0.000593938 0.94465 0.000297037 0.43579 7.82336e-05
1.22128 0.000614622 1.03869 0.000326606 0.352363 6.32566e-05
1.2611 0.000634658 1.12691 0.000354346 0.272063 4.88412e-05
1.2991 0.000653781 1.20735 0.000379642 0.192846 3.46199e-05
1.33471 0.000671702 1.27822 0.000401924 0.118214 2.12219e-05
1.35744 0.000683142 1.32179 0.000415624 0.0573337 1.02926e-05
1.34383 0.000676295 1.34109 0.000421695 0.00846927 1.52041e-06
1.33939 0.000674061 1.34593 0.000423215 -0.0241887 -4.34239e-06
1.35151 0.000680161 1.35858 0.000427193 -0.0524222 -9.41089e-06
1.36061 0.00068474 1.36818 0.000430211 -0.0735872 -1.32105e-05
1.35718 0.000683015 1.36819 0.000430215 -0.0840014 -1.508e-05
1.3568 0.000682819 1.35898 0.000427318 -0.0822655 -1.47684e-05
1.35576 0.000682295 1.34282 0.000422237 -0.0685106 -1.22991e-05
1.34889 0.000678841 1.31555 0.000413663 -0.0441688 -7.92925e-06
1.33698 0.000672844 1.27638 0.000401346 -0.0105122 -1.88717e-06
1.32375 0.000666187 1.22777 0.00038606 0.030975 5.56067e-06
1.30876 0.000658642 1.17166 0.000368418 0.081381 1.46096e-05
1.29054 0.000649478 1.10965 0.000348918 0.139802 2.50975e-05
1.2704 0.000639338 1.04302 0.000327969 0.203908 3.66058e-05
1.24972 0.00062893 0.973164 0.000306003 0.271161 4.86791e-05
1.2285 0.000618253 0.901675 0.000283524 0.340277 6.1087e-05
1.20686 0.000607361 0.830726 0.000261214 0.41047 7.36881e-05
1.18569 0.000596708 0.762464 0.00023975 0.480386 8.62396e-05
1.16576 0.000586676 0.698388 0.000219602 0.548081 9.83922e-05
1.14738 0.000577427 0.639723 0.000201155 0.61166 0.000109806
1.13097 0.000569168 0.587976 0.000184884 0.669745 0.000120233
1.11709 0.000562186 0.544711 0.000171279 0.72139 0.000129505
1.10616 0.000556683 0.511046 0.000160694 0.765747 0.000137468
1.09838 0.000552772 0.487637 0.000153333 0.801895 0.000143957
1.09398 0.000550557 0.47498 0.000149353 0.829009 0.000148825
1.09243 0.000549776 0.473659 0.000148938 0.846574 0.000151978
1.09092 0.000549016 0.484595 0.000152377 0.854369 0.000153377
1.08959 0.000548346 0.507595 0.000159609 0.852727 0.000153083
1.08847 0.000547783 0.541929 0.000170405 0.841908 0.00015114
1.08764 0.000547366 0.586364 0.000184377 0.822456 0.000147648
1.08714 0.000547114 0.639555 0.000201102 0.795132 0.000142743
1.08698 0.000547033 0.700042 0.000220122 0.761013 0.000136618
1.08714 0.000547114 0.766141 0.000240906 0.721311 0.000129491
1.08756 0.000547326 0.835897 0.00026284 0.677308 0.000121591
1.08811 0.0005476 0.907238 0.000285273 0.63035 0.000113161
1.08859 0.000547842 0.978136 0.000307566 0.581855 0.000104455
1.08879 0.000547943 1.04664 0.000329107 0.533273 9.57339e-05
1.08848 0.000547789 1.11084 0.000349294 0.486008 8.72488e-05
1.08746 0.000547275 1.16889 0.000367547 0.441369 7.92351e-05
1.08554 0.000546306 1.2191 0.000383335 0.400551 7.19075e-05
1.08258 0.000544819 1.26001 0.000396199 0.364623 6.54576e-05
1.07854 0.000542783 1.29042 0.000405762 0.334488 6.00477e-05
1.07341 0.000540202 1.30938 0.000411724 0.310848 5.58039e-05
1.06724 0.0005371 1.31622 0.000413875 0.294185 5.28125e-05
1.06009 0.000533499 1.31062 0.000412112 0.284752 5.1119e-05
1.05193 0.000529394 1.29261 0.00040645 0.282574 5.07281e-05
1.04266 0.000524729 1.26263 0.000397023 0.287442 5.1602e-05
1.03205 0.000519388 1.22146 0.000384076 0.298916 5.36619e-05
1.01978 0.000513215 1.17018 0.000367952 0.316347 5.6791e-05
1.00557 0.000506063 1.11015 0.000349076 0.338903 6.08404e-05
0.989187 0.000497817 1.04292 0.000327936 0.365608 6.56343e-05
0.970484 0.000488404 0.97017 0.000305061 0.395359 7.09753e-05
0.949384 0.000477785 0.893679 0.000281009 0.42697 7.66502e-05
0.925863 0.000465948 0.815262 0.000256352 0.459202 8.24365e-05
0.899929 0.000452897 0.736737 0.00023166 0.490803 8.81096e-05
0.871586 0.000438633 0.659875 0.000207492 0.520543 9.34485e-05
0.840834 0.000423157 0.58635 0.000184372 0.547248 9.82426e-05
0.807703 0.000406484 0.517678 0.000162779 0.569838 0.000102298
0.772329 0.000388681 0.455155 0.000143119 0.587357 0.000105443
0.735037 0.000369914 0.399793 0.000125711 0.599006 0.000107534
0.696397 0.000350468 0.352279 0.000110771 0.60416 0.00010846
0.657159 0.000330721 0.312979 9.84134e-05 0.602378 0.00010814
0.618139 0.000311084 0.281979 8.86656e-05 0.593408 0.000106529
0.580091 0.000291936 0.25914 8.14841e-05 0.577184 0.000103617
0.543606 0.000273574 0.244146 7.67695e-05 0.553812 9.94211e-05
0.509061 0.000256189 0.236533 7.43757e-05 0.523568 9.39916e-05
0.476627 0.000239867 0.235704 7.41151e-05 0.486881 8.74054e-05
0.446306 0.000224607 0.240939 7.57612e-05 0.444322 7.97653e-05
0.417969 0.000210347 0.251404 7.90518e-05 0.396596 7.11974e-05
0.39138 0.000196965 0.266169 8.36945e-05 0.344514 6.18475e-05
0.366213 0.0001843 0.284227 8.93725e-05 0.28898 5.1878e-05
0.342091 0.00017216 0.304509 9.575e-05 0.230965 4.14632e-05
0.318643 0.00016036 0.325898 0.000102476 0.171492 3.07865e-05
0.295507 0.000148716 0.34725 0.000109189 0.111602 2.0035e-05
0.272283 0.000137029 0.367436 0.000115537 0.0523368 9.39556e-06
0.248499 0.000125059 0.38539 0.000121183 -0.00529397 -9.50381e-07
0.223584 0.000112521 0.400282 0.000125865 -0.0748962 -1.34455e-05
0.197 9.91419e-05 0.410879 0.000129197 -0.153862 -2.76215e-05
0.168206 8.46513e-05 0.416227 0.000130879 -0.223499 -4.01229e-05
0.136923 6.89079e-05 0.415964 0.000130796 -0.285714 -5.12918e-05
0.102854 5.17621e-05 0.410189 0.00012898 -0.341889 -6.13763e-05
0.0811563 4.08426e-05 0.395764 0.000124444 -0.391294 -7.02456e-05
0.0596709 3.00299e-05 0.369704 0.00011625 -0.429863 -7.71696e-05
0.033305 1.6761e-05 0.337506 0.000106126 -0.458731 -8.23519e-05
0.00675371 3.39886e-06 0.300375 9.44502e-05 -0.478503 -8.59016e-05
-0.0209555 -1.0546e-05 0.257762 8.1051e-05 -0.490581 -8.80697e-05
-0.0515114 -2.59235e-05 0.208611 6.55958e-05 -0.495482 -8.89496e-05
-0.0851577 -4.28563e-05 0.157224 4.94376e-05 -0.493988 -8.86814e-05
-0.116166 -5.84613e-05 0.103518 3.25501e-05 -0.484882 -8.70466e-05
-0.148747 -7.48581e-05 0.0426517 1.34114e-05 -0.469712 -8.43233e-05
-0.183535 -9.23653e-05 -0.0269758 -8.4823e-06 -0.448326 -8.0484e-05
-0.21809 -0.000109756 -0.0989085 -3.11009e-05 -0.424003 -7.61175e-05
-0.251002 -0.000126319 -0.170782 -5.37008e-05 -0.397327 -7.13286e-05
-0.283661 -0.000142755 -0.241549 -7.59528e-05 -0.369133 -6.62672e-05
-0.316251 -0.000159156 -0.310735 -9.77078e-05 -0.340773 -6.11761e-05
-0.347656 -0.000174961 -0.377366 -0.000118659 -0.314032 -5.63753e-05
-0.377575 -0.000190018 -0.44026 -0.000138436 -0.290283 -5.2112e-05
-0.406369 -0.000204509 -0.498301 -0.000156686 -0.27044 -4.85497e-05
-0.433903 -0.000218365 -0.550495 -0.000173098 -0.255429 -4.5855e-05
-0.45975 -0.000231373 -0.596193 -0.000187468 -0.246221 -4.42019e-05
-0.483876 -0.000243515 -0.635014 -0.000199674 -0.243584 -4.37285e-05
-0.506442 -0.000254871 -0.666531 -0.000209585 -0.247995 -4.45204e-05
-0.527433 -0.000265435 -0.690285 -0.000217054 -0.259725 -4.66262e-05
-0.546792 -0.000275178 -0.706118 -0.000222032 -0.278877 -5.00643e-05
-0.564615 -0.000284148 -0.714258 -0.000224592 -0.305342 -5.48153e-05
-0.581056 -0.000292421 -0.715085 -0.000224852 -0.338776 -6.08175e-05
-0.596235 -0.00030006 -0.708994 -0.000222937 -0.378619 -6.79701e-05
-0.610321 -0.000307149 -0.696507 -0.00021901 -0.424135 -7.61412e-05
-0.623574 -0.000313819 -0.678362 -0.000213305 -0.47334 -8.49745e-05
-0.636319 -0.000320233 -0.655294 -0.000206051 -0.52264 -9.38249e-05
-0.648749 -0.000326488 -0.628898 -0.000197751 -0.571705 -0.000102633
-0.661287 -0.000332798 -0.599721 -0.000188577 -0.621947 -0.000111653
-0.67409 -0.000339241 -0.568886 -0.000178881 -0.673212 -0.000120856
-0.687485 -0.000345983 -0.537594 -0.000169042 -0.724568 -0.000130075
-0.701684 -0.000353128 -0.507268 -0.000159506 -0.773913 -0.000138934
-0.716911 -0.000360792 -0.479135 -0.00015066 -0.819367 -0.000147094
-0.733378 -0.000369079 -0.454262 -0.000142839 -0.860032 -0.000154394
-0.751262 -0.000378079 -0.433673 -0.000136365 -0.895679 -0.000160793
-0.770659 -0.000387841 -0.418402 -0.000131563 -0.925919 -0.000166222
-0.791556 -0.000398357 -0.40943 -0.000128742 -0.949841 -0.000170517
-0.813834 -0.000409569 -0.407583 -0.000128161 -0.966431 -0.000173495
-0.83728 -0.000421368 -0.413503 -0.000130022 -0.975168 -0.000175063
-0.861622 -0.000433619 -0.427648 -0.00013447 -0.976111 -0.000175233
-0.886572 -0.000446175 -0.450249 -0.000141577 -0.96906 -0.000173967
-0.911841 -0.000458892 -0.481377 -0.000151365 -0.954034 -0.000171269
-0.937178 -0.000471643 -0.520795 -0.000163759 -0.931276 -0.000167184
-0.962356 -0.000484314 -0.567988 -0.000178599 -0.901499 -0.000161838
-0.9872 -0.000496817 -0.622182 -0.000195639 -0.865962 -0.000155459
-1.01159 -0.000509089 -0.682406 -0.000214577 -0.826138 -0.000148309
-1.03545 -0.000521098 -0.7475 -0.000235045 -0.78344 -0.000140644
-1.05877 -0.000532834 -0.816128 -0.000256624 -0.739225 -0.000132707
-1.08146 -0.000544256 -0.886857 -0.000278864 -0.694969 -0.000124762
-1.10281 -0.000554999 -0.958431 -0.00030137 -0.652304 -0.000117102
-1.12316 -0.000565239 -1.02931 -0.000323657 -0.613002 -0.000110047
-1.14279 -0.000575118 -1.09782 -0.000345201 -0.578709 -0.000103891
-1.16181 -0.00058469 -1.16239 -0.000365502 -0.550864 -9.88919e-05
-1.18031 -0.000594002 -1.22165 -0.000384135 -0.530709 -9.52736e-05
-1.19835 -0.000603078 -1.2745 -0.000400755 -0.519352 -9.32348e-05
-1.21587 -0.000611896 -1.32003 -0.00041507 -0.517727 -9.2943e-05
-1.22959 -0.000618802 -1.35883 -0.000427271 -0.526145 -9.44543e-05
-1.2422 -0.000625148 -1.38948 -0.000436909 -0.545391 -9.79093e-05
-1.25223 -0.000630193 -1.41161 -0.000443868 -0.575726 -0.000103355
-1.25998 -0.000634096 -1.42531 -0.000448176 -0.616565 -0.000110686
-1.26605 -0.000637151 -1.43046 -0.000449797 -0.667712 -0.000119869
-1.27009 -0.000639186 -1.42733 -0.00044881 -0.728532 -0.000130787
-1.27173 -0.00064001 -1.41607 -0.000445271 -0.798429 -0.000143335
-1.27098 -0.000639631 -1.39739 -0.000439398 -0.876156 -0.000157289
-1.26822 -0.000638243 -1.37207 -0.000431435 -0.958407 -0.000172054
-1.26376 -0.000635999 -1.34072 -0.000421578 -1.03885 -0.000186496
-1.25757 -0.000632882 -1.30544 -0.000410483 -1.11876 -0.000200841
-1.24999 -0.000629066 -1.26668 -0.000398296 -1.19983 -0.000215394
-1.2411 -0.000624597 -1.22567 -0.000385401 -1.28241 -0.00023022
-1.23124 -0.000619632 -1.18367 -0.000372194 -1.36509 -0.000245063
-1.22055 -0.000614253 -1.1422 -0.000359155 -1.44462 -0.000259341
-1.20933 -0.000608604 -1.1025 -0.000346671 -1.51829 -0.000272565
-1.19784 -0.000602825 -1.06557 -0.00033506 -1.58498 -0.000284538
-1.18635 -0.000597039 -1.03231 -0.0003246 -1.64463 -0.000295247
-1.17436 -0.000591007 -1.00378 -0.000315629 -1.69673 -0.000304599
-1.16036 -0.000583961 -0.981306 -0.000308563 -1.73976 -0.000312323
-1.14418 -0.000575819 -0.965541 -0.000303606 -1.77224 -0.000318154
-1.12555 -0.000566445 -0.956787 -0.000300853 -1.79336 -0.000321946
-1.10433 -0.000555762 -0.954962 -0.000300279 -1.80328 -0.000323727
-1.0805 -0.000543772 -0.959719 -0.000301775 -1.80223 -0.000323539
-1.05429 -0.000530583 -0.970419 -0.00030514 -1.78974 -0.000321297
-1.02609 -0.000516387 -0.986227 -0.00031011 -1.76553 -0.00031695
-0.996307 -0.0005014 -1.00595 -0.000316313 -1.73 -0.000310571
-0.965306 -0.000485798 -1.02821 -0.000323313 -1.6844 -0.000302385
-0.933324 -0.000469703 -1.05156 -0.000330654 -1.63041 -0.000292694
-0.900526 -0.000453197 -1.07457 -0.000337889 -1.56954 -0.000281766
-0.867068 -0.00043636 -1.0958 -0.000344565 -1.50289 -0.000269801
-0.833112 -0.000419271 -1.11377 -0.000350214 -1.43155 -0.000256994
-0.798758 -0.000401982 -1.12705 -0.000354391 -1.35689 -0.00024359
-0.763986 -0.000384483 -1.13438 -0.000356695 -1.28047 -0.000229871
-0.72867 -0.000366709 -1.13469 -0.000356793 -1.20375 -0.000216098
-0.692684 -0.000348599 -1.12709 -0.000354404 -1.12784 -0.000202471
-0.655991 -0.000330133 -1.11084 -0.000349294 -1.05356 -0.000189136
-0.618663 -0.000311347 -1.08537 -0.000341286 -0.981636 -0.000176224
-0.580842 -0.000292314 -1.05033 -0.000330267 -0.912769 -0.000163861
-0.542681 -0.000273109 -1.00561 -0.000316206 -0.847505 -0.000152145
-0.504284 -0.000253785 -0.951389 -0.000299156 -0.786098 -0.000141121
-0.465666 -0.00023435 -0.888115 -0.00027926 -0.728484 -0.000130778
-0.426728 -0.000214755 -0.816519 -0.000256747 -0.674379 -0.000121065
-0.387281 -0.000194902 -0.737579 -0.000231925 -0.623374 -0.000111909
-0.347091 -0.000174676 -0.652473 -0.000205164 -0.574956 -0.000103217
-0.305933 -0.000153963 -0.562524 -0.000176881 -0.528475 -9.48725e-05
-0.263643 -0.000132681 -0.469139 -0.000147517 -0.483136 -8.67331e-05
-0.220164 -0.0001108 -0.373757 -0.000117524 -0.43806 -7.86411e-05
-0.175559 -8.83515e-05 -0.277802 -8.73523e-05 -0.392369 -7.04386e-05
-0.129971 -6.54091e-05 -0.182657 -5.74349e-05 -0.34523 -6.1976e-05
-0.0835935 -4.20692e-05 -0.0896381 -2.81859e-05 -0.295869 -5.31147e-05
-0.0367879 -1.85138e-05 2.48055e-05 7.79985e-09 -0.243533 -4.37194e-05
0.00369183 1.85794e-06 0.0762733 2.39835e-05 -0.186702 -3.3517e-05
0.0381542 1.92014e-05 0.137434 4.32149e-05 -0.125211 -2.2478e-05
0.0733426 3.69103e-05 0.193045 6.07014e-05 -0.0612111 -1.09887e-05
0.100366 5.05101e-05 0.247535 7.78352e-05 -0.0251122 -4.50817e-06
0.126068 6.34447e-05 0.297564 9.35662e-05 0.0115357 2.0709e-06
0.149184 7.50782e-05 0.340968 0.000107214 0.0493242 8.85474e-06
0.170599 8.58553e-05 0.376251 0.000118309 0.0914708 1.6421e-05
0.19116 9.62031e-05 0.404336 0.00012714 0.137142 2.46199e-05
0.210378 0.000105874 0.425843 0.000133902 0.184984 3.32086e-05
0.227944 0.000114715 0.440807 0.000138608 0.23313 4.18519e-05
0.244388 0.00012299 0.448898 0.000141152 0.281308 5.05008e-05
0.260094 0.000130895 0.450183 0.000141556 0.330222 5.92818e-05
0.27507 0.000138431 0.445345 0.000140035 0.380126 6.82407e-05
0.289507 0.000145697 0.435329 0.000136885 0.429955 7.71861e-05
0.303834 0.000152907 0.420878 0.000132341 0.478014 8.58136e-05
0.318366 0.00016022 0.40255 0.000126578 0.523201 9.39258e-05
0.333284 0.000167728 0.381119 0.00011984 0.565287 0.000101481
0.348817 0.000175545 0.357697 0.000112475 0.604166 0.000108461
0.365223 0.000183802 0.333444 0.000104848 0.639162 0.000114743
0.382689 0.000192592 0.309355 9.72741e-05 0.669124 0.000120122
0.401355 0.000201986 0.28635 9.00402e-05 0.693047 0.000124417
0.421344 0.000212045 0.265418 8.34582e-05 0.710455 0.000127542
0.442726 0.000222805 0.247578 7.78487e-05 0.72121 0.000129473
0.465475 0.000234254 0.233747 7.34996e-05 0.725107 0.000130172
0.489495 0.000246342 0.224658 7.06417e-05 0.721489 0.000129523
0.514623 0.000258988 0.221022 6.94984e-05 0.709442 0.00012736
0.540689 0.000272106 0.223395 7.02446e-05 0.688628 0.000123623
0.567489 0.000285594 0.232133 7.29921e-05 0.659393 0.000118375
0.594841 0.000299359 0.247332 7.77714e-05 0.62256 0.000111763
0.622592 0.000313325 0.268904 8.45544e-05 0.578845 0.000103915
0.650625 0.000327433 0.296593 9.32609e-05 0.528736 9.49194e-05
0.67886 0.000341642 0.329953 0.000103751 0.472793 8.48764e-05
0.707253 0.000355931 0.368339 0.000115821 0.411932 7.39506e-05
0.735771 0.000370283 0.410932 0.000129214 0.347419 6.23691e-05
0.764368 0.000384675 0.456803 0.000143638 0.2806 5.03736e-05
0.792975 0.000399071 0.504964 0.000158781 0.212702 3.81845e-05
0.821485 0.000413419 0.554389 0.000174323 0.14486 2.60054e-05
0.849763 0.00042765 0.604029 0.000189932 0.0782562 1.40487e-05
0.87765 0.000441685 0.652837 0.000205279 0.0141856 2.54661e-06
0.904979 0.000455438 0.699803 0.000220047 -0.0460431 -8.26571e-06
0.931551 0.000468811 0.744165 0.000233996 -0.121895 -2.18828e-05
0.957281 0.00048176 0.784521 0.000246686 -0.197343 -3.54272e-05
0.981911 0.000494155 0.820385 0.000257963 -0.2611 -4.6873e-05
1.00545 0.000506 0.851315 0.000267688 -0.313398 -5.62616e-05
1.02768 0.000517188 0.877139 0.000275808 -0.354375 -6.36178e-05
1.04858 0.000527709 0.89721 0.00028212 -0.382573 -6.86801e-05
1.06813 0.000537545 0.911142 0.0002865 -0.396335 -7.11506e-05
1.08629 0.000546687 0.918989 0.000288968 -0.394752 -7.08664e-05
1.10308 0.000555135 0.921093 0.000289629 -0.377687 -6.78028e-05
1.11851 0.000562899 0.917762 0.000288582 -0.345766 -6.20724e-05
1.1326 0.000569989 0.909388 0.000285949 -0.299568 -5.37789e-05
1.14537 0.00057642 0.896551 0.000281912 -0.239584 -4.30104e-05
1.15689 0.000582217 0.88005 0.000276724 -0.166653 -2.99178e-05
1.16727 0.000587436 0.860767 0.000270661 -0.0817515 -1.46761e-05
1.17667 0.00059217 0.839421 0.000263948 -0.0273451 -4.90902e-06
1.18521 0.000596467 0.817332 0.000257003 0.0293937 5.2768e-06
1.19312 0.000600449 0.79508 0.000250006 0.0896901 1.61013e-05
1.20058 0.000604203 0.773746 0.000243297 0.153835 2.76167e-05
1.20738 0.000607622 0.754414 0.000237219 0.220959 3.96668e-05
1.20325 0.000605544 0.741576 0.000233182 0.287959 5.16948e-05
1.20116 0.000604495 0.731565 0.000230034 0.355108 6.37494e-05
1.19913 0.000603475 0.726202 0.000228348 0.420082 7.54137e-05
1.19885 0.000603333 0.724749 0.000227891 0.483365 8.67742e-05
1.20032 0.00060407 0.727889 0.000228878 0.544654 9.77769e-05
1.20321 0.000605527 0.736186 0.000231487 0.603309 0.000108307
1.20762 0.000607746 0.750081 0.000235856 0.658157 0.000118153
1.21381 0.000610862 0.769508 0.000241965 0.708224 0.000127141
1.22173 0.000614848 0.794061 0.000249685 0.753403 0.000135252
1.23122 0.000619622 0.822811 0.000258725 0.794117 0.000142561
1.2406 0.000624342 0.855679 0.000269061 0.830386 0.000149072
1.25115 0.000629654 0.892799 0.000280733 0.861653 0.000154685
1.26379 0.000636014 0.933538 0.000293543 0.887602 0.000159344
1.27672 0.000642519 0.97727 0.000307294 0.908656 0.000163123
1.28871 0.000648556 1.02373 0.000321903 0.925027 0.000166062
1.30036 0.000654417 1.07241 0.00033721 0.937171 0.000168242
1.31139 0.000659967 1.12232 0.000352902 0.945277 0.000169697
1.32109 0.000664848 1.17228 0.000368612 0.949799 0.000170509
1.32923 0.000668946 1.22146 0.000384078 0.951169 0.000170755
1.33588 0.000672294 1.26906 0.000399045 0.949948 0.000170536
1.34096 0.00067485 1.314 0.000413175 0.946655 0.000169945
1.34441 0.000676587 1.3551 0.0004261 0.941768 0.000169067
1.3464 0.000677586 1.39135 0.000437497 0.935753 0.000167988
1.3471 0.000677939 1.42188 0.000447098 0.929121 0.000166797
1.34663 0.000677705 1.44593 0.000454659 0.922372 0.000165585
1.34515 0.000676959 1.46279 0.000459962 0.915889 0.000164422
1.34287 0.00067581 1.47194 0.000462837 0.909913 0.000163349
1.33984 0.000674286 1.47288 0.000463133 0.904623 0.000162399
1.33609 0.000672398 1.4654 0.000460783 0.90009 0.000161585
1.33188 0.000670282 1.44959 0.000455812 0.896318 0.000160908
1.32746 0.000668057 1.42582 0.000448335 0.893146 0.000160339
1.32275 0.000665684 1.39461 0.000438524 0.890327 0.000159833
1.31747 0.000663026 1.35677 0.000426624 0.887495 0.000159324
1.31126 0.000659904 1.3133 0.000412955 0.884204 0.000158733
1.30371 0.000656103 1.26537 0.000397884 0.879966 0.000157973
1.29436 0.000651396 1.2142 0.000381793 0.87427 0.00015695
1.28287 0.000645614 1.161 0.000365066 0.86659 0.000155571
1.26906 0.000638668 1.10697 0.000348075 0.856399 0.000153742
1.25291 0.000630537 1.0532 0.00033117 0.843214 0.000151375
1.23442 0.000621234 1.00073 0.000314671 0.826609 0.000148394
1.21367 0.000610791 0.95046 0.000298864 0.806231 0.000144736
1.19073 0.000599247 0.903193 0.000284001 0.781809 0.000140351
1.16568 0.000586638 0.859593 0.000270291 0.753163 0.000135209
1.13856 0.000572989 0.820174 0.000257896 0.720212 0.000129293
1.10941 0.000558318 0.785294 0.000246929 0.682989 0.000122611
1.07824 0.000542635 0.755141 0.000237447 0.641644 0.000115189
1.04508 0.000525946 0.729731 0.000229457 0.596439 0.000107073
1.00993 0.000508257 0.708907 0.000222909 0.547745 9.83318e-05
0.972807 0.000489574 0.692346 0.000217702 0.496034 8.90486e-05
0.933724 0.000469905 0.67957 0.000213685 0.44187 7.9325e-05
0.892712 0.000449265 0.66996 0.000210663 0.3859 6.92772e-05
0.849827 0.000427683 0.662775 0.000208404 0.328835 5.90328e-05
0.805163 0.000405205 0.657167 0.00020664 0.271431 4.87277e-05
0.758875 0.00038191 0.652209 0.000205081 0.214473 3.85025e-05
0.711188 0.000357911 0.646916 0.000203417 0.158751 2.84991e-05
0.650063 0.00032715 0.638303 0.000200709 0.0920101 1.65178e-05
0.587884 0.000295858 0.625694 0.000196744 0.0298252 5.35425e-06
0.52527 0.000264347 0.607387 0.000190987 -0.0265514 -4.76654e-06
0.462566 0.00023279 0.582153 0.000183053 -0.0891388 -1.60023e-05
0.399751 0.000201178 0.548754 0.000172551 -0.154024 -2.76506e-05
0.336497 0.000169345 0.506788 0.000159355 -0.205605 -3.69105e-05
0.272391 0.000137083 0.456924 0.000143676 -0.24603 -4.41676e-05
0.207194 0.000104272 0.399411 0.000125591 -0.276829 -4.96966e-05
0.140903 7.09104e-05 0.334418 0.000105155 -0.296075 -5.31518e-05
0.0734826 3.69808e-05 0.26295 8.26821e-05 -0.30434 -5.46355e-05
0.0123764 6.22852e-06 0.186013 5.84903e-05 -0.304307 -5.46295e-05
-0.0307437 -1.5472e-05 0.0984662 3.09618e-05 -0.296721 -5.32678e-05
-0.0814494 -4.09901e-05 0.0151899 4.77631e-06 -0.285798 -5.13068e-05
-0.127983 -6.44085e-05 -0.0764572 -2.40413e-05 -0.272051 -4.88389e-05
-0.177841 -8.95003e-05 -0.167361 -5.26251e-05 -0.257295 -4.61899e-05
-0.228108 -0.000114797 -0.254043 -7.98817e-05 -0.244721 -4.39326e-05
-0.275959 -0.000138879 -0.332017 -0.0001044 -0.236109 -4.23866e-05
-0.323731 -0.000162921 -0.401841 -0.000126355 -0.232896 -4.18098e-05
-0.370297 -0.000186355 -0.463486 -0.000145739 -0.236763 -4.25041e-05
-0.414227 -0.000208463 -0.515324 -0.000162039 -0.248694 -4.46458e-05
-0.456154 -0.000229564 -0.556933 -0.000175123 -0.269041 -4.82987e-05
-0.495652 -0.000249441 -0.588587 -0.000185076 -0.296854 -5.32917e-05
-0.532166 -0.000267817 -0.611094 -0.000192153 -0.33013 -5.92653e-05
-0.566156 -0.000284923 -0.624894 -0.000196492 -0.370295 -6.64757e-05
-0.597804 -0.00030085 -0.630505 -0.000198257 -0.41725 -7.49052e-05
-0.627296 -0.000315692 -0.629197 -0.000197845 -0.470348 -8.44374e-05
-0.65508 -0.000329674 -0.622619 -0.000195777 -0.527396 -9.46788e-05
-0.681483 -0.000342962 -0.612133 -0.00019248 -0.586671 -0.00010532
-0.706767 -0.000355686 -0.599264 -0.000188433 -0.647057 -0.000116161
-0.731278 -0.000368022 -0.585859 -0.000184218 -0.707288 -0.000126973
-0.755316 -0.000380119 -0.573691 -0.000180392 -0.765435 -0.000137412
-0.779169 -0.000392124 -0.564294 -0.000177437 -0.819626 -0.00014714
-0.803172 -0.000404203 -0.559098 -0.000175803 -0.868587 -0.00015593
-0.82764 -0.000416517 -0.559388 -0.000175895 -0.911398 -0.000163615
-0.852869 -0.000429214 -0.566168 -0.000178027 -0.947066 -0.000170019
-0.879145 -0.000442437 -0.580123 -0.000182414 -0.974726 -0.000174984
-0.9067 -0.000456304 -0.60167 -0.00018919 -0.994002 -0.000178445
-0.935617 -0.000470857 -0.630983 -0.000198407 -1.00499 -0.000180418
-0.96579 -0.000486042 -0.667983 -0.000210041 -1.00801 -0.000180959
-0.996953 -0.000501725 -0.712319 -0.000223982 -1.00311 -0.00018008
-1.02873 -0.000517716 -0.763422 -0.000240051 -0.990736 -0.000177858
-1.06069 -0.000533803 -0.820439 -0.00025798 -0.972059 -0.000174505
-1.09241 -0.000549763 -0.882214 -0.000277404 -0.94888 -0.000170344
-1.12345 -0.000565385 -0.947369 -0.000297892 -0.923092 -0.000165715
-1.15349 -0.000580501 -1.01436 -0.000318956 -0.896545 -0.000160949
-1.18231 -0.000595006 -1.08147 -0.000340058 -0.871122 -0.000156385
-1.20984 -0.000608862 -1.14686 -0.000360621 -0.848884 -0.000152393
-1.23611 -0.000622084 -1.20874 -0.000380078 -0.831822 -0.00014933
-1.26116 -0.000634691 -1.26545 -0.000397908 -0.821639 -0.000147502
-1.28501 -0.000646691 -1.31556 -0.000413666 -0.819692 -0.000147152
-1.3076 -0.000658063 -1.35797 -0.000427002 -0.827062 -0.000148475
-1.32883 -0.000668744 -1.39194 -0.000437684 -0.844491 -0.000151604
-1.34848 -0.000678634 -1.41715 -0.000445609 -0.872272 -0.000156591
-1.36636 -0.000687632 -1.43362 -0.000450788 -0.910223 -0.000163404
-1.38228 -0.000695642 -1.44175 -0.000453344 -0.957756 -0.000171938
-1.3961 -0.0007026 -1.44208 -0.000453449 -1.01125 -0.000181541
-1.40766 -0.000708418 -1.43595 -0.00045152 -1.06683 -0.000191519
-1.41699 -0.00071311 -1.42433 -0.000447868 -1.1273 -0.000202374
-1.42392 -0.000716602 -1.40836 -0.000442845 -1.19219 -0.000214024
-1.42844 -0.000718876 -1.3893 -0.000436852 -1.26041 -0.00022627
-1.43045 -0.000719886 -1.3687 -0.000430376 -1.32837 -0.00023847
-1.42456 -0.00071692 -1.35004 -0.000424508 -1.39352 -0.000250167
-1.41778 -0.000713509 -1.33182 -0.000418778 -1.45635 -0.000261445
-1.4103 -0.000709746 -1.31517 -0.000413542 -1.51514 -0.000272
-1.40374 -0.000706443 -1.30054 -0.000408942 -1.56796 -0.000281482
-1.39292 -0.000700998 -1.29034 -0.000405736 -1.61292 -0.000289554
-1.37641 -0.000692691 -1.28574 -0.00040429 -1.64969 -0.000296155
-1.35465 -0.000681741 -1.28667 -0.000404583 -1.67772 -0.000301186
-1.32791 -0.000668281 -1.29211 -0.000406293 -1.69654 -0.000304565
-1.29654 -0.000652496 -1.30118 -0.000409144 -1.70612 -0.000306285
-1.26127 -0.000634746 -1.31281 -0.0004128 -1.7068 -0.000306406
-1.22286 -0.000615413 -1.32518 -0.00041669 -1.69859 -0.000304934
-1.18219 -0.000594948 -1.33627 -0.000420177 -1.68197 -0.000301949
-1.14024 -0.000573837 -1.3442 -0.000422672 -1.65794 -0.000297635
-1.09778 -0.000552466 -1.34718 -0.000423609 -1.62783 -0.000292231
-1.05528 -0.000531077 -1.34354 -0.000422465 -1.59278 -0.000285937
-1.01283 -0.000509714 -1.332 -0.000418836 -1.55359 -0.000278903
-0.970058 -0.00048819 -1.31179 -0.000412481 -1.51098 -0.000271253
-0.926308 -0.000466173 -1.28252 -0.000403278 -1.46561 -0.000263109
-0.880917 -0.000443329 -1.24408 -0.00039119 -1.41796 -0.000254555
-0.833432 -0.000419432 -1.19657 -0.000376252 -1.36824 -0.000245628
-0.783678 -0.000394393 -1.14034 -0.000358568 -1.31644 -0.000236328
-0.731605 -0.000368186 -1.07591 -0.000338309 -1.26245 -0.000226637
-0.677119 -0.000340766 -1.00406 -0.000315718 -1.20605 -0.000216511
-0.620085 -0.000312063 -0.925816 -0.000291114 -1.14682 -0.000205879
-0.560369 -0.000282011 -0.842348 -0.000264869 -1.08426 -0.000194647
-0.497826 -0.000250535 -0.754926 -0.00023738 -1.0178 -0.000182716
-0.43223 -0.000217523 -0.664881 -0.000209066 -0.946907 -0.00016999
-0.363225 -0.000182796 -0.573579 -0.000180357 -0.8711 -0.000156381
-0.290426 -0.000146159 -0.482314 -0.000151659 -0.789964 -0.000141815
-0.213701 -0.000107547 -0.392146 -0.000123307 -0.703243 -0.000126247
-0.133385 -6.7127e-05 -0.303782 -9.55215e-05 -0.610895 -0.000109669
-0.0501821 -2.52546e-05 -0.217594 -6.84205e-05 -0.513096 -9.21117e-05
0.0131535 6.61962e-06 -0.12828 -4.03365e-05 -0.41119 -7.38174e-05
0.0559029 2.81336e-05 -0.0407186 -1.28036e-05 -0.303511 -5.44866e-05
0.094779 4.76983e-05 0.0438522 1.37889e-05 -0.191133 -3.43124e-05
0.135053 6.79667e-05 0.105681 3.32305e-05 -0.0745045 -1.33751e-05
0.173257 8.71932e-05 0.162292 5.10314e-05 -0.0101117 -1.81526e-06
0.209573 0.000105469 0.215862 6.7876e-05 0.0507161 9.10463e-06
0.244597 0.000123096 0.265203 8.33908e-05 0.113922 2.04514e-05
0.277095 0.00013945 0.308241 9.69236e-05 0.180716 3.24423e-05
0.306919 0.000154459 0.346286 0.000108886 0.248663 4.46402e-05
0.334448 0.000168314 0.380334 0.000119593 0.313179 5.62224e-05
0.359418 0.00018088 0.409593 0.000128793 0.375233 6.73623e-05
0.382045 0.000192268 0.433714 0.000136377 0.436405 7.8344e-05
0.402699 0.000202662 0.453495 0.000142597 0.495916 8.90275e-05
0.421491 0.000212119 0.469463 0.000147618 0.550878 9.88943e-05
0.438683 0.000220771 0.481672 0.000151458 0.600191 0.000107747
0.454693 0.000228828 0.490371 0.000154193 0.644415 0.000115686
0.469892 0.000236477 0.49612 0.000156001 0.683513 0.000122705
0.484674 0.000243916 0.49942 0.000157038 0.715967 0.000128531
0.499378 0.000251316 0.500664 0.000157429 0.740572 0.000132948
0.514146 0.000258749 0.500376 0.000157339 0.757307 0.000135953
0.528966 0.000266207 0.499231 0.000156979 0.766374 0.00013758
0.543773 0.000273658 0.49783 0.000156538 0.767253 0.000137738
0.558557 0.000281099 0.496621 0.000156158 0.758895 0.000136238
0.573415 0.000288576 0.496039 0.000155975 0.740777 0.000132985
0.588496 0.000296166 0.496311 0.00015606 0.713497 0.000128088
0.603871 0.000303903 0.497526 0.000156443 0.677943 0.000121705
0.619434 0.000311735 0.499806 0.00015716 0.634609 0.000113926
0.634939 0.000319539 0.503269 0.000158248 0.583908 0.000104824
0.650078 0.000327157 0.507904 0.000159706 0.526747 9.45624e-05
0.664527 0.000334429 0.513557 0.000161483 0.464418 8.33729e-05
0.677951 0.000341185 0.519999 0.000163509 0.398154 7.14772e-05
0.68998 0.000347239 0.526942 0.000165692 0.329058 5.90729e-05
0.700233 0.000352398 0.534004 0.000167913 0.258366 4.63821e-05
0.708347 0.000356482 0.540715 0.000170023 0.187526 3.36649e-05
0.714009 0.000359331 0.546544 0.000171856 0.117988 2.11814e-05
0.716603 0.000360637 0.551022 0.000173264 0.0510348 9.16183e-06
0.713786 0.000359219 0.554309 0.000174298 -0.0122159 -2.19301e-06
0.705511 0.000355055 0.555502 0.000174673 -0.0740258 -1.32892e-05
0.692152 0.000348331 0.553302 0.000173981 -0.155685 -2.79487e-05
0.675157 0.000339779 0.546019 0.000171691 -0.224277 -4.02625e-05
0.655753 0.000330013 0.533551 0.00016777 -0.280264 -5.03134e-05
0.634676 0.000319406 0.515702 0.000162158 -0.325589 -5.84501e-05
0.612797 0.000308395 0.491717 0.000154616 -0.357908 -6.42521e-05
0.590523 0.000297186 0.461602 0.000145147 -0.37612 -6.75215e-05
0.567901 0.000285801 0.42622 0.000134021 -0.380822 -6.83656e-05
0.544834 0.000274192 0.386628 0.000121572 -0.373724 -6.70913e-05
0.521137 0.000262267 0.34374 0.000108086 -0.355221 -6.37697e-05
0.496681 0.000249959 0.298767 9.39445e-05 -0.325779 -5.84842e-05
0.471561 0.000237317 0.253204 7.96176e-05 -0.287124 -5.15448e-05
0.446015 0.000224461 0.208438 6.55416e-05 -0.242019 -4.34475e-05
0.420299 0.000211519 0.165701 5.21031e-05 -0.192657 -3.45861e-05
0.394597 0.000198585 0.12625 3.96983e-05 -0.140525 -2.52273e-05
0.369019 0.000185712 0.0913153 2.87133e-05 -0.0872881 -1.56701e-05
0.343605 0.000172922 0.0618765 1.94565e-05 -0.0399397 -7.17003e-06
0.318227 0.00016015 0.0389012 1.22321e-05 -0.0121595 -2.18288e-06
0.292575 0.000147241 0.0228776 7.19365e-06 0.0128299 2.30324e-06
0.266108 0.000133921 0.0141625 4.45328e-06 0.035927 6.44965e-06
0.238208 0.00011988 0.01285 4.04055e-06 0.0558679 1.00295e-05
0.208255 0.000104806 0.0186872 5.87602e-06 0.0716194 1.28572e-05
0.175725 8.84349e-05 0.030968 9.73762e-06 0.0832124 1.49384e-05
0.140229 7.05714e-05 0.0485748 1.52739e-05 0.0916932 1.64609e-05
0.101501 5.10814e-05 0.0700803 2.20361e-05 0.0974401 1.74926e-05
0.0593513 2.98691e-05 0.0938052 2.94962e-05 0.100496 1.80411e-05
0.017453 8.78336e-06 0.117171 3.68435e-05 0.101311 1.81875e-05
-0.0050049 -2.51876e-06 0.132713 4.17305e-05 0.101168 1.81617e-05
-0.0340602 -1.71411e-05 0.143549 4.51378e-05 0.100981 1.81282e-05
-0.0651402 -3.27824e-05 0.153109 4.81439e-05 0.0995379 1.78692e-05
-0.0973606 -4.89976e-05 0.158272 4.97673e-05 0.0978663 1.75691e-05
-0.13244 -6.66516e-05 0.15601 4.9056e-05 0.0958973 1.72156e-05
-0.169095 -8.50985e-05 0.146012 4.59123e-05 0.0944549 1.69567e-05
-0.206747 -0.000104047 0.12877 4.04907e-05 0.0935364 1.67918e-05
-0.245959 -0.000123781 0.103376 3.25056e-05 0.0926978 1.66412e-05
-0.286363 -0.000144115 0.0694984 2.18531e-05 0.0915152 1.64289e-05
-0.327839 -0.000164988 0.0278141 8.74589e-06 0.0899318 1.61447e-05
-0.370567 -0.000186491 -0.0208377 -6.55224e-06 0.0875652 1.57198e-05
-0.414274 -0.000208487 -0.0799053 -2.51255e-05 0.0834964 1.49894e-05
-0.458652 -0.000230821 -0.15228 -4.7883e-05 0.0771082 1.38426e-05
-0.503514 -0.000253398 -0.229865 -7.2279e-05 0.0674946 1.21167e-05
-0.548571 -0.000276073 -0.310584 -9.76602e-05 0.0542935 9.74684e-06
-0.593616 -0.000298743 -0.393298 -0.000123669 0.0364156 6.53738e-06
-0.638473 -0.000321317 -0.476911 -0.00014996 0.0129586 2.32634e-06
-0.682925 -0.000343688 -0.559622 -0.000175968 -0.0195787 -3.51479e-06
-0.72677 -0.000365753 -0.639621 -0.000201123 -0.0801374 -1.43864e-05
-0.769672 -0.000387344 -0.716302 -0.000225235 -0.147617 -2.65004e-05
-0.811392 -0.00040834 -0.788568 -0.000247958 -0.225174 -4.04236e-05
-0.851546 -0.000428548 -0.855351 -0.000268957 -0.313567 -5.62919e-05
-0.889858 -0.000447829 -0.916136 -0.000288071 -0.413034 -7.41484e-05
-0.925943 -0.000465989 -0.970937 -0.000305303 -0.521342 -9.3592e-05
-0.959472 -0.000482862 -1.0197 -0.000320636 -0.637251 -0.0001144
-0.990222 -0.000498338 -1.06245 -0.000334076 -0.76005 -0.000136445
-1.01813 -0.000512384 -1.09949 -0.000345726 -0.888764 -0.000159552
-1.04329 -0.000525044 -1.13135 -0.000355743 -1.02117 -0.000183322
-1.06589 -0.000536417 -1.15852 -0.000364287 -1.15493 -0.000207335
-1.08618 -0.000546628 -1.18158 -0.000371537 -1.28818 -0.000231256
-1.1044 -0.000555801 -1.20123 -0.000377715 -1.41922 -0.00025478
-1.12076 -0.000564034 -1.21826 -0.000383069 -1.54588 -0.000277518
-1.1354 -0.000571399 -1.23345 -0.000387848 -1.66581 -0.000299049
-1.14844 -0.000577961 -1.24757 -0.000392286 -1.77702 -0.000319013
-1.16004 -0.0005838 -1.26126 -0.000396592 -1.87789 -0.00033712
-1.17043 -0.000589028 -1.27506 -0.000400932 -1.96687 -0.000353096
-1.18027 -0.000593982 -1.28729 -0.000404778 -1.99461 -0.000358075
-1.18899 -0.000598372 -1.30462 -0.000410227 -1.98131 -0.000355687
-1.19799 -0.0006029 -1.32096 -0.000415364 -1.97124 -0.00035388
-1.20658 -0.000607224 -1.33523 -0.000419852 -1.9804 -0.000355524
-1.21554 -0.00061173 -1.34981 -0.000424436 -1.99565 -0.000358262
-1.22462 -0.000616299 -1.36588 -0.000429488 -1.995 -0.000358145
-1.23372 -0.00062088 -1.38128 -0.00043433 -1.97785 -0.000355066
-1.24265 -0.000625374 -1.39518 -0.000438702 -1.9527 -0.000350552
-1.251 -0.000629577 -1.40829 -0.000442824 -1.9186 -0.000344429
-1.25814 -0.000633171 -1.42049 -0.000446661 -1.86838 -0.000335415
-1.26343 -0.000635832 -1.43083 -0.000449911 -1.80184 -0.000323468
-1.26525 -0.000636747 -1.43907 -0.000452502 -1.72666 -0.000309973
-1.26325 -0.000635741 -1.44491 -0.00045434 -1.64638 -0.000295561
-1.25734 -0.000632767 -1.44734 -0.000455103 -1.55929 -0.000279925
-1.24762 -0.000627873 -1.44501 -0.000454369 -1.46473 -0.00026295
-1.23463 -0.000621336 -1.43693 -0.000451831 -1.36685 -0.000245379
-1.2189 -0.000613424 -1.42233 -0.000447238 -1.26951 -0.000227904
-1.2008 -0.000604315 -1.40042 -0.000440349 -1.17344 -0.000210657
-1.18062 -0.00059416 -1.37077 -0.000431027 -1.07829 -0.000193575
-1.15848 -0.000583015 -1.33337 -0.000419265 -0.985593 -0.000176935
-1.13423 -0.000570812 -1.28846 -0.000405144 -0.897552 -0.00016113
-1.10755 -0.000557384 -1.23659 -0.000388835 -0.814935 -0.000146298
-1.07792 -0.000542472 -1.17867 -0.000370623 -0.737229 -0.000132348
-1.04465 -0.000525728 -1.11589 -0.000350882 -0.664318 -0.000119259
-1.007 -0.000506782 -1.04952 -0.000330013 -0.596671 -0.000107115
-0.964462 -0.000485374 -0.980801 -0.000308404 -0.534417 -9.59391e-05
-0.916958 -0.000461467 -0.910841 -0.000286406 -0.476953 -8.56231e-05
-0.864855 -0.000435246 -0.840575 -0.000264311 -0.423632 -7.60509e-05
-0.808789 -0.00040703 -0.77074 -0.000242352 -0.374197 -6.71763e-05
-0.749532 -0.000377208 -0.701925 -0.000220714 -0.328486 -5.89702e-05
-0.687903 -0.000346193 -0.634631 -0.000199554 -0.286039 -5.13501e-05
-0.624724 -0.000314398 -0.569272 -0.000179003 -0.246257 -4.42083e-05
-0.560779 -0.000282217 -0.506167 -0.00015916 -0.208709 -3.74677e-05
-0.496763 -0.00025 -0.445565 -0.000140104 -0.173132 -3.10809e-05
-0.433234 -0.000218029 -0.387685 -0.000121904 -0.139206 -2.49905e-05
-0.370517 -0.000186466 -0.332749 -0.00010463 -0.106502 -1.91195e-05
-0.308634 -0.000155323 -0.281158 -8.84075e-05 -0.0775353 -1.39192e-05
-0.247502 -0.000124558 -0.232624 -7.31465e-05 -0.0626923 -1.12546e-05
-0.186992 -9.41054e-05 -0.187526 -5.89659e-05 -0.0505563 -9.07592e-06
-0.127438 -6.41343e-05 -0.145897 -4.5876e-05 -0.037034 -6.6484e-06
-0.0694721 -3.49624e-05 -0.107227 -3.37164e-05 -0.0221856 -3.98278e-06
-0.0142741 -7.18356e-06 -0.0708694 -2.22843e-05 -0.00853006 -1.53133e-06
0.0247872 1.24744e-05 -0.0352698 -1.10903e-05 0.00379127 6.80614e-07
0.0453082 2.28017e-05 0.0014913 4.68927e-07 0.0174369 3.13029e-06
0.0664672 3.34502e-05 0.0320912 1.00908e-05 0.0304773 5.47132e-06
0.0846124 4.25819e-05 0.057035 1.79342e-05 0.0441809 7.93141e-06
0.0995882 5.01186e-05 0.0790325 2.4851e-05 0.0575951 1.03396e-05
0.112963 5.68494e-05 0.0993766 3.12481e-05 0.0713109 1.28018e-05
0.123734 6.22702e-05 0.116459 3.66195e-05 0.0853822 1.53279e-05
0.131903 6.63812e-05 0.129456 4.07063e-05 0.0997187 1.79016e-05
0.138306 6.96037e-05 0.139076 4.37313e-05 0.114128 2.04883e-05
0.142891 7.19114e-05 0.145288 4.56846e-05 0.128531 2.30741e-05
0.145892 7.34212e-05 0.147556 4.63977e-05 0.142738 2.56245e-05
0.147812 7.43875e-05 0.145895 4.58753e-05 0.156597 2.81126e-05
0.148662 7.48156e-05 0.140642 4.42236e-05 0.169937 3.05072e-05
0.148384 7.46754e-05 0.132104 4.1539e-05 0.182355 3.27366e-05
0.147168 7.40634e-05 0.120646 3.79361e-05 0.193429 3.47246e-05
0.145003 7.29742e-05 0.10681 3.35854e-05 0.202896 3.64241e-05
0.141843 7.13838e-05 0.0912858 2.8704e-05 0.210467 3.77833e-05
0.137755 6.93264e-05 0.074706 2.34906e-05 0.215714 3.87253e-05
0.132788 6.68268e-05 0.0575957 1.81104e-05 0.218259 3.91822e-05
0.126282 6.35523e-05 0.0406911 1.2795e-05 0.217697 3.90813e-05
0.118264 5.95174e-05 0.0245925 7.73289e-06 0.213346 3.83001e-05
0.109455 5.50841e-05 0.00951267 2.99117e-06 0.204684 3.67451e-05
0.100771 5.07137e-05 -0.00466579 -1.46712e-06 0.191847 3.44406e-05
0.092934 4.67698e-05 -0.0179724 -5.65125e-06 0.175171 3.14469e-05
0.0863191 4.34409e-05 -0.0302692 -9.51789e-06 0.154785 2.77871e-05
0.0809872 4.07575e-05 -0.0414198 -1.30241e-05 0.130636 2.3452e-05
0.076689 3.85944e-05 -0.052685 -1.65663e-05 0.102967 1.84849e-05
0.072949 3.67122e-05 -0.0653316 -2.05429e-05 0.0723275 1.29843e-05
0.0692315 3.48413e-05 -0.0763614 -2.40111e-05 0.0391976 7.03681e-06
0.0651922 3.28086e-05 -0.0858048 -2.69805e-05 0.00393384 7.06208e-07
0.0607277 3.05617e-05 -0.0937303 -2.94727e-05 -0.0328997 -5.9062e-06
0.0558169 2.80903e-05 -0.100535 -3.16122e-05 -0.0731286 -1.31281e-05
0.0504999 2.54145e-05 -0.106438 -3.34684e-05 -0.134943 -2.42251e-05
0.0447916 2.25418e-05 -0.112286 -3.53074e-05 -0.194107 -3.48463e-05
0.0388829 1.95682e-05 -0.11832 -3.72046e-05 -0.251375 -4.51271e-05
0.0334374 1.68277e-05 -0.124888 -3.92698e-05 -0.306679 -5.50553e-05
0.0289471 1.45679e-05 -0.132613 -4.16989e-05 -0.358607 -6.43776e-05
0.0259243 1.30466e-05 -0.141966 -4.46398e-05 -0.405546 -7.28042e-05
0.0248967 1.25295e-05 -0.153073 -4.81324e-05 -0.446905 -8.0229e-05
0.0263567 1.32642e-05 -0.165935 -5.21767e-05 -0.482799 -8.66728e-05
0.0307464 1.54734e-05 -0.180467 -5.67462e-05 -0.512967 -9.20886e-05
0.0384148 1.93326e-05 -0.196326 -6.1733e-05 -0.536835 -9.63732e-05
0.0496413 2.49824e-05 -0.212896 -6.69431e-05 -0.554264 -9.95022e-05
0.0646819 3.25517e-05 -0.229418 -7.21384e-05 -0.565717 -0.000101558
0.076687 3.85934e-05 -0.243315 -7.65083e-05 -0.571982 -0.000102683
0.0845253 4.25381e-05 -0.252569 -7.94182e-05 -0.573228 -0.000102907
0.0941498 4.73817e-05 -0.258373 -8.12432e-05 -0.569373 -0.000102215
0.104925 5.28045e-05 -0.261136 -8.21118e-05 -0.560449 -0.000100613
0.116803 5.87821e-05 -0.259715 -8.16649e-05 -0.546998 -9.81977e-05
0.129438 6.51406e-05 -0.253016 -7.95587e-05 -0.529265 -9.50142e-05
0.142432 7.16803e-05 -0.240971 -7.5771e-05 -0.507714 -9.11455e-05
0.155532 7.82727e-05 -0.223673 -7.03321e-05 -0.482596 -8.66363e-05
0.168408 8.47526e-05 -0.200871 -6.3162e-05 -0.453914 -8.14872e-05
0.180666 9.09219e-05 -0.172539 -5.42532e-05 -0.42175 -7.57132e-05
0.192006 9.66287e-05 -0.139194 -4.37683e-05 -0.386239 -6.93381e-05
0.201922 0.000101619 -0.101994 -3.2071e-05 -0.347183 -6.23267e-05
0.207131 0.000104241 -0.061514 -1.93425e-05 -0.304256 -5.46205e-05
0.208791 0.000105076 -0.0171416 -5.39001e-06 -0.257649 -4.62535e-05
0.207641 0.000104497 0.0297887 9.3668e-06 -0.207061 -3.71719e-05
0.202948 0.000102135 0.073856 2.32234e-05 -0.15189 -2.72675e-05
0.196008 9.86429e-05 0.11042 3.47207e-05 -0.093668 -1.68154e-05
0.187569 9.43958e-05 0.144554 4.54538e-05 -0.0573674 -1.02987e-05
0.177718 8.94383e-05 0.175216 5.5095e-05 -0.0258568 -4.64184e-06
0.167253 8.41717e-05 0.200042 6.29013e-05 0.00825185 1.48138e-06
0.156929 7.8976e-05 0.217864 6.85054e-05 0.0480966 8.63436e-06
0.146936 7.39468e-05 0.228778 7.19371e-05 0.0896224 1.60891e-05
0.137506 6.92009e-05 0.232585 7.31343e-05 0.130744 2.34714e-05
0.128827 6.48333e-05 0.228946 7.19902e-05 0.172099 3.08954e-05
0.121053 6.09208e-05 0.218146 6.85941e-05 0.215058 3.86074e-05
0.114449 5.75972e-05 0.201086 6.32296e-05 0.25802 4.63201e-05
0.109216 5.49637e-05 0.178715 5.61953e-05 0.298507 5.35883e-05
0.10532 5.30031e-05 0.152087 4.78225e-05 0.335527 6.02342e-05
0.102558 5.16131e-05 0.122622 3.85572e-05 0.3692 6.62793e-05
0.100667 5.06616e-05 0.0919286 2.89061e-05 0.398705 7.1576e-05
0.0994021 5.0025e-05 0.0615344 1.93489e-05 0.422296 7.58112e-05
0.0985903 4.96164e-05 0.0328438 1.03274e-05 0.438756 7.8766e-05
0.0981255 4.93825e-05 0.00715081 2.24851e-06 0.447831 8.03952e-05
0.0979112 4.92746e-05 -0.0144513 -4.54409e-06 0.449243 8.06486e-05
0.0978155 4.92265e-05 -0.0311271 -9.78762e-06 0.441577 7.92725e-05
0.0976317 4.9134e-05 -0.0421415 -1.3251e-05 0.423288 7.59893e-05
0.0971068 4.88698e-05 -0.0472221 -1.48486e-05 0.394673 7.08522e-05
0.0960211 4.83234e-05 -0.0465152 -1.46263e-05 0.357125 6.41115e-05
0.0942719 4.74431e-05 -0.0404254 -1.27114e-05 0.311591 5.59373e-05
0.0919108 4.62549e-05 -0.0296601 -9.32634e-06 0.25845 4.63973e-05
0.0890902 4.48354e-05 -0.0152753 -4.80317e-06 0.19869 3.5669e-05
0.0859474 4.32538e-05 0.0014396 4.52668e-07 0.134106 2.40749e-05
0.082501 4.15193e-05 0.0191316 6.01575e-06 0.0665477 1.19467e-05
0.0787074 3.96102e-05 0.0364302 1.14551e-05 -0.00257018 -4.61401e-07
0.0745709 3.75284e-05 0.0519457 1.63339e-05 -0.0810342 -1.45474e-05
0.0701191 3.5288e-05 0.0644733 2.0273e-05 -0.182936 -3.2841e-05
0.0654677 3.29472e-05 0.0709119 2.22976e-05 -0.276579 -4.96518e-05
0.0605386 3.04666e-05 0.0685015 2.15397e-05 -0.364257 -6.53919e-05
0.0549137 2.76358e-05 0.0604754 1.90159e-05 -0.447299 -8.02996e-05
0.0481685 2.42412e-05 0.0454255 1.42837e-05 -0.522315 -9.37667e-05
0.0400534 2.01572e-05 0.023324 7.33403e-06 -0.585214 -0.000105058
0.0313565 1.57804e-05 -0.00544617 -1.7125e-06 -0.636316 -0.000114232
0.0212581 1.06983e-05 -0.0404053 -1.27051e-05 -0.677579 -0.00012164
0.0102589 5.1629e-06 -0.0809331 -2.54487e-05 -0.709187 -0.000127314
-0.0037095 -1.86684e-06 -0.126277 -3.97068e-05 -0.729645 -0.000130987
-0.0168401 -8.47493e-06 -0.174806 -5.49663e-05 -0.739259 -0.000132713
-0.0295586 -1.48756e-05 -0.225385 -7.08702e-05 -0.739907 -0.000132829
-0.0436889 -2.19868e-05 -0.275993 -8.67835e-05 -0.732873 -0.000131566
-0.0572496 -2.88114e-05 -0.325758 -0.000102432 -0.717968 -0.00012889
-0.0697454 -3.51e-05 -0.373023 -0.000117294 -0.696242 -0.00012499
-0.0809567 -4.07421e-05 -0.416251 -0.000130886 -0.669814 -0.000120246
-0.0907028 -4.5647e-05 -0.453932 -0.000142735 -0.64085 -0.000115046
-0.0986541 -4.96485e-05 -0.484681 -0.000152403 -0.610573 -0.000109611
-0.104553 -5.26172e-05 -0.507468 -0.000159569 -0.579841 -0.000104094
-0.108206 -5.44556e-05 -0.521484 -0.000163976 -0.54982 -9.87044e-05
-0.109413 -5.50628e-05 -0.526098 -0.000165427 -0.521758 -9.36666e-05
-0.108087 -5.43958e-05 -0.520973 -0.000163815 -0.496328 -8.91015e-05
-0.104505 -5.25932e-05 -0.505987 -0.000159103 -0.473663 -8.50326e-05
-0.099531 -5.00898e-05 -0.481237 -0.000151321 -0.453721 -8.14527e-05
-0.0937165 -4.71636e-05 -0.447259 -0.000140637 -0.436378 -7.83392e-05
-0.0875131 -4.40417e-05 -0.405018 -0.000127354 -0.421185 -7.56116e-05
-0.0812262 -4.08778e-05 -0.355865 -0.000111899 -0.407238 -7.31079e-05
-0.0721093 -3.62896e-05 -0.302231 -9.50338e-05 -0.393235 -7.05941e-05
-0.0624754 -3.14413e-05 -0.245453 -7.71804e-05 -0.378318 -6.79162e-05
-0.05282 -2.65821e-05 -0.187061 -5.88197e-05 -0.361276 -6.48567e-05
-0.0429982 -2.16392e-05 -0.12889 -4.05283e-05 -0.340949 -6.12077e-05
-0.0331482 -1.66821e-05 -0.0729769 -2.29469e-05 -0.31625 -5.67737e-05
-0.0233586 -1.17554e-05 -0.0212104 -6.66943e-06 -0.286144 -5.13689e-05
-0.0142906 -7.19187e-06 0.0245388 7.71602e-06 -0.249786 -4.48419e-05
-0.00731055 -3.6791e-06 0.0636344 2.00093e-05 -0.206681 -3.71036e-05
0.000498487 2.50868e-07 0.0896164 2.81791e-05 -0.157454 -2.82663e-05
0.0100019 5.03355e-06 0.106484 3.34828e-05 -0.101382 -1.82003e-05
0.0210154 1.05762e-05 0.115378 3.62796e-05 -0.0596836 -1.07145e-05
0.0345408 1.73829e-05 0.117451 3.69315e-05 -0.0279089 -5.01025e-06
0.0497043 2.50141e-05 0.112507 3.53767e-05 0.00597293 1.07227e-06
0.0571031 2.87376e-05 0.104829 3.29627e-05 0.0428541 7.69322e-06
0.065721 3.30746e-05 0.0934368 2.93804e-05 0.0812225 1.45812e-05
0.0756774 3.80853e-05 0.0778743 2.44869e-05 0.117202 2.10403e-05
0.0875246 4.40475e-05 0.0593231 1.86536e-05 0.150627 2.70408e-05
0.101158 5.09088e-05 0.0396289 1.2461e-05 0.182821 3.28203e-05
0.11634 5.85492e-05 0.0205603 6.46502e-06 0.212556 3.81583e-05
0.133047 6.69572e-05 0.00330271 1.03851e-06 0.237345 4.26085e-05
0.15078 7.58814e-05 -0.0107556 -3.38201e-06 0.25622 4.59969e-05
0.169044 8.50728e-05 -0.0199449 -6.27148e-06 0.269634 4.84051e-05
0.187412 9.43166e-05 -0.0230329 -7.24249e-06 0.277391 4.97975e-05
0.20536 0.000103349 -0.0193634 -6.08866e-06 0.278504 4.99974e-05
0.222522 0.000111986 -0.00848254 -2.66726e-06 0.272096 4.8847e-05
0.238769 0.000120163 0.00984879 3.09686e-06 0.258159 4.6345e-05
0.254044 0.00012785 0.0351708 1.10592e-05 0.237421 4.2622e-05
0.268321 0.000135035 0.066559 2.09289e-05 0.210974 3.78744e-05
0.281593 0.000141714 0.102966 3.23768e-05 0.179712 3.22621e-05
0.293088 0.000147499 0.143357 4.50775e-05 0.144623 2.59629e-05
0.302149 0.000152059 0.186438 5.86238e-05 0.107061 1.92197e-05
0.30952 0.000155769 0.230214 7.23887e-05 0.068626 1.23198e-05
0.315899 0.000158979 0.272403 8.56547e-05 0.0308937 5.54608e-06
0.322076 0.000162087 0.310999 9.77907e-05 -0.00475615 -8.53829e-07
0.328798 0.000165471 0.344207 0.000108233 -0.0370158 -6.64512e-06
0.336676 0.000169435 0.370418 0.000116475 -0.0646688 -1.16094e-05
0.346185 0.00017422 0.388443 0.000122142 -0.0908912 -1.63169e-05
0.357554 0.000179942 0.397613 0.000125026 -0.116183 -2.08574e-05
0.370778 0.000186597 0.397734 0.000125064 -0.129936 -2.33263e-05
0.37886 0.000190664 0.391733 0.000123177 -0.134388 -2.41255e-05
0.386293 0.000194405 0.37891 0.000119145 -0.129652 -2.32753e-05
0.391987 0.000197271 0.360112 0.000113234 -0.115307 -2.07001e-05
0.397653 0.000200122 0.334807 0.000105277 -0.0921511 -1.65431e-05
0.403214 0.000202921 0.304974 9.58963e-05 -0.0699763 -1.25622e-05
0.408424 0.000205543 0.272631 8.57265e-05 -0.0496254 -8.90881e-06
0.413643 0.000208169 0.239081 7.5177e-05 -0.0272046 -4.88381e-06
0.418908 0.000210819 0.205687 6.46763e-05 -0.00284285 -5.10353e-07
0.424229 0.000213497 0.174396 5.48372e-05 0.0220895 3.96554e-06
0.429845 0.000216323 0.147056 4.62405e-05 0.0460293 8.26324e-06
0.435934 0.000219388 0.124884 3.92687e-05 0.0679853 1.22048e-05
0.442663 0.000222774 0.108936 3.42539e-05 0.0877049 1.57449e-05
0.450246 0.00022659 0.100284 3.15333e-05 0.104678 1.87919e-05
0.458843 0.000230916 0.0996256 3.13264e-05 0.118126 2.12061e-05
0.468545 0.000235799 0.107189 3.37046e-05 0.127586 2.29044e-05
0.479249 0.000241186 0.122671 3.85729e-05 0.133256 2.39223e-05
0.490006 0.0002466 0.145124 4.56329e-05 0.135641 2.43504e-05
0.501337 0.000252302 0.174697 5.49319e-05 0.13461 2.41654e-05
0.514262 0.000258807 0.210394 6.61566e-05 0.130479 2.34238e-05
0.527208 0.000265322 0.251317 7.90242e-05 0.123848 2.22334e-05
0.539579 0.000271548 0.296671 9.32854e-05 0.11551 2.07365e-05
0.550615 0.000277102 0.345319 0.000108582 0.106371 1.90959e-05
0.55946 0.000281553 0.395602 0.000124394 0.0975656 1.75151e-05
0.565876 0.000284782 0.445982 0.000140235 0.0900424 1.61645e-05
0.569942 0.000286828 0.494696 0.000155553 0.0847576 1.52158e-05
0.571768 0.000287747 0.539772 0.000169727 0.0827296 1.48517e-05
0.57162 0.000287673 0.579449 0.000182203 0.0848714 1.52362e-05
0.569548 0.00028663 0.612307 0.000192534 0.0918447 1.64881e-05
0.565279 0.000284482 0.637238 0.000200374 0.104055 1.86801e-05
0.558375 0.000281007 0.653254 0.00020541 0.121397 2.17933e-05
0.548201 0.000275887 0.659741 0.000207449 0.142701 2.56178e-05
0.534599 0.000269041 0.656546 0.000206445 0.167546 3.0078e-05
0.517285 0.000260328 0.643779 0.000202431 0.19727 3.54142e-05
0.495816 0.000249524 0.621938 0.000195563 0.231278 4.15193e-05
0.47004 0.000236552 0.591945 0.000186132 0.26796 4.81046e-05
0.44008 0.000221474 0.554713 0.000174425 0.305644 5.48696e-05
0.40628 0.000204464 0.511201 0.000160743 0.343797 6.17189e-05
0.369236 0.000185821 0.462546 0.000145443 0.3816 6.85054e-05
0.329583 0.000165865 0.410014 0.000128925 0.417531 7.49557e-05
0.28794 0.000144908 0.354895 0.000111593 0.449842 8.07562e-05
0.245012 0.000123304 0.298458 9.38475e-05 0.477364 8.56969e-05
0.201616 0.000101465 0.241925 7.6071e-05 0.499197 8.96165e-05
0.158587 7.98104e-05 0.186431 5.86216e-05 0.514267 9.23219e-05
0.116603 5.86816e-05 0.133054 4.18376e-05 0.521394 9.36014e-05
0.0760787 3.82873e-05 0.0827918 2.60331e-05 0.519506 9.32624e-05
0.03611 1.81727e-05 0.036628 1.15174e-05 0.507414 9.10916e-05
-0.00476195 -2.39649e-06 -0.00376578 -1.18412e-06 0.484256 8.69342e-05
-0.0409915 -2.06293e-05 -0.0374257 -1.17682e-05 0.450175 8.0816e-05
-0.0650668 -3.27454e-05 -0.0687769 -2.16263e-05 0.406071 7.28985e-05
-0.0875895 -4.40802e-05 -0.0968158 -3.04428e-05 0.352442 6.32708e-05
-0.107331 -5.40153e-05 -0.118222 -3.71739e-05 0.289002 5.1882e-05
-0.12483 -6.28219e-05 -0.133835 -4.20833e-05 0.217177 3.89878e-05
-0.140926 -7.09223e-05 -0.1524 -4.79208e-05 0.138219 2.48133e-05
-0.155023 -7.80164e-05 -0.168757 -5.30642e-05 0.0533648 9.58011e-06
-0.167644 -8.4368e-05 -0.181226 -5.6985e-05 -0.0357532 -6.41846e-06
-0.179834 -9.05033e-05 -0.189566 -5.96074e-05 -0.174301 -3.12907e-05
-0.19174 -9.64946e-05 -0.197722 -6.21718e-05 -0.303381 -5.44634e-05
-0.204304 -0.000102818 -0.205 -6.44603e-05 -0.429532 -7.71102e-05
-0.218341 -0.000109882 -0.211194 -6.64079e-05 -0.558295 -0.000100226
-0.23431 -0.000117919 -0.218152 -6.8596e-05 -0.685168 -0.000123002
-0.252513 -0.000127079 -0.22786 -7.16487e-05 -0.80205 -0.000143985
-0.273074 -0.000137427 -0.240992 -7.57778e-05 -0.906545 -0.000162744
-0.295886 -0.000148907 -0.258035 -8.11366e-05 -1.00142 -0.000179777
-0.320728 -0.000161409 -0.280173 -8.8098e-05 -1.0865 -0.00019505
-0.347367 -0.000174816 -0.308383 -9.69683e-05 -1.15776 -0.000207842
-0.375514 -0.00018898 -0.34287 -0.000107812 -1.21268 -0.000217702
-0.404845 -0.000203742 -0.383521 -0.000120595 -1.25253 -0.000224856
-0.435054 -0.000218945 -0.430145 -0.000135255 -1.27894 -0.000229598
-0.465934 -0.000234485 -0.482171 -0.000151614 -1.29151 -0.000231854
-0.497449 -0.000250346 -0.538507 -0.000169329 -1.28922 -0.000231442
-0.529676 -0.000266564 -0.597756 -0.000187959 -1.27186 -0.000228325
-0.562689 -0.000283178 -0.658515 -0.000207064 -1.24111 -0.000222806
-0.596467 -0.000300177 -0.719142 -0.000226128 -1.19925 -0.000215291
-0.6309 -0.000317506 -0.777933 -0.000244614 -1.14824 -0.000206133
-0.665854 -0.000335097 -0.833351 -0.00026204 -1.09026 -0.000195725
-0.701192 -0.000352881 -0.883977 -0.000277959 -1.02761 -0.000184478
-0.736688 -0.000370745 -0.928529 -0.000291968 -0.962657 -0.000172817
-0.771926 -0.000388478 -0.966033 -0.00030376 -0.897467 -0.000161114
-0.806334 -0.000405795 -0.995906 -0.000313154 -0.833878 -0.000149699
-0.839294 -0.000422382 -1.01787 -0.000320061 -0.773499 -0.000138859
-0.870235 -0.000437953 -1.0319 -0.00032447 -0.71776 -0.000128853
-0.898756 -0.000452306 -1.03815 -0.000326438 -0.667781 -0.000119881
-0.924737 -0.000465382 -1.03701 -0.000326078 -0.624368 -0.000112087
-0.94838 -0.000477281 -1.02895 -0.000323545 -0.588023 -0.000105563
-0.970094 -0.000488208 -1.01463 -0.000319042 -0.558999 -0.000100352
-0.990358 -0.000498406 -0.994906 -0.000312839 -0.537267 -9.64508e-05
-1.00963 -0.000508104 -0.970879 -0.000305284 -0.52251 -9.38016e-05
-1.02824 -0.00051747 -0.943888 -0.000296797 -0.514142 -9.22994e-05
-1.04635 -0.000526586 -0.915465 -0.00028786 -0.511387 -9.18048e-05
-1.06401 -0.000535471 -0.887273 -0.000278995 -0.51334 -9.21554e-05
-1.08118 -0.000544115 -0.861002 -0.000270734 -0.519018 -9.31747e-05
-1.09784 -0.000552496 -0.838267 -0.000263586 -0.527415 -9.46823e-05
-1.1139 -0.00056058 -0.820549 -0.000258014 -0.537586 -9.65081e-05
-1.12927 -0.000568313 -0.809133 -0.000254425 -0.548705 -9.85042e-05
-1.14377 -0.000575614 -0.805059 -0.000253144 -0.560115 -0.000100553
-1.15723 -0.000582384 -0.809057 -0.000254401 -0.571356 -0.00010257
-1.16942 -0.000588522 -0.821504 -0.000258314 -0.582203 -0.000104518
-1.18016 -0.000593927 -0.842396 -0.000264884 -0.59269 -0.0001064
-1.18888 -0.000598316 -0.871459 -0.000274022 -0.603084 -0.000108266
-1.19253 -0.000600152 -0.908955 -0.000285813 -0.613706 -0.000110173
-1.19098 -0.000599372 -0.953863 -0.000299934 -0.62541 -0.000112274
-1.18457 -0.000596146 -1.00417 -0.000315752 -0.639234 -0.000114756
-1.17396 -0.000590807 -1.05744 -0.000332501 -0.656359 -0.00011783
-1.15981 -0.000583683 -1.1112 -0.000349407 -0.678095 -0.000121732
-1.14242 -0.000574932 -1.16293 -0.000365674 -0.705656 -0.00012668
-1.12215 -0.000564729 -1.21021 -0.000380539 -0.740007 -0.000132847
-1.09915 -0.000553157 -1.25088 -0.000393327 -0.781898 -0.000140367
-1.07324 -0.000540115 -1.28315 -0.000403476 -0.831804 -0.000149326
-1.04397 -0.000525386 -1.30568 -0.000410559 -0.889767 -0.000159732
-1.01069 -0.000508638 -1.3175 -0.000414275 -0.955387 -0.000171512
-0.972643 -0.000489491 -1.31803 -0.000414442 -1.02789 -0.000184528
-0.929114 -0.000467585 -1.3071 -0.000411005 -1.10612 -0.000198571
-0.879459 -0.000442595 -1.28483 -0.000404004 -1.18852 -0.000213365
-0.82325 -0.000414308 -1.25156 -0.000393542 -1.2722 -0.000228386
-0.760502 -0.000382729 -1.20746 -0.000379674 -1.34498 -0.000241453
-0.691534 -0.00034802 -1.15418 -0.000362922 -1.41136 -0.00025337
-0.617116 -0.000310569 -1.09136 -0.000343168 -1.47531 -0.00026485
-0.538214 -0.000270861 -1.01958 -0.000320598 -1.53687 -0.000275902
-0.455788 -0.000229379 -0.940365 -0.000295689 -1.59129 -0.00028567
-0.370635 -0.000186525 -0.854919 -0.000268822 -1.63354 -0.000293256
-0.283307 -0.000142577 -0.764233 -0.000240306 -1.66315 -0.000298571
-0.194181 -9.77233e-05 -0.669625 -0.000210558 -1.68042 -0.000301671
-0.10354 -5.21074e-05 -0.572646 -0.000180063 -1.68251 -0.000302046
-0.0422274 -2.12513e-05 -0.466308 -0.000146626 -1.66541 -0.000298977
0.0156374 7.86965e-06 -0.357926 -0.000112547 -1.62376 -0.0002915
0.0651015 3.27629e-05 -0.258046 -8.11404e-05 -1.55706 -0.000279525
0.107084 5.38911e-05 -0.165698 -5.21021e-05 -1.46627 -0.000263227
0.152755 7.68755e-05 -0.0755642 -2.37605e-05 -1.35141 -0.000242607
0.196221 9.87497e-05 0.00841771 2.64687e-06 -1.21121 -0.000217438
0.237066 0.000119306 0.0841719 2.64671e-05 -1.04737 -0.000188025
0.27791 0.000139861 0.153243 4.8186e-05 -0.862324 -0.000154805
0.316868 0.000159467 0.209849 6.59851e-05 -0.65721 -0.000117983
0.353376 0.000177839 0.248055 7.79987e-05 -0.435807 -7.82367e-05
0.388853 0.000195694 0.280659 8.82508e-05 -0.201151 -3.61109e-05
0.423063 0.00021291 0.308321 9.69486e-05 -0.0441233 -7.92107e-06
0.455658 0.000229314 0.33576 0.000105577 0.070424 1.26426e-05
0.488295 0.000245739 0.360387 0.000113321 0.182295 3.27258e-05
0.520982 0.000262189 0.381993 0.000120114 0.305836 5.4904e-05
0.554522 0.000279068 0.403037 0.000126731 0.434515 7.80047e-05
0.58948 0.000296661 0.42599 0.000133949 0.551905 9.90786e-05
0.626281 0.000315181 0.451019 0.000141819 0.656241 0.000117809
0.665251 0.000334793 0.478428 0.000150437 0.756231 0.000135759
0.706597 0.000355601 0.509724 0.000160278 0.85308 0.000153146
0.750383 0.000377637 0.546174 0.00017174 0.938776 0.00016853
0.796689 0.000400941 0.588185 0.00018495 1.00863 0.000181071
0.845944 0.000425728 0.63393 0.000199334 1.04803 0.000188143
0.89696 0.000451403 0.691798 0.00021753 1.04087 0.000186857
0.950981 0.00047859 0.753623 0.00023697 1.02707 0.000184381
1.00641 0.000506484 0.817489 0.000257052 1.03396 0.000185618
1.06382 0.000535378 0.884969 0.000278271 1.05113 0.0001887
1.12214 0.000564726 0.958278 0.000301322 1.05179 0.000188818
1.1812 0.000594451 1.03428 0.00032522 1.03445 0.000185706
1.24071 0.000624398 1.11072 0.000349256 1.01322 0.000181894
1.30036 0.000654417 1.18738 0.00037336 0.989923 0.000177712
1.35863 0.000683745 1.26368 0.000397352 0.956716 0.000171751
1.39135 0.000700208 1.34598 0.00042323 0.910304 0.000163419
1.42237 0.000715818 1.4118 0.000443928 0.864999 0.000155286
1.41232 0.00071076 1.44256 0.000453599 0.828062 0.000148655
1.40999 0.00070959 1.47076 0.000462467 0.784643 0.00014086
1.43622 0.000722788 1.50082 0.00047192 0.738342 0.000132548
1.43897 0.000724172 1.52093 0.000478244 0.700764 0.000125802
1.42957 0.000719443 1.53846 0.000483754 0.660901 0.000118646
1.43887 0.000724123 1.55255 0.000488187 0.619705 0.00011125
1.44529 0.000727353 1.55879 0.000490147 0.584993 0.000105019
1.44331 0.00072636 1.55951 0.000490373 0.558027 0.000100178
1.44726 0.000728345 1.55924 0.000490288 0.53251 9.55968e-05
1.4538 0.000731635 1.55409 0.00048867 0.508726 9.13272e-05
1.45664 0.000733068 1.54182 0.000484811 0.492418 8.83996e-05
1.45906 0.000734283 1.52724 0.000480228 0.482697 8.66544e-05
1.46155 0.00073554 1.50725 0.000473943 0.477505 8.57223e-05
1.45957 0.000734543 1.48053 0.00046554 0.4761 8.547e-05
1.45674 0.000733119 1.4506 0.000456127 0.479431 8.60681e-05
1.45334 0.000731405 1.41925 0.000446269 0.487542 8.75242e-05
1.4485 0.000728969 1.38644 0.000435955 0.498813 8.95475e-05
1.44356 0.000726483 1.35389 0.000425718 0.511585 9.18404e-05
1.4391 0.000724238 1.32354 0.000416176 0.525625 9.43609e-05
1.43502 0.000722186 1.29655 0.000407689 0.54072 9.70708e-05
1.43204 0.000720685 1.27391 0.000400571 0.555734 9.97662e-05
1.43051 0.000719916 1.25672 0.000395164 0.569578 0.000102251
1.43054 0.00071993 1.24595 0.000391779 0.58182 0.000104449
1.4324 0.000720866 1.24224 0.000390613 0.592288 0.000106328
1.43623 0.000722793 1.24582 0.000391736 0.600705 0.000107839
1.442 0.000725698 1.25676 0.000395178 0.606819 0.000108937
1.44971 0.00072958 1.27499 0.00040091 0.610658 0.000109626
1.45928 0.000734395 1.30003 0.000408782 0.612563 0.000109968
1.47051 0.000740047 1.3311 0.000418553 0.612995 0.000110046
1.48316 0.000746411 1.36734 0.000429949 0.612439 0.000109946
1.49557 0.00075266 1.40804 0.000442744 0.611414 0.000109762
1.50143 0.000755605 1.44873 0.000455539 0.61153 0.000109783
1.48952 0.000749616 1.48579 0.000467193 0.614087 0.000110242
1.47878 0.000744211 1.52672 0.000480062 0.617186 0.000110798
1.47181 0.0007407 1.57086 0.000493943 0.620852 0.000111456
1.45895 0.00073423 1.60509 0.000504705 0.628304 0.000112794
1.44316 0.000726282 1.63982 0.000515626 0.632289 0.000113509
1.42498 0.000717135 1.67278 0.000525992 0.644114 0.000115632
1.39817 0.00070364 1.69929 0.000534325 0.665284 0.000119433
1.36621 0.000687555 1.7191 0.000540556 0.689583 0.000123795
1.33004 0.000669352 1.73068 0.000544198 0.718712 0.000129024
1.28715 0.000647769 1.7349 0.000545522 0.753909 0.000135343
1.23991 0.000623998 1.72672 0.000542952 0.794034 0.000142546
1.1891 0.000598427 1.7063 0.000536529 0.840811 0.000150944
1.13293 0.000570156 1.68174 0.000528809 0.892067 0.000160145
1.07347 0.000540231 1.6477 0.000518105 0.943739 0.000169421
1.01109 0.000508838 1.59789 0.000502441 0.995585 0.000178729
0.945566 0.000475864 1.53735 0.000483406 1.04341 0.000187315
0.877515 0.000441617 1.47286 0.000463128 1.06314 0.000190856
0.807123 0.000406192 1.40486 0.000441745 1.04613 0.000187803
0.734715 0.000369752 1.32574 0.000416866 1.0479 0.00018812
0.659985 0.000332143 1.24011 0.000389941 1.07471 0.000192932
0.583117 0.000293459 1.15561 0.000363373 1.09524 0.000196619
0.504602 0.000253945 1.07179 0.000337016 1.09222 0.000196077
0.424804 0.000213786 0.986995 0.000310352 1.0839 0.000194583
0.34452 0.000173383 0.903212 0.000284007 1.0838 0.000194565
0.264102 0.000132911 0.824251 0.000259178 1.0746 0.000192913
0.183866 9.2532e-05 0.75055 0.000236004 1.03864 0.000186458
0.104075 5.23767e-05 0.681358 0.000214247 0.982486 0.000176377
0.0248575 1.25098e-05 0.617229 0.000194082 0.920084 0.000165175
-0.0231303 -1.16405e-05 0.549845 0.000172894 0.852332 0.000153012
-0.0612766 -3.0838e-05 0.486303 0.000152914 0.765586 0.000137439
-0.0947948 -4.77063e-05 0.428238 0.000134656 0.662583 0.000118948
-0.120686 -6.07364e-05 0.385743 0.000121293 0.547564 9.82993e-05
-0.143544 -7.22395e-05 0.349245 0.000109817 0.428059 7.68456e-05
-0.169159 -8.51306e-05 0.314793 9.89839e-05 0.300572 5.39591e-05
-0.19185 -9.655e-05 0.286791 9.0179e-05 0.163479 2.93479e-05
-0.212525 -0.000106955 0.264249 8.30906e-05 0.022137 3.97406e-06
-0.234675 -0.000118102 0.246096 7.73827e-05 -0.163898 -2.94233e-05
-0.255199 -0.000128431 0.224657 7.06413e-05 -0.306009 -5.49352e-05
-0.275507 -0.000138651 0.205005 6.4462e-05 -0.4385 -7.87201e-05
-0.296451 -0.000149191 0.189011 5.94329e-05 -0.583485 -0.000104748
-0.317958 -0.000160015 0.173725 5.46263e-05 -0.73727 -0.000132356
-0.339799 -0.000171007 0.15503 4.87477e-05 -0.873 -0.000156722
-0.362947 -0.000182656 0.133528 4.19867e-05 -0.986015 -0.000177011
-0.387244 -0.000194884 0.0983213 3.09162e-05 -1.09078 -0.000195818
-0.413004 -0.000207848 0.0622894 1.95863e-05 -1.19327 -0.000214217
-0.440135 -0.000221502 0.0210516 6.61949e-06 -1.28168 -0.000230089
-0.469211 -0.000236134 -0.0244108 -7.67575e-06 -1.34867 -0.000242115
-0.499704 -0.00025148 -0.0739464 -2.32518e-05 -1.39842 -0.000251047
-0.531989 -0.000267728 -0.127562 -4.01106e-05 -1.43788 -0.00025813
-0.565809 -0.000284748 -0.185474 -5.83206e-05 -1.46494 -0.000262988
-0.600927 -0.000302422 -0.247002 -7.76676e-05 -1.47459 -0.000264721
-0.637183 -0.000320668 -0.311422 -9.79238e-05 -1.46542 -0.000263074
-0.674343 -0.000339369 -0.377959 -0.000118846 -1.43734 -0.000258033
-0.71212 -0.000358381 -0.445844 -0.000140192 -1.39149 -0.000249803
-0.750241 -0.000377565 -0.513782 -0.000161554 -1.32816 -0.000238434
-0.788435 -0.000396787 -0.580447 -0.000182516 -1.25065 -0.000224519
-0.826338 -0.000415862 -0.644746 -0.000202735 -1.16281 -0.000208749
-0.863589 -0.000434608 -0.705558 -0.000221856 -1.06772 -0.000191679
-0.8998 -0.000452832 -0.761708 -0.000239512 -0.96734 -0.000173658
-0.93457 -0.00047033 -0.812189 -0.000255386 -0.864542 -0.000155204
-0.967522 -0.000486914 -0.856206 -0.000269226 -0.762685 -0.000136918
-0.992353 -0.00049941 -0.886291 -0.000278686 -0.683915 -0.000122777
-1.01567 -0.000511146 -0.911486 -0.000286609 -0.608737 -0.000109281
-1.03738 -0.000522073 -0.931577 -0.000292926 -0.538093 -9.65991e-05
-1.05744 -0.000532164 -0.946447 -0.000297602 -0.472987 -8.49113e-05
-1.07581 -0.000541412 -0.956053 -0.000300622 -0.41443 -7.4399e-05
-1.09254 -0.000549828 -0.960401 -0.000301989 -0.363217 -6.52053e-05
-1.10768 -0.000557449 -0.959545 -0.00030172 -0.319839 -5.74178e-05
-1.12131 -0.00056431 -0.95373 -0.000299892 -0.284533 -5.10797e-05
-1.13357 -0.000570481 -0.943307 -0.000296614 -0.257456 -4.62189e-05
-1.14462 -0.000576038 -0.928723 -0.000292029 -0.238704 -4.28525e-05
-1.1546 -0.000581062 -0.910503 -0.000286299 -0.228225 -4.09712e-05
-1.16371 -0.000585646 -0.889246 -0.000279615 -0.225755 -4.05278e-05
-1.17214 -0.000589888 -0.865647 -0.000272195 -0.230827 -4.14384e-05
-1.18007 -0.000593883 -0.840452 -0.000264272 -0.242858 -4.35982e-05
-1.18775 -0.000597743 -0.814474 -0.000256104 -0.261183 -4.68879e-05
-1.19537 -0.000601582 -0.788554 -0.000247954 -0.285122 -5.11855e-05
-1.20316 -0.000605501 -0.7636 -0.000240107 -0.313882 -5.63485e-05
-1.21133 -0.000609614 -0.740513 -0.000232848 -0.346601 -6.22222e-05
-1.2201 -0.000614028 -0.720155 -0.000226446 -0.382381 -6.86456e-05
-1.22967 -0.000618842 -0.703341 -0.000221159 -0.420366 -7.54646e-05
-1.24021 -0.000624147 -0.690844 -0.00021723 -0.459755 -8.25358e-05
-1.25184 -0.000629999 -0.683249 -0.000214842 -0.499841 -8.97321e-05
-1.26454 -0.000636392 -0.681285 -0.000214224 -0.539782 -9.69023e-05
-1.27881 -0.000643573 -0.685154 -0.000215441 -0.579197 -0.000103978
-1.29428 -0.000651358 -0.695701 -0.000218757 -0.617388 -0.000110834
-1.3039 -0.000656196 -0.716568 -0.000225318 -0.653177 -0.000117259
-1.31565 -0.000662111 -0.745952 -0.000234558 -0.687074 -0.000123344
-1.32741 -0.000668032 -0.782857 -0.000246162 -0.719069 -0.000129088
-1.34008 -0.000674404 -0.825053 -0.000259431 -0.749562 -0.000134562
-1.35438 -0.000681605 -0.872117 -0.000274229 -0.777846 -0.00013964
-1.37063 -0.000689779 -0.924685 -0.000290759 -0.80486 -0.000144489
-1.38761 -0.000698326 -0.982571 -0.000308961 -0.830798 -0.000149146
-1.40546 -0.000707311 -1.04487 -0.000328549 -0.85684 -0.000153821
-1.42402 -0.000716651 -1.11106 -0.000349362 -0.883199 -0.000158553
-1.44328 -0.000726345 -1.18015 -0.000371087 -0.910445 -0.000163444
-1.46277 -0.000736154 -1.25137 -0.000393483 -0.939241 -0.000168614
-1.48221 -0.000745934 -1.32406 -0.000416339 -0.970301 -0.00017419
-1.50151 -0.000755648 -1.39737 -0.000439392 -1.00436 -0.000180305
-1.52043 -0.000765168 -1.47033 -0.000462331 -1.04205 -0.000187071
-1.53865 -0.000774338 -1.54192 -0.000484843 -1.08398 -0.000194597
-1.54464 -0.000777355 -1.59685 -0.000502115 -1.1352 -0.000203793
-1.52721 -0.00076858 -1.64365 -0.00051683 -1.1921 -0.000214007
-1.5151 -0.000762489 -1.69113 -0.000531762 -1.25286 -0.000224916
-1.51685 -0.000763369 -1.74339 -0.000548195 -1.31531 -0.000236127
-1.51749 -0.000763691 -1.79006 -0.000562869 -1.38469 -0.000248582
-1.50802 -0.000758922 -1.82967 -0.000575323 -1.45055 -0.000260405
-1.50005 -0.000754913 -1.86675 -0.000586982 -1.507 -0.000270538
-1.49956 -0.000754666 -1.90237 -0.000598184 -1.55195 -0.000278607
-1.49981 -0.000754794 -1.9317 -0.000607407 -1.5993 -0.000287109
-1.49742 -0.000753587 -1.95189 -0.000613754 -1.65662 -0.000297398
-1.49578 -0.000752766 -1.96643 -0.000618327 -1.72059 -0.000308883
-1.49775 -0.000753755 -1.97723 -0.000621723 -1.78388 -0.000320245
-1.50116 -0.000755473 -1.98277 -0.000623465 -1.84304 -0.000330865
-1.50344 -0.000756618 -1.98168 -0.000623122 -1.90036 -0.000341155
-1.50397 -0.000756888 -1.97415 -0.000620755 -1.9597 -0.000351808
-1.5028 -0.000756299 -1.96124 -0.000616693 -2.01783 -0.000362244
-1.49986 -0.000754815 -1.94215 -0.000610691 -2.0414 -0.000366475
-1.49414 -0.000751941 -1.92223 -0.000604429 -2.0416 -0.00036651
-1.48633 -0.000748008 -1.89881 -0.000597064 -2.03641 -0.000365579
-1.47576 -0.000742689 -1.87196 -0.000588621 -2.03722 -0.000365724
-1.46263 -0.000736081 -1.84256 -0.000579375 -2.05047 -0.000368103
-1.44696 -0.000728196 -1.81259 -0.000569954 -2.06731 -0.000371126
-1.42852 -0.000718914 -1.78336 -0.000560762 -2.07652 -0.000372779
-1.40723 -0.000708198 -1.75496 -0.000551832 -2.07651 -0.000372778
-1.38299 -0.000696003 -1.72744 -0.000543179 -2.07402 -0.000372331
-1.35576 -0.0006823 -1.70114 -0.000534907 -2.07604 -0.000372694
-1.32547 -0.000667052 -1.67656 -0.000527181 -2.08259 -0.000373869
-1.29205 -0.000650236 -1.65406 -0.000520105 -2.0882 -0.000374876
-1.2556 -0.00063189 -1.63343 -0.000513617 -2.08432 -0.000374179
-1.21621 -0.000612069 -1.61454 -0.000507677 -2.06652 -0.000370984
-1.17411 -0.000590883 -1.59719 -0.000502221 -2.03656 -0.000365605
-1.1295 -0.00056843 -1.58076 -0.000497055 -1.99684 -0.000358476
-1.08258 -0.00054482 -1.56438 -0.000491906 -1.9484 -0.00034978
-1.03362 -0.000520179 -1.54732 -0.000486542 -1.89063 -0.000339408
-0.982919 -0.000494662 -1.52895 -0.000480763 -1.82299 -0.000327265
-0.930901 -0.000468484 -1.50846 -0.00047432 -1.74633 -0.000313503
-0.878072 -0.000441897 -1.48486 -0.000466901 -1.66254 -0.000298461
-0.824943 -0.00041516 -1.45717 -0.000458193 -1.57328 -0.000282437
-0.771983 -0.000388507 -1.42458 -0.000447947 -1.47932 -0.000265569
-0.719633 -0.000362161 -1.38652 -0.000435979 -1.38091 -0.000247902
-0.668279 -0.000336317 -1.3425 -0.000422138 -1.27858 -0.000229532
-0.618194 -0.000311111 -1.29217 -0.00040631 -1.17338 -0.000210647
-0.569489 -0.0002866 -1.23535 -0.000388444 -1.06649 -0.000191458
-0.522115 -0.000262759 -1.17216 -0.000368576 -0.958639 -0.000172096
-0.475923 -0.000239512 -1.10299 -0.000346826 -0.850075 -0.000152607
-0.430727 -0.000216767 -1.02836 -0.000323358 -0.740903 -0.000133008
-0.386371 -0.000194445 -0.948908 -0.000298376 -0.631394 -0.000113349
-0.34274 -0.000172487 -0.865378 -0.00027211 -0.521962 -9.37032e-05
-0.299757 -0.000150855 -0.778627 -0.000244832 -0.412914 -7.41268e-05
-0.257352 -0.000129515 -0.68962 -0.000216845 -0.304301 -5.46285e-05
-0.215446 -0.000108425 -0.599373 -0.000188467 -0.194938 -3.49955e-05
-0.173643 -8.73871e-05 -0.510716 -0.00016059 -0.130968 -2.35115e-05
-0.132387 -6.6625e-05 -0.420324 -0.000132167 -0.103351 -1.85537e-05
-0.0907472 -4.56693e-05 -0.331803 -0.000104333 -0.0817448 -1.46749e-05
-0.0490789 -2.46994e-05 -0.247296 -7.77601e-05 -0.0548406 -9.84506e-06
-0.00802167 -4.03697e-06 -0.168724 -5.30537e-05 -0.0145505 -2.61213e-06
0.0209701 1.05534e-05 -0.105403 -3.31431e-05 0.0328398 5.89544e-06
0.0434744 2.18789e-05 -0.0488346 -1.53556e-05 0.0722647 1.29731e-05
0.0704674 3.54633e-05 0.00275147 8.65176e-07 0.103982 1.86669e-05
0.089104 4.48423e-05 0.0503439 1.58302e-05 0.133902 2.40382e-05
0.105011 5.28479e-05 0.0898956 2.82669e-05 0.167857 3.01338e-05
0.118984 5.98795e-05 0.122399 3.84871e-05 0.210422 3.77752e-05
0.127915 6.43743e-05 0.153262 4.8192e-05 0.250026 4.4885e-05
0.139941 7.04267e-05 0.179733 5.65155e-05 0.283233 5.08464e-05
0.152267 7.66298e-05 0.200908 6.31738e-05 0.313669 5.63103e-05
0.161882 8.14685e-05 0.217166 6.8286e-05 0.344765 6.18927e-05
0.170319 8.57148e-05 0.229521 7.21707e-05 0.379261 6.80853e-05
0.178867 9.00165e-05 0.23913 7.51922e-05 0.412682 7.40851e-05
0.186993 9.41057e-05 0.244772 7.69663e-05 0.442255 7.93942e-05
0.193817 9.75398e-05 0.246133 7.73944e-05 0.467856 8.39902e-05
0.199853 0.000100578 0.244378 7.68426e-05 0.491358 8.82092e-05
0.205825 0.000103583 0.240292 7.55576e-05 0.514202 9.23102e-05
0.211487 0.000106433 0.233813 7.35205e-05 0.535576 9.61472e-05
0.21663 0.000109021 0.22485 7.0702e-05 0.55366 9.93938e-05
0.221552 0.000111498 0.213962 6.72786e-05 0.567413 0.000101863
0.226567 0.000114022 0.201849 6.34695e-05 0.577293 0.000103636
0.231603 0.000116556 0.18894 5.94105e-05 0.584147 0.000104867
0.236672 0.000119107 0.175468 5.51743e-05 0.588114 0.000105579
0.241974 0.000121776 0.161752 5.08615e-05 0.588053 0.000105568
0.247669 0.000124642 0.148284 4.66266e-05 0.58158 0.000104406
0.253778 0.000127716 0.135752 4.26861e-05 0.566902 0.000101771
0.260379 0.000131038 0.124435 3.91276e-05 0.544141 9.7685e-05
0.267516 0.00013463 0.114289 3.5937e-05 0.51477 9.24122e-05
0.275261 0.000138527 0.105513 3.31775e-05 0.479766 8.61283e-05
0.283784 0.000142817 0.0981228 3.08538e-05 0.439428 7.88867e-05
0.292846 0.000147377 0.0928091 2.9183e-05 0.392858 7.05263e-05
0.302669 0.000152321 0.0895416 2.81556e-05 0.340186 6.10707e-05
0.313198 0.000157619 0.0882662 2.77545e-05 0.282285 5.06762e-05
0.324394 0.000163254 0.0888571 2.79403e-05 0.220475 3.95799e-05
0.336215 0.000169203 0.091364 2.87286e-05 0.155648 2.79421e-05
0.348635 0.000175454 0.0958434 3.01371e-05 0.0881307 1.58213e-05
0.361601 0.000181979 0.102175 3.21281e-05 0.0182861 3.28275e-06
0.37502 0.000188732 0.110151 3.46361e-05 -0.0530781 -9.52865e-06
0.388773 0.000195653 0.119879 3.76949e-05 -0.148776 -2.67085e-05
0.402791 0.000202708 0.131096 4.12221e-05 -0.234548 -4.21064e-05
0.417174 0.000209946 0.141142 4.43809e-05 -0.305203 -5.47905e-05
0.431648 0.000217231 0.152283 4.78839e-05 -0.371555 -6.6702e-05
0.446336 0.000224622 0.165598 5.20708e-05 -0.442918 -7.95132e-05
0.460881 0.000231942 0.180393 5.67229e-05 -0.518074 -9.30054e-05
0.475529 0.000239314 0.194912 6.12884e-05 -0.588599 -0.000105666
0.490074 0.000246634 0.208877 6.56793e-05 -0.648243 -0.000116373
0.504465 0.000253876 0.222836 7.00688e-05 -0.697974 -0.000125301
0.518626 0.000261003 0.237175 7.45775e-05 -0.742782 -0.000133345
0.532489 0.00026798 0.251593 7.9111e-05 -0.785102 -0.000140942
0.546036 0.000274797 0.265508 8.34866e-05 -0.82227 -0.000147615
0.559225 0.000281435 0.278721 8.76412e-05 -0.849991 -0.000152591
0.572027 0.000287877 0.291358 9.1615e-05 -0.866693 -0.00015559
0.584421 0.000294115 0.303546 9.54472e-05 -0.874216 -0.00015694
0.596398 0.000300143 0.31526 9.91308e-05 -0.874449 -0.000156982
0.607949 0.000305955 0.326536 0.000102676 -0.864791 -0.000155248
0.619137 0.000311586 0.337106 0.000106 -0.841746 -0.000151111
0.629939 0.000317022 0.347087 0.000109138 -0.803649 -0.000144272
0.64039 0.000322282 0.356717 0.000112166 -0.751614 -0.000134931
0.650503 0.000327371 0.366294 0.000115178 -0.688261 -0.000123557
0.660305 0.000332304 0.375997 0.000118229 -0.615149 -0.000110432
0.669838 0.000337102 0.38595 0.000121359 -0.532092 -9.55218e-05
0.679144 0.000341785 0.396338 0.000124625 -0.438576 -7.87337e-05
0.688264 0.000346375 0.407429 0.000128112 -0.335288 -6.01913e-05
0.697217 0.00035088 0.418959 0.000131738 -0.224573 -4.03157e-05
0.706123 0.000355362 0.430974 0.000135516 -0.123545 -2.2179e-05
0.714769 0.000359714 0.445195 0.000139987 -0.0742963 -1.33378e-05
0.723493 0.000364104 0.462853 0.00014554 -0.0344316 -6.1812e-06
0.732408 0.000368591 0.481583 0.000151429 0.00822693 1.47691e-06
0.741003 0.000372916 0.501069 0.000157557 0.0620265 1.11351e-05
0.749846 0.000377366 0.521839 0.000164088 0.123142 2.21067e-05
0.758702 0.000381823 0.54539 0.000171493 0.181369 3.25597e-05
0.76755 0.000386276 0.571646 0.000179749 0.232287 4.17004e-05
0.776418 0.000390739 0.599785 0.000188597 0.279824 5.02343e-05
0.785312 0.000395215 0.629397 0.000197908 0.329957 5.92344e-05
0.794262 0.000399719 0.660558 0.000207707 0.38403 6.89416e-05
0.803165 0.0004042 0.693532 0.000218075 0.437979 7.86265e-05
0.811977 0.000408635 0.728199 0.000228976 0.487541 8.7524e-05
0.820691 0.00041302 0.764121 0.000240271 0.532423 9.55812e-05
0.828793 0.000417097 0.801055 0.000251885 0.575422 0.0001033
0.835722 0.000420584 0.839166 0.000263868 0.618602 0.000111052
0.841673 0.000423579 0.8781 0.000276111 0.661397 0.000118735
0.846354 0.000425935 0.917452 0.000288484 0.70137 0.000125911
0.849784 0.000427661 0.956599 0.000300794 0.737284 0.000132358
0.852073 0.000428813 0.995046 0.000312883 0.769877 0.000138209
0.853154 0.000429357 1.03227 0.000324589 0.800696 0.000143742
0.852892 0.000429225 1.06775 0.000335745 0.830267 0.000149051
0.85127 0.000428409 1.10097 0.000346189 0.857763 0.000153987
0.848315 0.000426922 1.13139 0.000355757 0.8822 0.000158374
0.843989 0.000424744 1.15852 0.000364286 0.903492 0.000162196
0.838164 0.000421813 1.18182 0.000371611 0.922351 0.000165582
0.83015 0.00041778 1.20032 0.00037743 0.939488 0.000168658
0.81931 0.000412325 1.21339 0.000381541 0.954766 0.000171401
0.806009 0.000405631 1.22068 0.000383833 0.967727 0.000173728
0.79072 0.000397937 1.22203 0.000384255 0.977973 0.000175567
0.77362 0.000389331 1.2171 0.000382707 0.98567 0.000176949
0.755 0.00037996 1.20552 0.000379064 0.991132 0.000177929
0.73531 0.000370051 1.18725 0.000373321 0.994267 0.000178492
0.714912 0.000359786 1.16242 0.000365511 0.994592 0.00017855
0.693931 0.000349227 1.13135 0.000355744 0.990891 0.000177886
0.672424 0.000338403 1.09465 0.000344203 0.982061 0.000176301
0.650443 0.000327341 1.05285 0.000331059 0.967813 0.000173743
0.627988 0.00031604 1.00651 0.000316487 0.948491 0.000170274
0.605056 0.0003045 0.956311 0.000300704 0.924319 0.000165935
0.58168 0.000292735 0.903112 0.000283976 0.894932 0.000160659
0.55791 0.000280773 0.847776 0.000266576 0.859682 0.000154331
0.533774 0.000268626 0.791116 0.000248759 0.818182 0.000146881
0.509287 0.000256303 0.733909 0.000230771 0.770513 0.000138323
0.484467 0.000243812 0.676935 0.000212856 0.716955 0.000128709
0.459343 0.000231168 0.620956 0.000195254 0.657651 0.000118062
0.433966 0.000218397 0.566646 0.000178177 0.592567 0.000106378
0.408416 0.000205539 0.514569 0.000161801 0.521743 9.36639e-05
0.382792 0.000192643 0.465181 0.000146272 0.445499 7.99765e-05
0.357167 0.000179748 0.418856 0.000131705 0.364398 6.54172e-05
0.33157 0.000166866 0.375876 0.000118191 0.279063 5.00977e-05
0.305986 0.00015399 0.33643 0.000105787 0.190068 3.41212e-05
0.280368 0.000141098 0.300599 9.45207e-05 0.0980005 1.75932e-05
0.254648 0.000128154 0.26836 8.43834e-05 0.00357753 6.42242e-07
0.228613 0.000115052 0.240457 7.56095e-05 -0.117544 -2.11017e-05
0.202293 0.000101805 0.214812 6.75456e-05 -0.21661 -3.88861e-05
0.175281 8.82119e-05 0.189045 5.94435e-05 -0.294718 -5.29081e-05
0.147552 7.4257e-05 0.166403 5.23239e-05 -0.368756 -6.61996e-05
0.118583 5.96779e-05 0.149034 4.68625e-05 -0.456164 -8.18911e-05
0.0880273 4.43005e-05 0.135145 4.24951e-05 -0.554169 -9.94851e-05
0.0560429 2.82041e-05 0.121689 3.82639e-05 -0.648144 -0.000116356
0.0225318 1.13393e-05 0.10806 3.39783e-05 -0.728304 -0.000130746
-0.014898 -7.49753e-06 0.0883689 2.77868e-05 -0.797376 -0.000143146
-0.0425864 -2.1432e-05 0.0659614 2.0741e-05 -0.864307 -0.000155162
-0.058462 -2.94215e-05 0.0396958 1.2482e-05 -0.933271 -0.000167542
-0.0745025 -3.7494e-05 0.0125403 3.94318e-06 -1.00081 -0.000179667
-0.0880752 -4.43246e-05 -0.0132735 -4.17372e-06 -1.05948 -0.000190199
-0.1021 -5.13827e-05 -0.0388931 -1.22296e-05 -1.10642 -0.000198627
-0.1182 -5.94853e-05 -0.0661967 -2.08149e-05 -1.14478 -0.000205513
-0.134754 -6.78162e-05 -0.0947418 -2.97907e-05 -1.18006 -0.000211846
-0.150551 -7.57659e-05 -0.124036 -3.90021e-05 -1.21208 -0.000217594
-0.166643 -8.38644e-05 -0.154113 -4.84595e-05 -1.23711 -0.000222087
-0.183509 -9.23523e-05 -0.184985 -5.81668e-05 -1.2524 -0.000224832
-0.200351 -0.000100829 -0.21637 -6.80355e-05 -1.25892 -0.000226003
-0.216823 -0.000109118 -0.248038 -7.79934e-05 -1.25944 -0.000226096
-0.233291 -0.000117406 -0.279629 -8.79269e-05 -1.2524 -0.000224832
-0.249789 -0.000125708 -0.310789 -9.77248e-05 -1.23515 -0.000221736
-0.266008 -0.000133871 -0.341086 -0.000107252 -1.20568 -0.000216445
-0.281797 -0.000141817 -0.370173 -0.000116398 -1.16454 -0.000209059
-0.297268 -0.000149603 -0.397575 -0.000125014 -1.11452 -0.00020008
-0.312404 -0.00015722 -0.422695 -0.000132913 -1.05812 -0.000189955
-0.327064 -0.000164598 -0.445001 -0.000139927 -0.996072 -0.000178816
-0.341214 -0.000171719 -0.464125 -0.00014594 -0.928057 -0.000166606
-0.354884 -0.000178599 -0.479757 -0.000150855 -0.854382 -0.00015338
-0.368048 -0.000185223 -0.491504 -0.000154549 -0.776616 -0.000139419
-0.380656 -0.000191568 -0.498941 -0.000156888 -0.696725 -0.000125077
-0.392702 -0.00019763 -0.501804 -0.000157788 -0.616023 -0.000110589
-0.404209 -0.000203421 -0.50002 -0.000157227 -0.534963 -9.60373e-05
-0.41519 -0.000208948 -0.493601 -0.000155208 -0.453871 -8.14794e-05
-0.425625 -0.0002142 -0.482628 -0.000151758 -0.3735 -6.70511e-05
-0.435515 -0.000219177 -0.467251 -0.000146923 -0.294968 -5.2953e-05
-0.444874 -0.000223886 -0.447739 -0.000140787 -0.219223 -3.93551e-05
-0.453717 -0.000228337 -0.424474 -0.000133472 -0.146682 -2.63325e-05
-0.461945 -0.000232478 -0.398733 -0.000125378 -0.0919345 -1.65042e-05
-0.46999 -0.000236527 -0.369061 -0.000116048 -0.0647587 -1.16256e-05
-0.477429 -0.00024027 -0.337159 -0.000106017 -0.0466244 -8.37008e-06
-0.484666 -0.000243912 -0.304158 -9.56396e-05 -0.027361 -4.91188e-06
-0.491757 -0.000247481 -0.270959 -8.52006e-05 -0.0035171 -6.31395e-07
-0.498772 -0.000251011 -0.237635 -7.47222e-05 0.0206896 3.71423e-06
-0.505894 -0.000254596 -0.204524 -6.43108e-05 0.0402575 7.22708e-06
-0.513256 -0.000258301 -0.172621 -5.42792e-05 0.0546789 9.81602e-06
-0.520997 -0.000262196 -0.142963 -4.49536e-05 0.0673771 1.20956e-05
-0.529194 -0.000266321 -0.116289 -3.65662e-05 0.0814932 1.46298e-05
-0.537943 -0.000270724 -0.0930576 -2.92611e-05 0.0967274 1.73646e-05
-0.547296 -0.000275431 -0.0735477 -2.31264e-05 0.110564 1.98487e-05
-0.557251 -0.000280441 -0.0592148 -1.86196e-05 0.121358 2.17864e-05
-0.568013 -0.000285857 -0.0514204 -1.61687e-05 0.129814 2.33043e-05
-0.579405 -0.00029159 -0.0480632 -1.5113e-05 0.137793 2.47368e-05
-0.591531 -0.000297693 -0.0493565 -1.55197e-05 0.146179 2.62422e-05
-0.604396 -0.000304168 -0.0554734 -1.74431e-05 0.153972 2.76412e-05
-0.617897 -0.000310962 -0.0665079 -2.09128e-05 0.159902 2.87058e-05
-0.631928 -0.000318023 -0.0845105 -2.65736e-05 0.163562 2.93628e-05
-0.646374 -0.000325293 -0.108906 -3.42445e-05 0.165718 2.97499e-05
-0.661205 -0.000332757 -0.138893 -4.36736e-05 0.166782 2.99409e-05
-0.676242 -0.000340324 -0.174242 -5.47889e-05 0.166209 2.9838e-05
-0.691391 -0.000347949 -0.21431 -6.73877e-05 0.162521 2.91761e-05
-0.706603 -0.000355604 -0.258544 -8.12967e-05 0.154848 2.77985e-05
-0.721846 -0.000363275 -0.306388 -9.63408e-05 0.143204 2.57082e-05
-0.737055 -0.000370929 -0.35721 -0.000112321 0.128061 2.29897e-05
-0.752171 -0.000378537 -0.410263 -0.000129003 0.10946 1.96504e-05
-0.767152 -0.000386076 -0.464756 -0.000146138 0.0868266 1.55872e-05
-0.781937 -0.000393516 -0.51993 -0.000163487 0.0594958 1.06808e-05
-0.796454 -0.000400823 -0.575077 -0.000180828 0.027249 4.89177e-06
-0.810489 -0.000407885 -0.629102 -0.000197815 -0.00942114 -1.69129e-06
-0.824364 -0.000414868 -0.681027 -0.000214143 -0.0509208 -9.14137e-06
-0.837309 -0.000421383 -0.731235 -0.00022993 -0.122244 -2.19454e-05
-0.850133 -0.000427837 -0.778178 -0.000244691 -0.184802 -3.31759e-05
-0.861972 -0.000433795 -0.824244 -0.000259176 -0.24367 -4.3744e-05
-0.873059 -0.000439374 -0.867022 -0.000272627 -0.305693 -5.48784e-05
-0.883095 -0.000444425 -0.905694 -0.000284787 -0.376459 -6.75823e-05
-0.892252 -0.000449034 -0.940325 -0.000295677 -0.456041 -8.1869e-05
-0.900261 -0.000453064 -0.971682 -0.000305537 -0.539648 -9.68783e-05
-0.907133 -0.000456523 -0.999814 -0.000314383 -0.623151 -0.000111869
-0.912895 -0.000459422 -1.02433 -0.000322091 -0.706515 -0.000126835
-0.917564 -0.000461772 -1.045 -0.00032859 -0.792348 -0.000142243
-0.92113 -0.000463567 -1.06208 -0.00033396 -0.881999 -0.000158338
-0.923575 -0.000464797 -1.07606 -0.000338358 -0.973668 -0.000174794
-0.924874 -0.000465451 -1.08722 -0.000341865 -1.06423 -0.000191052
-0.924847 -0.000465437 -1.09546 -0.000344457 -1.15198 -0.000206805
-0.923421 -0.000464719 -1.10096 -0.000346186 -1.23721 -0.000222106
-0.920845 -0.000463423 -1.10421 -0.000347208 -1.32062 -0.000237078
-0.916885 -0.00046143 -1.10583 -0.000347718 -1.40163 -0.000251622
-0.910678 -0.000458307 -1.10645 -0.000347912 -1.47843 -0.000265409
-0.902356 -0.000454119 -1.10635 -0.000347883 -1.54939 -0.000278148
-0.892093 -0.000448953 -1.10584 -0.00034772 -1.61382 -0.000289715
-0.880065 -0.0004429 -1.10508 -0.000347481 -1.67184 -0.000300131
-0.866434 -0.000436041 -1.10417 -0.000347196 -1.7234 -0.000309386
-0.851453 -0.000428501 -1.10315 -0.000346874 -1.76785 -0.000317367
-0.835484 -0.000420464 -1.10197 -0.000346504 -1.80427 -0.000323906
-0.818906 -0.000412122 -1.10051 -0.000346045 -1.83211 -0.000328903
-0.802037 -0.000403632 -1.09858 -0.000345438 -1.85135 -0.000332357
-0.785097 -0.000395107 -1.09595 -0.000344612 -1.86221 -0.000334307
-0.768219 -0.000386613 -1.09239 -0.000343492 -1.86453 -0.000334723
-0.75144 -0.000378169 -1.08758 -0.00034198 -1.85558 -0.000333116
-0.734691 -0.00036974 -1.08152 -0.000340074 -1.83371 -0.000329191
-0.717903 -0.000361291 -1.07403 -0.000337719 -1.79856 -0.00032288
-0.700986 -0.000352777 -1.06481 -0.000334819 -1.75102 -0.000314345
-0.683902 -0.00034418 -1.05346 -0.000331252 -1.69256 -0.00030385
-0.666641 -0.000335493 -1.03972 -0.000326931 -1.6241 -0.000291561
-0.649214 -0.000326722 -1.02337 -0.000321789 -1.54589 -0.000277519
-0.631632 -0.000317874 -1.00418 -0.000315755 -1.45815 -0.000261769
-0.613904 -0.000308953 -0.981885 -0.000308745 -1.36172 -0.000244458
-0.596028 -0.000299956 -0.956245 -0.000300683 -1.25795 -0.000225828
-0.577987 -0.000290877 -0.927113 -0.000291522 -1.14811 -0.00020611
-0.55975 -0.000281699 -0.894428 -0.000281245 -1.03311 -0.000185465
-0.541282 -0.000272405 -0.858181 -0.000269847 -0.913616 -0.000164014
-0.522551 -0.000262979 -0.818409 -0.000257341 -0.790435 -0.0001419
-0.503537 -0.00025341 -0.775204 -0.000243756 -0.664627 -0.000119315
-0.484229 -0.000243693 -0.728736 -0.000229144 -0.537327 -9.64616e-05
-0.464624 -0.000233826 -0.679248 -0.000213583 -0.409488 -7.35117e-05
-0.444718 -0.000223808 -0.62705 -0.00019717 -0.281842 -5.05966e-05
-0.424491 -0.000213629 -0.572632 -0.000180059 -0.164419 -2.95166e-05
-0.403636 -0.000203133 -0.518169 -0.000162934 -0.104335 -1.87303e-05
-0.382817 -0.000192656 -0.458558 -0.000144189 -0.0757277 -1.35947e-05
-0.361278 -0.000181816 -0.398868 -0.00012542 -0.0497269 -8.92703e-06
-0.339727 -0.00017097 -0.340286 -0.000107 -0.0132161 -2.37257e-06
-0.317842 -0.000159957 -0.283221 -8.90562e-05 0.0351364 6.30773e-06
-0.296004 -0.000148967 -0.226395 -7.11878e-05 0.0821293 1.4744e-05
-0.274477 -0.000138133 -0.17007 -5.3477e-05 0.11863 2.12966e-05
-0.253483 -0.000127567 -0.115529 -3.63271e-05 0.14692 2.63752e-05
-0.23313 -0.000117325 -0.0639328 -2.01031e-05 0.176015 3.15984e-05
-0.213571 -0.000107481 -0.0240433 -7.56019e-06 0.211124 3.79013e-05
-0.195105 -9.81883e-05 0.00998702 3.14033e-06 0.248486 4.46086e-05
-0.177585 -8.93712e-05 0.0414552 1.30352e-05 0.281347 5.05078e-05
-0.161067 -8.10581e-05 0.0702242 2.20814e-05 0.308452 5.53737e-05
-0.145821 -7.33857e-05 0.095778 3.01165e-05 0.332329 5.96601e-05
-0.131759 -6.63087e-05 0.117425 3.69234e-05 0.357082 6.41038e-05
-0.118822 -5.97983e-05 0.135188 4.25085e-05 0.382986 6.87541e-05
-0.107031 -5.38642e-05 0.149314 4.69505e-05 0.407364 7.31305e-05
-0.0963657 -4.84969e-05 0.15993 5.02887e-05 0.427727 7.6786e-05
-0.0867145 -4.36398e-05 0.166972 5.25028e-05 0.444123 7.97296e-05
-0.0779324 -3.92202e-05 0.170353 5.35659e-05 0.458428 8.22975e-05
-0.0699011 -3.51783e-05 0.170195 5.35163e-05 0.471848 8.47067e-05
-0.0624567 -3.14319e-05 0.166834 5.24593e-05 0.483716 8.68372e-05
-0.0564102 -2.83889e-05 0.160012 5.03143e-05 0.4926 8.84322e-05
-0.0511099 -2.57215e-05 0.15054 4.73361e-05 0.497489 8.93099e-05
-0.0455802 -2.29386e-05 0.138975 4.36994e-05 0.498815 8.9548e-05
-0.0398722 -2.0066e-05 0.125474 3.94542e-05 0.49709 8.92382e-05
-0.0344228 -1.73236e-05 0.110283 3.46776e-05 0.490903 8.81275e-05
-0.0289845 -1.45867e-05 0.0940065 2.95595e-05 0.478555 8.59109e-05
-0.0232258 -1.16886e-05 0.0771356 2.42546e-05 0.459263 8.24474e-05
-0.017264 -8.68828e-06 0.0598501 1.88193e-05 0.433958 7.79046e-05
-0.0112589 -5.66615e-06 0.042389 1.33288e-05 0.403865 7.25024e-05
-0.00511366 -2.57349e-06 0.0251953 7.92243e-06 0.36925 6.62883e-05
0.00127322 6.4076e-07 0.00866565 2.72483e-06 0.32955 5.91612e-05
0.00357268 1.79798e-06 -0.00568387 -1.78724e-06 0.284194 5.10188e-05
0.00378039 1.90251e-06 -0.0176245 -5.54186e-06 0.233786 4.19696e-05
0.00464372 2.33699e-06 -0.0277694 -8.73183e-06 0.17916 3.2163e-05
0.0055865 2.81145e-06 -0.0375768 -1.18157e-05 0.121661 2.18407e-05
0.00675645 3.40024e-06 -0.0467388 -1.46966e-05 0.0613736 1.10179e-05
0.00848844 4.27188e-06 -0.0609601 -1.91683e-05 -0.00133883 -2.40348e-07
0.0101799 5.1231e-06 -0.0746539 -2.34742e-05 -0.065744 -1.18024e-05
0.0115677 5.82153e-06 -0.0879304 -2.76489e-05 -0.154138 -2.76711e-05
0.0130044 6.54459e-06 -0.0998421 -3.13944e-05 -0.235177 -4.22193e-05
0.0148077 7.45212e-06 -0.113502 -3.56898e-05 -0.303605 -5.45035e-05
0.0163492 8.22786e-06 -0.126656 -3.98257e-05 -0.369181 -6.62759e-05
0.0178193 8.96773e-06 -0.13849 -4.35469e-05 -0.440161 -7.90182e-05
0.0191067 9.61563e-06 -0.14952 -4.70153e-05 -0.515926 -9.26197e-05
0.0204345 1.02839e-05 -0.161094 -5.06545e-05 -0.589076 -0.000105752
0.0215403 1.08404e-05 -0.173359 -5.45111e-05 -0.654015 -0.00011741
0.022419 1.12826e-05 -0.185734 -5.84024e-05 -0.711521 -0.000127733
0.0230636 1.1607e-05 -0.197806 -6.21984e-05 -0.766101 -0.000137531
0.0233757 1.1764e-05 -0.209783 -6.59643e-05 -0.820058 -0.000147218
0.0232006 1.16759e-05 -0.222151 -6.98534e-05 -0.871085 -0.000156378
0.0223814 1.12636e-05 -0.234968 -7.38835e-05 -0.915367 -0.000164328
0.0209428 1.05397e-05 -0.247991 -7.79785e-05 -0.951451 -0.000170806
0.0189126 9.51792e-06 -0.261014 -8.20734e-05 -0.980954 -0.000176102
0.0162888 8.19746e-06 -0.27401 -8.61598e-05 -1.00594 -0.000180588
0.0131148 6.60013e-06 -0.286955 -9.02303e-05 -1.02656 -0.000184288
0.00917541 4.61761e-06 -0.29955 -9.41908e-05 -1.04123 -0.000186923
0.00444433 2.23665e-06 -0.311647 -9.79946e-05 -1.04858 -0.000188243
-0.000786769 -3.95948e-07 -0.323142 -0.000101609 -1.04883 -0.000188288
-0.00596019 -2.99952e-06 -0.33375 -0.000104945 -1.04141 -0.000186954
-0.0104106 -5.23921e-06 -0.343179 -0.00010791 -1.02624 -0.000184233
-0.0145778 -7.33638e-06 -0.351703 -0.00011059 -1.00259 -0.000179987
-0.0186654 -9.3935e-06 -0.359287 -0.000112975 -0.9703 -0.000174189
-0.0221384 -1.11414e-05 -0.365543 -0.000114942 -0.930272 -0.000167004
-0.0246014 -1.23809e-05 -0.370219 -0.000116412 -0.883726 -0.000158648
-0.0260975 -1.31338e-05 -0.373239 -0.000117362 -0.831448 -0.000149263
-0.0266096 -1.33915e-05 -0.374386 -0.000117722 -0.773792 -0.000138912
-0.0259589 -1.3064e-05 -0.373314 -0.000117385 -0.711148 -0.000127666
-0.0246796 -1.24202e-05 -0.369645 -0.000116231 -0.644258 -0.000115658
-0.0242337 -1.21958e-05 -0.362393 -0.000113951 -0.574381 -0.000103114
-0.0224346 -1.12904e-05 -0.35193 -0.000110661 -0.502364 -9.01851e-05
-0.0196777 -9.903e-06 -0.338413 -0.000106411 -0.428753 -7.69703e-05
-0.0161821 -8.1438e-06 -0.321697 -0.000101155 -0.35415 -6.35774e-05
-0.0117913 -5.9341e-06 -0.301619 -9.48414e-05 -0.279102 -5.01048e-05
-0.00655285 -3.29778e-06 -0.278191 -8.74747e-05 -0.204347 -3.66847e-05
-0.00107536 -5.41186e-07 -0.25188 -7.92014e-05 -0.140664 -2.52522e-05
0.00409585 2.06127e-06 -0.222417 -6.99369e-05 -0.102974 -1.8486e-05
0.00712233 3.58437e-06 -0.190077 -5.9768e-05 -0.082753 -1.48559e-05
0.00838895 4.22181e-06 -0.155972 -4.90441e-05 -0.0627389 -1.1263e-05
0.0095856 4.82404e-06 -0.120395 -3.78572e-05 -0.0367735 -6.60163e-06
0.0106637 5.36661e-06 -0.0836234 -2.62946e-05 -0.00696089 -1.24963e-06
0.0107663 5.41825e-06 -0.0458355 -1.44126e-05 0.0201313 3.61399e-06
0.00998331 5.02419e-06 -0.00963725 -3.03035e-06 0.042065 7.55155e-06
0.0134765 6.78218e-06 0.0180419 5.67311e-06 0.0610003 1.09508e-05
0.0157345 7.9185e-06 0.0446885 1.40519e-05 0.0803504 1.44246e-05
0.0182195 9.16914e-06 0.0695558 2.18712e-05 0.103164 1.85202e-05
0.020287 1.02096e-05 0.0937699 2.94851e-05 0.12595 2.26106e-05
0.0216967 1.09191e-05 0.116155 3.65237e-05 0.146349 2.62728e-05
0.0220461 1.10949e-05 0.136116 4.28005e-05 0.163702 2.93881e-05
0.0221978 1.11712e-05 0.153316 4.82089e-05 0.179974 3.23091e-05
0.0221475 1.11459e-05 0.167703 5.27328e-05 0.197064 3.53772e-05
0.0217029 1.09222e-05 0.179228 5.63565e-05 0.214628 3.85303e-05
0.0208479 1.04919e-05 0.187676 5.90132e-05 0.231054 4.14791e-05
0.019564 9.84576e-06 0.192793 6.06221e-05 0.245272 4.40315e-05
0.0174466 8.78016e-06 0.194401 6.11276e-05 0.257708 4.62641e-05
0.0144681 7.28118e-06 0.192522 6.05368e-05 0.269383 4.83599e-05
