-0.0285883 -1.43873e-05 -0.0785643 -2.47038e-05 -0.0222066 -3.98655e-06
-0.0284052 -1.42952e-05 -0.0785888 -2.47116e-05 -0.0221995 -3.98528e-06
-0.027967 -1.40746e-05 -0.0786492 -2.47305e-05 -0.0221631 -3.97875e-06
-0.0270525 -1.36144e-05 -0.0787171 -2.47519e-05 -0.0221208 -3.97116e-06
-0.0259964 -1.30829e-05 -0.0787814 -2.47721e-05 -0.0220945 -3.96644e-06
-0.0246172 -1.23888e-05 -0.0788471 -2.47928e-05 -0.0220965 -3.96679e-06
-0.0228777 -1.15134e-05 -0.078893 -2.48072e-05 -0.0221382 -3.97427e-06
-0.0207364 -1.04358e-05 -0.0788906 -2.48064e-05 -0.0222394 -3.99244e-06
-0.0181488 -9.13355e-06 -0.0788187 -2.47838e-05 -0.0224222 -4.02527e-06
-0.0150667 -7.58246e-06 -0.0786596 -2.47338e-05 -0.0227079 -4.07654e-06
-0.011443 -5.75878e-06 -0.0783874 -2.46482e-05 -0.0231134 -4.14935e-06
-0.00723965 -3.64342e-06 -0.0779672 -2.45161e-05 -0.0236521 -4.24606e-06
-0.00246494 -1.2405e-06 -0.0773619 -2.43257e-05 -0.0243361 -4.36885e-06
0.0028083 1.4133e-06 -0.0765565 -2.40725e-05 -0.0251602 -4.51679e-06
0.00825854 4.15618e-06 -0.0754716 -2.37314e-05 -0.0261575 -4.69583e-06
0.0141143 7.10314e-06 -0.0740848 -2.32953e-05 -0.0273063 -4.90206e-06
0.0202752 1.02037e-05 -0.0723492 -2.27495e-05 -0.0285922 -5.13291e-06
0.026616 1.33947e-05 -0.0702228 -2.20809e-05 -0.0299801 -5.38207e-06
0.0329848 1.65999e-05 -0.0676792 -2.12811e-05 -0.0314176 -5.64013e-06
0.0392249 1.97403e-05 -0.0647059 -2.03462e-05 -0.0328246 -5.89272e-06
0.0451764 2.27354e-05 -0.0613026 -1.9276e-05 -0.0341167 -6.12467e-06
0.0506494 2.54898e-05 -0.05748 -1.80741e-05 -0.0351646 -6.31279e-06
0.0554126 2.78869e-05 -0.0532627 -1.6748e-05 -0.03582 -6.43045e-06
0.0591893 2.97875e-05 -0.0490306 -1.54172e-05 -0.0359271 -6.44968e-06
0.0616553 3.10286e-05 -0.0455599 -1.43259e-05 -0.0353299 -6.34247e-06
0.0624561 3.14316e-05 -0.0419921 -1.3204e-05 -0.0338679 -6.08e-06
0.0612783 3.08388e-05 -0.0383526 -1.20596e-05 -0.0313477 -5.62758e-06
0.0579208 2.91491e-05 -0.034671 -1.0902e-05 -0.0275593 -4.94749e-06
0.052389 2.63652e-05 -0.0311147 -9.78373e-06 -0.0222832 -4.00031e-06
0.044851 2.25716e-05 -0.027811 -8.74492e-06 -0.0153333 -2.75266e-06
0.0351523 1.76907e-05 -0.0248773 -7.82244e-06 -0.00784233 -1.40786e-06
0.0233073 1.17296e-05 -0.0224682 -7.06493e-06 3.03641e-05 5.451e-09
0.0102757 5.17135e-06 -0.0206492 -6.49294e-06 0.00932501 1.67404e-06
-0.00377136 -1.89797e-06 -0.0195552 -6.14897e-06 0.0199471 3.58092e-06
-0.0185989 -9.36007e-06 -0.0192807 -6.06265e-06 0.031802 5.70913e-06
-0.0340237 -1.71227e-05 -0.019845 -6.24008e-06 0.0446909 8.02296e-06
-0.0500346 -2.51804e-05 -0.0212503 -6.68197e-06 0.0583392 1.04731e-05
-0.0665204 -3.3477e-05 -0.0235436 -7.40307e-06 0.0724164 1.30003e-05
-0.0832676 -4.19051e-05 -0.0267238 -8.40307e-06 0.0864777 1.55246e-05
-0.100188 -5.04204e-05 -0.0333996 -1.05022e-05 0.100027 1.7957e-05
-0.117152 -5.89579e-05 -0.0414574 -1.30359e-05 0.112737 2.02387e-05
-0.133916 -6.73946e-05 -0.0504008 -1.58481e-05 0.124092 2.22772e-05
-0.150167 -7.55729e-05 -0.0600705 -1.88886e-05 0.133625 2.39886e-05
-0.165542 -8.33107e-05 -0.0703188 -2.21111e-05 0.140897 2.5294e-05
-0.179642 -9.04065e-05 -0.080979 -2.54631e-05 0.145517 2.61234e-05
-0.192103 -9.66775e-05 -0.0918627 -2.88854e-05 0.14713 2.64129e-05
-0.202751 -0.000102036 -0.102806 -3.23266e-05 0.145437 2.61091e-05
-0.211614 -0.000106497 -0.11377 -3.57739e-05 0.140119 2.51543e-05
-0.218904 -0.000110166 -0.124417 -3.91218e-05 0.131038 2.35241e-05
-0.225076 -0.000113272 -0.134489 -4.22888e-05 0.118108 2.12029e-05
-0.232248 -0.000116881 -0.146113 -4.5944e-05 0.0965144 1.73264e-05
-0.240297 -0.000120932 -0.156587 -4.92373e-05 0.0691011 1.24051e-05
-0.250885 -0.00012626 -0.165806 -5.21361e-05 0.0364536 6.54419e-06
-0.265474 -0.000133602 -0.173881 -5.46752e-05 -0.000526891 -9.45882e-08
-0.285101 -0.00014348 -0.181299 -5.70078e-05 -0.0489576 -8.78893e-06
-0.310278 -0.00015615 -0.188771 -5.93573e-05 -0.107447 -1.9289e-05
-0.340879 -0.00017155 -0.197124 -6.1984e-05 -0.166351 -2.98636e-05
-0.376168 -0.00018931 -0.207265 -6.51725e-05 -0.223042 -4.00408e-05
-0.415092 -0.000208899 -0.220224 -6.92473e-05 -0.275182 -4.94011e-05
-0.45676 -0.000229868 -0.236878 -7.44842e-05 -0.321283 -5.76771e-05
-0.500685 -0.000251974 -0.257786 -8.10584e-05 -0.360187 -6.46613e-05
-0.546722 -0.000275143 -0.283251 -8.90657e-05 -0.391153 -7.02204e-05
-0.594868 -0.000299372 -0.313328 -9.85232e-05 -0.414135 -7.4346e-05
-0.645098 -0.000324651 -0.347779 -0.000109356 -0.42987 -7.71708e-05
-0.697197 -0.00035087 -0.386105 -0.000121407 -0.439734 -7.89416e-05
-0.750568 -0.00037773 -0.427661 -0.000134474 -0.44542 -7.99624e-05
-0.804268 -0.000404755 -0.471676 -0.000148314 -0.448958 -8.05975e-05
-0.857303 -0.000431445 -0.517228 -0.000162638 -0.45267 -8.12639e-05
-0.908898 -0.000457411 -0.563291 -0.000177122 -0.459075 -8.24138e-05
-0.958538 -0.000482393 -0.608826 -0.00019144 -0.470601 -8.44828e-05
-1.00582 -0.000506187 -0.652846 -0.000205282 -0.489403 -8.78583e-05
-1.05018 -0.000528513 -0.694488 -0.000218376 -0.517237 -9.28551e-05
-1.09078 -0.000548946 -0.733087 -0.000230513 -0.555354 -9.96979e-05
-1.12673 -0.000567039 -0.768167 -0.000241543 -0.604398 -0.000108502
-1.15738 -0.000582464 -0.799437 -0.000251376 -0.664374 -0.000119269
-1.18241 -0.000595058 -0.826794 -0.000259978 -0.734656 -0.000131886
-1.20181 -0.000604823 -0.850288 -0.000267366 -0.814042 -0.000146138
-1.21592 -0.000611924 -0.870104 -0.000273596 -0.9008 -0.000161713
-1.22537 -0.000616678 -0.886548 -0.000278767 -0.992738 -0.000178218
-1.23102 -0.00061952 -0.900034 -0.000283008 -1.0873 -0.000195193
-1.23386 -0.000620949 -0.911057 -0.000286474 -1.18169 -0.000212138
-1.23496 -0.000621502 -0.920147 -0.000289332 -1.273 -0.00022853
-1.23546 -0.000621756 -0.927842 -0.000291752 -1.35836 -0.000243855
-1.23664 -0.000622348 -0.934649 -0.000293892 -1.43508 -0.000257628
-1.23982 -0.000623949 -0.941024 -0.000295896 -1.50075 -0.000269416
-1.24622 -0.00062717 -0.947361 -0.000297889 -1.55333 -0.000278855
-1.25661 -0.000632401 -0.954018 -0.000299982 -1.59123 -0.00028566
-1.27105 -0.000639666 -0.961317 -0.000302278 -1.61338 -0.000289636
-1.28883 -0.000648613 -0.969513 -0.000304855 -1.61923 -0.000290685
-1.30875 -0.000658638 -0.978731 -0.000307753 -1.60888 -0.000288829
-1.32525 -0.000666945 -0.986823 -0.000310298 -1.58945 -0.000285341
-1.34531 -0.000677041 -0.997652 -0.000313703 -1.5524 -0.000278689
-1.36338 -0.000686134 -1.00887 -0.000317229 -1.50304 -0.000269827
-1.37811 -0.000693545 -1.01982 -0.000320673 -1.44389 -0.00025921
-1.38813 -0.000698588 -1.02972 -0.000323785 -1.37792 -0.000247366
-1.39198 -0.000700524 -1.03766 -0.000326281 -1.30831 -0.000234869
-1.38816 -0.000698604 -1.04266 -0.000327854 -1.23831 -0.000222303
-1.37523 -0.000692097 -1.04374 -0.000328193 -1.1711 -0.000210237
-1.3518 -0.000680307 -1.03995 -0.000327004 -1.10954 -0.000199187
-1.31667 -0.000662627 -1.03045 -0.000324015 -1.0561 -0.000189592
-1.26889 -0.000638582 -1.01445 -0.000318986 -1.01263 -0.000181789
-1.20781 -0.000607842 -0.991381 -0.000311731 -0.980344 -0.000175993
-1.13316 -0.000570273 -0.960792 -0.000302113 -0.959668 -0.000172281
-1.0453 -0.000526055 -0.922404 -0.000290042 -0.950267 -0.000170593
-0.945423 -0.000475792 -0.876081 -0.000275476 -0.951035 -0.000170731
-0.835488 -0.000420466 -0.82189 -0.000258436 -0.960114 -0.000172361
-0.717743 -0.000361211 -0.760156 -0.000239024 -0.974892 -0.000175014
-0.594523 -0.000299199 -0.691437 -0.000217416 -0.992081 -0.0001781
-0.468284 -0.000235668 -0.616513 -0.000193857 -1.00788 -0.000180937
-0.341599 -0.000171912 -0.53639 -0.000168663 -1.01817 -0.000182783
-0.217055 -0.000109235 -0.452259 -0.000142209 -1.01864 -0.000182868
-0.0970871 -4.88599e-05 -0.365425 -0.000114905 -1.00508 -0.000180433
0.016354 8.23031e-06 -0.277207 -8.71651e-05 -0.973526 -0.000174769
0.118448 5.96099e-05 -0.197337 -6.2051e-05 -0.920347 -0.000165222
0.209066 0.000105214 -0.132342 -4.16136e-05 -0.843701 -0.000151462
0.290819 0.000146357 -0.0676178 -2.12618e-05 -0.740976 -0.000133021
0.36266 0.000182512 -0.00342701 -1.07759e-06 -0.611307 -0.000109743
0.424204 0.000213484 0.0590765 1.85761e-05 -0.455745 -8.1816e-05
0.474966 0.000239031 0.119187 3.74774e-05 -0.27568 -4.94905e-05
0.514815 0.000259085 0.177256 5.57365e-05 -0.0738599 -1.32594e-05
0.544848 0.000274199 0.233008 7.32672e-05 0.10812 1.94098e-05
0.566831 0.000285263 0.285937 8.99104e-05 0.27456 4.92893e-05
0.583019 0.00029341 0.336133 0.000105694 0.447694 8.03706e-05
0.595931 0.000299907 0.383956 0.000120731 0.623137 0.000111866
0.608196 0.00030608 0.429335 0.000135001 0.796243 0.000142943
0.622592 0.000313325 0.472218 0.000148485 0.961958 0.000172692
0.641948 0.000323066 0.51298 0.000161302 1.11644 0.000200425
0.668941 0.000336651 0.551935 0.000173551 1.25629 0.000225531
0.705834 0.000355217 0.589247 0.000185284 1.37789 0.000247361
0.754186 0.000379551 0.625192 0.000196586 1.4778 0.000265297
0.814571 0.00040994 0.660173 0.000207585 1.55385 0.000278949
0.886537 0.000446157 0.694517 0.000218385 1.60476 0.000288089
0.968872 0.000487593 0.728407 0.000229041 1.63007 0.000292632
1.05992 0.000533414 0.761971 0.000239595 1.63 0.000292619
1.15776 0.000582654 0.795255 0.000250061 1.60595 0.000288302
1.26035 0.000634284 0.828097 0.000260388 1.56043 0.00028013
1.36558 0.000687239 0.860147 0.000270465 1.49682 0.000268711
1.47128 0.000740433 0.890946 0.00028015 1.41908 0.000254754
1.57531 0.000792787 0.919949 0.00028927 1.33166 0.000239062
1.67555 0.000843237 0.946529 0.000297628 1.23939 0.000222497
1.76985 0.000890694 0.970053 0.000305024 1.14715 0.000205938
1.85603 0.000934062 0.989938 0.000311277 1.05956 0.000190213
1.93204 0.000972315 1.00568 0.000316228 0.980771 0.000176069
1.99615 0.00100458 1.01691 0.000319758 0.914354 0.000164146
2.03801 0.00102565 1.0241 0.000322019 0.863187 0.00015496
2.07106 0.00104228 1.0313 0.000324282 0.82815 0.00014867
2.09613 0.0010549 1.0357 0.000325666 0.810462 0.000145495
2.09276 0.0010532 1.02853 0.000323411 0.813095 0.000145968
2.08191 0.00104774 1.0183 0.000320196 0.829665 0.000148943
2.05683 0.00103512 1.00786 0.000316913 0.85955 0.000154308
1.99444 0.00100372 0.995835 0.000313131 0.899606 0.000161498
1.92308 0.000967805 0.973905 0.000306236 0.955012 0.000171445
1.84794 0.00092999 0.956563 0.000300783 1.01246 0.000181759
1.76561 0.000888559 0.936834 0.000294579 1.07464 0.000192921
1.67942 0.00084518 0.914061 0.000287418 1.13745 0.000204196
1.59609 0.000803244 0.891041 0.00028018 1.19734 0.000214948
1.51597 0.000762923 0.86855 0.000273108 1.2506 0.000224509
1.44242 0.000725911 0.846027 0.000266026 1.29345 0.000232201
1.37913 0.000694058 0.82359 0.00025897 1.32363 0.000237619
1.32769 0.000668173 0.802056 0.000252199 1.33957 0.000240482
1.28995 0.00064918 0.782143 0.000245938 1.33915 0.000240406
1.26766 0.000637962 0.76384 0.000240183 1.32075 0.000237102
1.26129 0.000634756 0.74716 0.000234938 1.28437 0.000230571
1.27099 0.000639635 0.732633 0.00023037 1.23092 0.000220977
1.2964 0.000652423 0.720565 0.000226575 1.16145 0.000208505
1.33569 0.000672199 0.710909 0.000223539 1.0775 0.000193434
1.38077 0.000694885 0.704863 0.000221638 0.980986 0.000176108
1.42977 0.000719542 0.701179 0.000220479 0.875648 0.000157197
1.48 0.000744824 0.700201 0.000220172 0.765272 0.000137383
1.52943 0.000769698 0.70175 0.000220659 0.654007 0.000117408
1.56682 0.000788515 0.704314 0.000221465 0.567211 0.000101826
1.60111 0.000805774 0.707556 0.000222485 0.484965 8.70615e-05
1.63128 0.000820954 0.711216 0.000223635 0.409577 7.35279e-05
1.65627 0.000833534 0.715069 0.000224847 0.343136 6.16003e-05
1.67513 0.000843026 0.718805 0.000226022 0.287412 5.15965e-05
1.68702 0.000849006 0.722057 0.000227044 0.243901 4.37855e-05
1.69118 0.000851103 0.724533 0.000227823 0.213865 3.83933e-05
1.68695 0.00084897 0.726059 0.000228303 0.198242 3.55887e-05
1.67365 0.000842278 0.726525 0.000228449 0.197535 3.54618e-05
1.6507 0.00083073 0.725824 0.000228229 0.211766 3.80165e-05
1.61761 0.000814078 0.723877 0.000227617 0.240536 4.31814e-05
1.57409 0.000792172 0.720658 0.000226604 0.283105 5.08233e-05
1.52016 0.000765032 0.716187 0.000225199 0.33842 6.07536e-05
1.45628 0.000732887 0.710497 0.000223409 0.405114 7.27266e-05
1.38335 0.000696185 0.703606 0.000221243 0.481516 8.64424e-05
1.30263 0.000655558 0.695531 0.000218703 0.565708 0.000101557
1.21557 0.000611747 0.686305 0.000215802 0.655587 0.000117692
1.1237 0.00056551 0.675984 0.000212557 0.748912 0.000134446
1.02847 0.000517585 0.664624 0.000208985 0.84334 0.000151397
0.931292 0.000468681 0.652272 0.000205101 0.936465 0.000168115
0.833561 0.000419497 0.63897 0.000200919 1.02589 0.000184169
0.736641 0.000370721 0.62477 0.000196453 1.1093 0.000199143
0.641829 0.000323006 0.609717 0.00019172 1.18451 0.000212645
0.550294 0.00027694 0.59384 0.000186728 1.24952 0.000224316
0.463038 0.000233028 0.577141 0.000181477 1.30258 0.00023384
0.380889 0.000191686 0.559602 0.000175962 1.34216 0.000240947
0.304508 0.000153246 0.541183 0.00017017 1.36708 0.00024542
0.234392 0.00011796 0.521827 0.000164084 1.37648 0.000247107
0.170859 8.59862e-05 0.501456 0.000157678 1.36982 0.000245912
0.11405 5.73966e-05 0.479961 0.000150919 1.34696 0.000241808
0.0639283 3.21725e-05 0.457215 0.000143767 1.30807 0.000234827
0.0202815 1.02068e-05 0.433079 0.000136178 1.25368 0.000225062
-0.0173663 -8.73975e-06 0.407407 0.000128106 1.18461 0.000212662
-0.0522038 -2.6272e-05 0.380039 0.0001195 1.10198 0.000197829
-0.0733179 -3.68979e-05 0.349477 0.00010989 1.00739 0.000180848
-0.0807729 -4.06497e-05 0.313619 9.86145e-05 0.90483 0.000162436
-0.0856527 -4.31055e-05 0.282386 8.87938e-05 0.789641 0.000141757
-0.0872792 -4.3924e-05 0.246066 7.73731e-05 0.668563 0.000120021
-0.0889861 -4.4783e-05 0.207399 6.52148e-05 0.541217 9.716e-05
-0.0899672 -4.52768e-05 0.16695 5.2496e-05 0.410045 7.36118e-05
-0.0909213 -4.57569e-05 0.12605 3.96353e-05 0.276463 4.9631e-05
-0.0941838 -4.73988e-05 0.0839599 2.64004e-05 0.14212 2.55135e-05
-0.1011 -5.08794e-05 0.0398929 1.2544e-05 0.00896911 1.61015e-06
-0.112115 -5.64228e-05 -0.00580899 -1.82658e-06 -0.165796 -2.97638e-05
-0.128111 -6.44731e-05 -0.0524637 -1.64967e-05 -0.340622 -6.11489e-05
-0.150226 -7.56027e-05 -0.0998982 -3.14121e-05 -0.507736 -9.11494e-05
-0.179075 -9.0121e-05 -0.148517 -4.66998e-05 -0.664938 -0.000119371
-0.214699 -0.000108049 -0.203335 -6.39367e-05 -0.809888 -0.000145392
-0.257404 -0.000129541 -0.261903 -8.23531e-05 -0.941974 -0.000169104
-0.307214 -0.000154608 -0.322098 -0.000101281 -1.06049 -0.00019038
-0.363923 -0.000183147 -0.382978 -0.000120424 -1.16489 -0.000209122
-0.427274 -0.000215029 -0.444227 -0.000139683 -1.25464 -0.000225234
-0.496954 -0.000250096 -0.505961 -0.000159095 -1.32966 -0.000238702
-0.572436 -0.000288083 -0.568095 -0.000178632 -1.39028 -0.000249585
-0.652999 -0.000328627 -0.630098 -0.000198129 -1.43722 -0.000258012
-0.737783 -0.000371296 -0.691378 -0.000217397 -1.47143 -0.000264152
-0.82577 -0.000415576 -0.751597 -0.000236333 -1.49402 -0.000268208
-0.915788 -0.000460878 -0.810569 -0.000254876 -1.50625 -0.000270403
-1.00658 -0.000506569 -0.867992 -0.000272932 -1.50951 -0.000270989
-1.09685 -0.000551999 -0.923406 -0.000290357 -1.50539 -0.000270249
-1.18528 -0.000596502 -0.97636 -0.000307008 -1.4956 -0.000268492
-1.27054 -0.00063941 -1.02652 -0.000322781 -1.48193 -0.000266037
-1.35136 -0.000680082 -1.07361 -0.000337586 -1.46608 -0.000263192
-1.42654 -0.00071792 -1.11729 -0.000351322 -1.44967 -0.000260246
-1.49502 -0.00075238 -1.15721 -0.000363873 -1.43424 -0.000257477
-1.55584 -0.000782989 -1.19302 -0.000375133 -1.42128 -0.00025515
-1.60823 -0.000809358 -1.22446 -0.000385021 -1.41211 -0.000253503
-1.65163 -0.000831195 -1.25132 -0.000393466 -1.40781 -0.000252732
-1.68564 -0.000848311 -1.27338 -0.000400403 -1.40922 -0.000252985
-1.71009 -0.000860619 -1.29047 -0.000405776 -1.41687 -0.000254359
-1.72501 -0.000868127 -1.30247 -0.000409549 -1.43107 -0.000256908
-1.73057 -0.000870925 -1.30935 -0.000411712 -1.45182 -0.000260633
-1.72711 -0.000869181 -1.31114 -0.000412276 -1.47882 -0.000265481
-1.71514 -0.000863159 -1.30795 -0.000411273 -1.51146 -0.00027134
-1.69559 -0.000853318 -1.29996 -0.00040876 -1.54882 -0.000278046
-1.66933 -0.000840104 -1.28737 -0.000404803 -1.58974 -0.000285392
-1.63739 -0.000824029 -1.27047 -0.000399487 -1.63285 -0.00029313
-1.601 -0.000805718 -1.24962 -0.000392931 -1.67654 -0.000300974
-1.56144 -0.00078581 -1.22526 -0.000385271 -1.71906 -0.000308607
-1.51993 -0.000764919 -1.19784 -0.000376651 -1.75855 -0.000315697
-1.47771 -0.000743668 -1.1679 -0.000367236 -1.79312 -0.000321904
-1.43604 -0.000722698 -1.13599 -0.000357201 -1.82089 -0.000326889
-1.39618 -0.000702638 -1.10268 -0.000346728 -1.84005 -0.000330328
-1.35931 -0.000684087 -1.06854 -0.000335994 -1.84894 -0.000331923
-1.32657 -0.00066761 -1.03415 -0.000325178 -1.84608 -0.000331411
-1.29897 -0.000653716 -1.00004 -0.000314452 -1.83026 -0.000328571
-1.27735 -0.000642836 -0.966729 -0.000303979 -1.80054 -0.000323236
-1.26241 -0.000635317 -0.934701 -0.000293908 -1.75631 -0.000315296
-1.25468 -0.000631428 -0.904374 -0.000284372 -1.69732 -0.000304706
-1.25454 -0.00063136 -0.876113 -0.000275486 -1.6237 -0.000291489
-1.26224 -0.000635231 -0.850216 -0.000267343 -1.53596 -0.000275738
-1.27684 -0.000642581 -0.827104 -0.000260075 -1.43498 -0.000257609
-1.29358 -0.000651008 -0.8094 -0.000254508 -1.32085 -0.000237121
-1.32157 -0.000665093 -0.792761 -0.000249277 -1.19691 -0.000214871
-1.35553 -0.000682183 -0.778825 -0.000244894 -1.06539 -0.00019126
-1.39628 -0.00070269 -0.767849 -0.000241443 -0.927225 -0.000166457
-1.44327 -0.000726338 -0.758811 -0.000238601 -0.785848 -0.000141076
-1.49387 -0.000751805 -0.752807 -0.000236713 -0.642761 -0.000115389
-1.54709 -0.000778587 -0.74919 -0.000235576 -0.50147 -9.00246e-05
-1.59916 -0.000804792 -0.748888 -0.000235481 -0.364387 -6.54152e-05
-1.6503 -0.000830526 -0.751152 -0.000236193 -0.234261 -4.20549e-05
-1.69739 -0.000854227 -0.755552 -0.000237577 -0.113589 -2.03917e-05
-1.73914 -0.000875235 -0.761817 -0.000239547 -0.0270261 -4.85175e-06
-1.77468 -0.000893124 -0.770028 -0.000242128 0.0400666 7.19281e-06
-1.80217 -0.000906957 -0.779664 -0.000245158 0.0947264 1.70054e-05
-1.81985 -0.000915855 -0.790206 -0.000248473 0.135698 2.43607e-05
-1.82676 -0.000919331 -0.801212 -0.000251934 0.16239 2.91525e-05
-1.82269 -0.000917285 -0.812376 -0.000255444 0.173891 3.12171e-05
-1.80711 -0.000909444 -0.82325 -0.000258864 0.169171 3.03698e-05
-1.7797 -0.000895648 -0.833299 -0.000262023 0.147605 2.64982e-05
-1.74074 -0.000876041 -0.842079 -0.000264784 0.109317 1.96247e-05
-1.69069 -0.000850855 -0.849202 -0.000267024 0.0549415 9.86317e-06
-1.63006 -0.000820342 -0.854329 -0.000268636 -0.0146685 -2.63332e-06
-1.55964 -0.000784902 -0.857311 -0.000269574 -0.111445 -2.00067e-05
-1.48064 -0.000745143 -0.8579 -0.000269759 -0.247306 -4.43967e-05
-1.39444 -0.000701763 -0.855927 -0.000269138 -0.399117 -7.165e-05
-1.30257 -0.000655527 -0.851232 -0.000267662 -0.563276 -0.00010112
-1.20658 -0.000607224 -0.843938 -0.000265369 -0.736311 -0.000132184
-1.10807 -0.000557647 -0.834258 -0.000262325 -0.914858 -0.000164236
-1.00857 -0.000507572 -0.82242 -0.000258603 -1.09539 -0.000196646
-0.909589 -0.000457759 -0.808661 -0.000254276 -1.27398 -0.000228707
-0.812576 -0.000408936 -0.793322 -0.000249453 -1.44642 -0.000259664
-0.718884 -0.000361784 -0.776831 -0.000244268 -1.60859 -0.000288776
-0.629747 -0.000316926 -0.75962 -0.000238856 -1.75672 -0.000315369
-0.5463 -0.00027493 -0.742054 -0.000233332 -1.88748 -0.000338844
-0.469582 -0.000236321 -0.724448 -0.000227796 -1.99788 -0.000358661
-0.400499 -0.000201555 -0.707085 -0.000222337 -2.08521 -0.00037434
-0.33975 -0.000170982 -0.690208 -0.00021703 -2.14726 -0.000385479
-0.287772 -0.000144824 -0.67398 -0.000211927 -2.18239 -0.000391786
-0.24473 -0.000123163 -0.658459 -0.000207046 -2.18968 -0.000393094
-0.210529 -0.000105951 -0.643601 -0.000202374 -2.16884 -0.000389353
-0.184824 -9.30143e-05 -0.629284 -0.000197873 -2.12019 -0.00038062
-0.16703 -8.40594e-05 -0.615306 -0.000193477 -2.04461 -0.000367052
-0.156335 -7.86768e-05 -0.601374 -0.000189097 -1.94356 -0.000348911
-0.151705 -7.63467e-05 -0.587107 -0.00018461 -1.81908 -0.000326563
-0.151892 -7.6441e-05 -0.57206 -0.000179879 -1.67372 -0.000300468
-0.155448 -7.82308e-05 -0.555746 -0.000174749 -1.51043 -0.000271155
-0.160748 -8.08977e-05 -0.537652 -0.00016906 -1.33248 -0.000239209
-0.166031 -8.35567e-05 -0.517247 -0.000162644 -1.14334 -0.000205254
-0.187964 -9.45946e-05 -0.489764 -0.000154002 -0.947824 -0.000170155
-0.204263 -0.000102797 -0.459476 -0.000144478 -0.750598 -0.000134748
-0.218952 -0.000110189 -0.429376 -0.000135014 -0.548733 -9.85092e-05
-0.227033 -0.000114256 -0.392454 -0.000123404 -0.352084 -6.32065e-05
-0.226764 -0.000114121 -0.351429 -0.000110504 -0.159676 -2.86652e-05
-0.218398 -0.000109911 -0.306464 -9.63648e-05 -0.00120334 -2.16025e-07
-0.201094 -0.000101203 -0.258622 -8.13212e-05 0.12237 2.1968e-05
-0.174238 -8.76867e-05 -0.206447 -6.49155e-05 0.236815 4.25134e-05
-0.138171 -6.95356e-05 -0.149352 -4.69623e-05 0.341291 6.12691e-05
-0.0939106 -4.72613e-05 -0.0878902 -2.76363e-05 0.435284 7.81427e-05
-0.040561 -2.04127e-05 -0.0229063 -7.20267e-06 0.517438 9.28911e-05
0.0216048 1.08728e-05 0.0453779 1.42687e-05 0.587519 0.000105472
0.0923468 4.64743e-05 0.115375 3.62786e-05 0.645069 0.000115804
0.170795 8.59542e-05 0.17918 5.63414e-05 0.691229 0.00012409
0.255529 0.000128597 0.23627 7.4293e-05 0.727155 0.00013054
0.345477 0.000173865 0.293416 9.2262e-05 0.753721 0.000135309
0.439194 0.000221028 0.350001 0.000110055 0.771812 0.000138557
0.534824 0.000269155 0.405907 0.000127634 0.783022 0.000140569
0.629874 0.00031699 0.461308 0.000145054 0.789062 0.000141653
0.723202 0.000363958 0.515424 0.00016207 0.791789 0.000142143
0.813464 0.000409383 0.567558 0.000178463 0.792885 0.00014234
0.899574 0.000452719 0.617199 0.000194073 0.793977 0.000142536
0.980612 0.000493502 0.664048 0.000208804 0.796766 0.000143036
1.05582 0.000531349 0.707785 0.000222557 0.802796 0.000144119
1.12456 0.000565946 0.74795 0.000235186 0.813389 0.000146021
1.18632 0.000597025 0.784128 0.000246562 0.829548 0.000148921
1.24109 0.000624589 0.815778 0.000256514 0.852054 0.000152962
1.27958 0.00064396 0.84413 0.000265429 0.880906 0.000158141
1.31011 0.000659322 0.86827 0.00027302 0.915453 0.000164343
1.3305 0.000669587 0.887346 0.000279018 0.957538 0.000171898
1.3409 0.000674821 0.902797 0.000283877 1.00499 0.000180417
1.34194 0.000675341 0.913974 0.000287391 1.0579 0.000189916
1.3345 0.0006716 0.921062 0.00028962 1.11444 0.000200066
1.31937 0.000663984 0.923946 0.000290527 1.17368 0.000210701
1.29743 0.00065294 0.923069 0.000290251 1.2342 0.000221566
1.27022 0.00063925 0.918919 0.000288946 1.29434 0.000232362
1.23925 0.000623663 0.911744 0.00028669 1.35219 0.000242747
1.20586 0.000606861 0.901672 0.000283523 1.40586 0.000252381
1.17158 0.000589608 0.889017 0.000279543 1.45359 0.00026095
1.138 0.000572707 0.87425 0.0002749 1.49371 0.000268152
1.10657 0.000556893 0.857783 0.000269722 1.52462 0.000273702
1.07862 0.000542824 0.839917 0.000264104 1.54481 0.000277326
1.05538 0.000531127 0.820944 0.000258139 1.55297 0.000278792
1.03794 0.000522354 0.801211 0.000251934 1.54813 0.000277923
1.02719 0.000516944 0.781075 0.000245602 1.52965 0.000274605
1.02375 0.00051521 0.760844 0.00023924 1.49717 0.000268774
1.02798 0.000517338 0.740765 0.000232927 1.45064 0.000260422
1.03999 0.000523383 0.721058 0.00022673 1.39035 0.000249598
1.05964 0.000533275 0.701931 0.000220716 1.31696 0.000236423
1.08661 0.000546847 0.683568 0.000214942 1.2315 0.00022108
1.11964 0.000563467 0.666237 0.000209492 1.13529 0.000203809
1.15792 0.000582732 0.650331 0.000204491 1.02985 0.000184881
1.19982 0.000603822 0.635581 0.000199853 0.917009 0.000164623
1.24424 0.000626174 0.621719 0.000195494 0.799157 0.000143466
1.29076 0.000649586 0.609113 0.00019153 0.678347 0.000121778
1.33837 0.000673546 0.597695 0.00018794 0.557088 0.000100009
1.38563 0.00069733 0.58723 0.000184649 0.437856 7.86045e-05
1.43147 0.000720398 0.577536 0.000181601 0.323113 5.80056e-05
1.47498 0.000742296 0.568574 0.000178783 0.215192 3.86316e-05
1.51504 0.000762457 0.560294 0.000176179 0.116297 2.08778e-05
1.55043 0.000780265 0.552603 0.000173761 0.0284102 5.10023e-06
1.58003 0.000795164 0.545412 0.0001715 -0.0756311 -1.35774e-05
1.60284 0.000806645 0.538632 0.000169368 -0.160987 -2.89006e-05
1.61795 0.000814246 0.532258 0.000167364 -0.224949 -4.03831e-05
1.62468 0.000817635 0.526362 0.00016551 -0.266644 -4.78683e-05
1.62256 0.00081657 0.521053 0.00016384 -0.285151 -5.11906e-05
1.61155 0.000811028 0.516361 0.000162365 -0.280366 -5.03317e-05
1.59175 0.000801063 0.512299 0.000161088 -0.252878 -4.5397e-05
1.56345 0.000786819 0.508881 0.000160013 -0.203764 -3.658e-05
1.52734 0.000768647 0.50621 0.000159173 -0.134416 -2.41305e-05
1.48449 0.000747081 0.504355 0.00015859 -0.0467841 -8.39873e-06
1.4361 0.00072273 0.503258 0.000158245 0.0407272 7.31141e-06
1.38344 0.000696227 0.503063 0.000158184 0.124799 2.24041e-05
1.32783 0.000668244 0.503889 0.000158443 0.217026 3.89608e-05
1.27057 0.000639427 0.505839 0.000159057 0.315306 5.66041e-05
1.2129 0.0006104 0.508958 0.000160037 0.417192 7.48948e-05
1.15604 0.000581786 0.513298 0.000161402 0.520361 9.34159e-05
1.10129 0.000554235 0.518928 0.000163172 0.622697 0.000111787
1.04994 0.00052839 0.525906 0.000165366 0.722203 0.000129651
1.00318 0.000504858 0.534243 0.000167988 0.816919 0.000146654
0.96213 0.0004842 0.543909 0.000171027 0.904958 0.000162459
0.927785 0.000466916 0.554853 0.000174468 0.984654 0.000176766
0.900954 0.000453413 0.567017 0.000178293 1.05466 0.000189335
0.882205 0.000443977 0.580322 0.000182477 1.11397 0.000199981
0.871802 0.000438742 0.594661 0.000186986 1.16181 0.00020857
0.869667 0.000437667 0.609901 0.000191778 1.19769 0.00021501
0.875376 0.00044054 0.625895 0.000196807 1.22136 0.000219261
0.888211 0.000447 0.642477 0.000202021 1.23296 0.000221343
0.907203 0.000456558 0.659454 0.000207359 1.23294 0.000221338
0.931134 0.000468601 0.676609 0.000212753 1.22203 0.000219381
0.958573 0.00048241 0.693693 0.000218125 1.20124 0.000215649
0.987963 0.000497201 0.71042 0.000223385 1.17179 0.000210362
1.01769 0.000512162 0.726471 0.000228432 1.13512 0.000203778
1.04614 0.000526476 0.7415 0.000233158 1.09284 0.000196188
1.0717 0.000539342 0.755137 0.000237446 1.04669 0.000187903
1.09289 0.000550006 0.766982 0.000241171 0.998476 0.000179248
1.10835 0.000557785 0.776617 0.0002442 0.949991 0.000170544
1.11687 0.000562075 0.783628 0.000246405 0.902969 0.000162102
1.11742 0.00056235 0.787613 0.000247658 0.859029 0.000154214
1.10909 0.000558161 0.788196 0.000247841 0.819615 0.000147138
1.09114 0.000549125 0.785032 0.000246846 0.78594 0.000141093
1.06295 0.000534937 0.777828 0.000244581 0.75893 0.000136244
1.02411 0.00051539 0.766342 0.000240969 0.739203 0.000132703
0.974435 0.000490393 0.750396 0.000235955 0.727041 0.000130519
0.914017 0.000459987 0.729881 0.000229504 0.722387 0.000129684
0.843199 0.000424347 0.704752 0.000221603 0.724836 0.000130124
0.762588 0.000383779 0.675035 0.000212259 0.733643 0.000131705
0.673021 0.000338704 0.640824 0.000201501 0.747739 0.000134235
0.580438 0.00029211 0.601107 0.000189013 0.766062 0.000137524
0.479929 0.000241528 0.556279 0.000174917 0.787852 0.000141436
0.373184 0.000187808 0.511431 0.000160815 0.807575 0.000144977
0.263831 0.000132775 0.461146 0.000145003 0.827168 0.000148494
0.150833 7.59078e-05 0.407989 0.000128288 0.842729 0.000151288
0.0359312 1.80827e-05 0.352083 0.000110709 0.852786 0.000153093
-0.0794027 -3.99601e-05 0.294344 9.25537e-05 0.854742 0.000153444
-0.193193 -9.72261e-05 0.234278 7.36666e-05 0.847125 0.000152077
-0.301268 -0.000151616 0.161702 5.08459e-05 0.828013 0.000148646
-0.400756 -0.000201684 0.077192 2.42723e-05 0.795079 0.000142734
-0.49147 -0.000247336 -0.00574739 -1.80721e-06 0.748619 0.000134393
-0.573301 -0.000288519 -0.0879541 -2.76564e-05 0.686622 0.000123263
-0.643713 -0.000323954 -0.168187 -5.2885e-05 0.608697 0.000109274
-0.701813 -0.000353193 -0.244996 -7.70366e-05 0.514572 9.23766e-05
-0.747986 -0.00037643 -0.318009 -9.9995e-05 0.404869 7.26826e-05
-0.782268 -0.000393683 -0.387195 -0.00012175 0.280124 5.02881e-05
-0.804483 -0.000404863 -0.452335 -0.000142233 0.141176 2.5344e-05
-0.81527 -0.000410292 -0.51304 -0.000161321 -0.0105603 -1.89581e-06
-0.815787 -0.000410552 -0.569204 -0.000178981 -0.221579 -3.97781e-05
-0.807259 -0.00040626 -0.620661 -0.000195161 -0.460794 -8.27223e-05
-0.791046 -0.000398101 -0.667557 -0.000209907 -0.70951 -0.000127372
-0.768933 -0.000386972 -0.709934 -0.000223232 -0.962738 -0.000172832
-0.742945 -0.000373894 -0.748047 -0.000235217 -1.21624 -0.000218342
-0.715118 -0.000359889 -0.782194 -0.000245954 -1.46635 -0.000263242
-0.687459 -0.00034597 -0.812752 -0.000255562 -1.70933 -0.000306861
-0.662025 -0.00033317 -0.840145 -0.000264176 -1.94087 -0.000348427
-0.64059 -0.000322382 -0.864853 -0.000271945 -2.15636 -0.000387113
-0.625177 -0.000314626 -0.88741 -0.000279038 -2.35153 -0.00042215
-0.617288 -0.000310656 -0.908384 -0.000285633 -2.51799 -0.000452034
-0.619157 -0.000311596 -0.922923 -0.000290205 -2.48479 -0.000446072
-0.632797 -0.00031846 -0.924662 -0.000290752 -2.4778 -0.000444818
-0.653954 -0.000329108 -0.936791 -0.000294566 -2.49665 -0.000448202
-0.687925 -0.000346204 -0.946832 -0.000297723 -2.5176 -0.000451962
-0.731711 -0.00036824 -0.966651 -0.000303955 -2.51409 -0.000451332
-0.786022 -0.000395572 -0.991938 -0.000311906 -2.4813 -0.000445446
-0.85189 -0.000428721 -1.01557 -0.000319336 -2.42482 -0.000435307
-0.928128 -0.000467089 -1.03814 -0.000326434 -2.36007 -0.000423682
-1.01404 -0.000510325 -1.06109 -0.000333649 -2.28277 -0.000409806
-1.10885 -0.00055804 -1.08616 -0.000341534 -2.17349 -0.000390189
-1.21128 -0.000609587 -1.11281 -0.000349914 -2.02662 -0.000363821
-1.3198 -0.000664199 -1.1391 -0.00035818 -1.85571 -0.000333139
-1.43266 -0.000721001 -1.16424 -0.000366085 -1.67849 -0.000301324
-1.54809 -0.000779092 -1.18845 -0.000373699 -1.50175 -0.000269597
-1.66408 -0.000837464 -1.212 -0.000381101 -1.32119 -0.000237182
-1.77853 -0.000895061 -1.23442 -0.000388152 -1.13303 -0.000203402
-1.88935 -0.000950833 -1.25498 -0.000394617 -0.942316 -0.000169166
-1.99452 -0.00100376 -1.2732 -0.000400345 -0.760007 -0.000136437
-2.09208 -0.00105286 -1.28889 -0.000405279 -0.594415 -0.00010671
-2.17829 -0.00109624 -1.30196 -0.00040939 -0.447232 -8.02876e-05
-2.17168 -0.00109292 -1.30371 -0.000409941 -0.322429 -5.78829e-05
-2.19937 -0.00110685 -1.28157 -0.000402978 -0.232938 -4.18173e-05
-2.21411 -0.00111427 -1.30058 -0.000408956 -0.137935 -2.47622e-05
-2.20983 -0.00111212 -1.29212 -0.000406296 -0.0747706 -1.34229e-05
-2.20666 -0.00111052 -1.27547 -0.000401061 -0.0547324 -9.82563e-06
-2.21278 -0.0011136 -1.27152 -0.000399818 -0.0436144 -7.82972e-06
-2.2005 -0.00110742 -1.27521 -0.000400979 -0.0439677 -7.89314e-06
-2.1815 -0.00109786 -1.26861 -0.000398903 -0.060997 -1.09503e-05
-2.15083 -0.00108242 -1.26068 -0.00039641 -0.107793 -1.93512e-05
-2.11199 -0.00106288 -1.25389 -0.000394275 -0.17618 -3.16281e-05
-2.06127 -0.00103735 -1.24577 -0.000391721 -0.266857 -4.79065e-05
-2.00094 -0.00100699 -1.2368 -0.0003889 -0.373146 -6.69876e-05
-1.93515 -0.00097388 -1.22643 -0.000385639 -0.493125 -8.85264e-05
-1.8645 -0.000938323 -1.21562 -0.000382241 -0.624422 -0.000112097
-1.78968 -0.000900671 -1.2051 -0.000378932 -0.765199 -0.000137369
-1.71327 -0.000862218 -1.19541 -0.000375885 -0.911775 -0.000163683
-1.63773 -0.000824204 -1.18646 -0.000373073 -1.05988 -0.00019027
-1.56451 -0.000787356 -1.17819 -0.00037047 -1.20593 -0.00021649
-1.49517 -0.000752458 -1.17117 -0.000368263 -1.34709 -0.000241831
-1.43168 -0.000720505 -1.16612 -0.000366675 -1.48067 -0.000265812
-1.37569 -0.000692328 -1.16323 -0.000365768 -1.60384 -0.000287923
-1.3284 -0.000668526 -1.16241 -0.00036551 -1.71374 -0.000307653
-1.2909 -0.000649659 -1.16377 -0.000365938 -1.80797 -0.00032457
-1.26422 -0.000636228 -1.16764 -0.000367154 -1.88481 -0.000338363
-1.24898 -0.000628559 -1.17419 -0.000369214 -1.9431 -0.000348828
-1.24524 -0.000626679 -1.18335 -0.000372093 -1.98207 -0.000355824
-1.24999 -0.000629067 -1.19556 -0.000375934 -2.00101 -0.000359224
-1.26343 -0.000635833 -1.21044 -0.000380613 -1.99976 -0.000359
-1.28513 -0.000646753 -1.22759 -0.000386006 -1.97933 -0.000355331
-1.3144 -0.000661485 -1.24701 -0.000392111 -1.94077 -0.00034841
-1.35037 -0.000679587 -1.26823 -0.000398784 -1.88594 -0.000338566
-1.39198 -0.000700526 -1.29065 -0.000405833 -1.81679 -0.000326152
-1.43798 -0.000723678 -1.31361 -0.000413051 -1.73571 -0.000311596
-1.48697 -0.000748333 -1.33656 -0.00042027 -1.64537 -0.000295379
-1.53742 -0.000773719 -1.35901 -0.000427327 -1.54865 -0.000278016
-1.58771 -0.00079903 -1.38034 -0.000434036 -1.44851 -0.000260038
-1.63623 -0.000823447 -1.39992 -0.000440191 -1.34787 -0.000241971
-1.68138 -0.000846171 -1.41714 -0.000445607 -1.2496 -0.00022433
-1.72167 -0.000866446 -1.43152 -0.000450129 -1.15645 -0.000207608
-1.75574 -0.000883592 -1.44263 -0.00045362 -1.07094 -0.000192257
-1.78242 -0.00089702 -1.45004 -0.000455952 -0.995289 -0.000178676
-1.80079 -0.000906262 -1.4534 -0.000457008 -0.931354 -0.000167198
-1.81016 -0.000910979 -1.45244 -0.000456706 -0.8806 -0.000158086
-1.81013 -0.000910962 -1.44701 -0.000455 -0.844056 -0.000151526
-1.8005 -0.000906118 -1.43706 -0.00045187 -0.822275 -0.000147616
-1.7813 -0.000896454 -1.42262 -0.00044733 -0.815318 -0.000146367
-1.7527 -0.000882063 -1.40383 -0.000441422 -0.822757 -0.000147702
-1.71503 -0.000863103 -1.38094 -0.000434225 -0.843698 -0.000151462
-1.66874 -0.000839807 -1.35431 -0.00042585 -0.876819 -0.000157408
-1.61448 -0.000812503 -1.32434 -0.000416428 -0.920415 -0.000165234
-1.55313 -0.000781625 -1.29152 -0.000406107 -0.972464 -0.000174578
-1.48571 -0.000747694 -1.25634 -0.000395045 -1.03069 -0.000185031
-1.41339 -0.0007113 -1.21935 -0.000383413 -1.09265 -0.000196154
-1.33743 -0.000673073 -1.18109 -0.000371382 -1.15578 -0.000207487
-1.25911 -0.000633658 -1.14209 -0.000359121 -1.21749 -0.000218565
-1.17967 -0.000593679 -1.10289 -0.000346794 -1.27523 -0.000228931
-1.10028 -0.000553726 -1.06396 -0.000334554 -1.32657 -0.000238148
-1.02203 -0.000514344 -1.02575 -0.000322539 -1.36927 -0.000245813
-0.945941 -0.000476053 -0.988624 -0.000310864 -1.40134 -0.00025157
-0.873048 -0.000439369 -0.952852 -0.000299616 -1.42111 -0.000255119
-0.804392 -0.000404817 -0.91862 -0.000288852 -1.42727 -0.000256225
-0.740991 -0.00037291 -0.886018 -0.0002786 -1.4189 -0.000254722
-0.683732 -0.000344094 -0.855066 -0.000268868 -1.39545 -0.000250513
-0.633285 -0.000318706 -0.825718 -0.00025964 -1.35677 -0.000243569
-0.590026 -0.000296936 -0.79788 -0.000250886 -1.30306 -0.000233927
-0.554014 -0.000278812 -0.771426 -0.000242568 -1.23488 -0.000221688
-0.525 -0.000264211 -0.746205 -0.000234637 -1.15312 -0.00020701
-0.502476 -0.000252875 -0.722047 -0.000227041 -1.05896 -0.000190106
-0.485722 -0.000244444 -0.698764 -0.00021972 -0.953855 -0.000171237
-0.473838 -0.000238463 -0.676151 -0.00021261 -0.8395 -0.000150708
-0.465776 -0.000234406 -0.653997 -0.000205643 -0.717782 -0.000128857
-0.460391 -0.000231696 -0.632079 -0.000198752 -0.590735 -0.00010605
-0.456503 -0.000229739 -0.610166 -0.000191861 -0.460502 -8.26698e-05
-0.452923 -0.000227937 -0.588024 -0.000184899 -0.329275 -5.91119e-05
-0.448442 -0.000225682 -0.565432 -0.000177795 -0.199248 -3.57693e-05
-0.441813 -0.000222346 -0.542189 -0.000170487 -0.0725545 -1.30251e-05
-0.431703 -0.000217258 -0.518416 -0.000163011 0.0153154 2.74945e-06
-0.416682 -0.000209699 -0.495506 -0.000155807 0.0848414 1.52308e-05
-0.396194 -0.000199388 -0.470636 -0.000147987 0.149956 2.69203e-05
-0.36896 -0.000185682 -0.444813 -0.000139867 0.210499 3.77891e-05
-0.340301 -0.00017126 -0.415493 -0.000130648 0.261319 4.69123e-05
-0.318311 -0.000160193 -0.376539 -0.000118399 0.299994 5.38554e-05
-0.280624 -0.000141226 -0.347308 -0.000109208 0.335606 6.02483e-05
-0.241988 -0.000121783 -0.312019 -9.81115e-05 0.364373 6.54128e-05
-0.193003 -9.71304e-05 -0.275108 -8.65053e-05 0.385913 6.92796e-05
-0.136625 -6.87577e-05 -0.236204 -7.42722e-05 0.399985 7.18057e-05
-0.0767233 -3.86116e-05 -0.197237 -6.20195e-05 0.406068 7.28978e-05
-0.023646 -1.19001e-05 -0.158445 -4.98215e-05 0.405855 7.28597e-05
0.0389725 1.96132e-05 -0.120788 -3.79806e-05 0.401432 7.20655e-05
0.102744 5.17066e-05 -0.0782573 -2.46073e-05 0.389417 6.99086e-05
0.166079 8.35807e-05 -0.0394115 -1.23926e-05 0.37513 6.73439e-05
0.230591 0.000116047 -0.00371737 -1.16889e-06 0.355647 6.38463e-05
0.29701 0.000149473 0.0221918 6.97801e-06 0.333284 5.98316e-05
0.362467 0.000182415 0.0485608 1.52695e-05 0.310238 5.56942e-05
0.425515 0.000214144 0.0741488 2.33154e-05 0.287603 5.16308e-05
0.486651 0.000244911 0.0984774 3.09653e-05 0.266161 4.77815e-05
0.54521 0.000274382 0.121648 3.8251e-05 0.246786 4.43033e-05
0.599731 0.00030182 0.143873 4.52396e-05 0.230832 4.14392e-05
0.649542 0.000326888 0.165298 5.19764e-05 0.219316 3.9372e-05
0.694547 0.000349537 0.185658 5.83784e-05 0.212947 3.82285e-05
0.734291 0.000369538 0.204604 6.4336e-05 0.212293 3.81111e-05
0.768249 0.000386628 0.222118 6.98429e-05 0.217842 3.91073e-05
0.796316 0.000400753 0.238436 7.49742e-05 0.229878 4.1268e-05
0.818609 0.000411972 0.253638 7.97541e-05 0.248455 4.4603e-05
0.835199 0.000420321 0.267566 8.41337e-05 0.273453 4.90905e-05
0.846261 0.000425888 0.280132 8.80849e-05 0.304591 5.46805e-05
0.852215 0.000428884 0.291456 9.16458e-05 0.34141 6.12903e-05
0.853617 0.00042959 0.301714 9.48714e-05 0.383258 6.8803e-05
0.851092 0.000428319 0.310988 9.77872e-05 0.427475 7.67408e-05
0.845432 0.000425471 0.318844 0.000100258 0.467884 8.39951e-05
0.837578 0.000421518 0.324866 0.000102151 0.512615 9.20252e-05
0.828052 0.000416724 0.330777 0.00010401 0.558167 0.000100203
0.818137 0.000411734 0.336013 0.000105656 0.602991 0.00010825
0.808516 0.000406893 0.341221 0.000107294 0.645371 0.000115858
0.800204 0.00040271 0.346107 0.00010883 0.685925 0.000123138
0.794088 0.000399631 0.350879 0.000110331 0.724785 0.000130114
0.791037 0.000398096 0.355851 0.000111894 0.760898 0.000136597
0.791843 0.000398502 0.361292 0.000113605 0.792522 0.000142275
0.797182 0.000401189 0.36737 0.000115516 0.818375 0.000146916
0.807607 0.000406435 0.374167 0.000117653 0.838249 0.000150484
0.823493 0.00041443 0.381822 0.00012006 0.852417 0.000153027
0.845043 0.000425275 0.390507 0.000122791 0.860869 0.000154544
0.872295 0.00043899 0.400365 0.000125891 0.862927 0.000154914
0.905149 0.000455524 0.411419 0.000129367 0.857121 0.000153871
0.943373 0.00047476 0.423588 0.000133193 0.843894 0.000151497
0.986554 0.000496492 0.436954 0.000137396 0.82421 0.000147963
1.0342 0.00052047 0.451515 0.000141975 0.799014 0.00014344
1.08568 0.000546378 0.4673 0.000146938 0.768934 0.00013804
1.14028 0.000573856 0.484246 0.000152267 0.734769 0.000131907
1.19722 0.000602512 0.502248 0.000157927 0.697768 0.000125264
1.25567 0.000631926 0.521195 0.000163885 0.659532 0.0001184
1.31461 0.000661591 0.541003 0.000170114 0.621663 0.000111602
1.37248 0.000690714 0.561793 0.000176651 0.58542 0.000105095
1.42891 0.000719111 0.582955 0.000183305 0.552228 9.91366e-05
1.48302 0.000746342 0.60443 0.000190058 0.523442 9.39689e-05
1.53422 0.00077211 0.626113 0.000196876 0.500373 8.98276e-05
1.58181 0.000796058 0.647808 0.000203697 0.484355 8.69521e-05
1.62507 0.00081783 0.669277 0.000210448 0.476389 8.55219e-05
1.66344 0.000837143 0.690328 0.000217068 0.477236 8.5674e-05
1.69744 0.000854249 0.710268 0.000223337 0.487594 8.75335e-05
1.72105 0.000866135 0.730341 0.000229649 0.507418 9.10924e-05
1.73899 0.000875164 0.750371 0.000235947 0.536031 9.6229e-05
1.7502 0.000880803 0.768694 0.000241709 0.57542 0.0001033
1.75394 0.000882686 0.786823 0.000247409 0.623572 0.000111944
1.75068 0.000881042 0.803887 0.000252775 0.680785 0.000122215
1.7408 0.000876075 0.820055 0.000257859 0.745563 0.000133844
1.7247 0.000867972 0.834994 0.000262556 0.817346 0.000146731
1.7028 0.000856949 0.8489 0.000266929 0.89181 0.000160099
1.67604 0.000843483 0.860737 0.000270651 0.957922 0.000171967
1.64547 0.000828097 0.870437 0.000273701 1.03077 0.000185046
1.61155 0.000811025 0.879719 0.00027662 1.10568 0.000198492
1.57569 0.000792979 0.887768 0.000279151 1.17852 0.00021157
1.53847 0.000774249 0.895359 0.000281537 1.24736 0.000223928
1.50114 0.000755459 0.901797 0.000283562 1.31354 0.000235809
1.46458 0.000737065 0.907224 0.000285268 1.37742 0.000247277
1.42975 0.000719535 0.911775 0.000286699 1.43741 0.000258046
1.39747 0.000703287 0.915651 0.000287918 1.49073 0.000267618
1.36833 0.000688625 0.918839 0.000288921 1.53551 0.000275657
1.34115 0.000674947 0.921483 0.000289752 1.57148 0.000282113
1.31628 0.00066243 0.923465 0.000290375 1.59898 0.000287052
1.29373 0.00065108 0.924651 0.000290748 1.61813 0.000290489
1.27333 0.000640813 0.925193 0.000290919 1.62797 0.000292255
1.2549 0.000631537 0.924975 0.00029085 1.62707 0.000292093
1.23831 0.00062319 0.923613 0.000290422 1.61429 0.000289799
1.22341 0.000615691 0.920745 0.00028952 1.59095 0.00028561
1.20989 0.000608886 0.916205 0.000288092 1.55842 0.00027977
1.19732 0.000602561 0.909833 0.000286089 1.51725 0.00027238
1.18511 0.000596419 0.901473 0.00028346 1.46774 0.000263491
1.17259 0.000590116 0.890843 0.000280118 1.41079 0.000253266
1.15901 0.000583284 0.877678 0.000275978 1.34798 0.000241992
1.14368 0.000575567 0.861779 0.000270979 1.28108 0.000229981
1.12588 0.000566607 0.843015 0.000265078 1.21138 0.000217469
1.10485 0.000556025 0.821267 0.00025824 1.1398 0.000204619
1.07985 0.000543444 0.796421 0.000250427 1.06719 0.000191583
1.05023 0.000528536 0.768393 0.000241614 0.994622 0.000178556
1.0155 0.000511058 0.73715 0.00023179 0.923242 0.000165742
0.975382 0.000490869 0.702716 0.000220963 0.853942 0.000153301
0.929784 0.000467922 0.665151 0.000209151 0.787228 0.000141324
0.87876 0.000442244 0.624553 0.000196385 0.723336 0.000129854
0.822472 0.000413916 0.581066 0.000182711 0.662422 0.000118919
0.761166 0.000383064 0.534883 0.000168189 0.604592 0.000108537
0.695144 0.000349837 0.486246 0.000152896 0.549785 9.86981e-05
0.624761 0.000314416 0.435436 0.000136919 0.49768 8.93442e-05
0.550454 0.000277021 0.382762 0.000120356 0.447732 8.03774e-05
0.47275 0.000237915 0.328561 0.000103313 0.39929 7.16811e-05
0.392278 0.000197417 0.273183 8.58999e-05 0.351694 6.31366e-05
0.309786 0.000155903 0.216982 6.8228e-05 0.304275 5.46238e-05
0.226119 0.000113796 0.160307 5.04072e-05 0.256324 4.60157e-05
0.142171 7.15489e-05 0.103503 3.25455e-05 0.207101 3.7179e-05
0.0588444 2.96139e-05 0.0469052 1.47489e-05 0.155885 2.79847e-05
-0.0207546 -1.0445e-05 -0.0220562 -6.93537e-06 0.10183 1.82807e-05
-0.0966347 -4.86322e-05 -0.0913283 -2.87173e-05 0.0436013 7.82736e-06
-0.172551 -8.68378e-05 -0.161115 -5.06612e-05 -0.0179234 -3.21763e-06
-0.244362 -0.000122977 -0.229473 -7.21556e-05 -0.0881558 -1.58258e-05
-0.299114 -0.000150532 -0.295176 -9.28156e-05 -0.169433 -3.04168e-05
-0.35166 -0.000176976 -0.356325 -0.000112043 -0.253204 -4.54556e-05
-0.397752 -0.000200172 -0.413461 -0.000130009 -0.345356 -6.19988e-05
-0.438324 -0.00022059 -0.46929 -0.000147564 -0.438039 -7.86373e-05
-0.471768 -0.000237421 -0.521095 -0.000163854 -0.534088 -9.58802e-05
-0.498936 -0.000251094 -0.568475 -0.000178752 -0.632673 -0.000113578
-0.520433 -0.000261912 -0.611029 -0.000192133 -0.735279 -0.000131998
-0.536122 -0.000269808 -0.649411 -0.000204201 -0.84056 -0.000150898
-0.546274 -0.000274917 -0.68392 -0.000215053 -0.946161 -0.000169856
-0.551817 -0.000277707 -0.714288 -0.000224602 -1.04994 -0.000188487
-0.553558 -0.000278583 -0.740195 -0.000232748 -1.15104 -0.000206636
-0.552147 -0.000277873 -0.761725 -0.000239517 -1.24915 -0.000224249
-0.548443 -0.000276009 -0.779351 -0.00024506 -1.3432 -0.000241133
-0.543487 -0.000273514 -0.793431 -0.000249487 -1.43115 -0.000256922
-0.538236 -0.000270872 -0.80407 -0.000252833 -1.51082 -0.000271224
-0.533584 -0.000268531 -0.811407 -0.00025514 -1.58073 -0.000283774
-0.530478 -0.000266968 -0.815815 -0.000256526 -1.64003 -0.00029442
-0.529855 -0.000266654 -0.817771 -0.000257141 -1.68788 -0.000303011
-0.532547 -0.000268009 -0.817655 -0.000257104 -1.72311 -0.000309335
-0.539268 -0.000271391 -0.815776 -0.000256513 -1.74443 -0.000313163
-0.550633 -0.000277111 -0.812485 -0.000255479 -1.75096 -0.000314335
-0.567123 -0.00028541 -0.80815 -0.000254115 -1.73994 -0.000312356
-0.589083 -0.000296461 -0.802912 -0.000252468 -1.71146 -0.000307243
-0.616641 -0.00031033 -0.797178 -0.000250665 -1.66568 -0.000299024
-0.649836 -0.000327036 -0.7912 -0.000248786 -1.60299 -0.00028777
-0.688558 -0.000346523 -0.78532 -0.000246937 -1.52366 -0.000273529
-0.732556 -0.000368665 -0.779805 -0.000245203 -1.42866 -0.000256475
-0.781474 -0.000393283 -0.774827 -0.000243637 -1.31971 -0.000236915
-0.834845 -0.000420143 -0.770506 -0.000242279 -1.19892 -0.000215231
-0.892107 -0.00044896 -0.766943 -0.000241158 -1.06844 -0.000191808
-0.952589 -0.000479398 -0.764229 -0.000240305 -0.930392 -0.000167025
-1.01553 -0.000511075 -0.762418 -0.000239736 -0.787074 -0.000141297
-1.08009 -0.000543567 -0.761521 -0.000239453 -0.641124 -0.000115095
-1.14537 -0.000576416 -0.761521 -0.000239453 -0.495396 -8.89341e-05
-1.21041 -0.000609147 -0.762396 -0.000239729 -0.352714 -6.33197e-05
-1.27425 -0.000641277 -0.764132 -0.000240274 -0.215722 -3.87266e-05
-1.33596 -0.000672334 -0.76671 -0.000241085 -0.086902 -1.56008e-05
-1.39459 -0.000701838 -0.770511 -0.00024228 -0.0059152 -1.0619e-06
-1.44915 -0.000729297 -0.776378 -0.000244125 0.0613518 1.1014e-05
-1.49945 -0.000754611 -0.782278 -0.00024598 0.119638 2.14776e-05
-1.54444 -0.000777255 -0.789138 -0.000248137 0.167739 3.01127e-05
-1.58396 -0.00079714 -0.795997 -0.000250294 0.202573 3.63662e-05
-1.61753 -0.000814037 -0.803498 -0.000252653 0.224801 4.03565e-05
-1.64501 -0.000827864 -0.811867 -0.000255284 0.235579 4.22914e-05
-1.66636 -0.00083861 -0.821103 -0.000258188 0.234478 4.20938e-05
-1.68168 -0.00084632 -0.831299 -0.000261394 0.21949 3.94032e-05
-1.69121 -0.000851118 -0.842567 -0.000264937 0.19004 3.41163e-05
-1.69536 -0.000853203 -0.855119 -0.000268885 0.146748 2.63444e-05
-1.69458 -0.000852811 -0.869192 -0.00027331 0.0908713 1.63133e-05
-1.68951 -0.00085026 -0.884856 -0.000278235 0.0236799 4.25104e-06
-1.68077 -0.000845864 -0.902233 -0.000283699 -0.0530529 -9.52413e-06
-1.66924 -0.000840058 -0.921114 -0.000289636 -0.165009 -2.96227e-05
-1.65578 -0.000833286 -0.941283 -0.000295978 -0.289611 -5.19913e-05
-1.64123 -0.000825963 -0.964044 -0.000303135 -0.422301 -7.58121e-05
-1.62683 -0.000818716 -0.988856 -0.000310937 -0.560091 -0.000100548
-1.61338 -0.000811948 -1.01623 -0.000319544 -0.700481 -0.000125751
-1.59562 -0.000803007 -1.04585 -0.00032886 -0.84315 -0.000151363
-1.57631 -0.000793294 -1.08033 -0.000339699 -0.984929 -0.000176816
-1.56374 -0.000786965 -1.11443 -0.000350423 -1.12706 -0.000202332
-1.55454 -0.000782337 -1.15216 -0.000362287 -1.26536 -0.000227159
-1.55001 -0.000780054 -1.19189 -0.000374778 -1.39815 -0.000250999
-1.55097 -0.00078054 -1.23341 -0.000387834 -1.52409 -0.000273607
-1.55765 -0.0007839 -1.2762 -0.00040129 -1.64244 -0.000294854
-1.56983 -0.000790029 -1.32009 -0.000415091 -1.75295 -0.000314691
-1.58749 -0.000798917 -1.36524 -0.000429289 -1.85441 -0.000332907
-1.60949 -0.000809988 -1.41152 -0.000443839 -1.94572 -0.000349298
-1.63593 -0.000823297 -1.45849 -0.000458608 -2.02627 -0.000363759
-1.6687 -0.000839787 -1.50402 -0.000472926 -2.09687 -0.000376433
-1.70238 -0.000856736 -1.54977 -0.00048731 -2.15758 -0.000387332
-1.74014 -0.000875739 -1.59497 -0.000501524 -2.20777 -0.000396342
-1.7798 -0.000895699 -1.6394 -0.000515495 -2.24839 -0.000403633
-1.82044 -0.000916151 -1.6823 -0.000528984 -2.27932 -0.000409187
-1.86112 -0.000936624 -1.72333 -0.000541885 -2.30193 -0.000413246
-1.90139 -0.000956893 -1.7625 -0.000554201 -2.31672 -0.0004159
-1.94028 -0.000976463 -1.79922 -0.000565749 -2.3248 -0.000417352
-1.97669 -0.000994785 -1.83289 -0.000576336 -2.32701 -0.000417748
-2.00998 -0.00101154 -1.86307 -0.000585824 -2.32414 -0.000417232
-2.03962 -0.00102646 -1.88946 -0.000594125 -2.3173 -0.000416005
-2.06498 -0.00103922 -1.91175 -0.000601134 -2.30766 -0.000414274
-2.08549 -0.00104954 -1.92952 -0.000606721 -2.2962 -0.000412216
-2.10077 -0.00105723 -1.94245 -0.000610786 -2.28372 -0.000409976
-2.11058 -0.00106217 -1.95031 -0.000613258 -2.27093 -0.00040768
-2.11466 -0.00106422 -1.95297 -0.000614092 -2.25843 -0.000405436
-2.11256 -0.00106317 -1.95028 -0.000613247 -2.24665 -0.000403322
-2.10463 -0.00105917 -1.94215 -0.000610691 -2.23582 -0.000401378
-2.09102 -0.00105232 -1.92873 -0.00060647 -2.22576 -0.000399571
-2.07195 -0.00104273 -1.91005 -0.000600599 -2.21622 -0.000397859
-2.04783 -0.00103059 -1.8864 -0.000593162 -2.20668 -0.000396146
-2.01906 -0.00101611 -1.85811 -0.000584267 -2.19645 -0.000394309
-1.9859 -0.000999423 -1.82558 -0.000574037 -2.18468 -0.000392196
-1.94868 -0.000980688 -1.78924 -0.000562611 -2.17038 -0.00038963
-1.90781 -0.000960123 -1.74959 -0.000550143 -2.15251 -0.000386422
-1.86384 -0.000937992 -1.70714 -0.000536795 -2.13001 -0.000382381
-1.81735 -0.000914598 -1.66239 -0.000522723 -2.10184 -0.000377325
-1.76905 -0.000890292 -1.61582 -0.000508081 -2.06708 -0.000371084
-1.71967 -0.00086544 -1.56791 -0.000493015 -2.02487 -0.000363508
-1.66988 -0.000840381 -1.51909 -0.000477663 -1.97452 -0.000354468
-1.62026 -0.000815411 -1.46976 -0.000462154 -1.91549 -0.000343871
-1.57133 -0.000790784 -1.4203 -0.000446601 -1.84744 -0.000331655
-1.52345 -0.00076669 -1.37103 -0.000431108 -1.77025 -0.000317798
-1.47688 -0.000743253 -1.32222 -0.00041576 -1.68404 -0.000302321
-1.43173 -0.00072053 -1.27409 -0.000400627 -1.58912 -0.000285282
-1.38799 -0.000698517 -1.22682 -0.000385763 -1.48608 -0.000266783
-1.34553 -0.000677148 -1.18051 -0.000371202 -1.3757 -0.000246967
-1.3041 -0.000656297 -1.13522 -0.000356961 -1.25899 -0.000226015
-1.26335 -0.00063579 -1.09095 -0.000343041 -1.13715 -0.000204143
-1.22285 -0.000615408 -1.04765 -0.000329424 -1.01154 -0.000181594
-1.1821 -0.000594903 -1.00521 -0.000316081 -0.883661 -0.000158636
-1.14059 -0.000574011 -0.963506 -0.000302966 -0.755094 -0.000135555
-1.09779 -0.00055247 -0.922348 -0.000290024 -0.627489 -0.000112648
-1.0532 -0.000530034 -0.881534 -0.000277191 -0.502503 -9.02101e-05
-0.99433 -0.000500405 -0.830663 -0.000261195 -0.352426 -6.32679e-05
-0.931319 -0.000468694 -0.779545 -0.000245121 -0.211956 -3.80506e-05
-0.863577 -0.000434603 -0.72778 -0.000228844 -0.0837315 -1.50316e-05
-0.790417 -0.000397784 -0.675586 -0.000212432 -0.00151566 -2.72092e-07
-0.711146 -0.00035789 -0.623261 -0.000195979 0.0593703 1.06582e-05
-0.625379 -0.000314727 -0.569468 -0.000179064 0.111545 2.00247e-05
-0.532618 -0.000268045 -0.51391 -0.000161594 0.15268 2.74094e-05
-0.432914 -0.000217868 -0.456676 -0.000143598 0.18123 3.25347e-05
-0.32663 -0.000164379 -0.39848 -0.000125298 0.201425 3.616e-05
-0.214439 -0.000107918 -0.339516 -0.000106758 0.214796 3.85604e-05
-0.116765 -5.87629e-05 -0.274255 -8.6237e-05 0.219412 3.93892e-05
-0.0193948 -9.76062e-06 -0.212445 -6.68015e-05 0.215477 3.86827e-05
0.0683182 3.43817e-05 -0.155689 -4.89551e-05 0.210502 3.77896e-05
0.15884 7.99378e-05 -0.0928156 -2.9185e-05 0.201031 3.60893e-05
0.244749 0.000123172 -0.043277 -1.36081e-05 0.193123 3.46697e-05
0.327066 0.000164599 -0.00612491 -1.92592e-06 0.185116 3.32323e-05
0.407784 0.000205221 0.0315594 9.92358e-06 0.180584 3.24187e-05
0.481874 0.000242507 0.0677085 2.12903e-05 0.180841 3.24647e-05
0.549207 0.000276393 0.100771 3.16867e-05 0.187236 3.36129e-05
0.610487 0.000307233 0.131971 4.14971e-05 0.200542 3.60015e-05
0.663815 0.000334071 0.161749 5.08605e-05 0.221643 3.97897e-05
0.709208 0.000356915 0.189721 5.96562e-05 0.248793 4.46637e-05
0.747403 0.000376137 0.214947 6.7588e-05 0.279099 5.01042e-05
0.778225 0.000391648 0.238341 7.49441e-05 0.316266 5.67764e-05
0.802454 0.000403842 0.260402 8.18811e-05 0.35858 6.43728e-05
0.821192 0.000413272 0.281173 8.84124e-05 0.404446 7.26066e-05
0.835371 0.000420408 0.300417 9.44635e-05 0.454084 8.15178e-05
0.846157 0.000425836 0.318642 0.000100194 0.506645 9.09535e-05
0.854886 0.000430229 0.336254 0.000105732 0.560116 0.000100553
0.862771 0.000434197 0.353344 0.000111106 0.612595 0.000109974
0.87108 0.000438379 0.370054 0.00011636 0.663168 0.000119053
0.881058 0.0004434 0.386723 0.000121601 0.710954 0.000127631
0.893822 0.000449823 0.403598 0.000126908 0.754601 0.000135467
0.910379 0.000458156 0.420812 0.00013232 0.792718 0.00014231
0.931589 0.00046883 0.438515 0.000137887 0.824557 0.000148025
0.958107 0.000482176 0.456875 0.00014366 0.849834 0.000152563
0.990381 0.000498418 0.475999 0.000149674 0.868267 0.000155872
1.02858 0.000517644 0.495941 0.000155944 0.87963 0.000157912
1.07257 0.000539779 0.516744 0.000162485 0.884094 0.000158714
1.1219 0.000564605 0.538392 0.000169292 0.881239 0.000158201
1.1759 0.00059178 0.560741 0.00017632 0.871961 0.000156536
1.23363 0.000620837 0.583763 0.000183559 0.85753 0.000153945
1.29404 0.000651239 0.607409 0.000190994 0.839073 0.000150631
1.35592 0.000682377 0.631604 0.000198602 0.818044 0.000146856
1.418 0.000713618 0.656187 0.000206332 0.796313 0.000142955
1.47905 0.000744343 0.680986 0.00021413 0.775867 0.000139285
1.53791 0.000773964 0.705842 0.000221946 0.758403 0.00013615
1.59352 0.000801952 0.73058 0.000229724 0.745489 0.000133831
1.64493 0.000827827 0.755007 0.000237405 0.738644 0.000132602
1.69132 0.00085117 0.778945 0.000244932 0.739247 0.000132711
1.73198 0.000871636 0.802242 0.000252258 0.748273 0.000134331
1.7664 0.000888955 0.824775 0.000259343 0.766275 0.000137563
1.7942 0.000902945 0.846445 0.000266157 0.793469 0.000142445
1.81523 0.000913528 0.867176 0.000272676 0.829766 0.000148961
1.82957 0.000920745 0.886929 0.000278887 0.874689 0.000157025
1.83752 0.000924747 0.905657 0.000284776 0.920354 0.000165223
1.83976 0.000925874 0.922062 0.000289934 0.972694 0.000174619
1.83657 0.00092427 0.937851 0.000294899 1.02794 0.000184537
1.82885 0.000920383 0.952578 0.00029953 1.0858 0.000194924
1.8171 0.000914471 0.966548 0.000303922 1.14358 0.000205297
1.80254 0.000907146 0.979547 0.00030801 1.20254 0.000215882
1.78538 0.00089851 0.990969 0.000311601 1.26176 0.000226512
1.76242 0.000886953 1.0033 0.000315478 1.31714 0.000236455
1.74326 0.000877313 1.0134 0.000318655 1.3684 0.000245656
1.72536 0.000868304 1.02337 0.000321789 1.41429 0.000253896
1.70717 0.00085915 1.03242 0.000324636 1.45479 0.000261166
1.68743 0.000849214 1.04062 0.000327213 1.48766 0.000267067
1.66627 0.000838564 1.0474 0.000329346 1.5126 0.000271544
1.64377 0.000827239 1.05327 0.00033119 1.52939 0.000274559
1.61997 0.000815263 1.05768 0.000332579 1.53826 0.000276151
1.59455 0.000802473 1.05984 0.000333258 1.53906 0.000276295
1.56738 0.000788798 1.05934 0.000333099 1.53117 0.000274877
1.53827 0.000774146 1.05589 0.000332017 1.51548 0.000272061
1.50694 0.000758378 1.04895 0.000329834 1.49307 0.000268038
1.47307 0.000741336 1.03804 0.000326402 1.46453 0.000262915
1.43623 0.000722796 1.02289 0.000321639 1.43072 0.000256845
1.39578 0.000702437 1.00332 0.000315486 1.39264 0.000250009
1.35092 0.000679864 0.979128 0.000307878 1.35111 0.000242553
1.30084 0.00065466 0.950222 0.000298789 1.30656 0.000234555
1.24486 0.000626487 0.916656 0.000288234 1.25928 0.000226068
1.18263 0.00059517 0.878533 0.000276247 1.20954 0.000217138
1.11417 0.000560716 0.835969 0.000262863 1.15746 0.000207789
1.03973 0.000523252 0.789155 0.000248143 1.10299 0.000198009
0.959659 0.000482956 0.738367 0.000232173 1.04583 0.000187749
0.8744 0.000440049 0.683904 0.000215048 0.985659 0.000176947
0.784476 0.000394794 0.626091 0.000196869 0.922094 0.000165535
0.690463 0.000347481 0.565297 0.000177752 0.854708 0.000153438
0.592905 0.000298385 0.501924 0.000157825 0.783035 0.000140571
0.492243 0.000247726 0.436369 0.000137212 0.706645 0.000126858
0.388842 0.000195688 0.369016 0.000116034 0.625229 0.000112242
0.283157 0.000142501 0.300213 9.43994e-05 0.538624 9.66944e-05
0.175859 8.85028e-05 0.230274 7.24075e-05 0.44683 8.02155e-05
0.0677649 3.41033e-05 0.159473 5.01447e-05 0.350023 6.28367e-05
-0.0214644 -1.08021e-05 0.0856328 2.69265e-05 0.249155 4.47286e-05
-0.100617 -5.06366e-05 0.00619428 1.94774e-06 0.144694 2.59757e-05
-0.177212 -8.91833e-05 -0.0851374 -2.67707e-05 0.0353557 6.34711e-06
-0.248666 -0.000125143 -0.174587 -5.48972e-05 -0.0860999 -1.54568e-05
-0.316967 -0.000159517 -0.26187 -8.23428e-05 -0.223631 -4.01465e-05
-0.380914 -0.000191698 -0.3453 -0.000108576 -0.366539 -6.58016e-05
-0.438649 -0.000220754 -0.424549 -0.000133496 -0.511931 -9.19026e-05
-0.491077 -0.000247139 -0.50213 -0.00015789 -0.65383 -0.000117376
-0.53804 -0.000270773 -0.575694 -0.000181022 -0.794217 -0.000142579
-0.579023 -0.000291398 -0.643999 -0.0002025 -0.935288 -0.000167904
-0.614713 -0.00030936 -0.707594 -0.000222497 -1.07404 -0.000192813
-0.64545 -0.000324828 -0.766751 -0.000241098 -1.20606 -0.000216514
-0.671488 -0.000337932 -0.820551 -0.000258015 -1.32985 -0.000238737
-0.69349 -0.000349005 -0.868497 -0.000273091 -1.44605 -0.000259596
-0.712025 -0.000358333 -0.910767 -0.000286383 -1.55338 -0.000278864
-0.727678 -0.00036621 -0.947375 -0.000297894 -1.64889 -0.000296012
-0.741217 -0.000373024 -0.978055 -0.000307541 -1.73042 -0.000310648
-0.753383 -0.000379146 -1.00271 -0.000315294 -1.79766 -0.000322718
-0.764827 -0.000384906 -1.02152 -0.000321207 -1.85013 -0.000332138
-0.77614 -0.000390599 -1.03464 -0.000325333 -1.88642 -0.000338652
-0.78777 -0.000396452 -1.04219 -0.000327709 -1.90514 -0.000342014
-0.800063 -0.000402638 -1.04441 -0.000328405 -1.90542 -0.000342064
-0.813385 -0.000409343 -1.0414 -0.000327459 -1.88542 -0.000338473
-0.828062 -0.000416729 -1.03339 -0.00032494 -1.84548 -0.000331303
-0.844359 -0.000424931 -1.0207 -0.000320951 -1.78589 -0.000320606
-0.86241 -0.000434015 -1.00381 -0.000315638 -1.70711 -0.000306463
-0.882149 -0.000443949 -0.983114 -0.000309131 -1.6106 -0.000289137
-0.903329 -0.000454608 -0.959017 -0.000301554 -1.49843 -0.000268999
-0.925572 -0.000465802 -0.931968 -0.000293049 -1.37261 -0.000246412
-0.948407 -0.000477294 -0.902466 -0.000283772 -1.23517 -0.000221739
-0.97127 -0.0004888 -0.870972 -0.000273869 -1.0886 -0.000195426
-0.993506 -0.00049999 -0.837915 -0.000263475 -0.935806 -0.000167997
-1.01438 -0.000510498 -0.803717 -0.000252722 -0.779778 -0.000139987
-1.03314 -0.000519936 -0.768791 -0.000241739 -0.62338 -0.00011191
-1.049 -0.000527917 -0.733507 -0.000230645 -0.469497 -8.42847e-05
-1.06113 -0.00053402 -0.698214 -0.000219547 -0.321091 -5.76426e-05
-1.0664 -0.000536674 -0.663826 -0.000208734 -0.180694 -3.24385e-05
-1.06415 -0.000535543 -0.629794 -0.000198033 -0.0564438 -1.01329e-05
-1.05429 -0.000530582 -0.597873 -0.000187996 0.0164241 2.94848e-06
-1.03731 -0.000522034 -0.566668 -0.000178183 0.08027 1.44102e-05
-1.01348 -0.000510042 -0.536131 -0.000168582 0.135215 2.4274e-05
-0.983752 -0.000495081 -0.505327 -0.000158896 0.175735 3.15482e-05
-0.948431 -0.000477306 -0.475205 -0.000149424 0.20455 3.67211e-05
-0.90808 -0.000456999 -0.445986 -0.000140236 0.223057 4.00435e-05
-0.863242 -0.000434434 -0.417631 -0.00013132 0.231419 4.15447e-05
-0.814387 -0.000409847 -0.390329 -0.000122736 0.226887 4.07311e-05
-0.762087 -0.000383527 -0.364846 -0.000114723 0.210617 3.78102e-05
-0.707194 -0.000355902 -0.341569 -0.000107403 0.185409 3.32848e-05
-0.650726 -0.000327484 -0.320683 -0.000100836 0.152911 2.74507e-05
-0.593902 -0.000298886 -0.302425 -9.50949e-05 0.113657 2.04038e-05
-0.537953 -0.000270729 -0.287167 -9.02971e-05 0.0692024 1.24233e-05
-0.48399 -0.000243572 -0.275151 -8.65188e-05 0.0221375 3.97415e-06
-0.432988 -0.000217905 -0.26648 -8.37924e-05 -0.0267373 -4.79992e-06
-0.385757 -0.000194135 -0.261179 -8.21253e-05 -0.0884738 -1.58829e-05
-0.342842 -0.000172538 -0.25904 -8.14529e-05 -0.148162 -2.65982e-05
-0.304305 -0.000153144 -0.260487 -8.19077e-05 -0.203668 -3.65627e-05
-0.269985 -0.000135872 -0.265224 -8.33973e-05 -0.251924 -4.52257e-05
-0.239291 -0.000120425 -0.273009 -8.58452e-05 -0.293107 -5.26189e-05
-0.211446 -0.000106412 -0.28338 -8.91062e-05 -0.327523 -5.87974e-05
-0.185475 -9.33418e-05 -0.29581 -9.30149e-05 -0.355099 -6.37479e-05
-0.160264 -8.06541e-05 -0.309661 -9.73701e-05 -0.3752 -6.73563e-05
-0.134594 -6.77357e-05 -0.324128 -0.000101919 -0.388484 -6.97411e-05
-0.107129 -5.39134e-05 -0.338277 -0.000106368 -0.39643 -7.11677e-05
-0.0808696 -4.06983e-05 -0.350427 -0.000110189 -0.400484 -7.18954e-05
-0.0699699 -3.5213e-05 -0.355293 -0.000111719 -0.404551 -7.26255e-05
-0.0517715 -2.60544e-05 -0.362646 -0.000114031 -0.402929 -7.23343e-05
-0.0318979 -1.60529e-05 -0.363208 -0.000114208 -0.401199 -7.20238e-05
-0.00695603 -3.50068e-06 -0.359866 -0.000113157 -0.397347 -7.13322e-05
0.0222355 1.11902e-05 -0.352384 -0.000110804 -0.393804 -7.06963e-05
0.0573921 2.88831e-05 -0.340375 -0.000107028 -0.389476 -6.99192e-05
0.0991714 4.99089e-05 -0.322053 -0.000101267 -0.384801 -6.908e-05
0.146599 7.37772e-05 -0.297858 -9.36588e-05 -0.379824 -6.81866e-05
0.20008 0.000100692 -0.268172 -8.43243e-05 -0.374035 -6.71472e-05
0.25953 0.00013061 -0.232666 -7.31599e-05 -0.366245 -6.57488e-05
0.324128 0.00016312 -0.191195 -6.01196e-05 -0.355129 -6.37532e-05
0.393323 0.000197943 -0.143966 -4.52689e-05 -0.339686 -6.09809e-05
0.466204 0.000234621 -0.0945654 -2.97352e-05 -0.3186 -5.71955e-05
0.541589 0.000272559 -0.0525776 -1.65326e-05 -0.290618 -5.21721e-05
0.618734 0.000311383 -0.0064397 -2.02491e-06 -0.25309 -4.5435e-05
0.696406 0.000350472 0.0431316 1.35623e-05 -0.205211 -3.68397e-05
0.773571 0.000389306 0.0951691 2.99251e-05 -0.145563 -2.61316e-05
0.849266 0.0004274 0.149659 4.70591e-05 -0.0728653 -1.30809e-05
0.922519 0.000464266 0.206476 6.49246e-05 0.00456946 8.20315e-07
0.992578 0.000499523 0.263811 8.29531e-05 0.0705106 1.26581e-05
1.05834 0.000532617 0.322581 0.000101433 0.145874 2.61874e-05
1.11941 0.000563354 0.382198 0.000120179 0.229881 4.12686e-05
1.17512 0.000591388 0.442522 0.000139147 0.321147 5.76527e-05
1.22515 0.000616567 0.502709 0.000158072 0.421154 7.56062e-05
1.26928 0.000638775 0.562463 0.000176862 0.529213 9.50049e-05
1.30748 0.000658002 0.621618 0.000195462 0.643313 0.000115488
1.33998 0.000674356 0.679785 0.000213752 0.761248 0.00013666
1.3672 0.000688053 0.736481 0.00023158 0.88214 0.000158363
1.38971 0.000699383 0.791378 0.000248842 1.00488 0.000180397
1.4082 0.00070869 0.84421 0.000265454 1.12742 0.000202396
1.42341 0.000716344 0.894646 0.000281314 1.24735 0.000223926
1.43606 0.000722712 0.942346 0.000296312 1.36287 0.000244665
1.44685 0.000728139 0.987031 0.000310363 1.47253 0.00026435
1.45641 0.000732953 1.02844 0.000323385 1.57461 0.000282676
1.46538 0.000737464 1.06632 0.000335296 1.66722 0.000299301
1.47432 0.000741965 1.10042 0.000346018 1.74882 0.000313951
1.48415 0.00074691 1.12832 0.000354791 1.75847 0.000315683
1.49612 0.000752934 1.14172 0.000359003 1.78073 0.000319678
1.50753 0.000758678 1.1581 0.000364155 1.79724 0.000322643
1.52121 0.000765563 1.173 0.000368838 1.78908 0.000321178
1.53543 0.000772717 1.18611 0.000372961 1.77205 0.00031812
1.55095 0.000780528 1.19343 0.000375263 1.77343 0.000318369
1.56735 0.000788785 1.19764 0.000376586 1.77367 0.000318412
1.58443 0.000797377 1.19796 0.000376687 1.75127 0.00031439
1.60137 0.000805904 1.19363 0.000375325 1.70862 0.000306733
1.61767 0.000814105 1.18414 0.000372341 1.65845 0.000297728
1.63233 0.000821483 1.17055 0.000368068 1.60388 0.000287931
1.64362 0.000827164 1.1533 0.000362645 1.53723 0.000275966
1.65086 0.000830809 1.13191 0.000355918 1.45752 0.000261656
1.65318 0.000831978 1.1066 0.00034796 1.37141 0.000246197
1.65028 0.000830518 1.07771 0.000338876 1.28425 0.00023055
1.64181 0.000826256 1.04539 0.000328715 1.19455 0.000214448
1.62757 0.000819087 1.00967 0.000317482 1.10115 0.000197679
1.60753 0.000809002 0.970882 0.000305285 1.00682 0.000180746
1.5816 0.000795955 0.929321 0.000292217 0.91548 0.000164348
1.54974 0.000779918 0.885218 0.000278349 0.827785 0.000148605
1.51192 0.000760886 0.83895 0.0002638 0.742858 0.000133359
1.4681 0.000738836 0.791012 0.000248727 0.661158 0.000118692
1.41826 0.000713753 0.741839 0.000233265 0.584349 0.000104903
1.36239 0.000685632 0.691832 0.00021754 0.512981 9.20909e-05
1.30048 0.000654477 0.641461 0.000201702 0.446297 8.01198e-05
1.23275 0.00062039 0.591203 0.000185899 0.383678 6.88784e-05
1.15973 0.000583643 0.541423 0.000170246 0.325333 5.84041e-05
1.08225 0.000544652 0.492399 0.00015483 0.271399 4.87219e-05
1.0013 0.000503913 0.444394 0.000139736 0.221366 3.97399e-05
0.917909 0.000461946 0.397638 0.000125034 0.174527 3.13312e-05
0.833089 0.000419259 0.352277 0.00011077 0.130568 2.34398e-05
0.747799 0.000376336 0.308406 9.69754e-05 0.0893805 1.60457e-05
0.662919 0.00033362 0.2661 8.36727e-05 0.0506325 9.0896e-06
0.579218 0.000291496 0.225423 7.08822e-05 0.0137979 2.47702e-06
0.497316 0.000250279 0.186406 5.86137e-05 -0.0215128 -3.862e-06
0.417633 0.000210177 0.149059 4.68704e-05 -0.0575528 -1.03319e-05
0.340319 0.000171269 0.113434 3.56684e-05 -0.0938053 -1.68401e-05
0.265226 0.000133477 0.0806751 2.53675e-05 -0.129437 -2.32367e-05
0.192649 9.69524e-05 0.0490873 1.5435e-05 -0.164122 -2.94633e-05
0.122499 6.16485e-05 0.0189383 5.95497e-06 -0.19682 -3.53334e-05
0.0552891 2.78247e-05 -0.00998593 -3.13998e-06 -0.227691 -4.08754e-05
-0.0067506 -3.3973e-06 -0.0447594 -1.40742e-05 -0.259527 -4.65906e-05
-0.0594602 -2.99239e-05 -0.0768874 -2.41765e-05 -0.293255 -5.26455e-05
-0.0984018 -4.95215e-05 -0.114198 -3.59085e-05 -0.321479 -5.77123e-05
-0.133353 -6.71108e-05 -0.143364 -4.50797e-05 -0.353433 -6.34487e-05
-0.16556 -8.33193e-05 -0.174226 -5.47839e-05 -0.382789 -6.87188e-05
-0.194664 -9.79663e-05 -0.202743 -6.37507e-05 -0.413903 -7.43044e-05
-0.218371 -0.000109897 -0.227723 -7.16053e-05 -0.44478 -7.98476e-05
-0.237852 -0.000119701 -0.250245 -7.86874e-05 -0.475824 -8.54205e-05
-0.253286 -0.000127469 -0.270903 -8.51829e-05 -0.506798 -9.0981e-05
-0.263969 -0.000132845 -0.288511 -9.07196e-05 -0.53775 -9.65375e-05
-0.270534 -0.000136148 -0.302786 -9.52083e-05 -0.568389 -0.000102038
-0.273338 -0.00013756 -0.314173 -9.87889e-05 -0.598355 -0.000107417
-0.272379 -0.000137077 -0.322676 -0.000101463 -0.627168 -0.00011259
-0.267961 -0.000134854 -0.327952 -0.000103122 -0.654243 -0.000117451
-0.260545 -0.000131122 -0.330065 -0.000103786 -0.679113 -0.000121915
-0.250358 -0.000125995 -0.329272 -0.000103537 -0.701174 -0.000125876
-0.237851 -0.0001197 -0.32574 -0.000102426 -0.719641 -0.000129191
-0.223555 -0.000112506 -0.319541 -0.000100477 -0.733739 -0.000131722
-0.207889 -0.000104622 -0.310859 -9.77467e-05 -0.742894 -0.000133365
-0.191342 -9.62946e-05 -0.299982 -9.43267e-05 -0.746559 -0.000134023
-0.173997 -8.75652e-05 -0.287132 -9.02862e-05 -0.74298 -0.000133381
-0.155835 -7.84251e-05 -0.27238 -8.56475e-05 -0.730787 -0.000131192
-0.137853 -6.93755e-05 -0.255725 -8.04104e-05 -0.710043 -0.000127468
-0.120976 -6.0882e-05 -0.237413 -7.46522e-05 -0.680538 -0.000122171
-0.105924 -5.33074e-05 -0.2176 -6.84225e-05 -0.642082 -0.000115267
-0.0931292 -4.68681e-05 -0.196352 -6.17411e-05 -0.594978 -0.000106811
-0.0827062 -4.16226e-05 -0.173842 -5.4663e-05 -0.539961 -9.69344e-05
-0.0744716 -3.74785e-05 -0.15037 -4.72826e-05 -0.477673 -8.57525e-05
-0.0680208 -3.42321e-05 -0.126177 -3.96752e-05 -0.4087 -7.33703e-05
-0.0628948 -3.16523e-05 -0.101647 -3.19619e-05 -0.333956 -5.99523e-05
-0.0585969 -2.94894e-05 -0.0769624 -2.42001e-05 -0.254647 -4.57146e-05
-0.0548352 -2.75963e-05 -0.0521482 -1.63975e-05 -0.172096 -3.08949e-05
-0.0513908 -2.58629e-05 -0.0275477 -8.66212e-06 -0.087645 -1.57341e-05
-0.0479425 -2.41275e-05 -0.00442125 -1.39022e-06 -0.0239082 -4.29202e-06
-0.0443248 -2.23068e-05 0.0162415 5.10701e-06 0.0320624 5.75589e-06
-0.0404994 -2.03817e-05 0.0364089 1.14485e-05 0.0871014 1.56366e-05
-0.0365263 -1.83822e-05 0.0562589 1.76901e-05 0.138268 2.48221e-05
-0.0325034 -1.63576e-05 0.075377 2.37016e-05 0.185703 3.33376e-05
-0.0287045 -1.44458e-05 0.0935143 2.94047e-05 0.22965 4.12271e-05
-0.0253841 -1.27748e-05 0.110644 3.47909e-05 0.269396 4.83624e-05
-0.0229387 -1.15441e-05 0.126702 3.98403e-05 0.303549 5.44935e-05
-0.0218076 -1.09748e-05 0.141406 4.44638e-05 0.331673 5.95424e-05
-0.0225601 -1.13535e-05 0.154466 4.85705e-05 0.354235 6.35927e-05
-0.025709 -1.29383e-05 0.165704 5.21041e-05 0.37144 6.66814e-05
-0.0319129 -1.60605e-05 0.174866 5.49849e-05 0.383046 6.8765e-05
-0.0378884 -1.90677e-05 0.18137 5.70303e-05 0.389018 6.9837e-05
-0.0385958 -1.94237e-05 0.183567 5.7721e-05 0.391314 7.02493e-05
-0.0436443 -2.19644e-05 0.184986 5.81671e-05 0.387417 6.95496e-05
-0.0516346 -2.59856e-05 0.181826 5.71735e-05 0.379478 6.81243e-05
-0.0627674 -3.15882e-05 0.175388 5.51492e-05 0.366808 6.58499e-05
-0.0768912 -3.86962e-05 0.166167 5.22498e-05 0.350041 6.28398e-05
-0.094156 -4.73848e-05 0.153765 4.83501e-05 0.329226 5.91031e-05
-0.114327 -5.75361e-05 0.137725 4.33063e-05 0.304616 5.4685e-05
-0.137089 -6.89913e-05 0.118421 3.72364e-05 0.27656 4.96485e-05
-0.162097 -8.15769e-05 0.0962431 3.02628e-05 0.245093 4.39995e-05
-0.188793 -9.50117e-05 0.0711857 2.23837e-05 0.210044 3.77075e-05
-0.215733 -0.000108569 0.0431914 1.35811e-05 0.171403 3.07704e-05
-0.241385 -0.000121479 0.00672586 2.11489e-06 0.129259 2.32047e-05
-0.263896 -0.000132808 -0.0346636 -1.08997e-05 0.0830516 1.49095e-05
-0.283304 -0.000142575 -0.077766 -2.44528e-05 0.0333612 5.98905e-06
-0.3005 -0.000151229 -0.122284 -3.84512e-05 -0.0203558 -3.6543e-06
-0.314178 -0.000158113 -0.16781 -5.27664e-05 -0.0819748 -1.47162e-05
-0.32403 -0.000163071 -0.21125 -6.64257e-05 -0.151458 -2.71899e-05
-0.329921 -0.000166036 -0.252512 -7.94001e-05 -0.226375 -4.06391e-05
-0.331521 -0.000166841 -0.291593 -9.16888e-05 -0.306715 -5.50619e-05
-0.328517 -0.000165329 -0.328316 -0.000103236 -0.387161 -6.95037e-05
-0.321187 -0.00016164 -0.360978 -0.000113506 -0.471556 -8.46543e-05
-0.309513 -0.000155765 -0.389152 -0.000122365 -0.560474 -0.000100617
-0.293685 -0.000147799 -0.412926 -0.000129841 -0.651319 -0.000116926
-0.27427 -0.000138029 -0.432187 -0.000135897 -0.740212 -0.000132884
-0.252033 -0.000126838 -0.446541 -0.000140411 -0.826198 -0.00014832
-0.227846 -0.000114666 -0.456009 -0.000143388 -0.909019 -0.000163188
-0.202604 -0.000101962 -0.460954 -0.000144943 -0.986573 -0.000177111
-0.177126 -8.91403e-05 -0.461684 -0.000145173 -1.05551 -0.000189486
-0.152233 -7.66128e-05 -0.458487 -0.000144167 -1.11354 -0.000199904
-0.128784 -6.48118e-05 -0.451793 -0.000142062 -1.1596 -0.000208172
-0.107627 -5.41641e-05 -0.442088 -0.000139011 -1.19237 -0.000214056
-0.0895596 -4.50716e-05 -0.4298 -0.000135147 -1.20995 -0.000217212
-0.0752536 -3.7872e-05 -0.415328 -0.000130596 -1.20996 -0.000217214
-0.0652055 -3.28152e-05 -0.398763 -0.000125387 -1.18881 -0.000213416
-0.0596036 -2.9996e-05 -0.38027 -0.000119572 -1.14694 -0.0002059
-0.0583625 -2.93714e-05 -0.360145 -0.000113244 -1.08475 -0.000194736
-0.0611742 -3.07865e-05 -0.338727 -0.00010651 -1.00219 -0.000179914
-0.0675949 -3.40177e-05 -0.316138 -9.94068e-05 -0.900672 -0.00016169
-0.0770898 -3.87961e-05 -0.292384 -9.19375e-05 -0.783084 -0.00014058
-0.0890203 -4.48002e-05 -0.267468 -8.41028e-05 -0.652378 -0.000117116
-0.102587 -5.16278e-05 -0.241401 -7.59065e-05 -0.511177 -9.17672e-05
-0.116795 -5.87779e-05 -0.214148 -6.73369e-05 -0.362452 -6.50679e-05
-0.130544 -6.56974e-05 -0.185638 -5.83723e-05 -0.209881 -3.76781e-05
-0.14277 -7.18502e-05 -0.155822 -4.89968e-05 -0.0626444 -1.1246e-05
-0.152224 -7.66082e-05 -0.126727 -3.98481e-05 0.0256439 4.60363e-06
-0.158508 -7.97707e-05 -0.0965594 -3.03622e-05 0.115308 2.07002e-05
-0.160589 -8.08177e-05 -0.0652761 -2.05255e-05 0.200636 3.60183e-05
-0.157868 -7.94483e-05 -0.0316694 -9.95816e-06 0.274648 4.93052e-05
-0.14947 -7.52221e-05 0.00249512 7.84568e-07 0.339644 6.09732e-05
-0.135842 -6.83634e-05 0.0373616 1.1748e-05 0.398878 7.16071e-05
-0.115907 -5.83314e-05 0.072537 2.28086e-05 0.450113 8.08049e-05
-0.0904724 -4.5531e-05 0.107664 3.3854e-05 0.490382 8.8034e-05
-0.059829 -3.01095e-05 0.136592 4.29501e-05 0.519082 9.31862e-05
-0.0252097 -1.2687e-05 0.162525 5.11046e-05 0.539258 9.68084e-05
0.0108948 5.4829e-06 0.187084 5.88269e-05 0.551939 9.90847e-05
0.0489413 2.46301e-05 0.209639 6.59192e-05 0.556165 9.98435e-05
0.0873644 4.39669e-05 0.229923 7.22971e-05 0.550695 9.88615e-05
0.125217 6.30164e-05 0.247188 7.77261e-05 0.538469 9.66666e-05
0.161766 8.14104e-05 0.261647 8.22727e-05 0.521054 9.35403e-05
0.195506 9.83899e-05 0.272943 8.58244e-05 0.499419 8.96563e-05
0.225269 0.000113369 0.280932 8.83366e-05 0.473995 8.50922e-05
0.250135 0.000125882 0.285584 8.97994e-05 0.446469 8.01507e-05
0.269238 0.000135496 0.286691 9.01474e-05 0.418712 7.51676e-05
0.281792 0.000141814 0.284171 8.93552e-05 0.391682 7.03153e-05
0.287337 0.000144605 0.278098 8.74455e-05 0.365665 6.56446e-05
0.285496 0.000143679 0.26854 8.444e-05 0.341162 6.12459e-05
0.276506 0.000139154 0.255494 8.03377e-05 0.318857 5.72416e-05
0.261226 0.000131464 0.239053 7.51682e-05 0.298992 5.36755e-05
0.240329 0.000120947 0.219525 6.90276e-05 0.281116 5.04663e-05
0.214789 0.000108094 0.197128 6.19852e-05 0.264624 4.75056e-05
0.185586 9.3398e-05 0.172183 5.41414e-05 0.248909 4.46845e-05
0.151175 7.60801e-05 0.145618 4.57884e-05 0.233011 4.18304e-05
0.115125 5.79375e-05 0.116837 3.67382e-05 0.216179 3.88087e-05
0.0781745 3.9342e-05 0.0870403 2.7369e-05 0.197174 3.53969e-05
0.04163 2.09507e-05 0.0565198 1.77722e-05 0.175129 3.14393e-05
0.00558391 2.81015e-06 0.0217504 6.83922e-06 0.149026 2.67533e-05
-0.0270895 -1.3633e-05 -0.0187966 -5.91041e-06 0.117962 2.11767e-05
-0.055295 -2.78277e-05 -0.0573843 -1.8044e-05 0.0811937 1.4576e-05
-0.0808957 -4.07115e-05 -0.0949109 -2.98439e-05 0.039477 7.08696e-06
-0.101494 -5.10777e-05 -0.129918 -4.08516e-05 -0.00853372 -1.53198e-06
-0.118502 -5.9637e-05 -0.161931 -5.09176e-05 -0.0658413 -1.18199e-05
-0.132767 -6.68163e-05 -0.190306 -5.98399e-05 -0.13266 -2.38154e-05
-0.143966 -7.24523e-05 -0.213861 -6.72468e-05 -0.207255 -3.72067e-05
-0.153285 -7.71422e-05 -0.234425 -7.37129e-05 -0.284935 -5.11518e-05
-0.151184 -7.60848e-05 -0.254168 -7.99208e-05 -0.36129 -6.48593e-05
-0.148071 -7.45178e-05 -0.269577 -8.4766e-05 -0.436302 -7.83254e-05
-0.143427 -7.21811e-05 -0.283046 -8.90011e-05 -0.512046 -9.19232e-05
-0.138616 -6.97597e-05 -0.294202 -9.25091e-05 -0.585578 -0.000105124
-0.135039 -6.79597e-05 -0.303421 -9.5408e-05 -0.652239 -0.000117091
-0.133796 -6.73337e-05 -0.310532 -9.76441e-05 -0.710898 -0.000127621
-0.135506 -6.81946e-05 -0.316618 -9.95577e-05 -0.76116 -0.000136644
-0.140983 -7.09509e-05 -0.32227 -0.000101335 -0.801859 -0.000143951
-0.150872 -7.59275e-05 -0.32766 -0.00010303 -0.830392 -0.000149073
-0.165406 -8.32422e-05 -0.333142 -0.000104753 -0.84561 -0.000151805
-0.184746 -9.29752e-05 -0.339316 -0.000106695 -0.847207 -0.000152092
-0.208913 -0.000105137 -0.346251 -0.000108875 -0.833615 -0.000149652
-0.237721 -0.000119635 -0.353778 -0.000111242 -0.804952 -0.000144506
-0.270812 -0.000136288 -0.361985 -0.000113823 -0.762266 -0.000136843
-0.307596 -0.000154801 -0.370961 -0.000116645 -0.706848 -0.000126894
-0.347232 -0.000174748 -0.38049 -0.000119642 -0.641002 -0.000115074
-0.38808 -0.000195304 -0.390398 -0.000122757 -0.567397 -0.00010186
-0.428198 -0.000215494 -0.400574 -0.000125957 -0.488651 -8.77232e-05
-0.467022 -0.000235033 -0.410254 -0.000129001 -0.40795 -7.32357e-05
-0.503908 -0.000253596 -0.419205 -0.000131815 -0.328277 -5.89327e-05
-0.538116 -0.000270811 -0.426859 -0.000134222 -0.25286 -4.53937e-05
-0.569029 -0.000286369 -0.43268 -0.000136052 -0.184581 -3.31362e-05
-0.596213 -0.000300049 -0.436346 -0.000137205 -0.125859 -2.25943e-05
-0.619277 -0.000311656 -0.437702 -0.000137631 -0.0816664 -1.46609e-05
-0.637894 -0.000321026 -0.437085 -0.000137438 -0.0553461 -9.93579e-06
-0.652083 -0.000328166 -0.433924 -0.000136444 -0.0420068 -7.54112e-06
-0.66048 -0.000332392 -0.428364 -0.000134695 -0.0366288 -6.57564e-06
-0.655324 -0.000329797 -0.423714 -0.000133233 -0.0401446 -7.20681e-06
-0.64772 -0.000325971 -0.415323 -0.000130595 -0.0541902 -9.72829e-06
-0.634791 -0.000319464 -0.407649 -0.000128182 -0.0803067 -1.44168e-05
-0.618151 -0.00031109 -0.399144 -0.000125507 -0.114927 -2.06318e-05
-0.59935 -0.000301628 -0.390005 -0.000122634 -0.156326 -2.80638e-05
-0.579271 -0.000291523 -0.381403 -0.000119929 -0.202802 -3.64072e-05
-0.559347 -0.000281496 -0.374215 -0.000117668 -0.251503 -4.51502e-05
-0.541016 -0.000272271 -0.368727 -0.000115943 -0.300738 -5.39889e-05
-0.525501 -0.000264463 -0.365158 -0.000114821 -0.349204 -6.26895e-05
-0.514011 -0.000258681 -0.364193 -0.000114517 -0.395156 -7.0939e-05
-0.507656 -0.000255482 -0.366364 -0.0001152 -0.436438 -7.83499e-05
-0.507256 -0.000255281 -0.371787 -0.000116905 -0.471647 -8.46706e-05
-0.513429 -0.000258387 -0.380569 -0.000119666 -0.50022 -8.98001e-05
-0.526521 -0.000264976 -0.392885 -0.000123539 -0.521836 -9.36807e-05
-0.545805 -0.000274681 -0.408823 -0.000128551 -0.536125 -9.62458e-05
-0.571999 -0.000287863 -0.428406 -0.000134708 -0.543088 -9.74959e-05
-0.60314 -0.000303536 -0.450066 -0.000141519 -0.543799 -9.76236e-05
-0.638006 -0.000321082 -0.475022 -0.000149366 -0.538275 -9.66319e-05
-0.678057 -0.000341238 -0.501962 -0.000157838 -0.528051 -9.47963e-05
-0.720287 -0.00036249 -0.53109 -0.000166997 -0.514463 -9.23571e-05
-0.762835 -0.000383903 -0.561731 -0.000176631 -0.499582 -8.96856e-05
-0.804552 -0.000404898 -0.593578 -0.000186645 -0.485186 -8.71012e-05
-0.843833 -0.000424666 -0.62586 -0.000196796 -0.473542 -8.50109e-05
-0.879268 -0.000442499 -0.657845 -0.000206854 -0.46685 -8.38095e-05
-0.909967 -0.000457949 -0.688892 -0.000216616 -0.467048 -8.38451e-05
-0.934944 -0.000470519 -0.718299 -0.000225863 -0.4758 -8.54162e-05
-0.953176 -0.000479694 -0.745381 -0.000234378 -0.494457 -8.87655e-05
-0.963719 -0.000485 -0.76959 -0.000241991 -0.523948 -9.40599e-05
-0.965159 -0.000485725 -0.790434 -0.000248545 -0.563498 -0.00010116
-0.957067 -0.000481652 -0.806765 -0.00025368 -0.6082 -0.000109185
-0.938858 -0.000472488 -0.818963 -0.000257516 -0.663676 -0.000119144
-0.910287 -0.00045811 -0.826689 -0.000259945 -0.727031 -0.000130518
-0.871505 -0.000438592 -0.83006 -0.000261005 -0.796299 -0.000142953
-0.822908 -0.000414135 -0.828786 -0.000260604 -0.870576 -0.000156287
-0.765233 -0.00038511 -0.822941 -0.000258766 -0.948371 -0.000170253
-0.699679 -0.000352119 -0.812653 -0.000255531 -1.02661 -0.000184299
-0.627665 -0.000315878 -0.797997 -0.000250923 -1.10229 -0.000197884
-0.550719 -0.000277154 -0.779055 -0.000244967 -1.17298 -0.000210574
-0.470436 -0.000236751 -0.755995 -0.000237716 -1.23649 -0.000221976
-0.388459 -0.000195496 -0.729016 -0.000229232 -1.2901 -0.0002316
-0.306496 -0.000154247 -0.698312 -0.000219578 -1.33102 -0.000238946
-0.226233 -0.000113854 -0.664094 -0.000208818 -1.35702 -0.000243613
-0.149146 -7.50591e-05 -0.626612 -0.000197033 -1.3664 -0.000245297
-0.0763904 -3.84441e-05 -0.586101 -0.000184294 -1.35587 -0.000243408
-0.00878345 -4.42035e-06 -0.542592 -0.000170613 -1.32325 -0.000237552
0.0490091 2.46643e-05 -0.496712 -0.000156187 -1.26772 -0.000227583
0.097678 4.91573e-05 -0.448824 -0.000141129 -1.1883 -0.000213326
0.132017 6.64388e-05 -0.394916 -0.000124178 -1.08869 -0.000195444
0.160868 8.09583e-05 -0.343657 -0.00010806 -0.965184 -0.000173271
0.184558 9.28806e-05 -0.288596 -9.07463e-05 -0.822886 -0.000147726
0.2029 0.000102111 -0.232364 -7.30649e-05 -0.661824 -0.000118811
0.215375 0.000108389 -0.175822 -5.52858e-05 -0.485242 -8.71112e-05
0.223712 0.000112585 -0.119694 -3.76367e-05 -0.295735 -5.30907e-05
0.228692 0.000115091 -0.0676453 -2.12705e-05 -0.0967859 -1.73751e-05
0.231219 0.000116363 -0.0180481 -5.67507e-06 0.0339329 6.09168e-06
0.233013 0.000117266 0.0281243 8.84342e-06 0.155446 2.79059e-05
0.234696 0.000118113 0.0737515 2.31905e-05 0.281499 5.05351e-05
0.237727 0.000119638 0.120085 3.77597e-05 0.396735 7.12224e-05
0.243379 0.000122482 0.165623 5.20786e-05 0.503546 9.03973e-05
0.252655 0.000127151 0.209168 6.57711e-05 0.607792 0.000109112
0.266389 0.000134063 0.251074 7.89481e-05 0.708562 0.000127202
0.285189 0.000143524 0.292043 9.18302e-05 0.797897 0.000143239
0.309515 0.000155766 0.331514 0.000104242 0.872693 0.000156667
0.339589 0.000170901 0.368902 0.000115998 0.935964 0.000168025
0.375456 0.000188952 0.404307 0.000127131 0.989297 0.0001776
0.416923 0.00020982 0.437832 0.000137672 1.03003 0.000184912
0.463573 0.000233297 0.469206 0.000147538 1.05587 0.000189551
0.514862 0.000259109 0.498151 0.000156639 1.06821 0.000191766
0.570158 0.000286937 0.524546 0.000164939 1.06854 0.000191826
0.628773 0.000316435 0.547977 0.000172306 1.05555 0.000189493
0.689837 0.000347166 0.56821 0.000178669 1.03015 0.000184933
0.752368 0.000378636 0.585154 0.000183996 0.993791 0.000178407
0.81526 0.000410287 0.598895 0.000188317 0.948664 0.000170305
0.877419 0.000441568 0.60936 0.000191608 0.896959 0.000161023
0.937802 0.000471957 0.616524 0.00019386 0.840772 0.000150936
0.995414 0.000500951 0.620521 0.000195117 0.781948 0.000140376
1.04926 0.000528051 0.621562 0.000195445 0.722436 0.000129693
1.09841 0.000552785 0.619831 0.0001949 0.664047 0.000119211
1.14205 0.000574747 0.615565 0.000193559 0.608374 0.000109216
1.17957 0.00059363 0.609101 0.000191526 0.556636 9.9928e-05
1.21064 0.000609264 0.600801 0.000188916 0.509852 9.15292e-05
1.23525 0.000621649 0.591013 0.000185839 0.468826 8.41642e-05
1.25377 0.000630972 0.580109 0.00018241 0.434133 7.79361e-05
1.26688 0.000637567 0.568497 0.000178759 0.406022 7.28896e-05
1.27542 0.000641865 0.556596 0.000175016 0.384467 6.902e-05
1.28037 0.000644357 0.544811 0.000171311 0.36922 6.62829e-05
1.28275 0.000645555 0.533568 0.000167776 0.359845 6.45998e-05
1.28355 0.00064596 0.523303 0.000164548 0.355703 6.38563e-05
1.28374 0.000646054 0.514438 0.00016176 0.356007 6.39107e-05
1.28424 0.000646304 0.507371 0.000159538 0.359904 6.46104e-05
1.28593 0.000647156 0.502474 0.000157998 0.366555 6.58044e-05
1.28961 0.000649006 0.500082 0.000157246 0.375161 6.73494e-05
1.29591 0.000652178 0.500474 0.00015737 0.385007 6.91169e-05
1.3053 0.000656901 0.503862 0.000158435 0.395514 7.10032e-05
1.31801 0.000663301 0.510394 0.000160489 0.406293 7.29383e-05
1.3341 0.000671396 0.520138 0.000163553 0.41716 7.48891e-05
1.35338 0.0006811 0.533083 0.000167623 0.428141 7.68605e-05
1.37537 0.000692165 0.549139 0.000172672 0.439476 7.88952e-05
1.39705 0.000703078 0.568594 0.000178789 0.451359 8.10286e-05
1.41771 0.000713476 0.590645 0.000185723 0.464523 8.33918e-05
1.43665 0.000723007 0.615082 0.000193407 0.479893 8.6151e-05
1.45326 0.000731365 0.641508 0.000201716 0.49852 8.94949e-05
1.46654 0.00073805 0.669244 0.000210438 0.521393 9.36011e-05
1.47563 0.000742622 0.697473 0.000219314 0.549562 9.8658e-05
1.47943 0.000744537 0.725625 0.000228166 0.583903 0.000104823
1.47683 0.000743228 0.753047 0.000236789 0.625046 0.000112209
1.46684 0.000738198 0.779063 0.000244969 0.673245 0.000120862
1.44834 0.000728892 0.80302 0.000252502 0.728491 0.00013078
1.42029 0.000714771 0.824384 0.00025922 0.790428 0.000141899
1.38182 0.000695411 0.842645 0.000264962 0.858292 0.000154082
1.3323 0.000670492 0.857287 0.000269566 0.930935 0.000167123
1.27135 0.000639816 0.867852 0.000272888 1.00691 0.000180761
1.19893 0.00060337 0.873935 0.000274801 1.08277 0.00019438
1.11563 0.00056145 0.873804 0.00027476 1.14255 0.000205112
1.02209 0.000514377 0.867432 0.000272756 1.20544 0.000216402
0.919444 0.000462718 0.855872 0.000269121 1.26399 0.000226913
0.809138 0.000407206 0.839287 0.000263906 1.31244 0.000235611
0.692718 0.000348617 0.81645 0.000256725 1.35303 0.000242898
0.571651 0.000287688 0.787256 0.000247545 1.38773 0.000249127
0.447297 0.000225106 0.751982 0.000236454 1.41267 0.000253605
0.320829 0.00016146 0.710775 0.000223497 1.42293 0.000255446
0.193563 9.74123e-05 0.663376 0.000208593 1.41629 0.000254254
0.0924335 4.65179e-05 0.603856 0.000189877 1.39368 0.000250196
-0.00889782 -4.47791e-06 0.545454 0.000171513 1.35001 0.000242356
-0.102404 -5.15357e-05 0.480057 0.00015095 1.28335 0.000230389
-0.194502 -9.78847e-05 0.403802 0.000126972 1.19395 0.00021434
-0.27497 -0.000138381 0.327447 0.000102963 1.07948 0.000193789
-0.350085 -0.000176183 0.246925 7.76433e-05 0.943958 0.000169461
-0.419763 -0.000211249 0.144789 4.55275e-05 0.78711 0.000141303
-0.480455 -0.000241793 0.0388414 1.22133e-05 0.609373 0.000109395
-0.534261 -0.000268871 -0.0676794 -2.12812e-05 0.414237 7.43644e-05
-0.582239 -0.000293017 -0.176132 -5.53831e-05 0.203756 3.65786e-05
-0.623529 -0.000313796 -0.285703 -8.98367e-05 -0.0186725 -3.35211e-06
-0.660127 -0.000332215 -0.393477 -0.000123725 -0.256282 -4.60082e-05
-0.694552 -0.000349539 -0.493059 -0.000155038 -0.524842 -9.42203e-05
-0.725301 -0.000365014 -0.594467 -0.000186925 -0.797857 -0.000143232
-0.75594 -0.000380433 -0.695471 -0.000218685 -1.05623 -0.000189615
-0.78709 -0.00039611 -0.795326 -0.000250083 -1.30131 -0.000233613
-0.820365 -0.000412856 -0.891984 -0.000280476 -1.54498 -0.000277357
-0.857194 -0.00043139 -0.986213 -0.000310106 -1.78415 -0.000320293
-0.898705 -0.000452281 -1.07875 -0.000339203 -2.00385 -0.000359734
-0.945867 -0.000476016 -1.16871 -0.000367491 -2.19859 -0.000394693
-0.999461 -0.000502988 -1.25546 -0.000394767 -2.37285 -0.000425978
-1.0601 -0.000533505 -1.33898 -0.00042103 -2.52879 -0.000453972
-1.12863 -0.000567992 -1.41602 -0.000445255 -2.54095 -0.000456154
-1.20659 -0.000607226 -1.47577 -0.000464042 -2.55347 -0.000458403
-1.28868 -0.00064854 -1.54227 -0.000484954 -2.57141 -0.000461623
-1.37873 -0.000693859 -1.60692 -0.000505283 -2.56691 -0.000460814
-1.47274 -0.000741168 -1.67279 -0.000525995 -2.55058 -0.000457883
-1.57151 -0.000790878 -1.73298 -0.000544921 -2.55042 -0.000457854
-1.67335 -0.00084213 -1.79014 -0.000562893 -2.54524 -0.000456924
-1.77751 -0.000894547 -1.84296 -0.000579501 -2.51182 -0.000450926
-1.8824 -0.000947332 -1.89084 -0.000594557 -2.45066 -0.000439945
-1.98717 -0.00100006 -1.93254 -0.000607671 -2.37613 -0.000426566
-2.0688 -0.00104114 -1.9739 -0.000620676 -2.29334 -0.000411703
-2.12169 -0.00106776 -2.00963 -0.00063191 -2.20085 -0.000395099
-2.17682 -0.00109551 -2.0519 -0.000645203 -2.09824 -0.000376679
-2.19826 -0.00110629 -2.05125 -0.000644996 -2.01407 -0.000361568
-2.18998 -0.00110212 -2.05564 -0.000646378 -1.92912 -0.000346319
-2.1967 -0.00110551 -2.06792 -0.00065024 -1.82931 -0.000328399
-2.21338 -0.0011139 -2.05822 -0.000647188 -1.74654 -0.000313541
-2.21091 -0.00111266 -2.05732 -0.000646906 -1.66664 -0.000299197
-2.20994 -0.00111217 -2.05363 -0.000645747 -1.59137 -0.000285685
-2.21579 -0.00111512 -2.04613 -0.000643386 -1.52054 -0.000272968
-2.21476 -0.0011146 -2.0371 -0.000640548 -1.45991 -0.000262085
-2.21028 -0.00111234 -2.02581 -0.000636997 -1.4135 -0.000253754
-2.2045 -0.00110943 -2.0169 -0.000634196 -1.37403 -0.000246667
-2.1937 -0.001104 -2.00181 -0.000629451 -1.34526 -0.000241503
-2.17357 -0.00109387 -1.98564 -0.000624366 -1.32851 -0.000238495
-2.15152 -0.00108277 -1.9705 -0.000619606 -1.32386 -0.00023766
-2.12444 -0.00106914 -1.95483 -0.00061468 -1.32843 -0.000238481
-2.09394 -0.00105379 -1.93854 -0.000609555 -1.34042 -0.000240634
-2.06308 -0.00103826 -1.92379 -0.000604919 -1.35901 -0.000243972
-2.03222 -0.00102273 -1.91088 -0.000600858 -1.38352 -0.000248371
-2.00262 -0.00100784 -1.89968 -0.000597337 -1.41158 -0.000253409
-1.9763 -0.00099459 -1.89085 -0.00059456 -1.44079 -0.000258653
-1.95407 -0.000983405 -1.88505 -0.000592738 -1.46995 -0.000263888
-1.93697 -0.000974798 -1.88261 -0.00059197 -1.4981 -0.000268941
-1.92605 -0.000969299 -1.88361 -0.000592284 -1.52392 -0.000273576
-1.9218 -0.000967165 -1.88823 -0.000593738 -1.54626 -0.000277586
-1.92457 -0.000968558 -1.89673 -0.000596409 -1.56456 -0.000280873
-1.93452 -0.000973563 -1.90909 -0.000600297 -1.57881 -0.000283429
-1.95141 -0.000982066 -1.92514 -0.000605342 -1.5892 -0.000285295
-1.97479 -0.000993832 -1.94472 -0.000611501 -1.59611 -0.000286536
-2.00399 -0.00100852 -1.96768 -0.000618719 -1.60026 -0.000287281
-2.03808 -0.00102568 -1.99366 -0.000626887 -1.60277 -0.000287732
-2.07486 -0.00104419 -2.02242 -0.000635932 -1.60493 -0.000288119
-2.10274 -0.00105822 -2.0549 -0.000646144 -1.60791 -0.000288654
-2.1395 -0.00107672 -2.09154 -0.000657665 -1.61309 -0.000289584
-2.16982 -0.00109198 -2.12877 -0.000669373 -1.62226 -0.00029123
-2.19006 -0.00110216 -2.13424 -0.000671091 -1.63608 -0.000293712
-2.199 -0.00110667 -2.12377 -0.000667801 -1.61914 -0.000290671
-2.20711 -0.00111075 -2.11135 -0.000663896 -1.63687 -0.000293853
-2.20276 -0.00110856 -2.09905 -0.000660027 -1.66033 -0.000298064
-2.19118 -0.00110273 -2.09095 -0.000657479 -1.68648 -0.000302758
-2.17124 -0.0010927 -2.08652 -0.000656087 -1.73547 -0.000311553
-2.13815 -0.00107604 -2.08727 -0.000656324 -1.7956 -0.000322348
-2.09707 -0.00105537 -2.09013 -0.000657224 -1.87178 -0.000336025
-2.04425 -0.00102878 -2.09911 -0.000660045 -1.96058 -0.000351966
-1.9809 -0.000996903 -2.11417 -0.000664782 -2.06057 -0.000369917
-1.90768 -0.000960058 -2.11764 -0.000665874 -2.16612 -0.000388864
-1.8233 -0.000917592 -2.11194 -0.000664081 -2.27805 -0.000408959
-1.72871 -0.00086999 -2.1053 -0.000661993 -2.3911 -0.000429254
-1.62614 -0.00081837 -2.09157 -0.000657675 -2.47359 -0.000444062
-1.51693 -0.000763408 -2.05974 -0.000647665 -2.54157 -0.000456266
-1.40155 -0.000705343 -2.01512 -0.000633637 -2.56256 -0.000460034
-1.281 -0.000644675 -1.96912 -0.000619171 -2.56393 -0.000460279
-1.15608 -0.00058181 -1.92187 -0.000604314 -2.53867 -0.000455745
-1.02862 -0.000517659 -1.86508 -0.000586456 -2.51931 -0.000452269
-0.899556 -0.000452709 -1.80274 -0.000566855 -2.52362 -0.000453044
-0.770856 -0.00038794 -1.73856 -0.000546675 -2.5322 -0.000454583
-0.643895 -0.000324046 -1.67128 -0.000525518 -2.49887 -0.0004486
-0.520328 -0.000261859 -1.59681 -0.000502101 -2.43429 -0.000437007
-0.400966 -0.00020179 -1.51667 -0.000476903 -2.35363 -0.000422527
-0.286481 -0.000144174 -1.43258 -0.000450461 -2.2492 -0.000403779
-0.177144 -8.91494e-05 -1.34465 -0.000422813 -2.10561 -0.000378002
-0.083255 -4.18988e-05 -1.25291 -0.000393967 -1.92512 -0.0003456
-0.0415748 -2.09229e-05 -1.15246 -0.00036238 -1.72546 -0.000309757
-4.40178e-05 -2.21523e-08 -1.05689 -0.000332329 -1.49861 -0.000269032
0.036059 1.8147e-05 -0.950728 -0.000298948 -1.25144 -0.00022466
0.0675166 3.39783e-05 -0.843641 -0.000265275 -0.975619 -0.000175144
0.0890769 4.48287e-05 -0.739859 -0.000232642 -0.683369 -0.000122679
0.108584 5.4646e-05 -0.63463 -0.000199554 -0.382376 -6.86446e-05
0.126291 6.35569e-05 -0.529387 -0.000166461 -0.0736872 -1.32284e-05
0.139437 7.01727e-05 -0.431187 -0.000135583 0.0681721 1.22383e-05
0.153733 7.73676e-05 -0.347432 -0.000109247 0.215083 3.86119e-05
0.16615 8.36163e-05 -0.262364 -8.24979e-05 0.369518 6.63363e-05
0.179236 9.02019e-05 -0.177508 -5.58159e-05 0.496808 8.91876e-05
0.192796 9.70262e-05 -0.0933688 -2.9359e-05 0.598999 0.000107533
0.209293 0.000105329 -0.0145573 -4.57742e-06 0.707653 0.000127039
0.228372 0.00011493 0.0606744 1.90785e-05 0.825452 0.000148186
0.250989 0.000126313 0.127977 4.02411e-05 0.929156 0.000166803
0.276318 0.00013906 0.193046 6.07015e-05 1.00501 0.000180421
0.307972 0.00015499 0.243609 7.66005e-05 1.07206 0.000192457
0.343719 0.000172979 0.291823 9.17613e-05 1.13495 0.000203747
0.385615 0.000194064 0.336112 0.000105688 1.18886 0.000213425
0.432516 0.000217667 0.377497 0.0001187 1.22309 0.00021957
0.48465 0.000243904 0.414622 0.000130374 1.24106 0.000222796
0.541546 0.000272538 0.448081 0.000140895 1.24998 0.000224399
0.602662 0.000303295 0.477612 0.000150181 1.24507 0.000223516
0.667379 0.000335864 0.502358 0.000157962 1.21939 0.000218906
0.734811 0.0003698 0.522418 0.00016427 1.17511 0.000210957
0.804025 0.000404633 0.538066 0.00016919 1.11736 0.00020059
0.873892 0.000439794 0.549788 0.000172876 1.04746 0.000188041
0.943364 0.000474756 0.557646 0.000175347 0.966583 0.000173522
1.01128 0.000508937 0.561889 0.000176681 0.877226 0.000157481
1.07653 0.000541773 0.562959 0.000177017 0.783629 0.000140678
1.13804 0.000572729 0.561252 0.000176481 0.688621 0.000123622
1.19484 0.000601315 0.55708 0.000175169 0.59415 0.000106663
1.23631 0.000622185 0.552241 0.000173647 0.520296 9.34042e-05
1.27386 0.000641079 0.54633 0.000171789 0.449517 8.06979e-05
1.30719 0.000657854 0.539568 0.000169662 0.383162 6.87857e-05
1.33611 0.000672406 0.532149 0.000167329 0.322183 5.78388e-05
1.36049 0.00068468 0.524277 0.000164854 0.267183 4.79651e-05
1.38033 0.000694661 0.515912 0.000162224 0.218653 3.92528e-05
1.39557 0.000702335 0.507369 0.000159538 0.176923 3.17614e-05
1.40646 0.000707811 0.49871 0.000156815 0.142642 2.56073e-05
1.41321 0.000711211 0.490182 0.000154133 0.116082 2.08392e-05
1.41616 0.000712693 0.482016 0.000151566 0.0971895 1.74476e-05
1.41573 0.000712477 0.474424 0.000149178 0.0857907 1.54013e-05
1.4124 0.000710803 0.467669 0.000147054 0.0816128 1.46512e-05
1.40662 0.000707895 0.46196 0.000145259 0.084373 1.51468e-05
1.39897 0.000704043 0.457392 0.000143823 0.0937056 1.68222e-05
1.39004 0.00069955 0.454172 0.00014281 0.10908 1.95822e-05
1.38063 0.000694812 0.452653 0.000142333 0.129655 2.32758e-05
1.37155 0.000690246 0.45297 0.000142432 0.154744 2.77799e-05
1.36361 0.00068625 0.455347 0.00014318 0.183569 3.29546e-05
1.35759 0.000683218 0.45998 0.000144637 0.215408 3.86703e-05
1.35424 0.000681535 0.467073 0.000146867 0.249486 4.4788e-05
1.3543 0.000681564 0.476789 0.000149922 0.285026 5.11682e-05
1.35656 0.000682699 0.48908 0.000153787 0.321381 5.76947e-05
1.36376 0.000686324 0.502832 0.000158111 0.358627 6.43813e-05
1.37415 0.000691555 0.520567 0.000163688 0.394968 7.09051e-05
1.38995 0.000699506 0.540376 0.000169916 0.430716 7.73226e-05
1.41234 0.000710773 0.562394 0.00017684 0.465608 8.35866e-05
1.42867 0.000718991 0.589842 0.000185471 0.497594 8.93287e-05
1.45543 0.000732457 0.616597 0.000193883 0.52906 9.49775e-05
1.48673 0.000748211 0.647533 0.000203611 0.559718 0.000100481
1.52183 0.000765875 0.676154 0.000212611 0.586559 0.0001053
1.55962 0.000784895 0.707137 0.000222353 0.612359 0.000109931
1.6025 0.000806472 0.739061 0.000232391 0.639376 0.000114782
1.64794 0.000829342 0.773355 0.000243175 0.664679 0.000119324
1.69644 0.000853749 0.808574 0.000254249 0.691039 0.000124056
1.74656 0.000878969 0.845531 0.00026587 0.718306 0.000128951
1.79809 0.000904903 0.883898 0.000277934 0.747202 0.000134139
1.85043 0.000931247 0.923113 0.000290265 0.778522 0.000139761
1.90258 0.000957491 0.96318 0.000302863 0.812561 0.000145872
1.95389 0.000983313 1.00393 0.000315676 0.850056 0.000152603
2.00365 0.00100835 1.04534 0.000328697 0.891465 0.000160037
2.03285 0.00102305 1.09284 0.000343634 0.936416 0.000168107
2.0862 0.0010499 1.14213 0.000359132 0.98642 0.000177083
2.10964 0.0010617 1.19008 0.00037421 1.04161 0.000186992
2.1176 0.0010657 1.22225 0.000384325 1.11032 0.000199325
2.12398 0.00106891 1.26716 0.000398448 1.17407 0.000210771
2.14064 0.0010773 1.30935 0.000411713 1.22973 0.000220762
2.15492 0.00108448 1.34493 0.000422901 1.2898 0.000231546
2.15995 0.00108701 1.37795 0.000433284 1.34383 0.000241247
2.16353 0.00108882 1.40835 0.000442843 1.40085 0.000251483
2.16904 0.00109159 1.44179 0.000453359 1.44908 0.00026014
2.17291 0.00109354 1.47228 0.000462945 1.49247 0.000267929
2.17221 0.00109318 1.49834 0.000471139 1.53982 0.00027643
2.16911 0.00109162 1.52219 0.000478639 1.59437 0.000286223
2.16373 0.00108891 1.54485 0.000485764 1.65203 0.000296575
2.1545 0.00108427 1.56511 0.000492134 1.70678 0.000306402
2.14046 0.0010772 1.583 0.00049776 1.75159 0.000314447
2.12257 0.0010682 1.59581 0.000501788 1.7395 0.000312277
2.10192 0.00105781 1.59752 0.000502326 1.74668 0.000313567
2.07649 0.00104501 1.60116 0.000503469 1.75953 0.000315873
2.04843 0.00103089 1.60234 0.000503842 1.76479 0.000316817
2.01762 0.00101539 1.60324 0.000504126 1.7542 0.000314917
1.98425 0.00099859 1.60238 0.000503854 1.73857 0.00031211
1.94909 0.000980895 1.59816 0.000502528 1.73176 0.000310887
1.9122 0.000962329 1.59216 0.00050064 1.73558 0.000311573
1.87387 0.000943041 1.58488 0.000498351 1.74171 0.000312675
1.83423 0.000923094 1.57667 0.000495769 1.7415 0.000312636
1.79343 0.00090256 1.56724 0.000492805 1.73485 0.000311443
1.75157 0.000881494 1.55622 0.000489341 1.72849 0.000310302
1.70871 0.000859921 1.54344 0.000485321 1.71833 0.000308477
1.66504 0.000837943 1.52744 0.00048029 1.70272 0.000305675
1.62041 0.000815487 1.5084 0.000474304 1.67744 0.000301137
1.57478 0.000792521 1.48622 0.000467329 1.6406 0.000294522
1.528 0.000768978 1.46113 0.000459438 1.59166 0.000285737
1.47984 0.000744742 1.43306 0.000450613 1.53298 0.000275202
1.43014 0.000719728 1.40165 0.000440737 1.4671 0.000263376
1.37875 0.000693869 1.3667 0.000429747 1.39483 0.000250401
1.32561 0.000667127 1.32823 0.00041765 1.31565 0.000236188
1.27065 0.000639467 1.28637 0.000404486 1.22943 0.000220708
1.21382 0.000610866 1.2411 0.000390252 1.13731 0.000204172
1.1551 0.000581313 1.19233 0.000374917 1.04114 0.000186907
1.09449 0.000550814 1.14006 0.000358482 0.942232 0.000169151
1.03203 0.000519377 1.08446 0.000340999 0.840967 0.000150972
0.967683 0.000486995 1.02578 0.000322547 0.737361 0.000132372
0.901433 0.000453654 0.964251 0.0003032 0.631785 0.000113419
0.833274 0.000419352 0.90009 0.000283025 0.525071 9.42614e-05
0.763267 0.000384121 0.833578 0.000262111 0.418019 7.50432e-05
0.691581 0.000348044 0.765078 0.000240572 0.310973 5.58263e-05
0.618484 0.000311257 0.695 0.000218536 0.203885 3.66017e-05
0.544341 0.000273944 0.623751 0.000196133 0.0966938 1.73586e-05
0.469571 0.000236315 0.551733 0.000173487 -0.0104296 -1.87233e-06
0.394621 0.000198597 0.479366 0.000150732 -0.116973 -2.09991e-05
0.319705 0.000160894 0.407889 0.000128257 -0.187458 -3.36526e-05
0.244339 0.000122966 0.346069 0.000108818 -0.272355 -4.88935e-05
0.171247 8.61818e-05 0.281659 8.85651e-05 -0.355349 -6.37928e-05
0.0991519 4.9899e-05 0.21921 6.89286e-05 -0.436638 -7.83859e-05
0.0338207 1.70205e-05 0.155643 4.89407e-05 -0.503404 -9.03717e-05
-0.0188292 -9.47595e-06 0.092229 2.90006e-05 -0.564748 -0.000101384
-0.0793026 -3.99097e-05 0.0356867 1.12214e-05 -0.637216 -0.000114394
-0.124449 -6.26302e-05 -0.0279908 -8.80145e-06 -0.716124 -0.00012856
-0.172245 -8.66836e-05 -0.0837198 -2.63249e-05 -0.79451 -0.000142631
-0.210503 -0.000105937 -0.13344 -4.19591e-05 -0.869921 -0.000156169
-0.231766 -0.000116638 -0.196084 -6.16568e-05 -0.930578 -0.000167059
-0.264159 -0.00013294 -0.242772 -7.63374e-05 -0.994423 -0.00017852
-0.284796 -0.000143326 -0.289402 -9.09997e-05 -1.06462 -0.000191122
-0.301479 -0.000151722 -0.334434 -0.00010516 -1.1323 -0.000203272
-0.317277 -0.000159672 -0.37426 -0.000117683 -1.19883 -0.000215215
-0.329654 -0.000165901 -0.411669 -0.000129446 -1.25631 -0.000225535
-0.338069 -0.000170136 -0.443153 -0.000139346 -1.31126 -0.0002354
-0.343089 -0.000172662 -0.471214 -0.000148169 -1.36516 -0.000245075
-0.346082 -0.000174169 -0.496408 -0.000156091 -1.41729 -0.000254433
-0.347065 -0.000174663 -0.517429 -0.000162701 -1.46534 -0.000263061
-0.345492 -0.000173872 -0.53422 -0.000167981 -1.50684 -0.00027051
-0.342246 -0.000172238 -0.547083 -0.000172025 -1.54204 -0.00027683
-0.337894 -0.000170048 -0.556535 -0.000174997 -1.57219 -0.000282241
-0.332659 -0.000167414 -0.562195 -0.000176777 -1.5977 -0.000286821
-0.326626 -0.000164378 -0.564014 -0.000177349 -1.61745 -0.000290367
-0.320561 -0.000161325 -0.562117 -0.000176752 -1.63008 -0.000292634
-0.315026 -0.000158539 -0.557011 -0.000175147 -1.63496 -0.00029351
-0.310389 -0.000156206 -0.548989 -0.000172625 -1.62844 -0.00029234
-0.307124 -0.000154563 -0.537521 -0.000169018 -1.60705 -0.0002885
-0.305701 -0.000153846 -0.522644 -0.000164341 -1.57167 -0.000282149
-0.306445 -0.000154221 -0.50472 -0.000158705 -1.52259 -0.000273337
-0.308033 -0.00015502 -0.483763 -0.000152115 -1.45872 -0.000261872
-0.312269 -0.000157152 -0.459978 -0.000144636 -1.37991 -0.000247723
-0.318378 -0.000160227 -0.43505 -0.000136798 -1.28596 -0.000230857
-0.327332 -0.000164733 -0.407538 -0.000128147 -1.17995 -0.000211826
-0.338508 -0.000170357 -0.378708 -0.000119081 -1.06276 -0.000190789
-0.352162 -0.000177229 -0.34867 -0.000109636 -0.935434 -0.00016793
-0.368178 -0.000185289 -0.318037 -0.000100004 -0.79852 -0.000143351
-0.386458 -0.000194488 -0.287087 -9.02718e-05 -0.65323 -0.000117269
-0.40683 -0.000204741 -0.255998 -8.04964e-05 -0.501729 -9.0071e-05
-0.429069 -0.000215933 -0.225189 -7.08085e-05 -0.34617 -6.21449e-05
-0.452972 -0.000227962 -0.195074 -6.13392e-05 -0.188417 -3.38248e-05
-0.478245 -0.000240681 -0.166169 -5.22504e-05 -0.076721 -1.3773e-05
-0.503799 -0.000253541 -0.145413 -4.57238e-05 -0.00870065 -1.56195e-06
-0.530259 -0.000266857 -0.125736 -3.95367e-05 0.0655003 1.17587e-05
-0.557986 -0.000280811 -0.107868 -3.3918e-05 0.144334 2.5911e-05
-0.585259 -0.000294537 -0.0910596 -2.86329e-05 0.209667 3.76396e-05
-0.613411 -0.000308705 -0.0745118 -2.34296e-05 0.261697 4.69802e-05
-0.640985 -0.000322581 -0.0614468 -1.93214e-05 0.310569 5.57538e-05
-0.668345 -0.00033635 -0.0514579 -1.61805e-05 0.362956 6.51583e-05
-0.695063 -0.000349796 -0.0440485 -1.38507e-05 0.416092 7.46974e-05
-0.720938 -0.000362818 -0.0387776 -1.21933e-05 0.461995 8.29379e-05
-0.745842 -0.000375351 -0.035825 -1.12648e-05 0.496066 8.90545e-05
-0.769546 -0.000387281 -0.0359341 -1.12991e-05 0.520895 9.35118e-05
-0.791955 -0.000398558 -0.0392697 -1.2348e-05 0.541319 9.71782e-05
-0.812952 -0.000409125 -0.0457178 -1.43756e-05 0.558729 0.000100304
-0.832479 -0.000418952 -0.0551663 -1.73465e-05 0.570116 0.000102348
-0.850518 -0.000428031 -0.0676917 -2.1285e-05 0.570709 0.000102454
-0.867048 -0.000436349 -0.0837831 -2.63448e-05 0.556131 9.98373e-05
-0.882015 -0.000443882 -0.104043 -3.27154e-05 0.529815 9.51131e-05
-0.895621 -0.000450729 -0.128223 -4.03186e-05 0.494515 8.8776e-05
-0.907931 -0.000456924 -0.156333 -4.91576e-05 0.449581 8.07094e-05
-0.919123 -0.000462557 -0.188134 -5.91571e-05 0.392407 7.04455e-05
-0.929394 -0.000467726 -0.223584 -7.03041e-05 0.322295 5.78588e-05
-0.938946 -0.000472533 -0.262699 -8.26033e-05 0.241299 4.33182e-05
-0.948028 -0.000477103 -0.305383 -9.6025e-05 0.152173 2.73183e-05
-0.956891 -0.000481564 -0.350223 -0.000110124 0.0562186 1.00924e-05
-0.965196 -0.000485743 -0.395931 -0.000124497 -0.0451406 -8.1037e-06
-0.973489 -0.000489917 -0.444267 -0.000139696 -0.147836 -2.65397e-05
-0.983817 -0.000495114 -0.489037 -0.000153773 -0.24334 -4.36848e-05
-0.994555 -0.000500519 -0.534591 -0.000168097 -0.35289 -6.33513e-05
-1.00541 -0.00050598 -0.584361 -0.000183747 -0.464893 -8.34583e-05
-1.01843 -0.000512536 -0.635646 -0.000199873 -0.569163 -0.000102177
-1.03196 -0.000519345 -0.69042 -0.000217096 -0.667179 -0.000119773
-1.04697 -0.000526894 -0.745386 -0.00023438 -0.769699 -0.000138177
-1.06338 -0.000535155 -0.800789 -0.000251801 -0.880205 -0.000158016
-1.08112 -0.000544082 -0.857468 -0.000269623 -0.993323 -0.000178323
-1.10033 -0.000553749 -0.915233 -0.000287787 -1.10195 -0.000197824
-1.12077 -0.000564038 -0.973835 -0.000306214 -1.20357 -0.000216067
-1.1425 -0.000574974 -1.03238 -0.000324624 -1.30175 -0.000233692
-1.16538 -0.00058649 -1.0905 -0.000342898 -1.40031 -0.000251385
-1.18922 -0.000598487 -1.14813 -0.000361019 -1.49886 -0.000269076
-1.21411 -0.000611011 -1.20502 -0.000378909 -1.59384 -0.000286128
-1.23891 -0.000623492 -1.26096 -0.000396498 -1.6824 -0.000302026
-1.26303 -0.000635629 -1.3158 -0.000413741 -1.76454 -0.000316773
-1.28674 -0.000647565 -1.36865 -0.000430358 -1.84279 -0.000330819
-1.30962 -0.000659078 -1.41958 -0.000446373 -1.91808 -0.000344336
-1.33116 -0.00066992 -1.46812 -0.000461638 -1.9895 -0.000357158
-1.35102 -0.000679912 -1.51395 -0.000476049 -2.05531 -0.000368972
-1.36891 -0.000688915 -1.55671 -0.000489493 -2.11484 -0.000379658
-1.38446 -0.000696739 -1.596 -0.000501847 -2.16898 -0.000389378
-1.39723 -0.00070317 -1.63149 -0.000513008 -2.21878 -0.000398318
-1.40692 -0.000708046 -1.66287 -0.000522875 -2.26437 -0.000406502
-1.41264 -0.000710926 -1.68987 -0.000531363 -2.30502 -0.000413801
-1.41348 -0.000711347 -1.71208 -0.00053835 -2.34016 -0.000420108
-1.40924 -0.000709213 -1.72925 -0.000543748 -2.37007 -0.000425479
-1.39946 -0.00070429 -1.74139 -0.000547566 -2.39502 -0.000429957
-1.38388 -0.000696449 -1.74797 -0.000549633 -2.41549 -0.000433631
-1.36288 -0.00068588 -1.74827 -0.000549727 -2.43106 -0.000436427
-1.33671 -0.000672708 -1.74233 -0.00054786 -2.44086 -0.000438186
-1.30567 -0.000657091 -1.72975 -0.000543904 -2.44479 -0.000438892
-1.27006 -0.000639168 -1.71063 -0.000537891 -2.44086 -0.000438186
-1.23039 -0.000619204 -1.68465 -0.000529723 -2.42682 -0.000435666
-1.18709 -0.000597411 -1.65186 -0.000519411 -2.40275 -0.000431345
-1.14046 -0.000573947 -1.61257 -0.000507057 -2.36828 -0.000425156
-1.09097 -0.000549042 -1.56716 -0.000492779 -2.32218 -0.000416881
-1.03915 -0.000522959 -1.51606 -0.000476713 -2.26342 -0.000406333
-0.985536 -0.000495979 -1.4596 -0.000458959 -2.19171 -0.000393459
-0.930697 -0.000468381 -1.39817 -0.000439643 -2.10719 -0.000378285
-0.875207 -0.000440456 -1.33227 -0.000418919 -2.00984 -0.00036081
-0.819618 -0.00041248 -1.26245 -0.000396968 -1.89934 -0.000340973
-0.764446 -0.000384714 -1.18928 -0.000373958 -1.77535 -0.000318713
-0.710173 -0.000357401 -1.11326 -0.000350055 -1.63794 -0.000294046
-0.657255 -0.000330769 -1.03493 -0.000325424 -1.48767 -0.000267068
-0.606111 -0.000305031 -0.954829 -0.000300237 -1.32529 -0.000237917
-0.557099 -0.000280365 -0.873505 -0.000274666 -1.15157 -0.000206731
-0.510487 -0.000256907 -0.791477 -0.000248873 -0.9673 -0.000173651
-0.46643 -0.000234735 -0.709243 -0.000223015 -0.773527 -0.000138865
-0.424966 -0.000213868 -0.627283 -0.000197244 -0.571621 -0.000102618
-0.386036 -0.000194276 -0.546052 -0.000171701 -0.363219 -6.52055e-05
-0.349477 -0.000175877 -0.465981 -0.000146523 -0.150065 -2.69398e-05
-0.314793 -0.000158422 -0.387916 -0.000121977 -0.0230335 -4.13501e-06
-0.280082 -0.000140954 -0.324598 -0.000102067 0.0532873 9.5662e-06
-0.247704 -0.000124659 -0.260978 -8.20622e-05 0.142139 2.5517e-05
-0.216094 -0.000108751 -0.201117 -6.32393e-05 0.240281 4.31356e-05
-0.184536 -9.28694e-05 -0.140725 -4.42496e-05 0.317424 5.69844e-05
-0.153217 -7.7108e-05 -0.0804875 -2.53086e-05 0.376161 6.75288e-05
-0.120805 -6.0796e-05 -0.0247379 -7.7786e-06 0.435295 7.81448e-05
-0.0873161 -4.39426e-05 0.0276719 8.70117e-06 0.50553 9.07533e-05
-0.0522299 -2.62852e-05 0.0759264 2.38744e-05 0.582162 0.000104511
-0.0265485 -1.33608e-05 0.12147 3.81951e-05 0.650876 0.000116846
-0.0158609 -7.98216e-06 0.165744 5.21168e-05 0.703607 0.000126313
-0.000596621 -3.00255e-07 0.200759 6.3127e-05 0.747739 0.000134235
0.017828 8.9721e-06 0.235333 7.39983e-05 0.791634 0.000142115
0.0382134 1.92312e-05 0.26961 8.47763e-05 0.836461 0.000150163
0.0580255 2.92018e-05 0.30018 9.43889e-05 0.879439 0.000157878
0.0793037 3.99103e-05 0.328649 0.000103341 0.911655 0.000163661
0.103758 5.2217e-05 0.354527 0.000111478 0.933622 0.000167605
0.129745 6.52953e-05 0.378103 0.000118891 0.949904 0.000170528
0.156326 7.86722e-05 0.399261 0.000125544 0.964084 0.000173074
0.184308 9.27547e-05 0.417772 0.000131364 0.975214 0.000175072
0.21379 0.000107592 0.433579 0.000136335 0.979691 0.000175875
0.243985 0.000122787 0.446442 0.00014038 0.970004 0.000174136
0.274543 0.000138166 0.455865 0.000143343 0.949227 0.000170406
0.305378 0.000153684 0.462148 0.000145318 0.920878 0.000165317
0.336275 0.000169233 0.465041 0.000146228 0.886301 0.00015911
0.366646 0.000184518 0.464697 0.00014612 0.843562 0.000151437
0.396068 0.000199325 0.461386 0.000145079 0.79138 0.000142069
0.424342 0.000213554 0.455249 0.000143149 0.731175 0.000131261
0.45112 0.00022703 0.446316 0.00014034 0.665886 0.000119541
0.476012 0.000239557 0.434602 0.000136657 0.59764 0.000107289
0.498723 0.000250987 0.420157 0.000132115 0.526738 9.45607e-05
0.518981 0.000261182 0.403186 0.000126778 0.45266 8.12621e-05
0.536583 0.00027004 0.383863 0.000120702 0.375914 6.74846e-05
0.551394 0.000277494 0.362323 0.000113929 0.298181 5.35298e-05
0.563295 0.000283483 0.338792 0.00010653 0.221048 3.96829e-05
0.572303 0.000288016 0.313505 9.85788e-05 0.145383 2.60994e-05
0.578436 0.000291103 0.286806 9.01836e-05 0.0712823 1.27967e-05
0.581782 0.000292787 0.259015 8.1445e-05 -0.00111853 -2.00799e-07
0.582505 0.000293151 0.23043 7.24565e-05 -0.0778514 -1.3976e-05
0.580801 0.000292293 0.2017 6.34228e-05 -0.136261 -2.44617e-05
0.576362 0.000290059 0.17691 5.56277e-05 -0.197962 -3.55383e-05
0.570692 0.000287205 0.150587 4.73508e-05 -0.254658 -4.57165e-05
0.563516 0.000283594 0.124586 3.91751e-05 -0.307357 -5.51771e-05
0.555307 0.000279463 0.0981514 3.08628e-05 -0.350011 -6.28345e-05
0.546825 0.000275195 0.0725706 2.28192e-05 -0.387737 -6.9607e-05
0.538438 0.000270974 0.0489289 1.53853e-05 -0.426054 -7.64858e-05
0.530806 0.000267133 0.0269636 8.47846e-06 -0.465477 -8.3563e-05
0.524389 0.000263903 0.0066527 2.09188e-06 -0.502645 -9.02355e-05
0.51977 0.000261579 -0.0118596 -3.72913e-06 -0.534308 -9.59196e-05
0.517403 0.000260387 -0.0279989 -8.80399e-06 -0.560951 -0.000100703
0.516867 0.000260118 -0.0412857 -1.29819e-05 -0.585389 -0.00010509
0.519533 0.00026146 -0.0533381 -1.67717e-05 -0.60928 -0.000109379
0.524416 0.000263917 -0.0629878 -1.98059e-05 -0.631962 -0.000113451
0.532864 0.000268168 -0.0686766 -2.15947e-05 -0.651606 -0.000116977
0.544601 0.000274075 -0.0701659 -2.2063e-05 -0.666848 -0.000119713
0.559739 0.000281694 -0.0672208 -2.1137e-05 -0.678871 -0.000121872
0.578307 0.000291038 -0.0598803 -1.88288e-05 -0.688592 -0.000123617
0.600221 0.000302066 -0.0511742 -1.60913e-05 -0.696258 -0.000124993
0.625301 0.000314688 -0.0389426 -1.22451e-05 -0.700671 -0.000125785
0.653227 0.000328742 -0.0233783 -7.3511e-06 -0.700537 -0.000125761
0.683787 0.000344122 -0.00441298 -1.38762e-06 -0.693313 -0.000124464
0.71662 0.000360645 0.0182239 5.73034e-06 -0.679454 -0.000121976
0.751339 0.000378118 0.0443579 1.39479e-05 -0.658901 -0.000118287
0.787501 0.000396317 0.0737963 2.32046e-05 -0.630819 -0.000113245
0.824702 0.000415038 0.106268 3.34151e-05 -0.593816 -0.000106603
0.862491 0.000434056 0.141612 4.45286e-05 -0.547075 -9.82115e-05
0.900381 0.000453124 0.179679 5.64985e-05 -0.49056 -8.8066e-05
0.937901 0.000472007 0.220248 6.92551e-05 -0.424464 -7.62003e-05
0.974606 0.000490479 0.263029 8.27071e-05 -0.348652 -6.25905e-05
1.00994 0.000508262 0.302747 9.51961e-05 -0.263227 -4.72549e-05
1.04202 0.000524406 0.346583 0.00010898 -0.171687 -3.08215e-05
1.07378 0.000540387 0.388854 0.000122272 -0.0897353 -1.61094e-05
1.10265 0.000554919 0.430481 0.000135361 -0.0225131 -4.04157e-06
1.12955 0.000568454 0.470657 0.000147994 0.0383037 6.87633e-06
1.15303 0.00058027 0.51211 0.000161028 0.107224 1.92489e-05
1.17413 0.000590891 0.554036 0.000174212 0.174239 3.12796e-05
1.19158 0.000599674 0.597234 0.000187795 0.238277 4.27757e-05
1.20607 0.000606966 0.639441 0.000201067 0.305197 5.47893e-05
1.21735 0.000612643 0.680598 0.000214008 0.379373 6.81055e-05
1.22553 0.00061676 0.721047 0.000226727 0.459473 8.24851e-05
1.23072 0.000619372 0.760983 0.000239284 0.540621 9.70529e-05
1.23307 0.000620552 0.800172 0.000251607 0.619331 0.000111183
1.2328 0.00062042 0.837989 0.000263498 0.696415 0.000125021
1.22968 0.000618847 0.874162 0.000274872 0.774335 0.00013901
1.22413 0.000616054 0.9086 0.000285701 0.853731 0.000153263
1.21653 0.000612229 0.941532 0.000296056 0.932306 0.000167369
1.20711 0.000607489 0.972623 0.000305832 1.00728 0.000180828
1.19612 0.000601956 1.00155 0.000314928 1.0776 0.000193452
1.18303 0.000595369 1.02834 0.000323351 1.14378 0.000205333
1.16837 0.000587991 1.05287 0.000331066 1.20634 0.000216563
1.15241 0.000579961 1.07491 0.000337997 1.26471 0.000227042
1.13541 0.000571403 1.09443 0.000344132 1.31728 0.000236479
1.11767 0.000562479 1.11128 0.000349432 1.36287 0.000244665
1.09951 0.00055334 1.12535 0.000353855 1.4013 0.000251563
1.08123 0.000544138 1.13645 0.000357346 1.43291 0.000257238
1.06311 0.000535017 1.14444 0.00035986 1.4578 0.000261706
1.04538 0.000526095 1.14924 0.000361368 1.47547 0.000264878
1.02816 0.000517428 1.1506 0.000361797 1.48532 0.000266646
1.01141 0.000508999 1.14849 0.000361132 1.48647 0.000266853
0.995119 0.000500802 1.14252 0.000359256 1.4749 0.000264776
0.979182 0.000492782 1.13216 0.000355998 1.45218 0.000260697
0.963322 0.0004848 1.11752 0.000351394 1.4191 0.000254758
0.947361 0.000476768 1.09858 0.000345438 1.37551 0.000246932
0.931062 0.000468565 1.07561 0.000338215 1.32049 0.000237056
0.914232 0.000460095 1.04864 0.000329736 1.25429 0.000225172
0.896681 0.000451263 1.01768 0.00032 1.17832 0.000211533
0.878228 0.000441976 0.982791 0.00030903 1.09415 0.000196424
0.858696 0.000432146 0.944169 0.000296886 1.00267 0.000180001
0.83791 0.000421686 0.902061 0.000283645 0.904165 0.000162317
0.815712 0.000410514 0.856684 0.000269376 0.799053 0.000143447
0.79196 0.000398561 0.808248 0.000254146 0.688363 0.000123576
0.766538 0.000385767 0.757006 0.000238034 0.573459 0.000102948
0.739369 0.000372094 0.703261 0.000221134 0.455496 8.17712e-05
0.710413 0.000357521 0.64735 0.000203553 0.335219 6.01789e-05
0.679681 0.000342055 0.589617 0.0001854 0.213213 3.82763e-05
0.647224 0.000325721 0.530413 0.000166783 0.0902364 1.61994e-05
0.61313 0.000308563 0.470107 0.000147821 -0.0327421 -5.8779e-06
0.577494 0.000290629 0.408983 0.000128601 -0.150248 -2.69727e-05
0.539828 0.000271673 0.3518 0.00011062 -0.227113 -4.07716e-05
0.500243 0.000251752 0.301424 9.478e-05 -0.325772 -5.8483e-05
0.461162 0.000232084 0.246965 7.7656e-05 -0.421546 -7.56765e-05
0.420531 0.000211636 0.19376 6.09262e-05 -0.506295 -9.08907e-05
0.380315 0.000191397 0.138311 4.34908e-05 -0.574243 -0.000103089
0.340255 0.000171236 0.0854921 2.68822e-05 -0.641103 -0.000115092
0.300966 0.000151464 0.0352303 1.10778e-05 -0.715718 -0.000128487
0.262829 0.000132271 -0.0131552 -4.13653e-06 -0.79552 -0.000142813
0.226238 0.000113856 -0.0648888 -2.04037e-05 -0.870851 -0.000156336
0.192304 9.67784e-05 -0.116506 -3.66342e-05 -0.935169 -0.000167883
0.160238 8.06411e-05 -0.165475 -5.2032e-05 -0.991932 -0.000178073
0.130526 6.56885e-05 -0.210961 -6.63347e-05 -1.05039 -0.000188567
0.103754 5.22149e-05 -0.253132 -7.95952e-05 -1.1093 -0.000199143
0.079497 4.00075e-05 -0.291239 -9.15774e-05 -1.16731 -0.000209558
0.0581477 2.92633e-05 -0.326284 -0.000102597 -1.21893 -0.000218824
0.0397886 2.0024e-05 -0.357746 -0.00011249 -1.26381 -0.000226882
0.0243517 1.22552e-05 -0.38517 -0.000121113 -1.30442 -0.000234172
0.0117434 5.90995e-06 -0.408351 -0.000128402 -1.34301 -0.000241098
0.00185761 9.34858e-07 -0.427301 -0.000134361 -1.37921 -0.000247597
-0.00544134 -2.7384e-06 -0.442234 -0.000139057 -1.41063 -0.000253239
-0.0104058 -5.2368e-06 -0.453166 -0.000142494 -1.43562 -0.000257724
-0.0132465 -6.66642e-06 -0.460013 -0.000144647 -1.45447 -0.000261109
-0.0137928 -6.94134e-06 -0.462563 -0.000145449 -1.46837 -0.000263604
-0.0134433 -6.76547e-06 -0.461054 -0.000144974 -1.47781 -0.000265299
-0.0115447 -5.80995e-06 -0.455283 -0.00014316 -1.48206 -0.000266061
-0.00844278 -4.2489e-06 -0.445476 -0.000140076 -1.47512 -0.000264816
-0.00527224 -2.6533e-06 -0.431391 -0.000135647 -1.45545 -0.000261284
-0.00215487 -1.08446e-06 -0.41321 -0.00012993 -1.42381 -0.000255604
0.00100408 5.0531e-07 -0.391067 -0.000122967 -1.38127 -0.000247967
0.00378633 1.9055e-06 -0.365472 -0.000114919 -1.32678 -0.000238185
0.0057491 2.89328e-06 -0.336877 -0.000105928 -1.25926 -0.000226064
0.00676316 3.40362e-06 -0.305476 -9.60543e-05 -1.17892 -0.000211641
0.00674762 3.3958e-06 -0.271514 -8.53752e-05 -1.08709 -0.000195155
0.00829588 4.17497e-06 -0.235893 -7.41744e-05 -0.984981 -0.000176825
0.012527 6.3043e-06 -0.199479 -6.27244e-05 -0.872391 -0.000156613
0.0143782 7.23597e-06 -0.159475 -5.01455e-05 -0.751854 -0.000134974
0.014673 7.3843e-06 -0.119429 -3.75535e-05 -0.622487 -0.00011175
0.0134816 6.78473e-06 -0.0784522 -2.46686e-05 -0.486514 -8.73397e-05
0.0118374 5.95729e-06 -0.038504 -1.21073e-05 -0.345829 -6.20837e-05
0.00882126 4.43938e-06 -0.000728819 -2.29171e-07 -0.202922 -3.64289e-05
0.00558994 2.81318e-06 0.0354448 1.11453e-05 -0.0973993 -1.74853e-05
0.00290125 1.46008e-06 0.0667816 2.09989e-05 -0.0258226 -4.63571e-06
0.00030988 1.5595e-07 0.0970498 3.05164e-05 0.0459075 8.24137e-06
-0.00315722 -1.5889e-06 0.127407 4.0062e-05 0.122697 2.20266e-05
-0.00583586 -2.93695e-06 0.157904 4.96514e-05 0.189002 3.39298e-05
-0.00890342 -4.48072e-06 0.18939 5.95521e-05 0.24428 4.38534e-05
-0.0111032 -5.58776e-06 0.21871 6.87714e-05 0.297779 5.34576e-05
-0.0130345 -6.55972e-06 0.246222 7.74224e-05 0.355591 6.38361e-05
-0.0143411 -7.2173e-06 0.272469 8.56755e-05 0.415486 7.45886e-05
-0.0148608 -7.47881e-06 0.297878 9.36652e-05 0.470401 8.4447e-05
-0.0144288 -7.26141e-06 0.322138 0.000101293 0.516134 9.2657e-05
-0.0129089 -6.49654e-06 0.344525 0.000108333 0.554949 9.96252e-05
-0.0102486 -5.1577e-06 0.364855 0.000114725 0.591156 0.000106125
-0.00633267 -3.18697e-06 0.383215 0.000120499 0.626106 0.000112399
-0.00113829 -5.72853e-07 0.399723 0.000125689 0.657093 0.000117962
0.00523719 2.63566e-06 0.414204 0.000130243 0.680961 0.000122247
0.0126663 6.37444e-06 0.426462 0.000134097 0.697264 0.000125174
0.0206802 1.04075e-05 0.43627 0.000137181 0.708028 0.000127106
0.0297783 1.49862e-05 0.44366 0.000139505 0.715147 0.000128384
0.0397505 2.00048e-05 0.448813 0.000141125 0.717716 0.000128845
0.0496839 2.50039e-05 0.4514 0.000141939 0.711358 0.000127704
0.0604782 3.04362e-05 0.451209 0.000141879 0.695924 0.000124933
0.0710624 3.57627e-05 0.448362 0.000140983 0.67277 0.000120776
0.0806093 4.05673e-05 0.44261 0.000139175 0.643231 0.000115474
0.089547 4.50653e-05 0.434233 0.000136541 0.607164 0.000108999
0.0977952 4.92163e-05 0.423294 0.000133101 0.564138 0.000101275
0.10476 5.27213e-05 0.409687 0.000128822 0.514594 9.23806e-05
0.110056 5.53867e-05 0.393492 0.00012373 0.459662 8.25191e-05
0.113645 5.71926e-05 0.374883 0.000117879 0.400536 7.19048e-05
0.117039 5.89008e-05 0.353417 0.000111129 0.338136 6.07026e-05
0.117691 5.92291e-05 0.329987 0.000103761 0.272801 4.89737e-05
0.116788 5.87746e-05 0.305065 9.59248e-05 0.204228 3.66634e-05
0.113508 5.71237e-05 0.277748 8.73353e-05 0.134226 2.40965e-05
0.107574 5.41375e-05 0.248796 7.82315e-05 0.0630374 1.13166e-05
0.0993141 4.99807e-05 0.218335 6.86536e-05 -0.00826069 -1.48297e-06
0.0887777 4.46782e-05 0.186728 5.8715e-05 -0.0794179 -1.42572e-05
0.0757674 3.81306e-05 0.153903 4.83933e-05 -0.157806 -2.83295e-05
0.0607321 3.0564e-05 0.123614 3.88693e-05 -0.212451 -3.81394e-05
0.0458961 2.30976e-05 0.0934928 2.9398e-05 -0.273796 -4.91523e-05
0.028939 1.45638e-05 0.0613265 1.92836e-05 -0.33393 -5.99475e-05
0.0118332 5.95514e-06 0.0286908 9.02157e-06 -0.385979 -6.92914e-05
-0.00230922 -1.16213e-06 -0.00407643 -1.2818e-06 -0.431488 -7.74612e-05
-0.0169211 -8.51568e-06 -0.0423223 -1.33079e-05 -0.478142 -8.58367e-05
-0.0317541 -1.59805e-05 -0.0787547 -2.47637e-05 -0.526892 -9.45884e-05
-0.0470389 -2.36727e-05 -0.113463 -3.56773e-05 -0.576586 -0.000103509
-0.0644502 -3.24351e-05 -0.146228 -4.598e-05 -0.625023 -0.000112205
-0.0790515 -3.97834e-05 -0.180356 -5.67112e-05 -0.666077 -0.000119575
-0.0930681 -4.68373e-05 -0.210392 -6.61557e-05 -0.705596 -0.00012667
-0.105318 -5.30023e-05 -0.239178 -7.52073e-05 -0.745012 -0.000133746
-0.116198 -5.84776e-05 -0.265831 -8.35882e-05 -0.7851 -0.000140942
-0.125152 -6.29836e-05 -0.29034 -9.12947e-05 -0.823973 -0.000147921
-0.131981 -6.64207e-05 -0.312439 -9.82437e-05 -0.859119 -0.00015423
-0.13678 -6.88356e-05 -0.331628 -0.000104277 -0.890989 -0.000159951
-0.139349 -7.01288e-05 -0.348001 -0.000109426 -0.920938 -0.000165328
-0.139015 -6.99605e-05 -0.361506 -0.000113672 -0.949931 -0.000170533
-0.136062 -6.84744e-05 -0.371886 -0.000116936 -0.977323 -0.00017545
-0.130374 -6.56119e-05 -0.379241 -0.000119249 -1.00166 -0.000179819
-0.121915 -6.13546e-05 -0.383223 -0.000120501 -1.02225 -0.000183516
-0.11073 -5.57257e-05 -0.383804 -0.000120684 -1.03934 -0.000186584
-0.0972211 -4.89274e-05 -0.381019 -0.000119808 -1.05336 -0.0001891
-0.0816785 -4.11054e-05 -0.374899 -0.000117884 -1.06425 -0.000191055
-0.0643506 -3.2385e-05 -0.365506 -0.00011493 -1.0712 -0.000192302
-0.0459374 -2.31184e-05 -0.353011 -0.000111001 -1.07349 -0.000192714
-0.0268507 -1.35128e-05 -0.3374 -0.000106092 -1.06836 -0.000191793
-0.00873265 -4.39478e-06 -0.318865 -0.000100264 -1.05513 -0.000189418
0.00840759 4.23119e-06 -0.29769 -9.36061e-05 -1.03346 -0.000185529
0.0259151 1.3042e-05 -0.272961 -8.58302e-05 -1.00419 -0.000180273
0.0420964 2.11854e-05 -0.245937 -7.73328e-05 -0.965418 -0.000173313
0.0565082 2.84382e-05 -0.216981 -6.82279e-05 -0.91685 -0.000164594
0.0697006 3.50774e-05 -0.186062 -5.85055e-05 -0.858733 -0.000154161
