-0.0367298 -1.84846e-05 -0.0987133 -3.10395e-05 -0.02987 -5.36231e-06
-0.0371176 -1.86798e-05 -0.0985907 -3.1001e-05 -0.0299051 -5.3686e-06
-0.0379975 -1.91226e-05 -0.0983224 -3.09166e-05 -0.0299617 -5.37876e-06
-0.0398046 -2.0032e-05 -0.0978032 -3.07533e-05 -0.0300406 -5.39293e-06
-0.0418449 -2.10588e-05 -0.0972899 -3.05919e-05 -0.0300871 -5.40128e-06
-0.0444546 -2.23722e-05 -0.0967404 -3.04192e-05 -0.0300898 -5.40175e-06
-0.0476695 -2.39901e-05 -0.0962024 -3.025e-05 -0.0300101 -5.38745e-06
-0.0515265 -2.59312e-05 -0.0957317 -3.0102e-05 -0.0298078 -5.35114e-06
-0.0560675 -2.82164e-05 -0.0953991 -2.99974e-05 -0.0294466 -5.2863e-06
-0.0613367 -3.08682e-05 -0.0952858 -2.99618e-05 -0.028892 -5.18672e-06
-0.0673722 -3.39056e-05 -0.0954784 -3.00223e-05 -0.0281077 -5.04593e-06
-0.0741877 -3.73356e-05 -0.0960721 -3.0209e-05 -0.0270579 -4.85747e-06
-0.0817537 -4.11432e-05 -0.0971778 -3.05567e-05 -0.0257136 -4.61614e-06
-0.0899645 -4.52754e-05 -0.0989117 -3.11019e-05 -0.0240623 -4.31969e-06
-0.0986734 -4.96583e-05 -0.101437 -3.18961e-05 -0.0220881 -3.96528e-06
-0.107668 -5.4185e-05 -0.104918 -3.29907e-05 -0.0197952 -3.55366e-06
-0.116662 -5.87114e-05 -0.109503 -3.44322e-05 -0.0172133 -3.09016e-06
-0.125344 -6.30805e-05 -0.115315 -3.62597e-05 -0.0144029 -2.58562e-06
-0.133412 -6.71408e-05 -0.122444 -3.85013e-05 -0.0114618 -2.05764e-06
-0.140577 -7.07464e-05 -0.130925 -4.11683e-05 -0.00873886 -1.56881e-06
-0.146552 -7.37538e-05 -0.140739 -4.42542e-05 -0.00620064 -1.11315e-06
-0.151035 -7.60095e-05 -0.151813 -4.77363e-05 -0.00404912 -7.26904e-07
-0.153675 -7.73382e-05 -0.164033 -5.15788e-05 -0.00251049 -4.50686e-07
-0.154055 -7.75296e-05 -0.177243 -5.57324e-05 -0.00184674 -3.3153e-07
-0.151693 -7.63406e-05 -0.191253 -6.01378e-05 -0.0023509 -4.22037e-07
-0.146091 -7.35214e-05 -0.2058 -6.47119e-05 -0.00433566 -7.78343e-07
-0.136878 -6.88853e-05 -0.220503 -6.93353e-05 -0.00816619 -1.46601e-06
-0.123991 -6.23995e-05 -0.234858 -7.3849e-05 -0.0146438 -2.62887e-06
-0.107806 -5.42542e-05 -0.248161 -7.80321e-05 -0.0239477 -4.29912e-06
-0.0890978 -4.48392e-05 -0.259554 -8.16143e-05 -0.0364285 -6.53969e-06
-0.0688109 -3.46297e-05 -0.268124 -8.43092e-05 -0.0523553 -9.39889e-06
-0.047833 -2.40724e-05 -0.27303 -8.58519e-05 -0.071967 -1.29196e-05
-0.0269718 -1.35738e-05 -0.273608 -8.60335e-05 -0.0953493 -1.71172e-05
-0.00690627 -3.47564e-06 -0.26941 -8.47137e-05 -0.122395 -2.19725e-05
0.0119122 5.99494e-06 -0.260203 -8.18185e-05 -0.152772 -2.74258e-05
0.0294874 1.48398e-05 -0.245932 -7.7331e-05 -0.185948 -3.33816e-05
0.0455336 2.29152e-05 -0.22675 -7.12996e-05 -0.221248 -3.97188e-05
0.0597632 3.00763e-05 -0.203209 -6.38973e-05 -0.257725 -4.62671e-05
0.0727853 3.66298e-05 -0.175843 -5.52922e-05 -0.294422 -5.28549e-05
0.0847595 4.26559e-05 -0.145317 -4.56937e-05 -0.330152 -5.92693e-05
0.0958098 4.82171e-05 -0.11248 -3.53684e-05 -0.363762 -6.53031e-05
0.106066 5.33785e-05 -0.0781787 -2.45826e-05 -0.394032 -7.07372e-05
0.115513 5.8133e-05 -0.0432448 -1.35979e-05 -0.419794 -7.5362e-05
0.123949 6.23786e-05 -0.00846526 -2.66183e-06 -0.439911 -7.89733e-05
0.131097 6.59757e-05 0.0254208 7.99334e-06 -0.453324 -8.13813e-05
0.136791 6.88412e-05 0.0577723 1.8166e-05 -0.459072 -8.24133e-05
0.141159 7.10396e-05 0.0862834 2.7131e-05 -0.456142 -8.18872e-05
0.144646 7.27944e-05 0.111517 3.50656e-05 -0.444188 -7.97412e-05
0.148101 7.45332e-05 0.132792 4.17551e-05 -0.422579 -7.5862e-05
0.152661 7.68277e-05 0.149416 4.69826e-05 -0.391014 -7.01953e-05
0.16206 8.15582e-05 0.162638 5.114e-05 -0.337608 -6.06077e-05
0.1784 8.97812e-05 0.166649 5.24011e-05 -0.269373 -4.83582e-05
0.204403 0.000102868 0.161453 5.07675e-05 -0.18771 -3.3698e-05
0.24188 0.000121728 0.14808 4.65625e-05 -0.0948645 -1.70302e-05
0.291375 0.000146637 0.128626 4.04452e-05 0.00322892 5.79661e-07
0.351969 0.000177132 0.106202 3.33941e-05 0.100574 1.80551e-05
0.421206 0.000211976 0.0848895 2.66927e-05 0.197612 3.54755e-05
0.495322 0.000249275 0.0693639 2.18109e-05 0.291076 5.22543e-05
0.570083 0.000286899 0.0641897 2.01839e-05 0.377192 6.7714e-05
0.64188 0.000323032 0.0732246 2.30248e-05 0.452775 8.12828e-05
0.708419 0.000356518 0.0991853 3.11879e-05 0.51555 9.25522e-05
0.768703 0.000386856 0.14342 4.50972e-05 0.564634 0.000101364
0.822697 0.000414029 0.205925 6.47513e-05 0.600183 0.000107746
0.871 0.000438338 0.285512 8.97767e-05 0.623326 0.0001119
0.914444 0.000460202 0.380014 0.000119492 0.636129 0.000114199
0.953631 0.000479923 0.486526 0.000152984 0.641577 0.000115177
0.988912 0.000497678 0.601581 0.000189162 0.643304 0.000115487
1.02085 0.00051375 0.721208 0.000226777 0.64533 0.00011585
1.05059 0.000528719 0.840996 0.000264444 0.651819 0.000117015
1.07982 0.000543427 0.95636 0.000300719 0.666892 0.000119721
1.11022 0.00055873 1.06297 0.00033424 0.694317 0.000124645
1.14286 0.000575155 1.15721 0.000363874 0.737164 0.000132337
1.17774 0.000592707 1.23651 0.00038881 0.797541 0.000143176
1.21422 0.000611065 1.2993 0.000408555 0.87654 0.000157358
1.25155 0.000629852 1.3449 0.000422892 0.974216 0.000174892
1.28903 0.000648715 1.37344 0.000431865 1.08957 0.000195601
1.32606 0.00066735 1.38584 0.000435765 1.22058 0.00021912
1.36216 0.000685519 1.38375 0.000435109 1.3643 0.000244921
1.39703 0.000703069 1.3694 0.000430597 1.51702 0.000272338
1.43049 0.000719905 1.34549 0.000423077 1.67442 0.000300594
1.46235 0.00073594 1.31506 0.00041351 1.83177 0.000328842
1.49246 0.000751091 1.2814 0.000402923 1.98414 0.000356196
1.52081 0.000765363 1.24772 0.000392333 2.12667 0.000381782
1.54777 0.00077893 1.21702 0.000382681 2.25475 0.000404776
1.57402 0.000792138 1.19191 0.000374784 2.36431 0.000424444
1.60027 0.000805351 1.17458 0.000369336 2.45188 0.000440165
1.62671 0.000818657 1.16693 0.000366932 2.51476 0.000451453
1.65246 0.000831614 1.17062 0.00036809 2.55108 0.000457974
1.67561 0.000843267 1.18692 0.000373215 2.55995 0.000459566
1.69381 0.000852427 1.21648 0.000382512 2.54155 0.000456263
1.70327 0.000857186 1.24954 0.000392907 2.50806 0.00045025
1.70717 0.000859147 1.30158 0.00040927 2.44473 0.00043888
1.70121 0.000856151 1.36339 0.000428706 2.36074 0.000423803
1.68502 0.000848002 1.43171 0.000450188 2.26043 0.000405795
1.65862 0.000834713 1.5025 0.000472449 2.14881 0.000385757
1.62211 0.000816342 1.5713 0.000494082 2.03133 0.000364666
1.57571 0.000792989 1.63341 0.000513611 1.91355 0.000343523
1.51966 0.000764784 1.68416 0.000529568 1.80088 0.000323297
1.45417 0.000731824 1.71914 0.00054057 1.69823 0.000304869
1.37944 0.000694217 1.73448 0.00054539 1.60979 0.000288991
1.29575 0.000652096 1.72691 0.000543012 1.53875 0.000276239
1.20333 0.000605586 1.69405 0.000532679 1.48718 0.00026698
1.10258 0.000554882 1.63439 0.00051392 1.45583 0.000261353
0.994424 0.000500453 1.5473 0.000486535 1.44417 0.000259259
0.880751 0.000443245 1.4329 0.000450562 1.45032 0.000260364
0.764154 0.000384567 1.29216 0.000406309 1.47114 0.0002641
0.647066 0.000325642 1.12722 0.000354445 1.50216 0.00026967
0.531386 0.000267424 0.941432 0.000296025 1.53783 0.000276073
0.418648 0.000210688 0.739169 0.000232425 1.57169 0.000282151
0.310147 0.000156084 0.52558 0.000165264 1.59667 0.000286636
0.206902 0.000104125 0.306372 9.63359e-05 1.60547 0.000288217
0.109502 5.51077e-05 0.0876196 2.75512e-05 1.59089 0.000285599
0.0167602 8.43473e-06 -0.124083 -3.90167e-05 1.54607 0.000277552
-0.0716711 -3.60691e-05 -0.325918 -0.000102482 1.46613 0.000263201
-0.156775 -7.88983e-05 -0.515476 -0.000162087 1.34518 0.000241488
-0.240056 -0.00012081 -0.681229 -0.000214206 1.18069 0.000211959
-0.322461 -0.000162281 -0.819685 -0.000257743 0.971449 0.000174396
-0.403015 -0.000202821 -0.930144 -0.000292475 0.717817 0.000128863
-0.480348 -0.000241739 -1.01301 -0.000318532 0.422488 7.58456e-05
-0.553567 -0.000278587 -1.06944 -0.000336276 0.0905921 1.62632e-05
-0.62274 -0.000313399 -1.10155 -0.000346372 -0.295489 -5.30465e-05
-0.689035 -0.000346763 -1.1129 -0.000349943 -0.713554 -0.000128098
-0.754151 -0.000379533 -1.10715 -0.000348132 -1.14674 -0.000205864
-0.81962 -0.000412481 -1.08868 -0.000342325 -1.58416 -0.000284391
-0.886966 -0.000446373 -1.06277 -0.000334178 -2.01518 -0.000361768
-0.957879 -0.000482061 -1.03487 -0.000325404 -2.42959 -0.000436163
-1.03411 -0.000520424 -1.01025 -0.000317664 -2.81603 -0.000505537
-1.11724 -0.00056226 -0.994076 -0.000312578 -3.16414 -0.00056803
-1.20831 -0.000608093 -0.991372 -0.000311728 -3.46503 -0.000622047
-1.3073 -0.000657912 -1.0068 -0.000316579 -3.71152 -0.000666297
-1.41276 -0.000710981 -1.04451 -0.000328435 -3.89773 -0.000699726
-1.52187 -0.000765895 -1.10797 -0.00034839 -4.01969 -0.00072162
-1.63127 -0.000820948 -1.19949 -0.000377168 -4.07593 -0.000731717
-1.73776 -0.000874544 -1.31966 -0.000414955 -4.06776 -0.000730249
-1.83885 -0.000925415 -1.46714 -0.000461329 -3.99893 -0.000717892
-1.93292 -0.00097276 -1.63863 -0.000515254 -3.87562 -0.000695757
-2.0193 -0.00101623 -1.82905 -0.000575129 -3.70626 -0.000665352
-2.09807 -0.00105587 -2.03177 -0.000638873 -3.50119 -0.000628537
-2.16995 -0.00109205 -2.23905 -0.000704049 -3.27209 -0.000587409
-2.23604 -0.00112531 -2.44254 -0.000768036 -3.03131 -0.000544185
-2.29732 -0.00115615 -2.63393 -0.000828216 -2.79125 -0.000501089
-2.35441 -0.00118488 -2.80544 -0.000882145 -2.56379 -0.000460256
-2.40769 -0.00121169 -2.9502 -0.000927663 -2.35975 -0.000423625
-2.45733 -0.00123667 -3.0626 -0.000963006 -2.18831 -0.000392848
-2.4942 -0.00125523 -3.13596 -0.000986076 -2.0574 -0.000369348
-2.49375 -0.001255 -3.14781 -0.000989802 -1.98048 -0.000355537
-2.49107 -0.00125365 -3.12377 -0.000982241 -1.94724 -0.000349571
-2.50917 -0.00126276 -3.07905 -0.000968179 -1.95294 -0.000350594
-2.5271 -0.00127179 -3.00234 -0.000944057 -2.00178 -0.000359362
-2.5349 -0.00127571 -2.89704 -0.000910949 -2.08905 -0.000375029
-2.48839 -0.00125231 -2.79122 -0.000877675 -2.20061 -0.000395057
-2.43961 -0.00122775 -2.66654 -0.000838471 -2.33795 -0.000419712
-2.38191 -0.00119872 -2.52189 -0.000792987 -2.49465 -0.000447842
-2.32163 -0.00116838 -2.36752 -0.000744446 -2.6611 -0.000477724
-2.26053 -0.00113763 -2.2098 -0.000694851 -2.82824 -0.00050773
-2.1992 -0.00110677 -2.05193 -0.000645212 -2.98698 -0.000536227
-2.14133 -0.00107764 -1.89981 -0.000597378 -3.12848 -0.00056163
-2.08891 -0.00105126 -1.75925 -0.000553181 -3.24523 -0.000582589
-2.04328 -0.0010283 -1.6349 -0.00051408 -3.32988 -0.000597785
-2.0066 -0.00100984 -1.53074 -0.000481327 -3.37574 -0.000606017
-1.98028 -0.000996591 -1.44982 -0.000455884 -3.37866 -0.000606541
-1.96505 -0.00098893 -1.39467 -0.000438542 -3.33661 -0.000598992
-1.96161 -0.000987196 -1.36696 -0.000429828 -3.24857 -0.000583188
-1.97 -0.00099142 -1.36697 -0.000429832 -3.1152 -0.000559244
-1.98975 -0.00100136 -1.39406 -0.00043835 -2.93954 -0.000527711
-2.01837 -0.00101576 -1.44736 -0.00045511 -2.72662 -0.000489487
-2.04282 -0.00102806 -1.52812 -0.000480505 -2.4819 -0.000445553
-2.0609 -0.00103717 -1.63296 -0.000513468 -2.21367 -0.0003974
-2.07166 -0.00104258 -1.75625 -0.000552236 -1.93165 -0.000346772
-2.075 -0.00104426 -1.89101 -0.000594611 -1.64686 -0.000295646
-2.07273 -0.00104312 -2.00212 -0.00062955 -1.42489 -0.000255799
-2.0665 -0.00103998 -2.11189 -0.000664065 -1.21456 -0.000218039
-2.05671 -0.00103506 -2.21625 -0.000696881 -1.02149 -0.000183379
-2.04373 -0.00102852 -2.31132 -0.000726773 -0.850986 -0.00015277
-2.02786 -0.00102054 -2.39359 -0.000752643 -0.707901 -0.000127083
-2.00934 -0.00101122 -2.46006 -0.000773544 -0.596385 -0.000107064
-1.98822 -0.00100059 -2.50827 -0.000788702 -0.519663 -9.32906e-05
-1.96426 -0.000988532 -2.5364 -0.000797547 -0.479932 -8.61581e-05
-1.93688 -0.000974753 -2.54339 -0.000799746 -0.478379 -8.58792e-05
-1.90514 -0.000958779 -2.52898 -0.000795216 -0.515191 -9.24878e-05
-1.86786 -0.000940016 -2.49366 -0.000784108 -0.589523 -0.000105832
-1.82387 -0.00091788 -2.43846 -0.000766753 -0.6995 -0.000125575
-1.77237 -0.000891959 -2.36487 -0.000743611 -0.842312 -0.000151213
-1.71305 -0.00086211 -2.27462 -0.000715232 -1.01435 -0.000182098
-1.64629 -0.00082851 -2.16966 -0.00068223 -1.21136 -0.000217465
-1.57296 -0.000791606 -2.05212 -0.000645272 -1.42848 -0.000256443
-1.49418 -0.000751959 -1.92432 -0.000605087 -1.66035 -0.000298068
-1.411 -0.000710098 -1.78883 -0.000562481 -1.90119 -0.000341304
-1.32428 -0.000666453 -1.64841 -0.000518329 -2.14494 -0.000385063
-1.23471 -0.000621377 -1.50599 -0.000473544 -2.38546 -0.00042824
-1.14297 -0.00057521 -1.36442 -0.00042903 -2.61664 -0.000469742
-1.04977 -0.000528308 -1.22646 -0.000385651 -2.83258 -0.000508508
-0.955822 -0.000481026 -1.09465 -0.000344202 -3.02772 -0.00054354
-0.861735 -0.000433675 -0.97126 -0.000305404 -3.19695 -0.000573921
-0.768033 -0.000386519 -0.858288 -0.000269881 -3.33578 -0.000598844
-0.675158 -0.000339779 -0.757337 -0.000238138 -3.4404 -0.000617624
-0.583527 -0.000293665 -0.669566 -0.000210539 -3.50777 -0.000629719
-0.493552 -0.000248384 -0.595643 -0.000187295 -3.53572 -0.000634736
-0.405638 -0.000204141 -0.535738 -0.000168458 -3.52295 -0.000632445
-0.320174 -0.00016113 -0.489527 -0.000153927 -3.46908 -0.000622773
-0.237528 -0.000119538 -0.456209 -0.000143451 -3.37459 -0.000605811
-0.158032 -7.95309e-05 -0.434541 -0.000136638 -3.24084 -0.0005818
-0.0819872 -4.12607e-05 -0.422884 -0.000132972 -3.06996 -0.000551123
-0.00968747 -4.8753e-06 -0.419253 -0.00013183 -2.86482 -0.000514296
0.0473212 2.38148e-05 -0.420041 -0.000132078 -2.62879 -0.000471924
0.0764605 3.84794e-05 -0.416572 -0.000130987 -2.36823 -0.000425148
0.105785 5.32373e-05 -0.414062 -0.000130198 -2.08392 -0.000374107
0.133322 6.70956e-05 -0.413013 -0.000129868 -1.78036 -0.000319612
0.157825 7.94268e-05 -0.412499 -0.000129707 -1.4622 -0.000262496
0.181199 9.11898e-05 -0.409412 -0.000128736 -1.13368 -0.000203519
0.20499 0.000103163 -0.401522 -0.000126255 -0.799445 -0.000143517
0.229689 0.000115593 -0.388314 -0.000122102 -0.464146 -8.33241e-05
0.2562 0.000128935 -0.369193 -0.000116089 -0.132307 -2.3752e-05
0.285864 0.000143864 -0.34262 -0.000107734 0.17459 3.13426e-05
0.319569 0.000160826 -0.307482 -9.66848e-05 0.46312 8.31399e-05
0.357653 0.000179992 -0.262795 -8.26334e-05 0.737363 0.000132372
0.400483 0.000201546 -0.207809 -6.53436e-05 0.995117 0.000178645
0.448292 0.000225607 -0.145709 -4.5817e-05 1.23405 0.000221538
0.501025 0.000252145 -0.074379 -2.33878e-05 1.4517 0.000260611
0.558478 0.000281059 0.00739455 2.32515e-06 1.64597 0.000295487
0.620518 0.000312281 0.0999196 3.14188e-05 1.81598 0.000326007
0.686978 0.000345728 0.202745 6.37514e-05 1.96148 0.000352128
0.75762 0.000381279 0.314767 9.89758e-05 2.08255 0.000373862
0.832144 0.000418784 0.434796 0.000136718 2.17969 0.0003913
0.910101 0.000458016 0.561764 0.000176642 2.25392 0.000404626
0.990827 0.000498642 0.694491 0.000218376 2.30674 0.000414109
1.07346 0.000540227 0.831479 0.000261451 2.34001 0.000420082
1.15699 0.000582268 0.971024 0.00030533 2.35594 0.000422941
1.24036 0.000624221 1.1114 0.000349471 2.35705 0.000423141
1.32243 0.000665523 1.25093 0.000393344 2.34608 0.000421171
1.40206 0.000705598 1.38787 0.000436404 2.32582 0.000417535
1.47813 0.000743882 1.52039 0.000478073 2.29914 0.000412745
1.54961 0.000779854 1.64662 0.000517765 2.26891 0.000407318
1.61558 0.000813053 1.76476 0.000554912 2.23802 0.000401772
1.67527 0.000843093 1.87311 0.000588981 2.20918 0.000396596
1.72809 0.000869676 1.97005 0.000619464 2.18486 0.000392229
1.77366 0.000892611 2.05407 0.000645884 2.16719 0.000389057
1.81183 0.00091182 2.1238 0.00066781 2.158 0.000387406
1.84266 0.000927334 2.17811 0.000684887 2.15874 0.00038754
1.86639 0.000939278 2.21613 0.000696842 2.17045 0.000389641
1.8834 0.000947835 2.23729 0.000703497 2.19362 0.000393802
1.89411 0.000953228 2.24138 0.000704782 2.22824 0.000400016
1.89905 0.000955712 2.22851 0.000700735 2.27375 0.000408187
1.89872 0.000955545 2.19901 0.000691458 2.32923 0.000418146
1.8938 0.000953074 2.15365 0.000677197 2.39316 0.000429623
1.88528 0.000948783 2.09367 0.000658334 2.46358 0.000442265
1.87413 0.000943172 2.02061 0.000635363 2.53808 0.00045564
1.86122 0.000936674 1.93633 0.000608862 2.61396 0.000469261
1.84731 0.000929677 1.84297 0.000579506 2.68822 0.000482593
1.83311 0.000922527 1.74296 0.000548059 2.75769 0.000495065
1.81917 0.000915515 1.63889 0.000515333 2.81912 0.000506092
1.80604 0.000908906 1.53339 0.00048216 2.86926 0.000515094
1.79424 0.000902967 1.42911 0.000449372 2.90504 0.000521517
1.78432 0.000897974 1.32863 0.000417775 2.92358 0.000524845
1.77678 0.000894177 1.23435 0.00038813 2.92236 0.000524626
1.77204 0.000891795 1.14849 0.000361133 2.89926 0.000520479
1.77046 0.000891001 1.07302 0.000337402 2.85265 0.000512112
1.77232 0.000891934 1.00959 0.000317458 2.78148 0.000499335
1.77783 0.000894709 0.959511 0.000301709 2.68528 0.000482065
1.78723 0.000899441 0.923656 0.000290435 2.56425 0.000460337
1.80079 0.000906262 0.902489 0.00028378 2.41923 0.000434304
1.81864 0.000915248 0.896024 0.000281747 2.25176 0.000404239
1.84039 0.000926193 0.903318 0.00028404 2.06444 0.000370611
1.86615 0.000939156 0.924571 0.000290723 1.85937 0.000333797
1.89676 0.000954562 0.95864 0.000301436 1.63976 0.000294372
1.92887 0.00097072 1.00467 0.000315908 1.40926 0.000252993
1.96279 0.000987789 1.06099 0.000333619 1.17213 0.000210422
1.99985 0.00100644 1.12532 0.000353848 0.9331 0.000167511
2.03824 0.00102576 1.19592 0.000376047 0.696369 0.000125013
2.07182 0.00104266 1.27047 0.000399486 0.466659 8.37751e-05
2.10153 0.00105761 1.34822 0.000423934 0.248139 4.45463e-05
2.12653 0.00107019 1.42768 0.00044892 0.0455435 8.17603e-06
2.14513 0.00107956 1.5067 0.000473768 -0.143562 -2.57724e-05
2.15544 0.00108474 1.58299 0.000497757 -0.314044 -5.63776e-05
2.15638 0.00108522 1.65445 0.000520226 -0.454787 -8.16439e-05
2.14722 0.00108061 1.71933 0.000540627 -0.561741 -0.000100845
2.12701 0.00107044 1.77526 0.000558216 -0.631278 -0.000113328
2.09556 0.00105461 1.81988 0.000572246 -0.660846 -0.000118636
2.05353 0.00103346 1.85126 0.000582111 -0.649048 -0.000116518
2.00181 0.00100743 1.86778 0.000587308 -0.595213 -0.000106853
1.94124 0.000976944 1.86812 0.000587414 -0.499208 -8.96185e-05
1.87277 0.000942485 1.85132 0.000582131 -0.361729 -6.4938e-05
1.79761 0.000904665 1.81693 0.000571318 -0.184502 -3.31221e-05
1.7171 0.000864143 1.76504 0.000555002 0.0183098 3.28699e-06
1.63266 0.000821652 1.6959 0.00053326 0.246453 4.42436e-05
1.54589 0.000777981 1.61056 0.000506425 0.500535 8.98567e-05
1.45835 0.000733928 1.5105 0.000474962 0.77611 0.000139328
1.37137 0.000690154 1.39767 0.000439484 1.06783 0.000191698
1.2859 0.00064714 1.2745 0.000400754 1.3694 0.000245837
1.20266 0.000605247 1.14387 0.000359681 1.67408 0.000300533
1.12216 0.000564739 1.00903 0.00031728 1.97508 0.000354568
1.04473 0.000525768 0.87334 0.000274614 2.26579 0.000406758
0.970448 0.000488386 0.740225 0.000232757 2.53974 0.000455937
0.899304 0.000452582 0.613037 0.000192764 2.79053 0.00050096
0.831253 0.000418335 0.494944 0.000155631 3.01218 0.00054075
0.766299 0.000385646 0.388774 0.000122246 3.19933 0.000574348
0.704488 0.00035454 0.296897 9.33567e-05 3.34751 0.00060095
0.645829 0.000325019 0.221178 6.95474e-05 3.45319 0.000619921
0.590214 0.00029703 0.162953 5.12392e-05 3.51374 0.000630791
0.537432 0.000270467 0.123 3.86762e-05 3.5275 0.000633261
0.487209 0.000245192 0.101479 3.19092e-05 3.49385 0.000627221
0.439237 0.00022105 0.0979049 3.07853e-05 3.41329 0.000612759
0.393185 0.000197874 0.111156 3.49521e-05 3.28742 0.000590161
0.348689 0.000175481 0.139524 4.38722e-05 3.11882 0.000559895
0.305343 0.000153667 0.180776 5.68434e-05 2.91102 0.00052259
0.262653 0.000132183 0.23223 7.30226e-05 2.66829 0.000479015
0.220013 0.000110723 0.290844 9.14531e-05 2.3956 0.000430062
0.176686 8.89186e-05 0.353311 0.000111096 2.09851 0.000376728
0.131825 6.63421e-05 0.416164 0.000130859 1.78297 0.000320081
0.107822 5.42624e-05 0.470107 0.000147821 1.45617 0.000261414
0.0900709 4.53289e-05 0.513967 0.000161612 1.12354 0.000201699
0.0677101 3.40757e-05 0.547692 0.000172217 0.790681 0.000141944
0.0414436 2.08568e-05 0.57124 0.000179621 0.462296 8.2992e-05
0.0108961 5.48354e-06 0.582062 0.000183024 0.143672 2.57921e-05
-0.025251 -1.27078e-05 0.576615 0.000181311 -0.172467 -3.09615e-05
-0.067046 -3.37415e-05 0.552859 0.000173842 -0.481857 -8.65036e-05
-0.113264 -5.70008e-05 0.510436 0.000160502 -0.767874 -0.00013785
-0.163046 -8.20544e-05 0.449901 0.000141467 -1.02692 -0.000184354
-0.21835 -0.000109886 0.369771 0.000116271 -1.25626 -0.000225525
-0.278288 -0.000140051 0.269408 8.47128e-05 -1.45506 -0.000261214
-0.342212 -0.000172221 0.143089 4.4993e-05 -1.62218 -0.000291216
-0.409615 -0.000206142 -0.00216093 -6.79485e-07 -1.75958 -0.000315881
-0.479912 -0.00024152 -0.163608 -5.14451e-05 -1.86717 -0.000335197
-0.552633 -0.000278117 -0.33914 -0.00010664 -1.94712 -0.000349549
-0.626862 -0.000315474 -0.526533 -0.000165564 -2.00265 -0.000359518
-0.701628 -0.000353101 -0.722998 -0.00022734 -2.03751 -0.000365776
-0.775703 -0.000390379 -0.925192 -0.000290918 -2.0554 -0.000368989
-0.84695 -0.000426235 -1.12981 -0.000355258 -2.06016 -0.000369842
-0.915134 -0.000460549 -1.33302 -0.000419156 -2.0563 -0.00036915
-0.980218 -0.000493303 -1.53097 -0.000481401 -2.04862 -0.000367771
-1.04249 -0.000524641 -1.71963 -0.000540723 -2.04175 -0.000366538
-1.10251 -0.00055485 -1.89497 -0.000595857 -2.03998 -0.000366221
-1.16095 -0.000584257 -2.05332 -0.000645649 -2.04717 -0.000367511
-1.21835 -0.000613143 -2.19162 -0.000689136 -2.06666 -0.00037101
-1.27511 -0.000641709 -2.30747 -0.000725564 -2.10113 -0.000377198
-1.32699 -0.00066782 -2.40059 -0.000754844 -2.15212 -0.000386352
-1.36972 -0.000689325 -2.47161 -0.000777174 -2.21981 -0.000398502
-1.40827 -0.000708724 -2.51813 -0.000791803 -2.3059 -0.000413959
-1.44233 -0.000725866 -2.53991 -0.000798653 -2.40948 -0.000432553
-1.47212 -0.000740859 -2.53782 -0.000797993 -2.5288 -0.000453973
-1.49743 -0.000753597 -2.51313 -0.000790231 -2.66197 -0.000477881
-1.51815 -0.000764023 -2.46778 -0.00077597 -2.8064 -0.000503809
-1.53462 -0.000772311 -2.40414 -0.000755961 -2.95859 -0.000531129
-1.54734 -0.000778713 -2.32469 -0.000730977 -3.11443 -0.000559106
-1.55681 -0.000783479 -2.2321 -0.000701862 -3.26959 -0.000586961
-1.56369 -0.000786943 -2.12955 -0.000669619 -3.4196 -0.000613892
-1.5688 -0.000789511 -2.02055 -0.000635343 -3.55983 -0.000639066
-1.57288 -0.000791564 -1.90851 -0.000600114 -3.68554 -0.000661633
-1.57662 -0.00079345 -1.79673 -0.000564967 -3.79209 -0.000680761
-1.58073 -0.000795514 -1.68847 -0.000530926 -3.87521 -0.000695682
-1.58584 -0.000798085 -1.58688 -0.000498981 -3.93113 -0.000705721
-1.59252 -0.000801451 -1.49482 -0.000470031 -3.95665 -0.000710304
-1.60129 -0.000805864 -1.41474 -0.000444852 -3.9492 -0.000708965
-1.61255 -0.000811528 -1.3487 -0.000424088 -3.90686 -0.000701365
-1.62653 -0.000818563 -1.29836 -0.000408256 -3.82861 -0.000687317
-1.64326 -0.000826987 -1.26489 -0.000397732 -3.7143 -0.000666796
-1.66264 -0.000836739 -1.24898 -0.00039273 -3.56472 -0.000639943
-1.68447 -0.000847725 -1.25076 -0.00039329 -3.3815 -0.000607052
-1.70857 -0.000859853 -1.26977 -0.000399269 -3.16718 -0.000568575
-1.73393 -0.000872615 -1.30446 -0.000410176 -2.92533 -0.000525159
-1.75732 -0.000884385 -1.35451 -0.000425913 -2.65969 -0.000477471
-1.77987 -0.000895733 -1.41819 -0.000445938 -2.37518 -0.000426396
-1.80168 -0.000906709 -1.49309 -0.00046949 -2.07716 -0.000372894
-1.82244 -0.000917158 -1.57603 -0.000495568 -1.77159 -0.000318039
-1.84217 -0.000927088 -1.66382 -0.000523174 -1.46467 -0.000262939
-1.86113 -0.000936631 -1.7534 -0.00055134 -1.16266 -0.000208722
-1.87939 -0.000945818 -1.84151 -0.000579047 -0.871839 -0.000156514
-1.89685 -0.000954605 -1.92491 -0.00060527 -0.598271 -0.000107402
-1.91339 -0.000962929 -2.00066 -0.000629089 -0.34758 -6.2398e-05
-1.92863 -0.0009706 -2.06628 -0.000649723 -0.124847 -2.24127e-05
-1.94183 -0.000977241 -2.11975 -0.000666536 0.0656843 1.17917e-05
-1.95209 -0.000982405 -2.15946 -0.000679022 0.208161 3.73693e-05
-1.95862 -0.00098569 -2.18441 -0.000686868 0.314641 5.64848e-05
-1.96077 -0.000986776 -2.19383 -0.000689831 0.383088 6.87725e-05
-1.95794 -0.00098535 -2.18739 -0.000687805 0.41299 7.41406e-05
-1.94956 -0.000981132 -2.16514 -0.00068081 0.404332 7.25862e-05
-1.93544 -0.000974029 -2.12775 -0.000669051 0.3577 6.42148e-05
-1.91576 -0.000964121 -2.07622 -0.000652849 0.274468 4.92729e-05
-1.89096 -0.00095164 -2.01184 -0.000632605 0.156936 2.81733e-05
-1.86182 -0.000936978 -1.93608 -0.000608784 0.00291616 5.23513e-07
-1.82934 -0.00092063 -1.85092 -0.000582005 -0.187683 -3.36931e-05
-1.7945 -0.000903095 -1.75852 -0.000552951 -0.403498 -7.24365e-05
-1.7581 -0.00088478 -1.66132 -0.000522386 -0.639311 -0.00011477
-1.72074 -0.000865979 -1.56202 -0.000491164 -0.889729 -0.000159725
-1.68288 -0.000846924 -1.46351 -0.000460186 -1.14923 -0.000206312
-1.64501 -0.000827867 -1.36861 -0.000430347 -1.41215 -0.000253512
-1.60775 -0.000809112 -1.28001 -0.000402489 -1.67277 -0.000300299
-1.57178 -0.000791012 -1.20018 -0.000377386 -1.92557 -0.00034568
-1.53787 -0.000773946 -1.13132 -0.000355734 -2.16544 -0.000388742
-1.50678 -0.0007583 -1.07534 -0.000338131 -2.38783 -0.000428667
-1.47926 -0.000744451 -1.03376 -0.000325057 -2.58876 -0.000464738
-1.45598 -0.000732733 -1.00773 -0.000316873 -2.7648 -0.00049634
-1.43738 -0.000723373 -0.998025 -0.00031382 -2.91318 -0.000522978
-1.42359 -0.000716435 -1.00505 -0.00031603 -3.03191 -0.000544292
-1.41435 -0.000711783 -1.0289 -0.000323529 -3.11979 -0.000560069
-1.409 -0.000709091 -1.06928 -0.000336226 -3.17644 -0.000570238
-1.40662 -0.000707892 -1.1255 -0.000353902 -3.20225 -0.000574871
-1.40608 -0.000707623 -1.19643 -0.000376205 -3.19836 -0.000574174
-1.40608 -0.00070762 -1.28054 -0.000402653 -3.16667 -0.000568485
-1.40515 -0.000707154 -1.37589 -0.000432637 -3.10977 -0.00055827
-1.40188 -0.000705507 -1.48014 -0.000465417 -3.03091 -0.000544112
-1.39497 -0.000702028 -1.59052 -0.000500125 -2.93386 -0.00052669
-1.38329 -0.000696154 -1.70392 -0.000535783 -2.82281 -0.000506755
-1.36595 -0.000687428 -1.81694 -0.000571322 -2.70227 -0.000485114
-1.34232 -0.000675536 -1.92599 -0.000605609 -2.57687 -0.000462602
-1.31208 -0.000660316 -2.02733 -0.000637475 -2.45129 -0.000440059
-1.27515 -0.000641731 -2.11727 -0.000665756 -2.33007 -0.000418298
-1.23165 -0.000619837 -2.19225 -0.000689335 -2.21743 -0.000398075
-1.18177 -0.000594734 -2.24903 -0.000707189 -2.11709 -0.000380063
-1.1257 -0.000566516 -2.28479 -0.000718432 -2.03222 -0.000364826
-1.0636 -0.000535264 -2.29724 -0.000722345 -1.96523 -0.0003528
-0.995639 -0.000501064 -2.28466 -0.000718392 -1.91774 -0.000344275
-0.922066 -0.000464038 -2.24598 -0.000706229 -1.89053 -0.00033939
-0.843216 -0.000424356 -2.18074 -0.000685715 -1.88345 -0.000338119
-0.75954 -0.000382245 -2.08913 -0.000656909 -1.89546 -0.000340276
-0.671584 -0.000337981 -1.972 -0.000620079 -1.92466 -0.000345517
-0.579947 -0.000291863 -1.83084 -0.000575691 -1.96828 -0.000353348
-0.485889 -0.000244528 -1.66788 -0.00052445 -2.02269 -0.000363115
-0.396209 -0.000199396 -1.48397 -0.000466621 -2.08388 -0.0003741
-0.304256 -0.00015312 -1.2832 -0.000403492 -2.14754 -0.000385529
-0.209805 -0.000105586 -1.07038 -0.00033657 -2.20784 -0.000396354
-0.115417 -5.80848e-05 -0.849989 -0.000267271 -2.25902 -0.000405543
-0.0217767 -1.09593e-05 -0.625146 -0.000196572 -2.29584 -0.000412153
0.0682391 3.43419e-05 -0.399595 -0.000125649 -2.31329 -0.000415284
0.151556 7.62716e-05 -0.178952 -5.62699e-05 -2.30543 -0.000413874
0.23057 0.000116036 0.0345539 1.08652e-05 -2.26853 -0.00040725
0.305967 0.00015398 0.238521 7.50009e-05 -2.19856 -0.000394688
0.376002 0.000189226 0.425277 0.000133725 -2.09043 -0.000375277
0.439271 0.000221067 0.589776 0.00018545 -1.94364 -0.000348925
0.496431 0.000249833 0.735317 0.000231214 -1.7565 -0.000315328
0.547553 0.000275561 0.860835 0.000270682 -1.52831 -0.000274365
0.592165 0.000298012 0.964695 0.00030334 -1.25917 -0.000226048
0.630463 0.000317286 1.04576 0.00032883 -0.950657 -0.000170663
0.663199 0.00033376 1.10382 0.000347087 -0.605578 -0.000108714
0.690972 0.000347738 1.13936 0.000358262 -0.2275 -4.0841e-05
0.71436 0.000359508 1.15358 0.000362732 0.1578 2.83284e-05
0.734372 0.000369579 1.14758 0.000360847 0.554458 9.9537e-05
0.752166 0.000378534 1.12354 0.000353288 0.965971 0.000173412
0.768905 0.000386958 1.08387 0.000340814 1.38689 0.000248976
0.785796 0.000395459 1.03139 0.000324312 1.81072 0.000325064
0.80418 0.00040471 0.969328 0.000304796 2.22991 0.000400316
0.82531 0.000415344 0.90121 0.000283378 2.63659 0.000473325
0.850168 0.000427855 0.830764 0.000261226 3.02341 0.000542766
0.879363 0.000442547 0.761781 0.000239535 3.38358 0.000607425
0.913347 0.00045965 0.69783 0.000219426 3.71076 0.000666161
0.952471 0.000479339 0.642612 0.000202064 3.99693 0.000717535
0.997721 0.000502112 0.594988 0.000187088 4.10867 0.000737594
1.0483 0.000527567 0.562994 0.000177028 4.12959 0.000741349
1.10426 0.00055573 0.552577 0.000173753 4.11672 0.000739039
1.16429 0.000585941 0.561145 0.000176447 4.09871 0.000735806
1.22904 0.000618524 0.588692 0.000185109 4.10585 0.000737087
1.2978 0.000653129 0.637263 0.000200381 4.11189 0.000738172
1.37013 0.000689528 0.707631 0.000222508 4.06502 0.000729757
1.44612 0.000727772 0.800038 0.000251565 3.94756 0.000708671
1.5258 0.00076787 0.91137 0.000286572 3.77099 0.000676974
1.60892 0.000809701 1.03801 0.000326392 3.55906 0.000638927
1.69512 0.000853083 1.1776 0.000370286 3.32537 0.000596975
1.78393 0.000897779 1.3282 0.000417641 3.06727 0.000550641
1.87472 0.000943467 1.4868 0.000467511 2.77879 0.000498852
1.96665 0.000989733 1.64937 0.000518629 2.46457 0.000442443
2.0588 0.00103611 1.81183 0.000569715 2.13995 0.000384167
2.15007 0.00108204 1.97067 0.00061966 1.82009 0.000326745
2.23924 0.00112692 2.12269 0.000667462 1.51187 0.000271412
2.32501 0.00117008 2.26475 0.000712132 1.2162 0.000218333
2.40607 0.00121088 2.3938 0.000752709 0.93571 0.00016798
2.48096 0.00124856 2.50707 0.000788325 0.678347 0.000121778
2.51458 0.00126549 2.57362 0.000809252 0.464777 8.34374e-05
2.50713 0.00126173 2.59835 0.000817029 0.294448 5.28597e-05
2.50816 0.00126225 2.61122 0.000821075 0.159911 2.87074e-05
2.52474 0.0012706 2.62804 0.000826363 0.0553376 9.93428e-06
2.53696 0.00127675 2.63702 0.000829188 -0.0118116 -2.12044e-06
2.5346 0.00127556 2.6356 0.000828742 -0.0455032 -8.16879e-06
2.5323 0.0012744 2.62233 0.000824567 -0.041018 -7.36361e-06
2.52473 0.00127059 2.59495 0.00081596 0.00431342 7.7435e-07
2.50686 0.0012616 2.54939 0.000801632 0.0886469 1.5914e-05
2.47992 0.00124804 2.48598 0.000781693 0.207453 3.72421e-05
2.4473 0.00123162 2.40817 0.000757226 0.357618 6.42e-05
2.40931 0.00121251 2.31854 0.000729045 0.537379 9.64709e-05
2.36551 0.00119046 2.21908 0.000697769 0.743263 0.000133432
2.31766 0.00116638 2.11231 0.000664196 0.969064 0.000173968
2.26769 0.00114123 2.00093 0.000629175 1.20817 0.000216893
2.21646 0.00111545 1.88757 0.00059353 1.45533 0.000261263
2.16492 0.00108951 1.77535 0.000558241 1.70583 0.000306232
2.11466 0.00106422 1.66751 0.000524333 1.95424 0.000350828
2.06714 0.0010403 1.56669 0.000492631 2.19457 0.000393972
2.02342 0.0010183 1.47509 0.000463829 2.42108 0.000434636
1.98459 0.000998762 1.39507 0.000438666 2.62894 0.00047195
1.95175 0.000982237 1.32893 0.00041787 2.81412 0.000505194
1.92579 0.00096917 1.27844 0.000401992 2.97311 0.000533737
1.90732 0.000959874 1.24474 0.000391397 3.10279 0.000557018
1.89683 0.000954594 1.22868 0.000386349 3.20068 0.00057459
1.89357 0.000952954 1.23114 0.000387122 3.26517 0.000586168
1.89293 0.000952634 1.25366 0.000394201 3.29532 0.000591581
1.89513 0.00095374 1.29568 0.000407414 3.29181 0.00059095
1.90009 0.000956236 1.35596 0.00042637 3.25577 0.00058448
1.90771 0.00096007 1.43264 0.000450481 3.18915 0.000572519
1.91777 0.000965136 1.52348 0.000479043 3.09474 0.000555572
1.92999 0.000971284 1.62594 0.000511262 2.97618 0.000534287
1.94396 0.000978315 1.73715 0.000546233 2.83763 0.000509415
1.95918 0.000985974 1.85391 0.000582944 2.68362 0.000481766
1.975 0.000993936 1.97282 0.000620335 2.51893 0.000452201
1.99068 0.00100183 2.09053 0.00065735 2.34857 0.000421618
2.00544 0.00100926 2.20377 0.000692956 2.17759 0.000390923
2.01849 0.00101582 2.30935 0.000726155 2.01091 0.000361001
2.0291 0.00102116 2.40424 0.000755991 1.85316 0.000332681
2.0366 0.00102494 2.48567 0.000781596 1.70858 0.000306726
2.04047 0.00102688 2.55123 0.000802211 1.58093 0.00028381
2.04034 0.00102682 2.59892 0.000817208 1.47339 0.000264505
2.03603 0.00102465 2.62718 0.000826093 1.38844 0.000249255
2.02748 0.00102034 2.63491 0.000828525 1.3278 0.000238368
2.01469 0.00101391 2.62161 0.00082434 1.29237 0.000232008
1.99766 0.00100534 2.58735 0.000813568 1.28226 0.000230194
1.97628 0.000994579 2.53285 0.000796431 1.29674 0.000232793
1.95033 0.000981522 2.4594 0.000773338 1.33428 0.000239531
1.91953 0.000966021 2.36885 0.000744863 1.39261 0.000250003
1.88366 0.000947969 2.26343 0.000711714 1.46883 0.000263686
1.84267 0.00092734 2.14571 0.0006747 1.55951 0.000279965
1.79666 0.000904186 2.01851 0.000634701 1.66077 0.000298144
1.74588 0.000878629 1.88476 0.000592644 1.76846 0.000317477
1.69067 0.000850842 1.74748 0.000549479 1.87822 0.000337181
1.63141 0.000821021 1.60969 0.000506152 1.98564 0.000356465
1.56849 0.000789358 1.47432 0.000463586 2.08641 0.000374555
1.50226 0.000756026 1.34414 0.000422653 2.17638 0.000390706
1.43308 0.000721211 1.22166 0.00038414 2.25175 0.000404238
1.36145 0.000685161 1.10902 0.000348721 2.30917 0.000414544
1.28812 0.00064826 1.00788 0.000316919 2.34579 0.000421118
1.2142 0.000611057 0.919367 0.000289087 2.3594 0.000423562
1.14102 0.000574229 0.844084 0.000265415 2.34843 0.000421594
1.06998 0.000538474 0.782169 0.000245946 2.31198 0.00041505
1.0023 0.000504418 0.733392 0.000230608 2.24978 0.000403883
0.938937 0.000472528 0.697227 0.000219237 2.16219 0.000388159
0.880413 0.000443075 0.67291 0.00021159 2.05017 0.000368049
0.826894 0.000416142 0.659463 0.000207362 1.91522 0.000343823
0.778231 0.000391652 0.655714 0.000206183 1.75937 0.000315844
0.734033 0.000369408 0.660306 0.000207627 1.58509 0.000284557
0.693702 0.000349111 0.671734 0.000211221 1.39526 0.000250478
0.656476 0.000330377 0.688369 0.000216451 1.19307 0.000214181
0.621495 0.000312773 0.708487 0.000222777 0.981967 0.000176284
0.587891 0.000295861 0.730282 0.00022963 0.765582 0.000137438
0.554811 0.000279213 0.751908 0.000236431 0.547619 9.83092e-05
0.521342 0.00026237 0.771554 0.000242608 0.331772 5.95602e-05
0.486457 0.000244813 0.787504 0.000247624 0.121642 2.18373e-05
0.448976 0.000225951 0.798524 0.000251089 -0.0732215 -1.31448e-05
0.407756 0.000205207 0.803251 0.000252575 -0.256512 -4.60494e-05
0.361815 0.000182086 0.799456 0.000251382 -0.420513 -7.5491e-05
0.310437 0.00015623 0.786526 0.000247316 -0.567987 -0.000101966
0.253751 0.000127703 0.763883 0.000240196 -0.699334 -0.000125545
0.214271 0.000107834 0.72549 0.000228124 -0.812718 -0.0001459
0.173289 8.72093e-05 0.671354 0.000211101 -0.903325 -0.000162166
0.125133 6.29742e-05 0.605897 0.000190519 -0.972514 -0.000174587
0.0734349 3.69567e-05 0.531854 0.000167237 -1.0211 -0.000183309
0.0177372 8.92639e-06 0.448739 0.000141102 -1.0514 -0.000188749
-0.0429394 -2.16096e-05 0.355653 0.000111832 -1.06434 -0.000191071
-0.103648 -5.21619e-05 0.259572 8.16202e-05 -1.06226 -0.000190698
-0.161228 -8.11393e-05 0.1598 5.02475e-05 -1.04347 -0.000187325
-0.22134 -0.000111391 0.0528522 1.66189e-05 -1.01021 -0.000181355
-0.283916 -0.000142883 -0.0613374 -1.9287e-05 -0.963585 -0.000172984
-0.346531 -0.000174395 -0.178543 -5.61411e-05 -0.909202 -0.000163221
-0.407563 -0.00020511 -0.295432 -9.28961e-05 -0.849029 -0.000152419
-0.467948 -0.000235499 -0.410872 -0.000129195 -0.785581 -0.000141029
-0.527547 -0.000265493 -0.523749 -0.000164688 -0.721977 -0.00012961
-0.585114 -0.000294464 -0.632281 -0.000198815 -0.662001 -0.000118843
-0.640105 -0.000322138 -0.734727 -0.000231028 -0.608675 -0.00010927
-0.692569 -0.000348541 -0.829599 -0.00026086 -0.564287 -0.000101301
-0.742162 -0.000373499 -0.915474 -0.000287863 -0.531066 -9.53377e-05
-0.788337 -0.000396737 -0.991231 -0.000311684 -0.511212 -9.17734e-05
-0.830936 -0.000418176 -1.05615 -0.000332097 -0.50646 -9.09204e-05
-0.870026 -0.000437848 -1.10961 -0.000348908 -0.517926 -9.29787e-05
-0.905567 -0.000455735 -1.15104 -0.000361933 -0.546241 -9.80618e-05
-0.937529 -0.00047182 -1.1802 -0.000371103 -0.591626 -0.000106209
-0.966056 -0.000486176 -1.19738 -0.000376506 -0.653828 -0.000117376
-0.991388 -0.000498924 -1.20311 -0.000378309 -0.732071 -0.000131422
-1.01379 -0.000510201 -1.19804 -0.000376711 -0.825076 -0.000148119
-1.03364 -0.00052019 -1.18299 -0.000371982 -0.931145 -0.00016716
-1.05144 -0.000529144 -1.15912 -0.000364475 -1.04451 -0.000187512
-1.0678 -0.000537382 -1.12733 -0.00035448 -1.15745 -0.000207786
-1.08321 -0.000545136 -1.08997 -0.000342732 -1.27192 -0.000228336
-1.09841 -0.000552783 -1.04828 -0.000329622 -1.38926 -0.000249402
-1.11387 -0.000560562 -1.00394 -0.000315681 -1.508 -0.000270719
-1.13022 -0.000568792 -0.958885 -0.000301513 -1.62569 -0.000291846
-1.14798 -0.000577731 -0.91515 -0.000287761 -1.73867 -0.000312128
-1.16768 -0.000587643 -0.87463 -0.00027502 -1.84354 -0.000330954
-1.18979 -0.000598774 -0.839046 -0.000263831 -1.93807 -0.000347926
-1.21476 -0.000611339 -0.810045 -0.000254711 -2.02094 -0.000362802
-1.24287 -0.000625484 -0.789233 -0.000248167 -2.09077 -0.000375337
-1.27422 -0.000641262 -0.778106 -0.000244668 -2.14575 -0.000385208
-1.30874 -0.000658636 -0.77795 -0.000244619 -2.18415 -0.000392101
-1.34619 -0.000677479 -0.789794 -0.000248344 -2.20499 -0.000395842
-1.38618 -0.000697607 -0.814384 -0.000256076 -2.20806 -0.000396394
-1.4283 -0.000718807 -0.852081 -0.000267929 -2.1923 -0.000393564
-1.4721 -0.000740848 -0.902969 -0.00028393 -2.15797 -0.000387401
-1.51714 -0.000763512 -0.96671 -0.000303973 -2.10604 -0.000378078
-1.56297 -0.00078658 -1.04254 -0.000327818 -2.03829 -0.000365917
-1.60923 -0.000809859 -1.12932 -0.000355105 -1.9574 -0.000351395
-1.65557 -0.000833179 -1.22557 -0.00038537 -1.86649 -0.000335074
-1.70172 -0.000856404 -1.32951 -0.000418054 -1.76881 -0.00031754
-1.74746 -0.000879425 -1.4391 -0.000452513 -1.66772 -0.000299392
-1.79248 -0.000902079 -1.55216 -0.000488063 -1.56676 -0.000281267
-1.83546 -0.00092371 -1.6668 -0.000524112 -1.46963 -0.000263829
-1.87672 -0.000944473 -1.78056 -0.000559881 -1.38031 -0.000247795
-1.91644 -0.000964463 -1.8909 -0.000594577 -1.30253 -0.000233832
-1.95463 -0.000983683 -1.99542 -0.000627441 -1.23963 -0.00022254
-1.99124 -0.00100211 -2.09202 -0.000657817 -1.19458 -0.000214453
-2.02618 -0.00101969 -2.17897 -0.000685158 -1.16995 -0.000210032
-2.05923 -0.00103632 -2.25482 -0.000709009 -1.16786 -0.000209655
-2.08571 -0.00104965 -2.32044 -0.00072964 -1.18912 -0.000213473
-2.10855 -0.00106115 -2.3738 -0.000746419 -1.23529 -0.000221762
-2.12656 -0.00107021 -2.41419 -0.00075912 -1.30678 -0.000234594
-2.13994 -0.00107694 -2.44148 -0.000767701 -1.403 -0.000251868
-2.1492 -0.0010816 -2.45585 -0.00077222 -1.52295 -0.000273401
-2.15404 -0.00108404 -2.45751 -0.000772742 -1.66532 -0.00029896
-2.15404 -0.00108404 -2.44667 -0.000769333 -1.82843 -0.000328242
-2.14932 -0.00108167 -2.42426 -0.000762288 -2.0096 -0.000360766
-2.14048 -0.00107721 -2.39153 -0.000751995 -2.1993 -0.000394821
-2.12815 -0.00107101 -2.34905 -0.000738636 -2.38399 -0.000427976
-2.11251 -0.00106314 -2.29995 -0.000723199 -2.57069 -0.000461493
-2.09422 -0.00105393 -2.24536 -0.000706034 -2.76061 -0.000495588
-2.07365 -0.00104358 -2.18708 -0.000687709 -2.95218 -0.000529979
-2.05142 -0.00103239 -2.12712 -0.000668854 -3.14187 -0.000564033
-2.028 -0.00102061 -2.06755 -0.000650122 -3.3243 -0.000596782
-2.00403 -0.00100855 -2.01022 -0.000632094 -3.4946 -0.000627356
-1.98009 -0.000996499 -1.95671 -0.000615269 -3.6499 -0.000655234
-1.95672 -0.000984735 -1.90844 -0.000600092 -3.78859 -0.000680133
-1.93337 -0.000972985 -1.86704 -0.000587073 -3.90877 -0.000701707
-1.90776 -0.000960096 -1.83449 -0.000576839 -4.00748 -0.000719429
-1.87975 -0.000945998 -1.81169 -0.000569668 -4.08223 -0.000732847
-1.84897 -0.000930511 -1.79905 -0.000565694 -4.13149 -0.00074169
-1.81519 -0.00091351 -1.79651 -0.000564896 -4.1551 -0.00074593
-1.77835 -0.000894971 -1.80352 -0.000567102 -4.1528 -0.000745516
-1.73872 -0.000875028 -1.81899 -0.000571965 -4.12317 -0.000740197
-1.69678 -0.000853921 -1.84152 -0.000579049 -4.0664 -0.000730006
-1.65304 -0.000831906 -1.86927 -0.000587774 -3.98393 -0.000715201
-1.60786 -0.000809171 -1.90012 -0.000597474 -3.87834 -0.000696244
-1.56144 -0.000785808 -1.93185 -0.000607452 -3.7529 -0.000673725
-1.51382 -0.000761845 -1.96223 -0.000617006 -3.61082 -0.000648218
-1.46505 -0.000737301 -1.989 -0.000625423 -3.45499 -0.000620244
-1.41517 -0.000712199 -2.00987 -0.000631987 -3.28831 -0.000590321
-1.36415 -0.000686522 -2.02267 -0.000636012 -3.11396 -0.000559022
-1.31178 -0.000660163 -2.02547 -0.00063689 -2.93531 -0.000526951
-1.25769 -0.000632945 -2.01662 -0.000634108 -2.7555 -0.000494671
-1.20157 -0.000604702 -1.99476 -0.000627235 -2.57713 -0.00046265
-1.14325 -0.00057535 -1.95878 -0.000615921 -2.40231 -0.000431266
-1.08275 -0.000544904 -1.90783 -0.0005999 -2.23284 -0.000400843
-1.02025 -0.000513449 -1.8414 -0.000579013 -2.07028 -0.000371659
-0.955965 -0.000481097 -1.75939 -0.000553224 -1.91575 -0.000343917
-0.890076 -0.000447939 -1.6621 -0.000522632 -1.76981 -0.000317718
-0.822667 -0.000414014 -1.55027 -0.00048747 -1.6324 -0.000293051
-0.753675 -0.000379293 -1.4251 -0.00044811 -1.50298 -0.000269817
-0.68293 -0.00034369 -1.28814 -0.000405044 -1.38063 -0.000247852
-0.610221 -0.000307099 -1.14127 -0.000358862 -1.26412 -0.000226937
-0.53537 -0.000269429 -0.986589 -0.000310224 -1.15194 -0.000206798
-0.458307 -0.000230647 -0.826332 -0.000259833 -1.04228 -0.000187111
-0.379136 -0.000190804 -0.662779 -0.000208405 -0.933179 -0.000167526
-0.298147 -0.000150045 -0.49819 -0.000156651 -0.822657 -0.000147684
-0.215752 -0.000108579 -0.33476 -0.000105262 -0.7088 -0.000127245
-0.132432 -6.66478e-05 -0.174581 -5.48954e-05 -0.589815 -0.000105884
-0.0491265 -2.47233e-05 -0.0195152 -6.13639e-06 -0.463926 -8.32846e-05
0.0274572 1.3818e-05 0.122083 3.83878e-05 -0.327717 -5.88322e-05
0.0978707 4.92543e-05 0.248247 7.8059e-05 -0.181119 -3.25148e-05
0.167894 8.44939e-05 0.365217 0.000114839 -0.0305802 -5.48979e-06
0.222154 0.000111801 0.479409 0.000150746 0.104549 1.87687e-05
0.273101 0.00013744 0.584352 0.000183744 0.244889 4.39628e-05
0.319083 0.000160581 0.677506 0.000213036 0.392597 7.04795e-05
0.361041 0.000181697 0.757614 0.000238225 0.549741 9.86902e-05
0.399627 0.000201116 0.825159 0.000259464 0.715553 0.000128457
0.434509 0.000218671 0.88047 0.000276856 0.887779 0.000159375
0.465535 0.000234284 0.923424 0.000290362 1.06373 0.000190961
0.493319 0.000248267 0.953944 0.000299959 1.24176 0.000222923
0.518433 0.000260906 0.972346 0.000305745 1.42123 0.000255141
0.541205 0.000272366 0.979479 0.000307988 1.60099 0.000287411
0.562159 0.000282912 0.976549 0.000307067 1.77837 0.000319256
0.582053 0.000292923 0.964744 0.000303355 1.94987 0.000350044
0.60157 0.000302745 0.94517 0.0002972 2.11248 0.000379236
0.621281 0.000312665 0.919176 0.000289027 2.26411 0.000406456
0.641782 0.000322982 0.888481 0.000279375 2.40286 0.000431364
0.663683 0.000334004 0.854902 0.000268816 2.52626 0.000453517
0.68752 0.000346 0.820131 0.000257883 2.63143 0.000472397
0.713762 0.000359207 0.785799 0.000247087 2.71577 0.000487538
0.742819 0.00037383 0.753593 0.000236961 2.77743 0.000498608
0.774991 0.000390021 0.725206 0.000228035 2.81514 0.000505378
0.810419 0.00040785 0.702196 0.000220799 2.82782 0.000507654
0.849104 0.000427319 0.685857 0.000215662 2.8123 0.000504867
0.890912 0.000448359 0.677373 0.000212994 2.76683 0.000496705
0.935639 0.000470868 0.677746 0.000213111 2.69107 0.000483105
0.983009 0.000494708 0.687658 0.000216228 2.58594 0.000464231
1.03273 0.000519732 0.707426 0.000222444 2.45323 0.000440407
1.08452 0.000545795 0.737051 0.000231759 2.29506 0.000412012
1.13811 0.000572763 0.776229 0.000244078 2.11374 0.000379461
1.19325 0.000600512 0.824338 0.000259206 1.912 0.000343245
1.24972 0.000628932 0.880444 0.000276848 1.69329 0.000303982
1.30728 0.000657901 0.94335 0.000296628 1.46169 0.000262405
1.36566 0.00068728 1.01168 0.000318113 1.22157 0.000219298
1.42451 0.000716896 1.08393 0.000340832 0.977352 0.000175455
1.48343 0.000746547 1.15854 0.000364291 0.733445 0.000131669
1.54195 0.000775998 1.2339 0.000387988 0.494331 8.8743e-05
1.59958 0.000805002 1.30842 0.00041142 0.264553 4.7493e-05
1.65582 0.000833303 1.38055 0.000434103 0.0485592 8.71741e-06
1.71011 0.000860626 1.4493 0.000455719 -0.147914 -2.65537e-05
1.76208 0.000886783 1.51284 0.000475698 -0.322573 -5.79087e-05
1.81125 0.000911525 1.56988 0.000493633 -0.471287 -8.46061e-05
1.85738 0.000934741 1.61973 0.00050931 -0.593232 -0.000106498
1.9001 0.000956241 1.66187 0.000522561 -0.687304 -0.000123386
1.93926 0.000975951 1.69558 0.00053316 -0.751056 -0.00013483
1.97476 0.000993817 1.72043 0.000540975 -0.782029 -0.000140391
2.00657 0.00100982 1.73651 0.000546031 -0.778369 -0.000139734
2.03471 0.00102399 1.74433 0.000548489 -0.73881 -0.000132632
2.05929 0.00103636 1.74441 0.000548515 -0.664269 -0.00011925
2.08044 0.001047 1.73748 0.000546336 -0.556135 -9.98381e-05
2.09835 0.00105601 1.72453 0.000542263 -0.415962 -7.46741e-05
2.11324 0.00106351 1.7068 0.000536689 -0.24596 -4.4155e-05
2.1255 0.00106968 1.68569 0.000530051 -0.0490258 -8.80118e-06
2.13562 0.00107477 1.66219 0.000522662 0.144641 2.59661e-05
2.14395 0.00107896 1.63832 0.000515156 0.352389 6.32614e-05
2.15112 0.00108257 1.61532 0.000507922 0.573843 0.000103017
2.15768 0.00108587 1.5948 0.00050147 0.806689 0.000144818
2.16351 0.00108881 1.57857 0.000496368 1.0474 0.000188031
2.15243 0.00108323 1.57392 0.000494904 1.28922 0.000231443
2.1446 0.00107929 1.57475 0.000495167 1.53182 0.000274994
2.13861 0.00107627 1.583 0.000497761 1.77008 0.000317768
2.13606 0.00107499 1.59874 0.000502709 2.00228 0.000359451
2.13718 0.00107556 1.62262 0.000510219 2.22619 0.000399648
2.14191 0.00107794 1.65516 0.000520451 2.43966 0.000437971
2.15042 0.00108222 1.69674 0.000533525 2.64001 0.000473937
2.16296 0.00108853 1.74727 0.000549414 2.82498 0.000507143
2.17946 0.00109683 1.80623 0.000567952 2.99343 0.000537384
2.19892 0.00110663 1.87197 0.000588623 3.14534 0.000564655
2.22001 0.00111724 1.94411 0.000611309 3.28037 0.000588896
2.24419 0.00112941 2.02235 0.000635911 3.39778 0.000609973
2.27171 0.00114326 2.10618 0.000662269 3.49694 0.000627775
2.30075 0.00115787 2.1943 0.000689978 3.57856 0.000642428
2.32922 0.0011722 2.2861 0.000718843 3.6435 0.000654087
2.35744 0.0011864 2.38051 0.000748531 3.69279 0.000662935
2.38478 0.00120016 2.47593 0.000778532 3.72759 0.000669182
2.41019 0.00121295 2.57051 0.000808273 3.74931 0.000673081
2.43305 0.00122445 2.66274 0.000837274 3.75959 0.000674926
2.4531 0.00123455 2.75109 0.000865056 3.76021 0.000675037
2.47004 0.00124307 2.83373 0.00089104 3.75277 0.000673702
2.48366 0.00124993 2.90873 0.000914624 3.73905 0.00067124
2.49398 0.00125512 2.9744 0.000935273 3.72083 0.000667968
2.50107 0.00125868 3.02924 0.000952517 3.69983 0.000664197
2.50499 0.00126066 3.07191 0.000965934 3.67764 0.000660214
2.50587 0.0012611 3.10125 0.000975161 3.65553 0.000656246
2.50394 0.00126013 3.11639 0.000979919 3.63444 0.000652458
2.4991 0.0012577 3.1165 0.000979957 3.61502 0.000648973
2.49153 0.00125389 3.10126 0.000975162 3.59758 0.000645842
2.48164 0.00124891 3.0708 0.000965586 3.58201 0.000643047
2.4698 0.00124295 3.02575 0.00095142 3.5678 0.000640496
2.45603 0.00123602 2.96705 0.000932961 3.55406 0.00063803
2.4401 0.001228 2.89603 0.000910631 3.53959 0.000635432
2.42157 0.00121868 2.81444 0.000884977 3.52288 0.000632432
2.39996 0.0012078 2.72426 0.000856621 3.50225 0.000628728
2.37477 0.00119512 2.62757 0.000826215 3.47591 0.000624
2.34569 0.00118049 2.52645 0.000794419 3.44205 0.000617922
2.31266 0.00116387 2.42295 0.000761876 3.3989 0.000610174
2.27584 0.00114534 2.31899 0.000729186 3.34479 0.000600461
2.23547 0.00112502 2.21633 0.000696906 3.27827 0.00058852
2.19184 0.00110306 2.11657 0.000665538 3.19815 0.000574135
2.14524 0.00107961 2.02112 0.000635524 3.10348 0.00055714
2.09591 0.00105478 1.93116 0.000607237 2.99368 0.000537429
2.04404 0.00102868 1.84763 0.000580971 2.86851 0.000514959
1.98976 0.00100136 1.7712 0.000556937 2.72813 0.000489758
1.93311 0.000972856 1.70226 0.000535259 2.5731 0.000461926
1.87413 0.000943174 1.64091 0.00051597 2.40436 0.000431635
1.81279 0.000912301 1.58698 0.000499012 2.22326 0.000399123
1.74902 0.00088021 1.54 0.000484239 2.03148 0.000364695
1.68275 0.00084686 1.49924 0.000471424 1.83105 0.000328713
1.6139 0.000812208 1.46375 0.000460264 1.62427 0.000291591
1.54238 0.000776217 1.43235 0.00045039 1.41366 0.000253781
1.46818 0.000738875 1.40369 0.000441379 1.2019 0.000215767
1.39135 0.00070021 1.37628 0.00043276 0.991786 0.000178047
1.31206 0.000660308 1.34853 0.000424034 0.786108 0.000141123
1.20992 0.000608905 1.31089 0.000412197 0.539417 9.68369e-05
1.1051 0.000556149 1.26707 0.00039842 0.308962 5.54653e-05
0.99826 0.000502383 1.21432 0.000381832 0.0991807 1.7805e-05
0.889694 0.000447746 1.15078 0.000361853 -0.0818803 -1.46993e-05
0.779173 0.000392125 1.0748 0.000337962 -0.235172 -4.22184e-05
0.666084 0.000335212 0.985303 0.00030982 -0.358957 -6.44404e-05
0.549753 0.000276668 0.882902 0.000277621 -0.456262 -8.19087e-05
0.42985 0.000216326 0.768081 0.000241516 -0.52913 -9.49901e-05
0.306476 0.000154237 0.641508 0.000201716 -0.576205 -0.000103441
0.179785 9.04786e-05 0.504788 0.000158726 -0.599319 -0.000107591
0.0631431 3.17773e-05 0.358136 0.000112613 -0.602945 -0.000108242
-0.025903 -1.30359e-05 0.196094 6.16601e-05 -0.588295 -0.000105611
-0.115045 -5.78974e-05 0.042333 1.33112e-05 -0.566212 -0.000101647
-0.201066 -0.000101188 -0.111313 -3.50013e-05 -0.537033 -9.64088e-05
-0.289843 -0.000145866 -0.261854 -8.23376e-05 -0.506391 -9.09079e-05
-0.378291 -0.000190378 -0.40497 -0.000127339 -0.480084 -8.61853e-05
-0.463409 -0.000233215 -0.535142 -0.000168271 -0.46275 -8.30735e-05
-0.546679 -0.000275121 -0.65269 -0.000205233 -0.457766 -8.21787e-05
-0.626679 -0.000315381 -0.756809 -0.000237972 -0.469037 -8.42022e-05
-0.701772 -0.000353173 -0.845476 -0.000265852 -0.49883 -8.95505e-05
-0.772201 -0.000388617 -0.918394 -0.000288781 -0.548102 -9.8396e-05
-0.837408 -0.000421433 -0.97577 -0.000306822 -0.613328 -0.000110105
-0.89688 -0.000451363 -1.01843 -0.000320235 -0.69176 -0.000124186
-0.951134 -0.000478666 -1.04738 -0.000329338 -0.78639 -0.000141174
-1.00061 -0.000503568 -1.06364 -0.000334453 -0.89621 -0.000160889
-1.04586 -0.000526339 -1.06908 -0.000336163 -1.01928 -0.000182982
-1.08769 -0.000547389 -1.06607 -0.000335216 -1.15164 -0.000206744
-1.12682 -0.000567081 -1.05684 -0.000332313 -1.28963 -0.000231516
-1.16393 -0.000585756 -1.04383 -0.000328223 -1.43012 -0.000256738
-1.19977 -0.000603793 -1.02984 -0.000323824 -1.56981 -0.000281814
-1.23504 -0.000621547 -1.01756 -0.000319963 -1.70461 -0.000306014
-1.27045 -0.000639364 -1.00942 -0.000317402 -1.83061 -0.000328633
-1.30669 -0.000657605 -1.00764 -0.000316845 -1.94472 -0.000349118
-1.34445 -0.000676607 -1.01421 -0.000318909 -2.04452 -0.000367036
-1.38433 -0.000696675 -1.03067 -0.000324084 -2.1278 -0.000381985
-1.42687 -0.000718084 -1.0581 -0.000332711 -2.19278 -0.00039365
-1.4725 -0.000741048 -1.09718 -0.000344998 -2.23862 -0.000401881
-1.52138 -0.000765646 -1.14817 -0.000361033 -2.2654 -0.000406688
-1.57332 -0.000791784 -1.21099 -0.000380785 -2.27379 -0.000408193
-1.62785 -0.000819229 -1.2851 -0.000404088 -2.26381 -0.000406402
-1.6843 -0.000847637 -1.3696 -0.000430659 -2.23665 -0.000401527
-1.74186 -0.000876608 -1.46321 -0.000460092 -2.19521 -0.000394087
-1.79969 -0.000905709 -1.56418 -0.000491841 -2.14337 -0.00038478
-1.85692 -0.00093451 -1.67042 -0.000525249 -2.08538 -0.000374371
-1.9128 -0.000962631 -1.77957 -0.00055957 -2.02564 -0.000363645
-1.96675 -0.000989785 -1.88899 -0.000593975 -1.96863 -0.000353412
-2.01842 -0.00101579 -1.99588 -0.000627585 -1.91907 -0.000344513
-2.06759 -0.00104053 -2.09747 -0.000659529 -1.88141 -0.000337754
-2.11411 -0.00106394 -2.1912 -0.000689004 -1.85962 -0.000333841
-2.1578 -0.00108593 -2.2749 -0.000715322 -1.85689 -0.000333351
-2.19845 -0.00110639 -2.34684 -0.000737942 -1.87573 -0.000336733
-2.23577 -0.00112517 -2.40587 -0.000756503 -1.91779 -0.000344284
-2.26939 -0.00114209 -2.45146 -0.000770839 -1.98373 -0.000356122
-2.29901 -0.00115699 -2.48365 -0.00078096 -2.07316 -0.000372177
-2.32437 -0.00116976 -2.50299 -0.000787044 -2.18475 -0.000392209
-2.34537 -0.00118033 -2.51029 -0.000789337 -2.30774 -0.000414288
-2.36192 -0.00118866 -2.50715 -0.000788349 -2.4381 -0.000437691
-2.37413 -0.0011948 -2.49548 -0.000784682 -2.57972 -0.000463114
-2.38202 -0.00119877 -2.47701 -0.000778875 -2.73074 -0.000490226
-2.38561 -0.00120058 -2.45367 -0.000771535 -2.88791 -0.000518441
-2.38509 -0.00120032 -2.42767 -0.000763358 -3.04518 -0.000546674
-2.37268 -0.00119407 -2.40428 -0.000756004 -3.1972 -0.000573966
-2.35827 -0.00118682 -2.38143 -0.00074882 -3.34314 -0.000600165
-2.34364 -0.00117946 -2.36032 -0.000742183 -3.47928 -0.000624606
-2.33045 -0.00117282 -2.34216 -0.000736472 -3.60158 -0.00064656
-2.3113 -0.00116318 -2.33041 -0.000732777 -3.70631 -0.000665362
-2.28412 -0.0011495 -2.32659 -0.000731574 -3.79197 -0.00068074
-2.24943 -0.00113205 -2.3305 -0.000732805 -3.85724 -0.000692457
-2.20765 -0.00111102 -2.34081 -0.000736048 -3.90115 -0.00070034
-2.15927 -0.00108667 -2.356 -0.000740824 -3.92374 -0.000704396
-2.1052 -0.00105946 -2.37415 -0.000746531 -3.92561 -0.000704731
-2.04642 -0.00102988 -2.39242 -0.000752274 -3.90651 -0.000701302
-1.98411 -0.000998522 -2.40767 -0.00075707 -3.86775 -0.000694344
-1.91951 -0.000966012 -2.4169 -0.000759974 -3.81173 -0.000684287
-1.8536 -0.000932838 -2.41725 -0.000760082 -3.74124 -0.000671631
-1.7869 -0.000899273 -2.40612 -0.000756582 -3.65875 -0.000656824
-1.71939 -0.0008653 -2.38154 -0.000748853 -3.56631 -0.000640229
-1.65038 -0.000830567 -2.34228 -0.000736507 -3.46564 -0.000622155
-1.57876 -0.000794525 -2.28772 -0.000719353 -3.3582 -0.000602869
-1.50348 -0.000756638 -2.21771 -0.000697339 -3.24502 -0.000582551
-1.42383 -0.000716554 -2.13246 -0.000670532 -3.12662 -0.000561294
-1.33958 -0.000674155 -2.03249 -0.000639099 -3.00307 -0.000539115
-1.25072 -0.000629437 -1.9187 -0.000603318 -2.87415 -0.000515971
-1.15722 -0.00058238 -1.79234 -0.000563586 -2.73927 -0.000491757
-1.05899 -0.000532944 -1.65505 -0.000520415 -2.59754 -0.000466313
-0.955972 -0.000481101 -1.50869 -0.000474394 -2.4478 -0.000439432
-0.848117 -0.000426822 -1.35531 -0.000426165 -2.28883 -0.000410893
-0.735247 -0.000370019 -1.19704 -0.0003764 -2.11939 -0.000380476
-0.616984 -0.000310503 -1.03608 -0.000325786 -1.93838 -0.000347981
-0.492894 -0.000248053 -0.874495 -0.000274977 -1.74489 -0.000313246
-0.362905 -0.000182635 -0.714001 -0.000224511 -1.53838 -0.000276172
-0.227637 -0.00011456 -0.555772 -0.000174757 -1.31877 -0.000236747
-0.0882407 -4.44079e-05 -0.400469 -0.000125924 -1.08648 -0.000195046
0.0202705 1.02013e-05 -0.239429 -7.52864e-05 -0.844427 -0.000151593
0.100413 5.05335e-05 -0.0818212 -2.57279e-05 -0.589441 -0.000105817
0.177836 8.94975e-05 0.0715118 2.24862e-05 -0.32339 -5.80553e-05
0.254957 0.000128309 0.20814 6.54477e-05 -0.0483998 -8.68879e-06
0.328616 0.000165379 0.33582 0.000105596 0.184824 3.31798e-05
0.398419 0.000200508 0.456598 0.000143573 0.419411 7.52933e-05
0.464475 0.000233751 0.5692 0.00017898 0.659278 0.000118354
0.525511 0.000264468 0.671505 0.000211149 0.903447 0.000162188
0.58124 0.000292514 0.764355 0.000240345 1.14824 0.000206134
0.631967 0.000318043 0.848546 0.000266818 1.38712 0.000249018
0.677586 0.000341001 0.923219 0.000290298 1.61917 0.000290676
0.718487 0.000361585 0.988041 0.000310681 1.84398 0.000331034
0.755232 0.000380077 1.04373 0.000328193 2.05881 0.000369601
0.788198 0.000396667 1.09079 0.00034299 2.25873 0.00040549
0.817917 0.000411624 1.12942 0.000355135 2.44054 0.000438128
0.84513 0.000425319 1.16002 0.000364757 2.60292 0.00046728
0.870592 0.000438133 1.18328 0.000372073 2.74411 0.000492627
0.895075 0.000450454 1.19991 0.0003773 2.86096 0.000513603
0.919237 0.000462614 1.21058 0.000380655 2.95077 0.000529725
0.943452 0.0004748 1.21617 0.000382413 3.01234 0.00054078
0.967828 0.000487068 1.21776 0.000382915 3.04501 0.000546643
0.992369 0.000499418 1.21638 0.000382481 3.04714 0.000547027
1.01716 0.000511897 1.21278 0.000381348 3.01547 0.000541342
1.04244 0.000524618 1.2077 0.000379752 2.94936 0.000529472
1.06849 0.000537727 1.20167 0.000377853 2.85015 0.000511663
1.09545 0.000551293 1.19503 0.000375765 2.71992 0.000488283
1.12314 0.000565231 1.18817 0.000373611 2.56076 0.000459712
1.15116 0.000579332 1.18148 0.000371505 2.37513 0.000426386
1.17895 0.000593319 1.17514 0.000369513 2.16635 0.000388905
1.20593 0.000606895 1.16919 0.00036764 1.93848 0.000347998
1.23146 0.000619741 1.1635 0.000365851 1.69584 0.000304439
1.25482 0.000631497 1.15784 0.000364072 1.44285 0.000259022
1.27527 0.000641788 1.15185 0.00036219 1.18423 0.000212594
1.29207 0.000650246 1.14503 0.000360043 0.92499 0.000166055
1.30457 0.000656538 1.13674 0.000357437 0.67019 0.000120313
1.31167 0.000660109 1.12646 0.000354205 0.424607 7.6226e-05
1.30934 0.000658935 1.11479 0.000350535 0.192453 3.45495e-05
1.29716 0.000652805 1.10013 0.000345927 -0.0215312 -3.8653e-06
1.27574 0.000642029 1.08117 0.000339965 -0.211401 -3.7951e-05
1.24716 0.000627643 1.0551 0.000331767 -0.372569 -6.68841e-05
1.21319 0.000610549 1.02142 0.000321175 -0.505573 -9.07611e-05
1.17517 0.000591413 0.979446 0.000307978 -0.611274 -0.000109737
1.13437 0.000570881 0.928503 0.000291959 -0.686714 -0.00012328
1.09152 0.000549316 0.868779 0.00027318 -0.7306 -0.000131158
1.04686 0.000526839 0.801493 0.000252022 -0.744075 -0.000133577
1.00039 0.000503453 0.728326 0.000229015 -0.729035 -0.000130877
0.952024 0.000479114 0.651038 0.000204713 -0.686778 -0.000123291
0.901847 0.000453862 0.571685 0.000179761 -0.619638 -0.000111238
0.850287 0.000427914 0.492594 0.000154892 -0.531633 -9.54395e-05
0.798039 0.00040162 0.415974 0.000130799 -0.428149 -7.68618e-05
0.745822 0.000375341 0.343876 0.000108129 -0.314057 -5.63799e-05
0.69422 0.000349372 0.278332 8.75191e-05 -0.193437 -3.4726e-05
0.643677 0.000323936 0.221246 6.95687e-05 -0.0704769 -1.26521e-05
0.594491 0.000299183 0.174102 5.47449e-05 0.0456924 8.20275e-06
0.546638 0.0002751 0.138318 4.34929e-05 0.145982 2.62069e-05
0.499725 0.000251491 0.114751 3.60824e-05 0.237853 4.26996e-05
0.452943 0.000227948 0.103865 3.26595e-05 0.320502 5.75369e-05
0.405268 0.000203955 0.105663 3.32247e-05 0.391614 7.0303e-05
0.355611 0.000178964 0.119527 3.75841e-05 0.449493 8.06935e-05
0.302956 0.000152465 0.144136 4.53224e-05 0.494102 8.87018e-05
0.246434 0.00012402 0.177498 5.58127e-05 0.526912 9.45919e-05
0.185312 9.32599e-05 0.217062 6.82533e-05 0.549142 9.85828e-05
0.118927 5.98511e-05 0.25983 8.17013e-05 0.562017 0.000100894
0.0528387 2.65915e-05 0.301146 9.46927e-05 0.567476 0.000101874
0.017489 8.80146e-06 0.327976 0.000103129 0.569953 0.000102319
-0.0276007 -1.38903e-05 0.347959 0.000109413 0.568912 0.000102132
-0.0747295 -3.76083e-05 0.363271 0.000114227 0.564445 0.00010133
-0.125064 -6.29398e-05 0.369699 0.000116249 0.558378 0.000100241
-0.180194 -9.06843e-05 0.363027 0.00011415 0.551482 9.90027e-05
-0.238912 -0.000120235 0.342447 0.000107679 0.544849 9.78119e-05
-0.300626 -0.000151293 0.307829 9.6794e-05 0.538764 9.67197e-05
-0.365747 -0.000184066 0.257936 8.11056e-05 0.532466 9.5589e-05
-0.433933 -0.000218381 0.192564 6.055e-05 0.524643 9.41845e-05
-0.505017 -0.000254154 0.112571 3.53968e-05 0.514238 9.23166e-05
-0.57901 -0.000291392 0.0190826 6.00036e-06 0.499587 8.96866e-05
-0.655426 -0.000329849 -0.0884787 -2.78213e-05 0.478132 8.58349e-05
-0.733623 -0.000369202 -0.211003 -6.6348e-05 0.447759 8.03823e-05
-0.813081 -0.00040919 -0.342442 -0.000107678 0.4054 7.2778e-05
-0.893213 -0.000449517 -0.48019 -0.000150991 0.348717 6.26022e-05
-0.973457 -0.000489901 -0.622211 -0.000195649 0.274796 4.93317e-05
-1.05332 -0.000530092 -0.766466 -0.000241008 0.180842 3.24649e-05
-1.13228 -0.00056983 -0.910287 -0.000286232 0.0643785 1.15573e-05
-1.20983 -0.000608859 -1.05092 -0.000330453 -0.0784171 -1.40775e-05
-1.28532 -0.00064685 -1.18688 -0.000373203 -0.239156 -4.29336e-05
-1.3582 -0.000683524 -1.31666 -0.000414011 -0.423547 -7.60357e-05
-1.4278 -0.000718553 -1.43862 -0.000452362 -0.632542 -0.000113555
-1.49361 -0.000751674 -1.55189 -0.000487979 -0.865861 -0.00015544
-1.55503 -0.000782582 -1.65617 -0.000520767 -1.12014 -0.000201088
-1.61154 -0.000811023 -1.75125 -0.000550665 -1.39269 -0.000250018
-1.66284 -0.000836841 -1.83713 -0.000577668 -1.68115 -0.000301802
-1.70889 -0.000860015 -1.91414 -0.000601884 -1.98255 -0.00035591
-1.74992 -0.00088066 -1.98285 -0.000623489 -2.29231 -0.000411519
-1.78631 -0.000898978 -2.04389 -0.000642683 -2.6055 -0.000467743
-1.81859 -0.000915221 -2.09802 -0.000659702 -2.91758 -0.000523768
-1.84726 -0.000929648 -2.14616 -0.000674841 -3.22415 -0.000578803
-1.87275 -0.000942479 -2.18938 -0.000688431 -3.52023 -0.000631957
-1.89543 -0.000953894 -2.22874 -0.000700808 -3.80073 -0.000682311
-1.91563 -0.000964059 -2.26527 -0.000712293 -4.061 -0.000729037
-1.93371 -0.000973158 -2.29985 -0.000723168 -4.29709 -0.000771419
-1.95011 -0.000981411 -2.33319 -0.00073365 -4.50534 -0.000808804
-1.96604 -0.000989426 -2.36141 -0.000742524 -4.54619 -0.000816137
-1.98083 -0.000996871 -2.39243 -0.000752279 -4.53023 -0.000813273
-1.99594 -0.00100448 -2.42242 -0.000761708 -4.51821 -0.000811114
-2.01094 -0.00101202 -2.44959 -0.000770252 -4.53079 -0.000813373
-2.02659 -0.0010199 -2.47631 -0.000778652 -4.55098 -0.000816998
-2.04271 -0.00102801 -2.503 -0.000787045 -4.55027 -0.000816871
-2.05911 -0.00103626 -2.52743 -0.000794727 -4.51912 -0.000811277
-2.07538 -0.00104445 -2.54838 -0.000801314 -4.46085 -0.000800818
-2.09083 -0.00105223 -2.56635 -0.000806966 -4.3757 -0.000785532
-2.10447 -0.00105909 -2.58101 -0.000811575 -4.25676 -0.000764178
-2.11518 -0.00106448 -2.59134 -0.000814825 -4.10521 -0.000736973
-2.12039 -0.0010671 -2.5972 -0.000816665 -3.93135 -0.000705761
-2.11943 -0.00106662 -2.59793 -0.000816895 -3.74129 -0.000671641
-2.11195 -0.00106286 -2.59207 -0.000815052 -3.53525 -0.000634652
-2.09802 -0.00105585 -2.57775 -0.000810551 -3.31478 -0.000595073
-2.07831 -0.00104593 -2.55358 -0.00080295 -3.08676 -0.000554139
-2.05347 -0.00103343 -2.51838 -0.000791882 -2.85776 -0.000513029
-2.02399 -0.00101859 -2.47112 -0.000777022 -2.63058 -0.000472244
-1.99026 -0.00100162 -2.41127 -0.000758202 -2.40655 -0.000432027
-1.95242 -0.000982571 -2.33887 -0.000735438 -2.18888 -0.000392951
-1.91027 -0.000961359 -2.25446 -0.000708893 -1.9812 -0.000355668
-1.86335 -0.000937748 -2.15902 -0.000678885 -1.78518 -0.000320478
-1.81097 -0.000911384 -2.05409 -0.00064589 -1.60074 -0.000287366
-1.75217 -0.000881795 -1.94157 -0.00061051 -1.42795 -0.000256348
-1.68597 -0.000848478 -1.82355 -0.0005734 -1.26732 -0.000227511
-1.6117 -0.000811102 -1.70206 -0.000535199 -1.11878 -0.000200845
-1.5294 -0.000769685 -1.5789 -0.00049647 -0.981333 -0.00017617
-1.43977 -0.000724578 -1.45555 -0.000457685 -0.853855 -0.000153285
-1.34391 -0.000676335 -1.33323 -0.000419221 -0.735614 -0.000132058
-1.24312 -0.000625609 -1.21289 -0.000381383 -0.625946 -0.000112371
-1.13875 -0.000573084 -1.09535 -0.000344424 -0.523843 -9.40409e-05
-1.03215 -0.00051944 -0.981262 -0.000308549 -0.428137 -7.68598e-05
-0.924613 -0.00046532 -0.871122 -0.000273916 -0.337864 -6.06537e-05
-0.817259 -0.000411293 -0.765332 -0.000240652 -0.252261 -4.52862e-05
-0.710999 -0.000357816 -0.664234 -0.000208862 -0.170535 -3.06147e-05
-0.606377 -0.000305165 -0.568158 -0.000178652 -0.0917965 -1.64794e-05
-0.503458 -0.00025337 -0.477756 -0.000150226 -0.0243585 -4.37288e-06
-0.402108 -0.000202364 -0.392912 -0.000123548 0.0296489 5.32262e-06
-0.302198 -0.000152084 -0.313747 -9.86548e-05 0.0812561 1.45872e-05
-0.204184 -0.000102757 -0.240227 -7.55373e-05 0.133824 2.40242e-05
-0.109039 -5.48746e-05 -0.171592 -5.39557e-05 0.187396 3.36416e-05
-0.0188034 -9.46295e-06 -0.106924 -3.36214e-05 0.23939 4.29755e-05
0.0463428 2.33224e-05 -0.0438888 -1.38004e-05 0.289832 5.20311e-05
0.08715 4.3859e-05 0.0212664 6.68702e-06 0.340442 6.11167e-05
0.126893 6.38598e-05 0.0805727 2.53354e-05 0.390794 7.01558e-05
0.161702 8.13778e-05 0.13304 4.18331e-05 0.441447 7.92491e-05
0.191349 9.62981e-05 0.179965 5.65884e-05 0.492326 8.8383e-05
0.216984 0.000109199 0.222673 7.00177e-05 0.543797 9.76231e-05
0.237777 0.000119663 0.259295 8.1533e-05 0.595928 0.000106982
0.253798 0.000127726 0.288869 9.08323e-05 0.648414 0.000116404
0.265898 0.000133815 0.311907 9.80764e-05 0.700901 0.000125827
0.274261 0.000138024 0.328139 0.00010318 0.753096 0.000135197
0.279341 0.000140581 0.337003 0.000105968 0.8043 0.000144389
0.281801 0.000141819 0.338568 0.00010646 0.853793 0.000153274
0.28175 0.000141793 0.333129 0.000104749 0.900838 0.00016172
0.279275 0.000140547 0.321157 0.000100985 0.94431 0.000169524
0.274665 0.000138228 0.303369 9.53915e-05 0.9829 0.000176451
0.268042 0.000134894 0.280667 8.82533e-05 1.01548 0.0001823
0.259502 0.000130597 0.254116 7.99046e-05 1.04092 0.000186867
0.249248 0.000125436 0.224771 7.06772e-05 1.05794 0.000189923
0.23749 0.000119519 0.193577 6.08686e-05 1.06539 0.00019126
0.223321 0.000112388 0.161776 5.08689e-05 1.06108 0.000190487
0.206827 0.000104088 0.13026 4.0959e-05 1.04269 0.000187184
0.189294 9.52636e-05 0.0993527 3.12406e-05 1.00934 0.000181197
0.172257 8.66898e-05 0.0690134 2.17007e-05 0.961068 0.000172532
0.156929 7.89758e-05 0.0392811 1.23516e-05 0.898373 0.000161277
0.143958 7.2448e-05 0.0103836 3.26502e-06 0.821747 0.000147521
0.133463 6.71664e-05 -0.0173917 -5.46866e-06 0.731688 0.000131353
0.125046 6.29304e-05 -0.0445074 -1.3995e-05 0.62916 0.000112948
0.117932 5.93501e-05 -0.0712334 -2.23987e-05 0.515706 9.25803e-05
0.11125 5.59874e-05 -0.095692 -3.00895e-05 0.392974 7.05471e-05
0.104369 5.25247e-05 -0.117916 -3.70775e-05 0.262579 4.71385e-05
0.0970596 4.88461e-05 -0.137999 -4.33926e-05 0.126662 2.27385e-05
0.0892298 4.49057e-05 -0.156401 -4.91789e-05 -0.0137042 -2.46019e-06
0.0808361 4.06815e-05 -0.173225 -5.44689e-05 -0.157473 -2.82698e-05
0.0720193 3.62443e-05 -0.189693 -5.96474e-05 -0.296336 -5.31986e-05
0.0631219 3.17666e-05 -0.206256 -6.48552e-05 -0.431091 -7.739e-05
0.0548154 2.75863e-05 -0.223507 -7.02797e-05 -0.560254 -0.000100578
0.0477865 2.4049e-05 -0.24222 -7.6164e-05 -0.681211 -0.000122292
0.0427835 2.15312e-05 -0.262984 -8.26929e-05 -0.791142 -0.000142027
0.040585 2.04247e-05 -0.285991 -8.99273e-05 -0.888556 -0.000159515
0.0419553 2.11144e-05 -0.311223 -9.78611e-05 -0.972955 -0.000174666
0.0475979 2.3954e-05 -0.338441 -0.00010642 -1.04364 -0.000187355
0.0581035 2.92411e-05 -0.367024 -0.000115407 -1.09977 -0.000197431
0.0739757 3.72289e-05 -0.395982 -0.000124513 -1.14119 -0.000204868
0.0957204 4.81721e-05 -0.424095 -0.000133353 -1.16863 -0.000209794
0.113871 5.73068e-05 -0.447206 -0.00014062 -1.18356 -0.000212473
0.125444 6.31306e-05 -0.462162 -0.000145323 -1.18693 -0.000213079
0.14053 7.07227e-05 -0.471421 -0.000148234 -1.17788 -0.000211455
0.158165 7.95978e-05 -0.474503 -0.000149203 -1.15714 -0.00020773
0.178235 8.96982e-05 -0.470049 -0.000147803 -1.1256 -0.00020207
0.200227 0.000100766 -0.456704 -0.000143607 -1.08391 -0.000194585
0.223637 0.000112547 -0.434178 -0.000136523 -1.03298 -0.000185441
0.248014 0.000124815 -0.402406 -0.000126533 -0.973443 -0.000174754
0.272803 0.000137291 -0.361162 -0.000113564 -0.90547 -0.000162551
0.297356 0.000149647 -0.310578 -9.76585e-05 -0.829213 -0.000148861
0.321078 0.000161585 -0.251404 -7.90517e-05 -0.74485 -0.000133716
0.342502 0.000172367 -0.185396 -5.82961e-05 -0.652009 -0.00011705
0.357289 0.000179809 -0.113564 -3.57093e-05 -0.550091 -9.87531e-05
0.366322 0.000184355 -0.035072 -1.10281e-05 -0.439346 -7.8872e-05
0.370471 0.000186443 0.0477469 1.50136e-05 -0.319332 -5.7327e-05
0.369202 0.000185804 0.130497 4.10336e-05 -0.188659 -3.38684e-05
0.363772 0.000183071 0.207895 6.53706e-05 -0.0527235 -9.46499e-06
0.355087 0.0001787 0.280655 8.82494e-05 0.0662938 1.19011e-05
0.343291 0.000172764 0.346944 0.000109093 0.187475 3.36558e-05
0.329364 0.000165755 0.403447 0.00012686 0.317231 5.69497e-05
0.314236 0.000158142 0.448245 0.000140946 0.458073 8.22339e-05
0.298278 0.000150111 0.480613 0.000151124 0.605062 0.000108622
0.281808 0.000141822 0.499988 0.000157217 0.75479 0.000135501
0.265126 0.000133427 0.505982 0.000159101 0.906286 0.000162698
0.248623 0.000125122 0.498974 0.000156898 1.05913 0.000190137
0.23289 0.000117204 0.480106 0.000150965 1.20954 0.000217139
0.218465 0.000109944 0.45082 0.000141756 1.35257 0.000242815
0.205569 0.000103454 0.412903 0.000129834 1.48466 0.000266527
0.194165 9.77152e-05 0.368656 0.00011592 1.60339 0.000287842
0.184135 9.26675e-05 0.32065 0.000100825 1.70543 0.00030616
0.175397 8.82701e-05 0.271398 8.53386e-05 1.78661 0.000320735
0.167966 8.45304e-05 0.223266 7.02041e-05 1.84358 0.000330962
0.161932 8.14938e-05 0.178422 5.61033e-05 1.87437 0.00033649
0.157363 7.91941e-05 0.138712 4.36167e-05 1.87662 0.000336893
0.154222 7.76136e-05 0.10546 3.3161e-05 1.84472 0.000331166
0.152281 7.66369e-05 0.079837 2.5104e-05 1.77629 0.000318881
0.151167 7.60763e-05 0.0624016 1.96216e-05 1.67214 0.000300185
0.150484 7.57323e-05 0.0531069 1.6699e-05 1.5349 0.000275548
0.149956 7.54667e-05 0.0514023 1.6163e-05 1.3675 0.000245495
0.149497 7.52355e-05 0.0562082 1.76742e-05 1.17294 0.000210568
0.149126 7.50487e-05 0.0659275 2.07303e-05 0.955427 0.000171519
0.148793 7.48816e-05 0.0786209 2.47216e-05 0.720431 0.000129333
0.14823 7.45978e-05 0.0922236 2.89989e-05 0.473806 8.50583e-05
0.147048 7.4003e-05 0.104622 3.28975e-05 0.221148 3.97007e-05
0.144937 7.29407e-05 0.113686 3.57477e-05 -0.0347891 -6.24538e-06
0.141577 7.12501e-05 0.118416 3.72349e-05 -0.26889 -4.82714e-05
0.136979 6.89359e-05 0.114508 3.60061e-05 -0.489324 -8.78441e-05
0.130752 6.58018e-05 0.100054 3.14609e-05 -0.696192 -0.000124981
0.122134 6.14651e-05 0.0767424 2.41309e-05 -0.88869 -0.000159539
0.11029 5.55044e-05 0.0430893 1.35491e-05 -1.0617 -0.000190598
0.0948201 4.77191e-05 -0.000898194 -2.82429e-07 -1.20932 -0.000217099
0.0767115 3.86057e-05 -0.0547262 -1.72081e-05 -1.33103 -0.000238948
0.0551662 2.77629e-05 -0.117636 -3.69897e-05 -1.42872 -0.000256486
0.0308372 1.55191e-05 -0.188507 -5.92744e-05 -1.50263 -0.000269754
0.00370536 1.86476e-06 -0.265977 -8.3634e-05 -1.55147 -0.000278522
-0.0225394 -1.13432e-05 -0.347625 -0.000109307 -1.57635 -0.000282988
-0.048706 -2.45117e-05 -0.431644 -0.000135727 -1.58023 -0.000283685
-0.0772479 -3.88757e-05 -0.514815 -0.000161879 -1.56491 -0.000280934
-0.104787 -5.27352e-05 -0.59571 -0.000187316 -1.53137 -0.000274913
-0.130553 -6.57021e-05 -0.671791 -0.000211238 -1.48253 -0.000266145
-0.153899 -7.74511e-05 -0.740637 -0.000232886 -1.42273 -0.00025541
-0.174282 -8.77088e-05 -0.79997 -0.000251543 -1.35621 -0.000243468
-0.191047 -9.61458e-05 -0.847692 -0.000266549 -1.2861 -0.000230882
-0.203638 -0.000102483 -0.882181 -0.000277394 -1.21495 -0.000218109
-0.211598 -0.000106489 -0.902197 -0.000283688 -1.14541 -0.000205626
-0.214548 -0.000107973 -0.906829 -0.000285144 -1.07994 -0.000193872
-0.21228 -0.000106832 -0.895594 -0.000281611 -1.02004 -0.000183119
-0.205218 -0.000103278 -0.868313 -0.000273033 -0.966313 -0.000173474
-0.194729 -9.7999e-05 -0.825177 -0.00025947 -0.918793 -0.000164943
-0.18173 -9.14574e-05 -0.767099 -0.000241208 -0.877023 -0.000157444
-0.167074 -8.40815e-05 -0.695606 -0.000218727 -0.839865 -0.000150774
-0.151414 -7.62002e-05 -0.61283 -0.000192699 -0.805352 -0.000144578
-0.130778 -6.58153e-05 -0.522691 -0.000164355 -0.770616 -0.000138342
-0.108975 -5.48424e-05 -0.427052 -0.000134283 -0.733678 -0.000131711
-0.0869372 -4.37519e-05 -0.328599 -0.000103325 -0.691665 -0.000124169
-0.0647793 -3.26007e-05 -0.230228 -7.23931e-05 -0.641957 -0.000115245
-0.0429111 -2.15954e-05 -0.135072 -4.24721e-05 -0.58208 -0.000104496
-0.0217357 -1.09387e-05 -0.0460581 -1.44826e-05 -0.509701 -9.15022e-05
-0.00286824 -1.44347e-06 0.0336333 1.05757e-05 -0.422919 -7.5923e-05
0.013706 6.89764e-06 0.103184 3.24452e-05 -0.320885 -5.76056e-05
0.0305884 1.53939e-05 0.158021 4.96883e-05 -0.204433 -3.67e-05
0.0487117 2.45146e-05 0.199069 6.25956e-05 -0.0725565 -1.30254e-05
0.0681837 3.4314e-05 0.226162 7.11146e-05 0.0474483 8.51797e-06
0.0901352 4.53613e-05 0.240716 7.56909e-05 0.167361 3.00448e-05
0.113688 5.72143e-05 0.24318 7.64658e-05 0.293955 5.27713e-05
0.123525 6.21649e-05 0.241101 7.58119e-05 0.424976 7.62922e-05
0.134688 6.77827e-05 0.231166 7.26881e-05 0.558213 0.000100211
0.147505 7.42331e-05 0.213716 6.7201e-05 0.687264 0.000123379
0.162859 8.196e-05 0.190827 6.00037e-05 0.80944 0.000145312
0.181077 9.11286e-05 0.165165 5.19346e-05 0.923924 0.000165864
0.202192 0.000101755 0.139373 4.38246e-05 1.02731 0.000184424
0.226275 0.000113875 0.115827 3.64206e-05 1.11464 0.000200101
0.252883 0.000127266 0.096943 3.04829e-05 1.18302 0.000212377
0.281513 0.000141674 0.0852967 2.68208e-05 1.2314 0.000221063
0.311609 0.00015682 0.0829538 2.60841e-05 1.25847 0.000225921
0.342484 0.000172358 0.0912244 2.86847e-05 1.26215 0.000226584
0.37363 0.000188032 0.110837 3.48518e-05 1.2395 0.000222516
0.404805 0.000203722 0.142057 4.46686e-05 1.19069 0.000213754
0.435828 0.000219334 0.184232 5.79299e-05 1.1179 0.000200686
0.466497 0.000234769 0.236019 7.4214e-05 1.02421 0.000183867
0.496557 0.000249896 0.295721 9.29868e-05 0.913131 0.000163926
0.524524 0.000263971 0.361657 0.00011372 0.788671 0.000141583
0.548942 0.00027626 0.431744 0.000135758 0.655551 0.000117685
0.570635 0.000287177 0.50267 0.00015806 0.519193 9.32062e-05
0.590386 0.000297117 0.570842 0.000179496 0.384971 6.91104e-05
0.609059 0.000306514 0.632955 0.000199027 0.258001 4.63167e-05
0.627499 0.000315794 0.686023 0.000215714 0.143041 2.56789e-05
0.64642 0.000325317 0.727451 0.00022874 0.0442885 7.95072e-06
0.666361 0.000335352 0.755369 0.000237519 -0.0356602 -6.40176e-06
0.687553 0.000346017 0.768843 0.000241756 -0.0939067 -1.68582e-05
0.709969 0.000357298 0.767497 0.000241333 -0.126335 -2.26798e-05
0.723118 0.000363915 0.75619 0.000237777 -0.137632 -2.47079e-05
0.732321 0.000368547 0.733988 0.000230796 -0.126963 -2.27926e-05
0.738261 0.000371536 0.70137 0.000220539 -0.0932793 -1.67456e-05
0.742607 0.000373723 0.659074 0.00020724 -0.0408329 -7.33037e-06
0.745718 0.000375289 0.609621 0.00019169 0.0220351 3.95578e-06
0.747762 0.000376318 0.555984 0.000174824 0.0932057 1.67324e-05
0.749443 0.000377164 0.500749 0.000157456 0.172545 3.09755e-05
0.751218 0.000378057 0.446494 0.000140396 0.257305 4.61918e-05
0.753545 0.000379228 0.396249 0.000124597 0.343636 6.169e-05
0.757089 0.000381012 0.352906 0.000110968 0.427551 7.67546e-05
0.762451 0.00038371 0.318669 0.000100203 0.505774 9.07972e-05
0.770189 0.000387604 0.29541 9.28891e-05 0.576108 0.000103424
0.780837 0.000392963 0.284799 8.95524e-05 0.6365 0.000114265
0.794796 0.000399988 0.287934 9.05382e-05 0.685037 0.000122979
0.812301 0.000408797 0.305254 9.59844e-05 0.720572 0.000129358
0.832734 0.000419081 0.336288 0.000105743 0.743206 0.000133421
0.855163 0.000430368 0.379441 0.000119312 0.754044 0.000135367
0.880085 0.000442911 0.434665 0.000136676 0.753419 0.000135255
0.908279 0.000457099 0.500734 0.000157451 0.742005 0.000133206
0.938034 0.000472074 0.575738 0.000181036 0.722192 0.000129649
0.967684 0.000486995 0.658429 0.000207037 0.696668 0.000125067
0.995551 0.00050102 0.74689 0.000234853 0.668606 0.000120029
1.02018 0.000513414 0.838398 0.000263627 0.641633 0.000115187
1.04074 0.000523761 0.930267 0.000292514 0.6193 0.000111178
1.05691 0.000531897 1.01948 0.000320566 0.605132 0.000108634
1.06858 0.000537774 1.10273 0.000346745 0.602567 0.000108174
1.07584 0.000541426 1.17703 0.000370107 0.614616 0.000110337
1.07843 0.000542731 1.23989 0.000389872 0.643579 0.000115536
1.07571 0.000541363 1.28936 0.000405428 0.690948 0.00012404
1.06662 0.000536787 1.32368 0.000416221 0.754787 0.0001355
1.05018 0.000528511 1.34144 0.000421803 0.831581 0.000149286
1.02598 0.000516334 1.34247 0.000422126 0.923382 0.000165767
0.993547 0.000500011 1.3269 0.00041723 1.03042 0.000184983
0.952333 0.00047927 1.29546 0.000407346 1.15022 0.00020649
0.902238 0.000454059 1.24943 0.000392872 1.27894 0.000229596
0.84365 0.000424574 1.19022 0.000374254 1.41222 0.000253523
0.777404 0.000391235 1.11935 0.00035197 1.5466 0.000277648
0.704745 0.000354669 1.03858 0.000326574 1.67816 0.000301265
0.627006 0.000315546 0.949878 0.00029868 1.80207 0.00032351
0.54552 0.000274537 0.855256 0.000268928 1.91328 0.000343474
0.46175 0.00023238 0.756744 0.000237951 2.0074 0.000360371
0.377333 0.000189896 0.656284 0.000206363 2.08053 0.000373499
0.293926 0.000147921 0.555702 0.000174735 2.12885 0.000382174
0.212906 0.000107147 0.456746 0.00014362 2.14877 0.00038575
0.13519 6.80355e-05 0.361039 0.000113526 2.13565 0.000383395
0.0608496 3.06231e-05 0.270102 8.4931e-05 2.08555 0.0003744
-0.00809755 -4.07516e-06 0.186788 5.87337e-05 1.99625 0.000358369
-0.0692135 -3.48323e-05 0.112635 3.54169e-05 1.86748 0.000335252
-0.110975 -5.5849e-05 0.0397574 1.25014e-05 1.7028 0.00030569
-0.148575 -7.47719e-05 -0.0276094 -8.68153e-06 1.50182 0.000269609
-0.181403 -9.12925e-05 -0.0863511 -2.71523e-05 1.26682 0.000227421
-0.209925 -0.000105647 -0.137061 -4.30977e-05 1.00141 0.000179775
-0.235023 -0.000118277 -0.185182 -5.82287e-05 0.710156 0.000127488
-0.256454 -0.000129063 -0.228164 -7.17441e-05 0.397394 7.13407e-05
-0.275087 -0.00013844 -0.265648 -8.35308e-05 0.0690632 1.23983e-05
-0.292519 -0.000147213 -0.296627 -9.32715e-05 -0.247721 -4.44711e-05
-0.30937 -0.000155693 -0.326034 -0.000102518 -0.550553 -9.8836e-05
-0.32716 -0.000164646 -0.353763 -0.000111238 -0.850011 -0.000152595
-0.347254 -0.000174759 -0.380249 -0.000119566 -1.14889 -0.000206251
-0.370619 -0.000186517 -0.407632 -0.000128176 -1.43981 -0.000258477
-0.397926 -0.00020026 -0.438271 -0.00013781 -1.71097 -0.000307156
-0.42952 -0.00021616 -0.473391 -0.000148854 -1.95729 -0.000351376
-0.465395 -0.000234214 -0.514039 -0.000161635 -2.17987 -0.000391334
-0.505355 -0.000254324 -0.561761 -0.000176641 -2.37679 -0.000426685
-0.549133 -0.000276356 -0.617756 -0.000194248 -2.54215 -0.000456369
-0.596339 -0.000300113 -0.682381 -0.000214569 -2.67208 -0.000479695
-0.646483 -0.000325348 -0.755532 -0.00023757 -2.76753 -0.000496831
-0.699041 -0.000351799 -0.836822 -0.000263131 -2.83039 -0.000508115
-0.753604 -0.000379258 -0.925277 -0.000290945 -2.86061 -0.000513541
-0.809974 -0.000407627 -1.01922 -0.000320485 -2.85715 -0.00051292
-0.868096 -0.000436877 -1.11643 -0.000351051 -2.81884 -0.000506042
-0.927869 -0.000466958 -1.21468 -0.000381946 -2.74933 -0.000493564
-0.989034 -0.00049774 -1.3115 -0.00041239 -2.65352 -0.000476364
-1.05119 -0.000529018 -1.40438 -0.000441595 -2.53619 -0.000455299
-1.11388 -0.00056057 -1.49098 -0.000468827 -2.40249 -0.000431298
-1.17669 -0.000592178 -1.56918 -0.000493413 -2.25777 -0.000405318
-1.23906 -0.000623569 -1.6371 -0.00051477 -2.10737 -0.000378317
-1.3002 -0.000654339 -1.69337 -0.000532464 -1.9561 -0.000351161
-1.3591 -0.00068398 -1.73719 -0.000546243 -1.8083 -0.000324628
-1.41472 -0.000711968 -1.76824 -0.000556007 -1.66779 -0.000299404
-1.46612 -0.000737838 -1.7866 -0.000561779 -1.53784 -0.000276076
-1.51268 -0.00076127 -1.79266 -0.000563686 -1.42107 -0.000255112
-1.55424 -0.000782182 -1.78711 -0.000561941 -1.31937 -0.000236856
-1.59115 -0.000800758 -1.77082 -0.000556818 -1.234 -0.00022153
-1.62413 -0.000817358 -1.7449 -0.000548667 -1.16555 -0.000209241
-1.65405 -0.000832417 -1.71079 -0.000537941 -1.11396 -0.00019998
-1.68177 -0.000846364 -1.67029 -0.000525209 -1.07853 -0.00019362
-1.70797 -0.000859552 -1.62557 -0.000511146 -1.05797 -0.000189927
-1.73313 -0.000872212 -1.57908 -0.000496526 -1.0505 -0.000188587
-1.75751 -0.000884482 -1.53345 -0.00048218 -1.05407 -0.000189228
-1.7813 -0.000896455 -1.49138 -0.00046895 -1.06643 -0.000191446
-1.80465 -0.000908207 -1.45541 -0.000457641 -1.08528 -0.000194831
-1.82765 -0.000919782 -1.42789 -0.000448987 -1.10848 -0.000198996
-1.85031 -0.000931183 -1.41085 -0.000443628 -1.13414 -0.000203602
-1.8725 -0.000942351 -1.40592 -0.000442078 -1.16074 -0.000208378
-1.89401 -0.000953178 -1.41425 -0.000444697 -1.18724 -0.000213135
-1.91458 -0.000963529 -1.43643 -0.000451673 -1.21314 -0.000217784
-1.93389 -0.000973246 -1.47246 -0.000463002 -1.23849 -0.000222335
-1.95105 -0.000981882 -1.5219 -0.000478546 -1.26393 -0.000226902
-1.96129 -0.000987035 -1.58519 -0.000498449 -1.29016 -0.000231612
-1.96421 -0.000988506 -1.66053 -0.000522138 -1.31917 -0.000236819
-1.96012 -0.000986449 -1.74481 -0.000548639 -1.35332 -0.00024295
-1.94977 -0.00098124 -1.83427 -0.00057677 -1.39531 -0.000250488
-1.93378 -0.000973191 -1.92496 -0.000605287 -1.44806 -0.000259958
-1.91237 -0.000962418 -2.0128 -0.000632905 -1.51434 -0.000271857
-1.88577 -0.000949029 -2.09394 -0.00065842 -1.59638 -0.000286583
-1.8539 -0.000932993 -2.16495 -0.000680748 -1.69584 -0.000304439
-1.81628 -0.000914058 -2.22289 -0.000698967 -1.81373 -0.000325603
-1.77203 -0.000891791 -2.26549 -0.000712364 -1.95011 -0.000350087
-1.72001 -0.000865612 -2.29113 -0.000720425 -2.10405 -0.000377723
-1.65899 -0.000834901 -2.29875 -0.000722821 -2.27371 -0.000408179
-1.58783 -0.00079909 -2.28789 -0.000719405 -2.45634 -0.000440965
-1.50557 -0.000757692 -2.25856 -0.000710185 -2.64833 -0.000475431
-1.41162 -0.000710411 -2.21111 -0.000695265 -2.84185 -0.000510173
-1.30615 -0.000657331 -2.14516 -0.000674527 -3.00695 -0.000539811
-1.18972 -0.000598736 -2.06314 -0.000648735 -3.16252 -0.000567739
-1.06367 -0.000535302 -1.96494 -0.000617856 -3.31099 -0.000594392
-0.929662 -0.00046786 -1.85149 -0.000582184 -3.44979 -0.000619312
-0.789364 -0.000397254 -1.72461 -0.000542287 -3.57119 -0.000641105
-0.644227 -0.000324213 -1.58599 -0.0004987 -3.66691 -0.000658289
-0.495326 -0.000249277 -1.43728 -0.000451939 -3.73403 -0.000670338
-0.343454 -0.000172846 -1.2805 -0.000402642 -3.77062 -0.000676906
-0.189295 -9.52643e-05 -1.11786 -0.000351502 -3.7702 -0.000676831
-0.0799604 -4.02408e-05 -0.937387 -0.000294753 -3.72545 -0.000668798
0.0233216 1.17368e-05 -0.753562 -0.000236951 -3.62447 -0.000650669
0.116014 5.8385e-05 -0.579823 -0.00018232 -3.46524 -0.000622084
0.202591 0.000101955 -0.41397 -0.000130169 -3.24927 -0.000583313
0.289822 0.000145856 -0.250879 -7.88865e-05 -2.97611 -0.000534275
0.372745 0.000187587 -0.0956602 -3.00795e-05 -2.64483 -0.000474802
0.450741 0.000226839 0.0491764 1.54631e-05 -2.25878 -0.0004055
0.525822 0.000264625 0.185527 5.83372e-05 -1.82287 -0.000327245
0.596388 0.000300137 0.311015 9.7796e-05 -1.34053 -0.000240653
0.661985 0.00033315 0.420666 0.000132275 -0.82015 -0.000147234
0.724088 0.000364403 0.522526 0.000164304 -0.269113 -4.83115e-05
0.783111 0.000394107 0.615735 0.000193612 0.205224 3.6842e-05
0.839182 0.000422326 0.705298 0.000221775 0.637449 0.000114436
0.894385 0.000450107 0.790633 0.000248607 1.07046 0.000192171
0.949524 0.000477856 0.871779 0.000274123 1.51372 0.000271745
1.00606 0.000506309 0.951463 0.000299179 1.95634 0.000351205
1.06522 0.000536079 1.03232 0.000324603 2.37636 0.000426608
1.128 0.000567676 1.11507 0.000350625 2.76775 0.00049687
1.1952 0.000601494 1.20067 0.000377538 3.1354 0.000562872
1.26736 0.00063781 1.29093 0.000405921 3.47719 0.000624229
1.34482 0.000676791 1.38738 0.000436248 3.78152 0.000678863
1.42786 0.000718581 1.49064 0.000468717 4.04095 0.000725437
1.51736 0.000763624 1.59602 0.000501855 4.12309 0.000740183
1.61182 0.000811163 1.71276 0.000538562 4.12245 0.000740068
1.71204 0.000861599 1.83662 0.000577509 4.11204 0.000738199
1.81628 0.00091406 1.96443 0.000617697 4.12475 0.00074048
1.92454 0.000968542 2.0978 0.000659636 4.14805 0.000744664
2.03543 0.00102435 2.23717 0.000703457 4.1498 0.000744978
2.14831 0.00108116 2.37889 0.00074802 4.11609 0.000738926
2.26241 0.00113858 2.51956 0.000792253 4.05097 0.000727235
2.37693 0.00119621 2.65809 0.000835813 3.9603 0.000710958
2.48945 0.00125284 2.79308 0.00087826 3.84004 0.000689368
2.56051 0.0012886 2.9369 0.000923482 3.68802 0.000662077
2.61049 0.00131375 3.05011 0.00095908 3.53245 0.000634149
2.61002 0.00131351 3.1066 0.000976843 3.38965 0.000608515
2.61481 0.00131592 3.1508 0.000990742 3.23965 0.000581587
2.645 0.00133112 3.20292 0.00100713 3.07919 0.000552779
2.65539 0.00133635 3.23644 0.00101767 2.93167 0.000526297
2.65477 0.00133603 3.25723 0.00102421 2.79069 0.000500988
2.66996 0.00134368 3.27766 0.00103063 2.64925 0.000475597
2.68125 0.00134936 3.28531 0.00103304 2.52308 0.000452946
2.68392 0.00135071 3.28098 0.00103167 2.41661 0.000433832
2.6909 0.00135422 3.27412 0.00102952 2.32152 0.000416763
2.69909 0.00135834 3.25999 0.00102508 2.23965 0.000402064
2.70285 0.00136023 3.23534 0.00101733 2.17823 0.000391039
2.70463 0.00136113 3.20508 0.00100781 2.13714 0.000383662
2.70353 0.00136058 3.1662 0.000995582 2.11409 0.000379525
2.69614 0.00135685 3.1175 0.000980271 2.10772 0.00037838
2.68585 0.00135168 3.06373 0.000963363 2.11764 0.000380162
2.67356 0.00134549 3.0076 0.000945712 2.14248 0.00038462
2.65926 0.0013383 2.94996 0.00092759 2.17861 0.000391107
2.64471 0.00133097 2.89369 0.000909895 2.22221 0.000398935
2.63104 0.0013241 2.84166 0.000893533 2.27107 0.000407705
2.61885 0.00131796 2.79584 0.000879125 2.32295 0.000417019
2.60928 0.00131314 2.75816 0.000867279 2.37468 0.000426305
2.60311 0.00131004 2.73044 0.000858562 2.42343 0.000435056
2.60083 0.00130889 2.71417 0.000853445 2.46739 0.00044295
2.60294 0.00130995 2.7104 0.00085226 2.50533 0.000449761
2.60972 0.00131336 2.71962 0.000855159 2.53626 0.000455313
2.62119 0.00131914 2.74195 0.000862182 2.55969 0.000459518
2.6373 0.00132724 2.77716 0.000873253 2.57584 0.000462418
2.65778 0.00133755 2.82445 0.000888123 2.58566 0.000464181
2.68221 0.00134985 2.88258 0.000906401 2.59058 0.000465064
2.70997 0.00136382 2.95004 0.000927614 2.59239 0.000465389
2.7382 0.00137802 3.02563 0.000951381 2.5931 0.000465517
2.75102 0.00138447 3.10212 0.000975433 2.59728 0.000466267
2.74147 0.00137967 3.17361 0.000997913 2.60907 0.000468383
2.73362 0.00137572 3.25177 0.00102249 2.62489 0.000471224
2.72881 0.00137329 3.33069 0.00104731 2.64454 0.000474752
2.71698 0.00136734 3.3967 0.00106806 2.66109 0.000477723
2.6996 0.0013586 3.4619 0.00108856 2.68954 0.00048283
2.67393 0.00134568 3.52326 0.00110786 2.73806 0.00049154
2.63485 0.00132601 3.57453 0.00112398 2.80845 0.000504177
2.58549 0.00130117 3.61528 0.00113679 2.89853 0.000520348
2.52621 0.00127134 3.64337 0.00114563 3.00714 0.000539846
2.45517 0.00123559 3.65678 0.00114984 3.13779 0.000563299
2.37404 0.00119476 3.64892 0.00114737 3.28481 0.000589694
2.28465 0.00114977 3.62601 0.00114017 3.45209 0.000619723
2.18519 0.00109971 3.59013 0.00112888 3.63366 0.00065232
2.07771 0.00104563 3.53546 0.00111169 3.82087 0.000685927
1.96308 0.000987939 3.45705 0.00108704 4.00836 0.000719587
1.84178 0.000926891 3.3588 0.00105614 4.14157 0.0007435
1.71505 0.000863115 3.24471 0.00102027 4.17387 0.000749298
1.58319 0.000796754 3.11921 0.000980809 4.15936 0.000746694
1.44677 0.000728101 2.97764 0.000936293 4.16653 0.000747981
1.30594 0.000657227 2.82557 0.000888476 4.20295 0.000754519
1.16136 0.000584464 2.67036 0.000839671 4.23072 0.000759505
1.01406 0.000510334 2.51308 0.000790214 4.22886 0.000759171
0.8651 0.000435369 2.35364 0.000740081 4.21823 0.000757263
0.715974 0.00036032 2.19435 0.000689994 4.19008 0.000752208
0.567648 0.000285674 2.0389 0.000641114 4.11904 0.000739455
0.42086 0.000211801 1.88846 0.000593809 3.9848 0.000715356
0.276137 0.000138968 1.743 0.000548071 3.79298 0.00068092
0.133732 6.73019e-05 1.60344 0.000504188 3.5582 0.000638773
0.0411359 2.0702e-05 1.45541 0.000457639 3.28512 0.00058975
-0.0274005 -1.37895e-05 1.31109 0.000412261 2.95861 0.000531134
-0.0847914 -4.2672e-05 1.17561 0.00036966 2.58227 0.000463573
-0.129174 -6.50078e-05 1.06127 0.000333705 2.16347 0.000388389
-0.168788 -8.4944e-05 0.955665 0.0003005 1.71462 0.000307812
-0.209075 -0.000105219 0.854019 0.000268538 1.23767 0.000222188
-0.245257 -0.000123428 0.761823 0.000239548 0.735352 0.000132011
-0.278472 -0.000140144 0.677946 0.000213174 0.218949 3.93061e-05
-0.312389 -0.000157212 0.603819 0.000189866 -0.201951 -3.62545e-05
-0.344338 -0.000173291 0.531329 0.000167072 -0.540119 -9.69629e-05
-0.375927 -0.000189188 0.462439 0.00014541 -0.864938 -0.000155275
-0.408212 -0.000205436 0.397983 0.000125142 -1.19922 -0.000215286
-0.441469 -0.000222173 0.334963 0.000105326 -1.53703 -0.00027593
-0.475901 -0.000239501 0.269704 8.4806e-05 -1.84471 -0.000331165
-0.512705 -0.000258023 0.202042 6.35302e-05 -2.11479 -0.000379649
-0.551903 -0.00027775 0.126694 3.98379e-05 -2.36242 -0.000424105
-0.593971 -0.000298921 0.050608 1.59132e-05 -2.59263 -0.000465433
-0.639159 -0.000321662 -0.0309486 -9.73152e-06 -2.79156 -0.000501144
-0.68806 -0.000346272 -0.117657 -3.69963e-05 -2.94904 -0.000529415
-0.740282 -0.000372553 -0.209146 -6.57642e-05 -3.06977 -0.000551089
-0.796116 -0.000400652 -0.305612 -9.6097e-05 -3.16158 -0.000567572
-0.855225 -0.0004304 -0.406957 -0.000127964 -3.22215 -0.000578444
-0.91722 -0.000461599 -0.512288 -0.000161084 -3.24586 -0.000582701
-0.981726 -0.000494062 -0.620457 -0.000195097 -3.22801 -0.000579497
-1.04827 -0.000527553 -0.730009 -0.000229545 -3.1643 -0.000568059
-1.11628 -0.00056178 -0.839722 -0.000264043 -3.05802 -0.00054898
-1.18516 -0.000596443 -0.947798 -0.000298026 -2.91234 -0.000522827
-1.25428 -0.000631225 -1.05242 -0.000330923 -2.73399 -0.000490809
-1.32289 -0.000665756 -1.15195 -0.000362219 -2.53074 -0.000454322
-1.39024 -0.000699652 -1.24479 -0.000391413 -2.30959 -0.000414621
-1.45554 -0.000732515 -1.32935 -0.000418002 -2.07634 -0.000372747
-1.518 -0.000763946 -1.40426 -0.000441558 -1.83774 -0.000329913
-1.57686 -0.000793569 -1.46845 -0.00046174 -1.60104 -0.00028742
-1.62093 -0.000815745 -1.51147 -0.000475268 -1.41751 -0.000254472
-1.662 -0.000836417 -1.54669 -0.000486344 -1.24213 -0.000222989
-1.69989 -0.000855486 -1.57388 -0.000494894 -1.07735 -0.000193408
-1.73448 -0.000872892 -1.59294 -0.000500885 -0.925534 -0.000166153
-1.76572 -0.000888614 -1.60387 -0.000504322 -0.788856 -0.000141616
-1.79363 -0.000902662 -1.60674 -0.000505225 -0.669055 -0.00012011
-1.81833 -0.00091509 -1.60176 -0.00050366 -0.567266 -0.000101836
-1.83996 -0.000925974 -1.58935 -0.000499757 -0.484245 -8.69323e-05
-1.85875 -0.000935433 -1.57012 -0.000493709 -0.420428 -7.54758e-05
-1.87501 -0.000943614 -1.54481 -0.00048575 -0.375981 -6.74965e-05
-1.88904 -0.000950674 -1.51428 -0.000476153 -0.350714 -6.29606e-05
-1.90121 -0.000956799 -1.47954 -0.000465229 -0.34401 -6.17571e-05
-1.91191 -0.000962184 -1.4417 -0.000453329 -0.354861 -6.37052e-05
-1.92154 -0.000967031 -1.40192 -0.00044082 -0.381996 -6.85764e-05
-1.93055 -0.000971564 -1.3615 -0.000428111 -0.423896 -7.60984e-05
-1.93939 -0.000976015 -1.3218 -0.000415628 -0.478913 -8.59751e-05
-1.94852 -0.000980612 -1.28422 -0.000403812 -0.545216 -9.78779e-05
-1.95841 -0.000985586 -1.25018 -0.000393108 -0.620833 -0.000111453
-1.9695 -0.000991165 -1.22103 -0.00038394 -0.703737 -0.000126336
-1.98221 -0.000997562 -1.19804 -0.000376712 -0.791951 -0.000142172
-1.99693 -0.00100497 -1.18242 -0.000371802 -0.883604 -0.000158626
-2.01388 -0.0010135 -1.17506 -0.000369487 -0.977053 -0.000175402
-2.03331 -0.00102328 -1.17692 -0.000370071 -1.07057 -0.00019219
-2.05573 -0.00103457 -1.18878 -0.0003738 -1.16283 -0.000208753
-2.08098 -0.00104727 -1.21149 -0.000380941 -1.25253 -0.000224856
-2.09957 -0.00105663 -1.25077 -0.000393293 -1.33724 -0.000240064
-2.12022 -0.00106702 -1.30419 -0.00041009 -1.41736 -0.000254447
-2.14282 -0.00107839 -1.36904 -0.000430484 -1.49361 -0.000268135
-2.16805 -0.00109109 -1.44317 -0.000453793 -1.56666 -0.000281249
-2.19634 -0.00110533 -1.52528 -0.000479611 -1.63427 -0.000293387
-2.22792 -0.00112122 -1.61652 -0.000508301 -1.69923 -0.000305048
-2.26153 -0.00113814 -1.71627 -0.000539665 -1.76248 -0.000316402
-2.29705 -0.00115601 -1.82339 -0.00057335 -1.82549 -0.000327714
-2.33412 -0.00117467 -1.93691 -0.000609043 -1.88951 -0.000339207
-2.37249 -0.00119397 -2.05551 -0.000646338 -1.9557 -0.000351089
-2.41145 -0.00121358 -2.1779 -0.000684821 -2.02565 -0.000363648
-2.4505 -0.00123324 -2.30286 -0.000724114 -2.10105 -0.000377183
-2.48928 -0.00125275 -2.4291 -0.000763809 -2.18345 -0.000391976
-2.52728 -0.00127188 -2.5551 -0.000803429 -2.27433 -0.000408291
-2.56392 -0.00129032 -2.67933 -0.000842492 -2.37505 -0.000426372
-2.57175 -0.00129426 -2.77875 -0.000873752 -2.49581 -0.000448052
-2.55481 -0.00128573 -2.86601 -0.000901192 -2.62999 -0.000472139
-2.54327 -0.00127992 -2.95423 -0.00092893 -2.77397 -0.000497987
-2.54621 -0.0012814 -3.04755 -0.000958274 -2.92498 -0.000525096
-2.54779 -0.0012822 -3.13524 -0.000985848 -3.08778 -0.000554322
-2.53853 -0.00127754 -3.21087 -0.00100963 -3.23483 -0.000580721
-2.53079 -0.00127364 -3.28025 -0.00103145 -3.36398 -0.000603906
-2.53085 -0.00127367 -3.34652 -0.00105228 -3.47556 -0.000623937
-2.53158 -0.00127404 -3.403 -0.00107004 -3.59264 -0.000644955
-2.52941 -0.00127295 -3.44627 -0.00108365 -3.724 -0.000668537
-2.52798 -0.00127223 -3.47994 -0.00109424 -3.86523 -0.00069389
-2.53026 -0.00127338 -3.50642 -0.00110256 -4.00697 -0.000719337
-2.53399 -0.00127525 -3.52407 -0.00110811 -4.1446 -0.000744043
-2.53589 -0.00127621 -3.53117 -0.00111034 -4.2803 -0.000768405
-2.53438 -0.00127545 -3.5277 -0.00110925 -4.41817 -0.000793155
-2.52938 -0.00127293 -3.51513 -0.0011053 -4.54522 -0.000815963
-2.52108 -0.00126876 -3.49112 -0.00109775 -4.57745 -0.00082175
-2.50827 -0.00126231 -3.46241 -0.00108872 -4.57931 -0.000822083
-2.49154 -0.00125389 -3.42825 -0.00107798 -4.57412 -0.000821153
-2.47039 -0.00124325 -3.38862 -0.00106552 -4.5766 -0.000821598
-2.44508 -0.00123051 -3.34516 -0.00105186 -4.5951 -0.000824918
-2.4157 -0.00121572 -3.30013 -0.0010377 -4.6181 -0.000829047
-2.38212 -0.00119882 -3.25491 -0.00102348 -4.63107 -0.000831375
-2.34428 -0.00117978 -3.21014 -0.0010094 -4.63193 -0.000831531
-2.30208 -0.00115854 -3.16625 -0.000995597 -4.62941 -0.000831078
-2.25549 -0.0011351 -3.12387 -0.000982272 -4.63254 -0.00083164
-2.20444 -0.00110941 -3.08366 -0.000969629 -4.64136 -0.000833222
-2.14891 -0.00108146 -3.04594 -0.000957769 -4.64875 -0.000834549
-2.08901 -0.00105131 -3.01029 -0.000946559 -4.63637 -0.000832328
-2.02492 -0.00101906 -2.9761 -0.000935807 -4.59497 -0.000824895
-1.95692 -0.000984836 -2.94301 -0.000925402 -4.52622 -0.000812553
-1.88525 -0.000948768 -2.91012 -0.00091506 -4.43338 -0.000795886
-1.81017 -0.000910984 -2.87624 -0.000904407 -4.31812 -0.000775195
-1.73197 -0.00087163 -2.84024 -0.000893088 -4.1805 -0.00075049
-1.65103 -0.000830896 -2.80101 -0.000880753 -4.02085 -0.000721828
-1.56789 -0.000789057 -2.75728 -0.000867002 -3.84115 -0.000689569
-1.48322 -0.000746445 -2.70759 -0.000851379 -3.64462 -0.000654287
-1.3977 -0.000703403 -2.65053 -0.000833434 -3.43426 -0.000616523
-1.31194 -0.000660245 -2.58489 -0.000812795 -3.21207 -0.000576634
-1.22655 -0.00061727 -2.50975 -0.00078917 -2.97946 -0.000534877
-1.14205 -0.000574744 -2.42441 -0.000762334 -2.73811 -0.000491548
-1.05881 -0.000532856 -2.32838 -0.000732137 -2.49015 -0.000447035
-0.976994 -0.000491681 -2.22151 -0.000698534 -2.23776 -0.000401725
-0.896516 -0.000451179 -2.10408 -0.000661609 -1.98248 -0.000355898
-0.817177 -0.000411251 -1.97672 -0.00062156 -1.72524 -0.000309717
-0.738743 -0.000371779 -1.84031 -0.00057867 -1.46663 -0.000263291
-0.661038 -0.000332673 -1.69596 -0.000533279 -1.20735 -0.000216744
-0.583976 -0.000293891 -1.54492 -0.000485787 -0.948132 -0.00017021
-0.507536 -0.000255422 -1.38864 -0.000436645 -0.689542 -0.000123787
-0.431729 -0.000217271 -1.22869 -0.000386351 -0.431765 -7.75111e-05
-0.356554 -0.000179439 -1.06676 -0.000335433 -0.172579 -3.09816e-05
-0.281487 -0.000141661 -0.907813 -0.000285454 -0.0191252 -3.43337e-06
-0.207144 -0.000104247 -0.749145 -0.000235562 0.0974998 1.75033e-05
-0.132743 -6.68043e-05 -0.593293 -0.000186556 0.206149 3.70081e-05
-0.0585771 -2.94794e-05 -0.443605 -0.000139488 0.321392 5.76967e-05
0.0117725 5.92463e-06 -0.302376 -9.50795e-05 0.451642 8.10794e-05
0.0618726 3.11379e-05 -0.185037 -5.81832e-05 0.592062 0.000106288
0.106093 5.33924e-05 -0.0798881 -2.51201e-05 0.724307 0.000130029
0.156287 7.86527e-05 0.0174834 5.49751e-06 0.847603 0.000152163
0.193857 9.75602e-05 0.113824 3.5791e-05 0.967289 0.000173649
0.224718 0.000113091 0.202551 6.36902e-05 1.09013 0.000195702
0.25175 0.000126695 0.281824 8.8617e-05 1.22168 0.000219318
0.273608 0.000137695 0.352961 0.000110985 1.349 0.000242174
0.296683 0.000149308 0.416735 0.000131038 1.46775 0.000263492
0.318672 0.000160374 0.471605 0.000148292 1.58051 0.000283735
0.336903 0.000169549 0.516723 0.000162479 1.69203 0.000303755
0.352741 0.00017752 0.553886 0.000174165 1.80419 0.00032389
0.36735 0.000184872 0.584213 0.000183701 1.9117 0.00034319
0.380349 0.000191414 0.606749 0.000190787 2.01083 0.000360987
0.3911 0.000196824 0.621138 0.000195311 2.10093 0.000377161
0.400196 0.000201402 0.628658 0.000197676 2.18364 0.000392011
0.40841 0.000205536 0.630428 0.000198232 2.26 0.000405718
0.415692 0.000209201 0.626552 0.000197014 2.32856 0.000418026
0.422026 0.000212388 0.617145 0.000194056 2.38677 0.000428477
0.427834 0.000215311 0.603011 0.000189611 2.43299 0.000436773
0.433551 0.000218188 0.585161 0.000183999 2.46729 0.00044293
0.439284 0.000221074 0.564303 0.00017744 2.49024 0.000447051
0.445211 0.000224056 0.541005 0.000170114 2.50165 0.0004491
0.451674 0.000227309 0.515896 0.000162219 2.49651 0.000448177
0.45899 0.00023099 0.489491 0.000153916 2.46711 0.000442898
0.467318 0.000235182 0.462759 0.00014551 2.41113 0.000432849
0.47686 0.000239984 0.436265 0.00013718 2.32893 0.000418093
0.487681 0.00024543 0.410122 0.000128959 2.22239 0.000398966
0.499978 0.000251618 0.384914 0.000121033 2.09296 0.000375731
0.513956 0.000258653 0.361014 0.000113518 1.94166 0.00034857
0.529451 0.000266451 0.339115 0.000106632 1.76878 0.000317534
0.546659 0.000275111 0.319546 0.000100478 1.57557 0.000282848
0.565531 0.000284608 0.302426 9.50952e-05 1.36434 0.000244929
0.586003 0.000294911 0.287835 9.05071e-05 1.13807 0.000204309
0.60799 0.000305976 0.275968 8.67755e-05 0.899476 0.000161475
0.631398 0.000317756 0.267003 8.39565e-05 0.650864 0.000116844
0.656093 0.000330184 0.26095 8.20534e-05 0.394666 7.08509e-05
0.681887 0.000343166 0.257712 8.10352e-05 0.133872 2.40328e-05
0.708535 0.000356577 0.257729 8.10404e-05 -0.103639 -1.86054e-05
0.735665 0.00037023 0.263401 8.28241e-05 -0.296205 -5.31752e-05
0.763564 0.00038427 0.268659 8.44774e-05 -0.465417 -8.35523e-05
0.791821 0.000398491 0.276418 8.69172e-05 -0.628104 -0.000112758
0.820404 0.000412876 0.287525 9.04097e-05 -0.793424 -0.000142436
0.848946 0.00042724 0.301097 9.46774e-05 -0.959082 -0.000172176
0.877526 0.000441622 0.315869 9.9322e-05 -1.11449 -0.000200074
0.905862 0.000455883 0.331487 0.000104233 -1.25148 -0.000224667
0.933804 0.000469945 0.348381 0.000109545 -1.37043 -0.000246021
0.961196 0.00048373 0.366802 0.000115337 -1.47654 -0.000265071
0.987901 0.00049717 0.386431 0.00012151 -1.57207 -0.000282221
1.01383 0.000510219 0.406785 0.00012791 -1.65338 -0.000296816
1.03889 0.00052283 0.427697 0.000134485 -1.71491 -0.000307863
1.06301 0.000534969 0.449281 0.000141272 -1.75445 -0.000314961
1.08615 0.000546613 0.471641 0.000148303 -1.77389 -0.000318451
1.10828 0.000557753 0.494771 0.000155576 -1.77433 -0.00031853
1.1294 0.000568381 0.518966 0.000163184 -1.7485 -0.000313894
1.14958 0.000578537 0.544092 0.000171085 -1.69175 -0.000303704
1.16883 0.000588224 0.570304 0.000179327 -1.60247 -0.000287677
1.18723 0.000597482 0.597898 0.000188004 -1.48233 -0.00026611
1.20484 0.000606344 0.627202 0.000197218 -1.33486 -0.000239636
1.22175 0.000614856 0.65846 0.000207047 -1.16259 -0.00020871
1.23808 0.000623075 0.69188 0.000217555 -0.96625 -0.000173462
1.25396 0.000631066 0.727712 0.000228822 -0.746297 -0.000133976
1.26951 0.00063889 0.766076 0.000240886 -0.504674 -9.05998e-05
1.28473 0.000646553 0.806577 0.000253621 -0.246115 -4.41828e-05
1.29999 0.000654232 0.848997 0.00026696 -0.0201461 -3.61665e-06
1.31533 0.000661953 0.893387 0.000280918 0.150992 2.71062e-05
1.33086 0.000669768 0.943274 0.000296604 0.31492 5.65348e-05
1.34681 0.000677791 0.996547 0.000313355 0.485667 8.71875e-05
1.36277 0.000685828 1.0525 0.000330949 0.671327 0.000120518
1.37929 0.00069414 1.11197 0.000349649 0.866533 0.000155561
1.39619 0.000702645 1.17587 0.000369743 1.05966 0.000190231
1.41348 0.000711343 1.24406 0.000391184 1.24508 0.000223519
1.43117 0.00072025 1.31574 0.000413723 1.42621 0.000256034
1.44928 0.000729363 1.39039 0.000437195 1.60875 0.000288805
1.4678 0.000738681 1.46789 0.000461565 1.79345 0.000321962
1.48659 0.00074814 1.54817 0.000486807 1.97526 0.000354601
1.50557 0.000757693 1.6308 0.00051279 2.14898 0.000385788
1.52467 0.000767304 1.71511 0.000539301 2.31374 0.000415366
1.54316 0.000776611 1.80069 0.000566212 2.47208 0.000443792
1.55998 0.000785073 1.88772 0.000593576 2.62569 0.000471368
1.57526 0.000792763 1.9754 0.000621148 2.77365 0.000497929
1.58869 0.000799523 2.06276 0.000648617 2.91309 0.000522961
1.60019 0.000805309 2.14879 0.000675666 3.04243 0.000546181
1.60973 0.000810109 2.23255 0.000702006 3.16232 0.000567703
1.61712 0.000813828 2.31309 0.000727329 3.27434 0.000587813
1.6221 0.000816337 2.38938 0.000751318 3.379 0.000606602
1.62455 0.000817568 2.46044 0.000773663 3.47536 0.0006239
1.62436 0.000817473 2.5253 0.000794057 3.56233 0.000639515
1.62139 0.00081598 2.583 0.0008122 3.63984 0.000653429
1.61521 0.000812868 2.63258 0.000827791 3.70868 0.000665787
1.60444 0.000807448 2.67234 0.000840294 3.76975 0.000676751
1.58828 0.000799318 2.70119 0.000849364 3.82295 0.000686301
1.56706 0.000788635 2.71852 0.000854813 3.86768 0.00069433
1.54128 0.000775664 2.72389 0.000856503 3.90344 0.00070075
1.51136 0.000760605 2.71663 0.00085422 3.93028 0.000705569
1.47781 0.000743721 2.69617 0.000847788 3.94827 0.000708798
1.44131 0.000725354 2.66242 0.000837175 3.95707 0.000710378
1.40245 0.000705795 2.61556 0.00082244 3.95403 0.000709833
1.36156 0.000685217 2.55596 0.0008037 3.93505 0.000706425
1.31885 0.000663724 2.48451 0.000781233 3.89821 0.000699812
1.27449 0.000641398 2.40218 0.000755343 3.84263 0.000689834
1.2286 0.000618304 2.31002 0.000726364 3.768 0.000676437
1.18135 0.000594524 2.20928 0.000694688 3.67395 0.000659552
1.13294 0.000570163 2.1014 0.000660767 3.55957 0.000639019
1.08362 0.00054534 1.98788 0.00062507 3.42377 0.00061464
1.03359 0.000520162 1.87018 0.000588061 3.26583 0.000586286
0.983035 0.000494721 1.74977 0.000550198 3.08564 0.000553938
0.932143 0.000469109 1.62809 0.000511937 2.8835 0.000517649
0.881094 0.000443418 1.50654 0.000473718 2.65975 0.000477482
0.830096 0.000417753 1.3864 0.000435942 2.41479 0.000433507
0.779389 0.000392234 1.26879 0.00039896 2.14932 0.00038585
0.729214 0.000366983 1.15466 0.000363074 1.86457 0.00033473
0.679753 0.000342091 1.04484 0.000328539 1.56225 0.000280458
0.631093 0.000317603 0.939977 0.000295567 1.24439 0.000223394
0.583226 0.000293513 0.840604 0.00026432 0.913169 0.000163933
0.536072 0.000269783 0.747058 0.000234906 0.571028 0.000102512
0.489487 0.000246339 0.659513 0.000207378 0.220713 3.96228e-05
0.443031 0.000222959 0.57962 0.000182256 -0.0713205 -1.28035e-05
0.396282 0.000199432 0.50914 0.000160095 -0.291692 -5.2365e-05
0.349174 0.000175725 0.440239 0.000138429 -0.482659 -8.66475e-05
0.301268 0.000151616 0.377331 0.000118648 -0.669151 -0.000120127
0.251774 0.000126707 0.321678 0.000101149 -0.870264 -0.000156231
0.20013 0.000100717 0.271386 8.53348e-05 -1.0819 -0.000194224
0.146223 7.35878e-05 0.223857 7.03899e-05 -1.28606 -0.000230875
0.0898442 4.52149e-05 0.178049 5.59859e-05 -1.47021 -0.000263934
0.0301274 1.51619e-05 0.130559 4.10531e-05 -1.63691 -0.00029386
-0.0142594 -7.17618e-06 0.081009 2.54726e-05 -1.79579 -0.000322382
-0.0400745 -2.01679e-05 0.0256715 8.07217e-06 -1.95075 -0.000350201
-0.0654494 -3.2938e-05 -0.0289212 -9.09401e-06 -2.09867 -0.000376757
-0.0886562 -4.4617e-05 -0.0808878 -2.54344e-05 -2.23 -0.000400333
-0.112974 -5.6855e-05 -0.132267 -4.15902e-05 -2.34032 -0.000420138
-0.1397 -7.03053e-05 -0.185158 -5.82212e-05 -2.43334 -0.000436836
-0.167385 -8.4238e-05 -0.238968 -7.51414e-05 -2.51547 -0.00045158
-0.194922 -9.80964e-05 -0.29284 -9.2081e-05 -2.58645 -0.000464324
-0.223195 -0.000112325 -0.347017 -0.000109116 -2.6416 -0.000474224
-0.252551 -0.000127098 -0.401522 -0.000126255 -2.67756 -0.00048068
-0.282198 -0.000142018 -0.455779 -0.000143315 -2.6957 -0.000483935
-0.311734 -0.000156883 -0.50936 -0.000160164 -2.69949 -0.000484616
-0.341403 -0.000171814 -0.561697 -0.000176621 -2.6822 -0.000481512
-0.371138 -0.000186779 -0.61214 -0.000192482 -2.64006 -0.000473947
-0.40056 -0.000201585 -0.660026 -0.000207539 -2.57137 -0.000461615
-0.429418 -0.000216108 -0.704753 -0.000221603 -2.47776 -0.000444811
-0.457702 -0.000230342 -0.74569 -0.000234475 -2.36341 -0.000424283
-0.485288 -0.000244225 -0.782056 -0.00024591 -2.2323 -0.000400745
-0.511955 -0.000257646 -0.813095 -0.00025567 -2.08649 -0.000374569
-0.537583 -0.000270543 -0.838244 -0.000263578 -1.92693 -0.000345924
-0.562115 -0.000282889 -0.85704 -0.000269489 -1.75527 -0.000315108
-0.585448 -0.000294632 -0.86895 -0.000273233 -1.57457 -0.000282669
-0.607467 -0.000305713 -0.87346 -0.000274652 -1.38825 -0.00024922
-0.628119 -0.000316106 -0.87026 -0.000273645 -1.199 -0.000215246
-0.647399 -0.000325809 -0.859292 -0.000270197 -1.00853 -0.000181052
-0.665304 -0.00033482 -0.840644 -0.000264333 -0.818264 -0.000146896
-0.681808 -0.000343126 -0.814527 -0.000256121 -0.630051 -0.000113108
-0.696917 -0.00035073 -0.781297 -0.000245672 -0.446015 -8.00692e-05
-0.71067 -0.000357651 -0.741481 -0.000233152 -0.267985 -4.8109e-05
-0.723125 -0.000363919 -0.695764 -0.000218777 -0.0970621 -1.74247e-05
-0.734177 -0.000369481 -0.646421 -0.000203261 0.0227555 4.0851e-06
-0.744383 -0.000374617 -0.592341 -0.000186256 0.114812 2.06112e-05
-0.753468 -0.000379189 -0.534776 -0.000168155 0.195284 3.50576e-05
-0.761964 -0.000383465 -0.475477 -0.000149509 0.273638 4.91238e-05
-0.770055 -0.000387537 -0.41569 -0.00013071 0.353175 6.34025e-05
-0.777978 -0.000391524 -0.356055 -0.000111958 0.429521 7.71081e-05
-0.786073 -0.000395598 -0.29748 -9.35399e-05 0.497389 8.9292e-05
-0.794637 -0.000399908 -0.241377 -7.58988e-05 0.556293 9.98664e-05
-0.80397 -0.000404605 -0.189205 -5.94938e-05 0.610039 0.000109515
-0.814298 -0.000409802 -0.142116 -4.46869e-05 0.662125 0.000118866
-0.825847 -0.000415615 -0.101017 -3.17639e-05 0.712343 0.000127881
-0.838725 -0.000422096 -0.0664954 -2.09089e-05 0.758083 0.000136092
-0.85309 -0.000429325 -0.0400019 -1.25782e-05 0.797566 0.00014318
-0.86915 -0.000437407 -0.0230426 -7.24554e-06 0.831547 0.00014928
-0.886855 -0.000446317 -0.014754 -4.63928e-06 0.862057 0.000154758
-0.906324 -0.000456115 -0.0155684 -4.89535e-06 0.889908 0.000159757
-0.927567 -0.000466806 -0.025845 -8.12672e-06 0.913932 0.00016407
-0.950453 -0.000478324 -0.0457461 -1.43844e-05 0.932518 0.000167407
-0.974824 -0.000490589 -0.0764454 -2.40376e-05 0.94501 0.000169649
-1.00047 -0.000503497 -0.117215 -3.68573e-05 0.952034 0.00017091
-1.02728 -0.000516988 -0.167577 -5.26931e-05 0.953182 0.000171116
-1.05496 -0.000530916 -0.227234 -7.14517e-05 0.94542 0.000169723
-1.0833 -0.000545181 -0.295312 -9.28583e-05 0.926307 0.000166292
-1.11215 -0.000559698 -0.370953 -0.000116643 0.894248 0.000160537
-1.14135 -0.000574396 -0.453232 -0.000142515 0.848568 0.000152336
-1.17074 -0.000589186 -0.541096 -0.000170143 0.789064 0.000141654
-1.20014 -0.000603979 -0.633366 -0.000199156 0.715183 0.000128391
-1.22936 -0.000618687 -0.728811 -0.000229168 0.62583 0.00011235
-1.25824 -0.000633218 -0.826216 -0.000259796 0.519909 9.33346e-05
-1.28656 -0.00064747 -0.924413 -0.000290673 0.3969 7.12519e-05
-1.31391 -0.000661239 -1.02109 -0.000321071 0.257733 4.62685e-05
-1.34053 -0.000674633 -1.11585 -0.00035087 0.102629 1.84241e-05
-1.36563 -0.000687264 -1.20802 -0.00037985 -0.0611386 -1.09757e-05
-1.38998 -0.000699518 -1.29481 -0.000407143 -0.20304 -3.645e-05
-1.41245 -0.000710829 -1.37973 -0.000433842 -0.343944 -6.17452e-05
-1.43322 -0.000721282 -1.45996 -0.000459071 -0.494446 -8.87636e-05
-1.45193 -0.000730695 -1.53446 -0.000482498 -0.660181 -0.000118516
-1.46862 -0.000739096 -1.60331 -0.000504147 -0.840764 -0.000150935
-1.48304 -0.000746351 -1.66687 -0.000524134 -1.0302 -0.000184942
-1.49518 -0.00075246 -1.7251 -0.000542442 -1.22306 -0.000219565
-1.50508 -0.000757444 -1.77758 -0.000558945 -1.4186 -0.000254669
-1.51279 -0.000761324 -1.82412 -0.000573579 -1.61916 -0.000290673
-1.51833 -0.000764112 -1.86499 -0.000586428 -1.82553 -0.000327722
-1.52173 -0.000765822 -1.90067 -0.000597648 -2.03479 -0.000365288
-1.52291 -0.000766419 -1.93144 -0.000607322 -2.24238 -0.000402554
-1.52167 -0.000765791 -1.95716 -0.000615411 -2.44542 -0.000439006
-1.51803 -0.000763962 -1.97815 -0.00062201 -2.64335 -0.000474538
-1.51236 -0.000761111 -1.99504 -0.000627324 -2.83604 -0.000509129
-1.50437 -0.000757086 -2.00868 -0.000631612 -3.0219 -0.000542496
-1.49281 -0.000751267 -2.01999 -0.000635166 -3.19785 -0.000574082
-1.47799 -0.00074381 -2.02933 -0.000638104 -3.36113 -0.000603395
-1.46021 -0.000734864 -2.03706 -0.000640536 -3.51017 -0.00063015
-1.43978 -0.000724581 -2.04345 -0.000642544 -3.64438 -0.000654244
-1.41698 -0.000713108 -2.04859 -0.000644161 -3.76308 -0.000675554
-1.39224 -0.000700659 -2.05248 -0.000645383 -3.86498 -0.000693846
-1.36613 -0.000687515 -2.05498 -0.000646171 -3.94854 -0.000708848
-1.33921 -0.000673971 -2.05586 -0.000646447 -4.01277 -0.000720378
-1.31199 -0.000660272 -2.05478 -0.000646107 -4.0574 -0.000728389
-1.28479 -0.000646583 -2.05137 -0.000645034 -4.08251 -0.000732897
-1.25779 -0.000632994 -2.04525 -0.000643109 -4.08742 -0.000733779
-1.23103 -0.000619526 -2.03583 -0.000640147 -4.06483 -0.000729723
-1.20439 -0.000606118 -2.02291 -0.000636086 -4.01245 -0.000720319
-1.17771 -0.000592694 -2.00622 -0.000630839 -3.93009 -0.000705535
-1.15083 -0.000579166 -1.98534 -0.000624274 -3.81928 -0.000685642
-1.12364 -0.000565481 -1.95979 -0.000616239 -3.6823 -0.00066105
-1.09607 -0.000551608 -1.92917 -0.00060661 -3.52095 -0.000632086
-1.0681 -0.000537532 -1.89315 -0.000595284 -3.33643 -0.000598959
-1.0397 -0.000523238 -1.85142 -0.000582162 -3.12997 -0.000561897
-1.01083 -0.00050871 -1.80365 -0.00056714 -2.90359 -0.000521256
-0.981455 -0.000493926 -1.74957 -0.000550137 -2.65989 -0.000477508
-0.951508 -0.000478855 -1.68906 -0.000531111 -2.4015 -0.00043112
-0.920914 -0.000463458 -1.6221 -0.000510055 -2.1306 -0.000382489
-0.889596 -0.000447697 -1.54877 -0.000486996 -1.84916 -0.000331964
-0.857496 -0.000431542 -1.46923 -0.000461985 -1.55925 -0.000279919
-0.824575 -0.000414974 -1.38375 -0.000435107 -1.26324 -0.000226778
-0.79082 -0.000397987 -1.29271 -0.000406481 -0.963518 -0.000172972
-0.75624 -0.000380585 -1.19661 -0.000376264 -0.662265 -0.000118891
-0.720854 -0.000362776 -1.09605 -0.000344643 -0.361339 -6.4868e-05
-0.684655 -0.000344558 -0.991892 -0.000311891 -0.0951696 -1.7085e-05
-0.647063 -0.00032564 -0.889291 -0.00027963 0.0711962 1.27812e-05
-0.60918 -0.000306575 -0.781072 -0.000245601 0.202137 3.6288e-05
-0.570293 -0.000287005 -0.672063 -0.000211324 0.328328 5.89418e-05
-0.531118 -0.00026729 -0.564401 -0.000177471 0.464566 8.33994e-05
-0.491552 -0.000247378 -0.458353 -0.000144125 0.611319 0.000109745
-0.452113 -0.00022753 -0.353566 -0.000111176 0.754259 0.000135406
-0.413265 -0.000207979 -0.250646 -7.88133e-05 0.883131 0.000158541
-0.375411 -0.000188929 -0.151134 -4.75227e-05 1.00024 0.000179564
-0.338816 -0.000170512 -0.0564754 -1.77582e-05 1.11533 0.000200226
-0.303864 -0.000152922 0.0279744 8.79629e-06 1.23382 0.000221497
-0.270829 -0.000136297 0.104875 3.29771e-05 1.35121 0.000242571
-0.239705 -0.000120634 0.176068 5.53631e-05 1.46037 0.000262168
-0.210647 -0.00010601 0.241218 7.58487e-05 1.55934 0.000279935
-0.183938 -9.25684e-05 0.299491 9.41724e-05 1.65098 0.000296386
-0.159546 -8.02928e-05 0.350226 0.000110125 1.73939 0.000312258
-0.137431 -6.91636e-05 0.393271 0.00012366 1.82464 0.000327561
-0.117596 -5.91811e-05 0.428713 0.000134805 1.90352 0.000341722
-0.09998 -5.03158e-05 0.456593 0.000143571 1.97302 0.000354199
-0.0844139 -4.2482e-05 0.476855 0.000149943 2.03293 0.000364954
-0.0706704 -3.55655e-05 0.4895 0.000153919 2.08501 0.000374303
-0.0585263 -2.94539e-05 0.494734 0.000155565 2.13028 0.00038243
-0.0477006 -2.40057e-05 0.49302 0.000155026 2.1677 0.000389149
-0.0396289 -1.99436e-05 0.483837 0.000152138 2.19552 0.000394142
-0.0326147 -1.64136e-05 0.46861 0.00014735 2.21217 0.000397132
-0.025727 -1.29473e-05 0.44823 0.000140942 2.21787 0.000398154
-0.0189044 -9.51381e-06 0.423018 0.000133014 2.2089 0.000396544
-0.0124089 -6.24491e-06 0.393192 0.000123636 2.18096 0.000391529
-0.00590369 -2.97108e-06 0.359684 0.000113099 2.1319 0.000382722
0.000989199 4.97823e-07 0.323361 0.000101678 2.06088 0.000369973
0.00821502 4.13428e-06 0.284744 8.95352e-05 1.96889 0.000353458
0.0156777 7.88995e-06 0.244394 7.68475e-05 1.85741 0.000333445
0.0235202 1.18368e-05 0.203079 6.38564e-05 1.72713 0.000310057
0.0318831 1.60454e-05 0.161513 5.07862e-05 1.57806 0.000283295
0.034647 1.74364e-05 0.122495 3.85173e-05 1.41004 0.000253132
0.0341136 1.71679e-05 0.0864555 2.71852e-05 1.22442 0.000219809
0.0348067 1.75168e-05 0.0518462 1.63026e-05 1.024 0.000183829
0.0361011 1.81682e-05 0.0174839 5.49767e-06 0.811374 0.000145659
0.0380524 1.91502e-05 -0.0162516 -5.11016e-06 0.588097 0.000105576
0.0407452 2.05054e-05 -0.0520202 -1.63573e-05 0.35638 6.39778e-05
0.0435853 2.19347e-05 -0.0866023 -2.72313e-05 0.119359 2.14275e-05
0.0462477 2.32746e-05 -0.120482 -3.78844e-05 -0.101194 -1.81665e-05
0.0488243 2.45713e-05 -0.150596 -4.73537e-05 -0.28384 -5.09553e-05
0.0518563 2.60971e-05 -0.182551 -5.74015e-05 -0.447892 -8.04062e-05
0.0546511 2.75036e-05 -0.213712 -6.71997e-05 -0.60853 -0.000109244
0.057308 2.88408e-05 -0.243291 -7.65005e-05 -0.773954 -0.000138941
0.0597216 3.00554e-05 -0.271933 -8.55069e-05 -0.942758 -0.000169245
0.0620268 3.12155e-05 -0.300607 -9.45232e-05 -1.10575 -0.000198506
0.06395 3.21834e-05 -0.329513 -0.000103612 -1.25572 -0.000225428
0.0654326 3.29295e-05 -0.358094 -0.000112599 -1.39292 -0.000250059
0.0664201 3.34265e-05 -0.385949 -0.000121358 -1.52214 -0.000273256
0.0667413 3.35882e-05 -0.41324 -0.00012994 -1.64558 -0.000295417
0.0661391 3.32851e-05 -0.440405 -0.000138481 -1.7601 -0.000315975
0.0643992 3.24094e-05 -0.467431 -0.000146979 -1.86079 -0.000334051
0.0615164 3.09587e-05 -0.494004 -0.000155335 -1.9456 -0.000349277
0.0575191 2.8947e-05 -0.51987 -0.000163468 -2.01619 -0.000361949
0.0524375 2.63896e-05 -0.544931 -0.000171349 -2.0748 -0.000372471
0.0463598 2.33309e-05 -0.569073 -0.00017894 -2.12147 -0.000380849
0.038977 1.96155e-05 -0.591772 -0.000186077 -2.1543 -0.000386743
0.0302528 1.5225e-05 -0.612827 -0.000192698 -2.17165 -0.000389857
0.0206491 1.03918e-05 -0.632104 -0.000198759 -2.17358 -0.000390203
0.0112842 5.67887e-06 -0.649057 -0.00020409 -2.15662 -0.00038716
0.00277302 1.39555e-06 -0.663135 -0.000208517 -2.12063 -0.000380698
-0.0053593 -2.69711e-06 -0.674795 -0.000212183 -2.06493 -0.000370698
-0.0131581 -6.62191e-06 -0.683979 -0.000215071 -1.98982 -0.000357216
-0.0199775 -1.00538e-05 -0.690184 -0.000217022 -1.89697 -0.000340547
-0.0252894 -1.27271e-05 -0.693054 -0.000217924 -1.78843 -0.000321061
-0.0289791 -1.4584e-05 -0.692457 -0.000217737 -1.66587 -0.000299058
-0.030921 -1.55612e-05 -0.688105 -0.000216368 -1.53051 -0.00027476
-0.0308817 -1.55415e-05 -0.679536 -0.000213674 -1.38371 -0.000248406
-0.0296958 -1.49446e-05 -0.666129 -0.000209458 -1.22726 -0.00022032
-0.0291882 -1.46892e-05 -0.646598 -0.000203317 -1.06369 -0.000190954
-0.0264738 -1.33232e-05 -0.621607 -0.000195459 -0.89457 -0.000160594
-0.0218719 -1.10072e-05 -0.591218 -0.000185903 -0.721621 -0.000129546
-0.0156052 -7.85347e-06 -0.555406 -0.000174642 -0.546249 -9.80633e-05
-0.00757452 -3.81194e-06 -0.514019 -0.000161629 -0.369929 -6.64101e-05
0.00213245 1.07317e-06 -0.46718 -0.000146901 -0.194206 -3.48641e-05
0.0126695 6.37602e-06 -0.415634 -0.000130692 -0.0508474 -9.12818e-06
0.0232895 1.17206e-05 -0.360227 -0.00011327 0.0528016 9.47901e-06
0.0302263 1.52117e-05 -0.300825 -9.45918e-05 0.1405 2.52227e-05
0.035581 1.79065e-05 -0.238239 -7.49121e-05 0.226649 4.06884e-05
0.0407846 2.05252e-05 -0.172981 -5.43922e-05 0.317695 5.7033e-05
0.0455347 2.29157e-05 -0.105755 -3.32537e-05 0.411093 7.38e-05
0.0491249 2.47225e-05 -0.0373747 -1.17521e-05 0.499844 8.97326e-05
0.0516263 2.59814e-05 0.0302051 9.49773e-06 0.581094 0.000104319
0.0599611 3.01759e-05 0.0898033 2.82378e-05 0.657513 0.000118037
0.0669436 3.369e-05 0.147469 4.63702e-05 0.73273 0.000131541
0.0737522 3.71164e-05 0.202406 6.36448e-05 0.809735 0.000145365
0.0797224 4.0121e-05 0.254778 8.01127e-05 0.884906 0.000158859
0.0846457 4.25987e-05 0.303422 9.54084e-05 0.955574 0.000171546
0.088306 4.44407e-05 0.347343 0.000109219 1.02086 0.000183267
0.0911209 4.58574e-05 0.386011 0.000121378 1.08292 0.000194407
0.093035 4.68207e-05 0.419147 0.000131797 1.14365 0.00020531
0.0938203 4.72159e-05 0.446448 0.000140382 1.20261 0.000215895
0.0934033 4.7006e-05 0.467605 0.000147034 1.25783 0.000225807
0.0915234 4.60599e-05 0.482211 0.000151627 1.30795 0.000234805
0.0876875 4.41295e-05 0.489896 0.000154043 1.35328 0.000242942
0.0818799 4.12068e-05 0.490684 0.000154291 1.39468 0.000250375
0.0742715 3.73778e-05 0.484792 0.000152438 1.43214 0.000257099
0.0648925 3.26577e-05 0.472379 0.000148535 1.46458 0.000262924
0.0536748 2.70123e-05 0.453653 0.000142647 1.49075 0.000267621
0.0410919 2.06798e-05 0.429047 0.00013491 1.51 0.000271077
0.0274812 1.38301e-05 0.399108 0.000125496 1.52231 0.000273286
0.0131998 6.64291e-06 0.36441 0.000114586 1.52762 0.00027424
-0.00095883 -4.82539e-07 0.325295 0.000102286 1.52283 0.000273381
-0.0146252 -7.36027e-06 0.282579 8.88544e-05 1.50452 0.000270093
-0.026081 -1.31255e-05 0.237485 7.46749e-05 1.47112 0.000264098
-0.0356638 -1.79481e-05 0.191107 6.00919e-05 1.42191 0.000255262
-0.0441305 -2.22091e-05 0.143058 4.49834e-05 1.35783 0.000243759
-0.0518531 -2.60955e-05 0.0936434 2.94453e-05 1.27929 0.00022966
-0.058193 -2.92861e-05 0.0440738 1.38586e-05 1.18587 0.000212889
-0.0629804 -3.16954e-05 -0.00467472 -1.46992e-06 1.07716 0.000193374
-0.0666855 -3.35601e-05 -0.0521054 -1.63841e-05 0.953444 0.000171163
-0.0694923 -3.49726e-05 -0.0991555 -3.11785e-05 0.815773 0.000146449
-0.0713444 -3.59047e-05 -0.144712 -4.55032e-05 0.665927 0.000119548
-0.0724019 -3.64369e-05 -0.186989 -5.87969e-05 0.504166 9.05086e-05
-0.0729684 -3.6722e-05 -0.225976 -7.1056e-05 0.331526 5.95159e-05
-0.0730543 -3.67652e-05 -0.261349 -8.2179e-05 0.149294 2.68014e-05
-0.0726429 -3.65581e-05 -0.292941 -9.21126e-05 -0.0480023 -8.61743e-06
-0.0720716 -3.62706e-05 -0.318173 -0.000100047 -0.192719 -3.45971e-05
-0.0707453 -3.56032e-05 -0.341822 -0.000107483 -0.330789 -5.93836e-05
-0.0689498 -3.46996e-05 -0.362028 -0.000113836 -0.467078 -8.38504e-05
-0.0663473 -3.33899e-05 -0.378603 -0.000119048 -0.607533 -0.000109065
-0.0632147 -3.18133e-05 -0.391996 -0.00012326 -0.754271 -0.000135408
-0.059479 -2.99333e-05 -0.403347 -0.000126829 -0.900963 -0.000161742
-0.0551625 -2.7761e-05 -0.413429 -0.000129999 -1.04023 -0.000186744
-0.0503532 -2.53407e-05 -0.422427 -0.000132828 -1.16979 -0.000210002
-0.045187 -2.27408e-05 -0.430425 -0.000135343 -1.29238 -0.000232009
-0.0397814 -2.00203e-05 -0.437815 -0.000137667 -1.4105 -0.000253214
-0.034204 -1.72135e-05 -0.445176 -0.000139982 -1.52261 -0.000273341
-0.0285295 -1.43577e-05 -0.452949 -0.000142426 -1.62446 -0.000291625
-0.0228478 -1.14984e-05 -0.461332 -0.000145062 -1.71297 -0.000307515
-0.0174642 -8.78901e-06 -0.470499 -0.000147944 -1.78813 -0.000321008
-0.0154256 -7.76309e-06 -0.479334 -0.000150722 -1.85191 -0.000332456
-0.0139362 -7.0135e-06 -0.488743 -0.000153681 -1.90457 -0.00034191
-0.0133939 -6.7406e-06 -0.498862 -0.000156863 -1.94459 -0.000349094
-0.0140564 -7.07401e-06 -0.509743 -0.000160284 -1.9702 -0.000353693
-0.0157366 -7.91959e-06 -0.521009 -0.000163826 -1.98104 -0.000355638
-0.018347 -9.23328e-06 -0.532338 -0.000167389 -1.97615 -0.000354761
-0.0219676 -1.10554e-05 -0.54341 -0.00017087 -1.95246 -0.000350509
-0.0264912 -1.33319e-05 -0.554107 -0.000174234 -1.90922 -0.000342746
-0.031675 -1.59407e-05 -0.564005 -0.000177346 -1.84652 -0.00033149
