1.57324 255.427 0 -1.57324 -255.427 -323.912 9.03792 165.274 -821.303 -9.03792 -165.274 -849.858 0.998785 56.3796 -272.074 -0.998785 -56.3796 -24.2696 -1.65408 255.524 2.84217e-14 1.65408 -255.524 340.77 -9.02772 165.278 818.351 9.02772 -165.278 850.814 -0.998754 56.3704 273.672 0.998754 -56.3704 22.6088
1.60842 255.453 0 -1.60842 -255.453 -331.347 9.02229 165.27 -819.108 -9.02229 -165.27 -849.166 0.9996 56.3797 -272.285 -0.9996 -56.3797 -24.3002 -1.6174 255.498 0 1.6174 -255.498 333.025 -9.04339 165.282 820.44 9.04339 -165.282 851.622 -0.998017 56.3703 273.497 0.998017 -56.3703 22.5656
1.70192 255.527 0 -1.70192 -255.527 -351.092 8.98313 165.257 -813.652 -8.98313 -165.257 -847.388 1.00125 56.3803 -272.717 -1.00125 -56.3803 -24.3571 -1.52141 255.424 2.84217e-14 1.52141 -255.424 312.763 -9.08311 165.294 825.849 9.08311 -165.294 853.553 -0.996074 56.3697 272.985 0.996074 -56.3697 22.5009
1.90107 255.69 1.13687e-13 -1.90107 -255.69 -393.149 8.9047 165.234 -802.55 -8.9047 -165.234 -844.006 1.004 56.3811 -273.457 -1.004 -56.3811 -24.4306 -1.31632 255.261 2.84217e-14 1.31632 -255.261 269.48 -9.16175 165.317 836.706 9.16175 -165.317 857.225 -0.992674 56.3689 272.081 0.992674 -56.3689 22.3972
2.12759 255.883 5.68434e-14 -2.12759 -255.883 -440.989 8.8224 165.211 -790.594 -8.8224 -165.211 -840.771 1.00627 56.3816 -274.096 -1.00627 -56.3816 -24.4644 -1.08306 255.068 2.84217e-14 1.08306 -255.068 220.252 -9.24353 165.341 848.313 9.24353 -165.341 860.72 -0.989743 56.3684 271.267 0.989743 -56.3684 22.3433
2.41599 256.139 0 -2.41599 -256.139 -501.907 8.72752 165.185 -776.302 -8.72752 -165.185 -837.561 1.00806 56.3818 -274.655 -1.00806 -56.3818 -24.4346 -0.786093 254.812 2.84217e-14 0.786093 -254.812 157.578 -9.33746 165.367 862.115 9.33746 -165.367 864.253 -0.987307 56.3682 270.54 0.987307 -56.3682 22.3494
2.76793 256.465 -1.13687e-13 -2.76793 -256.465 -576.256 8.62568 165.158 -760.168 -8.62568 -165.158 -834.925 1.00863 56.3812 -274.959 -1.00863 -56.3812 -24.2948 -0.423768 254.485 1.13687e-13 0.423768 -254.485 81.1086 -9.43742 165.393 877.574 9.43742 -165.393 867.226 -0.986121 56.3688 270.074 0.986121 -56.3688 22.4657
3.18472 256.872 -5.68434e-14 -3.18472 -256.872 -664.325 8.5236 165.135 -742.798 -8.5236 -165.135 -833.507 1.0071 56.3795 -274.804 -1.0071 -56.3795 -23.9924 0.00525656 254.079 -2.30926e-14 -0.00525656 -254.079 -9.44089 -9.53616 165.416 894.036 9.53616 -165.416 868.944 -0.98705 56.3705 270.073 0.98705 -56.3705 22.746
3.66761 257.367 3.41061e-13 -3.66761 -257.367 -766.386 8.42903 165.119 -724.89 -8.42903 -165.119 -834.049 1.00262 56.3763 -273.982 -1.00262 -56.3763 -23.4781 0.502238 253.584 -1.42109e-14 -0.502238 -253.584 -114.336 -9.62547 165.433 910.756 9.62547 -165.433 868.627 -0.991035 56.3737 270.761 0.991035 -56.3737 23.2452
4.21805 257.963 -1.13687e-13 -4.21805 -257.963 -882.757 8.35047 165.113 -707.209 -8.35047 -165.113 -837.366 0.994332 56.3714 -272.291 -0.994332 -56.3714 -22.705 1.06862 252.988 -5.68434e-14 -1.06862 -252.988 -233.882 -9.69649 165.438 926.93 9.69649 -165.438 865.434 -0.999051 56.3786 272.374 0.999051 -56.3786 24.0169
4.83657 258.669 0 -4.83657 -258.669 -1013.56 8.29736 165.122 -690.622 -8.29736 -165.122 -844.342 0.981372 56.3642 -269.516 -0.981372 -56.3642 -21.6276 1.70496 252.282 -5.68434e-14 -1.70496 -252.282 -368.193 -9.73929 165.43 941.636 9.73929 -165.43 858.446 -1.01209 56.3858 275.156 1.01209 -56.3858 25.1101
5.52123 259.497 -2.27374e-13 -5.52123 -259.497 -1158.41 8.2806 165.151 -676.192 -8.2806 -165.151 -855.94 0.962816 56.3545 -265.428 -0.962816 -56.3545 -20.2031 2.40923 251.454 -5.68434e-13 -2.40923 -251.454 -516.84 -9.74242 165.401 953.762 9.74242 -165.401 846.643 -1.03113 56.3955 279.353 1.03113 -56.3955 26.5692
6.26528 260.451 1.13687e-13 -6.26528 -260.451 -1315.9 8.31323 165.206 -665.27 -8.31323 -165.206 -873.225 0.937754 56.342 -259.79 -0.937754 -56.342 -18.3985 3.17381 250.5 -2.84217e-13 -3.17381 -250.5 -678.215 -9.69358 165.346 962.096 9.69358 -165.346 828.958 -1.05712 56.408 285.212 1.05712 -56.408 28.4281
7.0543 261.523 4.54747e-13 -7.0543 -261.523 -1482.98 8.4089 165.292 -659.337 -8.4089 -165.292 -897.252 0.905425 56.3266 -252.386 -0.905425 -56.3266 -16.2053 3.98126 249.428 -3.41061e-13 -3.98126 -249.428 -848.655 -9.58197 165.26 965.714 9.58197 -165.26 804.306 -1.09057 56.4234 292.873 1.09057 -56.4234 30.6987
7.86763 262.718 -2.27374e-13 -7.86763 -262.718 -1655.33 8.58775 165.419 -660.741 -8.58775 -165.419 -929.403 0.865035 56.3081 -242.991 -0.865035 -56.3081 -13.6128 4.81301 248.233 -5.68434e-13 -4.81301 -248.233 -1024.22 -9.3834 165.132 961.607 9.3834 -165.132 771.221 -1.13291 56.4419 302.732 1.13291 -56.4419 33.4079
8.67632 264.021 6.82121e-13 -8.67632 -264.021 -1826.82 8.87054 165.596 -672.001 -8.87054 -165.596 -971 0.815975 56.2865 -231.409 -0.815975 -56.2865 -10.6391 5.63984 246.93 3.41061e-13 -5.63984 -246.93 -1198.74 -9.07508 164.956 947.083 9.07508 -164.956 728.172 -1.18476 56.4635 314.991 1.18476 -56.4635 36.5372
9.44566 265.412 -2.27374e-13 -9.44566 -265.412 -1990.14 9.27741 165.831 -695.667 -9.27741 -165.831 -1023.22 0.758097 56.262 -217.543 -0.758097 -56.262 -7.33825 6.42562 245.539 -7.95808e-13 -6.42562 -245.539 -1364.6 -8.6375 164.721 919.704 8.6375 -164.721 673.993 -1.2466 56.488 329.824 1.2466 -56.488 40.0494
10.1381 266.868 0 -10.1381 -266.868 -2137.34 9.82587 166.132 -734.084 -9.82587 -166.132 -1086.97 0.691757 56.2352 -201.407 -0.691757 -56.2352 -3.80435 7.13186 244.083 4.54747e-13 -7.13186 -244.083 -1513.7 -8.05218 164.42 877.047 8.05218 -164.42 607.682 -1.31816 56.5148 347.259 1.31816 -56.5148 43.8393
10.7175 268.359 1.13687e-12 -10.7175 -268.359 -2260.77 10.5294 166.506 -789.217 -10.5294 -166.506 -1162.75 0.617974 56.207 -183.157 -0.617974 -56.207 -0.187413 7.72117 242.592 6.82121e-13 -7.72117 -242.592 -1638.16 -7.30556 164.046 817.184 7.30556 -164.046 528.671 -1.39848 56.543 367.151 1.39848 -56.543 47.7619
11.1512 269.856 -2.27374e-13 -11.1512 -269.856 -2353.5 11.3949 166.956 -862.373 -11.3949 -166.956 -1250.56 0.538471 56.1786 -163.127 -0.538471 -56.1786 3.33439 8.15987 241.095 1.36424e-12 -8.15987 -241.095 -1730.9 -6.39107 163.596 738.898 6.39107 -163.596 436.967 -1.48576 56.5714 389.16 1.48576 -56.5714 51.6175
11.4103 271.326 -1.36424e-12 -11.4103 -271.326 -2409.39 12.4221 167.484 -954.088 -12.4221 -167.484 -1349.77 0.456113 56.1519 -141.874 -0.456113 -56.1519 6.46458 8.41807 239.624 -4.54747e-13 -8.41807 -239.624 -1785.64 -5.3094 163.067 641.705 5.3094 -163.067 333.196 -1.57724 56.5981 412.739 1.57724 -56.5981 55.1395
11.4665 272.732 2.27374e-13 -11.4665 -272.732 -2422.43 13.6045 168.09 -1064.33 -13.6045 -168.09 -1459.2 0.374463 56.1289 -120.128 -0.374463 -56.1289 8.87142 8.46668 238.219 0 -8.46668 -238.219 -1796.27 -4.06768 162.461 525.727 4.06768 -162.461 218.573 -1.66926 56.6211 437.13 1.66926 -56.6211 57.9888
11.2893 274.028 -4.54747e-13 -11.2893 -274.028 -2386.11 14.9307 168.77 -1192.68 -14.9307 -168.77 -1577.16 0.297733 56.1123 -98.7714 -0.297733 -56.1123 10.1857 8.27417 236.923 -4.54747e-13 -8.27417 -236.923 -1756.16 -2.67832 161.781 391.531 2.67832 -161.781 94.8453 -1.7574 56.6377 461.402 1.7574 -56.6377 59.7812
10.8433 275.158 2.27374e-13 -10.8433 -275.158 -2292.88 16.3853 169.52 -1338.43 -16.3853 -169.52 -1701.49 0.230779 56.1049 -78.8369 -0.230779 -56.1049 9.99438 7.80395 235.793 6.82121e-13 -7.80395 -235.793 -1657.62 -1.15805 161.031 239.993 1.15805 -161.031 -35.7384 -1.83655 56.6451 484.469 1.83655 -56.6451 60.0894
10.0877 276.054 4.54747e-13 -10.0877 -276.054 -2134.05 17.9483 170.332 -1500.53 -17.9483 -170.332 -1829.49 0.179094 56.1096 -61.5001 -0.179094 -56.1096 7.83994 7.01422 234.897 6.82121e-13 -7.01422 -234.897 -1491.87 0.471414 160.22 72.3391 -0.471414 -160.22 -170.356 -1.90119 56.6404 505.138 1.90119 -56.6404 58.4573
8.98137 276.639 -4.54747e-13 -8.98137 -276.639 -1900.87 19.5936 171.194 -1677.37 -19.5936 -171.194 -1957.91 0.148752 56.1299 -48.0854 -0.148752 -56.1299 3.24096 5.86299 234.312 2.27374e-13 -5.86299 -234.312 -1250.05 2.17872 159.358 -109.452 -2.17872 -159.358 -305.156 -1.94635 56.6201 522.338 1.94635 -56.6201 54.4804
7.49716 276.838 4.54747e-13 -7.49716 -276.838 -1587.54 21.2808 172.086 -1865.75 -21.2808 -172.086 -2082.43 0.145677 56.1683 -39.9775 -0.145677 -56.1683 -4.1792 4.3229 234.113 0 -4.3229 -234.113 -926.391 3.9247 158.465 -302.195 -3.9247 -158.465 -436.041 -1.96343 56.5817 534.25 1.96343 -56.5817 47.4215
5.6422 276.606 1.13687e-13 -5.6422 -276.606 -1195.58 22.9524 172.995 -2060.12 -22.9524 -172.995 -2197.93 0.178653 56.2295 -39.1106 -0.178653 -56.2295 -15.0951 2.40189 234.344 -7.95808e-13 -2.40189 -234.344 -522.504 5.64709 157.557 -499.823 -5.64709 -157.557 -557.521 -1.9447 56.5205 538.909 1.9447 -56.5205 36.9512
3.47642 275.928 2.27374e-13 -3.47642 -275.928 -737.678 24.5209 173.884 -2251.13 -24.5209 -173.884 -2297.51 0.256462 56.3175 -47.5669 -0.256462 -56.3175 -30.0321 0.162765 235.023 1.63425e-13 -0.162765 -235.023 -51.5262 7.25681 156.667 -692.857 -7.25681 -156.667 -662.565 -1.87929 56.4325 533.847 1.87929 -56.4325 22.3086
1.11015 274.825 -8.52651e-14 -1.11015 -274.825 -237.232 25.8767 174.714 -2426.46 -25.8767 -174.714 -2373.21 0.38845 56.4362 -67.5883 -0.38845 -56.4362 -49.5225 -2.2794 236.126 0 2.2794 -236.126 462.423 8.63953 155.838 -868.621 -8.63953 -155.838 -742.669 -1.7575 56.3138 516.649 1.7575 -56.3138 3.03642
-1.32065 273.34 5.68434e-14 1.32065 -273.34 276.958 26.9024 175.437 -2572.57 -26.9024 -175.437 -2416.76 0.582404 56.5879 -101.172 -0.582404 -56.5879 -73.8791 -4.78336 237.611 0 4.78336 -237.611 989.716 9.67413 155.114 -1013.32 -9.67413 -155.114 -789.201 -1.5702 56.1621 484.917 1.5702 -56.1621 -21.1843
-3.68351 271.508 0 3.68351 -271.508 776.837 27.4864 176.012 -2676.5 -27.4864 -176.012 -2420.48 0.845308 56.7763 -150.031 -0.845308 -56.7763 -103.459 -7.2198 239.443 0 7.2198 -239.443 1503.17 10.2303 154.539 -1111.53 -10.2303 -154.539 -793.473 -1.30823 55.9737 436.404 1.30823 -55.9737 -50.8122
-5.86063 269.382 3.41061e-13 5.86063 -269.382 1237.48 27.5368 176.4 -2727.42 -27.5368 -176.4 -2378.14 1.18126 57.0021 -215.289 -1.18126 -57.0021 -138.352 -9.45828 241.569 0 9.45828 -241.569 1975.41 10.2333 154.151 -1154.86 -10.2333 -154.151 -750.004 -0.967291 55.7479 369.905 0.967291 -55.7479 -85.9193
-7.75628 267.011 -4.54747e-13 7.75628 -267.011 1638.67 26.9921 176.573 -2717.87 -26.9921 -176.573 -2285.82 1.59088 57.2642 -297.329 -1.59088 -57.2642 -178.351 -11.4008 243.94 -2.27374e-13 11.4008 -243.94 2385.83 9.6116 153.978 -1135.07 -9.6116 -153.978 -653.822 -0.546264 55.4858 285.029 0.546264 -55.4858 -126.434
-9.30758 264.426 9.09495e-13 9.30758 -264.426 1967.13 25.8181 176.51 -2643.48 -25.8181 -176.51 -2141.58 2.07118 57.56 -395.689 -2.07118 -57.56 -223.028 -12.9817 246.525 -6.82121e-13 12.9817 -246.525 2720.61 8.33387 154.041 -1048.08 -8.33387 -154.041 -503.193 -0.0480426 55.19 182.103 0.0480426 -55.19 -171.817
-10.4887 261.643 6.82121e-13 10.4887 -261.643 2217.43 24.0098 176.201 -2503 -24.0098 -176.201 -1945.73 2.61524 57.8848 -509.062 -2.61524 -57.8848 -271.624 -14.1726 249.308 -9.09495e-13 14.1726 -249.308 2973.72 6.40087 154.351 -893.488 -6.40087 -154.351 -298.667 0.52044 54.8652 62.5089 -0.52044 -54.8652 -221.382
-11.3127 258.664 2.27374e-13 11.3127 -258.664 2392.31 21.5827 175.642 -2297 -21.5827 -175.642 -1700.63 3.2131 58.232 -635.508 -3.2131 -58.232 -323.118 -14.9798 252.287 -9.09495e-13 14.9798 -252.287 3146.41 3.83959 154.91 -673.629 -3.83959 -154.91 -42.897 1.14794 54.518 -71.4397 -1.14794 -54.518 -274.095
-11.7937 255.517 -6.82121e-13 11.7937 -255.517 2494.85 18.6181 174.847 -2034.65 -18.6181 -174.847 -1412.18 3.8494 58.5929 -771.657 -3.8494 -58.5929 -376.302 -15.4305 255.433 -9.09495e-13 15.4305 -255.433 3244.35 0.71615 155.704 -395.056 -0.71615 -155.704 258.423 1.81978 54.1571 -216.67 -1.81978 -54.1571 -328.656
-11.9748 252.218 2.27374e-12 11.9748 -252.218 2534.15 15.1901 173.831 -1723.18 -15.1901 -173.831 -1086.89 4.50763 58.9578 -914.098 -4.50763 -58.9578 -429.676 -15.5678 258.733 1.81899e-12 15.5678 -258.733 3276.54 -2.88795 156.72 -66.0891 2.88795 -156.72 598.515 2.51694 53.7922 -369.09 -2.51694 -53.7922 -383.504
-11.9077 248.771 9.09495e-13 11.9077 -248.771 2521.13 11.3912 172.603 -1372.05 -11.3912 -172.603 -732.511 5.16772 59.3145 -1058.55 -5.16772 -59.3145 -481.549 -15.4448 262.18 -4.54747e-13 15.4448 -262.18 3254.09 -6.87889 157.948 303.317 6.87889 -157.948 969.95 3.21721 53.4355 -523.636 -3.21721 -53.4355 -437.102
-11.6481 245.219 1.81899e-12 11.6481 -245.219 2467.56 7.33836 171.206 -993.002 -7.33836 -171.206 -358.99 5.80972 59.6528 -1200.71 -5.80972 -59.6528 -530.285 -15.1222 265.732 -4.54747e-13 15.1222 -265.732 3189.7 -11.1361 159.346 701.667 11.1361 -159.346 1361.89 3.89975 53.0972 -676.168 -3.89975 -53.0972 -487.388
-11.2495 241.596 1.59162e-12 11.2495 -241.596 2384.72 3.14591 169.666 -597.456 -3.14591 -169.666 23.8603 6.41216 59.9601 -1335.98 -6.41216 -59.9601 -574.078 -14.6561 269.355 9.09495e-13 14.6561 -269.355 3095.11 -15.5351 160.886 1116.71 15.5351 -160.886 1763.5 4.54445 52.7899 -822.147 -4.54445 -52.7899 -532.925
-10.7523 237.954 1.36424e-12 10.7523 -237.954 2281.08 -1.07348 168.014 -196.363 1.07348 -168.014 406.079 6.95432 60.2246 -1459.92 -6.95432 -60.2246 -611.221 -14.0891 272.997 -1.36424e-12 14.0891 -272.997 2979.18 -19.9579 162.537 1536.9 19.9579 -162.537 2164.44 5.12763 52.5254 -956.519 -5.12763 -52.5254 -571.729
-10.1772 234.363 -4.54747e-13 10.1772 -234.363 2161.01 -5.21293 166.281 200.119 5.21293 -166.281 777.981 7.41579 60.435 -1568.13 -7.41579 -60.435 -640.026 -13.4441 276.588 -1.36424e-12 13.4441 -276.588 2846.67 -24.2929 164.27 1951.69 24.2929 -164.27 2554.58 5.62815 52.315 -1074.66 -5.62815 -52.315 -602.135
-9.5318 230.902 -4.54747e-13 9.5318 -230.902 2026.1 -9.17253 164.495 582.672 9.17253 -164.495 1130.34 7.77742 60.5805 -1656.46 -7.77742 -60.5805 -658.935 -12.7309 280.048 9.09495e-13 12.7309 -280.048 2699.51 -28.4362 166.057 2351.44 28.4362 -166.057 2924.24 6.02581 52.1695 -1172.22 -6.02581 -52.1695 -622.499
-8.82931 227.645 0 8.82931 -227.645 1879.12 -12.8554 162.683 942.121 12.8554 -162.683 1454.35 8.02132 60.6515 -1721.04 -8.02132 -60.6515 -666.508 -11.9646 283.306 -4.54747e-13 11.9646 -283.306 2540.8 -32.2854 167.869 2726.5 32.2854 -167.869 3264.06 6.30218 52.0985 -1245.16 -6.30218 -52.0985 -631.386
-8.10988 224.627 -6.82121e-13 8.10988 -224.627 1728.51 -16.1723 160.87 1268.81 16.1723 -160.87 1743.11 8.12758 60.6387 -1757.23 -8.12758 -60.6387 -661.469 -11.188 286.324 4.54747e-13 11.188 -286.324 2379.53 -35.7359 169.681 3066.37 35.7359 -169.681 3565.14 6.43928 52.1113 -1289.49 -6.43928 -52.1113 -627.428
-7.45498 221.867 6.82121e-13 7.45498 -221.867 1591.38 -18.9964 159.101 1550.37 18.9964 -159.101 1985.54 8.08748 60.5362 -1763.43 -8.08748 -60.5362 -642.818 -10.4844 289.084 -4.54747e-13 10.4844 -289.084 2233.27 -38.6716 171.451 3358.92 38.6716 -171.451 3818.03 6.42334 52.2138 -1302.05 -6.42334 -52.2138 -609.706
-6.98319 219.337 6.82121e-13 6.98319 -219.337 1492.6 -21.2182 157.415 1774.36 21.2182 -157.415 2173.76 7.89005 60.3385 -1736.98 -7.89005 -60.3385 -609.961 -9.9751 291.614 -4.54747e-13 9.9751 -291.614 2127.68 -40.9757 173.136 3591.24 40.9757 -173.136 4013.99 6.24215 52.4115 -1280.01 -6.24215 -52.4115 -577.412
-6.84562 216.966 4.54747e-13 6.84562 -216.966 1463.89 -22.7301 155.855 1927.99 22.7301 -155.855 2300.71 7.52661 60.0423 -1675.81 -7.52661 -60.0423 -562.391 -9.81391 293.985 9.09495e-13 9.81391 -293.985 2095.39 -42.5364 174.697 3750.3 42.5364 -174.697 4145.32 5.88733 52.7077 -1221.33 -5.88733 -52.7077 -530.107
-7.41339 214.052 -1.36424e-12 7.41339 -214.052 1583.05 -23.476 154.134 2002.54 23.476 -154.134 2364.83 6.83439 59.5327 -1549.23 -6.83439 -59.5327 -482.239 -10.376 296.899 0 10.376 -296.899 2216.25 -43.2953 176.417 3827.71 43.2953 -176.417 4209.81 5.19346 53.2173 -1094.69 -5.19346 -53.2173 -449.771
-9.14011 210.924 -6.82121e-13 9.14011 -210.924 1945.11 -22.828 152.718 1929.01 22.828 -152.718 2318.8 5.88365 58.8732 -1367.82 -5.88365 -58.8732 -379.989 -12.1267 300.027 -9.09495e-13 12.1267 -300.027 2588.61 -42.6081 177.833 3752.9 42.6081 -177.833 4158.37 4.22516 53.8768 -909.124 -4.22516 -53.8768 -346.713
-12.3335 207.268 4.54747e-13 12.3335 -207.268 2614.32 -20.7523 151.633 1698.52 20.7523 -151.633 2165.34 4.69364 58.0767 -1135.39 -4.69364 -58.0767 -257.616 -15.374 303.683 1.36424e-12 15.374 -303.683 3278.2 -40.444 178.919 3517.58 40.444 -178.919 3993.66 3.00187 54.6733 -668.379 -3.00187 -54.6733 -222.94
-17.1682 202.801 4.54747e-13 17.1682 -202.801 3626.81 -17.3544 150.858 1317.48 17.3544 -150.858 1917.69 3.2995 57.1643 -859.259 -3.2995 -57.1643 -118.266 -20.2875 308.15 2.27374e-12 20.2875 -308.15 4321.77 -36.9168 179.694 3129.24 36.9168 -179.694 3729.35 1.56108 55.5857 -380.359 -1.56108 -55.5857 -81.6814
-23.6358 197.294 2.72848e-12 23.6358 -197.294 4980.06 -12.8976 150.31 810.331 12.8976 -150.31 1600.27 1.74905 56.1562 -550.346 -1.74905 -56.1562 34.723 -26.8478 313.657 -9.09495e-13 26.8478 -313.657 5716.27 -32.302 180.242 2613.65 32.302 -180.242 3390.87 -0.04874 56.5938 -56.5607 0.04874 -56.5938 74.1482
-31.5228 190.625 1.81899e-12 31.5228 -190.625 6628.28 -7.80117 149.866 219.775 7.80117 -149.866 1248.07 0.105678 55.0917 -223.014 -0.105678 -55.0917 196.851 -34.8236 320.326 0 34.8236 -320.326 7413.97 -27.0398 180.685 2015.27 27.0398 -180.685 3015.49 -1.75673 57.6583 287.452 1.75673 -57.6583 239.063
-40.4065 182.791 9.09495e-13 40.4065 -182.791 8481.85 -2.62481 149.362 -394.888 2.62481 -149.362 905.498 -1.54421 54.0167 105.001 1.54421 -54.0167 360.172 -43.7716 328.16 0 43.7716 -328.16 9322.13 -21.7095 181.19 1395.08 21.7095 -181.19 2649.65 -3.47153 58.7333 632.379 3.47153 -58.7333 405.212
-49.6864 173.903 7.27596e-12 49.6864 -173.903 10414.2 1.98146 148.595 -962.769 -1.98146 -148.595 622.053 -3.12086 52.9749 415.762 3.12086 -52.9749 518.927 -53.0705 337.048 2.72848e-12 53.0705 -337.048 11310 -16.9841 181.956 825.828 16.9841 -181.956 2345.47 -5.10716 59.7751 958.506 5.10716 -59.7751 566.742
-58.6882 164.143 -3.63798e-12 58.6882 -164.143 12284 5.3555 147.355 -1410.56 -5.3555 -147.355 447.034 -4.54621 52.0076 691.71 4.54621 -52.0076 667.493 -62.0303 346.808 -1.81899e-12 62.0303 -346.808 13231.6 -13.5466 183.196 382.313 13.5466 -183.196 2154.78 -6.57621 60.7424 1246.27 6.57621 -60.7424 717.221
-66.8127 153.677 -3.63798e-12 66.8127 -153.677 13966 6.92217 145.457 -1674.53 -6.92217 -145.457 423.163 -5.75236 51.1495 917.787 5.75236 -51.1495 800.78 -70.0427 357.274 7.27596e-12 70.0427 -357.274 14957.5 -11.9905 185.095 129.534 11.9905 -185.095 2122.71 -7.80715 61.6005 1479.32 7.80715 -61.6005 851.705
-73.6455 142.601 -1.81899e-12 73.6455 -142.601 15374.2 6.26858 142.766 -1709.39 -6.26858 -142.766 581.544 -6.69076 50.4249 1083.25 6.69076 -50.4249 915.127 -76.691 368.35 5.45697e-12 76.691 -368.35 16398.8 -12.7388 187.786 113.499 12.7388 -187.786 2281.74 -8.74772 62.3251 1645.75 8.74772 -62.3251 966.537
-78.9783 130.948 -1.81899e-12 78.9783 -130.948 16465.9 3.17365 139.21 -1491.3 -3.17365 -139.21 939.136 -7.33582 49.8478 1182.37 7.33582 -49.8478 1008.69 -81.77 380.002 -5.45697e-12 81.77 -380.002 17511.1 -16.0176 191.342 358.419 16.0176 -191.342 2649.75 -9.36979 62.9022 1739.27 9.36979 -62.9022 1059.64
-82.7771 118.72 -9.09495e-12 82.7771 -118.72 17235 -2.39513 134.775 -1016.88 2.39513 -134.775 1498.39 -7.68521 49.4194 1214.55 7.68521 -49.4194 1081.4 -85.2525 392.231 5.45697e-12 85.2525 -392.231 18287.8 -21.8576 195.777 867.599 21.8576 -195.777 3229.36 -9.67071 63.3306 1759.26 9.67071 -63.3306 1130.79
-85.1418 105.92 1.81899e-12 85.1418 -105.92 17702.9 -10.2982 129.503 -301.004 10.2982 -129.503 2248.12 -7.759 49.1289 1184.25 7.759 -49.1289 1134.77 -87.2477 405.031 3.63798e-12 87.2477 -405.031 18751.2 -30.1116 201.049 1625.65 30.1116 -201.049 4008.86 -9.67236 63.6211 1710.66 9.67236 -63.6211 1181.59
-86.2554 92.5908 -1.81899e-12 86.2554 -92.5908 17908.8 -20.2533 123.483 626.831 20.2533 -123.483 3165.25 -7.59771 48.9544 1100.46 7.59771 -48.9544 1171.85 -87.9499 418.36 7.27596e-12 87.9499 -418.36 18941.6 -40.4834 207.069 2602.09 40.4834 -207.069 4963.99 -9.41888 63.7956 1603.26 9.41888 -63.7956 1215.33
-86.3204 78.8456 -1.81899e-12 86.3204 -78.8456 17895.5 -31.8751 116.835 1727.41 31.8751 -116.835 4217.41 -7.2588 48.865 975.833 7.2588 -48.865 1197.07 -87.5749 432.105 1.81899e-12 87.5749 -432.105 18904.1 -52.5707 213.716 3756.36 52.5707 -213.716 6060.84 -8.97171 63.885 1450.77 8.97171 -63.885 1236.6
-85.5377 64.8731 -3.63798e-12 85.5377 -64.8731 17705.9 -44.702 109.707 2954.58 44.702 -109.707 5365.04 -6.81286 48.8231 825.791 6.81286 -48.8231 1215.96 -86.3383 446.078 -5.45697e-12 86.3383 -446.078 18683.2 -65.892 220.844 5040.64 65.892 -220.844 7257.98 -8.40605 63.9269 1269.89 8.40605 -63.9269 1251.08
-84.1467 50.8864 -5.45697e-12 84.1467 -50.8864 17390.5 -58.1998 102.27 4254.79 58.1998 -102.27 6562.66 -6.34014 48.7857 667.957 6.34014 -48.7857 1234.74 -84.4937 460.065 -3.63798e-12 84.4937 -460.065 18331.9 -79.8912 228.282 6399.43 79.8912 -228.282 8507.7 -7.8074 63.9643 1079.66 7.8074 -63.9643 1265.16
-82.4697 37.0662 -1.09139e-11 82.4697 -37.0662 17016.5 -71.7692 94.7164 5567.03 71.7692 -94.7164 7760.3 -5.9264 48.7072 521.268 5.9264 -48.7072 1259.93 -82.373 473.885 -9.09495e-12 82.373 -473.885 17920.6 -93.946 235.835 7769.59 93.946 -235.835 9757.5 -7.26777 64.0428 900.601 7.26777 -64.0428 1285.7
-80.9002 23.5433 -1.09139e-11 80.9002 -23.5433 16665.5 -84.7789 87.2527 6826.16 84.7789 -87.2527 8906.37 -5.65752 48.5423 404.739 5.65752 -48.5423 1298.01 -80.3735 487.408 1.81899e-12 80.3735 -487.408 17533.9 -107.404 243.299 9083.94 107.404 -243.299 10953.2 -6.87958 64.2077 753.476 6.87958 -64.2077 1319.46
-79.8377 10.4216 -7.27596e-12 79.8377 -10.4216 16419.7 -96.624 80.0786 7969.53 96.624 -80.0786 9951.77 -5.6131 48.2492 336.019 5.6131 -48.2492 1354.93 -78.8936 500.529 -7.27596e-12 78.8936 -500.529 17257.4 -119.642 250.473 10277.9 119.642 -250.473 12043.3 -6.7285 64.5008 657.6 6.7285 -64.5008 1372.62
-79.5917 -2.17382 -9.09495e-12 79.5917 2.17382 16342.7 -106.793 73.3672 8944.8 106.793 -73.3672 10854.5 -5.85975 47.7933 329.91 5.85975 -47.7933 1435.66 -78.2404 513.125 -1.45519e-11 78.2404 -513.125 17157.4 -130.134 257.184 11297.5 130.134 -257.184 12983.9 -6.88607 64.9567 629.15 6.88607 -64.9567 1450.3
-80.3139 -14.0643 -3.63798e-12 80.3139 14.0643 16465.5 -114.919 67.2487 9715.75 114.919 -67.2487 11583.3 -6.44589 47.1498 397.2 6.44589 -47.1498 1543.74 -78.5654 525.015 1.09139e-11 78.5654 -525.015 17266.4 -138.505 263.303 12105.4 138.505 -263.303 13741.9 -7.40411 65.6002 679.855 7.40411 -65.6002 1556.23
-82.0244 -25.051 -3.63798e-12 82.0244 25.051 16791.9 -120.782 61.8098 10261.8 120.782 -61.8098 12118 -7.39957 46.3047 544.231 7.39957 -46.3047 1681.12 -79.8915 536.002 3.63798e-12 79.8915 -536.002 17589.3 -144.528 268.742 12679.9 144.528 -268.742 14296.5 -8.31251 66.4453 816.561 8.31251 -66.4453 1692.49
-84.6775 -34.9743 -9.09495e-12 84.6775 34.9743 17312.7 -124.286 57.1003 10575.2 124.286 -57.1003 12449.3 -8.72815 45.2556 772.842 8.72815 -45.2556 1848.09 -82.1761 545.925 1.81899e-12 82.1761 -545.925 18116.7 -148.108 273.451 13013 148.108 -273.451 14637.9 -9.61909 67.4944 1041.3 9.61909 -67.4944 1859.39
-88.1888 -43.7357 0 88.1888 43.7357 18010.5 -125.457 53.1362 10659.5 125.457 -53.1362 12578.5 -10.4182 44.0117 1080.39 10.4182 -44.0117 2043.26 -85.3374 554.687 -1.81899e-12 85.3374 -554.687 18830.8 -149.272 277.415 13107.9 149.272 -277.415 14767.2 -11.3098 68.7383 1351.34 11.3098 -68.7383 2055.52
-92.4441 -51.3012 -1.81899e-12 92.4441 51.3012 18862 -124.429 49.9016 10528.9 124.429 -49.9016 12516.3 -12.4364 42.5933 1459.95 12.4364 -42.5933 2263.6 -89.2641 562.252 1.81899e-12 89.2641 -562.252 19707.5 -148.161 280.65 12979.4 148.161 -280.65 14696.1 -13.3495 70.1567 1739.36 13.3495 -70.1567 2277.78
-97.3073 -57.6995 -7.27596e-12 97.3073 57.6995 19839.4 -121.437 47.352 10207.1 121.437 -47.352 12282.6 -14.7313 41.0308 1900.75 14.7313 -41.0308 2504.58 -93.8215 568.65 -3.63798e-12 93.8215 -568.65 20717.7 -145.019 283.2 12651.9 145.019 -283.2 14445.3 -15.6841 71.7192 2193.89 15.6841 -71.7192 2521.52
-102.63 -63.0195 9.09495e-12 102.63 63.0195 20912.2 -116.8 45.4194 9725.59 116.8 -45.4194 11905 -17.2358 39.3634 2388.66 17.2358 -39.3634 2760.37 -98.8618 573.97 -3.63798e-12 98.8618 -573.97 21829.5 -140.178 285.132 12158.2 140.178 -285.132 14043.8 -18.2429 73.3866 2699.89 18.2429 -73.3866 2780.79
-108.254 -67.3992 -9.09495e-12 108.254 67.3992 22048.1 -110.906 44.0154 9122.21 110.906 -44.0154 11417.1 -19.8705 37.6374 2906.9 19.8705 -37.6374 3024.14 -104.226 578.35 0 104.226 -578.35 23008.7 -134.039 286.536 11537.4 134.039 -286.536 13526.9 -20.9425 75.1126 3239.45 20.9425 -75.1126 3048.56
-114.005 -71.0061 -3.63798e-12 114.005 71.0061 23211.3 -104.194 43.036 8439.94 104.194 -43.036 10857.1 -22.5468 35.9037 3436.8 22.5468 -35.9037 3288.36 -109.737 581.957 3.63798e-12 109.737 -581.957 24217.8 -127.057 287.516 10834.5 127.057 -287.516 12934.7 -23.69 76.8463 3792.66 23.69 -76.8463 3317.08
-119.7 -74.024 -3.63798e-12 119.7 74.024 24364.1 -97.133 42.367 7724.69 97.133 -42.367 10266.1 -25.1718 34.2159 3958.66 25.1718 -34.2159 3545.11 -115.211 584.975 7.27596e-12 115.211 -584.975 25417.1 -119.719 288.184 10097 119.719 -288.184 12310.2 -26.3877 78.5341 4338.48 26.3877 -78.5341 3578.21
-125.171 -76.654 7.27596e-12 125.171 76.654 25471.8 -90.1939 41.8932 7022.02 90.1939 -41.8932 9685.09 -27.6525 32.6275 4452.87 27.6525 -32.6275 3786.49 -120.475 587.605 0 120.475 -587.605 26569.7 -112.512 288.658 9372.44 112.512 -288.658 11696.7 -28.9382 80.1225 4855.89 28.9382 -80.1225 3823.84
-130.296 -79.1221 0 130.296 79.1221 26508.9 -83.8126 41.5067 6373.66 83.8126 -41.5067 9153.05 -29.9006 31.1894 4900.82 29.9006 -31.1894 4005 -125.399 590.073 7.27596e-12 125.399 -590.073 27648.8 -105.887 289.045 8704.37 105.887 -289.045 11134.8 -31.2493 81.5606 5325.05 31.2493 -81.5606 4046.24
-135.012 -81.6729 7.27596e-12 135.012 81.6729 27461.6 -78.3702 41.1133 5815.3 78.3702 -41.1133 8704.68 -31.8368 29.9471 5285.81 31.8368 -29.9471 4193.88 -129.908 592.624 7.27596e-12 129.908 -592.624 28639 -100.239 289.438 8130.13 100.239 -289.438 10660.9 -33.2381 82.8029 5728.14 33.2381 -82.8029 4238.47
-139.285 -84.5395 0 139.285 84.5395 28322.6 -74.1884 40.6329 5376.73 74.1884 -40.6329 8369.64 -33.3933 28.9397 5593.6 33.3933 -28.9397 4347.35 -133.959 595.49 -1.09139e-11 133.959 -595.49 29532.3 -95.9048 289.919 7680.99 95.9048 -289.919 10306.2 -34.8344 83.8103 6050.01 34.8344 -83.8103 4394.56
-143.053 -87.8842 3.63798e-12 143.053 87.8842 29078.4 -71.5436 39.9937 5084.27 71.5436 -39.9937 8172.62 -34.5156 28.1981 5812.69 34.5156 -28.1981 4460.83 -137.48 598.835 -1.09139e-11 137.48 -598.835 30313.9 -93.1696 290.558 7384.48 93.1696 -290.558 10096.5 -35.9814 84.5519 6278.42 35.9814 -84.5519 4509.81
-146.153 -91.7396 1.45519e-11 146.153 91.7396 29695.8 -70.6803 39.1274 4963.24 70.6803 -39.1274 8133.51 -35.1643 27.7443 5934.63 35.1643 -27.7443 4531.1 -140.314 602.69 0 140.314 -602.69 30949.5 -92.2866 291.424 7266.73 92.2866 -291.424 10052.9 -36.6378 85.0057 6404.24 36.6378 -85.0057 4580.88
-148.326 -95.9931 7.27596e-12 148.326 95.9931 30122.3 -71.8 37.9728 5036.79 71.8 -37.9728 8266.3 -35.3168 27.5901 5954.46 35.3168 -27.5901 4556.52 -142.214 606.944 -7.27596e-12 142.214 -606.944 31384.9 -93.4619 292.579 7351.27 93.4619 -292.579 10190.1 -36.7791 85.1599 6421.97 36.7791 -85.1599 4606.03
-149.274 -100.426 7.27596e-12 149.274 100.426 30298.7 -75.0211 36.4888 5321.06 75.0211 -36.4888 8576.66 -34.9707 27.7357 5871.44 34.9707 -27.7357 4537.12 -142.907 611.377 0 142.907 -611.377 31559.2 -96.8139 294.063 7654.05 96.8139 -294.063 10514.2 -36.402 85.0143 6330.53 36.402 -85.0143 4585.29
-148.98 -103.919 -3.63798e-12 148.98 103.919 30225.5 -79.1126 35.0579 5703.43 79.1126 -35.0579 8949.81 -34.3476 28.0601 5733.49 34.3476 -28.0601 4490.55 -142.437 614.87 -3.63798e-12 142.437 -614.87 31475.7 -101.061 295.494 8056.14 101.061 -295.494 10904.9 -35.7396 84.6899 6181.34 35.7396 -84.6899 4536.88
-147.156 -107.973 7.27596e-12 147.156 107.973 29839.3 -86.0042 32.9904 6366.92 86.0042 -32.9904 9558.99 -33.1699 28.7055 5478.77 33.1699 -28.7055 4396.5 -140.453 618.923 -1.81899e-11 140.453 -618.923 31065.3 -108.204 297.561 8749.43 108.204 -297.561 11543.7 -34.4961 84.0445 5907.31 34.4961 -84.0445 4439.65
-143.68 -111.413 -3.63798e-12 143.68 111.413 29119.9 -94.6 30.6839 7212.42 94.6 -30.6839 10300.9 -31.6073 29.5847 5144.9 31.6073 -29.5847 4267.5 -136.9 622.364 -7.27596e-12 136.9 -622.364 30309.4 -117.102 299.868 9628.92 117.102 -299.868 12322.6 -32.8514 83.1653 5549.11 32.8514 -83.1653 4306.63
-138.648 -113.976 -1.09139e-11 138.648 113.976 28087.7 -104.467 28.2583 8198.63 104.467 -28.2583 11136.7 -29.7407 30.652 4749.22 29.7407 -30.652 4110.22 -131.885 624.927 0 131.885 -624.927 29229.9 -127.303 302.293 10651.3 127.303 -302.293 13200.8 -30.8906 82.098 5125.33 30.8906 -82.098 4144.69
-132.248 -115.401 -7.27596e-12 132.248 115.401 26782.2 -115.058 25.869 9272.2 115.058 -25.869 12018.8 -27.6665 31.8539 4312.39 27.6665 -31.8539 3932.49 -125.606 626.352 0 125.606 -626.352 27868.6 -138.243 304.683 11761.1 138.243 -304.683 14128.4 -28.7151 80.8961 4658.22 28.7151 -80.8961 3961.91
-124.71 -115.402 1.45519e-11 124.71 115.402 25250.7 -125.756 23.6936 10372.9 125.756 -23.6936 12893.6 -25.4906 33.1317 3857.17 25.4906 -33.1317 3742.88 -118.297 626.353 -7.27596e-12 118.297 -626.353 26275 -149.283 306.858 12895.5 149.283 -306.858 15049.4 -26.4368 79.6183 4172.29 26.4368 -79.6183 3767.16
-116.285 -113.688 0 116.285 113.688 23544.6 -135.911 21.9231 11436.9 135.911 -21.9231 13705 -23.3229 34.4247 3407.24 23.3229 -34.4247 3550.23 -110.209 624.639 -7.27596e-12 110.209 -624.639 24503.5 -159.753 308.628 13988.2 159.753 -308.628 15904.6 -24.1714 78.3253 3693.01 24.1714 -78.3253 3569.56
-107.235 -109.967 5.45697e-12 107.235 109.967 21716.8 -144.87 20.752 12400 144.87 -20.752 14396.7 -21.271 35.6737 2985.91 21.271 -35.6737 3363.2 -101.6 620.918 -3.63798e-12 101.6 -620.918 22609.9 -168.98 309.8 14972.7 168.98 -309.8 16635.1 -22.033 77.0763 3245.46 22.033 -77.0763 3378.07
-97.8032 -103.961 -1.81899e-12 97.8032 103.961 19816.7 -152.018 20.3667 13201.9 152.018 -20.3667 14915.5 -19.4347 36.824 2614.75 19.4347 -36.824 3189.71 -92.7069 614.911 -1.45519e-11 92.7069 -614.911 20646.1 -176.328 310.185 15786.2 176.328 -310.185 17185.2 -20.1273 75.926 2852.92 20.1273 -75.926 3200.89
-88.2133 -95.4143 -1.81899e-12 88.2133 95.4143 17888.6 -156.806 20.9381 13788.6 156.806 -20.9381 15214.3 -17.9004 37.8285 2312.57 17.9004 -37.8285 3036.62 -83.7433 606.365 0 83.7433 -606.365 18659 -181.233 309.613 16372.6 181.233 -309.613 17505.4 -18.5461 74.9215 2535.69 18.5461 -74.9215 3045.11
-78.6619 -84.122 0 78.6619 84.122 15971.4 -158.774 22.6146 14114.5 158.774 -22.6146 15253.8 -16.7366 38.6503 2094.4 16.7366 -38.6503 2909.25 -74.8922 595.073 -1.09139e-11 74.8922 -595.073 16689.4 -183.221 307.937 16684.8 183.221 -307.937 17554.4 -17.3626 74.0997 2310.01 17.3626 -74.0997 2916.26
-69.3059 -69.929 3.63798e-12 69.3059 69.929 14095.7 -157.58 25.5141 14145.7 157.58 -25.5141 15004.7 -15.9902 39.2649 1970.62 15.9902 -39.2649 2811.12 -66.2946 580.88 9.09495e-12 66.2946 -580.88 14769.6 -181.938 305.037 16687.7 181.938 -305.037 17301.5 -16.627 73.4851 2187.17 16.627 -73.4851 2818
-60.2678 -52.7495 -1.81899e-12 60.2678 52.7495 12284.7 -153.01 29.7206 13860.1 153.01 -29.7206 14449.2 -15.6836 39.6615 1946.43 15.6836 -39.6615 2743.73 -58.055 563.7 -1.27329e-11 58.055 -563.7 12923.9 -177.161 300.831 16358.4 177.161 -300.831 16728.2 -16.364 73.0885 2172.91 16.364 -73.0885 2751.9
-51.6794 -32.6081 4.54747e-12 51.6794 32.6081 10563.3 -144.967 35.2872 13246.2 144.967 -35.2872 13580.6 -15.8144 39.8437 2021.75 15.8144 -39.8437 2706.44 -50.2831 543.559 -9.09495e-13 50.2831 -543.559 11178.1 -168.787 295.264 15685.5 168.787 -295.264 15827.4 -16.5722 72.9063 2267.33 16.5722 -72.9063 2717.38
-43.7316 -9.68678 9.09495e-13 43.7316 9.68678 8968.8 -133.459 42.2398 12300.7 133.459 -42.2398 12403.2 -16.3556 39.8295 2191.28 16.3556 -39.8295 2696.5 -43.1439 520.638 9.09495e-13 43.1439 -520.638 9570.48 -156.823 288.312 14666.3 156.823 -288.312 14603.4 -17.2241 72.9205 2465 17.2241 -72.9205 2711.66
-36.6579 15.6798 -1.81899e-12 36.6579 -15.6798 7547.58 -118.608 50.573 11029.7 118.608 -50.573 10932.7 -17.2547 39.6507 2444.39 17.2547 -39.6507 2709.07 -36.846 495.271 4.54747e-12 36.846 -495.271 8147.99 -141.391 279.978 13308.1 141.391 -279.978 13072.7 -18.2665 73.0993 2754.94 18.2665 -73.0993 2729.79
-30.6329 43.0819 -2.72848e-12 30.6329 -43.0819 6334.71 -100.69 60.2356 9454.76 100.69 -60.2356 9197.76 -18.4341 39.3535 2764.92 18.4341 -39.3535 2737.23 -31.5463 467.869 3.63798e-12 31.5463 -467.869 6945.85 -122.773 270.316 11634.1 122.773 -270.316 11265.4 -19.6191 73.3965 3120.22 19.6191 -73.3965 2764.71
-25.7134 72.0875 9.09495e-13 25.7134 -72.0875 5341.91 -80.1482 71.1228 7614.63 80.1482 -71.1228 7241.02 -19.7924 38.9966 3131.52 19.7924 -38.9966 2772.28 -27.2928 438.863 -1.81899e-12 27.2928 -438.863 5975.02 -101.425 259.429 9685.75 101.425 -259.429 9226.23 -21.1759 73.7534 3538.2 21.1759 -73.7534 2807.49
-21.86 102.238 -1.81899e-12 21.86 -102.238 4561.63 -57.5732 83.083 5563.2 57.5732 -83.083 5116.86 -21.2092 38.6491 3518.63 21.2092 -38.6491 2804.05 -24.0432 408.713 -2.27374e-12 24.0432 -408.713 5226.38 -77.9528 247.469 7519.76 77.9528 -247.469 7012.15 -22.8103 74.1009 3981.54 22.8103 -74.1009 2847.67
-18.9647 133.043 -3.18323e-12 18.9647 -133.043 3972.53 -33.665 95.9245 3365.82 33.665 -95.9245 2888.81 -22.55 38.3869 3897.54 22.55 -38.3869 2821.36 -21.6891 377.908 -2.72848e-12 21.6891 -377.908 4676.39 -53.0792 234.627 5204.65 53.0792 -234.627 4689.77 -24.3809 74.3631 4419.55 24.3809 -74.3631 2873.75
-16.8623 163.998 -2.27374e-12 16.8623 -163.998 3541.51 -9.20286 109.424 1096.32 9.20286 -109.424 626.829 -23.6728 38.2894 4237.77 23.6728 -38.2894 2812.56 -20.0657 346.953 3.18323e-12 20.0657 -346.953 4289.3 -27.6104 221.127 2817.67 27.6104 -221.127 2332.42 -25.7379 74.4606 4819.58 25.7379 -74.4606 2873.74
-15.3273 194.612 4.54747e-13 15.3273 -194.612 3222.88 14.9846 123.334 -1165.54 -14.9846 -123.334 -1595.6 -24.435 38.4355 4508.47 24.435 -38.4355 2766.15 -18.9467 316.339 9.09495e-13 18.9467 -316.339 4016.36 -2.40702 207.217 442.042 2.40702 -207.217 17.1406 -26.73 74.3145 5148.47 26.73 -74.3145 2835.71
-14.0803 224.405 -4.54747e-13 14.0803 -224.405 2959.32 37.9996 137.385 -3329.65 -37.9996 -137.385 -3702.25 -24.697 38.9004 4679.3 24.697 -38.9004 2671.11 -18.0283 286.546 1.36424e-12 18.0283 -286.546 3792.54 21.6393 193.167 -1834.67 -21.6393 -193.167 -2177.97 -27.2113 73.8496 5374.04 27.2113 -73.8496 2748.43
-12.7541 252.891 0 12.7541 -252.891 2674.39 58.9236 151.237 -5305.92 -58.9236 -151.237 -5612.68 -24.3592 39.7473 4728.92 24.3592 -39.7473 2519.05 -16.9623 258.06 -1.36424e-12 16.9623 -258.06 3543.77 43.5372 179.315 -3910.21 -43.5372 -179.315 -4171.58 -27.0473 73.0027 5466.33 27.0473 -73.0027 2601.83
-10.8628 279.886 -2.27374e-13 10.8628 -279.886 2266.35 77.0578 164.592 -7023.74 -77.0578 -164.592 -7267.29 -23.3043 41.0287 4631.38 23.3043 -41.0287 2301.04 -15.2489 231.065 0 15.2489 -231.065 3165.01 62.4807 165.96 -5709.42 -62.4807 -165.96 -5889.9 -26.162 71.7213 5408.35 26.162 -71.7213 2390.37
-8.01144 305.373 -2.27374e-13 8.01144 -305.373 1651.52 91.79 177.283 -8417.14 -91.79 -177.283 -8617.72 -21.4552 42.7808 4367.96 21.4552 -42.7808 2012.77 -12.4617 205.578 4.54747e-13 12.4617 -205.578 2567.36 77.9064 153.269 -7171.22 -77.9064 -153.269 -7290.27 -24.4337 69.9692 5173.5 24.4337 -69.9692 2104.65
-3.96799 329.264 -2.27374e-13 3.96799 -329.264 780.131 102.747 189.203 -9447.42 -102.747 -189.203 -9632.52 -18.7755 45.0257 3930.12 18.7755 -45.0257 1651.76 -8.34594 181.687 0 8.34594 -181.687 1698.42 89.3775 141.349 -8251.74 -89.3775 -141.349 -8336.41 -21.8312 67.7243 4752.78 21.8312 -67.7243 1744.67
1.27309 351.345 -3.12639e-13 -1.27309 -351.345 -349.6 109.757 200.229 -10097.1 -109.757 -200.229 -10296.5 -15.2603 47.7579 3315.65 15.2603 -47.7579 1218.5 -2.89046 159.606 -6.25278e-13 2.89046 -159.606 556.709 96.7295 130.323 -8934.54 -96.7295 -130.323 -9015.16 -18.3472 64.9921 4143.59 18.3472 -64.9921 1311.16
7.5542 371.423 -4.54747e-13 -7.5542 -371.423 -1704.41 112.891 210.311 -10374 -112.891 -210.311 -10614.1 -10.948 50.9499 2531.5 10.948 -50.9499 717.19 3.7491 139.528 4.54747e-13 -3.7491 -139.528 -824.842 100.033 120.241 -9229.36 -100.033 -120.241 -9330.67 -14.0204 61.8001 3354.34 14.0204 -61.8001 807.58
14.6844 389.412 -9.09495e-13 -14.6844 -389.412 -3243.48 112.402 219.458 -10304.5 -112.402 -219.458 -10605.1 -5.92069 54.5538 1594.28 5.92069 -54.5538 155.283 11.3651 121.539 -1.59162e-12 -11.3651 -121.539 -2403.13 99.534 111.093 -9161.42 -99.534 -111.093 -9303.83 -8.9305 58.1962 2401.32 8.9305 -58.1962 241.725
22.5321 405.34 1.36424e-12 -22.5321 -405.34 -4938.41 108.655 227.64 -9922.95 -108.655 -227.64 -10302.5 -0.32891 58.4544 529.291 0.32891 -58.4544 -448.02 19.8116 105.611 -1.36424e-12 -19.8116 -105.611 -4148.32 95.6224 102.912 -8767.66 -95.6224 -102.912 -8970.66 -3.22106 54.2956 1309.8 3.22106 -54.2956 -368.653
31.0484 419.501 5.45697e-12 -31.0484 -419.501 -6778.79 102.094 234.944 -9269.63 -102.094 -234.944 -9748.14 5.73915 62.6064 -640.192 -5.73915 -62.6064 -1089.92 29.0303 91.4496 -3.63798e-12 -29.0303 -91.4496 -6048.84 88.7564 95.6079 -8090.53 -88.7564 -95.6079 -8373.93 2.9875 50.1436 107.554 -2.9875 -50.1436 -1015.22
40.2057 432.275 3.63798e-12 -40.2057 -432.275 -8759.03 93.2746 241.454 -8394.87 -93.2746 -241.454 -8994.91 12.1262 66.9259 -1882.03 -12.1262 -66.9259 -1755.88 38.9839 78.676 4.54747e-12 -38.9839 -78.676 -8097.19 79.5186 89.0975 -7182.59 -79.5186 -89.0975 -7569.25 9.55126 45.8241 -1173.39 -9.55126 -45.8241 -1687.01
49.9346 444.091 1.81899e-12 -49.9346 -444.091 -10865 82.8519 247.289 -7358.99 -82.8519 -247.289 -8104.1 18.6567 71.3147 -3159.86 -18.6567 -71.3147 -2430.02 49.5961 66.8601 3.63798e-12 -49.5961 -66.8601 -10277.6 68.5951 83.2624 -6107.19 -68.5951 -83.2624 -6620.48 16.2917 41.4353 -2495.04 -16.2917 -41.4353 -2368.84
60.1324 455.393 1.81899e-12 -60.1324 -455.393 -13075.8 71.5572 252.575 -6229.81 -71.5572 -252.575 -7143.93 25.1502 75.6596 -4435.61 -25.1502 -75.6596 -3096.56 60.7558 55.5581 -1.81899e-12 -60.7558 -55.5581 -12566.8 56.7618 77.9764 -4935.9 -56.7618 -77.9764 -5599.72 23.0115 37.0904 -3816.64 -23.0115 -37.0904 -3042.93
70.6953 466.663 0 -70.6953 -466.663 -15370.8 60.1569 257.456 -5078.43 -60.1569 -257.456 -6185.97 31.424 79.8514 -5670.53 -31.424 -79.8514 -3739.59 72.3551 44.2875 7.27596e-12 -72.3551 -44.2875 -14941.6 44.8206 73.0959 -3743.06 -44.8206 -73.0959 -4581.06 29.5164 32.8986 -5096.68 -29.5164 -32.8986 -3693.21
81.5282 478.409 1.81899e-12 -81.5282 -478.409 -17731.5 49.4134 262.084 -3975.58 -49.4134 -262.084 -5301.45 37.2946 83.7812 -6825.87 -37.2946 -83.7812 -4342.86 84.2998 32.5416 1.81899e-12 -84.2998 -32.5416 -17381.4 33.5768 68.4678 -2602.9 -33.5768 -68.4678 -3639.25 35.6099 28.9688 -6294.12 -35.6099 -28.9688 -4302.67
92.5282 491.122 -7.27596e-12 -92.5282 -491.122 -20138.5 40.0666 266.617 -2990.25 -40.0666 -266.617 -4559.22 42.5876 87.348 -7864.81 -42.5876 -87.348 -4890.77 96.492 19.8291 1.81899e-12 -96.492 -19.8291 -19864.3 23.8138 63.9348 -1587.86 -23.8138 -63.9348 -2846.7 41.1105 25.402 -7370.5 -41.1105 -25.402 -4856.3
103.557 505.226 -5.45697e-12 -103.557 -505.226 -22564.8 32.8194 271.209 -2188.83 -32.8194 -271.209 -4023.9 47.1482 90.4606 -8754.32 -47.1482 -90.4606 -5369.78 108.799 5.72454 5.45697e-12 -108.799 -5.72454 -22361 16.2701 59.3427 -767.246 -16.2701 -59.3427 -2270.64 45.8509 22.2894 -8290.46 -45.8509 -22.2894 -5340.22
114.396 521.024 1.09139e-11 -114.396 -521.024 -24965.7 28.3285 276.014 -1635.36 -28.3285 -276.014 -3753.82 50.8446 93.0401 -9465.81 -50.8446 -93.0401 -5768.67 121.001 -10.0733 -7.27596e-12 -121.001 10.0733 -24824 11.6388 54.5371 -207.816 -11.6388 -54.5371 -1972.28 49.6853 19.7099 -9023.27 -49.6853 -19.7099 -5742.39
124.706 538.639 -3.63798e-12 -124.706 -538.639 -27270.1 27.1942 281.189 -1391.43 -27.1942 -281.189 -3799.28 53.5698 95.0254 -9975.93 -53.5698 -95.0254 -6078.48 132.746 -27.6876 0 -132.746 27.6876 -27179.4 10.5524 49.3626 26.6328 -10.5524 -49.3626 -2004.57 52.4976 17.7246 -9544.06 -52.4976 -17.7246 -6053.64
134.048 557.995 0 -134.048 -557.995 -29383.5 29.9257 286.876 -1512.56 -29.9257 -286.876 -4199.69 55.249 96.3752 -10268.2 -55.249 -96.3752 -6293 143.561 -47.0445 3.63798e-12 -143.561 47.0445 -29329.5 13.5456 43.6751 -120.925 -13.5456 -43.6751 -2408.98 54.2056 16.3748 -9834.97 -54.2056 -16.3748 -6267.81
141.968 578.867 -7.27596e-12 -141.968 -578.867 -31206.7 36.8753 293.187 -2040.32 -36.8753 -293.187 -4979.24 55.8469 97.071 -10334.6 -55.8469 -97.071 -6409.59 152.945 -67.9162 -7.27596e-12 -152.945 67.9162 -31172.4 20.9872 37.3641 -692.799 -20.9872 -37.3641 -3210.91 54.7688 15.679 -9886.86 -54.7688 -15.679 -6382.29
148.107 600.94 7.27596e-12 -148.107 -600.94 -32659 48.1704 300.177 -2994.07 -48.1704 -300.177 -6142.58 55.3724 97.1195 -10176.3 -55.3724 -97.1195 -6429.46 160.484 -89.9892 0 -160.484 89.9892 -32625.7 33.0104 30.3741 -1708.13 -33.0104 -30.3741 -4415.33 54.1933 15.6305 -9700.62 -54.1933 -15.6305 -6398.12
152.26 623.855 0 -152.26 -623.855 -33692 63.6758 307.835 -4366.24 -63.6758 -307.835 -7672.43 53.8797 96.553 -9804.72 -53.8797 -96.553 -6357.61 165.923 -112.905 3.63798e-12 -165.923 112.905 -33640.3 49.4749 22.7166 -3158.23 -49.4749 -22.7166 -6004.37 52.535 16.197 -9287.94 -52.535 -16.197 -6320.22
154.408 647.236 7.27596e-12 -154.408 -647.236 -34297.1 82.9812 316.074 -6120.41 -82.9812 -316.074 -9529.21 51.4675 95.4295 -9240.75 -51.4675 -95.4295 -6202.57 169.206 -136.285 1.81899e-11 -169.206 136.285 -34208.5 69.9514 14.4778 -5004.62 -69.9514 -14.4778 -7936.64 49.8995 17.3205 -8671.15 -49.8995 -17.3205 -6157.4
154.714 670.697 -1.45519e-11 -154.714 -670.697 -34505 105.419 324.736 -8192.97 -105.419 -324.736 -11652.5 48.2756 93.8298 -8514.52 -48.2756 -93.8298 -5976.21 170.475 -159.746 -3.63798e-12 -170.475 159.746 -34363.7 93.7397 5.81589 -7180.77 -93.7397 -5.81589 -10148.8 46.4365 18.9202 -7882.23 -46.4365 -18.9202 -5921.9
153.498 693.848 0 -153.498 -693.848 -34380.4 130.105 333.602 -10497.2 -130.105 -333.602 -13964.4 44.4782 91.8538 -7663.56 -44.4782 -91.8538 -5693.22 170.047 -182.897 -2.91038e-11 -170.047 182.897 -34173.9 119.91 -3.05013 -9596.44 -119.91 3.05013 -12559.2 42.333 20.8962 -6961.31 -42.333 -20.8962 -5628.76
151.197 716.304 2.54659e-11 -151.197 -716.304 -34015.4 155.989 342.406 -12928.8 -155.989 -342.406 -16373.6 40.2751 89.6153 -6730.96 -40.2751 -89.6153 -5370.42 168.381 -205.353 -2.91038e-11 -168.381 205.353 -33735.8 147.358 -11.8545 -12143.1 -147.358 11.8545 -15072.1 37.8033 23.1347 -5954.54 -37.8033 -23.1347 -5295.15
148.324 737.687 -1.09139e-11 -148.324 -737.687 -33518.4 181.925 350.855 -15373.1 -181.925 -350.855 -18781.1 35.8808 87.2367 -5763.03 -35.8808 -87.2367 -5025.74 166.025 -226.736 0 -166.025 226.736 -33162.8 174.875 -20.3039 -14701.8 -174.875 20.3039 -17583.9 33.0781 25.5133 -4911.65 -33.0781 -25.5133 -4939.5
145.386 757.61 -1.09139e-11 -145.386 -757.61 -32998.5 206.758 358.654 -17714.1 -206.758 -358.654 -21086.6 31.5132 84.8422 -4806.72 -31.5132 -84.8422 -4677.42 163.532 -246.659 7.27596e-12 -163.532 246.659 -32569 201.238 -28.102 -17152.1 -201.238 28.102 -19989.6 28.3911 27.9078 -3882.99 -28.3911 -27.9078 -4580.55
142.837 775.678 2.18279e-11 -142.837 -775.678 -32553.2 229.396 365.523 -19842.9 -229.396 -365.523 -23194.8 27.3818 82.5516 -3907.03 -27.3818 -82.5516 -4343.05 161.402 -264.727 7.27596e-12 -161.402 264.727 -32056.6 225.288 -34.9714 -19381 -225.288 34.9714 -22189.4 23.9663 30.1984 -2916.83 -23.9663 -30.1984 -4236.41
141.059 791.517 -7.27596e-12 -141.059 -791.517 -32264.7 248.863 371.22 -21662.6 -248.863 -371.22 -25019.9 23.6778 80.4747 -3104.92 -23.6778 -80.4747 -4038.83 160.058 -280.566 -1.81899e-11 -160.058 280.566 -31711.8 245.988 -40.6683 -21287.7 -245.988 40.6683 -24093.5 20.0078 32.2753 -2057.04 -20.0078 -32.2753 -3923.67
140.357 804.805 -3.63798e-12 -140.357 -804.805 -32199.4 264.349 375.546 -23092.7 -264.349 -375.546 -26490 20.5652 78.7061 -2435.34 -20.5652 -78.7061 -3778.73 159.842 -293.854 1.45519e-11 -159.842 293.854 -31604.4 262.471 -44.9945 -22788.5 -262.471 44.9945 -25626.8 16.6898 34.0439 -1341.03 -16.6898 -34.0439 -3656.64
140.757 814.602 0 -140.757 -814.602 -32361 274.942 378.346 -24032 -274.942 -378.346 -27536.1 18.1892 77.3297 -1929.28 -18.1892 -77.3297 -3575.01 160.94 -303.652 0 -160.94 303.652 -31774.8 274.021 -47.7948 -23812.9 -274.021 47.7948 -26728.3 14.1517 35.4203 -798.531 -14.1517 -35.4203 -3447
140.833 818.136 -1.09139e-11 -140.833 -818.136 -32443 277.273 378.857 -24032 -277.273 -378.857 -27980.6 16.8468 76.4286 -1661.19 -16.8468 -76.4286 -3441.41 162.982 -307.185 -3.63798e-12 -162.982 307.185 -32159.2 279.385 -48.3055 -24218.3 -279.385 48.3055 -27311.4 12.517 36.3214 -454.367 -12.517 -36.3214 -3306.57
142.335 819.194 7.27596e-12 -142.335 -819.194 -32823.9 274.418 377.868 -23528 -274.418 -377.868 -27958.4 16.3628 75.9786 -1583.26 -16.3628 -75.9786 -3373.73 166.605 -308.243 7.27596e-12 -166.605 308.243 -32872.5 279.758 -47.3165 -24165.8 -279.758 47.3165 -27434.2 11.7395 36.7714 -295.33 -11.7395 -36.7714 -3234.98
145.948 818.432 -1.81899e-11 -145.948 -818.432 -33643.8 268.933 375.716 -22849.7 -268.933 -375.716 -27614.2 16.5414 75.9634 -1641.97 -16.5414 -75.9634 -3367.49 171.557 -307.481 -1.09139e-11 -171.557 307.481 -33861.7 275.202 -45.1643 -23638.4 -275.202 45.1643 -27124.9 11.8752 36.7866 -341.867 -11.8752 -36.7866 -3228.48
151.119 815.787 1.09139e-11 -151.119 -815.787 -34788.4 259.748 372.363 -21844.1 -259.748 -372.363 -26903.5 17.4514 76.3636 -1857.63 -17.4514 -76.3636 -3422.64 177.811 -304.836 1.09139e-11 -177.811 304.836 -35121.7 266.04 -41.8112 -22677 -266.04 41.8112 -26401.6 12.8425 36.3864 -571.595 -12.8425 -36.3864 -3285.3
156.96 810.795 1.45519e-11 -156.96 -810.795 -36073.3 246.65 367.91 -20466.8 -246.65 -367.91 -25831.9 19.0718 77.1503 -2229.31 -19.0718 -77.1503 -3533.74 182.897 -299.845 1.09139e-11 -182.897 299.845 -36148.4 253.904 -37.3584 -21482.8 -253.904 37.3584 -25364.2 14.4837 35.5997 -947.476 -14.4837 -35.5997 -3395.64
157.471 798.706 -3.63798e-12 -157.471 -798.706 -36246 233.68 363.618 -19239.2 -233.68 -363.618 -24629.2 21.1274 78.183 -2690.28 -21.1274 -78.183 -3685.72 183.512 -287.755 1.81899e-11 -183.512 287.755 -36286.2 240.795 -33.0664 -20309.8 -240.795 33.0664 -24125.6 16.6022 34.567 -1414.31 -16.6022 -34.567 -3556.53
157.818 784.32 1.81899e-11 -157.818 -784.32 -36387.8 218.32 358.24 -17804.3 -218.32 -358.24 -23185.9 23.6377 79.5282 -3247.47 -23.6377 -79.5282 -3877.42 184.116 -273.369 -1.81899e-11 -184.116 273.369 -36430.8 224.707 -27.6881 -18831.7 -224.707 27.6881 -22643.4 19.2876 33.2218 -2017.42 -19.2876 -33.2218 -3748.97
158.228 768.311 1.09139e-11 -158.228 -768.311 -36548 200.649 352.342 -16141 -200.649 -352.342 -21540.2 26.5178 81.0385 -3888.36 -26.5178 -81.0385 -4095.79 184.791 -257.36 -2.54659e-11 -184.791 257.36 -36597.1 206.455 -21.7902 -17168.5 -206.455 21.7902 -20946.6 22.3452 31.7115 -2692.81 -22.3452 -31.7115 -3979.34
158.709 750.993 -1.09139e-11 -158.709 -750.993 -36725.1 181.595 345.921 -14350.4 -181.595 -345.921 -19763.7 29.6068 82.6701 -4573.63 -29.6068 -82.6701 -4332.21 185.507 -240.042 1.45519e-11 -185.507 240.042 -36780.7 186.862 -15.3697 -15378.5 -186.862 15.3697 -19128.6 25.6134 30.0799 -3420.71 -25.6134 -30.0799 -4219.4
159.257 732.925 3.63798e-12 -159.257 -732.925 -36914.1 161.985 339.193 -12508.7 -161.985 -339.193 -17935.5 32.7518 84.3227 -5273.43 -32.7518 -84.3227 -4570.9 186.236 -221.975 0 -186.236 221.975 -36976 166.519 -8.64152 -13516.8 -166.519 8.64152 -17242.8 28.9575 28.4273 -4164.59 -28.9575 -28.4273 -4465.81
159.85 714.831 -7.27596e-12 -159.85 -714.831 -37107.4 142.351 332.331 -10659.2 -142.351 -332.331 -16111.8 35.8071 85.9119 -5956.78 -35.8071 -85.9119 -4799.21 186.95 -203.88 1.09139e-11 -186.95 203.88 -37176 146.316 -1.77944 -11667.7 -146.316 1.77944 -15368.9 32.1927 26.8381 -4886.78 -32.1927 -26.8381 -4701.51
160.469 697.285 7.27596e-12 -160.469 -697.285 -37297.2 123.531 325.553 -8884.54 -123.531 -325.553 -14366.8 38.6013 87.3447 -6585.54 -38.6013 -87.3447 -5004.06 187.615 -186.334 7.27596e-12 -187.615 186.334 -37372.6 126.971 4.99819 -9893.45 -126.971 -4.99819 -13577.4 35.1641 25.4053 -5554.35 -35.1641 -25.4053 -4913.59
161.091 680.849 -1.45519e-11 -161.091 -680.849 -37476.5 106.264 319.034 -7253.65 -106.264 -319.034 -12769 40.9941 88.5395 -7129.23 -40.9941 -88.5395 -5173.94 188.208 -169.898 -3.63798e-12 -188.208 169.898 -37557.9 109.207 11.518 -8258.98 -109.207 -11.518 -11936.5 37.7187 24.2105 -6134.87 -37.7187 -24.2105 -5089.21
161.681 666.081 -3.27418e-11 -161.681 -666.081 -37639.8 91.1271 312.929 -5817.09 -91.1271 -312.929 -11375.6 42.8656 89.4242 -7562.99 -42.8656 -89.4242 -5297.83 188.723 -155.13 -1.81899e-11 -188.723 155.13 -37726.8 93.6913 17.6225 -6826.89 -93.6913 -17.6225 -10507.1 39.7155 23.3258 -6597.28 -39.7155 -23.3258 -5217.76
162.209 653.447 -1.09139e-11 -162.209 -653.447 -37784.4 78.699 307.402 -4629.73 -78.699 -307.402 -10239.5 44.0999 89.9382 -7861.67 -44.0999 -89.9382 -5366.14 189.169 -142.496 -7.27596e-12 -189.169 142.496 -37876.2 80.9863 23.1498 -5647.55 -80.9863 -23.1498 -9343.22 41.0436 22.8118 -6917.81 -41.0436 -22.8118 -5290.24
162.648 643.343 -3.63798e-11 -162.648 -643.343 -37909 69.4331 302.589 -3734.13 -69.4331 -302.589 -9402.42 44.6104 90.0342 -8006.11 -44.6104 -90.0342 -5372.19 189.562 -132.393 -1.09139e-11 -189.562 132.393 -38004.6 71.549 27.9623 -4762.15 -71.549 -27.9623 -8488.22 41.615 22.7158 -7077.72 -41.615 -22.7158 -5299.37
162.975 636.071 2.91038e-11 -162.975 -636.071 -38013 63.6297 298.59 -3156.97 -63.6297 -298.59 -8893.35 44.3487 89.6822 -7985.64 -44.3487 -89.6822 -5312.2 189.917 -125.12 2.91038e-11 -189.917 125.12 -38111.4 65.7166 31.9617 -4202.37 -65.7166 -31.9617 -7973.12 41.3697 23.0678 -7063.71 -41.3697 -23.0678 -5240.67
163.175 631.813 -1.09139e-11 -163.175 -631.813 -38095.2 61.4913 295.478 -2917.34 -61.4913 -295.478 -8730.73 43.2923 88.8716 -7795.18 -43.2923 -88.8716 -5184.57 190.245 -120.862 7.27596e-12 -190.245 120.862 -38195.3 63.6788 35.0732 -3985.77 -63.6788 -35.0732 -7815.67 40.2829 23.8784 -6869.99 -40.2829 -23.8784 -5112.56
163.238 630.649 -1.45519e-11 -163.238 -630.649 -38154.3 63.0785 293.308 -3021.68 -63.0785 -293.308 -8919.22 41.4464 87.6104 -7435.57 -41.4464 -87.6104 -4990.13 190.544 -119.698 -2.18279e-11 -190.544 119.698 -38255 65.4887 37.244 -4117.51 -65.4887 -37.244 -8020.71 38.3655 25.1396 -6498.31 -38.3655 -25.1396 -4916.39
163.16 632.55 -1.09139e-11 -163.16 -632.55 -38188.4 68.3016 292.097 -3462.33 -68.3016 -292.097 -9449.72 38.8512 85.925 -6914.98 -38.8512 -85.925 -4732.91 190.809 -121.599 1.81899e-11 -190.809 121.599 -38288.6 71.0587 38.4542 -4590.37 -71.0587 -38.4542 -8579.36 35.6607 26.825 -5957.28 -35.6607 -26.825 -4656.23
162.819 637.297 2.54659e-11 -162.819 -637.297 -38169.1 76.9993 291.846 -4227.73 -76.9993 -291.846 -10303.7 35.5779 83.86 -6248.03 -35.5779 -83.86 -4419.76 190.833 -126.346 -1.09139e-11 -190.833 126.346 -38255.4 80.2342 38.7054 -5394.17 -80.2342 -38.7054 -9473.16 32.2407 28.89 -5261.7 -32.2407 -28.89 -4338.56
160.98 643.53 3.63798e-12 -160.98 -643.53 -37831.5 89.3525 292.704 -5359.84 -89.3525 -292.704 -11472.2 31.705 81.4655 -5449.83 -31.705 -81.4655 -4059.23 189.214 -132.579 -3.63798e-12 -189.214 132.579 -37877.8 93.3027 37.8472 -6585.02 -93.3027 -37.8472 -10698.8 28.1735 31.2845 -4423.55 -28.1735 -31.2845 -3971.38
157.36 650.655 3.63798e-12 -157.36 -650.655 -37112.1 104.953 294.599 -6825.84 -104.953 -294.599 -12912.2 27.3647 78.8215 -4548.56 -27.3647 -78.8215 -3662.79 185.665 -139.705 3.63798e-12 -185.665 139.705 -37102.6 109.776 35.9526 -8120.89 -109.776 -35.9526 -12207.9 23.6036 33.9285 -3472.64 -23.6036 -33.9285 -3567.53
152.132 658.248 -3.63798e-12 -152.132 -658.248 -36043.5 123.074 297.376 -8556.9 -123.074 -297.376 -14556.9 22.7195 76.0247 -3578.69 -22.7195 -76.0247 -3244.64 180.343 -147.297 -3.63798e-11 -180.343 147.297 -35965.2 128.885 33.1751 -9929.24 -128.885 -33.1751 -13930.5 18.7015 36.7253 -2445.55 -18.7015 -36.7253 -3140.91
145.607 665.909 -7.27596e-12 -145.607 -665.909 -34689.7 142.79 300.822 -10463.1 -142.79 -300.822 -16324.4 17.9539 73.1813 -2579.47 -17.9539 -73.1813 -2820.64 173.563 -154.959 -3.27418e-11 -173.563 154.959 -34533.3 149.679 29.7292 -11917.9 -149.679 -29.7292 -15782.9 13.668 39.5687 -1385.42 -13.668 -39.5687 -2707.85
139.733 671.821 7.27596e-12 -139.733 -671.821 -33459.5 159.023 303.887 -12045.9 -159.023 -303.887 -17766.7 14.19 70.9497 -1787.93 -14.19 -70.9497 -2488.62 167.377 -160.87 -3.27418e-11 -167.377 160.87 -33236.6 166.794 26.6645 -13567 -166.794 -26.6645 -17294.5 9.68919 41.8003 -544.255 -9.68919 -41.8003 -2368.33
133.534 677.32 7.27596e-12 -133.534 -677.32 -32152.5 175.064 307.068 -13620.2 -175.064 -307.068 -19182.1 10.5834 68.821 -1027.93 -10.5834 -68.821 -2172.4 160.787 -166.369 0 -160.787 166.369 -31862.3 183.702 23.4835 -15205.5 -183.702 -23.4835 -18777.9 5.87332 43.929 264.685 -5.87332 -43.929 -2044.65
127.249 682.209 1.81899e-11 -127.249 -682.209 -30819.2 190.359 310.219 -15130.5 -190.359 -310.219 -20522.7 7.23598 66.853 -321.437 -7.23598 -66.853 -1880.37 154.046 -171.259 -3.63798e-12 -154.046 171.259 -30463.3 199.821 20.3322 -16776.1 -199.821 -20.3322 -20182.7 2.32928 45.897 1017.79 -2.32928 -45.897 -1745.59
121.102 686.296 -7.27596e-12 -121.102 -686.296 -29507.6 204.377 313.2 -16524.2 -204.377 -313.2 -21742.3 4.2435 65.0996 310.989 -4.2435 -65.0996 -1620.39 147.397 -175.345 -7.27596e-12 -147.397 175.345 -29089.9 214.593 17.3515 -18224 -214.593 -17.3515 -21461.1 -0.840301 47.6504 1692.71 0.840301 -47.6504 -1479.3
115.298 689.396 -1.81899e-11 -115.298 -689.396 -28261.1 216.636 315.878 -17752.8 -216.636 -315.878 -22798.9 1.69336 63.6099 850.591 -1.69336 -63.6099 -1399.71 141.06 -178.445 -3.27418e-11 -141.06 178.445 -27787.3 227.506 14.674 -19498.9 -227.506 -14.674 -22568.9 -3.54258 49.1401 2269.13 3.54258 -49.1401 -1253.14
110.012 691.338 2.91038e-11 -110.012 -691.338 -27117 226.707 318.131 -18773.7 -226.707 -318.131 -23655.5 -0.338074 62.426 1280.94 0.338074 -62.426 -1224.55 135.226 -180.387 -7.27596e-12 -135.226 180.387 -26595 238.109 12.4201 -20556.5 -238.109 -12.4201 -23467.4 -5.69741 50.324 2729.52 5.69741 -50.324 -1073.47
105.379 691.97 -1.81899e-11 -105.379 -691.97 -26104.1 234.243 319.86 -19552.1 -234.243 -319.86 -24281.3 -1.78913 61.582 1588.73 1.78913 -61.582 -1099.9 130.039 -181.019 3.27418e-11 -130.039 181.019 -25543 246.032 10.6912 -21361 -246.032 -10.6912 -24124.5 -7.23986 51.168 3059.67 7.23986 -51.168 -945.415
101.473 691.149 -3.63798e-12 -101.473 -691.149 -25237.9 238.988 320.988 -20063.2 -238.988 -320.988 -24653.6 -2.61555 61.1028 1764.37 2.61555 -61.1028 -1029.31 125.58 -180.198 2.91038e-11 -125.58 180.198 -24647.9 251.004 9.56357 -21886.2 -251.004 -9.56357 -24516.2 -8.12254 51.6472 3249.17 8.12254 -51.6472 -872.714
98.2985 688.737 -1.45519e-11 -98.2985 -688.737 -24518.7 240.791 321.466 -20293.2 -240.791 -321.466 -24758 -2.79145 61.0027 1802.25 2.79145 -61.0027 -1014.84 121.848 -177.786 1.81899e-11 -121.848 177.786 -23910.3 252.866 9.08591 -22117.9 -252.866 -9.08591 -24627.9 -8.31739 51.7473 3291.85 8.31739 -51.7473 -857.55
95.7887 684.599 3.63798e-12 -95.7887 -684.599 -23930.6 239.613 321.272 -20239.7 -239.613 -321.272 -24589.2 -2.30931 61.2855 1700.73 2.30931 -61.2855 -1057.07 118.762 -173.648 0 -118.762 173.648 -23314.3 251.574 9.27954 -22053.2 -251.574 -9.27954 -24454 -7.81655 51.4645 3185.93 7.81655 -51.4645 -900.495
93.8129 678.613 -3.27418e-11 -93.8129 -678.613 -23444.3 235.513 320.411 -19910.7 -235.513 -320.411 -24150.3 -1.17997 61.9447 1462.06 1.17997 -61.9447 -1155.06 116.171 -167.663 -1.81899e-11 -116.171 167.663 -22829.9 247.191 10.14 -21700.6 -247.191 -10.14 -23997.9 -6.63197 50.8053 2933.98 6.63197 -50.8053 -1000.52
92.2057 670.689 -1.45519e-11 -92.2057 -670.689 -23023.2 228.64 318.91 -19323.2 -228.64 -318.91 -23452.2 0.568109 62.9633 1092.25 -0.568109 -62.9633 -1306.34 113.887 -159.738 0 -113.887 159.738 -22419.4 239.873 11.6418 -21077.1 -239.873 -11.6418 -23271 -4.79395 49.7867 2542.5 4.79395 -49.7867 -1155.11
90.8048 660.792 -1.27329e-11 -90.8048 -660.792 -22631.7 219.205 316.806 -18499.2 -219.205 -316.806 -22511.9 2.89055 64.3157 600.592 -2.89055 -64.3157 -1507.08 111.729 -149.841 1.81899e-12 -111.729 149.841 -22046.1 229.84 13.7455 -20205.7 -229.84 -13.7455 -22291.1 -2.34893 48.4343 2021.47 2.34893 -48.4343 -1360.34
89.4799 648.967 5.45697e-12 -89.4799 -648.967 -22242.2 207.459 314.147 -17464.3 -207.459 -314.147 -21351.2 5.7293 65.9676 -0.758207 -5.7293 -65.9676 -1752.19 109.559 -138.016 7.27596e-12 -109.559 138.016 -21681.2 217.361 16.4044 -19112.8 -217.361 -16.4044 -21081.2 0.642512 46.7824 1383.78 -0.642512 -46.7824 -1611.03
88.15 635.341 9.09495e-12 -88.15 -635.341 -21838.8 193.683 310.982 -16245.2 -193.683 -310.982 -19995.9 9.01483 67.878 -697.29 -9.01483 -67.878 -2035.53 107.3 -124.39 1.09139e-11 -107.3 124.39 -21307.7 202.734 19.5692 -17826.2 -202.734 -19.5692 -19668 4.10772 44.872 644.831 -4.10772 -44.872 -1900.92
86.7802 620.118 9.09495e-12 -86.7802 -620.118 -21416.2 178.18 307.363 -14869.8 -178.18 -307.363 -18474.6 12.6678 69.9995 -1472.46 -12.6678 -69.9995 -2350.05 104.93 -109.167 -5.45697e-12 -104.93 109.167 -20919.4 186.279 23.189 -16375 -186.279 -23.189 -18081.7 7.96366 42.7505 -177.858 -7.96366 -42.7505 -2222.76
85.3553 603.546 2.54659e-11 -85.3553 -603.546 -20973.9 161.278 303.343 -13367.9 -161.278 -303.343 -16819.2 16.6001 72.2797 -2307.89 -16.6001 -72.2797 -2687.91 102.453 -92.5953 1.63709e-11 -102.453 92.5953 -20514.7 168.349 27.2083 -14790.7 -168.349 -27.2083 -16355.4 12.1182 40.4703 -1064.9 -12.1182 -40.4703 -2568.54
83.8471 585.888 1.81899e-12 -83.8471 -585.888 -20508.5 143.344 298.987 -11773 -143.344 -298.987 -15064.6 20.7164 74.6616 -3183.68 -20.7164 -74.6616 -3040.61 99.8568 -74.9372 1.45519e-11 -99.8568 74.9372 -20089 149.331 31.5642 -13108.4 -149.331 -31.5642 -14525.5 16.4716 38.0884 -1995.27 -16.4716 -38.0884 -2929.57
82.2 567.398 -1.81899e-12 -82.2 -567.398 -20010.3 124.772 294.366 -10121.9 -124.772 -294.366 -13248 24.9164 77.0857 -4078.79 -24.9164 -77.0857 -3399.25 97.0979 -56.4468 3.63798e-12 -97.0979 56.4468 -19631.6 129.646 36.1855 -11366.7 -129.646 -36.1855 -12631.1 20.9181 35.6643 -2946.71 -20.9181 -35.6643 -3296.77
80.3347 548.317 1.81899e-11 -80.3347 -548.317 -19464.6 105.981 289.555 -8453.81 -105.981 -289.555 -11408 29.0972 79.4907 -4971.65 -29.0972 -79.4907 -3754.68 94.1066 -37.3656 9.09495e-12 -94.1066 37.3656 -19126.3 109.736 40.9962 -9606.55 -109.736 -40.9962 -10712.5 25.3492 33.2593 -3896.32 -25.3492 -33.2593 -3660.82
78.1673 528.881 2.72848e-11 -78.1673 -528.881 -18855.5 87.3871 284.632 -6807.88 -87.3871 -284.632 -9583.29 33.1564 81.8153 -5840.75 -33.1564 -81.8153 -4097.81 90.8067 -17.9296 1.81899e-12 -90.8067 17.9296 -18555.7 90.0416 45.92 -7869.1 -90.0416 -45.92 -8810.09 29.6563 30.9347 -4821.25 -29.6563 -30.9347 -4012.4
75.6211 509.322 -3.63798e-12 -75.6211 -509.322 -18168.7 69.3942 279.668 -5221.88 -69.3942 -279.668 -7811.26 36.9947 84.0002 -6665.18 -36.9947 -84.0002 -4419.75 87.1302 1.62873 -1.45519e-11 -87.1302 -1.62873 -17904.1 70.9878 50.884 -6193.8 -70.9878 -50.884 -6963.04 33.734 28.7498 -5699.35 -33.734 -28.7498 -4342.47
72.6303 489.865 -9.09495e-12 -72.6303 -489.865 -17391.9 52.3787 274.73 -3730.94 -52.3787 -274.73 -6126.89 40.518 85.989 -7425.19 -40.518 -85.989 -4712.11 83.0191 21.0864 -7.27596e-12 -83.0191 -21.0864 -17158 52.9716 55.8215 -4617.44 -52.9716 -55.8215 -5207.96 37.4826 26.761 -6509.73 -37.4826 -26.761 -4642.44
69.1344 470.709 0 -69.1344 -470.709 -16513.9 36.6845 269.879 -2367.09 -36.6845 -269.879 -4562.11 43.6399 87.7297 -8102.6 -43.6399 -87.7297 -4967.12 78.42 40.242 5.45697e-12 -78.42 -40.242 -16305.1 36.3548 60.673 -3173.56 -36.3548 -60.673 -3578.3 40.8102 25.0203 -7233.22 -40.8102 -25.0203 -4904.39
65.0788 452.028 -9.09495e-12 -65.0788 -452.028 -15524.5 22.6138 265.163 -1158.47 -22.6138 -265.163 -3144.93 46.2838 89.1759 -8681.34 -46.2838 -89.1759 -5177.86 73.2839 58.9233 1.81899e-12 -73.2839 -58.9233 -15333.9 21.4547 65.3882 -1891.65 -21.4547 -65.3882 -2103.39 43.6352 23.5741 -7852.79 -43.6352 -23.5741 -5121.27
60.419 433.961 -3.63798e-12 -60.419 -433.961 -14415.3 10.418 260.623 -128.378 -10.418 -260.623 -1898.67 48.3846 90.2882 -9147.75 -48.3846 -90.2882 -5338.38 67.5707 76.9897 5.45697e-12 -67.5707 -76.9897 -14235.4 8.53434 69.9281 -796.107 -8.53434 -69.9281 -807.65 45.8883 22.4618 -8354.01 -45.8883 -22.4618 -5287.04
55.1292 416.621 1.81899e-11 -55.1292 -416.621 -13181.6 0.287164 256.284 705.785 -0.287164 -256.284 -841.161 49.8901 91.0343 -9490.99 -49.8901 -91.0343 -5443.89 61.2581 94.3298 0 -61.2581 -94.3298 -13004.1 -2.20764 74.2674 94.7948 2.20764 -74.2674 290.245 47.514 21.7157 -8725.44 -47.514 -21.7157 -5396.8
49.2078 400.09 7.27596e-12 -49.2078 -400.09 -11823.8 -7.6563 252.156 1333.23 7.6563 -252.156 15.78 50.7625 91.3908 -9703.23 -50.7625 -91.3908 -5490.81 54.348 110.86 0 -54.348 -110.86 -11640.1 -10.6437 78.3958 769.684 10.6437 -78.3958 1177.9 48.4723 21.3592 -8958.88 -48.4723 -21.3592 -5446.93
42.6777 384.422 7.27596e-12 -42.6777 -384.422 -10347.1 -13.3605 248.233 1750.02 13.3605 -248.233 666.59 50.9789 91.3426 -9779.87 -50.9789 -91.3426 -5476.89 46.8663 126.529 -3.63798e-12 -46.8663 -126.529 -10148.4 -16.7204 82.3185 1224.32 16.7204 -82.3185 1849.46 48.7392 21.4074 -9049.57 -48.7392 -21.4074 -5435.14
35.5869 369.64 1.63709e-11 -35.5869 -369.64 -8761.72 -16.8447 244.495 1959.11 16.8447 -244.495 1112.02 50.5316 90.8838 -9719.55 -50.5316 -90.8838 -5401.16 38.8633 141.311 -3.63798e-12 -38.8633 -141.311 -8539.55 -20.4586 86.0564 1461.63 20.4586 -86.0564 2305.73 48.307 21.8662 -8996.18 -48.307 -21.8662 -5360.48
28.0063 355.736 -3.63798e-12 -28.0063 -355.736 -7082.51 -18.1973 240.907 1970.16 18.1973 -240.907 1358.96 49.4279 90.0175 -9524.15 -49.4279 -90.0175 -5264.02 30.4118 155.215 -8.18545e-12 -30.4118 -155.215 -6828.93 -21.9516 89.6449 1491.52 21.9516 -89.6449 2553.92 47.1846 22.7325 -8800.82 -47.1846 -22.7325 -5223.36
20.0266 342.674 3.36513e-11 -20.0266 -342.674 -5328.32 -17.571 237.419 1798.98 17.571 -237.419 1420.11 47.6897 88.7552 -9198.61 -47.6897 -88.7552 -5067.11 21.604 168.277 -5.00222e-12 -21.604 -168.277 -5036.13 -21.3602 93.1325 1330.31 21.3602 -93.1325 2607.34 45.3961 23.9948 -8468.85 -45.3961 -23.9948 -5025.49
11.7572 330.391 1.68257e-11 -11.7572 -330.391 -3521.68 -15.178 233.972 1467.09 15.178 -233.972 1313.47 45.3523 87.1166 -8750.75 -45.3523 -87.1166 -4813.29 12.5501 180.56 -7.27596e-12 -12.5501 -180.56 -3184.68 -18.9068 96.5792 1000.28 18.9068 -96.5792 2484.83 42.9802 25.6334 -8008.68 -42.9802 -25.6334 -4769.8
3.32459 318.803 6.82121e-12 -3.32459 -318.803 -1688.68 -11.2831 230.497 1001.09 11.2831 -230.497 1061.68 42.4633 85.1286 -8190.97 -42.4633 -85.1286 -4506.52 3.3769 192.148 -1.81899e-12 -3.3769 -192.148 -1301.74 -14.8715 100.055 529.273 14.8715 -100.055 2210.3 39.989 27.6214 -7431.51 -39.989 -27.6214 -4460.37
-4.39068 308.463 1.07825e-11 4.39068 -308.463 -12.1854 -6.31236 226.85 447.725 6.31236 -226.85 697.148 39.0801 82.8201 -7531.61 -39.0801 -82.8201 -4151.81 -4.03828 202.488 -3.12639e-12 4.03828 -202.488 227.856 -10.3095 103.701 46.5577 10.3095 -103.701 1849.59 36.5207 29.9299 -6758.76 -36.5207 -29.9299 -4104.72
-8.99152 301.247 -1.36424e-12 8.99152 -301.247 1010.91 -1.69985 222.48 -8.88462 1.69985 -222.48 301.045 35.3075 80.2805 -6797.74 -35.3075 -80.2805 -3755.44 -9.13709 209.704 -5.34328e-12 9.13709 -209.704 1293.51 -6.06734 108.072 -335.679 6.06734 -108.072 1446.97 32.7076 32.4695 -6025.98 -32.7076 -32.4695 -3706.3
-13.5446 294.123 1.59162e-12 13.5446 -294.123 2019.2 3.48998 218.106 -505.15 -3.48998 -218.106 -162.752 31.1839 77.4716 -5994.13 -31.1839 -77.4716 -3324.31 -13.9763 216.827 -8.41283e-12 13.9763 -216.827 2307.26 -0.773391 112.446 -830.966 0.773391 -112.446 962.581 28.4558 35.2784 -5200.67 -28.4558 -35.2784 -3269.69
-17.9385 287.231 9.09495e-13 17.9385 -287.231 2989.32 9.08234 213.413 -1031.37 -9.08234 -213.413 -671.28 26.7533 74.4663 -5131.09 -26.7533 -74.4663 -2861.49 -18.6587 223.72 2.27374e-12 18.6587 -223.72 3290.22 4.91363 117.138 -1348.45 -4.91363 -117.138 427.38 23.9203 38.2837 -4319.46 -23.9203 -38.2837 -2804.02
-22.1511 280.316 -5.00222e-12 22.1511 -280.316 3917.63 14.9334 208.47 -1574.89 -14.9334 -208.47 -1210.42 22.0942 71.3087 -4224.66 -22.0942 -71.3087 -2374.51 -23.1447 230.634 7.27596e-12 23.1447 -230.634 4233.31 10.7686 122.082 -1874.14 -10.7686 -122.082 -130.887 19.1364 41.4413 -3390.54 -19.1364 -41.4413 -2311.45
-26.192 273.256 6.82121e-12 26.192 -273.256 4806.79 20.7378 203.232 -2107.47 -20.7378 -203.232 -1751.65 17.2733 68.0355 -3288.88 -17.2733 -68.0355 -1869.35 -27.442 237.695 4.54747e-13 27.442 -237.695 5137.99 16.5838 127.32 -2390.15 -16.5838 -127.32 -691.584 14.2096 44.7145 -2433.63 -14.2096 -44.7145 -1803.52
-30.0972 265.908 -8.6402e-12 30.0972 -265.908 5665.02 26.202 197.69 -2602.34 -26.202 -197.69 -2267.28 12.3672 64.6969 -2338.96 -12.3672 -64.6969 -1353.7 -31.5768 245.043 -9.09495e-13 31.5768 -245.043 6009.75 22.1344 132.861 -2877.51 -22.1344 -132.861 -1231.97 9.19664 48.0531 -1462.36 -9.19664 -48.0531 -1283.33
-33.9058 258.05 -3.63798e-12 33.9058 -258.05 6501.4 31.1614 191.836 -3047.33 -31.1614 -191.836 -2738.84 7.4457 61.3346 -1389.31 -7.4457 -61.3346 -834.049 -35.598 252.901 6.36646e-12 35.598 -252.901 6858.84 27.1555 138.716 -3312.69 -27.1555 -138.716 -1726.45 4.18325 51.4154 -493.239 -4.18325 -51.4154 -759.83
-37.6611 249.476 -2.72848e-12 37.6611 -249.476 7325.62 35.4487 185.649 -3429.59 -35.4487 -185.649 -3148.12 2.58377 57.996 -455.164 -2.58377 -57.996 -317.516 -39.5586 261.475 5.45697e-12 39.5586 -261.475 7696.64 31.4284 144.903 -3676.38 -31.4284 -144.903 -2153.67 -0.758265 54.754 458.252 0.758265 -54.754 -239.036
-41.4101 239.993 -7.27596e-12 41.4101 -239.993 8147.83 38.8599 179.082 -3730.83 -38.8599 -179.082 -3475.57 -2.17605 54.6874 450.949 2.17605 -54.6874 195.733 -43.4988 270.958 2.72848e-12 43.4988 -270.958 8532.05 34.7708 151.469 -3953.91 -34.7708 -151.469 -2494.44 -5.58773 58.0626 1380.4 5.58773 -58.0626 278.742
-45.1879 229.502 -4.54747e-12 45.1879 -229.502 8975.25 41.2061 172.166 -3935.18 -41.2061 -172.166 -3702.08 -6.75105 51.4743 1315.02 6.75105 -51.4743 695.158 -47.4464 281.449 1.81899e-12 47.4464 -281.449 9371.59 36.9974 158.385 -4129.67 -36.9974 -158.385 -2729.8 -10.2086 61.2757 2257.11 10.2086 -61.2757 780.857
-49.009 217.905 1.81899e-12 49.009 -217.905 9810.59 42.3433 164.923 -4031.43 -42.3433 -164.923 -3812.32 -11.0757 48.4059 2125.35 11.0757 -48.4059 1173.04 -51.4142 293.045 -9.09495e-13 51.4142 -293.045 10218.6 37.9295 165.628 -4187.85 -37.9295 -165.628 -2842.32 -14.5657 64.3441 3076.6 14.5657 -64.3441 1262.54
-52.8697 205.078 4.54747e-12 52.8697 -205.078 10652.5 42.1266 157.315 -4007.36 -42.1266 -157.315 -3791.74 -15.1013 45.5109 2872.16 15.1013 -45.5109 1624.78 -55.3924 305.873 0 55.3924 -305.873 11071.6 37.3926 173.237 -4114.36 -37.3926 -173.237 -2813.54 -18.6056 67.2391 3829.56 18.6056 -67.2391 1717.03
-56.7533 191.028 1.81899e-12 56.7533 -191.028 11496.7 40.4281 149.375 -3851.72 -40.4281 -149.375 -3628.08 -18.7868 42.8246 3547.3 18.7868 -42.8246 2046.45 -59.3569 319.923 0 59.3569 -319.923 11926.3 35.2896 181.177 -3898.98 -35.2896 -181.177 -2635.42 -22.2796 69.9254 4504.93 22.2796 -69.9254 2140.78
-60.634 175.736 -3.63798e-12 60.634 -175.736 12336.9 37.1439 141.111 -3555.45 -37.1439 -141.111 -3311.39 -22.0919 40.3664 4143.4 22.0919 -40.3664 2433.57 -63.2743 335.215 -3.63798e-12 63.2743 -335.215 12776.3 31.5342 189.441 -3534.02 -31.5342 -189.441 -2299.44 -25.5444 72.3836 5094.78 25.5444 -72.3836 2528.66
-64.4901 159.242 0 64.4901 -159.242 13167.7 32.2702 132.552 -3116.76 -32.2702 -132.552 -2842.96 -24.9802 38.1596 4652.57 24.9802 -38.1596 2783.34 -67.1162 351.709 -1.81899e-12 67.1162 -351.709 13616.1 26.0872 197.999 -3015.19 -26.0872 -197.999 -1802.38 -28.3728 74.5904 5593.12 28.3728 -74.5904 2878.35
-68.308 141.612 0 68.308 -141.612 13985.4 25.7899 123.742 -2534.54 -25.7899 -123.742 -2221 -27.4369 36.2146 5072.57 27.4369 -36.2146 3093.73 -70.8616 369.339 -1.81899e-12 70.8616 -369.339 14441.9 18.9488 206.81 -2342.49 -18.9488 -206.81 -1143.99 -30.7477 76.5354 5996.59 30.7477 -76.5354 3187.98
-72.0871 122.916 0 72.0871 -122.916 14789.2 17.7379 114.721 -1812.41 -17.7379 -114.721 -1448.61 -29.4556 34.5378 5402.66 29.4556 -34.5378 3363.78 -74.5033 388.035 0 74.5033 -388.035 15252.9 10.1648 215.831 -1520.19 -10.1648 -215.831 -328.319 -32.662 78.2122 6303.94 32.662 -78.2122 3456.53
-75.8377 103.238 -1.81899e-12 75.8377 -103.238 15580.6 8.199 105.531 -958.455 -8.199 -105.531 -533.688 -31.0369 33.1306 5643.18 31.0369 -33.1306 3593.36 -78.0459 407.713 -1.81899e-12 78.0459 -407.713 16050.7 -0.181734 225.021 -556.23 0.181734 -225.021 637.429 -34.1193 79.6194 6516.43 34.1193 -79.6194 3683.68
-79.5746 82.6847 1.81899e-12 79.5746 -82.6847 16362.2 -2.70723 96.2217 16.1759 2.70723 -96.2217 512.558 -32.1902 31.9885 5796.42 32.1902 -31.9885 3783.11 -81.4985 428.266 0 81.4985 -428.266 16837.8 -11.9686 234.33 537.773 11.9686 -234.33 1742.32 -35.1333 80.7615 6637.39 35.1333 -80.7615 3870.01
-83.307 61.3974 0 83.307 -61.3974 17135.2 -14.8356 86.8509 1097.98 14.8356 -86.8509 1676.53 -32.9364 31.1009 5867.19 32.9364 -31.1009 3934.46 -84.8661 449.554 0 84.8661 -449.554 17615.6 -25.0375 243.701 1747.18 25.0375 -243.701 2971.78 -35.7264 81.6491 6671.88 35.7264 -81.6491 4017.13
-87.0316 39.55 0 87.0316 -39.55 17898.5 -28.0165 77.4818 2271.44 28.0165 -77.4818 2942.19 -33.3051 30.4519 5862.2 33.3051 -30.4519 4049.59 -88.1437 471.401 -1.81899e-12 88.1437 -471.401 18383.1 -39.2037 253.07 3055.2 39.2037 -253.07 4308.34 -35.9293 82.2981 6626.6 35.9293 -82.2981 4127.41
-90.7293 17.3421 0 90.7293 -17.3421 18648.2 -42.0595 68.1763 3519.62 42.0595 -68.1763 4291.07 -33.3322 30.0218 5789.22 33.3322 -30.0218 4131.36 -91.314 493.609 0 91.314 -493.609 19136.4 -54.2633 262.375 4443.5 54.2633 -262.375 5732.46 -35.7801 82.7282 6509.82 35.7801 -82.7282 4203.84
-94.3675 -5.00464 -1.81899e-12 94.3675 5.00464 19377.4 -56.7574 58.9947 4824.6 56.7574 -58.9947 5702.7 -33.0579 29.7875 5656.84 33.0579 -29.7875 4183.19 -94.3497 515.956 0 94.3497 -515.956 19868.8 -69.996 271.557 5892.34 69.996 -271.557 7222.9 -35.3229 82.9625 6331.24 35.3229 -82.9625 4249.91
-97.9076 -27.252 3.63798e-12 97.9076 27.252 20078.8 -71.8882 49.9997 6167.27 71.8882 -49.9997 7155.12 -32.5284 29.7228 5474.77 32.5284 -29.7228 4209.02 -97.2213 538.203 -3.63798e-12 97.2213 -538.203 20572.8 -86.1646 280.552 7380.51 86.1646 -280.552 8756.67 -34.6072 83.0272 6101.6 34.6072 -83.0272 4269.6
-101.309 -49.1512 3.63798e-12 101.309 49.1512 20744.8 -87.2166 41.2571 7527.22 87.2166 -41.2571 8625.28 -31.7946 29.7986 5253.84 31.7946 -29.7986 4213.16 -99.9014 560.102 5.45697e-12 99.9014 -560.102 21240.9 -102.517 289.294 8885.47 102.517 -289.294 10309.3 -33.6862 82.9514 5832.42 33.6862 -82.9514 4267.29
-104.531 -70.4482 1.81899e-12 104.531 70.4482 21368 -102.499 32.8339 8883.28 102.499 -32.8339 10089.4 -30.9104 29.984 5005.52 30.9104 -29.984 4200.13 -102.365 581.399 -1.81899e-12 102.365 -581.399 21865.9 -118.794 297.718 10383.9 118.794 -297.718 11855.3 -32.6163 82.766 5535.8 32.6163 -82.766 4247.71
-107.534 -90.8906 0 107.534 90.8906 21941.7 -117.486 24.7952 10213.9 117.486 -24.7952 11523.1 -29.9305 30.2473 4741.34 29.9305 -30.2473 4174.56 -104.59 601.842 0 104.59 -601.842 22440.9 -134.729 305.756 11852.2 134.729 -305.756 13369.1 -31.4554 82.5027 5224.17 31.4554 -82.5027 4215.69
-110.283 -110.235 -3.63798e-12 110.283 110.235 22460.7 -131.928 17.2053 11497.4 131.928 -17.2053 12902.2 -28.9094 30.5567 4472.77 28.9094 -30.5567 4141.12 -106.563 621.186 7.27596e-12 106.563 -621.186 22960.8 -150.061 313.346 13266.2 150.061 -313.346 14825 -30.2613 82.1933 4910.03 30.2613 -82.1933 4176.07
-112.759 -128.254 -1.09139e-11 112.759 128.254 22922.3 -145.574 10.1282 12711.5 145.574 -10.1282 14202.7 -27.9009 30.8812 4211.15 27.9009 -30.8812 4104.46 -108.283 639.205 3.63798e-12 108.283 -639.205 23423 -164.526 320.423 14602 164.526 -320.423 16198 -29.0909 81.8688 4605.61 29.0909 -81.8688 4133.54
-114.952 -144.737 0 114.952 144.737 23326.6 -158.181 3.62745 13834.8 158.181 -3.62745 15401.8 -26.9569 31.1912 3967.4 26.9569 -31.1912 4068.99 -109.76 655.688 3.63798e-12 109.76 -655.688 23827.6 -177.871 326.924 15836.4 177.871 -326.924 17463.7 -27.9982 81.5588 4322.54 27.9982 -81.5588 4092.63
-116.871 -159.503 -3.63798e-12 116.871 159.503 23676.5 -169.519 -2.2364 14846.2 169.519 2.2364 16477.8 -26.1256 31.4591 3751.73 26.1256 -31.4591 4038.8 -111.016 670.454 0 111.016 -670.454 24177.7 -189.857 332.788 16946.8 189.857 -332.788 18599.5 -27.0333 81.2909 4071.64 27.0333 -81.2909 4057.52
-118.539 -172.398 -3.63798e-12 118.539 172.398 23978.5 -179.369 -7.40671 15725.8 179.369 7.40671 17411.2 -25.4497 31.6602 3573.2 25.4497 -31.6602 4017.45 -112.087 683.349 -3.63798e-12 112.087 -683.349 24479.8 -200.261 337.958 17912.3 200.261 -337.958 19584.7 -26.2415 81.0898 3862.64 26.2415 -81.0898 4031.96
-119.999 -183.307 3.63798e-12 119.999 183.307 24242 -187.539 -11.8318 16455.4 187.539 11.8318 18184.7 -24.9658 31.7737 3439.6 24.9658 -31.7737 4008.01 -113.022 694.258 -3.63798e-12 113.022 -694.258 24743.7 -208.887 342.383 18713.9 208.887 -342.383 20401.1 -25.6613 80.9763 3703.91 25.6613 -80.9763 4019.11
-121.308 -192.154 3.63798e-12 121.308 192.154 24479.8 -193.86 -15.466 17018.5 193.86 15.466 18783.7 -24.7035 31.783 3357.26 24.7035 -31.783 4012.95 -113.879 703.105 3.63798e-12 113.879 -703.105 24982.1 -215.566 346.018 19334.9 215.566 -346.018 21033.8 -25.3237 80.967 3602.19 25.3237 -80.967 4021.49
-122.537 -198.898 -1.09139e-11 122.537 198.898 24706.1 -198.198 -18.2713 17401.9 198.198 18.2713 19197.3 -24.6847 31.6761 3330.83 24.6847 -31.6761 4034.02 -114.725 709.849 0 114.725 -709.849 25209.6 -220.167 348.823 19761.9 220.167 -348.823 21471.3 -25.2512 81.0739 3562.38 25.2512 -81.0739 4040.89
-123.754 -203.536 7.27596e-12 123.754 203.536 24935.1 -200.462 -20.2206 17596 200.462 20.2206 19418.4 -24.9217 31.4463 3363.05 24.9217 -31.4463 4072.2 -115.624 714.487 0 115.624 -714.487 25440.6 -222.602 350.772 19985.9 222.602 -350.772 21706.2 -25.4564 81.3037 3587.29 25.4564 -81.3037 4078.29
-125.02 -206.095 1.45519e-11 125.02 206.095 25179.3 -200.61 -21.2993 17595.5 200.61 21.2993 19444.3 -25.4173 31.0927 3454.54 25.4173 -31.0927 4127.62 -116.631 717.046 0 116.631 -717.046 25687.8 -222.833 351.851 20002 222.833 -351.851 21736.1 -25.9422 81.6573 3677.6 25.9422 -81.6573 4133.86
-126.391 -206.637 1.81899e-11 126.391 206.637 25449.7 -198.646 -21.5062 17399.9 198.646 21.5062 19276.9 -26.164 30.6196 3603.85 26.164 -30.6196 4199.58 -117.794 717.588 1.09139e-11 117.794 -717.588 25962.2 -220.872 352.058 19810.7 220.872 -352.058 21562.8 -26.7009 82.1304 3831.72 26.7009 -82.1304 4206.91
-127.911 -205.239 3.63798e-12 127.911 205.239 25755.2 -194.605 -20.8482 17010 194.605 20.8482 18921.4 -27.1468 30.0369 3807.86 27.1468 -30.0369 4286.66 -119.153 716.19 -3.63798e-12 119.153 -716.19 26274 -216.775 351.4 19415.9 216.775 -351.4 21192.9 -27.7148 82.7131 4045.9 27.7148 -82.7131 4295.92
-129.629 -202.04 3.63798e-12 129.629 202.04 26105.2 -188.576 -19.3472 16432.2 188.576 19.3472 18387.9 -28.34 29.3598 4061.31 28.34 -29.3598 4386.58 -120.751 712.99 -7.27596e-12 120.751 -712.99 26633 -210.653 349.899 18827.1 210.653 -349.899 20637.7 -28.9561 83.3902 4314.14 28.9561 -83.3902 4398.55
-131.588 -197.214 3.63798e-12 131.588 197.214 26508.4 -180.716 -17.0425 15679.9 180.716 17.0425 17691.7 -29.7083 28.6087 4356.7 29.7083 -28.6087 4496.32 -122.621 708.165 7.27596e-12 122.621 -708.165 27047.7 -202.666 347.594 18058.6 202.666 -347.594 19913.2 -30.3875 84.1413 4628.46 30.3875 -84.1413 4511.71
-133.821 -190.966 -7.27596e-12 133.821 190.966 26970.6 -171.231 -13.9869 14771.3 171.231 13.9869 16852.5 -31.2074 27.8088 4684.64 31.2074 -27.8088 4612.18 -124.783 701.917 1.45519e-11 124.783 -701.917 27523.7 -193.023 344.538 17129 193.023 -344.538 19039.8 -31.9638 84.9412 4979.09 31.9638 -84.9412 4631.57
-136.338 -183.52 -7.27596e-12 136.338 183.52 27493.8 -160.369 -10.2468 13728.7 160.369 10.2468 15893.6 -32.7865 26.9888 5034.35 32.7865 -26.9888 4729.9 -127.243 694.471 -3.63798e-12 127.243 -694.471 28062.5 -181.979 340.798 16061.9 181.979 -340.798 18041.9 -33.6316 85.7612 5354.51 33.6316 -85.7612 4753.76
-139.125 -175.115 1.45519e-11 139.125 175.115 28074.8 -148.417 -5.90195 12578.1 148.417 5.90195 14841.7 -34.389 26.1808 5393.77 34.389 -26.1808 4844.77 -129.982 686.066 -7.27596e-12 129.982 -686.066 28660.6 -169.831 336.453 14885 169.831 -336.453 16947.5 -35.3314 86.5692 5741.78 35.3314 -86.5692 4873.45
-142.141 -165.991 -3.63798e-12 142.141 165.991 28705 -135.703 -1.04424 11350.2 135.703 1.04424 13726.3 -35.9537 25.4189 5749.81 35.9537 -25.4189 4951.77 -132.959 676.941 3.63798e-12 132.959 -676.941 29309.2 -156.913 331.596 13629.8 156.913 -331.596 15787.6 -36.9994 87.3311 6126.98 36.9994 -87.3311 4985.46
-145.324 -156.388 -7.27596e-12 145.324 156.388 29372 -122.578 4.2249 10078.1 122.578 -4.2249 12579.3 -37.4169 24.7385 6088.82 37.4169 -24.7385 5045.74 -136.114 667.339 0 136.114 -667.339 29995 -143.582 326.327 12330.3 143.582 -326.327 14595 -38.5692 88.0115 6495.61 38.5692 -88.0115 5084.45
-148.606 -146.554 -1.45519e-11 148.606 146.554 30061.2 -109.406 9.79824 8796.13 109.406 -9.79824 11432.9 -38.7148 24.1747 6397.05 38.7148 -24.1747 5121.52 -139.378 657.505 0 139.378 -657.505 30703 -130.208 320.753 11021.8 130.208 -320.753 13403.7 -39.974 88.5753 6832.98 39.974 -88.5753 5165.13
-151.915 -136.736 7.27596e-12 151.915 136.736 30757.8 -96.5458 15.5661 7538.39 96.5458 -15.5661 10319.6 -39.7854 23.7617 6661.13 39.7854 -23.7617 5174.15 -142.68 647.687 -3.63798e-12 142.68 -647.687 31418 -117.16 314.985 9739.67 117.16 -314.985 12247.4 -41.1487 88.9883 7124.78 41.1487 -88.9883 5222.35
-155.188 -127.176 -1.09139e-11 155.188 127.176 31447.9 -84.3485 21.4193 6338.14 84.3485 -21.4193 9270.64 -40.5703 23.5312 6868.43 40.5703 -23.5312 5199 -145.951 638.127 -1.45519e-11 145.951 -638.127 32125.6 -104.796 309.132 8517.89 104.796 -309.132 11158.6 -42.0321 89.2188 7357.51 42.0321 -89.2188 5251.35
-158.363 -118.109 0 158.363 118.109 32118.7 -73.1423 27.251 5226.66 73.1423 -27.251 8315.5 -41.0168 23.5114 7007.44 41.0168 -23.5114 5191.96 -149.129 629.06 -3.63798e-12 149.129 -629.06 32812.2 -93.4507 303.301 7388.62 93.4507 -303.301 10168 -42.5689 89.2386 7518.89 42.5689 -89.2386 5247.87
-161.386 -109.751 7.27596e-12 161.386 109.751 32757.6 -63.2268 32.9593 4232.55 63.2268 -32.9593 7480.94 -41.0797 23.7263 7068.22 41.0797 -23.7263 5149.59 -152.149 620.702 2.18279e-11 152.149 -620.702 33465.1 -83.4335 297.592 6381.3 83.4335 -297.592 9303.49 -42.711 89.0237 7598.18 42.711 -89.0237 5208.33
-164.203 -102.293 -1.81899e-11 164.203 102.293 33353.1 -54.8654 38.4491 3381.17 54.8654 -38.4491 6790.4 -40.7223 24.1949 7042.61 40.7223 -24.1949 5069.18 -154.955 613.244 7.27596e-12 154.955 -613.244 34072.4 -75.0151 292.102 5521.99 75.0151 -292.102 8589.45 -42.4197 88.5551 7586.6 42.4197 -88.5551 5129.93
-166.768 -95.901 7.27596e-12 166.768 95.901 33895 -48.2781 43.634 2693.82 48.2781 -43.634 6263.37 -39.9185 24.9299 6924.59 39.9185 -24.9299 4948.94 -157.494 606.852 7.27596e-12 157.494 -606.852 34623.4 -68.4215 286.918 4832.48 68.4215 -286.918 8046.1 -41.6664 87.8201 7477.61 41.6664 -87.8201 5010.78
-169.049 -90.7104 0 169.049 90.7104 34375.7 -43.6334 48.4392 2186.91 43.6334 -48.4392 5914.68 -38.653 25.9376 6710.49 38.653 -25.9376 4788.04 -159.727 601.661 7.27596e-12 159.727 -601.661 35110.4 -63.8264 282.112 4329.59 63.8264 -282.112 7688.87 -40.4343 86.8124 7267.14 40.4343 -86.8124 4849.99
-171.032 -86.8327 -7.27596e-12 171.032 86.8327 34791.7 -41.0411 52.8028 1871.16 41.0411 -52.8028 5754.06 -36.9231 27.2175 6399.18 36.9231 -27.2175 4586.69 -161.632 597.784 1.45519e-11 161.632 -597.784 35529.7 -61.3442 277.749 4024.4 61.3442 -277.749 7527.84 -38.7191 85.5325 6953.82 38.7191 -85.5325 4647.74
-172.73 -84.3542 0 172.73 84.3542 35144.6 -40.549 56.6778 1751.2 40.549 -56.6778 5785.84 -34.7384 28.7616 5992.18 34.7384 -28.7616 4346.15 -163.212 595.305 -7.27596e-12 163.212 -595.305 35882.7 -61.0257 273.874 3921.78 61.0257 -273.874 7567.5 -36.5293 83.9884 6539.06 36.5293 -83.9884 4405.28
-174.171 -83.3012 7.27596e-12 174.171 83.3012 35440 -42.1392 60.0271 1825.05 42.1392 -60.0271 6008.8 -32.1213 30.5546 5493.7 32.1213 -30.5546 4068.76 -164.277 594.252 -2.18279e-11 164.277 -594.252 36131.5 -62.9431 270.524 4031.69 62.9431 -270.524 7811.17 -33.8829 82.1954 6026.27 33.8829 -82.1954 4124.7
-175.359 -83.3076 -3.63798e-12 175.359 83.3076 35679.5 -45.6485 62.7588 2070.63 45.6485 -62.7588 6414.86 -29.1201 32.5805 4914.33 29.1201 -32.5805 3758.17 -164.316 594.258 0 164.316 -594.258 36171.4 -67.4704 267.793 4409.63 67.4704 -267.793 8272.43 -30.7758 80.1695 5412.33 30.7758 -80.1695 3808.07
-176.383 -84.9328 1.09139e-11 176.383 84.9328 35879 -51.0337 64.9662 2490.79 51.0337 -64.9662 6993.27 -25.7675 34.8052 4260.3 25.7675 -34.8052 3417.71 -164.269 595.884 -1.09139e-11 164.269 -595.884 36198 -73.7641 265.585 4947.18 73.7641 -265.585 8903.43 -27.3123 77.9448 4719.74 27.3123 -77.9448 3464.07
-177.275 -87.9532 -2.18279e-11 177.275 87.9532 36045.7 -58.171 66.6674 3076.81 58.171 -66.6674 7729.87 -22.1159 37.1866 3540.38 22.1159 -37.1866 3054.12 -164.176 598.904 -2.18279e-11 164.176 -598.904 36219.4 -81.7895 263.884 5641.86 81.7895 -263.884 9700.02 -23.5335 75.5634 3960.89 23.5335 -75.5634 3092.74
-177.845 -92.2447 -3.63798e-12 177.845 92.2447 36140.8 -66.972 67.8139 3824.9 66.972 -67.8139 8611.99 -18.2178 39.6976 2765.83 18.2178 -39.6976 2671.63 -164.042 603.196 -1.81899e-11 164.042 -603.196 36236 -91.2689 262.738 6470.12 91.2689 -262.738 10634.2 -19.5194 73.0524 3148.57 19.5194 -73.0524 2705.22
-178.042 -97.6144 1.09139e-11 178.042 97.6144 36154.9 -77.199 68.4651 4715.82 77.199 -68.4651 9614.9 -14.1483 42.2874 1950.72 14.1483 -42.2874 2278.43 -163.871 608.565 0 163.871 -608.565 36247.1 -101.963 262.086 7406.43 101.963 -262.086 11687.1 -15.3385 70.4626 2300.1 15.3385 -70.4626 2304.69
-178.229 -104.013 -1.45519e-11 178.229 104.013 36162.7 -88.4169 68.6462 5699.14 88.4169 -68.6462 10708.5 -9.9966 44.911 1115.14 9.9966 -44.911 1880.84 -163.667 614.964 0 163.667 -614.964 36252.7 -113.673 261.905 8439.93 113.673 -261.905 12832.2 -11.0602 67.839 1427.61 11.0602 -67.839 1899.81
-178.362 -111.222 -1.09139e-11 178.362 111.222 36156.3 -100.349 68.3994 6750.96 100.349 -68.3994 11865.5 -5.84363 47.518 275.707 5.84363 -47.518 1486.3 -163.309 622.173 1.09139e-11 163.309 -622.173 36225.8 -126.149 262.152 9549.04 126.149 -262.152 14044.8 -6.76993 65.232 548.996 6.76993 -65.232 1498.13
-178.005 -118.533 -3.63798e-12 178.005 118.533 36049.5 -112.679 67.7375 7841.32 112.679 -67.7375 13056.9 -1.7767 50.0581 -549.407 1.7767 -50.0581 1102.62 -162.502 629.484 0 162.502 -629.484 36101.6 -139.19 262.814 10721.3 139.19 -262.814 15300 -2.54307 62.6919 -320.342 2.54307 -62.6919 1106.75
-177.132 -125.88 0 177.132 125.88 35837.6 -125.25 66.6848 8965.27 125.25 -66.6848 14259 2.1331 52.4845 -1346.02 -2.1331 -52.4845 736.788 -161.212 636.831 3.63798e-12 161.212 -636.831 35871.7 -152.535 263.867 11934.8 152.535 -263.867 16570.8 1.53062 60.2655 -1161.94 -1.53062 -60.2655 733.904
-175.703 -132.984 -1.09139e-11 175.703 132.984 35514.2 -137.866 65.2698 10109.1 137.866 -65.2698 15448.9 5.80712 54.7465 -2098.28 -5.80712 -54.7465 396.439 -159.396 643.935 0 159.396 -643.935 35524.9 -165.856 265.282 13160 165.856 -265.282 17825.9 5.36709 58.0035 -1957.76 -5.36709 -58.0035 386.507
-173.662 -139.549 -2.91038e-11 173.662 139.549 35069.5 -150.233 63.55 11247.8 150.233 -63.55 16597.1 9.16499 56.796 -2789.68 -9.16499 -56.796 89.0385 -157.018 650.5 -3.63798e-12 157.018 -650.5 35050.7 -178.844 267.002 14369.7 178.844 -267.002 19034.9 8.87871 55.954 -2689.53 -8.87871 -55.954 72.2972
-170.946 -145.336 2.18279e-11 170.946 145.336 34492.1 -162.012 61.5564 12350.9 162.012 -61.5564 17671.5 12.11 58.565 -3402.09 -12.11 -58.565 -174.714 -154.047 656.287 -1.09139e-11 154.047 -656.287 34440.4 -191.188 268.995 15537.3 191.188 -268.995 20166.3 11.9713 54.185 -3339.92 -11.9713 -54.185 -198.14
-167.505 -150.027 2.54659e-11 167.505 150.027 33773.7 -172.925 59.3843 13394.4 172.925 -59.3843 18644.6 14.598 60.0362 -3922.87 -14.598 -60.0362 -394.13 -150.453 660.978 -1.09139e-11 150.453 -660.978 33685.2 -202.589 271.167 16636.1 202.589 -271.167 21191.3 14.5873 52.7138 -3894.29 -14.5873 -52.7138 -422.393
-163.326 -153.352 -1.45519e-11 163.326 153.352 32912.6 -182.707 57.1026 14355.5 182.707 -57.1026 19490.2 16.5632 61.1748 -4338.65 -16.5632 -61.1748 -562.982 -146.231 664.303 -1.81899e-11 146.231 -664.303 32782.3 -212.736 273.449 17637.3 212.736 -273.449 22080.3 16.6594 51.5752 -4338.13 -16.6594 -51.5752 -595.064
-158.434 -155.068 -1.81899e-11 158.434 155.068 31914.8 -191.034 54.8003 15203 191.034 -54.8003 20180.2 17.9467 61.9486 -4636.72 -17.9467 -61.9486 -676.377 -141.428 666.019 -7.27596e-12 141.428 -666.019 31740.8 -221.317 275.751 18511.5 221.317 -275.751 22805 18.1291 50.8014 -4658.59 -18.1291 -50.8014 -711.658
-152.921 -155.025 1.09139e-11 152.921 155.025 30799.5 -197.575 52.5733 15902.7 197.575 -52.5733 20687 18.6985 62.332 -4805.99 -18.6985 -62.332 -730.429 -136.152 665.976 -7.27596e-12 136.152 -665.976 30583.8 -228.027 277.978 19228.3 228.027 -277.978 23338.2 18.9467 50.418 -4844.79 -18.9467 -50.418 -768.361
-146.937 -153.133 -7.27596e-12 146.937 153.133 29596.7 -202.059 50.5115 16427.7 202.059 -50.5115 20988.2 18.7839 62.3059 -4838.64 -18.7839 -62.3059 -722.669 -130.545 664.084 -3.63798e-12 130.545 -664.084 29342.6 -232.587 280.04 19759.3 232.587 -280.04 23656.6 19.0727 50.4441 -4887.9 -19.0727 -50.4441 -762.296
-140.649 -149.339 0 140.649 149.339 28339.5 -204.267 48.7018 16755.1 204.267 -48.7018 21066.2 18.182 61.8591 -4729.7 -18.182 -61.8591 -651.853 -124.759 660.29 3.63798e-12 124.759 -660.29 28050.7 -234.757 281.85 20079.2 234.757 -281.85 23740.5 18.4806 50.8909 -4781.7 -18.4806 -50.8909 -691.796
-134.221 -143.635 -1.09139e-11 134.221 143.635 27060.5 -204.017 47.2263 16865.1 204.017 -47.2263 20907.1 16.8834 60.9896 -4476.63 -16.8834 -60.9896 -517.799 -118.942 654.586 -7.27596e-12 118.942 -654.586 26742.2 -234.354 283.325 20167.9 234.354 -283.325 23575.9 17.1606 51.7604 -4523.47 -17.1606 -51.7604 -556.609
-127.809 -136.052 0 127.809 136.052 25790.1 -201.182 46.1571 16742.6 201.182 -46.1571 20502.8 14.8933 59.7048 -4080.05 -14.8933 -59.7048 -321.542 -113.238 647.003 2.18279e-11 113.238 -647.003 25449 -231.259 284.394 20011.7 231.259 -284.394 23154.2 15.1194 53.0452 -4113.96 -15.1194 -53.0452 -357.95
-121.56 -126.656 -7.27596e-12 121.56 126.656 24557.2 -195.712 45.5522 16380.4 195.712 -45.5522 19851.6 12.2339 58.0213 -3544.19 -12.2339 -58.0213 -65.5723 -107.774 637.607 1.45519e-11 107.774 -637.607 24200.6 -225.421 284.999 19602.7 225.421 -284.999 22473.7 12.38 54.7287 -3557.25 -12.38 -54.7287 -98.4787
-115.615 -115.59 3.63798e-12 115.615 115.59 23389 -187.62 45.4207 15776.7 187.62 -45.4207 18957.4 8.92036 55.9372 -2874.88 -8.92036 -55.9372 251.207 -102.668 626.541 -2.18279e-11 102.668 -626.541 23024.5 -216.851 285.131 18939.5 216.851 -285.131 21538.2 8.96103 56.8128 -2859.34 -8.96103 -56.8128 222.387
-110.106 -102.989 9.09495e-12 110.106 102.989 22310.9 -176.992 45.8183 14936.3 176.992 -45.8183 17831.4 5.0288 53.5076 -2084.58 -5.0288 -53.5076 618.49 -98.0338 613.94 -7.27596e-12 98.0338 -613.94 21946.8 -205.645 284.733 18027.9 205.645 -284.733 20359.6 4.93119 59.2424 -2032.21 -4.93119 -59.2424 596.325
-105.152 -89.0583 3.63798e-12 105.152 89.0583 21346.6 -163.977 46.7609 13869.9 163.977 -46.7609 16490.4 0.626306 50.779 -1187 -0.626306 -50.779 1029.86 -93.9741 600.009 -1.81899e-12 93.9741 -600.009 20991.6 -191.961 283.791 16879.8 191.961 -283.791 18955.5 0.36512 61.971 -1090.74 -0.36512 -61.971 1016.11
-100.853 -74.0306 7.27596e-12 100.853 74.0306 20515.2 -148.8 48.2502 12595.4 148.8 -48.2502 14957.9 -4.20488 47.8042 -198.984 4.20488 -47.8042 1477.58 -90.5684 584.981 1.09139e-11 90.5684 -584.981 20177.4 -176.032 282.301 15514.7 176.032 -282.301 17350.3 -4.64814 64.9458 -52.7196 4.64814 -64.9458 1473.16
-97.2541 -58.1547 1.27329e-11 97.2541 58.1547 19825.2 -131.761 50.2617 11138.7 131.761 -50.2617 13263.4 -9.36946 44.6439 859.76 9.36946 -44.6439 1952.88 -87.8493 569.106 3.63798e-12 87.8493 -569.106 19512.5 -158.173 280.29 13959.9 158.173 -280.29 15575.2 -10.0072 68.1061 1061.12 10.0072 -68.1061 1958.09
-94.337 -41.6757 -7.27596e-12 94.337 41.6757 19272.8 -113.236 52.7493 9533.77 113.236 -52.7493 11442.4 -14.7593 41.3635 1967 14.7593 -41.3635 2445.81 -85.7898 552.627 3.63798e-12 85.7898 -552.627 18991.7 -138.775 277.802 12251.3 138.775 -277.802 13667.5 -15.601 71.3865 2227.64 15.601 -71.3865 2461
-92.0327 -24.8354 3.63798e-12 92.0327 24.8354 18843.4 -93.66 55.6482 7820.67 93.66 -55.6482 9534.96 -20.2575 38.0326 3098.76 20.2575 -38.0326 2945.58 -84.3145 535.786 -1.09139e-11 84.3145 -535.786 18599.5 -118.291 274.903 10431.4 118.291 -274.903 11669.6 -21.3098 74.7174 3421.64 21.3098 -74.7174 2971.39
-90.2342 -7.87159 9.09495e-12 90.2342 7.87159 18515.1 -73.515 58.8809 6044.48 73.515 -58.8809 7584.95 -25.7424 34.7239 4230 25.7424 -34.7239 3441.17 -83.3108 518.822 -3.63798e-12 83.3108 -518.822 18311.9 -97.2192 271.671 8547.21 97.2192 -271.671 9626.98 -27.0072 78.0261 4616.52 27.0072 -78.0261 3478.16
-88.8013 8.98642 -5.45697e-12 88.8013 -8.98642 18258.9 -53.31 62.3586 4253.47 53.31 -62.3586 5638.16 -31.0908 31.5116 5335.11 31.0908 -31.5116 3921.63 -82.634 501.964 7.27596e-12 82.634 -501.964 18098.4 -76.0879 268.193 6649.16 76.0879 -268.193 7587.82 -32.5639 81.2384 5785.01 32.5639 -81.2384 3969.89
-87.5675 25.5245 7.27596e-12 87.5675 -25.5245 18040.7 -33.5658 65.9852 2497.55 33.5658 -65.9852 3740.96 -36.1798 28.4693 6388.57 36.1798 -28.4693 4376.2 -82.1133 485.426 5.45697e-12 82.1133 -485.426 17922.4 -55.4394 264.566 4789.48 55.4394 -264.566 5600.87 -37.8515 84.2807 6900 37.8515 -84.2807 4435.27
-86.3537 41.5456 -9.09495e-12 86.3537 -41.5456 17823.3 -14.7961 69.6619 826.3 14.7961 -69.6619 1938.78 -40.8904 25.6675 7365.69 40.8904 -25.6675 4794.42 -81.5645 469.405 1.81899e-12 81.5645 -469.405 17744.9 -35.8084 260.89 3019.87 35.8084 -260.89 3713.93 -42.7469 87.0825 7935.31 42.7469 -87.0825 4863.5
-84.9865 56.8685 5.45697e-12 84.9865 -56.8685 17570.8 2.5147 73.2945 -713.445 -2.5147 -73.2945 274.456 -45.1112 23.1719 8243.47 45.1112 -23.1719 5166.41 -80.8086 454.082 -3.63798e-12 80.8086 -454.082 17527.9 -17.6991 257.257 1389.13 17.6991 -257.257 1971.91 -47.1354 89.5781 8866.49 47.1354 -89.5781 5244.61
-83.3139 71.3261 7.27596e-12 83.3139 -71.3261 17251.6 17.9314 76.7981 -2079.66 -17.9314 -76.7981 -1213.41 -48.7416 21.0413 9001.25 48.7416 -21.0413 5483.29 -79.6874 439.625 0 79.6874 -439.625 17238.1 -1.56449 253.753 -58.9286 1.56449 -253.753 415.207 -50.914 91.7087 9671.51 50.914 -91.7087 5569.62
-81.2111 84.7704 7.27596e-12 81.2111 -84.7704 16839.8 31.0825 80.1011 -3236.52 -31.0825 -80.1011 -2491.73 -51.6953 19.3266 9621.22 51.6953 -19.3266 5737.42 -78.07 426.18 0 78.07 -426.18 16847.9 12.2072 250.45 -1286.97 -12.2072 -250.45 -921.515 -53.9938 93.4234 10331.4 53.9938 -93.4234 5830.72
-78.5761 97.084 3.63798e-12 78.5761 -97.084 16313.8 41.6679 83.1464 -4155.03 -41.6679 -83.1464 -3533.81 -53.9019 18.07 10088.9 53.9019 -18.07 5922.66 -75.8489 413.867 -7.27596e-12 75.8489 -413.867 16334.8 23.3019 247.405 -2264.76 -23.3019 -247.405 -2010.21 -56.3021 94.68 10830.8 56.3021 -94.68 6021.46
-75.3226 108.193 0 75.3226 -108.193 15655.9 49.4642 85.8929 -4813.41 -49.4642 -85.8929 -4319.95 -55.3086 17.3029 10393.4 55.3086 -17.3029 6034.35 -72.9343 402.758 -3.63798e-12 72.9343 -402.758 15679.8 31.4849 244.659 -2969.63 -31.4849 -244.659 -2830.14 -57.7845 95.4471 11158.1 57.7845 -95.4471 6136.98
-71.3816 118.07 -7.27596e-12 71.3816 -118.07 14851.6 54.3317 88.3174 -5197.77 -54.3317 -88.3174 -4838 -55.8816 17.0457 10527.8 55.8816 -17.0457 6069.43 -69.2556 392.88 -9.09495e-12 69.2556 -392.88 14867.9 36.6094 242.234 -3387.13 -36.6094 -242.234 -3368.59 -58.4064 95.7043 11305.9 58.4064 -95.7043 6174.14
-66.7075 126.736 -3.63798e-12 66.7075 -126.736 13891.6 56.2202 90.4166 -5302.78 -56.2202 -90.4166 -5083.87 -55.6069 17.3071 10489.4 55.6069 -17.3071 6026.51 -64.768 384.215 3.63798e-12 64.768 -384.215 13889.5 38.6223 240.135 -3511.83 -38.6223 -240.135 -3621.3 -58.1537 95.4429 11271.5 58.1537 -95.4429 6131.63
-61.2832 134.251 0 61.2832 -134.251 12772.5 55.1728 92.2074 -5132.11 -55.1728 -92.2074 -5061.8 -54.491 18.0841 10279.7 54.491 -18.0841 5905.99 -59.4568 376.7 -1.81899e-12 59.4568 -376.7 12741.1 37.5679 238.344 -3347.64 -37.5679 -238.344 -3592.71 -57.033 94.6659 11056.3 57.033 -94.6659 6009.89
-55.1206 140.719 -5.45697e-12 55.1206 -140.719 11497.1 51.3249 93.7277 -4698.31 -51.3249 -93.7277 -4784.23 -52.5604 19.3622 9904.27 52.5604 -19.3622 5710.01 -53.3386 370.231 -1.81899e-12 53.3386 -370.231 11425.9 33.5867 236.824 -2907.78 -33.5867 -236.824 -3295.85 -55.0715 93.3878 10666.3 55.0715 -93.3878 5811.11
-48.2589 146.284 4.54747e-12 48.2589 -146.284 10073.8 44.9 95.0344 -4022.42 -44.9 -95.0344 -4271.47 -49.8608 21.1158 9372.75 49.8608 -21.1158 5442.39 -46.459 364.667 -4.54747e-12 46.459 -364.667 9953.11 26.9112 235.517 -2214.28 -26.9112 -235.517 -2751.94 -52.316 91.6342 10111.9 52.316 -91.6342 5539.18
-40.7612 151.125 0 40.7612 -151.125 8516.17 36.2015 96.2024 -3133.17 -36.2015 -96.2024 -3550.96 -46.4558 23.309 8698.37 46.4558 -23.309 5108.44 -38.8889 359.826 -9.09495e-13 38.8889 -359.826 8337.14 17.8576 234.349 -1297.23 -17.8576 -234.349 -1989.75 -48.8315 89.441 9407.24 48.8315 -89.441 5199.54
-32.7065 155.462 -2.72848e-12 32.7065 -155.462 6840.85 25.6016 97.321 -2065.79 -25.6016 -97.321 -2656.4 -42.4241 25.8966 7897.66 42.4241 -25.8966 4714.83 -30.7158 355.489 -1.81899e-12 30.7158 -355.489 6595.99 6.81401 233.231 -193.513 -6.81401 -233.231 -1044.57 -44.6992 86.8534 8569.87 44.6992 -86.8534 4799.1
-24.1821 159.546 -2.72848e-12 24.1821 -159.546 5066.24 13.5282 98.4906 -860.673 -13.5282 -98.4906 -1626.63 -37.8579 28.8256 6989.85 37.8579 -28.8256 4269.37 -22.0356 351.404 4.54747e-13 22.0356 -351.404 4749.47 -5.77333 232.061 1054.57 5.77333 -232.061 42.8981 -40.0142 83.9244 7620.36 40.0142 -83.9244 4345.92
-15.2767 163.664 0 15.2767 -163.664 3210.93 0.450859 99.8195 438.02 -0.450859 -99.8195 -504.451 -32.8599 32.0366 5996.38 32.8599 -32.0366 3780.86 -12.9455 347.287 2.04636e-12 12.9455 -347.287 2817.71 -19.4147 230.732 2400.76 19.4147 -230.732 1227.82 -34.8825 80.7134 6581.58 34.8825 -80.7134 3849.06
-6.07748 168.122 -6.82121e-13 6.07748 -168.122 1292.89 -13.1327 101.42 1783.67 13.1327 -101.42 664.611 -27.5405 35.4657 4940.27 27.5405 -35.4657 3258.8 -3.53921 342.829 4.54747e-13 3.53921 -342.829 820.335 -33.5912 229.131 3796.21 33.5912 -229.131 2462.52 -29.4182 77.2843 5478.02 29.4182 -77.2843 3318.27
1.46505 171.53 -2.27374e-13 -1.46505 -171.53 -287.555 -26.0217 103.679 3034.91 26.0217 -103.679 1799.94 -22.0419 39.043 3851.88 22.0419 -39.043 2714.85 2.99995 339.421 -2.27374e-13 -2.99995 -339.421 -588.47 -46.2394 226.872 4986.92 46.2394 -226.872 3618.83 -23.8282 73.707 4355.72 23.8282 -73.707 2769.26
6.95898 174.187 -4.54747e-13 -6.95898 -174.187 -1449.46 -37.5851 106.788 4128.34 37.5851 -106.788 2848.2 -16.4694 42.6638 2753.22 16.4694 -42.6638 2158.1 8.40317 336.764 2.27374e-13 -8.40317 -336.764 -1764.44 -58.0541 223.764 6073.43 58.0541 -223.764 4724.07 -18.1622 70.0862 3231.54 18.1622 -70.0862 2200.27
12.5126 178 0 -12.5126 -178 -2625.73 -48.2592 110.265 5133.55 48.2592 -110.265 3820.1 -10.9065 46.3392 1662.66 10.9065 -46.3392 1594.97 13.7934 332.951 4.54747e-13 -13.7934 -332.951 -2937.64 -68.8466 220.286 7074.09 68.8466 -220.286 5724.65 -12.4883 66.4108 2103.51 12.4883 -66.4108 1633.67
18.0464 183.292 -1.81899e-12 -18.0464 -183.292 -3800.69 -57.6141 114.463 6016.74 57.6141 -114.463 4669.91 -5.45714 49.9658 598.35 5.45714 -49.9658 1038.17 19.2042 327.659 1.81899e-12 -19.2042 -327.659 -4113.71 -78.425 216.089 7955.36 78.425 -216.089 6618.15 -6.93248 62.7842 1010.58 6.93248 -62.7842 1068.07
23.4937 190.18 -9.09495e-13 -23.4937 -190.18 -4961.37 -65.3954 119.3 6753.09 65.3954 -119.3 5375.13 -0.210666 53.5033 -419.061 0.210666 -53.5033 493.645 24.55 320.771 0 -24.55 -320.771 -5273.34 -86.262 211.252 8675.42 86.262 -211.252 7348.62 -1.58789 59.2467 -34.3847 1.58789 -59.2467 518.355
28.7706 198.809 -2.72848e-12 -28.7706 -198.809 -6091.1 -71.1833 124.854 7302.85 71.1833 -124.854 5897.74 4.73756 56.8769 -1372.18 -4.73756 -56.8769 -27.5905 29.7573 312.142 -1.81899e-12 -29.7573 -312.142 -6399.59 -92.0648 205.698 9204.04 92.0648 -205.698 7891.88 3.44896 55.8731 -1009.38 -3.44896 -55.8731 -8.82228
33.7865 209.241 -1.81899e-12 -33.7865 -209.241 -7171.77 -74.6591 131.115 7635.37 74.6591 -131.115 6209.12 9.29232 60.0275 -2243.53 -9.29232 -60.0275 -514.575 34.7433 301.709 -3.63798e-12 -34.7433 -301.709 -7473.43 -95.5049 199.437 9511.14 95.5049 -199.437 8217.23 8.07601 52.7225 -1896.88 -8.07601 -52.7225 -500.763
38.4392 221.573 5.45697e-12 -38.4392 -221.573 -8182.78 -75.6671 138.164 7737.41 75.6671 -138.164 6293.43 13.4319 62.9473 -3023.85 -13.4319 -62.9473 -969.921 39.4281 289.378 1.81899e-12 -39.4281 -289.378 -8476.59 -96.3552 192.388 9574.44 96.3552 -192.388 8305 12.2456 49.8027 -2683.63 -12.2456 -49.8027 -956.635
42.592 235.684 -2.72848e-12 -42.592 -235.684 -9095.98 -74.2046 145.979 7615.24 74.2046 -145.979 6143.48 17.1015 65.6063 -3703.37 -17.1015 -65.6063 -1386.86 43.7181 275.267 8.18545e-12 -43.7181 -275.267 -9388.44 -94.5306 184.573 9389.47 94.5306 -184.573 8144.13 15.9213 47.1437 -3361.13 -15.9213 -47.1437 -1374.29
46.2276 251.653 -6.36646e-12 -46.2276 -251.653 -9908.04 -70.0457 154.573 7239.87 70.0457 -154.573 5746.09 20.2555 67.9811 -4272.04 -20.2555 -67.9811 -1761.75 47.5605 259.298 2.72848e-12 -47.5605 -259.298 -10197 -89.849 175.979 8937.55 89.849 -175.979 7719.95 19.0604 44.7689 -3921.55 -19.0604 -44.7689 -1748.96
49.3152 269.472 6.36646e-12 -49.3152 -269.472 -10612.5 -63.0994 163.934 6601.14 63.0994 -163.934 5094.15 22.873 70.0549 -4725.93 -22.873 -70.0549 -2092.11 50.9286 241.479 -5.45697e-12 -50.9286 -241.479 -10896.1 -82.2965 166.617 8216.1 82.2965 -166.617 7032.98 21.6379 42.6951 -4359.63 -21.6379 -42.6951 -2078.68
51.8437 288.958 2.72848e-12 -51.8437 -288.958 -11206.7 -53.4938 173.952 5707.13 53.4938 -173.952 4202.81 24.9288 71.8178 -5058.35 -24.9288 -71.8178 -2376.95 53.8069 221.993 5.45697e-12 -53.8069 -221.993 -11482.7 -71.932 156.6 7230.75 71.932 -156.6 6089.08 23.6399 40.9322 -4673.71 -23.6399 -40.9322 -2361.14
53.8146 309.997 -1.81899e-12 -53.8146 -309.997 -11690.6 -41.3269 184.57 4571.09 41.3269 -184.57 3076.51 26.4543 73.275 -5278.23 -26.4543 -73.275 -2616.57 56.1998 200.954 -3.63798e-12 -56.1998 -200.954 -11958 -58.9312 145.982 5995.93 58.9312 -145.982 4906.96 25.0617 39.475 -4862.63 -25.0617 -39.475 -2596.17
55.2499 332.361 3.63798e-12 -55.2499 -332.361 -12067.9 -26.8298 195.674 3213.23 26.8298 -195.674 1737.48 27.4654 74.431 -5388.72 -27.4654 -74.431 -2812.33 58.1237 178.59 -3.63798e-12 -58.1237 -178.59 -12326.3 -43.4693 134.878 4528.83 43.4693 -134.878 3502.54 25.9467 38.319 -4935.2 -25.9467 -38.319 -2788.04
56.1789 355.926 -3.63798e-12 -56.1789 -355.926 -12343.9 -10.2268 207.263 1654.23 10.2268 -207.263 206.192 28.0006 75.313 -5398.56 -28.0006 -75.313 -2966.95 59.5959 155.025 -5.45697e-12 -59.5959 -155.025 -12592.1 -25.818 123.289 2856.62 25.818 -123.289 1899.56 26.3262 37.437 -4900.93 -26.3262 -37.437 -2936.57
56.6373 380.389 -3.63798e-12 -56.6373 -380.389 -12524.7 8.15828 219.193 -75.6333 -8.15828 -219.193 -1487.84 28.1127 75.9451 -5319.58 -28.1127 -75.9451 -3084.19 60.6401 130.562 0 -60.6401 -130.562 -12761.6 -6.28541 111.359 1008.98 6.28541 -111.359 126.001 26.2681 36.8049 -4774.12 -26.2681 -36.8049 -3047.71
56.6683 405.448 1.81899e-12 -56.6683 -405.448 -12618 27.9543 231.342 -1941.19 -27.9543 -231.342 -3311.1 27.8684 76.3607 -5166.49 -27.8684 -76.3607 -3169.18 61.2888 105.502 -7.27596e-12 -61.2888 -105.502 -12843 14.7349 99.2093 -977.936 -14.7349 -99.2093 -1781.01 25.8296 36.3893 -4567.74 -25.8296 -36.3893 -3125.46
56.3011 430.763 1.81899e-12 -56.3011 -430.763 -12628.5 48.7625 243.584 -3905.82 -48.7625 -243.584 -5226.26 27.3352 76.5966 -4954.04 -27.3352 -76.5966 -3227.24 61.5287 80.1881 7.27596e-12 -61.5287 -80.1881 -12835.6 36.8406 86.9678 -3067.24 -36.8406 -86.9678 -3783.55 25.0859 36.1534 -4298.3 -25.0859 -36.1534 -3175.69
55.461 455.861 3.63798e-12 -55.461 -455.861 -12539.5 70.2034 255.81 -5936.94 -70.2034 -255.81 -7195.31 26.5831 76.6921 -4697.38 -26.5831 -76.6921 -3264.09 61.2645 55.0895 1.81899e-12 -61.2645 -55.0895 -12721.7 59.6521 74.7414 -5226.59 -59.6521 -74.7414 -5843.49 24.113 36.0579 -3982.51 -24.113 -36.0579 -3204.25
54.2646 480.446 1.81899e-12 -54.2646 -480.446 -12374.3 91.7896 267.864 -7987.55 -91.7896 -267.864 -9174.5 25.6934 76.6921 -4414.46 -25.6934 -76.6921 -3285.98 60.6195 30.5053 -5.45697e-12 -60.6195 -30.5053 -12528.5 82.6327 62.6876 -7403.74 -82.6327 -62.6876 -7913.82 23.002 36.0579 -3640.36 -23.002 -36.0579 -3218.16
52.8948 504.235 -1.81899e-12 -52.8948 -504.235 -12170.7 112.998 279.577 -10005.9 -112.998 -279.577 -11118 24.7534 76.6431 -4124.46 -24.7534 -76.6431 -3299.78 59.7813 6.71574 0 -59.7813 -6.71574 -12295.8 105.235 50.9745 -9545.47 -105.235 -50.9745 -9946.6 21.8421 36.1069 -3291.8 -21.8421 -36.1069 -3223.94
51.5665 526.992 -7.27596e-12 -51.5665 -526.992 -11973.7 133.297 290.783 -11938.9 -133.297 -290.783 -12979.6 23.8484 76.5904 -3846.17 -23.8484 -76.5904 -3312.1 58.9745 -16.0415 3.63798e-12 -58.9745 16.0415 -12070.8 126.891 39.7685 -11596.2 -126.891 -39.7685 -11893 20.7249 36.1596 -2956.9 -20.7249 -36.1596 -3228.67
50.5179 548.52 5.45697e-12 -50.5179 -548.52 -11833.8 152.165 301.32 -13733.7 -152.165 -301.32 -14714.6 23.0586 76.5778 -3597.19 -23.0586 -76.5778 -3329.3 58.4531 -37.569 1.81899e-12 -58.4531 37.569 -11906.3 147.052 29.2319 -13501.2 -147.052 -29.2319 -13706.6 19.7373 36.1722 -2655.11 -19.7373 -36.1722 -3238.67
49.9855 568.654 -7.27596e-12 -49.9855 -568.654 -11801.7 169.117 311.036 -15340.9 -169.117 -311.036 -16281.4 22.4571 76.6449 -3393.62 -22.4571 -76.6449 -3357.06 58.4738 -57.7031 5.45697e-12 -58.4738 57.7031 -11855 165.203 19.5153 -15209.3 -165.203 -19.5153 -15344 18.9602 36.1051 -2404.32 -18.9602 -36.1051 -3260
50.1782 587.254 9.09495e-12 -50.1782 -587.254 -11922.5 183.729 319.798 -16717.2 -183.729 -319.798 -17643.9 22.1086 76.8268 -3249.74 -22.1086 -76.8268 -3400.37 59.2668 -76.3026 -7.27596e-12 -59.2668 76.3026 -11964 180.893 10.7536 -16675.5 -180.893 -10.7536 -16767.6 18.4627 35.9232 -2219.91 -18.4627 -35.9232 -3297.81
51.2603 604.197 -9.09495e-12 -51.2603 -604.197 -12232 195.66 327.494 -17827.4 -195.66 -327.494 -18772.8 22.0654 77.1513 -3177.16 -22.0654 -77.1513 -3463.27 61.0155 -93.2463 -3.63798e-12 -61.0155 93.2463 -12270.6 193.756 3.05792 -17863.8 -193.756 -3.05792 -17946.6 18.301 35.5987 -2114.26 -18.301 -35.5987 -3356.32
52.972 619.277 -3.63798e-12 -52.972 -619.277 -12677.9 204.836 334.068 -18670.3 -204.836 -334.068 -19654.8 22.3563 77.639 -3182.14 -22.3563 -77.639 -3548.13 63.7426 -108.326 3.63798e-12 -63.7426 108.326 -12779.5 203.546 -3.51601 -18750.6 -203.546 3.51601 -18859.7 18.5155 35.111 -2096.34 -18.5155 -35.111 -3438.51
54.6047 631.438 0 -54.6047 -631.438 -13113 211.469 339.62 -19282 -211.469 -339.62 -20292.5 22.9865 78.2901 -3263.69 -22.9865 -78.2901 -3657.52 66.0828 -120.487 1.81899e-12 -66.0828 120.487 -13212.8 210.804 -9.06835 -19412.4 -210.804 9.06835 -19530.6 19.0959 34.4599 -2163.6 -19.0959 -34.4599 -3543.92
56.8523 641.352 -9.09495e-12 -56.8523 -641.352 -13681.5 215.113 344.051 -19599.5 -215.113 -344.051 -20665.9 23.9871 79.1136 -3432.65 -23.9871 -79.1136 -3789.84 69.0445 -130.401 7.27596e-12 -69.0445 130.401 -13775.8 214.937 -13.4996 -19781.2 -214.937 13.4996 -19918.6 20.0665 33.6364 -2318.69 -20.0665 -33.6364 -3677.01
59.7224 648.962 0 -59.7224 -648.962 -14384.1 215.748 347.246 -19624.5 -215.748 -347.246 -20768.7 25.3554 80.1178 -3686.04 -25.3554 -80.1178 -3947.34 72.638 -138.011 0 -72.638 138.011 -14471.1 215.99 -16.6947 -19853.7 -215.99 16.6947 -20035.5 21.4322 32.6322 -2567.69 -21.4322 -32.6322 -3833.11
63.1706 654.325 -9.09495e-12 -63.1706 -654.325 -15210 213.529 349.312 -19372.6 -213.529 -349.312 -20614.2 27.0621 81.2789 -4018.49 -27.0621 -81.2789 -4126.61 76.8239 -143.374 -1.45519e-11 -76.8239 143.374 -15291.4 213.97 -18.76 -19634.5 -213.97 18.76 -19878.3 23.1732 31.4711 -2902.66 -23.1732 -31.4711 -4014.29
67.1382 657.475 -1.09139e-11 -67.1382 -657.475 -16145.1 208.608 350.248 -18859.6 -208.608 -350.248 -20215.1 29.0737 82.5834 -4422.2 -29.0737 -82.5834 -4325.54 81.5208 -146.524 -5.45697e-12 -81.5208 146.524 -16220.8 209.11 -19.6964 -19144.2 -209.11 19.6964 -19469.2 25.2524 30.1666 -3317.91 -25.2524 -30.1666 -4215.22
71.5487 658.537 0 -71.5487 -658.537 -17171.3 201.214 350.123 -18106.8 -201.214 -350.123 -19592.5 31.3467 84.0023 -4888.22 -31.3467 -84.0023 -4540.06 86.643 -147.587 1.45519e-11 -86.643 147.587 -17242.7 201.643 -19.5715 -18406.6 -201.643 19.5715 -18827.5 27.6188 28.7477 -3801.35 -27.6188 -28.7477 -4432.83
76.3279 657.664 9.09495e-12 -76.3279 -657.664 -18271.2 191.641 349.007 -17143 -191.641 -349.007 -18773.2 33.824 85.5037 -5404.27 -33.824 -85.5037 -4765.41 92.1018 -146.714 -1.81899e-12 -92.1018 146.714 -18339.7 191.875 -18.4555 -17450.6 -191.875 18.4555 -17980.8 30.2101 27.2463 -4339.73 -30.2101 -27.2463 -4661.92
81.4053 655.053 2.54659e-11 -81.4053 -655.053 -19428.7 180.23 346.991 -16000.5 -180.23 -346.991 -17788.1 36.4368 87.05 -5955.51 -36.4368 -87.05 -4995.89 97.8142 -144.102 7.27596e-12 -97.8142 144.102 -19495.4 180.16 -16.4398 -16308.9 -180.16 16.4398 -16961.4 32.956 25.7 -4917.87 -32.956 -25.7 -4896.8
86.7083 650.951 -9.09495e-12 -86.7083 -650.951 -20627.6 167.346 344.179 -14713.9 -167.346 -344.179 -16671.3 39.1098 88.5986 -6525.72 -39.1098 -88.5986 -5225.19 103.702 -140 9.09495e-12 -103.702 140 -20694.1 166.9 -13.6274 -15019 -166.9 13.6274 -15805.6 35.7774 24.1514 -5518.66 -35.7774 -24.1514 -5131.22
92.1607 645.639 -2.72848e-11 -92.1607 -645.639 -21851.3 153.397 340.683 -13322.1 -153.397 -340.683 -15460.4 41.7636 90.1044 -7097.7 -41.7636 -90.1044 -5446.81 109.686 -134.689 2.00089e-11 -109.686 134.689 -21919.2 152.535 -10.1312 -13622.2 -152.535 10.1312 -14553.1 38.5882 22.6456 -6123.51 -38.5882 -22.6456 -5358.27
97.6813 639.405 -1.81899e-11 -97.6813 -639.405 -23082.2 138.83 336.624 -11868 -138.83 -336.624 -14196 44.3159 91.5205 -7653.53 -44.3159 -91.5205 -5653.97 115.677 -128.454 0 -115.677 128.454 -23152.5 137.523 -6.07234 -12161.5 -137.523 6.07234 -13245.3 41.2996 21.2295 -6713.16 -41.2996 -21.2295 -5570.93
103.309 627.49 1.09139e-11 -103.309 -627.49 -24303 124.238 326.926 -10402.4 -124.238 -326.926 -12932 46.2889 87.4865 -8136.88 -46.2889 -87.4865 -5751.14 121.466 -116.539 -3.63798e-11 -121.466 116.539 -24374.8 122.65 3.6254 -10700 -122.65 -3.6254 -11969.9 41.9716 25.2635 -7090.88 -41.9716 -25.2635 -5400.63
109.016 612.106 -1.09139e-11 -109.016 -612.106 -25515.1 109.328 313.003 -8940.64 -109.328 -313.003 -11601.8 46.46 83.7191 -8462.9 -46.46 -83.7191 -5472.67 126.755 -101.155 -1.09139e-11 -126.755 101.155 -25517.5 113.198 17.5482 -9524.26 -113.198 -17.5482 -11413.8 29.0685 29.0308 -6243.79 -29.0685 -29.0308 -2429.07
114.334 603.612 1.45519e-11 -114.334 -603.612 -26673 96.2656 306.854 -7611.17 -96.2656 -306.854 -10492.1 45.2381 82.5873 -8693.68 -45.2381 -82.5873 -4881.26 132.175 -92.6606 7.27596e-12 -132.175 92.6606 -26657.1 97.5585 23.6975 -8037.23 -97.5585 -23.6975 -10015.9 34.2781 30.1627 -6953.08 -34.2781 -30.1627 -3267.14
119.277 595.274 0 -119.277 -595.274 -27746.5 83.2256 300.757 -6272.03 -83.2256 -300.757 -9397.32 45.952 82.5091 -9041.59 -45.952 -82.5091 -4747.11 137.483 -84.3229 2.18279e-11 -137.483 84.3229 -27776.8 84.7209 29.7941 -6774.27 -84.7209 -29.7941 -8910.86 33.0247 30.2409 -7036.08 -33.0247 -30.2409 -2812.91
124.009 588.039 -7.27596e-12 -124.009 -588.039 -28773.5 71.1708 294.779 -5060.6 -71.1708 -294.779 -8359.41 47.9615 82.6075 -9373.47 -47.9615 -82.6075 -5011.12 142.173 -77.0878 7.27596e-12 -142.173 77.0878 -28767.1 73.1294 35.7723 -5589.61 -73.1294 -35.7723 -7957.18 34.2212 30.1425 -7375.33 -34.2212 -30.1425 -2828.61
128.237 582.104 1.09139e-11 -128.237 -582.104 -29694 61.2067 290.479 -4045.01 -61.2067 -290.479 -7516.91 49.9844 82.2798 -9626.51 -49.9844 -82.2798 -5355.79 146.648 -71.1527 1.09139e-11 -146.648 71.1527 -29708.9 62.5546 40.0729 -4554.74 -62.5546 -40.0729 -7039.8 34.4538 30.4702 -7532.37 -34.4538 -30.4702 -2741.28
132.05 577.377 -7.27596e-12 -132.05 -577.377 -30526.7 52.836 286.104 -3198.92 -52.836 -286.104 -6802.11 50.6428 82.1728 -9718.23 -50.6428 -82.1728 -5457.72 150.493 -66.4259 3.63798e-12 -150.493 66.4259 -30517 54.8003 44.4477 -3729.59 -54.8003 -44.4477 -6434.03 34.595 30.5772 -7661.25 -34.595 -30.5772 -2654.18
135.256 574.323 3.63798e-12 -135.256 -574.323 -31234.4 46.9906 282.996 -2562.76 -46.9906 -282.996 -6348.15 49.7684 82.1505 -9681.74 -49.7684 -82.1505 -5233.85 153.939 -63.3725 1.81899e-11 -153.939 63.3725 -31235.5 48.6077 47.5554 -3101.59 -48.6077 -47.5554 -5918.87 34.8346 30.5995 -7683.66 -34.8346 -30.5995 -2702.2
137.907 572.289 3.63798e-12 -137.907 -572.289 -31823.6 43.5803 280.029 -2154.15 -43.5803 -280.029 -6119.73 48.3796 81.9758 -9555.46 -48.3796 -81.9758 -4946.37 156.78 -61.338 -7.27596e-12 -156.78 61.338 -31825.1 44.9066 50.5226 -2699.45 -44.9066 -50.5226 -5638.59 34.5676 30.7742 -7597.77 -34.5676 -30.7742 -2708.25
139.95 571.383 -1.81899e-11 -139.95 -571.383 -32283.8 42.614 277.485 -1986.56 -42.614 -277.485 -6105.61 47.1901 81.2038 -9347.72 -47.1901 -81.2038 -4796.85 159.004 -60.4316 7.27596e-12 -159.004 60.4316 -32282.5 43.7887 53.0668 -2541.8 -43.7887 -53.0668 -5591.43 33.4516 31.5462 -7372.9 -33.4516 -31.5462 -2602.4
141.352 571.855 1.81899e-11 -141.352 -571.855 -32609.8 43.9696 275.486 -2058.26 -43.9696 -275.486 -6285.13 46.0265 79.8688 -9031.39 -46.0265 -79.8688 -4761.18 160.578 -60.9045 7.27596e-12 -160.578 60.9045 -32599 45.5095 55.0652 -2641.53 -45.5095 -55.0652 -5811.72 31.5045 32.8812 -7021.53 -31.5045 -32.8812 -2377.25
142.101 573.876 1.81899e-11 -142.101 -573.876 -32800.2 47.7647 274.253 -2369.99 -47.7647 -274.253 -6679.25 44.2352 78.2803 -8591.27 -44.2352 -78.2803 -4662.23 161.519 -62.9254 -7.27596e-12 -161.519 62.9254 -32777.1 49.8705 56.299 -2989.02 -49.8705 -56.299 -6272.27 29.0673 34.4697 -6562.62 -29.0673 -34.4697 -2114.34
142.21 577.348 7.27596e-12 -142.21 -577.348 -32857.8 54.0762 273.77 -2915.06 -54.0762 -273.77 -7308.56 41.489 76.6686 -8041.54 -41.489 -76.6686 -4389.91 161.852 -66.397 -3.63798e-12 -161.852 66.397 -32822 56.5452 56.7818 -3563.71 -56.5452 -56.7818 -6933.31 26.3991 36.0814 -6010.33 -26.3991 -36.0814 -1875.79
141.439 581.761 -1.45519e-11 -141.439 -581.761 -32731 62.7223 273.909 -3676.65 -62.7223 -273.909 -8155.92 38.0679 74.9951 -7408.2 -38.0679 -74.9951 -4001.01 161.303 -70.81 3.63798e-12 -161.303 70.81 -32681 65.4837 56.6421 -4365.8 -65.4837 -56.6421 -7785.37 23.4559 37.7549 -5367.83 -23.4559 -37.7549 -1645.52
139.811 586.973 7.27596e-12 -139.811 -586.973 -32424.8 73.3552 274.597 -4634.68 -73.3552 -274.597 -9176.93 34.4663 73.0752 -6708.2 -34.4663 -73.0752 -3624.59 159.878 -76.0225 7.27596e-12 -159.878 76.0225 -32355.9 76.6009 55.9542 -5382.37 -76.6009 -55.9542 -8825.61 20.0861 39.6748 -4639.85 -20.0861 -39.6748 -1374.09
137.484 592.917 3.63798e-12 -137.484 -592.917 -31972.4 85.6111 275.79 -5764.01 -85.6111 -275.79 -10329.3 30.9173 70.8475 -5950.02 -30.9173 -70.8475 -3321.13 157.698 -81.9657 -1.45519e-11 -157.698 81.9657 -31872.4 89.6549 54.762 -6583.13 -89.6549 -54.762 -10039.4 16.2645 41.9025 -3841.84 -16.2645 -41.9025 -1038.74
134.605 599.579 -7.27596e-12 -134.605 -599.579 -31404.9 99.1683 277.553 -7030.24 -99.1683 -277.553 -11587.8 27.3163 68.5433 -5147.53 -27.3163 -68.5433 -3046.51 154.927 -88.6281 0 -154.927 88.6281 -31264.1 104.16 52.9989 -7924.08 -104.16 -52.9989 -11380.8 12.25 44.2067 -3004.05 -12.25 -44.2067 -685.616
131.313 606.921 1.45519e-11 -131.313 -606.921 -30752.2 113.669 279.919 -8388.05 -113.669 -279.919 -12931 23.5107 66.4207 -4323.51 -23.5107 -66.4207 -2733.48 151.761 -95.9704 1.09139e-11 -151.761 95.9704 -30571.4 119.486 50.6322 -9353.66 -119.486 -50.6322 -12784.7 8.43938 46.3293 -2164.93 -8.43938 -46.3293 -393.602
127.777 614.697 4.72937e-11 -127.777 -614.697 -30049 128.672 282.712 -9791.13 -128.672 -282.712 -14323.1 19.5614 64.535 -3501.27 -19.5614 -64.535 -2376.96 148.376 -103.746 3.63798e-12 -148.376 103.746 -29832.3 135.155 47.8391 -10825.9 -135.155 -47.8391 -14208.4 4.87939 48.215 -1339.1 -4.87939 -48.215 -162.01
124.186 622.661 2.91038e-11 -124.186 -622.661 -29334.1 143.682 285.759 -11196.7 -143.682 -285.759 -15714.4 15.7066 62.8269 -2698.98 -15.7066 -62.8269 -2029.18 144.939 -111.71 3.63798e-12 -144.939 111.71 -29081.9 150.772 44.792 -12297.3 -150.772 -44.792 -15622.5 1.51562 49.9231 -539.716 -1.51562 -49.9231 38.206
120.71 630.677 -3.63798e-12 -120.71 -630.677 -28643.6 158.198 289.009 -12561.3 -158.198 -289.009 -17055.8 12.1902 61.2914 -1935.53 -12.1902 -61.2914 -1743.51 141.62 -119.726 -1.81899e-11 -141.62 119.726 -28356.2 165.875 41.5427 -13721.8 -165.875 -41.5427 -16987.9 -1.49734 51.4586 202.734 1.49734 -51.4586 191.519
117.494 638.463 7.27596e-12 -117.494 -638.463 -28006.8 171.781 292.252 -13841.2 -171.781 -292.252 -18308.7 9.08875 59.9207 -1229.49 -9.08875 -59.9207 -1524.09 138.565 -127.512 -2.18279e-11 -138.565 127.512 -27686.1 180.076 38.2991 -15059.8 -180.076 -38.2991 -18272.4 -4.27174 52.8293 887.579 4.27174 -52.8293 331.738
114.639 645.707 4.00178e-11 -114.639 -645.707 -27443.6 184.096 295.287 -15000.9 -184.096 -295.287 -19446.2 6.3347 58.7241 -595.92 -6.3347 -58.7241 -1335.97 135.872 -134.756 -1.09139e-11 -135.872 134.756 -27093.6 192.935 35.2641 -16271.4 -192.935 -35.2641 -19435 -6.66514 54.0259 1494.98 6.66514 -54.0259 436.363
112.199 652.027 -3.63798e-12 -112.199 -652.027 -26962.9 194.863 297.877 -16011.7 -194.863 -297.877 -20443.6 3.8591 57.6607 -45.394 -3.8591 -57.6607 -1148.25 133.578 -141.076 0 -133.578 141.076 -26588.4 204.153 32.6742 -17327.9 -204.153 -32.6742 -20449.6 -8.83048 55.0893 2033.08 8.83048 -55.0893 542.478
110.185 657.209 0 -110.185 -657.209 -26565.9 203.807 299.948 -16850.6 -203.807 -299.948 -21273.2 1.6939 56.7536 413.971 -1.6939 -56.7536 -962.291 131.676 -146.259 -2.18279e-11 -131.676 146.259 -26169.9 213.477 30.6032 -18204.9 -213.477 -30.6032 -21293.8 -10.6759 55.9964 2484.2 10.6759 -55.9964 640.419
108.586 661.143 -1.09139e-11 -108.586 -661.143 -26248.8 210.703 301.546 -17498.7 -210.703 -301.546 -21911.5 -0.0194465 56.0453 770.165 0.0194465 -56.0453 -807.982 130.152 -150.192 -1.45519e-11 -130.152 150.192 -25836.4 220.659 29.0057 -18881.6 -220.659 -29.0057 -21942.8 -12.1032 56.7047 2832.12 12.1032 -56.7047 717.223
107.389 663.698 2.18279e-11 -107.389 -663.698 -26007.7 215.375 302.655 -17941.4 -215.375 -302.655 -22340.2 -1.13672 55.5747 1010.36 1.13672 -55.5747 -715.213 128.979 -152.747 -3.63798e-12 -128.979 152.747 -25582.8 225.538 27.8965 -19343.4 -225.538 -27.8965 -22381.5 -13.0457 57.1753 3063.83 13.0457 -57.1753 766.018
106.572 664.741 -2.18279e-11 -106.572 -664.741 -25837.1 217.735 303.239 -18170.5 -217.735 -303.239 -22551.2 -1.61936 55.3494 1126.97 1.61936 -55.3494 -687.837 128.129 -153.79 -1.45519e-11 -128.129 153.79 -25404.1 227.992 27.3124 -19580.4 -227.992 -27.3124 -22597.3 -13.483 57.4006 3175.15 13.483 -57.4006 784.886
106.1 664.136 3.63798e-12 -106.1 -664.136 -25728.5 217.742 303.233 -18181.3 -217.742 -303.233 -22541.1 -1.53224 55.3574 1120.45 1.53224 -55.3574 -707.101 127.562 -153.185 3.63798e-12 -127.562 153.185 -25293.1 227.989 27.3182 -19589.7 -227.989 -27.3182 -22587.5 -13.4506 57.3926 3168.98 13.4506 -57.3926 781.412
105.935 661.95 -3.63798e-12 -105.935 -661.95 -25673.6 215.405 302.736 -17974.6 -215.405 -302.736 -22311.1 -0.943717 55.6943 994.517 0.943717 -55.6943 -756.573 127.244 -150.999 -2.91038e-11 -127.244 150.999 -25242.4 225.532 27.8154 -19372.6 -225.532 -27.8154 -22351 -12.8731 57.0557 3039.61 12.8731 -57.0557 739.093
106.041 658.27 7.27596e-12 -106.041 -658.27 -25665.8 210.802 301.84 -17557.6 -210.802 -301.84 -21868.7 0.150319 56.3719 751.631 -0.150319 -56.3719 -839.926 127.154 -147.32 -7.27596e-12 -127.154 147.32 -25247.4 220.637 28.7114 -18933.2 -220.637 -28.7114 -21886.4 -11.6459 56.3781 2780.31 11.6459 -56.3781 633.618
106.412 653.142 0 -106.412 -653.142 -25704.1 204.031 300.524 -16940.5 -204.031 -300.524 -21222.1 1.80597 57.3586 393.993 -1.80597 -57.3586 -975.937 127.279 -142.191 2.18279e-11 -127.279 142.191 -25304.8 213.471 30.0274 -18285.1 -213.471 -30.0274 -21211.3 -9.88196 55.3914 2403.12 9.88196 -55.3914 486.532
107.058 646.695 -3.63798e-12 -107.058 -646.695 -25791.6 195.253 298.81 -16137.8 -195.253 -298.81 -20386.6 4.01768 58.6077 -70.8881 -4.01768 -58.6077 -1170.41 127.633 -135.745 3.63798e-11 -127.633 135.745 -25416.9 204.201 31.7415 -17442.8 -204.201 -31.7415 -20341.6 -7.62687 54.1423 1917.13 7.62687 -54.1423 302.306
107.989 639.127 -1.09139e-11 -107.989 -639.127 -25932.4 184.675 296.745 -15167.8 -184.675 -296.745 -19382.9 6.70138 60.0939 -630.115 -6.70138 -60.0939 -1411.32 128.244 -128.176 1.45519e-11 -128.244 128.176 -25587.8 193.047 33.8062 -16425.8 -193.047 -33.8062 -19298.5 -4.92946 52.6561 1333.96 4.92946 -52.6561 83.9186
109.206 630.544 1.45519e-11 -109.206 -630.544 -26127.7 172.563 294.27 -14054.1 -172.563 -294.27 -18237.1 9.72145 61.6908 -1266.42 -9.72145 -61.6908 -1675.64 129.116 -119.593 -3.63798e-12 -129.116 119.593 -25818 180.305 36.282 -15260 -180.305 -36.282 -18111 -1.95254 51.0592 677.416 1.95254 -51.0592 -144.101
110.682 621.085 7.27596e-12 -110.682 -621.085 -26373 159.223 291.357 -12824.9 -159.223 -291.357 -16977.9 12.9587 63.3189 -1962.15 -12.9587 -63.3189 -1945.6 130.219 -110.134 -7.27596e-12 -130.219 110.134 -26100.1 166.352 39.1946 -13977.8 -166.352 -39.1946 -16816 1.11138 49.4311 -25.5117 -1.11138 -49.4311 -351.593
112.346 611.081 1.81899e-11 -112.346 -611.081 -26654.9 145.012 288.214 -11514 -145.012 -288.214 -15638.3 16.3457 65.0269 -2701.69 -16.3457 -65.0269 -2216.85 131.496 -100.13 -1.09139e-11 -131.496 100.13 -26421 151.501 42.3379 -12610.5 -151.501 -42.3379 -15439.8 4.33415 47.7231 -770.685 -4.33415 -47.7231 -563.851
114.1 600.819 -3.27418e-11 -114.1 -600.819 -26954.3 130.304 285.011 -10156.9 -130.304 -285.011 -14252.9 19.8629 66.8064 -3470.83 -19.8629 -66.8064 -2497.62 132.864 -89.8677 -1.09139e-11 -132.864 89.8677 -26762.2 136.109 45.5405 -11194.1 -136.109 -45.5405 -14012.4 7.71442 45.9436 -1547.09 -7.71442 -45.9436 -791.393
115.85 590.518 3.63798e-12 -115.85 -590.518 -27252.4 115.474 281.836 -8790.12 -115.474 -281.836 -12854.9 23.4864 68.6214 -4254.04 -23.4864 -68.6214 -2796.27 134.224 -79.5669 1.45519e-11 -134.224 79.5669 -27101.9 120.617 48.716 -9768.9 -120.617 -48.716 -12574.7 11.1448 44.1286 -2335.5 -11.1448 -44.1286 -1021.55
117.51 580.42 1.81899e-11 -117.51 -580.42 -27532.6 100.916 278.796 -7451.28 -100.916 -278.796 -11480.3 27.1279 70.4249 -5032.5 -27.1279 -70.4249 -3105.2 135.497 -69.4693 -1.09139e-11 -135.497 69.4693 -27422.6 105.419 51.7554 -8372.36 -105.419 -51.7554 -11161.9 14.5561 42.3251 -3118.04 -14.5561 -42.3251 -1251.64
119.013 570.763 2.54659e-11 -119.013 -570.763 -27782.1 87.0086 275.976 -6175.49 -87.0086 -275.976 -10164.4 30.6617 72.1799 -5786.43 -30.6617 -72.1799 -3406.83 136.622 -59.8121 -3.63798e-12 -136.622 59.8121 -27710.3 90.9085 54.5757 -7041.27 -90.9085 -54.5757 -9810.54 17.8608 40.5701 -3875.42 -17.8608 -40.5701 -1475.02
120.305 561.782 -2.54659e-11 -120.305 -561.782 -27991.2 74.1039 273.455 -4995.01 -74.1039 -273.455 -8940.49 33.976 73.8517 -6497.83 -33.976 -73.8517 -3685.84 137.554 -50.8313 -3.63798e-12 -137.554 50.8313 -27954.7 77.4469 57.0968 -5809.32 -77.4469 -57.0968 -8553.37 20.9867 38.8983 -4590.01 -20.9867 -38.8983 -1687.86
121.348 553.705 1.09139e-11 -121.348 -553.705 -28153.6 62.519 271.309 -3938.96 -62.519 -271.309 -7838.38 37.0058 75.4067 -7151.73 -37.0058 -75.4067 -3937.72 138.266 -42.7543 0 -138.266 42.7543 -28148.5 65.3582 59.2425 -4706.69 -65.3582 -59.2425 -7420.35 23.8686 37.3433 -5246.32 -23.8686 -37.3433 -1886.42
