-2.84844e-06 -1.47991e-06 4.558e-07 -1.73255e-05 -2.13005e-06 4.21136e-07 -4.30329e-06 -4.08593e-07 -6.36534e-11
-2.83301e-06 -1.47007e-06 4.55215e-07 -1.73268e-05 -2.1319e-06 4.21223e-07 -4.30175e-06 -4.08253e-07 -6.72967e-11
-2.79205e-06 -1.44704e-06 4.53863e-07 -1.73301e-05 -2.13642e-06 4.21419e-07 -4.29438e-06 -4.07173e-07 -7.57562e-11
-2.70246e-06 -1.3995e-06 4.51072e-07 -1.73244e-05 -2.14425e-06 4.21767e-07 -4.28573e-06 -4.05795e-07 -8.67431e-11
-2.59345e-06 -1.34532e-06 4.47896e-07 -1.73179e-05 -2.15195e-06 4.22109e-07 -4.2803e-06 -4.0488e-07 -9.34577e-11
-2.44485e-06 -1.27536e-06 4.43803e-07 -1.73104e-05 -2.16008e-06 4.22474e-07 -4.28054e-06 -4.04744e-07 -9.36837e-11
-2.2486e-06 -1.18825e-06 4.38719e-07 -1.72985e-05 -2.16771e-06 4.22819e-07 -4.28887e-06 -4.05836e-07 -8.30475e-11
-1.99553e-06 -1.08249e-06 4.32562e-07 -1.72772e-05 -2.17362e-06 4.23095e-07 -4.30932e-06 -4.08771e-07 -5.61912e-11
-1.67603e-06 -9.56457e-07 4.25242e-07 -1.72444e-05 -2.17655e-06 4.23247e-07 -4.34633e-06 -4.14174e-07 -7.86181e-12
-1.2796e-06 -8.08368e-07 4.16665e-07 -1.71994e-05 -2.17513e-06 4.23216e-07 -4.40418e-06 -4.22653e-07 6.69532e-11
-7.95264e-07 -6.36591e-07 4.06742e-07 -1.71392e-05 -2.16777e-06 4.22934e-07 -4.48638e-06 -4.34768e-07 1.73031e-10
-2.12413e-07 -4.4004e-07 3.95418e-07 -1.70594e-05 -2.15267e-06 4.22325e-07 -4.59567e-06 -4.51007e-07 3.14735e-10
4.71964e-07 -2.19631e-07 3.82735e-07 -1.69553e-05 -2.12779e-06 4.213e-07 -4.73457e-06 -4.71788e-07 4.9573e-10
1.25361e-06 2.04815e-08 3.6888e-07 -1.68274e-05 -2.09159e-06 4.19782e-07 -4.90211e-06 -4.9707e-07 7.16521e-10
1.74326e-06 3.09468e-07 3.53941e-07 -1.6664e-05 -2.04027e-06 4.17625e-07 -5.10485e-06 -5.27643e-07 9.8185e-10
2.31908e-06 6.13575e-07 3.38268e-07 -1.64663e-05 -1.97147e-06 4.14718e-07 -5.33856e-06 -5.63097e-07 1.28921e-09
2.99057e-06 9.25111e-07 3.22269e-07 -1.6229e-05 -1.88243e-06 4.10946e-07 -5.6004e-06 -6.03065e-07 1.63479e-09
3.76257e-06 1.23536e-06 3.06404e-07 -1.59471e-05 -1.77077e-06 4.06209e-07 -5.88329e-06 -6.46582e-07 2.01008e-09
4.62894e-06 1.53532e-06 2.9115e-07 -1.56179e-05 -1.63492e-06 4.00438e-07 -6.17665e-06 -6.9212e-07 2.40167e-09
5.58082e-06 1.81601e-06 2.76978e-07 -1.52397e-05 -1.4742e-06 3.93604e-07 -6.46439e-06 -7.37471e-07 2.79167e-09
6.60826e-06 2.06837e-06 2.64357e-07 -1.48116e-05 -1.28886e-06 3.8572e-07 -6.72914e-06 -7.79776e-07 3.15335e-09
7.69448e-06 2.28232e-06 2.5381e-07 -1.4333e-05 -1.08002e-06 3.76834e-07 -6.94485e-06 -8.15365e-07 3.45524e-09
8.81553e-06 2.44598e-06 2.45948e-07 -1.38051e-05 -8.49589e-07 3.67029e-07 -7.08165e-06 -8.40058e-07 3.6617e-09
9.94323e-06 2.54511e-06 2.41504e-07 -1.33712e-05 -5.90665e-07 3.56424e-07 -7.10802e-06 -8.49274e-07 3.73314e-09
1.10439e-05 2.56312e-06 2.4133e-07 -1.33372e-05 -2.85422e-07 3.45161e-07 -6.99223e-06 -8.38202e-07 3.62717e-09
1.20766e-05 2.48235e-06 2.46326e-07 -1.33074e-05 2.98421e-08 3.33496e-07 -6.70158e-06 -8.0184e-07 3.29922e-09
1.29949e-05 2.28856e-06 2.57215e-07 -1.32666e-05 3.48442e-07 3.21689e-07 -6.19724e-06 -7.34861e-07 2.70748e-09
1.37454e-05 1.97559e-06 2.74281e-07 -1.3196e-05 6.62254e-07 3.10079e-07 -5.43614e-06 -6.30371e-07 1.78999e-09
1.4276e-05 1.55049e-06 2.97122e-07 -1.30952e-05 9.55995e-07 2.99226e-07 -4.37369e-06 -4.81668e-07 4.89762e-10
1.4531e-05 1.03125e-06 3.24749e-07 -1.29456e-05 1.2127e-06 2.89766e-07 -2.97205e-06 -2.83023e-07 -1.24364e-09
1.39985e-05 4.73542e-07 3.55893e-07 -1.27218e-05 1.41439e-06 2.82365e-07 -1.41317e-06 -6.84989e-09 -3.44206e-09
1.25556e-05 -1.05935e-07 3.8959e-07 -1.24102e-05 1.54314e-06 2.77669e-07 2.86303e-07 3.62303e-07 -6.15292e-09
1.07174e-05 -7.11309e-07 4.24425e-07 -1.1991e-05 1.58723e-06 2.76144e-07 2.29644e-06 8.02909e-07 -9.37946e-09
8.46211e-06 -1.32872e-06 4.59531e-07 -1.14711e-05 1.53646e-06 2.78163e-07 4.59793e-06 1.31196e-06 -1.31014e-08
5.80958e-06 -1.94557e-06 4.94201e-07 -1.08602e-05 1.38501e-06 2.83938e-07 7.16965e-06 1.8841e-06 -1.72774e-08
2.81338e-06 -2.55689e-06 5.28239e-07 -1.01609e-05 1.13191e-06 2.93515e-07 9.96814e-06 2.5093e-06 -2.18346e-08
-5.55256e-07 -3.15827e-06 5.61346e-07 -9.38394e-06 7.80037e-07 3.06794e-07 1.29339e-05 3.17448e-06 -2.66789e-08
-4.23387e-06 -3.75055e-06 5.93586e-07 -8.56968e-06 3.36788e-07 3.23455e-07 1.59948e-05 3.86297e-06 -3.16848e-08
-8.13082e-06 -4.33169e-06 6.24879e-07 -7.75001e-06 -1.88534e-07 3.43153e-07 1.90555e-05 4.55495e-06 -3.67127e-08
-1.21998e-05 -4.90195e-06 6.55294e-07 -8.01618e-06 -7.17694e-07 3.6555e-07 2.20088e-05 5.22675e-06 -4.15947e-08
-1.63902e-05 -5.45949e-06 6.84814e-07 -8.60287e-06 -1.27977e-06 3.89887e-07 2.47811e-05 5.85969e-06 -4.61863e-08
-2.06069e-05 -6.00072e-06 7.1331e-07 -9.34903e-06 -1.87622e-06 4.15634e-07 2.72612e-05 6.42947e-06 -5.03148e-08
-2.47492e-05 -6.51835e-06 7.40431e-07 -1.02523e-05 -2.49324e-06 4.42199e-07 2.9348e-05 6.91374e-06 -5.3818e-08
-2.87258e-05 -7.00073e-06 7.65579e-07 -1.13095e-05 -3.11834e-06 4.69027e-07 3.09459e-05 7.29104e-06 -5.65399e-08
-3.24407e-05 -7.43435e-06 7.88041e-07 -1.25107e-05 -3.73925e-06 4.95581e-07 3.19697e-05 7.54187e-06 -5.83375e-08
-3.57955e-05 -7.80837e-06 8.07257e-07 -1.38383e-05 -4.34396e-06 5.21365e-07 3.23418e-05 7.64838e-06 -5.90805e-08
-3.8721e-05 -8.12041e-06 8.2317e-07 -1.52865e-05 -4.91933e-06 5.45862e-07 3.19957e-05 7.59383e-06 -5.86405e-08
-4.11749e-05 -8.37778e-06 8.36264e-07 -1.68892e-05 -5.45184e-06 5.68382e-07 3.08648e-05 7.36665e-06 -5.6948e-08
-4.31268e-05 -8.59798e-06 8.4763e-07 -1.85927e-05 -5.92654e-06 5.8829e-07 2.89173e-05 6.95732e-06 -5.39282e-08
-4.45937e-05 -8.8082e-06 8.58917e-07 -2.03626e-05 -6.32991e-06 6.04997e-07 2.61335e-05 6.36055e-06 -4.95424e-08
-4.58323e-05 -9.11223e-06 8.76205e-07 -2.2676e-05 -6.71724e-06 6.20657e-07 2.14742e-05 5.35075e-06 -4.21416e-08
-4.65622e-05 -9.53817e-06 9.01505e-07 -2.51213e-05 -6.96207e-06 6.29966e-07 1.55515e-05 4.05882e-06 -3.2695e-08
-4.70064e-05 -1.01646e-05 9.39376e-07 -2.76716e-05 -7.06268e-06 6.32861e-07 8.49115e-06 2.51161e-06 -2.13987e-08
-4.74299e-05 -1.10519e-05 9.93235e-07 -3.03072e-05 -7.03481e-06 6.30039e-07 4.88412e-07 7.52078e-07 -8.56406e-09
-4.81049e-05 -1.22322e-05 1.06475e-06 -3.30546e-05 -6.91508e-06 6.23093e-07 -9.58849e-06 -1.03144e-06 5.5321e-09
-4.92998e-05 -1.3704e-05 1.15355e-06 -3.59528e-05 -6.75665e-06 6.14377e-07 -2.14159e-05 -2.74372e-06 2.03087e-08
-5.12568e-05 -1.54281e-05 1.25698e-06 -3.90217e-05 -6.62901e-06 6.06916e-07 -3.33209e-05 -4.45998e-06 3.51013e-08
-5.41683e-05 -1.73324e-05 1.37043e-06 -4.2275e-05 -6.6103e-06 6.04142e-07 -4.47787e-05 -6.11207e-06 4.93444e-08
-5.81791e-05 -1.93304e-05 1.48845e-06 -4.5764e-05 -6.77944e-06 6.09505e-07 -5.53164e-05 -7.63076e-06 6.24572e-08
-6.34127e-05 -2.13486e-05 1.60641e-06 -4.95329e-05 -7.20321e-06 6.25922e-07 -6.46281e-05 -8.96687e-06 7.40001e-08
-6.9973e-05 -2.33424e-05 1.72144e-06 -5.35977e-05 -7.92764e-06 6.55411e-07 -7.24772e-05 -1.00827e-05 8.36493e-08
-7.79248e-05 -2.5294e-05 1.83238e-06 -5.79737e-05 -8.97597e-06 6.98987e-07 -7.8716e-05 -1.09594e-05 9.12488e-08
-8.72696e-05 -2.7203e-05 1.93918e-06 -6.26755e-05 -1.03489e-05 7.56685e-07 -8.33363e-05 -1.15976e-05 9.68076e-08
-9.79303e-05 -2.90778e-05 2.04244e-06 -6.76976e-05 -1.20264e-05 8.27627e-07 -8.64872e-05 -1.20183e-05 1.00503e-07
-0.000109743 -3.09256e-05 2.14275e-06 -7.30135e-05 -1.39708e-05 9.10168e-07 -8.84455e-05 -1.22602e-05 1.02664e-07
-0.000122446 -3.27412e-05 2.24011e-06 -7.8594e-05 -1.61321e-05 1.00212e-06 -8.9555e-05 -1.23746e-05 1.03732e-07
-0.000135698 -3.45076e-05 2.33384e-06 -8.44031e-05 -1.84506e-05 1.10088e-06 -9.0228e-05 -1.24235e-05 1.04244e-07
-0.000149116 -3.62098e-05 2.42345e-06 -9.03899e-05 -2.08573e-05 1.20342e-06 -9.09355e-05 -1.24766e-05 1.048e-07
-0.00016232 -3.78465e-05 2.50927e-06 -9.64975e-05 -2.32755e-05 1.3064e-06 -9.21873e-05 -1.2608e-05 1.06035e-07
-0.000174955 -3.94302e-05 2.59247e-06 -0.000102674 -2.56258e-05 1.40634e-06 -9.44751e-05 -1.28901e-05 1.08569e-07
-0.000186695 -4.09762e-05 2.67432e-06 -0.00010887 -2.78331e-05 1.49998e-06 -9.82367e-05 -1.33882e-05 1.12964e-07
-0.000197244 -4.24866e-05 2.75531e-06 -0.000115033 -2.98342e-05 1.58454e-06 -0.000103828 -1.41554e-05 1.19676e-07
-0.000206331 -4.39418e-05 2.83453e-06 -0.000121111 -3.15831e-05 1.65803e-06 -0.000111503 -1.52288e-05 1.29023e-07
-0.000213744 -4.53115e-05 2.91036e-06 -0.000127058 -3.30508e-05 1.71918e-06 -0.000121392 -1.66277e-05 1.41172e-07
-0.00021936 -4.65695e-05 2.98136e-06 -0.000132831 -3.42227e-05 1.7674e-06 -0.000133496 -1.83526e-05 1.56126e-07
-0.000223155 -4.7698e-05 3.04645e-06 -0.000138398 -3.5099e-05 1.80268e-06 -0.000147689 -2.03856e-05 1.73731e-07
-0.000225198 -4.86885e-05 3.10503e-06 -0.000143729 -3.56926e-05 1.82563e-06 -0.000163728 -2.26912e-05 1.93683e-07
-0.000225648 -4.95415e-05 3.15697e-06 -0.000148797 -3.60286e-05 1.83737e-06 -0.000181262 -2.52182e-05 2.15539e-07
-0.000224741 -5.02675e-05 3.20263e-06 -0.000153575 -3.61417e-05 1.83944e-06 -0.000199847 -2.79016e-05 2.38737e-07
-0.000222776 -5.0884e-05 3.24276e-06 -0.000158047 -3.6075e-05 1.83377e-06 -0.000218965 -3.06657e-05 2.62628e-07
-0.000220091 -5.14117e-05 3.27825e-06 -0.000162196 -3.58777e-05 1.82253e-06 -0.00023805 -3.34279e-05 2.86497e-07
-0.000217046 -5.18732e-05 3.31007e-06 -0.000166008 -3.56024e-05 1.80805e-06 -0.000256516 -3.6102e-05 3.09603e-07
-0.000214009 -5.22953e-05 3.33948e-06 -0.000169471 -3.53014e-05 1.79265e-06 -0.00027378 -3.8603e-05 3.31211e-07
-0.000211345 -5.27128e-05 3.36819e-06 -0.000172574 -3.50233e-05 1.77848e-06 -0.000289295 -4.08508e-05 3.50631e-07
-0.000209405 -5.3167e-05 3.39832e-06 -0.000175315 -3.48106e-05 1.76741e-06 -0.000302574 -4.27739e-05 3.67246e-07
-0.000208495 -5.36968e-05 3.43194e-06 -0.000177693 -3.46995e-05 1.76105e-06 -0.000313205 -4.43121e-05 3.80537e-07
-0.000208844 -5.43229e-05 3.47004e-06 -0.000179711 -3.47211e-05 1.76078e-06 -0.000320868 -4.54184e-05 3.90095e-07
-0.000210567 -5.50337e-05 3.51179e-06 -0.000181376 -3.49032e-05 1.7678e-06 -0.000325341 -4.60602e-05 3.95642e-07
-0.000213656 -5.5785e-05 3.55451e-06 -0.000182691 -3.52674e-05 1.78308e-06 -0.000326516 -4.62214e-05 3.97041e-07
-0.000217994 -5.65145e-05 3.59448e-06 -0.00018366 -3.58245e-05 1.80708e-06 -0.000324414 -4.59051e-05 3.94319e-07
-0.000222225 -5.70371e-05 3.62187e-06 -0.000184187 -3.6407e-05 1.83247e-06 -0.000320475 -4.53231e-05 3.89304e-07
-0.000228229 -5.7562e-05 3.64744e-06 -0.000184537 -3.72889e-05 1.87118e-06 -0.000312967 -4.42191e-05 3.7979e-07
-0.000234708 -5.78972e-05 3.66083e-06 -0.000184539 -3.83063e-05 1.91607e-06 -0.000302968 -4.27525e-05 3.67149e-07
-0.000241273 -5.80057e-05 3.66019e-06 -0.000184179 -3.94044e-05 1.96475e-06 -0.000290991 -4.09987e-05 3.52034e-07
-0.000247483 -5.78561e-05 3.6441e-06 -0.000183442 -4.05155e-05 2.01423e-06 -0.000277634 -3.90455e-05 3.35198e-07
-0.000252854 -5.74156e-05 3.61107e-06 -0.000182306 -4.15645e-05 2.06122e-06 -0.000263541 -3.69878e-05 3.1746e-07
-0.000256884 -5.66524e-05 3.55973e-06 -0.000180736 -4.24717e-05 2.10223e-06 -0.000249375 -3.49228e-05 2.99658e-07
-0.000259081 -5.55361e-05 3.48875e-06 -0.000178699 -4.31577e-05 2.13375e-06 -0.000235775 -3.29446e-05 2.82602e-07
-0.000258978 -5.40372e-05 3.39686e-06 -0.000176159 -4.35477e-05 2.15252e-06 -0.000223325 -3.11391e-05 2.67032e-07
-0.000256164 -5.21306e-05 3.28297e-06 -0.000173076 -4.35745e-05 2.1556e-06 -0.000212522 -2.95793e-05 2.53574e-07
-0.000250308 -4.97978e-05 3.14633e-06 -0.000169407 -4.3182e-05 2.14052e-06 -0.000203744 -2.83213e-05 2.42712e-07
-0.00024117 -4.70271e-05 2.98649e-06 -0.000165112 -4.23274e-05 2.10542e-06 -0.000197233 -2.74007e-05 2.34751e-07
-0.000228624 -4.38179e-05 2.80356e-06 -0.00016015 -4.09833e-05 2.04912e-06 -0.00019308 -2.68309e-05 2.29807e-07
-0.000212678 -4.01918e-05 2.59887e-06 -0.000154478 -3.91361e-05 1.97104e-06 -0.000191215 -2.66024e-05 2.27795e-07
-0.000193505 -3.62045e-05 2.37562e-06 -0.000148056 -3.67849e-05 1.87116e-06 -0.000191415 -2.66827e-05 2.28435e-07
-0.000171434 -3.19395e-05 2.13856e-06 -0.000140858 -3.39436e-05 1.75013e-06 -0.000193304 -2.70169e-05 2.3125e-07
-0.000146911 -2.74848e-05 1.89258e-06 -0.000132869 -3.06459e-05 1.60945e-06 -0.000196353 -2.75279e-05 2.35572e-07
-0.000120472 -2.29225e-05 1.64214e-06 -0.000124078 -2.6946e-05 1.45152e-06 -0.000199897 -2.81184e-05 2.40562e-07
-9.27288e-05 -1.83325e-05 1.39144e-06 -0.000114478 -2.29158e-05 1.27951e-06 -0.000203166 -2.86756e-05 2.45249e-07
-6.43618e-05 -1.37938e-05 1.14457e-06 -0.000104091 -1.86414e-05 1.09721e-06 -0.000205322 -2.90765e-05 2.4857e-07
-3.60853e-05 -9.38174e-06 9.05349e-07 -9.29547e-05 -1.42192e-05 9.08876e-07 -0.000205498 -2.91937e-05 2.49427e-07
-8.61294e-06 -5.16184e-06 6.77003e-07 -8.11203e-05 -9.75319e-06 7.19041e-07 -0.000202837 -2.89013e-05 2.46736e-07
1.74558e-05 -1.18321e-06 4.62269e-07 -6.86251e-05 -5.35233e-06 5.32575e-07 -0.000196537 -2.80809e-05 2.39474e-07
3.91299e-05 2.62664e-06 2.63328e-07 -5.89636e-05 -8.91287e-07 3.5494e-07 -0.000185866 -2.6631e-05 2.26823e-07
5.56146e-05 6.36135e-06 7.73233e-08 -5.3973e-05 3.56802e-06 1.91196e-07 -0.00017044 -2.4481e-05 2.08069e-07
6.95954e-05 9.84501e-06 -9.72674e-08 -4.76395e-05 7.61499e-06 4.30212e-08 -0.000149737 -2.15643e-05 1.82711e-07
8.058e-05 1.30731e-05 -2.60338e-07 -3.98065e-05 1.11807e-05 -8.71298e-08 -0.000123584 -1.78556e-05 1.50551e-07
8.86163e-05 1.60148e-05 -4.1043e-07 -3.07587e-05 1.42425e-05 -1.98152e-07 -9.21856e-05 -1.33769e-05 1.11732e-07
9.37405e-05 1.86341e-05 -5.45595e-07 -2.06914e-05 1.67928e-05 -2.89851e-07 -5.58245e-05 -8.17095e-06 6.66391e-08
9.60247e-05 2.09132e-05 -6.64767e-07 -9.57469e-06 1.88547e-05 -3.63173e-07 -1.50599e-05 -2.32269e-06 1.60166e-08
9.58084e-05 2.28794e-05 -7.69188e-07 2.40088e-06 2.04585e-05 -4.19308e-07 2.30366e-05 4.67869e-06 -3.84134e-08
9.34818e-05 2.45967e-05 -8.6197e-07 1.48868e-05 2.16586e-05 -4.60262e-07 5.90348e-05 1.25717e-05 -9.61497e-08
8.95042e-05 2.61517e-05 -9.47312e-07 2.77008e-05 2.25159e-05 -4.88424e-07 9.64723e-05 2.07715e-05 -1.56057e-07
8.4453e-05 2.76329e-05 -1.02951e-06 4.06753e-05 2.31115e-05 -5.06863e-07 0.000134397 2.90647e-05 -2.16615e-07
7.89376e-05 2.91319e-05 -1.11297e-06 5.34793e-05 2.35345e-05 -5.18943e-07 0.000171812 3.72423e-05 -2.7631e-07
7.35855e-05 3.07475e-05 -1.20245e-06 6.57788e-05 2.38764e-05 -5.28153e-07 0.00020765 4.50958e-05 -3.33636e-07
6.90379e-05 3.25801e-05 -1.3028e-06 7.73587e-05 2.42337e-05 -5.38134e-07 0.000241058 5.24174e-05 -3.87083e-07
6.59079e-05 3.47239e-05 -1.41855e-06 8.79952e-05 2.46992e-05 -5.52416e-07 0.000271286 5.90243e-05 -4.35298e-07
6.47548e-05 3.7253e-05 -1.55321e-06 9.74328e-05 2.53617e-05 -5.74352e-07 0.000297549 6.47441e-05 -4.77037e-07
6.60684e-05 4.02054e-05 -1.70843e-06 0.000105466 2.63057e-05 -6.07127e-07 0.000319118 6.94307e-05 -5.11253e-07
7.02317e-05 4.3569e-05 -1.8833e-06 0.000111951 2.76087e-05 -6.53678e-07 0.000335518 7.29746e-05 -5.37148e-07
7.74941e-05 4.72825e-05 -2.07443e-06 0.000116766 2.93363e-05 -7.16456e-07 0.000346464 7.53043e-05 -5.54201e-07
8.79517e-05 5.12557e-05 -2.27696e-06 0.000119819 3.15315e-05 -7.97072e-07 0.00035185 7.63928e-05 -5.6222e-07
0.00010153 5.53909e-05 -2.48582e-06 0.000121104 3.42072e-05 -8.95993e-07 0.000351735 7.62595e-05 -5.61356e-07
0.000117982 5.9596e-05 -2.69631e-06 0.000120714 3.73412e-05 -1.01238e-06 0.000346421 7.49743e-05 -5.52118e-07
0.000136892 6.37925e-05 -2.90459e-06 0.000118801 4.08748e-05 -1.14399e-06 0.000336452 7.26556e-05 -5.35365e-07
0.000157696 6.79161e-05 -3.10765e-06 0.000115576 4.47151e-05 -1.28733e-06 0.000322559 6.94643e-05 -5.12264e-07
0.000179707 7.19153e-05 -3.30328e-06 0.000111315 4.87411e-05 -1.43783e-06 0.000305603 6.55954e-05 -4.84231e-07
0.000202155 7.57509e-05 -3.48994e-06 0.000106338 5.28107e-05 -1.59013e-06 0.000286556 6.12688e-05 -4.52865e-07
0.000224227 7.93905e-05 -3.6665e-06 0.00010098 5.67704e-05 -1.73844e-06 0.000266465 5.6719e-05 -4.19865e-07
0.000245111 8.27987e-05 -3.83165e-06 9.55729e-05 6.04667e-05 -1.877e-06 0.000246388 5.2182e-05 -3.86942e-07
0.000264039 8.59333e-05 -3.98373e-06 9.04299e-05 6.37566e-05 -2.0004e-06 0.000227331 4.78829e-05 -3.55733e-07
0.000280324 8.87508e-05 -4.12091e-06 8.58306e-05 6.65138e-05 -2.1039e-06 0.000210197 4.40257e-05 -3.27718e-07
0.000293398 9.12121e-05 -4.24154e-06 8.20104e-05 6.86355e-05 -2.18362e-06 0.000195761 4.07841e-05 -3.04163e-07
0.000299683 9.31076e-05 -4.32632e-06 7.94236e-05 7.0035e-05 -2.2357e-06 0.000184652 3.83022e-05 -2.86132e-07
0.000305088 9.45476e-05 -4.36542e-06 7.99723e-05 7.053e-05 -2.24903e-06 0.00017713 3.67137e-05 -2.74955e-07
0.000310126 9.55199e-05 -4.39216e-06 8.1862e-05 7.03841e-05 -2.23755e-06 0.000173363 3.59497e-05 -2.69808e-07
0.000303945 9.60952e-05 -4.4096e-06 8.2596e-05 6.9521e-05 -2.20435e-06 0.000173929 3.607e-05 -2.70643e-07
0.000296653 9.63301e-05 -4.41784e-06 8.44805e-05 6.80488e-05 -2.14849e-06 0.000177594 3.69608e-05 -2.77132e-07
0.000288863 9.571e-05 -4.39813e-06 8.78495e-05 6.61287e-05 -2.07432e-06 0.000184184 3.8541e-05 -2.88724e-07
0.000276526 9.32656e-05 -4.28209e-06 9.08436e-05 6.41724e-05 -1.99882e-06 0.000192946 4.0568e-05 -3.03683e-07
0.000261302 9.06118e-05 -4.15436e-06 9.27575e-05 6.16292e-05 -1.9043e-06 0.000204955 4.32284e-05 -3.2282e-07
0.000246765 8.76265e-05 -4.01278e-06 9.68131e-05 5.88841e-05 -1.80014e-06 0.000217515 4.6126e-05 -3.44005e-07
0.000230178 8.444e-05 -3.86091e-06 0.000100908 5.59112e-05 -1.68806e-06 0.000231094 4.92433e-05 -3.66658e-07
0.000212434 8.11523e-05 -3.70411e-06 0.000104426 5.28281e-05 -1.57192e-06 0.000244796 5.2375e-05 -3.89433e-07
0.00019582 7.79046e-05 -3.54996e-06 0.000107855 4.97485e-05 -1.4556e-06 0.000257854 5.53495e-05 -4.11078e-07
0.000179629 7.48098e-05 -3.40296e-06 0.000111109 4.67675e-05 -1.34326e-06 0.000269475 5.80062e-05 -4.30373e-07
0.000164643 7.19849e-05 -3.26877e-06 0.00011369 4.39778e-05 -1.23834e-06 0.000278856 6.01845e-05 -4.46191e-07
0.000151902 6.95338e-05 -3.15268e-06 0.000115328 4.14683e-05 -1.14397e-06 0.000285488 6.17514e-05 -4.57574e-07
0.000141512 6.75465e-05 -3.05875e-06 0.000116019 3.93141e-05 -1.06317e-06 0.000289009 6.26012e-05 -4.63713e-07
0.00013384 6.60944e-05 -2.99041e-06 0.000115769 3.75785e-05 -9.98379e-07 0.00028897 6.2648e-05 -4.63988e-07
0.000129366 6.52295e-05 -2.9503e-06 0.000114415 3.63081e-05 -9.51229e-07 0.000285038 6.18377e-05 -4.58036e-07
0.000128108 6.49796e-05 -2.93966e-06 0.000111863 3.55306e-05 -9.22809e-07 0.000277205 6.01573e-05 -4.45754e-07
0.000130098 6.53503e-05 -2.95871e-06 0.000108234 3.52594e-05 -9.13627e-07 0.000265651 5.76303e-05 -4.27298e-07
0.000135299 6.63233e-05 -3.00657e-06 0.000103643 3.54894e-05 -9.23464e-07 0.000250607 5.43121e-05 -4.03074e-07
0.000143489 6.78091e-05 -3.07868e-06 9.81292e-05 3.62046e-05 -9.51723e-07 0.000232418 5.02902e-05 -3.73729e-07
0.000154165 6.93495e-05 -3.15256e-06 9.18808e-05 3.74596e-05 -1.00005e-06 0.000211502 4.5659e-05 -3.39982e-07
0.000166921 7.08759e-05 -3.22402e-06 8.48051e-05 3.9168e-05 -1.06542e-06 0.000188658 4.05844e-05 -3.03027e-07
0.000181091 7.23011e-05 -3.28917e-06 7.73099e-05 4.1243e-05 -1.14444e-06 0.000164708 3.52497e-05 -2.64198e-07
0.000196047 7.35731e-05 -3.34569e-06 6.9772e-05 4.35597e-05 -1.23247e-06 0.000140558 2.98631e-05 -2.25e-07
0.000208031 7.44495e-05 -3.38344e-06 6.38763e-05 4.54945e-05 -1.30587e-06 0.000121719 2.56614e-05 -1.94436e-07
0.000219598 7.51794e-05 -3.41374e-06 5.82263e-05 4.74199e-05 -1.37882e-06 0.000103866 2.16782e-05 -1.6547e-07
0.000230375 7.57442e-05 -3.43589e-06 5.29962e-05 4.9262e-05 -1.44856e-06 8.74983e-05 1.80221e-05 -1.38888e-07
0.000239985 7.61251e-05 -3.44916e-06 4.83613e-05 5.09498e-05 -1.51241e-06 7.30688e-05 1.47945e-05 -1.15425e-07
0.000248081 7.63041e-05 -3.45284e-06 4.44502e-05 5.2418e-05 -1.56792e-06 6.0965e-05 1.20855e-05 -9.57346e-08
0.00025437 7.62645e-05 -3.44626e-06 4.13482e-05 5.36088e-05 -1.61291e-06 5.15155e-05 9.97182e-06 -8.03787e-08
0.000258615 7.5989e-05 -3.42867e-06 3.91265e-05 5.4475e-05 -1.64562e-06 4.49937e-05 8.51463e-06 -6.98012e-08
0.000260632 7.54568e-05 -3.39911e-06 3.78495e-05 5.49822e-05 -1.66476e-06 4.16019e-05 7.75713e-06 -6.43135e-08
0.0002603 7.46411e-05 -3.35625e-06 3.75525e-05 5.51101e-05 -1.66957e-06 4.14483e-05 7.72264e-06 -6.40832e-08
0.000257567 7.35106e-05 -3.29849e-06 3.82247e-05 5.48525e-05 -1.65982e-06 4.45388e-05 8.41387e-06 -6.91312e-08
0.000252444 7.20319e-05 -3.22405e-06 3.98169e-05 5.42161e-05 -1.63577e-06 5.07887e-05 9.81352e-06 -7.93339e-08
0.000245002 7.01768e-05 -3.13141e-06 4.22601e-05 5.32185e-05 -1.59808e-06 6.0037e-05 1.18858e-05 -9.44317e-08
0.000235368 6.79317e-05 -3.01975e-06 4.54733e-05 5.18851e-05 -1.54771e-06 7.20545e-05 1.45782e-05 -1.14042e-07
0.000223722 6.53026e-05 -2.88927e-06 4.93616e-05 5.0246e-05 -1.48581e-06 8.6543e-05 1.78233e-05 -1.37672e-07
0.000210293 6.23177e-05 -2.74129e-06 5.38151e-05 4.83348e-05 -1.41366e-06 0.00010314 2.15403e-05 -1.64734e-07
0.000195348 5.90239e-05 -2.57808e-06 5.87127e-05 4.61879e-05 -1.33263e-06 0.00012143 2.56372e-05 -1.94558e-07
0.000179188 5.54774e-05 -2.4024e-06 6.39271e-05 4.3845e-05 -1.24424e-06 0.000140957 3.00128e-05 -2.26405e-07
0.000162139 5.1734e-05 -2.21695e-06 6.93219e-05 4.13507e-05 -1.15019e-06 0.000161235 3.45579e-05 -2.59481e-07
0.000144537 4.78449e-05 -2.02421e-06 7.47471e-05 3.87533e-05 -1.05229e-06 0.000181753 3.91587e-05 -2.92955e-07
0.000126724 4.38573e-05 -1.82641e-06 8.00434e-05 3.6103e-05 -9.5247e-07 0.00020199 4.36986e-05 -3.25979e-07
0.00010904 3.98174e-05 -1.62576e-06 8.50524e-05 3.34495e-05 -8.52603e-07 0.000221426 4.80621e-05 -3.57713e-07
9.18105e-05 3.57714e-05 -1.42446e-06 8.96252e-05 3.08403e-05 -7.54495e-07 0.000239559 5.21374e-05 -3.87345e-07
7.53428e-05 3.17638e-05 -1.22463e-06 9.36249e-05 2.83191e-05 -6.59811e-07 0.000255915 5.58192e-05 -4.14107e-07
5.99136e-05 2.78346e-05 -1.02818e-06 9.69243e-05 2.59254e-05 -5.70049e-07 0.000270061 5.90111e-05 -4.37299e-07
4.57627e-05 2.40175e-05 -8.36725e-07 9.94075e-05 2.36927e-05 -4.86492e-07 0.000281613 6.16278e-05 -4.56299e-07
3.30864e-05 2.0341e-05 -6.51615e-07 0.000100975 2.1648e-05 -4.10165e-07 0.000290246 6.35969e-05 -4.70584e-07
2.20329e-05 1.68287e-05 -4.73994e-07 0.000101549 1.98102e-05 -3.41793e-07 0.0002957 6.48612e-05 -4.79734e-07
1.26986e-05 1.35002e-05 -3.04826e-07 0.000101077 1.81895e-05 -2.8177e-07 0.000297788 6.53792e-05 -4.83451e-07
5.12627e-06 1.03706e-05 -1.44872e-07 9.95293e-05 1.67871e-05 -2.30155e-07 0.000296398 6.51266e-05 -4.81555e-07
-6.94652e-07 7.45044e-06 5.30854e-09 9.68979e-05 1.55955e-05 -1.8667e-07 0.000291494 6.40959e-05 -4.73991e-07
-4.82729e-06 4.74537e-06 1.45371e-07 9.31983e-05 1.45987e-05 -1.50717e-07 0.000283118 6.22965e-05 -4.60828e-07
-7.38385e-06 2.25607e-06 2.752e-07 8.84692e-05 1.3773e-05 -1.21405e-07 0.000271382 5.97539e-05 -4.4225e-07
-8.63996e-06 -1.27975e-08 3.94873e-07 8.27706e-05 1.30878e-05 -9.75821e-08 0.000256467 5.65087e-05 -4.1855e-07
-1.17633e-05 -1.8608e-06 5.04621e-07 7.61795e-05 1.25062e-05 -7.78627e-08 0.000238616 5.26154e-05 -3.90124e-07
-1.23676e-05 -3.14611e-06 5.85209e-07 6.85864e-05 1.19239e-05 -5.88645e-08 0.000218171 4.81467e-05 -3.57471e-07
-1.19068e-05 -3.6864e-06 6.22633e-07 6.00909e-05 1.11214e-05 -3.34182e-08 0.000195979 4.32704e-05 -3.21656e-07
-1.01935e-05 -4.2211e-06 6.57704e-07 5.24532e-05 1.04912e-05 -1.20088e-08 0.000171106 3.78602e-05 -2.82185e-07
-7.68245e-06 -4.64813e-06 6.87426e-07 4.35613e-05 9.76117e-06 1.1885e-08 0.00014493 3.21327e-05 -2.40262e-07
-5.65333e-06 -5.01855e-06 7.14083e-07 3.40142e-05 9.00733e-06 3.68406e-08 0.000117403 2.61134e-05 -1.96262e-07
-3.52141e-06 -5.3553e-06 7.38807e-07 2.41885e-05 8.1721e-06 6.46171e-08 8.90423e-05 1.99055e-05 -1.50863e-07
-1.26397e-06 -5.7064e-06 7.63967e-07 1.45311e-05 7.24737e-06 9.57786e-08 6.01654e-05 1.35896e-05 -1.04664e-07
3.60569e-07 -6.12533e-06 7.92541e-07 4.89539e-06 6.20831e-06 1.3114e-07 3.11338e-05 7.25031e-06 -5.82868e-08
1.00014e-06 -6.65376e-06 8.26884e-07 -4.88121e-06 5.03049e-06 1.71582e-07 2.36661e-06 9.75855e-07 -1.23722e-08
7.11262e-07 -7.32768e-06 8.68869e-07 -1.46318e-05 3.69675e-06 2.17864e-07 -3.31614e-05 -4.38283e-06 3.3113e-08
-6.78463e-07 -8.18192e-06 9.20355e-07 -2.41181e-05 2.20023e-06 2.70278e-07 -6.84791e-05 -9.45601e-06 7.70529e-08
-3.51847e-06 -9.2451e-06 9.82899e-07 -3.3218e-05 5.21359e-07 3.29393e-07 -0.000102228 -1.42912e-05 1.18916e-07
-7.95548e-06 -1.05381e-05 1.05754e-06 -4.19613e-05 -1.36798e-06 3.96004e-07 -0.000133972 -1.88363e-05 1.58276e-07
-1.39689e-05 -1.20661e-05 1.14457e-06 -5.25903e-05 -3.2756e-06 4.70114e-07 -0.000163247 -2.30324e-05 1.94679e-07
-2.16667e-05 -1.38353e-05 1.24426e-06 -6.39978e-05 -5.29901e-06 5.51904e-07 -0.00018992 -2.68525e-05 2.27843e-07
-3.10811e-05 -1.58428e-05 1.35642e-06 -7.53375e-05 -7.48961e-06 6.41104e-07 -0.000213844 -3.02684e-05 2.57508e-07
-4.21562e-05 -1.80827e-05 1.48069e-06 -8.63546e-05 -9.83555e-06 7.37286e-07 -0.000234908 -3.3264e-05 2.83537e-07
-5.48301e-05 -2.05462e-05 1.61664e-06 -9.69893e-05 -1.23254e-05 8.39969e-07 -0.000253008 -3.58286e-05 3.05853e-07
-6.90333e-05 -2.32221e-05 1.76368e-06 -0.000107326 -1.49453e-05 9.48556e-07 -0.00026813 -3.79623e-05 3.24453e-07
-8.46325e-05 -2.60934e-05 1.92094e-06 -0.0001174 -1.76771e-05 1.06227e-06 -0.000280341 -3.96751e-05 3.39418e-07
-0.000101449 -2.91365e-05 2.08717e-06 -0.000127126 -2.04978e-05 1.1801e-06 -0.000289784 -4.09864e-05 3.50914e-07
-0.000119288 -3.2321e-05 2.26078e-06 -0.000136406 -2.33816e-05 1.30097e-06 -0.000296651 -4.19232e-05 3.59172e-07
-0.000137925 -3.56099e-05 2.43978e-06 -0.000145223 -2.63026e-05 1.42372e-06 -0.000301168 -4.25182e-05 3.64476e-07
-0.0001571 -3.89608e-05 2.6219e-06 -0.000153613 -2.92339e-05 1.54721e-06 -0.000303589 -4.28098e-05 3.67153e-07
-0.000176535 -4.23282e-05 2.80468e-06 -0.000161578 -3.21471e-05 1.67019e-06 -0.000304199 -4.28408e-05 3.67574e-07
-0.000195948 -4.5665e-05 2.98557e-06 -0.000169079 -3.50117e-05 1.79133e-06 -0.000303317 -4.26583e-05 3.66148e-07
-0.000215048 -4.8923e-05 3.162e-06 -0.000176083 -3.77966e-05 1.90929e-06 -0.000301292 -4.23123e-05 3.63305e-07
-0.000233541 -5.20544e-05 3.33139e-06 -0.000182591 -4.04716e-05 2.02272e-06 -0.000298482 -4.18541e-05 3.59485e-07
-0.000251139 -5.50138e-05 3.49131e-06 -0.000188616 -4.30063e-05 2.13032e-06 -0.000295234 -4.13344e-05 3.55122e-07
-0.000267568 -5.77594e-05 3.63955e-06 -0.000194161 -4.53709e-05 2.23076e-06 -0.000291875 -4.08024e-05 3.50643e-07
-0.000282575 -6.02544e-05 3.77416e-06 -0.00019921 -4.75366e-05 2.32278e-06 -0.000288721 -4.03046e-05 3.46451e-07
-0.000295928 -6.24676e-05 3.89352e-06 -0.000203753 -4.9476e-05 2.40518e-06 -0.000286068 -3.98843e-05 3.4292e-07
-0.000307426 -6.43748e-05 3.99641e-06 -0.000207792 -5.11643e-05 2.47687e-06 -0.000284185 -3.958e-05 3.40378e-07
-0.000316904 -6.59598e-05 4.08205e-06 -0.000211335 -5.25795e-05 2.53686e-06 -0.000283293 -3.94238e-05 3.39103e-07
-0.00032424 -6.72143e-05 4.1501e-06 -0.00021438 -5.37031e-05 2.58433e-06 -0.000283558 -3.94405e-05 3.39309e-07
-0.000329352 -6.81373e-05 4.20062e-06 -0.000216921 -5.45206e-05 2.61865e-06 -0.000285093 -3.96474e-05 3.41146e-07
-0.000332205 -6.87342e-05 4.23399e-06 -0.000218955 -5.50226e-05 2.63939e-06 -0.000287956 -4.0053e-05 3.44689e-07
-0.000332809 -6.90155e-05 4.25087e-06 -0.000220484 -5.52058e-05 2.64639e-06 -0.00029215 -4.06573e-05 3.49936e-07
-0.000331209 -6.8997e-05 4.25212e-06 -0.000221509 -5.50725e-05 2.63976e-06 -0.000297613 -4.14513e-05 3.5681e-07
-0.000327491 -6.87016e-05 4.23885e-06 -0.00022204 -5.46299e-05 2.61976e-06 -0.000304221 -4.24172e-05 3.65159e-07
-0.000321877 -6.81595e-05 4.21274e-06 -0.000222083 -5.3892e-05 2.58698e-06 -0.000311789 -4.35282e-05 3.74757e-07
-0.000314539 -6.74058e-05 4.17572e-06 -0.000221637 -5.28786e-05 2.5423e-06 -0.000320081 -4.475e-05 3.85305e-07
-0.000305686 -6.64796e-05 4.1299e-06 -0.000220698 -5.16147e-05 2.48685e-06 -0.000328821 -4.60416e-05 3.96448e-07
-0.000295621 -6.54219e-05 4.0775e-06 -0.000219279 -5.01318e-05 2.422e-06 -0.000337683 -4.73552e-05 4.07775e-07
-0.000284667 -6.42736e-05 4.02066e-06 -0.00021739 -4.84657e-05 2.34934e-06 -0.000346311 -4.86389e-05 4.18837e-07
-0.00027313 -6.3074e-05 3.9614e-06 -0.000215036 -4.66568e-05 2.27063e-06 -0.00035433 -4.98374e-05 4.29157e-07
-0.000261337 -6.18609e-05 3.90165e-06 -0.000212231 -4.47483e-05 2.18779e-06 -0.000361356 -5.08942e-05 4.38248e-07
-0.000249635 -6.06723e-05 3.84331e-06 -0.000208998 -4.27851e-05 2.10281e-06 -0.000367007 -5.17532e-05 4.45624e-07
-0.00023836 -5.95456e-05 3.78828e-06 -0.000205358 -4.08122e-05 2.01764e-06 -0.000370917 -5.23604e-05 4.50822e-07
-0.000227828 -5.85171e-05 3.73839e-06 -0.000201339 -3.88737e-05 1.93424e-06 -0.00037275 -5.26663e-05 4.53412e-07
-0.000218338 -5.76209e-05 3.69537e-06 -0.000196973 -3.70115e-05 1.85443e-06 -0.000372207 -5.2627e-05 4.53015e-07
-0.000210165 -5.68872e-05 3.66074e-06 -0.000192299 -3.52646e-05 1.77992e-06 -0.00036904 -5.22056e-05 4.49315e-07
-0.000203539 -5.63416e-05 3.63578e-06 -0.000187355 -3.36683e-05 1.71225e-06 -0.00036306 -5.1374e-05 4.42069e-07
-0.000198649 -5.60045e-05 3.62152e-06 -0.000182187 -3.22529e-05 1.65272e-06 -0.000354143 -5.01137e-05 4.31119e-07
-0.000195638 -5.58918e-05 3.61876e-06 -0.000176841 -3.10432e-05 1.60242e-06 -0.000342238 -4.8417e-05 4.16398e-07
-0.000194603 -5.60159e-05 3.62815e-06 -0.000171369 -3.00575e-05 1.5621e-06 -0.00032737 -4.62871e-05 3.97935e-07
-0.000195588 -5.6386e-05 3.6502e-06 -0.000165825 -2.93073e-05 1.53226e-06 -0.000309644 -4.37391e-05 3.75862e-07
-0.000198371 -5.69718e-05 3.68404e-06 -0.000160307 -2.88023e-05 1.51317e-06 -0.000289235 -4.07985e-05 3.50404e-07
-0.000201986 -5.75889e-05 3.7238e-06 -0.000155422 -2.86054e-05 1.50606e-06 -0.000266174 -3.74797e-05 3.21801e-07
-0.000208502 -5.85596e-05 3.7799e-06 -0.000150207 -2.86004e-05 1.5081e-06 -0.00024112 -3.38618e-05 2.90593e-07
-0.000216275 -5.97547e-05 3.84743e-06 -0.000145107 -2.88077e-05 1.51968e-06 -0.000214523 -3.00097e-05 2.57301e-07
-0.000225825 -6.11598e-05 3.92393e-06 -0.000140238 -2.92172e-05 1.54043e-06 -0.000186583 -2.59632e-05 2.22345e-07
-0.000236966 -6.2764e-05 4.00911e-06 -0.00013543 -2.97848e-05 1.56868e-06 -0.000157989 -2.1817e-05 1.86465e-07
-0.000248933 -6.44953e-05 4.10136e-06 -0.000131003 -3.05177e-05 1.6038e-06 -0.000129052 -1.76245e-05 1.50239e-07
-0.000261619 -6.63032e-05 4.19776e-06 -0.00012689 -3.13766e-05 1.64429e-06 -0.000100472 -1.34779e-05 1.14405e-07
-0.000274272 -6.80413e-05 4.28816e-06 -0.000123401 -3.23565e-05 1.68937e-06 -7.2741e-05 -9.45045e-06 7.96345e-08
-0.00028716 -6.96888e-05 4.37355e-06 -0.00012041 -3.34256e-05 1.73808e-06 -4.64132e-05 -5.62234e-06 4.65881e-08
-0.000299259 -7.11769e-05 4.4498e-06 -0.000117884 -3.45542e-05 1.78923e-06 -2.19976e-05 -2.07161e-06 1.59474e-08
-0.000310378 -7.24452e-05 4.51378e-06 -0.000115853 -3.57092e-05 1.84133e-06 -3.64259e-06 1.55984e-06 -1.16124e-08
-0.000320518 -7.34391e-05 4.56259e-06 -0.000114432 -3.68647e-05 1.89306e-06 1.09078e-05 4.79241e-06 -3.51214e-08
-0.000329185 -7.41017e-05 4.59316e-06 -0.000113594 -3.79815e-05 1.94278e-06 2.27822e-05 7.45212e-06 -5.44617e-08
-0.000335882 -7.43839e-05 4.60286e-06 -0.000113288 -3.90266e-05 1.9891e-06 3.16985e-05 9.46595e-06 -6.91057e-08
-0.000340376 -7.42534e-05 4.58973e-06 -0.000113508 -3.99623e-05 2.03029e-06 3.75098e-05 1.0781e-05 -7.86403e-08
-0.000342641 -7.37004e-05 4.55332e-06 -0.000114279 -4.07531e-05 2.06472e-06 4.00159e-05 1.13506e-05 -8.27237e-08
-0.000342418 -7.27234e-05 4.49374e-06 -0.000115579 -4.13649e-05 2.09092e-06 3.90051e-05 1.11397e-05 -8.11142e-08
-0.000339485 -7.13302e-05 4.41157e-06 -0.00011735 -4.1766e-05 2.10756e-06 3.43495e-05 1.01283e-05 -7.3681e-08
-0.000333852 -6.9538e-05 4.30795e-06 -0.000119538 -4.19312e-05 2.11353e-06 2.60718e-05 8.3168e-06 -6.04235e-08
-0.000325563 -6.73708e-05 4.18436e-06 -0.000122089 -4.18415e-05 2.10801e-06 1.43004e-05 5.72404e-06 -4.14723e-08
-0.000314636 -6.48588e-05 4.04257e-06 -0.000124939 -4.14842e-05 2.09049e-06 -7.84252e-07 2.38532e-06 -1.70823e-08
-0.000301175 -6.204e-05 3.88478e-06 -0.000128046 -4.08579e-05 2.06095e-06 -2.11541e-05 -1.48012e-06 1.28238e-08
-0.000285404 -5.89634e-05 3.71376e-06 -0.000131339 -3.99606e-05 2.01935e-06 -4.8638e-05 -5.47143e-06 4.73216e-08
-0.000267593 -5.5684e-05 3.53261e-06 -0.000134725 -3.8804e-05 1.96623e-06 -7.93448e-05 -9.92647e-06 8.57968e-08
-0.000248047 -5.22609e-05 3.34457e-06 -0.000138097 -3.74042e-05 1.90239e-06 -0.000112555 -1.47514e-05 1.27477e-07
-0.000227119 -4.87499e-05 3.15267e-06 -0.000141399 -3.57891e-05 1.82908e-06 -0.00014757 -1.98487e-05 1.71525e-07
-0.000205209 -4.52017e-05 2.95958e-06 -0.000144573 -3.3994e-05 1.74793e-06 -0.000183705 -2.51145e-05 2.1703e-07
-0.000182728 -4.16626e-05 2.76769e-06 -0.000147545 -3.20613e-05 1.66084e-06 -0.000220241 -3.04382e-05 2.63021e-07
-0.000160101 -3.81758e-05 2.57916e-06 -0.000150228 -3.00378e-05 1.56992e-06 -0.000256383 -3.57026e-05 3.08486e-07
-0.000137759 -3.47795e-05 2.39585e-06 -0.000152552 -2.79743e-05 1.47746e-06 -0.000291282 -4.07873e-05 3.52395e-07
-0.000116125 -3.15068e-05 2.21934e-06 -0.000154472 -2.59233e-05 1.3858e-06 -0.000324104 -4.55744e-05 3.9374e-07
-9.55969e-05 -2.83863e-05 2.05091e-06 -0.000155941 -2.39367e-05 1.29727e-06 -0.000354091 -4.99527e-05 4.31559e-07
-7.6543e-05 -2.5444e-05 1.89176e-06 -0.000156908 -2.2063e-05 1.21403e-06 -0.000380565 -5.38208e-05 4.6497e-07
-5.92966e-05 -2.27041e-05 1.74301e-06 -0.000157322 -2.03453e-05 1.138e-06 -0.000402915 -5.70876e-05 4.9318e-07
-4.41429e-05 -2.01887e-05 1.60568e-06 -0.000157147 -1.88198e-05 1.07082e-06 -0.000420598 -5.96743e-05 5.15511e-07
-3.13053e-05 -1.79141e-05 1.48054e-06 -0.000156358 -1.75154e-05 1.01376e-06 -0.000433166 -6.15169e-05 5.31414e-07
-2.09356e-05 -1.58891e-05 1.36794e-06 -0.000154937 -1.64527e-05 9.67752e-07 -0.000440288 -6.25685e-05 5.40485e-07
-1.31114e-05 -1.41145e-05 1.26786e-06 -0.000152861 -1.56429e-05 9.33301e-07 -0.000441776 -6.28007e-05 5.42478e-07
-7.83271e-06 -1.2584e-05 1.1799e-06 -0.000150112 -1.50876e-05 9.10479e-07 -0.000437573 -6.22043e-05 5.37309e-07
-5.02355e-06 -1.12852e-05 1.10339e-06 -0.000146683 -1.47781e-05 8.98909e-07 -0.000427742 -6.0788e-05 5.25054e-07
-4.53407e-06 -1.01995e-05 1.03735e-06 -0.000142572 -1.46959e-05 8.97778e-07 -0.000412461 -5.85789e-05 5.05948e-07
-6.14405e-06 -9.30262e-06 9.8055e-07 -0.000137785 -1.48132e-05 9.05857e-07 -0.000392028 -5.56214e-05 4.80376e-07
-9.56808e-06 -8.56463e-06 9.31455e-07 -0.000132327 -1.50936e-05 9.2154e-07 -0.000366854 -5.1976e-05 4.48862e-07
-1.44615e-05 -7.94912e-06 8.88219e-07 -0.00012621 -1.54938e-05 9.42908e-07 -0.000337458 -4.77181e-05 4.12057e-07
-2.04284e-05 -7.41338e-06 8.48666e-07 -0.000119449 -1.59648e-05 9.67793e-07 -0.000304437 -4.2935e-05 3.70713e-07
-2.70306e-05 -6.90868e-06 8.10294e-07 -0.000112065 -1.64538e-05 9.93852e-07 -0.000268452 -3.77232e-05 3.25664e-07
-3.37999e-05 -6.38152e-06 7.70346e-07 -0.000104085 -1.69055e-05 1.01863e-06 -0.000230204 -3.21862e-05 2.77806e-07
-4.26621e-05 -6.66055e-06 7.70069e-07 -9.48063e-05 -1.70892e-05 1.0333e-06 -0.000190669 -2.64638e-05 2.28284e-07
-4.96088e-05 -6.82161e-06 7.69737e-07 -8.53184e-05 -1.70789e-05 1.03997e-06 -0.000150781 -2.06824e-05 1.78072e-07
-5.65623e-05 -6.87789e-06 7.62979e-07 -7.62402e-05 -1.69673e-05 1.0407e-06 -0.000109986 -1.48056e-05 1.2735e-07
-6.18101e-05 -6.72644e-06 7.45145e-07 -6.59581e-05 -1.6584e-05 1.03073e-06 -7.0232e-05 -9.0629e-06 7.75796e-08
-6.48105e-05 -6.32427e-06 7.13989e-07 -5.51983e-05 -1.59661e-05 1.01036e-06 -3.13465e-05 -3.45886e-06 2.912e-08
-6.59007e-05 -5.64447e-06 6.68382e-07 -4.42012e-05 -1.50591e-05 9.77511e-07 1.58903e-06 2.32854e-06 -1.67907e-08
-6.48211e-05 -4.66606e-06 6.07366e-07 -3.33105e-05 -1.38603e-05 9.31663e-07 2.8296e-05 8.16321e-06 -5.95306e-08
-6.12537e-05 -3.39014e-06 5.31515e-07 -2.21904e-05 -1.23344e-05 8.71627e-07 5.30222e-05 1.35566e-05 -9.90541e-08
-5.57113e-05 -1.77303e-06 4.41539e-07 -1.06667e-05 -1.04782e-05 7.97356e-07 7.55685e-05 1.84465e-05 -1.34916e-07
-4.9528e-05 2.90712e-07 3.36383e-07 1.06745e-06 -8.28651e-06 7.08324e-07 9.5813e-05 2.27949e-05 -1.66806e-07
-4.12813e-05 2.67648e-06 2.16536e-07 1.27668e-05 -5.765e-06 6.04692e-07 0.000113484 2.65645e-05 -1.94496e-07
-3.09323e-05 5.36168e-06 8.29957e-08 2.44448e-05 -2.93776e-06 4.88109e-07 0.00012853 2.97446e-05 -2.17865e-07
-1.84311e-05 8.32438e-06 -6.34063e-08 3.57458e-05 1.53804e-07 3.59337e-07 0.000140873 3.234e-05 -2.37039e-07
-3.98612e-06 1.15352e-05 -2.21142e-07 4.34243e-05 3.72904e-06 2.19633e-07 0.000150737 3.43749e-05 -2.52135e-07
1.20164e-05 1.49519e-05 -3.88205e-07 4.72581e-05 7.80474e-06 6.99247e-08 0.000158367 3.58976e-05 -2.63486e-07
2.93756e-05 1.85313e-05 -5.62488e-07 5.04151e-05 1.20808e-05 -8.74652e-08 0.000163962 3.69625e-05 -2.71496e-07
4.78053e-05 2.22165e-05 -7.41398e-07 5.28919e-05 1.65023e-05 -2.50372e-07 0.000167726 3.76287e-05 -2.76621e-07
6.69154e-05 2.5938e-05 -9.21652e-07 5.48633e-05 2.10082e-05 -4.16547e-07 0.000170004 3.79709e-05 -2.79387e-07
8.62688e-05 2.95909e-05 -1.09831e-06 5.65658e-05 2.55458e-05 -5.83965e-07 0.000171161 3.80651e-05 -2.80343e-07
0.000105513 3.31466e-05 -1.26992e-06 5.80353e-05 3.0034e-05 -7.49651e-07 0.0001716 3.79994e-05 -2.80123e-07
0.000124248 3.65698e-05 -1.435e-06 5.93191e-05 3.43959e-05 -9.10683e-07 0.000171689 3.78608e-05 -2.79366e-07
0.000142095 3.98387e-05 -1.59267e-06 6.05271e-05 3.85534e-05 -1.06413e-06 0.000171787 3.77343e-05 -2.78692e-07
0.000158687 4.29413e-05 -1.74255e-06 6.1826e-05 4.24312e-05 -1.2072e-06 0.000172263 3.77029e-05 -2.78697e-07
0.000173694 4.58707e-05 -1.8845e-06 6.33532e-05 4.59606e-05 -1.33732e-06 0.000173453 3.7841e-05 -2.79916e-07
0.000186844 4.86213e-05 -2.01844e-06 6.51737e-05 4.90811e-05 -1.45221e-06 0.000175642 3.82123e-05 -2.82812e-07
0.000197917 5.11873e-05 -2.1442e-06 6.7324e-05 5.17443e-05 -1.55006e-06 0.000179051 3.88671e-05 -2.8775e-07
0.000207308 5.3518e-05 -2.25753e-06 6.972e-05 5.39258e-05 -1.6303e-06 0.000183845 3.98395e-05 -2.94964e-07
0.000213335 5.52294e-05 -2.34347e-06 7.25746e-05 5.56754e-05 -1.6942e-06 0.000190026 4.11316e-05 -3.0447e-07
0.000217451 5.66718e-05 -2.4165e-06 7.57765e-05 5.69423e-05 -1.73971e-06 0.000197474 4.27387e-05 -3.16345e-07
0.000219201 5.77638e-05 -2.47384e-06 7.91933e-05 5.76875e-05 -1.76598e-06 0.000206551 4.47024e-05 -3.30723e-07
0.000218462 5.85299e-05 -2.51598e-06 8.31005e-05 5.79622e-05 -1.77456e-06 0.000216811 4.69491e-05 -3.47185e-07
0.000215475 5.89797e-05 -2.54334e-06 8.72886e-05 5.77677e-05 -1.7658e-06 0.000228263 4.94687e-05 -3.65577e-07
0.000210566 5.91294e-05 -2.55676e-06 9.16648e-05 5.71478e-05 -1.74112e-06 0.000240523 5.21901e-05 -3.85443e-07
0.000203905 5.90069e-05 -2.55743e-06 9.60669e-05 5.61387e-05 -1.70197e-06 0.00025338 5.5057e-05 -4.06352e-07
0.000195656 5.86485e-05 -2.54687e-06 0.000100464 5.47898e-05 -1.65022e-06 0.000266522 5.79947e-05 -4.27755e-07
0.000186238 5.81007e-05 -2.52726e-06 0.000104819 5.31557e-05 -1.5879e-06 0.000279587 6.09218e-05 -4.4906e-07
0.000176022 5.74118e-05 -2.50088e-06 0.000109005 5.12959e-05 -1.51724e-06 0.000292165 6.37505e-05 -4.69635e-07
0.000165301 5.66319e-05 -2.47006e-06 0.00011285 4.92716e-05 -1.44057e-06 0.000303847 6.63914e-05 -4.88832e-07
0.000154701 5.58672e-05 -2.43956e-06 0.000116126 4.70728e-05 -1.3586e-06 0.0194951 0.00196123 -3.67545e-07
0.000146345 5.56511e-05 -2.42294e-06 0.000104015 4.1942e-05 -1.20909e-06 0.05283 0.00501506 -3.74125e-07
0.000131711 5.45678e-05 -2.38327e-06 0.000118653 4.1375e-05 -1.16183e-06 0.0606769 0.00570903 -3.59463e-07
0.000126117 5.39967e-05 -2.3607e-06 0.000110863 3.84178e-05 -1.06182e-06 0.0683938 0.00641548 -3.6203e-07
0.000117741 5.34601e-05 -2.33916e-06 0.000110247 3.66009e-05 -9.92422e-07 0.0682175 0.00640507 -3.60066e-07
0.000108687 5.29552e-05 -2.32046e-06 0.00011461 3.50396e-05 -9.34708e-07 0.067689 0.00636307 -3.5656e-07
0.00010383 5.2838e-05 -2.3174e-06 0.000118259 3.34662e-05 -8.79741e-07 0.0676331 0.00635829 -3.55301e-07
0.000100465 5.27788e-05 -2.32046e-06 0.000118198 3.24421e-05 -8.3834e-07 0.0679615 0.00638315 -3.55374e-07
9.90438e-05 5.30262e-05 -2.33583e-06 0.000111657 3.14769e-05 -8.01626e-07 0.0681948 0.0063987 -3.51888e-07
9.89206e-05 5.34804e-05 -2.36072e-06 0.000106713 3.09148e-05 -7.80601e-07 0.067969 0.00637328 -3.39326e-07
0.000101118 5.42053e-05 -2.39734e-06 0.000105772 3.069e-05 -7.74634e-07 0.0674431 0.00632041 -3.19665e-07
0.000105279 5.51562e-05 -2.44437e-06 0.000105574 3.08347e-05 -7.82295e-07 0.0669754 0.00627006 -2.97391e-07
0.000111236 5.63075e-05 -2.50082e-06 0.000101412 3.12836e-05 -7.9989e-07 0.0667308 0.00623645 -2.75111e-07
0.000118766 5.75462e-05 -2.56018e-06 9.36235e-05 3.20196e-05 -8.27135e-07 0.0665612 0.00620758 -2.51513e-07
0.000128165 5.88762e-05 -2.62332e-06 8.61436e-05 3.30454e-05 -8.65634e-07 0.0662364 0.00616445 -2.24069e-07
0.000138469 6.0288e-05 -2.68942e-06 8.11322e-05 3.43304e-05 -9.15097e-07 0.0657076 0.00610319 -1.92544e-07
0.0001494 6.17504e-05 -2.75735e-06 7.71202e-05 3.58273e-05 -9.72811e-07 0.0647244 0.00599813 -1.61287e-07
0.000161081 6.32281e-05 -2.8261e-06 7.1789e-05 3.74942e-05 -1.03559e-06 0.0630636 0.00582782 -1.3238e-07
0.000173219 6.47006e-05 -2.89475e-06 6.47544e-05 3.9243e-05 -1.10045e-06 0.0608428 0.00560698 -1.07056e-07
0.000185164 6.61497e-05 -2.96223e-06 5.7936e-05 4.10176e-05 -1.16617e-06 0.0581081 0.00534178 -8.42196e-08
0.000196523 6.75492e-05 -3.02741e-06 5.30019e-05 4.27985e-05 -1.2321e-06 0.0546212 0.00500987 -6.33946e-08
0.000207186 6.88764e-05 -3.08926e-06 4.93029e-05 4.44841e-05 -1.2948e-06 0.0507893 0.00464984 -4.51398e-08
0.000216836 7.00912e-05 -3.14605e-06 4.57685e-05 4.60267e-05 -1.35179e-06 0.0470549 0.00430097 -2.89705e-08
0.000225205 7.11558e-05 -3.19589e-06 4.18387e-05 4.73346e-05 -1.40013e-06 0.0442216 0.00403477 -1.47337e-08
0.000232049 7.20278e-05 -3.23667e-06 3.83445e-05 4.83918e-05 -1.43923e-06 0.0422927 0.00385186 -2.74634e-09
0.000237183 7.2664e-05 -3.26638e-06 3.60291e-05 4.91942e-05 -1.46892e-06 0.040922 0.00372152 6.35213e-09
0.000240476 7.30347e-05 -3.28348e-06 3.48268e-05 4.97205e-05 -1.48846e-06 0.0398173 0.00361765 1.21008e-08
0.000241801 7.31138e-05 -3.28671e-06 3.43948e-05 4.99569e-05 -1.49721e-06 0.0390074 0.00354275 1.44904e-08
0.000241125 7.28883e-05 -3.27521e-06 3.45443e-05 4.98836e-05 -1.4945e-06 0.0387769 0.00352234 1.36323e-08
0.000238522 7.23504e-05 -3.2486e-06 3.5439e-05 4.95144e-05 -1.48066e-06 0.0388694 0.00353327 7.8725e-09
0.000234017 7.14999e-05 -3.20697e-06 3.72612e-05 4.88881e-05 -1.45676e-06 0.0390439 0.00355347 -2.47281e-09
0.00022772 7.03632e-05 -3.15144e-06 3.97846e-05 4.7993e-05 -1.42287e-06 0.0392647 0.00358001 -1.69302e-08
0.000219741 6.89714e-05 -3.0836e-06 4.31035e-05 4.68629e-05 -1.38014e-06 0.0395121 0.00361095 -3.49146e-08
0.000210322 6.73687e-05 -3.00563e-06 4.71687e-05 4.55219e-05 -1.3295e-06 0.0398297 0.00365004 -5.59355e-08
0.000199727 6.56024e-05 -2.91983e-06 5.17365e-05 4.39904e-05 -1.27181e-06 0.0406733 0.00373997 -7.81998e-08
0.000188218 6.37206e-05 -2.82842e-06 5.64627e-05 4.2283e-05 -1.20796e-06 0.0424262 0.0039132 -1.0079e-07
0.000176033 6.17549e-05 -2.73302e-06 6.14267e-05 4.04783e-05 -1.14044e-06 0.0446053 0.0041246 -1.24599e-07
0.000163524 5.97381e-05 -2.63525e-06 6.66062e-05 3.86403e-05 -1.07151e-06 0.0468553 0.00434302 -1.49319e-07
0.000151014 5.77121e-05 -2.53697e-06 7.18721e-05 3.68083e-05 -1.00289e-06 0.0490367 0.0045556 -1.74388e-07
0.000138748 5.57152e-05 -2.44004e-06 7.72229e-05 3.50428e-05 -9.36746e-07 0.0511147 0.00475875 -1.99172e-07
0.000127064 5.37932e-05 -2.34665e-06 8.24475e-05 3.33843e-05 -8.74623e-07 0.053144 0.00495698 -2.23182e-07
0.000116272 5.19897e-05 -2.25892e-06 8.73274e-05 3.18775e-05 -8.18116e-07 0.0551414 0.00515148 -2.45944e-07
0.000106622 5.03471e-05 -2.17893e-06 9.17211e-05 3.05624e-05 -7.6872e-07 0.0570406 0.00533599 -2.66993e-07
9.8331e-05 4.89062e-05 -2.10862e-06 9.56325e-05 2.94753e-05 -7.27838e-07 0.0587333 0.00550055 -2.85871e-07
9.15956e-05 4.77023e-05 -2.04974e-06 9.90963e-05 2.86465e-05 -6.96631e-07 0.0601476 0.00563844 -3.02166e-07
8.65778e-05 4.67621e-05 -2.00357e-06 0.000102044 2.80975e-05 -6.75907e-07 0.0612802 0.00574912 -3.15571e-07
8.33887e-05 4.60992e-05 -1.97077e-06 0.000104328 2.78429e-05 -6.66183e-07 0.0621606 0.00583507 -3.25877e-07
8.20916e-05 4.57122e-05 -1.95122e-06 0.000105843 2.78921e-05 -6.67795e-07 0.0627984 0.00589706 -3.32953e-07
8.26978e-05 4.55846e-05 -1.94406e-06 0.000106596 2.82499e-05 -6.80931e-07 0.0631664 0.00593261 -3.36721e-07
8.51618e-05 4.56881e-05 -1.94781e-06 0.000106656 2.8914e-05 -7.05532e-07 0.0632386 0.00593939 -3.37076e-07
8.93893e-05 4.59859e-05 -1.96056e-06 0.000106036 2.98673e-05 -7.41042e-07 0.0631826 0.00593272 -3.33547e-07
9.52332e-05 4.64316e-05 -1.97994e-06 0.000104704 3.10825e-05 -7.86529e-07 0.0630741 0.00591963 -3.26386e-07
0.000102486 4.69667e-05 -2.00306e-06 0.000102702 3.25392e-05 -8.41067e-07 0.0629242 0.00590117 -3.15947e-07
0.000110922 4.75331e-05 -2.02701e-06 0.000100026 3.41952e-05 -9.03135e-07 0.0627382 0.00587803 -3.02639e-07
0.000120236 4.80714e-05 -2.04885e-06 9.68004e-05 3.60067e-05 -9.71082e-07 0.0625154 0.00585042 -2.86841e-07
0.000130096 4.85247e-05 -2.06581e-06 9.31697e-05 3.79191e-05 -1.0429e-06 0.0622594 0.00581894 -2.69042e-07
0.000140151 4.88397e-05 -2.07532e-06 8.92567e-05 3.98722e-05 -1.11633e-06 0.0619809 0.00578481 -2.49854e-07
0.000150033 4.89692e-05 -2.07515e-06 8.5134e-05 4.17996e-05 -1.18884e-06 0.0616934 0.00574953 -2.2996e-07
0.000159362 4.88738e-05 -2.06351e-06 8.08805e-05 4.36306e-05 -1.25778e-06 0.0614084 0.0057144 -2.10025e-07
0.00016776 4.85218e-05 -2.03897e-06 7.66268e-05 4.52934e-05 -1.32045e-06 0.0611324 0.00568035 -1.90653e-07
0.000174868 4.78876e-05 -2.00043e-06 7.25305e-05 4.67176e-05 -1.37425e-06 0.0608711 0.00564817 -1.72406e-07
0.000180349 4.69492e-05 -1.94697e-06 6.87375e-05 4.78411e-05 -1.41679e-06 0.0605105 0.00560694 -1.56286e-07
0.000183911 4.56869e-05 -1.87778e-06 6.53193e-05 4.86047e-05 -1.44585e-06 0.0600608 0.00555816 -1.42719e-07
0.000185307 4.40851e-05 -1.7922e-06 6.23231e-05 4.89563e-05 -1.45947e-06 0.0595917 0.00550872 -1.31814e-07
0.00018434 4.21321e-05 -1.68972e-06 5.97948e-05 4.88521e-05 -1.45608e-06 0.0590536 0.00545419 -1.23875e-07
0.000180876 3.98224e-05 -1.57017e-06 5.77676e-05 4.82581e-05 -1.43443e-06 0.0586896 0.0054174 -1.18624e-07
0.000174851 3.7161e-05 -1.43379e-06 5.6236e-05 4.71502e-05 -1.39373e-06 0.0585096 0.00539926 -1.16078e-07
0.000166245 3.41552e-05 -1.28105e-06 5.52226e-05 4.55302e-05 -1.33391e-06 0.0584898 0.00539753 -1.16325e-07
0.000155143 3.08254e-05 -1.11294e-06 5.46568e-05 4.34008e-05 -1.2551e-06 0.0585391 0.00540346 -1.19419e-07
0.000141662 2.71955e-05 -9.30678e-07 5.45256e-05 4.07852e-05 -1.15814e-06 0.0586776 0.00541881 -1.24782e-07
0.000126193 2.33412e-05 -7.37171e-07 5.46918e-05 3.76972e-05 -1.04379e-06 0.0589246 0.0054454 -1.32178e-07
0.000109654 1.95885e-05 -5.43723e-07 5.45762e-05 3.40898e-05 -9.11833e-07 0.0592351 0.00547869 -1.41218e-07
8.95651e-05 1.54795e-05 -3.41388e-07 5.56604e-05 3.02001e-05 -7.67208e-07 0.0595841 0.00551604 -1.51364e-07
6.97081e-05 1.12592e-05 -1.32742e-07 5.6568e-05 2.60016e-05 -6.11288e-07 0.0599421 0.00555432 -1.61787e-07
4.85393e-05 6.89966e-06 8.23025e-08 5.71609e-05 2.1577e-05 -4.47011e-07 0.0602969 0.0055923 -1.72064e-07
2.6436e-05 2.49559e-06 2.99552e-07 5.75244e-05 1.70024e-05 -2.7728e-07 0.0606108 0.005626 -1.81282e-07
9.87304e-07 -1.58881e-06 5.14562e-07 5.77001e-05 1.23429e-05 -1.04472e-07 0.0608707 0.00565397 -1.88895e-07
-2.5464e-05 -5.53648e-06 7.22972e-07 5.72898e-05 7.6783e-06 6.79634e-08 0.0610517 0.00567348 -1.94117e-07
-5.15988e-05 -9.32789e-06 9.24074e-07 5.61251e-05 3.06916e-06 2.37958e-07 0.0611357 0.00568264 -1.96415e-07
-7.56468e-05 -1.29072e-05 1.11376e-06 4.59175e-05 -8.21817e-07 4.03098e-07 0.0611185 0.00568073 -1.95056e-07
-9.74023e-05 -1.62267e-05 1.28978e-06 3.50281e-05 -4.59871e-06 5.62164e-07 0.0610343 0.00567069 -1.89291e-07
-0.000117294 -1.92478e-05 1.45066e-06 2.41223e-05 -8.14851e-06 7.1172e-07 0.0608842 0.0056525 -1.78771e-07
-0.000134851 -2.19395e-05 1.59456e-06 1.27349e-05 -1.14431e-05 8.49835e-07 0.0606617 0.0056254 -1.63195e-07
-0.000149252 -2.42669e-05 1.71975e-06 1.04328e-06 -1.4429e-05 9.74343e-07 0.0603603 0.00558868 -1.42416e-07
-0.000160549 -2.6221e-05 1.82586e-06 -1.06198e-05 -1.70616e-05 1.08348e-06 0.0592571 0.00547458 -1.19872e-07
-0.000168982 -2.78144e-05 1.91339e-06 -2.17078e-05 -1.9252e-05 1.17448e-06 0.0565834 0.00521265 -9.46456e-08
-0.000174223 -2.90346e-05 1.9821e-06 -3.29685e-05 -2.10731e-05 1.249e-06 0.0526454 0.00483651 -6.83143e-08
-0.000176402 -2.9906e-05 2.03309e-06 -4.37821e-05 -2.24628e-05 1.30549e-06 0.0475034 0.00435082 -3.92587e-08
-0.000175651 -3.04485e-05 2.06762e-06 -5.44191e-05 -2.34691e-05 1.34529e-06 0.0415069 0.00378738 -7.50675e-09
-0.000172225 -3.0695e-05 2.08751e-06 -6.49129e-05 -2.41165e-05 1.36941e-06 0.0351227 0.00318691 2.70986e-08
-0.000166405 -3.06918e-05 2.09516e-06 -7.52409e-05 -2.44281e-05 1.37902e-06 0.0284276 0.0025565 6.44495e-08
-0.000158498 -3.0488e-05 2.09319e-06 -8.5543e-05 -2.44583e-05 1.37616e-06 0.0224301 0.00201191 1.09389e-07
-0.000148854 -3.01224e-05 2.08418e-06 -9.63362e-05 -2.4336e-05 1.36476e-06 0.0172376 0.00154835 1.56482e-07
-0.000138361 -2.97064e-05 2.07287e-06 -0.000105992 -2.39209e-05 1.34231e-06 0.0119479 0.00107549 2.04981e-07
-0.000127036 -2.92709e-05 2.0616e-06 -0.000115835 -2.34037e-05 1.31464e-06 0.00672867 0.000608914 2.53131e-07
-0.000115682 -2.88941e-05 2.0541e-06 -0.000125287 -2.2783e-05 1.28285e-06 0.00148366 0.000140545 3.00556e-07
-0.000104741 -2.86148e-05 2.0526e-06 -0.000134893 -2.22251e-05 1.25244e-06 0.000126378 9.42732e-06 3.60526e-07
-9.45738e-05 -2.84558e-05 2.05884e-06 -0.000144809 -2.18448e-05 1.22729e-06 4.17369e-05 -1.13213e-05 4.15653e-07
-8.63418e-05 -2.85763e-05 2.07832e-06 -0.000152988 -2.13941e-05 1.20279e-06 2.30843e-05 -2.64433e-05 4.66212e-07
-7.95506e-05 -2.89189e-05 2.11013e-06 -0.000162124 -2.12091e-05 1.18827e-06 1.53291e-05 -3.87686e-05 5.11637e-07
-7.54016e-05 -2.95794e-05 2.15793e-06 -0.000170388 -2.11921e-05 1.18206e-06 3.68712e-07 -4.92124e-05 5.52361e-07
-7.39952e-05 -3.05576e-05 2.22204e-06 -0.00017761 -2.14379e-05 1.18733e-06 -1.55637e-05 -5.76455e-05 5.86731e-07
-7.55483e-05 -3.18817e-05 2.3034e-06 -0.000183802 -2.19586e-05 1.20541e-06 -2.21156e-05 -6.40307e-05 6.13263e-07
-8.02631e-05 -3.35687e-05 2.40266e-06 -0.000189478 -2.2753e-05 1.23659e-06 -1.49375e-05 -6.49344e-05 6.21645e-07
-8.8452e-05 -3.56429e-05 2.52033e-06 -0.000193903 -2.3752e-05 1.27962e-06 -7.41112e-06 -6.49639e-05 6.23223e-07
-9.94803e-05 -3.80102e-05 2.65345e-06 -0.000199281 -2.53144e-05 1.34377e-06 -6.85255e-06 -6.49707e-05 6.23173e-07
-0.000113983 -4.07318e-05 2.80381e-06 -0.000203254 -2.71601e-05 1.42181e-06 -6.94858e-06 -6.45489e-05 6.18709e-07
-0.000131413 -4.37891e-05 2.97064e-06 -0.000206694 -2.93049e-05 1.51364e-06 1.39333e-06 -6.31431e-05 6.06737e-07
-0.000151458 -4.71491e-05 3.15259e-06 -0.000210091 -3.17474e-05 1.61874e-06 2.03729e-05 -6.06718e-05 5.87409e-07
-0.000174065 -5.07935e-05 3.34863e-06 -0.000213027 -3.44165e-05 1.73443e-06 4.70074e-05 -5.73334e-05 5.61849e-07
-0.000198718 -5.46703e-05 3.55641e-06 -0.000215376 -3.72814e-05 1.85887e-06 7.7919e-05 -5.33211e-05 5.31157e-07
-0.000224931 -5.87332e-05 3.77354e-06 -0.00021702 -4.02772e-05 1.9894e-06 0.000112271 -4.87382e-05 4.96385e-07
-0.000252214 -6.29244e-05 3.99717e-06 -0.000218246 -4.33532e-05 2.12369e-06 0.000152672 -4.35125e-05 4.58284e-07
-0.000280061 -6.71815e-05 4.22411e-06 -0.000219267 -4.64505e-05 2.25919e-06 0.000202443 -3.75208e-05 4.17712e-07
-0.00030789 -7.14349e-05 4.45081e-06 -0.000220094 -4.95083e-05 2.39318e-06 0.000263792 -3.06633e-05 3.75805e-07
-0.000335128 -7.5611e-05 4.67351e-06 -0.000220628 -5.24662e-05 2.52293e-06 0.000338666 -2.28197e-05 3.33872e-07
-0.000525337 -6.66778e-05 3.10558e-06 -0.00024253 -5.45442e-05 2.55135e-06 0.000422226 -1.46882e-05 2.98799e-07
-0.000266445 -7.06607e-05 2.52424e-06 -0.000290747 -5.33079e-05 2.35424e-06 0.000526837 -6.34361e-06 2.9092e-07
-0.000157377 -7.02855e-05 2.39728e-06 -0.000280768 -5.30371e-05 2.42366e-06 0.000563881 -1.51395e-06 2.53045e-07
-0.000401251 -7.61139e-05 2.76571e-06 -0.000315135 -5.7669e-05 2.53704e-06 0.000942835 2.87685e-05 2.03985e-07
-0.000472745 -8.03067e-05 2.97589e-06 -0.000302751 -5.97483e-05 2.60745e-06 0.00130173 5.66165e-05 1.70962e-07
-0.000365363 -8.12672e-05 2.88026e-06 -0.000279794 -6.04003e-05 2.6727e-06 0.00156292 7.73555e-05 1.40549e-07
-0.00035413 -8.33361e-05 2.91667e-06 -0.000291758 -6.20918e-05 2.74879e-06 0.00189007 0.000114285 1.11435e-07
-0.000441205 -8.67355e-05 3.09131e-06 -0.000314027 -6.40803e-05 2.80667e-06 0.00227165 0.000160805 8.61987e-08
-0.000461635 -8.84366e-05 3.1529e-06 -0.000311845 -6.51103e-05 2.84228e-06 0.00263811 0.000203676 6.64501e-08
-0.00042178 -8.80548e-05 3.09757e-06 -0.000294133 -6.48385e-05 2.84835e-06 0.00294539 0.000238419 5.31847e-08
-0.000417245 -8.81129e-05 3.09188e-06 -0.000292115 -6.46248e-05 2.84634e-06 0.0032002 0.000266184 4.4904e-08
-0.000439733 -8.84748e-05 3.12372e-06 -0.000304931 -6.49103e-05 2.84701e-06 0.0034249 0.000290309 3.9202e-08
-0.00043843 -8.85226e-05 3.12182e-06 -0.000307934 -6.45076e-05 2.82775e-06 0.0034357 0.00029135 3.92211e-08
-0.000419405 -8.83111e-05 3.0942e-06 -0.000304441 -6.39431e-05 2.80086e-06 0.00337791 0.000284607 4.3656e-08
-0.000412858 -8.82446e-05 3.08404e-06 -0.000302869 -6.31753e-05 2.7622e-06 0.00321163 0.000266492 5.26324e-08
-0.000408718 -8.74809e-05 3.06078e-06 -0.000309544 -6.26044e-05 2.72432e-06 0.00296491 0.000239944 6.51553e-08
-0.000396974 -8.63589e-05 3.021e-06 -0.000317952 -6.20176e-05 2.68413e-06 0.00266145 0.000207247 8.0738e-08
-0.000379127 -8.50257e-05 2.96968e-06 -0.000321367 -6.10405e-05 2.63239e-06 0.00226904 0.000164915 1.00401e-07
-0.000363123 -8.35367e-05 2.91703e-06 -0.000324414 -6.00812e-05 2.57888e-06 0.00184756 0.000119194 1.22422e-07
-0.000349711 -8.20017e-05 2.86641e-06 -0.000328698 -5.90822e-05 2.52382e-06 0.0013846 6.89614e-05 1.46746e-07
-0.000334294 -8.04021e-05 2.81221e-06 -0.000334526 -5.8109e-05 2.4707e-06 0.000968742 2.28658e-05 1.7287e-07
-0.000317487 -7.87835e-05 2.75615e-06 -0.000340097 -5.71591e-05 2.41982e-06 0.000738319 -5.88933e-06 2.00556e-07
-0.000302543 -7.72195e-05 2.70325e-06 -0.00034465 -5.62699e-05 2.37197e-06 0.000632212 -2.30498e-05 2.28878e-07
-0.000289623 -7.5755e-05 2.65355e-06 -0.000348851 -5.54789e-05 2.32862e-06 0.000576482 -3.54451e-05 2.57046e-07
-0.000277067 -7.44196e-05 2.6074e-06 -0.000353469 -5.48231e-05 2.29215e-06 0.000542899 -4.5478e-05 2.84419e-07
-0.000265633 -7.32598e-05 2.56734e-06 -0.000358596 -5.43361e-05 2.26387e-06 0.000520855 -5.39721e-05 3.10442e-07
-0.000256671 -7.232e-05 2.53602e-06 -0.000363619 -5.40384e-05 2.24427e-06 0.000506388 -6.1236e-05 3.34574e-07
-0.00025002 -7.16284e-05 2.51467e-06 -0.000368066 -5.39395e-05 2.23402e-06 0.000497463 -6.74248e-05 3.56332e-07
-0.000245507 -7.11877e-05 2.50117e-06 -0.000372281 -5.40536e-05 2.23375e-06 0.000492232 -7.26304e-05 3.75342e-07
-0.00024302 -7.10238e-05 2.49432e-06 -0.000376832 -5.43874e-05 2.24329e-06 0.000489024 -7.69071e-05 3.91399e-07
-0.000242522 -7.11347e-05 2.49636e-06 -0.000381517 -5.49522e-05 2.26365e-06 0.000486622 -8.02704e-05 4.04257e-07
-0.00024496 -7.15488e-05 2.50866e-06 -0.000386406 -5.57353e-05 2.29252e-06 0.000462685 -8.11864e-05 3.68085e-07
-0.000251175 -7.22874e-05 2.53262e-06 -0.000383377 -5.61787e-05 2.30014e-06 0.000483111 -7.98444e-05 3.41635e-07
-0.000257998 -7.31558e-05 2.56024e-06 -0.000377891 -5.72214e-05 2.34566e-06 0.000558671 -7.54334e-05 3.20519e-07
-0.000265136 -7.41581e-05 2.59132e-06 -0.000384278 -5.86857e-05 2.40597e-06 0.000580399 -7.43085e-05 3.15774e-07
-0.000274101 -7.53147e-05 2.62798e-06 -0.000396426 -6.05034e-05 2.47979e-06 0.000541005 -7.60646e-05 3.17869e-07
-0.000284753 -7.65725e-05 2.66882e-06 -0.000402992 -6.24111e-05 2.55725e-06 0.000494218 -7.80615e-05 3.19698e-07
-0.000296338 -7.79331e-05 2.71307e-06 -0.000402959 -6.42921e-05 2.63539e-06 0.000493384 -7.76837e-05 3.15922e-07
-0.000308255 -7.93629e-05 2.75929e-06 -0.000404822 -6.62806e-05 2.71913e-06 0.000533193 -7.52054e-05 3.06908e-07
-0.000299655 -7.85725e-05 2.62054e-06 -0.000509186 -6.66184e-05 2.13491e-06 0.000576891 -6.85954e-05 2.33353e-07
-0.000234504 -7.91526e-05 2.64799e-06 -0.000377878 -6.24714e-05 1.968e-06 0.000628439 -6.81607e-05 2.48891e-07
-0.000278477 -8.11334e-05 2.72094e-06 -0.000367083 -6.40217e-05 1.93457e-06 0.000575386 -6.43227e-05 2.29971e-07
-0.000314352 -8.2939e-05 2.81343e-06 -0.000433884 -6.74217e-05 2.01697e-06 0.000549518 -5.90469e-05 2.14787e-07
-0.000309473 -8.45625e-05 2.86914e-06 -0.000482598 -7.00994e-05 2.08018e-06 0.000544794 -5.68998e-05 2.02421e-07
-0.000305204 -8.57355e-05 2.90374e-06 -0.000472503 -7.1922e-05 2.08281e-06 0.000582689 -5.16832e-05 1.87159e-07
-0.000323267 -8.71343e-05 2.956e-06 -0.000437256 -7.31964e-05 2.06288e-06 0.000607933 -4.81824e-05 1.79275e-07
-0.00033269 -8.73174e-05 2.97052e-06 -0.000435326 -7.50937e-05 2.08283e-06 0.000591794 -4.67504e-05 1.74998e-07
-0.000332864 -8.74249e-05 2.97318e-06 -0.00046605 -7.72957e-05 2.13203e-06 0.000555316 -4.77113e-05 1.73946e-07
-0.000333605 -8.75056e-05 2.9759e-06 -0.000491435 -7.94543e-05 2.18046e-06 0.000542437 -4.88085e-05 1.74305e-07
-0.000340362 -8.76261e-05 2.98611e-06 -0.000476586 -7.93055e-05 2.16632e-06 0.000546819 -5.27717e-05 1.82698e-07
-0.000346 -8.77364e-05 2.9948e-06 -0.00046622 -7.99897e-05 2.16403e-06 0.000553333 -5.65472e-05 1.91985e-07
-0.000346191 -8.77719e-05 2.99582e-06 -0.000468787 -8.09515e-05 2.176e-06 0.000541807 -6.14884e-05 2.05156e-07
-0.0003471 -8.78029e-05 2.99684e-06 -0.000479652 -8.18607e-05 2.19393e-06 0.000518831 -6.81545e-05 2.23816e-07
-0.000350784 -8.78632e-05 2.99775e-06 -0.000490837 -8.30709e-05 2.21921e-06 0.000506778 -7.48944e-05 2.44683e-07
-0.000352519 -8.78238e-05 2.99121e-06 -0.000494212 -8.41759e-05 2.23983e-06 0.000509474 -8.22626e-05 2.68759e-07
-0.000351781 -8.76498e-05 2.9755e-06 -0.000497218 -8.53419e-05 2.26119e-06 0.000518097 -9.02119e-05 2.95726e-07
-0.000350268 -8.72829e-05 2.9506e-06 -0.000506375 -8.66681e-05 2.28957e-06 0.000522489 -9.88724e-05 3.26123e-07
-0.000348595 -8.6737e-05 2.91721e-06 -0.0005179 -8.77609e-05 2.31499e-06 0.000522616 -0.000108235 3.60093e-07
-0.000344113 -8.57728e-05 2.86624e-06 -0.000523027 -8.78882e-05 2.31952e-06 0.00052553 -0.000117678 3.95606e-07
-0.000337588 -8.4519e-05 2.80868e-06 -0.000527379 -8.80127e-05 2.32373e-06 0.000520748 -0.000125748 4.22707e-07
-0.000331859 -8.33518e-05 2.76352e-06 -0.000529349 -8.80713e-05 2.32551e-06 0.000519481 -0.00013415 4.43711e-07
-0.000326099 -8.20151e-05 2.71937e-06 -0.000531066 -8.81186e-05 2.32706e-06 0.000538436 -0.000142019 4.59478e-07
-0.00031907 -8.0471e-05 2.67012e-06 -0.000534109 -8.81878e-05 2.33023e-06 0.000562393 -0.000149926 4.74589e-07
-0.000310876 -7.88503e-05 2.61741e-06 -0.000538457 -8.82643e-05 2.33299e-06 0.000575401 -0.000158635 4.94043e-07
-0.000301221 -7.71087e-05 2.55999e-06 -0.000542661 -8.82085e-05 2.33015e-06 0.000578539 -0.000161019 5.01969e-07
-0.000291432 -7.53423e-05 2.50177e-06 -0.000543561 -8.75852e-05 2.3058e-06 0.000494712 -0.000160798 4.73317e-07
-0.000282013 -7.34672e-05 2.44184e-06 -0.000539062 -8.68763e-05 2.2659e-06 0.000482789 -0.000160487 4.2655e-07
-0.000272647 -7.16027e-05 2.38178e-06 -0.000525523 -8.5829e-05 2.22976e-06 0.000567484 -0.000161246 3.85021e-07
-0.000261709 -6.97694e-05 2.32138e-06 -0.000522116 -8.48462e-05 2.20323e-06 0.000633571 -0.000161709 3.58011e-07
-0.000250202 -6.79495e-05 2.26095e-06 -0.000529257 -8.40626e-05 2.18592e-06 0.000625148 -0.000161819 3.52399e-07
-0.000238827 -6.6159e-05 2.20129e-06 -0.000534085 -8.31732e-05 2.16626e-06 0.000570853 -0.000161764 3.66379e-07
-0.000226894 -6.44144e-05 2.14252e-06 -0.000532471 -8.21002e-05 2.14034e-06 0.000516137 -0.000161708 3.80402e-07
-0.000215512 -6.27457e-05 2.08653e-06 -0.000528511 -8.09496e-05 2.11255e-06 0.000509971 -0.000161874 3.82422e-07
-0.00020548 -6.11932e-05 2.0351e-06 -0.000526773 -7.9819e-05 2.08683e-06 0.00055188 -0.000162252 3.72619e-07
-0.000196226 -5.97445e-05 1.98764e-06 -0.000526978 -7.87658e-05 2.06518e-06 0.00059889 -0.000162624 3.59736e-07
-0.000187465 -5.83803e-05 1.94298e-06 -0.000526299 -7.77667e-05 2.04412e-06 0.000613293 -0.000162809 3.5203e-07
-0.000179251 -5.70985e-05 1.90093e-06 -0.000523489 -7.68226e-05 2.0238e-06 0.0005978 -0.000162847 3.53592e-07
-0.000171759 -5.59116e-05 1.86199e-06 -0.000521049 -7.59846e-05 2.0059e-06 0.000571861 -0.000162827 3.5896e-07
-0.000165323 -5.4826e-05 1.82666e-06 -0.000520323 -7.52939e-05 1.99198e-06 0.000559082 -0.000162852 3.61146e-07
-0.000160181 -5.38358e-05 1.79502e-06 -0.000519801 -7.47279e-05 1.98058e-06 0.000567985 -0.000162955 3.57393e-07
-0.000156206 -5.29173e-05 1.76625e-06 -0.000517683 -7.42682e-05 1.97027e-06 0.000588478 -0.000163083 3.50495e-07
-0.000153133 -5.20485e-05 1.73943e-06 -0.000514328 -7.3934e-05 1.96175e-06 0.000604697 -0.00016305 3.46128e-07
-0.000150838 -5.12192e-05 1.71414e-06 -0.000511489 -7.37631e-05 1.95754e-06 0.000598729 -0.000162316 3.43743e-07
-0.000149733 -5.04359e-05 1.69107e-06 -0.000509175 -7.37412e-05 1.95902e-06 0.000574292 -0.000160337 3.37994e-07
-0.000150154 -4.96934e-05 1.67039e-06 -0.000505953 -7.38253e-05 1.96525e-06 0.000557739 -0.000157075 3.2639e-07
-0.000151586 -4.89709e-05 1.65106e-06 -0.000501329 -7.3976e-05 1.97482e-06 0.00055929 -0.000152626 3.08522e-07
-0.000153573 -4.82472e-05 1.63204e-06 -0.00049631 -7.41578e-05 1.98465e-06 0.000567019 -0.000147125 2.86229e-07
-0.000155575 -4.74802e-05 1.6116e-06 -0.000491888 -7.43496e-05 1.98911e-06 0.00057098 -0.000141304 2.65962e-07
-0.000157068 -4.66538e-05 1.58882e-06 -0.000486565 -7.45555e-05 1.99322e-06 0.000564926 -0.000135702 2.52589e-07
-0.000158578 -4.57883e-05 1.56495e-06 -0.000481039 -7.47265e-05 1.99659e-06 0.000544005 -0.000129993 2.41926e-07
-0.000160361 -4.48872e-05 1.54037e-06 -0.000475606 -7.48324e-05 1.99863e-06 0.000523877 -0.000123803 2.29808e-07
-0.000161874 -4.39467e-05 1.51452e-06 -0.000469514 -7.47975e-05 1.99719e-06 0.000516234 -0.00011702 2.13754e-07
-0.000162704 -4.29546e-05 1.48671e-06 -0.000462181 -7.45746e-05 1.99087e-06 0.000520087 -0.000109726 1.94463e-07
-0.00016284 -4.18986e-05 1.45666e-06 -0.000453865 -7.41515e-05 1.97946e-06 0.000525146 -0.000102239 1.75002e-07
-0.000167252 -4.15879e-05 1.44889e-06 -0.00044373 -7.33229e-05 1.9578e-06 0.000522581 -9.49732e-05 1.58044e-07
-0.000166465 -4.09239e-05 1.42737e-06 -0.000433878 -7.22117e-05 1.92638e-06 0.000512957 -8.80323e-05 1.43522e-07
-0.000164074 -4.01329e-05 1.40222e-06 -0.000424533 -7.09757e-05 1.89021e-06 0.000504991 -8.08964e-05 1.28899e-07
-0.000162174 -3.92079e-05 1.37405e-06 -0.000412752 -6.94089e-05 1.84928e-06 0.00050549 -7.37874e-05 1.13579e-07
-0.000159111 -3.80791e-05 1.33957e-06 -0.00040099 -6.76891e-05 1.80701e-06 0.000516275 -6.63546e-05 9.70512e-08
-0.000154096 -3.67593e-05 1.29833e-06 -0.000388691 -6.57255e-05 1.76147e-06 0.000531945 -5.8871e-05 8.11516e-08
-0.000147701 -3.52422e-05 1.25067e-06 -0.000376102 -6.3551e-05 1.71187e-06 0.000547228 -5.1454e-05 6.70153e-08
-0.000140341 -3.35335e-05 1.19713e-06 -0.000362661 -6.11569e-05 1.65732e-06 0.000561646 -4.41166e-05 5.46827e-08
-0.000131702 -3.16368e-05 1.13751e-06 -0.000348164 -5.85348e-05 1.59756e-06 0.000580595 -3.66153e-05 4.32451e-08
-0.000121377 -2.95546e-05 1.07165e-06 -0.000333142 -5.57065e-05 1.5333e-06 0.000612223 -2.83933e-05 3.17307e-08
-0.000109835 -2.73078e-05 1.00047e-06 -0.000317928 -5.26914e-05 1.46516e-06 0.00066306 -1.87997e-05 2.0007e-08
-9.74172e-05 -2.49113e-05 9.24655e-07 -0.000302456 -4.9513e-05 1.39354e-06 0.000737275 -7.16114e-06 8.66652e-09
-8.407e-05 -2.238e-05 8.44494e-07 -0.000286444 -4.61873e-05 1.3186e-06 0.000838355 7.14616e-06 -1.68112e-09
-6.99366e-05 -1.97528e-05 7.61069e-07 -0.000269841 -4.27307e-05 1.24068e-06 0.000970743 2.46668e-05 -1.10236e-08
-5.52248e-05 -1.7045e-05 6.74961e-07 -0.000252898 -3.91711e-05 1.16051e-06 0.00113917 4.58052e-05 -1.99475e-08
-4.02937e-05 -1.4275e-05 5.86893e-07 -0.000235743 -3.55386e-05 1.07878e-06 0.00134479 7.05993e-05 -2.91449e-08
-2.51769e-05 -1.14535e-05 4.97272e-07 -0.00021834 -3.18589e-05 9.95956e-07 0.00163913 0.000104069 -3.85712e-08
-9.90235e-06 -8.58759e-06 4.06267e-07 -0.00020074 -2.81726e-05 9.1287e-07 0.00222048 0.000165292 -4.7647e-08
5.34712e-06 -5.68894e-06 3.14341e-07 -0.000182915 -2.4499e-05 8.2992e-07 0.00286473 0.000232859 -5.71499e-08
2.03694e-05 -2.77e-06 2.21987e-07 -0.000164998 -2.0864e-05 7.4772e-07 0.00352662 0.000302466 -6.69418e-08
3.44395e-05 6.22743e-08 1.32502e-07 -0.000147054 -1.72902e-05 6.66784e-07 0.00449237 0.000400632 -7.60109e-08
4.66771e-05 2.5287e-06 5.34982e-08 -0.000129356 -1.38322e-05 5.88302e-07 0.00564506 0.000514222 -8.33047e-08
5.44812e-05 5.10274e-06 -2.14715e-08 -0.000114674 -1.08939e-05 5.21074e-07 0.00726055 0.000670274 -9.08589e-08
6.16378e-05 7.62416e-06 -9.46662e-08 -9.71717e-05 -7.84214e-06 4.50462e-07 0.00939687 0.000873466 -9.86133e-08
6.75106e-05 1.00163e-05 -1.63694e-07 -8.01764e-05 -4.95596e-06 3.83369e-07 0.0117986 0.00110037 -1.06727e-07
7.29553e-05 1.23549e-05 -2.31384e-07 -6.61546e-05 -2.04611e-06 3.08657e-07 0.0145124 0.0013555 -1.15324e-07
7.82148e-05 1.45888e-05 -2.96654e-07 -5.49176e-05 9.24971e-07 2.38467e-07 0.0172559 0.00161384 -1.24168e-07
8.20871e-05 1.66727e-05 -3.57073e-07 -4.23482e-05 3.75878e-06 1.70841e-07 0.0199713 0.00186991 -1.331e-07
8.47775e-05 1.86767e-05 -4.14427e-07 -3.01907e-05 6.38191e-06 1.08179e-07 0.0228242 0.00213907 -1.4251e-07
8.67586e-05 2.05403e-05 -4.6742e-07 -1.84064e-05 8.89646e-06 4.84311e-08 0.0258328 0.00242277 -1.52447e-07
8.93731e-05 2.22997e-05 -5.1751e-07 -7.64548e-06 1.12688e-05 -8.33853e-09 0.0290123 0.00272232 -1.62831e-07
9.19028e-05 2.39626e-05 -5.65898e-07 -3.8669e-07 1.36879e-05 -8.62985e-08 0.0323812 0.00303958 -1.74006e-07
9.55356e-05 2.55546e-05 -6.13622e-07 1.17953e-05 1.60784e-05 -1.67379e-07 0.0358301 0.00336466 -1.85424e-07
9.79734e-05 2.69841e-05 -6.55877e-07 2.61548e-05 1.83834e-05 -2.44641e-07 0.0391959 0.00368225 -1.96651e-07
9.91197e-05 2.82811e-05 -6.93169e-07 3.67504e-05 2.05101e-05 -3.15528e-07 0.0425473 0.00399868 -2.07898e-07
0.000100094 2.9443e-05 -7.26708e-07 4.45008e-05 2.2498e-05 -3.80755e-07 0.0459253 0.00431755 -2.19284e-07
0.000101257 3.04925e-05 -7.57391e-07 5.3131e-05 2.43998e-05 -4.43146e-07 0.0493581 0.00464137 -2.30794e-07
0.000100277 3.15885e-05 -8.09584e-07 6.23819e-05 2.62921e-05 -5.09681e-07 0.0528367 0.00496931 -2.4232e-07
0.00010367 3.26039e-05 -8.71249e-07 7.15701e-05 2.81034e-05 -5.73526e-07 0.0563011 0.00529581 -2.53713e-07
0.000107389 3.35656e-05 -9.29552e-07 7.90581e-05 2.98776e-05 -6.35291e-07 0.0593099 0.00558281 -2.74902e-07
0.000106351 3.44356e-05 -9.79904e-07 8.63666e-05 3.15891e-05 -6.99142e-07 0.0627291 0.00590778 -3.01709e-07
0.000105133 3.5273e-05 -1.02893e-06 9.68559e-05 3.32064e-05 -7.59627e-07 0.0672892 0.00633588 -3.28919e-07
0.000106558 3.61135e-05 -1.07935e-06 0.000107206 3.47262e-05 -8.15736e-07 0.0742331 0.00697786 -3.49574e-07
0.000107622 3.69649e-05 -1.12978e-06 0.000114162 3.60173e-05 -8.64679e-07 0.0827198 0.00775963 -3.67441e-07
0.000107114 3.78097e-05 -1.17955e-06 0.000120162 3.73014e-05 -9.12517e-07 0.090113 0.00844134 -3.84445e-07
0.000107254 3.8676e-05 -1.23106e-06 0.000126901 3.85423e-05 -9.58752e-07 0.0963548 0.00901815 -4.00814e-07
0.000108457 3.96092e-05 -1.28604e-06 0.000134194 3.97112e-05 -1.00281e-06 0.105439 0.00985072 -3.99324e-07
0.00010974 4.0664e-05 -1.34538e-06 0.000138066 4.02922e-05 -1.03243e-06 0.122427 0.0114003 -3.8324e-07
0.000110474 4.17768e-05 -1.40733e-06 0.000142053 4.09936e-05 -1.06378e-06 0.140007 0.0129966 -3.65246e-07
0.000111947 4.28503e-05 -1.46984e-06 0.000145348 4.18919e-05 -1.09859e-06 0.152169 0.0140983 -3.57062e-07
0.00011465 4.40163e-05 -1.53661e-06 0.000146687 4.26532e-05 -1.12984e-06 0.163141 0.0150961 -3.50022e-07
0.000116873 4.52392e-05 -1.60546e-06 0.000149614 4.35292e-05 -1.16494e-06 0.168057 0.0155492 -3.55063e-07
0.000118884 4.64152e-05 -1.67418e-06 0.00015518 4.47718e-05 -1.2089e-06 0.168293 0.0155765 -3.63622e-07
0.000122615 4.77324e-05 -1.74849e-06 0.000157653 4.57008e-05 -1.24514e-06 0.168735 0.0156214 -3.70061e-07
0.000126307 4.90848e-05 -1.82478e-06 0.000158817 4.6658e-05 -1.28125e-06 0.170145 0.0157501 -3.71577e-07
0.000130266 5.04925e-05 -1.90354e-06 0.000158666 4.75426e-05 -1.31537e-06 0.172252 0.0159399 -3.69554e-07
0.000134919 5.19608e-05 -1.98499e-06 0.000158242 4.83972e-05 -1.34885e-06 0.173669 0.0160668 -3.66653e-07
0.00013994 5.34503e-05 -2.06773e-06 0.000158181 4.93145e-05 -1.38395e-06 0.173636 0.0160618 -3.6164e-07
0.000145306 5.49855e-05 -2.15211e-06 0.000157231 5.01339e-05 -1.41677e-06 0.173435 0.016041 -3.53181e-07
0.000150836 5.65436e-05 -2.23721e-06 0.000155657 5.09117e-05 -1.44823e-06 0.173228 0.0160179 -3.4215e-07
0.000156656 5.80961e-05 -2.32197e-06 0.000153351 5.1655e-05 -1.47809e-06 0.173078 0.0159981 -3.29687e-07
0.000162781 5.96419e-05 -2.40593e-06 0.000150136 5.233e-05 -1.50554e-06 0.172819 0.0159666 -3.16096e-07
0.000168854 6.11522e-05 -2.48777e-06 0.000146557 5.29621e-05 -1.53133e-06 0.171998 0.0158818 -3.01539e-07
0.000174832 6.26178e-05 -2.5669e-06 0.000143006 5.3539e-05 -1.55521e-06 0.170688 0.0157508 -2.85353e-07
0.139632 0.00803169 -1.18384e-06 0.000101359 4.26211e-05 -1.26277e-06 0.170312 0.0157165 -2.83103e-07
0.252008 0.0143917 -8.07815e-07 0.000116206 3.21238e-05 -8.90188e-07 0.17137 0.0158266 -2.96029e-07
0.27907 0.01593 -8.04124e-07 0.000156829 3.71401e-05 -9.9278e-07 0.168508 0.0155334 -2.57687e-07
0.256733 0.0146752 -8.65676e-07 9.73553e-05 3.75087e-05 -1.10146e-06 0.167658 0.0154434 -2.30601e-07
0.23727 0.0135694 -9.26783e-07 8.13782e-05 4.13027e-05 -1.23872e-06 0.164037 0.0150892 -2.00325e-07
0.257333 0.0147081 -1.00088e-06 8.68235e-05 4.0844e-05 -1.20372e-06 0.158219 0.014543 -1.81978e-07
0.283376 0.0161903 -1.04355e-06 9.43558e-05 4.02344e-05 -1.1746e-06 0.152818 0.0140428 -1.65516e-07
0.285752 0.0163302 -1.06357e-06 8.8951e-05 4.26307e-05 -1.2688e-06 0.145684 0.0133807 -1.42609e-07
0.283512 0.0162086 -1.09405e-06 6.53153e-05 4.39546e-05 -1.34504e-06 0.139325 0.0127899 -1.1998e-07
0.286578 0.016384 -1.18957e-06 5.65452e-05 4.49032e-05 -1.37785e-06 0.133574 0.0122557 -1.00414e-07
0.296606 0.0169514 -1.19507e-06 5.80865e-05 4.61122e-05 -1.41029e-06 0.127226 0.0116662 -8.09741e-08
0.307298 0.0175608 -1.20865e-06 4.80042e-05 4.59309e-05 -1.42358e-06 0.12179 0.0111617 -6.20786e-08
0.308962 0.017657 -1.23531e-06 4.32867e-05 4.72425e-05 -1.47375e-06 0.116178 0.0106408 -4.35734e-08
0.310824 0.0177639 -1.25656e-06 3.43509e-05 4.79982e-05 -1.50554e-06 0.110368 0.0101021 -2.62731e-08
0.316794 0.0181028 -1.25822e-06 2.59361e-05 4.79345e-05 -1.50791e-06 0.105738 0.0096728 -1.16604e-08
0.323576 0.0184875 -1.25306e-06 2.29947e-05 4.7861e-05 -1.50511e-06 0.101473 0.00927688 1.79819e-09
0.327037 0.0186845 -1.25652e-06 2.00753e-05 4.76769e-05 -1.50091e-06 0.0979052 0.00894539 1.37133e-08
0.326995 0.0186827 -1.25911e-06 1.61114e-05 4.74961e-05 -1.49605e-06 0.0948221 0.00865902 2.36762e-08
0.326927 0.0186791 -1.26107e-06 1.16062e-05 4.69243e-05 -1.47582e-06 0.0921851 0.0084145 3.12291e-08
0.326974 0.0186813 -1.25719e-06 9.50177e-06 4.60401e-05 -1.44136e-06 0.0902045 0.00823112 3.64382e-08
0.326717 0.0186661 -1.24131e-06 8.9805e-06 4.49024e-05 -1.39824e-06 0.0888423 0.00810494 3.99643e-08
0.326087 0.0186296 -1.21206e-06 8.35014e-06 4.34443e-05 -1.3454e-06 0.0882652 0.00805141 4.16736e-08
0.325402 0.0185894 -1.17612e-06 8.03448e-06 4.17294e-05 -1.28199e-06 0.0882484 0.00805011 4.10452e-08
0.324704 0.0185484 -1.13741e-06 8.36541e-06 3.9822e-05 -1.20997e-06 0.0883147 0.00805786 3.71481e-08
0.32309 0.0184548 -1.1012e-06 9.49709e-06 3.78173e-05 -1.13399e-06 0.0884132 0.00807001 3.0501e-08
0.319345 0.0182401 -1.07383e-06 1.15816e-05 3.58562e-05 -1.05923e-06 0.0885344 0.00808533 2.17557e-08
0.313913 0.0179298 -1.04959e-06 1.41682e-05 3.39711e-05 -9.86657e-07 0.0886822 0.00810394 1.11334e-08
0.308201 0.0176034 -1.02331e-06 1.65953e-05 3.20374e-05 -9.12446e-07 0.0888675 0.00812679 -1.51543e-09
0.302902 0.0173002 -9.86468e-07 1.89136e-05 3.00999e-05 -8.3875e-07 0.0890802 0.00815276 -1.56287e-08
0.29764 0.016999 -9.49649e-07 2.1734e-05 2.82424e-05 -7.6777e-07 0.0893054 0.00818032 -3.06686e-08
0.291981 0.0166753 -9.13394e-07 2.48881e-05 2.65748e-05 -7.03607e-07 0.0896133 0.0082161 -4.54448e-08
0.286221 0.0163459 -8.77741e-07 2.77478e-05 2.50567e-05 -6.45422e-07 0.0902233 0.00828047 -5.89103e-08
0.280826 0.0160372 -8.42528e-07 3.04915e-05 2.37057e-05 -5.93227e-07 0.0912582 0.00838275 -6.97122e-08
0.275954 0.0157583 -8.08425e-07 3.29983e-05 2.2522e-05 -5.47552e-07 0.0928552 0.00853515 -7.86277e-08
0.271295 0.0154918 -7.77607e-07 3.55629e-05 2.16113e-05 -5.11757e-07 0.0947622 0.00871467 -8.62605e-08
0.266761 0.0152325 -7.4781e-07 3.78233e-05 2.0995e-05 -4.87128e-07 0.0967667 0.00890109 -9.26108e-08
0.262673 0.0149987 -7.19083e-07 3.95797e-05 2.06365e-05 -4.72564e-07 0.0985061 0.00906302 -9.82967e-08
0.259274 0.014804 -6.91237e-07 4.11834e-05 2.05555e-05 -4.68123e-07 0.099849 0.00918837 -1.03273e-07
0.256578 0.0146494 -6.6493e-07 4.25241e-05 2.0728e-05 -4.73341e-07 0.100859 0.00928292 -1.07414e-07
0.25442 0.0145255 -6.40895e-07 4.356e-05 2.116e-05 -4.88469e-07 0.101646 0.00935644 -1.10556e-07
0.252749 0.0144295 -6.19403e-07 4.42109e-05 2.1834e-05 -5.12833e-07 0.102273 0.00941479 -1.12659e-07
0.251672 0.0143674 -6.00311e-07 4.44622e-05 2.27108e-05 -5.44966e-07 0.102726 0.00945671 -1.13839e-07
0.251228 0.0143413 -5.83411e-07 4.44695e-05 2.37651e-05 -5.83805e-07 0.102936 0.00947605 -1.14246e-07
0.251244 0.0143416 -5.69769e-07 4.43043e-05 2.4975e-05 -6.28578e-07 0.102932 0.00947536 -1.13633e-07
0.251331 0.0143461 -5.59392e-07 4.3986e-05 2.63316e-05 -6.78899e-07 0.102899 0.0094716 -1.11855e-07
0.251452 0.0143526 -5.51542e-07 4.34129e-05 2.77948e-05 -7.33415e-07 0.102857 0.00946655 -1.09194e-07
0.251605 0.0143609 -5.44975e-07 4.26698e-05 2.93223e-05 -7.90315e-07 0.102794 0.00945917 -1.06193e-07
0.251773 0.01437 -5.38166e-07 4.19232e-05 3.08873e-05 -8.4837e-07 0.102611 0.00944022 -1.0319e-07
0.251907 0.0143772 -5.28891e-07 4.11533e-05 3.24416e-05 -9.06066e-07 0.102394 0.00941823 -1.00158e-07
0.251978 0.0143806 -5.15219e-07 4.04288e-05 3.39438e-05 -9.61918e-07 0.102168 0.00939553 -9.73173e-08
0.251966 0.0143791 -4.9543e-07 3.98532e-05 3.536e-05 -1.01445e-06 0.101975 0.00937616 -9.49454e-08
0.251849 0.0143713 -4.67862e-07 3.93739e-05 3.66464e-05 -1.06204e-06 0.101817 0.00936048 -9.34586e-08
0.251932 0.0143756 -4.45117e-07 3.80172e-05 3.76005e-05 -1.09984e-06 0.101756 0.00935445 -9.28904e-08
0.251909 0.0143735 -4.13304e-07 3.65186e-05 3.82283e-05 -1.12765e-06 0.101784 0.00935749 -9.38761e-08
0.251644 0.0143572 -3.67778e-07 3.65631e-05 3.88345e-05 -1.15171e-06 0.101909 0.00936974 -9.51307e-08
0.251258 0.0143336 -3.12459e-07 3.55774e-05 3.90389e-05 -1.1629e-06 0.10227 0.00940491 -9.77041e-08
0.249292 0.0142201 -2.61624e-07 3.53886e-05 3.91382e-05 -1.168e-06 0.102769 0.00945332 -1.01228e-07
0.244735 0.0139589 -2.05859e-07 3.60275e-05 3.92395e-05 -1.17092e-06 0.103538 0.00952559 -1.04715e-07
0.238525 0.0136036 -1.45742e-07 3.60105e-05 3.90474e-05 -1.16444e-06 0.104702 0.00963416 -1.0881e-07
0.231519 0.0132026 -7.85225e-08 3.68149e-05 3.86131e-05 -1.14741e-06 0.106107 0.00976514 -1.13726e-07
0.224057 0.0127753 -5.01466e-09 3.81987e-05 3.78764e-05 -1.11814e-06 0.1077 0.00991382 -1.19482e-07
0.215578 0.01229 6.65988e-08 3.99821e-05 3.68564e-05 -1.07737e-06 0.109445 0.0100766 -1.25907e-07
0.205463 0.0117116 1.35983e-07 4.27287e-05 3.57026e-05 -1.02892e-06 0.111107 0.0102319 -1.32706e-07
0.194289 0.0110728 2.0807e-07 4.51867e-05 3.42734e-05 -9.7041e-07 0.112802 0.0103903 -1.39871e-07
0.182673 0.0104087 2.78646e-07 4.7403e-05 3.25559e-05 -9.01723e-07 0.114585 0.010557 -1.47307e-07
0.170924 0.00973679 3.49694e-07 4.97649e-05 3.05703e-05 -8.22922e-07 0.1164 0.0107266 -1.54775e-07
0.158986 0.00905421 4.22056e-07 5.19135e-05 2.83032e-05 -7.34115e-07 0.118244 0.0108988 -1.6212e-07
0.14653 0.00834215 4.95043e-07 5.38981e-05 2.585e-05 -6.38401e-07 0.120016 0.0110642 -1.69074e-07
0.133696 0.00760865 5.68106e-07 5.55391e-05 2.32282e-05 -5.36604e-07 0.121616 0.0112136 -1.75435e-07
0.120859 0.00687499 6.35297e-07 5.65134e-05 2.04698e-05 -4.30625e-07 0.122984 0.0113415 -1.80952e-07
0.108354 0.0061603 6.90448e-07 5.65788e-05 1.76276e-05 -3.22856e-07 0.124061 0.0114422 -1.85312e-07
0.0963847 0.00547614 7.28193e-07 5.54903e-05 1.4748e-05 -2.15178e-07 0.124809 0.0115123 -1.88261e-07
0.0850271 0.00482687 7.53462e-07 5.36516e-05 1.19253e-05 -1.09729e-07 0.125177 0.0115468 -1.89635e-07
0.0742347 0.00420989 7.73709e-07 5.15012e-05 9.27746e-06 -9.15492e-09 0.125165 0.0115452 -1.88513e-07
0.063598 0.00360183 7.91179e-07 4.75067e-05 6.60196e-06 8.91405e-08 0.125098 0.0115374 -1.84523e-07
0.0532191 0.00300852 8.08183e-07 4.30363e-05 4.06721e-06 1.77913e-07 0.124982 0.0115237 -1.77281e-07
0.0432926 0.00244096 8.2363e-07 3.74786e-05 1.68718e-06 2.61551e-07 0.124527 0.0114765 -1.68289e-07
0.0339892 0.00190884 8.38227e-07 2.88867e-05 -3.37547e-07 3.40242e-07 0.123645 0.0113873 -1.56119e-07
0.0252237 0.00140737 8.52089e-07 1.78105e-05 -2.30942e-06 4.12133e-07 0.122362 0.0112603 -1.42226e-07
0.0168995 0.00093107 8.65273e-07 5.86564e-06 -4.09862e-06 4.69527e-07 0.119922 0.0110272 -1.28318e-07
0.00912089 0.000485819 8.77667e-07 -4.73679e-06 -5.6859e-06 5.13169e-07 0.116185 0.0106782 -1.14499e-07
0.00202416 7.93704e-05 8.89484e-07 -1.43148e-05 -7.13609e-06 5.48418e-07 0.111687 0.0102606 -9.96454e-08
0.000713296 2.32245e-06 9.52621e-07 -2.64226e-05 -8.74565e-06 5.86048e-07 0.106877 0.00981405 -8.35473e-08
0.000639854 -5.30386e-06 9.90471e-07 -4.08572e-05 -1.05418e-05 6.28019e-07 0.102043 0.00936481 -6.64262e-08
0.000588335 -1.11353e-05 1.03134e-06 -5.22195e-05 -1.19026e-05 6.59973e-07 0.0967712 0.00887399 -4.70519e-08
0.000528415 -1.67494e-05 1.08724e-06 -6.60513e-05 -1.34861e-05 6.97273e-07 0.091337 0.00836798 -2.65866e-08
0.000508403 -1.95491e-05 1.11824e-06 -8.02323e-05 -1.50653e-05 7.3463e-07 0.085474 0.00782236 -4.77777e-09
0.000499656 -2.20783e-05 1.14514e-06 -9.43916e-05 -1.66341e-05 7.71818e-07 0.0791422 0.00723392 1.70018e-08
0.000492362 -2.43016e-05 1.17069e-06 -0.000107764 -1.80883e-05 8.06456e-07 0.0724619 0.00661394 3.64855e-08
0.000481985 -2.64892e-05 1.19928e-06 -0.000121799 -1.96018e-05 8.42475e-07 0.0659823 0.00601238 5.35402e-08
0.000474866 -2.85249e-05 1.22636e-06 -0.000134982 -2.10524e-05 8.76709e-07 0.0598475 0.00544406 6.05441e-08
0.000470971 -3.04574e-05 1.25186e-06 -0.000146768 -2.24676e-05 9.0934e-07 0.0548134 0.00497523 6.5889e-08
0.000467387 -3.23301e-05 1.27768e-06 -0.000158629 -2.39355e-05 9.42903e-07 0.0506633 0.00458677 7.00244e-08
0.000462999 -3.42338e-05 1.30558e-06 -0.000171014 -2.54226e-05 9.77174e-07 0.0464388 0.00419168 7.43363e-08
0.000459616 -3.61474e-05 1.33414e-06 -0.000184227 -2.6963e-05 1.01297e-06 0.0414812 0.00373037 7.98009e-08
0.000457311 -3.80921e-05 1.36351e-06 -0.000197491 -2.85324e-05 1.04935e-06 0.0356704 0.00319181 8.6525e-08
0.000454915 -4.01042e-05 1.39503e-06 -0.000210586 -3.01508e-05 1.08651e-06 0.0295239 0.00262287 9.37093e-08
0.000452201 -4.21942e-05 1.42914e-06 -0.000223728 -3.18417e-05 1.12497e-06 0.0237796 0.00209053 1.00284e-07
0.000449603 -4.43767e-05 1.46582e-06 -0.000237074 -3.36118e-05 1.16497e-06 0.0188683 0.00163397 1.05663e-07
0.000447218 -4.66599e-05 1.50523e-06 -0.000250634 -3.54678e-05 1.20663e-06 0.0147134 0.00124645 1.10022e-07
0.00044479 -4.90555e-05 1.54786e-06 -0.000264283 -3.74082e-05 1.24986e-06 0.0108457 0.00088553 1.14082e-07
0.000442326 -5.15695e-05 1.5939e-06 -0.000278013 -3.94315e-05 1.29464e-06 0.00678305 0.000507528 1.18541e-07
0.000440043 -5.42002e-05 1.64321e-06 -0.000291989 -4.15437e-05 1.34121e-06 0.00237139 9.84028e-05 1.2363e-07
0.000437966 -5.69365e-05 1.69561e-06 -0.000306621 -4.37946e-05 1.39067e-06 0.000995787 -3.20356e-05 1.38831e-07
0.000435952 -5.97313e-05 1.7504e-06 -0.000322282 -4.62775e-05 1.44481e-06 0.000895365 -4.57337e-05 1.49477e-07
0.000433476 -6.26981e-05 1.81016e-06 -0.000335956 -4.86604e-05 1.49601e-06 0.00086945 -5.37574e-05 1.56076e-07
0.000431355 -6.57405e-05 1.8723e-06 -0.000350417 -5.12074e-05 1.55059e-06 0.000864698 -5.9499e-05 1.60623e-07
0.000429333 -6.88895e-05 1.9376e-06 -0.000365056 -5.38167e-05 1.60647e-06 0.000846605 -6.53915e-05 1.67512e-07
0.000427423 -7.21308e-05 2.0057e-06 -0.000380204 -5.65233e-05 1.66444e-06 0.00081453 -7.12872e-05 1.77235e-07
0.000425675 -7.5456e-05 2.0763e-06 -0.000395453 -5.93007e-05 1.72376e-06 0.000783403 -7.64864e-05 1.87425e-07
0.000423944 -7.88628e-05 2.14944e-06 -0.000410392 -6.2111e-05 1.78348e-06 0.000765741 -8.06407e-05 1.95357e-07
0.000422192 -8.23298e-05 2.22459e-06 -0.00042506 -6.49501e-05 1.84356e-06 0.000762867 -8.38402e-05 2.00229e-07
0.00042037 -8.58347e-05 2.30124e-06 -0.000439537 -6.78111e-05 1.90394e-06 0.000765737 -8.65255e-05 2.03657e-07
0.000418507 -8.93496e-05 2.37865e-06 -0.00045398 -7.06978e-05 1.96478e-06 0.000764093 -8.91139e-05 2.0781e-07
0.000416642 -9.28527e-05 2.45622e-06 -0.000468375 -7.35996e-05 2.02588e-06 0.000754469 -9.17665e-05 2.13546e-07
0.000414797 -9.63265e-05 2.53346e-06 -0.000482638 -7.6498e-05 2.08687e-06 0.000741225 -9.43684e-05 2.19975e-07
0.000412952 -9.97573e-05 2.61003e-06 -0.000496629 -7.93683e-05 2.14719e-06 0.000731476 -9.67478e-05 2.25616e-07
0.000411145 -0.000103128 2.68546e-06 -0.000510277 -8.21912e-05 2.20645e-06 0.000728158 -9.88722e-05 2.29814e-07
0.000409458 -0.000106422 2.75928e-06 -0.000523614 -8.49547e-05 2.26446e-06 0.000728562 -0.000100871 2.33205e-07
0.000407981 -0.000109624 2.83098e-06 -0.000536718 -8.76492e-05 2.32107e-06 0.000727817 -0.000102931 2.36993e-07
0.000406975 -0.000112624 2.89793e-06 -0.000535694 -8.82475e-05 2.33173e-06 0.000723919 -0.000104977 2.41448e-07
0.000407205 -0.000114659 2.94303e-06 -0.000537367 -8.84283e-05 2.33241e-06 0.000723063 -0.000104909 2.41736e-07
0.000405223 -0.00011659 2.98801e-06 -0.000538749 -8.85883e-05 2.33275e-06 0.000716744 -0.000105878 2.44907e-07
0.00040462 -0.000116768 2.99254e-06 -0.000537803 -8.86633e-05 2.33024e-06 0.000708332 -0.000108413 2.51242e-07
0.000404907 -0.00011702 2.99759e-06 -0.000536396 -8.87106e-05 2.32832e-06 0.000706396 -0.000111024 2.56592e-07
0.000406034 -0.0001172 3.00015e-06 -0.000537118 -8.88076e-05 2.33051e-06 0.000710436 -0.000113293 2.6025e-07
0.000405562 -0.000117368 3.00431e-06 -0.000539032 -8.89352e-05 2.33404e-06 0.000714832 -0.000115229 2.6332e-07
0.000405827 -0.000117548 3.00787e-06 -0.000540005 -8.90258e-05 2.33629e-06 0.000712585 -0.00011821 2.69748e-07
0.000408054 -0.000117728 3.00916e-06 -0.000541045 -8.91099e-05 2.33847e-06 0.000707989 -0.000121421 2.77208e-07
0.000410252 -0.000117884 3.00997e-06 -0.00054291 -8.92151e-05 2.34159e-06 0.000705731 -0.000124399 2.83857e-07
0.000411177 -0.000118027 3.01201e-06 -0.00054498 -8.93217e-05 2.34487e-06 0.000706654 -0.000127464 2.90095e-07
0.000412428 -0.000118174 3.01373e-06 -0.000546876 -8.9417e-05 2.34783e-06 0.000709525 -0.000130765 2.96459e-07
0.000414364 -0.000118311 3.01444e-06 -0.000548641 -8.95086e-05 2.35065e-06 0.000712566 -0.000134103 3.02933e-07
0.000415773 -0.000118433 3.01544e-06 -0.000550284 -8.96011e-05 2.35338e-06 0.0007139 -0.000137414 3.0979e-07
0.000416548 -0.000118548 3.01703e-06 -0.000551797 -8.969e-05 2.35597e-06 0.000713404 -0.000140835 3.17324e-07
0.000417685 -0.000118659 3.01812e-06 -0.000553444 -8.97781e-05 2.35864e-06 0.000712841 -0.00014434 3.25094e-07
0.000419113 -0.000118763 3.01872e-06 -0.000555408 -8.98713e-05 2.36077e-06 0.000714035 -0.000147771 3.32368e-07
0.000420158 -0.00011886 3.01959e-06 -0.000557045 -8.99599e-05 2.3625e-06 0.000716793 -0.00015111 3.3915e-07
0.000420835 -0.000118952 3.02081e-06 -0.000558265 -9.00409e-05 2.36379e-06 0.00071965 -0.000154424 3.45888e-07
0.000421556 -0.000119041 3.0219e-06 -0.000559421 -9.01204e-05 2.365e-06 0.000721487 -0.000157712 3.52819e-07
0.000422243 -0.000119125 3.02292e-06 -0.000560703 -9.02029e-05 2.36633e-06 0.000722282 -0.000160929 3.59843e-07
0.000422587 -0.000119205 3.02424e-06 -0.000561883 -9.02841e-05 2.36756e-06 0.00072382 -0.000161488 3.6083e-07
0.000422579 -0.000119286 3.02599e-06 -0.000562556 -9.03523e-05 2.36819e-06 0.000723789 -0.000161587 3.61045e-07
0.000422541 -0.000119365 3.02774e-06 -0.000563045 -9.04171e-05 2.36859e-06 0.000723284 -0.000161677 3.61349e-07
0.000422334 -0.000119431 3.02941e-06 -0.000563481 -9.04871e-05 2.36902e-06 0.000722903 -0.000161763 3.61609e-07
0.00042153 -0.000119491 3.03162e-06 -0.000563583 -9.05526e-05 2.3691e-06 0.000723141 -0.000161845 3.61717e-07
0.000420557 -0.000119548 3.03396e-06 -0.000563394 -9.06124e-05 2.36885e-06 0.000723714 -0.000161928 3.61743e-07
0.000419596 -0.000119597 3.03612e-06 -0.000563126 -9.06726e-05 2.36854e-06 0.000724257 -0.000162006 3.61769e-07
0.000418355 -0.000119639 3.03845e-06 -0.000562698 -9.07322e-05 2.36828e-06 0.00072431 -0.000162078 3.61904e-07
0.000416768 -0.000119676 3.04107e-06 -0.000561966 -9.07869e-05 2.36867e-06 0.000723784 -0.000162148 3.6217e-07
0.000414682 -0.000119717 3.04433e-06 -0.00056117 -9.08563e-05 2.36925e-06 0.0007231 -0.000162233 3.625e-07
0.000412716 -0.000119751 3.04731e-06 -0.000560378 -9.09249e-05 2.36982e-06 0.00072302 -0.000162316 3.62685e-07
0.000410751 -0.000119782 3.05021e-06 -0.000559468 -9.09885e-05 2.37023e-06 0.000723327 -0.0001624 3.62779e-07
0.000408984 -0.00011981 3.05284e-06 -0.00055872 -9.10507e-05 2.37072e-06 0.000723524 -0.000162484 3.629e-07
0.000407484 -0.000119834 3.05507e-06 -0.000558301 -9.11141e-05 2.37148e-06 0.000723478 -0.000162567 3.63079e-07
0.000406586 -0.000119501 3.04812e-06 -0.000557844 -9.11669e-05 2.37203e-06 0.000723343 -0.000162655 3.63286e-07
0.000403951 -0.000119185 3.04218e-06 -0.000557581 -9.12106e-05 2.37257e-06 0.000723525 -0.000162752 3.63436e-07
0.000403038 -0.000118744 3.02975e-06 -0.000557791 -9.1264e-05 2.3736e-06 0.000724547 -0.000162846 3.63374e-07
0.000402031 -0.000118244 3.01405e-06 -0.000557774 -9.13082e-05 2.37432e-06 0.000725276 -0.000162941 3.63389e-07
0.000400514 -0.000117653 2.9944e-06 -0.000557975 -9.13499e-05 2.37515e-06 0.000725713 -0.000163036 3.63478e-07
0.000399398 -0.000116936 2.96883e-06 -0.000558652 -9.13971e-05 2.37641e-06 0.000726381 -0.00016313 3.63506e-07
0.000398248 -0.000116061 2.93623e-06 -0.000559353 -9.14391e-05 2.3776e-06 0.000727362 -0.000163226 3.63461e-07
0.000396713 -0.000114966 2.89483e-06 -0.000560046 -9.14761e-05 2.3787e-06 0.000728615 -0.000163323 3.63348e-07
0.00039524 -0.000113643 2.84531e-06 -0.000560851 -9.15107e-05 2.37984e-06 0.000729871 -0.000163418 3.6323e-07
0.000394284 -0.000112135 2.797e-06 -0.000561518 -9.15374e-05 2.38075e-06 0.000730985 -0.000163511 3.63146e-07
0.000392101 -0.000110455 2.75578e-06 -0.000561588 -9.15494e-05 2.38099e-06 0.000731943 -0.000163601 3.63095e-07
0.00038936 -0.000108632 2.71505e-06 -0.000561246 -9.15492e-05 2.38075e-06 0.000732794 -0.000163688 3.63064e-07
0.000388032 -0.000106642 2.66893e-06 -0.000560544 -9.14625e-05 2.37884e-06 0.000733808 -0.000163774 3.62989e-07
0.000386643 -0.000104424 2.61768e-06 -0.000559707 -9.1218e-05 2.37223e-06 0.000735171 -0.000163858 3.62821e-07
0.00038514 -0.000102018 2.56216e-06 -0.000557981 -9.07462e-05 2.35709e-06 0.000736601 -0.000163936 3.62626e-07
0.000384867 -9.94515e-05 2.50167e-06 -0.000554871 -9.00289e-05 2.33278e-06 0.000737805 -0.000164008 3.62475e-07
0.000385274 -9.67637e-05 2.43779e-06 -0.000551051 -8.90736e-05 2.29948e-06 0.000738864 -0.000164072 3.62345e-07
0.000386144 -9.39868e-05 2.37157e-06 -0.000546396 -8.79162e-05 2.26062e-06 0.000739989 -0.00016413 3.62184e-07
0.000387036 -9.11728e-05 2.30495e-06 -0.000539995 -8.66183e-05 2.22713e-06 0.000741273 -0.000164181 3.61968e-07
0.000387148 -8.83233e-05 2.23884e-06 -0.000534341 -8.52201e-05 2.19705e-06 0.000743346 -0.000164228 3.61543e-07
0.000387868 -8.54101e-05 2.17107e-06 -0.000528385 -8.36784e-05 2.164e-06 0.000745882 -0.000164265 3.60983e-07
0.00038927 -8.24404e-05 2.10247e-06 -0.000519942 -8.19519e-05 2.12589e-06 0.000747907 -0.000164286 3.6052e-07
0.000390405 -7.94283e-05 2.0337e-06 -0.000510455 -8.00918e-05 2.08457e-06 0.000749318 -0.00016405 3.59622e-07
0.000391824 -7.6401e-05 1.96484e-06 -0.000501034 -7.81126e-05 2.04104e-06 0.000748323 -0.000162991 3.55835e-07
0.000393495 -7.33731e-05 1.89636e-06 -0.000490596 -7.6017e-05 1.99519e-06 0.000747007 -0.000160902 3.48087e-07
0.000394953 -7.03668e-05 1.82935e-06 -0.000478342 -7.37985e-05 1.94698e-06 0.00074617 -0.000157764 3.36284e-07
0.000396492 -6.73872e-05 1.76367e-06 -0.00046529 -7.14924e-05 1.89667e-06 0.000743854 -0.000153495 3.2021e-07
0.000398251 -6.44396e-05 1.69938e-06 -0.000451548 -6.91093e-05 1.84451e-06 0.00073927 -0.000148094 3.00027e-07
0.000399991 -6.15165e-05 1.63668e-06 -0.000436776 -6.66592e-05 1.79049e-06 0.000735439 -0.000141729 2.76959e-07
0.000402013 -5.85944e-05 1.57482e-06 -0.000421553 -6.41861e-05 1.73585e-06 0.000741056 -0.000135475 2.591e-07
0.000404772 -5.56497e-05 1.51307e-06 -0.000407257 -6.17382e-05 1.68236e-06 0.000736162 -0.00012894 2.44599e-07
0.000407571 -5.267e-05 1.45209e-06 -0.000392627 -5.92797e-05 1.6285e-06 0.000723993 -0.000121744 2.30208e-07
0.000410608 -4.96355e-05 1.39155e-06 -0.000376478 -5.67792e-05 1.57293e-06 0.00071872 -0.000113504 2.12394e-07
0.000414371 -4.65432e-05 1.3313e-06 -0.00035944 -5.4241e-05 1.51616e-06 0.000724225 -0.000104077 1.90686e-07
0.000418971 -4.33942e-05 1.27169e-06 -0.000342433 -5.16886e-05 1.45918e-06 0.000732833 -9.36189e-05 1.67748e-07
0.000424798 -4.01851e-05 1.21282e-06 -0.000325222 -4.91156e-05 1.40173e-06 0.000739448 -8.22017e-05 1.45449e-07
0.000432391 -3.69104e-05 1.15477e-06 -0.000307348 -4.64964e-05 1.34302e-06 0.000752104 -6.93945e-05 1.22949e-07
0.000442118 -3.35613e-05 1.09783e-06 -0.000288993 -4.38164e-05 1.2829e-06 0.000789643 -5.38588e-05 9.86767e-08
0.000453039 -3.03331e-05 1.04568e-06 -0.000270309 -4.10556e-05 1.22111e-06 0.000887413 -3.23192e-05 7.28644e-08
0.000464505 -2.75409e-05 1.00212e-06 -0.000250565 -3.81101e-05 1.15543e-06 0.0011438 5.33061e-06 4.76354e-08
0.000480746 -2.4368e-05 9.55422e-07 -0.000231462 -3.52011e-05 1.09071e-06 0.00166604 7.04225e-05 2.34151e-08
0.000500259 -2.09227e-05 9.09006e-07 -0.000211667 -3.22137e-05 1.02412e-06 0.00226765 0.000143579 -5.1464e-10
0.000528213 -1.6938e-05 8.60028e-07 -0.000191691 -2.91905e-05 9.56763e-07 0.00305545 0.000234778 -2.41414e-08
0.000568983 -1.20987e-05 8.08347e-07 -0.000171837 -2.61611e-05 8.89358e-07 0.00471986 0.000408998 -4.45558e-08
0.00063377 -5.71136e-06 7.53792e-07 -0.000152323 -2.3168e-05 8.22706e-07 0.00800773 0.00073044 -5.89653e-08
0.000759069 4.34995e-06 6.95231e-07 -0.000133448 -2.02778e-05 7.58208e-07 0.0127107 0.00117332 -6.67857e-08
0.00110973 2.75542e-05 6.36047e-07 -0.000113724 -1.73273e-05 6.92106e-07 0.0191997 0.00177514 -7.33723e-08
0.00229444 9.90473e-05 5.7768e-07 -9.49426e-05 -1.44787e-05 6.28369e-07 0.0266418 0.00246237 -7.95719e-08
0.00384205 0.000191491 5.15751e-07 -7.5692e-05 -1.15753e-05 5.63423e-07 0.0336079 0.00310589 -8.54085e-08
0.00541463 0.000285606 4.52648e-07 -5.65467e-05 -8.648e-06 4.98113e-07 0.0396108 0.0036613 -9.05879e-08
0.0070242 0.000381971 3.87945e-07 -3.76379e-05 -5.68944e-06 4.32391e-07 0.044864 0.00414797 -9.52619e-08
0.00896343 0.000497303 3.24124e-07 -1.89031e-05 -2.70962e-06 3.66383e-07 0.0499736 0.00462109 -9.97978e-08
0.0123712 0.000696926 2.68175e-07 -1.27185e-06 1.41302e-07 3.03242e-07 0.0554128 0.00512388 -1.04443e-07
0.0181364 0.00103055 2.28693e-07 5.71468e-06 1.80899e-06 2.68306e-07 0.0608617 0.00562692 -1.09025e-07
0.0261393 0.00149039 2.0544e-07 1.42781e-05 3.65049e-06 2.29638e-07 0.0654729 0.0060527 -1.13046e-07
0.0366898 0.00209489 1.89001e-07 1.97947e-05 5.15918e-06 1.98434e-07 0.0698951 0.00646178 -1.16739e-07
0.0476633 0.00272246 1.7666e-07 2.57329e-05 6.836e-06 1.64183e-07 0.0734238 0.00678849 -1.19877e-07
0.0584791 0.00334112 1.64734e-07 3.04132e-05 8.48263e-06 1.31146e-07 0.0768023 0.00710108 -1.22811e-07
0.0689823 0.00394161 1.53937e-07 3.49789e-05 1.01918e-05 9.70397e-08 0.080323 0.00742618 -1.25716e-07
0.0795471 0.0045454 1.43583e-07 3.91351e-05 1.19504e-05 6.23169e-08 0.08374 0.00774128 -1.28459e-07
0.0901935 0.00515372 1.33629e-07 4.24235e-05 1.36953e-05 2.83477e-08 0.0868741 0.00803032 -1.3091e-07
0.100401 0.00573692 1.2425e-07 4.55233e-05 1.54919e-05 -6.3953e-09 0.0893691 0.00826065 -1.32899e-07
0.110068 0.00628926 1.15446e-07 4.80251e-05 1.72818e-05 -4.06543e-08 0.0914182 0.00845005 -1.34555e-07
0.119395 0.00682209 1.0717e-07 5.01926e-05 1.90597e-05 -7.44752e-08 0.0933508 0.00862856 -1.36107e-07
0.12842 0.00733762 9.94009e-08 5.22149e-05 2.07983e-05 -1.07498e-07 0.0954337 0.00882061 -1.37724e-07
0.136965 0.0078257 9.2111e-08 5.42217e-05 2.24789e-05 -1.39474e-07 0.0976694 0.00902654 -1.39411e-07
0.144926 0.00828046 8.52442e-08 5.62204e-05 2.40899e-05 -1.70164e-07 0.0998516 0.00922761 -1.41062e-07
0.152446 0.00871008 7.86622e-08 5.82038e-05 2.55964e-05 -1.98931e-07 0.101861 0.00941305 -1.42634e-07
0.159651 0.00912169 7.22258e-08 6.04811e-05 2.69796e-05 -2.2563e-07 0.103769 0.00958941 -1.44198e-07
0.166838 0.00953245 6.56532e-08 6.30218e-05 2.81942e-05 -2.49482e-07 0.105811 0.00977819 -1.45908e-07
0.173681 0.00992352 5.91345e-08 6.60238e-05 2.92348e-05 -2.70503e-07 0.108203 0.00999926 -1.47894e-07
0.179715 0.0102685 5.2803e-08 6.98682e-05 3.01984e-05 -2.90524e-07 0.110799 0.010239 -1.50086e-07
0.185111 0.0105772 4.65504e-08 7.3472e-05 3.0972e-05 -3.06984e-07 0.113562 0.0104943 -1.52426e-07
0.190123 0.010864 4.0451e-08 7.765e-05 3.16239e-05 -3.21554e-07 0.116294 0.010747 -1.54811e-07
0.194027 0.0110874 3.50081e-08 8.27294e-05 3.22318e-05 -3.35756e-07 0.118926 0.0109907 -1.57203e-07
0.196828 0.0112479 3.00438e-08 8.74715e-05 3.2729e-05 -3.47712e-07 0.121538 0.0112327 -1.59625e-07
0.198797 0.011361 2.55492e-08 9.21318e-05 3.3118e-05 -3.57643e-07 0.124319 0.0114901 -1.62167e-07
0.200468 0.011457 2.13827e-08 9.72608e-05 3.34356e-05 -3.66361e-07 0.127147 0.0117518 -1.64762e-07
0.201884 0.0115383 1.75346e-08 0.000102591 3.36378e-05 -3.71068e-07 0.129997 0.0120156 -1.67338e-07
0.202645 0.0115823 1.42923e-08 0.000107452 3.37915e-05 -3.73599e-07 0.132636 0.0122599 -1.69757e-07
0.202994 0.0116028 1.1945e-08 0.000111129 3.3888e-05 -3.74996e-07 0.135046 0.0124831 -1.71967e-07
0.203416 0.0116273 9.7571e-09 0.000114818 3.39231e-05 -3.74022e-07 0.137289 0.0126909 -1.74028e-07
0.203833 0.0116514 7.79923e-09 0.000118524 3.39255e-05 -3.71978e-07 0.13936 0.0128827 -1.75917e-07
0.204021 0.0116625 6.12143e-09 0.000121594 3.39177e-05 -3.69874e-07 0.141225 0.0130553 -1.77597e-07
0.204073 0.0116658 4.70727e-09 0.000123983 3.39292e-05 -3.68656e-07 0.142789 0.0132 -1.79001e-07
0.204316 0.01168 3.47154e-09 0.000125903 3.39607e-05 -3.68524e-07 0.143978 0.0133101 -1.80076e-07
0.204853 0.0117108 2.35464e-09 0.000127381 3.40229e-05 -3.69819e-07 0.144775 0.013384 -1.80808e-07
0.205554 0.0117509 1.32005e-09 0.000128102 3.40909e-05 -3.72074e-07 0.145211 0.0134243 -1.81215e-07
0.206356 0.0117968 3.18166e-10 0.00012826 3.41812e-05 -3.75667e-07 0.145305 0.0134329 -1.81107e-07
0.207392 0.0118559 -7.19193e-10 0.000127826 3.42735e-05 -3.79838e-07 0.145273 0.0134289 -1.78686e-07
0.208657 0.0119281 -1.78776e-09 0.000126723 3.43702e-05 -3.84323e-07 0.145197 0.0134195 -1.7338e-07
0.210113 0.0120112 -2.97894e-09 0.000124943 3.44606e-05 -3.88675e-07 0.145079 0.0134051 -1.65414e-07
0.211794 0.0121071 -4.42198e-09 0.0001228 3.45312e-05 -3.9231e-07 0.144929 0.0133866 -1.55113e-07
0.213846 0.0122243 -6.28315e-09 0.000120509 3.45644e-05 -3.94347e-07 0.14474 0.0133637 -1.42978e-07
0.216384 0.0123692 -8.7174e-09 0.000118074 3.45332e-05 -3.93745e-07 0.144195 0.0133063 -1.30518e-07
0.219382 0.0125405 -1.17999e-08 0.000115631 3.44211e-05 -3.89977e-07 0.143207 0.0132068 -1.17325e-07
0.222836 0.012738 -1.55917e-08 0.000113117 3.41764e-05 -3.81855e-07 0.142121 0.0130975 -1.0322e-07
0.226776 0.0129633 -2.01045e-08 0.000110761 3.3822e-05 -3.6985e-07 0.141003 0.0129848 -8.83653e-08
0.231073 0.0132091 -2.50369e-08 0.000107992 3.33406e-05 -3.54278e-07 0.139888 0.012872 -7.2971e-08
0.235181 0.0134439 -3.00479e-08 0.000105678 3.29005e-05 -3.38983e-07 0.138265 0.0127132 -5.87591e-08
0.238979 0.0136613 -3.53002e-08 0.000103393 3.2508e-05 -3.24508e-07 0.135975 0.012495 -4.62399e-08
0.24301 0.0138919 -4.09448e-08 0.000101255 3.20985e-05 -3.0952e-07 0.133191 0.0122328 -3.47207e-08
0.247516 0.0141497 -4.69427e-08 9.9547e-05 3.1695e-05 -2.94549e-07 0.130246 0.0119576 -2.38249e-08
0.252425 0.0144304 -5.32539e-08 9.78017e-05 3.13149e-05 -2.80379e-07 0.127214 0.0116757 -1.33911e-08
0.257308 0.0147098 -5.96608e-08 9.59787e-05 3.1008e-05 -2.68748e-07 0.12426 0.011401 -3.39528e-09
0.262262 0.0149932 -6.6134e-08 9.42776e-05 3.07905e-05 -2.60476e-07 0.121305 0.0111265 5.91307e-09
0.267521 0.0152939 -7.26571e-08 9.28222e-05 3.06748e-05 -2.56011e-07 0.118433 0.01086 1.40657e-08
0.273116 0.0156138 -7.92157e-08 9.15098e-05 3.06676e-05 -2.55776e-07 0.115807 0.0106164 2.01324e-08
0.27882 0.0159399 -8.81747e-08 9.05352e-05 3.07983e-05 -2.61037e-07 0.113593 0.0104112 2.23953e-08
0.284717 0.0162772 -1.29484e-07 8.83209e-05 3.11225e-05 -2.77187e-07 0.111984 0.010261 2.37921e-08
0.292284 0.0167094 -1.66858e-07 8.60805e-05 3.14792e-05 -2.934e-07 0.110755 0.0101459 2.47698e-08
0.300241 0.0171638 -2.04886e-07 8.37543e-05 3.19007e-05 -3.12417e-07 0.109491 0.010028 2.59286e-08
0.307246 0.0175643 -2.44062e-07 8.21201e-05 3.25631e-05 -3.39227e-07 0.107995 0.00988959 2.74511e-08
0.313921 0.0179458 -2.78567e-07 8.25684e-05 3.31759e-05 -3.52398e-07 0.106623 0.0097627 2.89006e-08
0.320493 0.0183214 -3.10901e-07 8.06151e-05 3.38308e-05 -3.62639e-07 0.105712 0.00967798 2.97615e-08
0.326832 0.0186837 -3.42065e-07 7.80535e-05 3.432e-05 -3.69944e-07 0.105428 0.00965073 2.99153e-08
0.333265 0.0190509 -3.68689e-07 7.87066e-05 3.48888e-05 -3.80931e-07 0.105311 0.00963898 2.98936e-08
0.339963 0.0194332 -3.96093e-07 7.87636e-05 3.53718e-05 -3.90121e-07 0.105322 0.00964005 2.94071e-08
0.346686 0.0198171 -4.23869e-07 7.81876e-05 3.59235e-05 -3.99948e-07 0.105338 0.0096424 2.80712e-08
0.353244 0.0201915 -4.53216e-07 7.80397e-05 3.64994e-05 -4.10546e-07 0.105406 0.0096509 2.36578e-08
0.359986 0.0205767 -4.84453e-07 7.9419e-05 3.71142e-05 -4.22893e-07 0.10554 0.00966618 1.77635e-08
0.367157 0.0209862 -5.18503e-07 7.8838e-05 3.77694e-05 -4.44933e-07 0.105703 0.00968537 1.01371e-08
0.374491 0.0214049 -5.59032e-07 7.94351e-05 3.8581e-05 -4.84182e-07 0.105881 0.00970733 6.6912e-10
0.382517 0.0218631 -6.0185e-07 8.31984e-05 3.94376e-05 -5.27132e-07 0.106195 0.00974337 -9.82152e-09
0.390607 0.0223251 -6.4763e-07 8.51969e-05 4.02898e-05 -5.70005e-07 0.107565 0.00987783 -1.91347e-08
0.398744 0.0227898 -6.9646e-07 8.55482e-05 4.11374e-05 -6.13159e-07 0.110522 0.0101546 -2.711e-08
0.40728 0.0232773 -7.46226e-07 8.77979e-05 4.20135e-05 -6.58381e-07 0.113788 0.0104585 -3.52261e-08
0.416451 0.0238004 -7.94277e-07 9.14449e-05 4.29482e-05 -7.06217e-07 0.117017 0.0107595 -4.37131e-08
0.425914 0.0243402 -8.41992e-07 9.39855e-05 4.39158e-05 -7.55848e-07 0.119855 0.0110252 -5.23621e-08
0.435268 0.0248737 -8.89502e-07 9.5993e-05 4.49805e-05 -8.09828e-07 0.122558 0.0112789 -6.13061e-08
0.444566 0.0254041 -9.36093e-07 9.86397e-05 4.61361e-05 -8.68758e-07 0.125704 0.0115733 -7.0888e-08
0.454068 0.025946 -9.80811e-07 0.00010161 4.73753e-05 -9.32112e-07 0.129433 0.0119212 -8.1137e-08
0.463758 0.0264984 -1.02374e-06 0.000103979 4.86918e-05 -9.99435e-07 0.133359 0.0122872 -9.17159e-08
0.473329 0.0270445 -1.06755e-06 0.000105943 5.00985e-05 -1.07127e-06 0.137039 0.012631 -1.0225e-07
0.482567 0.0275717 -1.11143e-06 0.00010809 5.1621e-05 -1.14847e-06 0.140421 0.0129477 -1.12671e-07
0.491718 0.0280939 -1.15418e-06 0.000110174 5.32203e-05 -1.22949e-06 0.143846 0.0132683 -1.23245e-07
0.50087 0.028616 -1.19531e-06 0.000112084 5.48899e-05 -1.31365e-06 0.147583 0.0136174 -1.34155e-07
0.509828 0.029127 -1.23502e-06 0.000113866 5.66193e-05 -1.40067e-06 0.151556 0.0139881 -1.45289e-07
0.51841 0.0296165 -1.27322e-06 0.000115715 5.84084e-05 -1.4903e-06 0.155466 0.0143531 -1.56393e-07
0.526622 0.0300849 -1.30929e-06 0.000117556 6.02348e-05 -1.58134e-06 0.159145 0.014697 -1.67358e-07
0.534464 0.0305321 -1.34215e-06 0.000119309 6.2074e-05 -1.67273e-06 0.162707 0.0150304 -1.78294e-07
0.541798 0.0309502 -1.37188e-06 0.000121123 6.39105e-05 -1.76375e-06 0.166385 0.0153742 -1.89367e-07
0.548522 0.0313336 -1.39871e-06 0.000123112 6.57252e-05 -1.85343e-06 0.170262 0.0157363 -2.00682e-07
0.554662 0.0316836 -1.42276e-06 0.000125262 6.74916e-05 -1.94059e-06 0.174143 0.016099 -2.14609e-07
0.56024 0.0320016 -1.44422e-06 0.000128385 6.92029e-05 -2.02643e-06 0.179995 0.0166408 -2.32373e-07
0.564874 0.0322654 -1.46439e-06 0.0618443 0.00366359 -1.11e-06 0.188581 0.017428 -2.44111e-07
0.549558 0.0313759 -1.35753e-06 0.196016 0.0113809 -9.74119e-07 0.18207 0.0167503 -1.46694e-07
0.547557 0.0312676 -1.43199e-06 0.266155 0.0153819 -8.35415e-07 0.184531 0.0170024 -1.53184e-07
0.54815 0.0312993 -1.44798e-06 0.276173 0.0159729 -8.76529e-07 0.184267 0.0169889 -1.80696e-07
0.557014 0.0318085 -1.5194e-06 0.237734 0.0137743 -9.73017e-07 0.187972 0.0173742 -2.70362e-07
0.561792 0.032084 -1.58338e-06 0.223765 0.012976 -1.07541e-06 0.201849 0.01864 -2.84704e-07
0.561562 0.032071 -1.6187e-06 0.254235 0.0147247 -1.11933e-06 0.214669 0.0197976 -2.65786e-07
0.562202 0.0321076 -1.66688e-06 0.284202 0.0164488 -1.16502e-06 0.219145 0.0202114 -2.72087e-07
0.566074 0.03233 -1.72118e-06 0.286222 0.0165725 -1.20343e-06 0.223552 0.0206342 -3.0766e-07
0.574286 0.0327989 -1.75678e-06 0.278197 0.0161188 -1.2737e-06 0.234333 0.0216301 -3.38371e-07
0.583519 0.033325 -1.7904e-06 0.281702 0.0163228 -1.34008e-06 0.250274 0.0230833 -3.45044e-07
0.589448 0.0336633 -1.8305e-06 0.295736 0.0171298 -1.39692e-06 0.263012 0.0242448 -3.47587e-07
0.592846 0.0338579 -1.87451e-06 0.310223 0.0179656 -1.43836e-06 0.26874 0.0247782 -3.66247e-07
0.598576 0.0341852 -1.90955e-06 0.313297 0.0181475 -1.49567e-06 0.272175 0.0251061 -3.83732e-07
0.607699 0.034705 -1.93673e-06 0.313752 0.0181776 -1.54586e-06 0.279922 0.0258153 -3.83205e-07
0.614745 0.0351066 -1.96628e-06 0.320659 0.0185759 -1.57966e-06 0.29232 0.026937 -3.70963e-07
0.61843 0.0353175 -1.996e-06 0.332196 0.0192396 -1.59715e-06 0.303214 0.0279248 -3.61863e-07
0.620928 0.0354605 -2.00214e-06 0.341016 0.0197478 -1.58977e-06 0.308192 0.0283847 -3.6476e-07
0.625126 0.0357 -2.00197e-06 0.346888 0.0200877 -1.59453e-06 0.309827 0.0285444 -3.7299e-07
0.629974 0.0359765 -2.00055e-06 0.351204 0.0203382 -1.60299e-06 0.313819 0.0289137 -3.75275e-07
0.634076 0.0362108 -2.00309e-06 0.355935 0.0206121 -1.60684e-06 0.321227 0.0295881 -3.70316e-07
0.637418 0.0364017 -2.00686e-06 0.36198 0.020961 -1.6052e-06 0.32842 0.0302434 -3.65877e-07
0.640809 0.0365954 -2.00858e-06 0.368494 0.0213369 -1.60301e-06 0.332266 0.0305985 -3.67604e-07
0.644512 0.0368067 -2.00923e-06 0.374335 0.0216745 -1.60433e-06 0.333825 0.0307476 -3.72587e-07
0.648335 0.0370249 -2.01054e-06 0.379298 0.0219617 -1.60829e-06 0.336284 0.0309756 -3.74523e-07
0.652246 0.0372482 -2.01196e-06 0.383893 0.0222277 -1.61172e-06 0.3408 0.0313873 -3.71953e-07
0.65625 0.0374767 -2.0126e-06 0.388588 0.0224991 -1.61364e-06 0.345514 0.0318167 -3.69019e-07
0.660152 0.0376994 -2.01309e-06 0.393448 0.0227801 -1.61519e-06 0.348335 0.0320762 -3.69395e-07
0.663806 0.037908 -2.014e-06 0.398331 0.0230623 -1.61682e-06 0.349439 0.0321807 -3.72046e-07
0.667291 0.0381068 -2.01462e-06 0.403187 0.0233428 -1.61798e-06 0.350574 0.0322865 -3.73447e-07
0.670709 0.0383018 -2.01423e-06 0.407777 0.023608 -1.6192e-06 0.352725 0.0324827 -3.7227e-07
0.67394 0.0384861 -2.01307e-06 0.41199 0.0238515 -1.62143e-06 0.355171 0.0327051 -3.7045e-07
0.676705 0.0386436 -2.01154e-06 0.415986 0.0240827 -1.62469e-06 0.356685 0.0328439 -3.70177e-07
0.678857 0.0387663 -2.00966e-06 0.420016 0.0243157 -1.62758e-06 0.357128 0.0328859 -3.71309e-07
0.68039 0.0388535 -2.00726e-06 0.42414 0.0245541 -1.62932e-06 0.357351 0.0329073 -3.72091e-07
0.681364 0.0389088 -2.00436e-06 0.428052 0.0247801 -1.63084e-06 0.358039 0.0329699 -3.71592e-07
0.681796 0.0389332 -1.99983e-06 0.431378 0.0249725 -1.6334e-06 0.359037 0.0330603 -3.70587e-07
0.681738 0.0389294 -1.98891e-06 0.434097 0.0251299 -1.63669e-06 0.359782 0.0331284 -3.70246e-07
0.681574 0.0389193 -1.96971e-06 0.436354 0.0252605 -1.63892e-06 0.360138 0.0331617 -3.70713e-07
0.681279 0.0389015 -1.94099e-06 0.438239 0.0253695 -1.6395e-06 0.36048 0.0331936 -3.71209e-07
0.680834 0.0388747 -1.90226e-06 0.439559 0.0254456 -1.63911e-06 0.361164 0.0332564 -3.71183e-07
0.680266 0.0388407 -1.85431e-06 0.44002 0.0254721 -1.63855e-06 0.362204 0.0333516 -3.70905e-07
0.679561 0.0387985 -1.79631e-06 0.43982 0.0254602 -1.62884e-06 0.363323 0.0334542 -3.70838e-07
0.678052 0.03871 -1.73614e-06 0.439554 0.0254439 -1.61119e-06 0.364243 0.033539 -3.7105e-07
0.674121 0.0384837 -1.68536e-06 0.439319 0.0254289 -1.58921e-06 0.365018 0.0336105 -3.71382e-07
0.667523 0.0381062 -1.64201e-06 0.439008 0.0254094 -1.56227e-06 0.36566 0.0336698 -3.71629e-07
0.660022 0.0376775 -1.59773e-06 0.438475 0.0253765 -1.5241e-06 0.366296 0.0337284 -3.71794e-07
0.652704 0.037259 -1.55039e-06 0.437395 0.0253113 -1.47931e-06 0.366932 0.0337869 -3.71899e-07
0.645216 0.0368309 -1.50249e-06 0.43475 0.0251558 -1.4356e-06 0.367655 0.0338535 -3.72111e-07
0.637259 0.0363763 -1.45476e-06 0.430426 0.0249036 -1.3907e-06 0.36841 0.0339232 -3.72396e-07
0.629142 0.0359126 -1.4055e-06 0.425136 0.024596 -1.34319e-06 0.369019 0.0339792 -3.72514e-07
0.621055 0.0354504 -1.35419e-06 0.419358 0.02426 -1.29224e-06 0.369487 0.0340222 -3.72465e-07
0.61256 0.034965 -1.30086e-06 0.413685 0.0239299 -1.23916e-06 0.369525 0.0340253 -3.70836e-07
0.60357 0.0344513 -1.245e-06 0.407857 0.0235909 -1.18549e-06 0.369457 0.0340175 -3.66486e-07
0.594472 0.0339313 -1.1856e-06 0.401588 0.0232266 -1.13188e-06 0.369356 0.0340054 -3.59494e-07
0.585268 0.0334053 -1.12283e-06 0.395061 0.0228479 -1.07971e-06 0.369218 0.0339883 -3.49399e-07
0.575737 0.0328608 -1.05793e-06 0.388341 0.0224583 -1.0287e-06 0.369033 0.0339656 -3.3597e-07
0.565938 0.0323009 -9.90882e-07 0.381709 0.0220739 -9.78851e-07 0.368698 0.0339271 -3.19203e-07
0.556203 0.0317446 -9.219e-07 0.375042 0.0216875 -9.29655e-07 0.367255 0.0337845 -3.03108e-07
0.546578 0.0311945 -8.5173e-07 0.368409 0.0213033 -8.81567e-07 0.363557 0.0334367 -2.89276e-07
0.536951 0.0306442 -7.8144e-07 0.361812 0.0209211 -8.34226e-07 0.358804 0.0329915 -2.74248e-07
0.527455 0.0301014 -7.11376e-07 0.355147 0.0205351 -7.86971e-07 0.353523 0.0324965 -2.57384e-07
0.518155 0.0295697 -6.41195e-07 0.348386 0.0201436 -7.39529e-07 0.347566 0.0319437 -2.40616e-07
0.508993 0.0290459 -5.70886e-07 0.341452 0.0197422 -6.92034e-07 0.340795 0.0313176 -2.23351e-07
0.499803 0.0285206 -5.00035e-07 0.334349 0.019331 -6.44276e-07 0.333256 0.0306217 -2.05735e-07
0.490477 0.0279873 -4.27689e-07 0.327217 0.0189182 -5.95927e-07 0.325087 0.0298681 -1.87483e-07
0.480908 0.0274402 -3.52722e-07 0.320014 0.0185012 -5.46684e-07 0.317076 0.0291287 -1.68531e-07
0.470931 0.0268697 -2.74039e-07 0.312642 0.0180745 -4.96582e-07 0.309503 0.0284288 -1.4876e-07
0.460373 0.026266 -1.90771e-07 0.305033 0.0176341 -4.45486e-07 0.301998 0.0277348 -1.28592e-07
0.45019 0.0256839 -1.0443e-07 0.29693 0.017165 -3.922e-07 0.294236 0.0270178 -1.0875e-07
0.440281 0.0251171 -1.13987e-08 0.288003 0.0166482 -3.34927e-07 0.2864 0.0262947 -8.97179e-08
0.429391 0.0244947 6.59587e-08 0.279039 0.0161293 -2.72882e-07 0.278563 0.0255712 -7.1114e-08
0.417328 0.0238055 1.45373e-07 0.270431 0.0156307 -2.09065e-07 0.27109 0.0248808 -5.23807e-08
0.404867 0.0230937 2.26739e-07 0.262021 0.0151433 -1.41309e-07 0.263968 0.0242226 -3.38332e-08
0.392111 0.0223648 3.04373e-07 0.253455 0.0146469 -7.15752e-08 0.256847 0.0235648 -1.59246e-08
0.379036 0.0216177 3.82425e-07 0.244166 0.0141086 1.28451e-09 0.249821 0.0229164 7.1033e-10
0.365401 0.0208389 4.61622e-07 0.234228 0.0135329 7.68579e-08 0.243169 0.0223025 1.6102e-08
0.351174 0.0200263 5.40188e-07 0.224214 0.0129526 1.55283e-07 0.237052 0.0217376 3.02578e-08
0.336746 0.0192024 6.08251e-07 0.21439 0.0123831 2.33903e-07 0.231506 0.0212256 4.02897e-08
0.32256 0.0183922 6.54783e-07 0.204541 0.0118121 3.08946e-07 0.226436 0.0207586 4.4481e-08
0.309082 0.0176223 6.79308e-07 0.194327 0.0112202 3.75541e-07 0.222075 0.0203564 4.64122e-08
0.296333 0.016894 6.94156e-07 0.183644 0.0106012 4.38119e-07 0.218865 0.0200591 4.75831e-08
0.283558 0.0161643 7.06496e-07 0.172806 0.00997322 4.98974e-07 0.215949 0.0197889 4.86427e-08
0.27048 0.0154176 7.17824e-07 0.162092 0.0093527 5.39723e-07 0.212493 0.01947 5.01497e-08
0.25825 0.014719 7.27927e-07 0.151512 0.00874013 5.57765e-07 0.208449 0.0190982 5.21467e-08
0.247394 0.0140985 7.3702e-07 0.141193 0.00814244 5.66596e-07 0.204375 0.0187237 5.41253e-08
0.236936 0.0135009 7.45666e-07 0.131429 0.0075766 5.7302e-07 0.200437 0.0183615 5.59774e-08
0.226427 0.0129008 7.54102e-07 0.121545 0.00700385 5.79518e-07 0.196903 0.0180359 5.75135e-08
0.216663 0.0123433 7.61851e-07 0.110958 0.00639073 5.86374e-07 0.193729 0.0177429 5.88092e-08
0.208217 0.0118609 7.68564e-07 0.0999292 0.0057521 5.93471e-07 0.19047 0.0174422 6.01706e-08
0.200664 0.0114296 7.74484e-07 0.0891542 0.00512803 6.00462e-07 0.186671 0.0170923 6.1873e-08
0.192855 0.0109837 7.80341e-07 0.079147 0.00454825 6.07069e-07 0.182174 0.0166785 6.3954e-08
0.184752 0.0105212 7.86104e-07 0.070189 0.00402919 6.13109e-07 0.177018 0.0162039 6.62774e-08
0.177835 0.0101266 7.90917e-07 0.0611684 0.00350643 6.19141e-07 0.171897 0.0157322 6.85378e-08
0.172595 0.00982728 7.94756e-07 0.0519517 0.00297266 6.25165e-07 0.166772 0.0152595 7.06923e-08
0.168547 0.00959612 7.97739e-07 0.0426453 0.00243397 6.31133e-07 0.16142 0.0147655 7.28911e-08
0.165084 0.0093985 8.00188e-07 0.0337814 0.00192096 6.36754e-07 0.155526 0.0142217 7.53623e-08
0.162251 0.00923693 8.02117e-07 0.0258698 0.00146301 6.41793e-07 0.148807 0.0136021 7.8242e-08
0.160668 0.00914656 8.03199e-07 0.0186622 0.00104576 6.46382e-07 0.141454 0.0129242 8.14289e-08
0.16036 0.0091289 8.02788e-07 0.0117555 0.000646126 6.50689e-07 0.133745 0.0122133 8.47334e-08
0.1605 0.00913714 7.95025e-07 0.00508936 0.000260735 6.5469e-07 0.125834 0.0114833 8.80437e-08
0.160751 0.00915205 7.79273e-07 0.000820418 1.38454e-05 6.77347e-07 0.117688 0.0107313 9.13869e-08
0.160973 0.00916512 7.61284e-07 0.000696787 6.02787e-06 6.93642e-07 0.108612 0.00989325 9.50528e-08
0.161575 0.00920054 7.32515e-07 0.000662475 2.44222e-06 7.02974e-07 0.0994059 0.00904368 9.89488e-08
0.16214 0.00923398 7.06216e-07 0.000602285 -1.49097e-06 7.18301e-07 0.0899587 0.00817187 1.02913e-07
0.162816 0.00927405 6.75285e-07 0.000533522 -5.17778e-06 7.38846e-07 0.0802529 0.00727617 1.06937e-07
0.163637 0.0093225 6.38895e-07 0.00049477 -7.28799e-06 7.53263e-07 0.0708331 0.00640675 1.10852e-07
0.164463 0.00937129 6.02112e-07 0.000484129 -7.99595e-06 7.5785e-07 0.0615972 0.00555411 1.14677e-07
0.165303 0.00942089 5.65119e-07 0.000465894 -8.84355e-06 7.61316e-07 0.0529152 0.00475241 1.18259e-07
0.166121 0.00946912 5.29602e-07 0.000441213 -9.46305e-06 7.61703e-07 0.0445115 0.00397636 1.21686e-07
0.166942 0.00951738 4.9643e-07 0.000423983 -9.70003e-06 7.58773e-07 0.0365467 0.00324108 1.25002e-07
0.16793 0.00957517 4.68641e-07 0.000418031 -9.51705e-06 7.55567e-07 0.0290933 0.00255316 1.28145e-07
0.169116 0.00964412 4.46608e-07 0.000408715 -9.47572e-06 7.55732e-07 0.0224053 0.00193584 1.30955e-07
0.170497 0.00972403 4.30048e-07 0.000393912 -9.67624e-06 7.58547e-07 0.0166465 0.0014041 1.33333e-07
0.171958 0.00980831 4.17699e-07 0.000383382 -9.85362e-06 7.60733e-07 0.0118914 0.000964899 1.3528e-07
0.173354 0.0098886 4.09148e-07 0.000379212 -9.97319e-06 7.61688e-07 0.00810502 0.000615207 1.36848e-07
0.174417 0.00994974 4.03263e-07 0.000375182 -1.02148e-05 7.63816e-07 0.00524783 0.00035146 1.38055e-07
0.175092 0.00998851 4.0019e-07 0.000368272 -1.07144e-05 7.6901e-07 0.00334357 0.000175822 1.38882e-07
0.175206 0.00999505 3.99924e-07 0.000363299 -1.13038e-05 7.7658e-07 0.00250874 9.88949e-05 1.39286e-07
0.174835 0.00997381 4.03175e-07 0.00036106 -1.18286e-05 7.82388e-07 0.00251584 0.000101075 1.36047e-07
0.173923 0.00992139 4.10805e-07 0.000363838 -1.21394e-05 7.83807e-07 0.00266927 0.000119965 1.25343e-07
0.172455 0.00983701 4.24202e-07 0.0003707 -1.22916e-05 7.83162e-07 0.0029238 0.000151154 1.07824e-07
0.170379 0.00971763 4.43692e-07 0.000378328 -1.23971e-05 7.82063e-07 0.0032634 0.000192757 8.51162e-08
0.167763 0.00956716 4.68595e-07 0.000387014 -1.24326e-05 7.80378e-07 0.00367201 0.000240393 6.71212e-08
0.164755 0.00939401 4.99026e-07 0.000394731 -1.24597e-05 7.78604e-07 0.00403703 0.000285333 5.20412e-08
0.161287 0.00919435 5.29206e-07 0.000404372 -1.23032e-05 7.75239e-07 0.00438111 0.00032977 3.72857e-08
0.157001 0.00894894 5.44011e-07 0.000417696 -1.17239e-05 7.68567e-07 0.00480688 0.000382752 1.94446e-08
0.151905 0.00865739 5.55712e-07 0.000433895 -1.06489e-05 7.58852e-07 0.0057814 0.000488999 -4.1066e-10
0.146423 0.00834378 5.68369e-07 0.000450988 -9.31874e-06 7.46305e-07 0.00813013 0.000724327 -1.77763e-08
0.140658 0.00801382 5.81829e-07 0.000474049 -7.58818e-06 7.32446e-07 0.0131771 0.00120408 -2.80429e-08
0.134708 0.00767318 5.95848e-07 0.000503954 -5.23376e-06 7.15691e-07 0.0201663 0.00185423 -3.46201e-08
0.128475 0.00731632 6.10604e-07 0.000539952 -2.28323e-06 6.97331e-07 0.0291735 0.00268335 -3.96174e-08
0.122049 0.00694848 6.25733e-07 0.000591502 1.75087e-06 6.76438e-07 0.0391329 0.00359919 -4.48318e-08
0.115513 0.00657429 6.41044e-07 0.000673975 7.6816e-06 6.53047e-07 0.0487778 0.00448662 -4.99397e-08
0.10903 0.00620308 6.56241e-07 0.000814842 1.71502e-05 6.28845e-07 0.0573147 0.00527337 -5.47795e-08
0.102707 0.00584103 6.71096e-07 0.00109798 3.50674e-05 6.05523e-07 0.0649903 0.00598167 -5.94429e-08
0.0971956 0.0055256 6.84188e-07 0.00160805 6.6175e-05 5.85298e-07 0.072731 0.00669569 -6.41255e-08
0.0926456 0.00526497 6.95278e-07 0.00217532 0.000100339 5.67939e-07 0.0813298 0.00748768 -6.89444e-08
0.0881993 0.0050103 7.06054e-07 0.00284143 0.000140436 5.48616e-07 0.0903915 0.00832137 -7.38029e-08
0.0839127 0.00476501 7.16268e-07 0.00340492 0.000174419 5.32032e-07 0.0992748 0.00913874 -7.84883e-08
0.0799238 0.00453676 7.25697e-07 0.00397814 0.000209016 5.15335e-07 0.10713 0.00986222 -8.28368e-08
0.0765996 0.00434647 7.33625e-07 0.00452258 0.000241768 4.99665e-07 0.113958 0.010492 -8.6839e-08
0.0737621 0.00418404 7.40386e-07 0.00505346 0.000273658 4.84547e-07 0.120252 0.0110726 -9.06095e-08
0.0712073 0.00403791 7.46363e-07 0.00554815 0.000303405 4.7042e-07 0.126538 0.0116518 -9.42396e-08
0.0690681 0.00391561 7.51316e-07 0.00599989 0.000330591 4.5745e-07 0.132893 0.0122366 -9.7703e-08
0.0674917 0.00382545 7.54998e-07 0.00645872 0.000358114 4.45652e-07 0.138843 0.0127841 -1.00853e-07
0.066394 0.00376266 7.57585e-07 0.00700332 0.000390628 4.34425e-07 0.143812 0.0132415 -1.03539e-07
0.0656284 0.0037189 7.59372e-07 0.00765442 0.00042933 4.2439e-07 0.147592 0.01359 -1.05711e-07
0.0652065 0.00369481 7.60368e-07 0.00838611 0.000472692 4.1567e-07 0.150432 0.0138521 -1.07437e-07
0.0651794 0.00369327 7.59693e-07 0.0091889 0.000520158 4.07758e-07 0.152749 0.0140658 -1.08804e-07
0.0652643 0.00369822 7.5673e-07 0.0101415 0.000576319 4.00474e-07 0.154716 0.0142467 -1.09831e-07
0.0653926 0.00370581 7.5103e-07 0.0112366 0.000640675 3.94199e-07 0.156033 0.0143674 -1.10434e-07
0.0655897 0.00371742 7.41984e-07 0.0124252 0.000710497 3.87992e-07 0.156435 0.0144038 -1.10026e-07
0.0658592 0.00373324 7.29515e-07 0.0136701 0.000783416 3.83528e-07 0.156365 0.0143955 -1.05638e-07
0.0661694 0.00375149 7.14846e-07 0.0147896 0.000849082 3.79292e-07 0.156236 0.0143801 -9.72622e-08
0.0665202 0.00377213 6.98462e-07 0.0156777 0.000901333 3.75699e-07 0.155962 0.0143494 -8.62456e-08
0.0668885 0.00379376 6.81563e-07 0.0164287 0.000945592 3.73057e-07 0.154464 0.0142052 -7.59302e-08
0.067248 0.00381486 6.65251e-07 0.0170835 0.000984259 3.70686e-07 0.151805 0.0139545 -6.4839e-08
0.067608 0.00383599 6.49524e-07 0.0174732 0.00100743 3.6889e-07 0.148448 0.0136405 -5.3098e-08
0.0679401 0.00385547 6.35696e-07 0.0175627 0.00101319 3.67932e-07 0.144655 0.0132887 -4.13487e-08
0.0682229 0.00387204 6.24361e-07 0.0173571 0.00100165 3.69609e-07 0.141157 0.0129635 -2.89192e-08
0.0684667 0.00388632 6.14779e-07 0.0168892 0.000974628 3.73782e-07 0.137669 0.0126389 -1.59883e-08
0.0686403 0.00389646 6.08112e-07 0.0162487 0.000937258 3.82781e-07 0.133874 0.0122864 -3.04022e-09
0.0687377 0.00390215 6.04488e-07 0.0153549 0.000884851 3.97659e-07 0.129797 0.0119086 9.20861e-09
0.0687545 0.00390312 6.04553e-07 0.0141599 0.000814627 4.18978e-07 0.125921 0.0115493 1.93049e-08
0.0687085 0.00390047 6.069e-07 0.0127027 0.000728769 4.46433e-07 0.122464 0.0112291 2.50902e-08
0.0686094 0.00389478 6.10079e-07 0.0111418 0.000636534 4.73265e-07 0.119389 0.0109442 2.78891e-08
0.0685254 0.00388996 6.11625e-07 0.00927079 0.000526207 4.95318e-07 0.117121 0.0107328 2.97502e-08
0.0684538 0.00388583 6.13035e-07 0.00725156 0.000407034 5.13397e-07 0.115038 0.0105386 3.14618e-08
0.0683306 0.00387873 6.15979e-07 0.00527852 0.000290201 5.31056e-07 0.112424 0.0102964 3.38826e-08
0.0681861 0.00387042 6.19456e-07 0.00308871 0.000160636 5.50644e-07 0.109357 0.0100131 3.6838e-08
0.0680373 0.00386185 6.22994e-07 0.000878658 2.97255e-05 5.80056e-07 0.106326 0.00973324 3.96936e-08
0.0677819 0.00384697 6.30149e-07 0.00057512 9.63242e-06 6.14936e-07 0.103308 0.00945388 4.23968e-08
0.0675904 0.00383587 6.34735e-07 0.000479431 7.83136e-07 6.4793e-07 0.100625 0.00920498 4.47663e-08
0.0673831 0.00382383 6.39766e-07 0.000422362 -5.56663e-06 6.81942e-07 0.0980385 0.00896476 4.70204e-08
0.066919 0.00379654 6.54108e-07 0.000376137 -1.07167e-05 7.18671e-07 0.0950816 0.00869061 4.96412e-08
0.0665928 0.00377739 6.63368e-07 0.000348714 -1.45641e-05 7.50156e-07 0.0917062 0.00837831 5.27174e-08
0.0663885 0.00376547 6.67928e-07 0.000338252 -1.70693e-05 7.70991e-07 0.0883099 0.00806434 5.59053e-08
0.066218 0.00375557 6.7135e-07 0.000329258 -1.91882e-05 7.90088e-07 0.0849606 0.0077543 5.89851e-08
0.0661573 0.00375215 6.70824e-07 0.000317166 -2.12046e-05 8.10803e-07 0.0816631 0.00744843 6.1921e-08
0.0661884 0.00375415 6.66482e-07 0.000308017 -2.29838e-05 8.29524e-07 0.0784893 0.00715368 6.47285e-08
0.0663002 0.00376097 6.58691e-07 0.000303135 -2.4426e-05 8.44314e-07 0.0750152 0.00683131 6.78449e-08
0.0665164 0.00377394 6.46904e-07 0.000297479 -2.56998e-05 8.58432e-07 0.0712385 0.00648131 7.13011e-08
0.0668088 0.00379141 6.32264e-07 0.000290735 -2.67407e-05 8.7132e-07 0.067153 0.00610293 7.50503e-08
0.0671829 0.0038137 6.14557e-07 0.000284981 -2.75632e-05 8.81938e-07 0.063043 0.00572212 7.88025e-08
0.0676282 0.00384018 5.94296e-07 0.000280485 -2.81416e-05 8.89743e-07 0.0590578 0.00535243 8.23911e-08
0.068136 0.00387033 5.71902e-07 0.00027548 -2.8521e-05 8.95917e-07 0.0552132 0.00499541 8.58173e-08
0.0686913 0.00390326 5.47996e-07 0.000269309 -2.87027e-05 8.99506e-07 0.0513802 0.00463949 8.92459e-08
0.0692956 0.00393901 5.22561e-07 0.000263726 -2.85755e-05 8.96705e-07 0.0474891 0.00427846 9.27632e-08
0.0699237 0.0039761 4.96557e-07 0.00025978 -2.81197e-05 8.86929e-07 0.0436193 0.00391967 9.62988e-08
0.0706074 0.00401635 4.72314e-07 0.000256731 -2.74891e-05 8.78086e-07 0.0399155 0.00357629 9.96859e-08
0.071492 0.00406805 4.52406e-07 0.000252135 -2.67698e-05 8.71569e-07 0.0365579 0.00326474 1.0273e-07
0.0726761 0.00413678 4.35869e-07 0.00024762 -2.59595e-05 8.6394e-07 0.0336854 0.00299785 1.05296e-07
0.0741763 0.00422334 4.23831e-07 0.000245649 -2.50496e-05 8.54113e-07 0.0312416 0.00277066 1.07478e-07
0.0758419 0.00431906 4.16145e-07 0.000244552 -2.40939e-05 8.43526e-07 0.0291273 0.00257427 1.09405e-07
0.0774001 0.00440837 4.11737e-07 0.000242711 -2.32139e-05 8.34529e-07 0.0273586 0.00241022 1.11054e-07
0.078529 0.00447306 4.0828e-07 0.00024161 -2.23109e-05 8.25341e-07 0.0260831 0.00229194 1.12244e-07
0.0791457 0.00450839 4.0661e-07 0.000242556 -2.13982e-05 8.15407e-07 0.0253895 0.0022275 1.12883e-07
0.079391 0.00452236 4.07484e-07 0.00024481 -2.05485e-05 8.05837e-07 0.0253051 0.00221965 1.12597e-07
0.0793406 0.00451929 4.12272e-07 0.00024752 -1.97658e-05 7.97048e-07 0.025367 0.0022271 1.08633e-07
0.0789258 0.0044953 4.19999e-07 0.00025164 -1.90492e-05 7.88583e-07 0.02549 0.00224245 9.98619e-08
0.078161 0.0044512 4.31391e-07 0.000257969 -1.83961e-05 7.80116e-07 0.0256872 0.00226672 8.62472e-08
0.0771256 0.00439149 4.46118e-07 0.000265595 -1.78384e-05 7.72324e-07 0.0259559 0.00229912 6.96152e-08
0.0758462 0.00431773 4.63603e-07 0.00027295 -1.74752e-05 7.68327e-07 0.0262651 0.00233504 5.68926e-08
