0 0 0
0 0 0
0 0 0
0 0 0
0 0 0
0 0 0
0 0 0
0 0 0
0 0 0
0 0 0
0 0 0
0 0 0
0 0 0
0 0 0
0 0 0
0 0 0
0 0 0
0 0 0
0 0 0
0 0 0
0 0 0
0 0 0
0 0 0
0 0 0
0 0 0
0 0 0
0 0 0
0 0 0
0 0 0
0 0 0
0 0 0
0 0 0
0 0 0
0 0 0
0 0 0
0 0 0
0 0 0
0 0 0
0 0 0
0 0 0
0 0 0
0 0 0
0 0 0
0 0 0
0 0 0
0 0 0
0 0 0
0 0 0
0 0 0
0 0 0
0 0 0
0 0 0
0 0 0
0 0 0
0 0 0
0 0 0
0 0 0
0 0 0
0 0 0
0 0 0
0 0 0
0 0 0
0 0 0
0.00837338 0 0
0.0281863 0 0
0.0465221 0 0
0.0634415 0 0
0.0790787 0 0
0.0938034 0 0
0.108194 0 0
0.122848 0.00660847 0
0.138112 0.0372771 0
0.153927 0.0634579 0
0.169996 0.0846627 0
0.185994 0.100668 0
0.201639 0.111502 0
0.21671 0.117429 0
0.231055 0.118939 0
0.244609 0.117799 0
0.257363 0.11517 0.0147621
0.269327 0.111502 0.0392694
0.280516 0.107281 0.0629937
0.291018 0.102985 0.0851804
0.301053 0.0990582 0.10512
0.31097 0.0958879 0.122177
0.321123 0.0938024 0.135818
0.331633 0.0930846 0.145623
0.34218 0.0948785 0.151304
0.352014 0.100289 0.152753
0.360177 0.109507 0.151347
0.364866 0.119581 0.148766
0.367764 0.135239 0.143873
0.367392 0.153664 0.137376
0.364942 0.173878 0.12961
0.360438 0.194672 0.120963
0.353846 0.214705 0.111856
0.345151 0.232562 0.102718
0.334345 0.246837 0.0939675
0.321417 0.256205 0.0859831
0.30636 0.259487 0.0790881
0.28919 0.257592 0.0790881
0.26993 0.251797 0.0790881
0.24864 0.241867 0.0790881
0.225505 0.2277 0.0790881
0.200918 0.209306 0.0790881
0.185695 0.186825 0.0790881
0.185695 0.160572 0.0790881
0.185695 0.14912 0.0790881
0.185695 0.14912 0.0790881
0.185695 0.14912 0.0790881
0.185695 0.14912 0.0790881
0.185695 0.14912 0.0790881
0.185695 0.14912 0.0790881
0.185695 0.14912 0.0790881
0.185695 0.14912 0.0790881
0.185695 0.14912 0.0790881
0.185695 0.14912 0.0790881
0.185695 0.14912 0.0790881
0.185695 0.14912 0.0790881
0.185695 0.14912 0.0790881
0.185695 0.14912 0.0790881
0.185695 0.14912 0.0790881
0.185695 0.14912 0.0790881
0.185695 0.14912 0.0790881
0.185695 0.14912 0.0790881
0.185695 0.14912 0.0790881
0.185695 0.14912 0.0790881
0.185695 0.14912 0.0790881
0.185695 0.14912 0.0790881
0.185695 0.14912 0.0790881
0.185695 0.146062 0.0765135
0.185695 0.144322 0.0765135
0.185695 0.144322 0.0765135
0.185695 0.144322 0.0764393
0.185695 0.144322 0.0764393
0.185695 0.144322 0.0764393
0.185695 0.144322 0.0764393
0.185695 0.144322 0.0764393
0.185695 0.144322 0.0764393
0.185695 0.144322 0.0764393
0.185695 0.144322 0.0764393
0.185695 0.144322 0.0764393
0.185695 0.144322 0.0764393
0.185695 0.144322 0.0764393
0.184045 0.142902 0.0764393
0.183971 0.142785 0.0764393
0.183971 0.142785 0.0764393
0.183971 0.142785 0.0764043
0.183971 0.142785 0.0764043
0.183971 0.142785 0.0764043
0.183971 0.142785 0.0764043
0.183971 0.142785 0.0764043
0.183971 0.142785 0.0764043
0.183971 0.142785 0.0764043
0.183971 0.142785 0.0764043
0.183971 0.142785 0.0764043
0.183971 0.142785 0.0764043
0.183971 0.142785 0.0764043
0.183971 0.142785 0.0764043
0.183971 0.142785 0.0764043
0.183971 0.142785 0.0764043
0.183971 0.142785 0.0764043
0.183971 0.142785 0.0764043
0.183971 0.14275 0.0764043
0.183971 0.14275 0.0764043
0.183971 0.14275 0.0764043
0.183971 0.14275 0.0764043
0.183971 0.14275 0.0764043
0.183971 0.14275 0.0764043
0.183971 0.14275 0.0764043
0.183971 0.14275 0.0764043
0.183969 0.14275 0.0764043
0.183969 0.14275 0.0764043
0.183969 0.14275 0.0764043
0.183969 0.14275 0.0764043
0.183969 0.14275 0.0764043
0.183969 0.14275 0.0764043
0.183969 0.14275 0.0764043
0.183969 0.142714 0.0764043
0.183969 0.142714 0.0764043
0.183969 0.142714 0.0764043
0.183969 0.142714 0.0764043
0.183969 0.142714 0.0764043
0.183969 0.142714 0.0764043
0.183969 0.142714 0.0764043
0.183969 0.142714 0.0764043
0.183969 0.142714 0.0764043
0.183969 0.142714 0.0764043
0.183969 0.142714 0.0764043
0.183969 0.142714 0.0764043
0.183969 0.142714 0.0764043
0.183969 0.142714 0.0764043
0.183969 0.142714 0.0764043
0.183969 0.142714 0.0764043
0.183969 0.142714 0.0764043
0.183969 0.142714 0.0764043
0.183969 0.142714 0.0764043
0.183969 0.142714 0.0764043
0.183969 0.142714 0.0764043
0.183969 0.142714 0.0764043
0.183969 0.142714 0.0764043
0.183969 0.142714 0.0764043
0.183969 0.142714 0.0764043
0.183969 0.142714 0.0764043
0.183969 0.142714 0.0764043
0.183969 0.142714 0.0764043
0.183969 0.142714 0.0764043
0.183969 0.142714 0.0764043
0.183969 0.142714 0.0764043
0.183969 0.142714 0.0764043
0.183969 0.142714 0.0764043
0.183969 0.142714 0.0764043
0.183969 0.142714 0.0764043
0.183969 0.142714 0.0764043
0.183969 0.142714 0.0764043
0.183969 0.142714 0.0764043
0.183969 0.142714 0.0764043
0.183969 0.142714 0.0764043
0.183969 0.142714 0.0764043
0.183969 0.142714 0.0836737
0.183969 0.142714 0.110395
0.183969 0.142714 0.13331
0.183969 0.142714 0.152419
0.183969 0.142714 0.1678
0.209982 0.142714 0.179618
0.245795 0.142714 0.188108
0.282537 0.142714 0.19356
0.319754 0.142714 0.196311
0.356959 0.187802 0.19679
0.393649 0.232445 0.196062
0.429306 0.276111 0.194607
0.463424 0.318256 0.192647
0.495531 0.358331 0.190407
0.525204 0.3958 0.188106
0.552084 0.430151 0.185955
0.575887 0.460897 0.184145
0.59642 0.487587 0.182842
0.613585 0.509817 0.182189
0.627379 0.527248 0.182452
0.637883 0.539618 0.184347
0.645233 0.546756 0.187998
0.649606 0.548614 0.193403
0.651212 0.546902 0.200479
0.650737 0.542608 0.209078
0.649149 0.535846 0.218967
0.646655 0.526799 0.22984
0.643474 0.515701 0.241327
0.63981 0.502828 0.253008
0.635852 0.488502 0.26442
0.63177 0.473086 0.275072
0.627714 0.456969 0.284462
0.623826 0.440551 0.292089
0.620249 0.424231 0.297477
0.617125 0.408396 0.300184
0.614587 0.393415 0.300113
0.612751 0.379626 0.298231
0.611709 0.367331 0.294525
0.61158 0.356785 0.288914
0.6131 0.348193 0.281363
0.616596 0.348193 0.271887
0.622181 0.348193 0.260554
0.629887 0.348193 0.247482
0.639487 0.348193 0.232858
0.651251 0.348193 0.216873
0.665183 0.348193 0.199777
0.68004 0.351482 0.199777
0.695912 0.366294 0.199777
0.713216 0.383629 0.199777
0.731217 0.402963 0.199777
0.747254 0.42369 0.199777
0.761844 0.445581 0.199777
0.774389 0.468187 0.199777
0.784196 0.490881 0.199777
0.790526 0.513011 0.199777
0.792845 0.533951 0.199777
0.791794 0.553163 0.199777
0.788315 0.569933 0.199777
0.782371 0.583555 0.199777
0.774057 0.593447 0.199777
0.763527 0.599115 0.199777
0.750944 0.600232 0.199777
0.736505 0.598261 0.199777
0.720449 0.59373 0.199777
0.703049 0.586646 0.199777
0.684616 0.577029 0.199777
0.66549 0.565017 0.199777
0.646017 0.550808 0.199777
0.626498 0.534682 0.199777
0.607166 0.516988 0.199777
0.588208 0.498143 0.211586
0.569776 0.478607 0.258318
0.551979 0.478607 0.303447
0.534885 0.478607 0.345951
0.518534 0.478607 0.384844
0.510647 0.478607 0.419205
0.510647 0.478607 0.448212
0.510647 0.478607 0.47117
0.510647 0.478607 0.487523
0.510647 0.478607 0.496861
0.510647 0.478607 0.499016
0.510647 0.478607 0.49637
0.510647 0.478607 0.490081
0.510647 0.478607 0.480272
0.510647 0.478607 0.467144
0.510647 0.478607 0.450965
0.510647 0.478607 0.43207
0.510647 0.478607 0.410843
0.510647 0.478607 0.387715
0.510647 0.478607 0.363146
0.510647 0.478607 0.35047
0.510647 0.478607 0.35047
0.510647 0.478607 0.35047
0.510647 0.478607 0.35047
0.510647 0.478607 0.35047
0.510647 0.478607 0.35047
0.510647 0.478607 0.35047
0.510647 0.478607 0.35047
0.510647 0.478607 0.35047
0.510647 0.478607 0.35047
0.510647 0.478607 0.35047
0.510647 0.478607 0.35047
0.510647 0.478607 0.35047
0.510647 0.478607 0.35047
0.510647 0.478607 0.346096
0.510647 0.478607 0.346096
0.510647 0.478607 0.345427
0.510647 0.478607 0.345427
0.510647 0.478607 0.345427
0.510647 0.478607 0.345421
0.510647 0.478607 0.345421
0.510647 0.471752 0.345421
0.510647 0.471752 0.345415
0.510647 0.471752 0.345415
0.510647 0.471752 0.345415
0.510647 0.471752 0.345415
0.508316 0.471752 0.345415
0.508316 0.471752 0.345415
0.508316 0.471752 0.345415
0.508316 0.471752 0.345415
0.508316 0.471724 0.345415
0.508316 0.471724 0.345415
0.508316 0.471724 0.345415
0.508316 0.471724 0.345415
0.508316 0.471724 0.345415
0.508316 0.471724 0.345415
0.508263 0.471724 0.345415
0.508257 0.471724 0.345415
0.508257 0.471724 0.345415
0.50825 0.471724 0.345415
0.50825 0.471724 0.345415
0.50825 0.471724 0.345415
0.50825 0.471724 0.345415
0.50825 0.471724 0.345415
0.50825 0.471724 0.345415
0.50825 0.471724 0.345415
0.50825 0.471724 0.345415
0.50825 0.471724 0.345415
0.50825 0.471724 0.345415
0.50825 0.471724 0.345415
0.50825 0.471724 0.345415
0.50825 0.471724 0.345415
0.50825 0.471724 0.345415
0.50825 0.471724 0.345415
0.50825 0.471724 0.345415
0.50825 0.471724 0.345415
0.50825 0.471724 0.345415
0.50825 0.471724 0.345415
0.50825 0.471724 0.345415
0.50825 0.471724 0.345415
0.50825 0.471724 0.345415
0.50825 0.471724 0.345415
0.50825 0.471724 0.345415
0.50825 0.471724 0.345415
0.50825 0.471724 0.345415
0.50825 0.471724 0.345415
0.50825 0.471724 0.345415
0.50825 0.471724 0.345415
0.50825 0.471724 0.345415
0.50825 0.471724 0.345415
0.50825 0.471724 0.345415
0.50825 0.471724 0.345415
0.50825 0.471724 0.345415
0.50825 0.471724 0.345415
0.50825 0.471724 0.345415
0.50825 0.471724 0.345415
0.50825 0.471724 0.345415
0.50825 0.471724 0.345415
0.50825 0.471724 0.345415
0.50825 0.471724 0.345415
0.50825 0.471724 0.345415
0.50825 0.471724 0.345415
0.50825 0.471724 0.345415
0.50825 0.471724 0.345415
0.50825 0.471724 0.345415
0.50825 0.471724 0.345415
0.50825 0.471724 0.345415
0.50825 0.471724 0.345415
0.508247 0.471724 0.345415
0.508247 0.471724 0.345415
0.508247 0.471724 0.345415
0.508247 0.471724 0.345415
0.508247 0.471724 0.345415
0.508247 0.471724 0.345415
0.508247 0.471724 0.345415
0.508247 0.471724 0.345415
0.508247 0.471724 0.345415
0.508247 0.471724 0.345415
0.508247 0.471724 0.345415
0.508247 0.471724 0.345415
0.508247 0.471724 0.345415
0.508247 0.471724 0.345415
0.508247 0.471724 0.345415
0.508247 0.471724 0.345415
0.508247 0.471724 0.345415
0.508247 0.471724 0.345415
0.508247 0.471724 0.345415
0.508247 0.471724 0.345415
0.508247 0.471724 0.345415
0.508247 0.471724 0.345415
0.508247 0.471724 0.345415
0.508247 0.471724 0.345415
0.508247 0.471724 0.345415
0.508247 0.471724 0.345415
0.508247 0.471724 0.345415
0.508247 0.471724 0.345415
0.508247 0.471724 0.345415
0.508247 0.471724 0.345415
0.508247 0.471724 0.345415
0.508247 0.471724 0.345415
0.508247 0.471724 0.345415
0.508247 0.471724 0.345415
0.508247 0.471724 0.345415
0.508247 0.471724 0.345415
0.508247 0.471724 0.345415
0.508247 0.471724 0.345415
0.508247 0.471724 0.345415
0.508247 0.471724 0.345415
0.508247 0.471724 0.345415
0.508247 0.471724 0.345415
0.508247 0.471724 0.345415
0.508247 0.471724 0.345415
0.508247 0.471724 0.345415
0.511689 0.471724 0.402122
0.519722 0.471724 0.457653
0.529588 0.471724 0.515993
0.541502 0.471724 0.57323
0.555906 0.471724 0.62343
0.57282 0.471724 0.663769
0.592343 0.471724 0.695679
0.614482 0.471724 0.721695
0.639256 0.471724 0.73741
0.666474 0.471724 0.743327
0.696113 0.471724 0.743744
0.728007 0.471724 0.740473
0.762294 0.471724 0.733745
0.798875 0.471724 0.724164
0.837503 0.517214 0.711683
0.877931 0.566624 0.696147
0.919825 0.618969 0.677938
0.96275 0.673131 0.657933
1.00619 0.727947 0.637021
1.04957 0.782298 0.615746
1.09226 0.835098 0.59441
5.03454 0.847023 0.577101
5.03454 0.842064 0.605433
5.03454 0.904265 0.577625
5.03454 0.913328 0.573736
5.03454 0.943745 0.573736
5.03454 0.990678 0.573736
5.03454 1.01605 0.573736
5.03454 1.02151 0.573736
5.03454 1.035 0.573736
5.03454 1.05075 0.573736
5.03454 1.05313 0.573736
5.03454 1.0486 0.573736
5.03454 1.04371 0.573736
5.03454 1.03886 0.573736
5.03454 1.03079 0.573736
5.03454 1.01985 0.573736
5.03454 1.00781 0.573736
5.03454 0.995329 0.573736
5.03454 0.982291 0.573736
5.03454 0.968637 0.573736
5.03454 0.955074 0.573736
5.03454 0.942175 0.573736
5.03454 0.930201 0.581274
5.03454 0.91926 0.611323
5.03454 0.909727 0.640213
5.03454 0.901824 0.667227
5.03454 0.895771 0.69216
5.03454 0.891849 0.714806
5.03454 0.890099 0.734753
5.03454 0.890694 0.751635
5.03454 0.89559 0.764992
5.03454 0.903619 2.58367
5.03454 0.908056 2.58367
5.03454 0.929459 2.58367
5.03454 0.949924 2.58367
5.03454 0.972497 2.58367
5.03454 0.99936 2.58367
5.03454 1.03033 2.58367
5.03454 1.06282 2.58367
5.03454 4.25895 2.58367
5.03454 4.25895 2.58367
5.03454 4.25895 2.58367
5.03454 4.25895 2.58367
5.03454 4.25895 2.58367
5.03454 4.25895 2.58367
5.03454 4.25895 2.58367
5.03454 4.25895 2.58367
5.03454 4.25895 2.58367
5.03454 4.25895 2.58367
5.03454 4.25895 2.58367
5.03454 4.25895 2.58367
5.03454 4.25895 2.58367
5.03454 4.25895 2.58367
5.03454 4.25895 2.58367
5.03454 4.25895 2.58367
5.03454 4.25895 2.58367
5.03454 4.25895 2.58367
5.03454 4.25895 2.58367
5.03454 4.25895 2.58367
5.03454 4.25895 2.58367
5.03454 4.25895 2.58367
5.03454 4.25895 2.58367
5.03454 4.25895 2.58367
5.03454 4.25895 2.58367
5.03454 4.25895 2.58367
5.03454 4.25895 2.58367
5.03454 4.25895 2.58367
5.03454 4.25895 2.58367
5.03454 4.25895 2.58367
5.03454 4.25895 2.58367
5.03454 4.25895 2.58367
5.03454 4.25895 2.58367
5.03454 4.25895 2.58367
5.03454 4.25895 2.58367
5.03454 4.25895 2.58367
5.03454 4.25895 2.58367
5.03454 4.25895 2.58367
5.03454 4.25895 2.58367
5.03454 4.25895 2.58367
5.03454 4.25895 2.58367
5.03454 4.25895 2.58367
5.03454 4.25895 2.58367
5.03454 4.25895 2.58367
5.03454 4.25895 2.58367
5.03454 4.25895 2.58367
5.03454 4.25895 2.58367
5.03454 4.25895 2.58367
5.03454 4.25895 2.58367
5.03454 4.25895 2.58367
5.03454 4.25895 2.58367
5.03454 4.25895 2.58367
5.03454 4.25895 2.58367
5.03454 4.25895 2.58367
5.03454 4.25895 2.58367
5.03454 4.25895 2.58367
5.03454 4.25895 2.58367
5.03454 4.25895 2.58367
5.03454 4.25895 2.58367
5.03454 4.25895 2.58367
5.03454 4.25895 2.58367
5.03454 4.25895 2.58367
5.03454 4.25895 2.58367
5.03454 4.25895 2.58367
5.03454 4.25895 2.58367
5.03454 4.25895 2.58367
5.03454 4.25895 2.58367
5.03454 4.25895 2.58367
5.03454 4.25895 2.58367
5.03454 4.25895 2.58367
5.03454 4.25895 2.58367
5.03454 4.25895 2.58367
5.03454 4.25895 2.58367
5.03454 4.25895 2.58367
5.03454 4.25895 2.58367
5.03454 4.25895 2.58367
5.03454 4.25895 2.58367
5.03454 4.25895 2.58367
5.03454 4.25895 2.58367
5.03454 4.25895 2.58367
5.03454 4.25895 2.58367
5.03454 4.25895 2.58367
5.03454 4.25895 2.58367
5.03454 4.25895 2.58367
5.03454 4.25895 2.58367
5.03454 4.25895 2.58367
5.03454 4.25895 2.58367
5.03454 4.25895 2.58367
5.03454 4.25895 2.58367
5.03454 4.25895 2.58367
5.03454 4.25895 2.58367
5.03454 4.25895 2.58367
5.03454 4.25895 2.58367
5.03454 4.25895 2.58367
5.03454 4.25895 2.58367
5.03454 4.25895 2.58367
5.03454 4.25895 2.58367
5.03454 4.25895 2.58367
5.03454 4.25895 2.58367
5.03454 4.25895 2.58367
5.03454 4.25895 2.58367
5.03454 4.25895 2.58367
5.03454 4.25895 2.58367
5.03454 4.25895 2.58367
5.03454 4.25895 2.58367
5.03454 4.25895 2.58367
5.03454 4.25895 2.58367
5.03454 4.25895 2.58367
5.03454 4.25895 2.58367
5.03454 4.25895 2.58367
5.03454 4.25895 2.58367
5.03454 4.25895 2.58367
5.03454 4.25895 2.58367
5.03454 4.25895 2.58367
5.03454 4.25895 2.58367
5.03454 4.25895 2.58367
5.03454 4.25895 2.58367
5.03454 4.25895 2.58367
5.03454 4.25895 2.58367
5.03454 4.25895 2.58367
5.03454 4.25895 2.58367
5.03454 4.25895 2.58367
5.03454 4.25895 2.58367
5.03454 4.25895 2.58367
5.03454 4.25895 2.58367
5.03454 4.25895 2.58367
5.03454 4.25895 2.58367
5.03454 4.25895 2.58367
5.03454 4.25895 2.58367
5.03454 4.25895 2.58367
5.03454 4.25895 2.58367
5.03454 4.25895 2.58367
5.03454 4.25895 2.58367
5.03454 4.25895 2.58367
5.03454 4.25895 2.58367
5.03454 4.25895 2.58367
5.03454 4.25895 2.58367
5.03454 4.25895 2.58367
5.03454 4.25895 2.58367
5.03454 4.25895 2.58367
5.03454 4.25895 2.58367
5.03454 4.25895 2.58367
5.03454 4.25895 2.58367
5.03454 4.25895 2.58367
5.03454 4.25895 2.58367
5.03454 4.25895 2.58367
5.03454 4.25895 2.58367
5.03454 4.25895 2.58367
5.03454 4.25895 2.58367
5.03454 4.25895 2.58367
5.03454 4.25895 2.58367
5.03454 4.25895 2.58367
5.03454 4.25895 2.58367
5.03454 4.25895 2.58367
5.03454 4.25895 2.58367
5.03454 4.25895 2.58367
5.03454 4.25895 2.58367
5.03454 4.25895 2.58367
5.03454 4.25895 2.58367
5.03454 4.25895 2.58367
5.03454 4.25895 2.58367
5.03454 4.25895 2.58367
5.03454 4.25895 2.58367
5.03454 4.25895 2.58367
5.03454 4.25895 2.58367
5.03454 4.25895 2.58367
5.03454 4.25895 2.58367
5.03454 4.25895 2.58367
5.03454 4.25895 2.58367
5.03454 4.25895 2.58367
5.03454 4.25895 2.58367
5.03454 4.25895 2.58367
5.03454 4.25895 2.58367
5.03454 4.25895 2.58367
5.03454 4.25895 2.58367
5.03454 4.25895 2.58367
5.03454 4.25895 2.58367
5.03454 4.25895 2.58367
5.03454 4.25895 2.58367
5.03454 4.25895 2.58367
5.03454 4.25895 2.58367
5.03454 4.25895 2.58367
5.03454 4.25895 2.58367
5.03454 4.25895 2.58367
5.03454 4.25895 2.58367
5.03454 4.25895 2.58367
5.03454 4.25895 2.58367
5.03454 4.25895 2.58367
5.03454 4.25895 2.58367
5.03454 4.25895 2.58367
5.03454 4.25895 2.58367
5.03454 4.25895 2.58367
5.03454 4.25895 2.58367
5.03454 4.25895 2.58367
5.03454 4.25895 2.58367
5.03454 4.25895 2.58367
5.03454 4.25895 2.58367
5.03454 4.25895 2.58367
5.03454 4.25895 2.58367
5.03454 4.25895 2.58367
5.03454 4.25895 2.58367
5.03454 4.25895 2.58367
5.03454 4.25895 2.58367
5.03454 4.25895 2.58367
5.03454 4.25895 2.58367
5.03454 4.25895 2.58367
5.03454 4.25895 2.58367
5.03454 4.25895 2.58367
5.03454 4.25895 2.58367
5.03454 4.25895 2.58367
5.03454 4.25895 2.58367
5.03454 4.25895 2.58367
5.03454 4.25895 2.58367
5.03454 4.25895 2.58367
5.03454 4.25895 2.58367
5.03454 4.25895 2.58367
5.03454 4.25895 2.58367
5.03454 4.25895 2.58367
5.03454 4.25895 2.58367
5.03454 4.25895 2.58367
5.03454 4.25895 2.58367
5.03454 4.25895 2.58367
5.03454 4.25895 2.58367
5.03454 4.25895 2.58367
5.03454 4.25895 2.58367
5.03454 4.25895 2.58367
5.03454 4.25895 2.58367
5.03454 4.25895 2.58367
5.03454 4.25895 2.58367
5.03454 4.25895 2.58367
5.03454 4.25895 2.58367
5.03454 4.25895 2.58367
5.03454 4.25895 2.58367
5.03454 4.25895 2.58367
5.03454 4.25895 2.58367
5.03454 4.25895 2.58367
5.03454 4.25895 2.58367
5.03454 4.25895 2.58367
5.03454 4.25895 2.58367
5.03454 4.25895 2.58367
5.03454 4.25895 2.58367
5.03454 4.25895 2.58367
5.03454 4.25895 2.58367
5.03454 4.25895 2.58367
5.03454 4.25895 2.58367
5.03454 4.25895 2.58367
5.03454 4.25895 2.58367
5.03454 4.25895 2.58367
5.03454 4.25895 2.58367
5.03454 4.25895 2.58367
5.03454 4.25895 2.58367
5.03454 4.25895 2.58367
5.03454 4.25895 2.58367
5.03454 4.25895 2.58367
5.03454 4.25895 2.58367
5.03454 4.25895 2.58367
5.03454 4.25895 2.58367
5.03454 4.25895 2.58367
5.03454 4.25895 2.58367
5.03454 4.25895 2.58367
5.03454 4.25895 2.58367
5.03454 4.25895 2.58367
5.03454 4.25895 2.58367
5.03454 4.25895 2.58367
5.03454 4.25895 2.58367
5.03454 4.25895 2.58367
5.03454 4.25895 2.58367
5.03454 4.25895 2.58367
5.03454 4.25895 2.58367
5.03454 4.25895 2.58367
5.03454 4.25895 2.58367
5.03454 4.25895 2.58367
5.03454 4.25895 2.58367
5.03454 4.25895 2.58367
5.03454 4.25895 2.58367
5.03454 4.25895 2.58367
5.03454 4.25895 2.58367
5.03454 4.25895 2.58367
5.03454 4.25895 2.58367
5.03454 4.25895 2.58367
5.03454 4.25895 2.58367
5.03454 4.25895 2.58367
5.03454 4.25895 2.58367
5.03454 4.25895 2.58367
5.03454 4.25895 2.58367
5.03454 4.25895 2.58367
5.03454 4.25895 2.58367
5.03454 4.25895 2.58367
5.03454 4.25895 2.58367
5.03454 4.25895 2.58367
5.03454 4.25895 2.58367
5.03454 4.25895 2.58367
5.03454 4.25895 2.58367
5.03454 4.25895 2.58367
5.03454 4.25895 2.58367
5.03454 4.25895 2.58367
5.03454 4.25895 2.58367
5.03454 4.25895 2.58367
5.03454 4.25895 2.58367
5.03454 4.25895 2.58367
5.03454 4.25895 2.58367
5.03454 4.25895 2.58367
5.03454 4.25895 2.58367
5.03454 4.25895 2.58367
5.03454 4.25895 2.58367
5.03454 4.25895 2.58367
5.03454 4.25895 2.58367
5.03454 4.25895 2.58367
5.03454 4.25895 2.58367
5.03454 4.25895 2.58367
5.03454 4.25895 2.58367
5.03454 4.25895 2.58367
5.03454 4.25895 2.58367
5.03454 4.25895 2.58367
5.03454 4.25895 2.58367
5.03454 4.25895 2.58367
5.03454 4.25895 2.58367
5.03454 4.25895 2.58367
5.03454 4.25895 2.58367
5.03454 4.25895 2.58367
5.03454 4.25895 2.58367
5.03454 4.25895 2.58367
5.03454 4.25895 2.58367
5.03454 4.25895 2.58367
5.03454 4.25895 2.58367
5.03454 4.25895 2.58367
5.03454 4.25895 2.58367
5.03454 4.25895 2.58367
5.03454 4.25895 2.58367
5.03454 4.25895 2.58367
5.03454 4.25895 2.58367
5.03454 4.25895 2.58367
5.03454 4.25895 2.58367
5.03454 4.25895 2.58367
5.03454 4.25895 2.58367
5.03454 4.25895 2.58367
5.03454 4.25895 2.58367
5.03454 4.25895 2.58367
5.03454 4.25895 2.58367
5.03454 4.25895 2.58367
5.03454 4.25895 2.58367
5.03454 4.25895 2.58367
5.03454 4.25895 2.58367
5.03454 4.25895 2.58367
5.03454 4.25895 2.58367
5.03454 4.25895 2.58367
5.03454 4.25895 2.58367
5.03454 4.25895 2.58367
5.03454 4.25895 2.58367
5.03454 4.25895 2.58367
5.03454 4.25895 2.58367
5.03454 4.25895 2.58367
5.03454 4.25895 2.58367
5.03454 4.25895 2.58367
5.03454 4.25895 2.58367
5.03454 4.25895 2.58367
5.03454 4.25895 2.58367
5.03454 4.25895 2.58367
5.03454 4.25895 2.58367
5.03454 4.25895 2.58367
5.03454 4.25895 2.58367
5.03454 4.25895 2.58367
5.03454 4.25895 2.58367
5.03454 4.25895 2.58367
5.03454 4.25895 2.58367
5.03454 4.25895 2.58367
5.03454 4.25895 2.58367
5.03454 4.25895 2.58367
5.03454 4.25895 2.58367
5.03454 4.25895 2.58367
5.03454 4.25895 2.58367
5.03454 4.25895 2.58367
5.03454 4.25895 2.58367
5.03454 4.25895 2.58367
5.03454 4.25895 2.58367
5.03454 4.25895 2.58367
5.03454 4.25895 2.58367
5.03454 4.25895 2.58367
5.03454 4.25895 2.58367
5.03454 4.25895 2.58367
5.03454 4.25895 2.58367
5.03454 4.25895 2.58367
5.03454 4.25895 2.58367
5.03454 4.25895 2.58367
5.03454 4.25895 2.58367
5.03454 4.25895 2.58367
5.03454 4.25895 2.58367
5.03454 4.25895 2.58367
5.03454 4.25895 2.58367
5.03454 4.25895 2.58367
5.03454 4.25895 2.58367
5.03454 4.25895 2.58367
5.03454 4.25895 2.58367
5.03454 4.25895 2.58367
5.03454 4.25895 2.58367
5.03454 4.25895 2.58367
5.03454 4.25895 2.58367
5.03454 4.25895 2.58367
5.03454 4.25895 2.58367
5.03454 4.25895 2.58367
5.03454 4.25895 2.58367
5.03454 4.25895 2.58367
5.03454 4.25895 2.58367
5.03454 4.25895 2.58367
5.03454 4.25895 2.58367
5.03454 4.25895 2.58367
5.03454 4.25895 2.58367
5.03454 4.25895 2.58367
5.03454 4.25895 2.58367
5.03454 4.25895 2.58367
5.03454 4.25895 2.58367
5.03454 4.25895 2.58367
5.03454 4.25895 2.58367
5.03454 4.25895 2.58367
5.03454 4.25895 2.58367
5.03454 4.25895 2.58367
5.03454 4.25895 2.58367
5.03454 4.25895 2.58367
5.03454 4.25895 2.58367
5.03454 4.25895 2.58367
5.03454 4.25895 2.58367
5.03454 4.25895 2.58367
5.03454 4.25895 2.58367
5.03454 4.25895 2.58367
5.03454 4.25895 2.58367
5.03454 4.25895 2.58367
5.03454 4.25895 2.58367
5.03454 4.25895 2.58367
5.03454 4.25895 2.58367
5.03454 4.25895 2.58367
5.03454 4.25895 2.58367
5.03454 4.25895 2.58367
5.03454 4.25895 2.58367
5.03454 4.25895 2.58367
5.03454 4.25895 2.58367
5.03454 4.25895 2.58367
5.03454 4.25895 2.58367
5.03454 4.25895 2.58367
5.03454 4.25895 2.58367
5.03454 4.25895 2.58367
5.03454 4.25895 2.58367
5.03454 4.25895 2.58367
5.03454 4.25895 2.58367
5.03454 4.25895 2.58367
5.03454 4.25895 2.58367
5.03454 4.25895 2.58367
5.03454 4.25895 2.58367
5.03454 4.25895 2.58367
5.03454 4.25895 2.58367
5.03454 4.25895 2.58367
5.03454 4.25895 2.58367
5.03454 4.25895 2.58367
5.03454 4.25895 2.58367
5.03454 4.25895 2.58367
5.03454 4.25895 2.58367
5.03454 4.25895 2.58367
5.03454 4.25895 2.58367
5.03454 4.25895 2.58367
5.03454 4.25895 2.58367
5.03454 4.25895 2.58367
5.03454 4.25895 2.58367
5.03454 4.25895 2.58367
5.03454 4.25895 2.58367
5.03454 4.25895 2.58367
5.03454 4.25895 2.58367
5.03454 4.25895 2.58367
5.03454 4.25895 2.58367
5.03454 4.25895 2.58367
5.03454 4.25895 2.58367
5.03454 4.25895 2.58367
5.03454 4.25895 2.58367
5.03454 4.25895 2.58367
5.03454 4.25895 2.58367
5.03454 4.25895 2.58367
5.03454 4.25895 2.58367
5.03454 4.25895 2.58367
5.03454 4.25895 2.58367
5.03454 4.25895 2.58367
5.03454 4.25895 2.58367
5.03454 4.25895 2.58367
5.03454 4.25895 2.58367
5.03454 4.25895 2.58367
5.03454 4.25895 2.58367
5.03454 4.25895 2.58367
5.03454 4.25895 2.58367
5.03454 4.25895 2.58367
5.03454 4.25895 2.58367
5.03454 4.25895 2.58367
5.03454 4.25895 2.58367
5.03454 4.25895 2.58367
5.03454 4.25895 2.58367
5.03454 4.25895 2.58367
5.03454 4.25895 2.58367
5.03454 4.25895 2.58367
5.03454 4.25895 2.58367
5.03454 4.25895 2.58367
5.03454 4.25895 2.58367
5.03454 4.25895 2.58367
5.03454 4.25895 2.58367
5.03454 4.25895 2.58367
5.03454 4.25895 2.58367
5.03454 4.25895 2.58367
5.03454 4.25895 2.58367
5.03454 4.25895 2.58367
5.03454 4.25895 2.58367
5.03454 4.25895 2.58367
5.03454 4.25895 2.58367
5.03454 4.25895 2.58367
5.03454 4.25895 2.58367
5.03454 4.25895 2.58367
5.03454 4.25895 2.58367
5.03454 4.25895 2.58367
5.03454 4.25895 2.58367
5.03454 4.25895 2.58367
5.03454 4.25895 2.58367
5.03454 4.25895 2.58367
5.03454 4.25895 2.58367
5.03454 4.25895 2.58367
5.03454 4.25895 2.58367
5.03454 4.25895 2.58367
5.03454 4.25895 2.58367
5.03454 4.25895 2.58367
5.03454 4.25895 2.58367
5.03454 4.25895 2.58367
5.03454 4.25895 2.58367
5.03454 4.25895 2.58367
5.03454 4.25895 2.58367
5.03454 4.25895 2.58367
5.03454 4.25895 2.58367
5.03454 4.25895 2.58367
5.03454 4.25895 2.58367
5.03454 4.25895 2.58367
5.03454 4.25895 2.58367
5.03454 4.25895 2.58367
5.03454 4.25895 2.58367
5.03454 4.25895 2.58367
5.03454 4.25895 2.58367
5.03454 4.25895 2.58367
5.03454 4.25895 2.58367
5.03454 4.25895 2.58367
5.03454 4.25895 2.58367
5.03454 4.25895 2.58367
5.03454 4.25895 2.58367
5.03454 4.25895 2.58367
5.03454 4.25895 2.58367
5.03454 4.25895 2.58367
5.03454 4.25895 2.58367
5.03454 4.25895 2.58367
5.03454 4.25895 2.58367
5.03454 4.25895 2.58367
5.03454 4.25895 2.58367
5.03454 4.25895 2.58367
5.03454 4.25895 2.58367
5.03454 4.25895 2.58367
5.03454 4.25895 2.58367
5.03454 4.25895 2.58367
5.03454 4.25895 2.58367
5.03454 4.25895 2.58367
5.03454 4.25895 2.58367
5.03454 4.25895 2.58367
5.03454 4.25895 2.58367
5.03454 4.25895 2.58367
5.03454 4.25895 2.58367
5.03454 4.25895 2.58367
5.03454 4.25895 2.58367
5.03454 4.25895 2.58367
5.03454 4.25895 2.58367
5.03454 4.25895 2.58367
5.03454 4.25895 2.58367
5.03454 4.25895 2.58367
5.03454 4.25895 2.58367
5.03454 4.25895 2.58367
5.03454 4.25895 2.58367
5.03454 4.25895 2.58367
5.03454 4.25895 2.58367
5.03454 4.25895 2.58367
5.03454 4.25895 2.58367
5.03454 4.25895 2.58367
5.03454 4.25895 2.58367
5.03454 4.25895 2.58367
5.03454 4.25895 2.58367
5.03454 4.25895 2.58367
5.03454 4.25895 2.58367
5.03454 4.25895 2.58367
5.03454 4.25895 2.58367
5.03454 4.25895 2.58367
5.03454 4.25895 2.58367
5.03454 4.25895 2.58367
5.03454 4.25895 2.58367
5.03454 4.25895 2.58367
5.03454 4.25895 2.58367
5.03454 4.25895 2.58367
5.03454 4.25895 2.58367
5.03454 4.25895 2.58367
5.03454 4.25895 2.58367
5.03454 4.25895 2.58367
5.03454 4.25895 2.58367
5.03454 4.25895 2.58367
5.03454 4.25895 2.58367
5.03454 4.25895 2.58367
5.03454 4.25895 2.58367
5.03454 4.25895 2.58367
5.03454 4.25895 2.58367
5.03454 4.25895 2.58367
5.03454 4.25895 2.58367
5.03454 4.25895 2.58367
5.03454 4.25895 2.58367
5.03454 4.25895 2.58367
5.03454 4.25895 2.58367
5.03454 4.25895 2.58367
5.03454 4.25895 2.58367
5.03454 4.25895 2.58367
5.03454 4.25895 2.58367
5.03454 4.25895 2.58367
5.03454 4.25895 2.58367
5.03454 4.25895 2.58367
5.03454 4.25895 2.58367
5.03454 4.25895 2.58367
5.03454 4.25895 2.58367
5.03454 4.25895 2.58367
5.03454 4.25895 2.58367
5.03454 4.25895 2.58367
5.03454 4.25895 2.58367
5.03454 4.25895 2.58367
5.03454 4.25895 2.58367
5.03454 4.25895 2.58367
5.03454 4.25895 2.58367
5.03454 4.25895 2.58367
5.03454 4.25895 2.58367
5.03454 4.25895 2.58367
5.03454 4.25895 2.58367
5.03454 4.25895 2.58367
5.03454 4.25895 2.58367
5.03454 4.25895 2.58367
5.03454 4.25895 2.58367
5.03454 4.25895 2.58367
5.03454 4.25895 2.58367
5.03454 4.25895 2.58367
5.03454 4.25895 2.58367
5.03454 4.25895 2.58367
5.03454 4.25895 2.58367
5.03454 4.25895 2.58367
5.03454 4.25895 2.58367
5.03454 4.25895 2.58367
5.03454 4.25895 2.58367
5.03454 4.25895 2.58367
5.03454 4.25895 2.58367
5.03454 4.25895 2.58367
5.03454 4.25895 2.58367
5.03454 4.25895 2.58367
5.03454 4.25895 2.58367
5.03454 4.25895 2.58367
5.03454 4.25895 2.58367
5.03454 4.25895 2.58367
5.03454 4.25895 2.58367
5.03454 4.25895 2.58367
5.03454 4.25895 2.58367
5.03454 4.25895 2.58367
5.03454 4.25895 2.58367
5.03454 4.25895 2.58367
5.03454 4.25895 2.58367
5.03454 4.25895 2.58367
5.03454 4.25895 2.58367
5.03454 4.25895 2.58367
5.03454 4.25895 2.58367
5.03454 4.25895 2.58367
5.03454 4.25895 2.58367
5.03454 4.25895 2.58367
5.03454 4.25895 2.58367
5.03454 4.25895 2.58367
5.03454 4.25895 2.58367
5.03454 4.25895 2.58367
5.03454 4.25895 2.58367
5.03454 4.25895 2.58367
5.03454 4.25895 2.58367
5.03454 4.25895 2.58367
5.03454 4.25895 2.58367
5.03454 4.25895 2.58367
5.03454 4.25895 2.58367
5.03454 4.25895 2.58367
5.03454 4.25895 2.58367
5.03454 4.25895 2.58367
5.03454 4.25895 2.58367
5.03454 4.25895 2.58367
5.03454 4.25895 2.58367
5.03454 4.25895 2.58367
5.03454 4.25895 2.58367
5.03454 4.25895 2.58367
5.03454 4.25895 2.58367
5.03454 4.25895 2.58367
5.03454 4.25895 2.58367
5.03454 4.25895 2.58367
5.03454 4.25895 2.58367
5.03454 4.25895 2.58367
5.03454 4.25895 2.58367
5.03454 4.25895 2.58367
5.03454 4.25895 2.58367
5.03454 4.25895 2.58367
5.03454 4.25895 2.58367
5.03454 4.25895 2.58367
5.03454 4.25895 2.58367
5.03454 4.25895 2.58367
5.03454 4.25895 2.58367
5.03454 4.25895 2.58367
5.03454 4.25895 2.58367
5.03454 4.25895 2.58367
5.03454 4.25895 2.58367
5.03454 4.25895 2.58367
5.03454 4.25895 2.58367
5.03454 4.25895 2.58367
5.03454 4.25895 2.58367
5.03454 4.25895 2.58367
5.03454 4.25895 2.58367
5.03454 4.25895 2.58367
5.03454 4.25895 2.58367
5.03454 4.25895 2.58367
5.03454 4.25895 2.58367
5.03454 4.25895 2.58367
5.03454 4.25895 2.58367
5.03454 4.25895 2.58367
5.03454 4.25895 2.58367
5.03454 4.25895 2.58367
5.03454 4.25895 2.58367
5.03454 4.25895 2.58367
5.03454 4.25895 2.58367
5.03454 4.25895 2.58367
5.03454 4.25895 2.58367
5.03454 4.25895 2.58367
5.03454 4.25895 2.58367
5.03454 4.25895 2.58367
5.03454 4.25895 2.58367
5.03454 4.25895 2.58367
5.03454 4.25895 2.58367
5.03454 4.25895 2.58367
5.03454 4.25895 2.58367
5.03454 4.25895 2.58367
5.03454 4.25895 2.58367
5.03454 4.25895 2.58367
5.03454 4.25895 2.58367
5.03454 4.25895 2.58367
5.03454 4.25895 2.58367
5.03454 4.25895 2.58367
5.03454 4.25895 2.58367
5.03454 4.25895 2.58367
5.03454 4.25895 2.58367
5.03454 4.25895 2.58367
5.03454 4.25895 2.58367
5.03454 4.25895 2.58367
5.03454 4.25895 2.58367
5.03454 4.25895 2.58367
5.03454 4.25895 2.58367
5.03454 4.25895 2.58367
5.03454 4.25895 2.58367
5.03454 4.25895 2.58367
5.03454 4.25895 2.58367
5.03454 4.25895 2.58367
5.03454 4.25895 2.58367
5.03454 4.25895 2.58367
5.03454 4.25895 2.58367
5.03454 4.25895 2.58367
5.03454 4.25895 2.58367
5.03454 4.25895 2.58367
5.03454 4.25895 2.58367
5.03454 4.25895 2.58367
5.03454 4.25895 2.58367
5.03454 4.25895 2.58367
5.03454 4.25895 2.58367
5.03454 4.25895 2.58367
5.03454 4.25895 2.58367
5.03454 4.25895 2.58367
5.03454 4.25895 2.58367
5.03454 4.25895 2.58367
5.03454 4.25895 2.58367
5.03454 4.25895 2.58367
5.03454 4.25895 2.58367
5.03454 4.25895 2.58367
5.03454 4.25895 2.58367
5.03454 4.25895 2.58367
5.03454 4.25895 2.58367
5.03454 4.25895 2.58367
5.03454 4.25895 2.58367
5.03454 4.25895 2.58367
5.03454 4.25895 2.58367
5.03454 4.25895 2.58367
5.03454 4.25895 2.58367
5.03454 4.25895 2.58367
5.03454 4.25895 2.58367
5.03454 4.25895 2.58367
5.03454 4.25895 2.58367
5.03454 4.25895 2.58367
5.03454 4.25895 2.58367
5.03454 4.25895 2.58367
5.03454 4.25895 2.58367
5.03454 4.25895 2.58367
5.03454 4.25895 2.58367
5.03454 4.25895 2.58367
5.03454 4.25895 2.58367
5.03454 4.25895 2.58367
5.03454 4.25895 2.58367
5.03454 4.25895 2.58367
5.03454 4.25895 2.58367
5.03454 4.25895 2.58367
5.03454 4.25895 2.58367
5.03454 4.25895 2.58367
5.03454 4.25895 2.58367
5.03454 4.25895 2.58367
5.03454 4.25895 2.58367
5.03454 4.25895 2.58367
5.03454 4.25895 2.58367
5.03454 4.25895 2.58367
5.03454 4.25895 2.58367
5.03454 4.25895 2.58367
5.03454 4.25895 2.58367
5.03454 4.25895 2.58367
5.03454 4.25895 2.58367
5.03454 4.25895 2.58367
5.03454 4.25895 2.58367
5.03454 4.25895 2.58367
5.03454 4.25895 2.58367
5.03454 4.25895 2.58367
5.03454 4.25895 2.58367
5.03454 4.25895 2.58367
5.03454 4.25895 2.58367
5.03454 4.25895 2.58367
5.03454 4.25895 2.58367
5.03454 4.25895 2.58367
5.03454 4.25895 2.58367
5.03454 4.25895 2.58367
5.03454 4.25895 2.58367
5.03454 4.25895 2.58367
5.03454 4.25895 2.58367
5.03454 4.25895 2.58367
5.03454 4.25895 2.58367
5.03454 4.25895 2.58367
5.03454 4.25895 2.58367
5.03454 4.25895 2.58367
5.03454 4.25895 2.58367
5.03454 4.25895 2.58367
5.03454 4.25895 2.58367
5.03454 4.25895 2.58367
5.03454 4.25895 2.58367
5.03454 4.25895 2.58367
5.03454 4.25895 2.58367
5.03454 4.25895 2.58367
5.03454 4.25895 2.58367
5.03454 4.25895 2.58367
5.03454 4.25895 2.58367
5.03454 4.25895 2.58367
5.03454 4.25895 2.58367
5.03454 4.25895 2.58367
5.03454 4.25895 2.58367
5.03454 4.25895 2.58367
5.03454 4.25895 2.58367
5.03454 4.25895 2.58367
5.03454 4.25895 2.58367
5.03454 4.25895 2.58367
5.03454 4.25895 2.58367
5.03454 4.25895 2.58367
5.03454 4.25895 2.58367
5.03454 4.25895 2.58367
5.03454 4.25895 2.58367
5.03454 4.25895 2.58367
5.03454 4.25895 2.58367
5.03454 4.25895 2.58367
5.03454 4.25895 2.58367
5.03454 4.25895 2.58367
5.03454 4.25895 2.58367
5.03454 4.25895 2.58367
5.03454 4.25895 2.58367
5.03454 4.25895 2.58367
5.03454 4.25895 2.58367
5.03454 4.25895 2.58367
5.03454 4.25895 2.58367
5.03454 4.25895 2.58367
5.03454 4.25895 2.58367
5.03454 4.25895 2.58367
5.03454 4.25895 2.58367
5.03454 4.25895 2.58367
5.03454 4.25895 2.58367
5.03454 4.25895 2.58367
5.03454 4.25895 2.58367
5.03454 4.25895 2.58367
5.03454 4.25895 2.58367
5.03454 4.25895 2.58367
5.03454 4.25895 2.58367
5.03454 4.25895 2.58367
5.03454 4.25895 2.58367
5.03454 4.25895 2.58367
5.03454 4.25895 2.58367
5.03454 4.25895 2.58367
5.03454 4.25895 2.58367
5.03454 4.25895 2.58367
5.03454 4.25895 2.58367
5.03454 4.25895 2.58367
5.03454 4.25895 2.58367
5.03454 4.25895 2.58367
5.03454 4.25895 2.58367
5.03454 4.25895 2.58367
5.03454 4.25895 2.58367
5.03454 4.25895 2.58367
5.03454 4.25895 2.58367
5.03454 4.25895 2.58367
5.03454 4.25895 2.58367
5.03454 4.25895 2.58367
5.03454 4.25895 2.58367
5.03454 4.25895 2.58367
5.03454 4.25895 2.58367
5.03454 4.25895 2.58367
5.03454 4.25895 2.58367
5.03454 4.25895 2.58367
5.03454 4.25895 2.58367
5.03454 4.25895 2.58367
5.03454 4.25895 2.58367
5.03454 4.25895 2.58367
5.03454 4.25895 2.58367
5.03454 4.25895 2.58367
5.03454 4.25895 2.58367
5.03454 4.25895 2.58367
5.03454 4.25895 2.58367
5.03454 4.25895 2.58367
5.03454 4.25895 2.58367
5.03454 4.25895 2.58367
5.03454 4.25895 2.58367
5.03454 4.25895 2.58367
5.03454 4.25895 2.58367
5.03454 4.25895 2.58367
5.03454 4.25895 2.58367
5.03454 4.25895 2.58367
5.03454 4.25895 2.58367
5.03454 4.25895 2.58367
5.03454 4.25895 2.58367
5.03454 4.25895 2.58367
5.03454 4.25895 2.58367
5.03454 4.25895 2.58367
5.03454 4.25895 2.58367
5.03454 4.25895 2.58367
5.03454 4.25895 2.58367
5.03454 4.25895 2.58367
5.03454 4.25895 2.58367
5.03454 4.25895 2.58367
5.03454 4.25895 2.58367
5.03454 4.25895 2.58367
5.03454 4.25895 2.58367
5.03454 4.25895 2.58367
5.03454 4.25895 2.58367
5.03454 4.25895 2.58367
5.03454 4.25895 2.58367
5.03454 4.25895 2.58367
5.03454 4.25895 2.58367
5.03454 4.25895 2.58367
5.03454 4.25895 2.58367
5.03454 4.25895 2.58367
5.03454 4.25895 2.58367
5.03454 4.25895 2.58367
5.03454 4.25895 2.58367
5.03454 4.25895 2.58367
5.03454 4.25895 2.58367
5.03454 4.25895 2.58367
5.03454 4.25895 2.58367
5.03454 4.25895 2.58367
5.03454 4.25895 2.58367
5.03454 4.25895 2.58367
5.03454 4.25895 2.58367
5.03454 4.25895 2.58367
5.03454 4.25895 2.58367
5.03454 4.25895 2.58367
5.03454 4.25895 2.58367
5.03454 4.25895 2.58367
5.03454 4.25895 2.58367
5.03454 4.25895 2.58367
5.03454 4.25895 2.58367
5.03454 4.25895 2.58367
5.03454 4.25895 2.58367
5.03454 4.25895 2.58367
5.03454 4.25895 2.58367
5.03454 4.25895 2.58367
5.03454 4.25895 2.58367
5.03454 4.25895 2.58367
5.03454 4.25895 2.58367
5.03454 4.25895 2.58367
5.03454 4.25895 2.58367
5.03454 4.25895 2.58367
