0 0 0
0 0 0
0 0 0
0 0 0
0 0 0
0 0 0
0 0 0
0 0 0
0 0 0
0 0 0
0 0 0
0 0 0
0 0 0
0 0 0
0 0 0
0 0 0
0 0 0
0 0 0
0 0 0
0 0 0
0 0 0
0 0 0
0 0 0
0 0 0
0 0 0
0 0 0
0 0 0
0 0 0
0 0 0
0 0 0
0 0 0
0 0 0
0 0 0
0 0 0
0 0 0
0 0 0
0 0 0
0 0 0
0 0 0
0 0 0
0 0 0
0 0 0
0 0 0
0 0 0
0 0 0
0 0 0
0 0 0
0 0 0
0 0 0
0 0 0
0 0 0
0 0 0
0 0 0
0 0 0
0 0 0
0 0 0
0 0 0
0 0 0
0 0 0
0 0 0
0 0 0
0 0 0
0 0 0
0 0 0
0 0 0
0 0 0
0 0 0
0 0 0
0 0 0
0 0 0
0 0 0
0 0 0
0 0 0
0 0 0
0 0 0
0 0 0
0 0 0
0 0 0
0 0 0
0 0 0
0 0 0
0 0 0
0 0 0
0 0 0
0 0 0
0 0 0
0 0 0
0 0 0
0 0 0
0 0 0
0 0 0
0 0 0
0 0 0
0 0 0
0 0 0
0 0 0
0 0 0
0 0 0
0 0 0
0 0 0
0 0 0
0 0 0
0 0 0
0 0 0
0 0 0
0 0 0
0 0 0
0 0 0
0 0 0
0 0 0
0 0 0
0 0 0
0 0 0
0 0 0
0 0 0
0 0 0
0 0 0
0 0 0
0 0 0
0 0 0
0 0 0
0 0 0
0 0 0
0 0 0
0 0 0
0 0 0.05188
0.00667577 0 0.100245
0.0262403 0 0.143921
0.0507142 0 0.181769
0.0807423 0 0.212801
0.116414 0 0.236301
0.15726 0 0.251813
0.202433 0.0229421 0.259168
0.250927 0.0496082 0.25916
0.30169 0.0798325 0.255023
0.353714 0.113125 0.247484
0.406053 0.148697 0.237074
0.457819 0.185521 0.224431
0.508201 0.222386 0.210277
0.55643 0.257981 0.19538
0.60171 0.290993 0.180517
0.643201 0.320198 0.166427
0.680096 0.344521 0.153778
0.711695 0.363089 0.143141
0.733955 0.3753 0.134985
0.75121 0.380399 0.134985
0.763623 0.380549 0.134985
0.765993 0.376555 0.134985
0.765161 0.369909 0.134985
0.759947 0.361484 0.139514
0.744433 0.352783 0.152714
0.727088 0.340946 0.170237
0.708286 0.328698 0.189119
0.687923 0.315355 0.209459
0.666741 0.301323 0.229917
0.646068 0.287285 0.249365
0.626269 0.273678 0.266719
0.60814 0.260822 0.28089
0.592481 0.249074 0.291038
0.579769 0.238799 0.296512
0.570459 0.230306 0.297013
0.56494 0.223777 0.29429
0.563355 0.219323 0.288708
0.568125 0.21704 0.280357
0.580636 0.217148 0.269416
0.599876 0.221155 0.256164
0.621019 0.230013 0.24091
0.643164 0.242833 0.224209
0.665081 0.258989 0.217258
0.685907 0.277469 0.217258
0.701176 0.293116 0.217258
0.714764 0.308803 0.217258
0.726278 0.323903 0.217258
0.735328 0.337824 0.217258
0.741543 0.349997 0.217258
0.744598 0.359907 0.217258
0.744518 0.367134 0.217258
0.742429 0.371379 0.217258
0.73829 0.372479 0.217258
0.73193 0.371407 0.217258
0.723186 0.368741 0.217258
0.711939 0.364549 0.217258
0.698154 0.35893 0.217258
0.681912 0.352008 0.217258
0.663416 0.343915 0.217258
0.642971 0.334796 0.217258
0.620939 0.32481 0.217258
0.597685 0.314137 0.217258
0.573557 0.302971 0.224802
0.548883 0.291514 0.254605
0.523983 0.279965 0.283244
0.499179 0.271359 0.309984
0.480822 0.271359 0.334132
0.480822 0.271359 0.355053
0.480822 0.271359 0.372187
0.480822 0.271359 0.385057
0.480822 0.271359 0.393285
0.480822 0.271359 0.3966
0.480822 0.271359 0.395739
0.480822 0.271359 0.392295
0.480822 0.271359 0.386319
0.480822 0.271359 0.377895
0.480822 0.271359 0.367156
0.480822 0.271359 0.354279
0.480822 0.271359 0.339509
0.480822 0.271359 0.323414
0.480822 0.271359 0.310126
0.480822 0.271359 0.310126
0.480822 0.271359 0.310126
0.480822 0.271359 0.310126
0.480822 0.271359 0.310126
0.480822 0.271359 0.310126
0.480822 0.271359 0.310126
0.480822 0.271359 0.310126
0.480822 0.271359 0.310126
0.480822 0.271359 0.310126
0.480822 0.271359 0.310126
0.480822 0.271359 0.310126
0.480822 0.271359 0.310126
0.480822 0.271359 0.310126
0.480822 0.271359 0.310126
0.480822 0.271359 0.302681
0.480822 0.271359 0.300807
0.480822 0.271359 0.300807
0.480822 0.271359 0.300807
0.475673 0.271359 0.300807
0.475673 0.271359 0.300807
0.475673 0.271359 0.300807
0.475673 0.271359 0.300788
0.475673 0.271359 0.300788
0.475673 0.271359 0.300788
0.475673 0.271359 0.300788
0.475673 0.271359 0.300788
0.475673 0.271359 0.300788
0.475673 0.268505 0.300788
0.475673 0.268505 0.300788
0.475673 0.268505 0.300788
0.475673 0.268505 0.300788
0.473825 0.268505 0.300786
0.473825 0.268505 0.300786
0.473825 0.268505 0.300786
0.473825 0.268505 0.300786
0.473825 0.268442 0.300786
0.473825 0.268442 0.300786
0.473825 0.268442 0.300786
0.473825 0.268442 0.300786
0.473825 0.268442 0.300786
0.473825 0.268442 0.300786
0.473825 0.268442 0.300786
0.473825 0.268442 0.300786
0.473825 0.268442 0.300786
0.473825 0.268442 0.300786
0.473825 0.268442 0.300786
0.473825 0.268442 0.300786
0.473825 0.268442 0.30078
0.473825 0.268442 0.30078
0.473825 0.268442 0.30078
0.473825 0.268442 0.30078
0.473825 0.268442 0.30078
0.473797 0.268442 0.30078
0.473797 0.268442 0.30078
0.473797 0.268442 0.30078
0.473797 0.268442 0.30078
0.473797 0.268442 0.30078
0.473797 0.268442 0.30078
0.473797 0.268442 0.30078
0.473797 0.268442 0.30078
0.473797 0.268442 0.30078
0.473797 0.268442 0.30078
0.473797 0.268442 0.30078
0.473797 0.268442 0.30078
0.473797 0.268442 0.30078
0.473797 0.268442 0.30078
0.473797 0.268442 0.30078
0.473797 0.268442 0.30078
0.473797 0.268442 0.30078
0.473797 0.268442 0.30078
0.473797 0.268442 0.30078
0.473797 0.268442 0.30078
0.473797 0.268442 0.30078
0.473797 0.268442 0.30078
0.473797 0.268442 0.30078
0.473797 0.268442 0.30078
0.473797 0.268442 0.30078
0.473797 0.268442 0.30078
0.473797 0.268442 0.30078
0.473797 0.268442 0.30078
0.473797 0.268442 0.30078
0.473797 0.268442 0.30078
0.473797 0.268442 0.30078
0.473797 0.268442 0.30078
0.473797 0.268442 0.30078
0.473797 0.268442 0.30078
0.473797 0.268442 0.30078
0.473797 0.268442 0.30078
0.473797 0.268442 0.30078
0.473797 0.268442 0.30078
0.473797 0.268442 0.30078
0.473797 0.268442 0.30078
0.473797 0.268442 0.30078
0.473797 0.268442 0.30078
0.473797 0.268442 0.30078
0.473797 0.268442 0.30078
0.473797 0.268442 0.30078
0.473797 0.268442 0.30078
0.473797 0.268442 0.30078
0.473797 0.268442 0.30078
0.473797 0.268442 0.30078
0.473797 0.268442 0.30078
0.473797 0.268442 0.30078
0.473797 0.268442 0.30078
0.473797 0.268442 0.30078
0.473797 0.268442 0.30078
0.473797 0.268442 0.30078
0.473797 0.268442 0.30078
0.473797 0.268442 0.30078
0.473797 0.268442 0.30078
0.473797 0.268442 0.30078
0.473797 0.268442 0.30078
0.473797 0.268442 0.30078
0.473797 0.268442 0.30078
0.473797 0.268442 0.30078
0.473797 0.268442 0.30078
0.473797 0.268442 0.30078
0.473797 0.268442 0.30078
0.473797 0.268442 0.30078
0.473797 0.268442 0.30078
0.473797 0.268442 0.30078
0.50806 0.268442 0.30078
0.552312 0.289754 0.30078
0.594547 0.330767 0.30078
0.634442 0.369114 0.30078
0.671748 0.404198 0.30078
0.706263 0.435469 0.30078
0.737805 0.462475 0.303271
0.76609 0.484933 0.309835
0.786383 0.503443 0.318482
0.802957 0.51745 0.329143
0.814757 0.526507 0.342161
0.821956 0.531255 0.357005
0.824785 0.531773 0.373631
0.824219 0.529929 0.391547
0.821785 0.526203 0.410398
0.817745 0.520824 0.429701
0.812444 0.514051 0.448923
0.806224 0.506136 0.46748
0.799414 0.497332 0.484782
0.792713 0.487529 2.28977
0.78935 0.459393 2.28977
0.779962 0.463716 2.28977
0.775594 0.447283 2.28977
0.770635 0.438298 2.28977
0.765647 0.43188 2.28977
0.763734 0.425213 2.28977
0.762518 0.420224 2.28977
0.764194 0.413796 2.28977
0.768636 0.40975 2.28977
0.777037 0.408408 2.28977
0.788757 0.409708 2.28977
0.803451 0.41185 2.28977
0.819875 0.414847 2.28977
0.838231 0.420824 2.28977
0.857895 0.430631 2.28977
0.878404 0.44303 2.28977
0.899477 0.456376 2.28977
0.920749 0.46961 2.28977
0.941682 0.483209 2.28977
0.961803 0.497874 2.28977
0.980822 0.512272 2.28977
0.998173 0.525368 2.28977
1.01333 0.535974 2.28977
1.02574 0.544379 2.28977
1.03487 0.550937 2.28977
1.04035 0.555407 2.28977
1.04187 0.557472 2.28977
1.04056 0.557205 2.28977
1.03718 0.555651 2.28977
1.03172 0.553096 2.28977
1.02436 0.549422 2.28977
1.01526 0.544819 2.28977
1.00472 0.539391 2.28977
0.993053 0.533172 2.28977
0.980559 0.526141 2.28977
0.967462 0.518701 2.28977
0.954023 0.511157 2.28977
0.940537 0.503665 2.28977
0.927264 0.496519 2.28977
0.914522 0.489858 2.28977
0.902612 0.483842 2.28977
0.891814 0.479846 2.28977
0.882389 0.479846 2.28977
0.874567 0.479846 2.28977
0.868525 0.479846 2.28977
0.864361 0.479846 2.28977
0.862084 0.479846 2.28977
0.861663 0.479846 2.28977
0.864042 0.479846 2.28977
0.869316 0.479846 2.28977
0.876943 0.490936 2.28977
0.886231 0.504015 2.28977
0.896479 0.51867 2.28977
0.906928 0.534541 2.28977
0.916834 0.551177 2.28977
0.925474 0.568058 2.28977
0.932176 0.584577 2.28977
0.936344 0.600091 2.28977
0.937471 0.613971 2.28977
0.936272 0.625618 2.28977
0.933117 0.634507 2.28977
0.927828 0.640101 2.28977
0.92026 0.641919 2.28977
0.910301 0.640739 2.28977
0.897888 0.637316 2.28977
0.883027 0.631529 2.28977
0.865749 0.623394 2.28977
0.846178 0.612905 2.28977
0.830083 0.600171 2.28977
0.830083 0.585222 2.28977
0.830083 0.567677 2.28977
0.830083 0.563053 2.28977
0.830083 0.563053 2.28977
0.830083 0.563053 2.28977
0.830083 0.563053 2.28977
0.830083 0.563053 2.28977
0.830083 0.563053 2.28977
0.830083 0.563053 2.28977
0.830083 0.563053 2.28977
0.830083 0.563053 2.28977
0.830083 0.563053 2.28977
0.830083 0.563053 2.28977
0.830083 0.563053 2.28977
0.830083 0.563053 2.28977
0.827446 0.563053 2.28977
0.827446 0.563053 2.28977
0.827446 0.563053 2.28977
0.827045 0.563053 2.28977
0.827038 0.563053 2.28977
0.827038 0.563053 2.28977
0.827038 0.563053 2.28977
0.827038 0.563053 2.28977
0.827038 0.563053 2.28977
0.827038 0.563053 2.28977
0.827038 0.563053 2.28977
0.827038 0.563053 2.28977
0.827038 0.563053 2.28977
0.827038 0.563053 2.28977
0.827038 0.563053 2.28977
0.827038 0.563053 2.28977
0.827038 0.563053 2.28977
0.827038 0.563053 2.28977
0.827038 0.563053 2.28977
0.827038 0.563053 2.28977
0.827038 0.560614 2.28977
0.827038 0.560614 2.28977
0.827038 0.560614 2.28977
0.827038 0.560614 2.28977
0.827038 0.560614 2.28977
0.827038 0.560614 2.28977
0.827038 0.560614 2.28977
0.827038 0.560614 2.28977
0.827038 0.560614 2.28977
0.827038 0.560614 2.28977
0.827038 0.560614 2.28977
0.827038 0.560614 2.28977
0.827038 0.560432 2.28977
0.827038 0.559772 2.28977
0.827038 0.559772 2.28977
0.827038 0.5594 2.28977
0.827038 0.5594 2.28977
0.827017 0.5594 2.28977
0.827017 0.5594 2.28977
0.827017 0.55922 2.28977
0.827017 0.55922 2.28977
0.827017 0.559209 2.28977
0.827017 0.559209 2.28977
0.827017 0.558998 2.28977
0.827017 0.558998 2.28977
0.826993 0.558998 2.28977
0.826993 0.558998 2.28977
0.826993 0.558998 2.28977
0.826993 0.558998 2.28977
0.826993 0.558998 2.28977
0.826993 0.558998 2.28977
0.826993 0.558998 2.28977
0.826993 0.558998 2.28977
0.826993 0.558998 2.28977
0.826993 0.558998 2.28977
0.826993 0.558998 2.28977
0.826993 0.558998 2.28977
0.826993 0.558997 2.28977
0.826993 0.558997 2.28977
0.826993 0.558997 2.28977
0.826993 0.558997 2.28977
0.826964 0.558997 2.28977
0.826964 0.558997 2.28977
0.826964 0.558997 2.28977
0.826964 0.558997 2.28977
0.826964 0.558997 2.28977
0.826964 0.558997 2.28977
0.826964 0.558997 2.28977
0.826964 0.558997 2.28977
0.826964 0.558997 2.28977
0.826964 0.558997 2.28977
0.826964 0.558997 2.28977
0.826964 0.558997 2.28977
0.826964 0.558997 2.28977
0.826964 0.558997 2.28977
0.826964 0.558997 2.28977
0.826964 0.558997 2.28977
0.826964 0.558997 2.28977
0.826964 0.558997 2.28977
0.826948 0.558997 2.28977
0.826948 0.558997 2.28977
0.826948 0.558997 2.28977
0.826946 0.558997 2.28977
0.826938 0.558997 2.28977
0.826938 0.558997 2.28977
0.826938 0.558997 2.28977
0.826938 0.558997 2.28977
0.826938 0.558997 2.28977
0.826938 0.558997 2.28977
0.826938 0.558997 2.28977
0.826938 0.558997 2.28977
0.826938 0.558997 2.28977
0.826938 0.558997 2.28977
0.826938 0.558997 2.28977
0.826938 0.558997 2.28977
0.826938 0.558997 2.28977
0.826938 0.558997 2.28977
0.826938 0.558997 2.28977
0.826938 0.558997 2.28977
0.826938 0.558997 2.28977
0.826938 0.558997 2.28977
0.826938 0.558997 2.28977
0.826938 0.558997 2.28977
0.826938 0.558997 2.28977
0.826938 0.558997 2.28977
0.826938 0.558997 2.28977
0.826938 0.558997 2.28977
0.826938 0.558997 2.28977
0.826938 0.558997 2.28977
0.826938 0.558997 2.28977
0.826938 0.558997 2.28977
0.826938 0.558997 2.28977
0.826938 0.558997 2.28977
0.826938 0.558997 2.28977
0.826938 0.558997 2.28977
0.826938 0.558997 2.28977
0.826938 0.558997 2.28977
0.826938 0.558997 2.28977
0.826938 0.558997 2.28977
0.826938 0.558997 2.28977
0.826938 0.558997 2.28977
0.826938 0.558997 2.28977
0.826938 0.558997 2.28977
0.826938 0.558997 2.28977
0.826938 0.558997 2.28977
0.826938 0.558997 2.28977
0.826938 0.558997 2.28977
0.826938 0.558997 2.28977
0.826938 0.558997 2.28977
0.826938 0.558997 2.28977
0.826938 0.558997 2.28977
0.826938 0.558997 2.28977
0.826938 0.558997 2.28977
0.826938 0.558997 2.28977
0.826938 0.558997 2.28977
0.826938 0.558997 2.28977
0.826938 0.558997 2.28977
0.826938 0.558997 2.28977
0.826938 0.558997 2.28977
0.826938 0.558997 2.28977
0.826938 0.558997 2.28977
0.826938 0.558997 2.28977
0.826938 0.558997 2.28977
0.826938 0.558997 2.28977
0.826938 0.558997 2.28977
0.826938 0.558997 2.28977
0.826938 0.558997 2.28977
0.826938 0.558997 2.28977
0.826938 0.558997 2.28977
0.826938 0.558997 2.28977
0.826938 0.558997 2.28977
0.826938 0.558997 2.28977
0.826938 0.558997 2.28977
0.826938 0.558997 2.28977
0.826938 0.558997 2.28977
0.826938 0.558997 2.28977
0.826938 0.558997 2.28977
0.826938 0.558997 2.28977
0.826938 0.558997 2.28977
0.826938 0.558997 2.28977
0.826938 0.558997 2.28977
0.829598 0.558997 2.28977
0.839939 0.558997 2.28977
0.85188 0.558997 2.28977
0.863465 0.558997 2.28977
0.871532 0.569338 2.28977
0.879177 0.590629 2.28977
0.888302 0.6109 2.28977
0.897337 0.627142 2.28977
0.905444 0.642806 2.28977
0.914121 0.658446 2.28977
0.924044 0.67368 2.28977
0.935218 0.681385 2.28977
0.946667 0.69032 2.28977
0.958131 0.700797 2.28977
0.971188 0.708902 2.28977
0.984545 0.718967 2.28977
0.997322 0.733998 2.28977
1.01244 0.744336 2.28977
1.02789 0.75425 2.28977
1.04404 0.76276 2.28977
1.06116 0.770832 2.28977
1.0787 0.779707 2.28977
1.09688 0.787157 2.28977
1.11538 0.793871 2.28977
1.13398 0.79986 2.28977
1.15269 0.804702 2.28977
1.17101 0.808934 2.28977
1.18883 0.812643 2.28977
4.02494 0.749646 2.28977
4.02494 0.71166 2.28977
4.02494 0.782565 2.28977
4.02494 0.768514 2.28977
4.02494 0.796844 2.28977
4.02494 0.798441 2.28977
4.02494 0.798838 2.28977
4.02494 0.819227 2.28977
4.02494 0.821346 2.28977
4.02494 0.826621 2.28977
4.02494 0.839181 2.28977
4.02494 0.835615 2.28977
4.02494 0.845839 2.28977
4.02494 0.848952 2.28977
4.02494 0.846401 2.28977
4.02494 0.845261 2.28977
4.02494 0.843589 2.28977
4.02494 0.841656 2.28977
4.02494 0.83768 2.28977
4.02494 0.832827 2.28977
4.02494 0.827164 2.28977
4.02494 0.819917 2.28977
4.02494 0.811507 2.28977
4.02494 0.802334 2.28977
4.02494 0.792903 2.28977
4.02494 0.783936 2.28977
4.02494 0.781824 2.28977
4.02494 0.781824 2.28977
4.02494 0.781824 2.28977
4.02494 0.781824 2.28977
4.02494 0.781824 2.28977
4.02494 0.781824 2.28977
4.02494 0.781824 2.28977
4.02494 0.781824 2.28977
4.02494 0.781824 2.28977
4.02494 0.781824 2.28977
4.02494 0.781824 2.28977
4.02494 0.781824 2.28977
4.02494 0.781824 2.28977
4.02494 0.781824 2.28977
4.02494 0.781824 2.28977
4.02494 0.781824 2.28977
4.02494 0.781824 2.28977
4.02494 0.781824 2.28977
4.02494 0.781824 2.28977
4.02494 0.781824 2.28977
4.02494 0.781824 2.28977
4.02494 0.781824 2.28977
4.02494 0.781824 2.28977
4.02494 0.788857 2.28977
4.02494 0.802302 2.28977
4.02494 0.814537 2.28977
4.02494 0.82308 2.28977
4.02494 0.828377 2.28977
4.02494 0.834287 2.28977
4.02494 0.835747 2.28977
4.02494 0.836611 2.28977
4.02494 0.837934 2.28977
4.02494 0.836997 2.28977
4.02494 0.835103 2.28977
4.02494 0.831894 2.28977
4.02494 0.827417 2.28977
4.02494 0.822547 2.28977
4.02494 0.816263 2.28977
4.02494 0.812518 2.28977
4.02494 0.812518 2.28977
4.02494 0.812518 2.28977
4.02494 0.812518 2.28977
4.02494 0.812518 2.28977
4.02494 0.812518 2.28977
4.02494 0.812518 2.28977
4.02494 0.812518 2.28977
4.02494 0.812518 2.28977
4.02494 0.812518 2.28977
4.02494 0.812518 2.28977
4.02494 0.812518 2.28977
4.02494 0.812518 2.28977
4.02494 0.812518 2.28977
4.02494 0.812518 2.28977
4.02494 0.812518 2.28977
4.02494 0.812518 2.28977
4.02494 0.812518 2.28977
4.02494 0.812518 2.28977
4.02494 0.812518 2.28977
4.02494 0.812518 2.28977
4.02494 0.812518 2.28977
4.02494 0.812518 2.28977
4.02494 0.812518 2.28977
4.02494 0.812518 2.28977
4.02494 0.812518 2.28977
4.02494 0.812518 2.28977
4.02494 0.812518 2.28977
4.02494 0.812518 2.28977
4.02494 0.812518 2.28977
4.02494 0.807009 2.28977
4.02494 0.807009 2.28977
4.02494 0.807009 2.28977
4.02494 0.807009 2.28977
4.02494 0.807009 2.28977
4.02494 0.807009 2.28977
4.02494 0.807009 2.28977
4.02494 0.807009 2.28977
4.02494 0.807009 2.28977
4.02494 0.807009 2.28977
4.02494 0.807009 2.28977
4.02494 0.807009 2.28977
4.02494 0.807009 2.28977
4.02494 0.807009 2.28977
4.02494 0.807009 2.28977
4.02494 0.807009 2.28977
4.02494 0.807009 2.28977
4.02494 0.807009 2.28977
4.02494 0.807009 2.28977
4.02494 0.807009 2.28977
4.02494 0.807009 2.28977
4.02494 0.807009 2.28977
4.02494 0.807009 2.28977
4.02494 0.807009 2.28977
4.02494 0.807009 2.28977
4.02494 0.807009 2.28977
4.02494 0.806372 2.28977
4.02494 0.806238 2.28977
4.02494 0.806061 2.28977
4.02494 0.80604 2.28977
4.02494 0.80603 2.28977
4.02494 0.80603 2.28977
4.02494 0.80603 2.28977
4.02494 0.80603 2.28977
4.02494 0.80603 2.28977
4.02494 0.80603 2.28977
4.02494 0.80603 2.28977
4.02494 0.80603 2.28977
4.02494 0.80603 2.28977
4.02494 0.80603 2.28977
4.02494 0.80603 2.28977
4.02494 0.80603 2.28977
4.02494 0.80603 2.28977
4.02494 0.80603 2.28977
4.02494 0.80603 2.28977
4.02494 0.80603 2.28977
4.02494 0.80603 2.28977
4.02494 0.80603 2.28977
4.02494 0.80603 2.28977
4.02494 0.80603 2.28977
4.02494 0.80603 2.28977
4.02494 0.80603 2.28977
4.02494 0.80603 2.28977
4.02494 0.80603 2.28977
4.02494 0.80603 2.28977
4.02494 0.80603 2.28977
4.02494 0.80603 2.28977
4.02494 0.80603 2.28977
4.02494 0.806016 2.28977
4.02494 0.806016 2.28977
4.02494 0.806016 2.28977
4.02494 0.806016 2.28977
4.02494 0.806016 2.28977
4.02494 0.806016 2.28977
4.02494 0.806016 2.28977
4.02494 0.806016 2.28977
4.02494 0.806016 2.28977
4.02494 0.806016 2.28977
4.02494 0.806016 2.28977
4.02494 0.806016 2.28977
4.02494 0.806016 2.28977
4.02494 0.806016 2.28977
4.02494 0.806016 2.28977
4.02494 0.806016 2.28977
4.02494 0.806016 2.28977
4.02494 0.806016 2.28977
4.02494 0.806016 2.28977
4.02494 0.806016 2.28977
4.02494 0.806016 2.28977
4.02494 0.806016 2.28977
4.02494 0.806016 2.28977
4.02494 0.806016 2.28977
4.02494 0.806016 2.28977
4.02494 0.806016 2.28977
4.02494 0.806016 2.28977
4.02494 0.806016 2.28977
4.02494 0.806016 2.28977
4.02494 0.806016 2.28977
4.02494 0.806016 2.28977
4.02494 0.806016 2.28977
4.02494 0.806016 2.28977
4.02494 0.806016 2.28977
4.02494 0.806016 2.28977
4.02494 0.806016 2.28977
4.02494 0.806016 2.28977
4.02494 0.806016 2.28977
4.02494 0.806016 2.28977
4.02494 0.806016 2.28977
4.02494 0.806016 2.28977
4.02494 0.806016 2.28977
4.02494 0.806016 2.28977
4.02494 0.806016 2.28977
4.02494 0.806016 2.28977
4.02494 0.806016 2.28977
4.02494 0.806016 2.28977
4.02494 0.806016 2.28977
4.02494 0.806016 2.28977
4.02494 0.806016 2.28977
4.02494 0.806016 2.28977
4.02494 0.806016 2.28977
4.02494 0.806016 2.28977
4.02494 0.806016 2.28977
4.02494 0.806016 2.28977
4.02494 0.806016 2.28977
4.02494 0.806016 2.28977
4.02494 0.806016 2.28977
4.02494 0.806016 2.28977
4.02494 0.806016 2.28977
4.02494 0.806016 2.28977
4.02494 0.806016 2.28977
4.02494 0.806016 2.28977
4.02494 0.806016 2.28977
4.02494 0.806016 2.28977
4.02494 0.806016 2.28977
4.02494 0.806016 2.28977
4.02494 0.806016 2.28977
4.02494 0.806016 2.28977
4.02494 0.806016 2.28977
4.02494 0.806016 2.28977
4.02494 0.806016 2.28977
4.02494 0.806016 2.28977
4.02494 0.806016 2.28977
4.02494 0.806016 2.28977
4.02494 0.806016 2.28977
4.02494 0.807689 2.28977
4.02494 0.816298 2.28977
4.02494 0.823651 2.28977
4.02494 0.829911 2.28977
4.02494 0.835727 2.28977
4.02494 0.84053 2.28977
4.02494 0.844611 2.28977
4.02494 0.847507 2.28977
4.02494 0.849813 2.28977
4.02494 0.851811 2.28977
4.02494 0.85337 2.28977
4.02494 0.854754 2.28977
4.02494 0.856083 2.28977
4.02494 0.857474 2.28977
4.02494 0.858518 2.28977
4.02494 0.859479 2.28977
4.02494 0.860145 2.28977
4.02494 0.860496 2.28977
4.02494 0.86048 2.28977
4.02494 0.860251 2.28977
4.02494 0.859803 2.28977
4.02494 0.859003 2.28977
4.02494 0.857807 2.28977
4.02494 0.85595 2.28977
4.02494 0.853602 2.28977
4.02494 0.850527 2.28977
4.02494 0.847774 2.28977
4.02494 0.84526 2.28977
4.02494 0.842702 2.28977
4.02494 0.840288 2.28977
4.02494 0.837978 2.28977
4.02494 0.836002 2.28977
4.02494 0.834494 2.28977
4.02494 0.83369 2.28977
4.02494 0.83369 2.28977
4.02494 0.83369 2.28977
4.02494 0.835658 2.28977
4.02494 0.837929 2.28977
4.02494 0.840782 2.28977
4.02494 0.846344 2.28977
4.02494 0.852533 2.28977
4.02494 0.857852 2.28977
4.02494 0.861238 2.28977
4.02494 0.867109 2.28977
4.02494 0.871829 2.28977
4.02494 0.876879 2.28977
4.02494 0.882393 2.28977
4.02494 0.889097 2.28977
4.02494 0.895149 2.28977
4.02494 0.903349 2.28977
4.02494 0.913671 2.28977
4.02494 0.923011 2.28977
4.02494 0.931428 2.28977
4.02494 0.941134 2.28977
4.02494 0.952152 2.28977
4.02494 0.962901 2.28977
4.02494 0.974308 2.28977
4.02494 0.98694 2.28977
4.02494 1.00055 2.28977
4.02494 1.0146 2.28977
4.02494 1.02931 2.28977
4.02494 1.04523 2.28977
4.02494 1.06187 2.28977
4.02494 1.0791 2.28977
4.02494 1.09684 2.28977
4.02494 1.1152 2.28977
4.02494 1.13392 2.28977
4.02494 1.15271 2.28977
4.02494 1.17151 2.28977
4.02494 1.19019 2.28977
4.02494 1.20849 2.28977
4.02494 1.22677 2.28977
4.02494 3.96052 2.28977
4.02494 3.96052 2.28977
4.02494 3.96052 2.28977
4.02494 3.96052 2.28977
4.02494 3.96052 2.28977
4.02494 3.96052 2.28977
4.02494 3.96052 2.28977
4.02494 3.96052 2.28977
4.02494 3.96052 2.28977
4.02494 3.96052 2.28977
4.02494 3.96052 2.28977
4.02494 3.96052 2.28977
4.02494 3.96052 2.28977
4.02494 3.96052 2.28977
4.02494 3.96052 2.28977
4.02494 3.96052 2.28977
4.02494 3.96052 2.28977
4.02494 3.96052 2.28977
4.02494 3.96052 2.28977
4.02494 3.96052 2.28977
4.02494 3.96052 2.28977
4.02494 3.96052 2.28977
4.02494 3.96052 2.28977
4.02494 3.96052 2.28977
4.02494 3.96052 2.28977
4.02494 3.96052 2.28977
4.02494 3.96052 2.28977
4.02494 3.96052 2.28977
4.02494 3.96052 2.28977
4.02494 3.96052 2.28977
4.02494 3.96052 2.28977
4.02494 3.96052 2.28977
4.02494 3.96052 2.28977
4.02494 3.96052 2.28977
4.02494 3.96052 2.28977
4.02494 3.96052 2.28977
4.02494 3.96052 2.28977
4.02494 3.96052 2.28977
4.02494 3.96052 2.28977
4.02494 3.96052 2.28977
4.02494 3.96052 2.28977
4.02494 3.96052 2.28977
4.02494 3.96052 2.28977
4.02494 3.96052 2.28977
4.02494 3.96052 2.28977
4.02494 3.96052 2.28977
4.02494 3.96052 2.28977
4.02494 3.96052 2.28977
4.02494 3.96052 2.28977
4.02494 3.96052 2.28977
4.02494 3.96052 2.28977
4.02494 3.96052 2.28977
4.02494 3.96052 2.28977
4.02494 3.96052 2.28977
4.02494 3.96052 2.28977
4.02494 3.96052 2.28977
4.02494 3.96052 2.28977
4.02494 3.96052 2.28977
4.02494 3.96052 2.28977
4.02494 3.96052 2.28977
4.02494 3.96052 2.28977
4.02494 3.96052 2.28977
4.02494 3.96052 2.28977
4.02494 3.96052 2.28977
4.02494 3.96052 2.28977
4.02494 3.96052 2.28977
4.02494 3.96052 2.28977
4.02494 3.96052 2.28977
4.02494 3.96052 2.28977
4.02494 3.96052 2.28977
4.02494 3.96052 2.28977
4.02494 3.96052 2.28977
4.02494 3.96052 2.28977
4.02494 3.96052 2.28977
4.02494 3.96052 2.28977
4.02494 3.96052 2.28977
4.02494 3.96052 2.28977
4.02494 3.96052 2.28977
4.02494 3.96052 2.28977
4.02494 3.96052 2.28977
4.02494 3.96052 2.28977
4.02494 3.96052 2.28977
4.02494 3.96052 2.28977
4.02494 3.96052 2.28977
4.02494 3.96052 2.28977
4.02494 3.96052 2.28977
4.02494 3.96052 2.28977
4.02494 3.96052 2.28977
4.02494 3.96052 2.28977
4.02494 3.96052 2.28977
4.02494 3.96052 2.28977
4.02494 3.96052 2.28977
4.02494 3.96052 2.28977
4.02494 3.96052 2.28977
4.02494 3.96052 2.28977
4.02494 3.96052 2.28977
4.02494 3.96052 2.28977
4.02494 3.96052 2.28977
4.02494 3.96052 2.28977
4.02494 3.96052 2.28977
4.02494 3.96052 2.28977
4.02494 3.96052 2.28977
4.02494 3.96052 2.28977
4.02494 3.96052 2.28977
4.02494 3.96052 2.28977
4.02494 3.96052 2.28977
4.02494 3.96052 2.28977
4.02494 3.96052 2.28977
4.02494 3.96052 2.28977
4.02494 3.96052 2.28977
4.02494 3.96052 2.28977
4.02494 3.96052 2.28977
4.02494 3.96052 2.28977
4.02494 3.96052 2.28977
4.02494 3.96052 2.28977
4.02494 3.96052 2.28977
4.02494 3.96052 2.28977
4.02494 3.96052 2.28977
4.02494 3.96052 2.28977
4.02494 3.96052 2.28977
4.02494 3.96052 2.28977
4.02494 3.96052 2.28977
4.02494 3.96052 2.28977
4.02494 3.96052 2.28977
4.02494 3.96052 2.28977
4.02494 3.96052 2.28977
4.02494 3.96052 2.28977
4.02494 3.96052 2.28977
4.02494 3.96052 2.28977
4.02494 3.96052 2.28977
4.02494 3.96052 2.28977
4.02494 3.96052 2.28977
4.02494 3.96052 2.28977
4.02494 3.96052 2.28977
4.02494 3.96052 2.28977
4.02494 3.96052 2.28977
4.02494 3.96052 2.28977
4.02494 3.96052 2.28977
4.02494 3.96052 2.28977
4.02494 3.96052 2.28977
4.02494 3.96052 2.28977
4.02494 3.96052 2.28977
4.02494 3.96052 2.28977
4.02494 3.96052 2.28977
4.02494 3.96052 2.28977
4.02494 3.96052 2.28977
4.02494 3.96052 2.28977
4.02494 3.96052 2.28977
4.02494 3.96052 2.28977
4.02494 3.96052 2.28977
4.02494 3.96052 2.28977
4.02494 3.96052 2.28977
4.02494 3.96052 2.28977
4.02494 3.96052 2.28977
4.02494 3.96052 2.28977
4.02494 3.96052 2.28977
4.02494 3.96052 2.28977
4.02494 3.96052 2.28977
4.02494 3.96052 2.28977
4.02494 3.96052 2.28977
4.02494 3.96052 2.28977
4.02494 3.96052 2.28977
4.02494 3.96052 2.28977
4.02494 3.96052 2.28977
4.02494 3.96052 2.28977
4.02494 3.96052 2.28977
4.02494 3.96052 2.28977
4.02494 3.96052 2.28977
4.02494 3.96052 2.28977
4.02494 3.96052 2.28977
4.02494 3.96052 2.28977
4.02494 3.96052 2.28977
4.02494 3.96052 2.28977
4.02494 3.96052 2.28977
4.02494 3.96052 2.28977
4.02494 3.96052 2.28977
4.02494 3.96052 2.28977
4.02494 3.96052 2.28977
4.02494 3.96052 2.28977
4.02494 3.96052 2.28977
4.02494 3.96052 2.28977
4.02494 3.96052 2.28977
4.02494 3.96052 2.28977
4.02494 3.96052 2.28977
4.02494 3.96052 2.28977
4.02494 3.96052 2.28977
4.02494 3.96052 2.28977
4.02494 3.96052 2.28977
4.02494 3.96052 2.28977
4.02494 3.96052 2.28977
4.02494 3.96052 2.28977
4.02494 3.96052 2.28977
4.02494 3.96052 2.28977
4.02494 3.96052 2.28977
4.02494 3.96052 2.28977
4.02494 3.96052 2.28977
4.02494 3.96052 2.28977
4.02494 3.96052 2.28977
4.02494 3.96052 2.28977
4.02494 3.96052 2.28977
4.02494 3.96052 2.28977
4.02494 3.96052 2.28977
4.02494 3.96052 2.28977
4.02494 3.96052 2.28977
4.02494 3.96052 2.28977
4.02494 3.96052 2.28977
4.02494 3.96052 2.28977
4.02494 3.96052 2.28977
4.02494 3.96052 2.28977
4.02494 3.96052 2.28977
4.02494 3.96052 2.28977
4.02494 3.96052 2.28977
4.02494 3.96052 2.28977
4.02494 3.96052 2.28977
4.02494 3.96052 2.28977
4.02494 3.96052 2.28977
4.02494 3.96052 2.28977
4.02494 3.96052 2.28977
4.02494 3.96052 2.28977
4.02494 3.96052 2.28977
4.02494 3.96052 2.28977
4.02494 3.96052 2.28977
4.02494 3.96052 2.28977
4.02494 3.96052 2.28977
4.02494 3.96052 2.28977
4.02494 3.96052 2.28977
4.02494 3.96052 2.28977
4.02494 3.96052 2.28977
4.02494 3.96052 2.28977
4.02494 3.96052 2.28977
4.02494 3.96052 2.28977
4.02494 3.96052 2.28977
4.02494 3.96052 2.28977
4.02494 3.96052 2.28977
4.02494 3.96052 2.28977
4.02494 3.96052 2.28977
4.02494 3.96052 2.28977
4.02494 3.96052 2.28977
4.02494 3.96052 2.28977
4.02494 3.96052 2.28977
4.02494 3.96052 2.28977
4.02494 3.96052 2.28977
4.02494 3.96052 2.28977
4.02494 3.96052 2.28977
4.02494 3.96052 2.28977
4.02494 3.96052 2.28977
4.02494 3.96052 2.28977
4.02494 3.96052 2.28977
4.02494 3.96052 2.28977
4.02494 3.96052 2.28977
4.02494 3.96052 2.28977
4.02494 3.96052 2.28977
4.02494 3.96052 2.28977
4.02494 3.96052 2.28977
4.02494 3.96052 2.28977
4.02494 3.96052 2.28977
4.02494 3.96052 2.28977
4.02494 3.96052 2.28977
4.02494 3.96052 2.28977
4.02494 3.96052 2.28977
4.02494 3.96052 2.28977
4.02494 3.96052 2.28977
4.02494 3.96052 2.28977
4.02494 3.96052 2.28977
4.02494 3.96052 2.28977
4.02494 3.96052 2.28977
4.02494 3.96052 2.28977
4.02494 3.96052 2.28977
4.02494 3.96052 2.28977
4.02494 3.96052 2.28977
4.02494 3.96052 2.28977
4.02494 3.96052 2.28977
4.02494 3.96052 2.28977
4.02494 3.96052 2.28977
4.02494 3.96052 2.28977
4.02494 3.96052 2.28977
4.02494 3.96052 2.28977
4.02494 3.96052 2.28977
4.02494 3.96052 2.28977
4.02494 3.96052 2.28977
4.02494 3.96052 2.28977
4.02494 3.96052 2.28977
4.02494 3.96052 2.28977
4.02494 3.96052 2.28977
4.02494 3.96052 2.28977
4.02494 3.96052 2.28977
4.02494 3.96052 2.28977
4.02494 3.96052 2.28977
4.02494 3.96052 2.28977
4.02494 3.96052 2.28977
4.02494 3.96052 2.28977
4.02494 3.96052 2.28977
4.02494 3.96052 2.28977
4.02494 3.96052 2.28977
4.02494 3.96052 2.28977
4.02494 3.96052 2.28977
4.02494 3.96052 2.28977
4.02494 3.96052 2.28977
4.02494 3.96052 2.28977
4.02494 3.96052 2.28977
4.02494 3.96052 2.28977
4.02494 3.96052 2.28977
4.02494 3.96052 2.28977
4.02494 3.96052 2.28977
4.02494 3.96052 2.28977
4.02494 3.96052 2.28977
4.02494 3.96052 2.28977
4.02494 3.96052 2.28977
4.02494 3.96052 2.28977
4.02494 3.96052 2.28977
4.02494 3.96052 2.28977
4.02494 3.96052 2.28977
4.02494 3.96052 2.28977
4.02494 3.96052 2.28977
4.02494 3.96052 2.28977
4.02494 3.96052 2.28977
4.02494 3.96052 2.28977
4.02494 3.96052 2.28977
4.02494 3.96052 2.28977
4.02494 3.96052 2.28977
4.02494 3.96052 2.28977
4.02494 3.96052 2.28977
4.02494 3.96052 2.28977
4.02494 3.96052 2.28977
4.02494 3.96052 2.28977
4.02494 3.96052 2.28977
4.02494 3.96052 2.28977
4.02494 3.96052 2.28977
4.02494 3.96052 2.28977
4.02494 3.96052 2.28977
4.02494 3.96052 2.28977
4.02494 3.96052 2.28977
4.02494 3.96052 2.28977
4.02494 3.96052 2.28977
4.02494 3.96052 2.28977
4.02494 3.96052 2.28977
4.02494 3.96052 2.28977
4.02494 3.96052 2.28977
4.02494 3.96052 2.28977
4.02494 3.96052 2.28977
4.02494 3.96052 2.28977
4.02494 3.96052 2.28977
4.02494 3.96052 2.28977
4.02494 3.96052 2.28977
4.02494 3.96052 2.28977
4.02494 3.96052 2.28977
4.02494 3.96052 2.28977
4.02494 3.96052 2.28977
4.02494 3.96052 2.28977
4.02494 3.96052 2.28977
4.02494 3.96052 2.28977
4.02494 3.96052 2.28977
4.02494 3.96052 2.28977
4.02494 3.96052 2.28977
4.02494 3.96052 2.28977
4.02494 3.96052 2.28977
4.02494 3.96052 2.28977
4.02494 3.96052 2.28977
4.02494 3.96052 2.28977
4.02494 3.96052 2.28977
4.02494 3.96052 2.28977
4.02494 3.96052 2.28977
4.02494 3.96052 2.28977
4.02494 3.96052 2.28977
4.02494 3.96052 2.28977
4.02494 3.96052 2.28977
4.02494 3.96052 2.28977
4.02494 3.96052 2.28977
4.02494 3.96052 2.28977
4.02494 3.96052 2.28977
4.02494 3.96052 2.28977
4.02494 3.96052 2.28977
4.02494 3.96052 2.28977
4.02494 3.96052 2.28977
4.02494 3.96052 2.28977
4.02494 3.96052 2.28977
4.02494 3.96052 2.28977
4.02494 3.96052 2.28977
4.02494 3.96052 2.28977
4.02494 3.96052 2.28977
4.02494 3.96052 2.28977
4.02494 3.96052 2.28977
4.02494 3.96052 2.28977
4.02494 3.96052 2.28977
4.02494 3.96052 2.28977
4.02494 3.96052 2.28977
4.02494 3.96052 2.28977
4.02494 3.96052 2.28977
4.02494 3.96052 2.28977
4.02494 3.96052 2.28977
4.02494 3.96052 2.28977
4.02494 3.96052 2.28977
4.02494 3.96052 2.28977
4.02494 3.96052 2.28977
4.02494 3.96052 2.28977
4.02494 3.96052 2.28977
4.02494 3.96052 2.28977
4.02494 3.96052 2.28977
4.02494 3.96052 2.28977
4.02494 3.96052 2.28977
4.02494 3.96052 2.28977
4.02494 3.96052 2.28977
4.02494 3.96052 2.28977
4.02494 3.96052 2.28977
4.02494 3.96052 2.28977
4.02494 3.96052 2.28977
4.02494 3.96052 2.28977
4.02494 3.96052 2.28977
4.02494 3.96052 2.28977
4.02494 3.96052 2.28977
4.02494 3.96052 2.28977
4.02494 3.96052 2.28977
4.02494 3.96052 2.28977
4.02494 3.96052 2.28977
4.02494 3.96052 2.28977
4.02494 3.96052 2.28977
4.02494 3.96052 2.28977
4.02494 3.96052 2.28977
4.02494 3.96052 2.28977
4.02494 3.96052 2.28977
4.02494 3.96052 2.28977
4.02494 3.96052 2.28977
4.02494 3.96052 2.28977
4.02494 3.96052 2.28977
4.02494 3.96052 2.28977
4.02494 3.96052 2.28977
4.02494 3.96052 2.28977
4.02494 3.96052 2.28977
4.02494 3.96052 2.28977
4.02494 3.96052 2.28977
4.02494 3.96052 2.28977
4.02494 3.96052 2.28977
4.02494 3.96052 2.28977
4.02494 3.96052 2.28977
4.02494 3.96052 2.28977
4.02494 3.96052 2.28977
4.02494 3.96052 2.28977
4.02494 3.96052 2.28977
4.02494 3.96052 2.28977
4.02494 3.96052 2.28977
4.02494 3.96052 2.28977
4.02494 3.96052 2.28977
4.02494 3.96052 2.28977
4.02494 3.96052 2.28977
4.02494 3.96052 2.28977
4.02494 3.96052 2.28977
4.02494 3.96052 2.28977
4.02494 3.96052 2.28977
4.02494 3.96052 2.28977
4.02494 3.96052 2.28977
4.02494 3.96052 2.28977
4.02494 3.96052 2.28977
4.02494 3.96052 2.28977
4.02494 3.96052 2.28977
4.02494 3.96052 2.28977
4.02494 3.96052 2.28977
4.02494 3.96052 2.28977
4.02494 3.96052 2.28977
4.02494 3.96052 2.28977
4.02494 3.96052 2.28977
4.02494 3.96052 2.28977
4.02494 3.96052 2.28977
4.02494 3.96052 2.28977
4.02494 3.96052 2.28977
4.02494 3.96052 2.28977
4.02494 3.96052 2.28977
4.02494 3.96052 2.28977
4.02494 3.96052 2.28977
4.02494 3.96052 2.28977
4.02494 3.96052 2.28977
4.02494 3.96052 2.28977
4.02494 3.96052 2.28977
4.02494 3.96052 2.28977
4.02494 3.96052 2.28977
4.02494 3.96052 2.28977
4.02494 3.96052 2.28977
4.02494 3.96052 2.28977
4.02494 3.96052 2.28977
4.02494 3.96052 2.28977
4.02494 3.96052 2.28977
4.02494 3.96052 2.28977
4.02494 3.96052 2.28977
4.02494 3.96052 2.28977
4.02494 3.96052 2.28977
4.02494 3.96052 2.28977
4.02494 3.96052 2.28977
4.02494 3.96052 2.28977
4.02494 3.96052 2.28977
4.02494 3.96052 2.28977
4.02494 3.96052 2.28977
4.02494 3.96052 2.28977
4.02494 3.96052 2.28977
4.02494 3.96052 2.28977
4.02494 3.96052 2.28977
4.02494 3.96052 2.28977
4.02494 3.96052 2.28977
4.02494 3.96052 2.28977
4.02494 3.96052 2.28977
4.02494 3.96052 2.28977
4.02494 3.96052 2.28977
4.02494 3.96052 2.28977
4.02494 3.96052 2.28977
4.02494 3.96052 2.28977
4.02494 3.96052 2.28977
4.02494 3.96052 2.28977
4.02494 3.96052 2.28977
4.02494 3.96052 2.28977
4.02494 3.96052 2.28977
4.02494 3.96052 2.28977
4.02494 3.96052 2.28977
4.02494 3.96052 2.28977
4.02494 3.96052 2.28977
4.02494 3.96052 2.28977
4.02494 3.96052 2.28977
4.02494 3.96052 2.28977
4.02494 3.96052 2.28977
4.02494 3.96052 2.28977
4.02494 3.96052 2.28977
4.02494 3.96052 2.28977
4.02494 3.96052 2.28977
4.02494 3.96052 2.28977
4.02494 3.96052 2.28977
4.02494 3.96052 2.28977
4.02494 3.96052 2.28977
4.02494 3.96052 2.28977
4.02494 3.96052 2.28977
4.02494 3.96052 2.28977
4.02494 3.96052 2.28977
4.02494 3.96052 2.28977
4.02494 3.96052 2.28977
4.02494 3.96052 2.28977
4.02494 3.96052 2.28977
4.02494 3.96052 2.28977
4.02494 3.96052 2.28977
4.02494 3.96052 2.28977
4.02494 3.96052 2.28977
4.02494 3.96052 2.28977
4.02494 3.96052 2.28977
4.02494 3.96052 2.28977
4.02494 3.96052 2.28977
4.02494 3.96052 2.28977
4.02494 3.96052 2.28977
4.02494 3.96052 2.28977
4.02494 3.96052 2.28977
4.02494 3.96052 2.28977
4.02494 3.96052 2.28977
4.02494 3.96052 2.28977
4.02494 3.96052 2.28977
4.02494 3.96052 2.28977
4.02494 3.96052 2.28977
4.02494 3.96052 2.28977
4.02494 3.96052 2.28977
4.02494 3.96052 2.28977
4.02494 3.96052 2.28977
4.02494 3.96052 2.28977
4.02494 3.96052 2.28977
4.02494 3.96052 2.28977
4.02494 3.96052 2.28977
4.02494 3.96052 2.28977
4.02494 3.96052 2.28977
4.02494 3.96052 2.28977
4.02494 3.96052 2.28977
4.02494 3.96052 2.28977
