-7.47644e-06 -1.02034e-05 -2.48314e-06
-7.52988e-06 -1.01922e-05 -2.48645e-06
-7.65228e-06 -1.01688e-05 -2.49276e-06
-7.90539e-06 -1.01269e-05 -2.50082e-06
-8.1934e-06 -1.00858e-05 -2.50505e-06
-8.56429e-06 -1.00417e-05 -2.5039e-06
-9.02478e-06 -9.9999e-06 -2.4936e-06
-9.58208e-06 -9.96658e-06 -2.46969e-06
-1.02441e-05 -9.94832e-06 -2.42782e-06
-1.10192e-05 -9.95213e-06 -2.36397e-06
-1.19154e-05 -9.98607e-06 -2.27434e-06
-1.29371e-05 -1.00596e-05 -2.15539e-06
-1.40822e-05 -1.01835e-05 -2.00418e-06
-1.53387e-05 -1.03682e-05 -1.81986e-06
-1.66909e-05 -1.06298e-05 -1.59973e-06
-1.81075e-05 -1.09822e-05 -1.34562e-06
-1.95514e-05 -1.14391e-05 -1.06143e-06
-2.09808e-05 -1.20124e-05 -7.54622e-07
-2.23518e-05 -1.27106e-05 -4.3666e-07
-2.36216e-05 -1.3537e-05 -1.21906e-07
-2.47476e-05 -1.44904e-05 1.66502e-07
-2.56826e-05 -1.55647e-05 4.02035e-07
-2.63713e-05 -1.67502e-05 5.54719e-07
-2.67474e-05 -1.80329e-05 5.9135e-07
-2.67342e-05 -1.9395e-05 4.76308e-07
-2.62508e-05 -2.08093e-05 1.71796e-07
-2.52325e-05 -2.22437e-05 -3.54548e-07
-2.36548e-05 -2.36533e-05 -1.15484e-06
-2.15553e-05 -2.49707e-05 -2.27538e-06
-1.90256e-05 -2.61189e-05 -3.75859e-06
-1.6183e-05 -2.70184e-05 -5.63411e-06
-1.3133e-05 -2.75935e-05 -7.93298e-06
-9.99084e-06 -2.77851e-05 -1.06572e-05
-6.83644e-06 -2.75477e-05 -1.37899e-05
-3.73086e-06 -2.68556e-05 -1.72949e-05
-6.86125e-07 -2.57022e-05 -2.1112e-05
2.26939e-06 -2.40982e-05 -2.51632e-05
5.13844e-06 -2.2086e-05 -2.93406e-05
7.91181e-06 -1.97063e-05 -3.35297e-05
1.05972e-05 -1.70109e-05 -3.75938e-05
1.31982e-05 -1.40781e-05 -4.14069e-05
1.57041e-05 -1.09744e-05 -4.48275e-05
1.80843e-05 -7.76919e-06 -4.77203e-05
2.02877e-05 -4.53003e-06 -4.99548e-05
2.22518e-05 -1.32244e-06 -5.14112e-05
2.39277e-05 1.79628e-06 -5.19805e-05
2.53129e-05 4.77158e-06 -5.15518e-05
2.64526e-05 7.5109e-06 -5.0076e-05
2.74472e-05 9.93618e-06 -4.74883e-05
2.84482e-05 1.19743e-05 -4.37574e-05
3.00103e-05 1.38918e-05 -3.74907e-05
3.23249e-05 1.50465e-05 -2.95194e-05
3.58061e-05 1.54295e-05 -2.00094e-05
4.07619e-05 1.51239e-05 -9.22087e-06
4.73395e-05 1.43213e-05 2.59227e-06
5.54956e-05 1.33106e-05 1.49864e-05
6.49818e-05 1.24535e-05 2.74e-05
7.53668e-05 1.21638e-05 3.93547e-05
8.6145e-05 1.28584e-05 5.03794e-05
9.68855e-05 1.48902e-05 6.01078e-05
0.000107321 1.85021e-05 6.82805e-05
0.000117339 2.38176e-05 7.47631e-05
0.000126937 3.08422e-05 7.95628e-05
0.000136169 3.947e-05 8.28266e-05
0.000145096 4.95026e-05 8.48281e-05
0.000153723 6.06757e-05 8.5934e-05
0.000162 7.26736e-05 8.65878e-05
0.000169891 8.51308e-05 8.7288e-05
0.000177439 9.76419e-05 8.85613e-05
0.00018476 0.000109788 9.09211e-05
0.000191982 0.000121173 9.48305e-05
0.000199157 0.000131464 0.000100667
0.000206212 0.000140418 0.000108694
0.000213005 0.00014788 0.000119048
0.000219405 0.000153777 0.000131733
0.000225313 0.000158109 0.000146619
0.000230673 0.000160949 0.000163451
0.000235468 0.000162431 0.000181857
0.000239723 0.000162742 0.000201372
0.0002435 0.000162113 0.000221451
0.000246868 0.000160807 0.000241499
0.000249909 0.000159106 0.000260897
0.000252727 0.000157289 0.000279033
0.000255468 0.000155616 0.000295332
0.00025832 0.000154313 0.000309278
0.000261461 0.000153574 0.000320438
0.000264977 0.000153566 0.000328473
0.000268789 0.000154436 0.000333149
0.000272648 0.000156299 0.000334355
0.000276217 0.000159211 0.000332117
0.000278626 0.000162284 0.000327956
0.000280815 0.000166963 0.000320041
0.000281863 0.000172385 0.000309515
0.000281612 0.000178258 0.000296917
0.000279941 0.000184226 0.000282876
0.00027673 0.000189887 0.000268073
0.000271864 0.000194819 0.000253202
0.000265237 0.000198601 0.00023894
0.000256746 0.000200836 0.000225899
0.000246301 0.000201168 0.000214602
0.000233846 0.0001993 0.000205447
0.000219344 0.000195006 0.00019869
0.000202812 0.000188142 0.000194423
0.000184371 0.000178638 0.000192574
0.000164313 0.000166492 0.000192907
0.000143066 0.000151781 0.000195022
0.000121068 0.000134689 0.000198357
9.87145e-05 0.000115505 0.000202214
7.63761e-05 9.46117e-05 0.00020578
5.44096e-05 7.24673e-05 0.000208173
3.31469e-05 4.95853e-05 0.000208476
1.28641e-05 2.65152e-05 0.000205789
-6.17036e-06 3.85464e-06 0.000199259
-2.3818e-05 -1.7699e-05 0.00018824
-4.03887e-05 -3.76141e-05 0.000172087
-5.59907e-05 -5.56679e-05 0.000150418
-7.06085e-05 -7.15822e-05 0.000123082
-8.41263e-05 -8.51759e-05 9.0182e-05
-9.6363e-05 -9.64275e-05 5.205e-05
-0.000107213 -0.000105464 9.30587e-06
-0.000116784 -0.00011243 -3.65859e-05
-0.000125351 -0.00011755 -8.5273e-05
-0.00013328 -0.000121123 -0.000135743
-0.00014095 -0.000123522 -0.000186751
-0.000148748 -0.000125145 -0.000237026
-0.000157089 -0.000126414 -0.000285284
-0.000166399 -0.000127768 -0.000330286
-0.000177074 -0.000129635 -0.000370888
-0.000189419 -0.000132418 -0.000406061
-0.000203571 -0.000136501 -0.000434918
-0.000219435 -0.000142239 -0.000456797
-0.000236697 -0.000149929 -0.000471268
-0.00025491 -0.000159762 -0.000478177
-0.000273614 -0.000171794 -0.000477649
-0.000292387 -0.000185924 -0.000470113
-0.000310889 -0.000201883 -0.000456288
-0.000328862 -0.000219247 -0.000437152
-0.00034612 -0.000237464 -0.000413884
-0.000362546 -0.00025589 -0.000387816
-0.000378058 -0.000273827 -0.000360367
-0.000392559 -0.000290578 -0.000332964
-0.000405918 -0.000305492 -0.000306969
-0.000417987 -0.000317997 -0.000283619
-0.000428631 -0.000327626 -0.000263967
-0.000485524 -0.000333849 -0.000248917
-0.000818813 -0.000334867 -0.000239803
-0.00110766 -0.000332808 -0.000235772
-0.00126418 -0.000328661 -0.000236443
-0.00135122 -0.000321808 -0.000241797
-0.00139319 -0.000312593 -0.000251455
-0.00138331 -0.0003032 -0.00026407
-0.00137221 -0.000291788 -0.000279907
-0.00136019 -0.00027904 -0.000297611
-0.00134718 -0.000265398 -0.000316443
-0.00133373 -0.000251239 -0.000335406
-0.0013206 -0.000237016 -0.000353453
-0.00130805 -0.000223309 -0.0003695
-0.00129659 -0.000210511 -0.000382619
-0.00128672 -0.000198969 -0.000392039
-0.00127875 -0.000189081 -0.000397073
-0.00127297 -0.00018115 -0.000397193
-0.00126964 -0.000175357 -0.000392096
-0.00126885 -0.000171837 -0.000381705
-0.00127061 -0.000170659 -0.000366152
-0.00127485 -0.000171798 -0.000345777
-0.00128116 -0.000175182 -0.00032112
-0.00128762 -0.000180974 -0.000292811
-0.00129379 -0.000188826 -0.000261848
-0.00129934 -0.000198322 -0.000229352
-0.00130408 -0.000208915 -0.000196564
-0.0013072 -0.000217752 -0.000171011
-0.00130964 -0.000226537 -0.000146805
-0.00131136 -0.000234934 -0.000124602
-0.00131231 -0.000242624 -0.000105011
-0.00131242 -0.000249313 -8.85772e-05
-0.00131164 -0.000254735 -7.57659e-05
-0.00130992 -0.000258676 -6.69478e-05
-0.00130716 -0.000260981 -6.23821e-05
-0.00130326 -0.00026156 -6.2208e-05
-0.00129806 -0.000260384 -6.64422e-05
-0.00129141 -0.000257483 -7.4982e-05
-0.00128316 -0.000252936 -8.76113e-05
-0.00127324 -0.000246858 -0.000104011
-0.00126166 -0.000239388 -0.000123771
-0.00124854 -0.000230679 -0.000146398
-0.00123406 -0.000220897 -0.000171332
-0.00121848 -0.000210224 -0.000197954
-0.00120203 -0.000198866 -0.000225599
-0.00118494 -0.000187042 -0.000253571
-0.00116738 -0.000174982 -0.000281164
-0.00114956 -0.000162912 -0.000307672
-0.00113167 -0.00015105 -0.000332416
-0.00111389 -0.000139597 -0.000354754
-0.00109639 -0.000128732 -0.000374098
-0.00107931 -0.000118611 -0.000389928
-0.00106276 -0.000109356 -0.000401804
-0.00104685 -0.000101055 -0.000409376
-0.00103167 -9.37556e-05 -0.000412392
-0.00101727 -8.74643e-05 -0.000410701
-0.00100371 -8.21475e-05 -0.000404255
-0.000991029 -7.77328e-05 -0.000393111
-0.000979235 -7.41126e-05 -0.000377421
-0.000968326 -7.11477e-05 -0.000357431
-0.000958289 -6.86713e-05 -0.000333469
-0.000935698 -6.63277e-05 -0.000305933
-0.000923553 -6.33731e-05 -0.000275603
-0.000912916 -6.06566e-05 -0.000242343
-0.000903684 -5.77305e-05 -0.00020694
-0.000895146 -5.46223e-05 -0.00016983
-0.000887165 -5.11832e-05 -0.000131532
-0.000879202 -4.73328e-05 -9.25476e-05
-0.000870303 -4.29785e-05 -5.33984e-05
-0.000859751 -3.80089e-05 -1.46246e-05
-0.000847097 -3.23242e-05 2.37549e-05
-0.000831831 -2.58957e-05 6.08642e-05
-0.000813474 -1.86796e-05 9.62422e-05
-0.000791752 -1.06085e-05 0.000129521
-0.000766597 -1.60777e-06 0.000160339
-0.000737931 8.34477e-06 0.000188446
-0.000705807 1.91901e-05 0.000213625
-0.000670336 3.0866e-05 0.000235767
-0.000631641 4.33122e-05 0.000254807
-0.000589877 5.64656e-05 0.000270734
-0.000545286 7.02367e-05 0.00028361
-0.000498212 8.45019e-05 0.000293575
-0.000449099 9.91223e-05 0.000300828
-0.000398498 0.000113962 0.000305602
-0.000347053 0.000128887 0.000308168
-0.000295454 0.000143749 0.000308832
-0.000244414 0.000158386 0.000307935
-0.000194659 0.000172634 0.000305839
-0.000146913 0.000186335 0.000302909
-0.000101857 0.00019933 0.000299508
-6.0109e-05 0.000211464 0.00029599
-2.22106e-05 0.000222582 0.000292692
1.13923e-05 0.000232538 0.000289925
4.03671e-05 0.0002412 0.000287965
6.45065e-05 0.000248451 0.000287041
8.37294e-05 0.000254191 0.000287333
9.80693e-05 0.000258341 0.000288966
0.000107649 0.000260849 0.000292001
0.00011266 0.000261696 0.000296439
0.000113509 0.000260892 0.000302212
0.000112454 0.000258466 0.000309198
0.000110284 0.000254485 0.000317208
0.000107171 0.000249056 0.000325992
0.000103298 0.000242318 0.000335253
9.88631e-05 0.000234435 0.000344648
9.40564e-05 0.000225599 0.000353803
8.90509e-05 0.000216025 0.000362321
8.40109e-05 0.000205946 0.000369795
7.91005e-05 0.000195601 0.000375822
7.44814e-05 0.00018523 0.000380015
7.03105e-05 0.000175068 0.000382017
6.67354e-05 0.000165337 0.000381514
6.38871e-05 0.000156246 0.000378243
6.18746e-05 0.000147981 0.000372002
6.0785e-05 0.0001407 0.000362662
6.0687e-05 0.000134535 0.000350169
6.16378e-05 0.000129579 0.00033455
6.36839e-05 0.00012589 0.000315914
6.68122e-05 0.000123495 0.000294455
7.08865e-05 0.0001224 0.000270444
7.6201e-05 0.000122466 0.000244258
8.24556e-05 0.000123716 0.000216301
8.93189e-05 0.000126127 0.00018696
9.67877e-05 0.000129513 0.000156804
0.000104902 0.000133709 0.000126389
0.000113401 0.000138557 9.63165e-05
0.000137942 0.000143922 6.71743e-05
0.000161603 0.000149733 3.94911e-05
0.000182578 0.000155854 1.38328e-05
0.000200046 0.000162108 -9.25374e-06
0.000213284 0.00016832 -2.89264e-05
0.000221389 0.000174305 -4.50867e-05
0.000223609 0.000179896 -5.73065e-05
0.000222253 0.000184877 -6.52367e-05
0.000218828 0.000189043 -6.85904e-05
0.00021334 0.00019222 -6.7165e-05
0.000205839 0.000194253 -6.08535e-05
0.000196437 0.000195002 -4.9658e-05
0.000185274 0.000194365 -3.36933e-05
0.00017251 0.000192284 -1.31762e-05
0.000158341 0.000188753 1.19384e-05
0.000143021 0.00018377 4.08917e-05
0.000126828 0.000177396 7.31669e-05
0.00011005 0.000169727 0.000108117
9.29563e-05 0.000160914 0.00014503
7.57825e-05 0.000151154 0.000183144
5.87369e-05 0.000140675 0.000221651
4.20055e-05 0.000129731 0.000259706
2.57484e-05 0.000118596 0.000296448
1.0097e-05 0.000107553 0.000331029
-4.83961e-06 9.68833e-05 0.000362648
-1.8964e-05 8.68464e-05 0.000390568
-3.21821e-05 7.76734e-05 0.000414131
-4.44083e-05 6.956e-05 0.000432769
-5.55791e-05 6.26619e-05 0.000446024
-6.56656e-05 5.70903e-05 0.000453556
-7.46737e-05 5.29059e-05 0.000455161
-8.26386e-05 5.01163e-05 0.000450769
-8.96212e-05 4.86762e-05 0.000440446
-9.57067e-05 4.84875e-05 0.000424385
-0.000101004 4.9402e-05 0.000402906
-0.000105644 5.12258e-05 0.000376447
-0.00010979 5.37272e-05 0.00034555
-0.000113629 5.66449e-05 0.000310843
-0.000117379 5.96963e-05 0.000273022
-0.000121281 6.25852e-05 0.000232833
-0.000122218 6.43518e-05 0.000191188
-0.00012267 6.52067e-05 0.000148832
-0.000123716 6.51922e-05 0.000106201
-0.000125753 6.39424e-05 6.42402e-05
-0.000128992 6.13875e-05 2.34342e-05
-0.000133471 5.73411e-05 -1.52611e-05
-0.000139266 5.17185e-05 -5.13828e-05
-0.000147897 4.43931e-05 -8.4811e-05
-0.000171224 3.53555e-05 -0.000115198
-0.000198325 2.45224e-05 -0.000142262
-0.000228891 1.19243e-05 -0.000165831
-0.000262711 -2.16808e-06 -0.000185761
-0.000299656 -1.77643e-05 -0.000202213
-0.000339312 -3.47245e-05 -0.000215262
-0.000381171 -5.29021e-05 -0.000225176
-0.000424708 -7.20117e-05 -0.000232291
-0.000469318 -9.17744e-05 -0.000236993
-0.000514203 -0.000111928 -0.000239716
-0.000558178 -0.000132228 -0.000240916
-0.000600847 -0.00015232 -0.000241122
-0.000641873 -0.000171843 -0.000240867
-0.000681063 -0.000190442 -0.000240668
-0.000718341 -0.000207783 -0.000241014
-0.000753695 -0.000223558 -0.00024235
-0.000787125 -0.000237492 -0.000245061
-0.00081861 -0.000249363 -0.00024945
-0.000846681 -0.000259135 -0.000255702
-0.000868596 -0.000266908 -0.000263832
-0.000887277 -0.000272401 -0.000273977
-0.000902329 -0.000275583 -0.000286142
-0.000913665 -0.000276608 -0.000300053
-0.000921406 -0.000275549 -0.000315524
-0.00092579 -0.000272548 -0.000332212
-0.000927082 -0.000267786 -0.000349745
-0.000926561 -0.000261494 -0.000367668
-0.000925256 -0.000253919 -0.000385486
-0.000923366 -0.000245326 -0.00040267
-0.000921084 -0.000235998 -0.000418681
-0.000918793 -0.000226148 -0.000364749
-0.000916537 -0.0002125 -0.0003849
-0.000913936 -0.000204188 -0.00039776
-0.000912343 -0.000192878 -0.0004048
-0.000910679 -0.000184172 -0.000398149
-0.000909354 -0.000177396 -0.000388153
-0.00090918 -0.000171317 -0.000386133
-0.00090988 -0.000165862 -0.000390691
-0.000911436 -0.00016098 -0.000391103
-0.000913782 -0.00015817 -0.000379414
-0.000917056 -0.000157696 -0.00035885
-0.000921215 -0.000158903 -0.000337523
-0.000926194 -0.000160959 -0.000319422
-0.000939271 -0.000163891 -0.000301506
-0.000954909 -0.000168267 -0.000278818
-0.000971073 -0.00017426 -0.000250518
-0.000987562 -0.00018135 -0.000221284
-0.00100434 -0.000188841 -0.000194679
-0.00102118 -0.000196382 -0.000171365
-0.00103772 -0.000204026 -0.000149367
-0.00105367 -0.000211785 -0.000127465
-0.00106881 -0.000219244 -0.000106634
-0.00108274 -0.00022597 -8.8176e-05
-0.00109498 -0.000231634 -7.30179e-05
-0.00110499 -0.000236204 -6.12517e-05
-0.00111227 -0.00023969 -5.24422e-05
-0.00111644 -0.000242009 -4.63157e-05
-0.00111728 -0.00024305 -4.31051e-05
-0.00111624 -0.000242729 -4.34061e-05
-0.00111388 -0.000241072 -4.84514e-05
-0.00111021 -0.000238172 -5.77038e-05
-0.00110532 -0.000234091 -7.0243e-05
-0.00109935 -0.000228957 -8.54855e-05
-0.00109249 -0.000222887 -0.000103345
-0.00108495 -0.000215988 -0.000123141
-0.0010769 -0.000208392 -0.000144467
-0.00106851 -0.000200355 -0.000167455
-0.00105991 -0.000192135 -0.000191234
-0.00105127 -0.000183971 -0.000214952
-0.00104274 -0.000176109 -0.00023816
-0.00103452 -0.000168738 -0.000260713
-0.0010268 -0.00016203 -0.000282348
-0.00101975 -0.000156164 -0.000302509
-0.00101355 -0.000151316 -0.000320523
-0.00100835 -0.000147633 -0.000335897
-0.00100427 -0.000145212 -0.000348439
-0.00100136 -0.000144104 -0.000358118
-0.000999607 -0.000144346 -0.000364872
-0.000998937 -0.00014596 -0.000368546
-0.000999215 -0.000148945 -0.000368966
-0.00100027 -0.000153247 -0.00036591
-0.00100187 -0.000158758 -0.000359724
-0.00100379 -0.000165349 -0.000350822
-0.00100575 -0.000172839 -0.000339524
-0.00100749 -0.000181032 -0.00032608
-0.00100877 -0.000189692 -0.000310859
-0.00100936 -0.000198546 -0.000294412
-0.00100908 -0.000207285 -0.000277379
-0.00100777 -0.000215583 -0.000260351
-0.0010053 -0.000223119 -0.000243815
-0.00100159 -0.000229581 -0.000228213
-0.000996562 -0.000234679 -0.000214217
-0.000990152 -0.000238139 -0.00020221
-0.000982305 -0.000239725 -0.000192389
-0.000972979 -0.000239254 -0.000185046
-0.000962162 -0.000236579 -0.000180119
-0.000949872 -0.000231613 -0.000177698
-0.000936158 -0.000224332 -0.000177816
-0.000921107 -0.000214758 -0.000180387
-0.000904829 -0.000202981 -0.000184943
-0.000887508 -0.000189125 -0.00019124
-0.000869695 -0.000173323 -0.000198911
-0.000851808 -0.000155766 -0.000207619
-0.000833316 -0.000136848 -0.000216605
-0.000814276 -0.000116905 -0.000225377
-0.000795015 -9.6303e-05 -0.000233202
-0.000773446 -7.53274e-05 -0.000239555
-0.000723019 -5.44402e-05 -0.000243779
-0.000673988 -3.38621e-05 -0.000245396
-0.000627895 -1.38338e-05 -0.000243826
-0.000585191 5.39105e-06 -0.000238495
-0.000545976 2.35325e-05 -0.000229017
-0.000510783 4.0313e-05 -0.000215228
-0.000480116 5.54789e-05 -0.000196962
-0.000454014 6.88137e-05 -0.000175878
-0.000432377 8.00813e-05 -0.000151138
-0.000415195 8.93494e-05 -0.000123294
-0.000402256 9.65271e-05 -9.18366e-05
-0.000393201 0.000101702 -5.72383e-05
-0.000387567 0.000104993 -1.99301e-05
-0.000384789 0.000106553 1.99791e-05
-0.000384204 0.000106601 6.46182e-05
-0.000384519 0.000105433 0.000110807
-0.000385033 0.000103064 0.000157621
-0.000385492 9.99917e-05 0.000204269
-0.000385592 9.64421e-05 0.000250392
-0.000385108 9.28978e-05 0.000302013
-0.000383172 8.96941e-05 0.00034873
-0.000376772 8.68846e-05 0.000390414
-0.000367245 8.51465e-05 0.000428231
-0.000353961 8.44457e-05 0.00046281
-0.00033673 8.50246e-05 0.000492439
-0.000315472 8.71434e-05 0.000515115
-0.000290068 9.09275e-05 0.000525966
-0.000260564 9.63854e-05 0.000582622
-0.000227168 0.000104011 0.000640977
-0.00018977 0.000113362 0.000637793
-0.000148585 0.000124407 0.000628144
-0.000103851 0.000137068 0.00061204
-5.582e-05 0.000151039 0.000590569
-4.99173e-06 0.000166028 0.00056498
4.8042e-05 0.000181729 0.000536169
0.000102616 0.000197878 0.000504584
0.000157975 0.000214184 0.000470776
0.000213267 0.000230321 0.000435709
0.000267599 0.00024594 0.000400613
7.32264e-05 0.000243394 0.000372152
-6.81116e-05 0.000206032 0.000377104
-0.000139321 0.000223706 0.000335342
-7.72621e-05 0.000229063 0.000298892
-5.07144e-05 0.000233789 0.00027263
-8.00666e-05 0.000244184 0.000245786
-8.53429e-05 0.000254615 0.000220384
-6.62172e-05 0.000259852 0.000199328
-6.27435e-05 0.000262723 0.000182781
-7.32991e-05 0.000264139 0.000170956
-7.49605e-05 0.000264643 0.000163117
-6.96522e-05 0.000264373 0.000158348
-7.03052e-05 0.000262129 0.000158099
-7.54149e-05 0.000258325 0.00016213
-7.73365e-05 0.000252919 0.000170228
-7.77387e-05 0.000247352 0.000181483
-7.97147e-05 0.00024146 0.000195553
-8.30579e-05 0.000234439 0.000212816
-8.56955e-05 0.000226852 0.000232402
-8.75478e-05 0.000219212 0.000253864
-8.98317e-05 0.000212044 0.000276674
-9.24458e-05 0.000205276 0.000300511
-9.46584e-05 0.000198827 0.000324724
-9.66842e-05 0.000192911 0.000348731
-9.87322e-05 0.000187975 0.000372006
-0.000100544 0.000184166 0.000394125
-0.000101787 0.000181439 0.000414663
-0.000102404 0.00017986 0.000433186
-0.000102798 0.000179538 0.000449354
-0.000103327 0.000180446 0.000463032
-0.000103584 0.00018275 0.000474003
-0.000103412 0.00018596 0.00042713
-0.000102612 0.000185115 0.000386338
-0.0001018 0.000190062 0.000358671
-0.000101057 0.000197372 0.000351268
-0.000100007 0.000206569 0.000356359
-9.86279e-05 0.000215664 0.000361774
-9.71195e-05 0.000224487 0.000359561
-9.56022e-05 0.000234261 0.000350085
-0.000133333 9.81048e-05 0.000269453
-0.000147331 6.82071e-05 0.000295706
-0.000141801 5.04156e-05 0.000275855
-0.000131162 5.78886e-05 0.000265144
-0.000129691 6.30315e-05 0.00025
-0.000130029 5.271e-05 0.00023558
-0.000126059 3.75744e-05 0.000229305
-0.000123066 3.17951e-05 0.000226444
-0.000123089 3.44884e-05 0.000224437
-0.000122984 3.67667e-05 0.00022303
-0.000120863 3.27743e-05 0.000227086
-0.000119074 2.74793e-05 0.000232843
-0.000119032 2.53275e-05 0.000242601
-0.000118953 2.56895e-05 0.000256642
-0.000118817 2.62303e-05 0.000273003
-0.000119651 2.54951e-05 0.00029201
-0.000121579 2.45645e-05 0.000313533
-0.000124185 2.50334e-05 0.00033832
-0.000127369 2.62865e-05 0.000366437
-0.00013167 2.71653e-05 0.000396406
-0.000142935 2.79111e-05 0.000416139
-0.000149546 2.82059e-05 0.000424246
-0.000153051 2.84818e-05 0.000425269
-0.000156276 2.91554e-05 0.000425017
-0.000160343 2.98079e-05 0.000429275
-0.000165289 2.98028e-05 0.000434831
-0.000170293 2.7349e-05 0.000385927
-0.000174454 2.10578e-05 0.000307721
-0.000178825 1.67309e-05 0.000236031
-0.000184159 1.53318e-05 0.000189479
-0.000189826 1.60618e-05 0.000179389
-0.00019552 1.65956e-05 0.000202522
-0.000201567 1.60168e-05 0.000225817
-0.000207229 1.51911e-05 0.000228698
-0.000212046 1.49652e-05 0.00021138
-0.000216241 1.54888e-05 0.000188807
-0.000220186 1.57784e-05 0.000175215
-0.000223931 1.57501e-05 0.000177517
-0.000227382 1.57632e-05 0.000186397
-0.000230305 1.60947e-05 0.00018991
-0.000232528 1.63777e-05 0.000183331
-0.000234131 1.61932e-05 0.000171422
-0.000235306 1.56427e-05 0.000164275
-0.000236145 1.52968e-05 0.000162584
-0.000236338 1.55713e-05 0.000159191
-0.000236077 1.63445e-05 0.000150282
-0.000235614 1.74447e-05 0.000134892
-0.000235049 1.83991e-05 0.000115507
-0.000234511 1.8032e-05 9.79829e-05
-0.000234109 1.74198e-05 9.29015e-05
-0.000233696 1.6797e-05 9.3488e-05
-0.000233203 1.62188e-05 9.31738e-05
-0.000232748 1.55022e-05 8.70973e-05
-0.000232417 1.45133e-05 7.60864e-05
-0.000232195 1.32898e-05 6.50555e-05
-0.000231643 1.16264e-05 5.78669e-05
-0.000232029 9.1508e-06 5.40826e-05
-0.000232504 6.24674e-06 5.03226e-05
-0.00023278 3.7795e-06 4.42279e-05
-0.000233183 1.8339e-06 3.55617e-05
-0.000233917 3.8145e-07 2.69121e-05
-0.00023485 -9.25e-07 2.02977e-05
-0.000235887 -2.31102e-06 1.58157e-05
-0.000238512 -3.81275e-06 1.18729e-05
-0.000242744 -5.32653e-06 6.88177e-06
-0.000247448 -6.7808e-06 6.56707e-07
-0.000252428 -8.21084e-06 -5.6946e-06
-0.000257774 -9.68984e-06 -1.10296e-05
-0.000263494 -1.12318e-05 -1.5206e-05
-0.000269481 -1.27905e-05 -1.90561e-05
-0.000275572 -1.43466e-05 -2.35232e-05
-0.000281712 -1.59356e-05 -2.8627e-05
-0.00028792 -1.7571e-05 -3.3755e-05
-0.000294097 -1.92641e-05 -3.91292e-05
-0.000300141 -2.09948e-05 -4.43837e-05
-0.000305841 -2.27559e-05 -4.88816e-05
-0.000311353 -2.45326e-05 -5.32347e-05
-0.000316607 -2.61434e-05 -5.83427e-05
-0.000321576 -2.82126e-05 -6.43238e-05
-0.000325982 -3.02856e-05 -7.08814e-05
-0.000330364 -3.44292e-05 -7.76693e-05
-0.000334871 -3.85065e-05 -8.41258e-05
-0.000338726 -4.26508e-05 -9.02067e-05
-0.000341944 -4.65272e-05 -9.64331e-05
-0.000344707 -5.01702e-05 -0.000103304
-0.000347423 -5.36887e-05 -0.000110776
-0.000350536 -6.20351e-05 -0.000119285
-0.000354359 -7.15147e-05 -0.000127468
-0.0003574 -8.05533e-05 -0.000135013
-0.000359514 -8.86684e-05 -0.000142316
-0.000361471 -9.58975e-05 -0.000149904
-0.000363467 -0.000102869 -0.000157894
-0.000375703 -0.000110932 -0.000166067
-0.000394322 -0.000118705 -0.000174211
-0.000411957 -0.000126057 -0.000198483
-0.000426236 -0.000134203 -0.000233757
-0.000440244 -0.000142107 -0.000272531
-0.000455201 -0.000149378 -0.000307125
-0.000469978 -0.000155782 -0.000339142
-0.000484342 -0.000161902 -0.000368837
-0.000499386 -0.000167861 -0.000395865
-0.000515434 -0.000173644 -0.000409787
-0.000532124 -0.000178429 -0.000416781
-0.000549334 -0.000183089 -0.000425611
-0.000567425 -0.000187659 -0.000439257
-0.000586611 -0.000191892 -0.00044687
-0.000606061 -0.000196618 -0.000455966
-0.000626046 -0.000201954 -0.000463762
-0.000647208 -0.000206694 -0.000469811
-0.000668919 -0.000211211 -0.000474301
-0.000691199 -0.000215508 -0.000476783
-0.000714122 -0.000219776 -0.000476528
-0.00073747 -0.000224169 -0.000472062
-0.000761094 -0.000228414 -0.000463529
-0.000784792 -0.000232483 -0.000453356
-0.000808424 -0.000236286 -0.000442967
-0.000831766 -0.000239767 -0.000431735
-0.000854474 -0.000243022 -0.000418546
-0.000876377 -0.000246061 -0.000402735
-0.000816126 -0.00022259 -0.000396308
-0.000854309 -0.000180136 -0.000399766
-0.000865835 -0.000184121 -0.000373984
-0.000839848 -0.000206335 -0.000342986
-0.00083715 -0.000221824 -0.000313832
-0.000863202 -0.000215591 -0.00029233
-0.000895245 -0.000211599 -0.000269721
-0.000897022 -0.000223445 -0.000241028
-0.000893142 -0.000234969 -0.000212542
-0.000916318 -0.000238245 -0.000188183
-0.000942932 -0.000240714 -0.000164714
-0.000953502 -0.000244345 -0.000140321
-0.000961412 -0.000250407 -0.000116894
-0.000968647 -0.000254314 -9.52361e-05
-0.000978785 -0.000254795 -7.63975e-05
-0.000988329 -0.000254308 -5.97655e-05
-0.000992821 -0.000253987 -4.51113e-05
-0.000992825 -0.00025344 -3.29206e-05
-0.000992657 -0.000250893 -2.35424e-05
-0.000992847 -0.000246398 -1.68945e-05
-0.000991444 -0.000241022 -1.2484e-05
-0.000988324 -0.000234727 -1.03788e-05
-0.000984828 -0.000227035 -1.08689e-05
-0.00098118 -0.000218144 -1.4195e-05
-0.00097718 -0.000208767 -1.96619e-05
-0.000972859 -0.000199532 -2.67513e-05
-0.000968035 -0.000190509 -3.54697e-05
-0.000962971 -0.000181299 -4.59759e-05
-0.000956845 -0.00017223 -5.7764e-05
-0.000950772 -0.000163483 -7.02934e-05
-0.000944524 -0.000155551 -8.26991e-05
-0.000938311 -0.000148386 -9.4465e-05
-0.000932477 -0.000141917 -0.000105197
-0.000927091 -0.000136269 -0.000115081
-0.000922135 -0.000131792 -0.000124278
-0.000917281 -0.000128688 -0.000132412
-0.0009127 -0.000126845 -0.000139545
-0.000908576 -0.000126203 -0.000145551
-0.000904908 -0.000126753 -0.000150406
-0.000901647 -0.000128527 -0.000154154
-0.000898811 -0.000131438 -0.000156857
-0.000896471 -0.000135304 -0.00015855
-0.000894636 -0.000139988 -0.000159243
-0.000893279 -0.000145405 -0.000158795
-0.000892253 -0.000151502 -0.00015728
-0.000891402 -0.000158126 -0.000155084
-0.000890698 -0.000165032 -0.000152633
-0.000889997 -0.000172049 -0.000150095
-0.000889038 -0.000179026 -0.000147414
-0.000887623 -0.000185792 -0.000144821
-0.000885616 -0.000192146 -0.000142681
-0.000882852 -0.000197889 -0.000141379
-0.000879571 -0.000202717 -0.000140929
-0.000875334 -0.000206588 -0.000141574
-0.000869863 -0.00020971 -0.000142846
-0.000863316 -0.000211472 -0.000145265
-0.000856474 -0.000212259 -0.000148825
-0.000848227 -0.000212542 -0.000152913
-0.000838614 -0.000211834 -0.00015783
-0.000828333 -0.00020969 -0.000163803
-0.000817478 -0.000205957 -0.000170763
-0.000806631 -0.000200725 -0.000178523
-0.000795815 -0.000194266 -0.000186899
-0.000784329 -0.000186589 -0.000195651
-0.000773242 -0.000177731 -0.000204657
-0.000762301 -0.00016763 -0.000213765
-0.000751047 -0.000156357 -0.000222746
-0.000739404 -0.000144238 -0.000231258
-0.000727547 -0.000131385 -0.000238994
-0.000716679 -0.000118104 -0.000245598
-0.000708024 -0.000104726 -0.000250729
-0.000702515 -9.14895e-05 -0.000254117
-0.00069932 -7.85032e-05 -0.000255604
-0.000697051 -6.58944e-05 -0.000254701
-0.000695219 -5.38864e-05 -0.000251118
-0.000690548 -4.35484e-05 -0.000244902
-0.00068695 -3.41913e-05 -0.000236666
-0.000684428 -2.52599e-05 -0.000225342
-0.000682503 -1.74878e-05 -0.000211784
-0.000681061 -1.21947e-05 -0.000197074
-0.000680447 -9.28803e-06 -0.00018092
-0.000680587 -7.77925e-06 -0.000162524
-0.000675212 -6.33973e-06 -0.000142351
-0.000677846 -4.65558e-06 -0.000121184
-0.000679255 -3.30346e-06 -9.82379e-05
-0.000678127 -1.64614e-06 -7.38134e-05
-0.000678227 8.0087e-08 -4.74794e-05
-0.000679366 1.82124e-06 -2.08593e-05
-0.000680224 3.49906e-06 2.49468e-06
-0.000680437 5.24758e-06 2.42206e-05
-0.000680843 6.82929e-06 2.95666e-05
-0.000681534 8.08789e-06 2.90425e-05
-0.00068212 9.29099e-06 2.52768e-05
-0.000682496 1.06089e-05 2.20878e-05
-0.000683084 1.20816e-05 2.24021e-05
-0.000683952 1.35448e-05 2.64158e-05
-0.000684689 1.49116e-05 3.22237e-05
-0.000685224 1.62037e-05 3.69292e-05
-0.000685673 1.74541e-05 3.80214e-05
-0.000686052 1.86583e-05 3.65909e-05
-0.000686284 1.97898e-05 3.50029e-05
-0.00068636 2.0853e-05 3.52595e-05
-0.000686344 2.18847e-05 3.78959e-05
-0.000686262 2.29207e-05 4.88504e-05
-0.000686075 2.392e-05 5.26443e-05
-0.000685709 2.45676e-05 4.98499e-05
-0.0006853 2.52122e-05 4.55717e-05
-0.000684813 2.58464e-05 4.53556e-05
-0.000684252 2.65038e-05 5.0008e-05
-0.000682883 2.71105e-05 5.67491e-05
-0.000681096 2.76066e-05 6.09427e-05
-0.000679121 2.80056e-05 6.0836e-05
-0.000676967 2.83381e-05 5.9227e-05
-0.000674681 2.86391e-05 5.91924e-05
-0.000672314 2.89181e-05 6.19341e-05
-0.000669902 2.91737e-05 6.66114e-05
-0.000667452 2.93969e-05 7.01613e-05
-0.000665001 2.95898e-05 7.13618e-05
-0.000662604 2.97728e-05 7.12196e-05
-0.000660321 2.99752e-05 7.15777e-05
-0.000658309 2.91914e-05 7.33874e-05
-0.000657107 2.85119e-05 7.42547e-05
-0.000654966 2.78412e-05 7.73095e-05
-0.000654609 2.67264e-05 8.11334e-05
-0.000654552 2.58641e-05 8.24794e-05
-0.000654771 2.59335e-05 8.16521e-05
-0.000654659 2.62736e-05 8.08179e-05
-0.000654699 2.64165e-05 8.24695e-05
-0.000655147 2.65859e-05 8.56236e-05
-0.00065559 2.69432e-05 8.79039e-05
-0.000655769 2.73525e-05 8.89322e-05
-0.000656015 2.77314e-05 8.925e-05
-0.000656406 2.80811e-05 8.95865e-05
-0.000656688 2.83961e-05 9.0764e-05
-0.000656839 2.86815e-05 9.28449e-05
-0.000657065 2.9004e-05 9.50299e-05
-0.000657353 2.91981e-05 9.64613e-05
-0.000657562 2.92852e-05 9.72117e-05
-0.000657694 2.92702e-05 9.79438e-05
-0.000657837 2.92371e-05 9.91398e-05
-0.000657972 2.92299e-05 0.000100783
-0.000658037 2.91932e-05 0.000100676
-0.000658029 2.9036e-05 0.000100712
-0.000658015 2.88252e-05 0.000100932
-0.000657967 2.8585e-05 0.000101107
-0.000657795 2.82545e-05 0.000101022
-0.000657589 2.7848e-05 0.000100801
-0.000657386 2.74137e-05 0.000100591
-0.000657126 2.69845e-05 0.000100582
-0.000656794 2.67092e-05 0.000100806
-0.00065636 2.63955e-05 0.000101089
-0.000655951 2.60841e-05 0.000101139
-0.000655542 2.57483e-05 0.000101026
-0.000655175 2.5458e-05 0.000100959
-0.000654863 2.52538e-05 0.000100989
-0.000654854 2.50555e-05 0.000101054
-0.000654731 2.49225e-05 0.000100993
-0.00065529 2.49012e-05 0.000100586
-0.00065622 2.48331e-05 0.000100302
-0.000657511 2.48264e-05 0.000100142
-0.000659386 2.49391e-05 9.98831e-05
-0.000661925 2.50655e-05 9.9494e-05
-0.000665212 2.5197e-05 9.89899e-05
-0.000671171 2.53621e-05 9.84838e-05
-0.000676128 2.55018e-05 9.80378e-05
-0.000677922 2.55037e-05 9.76566e-05
-0.000678674 2.54131e-05 9.73196e-05
-0.00068 2.53582e-05 9.69136e-05
-0.000681449 2.50121e-05 9.63598e-05
-0.000682996 2.37475e-05 9.57758e-05
-0.000685045 2.14607e-05 9.52858e-05
-0.000687372 1.8215e-05 9.48553e-05
-0.000689865 1.46514e-05 9.43951e-05
-0.000692277 1.302e-05 9.38657e-05
-0.000694349 1.28522e-05 9.30016e-05
-0.000696567 1.27281e-05 9.19397e-05
-0.000698737 1.21485e-05 9.10894e-05
-0.000700763 1.14219e-05 9.03575e-05
-0.000702802 1.08184e-05 8.7453e-05
-0.000704816 1.01989e-05 8.12609e-05
-0.000706627 9.50693e-06 7.16668e-05
-0.000708325 8.70782e-06 5.85524e-05
-0.000709936 7.8198e-06 4.21577e-05
-0.000711377 6.74681e-06 2.39734e-05
-0.000712749 5.60687e-06 1.36913e-05
-0.000714174 4.69754e-06 1.01082e-05
-0.0007154 3.7257e-06 8.7951e-06
-0.000716454 2.42436e-06 4.53601e-06
-0.000717431 9.51714e-07 -3.52294e-06
-0.000718296 -4.8801e-07 -1.17101e-05
-0.000719085 -1.95088e-06 -1.7527e-05
-0.000719856 -3.52768e-06 -2.24536e-05
-0.000720593 -5.15913e-06 -2.90902e-05
-0.000721178 -6.78148e-06 -3.74985e-05
-0.000721864 -8.43636e-06 -4.55029e-05
-0.000722684 -9.99558e-06 -5.23297e-05
-0.000723224 -1.16445e-05 -5.90414e-05
-0.000724012 -1.33006e-05 -6.6179e-05
-0.000724902 -1.4922e-05 -7.24246e-05
-0.000725756 -1.65278e-05 -7.82105e-05
-0.000726753 -1.81144e-05 -8.32385e-05
-0.000727645 -1.98394e-05 -8.9507e-05
-0.00072858 -2.14604e-05 -9.64218e-05
-0.000730308 -2.31175e-05 -0.00010257
-0.000731581 -2.47223e-05 -0.000106815
-0.000732806 -2.62323e-05 -0.000109808
-0.000734213 -2.76782e-05 -0.000113086
-0.000735413 -2.90313e-05 -0.000117557
-0.000736944 -3.01455e-05 -0.000122898
-0.000739066 -3.15643e-05 -0.000127555
-0.000740994 -3.25337e-05 -0.000130587
-0.000743531 -3.34949e-05 -0.000132895
-0.000745437 -3.42346e-05 -0.000135319
-0.000747259 -3.4942e-05 -0.00013855
-0.000749571 -3.55524e-05 -0.000142222
-0.000752176 -3.5998e-05 -0.000145424
-0.000754706 -3.63856e-05 -0.000147672
-0.000757 -3.66569e-05 -0.000149216
-0.000759399 -3.68595e-05 -0.000150834
-0.000761942 -3.70416e-05 -0.000153006
-0.000764313 -3.72344e-05 -0.00015557
-0.000766385 -3.74329e-05 -0.000157981
-0.000768289 -3.76413e-05 -0.000159861
-0.000770083 -3.79267e-05 -0.000161345
-0.000771474 -3.83035e-05 -0.000162891
-0.000772997 -3.88107e-05 -0.000164877
-0.000774026 -3.94691e-05 -0.000167278
-0.000774426 -4.0118e-05 -0.000169628
-0.000774889 -4.08918e-05 -0.000171695
-0.000775597 -4.18222e-05 -0.000173495
-0.000775438 -4.26959e-05 -0.000175241
-0.000775147 -4.35668e-05 -0.000177203
-0.000774991 -4.44918e-05 -0.000179415
-0.000774828 -4.49736e-05 -0.000181561
-0.00077446 -4.51221e-05 -0.000183447
-0.000773946 -4.51982e-05 -0.000184991
-0.000773604 -4.49755e-05 -0.000186423
-0.000773353 -4.46414e-05 -0.000187857
-0.000773005 -4.43095e-05 -0.000189248
-0.000772643 -4.40727e-05 -0.000190436
-0.000772448 -4.39879e-05 -0.000191273
-0.000772437 -4.40911e-05 -0.000191756
-0.000772487 -4.43667e-05 -0.000191999
-0.000772571 -4.48405e-05 -0.000191951
-0.000772764 -4.54186e-05 -0.000189946
-0.000773132 -4.60214e-05 -0.00018547
-0.000773542 -4.65873e-05 -0.000178685
-0.000773953 -4.70513e-05 -0.000169913
-0.000774409 -4.72873e-05 -0.00015955
-0.000774902 -4.71652e-05 -0.000148407
-0.000775379 -4.66381e-05 -0.000136149
-0.000775894 -4.56494e-05 -0.000122853
-0.00077654 -4.42207e-05 -0.000109016
-0.000777227 -4.24819e-05 -9.47845e-05
-0.000778193 -4.06416e-05 -8.08716e-05
-0.00077859 -3.87849e-05 -6.71698e-05
-0.000778981 -3.68879e-05 -5.3557e-05
-0.000779786 -3.4988e-05 -4.03905e-05
-0.000780704 -3.31752e-05 -2.78178e-05
-0.000781483 -3.16448e-05 -1.58436e-05
-0.000782209 -3.05329e-05 -4.62722e-06
-0.000783215 -2.98989e-05 5.07899e-06
-0.000784465 -2.9811e-05 1.17315e-05
-0.000786329 -3.04533e-05 1.27447e-05
-0.000797187 -3.282e-05 1.16819e-05
-0.000808613 -3.50496e-05 9.93751e-06
-0.00082021 -3.76658e-05 9.38934e-06
-0.00083107 -4.11186e-05 1.03162e-05
-0.00084062 -4.15476e-05 1.15284e-05
-0.000849788 -4.09457e-05 1.13994e-05
-0.000858513 -4.03576e-05 9.98297e-06
-0.000866783 -4.04636e-05 8.46385e-06
-0.000875348 -4.0496e-05 7.85537e-06
-0.000883945 -4.03367e-05 7.13153e-06
-0.000892499 -4.02761e-05 3.83706e-06
-0.000901464 -4.05397e-05 -1.65349e-07
-0.000911473 -4.29071e-05 -4.92703e-06
-0.000923875 -4.88381e-05 -1.04215e-05
-0.000936867 -5.56253e-05 -1.62593e-05
-0.000950495 -6.23288e-05 -2.25288e-05
-0.000964622 -6.90439e-05 -3.04305e-05
-0.000979249 -7.62261e-05 -3.99945e-05
-0.000994113 -8.38487e-05 -4.94096e-05
-0.00100912 -9.17073e-05 -5.78575e-05
-0.00102394 -0.000100162 -6.62665e-05
-0.00103852 -0.000109444 -7.59692e-05
-0.00105292 -0.000119444 -8.72064e-05
-0.00106712 -0.000130035 -9.89191e-05
-0.00108125 -0.0001413 -0.000109984
-0.00109515 -0.000153356 -0.000120378
-0.00110893 -0.000165997 -0.000131017
-0.0011226 -0.000179076 -0.000142579
-0.00113596 -0.000192577 -0.000154752
-0.00114885 -0.000206448 -0.000166731
-0.00116122 -0.000220493 -0.00017813
-0.00117282 -0.000234562 -0.000189308
-0.00118352 -0.000248555 -0.000201251
-0.00119325 -0.000262328 -0.000213961
-0.00120209 -0.000275713 -0.000230668
-0.00120998 -0.000289073 -0.000256184
-0.00121852 -0.000228236 -0.00027957
-0.00123483 -0.000267307 -0.00022292
-0.00123797 -0.000319575 -0.000198062
-0.00124966 -0.000311528 -0.000231895
-0.00125993 -0.000289571 -0.000322333
-0.00127024 -0.000298638 -0.000361295
-0.00128097 -0.000334041 -0.000357463
-0.00129455 -0.000361895 -0.000364578
-0.00130609 -0.000361919 -0.00040109
-0.00131679 -0.000359915 -0.000447643
-0.00133001 -0.000374083 -0.000476822
-0.00134281 -0.000395618 -0.000494594
-0.00135422 -0.000407886 -0.000516649
-0.00136432 -0.000414926 -0.000850647
-0.00137567 -0.000421072 -0.00163519
-0.00138669 -0.000430588 -0.00228527
-0.00141571 -0.000501377 -0.00277718
-0.00161832 -0.000894876 -0.00318039
-0.00185383 -0.00120951 -0.00365282
-0.00209616 -0.00147321 -0.00417417
-0.00231687 -0.00176206 -0.00467332
-0.00252241 -0.00208938 -0.00509193
-0.00272891 -0.00242011 -0.00543584
-0.00293849 -0.00272675 -0.00575206
-0.00314737 -0.00300963 -0.00607319
-0.00335668 -0.00328093 -0.0063901
-0.0035674 -0.003549 -0.00667145
-0.00377424 -0.00381748 -0.00689831
-0.00397147 -0.00408538 -0.00707933
-0.00415863 -0.0043456 -0.00723728
-0.004333 -0.0045965 -0.00738275
-0.00448673 -0.00483831 -0.00750994
-0.00461175 -0.00507647 -0.00760635
-0.00470336 -0.00531763 -0.0076667
-0.00476124 -0.00556 -0.00770071
-0.00478622 -0.0057926 -0.00772526
-0.00478708 -0.00600232 -0.00775202
-0.00478602 -0.00617936 -0.00778438
-0.00478417 -0.00632296 -0.00782014
-0.00478143 -0.00643147 -0.00786331
-0.00477767 -0.00649992 -0.00792259
-0.00477299 -0.00651943 -0.00800615
-0.00476731 -0.00651795 -0.00810834
-0.00476098 -0.00651545 -0.00820771
-0.00475428 -0.00651251 -0.00829082
-0.00474694 -0.00650878 -0.00836413
-0.00473919 -0.00650341 -0.00843688
-0.00473139 -0.00649682 -0.00850544
-0.0047232 -0.00648962 -0.00856492
-0.00471454 -0.0064812 -0.00862401
-0.0047057 -0.00647171 -0.00867507
-0.00469664 -0.00646183 -0.00869199
-0.00468719 -0.00645174 -0.0086902
-0.00467722 -0.00644143 -0.00868588
-0.00466682 -0.00643076 -0.00867939
-0.00465608 -0.00641997 -0.00867044
-0.00464489 -0.00640939 -0.00865844
-0.00463339 -0.00639895 -0.00864332
-0.00462176 -0.00638856 -0.00862716
-0.00461012 -0.00637814 -0.00861036
-0.00459846 -0.00636783 -0.00859085
-0.00458685 -0.00635754 -0.00856929
-0.00457535 -0.00634708 -0.00854728
-0.00456388 -0.00633644 -0.00852403
-0.00455231 -0.00632568 -0.00849914
-0.00454053 -0.00631479 -0.00847295
-0.00452838 -0.00630376 -0.00844593
-0.00451565 -0.00629247 -0.00841863
-0.00450219 -0.00628089 -0.00839103
-0.00448777 -0.00626901 -0.00836324
-0.00447288 -0.00625634 -0.00833589
-0.00446005 -0.00624241 -0.00830953
-0.00444653 -0.00622826 -0.00828357
-0.00443275 -0.00621382 -0.00825795
-0.00441983 -0.00619893 -0.0082329
-0.00440676 -0.00618318 -0.00820914
-0.00439325 -0.00616675 -0.00818719
-0.00437966 -0.00614991 -0.00816751
-0.00436778 -0.00613338 -0.00812192
-0.00435973 -0.00611778 -0.00803712
-0.00435585 -0.00610393 -0.0080211
-0.00435391 -0.00609102 -0.00802261
-0.00435212 -0.00607853 -0.00802422
-0.00435012 -0.00605063 -0.00802382
-0.0043488 -0.00601082 -0.00802108
-0.00434828 -0.00600797 -0.00797152
-0.00434755 -0.00600888 -0.0079313
-0.00434616 -0.00600965 -0.00791379
-0.00434227 -0.00600999 -0.00791147
-0.0043311 -0.00601015 -0.00790516
-0.00431984 -0.00601054 -0.00788057
-0.00430969 -0.00601118 -0.00784016
-0.00429358 -0.00601184 -0.00779939
-0.00427857 -0.0060127 -0.00776913
-0.00427171 -0.006013 -0.0077562
-0.00426709 -0.00601285 -0.00775128
-0.00425917 -0.00601261 -0.00774064
-0.00425217 -0.00601248 -0.00771854
-0.00424971 -0.00601243 -0.00768935
-0.00424987 -0.00600981 -0.00766457
-0.0042506 -0.00599781 -0.00765207
-0.00425188 -0.00595678 -0.0076501
-0.00425406 -0.00593956 -0.00765025
-0.00425629 -0.00594101 -0.00764013
-0.0042579 -0.00593987 -0.00762728
-0.0042599 -0.0059044 -0.00761592
-0.00426256 -0.00587578 -0.00760744
-0.00426521 -0.0058704 -0.00760432
-0.00426782 -0.00586644 -0.00760434
-0.00427054 -0.00586096 -0.00760462
-0.00427312 -0.00586062 -0.00760441
-0.00427529 -0.00586063 -0.00759989
-0.00427719 -0.00585234 -0.00759449
-0.00427881 -0.00583517 -0.00759417
-0.00428018 -0.00582362 -0.00759444
-0.00428125 -0.00582042 -0.00759459
-0.00428208 -0.00581723 -0.00759447
-0.00428249 -0.0058092 -0.00759414
-0.00428253 -0.00579756 -0.00759004
-0.00428207 -0.00579186 -0.007592
-0.00428109 -0.0057924 -0.00760112
-0.0042794 -0.00579331 -0.00761607
-0.00427693 -0.00579426 -0.00764643
-0.00427385 -0.00579527 -0.00766766
-0.00427025 -0.00579622 -0.00767585
-0.00426693 -0.00579726 -0.00767891
-0.00426573 -0.00579837 -0.00768751
-0.00426504 -0.00579934 -0.00770313
-0.0042643 -0.00580057 -0.0077179
-0.00426373 -0.00580176 -0.00772589
-0.00426326 -0.005803 -0.00773561
-0.00426283 -0.00580413 -0.00774858
-0.00426238 -0.00580535 -0.00776462
-0.00425785 -0.00580677 -0.00777882
-0.00425331 -0.00580897 -0.00778881
-0.00424973 -0.00581094 -0.00779612
-0.00424379 -0.0058128 -0.00780429
-0.00424208 -0.00581485 -0.00781552
-0.00424074 -0.00581701 -0.00782931
-0.00423482 -0.00581878 -0.0078423
-0.00422941 -0.00582045 -0.00785239
-0.00422632 -0.00582224 -0.00785953
-0.00422357 -0.00582404 -0.00786602
-0.00421901 -0.00582565 -0.00787386
-0.00421427 -0.0058271 -0.00788316
-0.00421138 -0.00582846 -0.00789215
-0.00420958 -0.0058298 -0.00789893
-0.00420755 -0.00583094 -0.00790301
-0.00420607 -0.00583183 -0.00790557
-0.00420602 -0.00583257 -0.00790818
-0.00420622 -0.00583318 -0.0079114
-0.00420654 -0.00583362 -0.00791441
-0.0042072 -0.00583395 -0.00791483
-0.00420818 -0.00583392 -0.00791093
-0.0042093 -0.0058338 -0.00790357
-0.00421054 -0.00583348 -0.00789392
-0.00421206 -0.00583291 -0.00788349
-0.00421372 -0.00583231 -0.00787075
-0.00421523 -0.00583177 -0.00785629
-0.0042165 -0.00583108 -0.00784139
-0.00421753 -0.00583017 -0.00782613
-0.0042184 -0.00582914 -0.00781047
-0.00421903 -0.00582756 -0.00779434
-0.00421936 -0.00582522 -0.0077787
-0.00421931 -0.00582198 -0.00773151
-0.00421901 -0.00581806 -0.00763809
-0.00421865 -0.00578867 -0.00762156
-0.00421856 -0.00576525 -0.00762297
-0.0042185 -0.00576205 -0.00762437
-0.00421829 -0.0057625 -0.00762346
-0.00421802 -0.00576283 -0.00760929
-0.00421776 -0.00576224 -0.00756916
-0.00421744 -0.00575723 -0.00754784
-0.00421723 -0.00575846 -0.00754306
-0.00421704 -0.00575917 -0.0075432
-0.0042167 -0.00575863 -0.00753556
-0.00421654 -0.00575838 -0.00750766
-0.00421651 -0.00575885 -0.0074704
-0.00421648 -0.00575904 -0.00744515
-0.0042166 -0.00575858 -0.00743746
-0.0042169 -0.00575827 -0.00743747
-0.00421732 -0.0057583 -0.00743283
-0.00421791 -0.00575807 -0.00741395
-0.00421864 -0.00575752 -0.00738784
-0.00421949 -0.00575556 -0.00736596
-0.00422074 -0.00574914 -0.00735626
-0.00422212 -0.0057404 -0.00735559
-0.00422357 -0.00573235 -0.00735556
-0.0042252 -0.00573178 -0.00734793
-0.00422698 -0.00573276 -0.00733266
-0.00422866 -0.00573306 -0.0073177
-0.00423003 -0.00573248 -0.007311
-0.00423139 -0.00573194 -0.00731117
-0.0042327 -0.00573174 -0.00731155
-0.00423381 -0.00573166 -0.00731156
-0.00423473 -0.00572887 -0.00731119
-0.00423549 -0.00572528 -0.00730968
-0.00423589 -0.00572483 -0.00730901
-0.00423588 -0.00572498 -0.00730954
-0.00423544 -0.00572516 -0.00731289
-0.00423457 -0.00572551 -0.0073202
-0.00423322 -0.00572614 -0.0073317
-0.00423152 -0.00572693 -0.00735633
-0.00422954 -0.0057273 -0.00737334
-0.00422718 -0.00572711 -0.00738065
-0.00422445 -0.00572677 -0.00738531
-0.00422179 -0.00572664 -0.00739688
-0.00421991 -0.00572715 -0.00741502
-0.00421894 -0.00572806 -0.00743039
-0.00421843 -0.00572902 -0.00744
-0.00421769 -0.00572992 -0.0074488
-0.00421651 -0.00573085 -0.00746075
-0.00421161 -0.00573208 -0.00747621
-0.00420766 -0.00573362 -0.00749174
-0.00420311 -0.005735 -0.00750328
-0.00419991 -0.00573621 -0.0075105
-0.00419909 -0.00573733 -0.00751644
-0.00419662 -0.00573828 -0.00752461
-0.00419685 -0.00573949 -0.00753553
-0.0041969 -0.00574047 -0.00754718
-0.00419696 -0.00574109 -0.0075564
-0.00419715 -0.00574168 -0.00756218
-0.00419739 -0.00574231 -0.00756596
-0.00419752 -0.00574284 -0.0075703
-0.00419754 -0.00574321 -0.00757644
-0.00419756 -0.00574358 -0.0075834
-0.0041975 -0.00574396 -0.0075891
-0.00419732 -0.00574403 -0.0075923
-0.00419701 -0.00574323 -0.00759341
-0.00419603 -0.00574147 -0.00759415
-0.00418952 -0.00573934 -0.00759565
-0.00418338 -0.00573894 -0.00759793
-0.00417991 -0.00573945 -0.00759908
-0.00417667 -0.00573989 -0.00759757
-0.00417176 -0.00573989 -0.00759353
-0.00416765 -0.00573976 -0.00758748
-0.00416599 -0.00573971 -0.00757978
-0.00416503 -0.00573946 -0.00756913
-0.00416265 -0.00573893 -0.00755628
-0.00416283 -0.00573823 -0.00754139
-0.00416313 -0.0057375 -0.00752458
-0.00416327 -0.0057338 -0.00750587
-0.00416363 -0.00571868 -0.00741781
-0.00416403 -0.00570342 -0.00728267
-0.00416432 -0.00569218 -0.00723342
-0.0041647 -0.00568314 -0.00723352
-0.00416504 -0.00566993 -0.00723672
-0.00416536 -0.00565548 -0.00723705
-0.00416573 -0.00564274 -0.00723339
-0.00416599 -0.00563158 -0.00719052
-0.00416611 -0.00562096 -0.00715521
-0.00416626 -0.00561058 -0.00715174
-0.00416628 -0.00560162 -0.00715266
-0.00416622 -0.00559405 -0.00715201
-0.0041661 -0.0055869 -0.0071242
-0.00416591 -0.00558009 -0.00707779
-0.00416562 -0.00557446 -0.00704307
-0.00416528 -0.00557038 -0.00703032
-0.00416488 -0.00556736 -0.00702926
-0.00416443 -0.0055642 -0.00702036
-0.00416395 -0.00556126 -0.00699355
-0.00416344 -0.00555936 -0.0069559
-0.00416289 -0.00555833 -0.00692347
-0.00415972 -0.00555786 -0.00690603
-0.00415327 -0.00555778 -0.0068991
-0.00414712 -0.0055578 -0.0068898
-0.00414183 -0.0055578 -0.00686931
-0.00413706 -0.00555754 -0.00684022
-0.00413578 -0.00555643 -0.00681141
-0.00413635 -0.00555451 -0.00676266
-0.00413758 -0.00555207 -0.00675402
-0.00413951 -0.00554962 -0.00675551
-0.00414189 -0.00554557 -0.00675522
-0.00414314 -0.00554041 -0.00673906
-0.00414381 -0.00553594 -0.00670186
-0.00414507 -0.00553323 -0.00668292
-0.00414674 -0.00552964 -0.00668255
-0.0041484 -0.00553011 -0.00668278
-0.00415063 -0.00553165 -0.00667787
-0.00415329 -0.00553425 -0.00665617
-0.00415594 -0.00553696 -0.00664023
-0.00415838 -0.00553775 -0.0066372
-0.0041607 -0.00553772 -0.00663799
-0.00416319 -0.00553787 -0.00663855
-0.00416568 -0.00553842 -0.00663846
-0.00416787 -0.00553899 -0.00663848
-0.00417039 -0.00553924 -0.00663978
-0.00417278 -0.00553961 -0.00664449
-0.00417451 -0.00554023 -0.00665347
-0.00417626 -0.00554105 -0.00666686
-0.00417797 -0.00554198 -0.00668461
-0.00417913 -0.00554309 -0.00672655
-0.00418017 -0.00554413 -0.00675537
-0.00418137 -0.00554573 -0.0067666
-0.00418212 -0.00554803 -0.00677473
-0.00418258 -0.00555097 -0.00679573
-0.00418295 -0.00555412 -0.00682898
-0.0041832 -0.00555735 -0.00686208
-0.00418311 -0.00556083 -0.00688611
-0.00418298 -0.00556457 -0.00690335
-0.0041832 -0.00556867 -0.00691753
-0.00418288 -0.00557261 -0.00693884
-0.00418268 -0.00557682 -0.00696987
-0.00418277 -0.00558128 -0.00700884
-0.00418278 -0.00558533 -0.00704047
-0.0041827 -0.005589 -0.00705793
-0.00418282 -0.00559353 -0.00706581
-0.00418324 -0.00559713 -0.00707616
-0.0041842 -0.0055979 -0.00709753
-0.00418526 -0.00560019 -0.00712693
-0.00418621 -0.00560617 -0.00715296
-0.00418772 -0.00561067 -0.00716956
-0.00418991 -0.00561208 -0.00717741
-0.00419223 -0.0056122 -0.00718327
-0.00419459 -0.00561323 -0.00719439
-0.0041972 -0.00561608 -0.00721211
-0.00420031 -0.00561906 -0.00723095
-0.00420376 -0.00562046 -0.00724368
-0.00420733 -0.00562089 -0.00724901
-0.00421105 -0.00562107 -0.00725239
-0.00421498 -0.005622 -0.00725852
-0.00421913 -0.00562361 -0.00726891
-0.00422329 -0.00562468 -0.00728075
-0.00422744 -0.00562488 -0.00728963
-0.00423159 -0.00562484 -0.00729437
-0.00423581 -0.00562514 -0.00729788
-0.00423999 -0.00562618 -0.00730372
-0.004244 -0.00562749 -0.007313
-0.0042476 -0.00562861 -0.00732388
-0.00425155 -0.00562968 -0.00733362
-0.00425554 -0.00563041 -0.00734231
-0.00425915 -0.00565173 -0.00735191
-0.00426405 -0.00568455 -0.00736174
-0.00427565 -0.00571721 -0.00737294
-0.00429501 -0.00575236 -0.00738526
-0.00431443 -0.0057829 -0.00740029
-0.00433204 -0.00581063 -0.00741567
-0.0043476 -0.00583785 -0.00743097
-0.00436148 -0.00586467 -0.00744594
-0.00437371 -0.00588968 -0.00746218
-0.00438392 -0.00591193 -0.00748048
-0.00439229 -0.00593162 -0.00750033
-0.00439926 -0.00594959 -0.00752058
-0.00440462 -0.00596704 -0.0075399
-0.00440872 -0.00598334 -0.00755882
-0.00441178 -0.0059975 -0.00757909
-0.00441378 -0.00601136 -0.00769014
-0.00441506 -0.00602488 -0.0078267
-0.00441574 -0.00603835 -0.00796141
-0.00441595 -0.00605076 -0.00809135
-0.00441573 -0.00606203 -0.00821345
-0.00441516 -0.00607334 -0.00832527
-0.00441422 -0.00608534 -0.00842781
-0.00441272 -0.00609807 -0.00852125
-0.00441063 -0.00611099 -0.008604
-0.00440797 -0.00612405 -0.00867471
-0.00440489 -0.00613701 -0.00894799
-0.00440146 -0.00614981 -0.00931224
-0.00439765 -0.00616215 -0.0095857
-0.00439333 -0.00617329 -0.00978085
-0.00438887 -0.00618233 -0.00989803
-0.00438419 -0.00618898 -0.00993922
-0.00438002 -0.00619395 -0.00993567
-0.00437587 -0.00619653 -0.00992888
-0.00437142 -0.00619606 -0.00991982
-0.00436633 -0.00619341 -0.00990774
-0.00436037 -0.0061895 -0.00989217
-0.00435366 -0.00618426 -0.00987621
-0.00434632 -0.0061776 -0.00985925
-0.00433806 -0.00616944 -0.00984113
-0.00432915 -0.00615905 -0.00982282
-0.00432002 -0.00614688 -0.00980458
-0.00431106 -0.00613363 -0.00978463
-0.00430176 -0.00611911 -0.00976268
-0.00429202 -0.00610304 -0.00973962
-0.00428197 -0.00608511 -0.00971616
-0.00427164 -0.0060658 -0.00969181
-0.00426116 -0.00604592 -0.0096656
-0.00425162 -0.00602608 -0.0096369
-0.00424407 -0.0060063 -0.00960622
-0.00423938 -0.00598655 -0.00957429
-0.00423666 -0.00596695 -0.00954125
-0.00423481 -0.00594809 -0.00950654
-0.00423315 -0.00593211 -0.00947047
-0.00423206 -0.00591726 -0.00943366
-0.00423128 -0.00590448 -0.00938089
-0.00423068 -0.00589698 -0.00911874
-0.00423064 -0.00586304 -0.00904855
-0.00423087 -0.0058539 -0.00905119
-0.00423056 -0.0058521 -0.00905614
-0.00423061 -0.00584022 -0.00905724
-0.00423084 -0.00581365 -0.00905296
-0.00423051 -0.00579116 -0.00901785
-0.00422998 -0.00578195 -0.00894817
-0.00422967 -0.00578144 -0.0089355
-0.00422934 -0.00577932 -0.00893711
-0.00422873 -0.00576729 -0.00893755
-0.00422063 -0.00575218 -0.00893007
-0.00421192 -0.00574387 -0.00885549
-0.00420312 -0.00574327 -0.00877957
-0.00419259 -0.00574349 -0.00873279
-0.00415229 -0.00574343 -0.00871808
-0.00411564 -0.00574468 -0.00870547
-0.00411918 -0.0056245 -0.00868261
-0.00411545 -0.00563056 -0.00862922
-0.00410318 -0.00563806 -0.00851385
-0.00410111 -0.00563466 -0.00845484
-0.00408618 -0.0056291 -0.00841115
-0.00406155 -0.00563145 -0.00838336
-0.00405445 -0.00563454 -0.00834886
-0.00404546 -0.00563251 -0.00830654
-0.0040307 -0.00562956 -0.00824444
-0.00402337 -0.00562974 -0.00817385
-0.00402083 -0.00563052 -0.00811666
-0.0040171 -0.0056291 -0.00785388
-0.00401575 -0.00562729 -0.00779911
-0.00401685 -0.00562731 -0.00780851
-0.00401668 -0.00562653 -0.00781245
-0.00401811 -0.00489823 -0.00780426
-0.00404408 -0.00431962 -0.00784562
-0.0039969 -0.00442948 -0.00764925
-0.00401607 -0.00443251 -0.00763488
-0.0040101 -0.00443087 -0.00768685
-0.00389225 -0.00439973 -0.00768844
-0.00304883 -0.00426432 -0.00765359
-0.00314706 -0.0041632 -0.00766309
-0.00314377 -0.00409969 -0.00774588
-0.00312516 -0.00407872 -0.00742668
-0.00306492 -0.00409452 -0.00670286
-0.00293186 -0.00409776 -0.00624241
-0.00286764 -0.00410178 -0.00620817
-0.00280231 -0.00410515 -0.00623406
-0.00276212 -0.00410638 -0.00625552
-0.00276099 -0.00410673 -0.0062527
-0.00277177 -0.00410683 -0.00644877
-0.00277083 -0.00410632 -0.0061724
-0.00276842 -0.00410265 -0.00587773
-0.00276552 -0.00410456 -0.00566282
-0.00276153 -0.00410557 -0.0055767
-0.00275797 -0.00410613 -0.00550357
-0.00275317 -0.00410624 -0.00548514
-0.00275231 -0.00410646 -0.0054897
-0.002755 -0.0041067 -0.00549591
-0.00275327 -0.004107 -0.00549648
-0.0027519 -0.00410737 -0.00549382
-0.00275339 -0.00410751 -0.00549452
-0.00275389 -0.00410751 -0.00549981
-0.00275356 -0.00410751 -0.00550584
-0.0027537 -0.00410751 -0.005509
-0.00275457 -0.00410751 -0.00550989
-0.00275547 -0.00410751 -0.00551178
-0.00275564 -0.00410498 -0.00551576
-0.00275559 -0.00409972 -0.00551946
-0.00275643 -0.00409659 -0.00552147
-0.00275729 -0.00409537 -0.00552273
-0.00275772 -0.00409427 -0.00552509
-0.00275867 -0.00409328 -0.00552911
-0.00275963 -0.00409151 -0.0055329
-0.00276033 -0.00409086 -0.0055352
-0.00276087 -0.00409001 -0.00553652
-0.0027614 -0.00408893 -0.00553808
-0.00276159 -0.00408761 -0.00553992
-0.00276145 -0.00408612 -0.00554125
-0.00276116 -0.00408458 -0.00554154
-0.00276076 -0.00408312 -0.0055412
-0.0027603 -0.00408191 -0.00554105
-0.00275988 -0.00408109 -0.00554147
-0.0027595 -0.0040794 -0.00554214
-0.00275848 -0.00408234 -0.00554197
-0.00275986 -0.00408594 -0.00554316
-0.0027586 -0.00408904 -0.00554407
-0.00275652 -0.0040887 -0.0055437
-0.00275639 -0.00408675 -0.00554255
-0.00275535 -0.00408804 -0.00554091
-0.00275482 -0.00409086 -0.00553995
-0.00275527 -0.00409371 -0.0055393
-0.0027526 -0.00409417 -0.0055382
-0.00273902 -0.0040934 -0.00553676
-0.00274097 -0.00409413 -0.0055356
-0.00274091 -0.00409551 -0.00553515
-0.00273924 -0.00409684 -0.00553565
-0.00273789 -0.00409742 -0.00553876
-0.00273527 -0.00409782 -0.00554448
-0.00273462 -0.00409864 -0.00555189
-0.00273469 -0.00409982 -0.00558266
-0.0027319 -0.00410096 -0.00563801
-0.00272435 -0.00410172 -0.00569414
-0.00271774 -0.0041023 -0.00574934
-0.00271688 -0.00410278 -0.00579732
-0.00271687 -0.00410301 -0.00583276
-0.00271571 -0.00410316 -0.00584256
-0.0027134 -0.00410332 -0.00584238
-0.0027107 -0.0041035 -0.00584158
-0.00271104 -0.00410372 -0.00584074
-0.00271153 -0.00410397 -0.0058397
-0.00271199 -0.00410423 -0.00583806
-0.00271237 -0.00410463 -0.00583573
-0.00271285 -0.00410543 -0.00583299
-0.00271355 -0.00410636 -0.00583029
-0.00271431 -0.0041069 -0.00582835
-0.00271502 -0.0041058 -0.00582777
-0.00271562 -0.00410552 -0.0058272
-0.00271621 -0.00410743 -0.00582541
-0.00271698 -0.00411769 -0.00582295
-0.00271774 -0.00412587 -0.00582086
-0.00271833 -0.00412731 -0.00581996
-0.00271866 -0.00412628 -0.00582037
-0.00271886 -0.00412561 -0.00582143
-0.00271914 -0.00412591 -0.00582299
-0.00271941 -0.00412667 -0.00582526
-0.00271944 -0.00412693 -0.0058285
-0.00271927 -0.00412635 -0.00583322
-0.00271901 -0.00412527 -0.00583889
-0.00271867 -0.00412429 -0.00584135
-0.00271828 -0.00411971 -0.00584104
-0.00271777 -0.00410902 -0.00584039
-0.00271707 -0.0040936 -0.00583966
-0.00271637 -0.00407519 -0.00583916
-0.00271576 -0.00405647 -0.00583926
-0.00271548 -0.00405508 -0.00583978
-0.00271562 -0.00405576 -0.0058402
-0.00271588 -0.00405608 -0.00584012
-0.00271595 -0.00405614 -0.00583956
-0.0027159 -0.00405626 -0.00583889
-0.00271583 -0.00405644 -0.00583848
-0.00271555 -0.00405668 -0.00583854
-0.00271514 -0.00405704 -0.00583769
-0.00271469 -0.00405781 -0.00583659
-0.00271393 -0.00405898 -0.0058352
-0.00271433 -0.00406064 -0.00583306
-0.00271487 -0.00406628 -0.00583127
-0.0027155 -0.00407418 -0.00582997
-0.00271612 -0.00407538 -0.00582928
-0.00271678 -0.00407449 -0.00582872
-0.00271729 -0.00407506 -0.00582725
-0.00271783 -0.00408206 -0.005825
-0.00271844 -0.00408938 -0.0058229
-0.00271895 -0.00409045 -0.00582143
-0.0027193 -0.00408915 -0.00582054
-0.00271944 -0.00408789 -0.00581975
-0.00271956 -0.00408762 -0.00581877
-0.00271971 -0.00408764 -0.00581779
-0.00271963 -0.00408691 -0.0058172
-0.00271936 -0.0040839 -0.0058173
-0.00271905 -0.0040642 -0.00581838
-0.00271868 -0.00404402 -0.00581988
-0.00271819 -0.00402435 -0.0058215
-0.00271762 -0.00400495 -0.00582331
-0.00271714 -0.00400509 -0.00582639
-0.00271684 -0.00400539 -0.00582952
-0.00271647 -0.00400598 -0.00583229
-0.00271607 -0.00400664 -0.00583424
-0.00271566 -0.00400732 -0.00583477
-0.00271524 -0.00400779 -0.00583415
-0.00271489 -0.0040079 -0.00583316
-0.00271458 -0.00400799 -0.00583222
-0.00271436 -0.00400813 -0.00583128
-0.00271417 -0.00400833 -0.00582991
-0.00271401 -0.00400859 -0.00582764
-0.00271396 -0.0040089 -0.00582437
-0.00271399 -0.00400925 -0.00582055
-0.00271404 -0.00400959 -0.00581634
-0.00271409 -0.00400992 -0.00581172
