-6.81312e-06 -1.63099e-05 -7.11685e-07 7.15372e-06 1.63292e-05 6.62914e-07
-7.02522e-06 -1.6292e-05 -7.12629e-07 6.93393e-06 1.63503e-05 6.61271e-07
-7.49627e-06 -1.62535e-05 -7.14623e-07 6.45008e-06 1.63914e-05 6.59395e-07
-8.45138e-06 -1.61851e-05 -7.16684e-07 5.46696e-06 1.64656e-05 6.56212e-07
-9.51557e-06 -1.61221e-05 -7.17426e-07 4.37198e-06 1.65339e-05 6.55002e-07
-1.08565e-05 -1.60617e-05 -7.15992e-07 2.99249e-06 1.66007e-05 6.55651e-07
-1.24812e-05 -1.60148e-05 -7.11029e-07 1.32155e-06 1.6654e-05 6.59963e-07
-1.43952e-05 -1.59942e-05 -7.0096e-07 -6.46193e-07 1.66801e-05 6.69406e-07
-1.66048e-05 -1.60144e-05 -6.8437e-07 -2.91699e-06 1.66638e-05 6.85623e-07
-1.91162e-05 -1.60915e-05 -6.59896e-07 -5.49659e-06 1.65887e-05 7.10154e-07
-2.19308e-05 -1.62426e-05 -6.26211e-07 -8.38632e-06 1.64366e-05 7.44409e-07
-2.50366e-05 -1.64867e-05 -5.82107e-07 -1.15732e-05 1.61876e-05 7.89666e-07
-2.83984e-05 -1.68446e-05 -5.26692e-07 -1.50125e-05 1.5823e-05 8.46672e-07
-3.19448e-05 -1.73366e-05 -4.59876e-07 -1.86281e-05 1.53173e-05 9.16096e-07
-3.55774e-05 -1.79904e-05 -3.81242e-07 -2.23298e-05 1.46424e-05 9.97899e-07
-3.9161e-05 -1.8831e-05 -2.91819e-07 -2.59763e-05 1.37717e-05 1.09276e-06
-4.25373e-05 -1.98799e-05 -1.9318e-07 -2.94034e-05 1.26834e-05 1.1979e-06
-4.55385e-05 -2.11529e-05 -8.84815e-08 -3.24406e-05 1.13587e-05 1.31033e-06
-4.80065e-05 -2.26581e-05 1.75128e-08 -3.4926e-05 9.78861e-06 1.42557e-06
-4.97998e-05 -2.43928e-05 1.19535e-07 -3.67145e-05 7.9762e-06 1.53755e-06
-5.07917e-05 -2.63425e-05 2.07659e-07 -3.76767e-05 5.93623e-06 1.63767e-06
-5.08549e-05 -2.84823e-05 2.72464e-07 -3.76832e-05 3.69424e-06 1.71571e-06
-4.98492e-05 -3.07778e-05 3.02746e-07 -3.65911e-05 1.28593e-06 1.76013e-06
-4.76099e-05 -3.3185e-05 2.86099e-07 -3.42332e-05 -1.24347e-06 1.75824e-06
-4.39507e-05 -3.5651e-05 2.08847e-07 -3.04207e-05 -3.83743e-06 1.69634e-06
-3.86926e-05 -3.81086e-05 5.68742e-08 -2.4974e-05 -6.4109e-06 1.56462e-06
-3.17371e-05 -4.04729e-05 -1.80662e-07 -1.7793e-05 -8.89936e-06 1.33657e-06
-2.31596e-05 -4.26381e-05 -5.24621e-07 -8.95842e-06 -1.11796e-05 1.00361e-06
-1.32821e-05 -4.44665e-05 -9.9028e-07 1.1979e-06 -1.311e-05 5.4642e-07
-2.63551e-06 -4.58017e-05 -1.5922e-06 1.21282e-05 -1.45248e-05 -4.81568e-08
8.16543e-06 -4.64862e-05 -2.3387e-06 2.32008e-05 -1.52596e-05 -7.91787e-07
1.85454e-05 -4.63756e-05 -3.24013e-06 3.38573e-05 -1.51556e-05 -1.696e-06
2.79926e-05 -4.53613e-05 -4.29684e-06 4.35446e-05 -1.41038e-05 -2.76028e-06
3.61137e-05 -4.33744e-05 -5.50129e-06 5.18517e-05 -1.20298e-05 -3.98258e-06
4.26635e-05 -4.03879e-05 -6.83907e-06 5.85192e-05 -8.91152e-06 -5.34355e-06
4.75703e-05 -3.64134e-05 -8.28652e-06 6.34598e-05 -4.76574e-06 -6.8204e-06
5.09011e-05 -3.15146e-05 -9.81103e-06 6.67298e-05 3.47779e-07 -8.38202e-06
5.2742e-05 -2.58117e-05 -1.13767e-05 6.84646e-05 6.30806e-06 -9.9886e-06
5.33017e-05 -1.94304e-05 -1.2938e-05 6.88632e-05 1.29878e-05 -1.15914e-05
5.28147e-05 -1.25271e-05 -1.44442e-05 6.81697e-05 2.0224e-05 -1.31495e-05
5.15304e-05 -5.29883e-06 -1.58472e-05 6.66519e-05 2.78088e-05 -1.45999e-05
4.96777e-05 2.06702e-06 -1.70943e-05 6.45499e-05 3.55339e-05 -1.58987e-05
4.74179e-05 9.37935e-06 -1.81353e-05 6.20303e-05 4.32035e-05 -1.69884e-05
4.48241e-05 1.6454e-05 -1.89215e-05 5.91751e-05 5.06246e-05 -1.78202e-05
4.19245e-05 2.31158e-05 -1.94079e-05 5.60198e-05 5.76135e-05 -1.83481e-05
3.87945e-05 2.91988e-05 -1.95524e-05 5.26462e-05 6.39914e-05 -1.85308e-05
3.56457e-05 3.45702e-05 -1.93218e-05 4.92792e-05 6.95883e-05 -1.83291e-05
3.28766e-05 3.90135e-05 -1.86855e-05 4.63275e-05 7.42208e-05 -1.77189e-05
3.10446e-05 4.23831e-05 -1.76286e-05 4.43649e-05 7.77262e-05 -1.66769e-05
3.08438e-05 4.45499e-05 -1.6139e-05 4.41063e-05 7.99621e-05 -1.5193e-05
3.41015e-05 4.54171e-05 -1.36724e-05 4.74279e-05 8.08172e-05 -1.27178e-05
4.27312e-05 4.41635e-05 -1.05651e-05 5.63087e-05 7.94403e-05 -9.58367e-06
5.80084e-05 4.08742e-05 -6.88081e-06 7.20527e-05 7.59159e-05 -5.85548e-06
8.05645e-05 3.58405e-05 -2.71791e-06 9.53012e-05 7.05457e-05 -1.63423e-06
0.000110194 2.95671e-05 1.84241e-06 0.000125833 6.3858e-05 2.99168e-06
0.000145773 2.27618e-05 6.60999e-06 0.000162476 5.66008e-05 7.86865e-06
0.000185262 1.63005e-05 1.13904e-05 0.000203123 4.97002e-05 1.2722e-05
0.000225896 1.11435e-05 1.60077e-05 0.000244919 4.41558e-05 1.7425e-05
0.000264707 8.22473e-06 2.0298e-05 0.000284797 4.09588e-05 2.17617e-05
0.000299176 8.33279e-06 2.41171e-05 0.000320155 4.09369e-05 2.56163e-05
0.000327659 1.20198e-05 2.73668e-05 0.000349289 4.46679e-05 2.88736e-05
0.000349408 1.95623e-05 3.00024e-05 0.000371423 5.2444e-05 3.14916e-05
0.000364409 3.09598e-05 3.20302e-05 0.000386537 6.42645e-05 3.34674e-05
0.000373202 4.5954e-05 3.35027e-05 0.000395192 7.98603e-05 3.48601e-05
0.000376646 6.40667e-05 3.45166e-05 0.000398276 9.87273e-05 3.57728e-05
0.000375642 8.46492e-05 3.52088e-05 0.000396731 0.000120187 3.63466e-05
0.000371095 0.000106921 3.57459e-05 0.000391505 0.000143422 3.6752e-05
0.000364116 0.000129991 3.63126e-05 0.000383763 0.000167497 3.71803e-05
0.000356186 0.00015289 3.71008e-05 0.000375048 0.000191392 3.78332e-05
0.000349051 0.000174627 3.82992e-05 0.000367175 0.000214069 3.89073e-05
0.000344408 0.000194278 4.00786e-05 0.00036191 0.000234558 4.05796e-05
0.000343487 0.000211066 4.2578e-05 0.000360537 0.000252045 4.2994e-05
0.000346818 0.000224429 4.58936e-05 0.000363616 0.000265941 4.62516e-05
0.000354413 0.000234019 5.00741e-05 0.000371175 0.000275879 5.04044e-05
0.000366042 0.000239694 5.51195e-05 0.000382979 0.000281712 5.54532e-05
0.000381315 0.000241507 6.09804e-05 0.000398629 0.000283498 6.13474e-05
0.000399723 0.000239701 6.75599e-05 0.000417596 0.000281491 6.79876e-05
0.000420667 0.000234685 7.47176e-05 0.000439256 0.000276121 7.52305e-05
0.000443504 0.000227008 8.22772e-05 0.00046293 0.000267966 8.28953e-05
0.00046754 0.000217337 9.00338e-05 0.000487891 0.000257724 9.07713e-05
0.000492013 0.000206417 9.77634e-05 0.000513335 0.000246178 9.86281e-05
0.000516132 0.000195039 0.000105233 0.000538427 0.000234158 0.000106226
0.000539188 0.000183989 0.000112213 0.00056242 0.00022249 0.000113329
0.00056069 0.000174003 0.000118485 0.000584788 0.000211943 0.000119713
0.000580385 0.000165731 0.000123856 0.000605255 0.000203198 0.000125179
0.000598127 0.000159725 0.000128162 0.000623652 0.000196836 0.000129558
0.000613574 0.000156442 0.000131275 0.000639617 0.000193337 0.000132718
0.000625955 0.000156248 0.000133109 0.00065235 0.000193085 0.00013457
0.000634106 0.000159388 0.000133623 0.000660651 0.00019634 0.000135071
0.000636792 0.000165937 0.000132828 0.000663252 0.000203184 0.000134231
0.000634327 0.000173549 0.000131292 0.000660532 0.000211156 0.000132637
0.000624986 0.000185737 0.00012834 0.000650635 0.000223941 0.000129587
0.000608667 0.000200361 0.000124395 0.000633507 0.000239295 0.00012552
0.000585895 0.000216641 0.000119657 0.000609707 0.000256404 0.000120643
0.000557545 0.000233637 0.000114363 0.000580154 0.00027428 0.000115199
0.000524624 0.00025031 0.000108765 0.000545913 0.000291835 0.00010945
0.000488231 0.000265574 0.000103123 0.00050814 0.000307928 0.000103665
0.000449471 0.000278355 9.76882e-05 0.000468 0.000321434 9.81032e-05
0.000409362 0.000287652 9.26893e-05 0.000426566 0.0003313 9.30006e-05
0.00036882 0.000292578 8.83197e-05 0.000384803 0.0003366 8.8558e-05
0.000328637 0.000292411 8.47273e-05 0.000343547 0.000336573 8.49286e-05
0.000289419 0.000286627 8.20052e-05 0.000303435 0.000330672 8.22097e-05
0.000251642 0.000274921 8.01866e-05 0.000264965 0.000318576 8.04367e-05
0.000215858 0.000257204 7.92421e-05 0.000228709 0.000300191 7.95809e-05
0.000182903 0.000233593 7.90803e-05 0.000195519 0.000275639 7.95497e-05
0.000153752 0.000204428 7.95479e-05 0.000166386 0.000245275 8.01871e-05
0.000129066 0.00017031 8.04327e-05 0.000141969 0.000209731 8.12757e-05
0.000109007 0.000132098 8.14708e-05 0.000122411 0.000169908 8.25447e-05
9.33595e-05 9.08728e-05 8.23575e-05 0.000107459 0.000126937 8.36809e-05
8.16284e-05 4.78788e-05 8.27613e-05 9.6573e-05 8.21227e-05 8.4343e-05
7.30763e-05 4.47535e-06 8.23401e-05 8.8956e-05 3.68914e-05 8.41781e-05
6.6691e-05 -3.79199e-05 8.0758e-05 8.35311e-05 -7.27135e-06 8.28388e-05
6.12902e-05 -7.78178e-05 7.76924e-05 7.88731e-05 -4.88626e-05 8.00002e-05
5.49811e-05 -0.000113705 7.29063e-05 7.33536e-05 -8.6344e-05 7.53812e-05
4.57915e-05 -0.000144524 6.61804e-05 6.47715e-05 -0.000118288 6.87972e-05
3.19953e-05 -0.000169367 5.73574e-05 5.12697e-05 -0.000144041 6.00635e-05
1.27089e-05 -0.000187682 4.63985e-05 3.19902e-05 -0.000162871 4.9127e-05
-1.19296e-05 -0.000199245 3.33327e-05 7.04272e-06 -0.000174681 3.60444e-05
-4.11462e-05 -0.000204206 1.83008e-05 -2.2786e-05 -0.000179539 2.09324e-05
-7.40992e-05 -0.000202986 1.53778e-06 -5.66056e-05 -0.00017793 4.05055e-06
-0.000110259 -0.000196258 -1.63339e-05 -9.38596e-05 -0.000170575 -1.40861e-05
-0.000149457 -0.000184861 -3.53223e-05 -0.000134354 -0.000158334 -3.31264e-05
-0.000191561 -0.000169838 -5.49294e-05 -0.000177917 -0.000142291 -5.29609e-05
-0.00023624 -0.000152392 -7.47e-05 -0.000224178 -0.000123716 -7.2941e-05
-0.000283041 -0.000133851 -9.41645e-05 -0.000272635 -0.000104012 -9.26298e-05
-0.000331538 -0.000115594 -0.000112858 -0.000322814 -8.45911e-05 -0.000111535
-0.000381353 -9.89812e-05 -0.000130303 -0.000374282 -6.68993e-05 -0.000129152
-0.000432059 -8.53246e-05 -0.000146049 -0.000426567 -5.23041e-05 -0.000145067
-0.000483046 -7.58457e-05 -0.000159711 -0.000479008 -4.20798e-05 -0.000158866
-0.000533291 -7.16405e-05 -0.000170973 -0.000530523 -3.7379e-05 -0.000170214
-0.000581197 -7.36435e-05 -0.000179582 -0.000579453 -3.91831e-05 -0.000178857
-0.000624718 -8.25679e-05 -0.000185375 -0.000623688 -4.82446e-05 -0.00018463
-0.0006618 -9.88191e-05 -0.000188292 -0.000661119 -6.49878e-05 -0.000187476
-0.000690846 -0.000122415 -0.000188389 -0.000690113 -8.94348e-05 -0.000187444
-0.000710972 -0.00015295 -0.000185832 -0.000709782 -0.000121164 -0.000184699
-0.000722149 -0.00018959 -0.000180887 -0.000720123 -0.000159303 -0.000179519
-0.000725161 -0.000231112 -0.00017392 -0.000721973 -0.000202569 -0.000172278
-0.000721477 -0.000275967 -0.000165374 -0.000716882 -0.000249339 -0.00016343
-0.000713119 -0.000322366 -0.00015575 -0.000706967 -0.000297739 -0.000153487
-0.000702397 -0.000368395 -0.000145578 -0.000694646 -0.000345764 -0.000142993
-0.000691577 -0.000412138 -0.000135392 -0.00068229 -0.000391408 -0.000132499
-0.000682652 -0.000451787 -0.000125702 -0.000671988 -0.000432778 -0.000122527
-0.000677299 -0.000485735 -0.000116973 -0.000665499 -0.000468196 -0.000113557
-0.000676841 -0.000512656 -0.000109604 -0.000664214 -0.000496272 -0.000105993
-0.00068033 -0.000530975 -0.000103977 -0.000668728 -0.000515814 -0.000100171
-0.000682464 -0.000537564 -0.000100424 -0.000677825 -0.000525368 -9.64099e-05
-0.000691937 -0.000535939 -9.87338e-05 -0.000693881 -0.00052617 -9.46781e-05
-0.000710669 -0.000528253 -9.88709e-05 -0.000715664 -0.000518834 -9.47895e-05
-0.000735664 -0.000513273 -0.000100795 -0.000743139 -0.000503616 -9.67797e-05
-0.000826831 -0.000491958 -0.000104294 -0.00103266 -0.000483293 -0.000100198
-0.00164804 -0.000468303 -0.000108884 -0.00192286 -0.000458343 -0.00010526
-0.00263466 -0.000439782 -0.000114746 -0.00293345 -0.000429174 -0.000110995
-0.00374488 -0.0004076 -0.000121278 -0.00408613 -0.000396106 -0.000117896
-0.00496627 -0.000373236 -0.000128257 -0.00535162 -0.00036086 -0.000124985
-0.00626061 -0.000338059 -0.000135238 -0.00668877 -0.000324581 -0.000132194
-0.00757449 -0.000303194 -0.000141844 -0.00804944 -0.000288779 -0.000139016
-0.00885606 -0.000270092 -0.000147701 -0.00937586 -0.000254788 -0.000145083
-0.0100583 -0.000240019 -0.000152474 -0.0106186 -0.000223908 -0.000150015
-0.0111473 -0.000214054 -0.000155845 -0.0117448 -0.000197279 -0.00015352
-0.0121068 -0.000193191 -0.000157544 -0.0127358 -0.00017591 -0.000155338
-0.0129298 -0.000178181 -0.000157391 -0.0135834 -0.000160596 -0.000155267
-0.0136112 -0.000169548 -0.000155288 -0.0142826 -0.000151886 -0.000153192
-0.0141436 -0.000167604 -0.000151198 -0.0148255 -0.000150078 -0.000149081
-0.0145166 -0.00017239 -0.000145163 -0.015201 -0.000155221 -0.000142988
-0.0147177 -0.000183688 -0.000137314 -0.015397 -0.000167097 -0.000135047
-0.0147504 -0.000201153 -0.000127864 -0.0154227 -0.000185381 -0.000125453
-0.0147419 -0.000224576 -0.000117075 -0.0154132 -0.000209939 -0.00011447
-0.0147254 -0.000253019 -0.000105305 -0.0153955 -0.000239752 -0.000102466
-0.0147018 -0.000285139 -9.29708e-05 -0.0153704 -0.000273391 -8.98865e-05
-0.0146724 -0.000319326 -8.05517e-05 -0.0153393 -0.000309223 -7.71958e-05
-0.0146461 -0.000346995 -7.08893e-05 -0.0153116 -0.000338222 -6.73138e-05
-0.0146184 -0.000373946 -6.17455e-05 -0.0152825 -0.000366466 -5.79528e-05
-0.0145904 -0.000399261 -5.33627e-05 -0.0152531 -0.000392995 -4.93679e-05
-0.014563 -0.000422071 -4.59688e-05 -0.0152245 -0.000416905 -4.17938e-05
-0.0145372 -0.000441585 -3.97703e-05 -0.0151975 -0.000437367 -3.54406e-05
-0.0145137 -0.000457116 -3.49429e-05 -0.0151731 -0.000453661 -3.04874e-05
-0.0144931 -0.000468107 -3.16241e-05 -0.0151516 -0.000465203 -2.70764e-05
-0.0144756 -0.000474154 -2.99083e-05 -0.0151336 -0.000471574 -2.53076e-05
-0.0144611 -0.000475019 -2.98468e-05 -0.0151188 -0.000472526 -2.52347e-05
-0.0144493 -0.000470635 -3.14465e-05 -0.0151068 -0.000467993 -2.68642e-05
-0.0144395 -0.000461098 -3.46702e-05 -0.0150971 -0.000458077 -3.01561e-05
-0.0144308 -0.000446646 -3.94365e-05 -0.0150887 -0.000443025 -3.5027e-05
-0.0144227 -0.000427628 -4.56241e-05 -0.015081 -0.000423205 -4.13535e-05
-0.0144144 -0.000404481 -5.30766e-05 -0.0150733 -0.000399074 -4.89765e-05
-0.0144059 -0.000377712 -6.16079e-05 -0.0150654 -0.000371162 -5.77054e-05
-0.0143969 -0.000347886 -7.10056e-05 -0.0150571 -0.000340059 -6.73223e-05
-0.0143875 -0.000315626 -8.10352e-05 -0.0150486 -0.000306416 -7.75872e-05
-0.0143776 -0.000281612 -9.14444e-05 -0.0150395 -0.000270944 -8.82426e-05
-0.014367 -0.000246568 -0.000101969 -0.0150297 -0.0002344 -9.90196e-05
-0.0143553 -0.000211239 -0.000112342 -0.0150188 -0.000197562 -0.000109644
-0.0143421 -0.000176363 -0.000122295 -0.0150065 -0.000161203 -0.000119845
-0.0143273 -0.000142651 -0.000131573 -0.0149924 -0.000126065 -0.000129357
-0.0143106 -0.000110761 -0.000139931 -0.0149763 -9.28401e-05 -0.000137934
-0.0142916 -8.12926e-05 -0.000147146 -0.0149578 -6.21537e-05 -0.000145348
-0.0142703 -5.4765e-05 -0.000153022 -0.0149369 -3.45507e-05 -0.000151399
-0.0142464 -3.16042e-05 -0.000157391 -0.0149132 -1.04768e-05 -0.000155916
-0.0142199 -1.21283e-05 -0.00016012 -0.0148867 9.73465e-06 -0.000158763
-0.0141908 3.46179e-06 -0.000161112 -0.0148574 2.58728e-05 -0.000159842
-0.0141593 1.50858e-05 -0.00016031 -0.0148255 3.78534e-05 -0.000159096
-0.0141255 2.27843e-05 -0.000157694 -0.0147912 4.57188e-05 -0.000156504
-0.0140898 2.6715e-05 -0.000153283 -0.0147548 4.96343e-05 -0.000152088
-0.0140527 2.71446e-05 -0.000147135 -0.0147168 4.98795e-05 -0.000145905
-0.0140145 2.44395e-05 -0.00013934 -0.0146777 4.68382e-05 -0.00013805
-0.0139759 1.90525e-05 -0.00013002 -0.0146381 4.09883e-05 -0.000128648
-0.0138689 1.18887e-05 -0.000119351 -0.0144226 3.41858e-05 -0.000117995
-0.0134474 4.09979e-06 -0.000107485 -0.0139731 2.56944e-05 -0.000105972
-0.0130392 -5.15344e-06 -9.4588e-05 -0.0135452 1.63398e-05 -9.30038e-05
-0.0126479 -1.50873e-05 -8.08648e-05 -0.0131299 5.91647e-06 -7.91118e-05
-0.0122738 -2.55185e-05 -6.64408e-05 -0.0127319 -4.83864e-06 -6.45938e-05
-0.0119151 -3.58442e-05 -5.15421e-05 -0.0123505 -1.56128e-05 -4.95877e-05
-0.0115681 -4.55923e-05 -3.63734e-05 -0.0119823 -2.58375e-05 -3.42848e-05
-0.0112292 -5.44223e-05 -2.11345e-05 -0.0116225 -3.5075e-05 -1.89262e-05
-0.0108944 -6.19747e-05 -6.02835e-06 -0.0112664 -4.29481e-05 -3.70037e-06
-0.0105595 -6.78809e-05 9.01465e-06 -0.0109108 -4.90948e-05 1.14088e-05
-0.0102221 -7.17656e-05 2.35172e-05 -0.010553 -5.31293e-05 2.60341e-05
-0.00988145 -7.33637e-05 3.73743e-05 -0.0101918 -5.47128e-05 4.00318e-05
-0.00953834 -7.2398e-05 5.04394e-05 -0.00982842 -5.35596e-05 5.31795e-05
-0.00919484 -6.85944e-05 6.26065e-05 -0.00946487 -4.94978e-05 6.53817e-05
-0.00885348 -6.1911e-05 7.37241e-05 -0.00910387 -4.23862e-05 7.65081e-05
-0.00851641 -5.22787e-05 8.37289e-05 -0.00874764 -3.21692e-05 8.65086e-05
-0.00818484 -3.97014e-05 9.25738e-05 -0.00839758 -1.88648e-05 9.53291e-05
-0.00785888 -2.42612e-05 0.000100233 -0.00805379 -2.56498e-06 0.000102941
-0.00753775 -6.12682e-06 0.000106707 -0.0077154 1.65782e-05 0.000109338
-0.00722046 1.44757e-05 0.00011202 -0.00738136 3.8338e-05 0.000114543
-0.00690661 3.72757e-05 0.000116218 -0.00705122 6.24206e-05 0.000118612
-0.00659691 6.19549e-05 0.000119371 -0.00672568 8.84806e-05 0.000121619
-0.0062933 8.81494e-05 0.000121565 -0.00640673 0.000116136 0.000123655
-0.00599864 0.000115459 0.000122906 -0.00609734 0.000144971 0.000124824
-0.005716 0.000143457 0.00012351 -0.00580074 0.000174538 0.000125246
-0.00544841 0.000171697 0.000123507 -0.00552008 0.000204361 0.000125053
-0.00519886 0.000199719 0.00012303 -0.00525846 0.000233951 0.000124383
-0.00497004 0.000227058 0.000122215 -0.00501869 0.000262814 0.00012338
-0.00476383 0.000253245 0.000121199 -0.00480273 0.000290461 0.000122185
-0.00458109 0.000277827 0.000120118 -0.00461144 0.000316411 0.000120934
-0.00442155 0.000300367 0.000119099 -0.0044445 0.000340205 0.000119759
-0.00428371 0.000320461 0.000118259 -0.00430032 0.000361414 0.000118779
-0.00416471 0.00033774 0.0001177 -0.00417582 0.00037965 0.000118101
-0.00406033 0.000351881 0.000117508 -0.00406652 0.000394579 0.000117815
-0.00396523 0.000362621 0.000117752 -0.00396677 0.000405925 0.000117989
-0.00387351 0.000369764 0.000118477 -0.00387028 0.000413485 0.00011867
-0.00377948 0.000373192 0.000119707 -0.00377103 0.000417137 0.000119884
-0.00367823 0.000372873 0.000121441 -0.00366381 0.000416852 0.000121628
-0.00356543 0.000368859 0.000123653 -0.00354402 0.000412687 0.000123878
-0.00343755 0.000361266 0.000126297 -0.00340742 0.000404784 0.000126584
-0.00329073 0.00035031 0.0001293 -0.00324981 0.000393384 0.000129671
-0.00312162 0.000336306 0.00013257 -0.00306784 0.000378809 0.000133045
-0.00292808 0.000319648 0.000135993 -0.00285945 0.000361471 0.000136589
-0.00270979 0.000300797 0.000139442 -0.0026244 0.000341854 0.000140172
-0.00246852 0.000280279 0.000142776 -0.00236469 0.00032051 0.000143649
-0.00220812 0.000258673 0.000145847 -0.00208457 0.000298043 0.000146867
-0.00193403 0.000236594 0.000148503 -0.00178994 0.00027509 0.00014967
-0.00165225 0.000214664 0.000150592 -0.00148731 0.000252303 0.000151901
-0.00136871 0.000193502 0.000151972 -0.00118308 0.000230326 0.000153413
-0.00108897 0.000173704 0.000152509 -0.000883303 0.000209779 0.000154069
-0.000818262 0.000155824 0.000152087 -0.000593648 0.000191239 0.000153747
-0.000561567 0.000140364 0.000150609 -0.000319492 0.00017523 0.000152347
-0.000323524 0.000127758 0.000148001 -6.58387e-05 0.000162202 0.000149792
-0.000108114 0.000118363 0.000144217 0.000163017 0.000152525 0.000146034
8.18609e-05 0.000112442 0.000139238 0.000364051 0.000146473 0.000141052
0.000245411 0.00011016 0.000133078 0.00053617 0.000144218 0.000134859
0.000383612 0.000111577 0.00012578 0.000680477 0.000145821 0.000127498
0.00049901 0.000116644 0.000117421 0.000821526 0.000151418 0.000119029
0.000591776 0.000125192 0.000108107 0.0010291 0.000161055 0.000109544
0.000670117 0.000136973 9.79596e-05 0.00120016 0.000173884 9.9277e-05
0.000735095 0.000151752 8.71603e-05 0.00133868 0.00018979 8.82547e-05
0.000807188 0.000169268 7.58445e-05 0.00144435 0.000208272 7.67969e-05
0.000888241 0.000188938 6.42674e-05 0.00151151 0.000228928 6.49894e-05
0.00093218 0.000210249 5.2607e-05 0.00154117 0.00025122 5.31215e-05
0.000938525 0.00023267 4.10832e-05 0.00154108 0.000274743 4.13795e-05
0.000935769 0.000255625 2.9917e-05 0.00153799 0.000298939 3.00032e-05
0.000930803 0.000278684 1.93344e-05 0.00153266 0.000323339 1.92043e-05
0.000923479 0.000301412 9.54386e-06 0.00152481 0.000347293 9.20861e-06
0.000913554 0.000323206 7.62898e-07 0.00151424 0.000370238 2.30815e-07
0.00090079 0.000343455 -6.67372e-06 0.00150077 0.000391568 -7.42534e-06
0.000885036 0.000361652 -1.28045e-05 0.00148422 0.000410732 -1.36615e-05
0.000866298 0.000377291 -1.74173e-05 0.00146458 0.000427162 -1.83734e-05
0.000844735 0.00038982 -2.03732e-05 0.00144211 0.00044032 -2.14185e-05
0.000820824 0.000398728 -2.15683e-05 0.00141733 0.000449701 -2.26908e-05
0.000795223 0.000403608 -2.09399e-05 0.00139094 0.000454867 -2.21077e-05
0.000768632 0.000404137 -1.8458e-05 0.00136364 0.000455464 -1.96279e-05
0.000741726 0.00040007 -1.41245e-05 0.00133614 0.000451241 -1.52525e-05
0.000715139 0.000391276 -7.97802e-06 0.00130911 0.000442064 -9.02772e-06
0.000689468 0.000377749 -1.01207e-07 0.00128315 0.000427924 -1.04076e-06
0.000665276 0.000359587 9.56282e-06 0.00125883 0.000408922 8.72608e-06
0.000643091 0.000337037 2.06345e-05 0.00123669 0.000385317 2.00441e-05
0.000623401 0.000310446 3.29548e-05 0.00121723 0.000357467 3.26227e-05
0.000606568 0.000280289 4.62896e-05 0.00120079 0.000325879 4.62257e-05
0.000592719 0.000247161 6.03731e-05 0.0011875 0.000291175 6.05841e-05
0.000581714 0.000211762 7.49057e-05 0.00117719 0.000254096 7.54119e-05
0.000573212 0.000174884 8.95686e-05 0.00116949 0.000215467 9.03942e-05
0.000566715 0.000137376 0.000104038 0.00116386 0.000176178 0.000105197
0.000561588 0.000100124 0.000117995 0.00115964 0.000137158 0.000119483
0.000557091 6.40175e-05 0.000131125 0.00115602 9.93451e-05 0.000132924
0.000552442 2.99204e-05 0.000143123 0.0011522 6.3647e-05 0.000145209
0.0005469 -1.3593e-06 0.000153705 0.00114737 3.091e-05 0.000156053
0.000539823 -2.91015e-05 0.000162618 0.00114088 1.88724e-06 0.000165198
0.000530691 -5.26965e-05 0.000169648 0.00113217 -2.27819e-05 0.000172424
0.000519073 -7.16602e-05 0.000174622 0.00112078 -4.25884e-05 0.000177549
0.000504606 -8.56448e-05 0.000177415 0.00110632 -5.71664e-05 0.000180443
0.000487008 -9.44499e-05 0.000177947 0.00108852 -6.63061e-05 0.000181025
0.000466109 -9.80316e-05 0.000176188 0.00106718 -6.99624e-05 0.000179268
0.000441866 -9.6506e-05 0.000172163 0.00104227 -6.82569e-05 0.000175197
0.000414364 -9.0146e-05 0.000165944 0.00101389 -6.14748e-05 0.000168886
0.000383806 -7.93728e-05 0.000157653 0.000982247 -5.00567e-05 0.000160459
0.000350495 -6.47414e-05 0.000147457 0.000947673 -3.45842e-05 0.000150088
0.000314793 -4.69222e-05 0.000135557 0.000910557 -1.57599e-05 0.000137981
0.000277091 -2.66799e-05 0.000122191 0.000871319 5.61516e-06 0.000124384
0.000237776 -4.85001e-06 0.000107621 0.000830381 2.8666e-05 0.000109566
0.000197225 1.7685e-05 9.21294e-05 0.000788153 5.2468e-05 9.38165e-05
-3.37704e-05 3.8971e-05 7.60997e-05 0.000421692 7.41185e-05 7.76442e-05
-0.000488344 5.89385e-05 5.97531e-05 -7.32286e-05 9.51096e-05 6.08323e-05
-0.000947778 7.71582e-05 4.31842e-05 -0.00057205 0.00011381 4.43047e-05
-0.00140649 9.29056e-05 2.69135e-05 -0.0010688 0.000130447 2.77319e-05
-0.00185828 0.000105754 1.10478e-05 -0.00155687 0.000143749 1.17495e-05
-0.00229648 0.000114949 -3.99776e-06 -0.00202943 0.0001533 -3.49768e-06
-0.00271389 0.000120004 -1.81225e-05 -0.00247825 0.00015857 -1.76935e-05
-0.00310179 0.000120661 -3.12415e-05 -0.00289537 0.00015923 -3.08165e-05
-0.00345027 0.000116767 -4.32017e-05 -0.00327159 0.000155095 -4.28229e-05
-0.00375865 0.000108082 -5.39153e-05 -0.00360407 0.000145829 -5.35391e-05
-0.00402465 9.45076e-05 -6.33157e-05 -0.00388971 0.000131543 -6.29198e-05
-0.00424749 7.64093e-05 -7.13874e-05 -0.00412752 0.000112389 -7.08959e-05
-0.00442732 5.38685e-05 -7.81184e-05 -0.00431856 8.88128e-05 -7.74728e-05
-0.00456591 2.73149e-05 -8.35828e-05 -0.00446464 6.09319e-05 -8.28232e-05
-0.00466539 -2.81921e-06 -8.78619e-05 -0.00456793 2.93643e-05 -8.69386e-05
-0.00472826 -3.59451e-05 -9.10781e-05 -0.00463107 -5.31821e-06 -8.99609e-05
-0.00475765 -7.14017e-05 -9.33801e-05 -0.00465787 -4.23977e-05 -9.20472e-05
-0.0047607 -0.000108466 -9.49275e-05 -0.00465871 -8.11578e-05 -9.33603e-05
-0.0047584 -0.000146393 -9.58917e-05 -0.00465587 -0.00012083 -9.40848e-05
-0.00475466 -0.000184323 -9.64603e-05 -0.00465152 -0.000160509 -9.44204e-05
-0.00475031 -0.000221375 -9.68343e-05 -0.00464656 -0.00019926 -9.45619e-05
-0.00474631 -0.000256666 -9.72071e-05 -0.00464198 -0.000236155 -9.47139e-05
-0.00474375 -0.000289343 -9.77614e-05 -0.00463892 -0.00027031 -9.50606e-05
-0.00474368 -0.000318628 -9.86599e-05 -0.00463848 -0.000300914 -9.57755e-05
-0.00474701 -0.000343854 -0.000100043 -0.0046416 -0.000327271 -9.70042e-05
-0.00475444 -0.000364492 -0.000102024 -0.00464902 -0.00034882 -9.88631e-05
-0.00480729 -0.00038047 -0.000104645 -0.0046712 -0.000365235 -0.000101431
-0.00498899 -0.000391598 -0.000108014 -0.00485663 -0.000377098 -0.000104669
-0.00522325 -0.000397611 -0.000112058 -0.00510692 -0.000383342 -0.000108752
-0.00550883 -0.000398475 -0.000116828 -0.00541336 -0.000384413 -0.000113467
-0.00584171 -0.000394454 -0.000122215 -0.00577107 -0.000380292 -0.000118943
-0.00621575 -0.000385809 -0.000128164 -0.00617365 -0.000371432 -0.000124945
-0.00662385 -0.000372976 -0.000134539 -0.00661384 -0.000358199 -0.000131419
-0.00705939 -0.00035649 -0.000141199 -0.00708421 -0.000341155 -0.000138188
-0.00751605 -0.00033696 -0.00014797 -0.00757792 -0.000320937 -0.000145094
-0.00798752 -0.00031505 -0.000154666 -0.00808835 -0.000298265 -0.000151944
-0.00846722 -0.0002915 -0.000161094 -0.00860831 -0.000273909 -0.000158533
-0.00894823 -0.000267097 -0.000167054 -0.00913008 -0.000248668 -0.000164654
-0.00942393 -0.0002432 -0.000166035 -0.00964499 -0.000225369 -0.000146098
-0.00989942 -0.000216436 -0.000158756 -0.0101177 -0.000215677 -7.20978e-05
-0.0103395 -0.000197349 -0.000139886 -0.0106103 -0.00018494 -9.88209e-05
-0.0107582 -0.000175442 -0.000139989 -0.0110671 -0.000167686 -7.89435e-05
-0.0111505 -0.000156708 -0.000149111 -0.0114839 -0.000148099 -8.32481e-05
-0.0115034 -0.000140812 -0.000158912 -0.0118704 -0.00013247 -7.83037e-05
-0.0118191 -0.000128097 -0.000159411 -0.012203 -0.000121236 -7.75814e-05
-0.0120853 -0.000120409 -0.000151486 -0.012497 -0.000112053 -7.95299e-05
-0.0123052 -0.000116959 -0.000143507 -0.0127343 -0.000107559 -7.9337e-05
-0.0124737 -0.000117531 -0.000140196 -0.0129155 -0.000107627 -7.54153e-05
-0.0125896 -0.000121803 -0.000139373 -0.0130363 -0.000112942 -6.81542e-05
-0.0126525 -0.000130332 -0.00013554 -0.0130993 -0.000122692 -6.03976e-05
-0.0126663 -0.000143386 -0.000126467 -0.0131107 -0.000136211 -5.35135e-05
-0.0126627 -0.000160481 -0.000114741 -0.0131068 -0.000153382 -4.66453e-05
-0.0126555 -0.000180698 -0.000104107 -0.0130992 -0.000174136 -3.83055e-05
-0.0126454 -0.000203302 -9.5615e-05 -0.0130884 -0.000198085 -2.81375e-05
-0.012633 -0.000227857 -8.74995e-05 -0.0130751 -0.000224217 -1.80007e-05
-0.012619 -0.000253931 -7.79713e-05 -0.0130603 -0.000251305 -9.91584e-06
-0.0126041 -0.00028075 -6.73787e-05 -0.0130446 -0.000278643 -3.45911e-06
-0.0125891 -0.000307339 -5.74477e-05 -0.0130289 -0.000305669 2.20485e-06
-0.0125748 -0.000332794 -4.95259e-05 -0.0130138 -0.000331589 6.54197e-06
-0.0125617 -0.000356396 -4.34379e-05 -0.013 -0.000355839 1.05326e-05
-0.0125502 -0.000377702 -3.79859e-05 -0.012988 -0.000377561 1.34575e-05
-0.0125405 -0.000396192 -3.24547e-05 -0.0129778 -0.000396386 1.65885e-05
-0.0125325 -0.000411362 -2.70862e-05 -0.0129694 -0.000411807 1.93345e-05
-0.0125262 -0.000422765 -2.28805e-05 -0.0129627 -0.000423412 2.14337e-05
-0.0125215 -0.000430093 -2.05994e-05 -0.0129578 -0.000430917 2.26718e-05
-0.0125182 -0.000433221 -2.017e-05 -0.0129543 -0.000434115 2.3058e-05
-0.0125162 -0.000432101 -2.09586e-05 -0.0129523 -0.000432984 2.28329e-05
-0.0125153 -0.000426777 -2.25933e-05 -0.0129515 -0.000427483 2.11684e-05
-0.0125153 -0.000417412 -2.53135e-05 -0.0129518 -0.00041764 1.77647e-05
-0.0125164 -0.000404174 -2.96785e-05 -0.0129533 -0.000403837 1.32011e-05
-0.0125184 -0.00038739 -3.57335e-05 -0.0129559 -0.00038637 7.57548e-06
-0.0125216 -0.000367472 -4.3028e-05 -0.0129598 -0.000365677 9.64012e-07
-0.012526 -0.000344946 -5.08541e-05 -0.0129649 -0.00034236 -5.64647e-06
-0.0125313 -0.00032037 -5.87781e-05 -0.012971 -0.00031712 -1.16163e-05
-0.0125374 -0.000294399 -6.6753e-05 -0.0129779 -0.000290415 -1.79748e-05
-0.0125437 -0.000267687 -7.50893e-05 -0.0129851 -0.000262895 -2.46739e-05
-0.0125499 -0.000240877 -8.39538e-05 -0.0129922 -0.000235336 -3.14313e-05
-0.0125557 -0.00021467 -9.30267e-05 -0.0129988 -0.000208405 -3.81536e-05
-0.0125608 -0.000189732 -0.000101766 -0.0130047 -0.000182799 -4.46468e-05
-0.012565 -0.000166694 -0.000109775 -0.0130096 -0.00015913 -5.08116e-05
-0.0125682 -0.000146109 -0.000116994 -0.0130134 -0.000137964 -5.65308e-05
-0.0125703 -0.000128444 -0.000123527 -0.0130161 -0.000119804 -6.16836e-05
-0.0125713 -0.000114093 -0.000129372 -0.0130176 -0.000105077 -6.61541e-05
-0.0125713 -0.000103385 -0.000134324 -0.0130177 -9.41237e-05 -6.98466e-05
-0.0125699 -9.65786e-05 -0.000138122 -0.0130165 -8.71885e-05 -7.27028e-05
-0.012567 -9.38352e-05 -0.000140636 -0.0130137 -8.44256e-05 -7.46919e-05
-0.0125623 -9.52088e-05 -0.00014192 -0.0130088 -8.58968e-05 -7.57993e-05
-0.0125553 -0.000100645 -0.0001421 -0.0130015 -9.15625e-05 -7.60146e-05
-0.0125457 -0.000109987 -0.000141196 -0.0129914 -0.000101313 -7.4999e-05
-0.012533 -0.000122973 -0.000139138 -0.0129781 -0.000114904 -7.27991e-05
-0.0125171 -0.000139259 -0.000135884 -0.0129613 -0.000131907 -6.96185e-05
-0.0124975 -0.000158358 -0.000131589 -0.0129407 -0.000151844 -6.55477e-05
-0.0124742 -0.000179688 -0.000126508 -0.0129163 -0.00017411 -6.06979e-05
-0.0124473 -0.000202566 -0.00012088 -0.0128882 -0.000198016 -5.52004e-05
-0.0124171 -0.000226249 -0.000114858 -0.0128566 -0.000222782 -4.92512e-05
-0.0123841 -0.000249938 -0.000108566 -0.0128221 -0.000247562 -4.30768e-05
-0.0123487 -0.000272798 -0.000102175 -0.0127853 -0.000271476 -3.68887e-05
-0.0123118 -0.000293983 -9.59191e-05 -0.012747 -0.000293644 -3.08674e-05
-0.0122742 -0.000312665 -9.0037e-05 -0.0127081 -0.000313215 -2.51756e-05
-0.0122368 -0.000328072 -8.47533e-05 -0.0126693 -0.000329356 -2.02455e-05
-0.0122001 -0.000339529 -8.02212e-05 -0.0126315 -0.000341359 -1.60989e-05
-0.0121648 -0.000346464 -7.65193e-05 -0.0125953 -0.000348632 -1.28069e-05
-0.0121315 -0.000348414 -7.37456e-05 -0.0125612 -0.000350701 -1.06192e-05
-0.0121005 -0.000345072 -7.18656e-05 -0.0125296 -0.000347288 -8.97663e-06
-0.012072 -0.000336253 -7.08374e-05 -0.0125008 -0.000338218 -8.11599e-06
-0.0120464 -0.000321942 -7.06378e-05 -0.012475 -0.000323423 -8.024e-06
-0.0120238 -0.000302249 -7.12855e-05 -0.0124524 -0.000303028 -8.80695e-06
-0.0120041 -0.00027745 -7.27407e-05 -0.0124331 -0.000277303 -1.02762e-05
-0.0119874 -0.000247947 -7.48795e-05 -0.0123894 -0.00024649 -1.22014e-05
-0.0119617 -0.000214227 -7.74714e-05 -0.0122333 -0.000210848 -1.468e-05
-0.0118392 -0.000176754 -8.03303e-05 -0.0121151 -0.000172025 -1.73385e-05
-0.0117369 -0.000136623 -8.32738e-05 -0.0120193 -0.000130379 -2.02652e-05
-0.0116537 -9.47683e-05 -8.61358e-05 -0.0119445 -8.69171e-05 -2.2922e-05
-0.0115869 -5.20872e-05 -8.86417e-05 -0.0118864 -4.24822e-05 -2.53956e-05
-0.0115327 -9.34503e-06 -9.05939e-05 -0.0118421 1.90336e-06 -2.72795e-05
-0.0114928 3.22676e-05 -9.17153e-05 -0.0118062 4.5375e-05 -2.84905e-05
-0.0114581 7.19635e-05 -9.18106e-05 -0.0117727 8.71109e-05 -2.87844e-05
-0.0114214 0.000109173 -9.07144e-05 -0.0117384 0.000126076 -2.79806e-05
-0.0113769 0.000143135 -8.82227e-05 -0.0116967 0.000161754 -2.58194e-05
-0.0113196 0.000173214 -8.41802e-05 -0.0116395 0.000193314 -2.20522e-05
-0.0112433 0.000198568 -7.84548e-05 -0.0115607 0.000219996 -1.67848e-05
-0.0111424 0.000218841 -7.10413e-05 -0.011455 0.000241316 -9.86417e-06
-0.0110118 0.000233682 -6.21189e-05 -0.0113169 0.000257054 -2.52973e-06
-0.0108467 0.000242785 -5.20636e-05 -0.0111418 0.000267384 3.46067e-06
-0.0106435 0.00024624 -4.13979e-05 -0.0109249 0.000271778 1.03201e-05
-0.0103988 0.000244025 -2.98092e-05 -0.010663 0.00027061 1.68427e-05
-0.0101103 0.000236414 -1.71378e-05 -0.0103535 0.0002639 2.37458e-05
-0.00977645 0.000223745 -3.13365e-06 -0.00999447 0.00025198 3.15115e-05
-0.0093963 0.00020649 1.22682e-05 -0.00958501 0.000235403 3.98209e-05
-0.00896958 0.000185268 2.88705e-05 -0.00912485 0.00021459 5.08362e-05
-0.00849784 0.000161002 4.62311e-05 -0.00861364 0.000189942 6.4473e-05
-0.00798223 0.000134227 6.44732e-05 -0.00805602 0.000163314 7.6928e-05
-0.00742742 0.000106123 8.25461e-05 -0.00745561 0.000135018 8.99827e-05
-0.00683991 7.75734e-05 0.000100026 -0.00682004 0.000106376 0.000102538
-0.00622881 4.95923e-05 0.000117651 -0.00615841 7.74945e-05 0.000122158
-0.00560586 2.34463e-05 0.00013572 -0.00548018 4.96823e-05 0.000140676
-0.00498018 -4.83004e-07 0.00015394 -0.00480335 2.54271e-05 0.000156586
-0.00436462 -2.07051e-05 0.000169833 -0.00413581 4.47233e-06 0.000171491
-0.00376997 -3.65592e-05 0.000182589 -0.003492 -1.17686e-05 0.00018495
-0.00320784 -4.72114e-05 0.000192651 -0.00288304 -2.28229e-05 0.000196543
-0.00268834 -5.21805e-05 0.000200929 -0.00232093 -2.7895e-05 0.000205422
-0.00222021 -5.09249e-05 0.000205733 -0.00181565 -2.60765e-05 0.000207178
-0.00180845 -4.35398e-05 0.000207675 -0.00137464 -1.69925e-05 0.00020466
-0.00145656 -2.96372e-05 0.00020778 -0.000995387 -2.59337e-06 0.000206015
-0.00116114 -9.70305e-06 0.00020605 -0.000677832 1.84259e-05 0.000204876
-0.000916419 1.60481e-05 0.000202134 -0.000416736 4.56105e-05 0.000201146
-0.000715969 4.71148e-05 0.000196464 -0.000203886 7.83542e-05 0.000195018
-0.000552174 8.28024e-05 0.000189031 -3.17198e-05 0.000116087 0.000186726
-0.000417374 0.000122426 0.000179665 0.00010889 0.000157855 0.000176864
-0.000303474 0.00016511 0.000168603 0.000226423 0.000202775 0.000165718
-0.00020289 0.000209875 0.000156412 0.000329231 0.000249865 0.000153499
-0.000108862 0.000255691 0.000143664 0.000424675 0.000298116 0.000140424
-1.58459e-05 0.00030155 0.000130694 0.000518841 0.00034646 0.000126867
8.0406e-05 0.000346469 0.000117666 0.000616531 0.000393816 0.000113302
-6.86308e-05 0.000328668 0.000110914 0.000685162 0.000429786 0.000100801
-0.00040092 0.000316985 8.26429e-05 0.000611204 0.000402747 9.79434e-05
-0.000426989 0.000362166 8.64796e-05 0.000609485 0.000462728 7.65576e-05
-0.000423821 0.000375981 7.87727e-05 0.000633406 0.000499329 7.12315e-05
-0.000421913 0.000406394 6.72729e-05 0.000645912 0.000536082 5.84308e-05
-0.000442948 0.00044588 5.71244e-05 0.000641839 0.000566432 4.75759e-05
-0.000453274 0.00047239 4.73718e-05 0.00064647 0.000594273 3.87694e-05
-0.000453328 0.000486182 3.91384e-05 0.000661698 0.000620331 3.10382e-05
-0.000454741 0.00050177 3.307e-05 0.000673938 0.000638722 2.49962e-05
-0.000457316 0.00051671 2.87697e-05 0.000673036 0.000645574 2.07997e-05
-0.000452593 0.000522539 2.57147e-05 0.00068107 0.00065079 1.74217e-05
-0.000441405 0.000521087 2.36283e-05 0.000719824 0.000651666 1.65919e-05
-0.000427727 0.000516889 2.35783e-05 0.000933566 0.000649409 1.60591e-05
-0.000411806 0.000510698 2.51603e-05 0.00120759 0.000642247 1.74996e-05
-0.00039127 0.000499215 2.81315e-05 0.00152522 0.000631677 2.01704e-05
-0.000367215 0.000483228 3.22275e-05 0.00221423 0.000620864 2.37233e-05
-0.000341536 0.000464869 3.73433e-05 0.00305212 0.000606221 2.88906e-05
-0.000314642 0.000444472 4.38548e-05 0.00387888 0.000589352 3.44643e-05
-0.000286834 0.000422398 5.12434e-05 0.00471235 0.000569959 4.13879e-05
-0.000258698 0.000398855 5.93321e-05 0.00553045 0.000549641 4.88045e-05
-0.000231363 0.000374972 6.78453e-05 0.00630833 0.000528602 5.69251e-05
-0.000205333 0.000351483 7.67581e-05 0.00703287 0.000507378 6.5747e-05
-0.00018083 0.000328823 8.59835e-05 0.00770391 0.000486639 7.48282e-05
-0.000158619 0.00030743 9.52501e-05 0.00831724 0.000466991 8.38856e-05
-0.000138717 0.000288001 0.000104209 0.00886575 0.000449062 9.27249e-05
-0.000121221 0.000271003 0.000112627 0.00934784 0.000433392 0.000101163
-0.000106247 0.000256809 0.000120416 0.00976498 0.00042041 0.000109025
-9.37985e-05 0.000245853 0.000127513 0.010117 0.000410482 0.000116131
-8.4434e-05 0.000238298 0.000133817 0.0104024 0.000403894 0.000122349
-7.89858e-05 0.000234196 0.00013916 0.0106168 0.000400709 0.000127627
-7.66235e-05 0.000233801 0.00014347 0.0107639 0.000401236 0.000131884
-7.7567e-05 0.000238147 0.000133572 0.0108466 0.000405508 0.00013388
-8.37523e-05 0.000250638 9.81073e-05 0.0108686 0.000413705 0.000120986
-8.95404e-05 0.000261765 0.000101525 0.0108668 0.000424916 0.000119709
-9.89534e-05 0.000274834 0.000102579 0.0108627 0.000439699 0.000116409
-0.000110622 0.000290418 9.84873e-05 0.0108568 0.000457414 0.000118643
-0.00012415 0.000308764 9.30506e-05 0.0108495 0.000477149 0.000120347
-0.000139202 0.000329312 9.12994e-05 0.010841 0.000498792 0.000119519
-0.000155449 0.000350958 9.29903e-05 0.0108314 0.00052231 0.000116025
-9.97614e-05 8.92487e-05 8.45422e-05 0.0108236 0.00049797 9.64749e-05
-0.000128112 0.000182206 6.49576e-05 0.0108089 0.000521905 0.000103081
-0.000131384 0.000160752 7.36343e-05 0.0107959 0.0005405 9.2129e-05
-0.000145897 0.000169089 6.35324e-05 0.0107836 0.000571884 9.57209e-05
-0.000157257 0.000174776 6.04125e-05 0.0107649 0.000603916 8.80001e-05
-0.000168749 0.000177149 5.95378e-05 0.0107472 0.000627789 8.54377e-05
-0.000183024 0.000180043 5.91559e-05 0.0107302 0.000650234 8.27003e-05
-0.000198901 0.000184793 5.69776e-05 0.0107065 0.000671604 8.28079e-05
-0.000216128 0.000189564 5.46164e-05 0.0106786 0.000694612 8.32059e-05
-0.000232412 0.000193879 5.46505e-05 0.0106572 0.000856889 8.5279e-05
-0.000246744 0.000197589 5.83477e-05 0.0106415 0.00139435 8.78102e-05
-0.000258672 0.000197595 6.31178e-05 0.0106246 0.00181162 9.12969e-05
-0.000270619 0.000197193 6.7231e-05 0.0106089 0.0021519 9.73505e-05
-0.000281845 0.000195583 7.19309e-05 0.0105944 0.00250711 0.000103888
-0.000292985 0.000192927 7.80892e-05 0.0105804 0.00277814 0.000111918
-0.000303784 0.000189434 8.63858e-05 0.0105676 0.00297643 0.000120426
-0.000314229 0.000184141 9.61376e-05 0.0105543 0.00309296 0.000129762
-0.00032478 0.00017747 0.000106371 0.010541 0.00313818 0.000140378
-0.000335385 0.000169212 0.000116996 0.0105277 0.003139 0.000152136
-0.000346071 0.000159141 0.00012841 0.0105156 0.00312825 0.000163789
-0.000355513 0.000148847 0.000135635 0.0105041 0.00311376 0.000176507
-0.000362148 0.000139918 0.000135899 0.0104919 0.00310267 0.000185764
-0.000365995 0.00012947 0.000137516 0.0104802 0.00308902 0.000194801
-0.000369102 0.000118705 0.000138738 0.010469 0.00307265 0.000203953
-0.000371228 0.000106574 0.000140255 0.0104578 0.00305658 0.000214193
-0.000371918 9.26816e-05 0.000141252 0.0104474 0.00303925 0.000219123
-0.000371704 8.06345e-05 0.000113991 0.0104383 0.00302144 0.000215186
-0.000371259 7.14699e-05 7.05525e-05 0.0104318 0.00299896 0.000215398
-0.000367551 5.94246e-05 5.50789e-05 0.0104274 0.00297639 0.00021209
-0.00036292 4.64232e-05 4.62892e-05 0.0104249 0.00295386 0.000206361
-0.000356936 3.24716e-05 3.71517e-05 0.0104247 0.00293042 0.000206405
-0.000348038 1.45384e-05 3.884e-05 0.0104264 0.00290635 0.000207201
-0.000338732 -1.86019e-06 3.83665e-05 0.0104298 0.00288171 0.000208512
-0.000329229 -1.64695e-05 3.66618e-05 0.0104343 0.00285747 0.00020803
-0.000320058 -2.93078e-05 3.35694e-05 0.0104392 0.00283457 0.000205266
-0.000311569 -4.0383e-05 2.9617e-05 0.0104442 0.00281323 0.000202395
-0.000303827 -5.0451e-05 2.40423e-05 0.0104485 0.0027933 0.000200957
-0.000296902 -6.03107e-05 2.16171e-05 0.0104517 0.00277512 0.000200911
-0.000291501 -6.91778e-05 2.04665e-05 0.0104532 0.00275929 0.000201376
-0.000288234 -7.62613e-05 1.92539e-05 0.0104525 0.0027463 0.000201422
-0.00028754 -8.11346e-05 1.71673e-05 0.010449 0.00273632 0.000200632
-0.000289601 -8.40378e-05 1.47347e-05 0.0104422 0.00272928 0.00019952
-0.000294481 -8.56455e-05 1.39089e-05 0.0104316 0.00272521 0.00019871
-0.000302412 -8.57346e-05 1.30278e-05 0.0104171 0.00272432 0.000198142
-0.00031406 -8.2606e-05 8.55721e-06 0.0103984 0.00272685 0.000196585
-0.000329027 -7.67653e-05 3.52433e-06 0.0103757 0.0027326 0.000192977
-0.000347088 -6.84525e-05 -1.29329e-06 0.0103493 0.00274122 0.000186942
-0.000367702 -5.86352e-05 -6.69677e-06 0.0103196 0.00275216 0.000179186
-0.000389504 -5.01502e-05 -1.11285e-05 0.0102871 0.00276429 0.000171097
-0.000412373 -4.21727e-05 -1.1274e-05 0.0102525 0.00277709 0.000164674
-0.000436213 -3.35552e-05 -1.23814e-05 0.0102167 0.00279039 0.000158483
-0.00046016 -2.48397e-05 -1.34539e-05 0.0101805 0.00280366 0.000151819
-0.000483681 -1.60062e-05 -1.48322e-05 0.0101448 0.00281637 0.000143714
-0.000506086 -7.44112e-06 -1.63793e-05 0.0101105 0.00282786 0.000134462
-0.000526796 4.07013e-07 -1.79912e-05 0.0100783 0.00283748 0.000125068
-0.00054521 7.00465e-06 -1.96332e-05 0.00969668 0.00284242 0.000116595
-0.000582661 1.08508e-05 -2.10767e-05 0.00929509 0.00284522 0.000108477
-0.000764962 1.31857e-05 -2.28435e-05 0.00893972 0.0028446 0.000100946
-0.000906653 1.54052e-05 -2.47013e-05 0.00862714 0.00284204 9.28233e-05
-0.00101933 1.6987e-05 -2.66574e-05 0.00835778 0.00283633 8.45672e-05
-0.0011053 1.80612e-05 -2.86863e-05 0.00812829 0.0028279 7.65309e-05
-0.00115948 1.78535e-05 -3.06534e-05 0.00793996 0.00281647 6.91357e-05
-0.00118261 1.63257e-05 -3.26402e-05 0.00779278 0.00280203 6.24413e-05
-0.00118306 1.35452e-05 -3.46562e-05 0.00768336 0.00278469 5.61077e-05
-0.00118046 9.70111e-06 -3.67622e-05 0.00760754 0.00276466 4.98671e-05
-0.00117608 4.82511e-06 -3.88934e-05 0.00756073 0.00274223 4.36416e-05
-0.00117017 -9.83972e-07 -4.10518e-05 0.00753846 0.00271763 3.76163e-05
-0.001163 -7.63636e-06 -4.32023e-05 0.00753479 0.0026911 3.19789e-05
-0.00115487 -1.4972e-05 -4.53516e-05 0.0075356 0.00266289 2.67274e-05
-0.00114312 -2.27623e-05 -4.75215e-05 0.00753694 0.00263347 2.16494e-05
-0.00111888 -3.08607e-05 -4.96944e-05 0.00753838 0.00260328 1.65119e-05
-0.00109534 -3.89843e-05 -5.19367e-05 0.00753947 0.00257273 1.12768e-05
-0.00107308 -4.70392e-05 -5.41201e-05 0.00753972 0.00254216 6.48005e-06
-0.00105319 -5.48094e-05 -5.63448e-05 0.00753862 0.00251208 1.37106e-06
-0.00103665 -6.2155e-05 -5.85701e-05 0.00753567 0.00248292 -3.85545e-06
-0.00102434 -6.89099e-05 -6.07461e-05 0.00748414 0.00245464 -8.76601e-06
-0.00101682 -7.48907e-05 -6.28249e-05 0.00739476 0.00242871 -1.29108e-05
-0.00101494 -7.98914e-05 -6.48203e-05 0.00727028 0.00233508 -1.57063e-05
-0.00101644 -8.39229e-05 -6.68249e-05 0.00709809 0.00224487 -1.88844e-05
-0.00102032 -8.69025e-05 -6.88001e-05 0.00687937 0.00216133 -2.24228e-05
-0.00102557 -9.2022e-05 -7.06111e-05 0.00661587 0.0020846 -2.55686e-05
-0.00103361 -9.54044e-05 -7.25318e-05 0.00630368 0.00201717 -2.89587e-05
-0.00104392 -9.76378e-05 -7.43214e-05 0.00594257 0.00196126 -3.28454e-05
-0.00105651 -9.84946e-05 -7.61945e-05 0.00554348 0.00191246 -3.64387e-05
-0.0011401 -9.86479e-05 -7.79056e-05 0.00511051 0.00187233 -4.03452e-05
-0.00134666 -9.71135e-05 -8.01294e-05 0.00465539 0.00183961 -4.4382e-05
-0.0015251 -0.000103064 -8.15429e-05 0.00418815 0.00180937 -4.86606e-05
-0.00171405 -0.000106972 -8.33924e-05 0.00372021 0.00178276 -5.25711e-05
-0.00190252 -0.000109844 -8.4945e-05 0.00325648 0.00176252 -5.69694e-05
-0.00209345 -0.000111886 -8.67203e-05 0.0028067 0.00174844 -6.11858e-05
-0.00228132 -0.000113157 -8.83374e-05 0.00237304 0.00173988 -6.54859e-05
-0.00246495 -0.00011347 -8.9984e-05 0.00195812 0.00173518 -6.98144e-05
-0.00271353 -0.000115253 -9.14598e-05 0.00155816 0.00173154 -7.40216e-05
-0.0029883 -0.000115808 -9.33765e-05 0.00116034 0.00172717 -7.81085e-05
-0.00325559 -0.000115501 -9.98131e-05 0.000773456 0.00172722 -8.26856e-05
-0.00352513 -0.000113861 -0.000114832 0.000397803 0.00172781 -8.92636e-05
-0.00379346 -0.000112054 -0.000125532 2.51824e-05 0.00172837 -9.41817e-05
-0.00406126 -0.000109855 -0.000134942 -0.000351863 0.00172886 -9.74682e-05
-0.00433312 -0.00010779 -0.000143846 -0.000732576 0.0017288 -9.6985e-05
-0.00461065 -0.000106276 -0.000152562 -0.00111867 0.00172912 -9.87261e-05
-0.00489208 -0.000105012 -0.000161341 -0.0015122 0.00172899 -0.000100145
-0.00517708 -0.000104155 -0.000169203 -0.00191018 0.00172782 -9.71502e-05
-0.00546661 -0.000103773 -0.000172765 -0.00230591 0.00171126 -7.52379e-05
-0.00575866 -0.000104746 -0.000170508 -0.0027017 0.00169332 -6.02876e-05
-0.00604827 -0.000106717 -0.000168417 -0.00310596 0.00167869 -5.56058e-05
-0.00633601 -0.000109364 -0.000170022 -0.00350593 0.00165825 -4.46728e-05
-0.00662137 -0.000112805 -0.000175154 -0.00389905 0.00163747 -4.38983e-05
-0.00689926 -0.00011761 -0.000181301 -0.00429163 0.00161937 -4.89407e-05
-0.00717059 -0.000123211 -0.000185886 -0.00466922 0.00159193 -4.96732e-05
-0.00743316 -0.000130348 -0.00018667 -0.00503496 0.0015611 -4.96358e-05
-0.00768631 -0.000138741 -0.000184827 -0.0053871 0.00152518 -4.7937e-05
-0.00792992 -0.000148108 -0.000182659 -0.00572416 0.00148492 -4.63046e-05
-0.00816325 -0.000158426 -0.000181507 -0.00604864 0.00144225 -4.56069e-05
-0.00838652 -0.00016951 -0.000180733 -0.00635699 0.00139469 -4.23899e-05
-0.00859831 -0.00018142 -0.000178365 -0.00664797 0.00134419 -3.88416e-05
-0.00879645 -0.00019406 -0.000173705 -0.00692104 0.00129173 -3.50623e-05
-0.0089803 -0.000207171 -0.000167723 -0.00717366 0.00123763 -3.10346e-05
-0.00914993 -0.000220512 -0.000161894 -0.00740651 0.00118307 -2.70727e-05
-0.00930624 -0.000233818 -0.000156717 -0.00762042 0.00112857 -2.2689e-05
-0.0095918 -0.000205822 -0.000154081 -0.00736086 0.0012428 -3.2216e-05
-0.0096205 -0.000127202 -0.000156728 -0.00726144 0.00125464 -9.43919e-06
-0.00961847 -0.000138435 -0.00014335 -0.00726299 0.00126421 -2.42163e-05
-0.00964984 -0.000201588 -0.000133635 -0.00728972 0.00121697 -2.79957e-06
-0.00972837 -0.00024657 -0.000122193 -0.00731422 0.00118522 -9.2093e-07
-0.00971976 -0.000246968 -0.000114324 -0.00727763 0.00117434 3.30634e-07
-0.00970886 -0.000250554 -0.000106983 -0.00724029 0.0011593 7.97091e-06
-0.00970495 -0.000286456 -9.68473e-05 -0.00723589 0.00113129 7.07287e-06
-0.00970276 -0.000326243 -8.67655e-05 -0.00722458 0.0010296 1.01564e-05
-0.00969051 -0.000348255 -7.74173e-05 -0.00721062 0.000922042 1.45141e-05
-0.00967634 -0.000365944 -6.79731e-05 -0.00718672 0.000849458 1.42198e-05
-0.00966731 -0.000386424 -5.956e-05 -0.00715889 0.000770884 1.88599e-05
-0.00965774 -0.000410317 -5.11671e-05 -0.00714995 0.000682494 2.1546e-05
-0.00964989 -0.000430619 -4.33647e-05 -0.00713734 0.000613521 2.18503e-05
-0.0096425 -0.00044338 -3.67313e-05 -0.00712051 0.000562609 2.55238e-05
-0.00963642 -0.000451918 -3.03229e-05 -0.00710617 0.000530368 2.64942e-05
-0.00963338 -0.000459287 -2.47452e-05 -0.00709935 0.000502156 2.85651e-05
-0.00963326 -0.000465274 -2.01457e-05 -0.00709959 0.000482833 3.00298e-05
-0.00963539 -0.000466543 -1.66042e-05 -0.0071009 0.000481462 3.09265e-05
-0.00963882 -0.000462285 -1.42695e-05 -0.00710538 0.000485336 3.19886e-05
-0.00964459 -0.000454552 -1.25652e-05 -0.00711226 0.000493342 3.232e-05
-0.00965272 -0.000443724 -1.16125e-05 -0.00712138 0.000504851 3.29504e-05
-0.00966254 -0.000429133 -1.13699e-05 -0.00713263 0.00052004 3.30506e-05
-0.00967388 -0.00041109 -1.21101e-05 -0.00714623 0.000538413 3.18733e-05
-0.0096867 -0.000390891 -1.38998e-05 -0.00716285 0.000558858 2.99139e-05
-0.00970072 -0.000369754 -1.65869e-05 -0.0071838 0.000580001 2.7295e-05
-0.00971551 -0.000348119 -1.98994e-05 -0.00720749 0.000601884 2.39578e-05
-0.00974072 -0.00032561 -2.3687e-05 -0.00723118 0.000624594 2.00332e-05
-0.00988567 -0.000302785 -2.78512e-05 -0.00725323 0.00064801 1.55414e-05
-0.0100213 -0.000280192 -3.2298e-05 -0.0072742 0.000670918 1.08434e-05
-0.0101386 -0.000258863 -3.69261e-05 -0.00729392 0.000692618 6.16894e-06
-0.0102328 -0.000239036 -4.154e-05 -0.00731125 0.000712614 2.11923e-06
-0.0102989 -0.000220813 -4.55635e-05 -0.00732535 0.000730667 -5.53371e-07
-0.0103344 -0.000204488 -4.91034e-05 -0.00733579 0.000746331 -1.92679e-06
-0.01034 -0.000190749 -5.20735e-05 -0.00734297 0.000759271 -3.07329e-06
-0.0103373 -0.000180064 -5.47078e-05 -0.00734678 0.000769207 -3.86139e-06
-0.0103315 -0.000172336 -5.71586e-05 -0.00734668 0.000776183 -4.59499e-06
-0.0103229 -0.000167438 -5.94617e-05 -0.00734268 0.000780337 -5.3939e-06
-0.0103116 -0.000165394 -6.1502e-05 -0.00733496 0.000781601 -6.09482e-06
-0.010298 -0.0001663 -6.30818e-05 -0.00732408 0.000779974 -6.64572e-06
-0.0102825 -0.000170019 -6.41173e-05 -0.0073104 0.000775629 -7.02727e-06
-0.0102654 -0.000176191 -6.46921e-05 -0.0072941 0.000768879 -7.25199e-06
-0.0102468 -0.000184464 -6.49586e-05 -0.00727549 0.000760057 -7.40012e-06
-0.0102272 -0.000194593 -6.50024e-05 -0.00725504 0.000749382 -7.39688e-06
-0.0102065 -0.000206407 -6.4779e-05 -0.0072336 0.000736912 -6.88112e-06
-0.0101852 -0.000219571 -6.41919e-05 -0.00721116 0.000723191 -6.17936e-06
-0.010163 -0.000233522 -6.33132e-05 -0.00718794 0.00070862 -5.33162e-06
-0.0101402 -0.000247784 -6.2338e-05 -0.00716405 0.000693745 -4.68891e-06
-0.0101168 -0.000261947 -6.14738e-05 -0.00713957 0.000678957 -3.94859e-06
-0.0100927 -0.000275554 -6.07887e-05 -0.00711455 0.000664726 -3.27065e-06
-0.010068 -0.000288121 -6.02537e-05 -0.00708905 0.000651534 -2.71322e-06
-0.0100427 -0.000299206 -5.98791e-05 -0.00706316 0.000639825 -2.41309e-06
-0.0100174 -0.000308417 -5.97181e-05 -0.00677631 0.000632121 -2.57045e-06
-0.00999181 -0.000315183 -6.00459e-05 -0.00643608 0.000625905 -2.62319e-06
-0.00996567 -0.000319792 -6.0647e-05 -0.00610405 0.00062281 -3.40805e-06
-0.00993938 -0.000321478 -6.17627e-05 -0.00576816 0.000621892 -3.84886e-06
-0.00991271 -0.00032072 -6.31211e-05 -0.00546082 0.000622945 -4.67361e-06
-0.00988602 -0.000318329 -6.46631e-05 -0.00520736 0.000625457 -5.54002e-06
-0.00986003 -0.000313605 -6.649e-05 -0.00497915 0.000630138 -6.06403e-06
-0.00983453 -0.000305517 -6.85835e-05 -0.00477613 0.000637758 -6.78294e-06
-0.00980999 -0.000293855 -7.10127e-05 -0.00459712 0.000648567 -7.69812e-06
-0.00972348 -0.000278789 -7.37992e-05 -0.0044575 0.000661921 -8.54434e-06
-0.00952274 -0.000261158 -7.66526e-05 -0.0043806 0.000677382 -9.41963e-06
-0.00934773 -0.000241019 -7.97357e-05 -0.00434845 0.000695418 -1.04844e-05
-0.00920896 -0.000218414 -8.29198e-05 -0.00434742 0.0007159 -1.13372e-05
-0.00910133 -0.000193318 -8.60571e-05 -0.00435136 0.000739038 -1.23349e-05
-0.00901663 -0.000166139 -8.90578e-05 -0.00435798 0.000764323 -1.31538e-05
-0.00895166 -0.000137626 -9.18259e-05 -0.0043675 0.000791165 -1.39247e-05
-0.00890262 -0.000108164 -9.43177e-05 -0.00437905 0.000819172 -1.46446e-05
-0.00887912 -7.84384e-05 -9.64299e-05 -0.00439175 0.000847843 -1.51983e-05
-0.00888065 -4.91814e-05 -9.80168e-05 -0.00440491 0.000876613 -1.56012e-05
-0.00888686 -2.09213e-05 -9.89469e-05 -0.00441793 0.000904922 -1.57777e-05
-0.00889562 6.00848e-06 -9.91523e-05 -0.00442985 0.000956167 -1.55311e-05
-0.00890452 3.11555e-05 -9.85e-05 -0.00444014 0.00103298 -1.52871e-05
-0.00891257 5.40299e-05 -9.69675e-05 -0.00444904 0.00110329 -1.34947e-05
-0.00891818 7.32643e-05 -9.42987e-05 -0.00445579 0.00116768 -1.09265e-05
-0.00892191 8.97033e-05 -9.04794e-05 -0.0044601 0.00122468 -7.75944e-06
-0.00892386 0.000104099 -8.56503e-05 -0.00446166 0.00127563 -4.28545e-06
-0.00892338 0.000114939 -8.01434e-05 -0.00446041 0.00131876 2.58043e-07
-0.00891972 0.000120644 -7.39667e-05 -0.00445648 0.00135414 3.51014e-06
-0.00891315 0.000121925 -6.73867e-05 -0.00444968 0.00138154 6.00401e-06
-0.0089044 0.000120457 -6.0451e-05 -0.00443993 0.00140181 8.59402e-06
-0.00889466 0.000117648 -5.31457e-05 -0.00441799 0.00142926 1.06953e-05
-0.00888427 0.000113844 -4.49831e-05 -0.00439669 0.00144204 1.46378e-05
-0.00881305 0.000108726 -3.56756e-05 -0.0043727 0.00145729 1.71204e-05
-0.00865295 0.000102008 -2.57319e-05 -0.00434655 0.00146457 2.11182e-05
-0.00848902 9.48038e-05 -1.55737e-05 -0.00404026 0.00147466 2.46968e-05
-0.00831726 8.68977e-05 -5.50476e-06 -0.00369503 0.00147878 2.857e-05
-0.00814019 7.90057e-05 2.17448e-06 -0.00334219 0.00148226 3.16409e-05
-0.00795718 7.07768e-05 9.19856e-06 -0.00298262 0.001483 3.52706e-05
-0.00777928 6.43485e-05 8.40685e-06 -0.00262013 0.00148343 3.74702e-05
-0.00760041 5.77508e-05 8.18301e-06 -0.00225742 0.00148337 4.01001e-05
-0.00742274 5.1472e-05 7.47621e-06 -0.00189371 0.001483 4.33053e-05
-0.00724631 4.51866e-05 6.91681e-06 -0.00153191 0.00148314 4.61424e-05
-0.00707331 3.89144e-05 6.57995e-06 -0.00117411 0.00148442 4.88004e-05
-0.00690461 3.27143e-05 6.49899e-06 -0.000821989 0.00148902 5.11016e-05
-0.00674166 2.68439e-05 6.51849e-06 -0.000476326 0.00149632 5.32892e-05
-0.00658618 2.15837e-05 6.49491e-06 -0.000137589 0.00150672 5.56429e-05
-0.00643989 1.71234e-05 6.37216e-06 0.000192827 0.00152074 5.81826e-05
-0.00630362 1.349e-05 6.20578e-06 0.000513893 0.0015388 6.08395e-05
-0.00617768 1.06022e-05 6.11623e-06 0.000824581 0.0015614 6.34019e-05
-0.00606261 8.38372e-06 6.21371e-06 0.00112345 0.00158894 6.57084e-05
-0.00595951 6.84697e-06 6.52929e-06 0.0014086 0.00162168 6.77418e-05
-0.00586957 6.01933e-06 7.59963e-06 0.00167845 0.00165838 7.42063e-05
-0.00579504 6.40336e-06 8.27097e-06 0.00193353 0.00169827 8.15e-05
-0.00573622 7.94551e-06 8.70063e-06 0.00216797 0.00174609 8.57178e-05
-0.00569219 1.04334e-05 9.09643e-06 0.00238564 0.00179804 9.00052e-05
-0.00566059 1.35177e-05 9.87027e-06 0.00258745 0.0018552 9.44853e-05
-0.00563969 1.71172e-05 1.10387e-05 0.00277593 0.0019166 9.97019e-05
-0.00562875 2.13582e-05 1.23453e-05 0.0029533 0.00198199 0.000104949
-0.00562707 2.63858e-05 1.35196e-05 0.00311958 0.00205134 0.000109365
-0.00562792 3.21779e-05 1.44983e-05 0.00327407 0.00212411 0.000112799
-0.00562966 3.8527e-05 1.54385e-05 0.00341495 0.00219972 0.00011567
-0.00563221 4.51692e-05 1.65321e-05 0.00354131 0.00227727 0.000118645
-0.00563545 5.19412e-05 1.78316e-05 0.00365382 0.00235597 0.00012199
-0.00563923 5.88016e-05 1.92233e-05 0.00375455 0.00243515 0.000125474
-0.00564336 6.57483e-05 2.0546e-05 0.00384653 0.00251418 0.000128696
-0.00564762 7.27112e-05 2.17225e-05 0.00393334 0.00259231 0.000131478
-0.00565174 7.95227e-05 2.2798e-05 0.00401896 0.00266869 0.000134015
-0.00565544 8.59773e-05 2.38675e-05 0.00410757 0.00274242 0.000136669
-0.00565839 9.14764e-05 2.48839e-05 0.00420992 0.00279682 0.00013799
-0.00565984 9.44612e-05 2.60094e-05 0.00436917 0.00279972 0.000140714
-0.00566046 9.72404e-05 2.69243e-05 0.00452979 0.00281586 0.000143939
-0.00566064 9.93637e-05 2.7993e-05 0.00457361 0.00283255 0.00014615
-0.00565962 0.00010137 2.87922e-05 0.00457346 0.00284592 0.000149495
-0.00565764 0.000103613 2.92995e-05 0.00464446 0.00285391 0.000151819
-0.00565425 0.000105136 2.9772e-05 0.00476118 0.00285301 0.000155601
-0.00564977 0.000106043 3.03266e-05 0.00487201 0.0028566 0.000158906
-0.00564448 0.000106382 3.09225e-05 0.00499061 0.00285888 0.000162809
-0.00563862 0.00010629 3.13851e-05 0.00514063 0.00285745 0.000167042
-0.00563247 0.000105838 3.17213e-05 0.00529599 0.00285589 0.000171111
-0.00562296 0.000105103 3.2001e-05 0.00543522 0.00285465 0.000175023
-0.00555627 0.000103978 3.23384e-05 0.00557277 0.00285289 0.000179039
-0.00549456 0.000102712 3.26331e-05 0.00571169 0.00285024 0.000183378
-0.00543523 0.000101084 3.3019e-05 0.00583953 0.00284756 0.000187874
-0.00538214 9.93622e-05 3.33623e-05 0.00595255 0.00284501 0.000192341
-0.00533457 9.73128e-05 3.36961e-05 0.00605595 0.00284224 0.000196734
-0.00529339 9.51975e-05 3.39988e-05 0.00614908 0.00283935 0.00020101
-0.00525971 9.30754e-05 3.42844e-05 0.0062268 0.00283661 0.000205218
-0.00523431 9.09574e-05 3.46183e-05 0.0062885 0.00283403 0.000209424
-0.005218 8.88867e-05 3.49943e-05 0.00633535 0.00283151 0.000213649
-0.00521137 8.69786e-05 3.49396e-05 0.00636526 0.00282948 0.000215036
-0.00521176 8.52522e-05 3.47116e-05 0.00637229 0.00282893 0.000213855
-0.00521302 8.35794e-05 3.45992e-05 0.00637098 0.00282833 0.000214255
-0.0052152 8.20413e-05 3.4513e-05 0.00636924 0.00282741 0.000214266
-0.00521826 8.06309e-05 3.44442e-05 0.006366 0.00282693 0.000214535
-0.00522219 7.93424e-05 3.44022e-05 0.00636129 0.00282708 0.000214456
-0.00522691 7.81454e-05 3.44027e-05 0.00635568 0.00282728 0.000214527
-0.0052323 7.70409e-05 3.4451e-05 0.00634924 0.00282745 0.000214764
-0.00523833 7.63118e-05 3.44991e-05 0.00634196 0.00282794 0.000214931
-0.00524628 7.53651e-05 3.46086e-05 0.00633216 0.00282865 0.00021513
-0.00525436 7.43997e-05 3.46824e-05 0.00632226 0.0028292 0.000215362
-0.00526214 7.33232e-05 3.47187e-05 0.00631262 0.00282961 0.000215535
-0.00526938 7.2069e-05 3.47175e-05 0.00630363 0.00282975 0.000215664
-0.00527601 7.05802e-05 3.4678e-05 0.00629541 0.00282949 0.000215791
-0.00528228 6.87666e-05 3.45972e-05 0.00629151 0.00282775 0.00021607
-0.00528862 6.67316e-05 3.4393e-05 0.006287 0.00282682 0.000215484
-0.00529524 6.44007e-05 3.41646e-05 0.00628221 0.00282418 0.000215718
-0.00530221 6.17561e-05 3.38839e-05 0.00627634 0.00282169 0.000215555
-0.00530973 5.88227e-05 3.35318e-05 0.0062697 0.00281894 0.000215318
-0.00531803 5.56074e-05 3.31374e-05 0.00626177 0.0028154 0.000215255
-0.00532763 5.21217e-05 3.26837e-05 0.0062521 0.00281176 0.000215005
-0.00533906 4.83681e-05 3.217e-05 0.00624013 0.00280769 0.00021474
-0.00535218 4.43983e-05 3.16043e-05 0.00622561 0.00280316 0.000214507
-0.0053644 4.01715e-05 3.10638e-05 0.00620901 0.0027984 0.000214186
-0.00537428 3.55698e-05 3.05846e-05 0.00619111 0.00279323 0.000213879
-0.0053836 3.07276e-05 3.00356e-05 0.00617175 0.00278764 0.000213577
-0.00539301 2.56303e-05 2.94637e-05 0.00615124 0.00278129 0.000213171
-0.00540199 1.96739e-05 2.88343e-05 0.00613056 0.00277322 0.000212771
-0.0054099 1.21304e-05 2.82255e-05 0.00611032 0.00276326 0.000212366
-0.00541643 3.07071e-06 2.76054e-05 0.00609107 0.00275125 0.000211964
-0.00542126 -7.58013e-06 2.69897e-05 0.00607336 0.00273729 0.000211555
-0.00542449 -1.89948e-05 2.64394e-05 0.00605745 0.00272159 0.000211164
-0.00542749 -2.75684e-05 2.5598e-05 0.00604316 0.0027051 0.000210757
-0.00542994 -3.46873e-05 2.46723e-05 0.00603028 0.00268799 0.000210218
-0.00543156 -4.17841e-05 2.38259e-05 0.00601844 0.00266996 0.000209749
-0.00543232 -4.86962e-05 2.29974e-05 0.00600738 0.0026512 0.000209305
-0.00543273 -5.52752e-05 2.21931e-05 0.00599687 0.00263208 0.00020876
-0.00543304 -6.11612e-05 2.03832e-05 0.00598669 0.00261316 0.000207017
-0.00543343 -6.60229e-05 1.73743e-05 0.00597672 0.00259463 0.000203943
-0.00543411 -6.94798e-05 1.31825e-05 0.00596689 0.00257677 0.000199427
-0.00543508 -7.18424e-05 7.60221e-06 0.00595704 0.00255972 0.000193471
-0.00543655 -7.30009e-05 6.00126e-07 0.00594693 0.00254371 0.000186115
-0.00543866 -7.30612e-05 -7.03202e-06 0.00593631 0.00252882 0.000177457
-0.00544123 -7.32641e-05 -9.7618e-06 0.00592484 0.00251499 0.000168888
-0.00544476 -7.29059e-05 -1.1471e-05 0.00591211 0.00250238 0.000160676
-0.00544947 -7.17608e-05 -1.30662e-05 0.00589781 0.0024911 0.000152115
-0.00545551 -6.95513e-05 -1.49398e-05 0.00588181 0.00248113 0.000142124
-0.00546272 -6.63505e-05 -1.7008e-05 0.00586431 0.00247243 0.000130572
-0.00547077 -6.24218e-05 -1.91134e-05 0.0058458 0.00246475 0.000118308
-0.00547921 -5.80064e-05 -2.11898e-05 0.00582688 0.00245774 0.000105971
-0.00548766 -5.31736e-05 -2.33177e-05 0.00580814 0.00245111 9.33638e-05
-0.0054958 -4.79448e-05 -2.55844e-05 0.0057901 0.00244466 8.00441e-05
-0.00550335 -4.24537e-05 -2.79647e-05 0.00570739 0.00243764 6.61941e-05
-0.00551017 -3.69053e-05 -3.03275e-05 0.00549036 0.00242996 5.24154e-05
-0.00551644 -3.14429e-05 -3.26586e-05 0.00528802 0.00242155 3.9414e-05
-0.00552242 -2.61447e-05 -3.50225e-05 0.00509083 0.00241284 2.62865e-05
-0.0055286 -2.10315e-05 -3.73846e-05 0.00488591 0.00240349 1.349e-05
-0.00553537 -1.61977e-05 -3.96066e-05 0.0046645 0.00239329 2.29758e-06
-0.00560022 -1.1704e-05 -4.15554e-05 0.00441982 0.00238193 -5.05636e-06
-0.00568053 -7.6911e-06 -4.30192e-05 0.0041482 0.00236888 -6.26966e-06
-0.0057721 -3.90884e-06 -4.45397e-05 0.0038502 0.00235547 -8.41749e-06
-0.00587327 -5.20624e-07 -4.59822e-05 0.00354462 0.00234155 -8.99259e-06
-0.00598055 2.2688e-06 -4.7361e-05 0.0032225 0.00232688 -1.01061e-05
-0.00608876 4.28833e-06 -4.87312e-05 0.00288963 0.00231136 -1.13831e-05
-0.00619481 5.55241e-06 -5.00952e-05 0.0025547 0.00229483 -1.26874e-05
-0.00629608 6.17914e-06 -5.14663e-05 0.00223086 0.00227746 -1.39946e-05
-0.00639084 6.32775e-06 -5.28637e-05 0.00195388 0.00226015 -1.50631e-05
-0.00647752 6.24779e-06 -5.42598e-05 0.00173338 0.00225057 -1.51707e-05
-0.00655112 5.53422e-06 -5.55748e-05 0.00158017 0.00224048 -1.77367e-05
-0.00661031 4.21077e-06 -5.69151e-05 0.00154222 0.00221198 -1.75405e-05
-0.00664865 2.02467e-06 -5.8224e-05 0.00152532 0.00216969 -1.9065e-05
-0.0066638 -1.00035e-06 -5.9605e-05 0.00152848 0.00212027 -2.00912e-05
-0.00666306 -4.80681e-06 -6.10348e-05 0.00153436 0.00206594 -2.07559e-05
-0.00665992 -9.27173e-06 -6.248e-05 0.00154358 0.00200713 -2.17139e-05
-0.00665469 -1.4356e-05 -6.39193e-05 0.00155607 0.00194356 -2.22772e-05
-0.00664747 -2.00233e-05 -6.53562e-05 0.00157067 0.00187769 -2.32125e-05
-0.00663861 -2.60828e-05 -6.67958e-05 0.00158718 0.00180912 -2.40387e-05
-0.00662864 -3.22621e-05 -6.82209e-05 0.00160512 0.00174019 -2.48713e-05
-0.0066181 -3.83216e-05 -6.96185e-05 0.00162392 0.00167208 -2.55848e-05
-0.00660754 -4.40892e-05 -7.09792e-05 0.0016425 0.00160616 -2.6184e-05
-0.00659761 -4.94028e-05 -7.22737e-05 0.00165977 0.0015444 -2.68251e-05
-0.00658912 -5.40679e-05 -7.3471e-05 0.00167493 0.00148837 -2.74822e-05
-0.00658276 -5.78942e-05 -7.4559e-05 0.00168872 0.00143971 -2.8174e-05
-0.00657916 -6.07047e-05 -7.55421e-05 0.00176194 0.00140147 -2.88866e-05
-0.00657861 -6.2413e-05 -7.64046e-05 0.00180001 0.00136978 -2.92504e-05
-0.00658105 -6.30616e-05 -7.71607e-05 0.0018024 0.00134852 -2.99635e-05
-0.00658632 -6.26725e-05 -7.78057e-05 0.00179765 0.00133444 -3.0327e-05
-0.00659412 -6.12902e-05 -7.83297e-05 0.00175512 0.00132857 -3.08605e-05
-0.00660379 -5.9082e-05 -7.87432e-05 0.00160274 0.00132679 -3.13517e-05
-0.00661487 -5.61742e-05 -7.91027e-05 0.00141808 0.00132804 -3.20468e-05
-0.00662716 -5.26305e-05 -7.93935e-05 0.00120366 0.0013304 -3.23542e-05
-0.00664048 -4.85202e-05 -7.96003e-05 0.000970658 0.00133403 -3.29394e-05
-0.00665467 -4.33935e-05 -7.97768e-05 0.000728026 0.00133837 -3.31924e-05
-0.00670411 -3.80737e-05 -7.98652e-05 0.000473481 0.00134336 -3.36369e-05
-0.00683823 -3.27761e-05 -8.00765e-05 0.000219236 0.00134853 -3.4032e-05
-0.0069673 -2.72972e-05 -8.02015e-05 -2.24922e-05 0.00135378 -3.43346e-05
-0.00708734 -2.20286e-05 -8.02825e-05 -0.000246934 0.00135884 -3.46266e-05
-0.00719297 -1.74312e-05 -8.03745e-05 -0.000447918 0.00136326 -3.48456e-05
-0.00727988 -1.3782e-05 -8.04587e-05 -0.000616462 0.00136678 -3.5051e-05
-0.00734608 -1.11603e-05 -8.05325e-05 -0.000742984 0.00136927 -3.52187e-05
-0.00739115 -9.67881e-06 -8.05986e-05 -0.000826115 0.00137061 -3.53569e-05
-0.00741608 -9.44012e-06 -8.06563e-05 -0.000871389 0.00137075 -3.54312e-05
-0.00742335 -1.04518e-05 -8.06834e-05 -0.000886149 0.0013699 -3.55079e-05
-0.00742249 -1.27532e-05 -7.98539e-05 -0.000884906 0.00136765 -3.47511e-05
-0.00742045 -1.62391e-05 -7.81413e-05 -0.000881996 0.00136418 -3.30808e-05
-0.00741764 -2.07574e-05 -7.56222e-05 -0.000878117 0.00135964 -3.05325e-05
-0.00741472 -2.60214e-05 -7.23163e-05 -0.000874103 0.0013543 -2.72242e-05
-0.00741246 -3.16598e-05 -6.83029e-05 -0.000870795 0.00134851 -2.33002e-05
-0.00741156 -3.73287e-05 -6.38392e-05 -0.000869 0.00134268 -1.94694e-05
-0.00741251 -4.27974e-05 -5.91895e-05 -0.000869561 0.00133731 -1.58467e-05
-0.00741559 -4.78715e-05 -5.43603e-05 -0.000872806 0.00133237 -1.17213e-05
-0.00742089 -5.24975e-05 -4.91104e-05 -0.000878812 0.00132803 -7.40847e-06
-0.00746606 -5.69698e-05 -4.34373e-05 -0.000893849 0.00131804 -2.95341e-06
-0.00754738 -6.13941e-05 -3.77752e-05 -0.00103256 0.00130057 9.22412e-07
-0.00763987 -6.59813e-05 -3.2587e-05 -0.00120284 0.00128476 3.6535e-06
-0.00774231 -7.05013e-05 -2.7791e-05 -0.00139003 0.00126884 5.56967e-06
-0.00785191 -7.49627e-05 -2.29694e-05 -0.00158629 0.0012529 7.49425e-06
-0.00796325 -7.96224e-05 -1.81381e-05 -0.00178149 0.0012363 9.04384e-06
-0.00806948 -8.47946e-05 -1.35624e-05 -0.00197253 0.00121734 1.06803e-05
-0.00816609 -9.05501e-05 -9.49072e-06 -0.00214671 0.00119582 1.21259e-05
-0.0082507 -9.68237e-05 -6.17869e-06 -0.00229512 0.00117163 1.34272e-05
-0.00832228 -0.000103569 -4.13e-06 -0.00241454 0.00114457 1.45246e-05
-0.00838346 -0.000110785 -4.38553e-06 -0.00250987 0.00111428 1.52635e-05
-0.00851459 -0.000120415 -5.21226e-06 -0.00259491 0.00107772 1.60928e-05
-0.00863577 -0.000129788 -5.52989e-06 -0.00264098 0.00104296 1.68493e-05
-0.00874486 -0.00013953 -5.96708e-06 -0.00266447 0.00100565 1.75867e-05
-0.00884202 -0.000150414 -6.40955e-06 -0.00268567 0.000964669 1.78248e-05
-0.00893274 -0.000156616 -7.06757e-06 -0.00268863 0.000925525 1.82448e-05
-0.00901288 -0.000162029 -7.555e-06 -0.0026875 0.000887173 1.83569e-05
-0.00908727 -0.000166792 -8.27208e-06 -0.00268579 0.00085095 1.88529e-05
-0.00915966 -0.000171091 -8.97804e-06 -0.00268427 0.00082322 1.85931e-05
-0.00923516 -0.000174836 -9.54879e-06 -0.00268253 0.000793298 1.86279e-05
-0.00931884 -0.000177915 -1.05186e-05 -0.00268205 0.00076931 1.77699e-05
-0.00941683 -0.000180109 -1.24746e-05 -0.00268341 0.000747824 1.60333e-05
-0.0095326 -0.000181721 -1.38041e-05 -0.00268667 0.000730429 1.33886e-05
-0.00966683 -0.000184796 -1.58963e-05 -0.00272004 0.000716398 9.96188e-06
-0.00981303 -0.000192961 -1.78799e-05 -0.00282187 0.000701413 5.82447e-06
-0.0099861 -0.000199825 -2.0546e-05 -0.00294561 0.000690692 1.16588e-06
-0.010183 -0.000206344 -2.33689e-05 -0.00310724 0.000681298 -2.45558e-06
-0.0104001 -0.000212714 -2.60703e-05 -0.00329741 0.000672708 -4.30764e-06
-0.0106296 -0.000218627 -2.86636e-05 -0.00349818 0.000664814 -5.58191e-06
-0.0108616 -0.000224345 -3.15568e-05 -0.00369294 0.000658802 -7.35666e-06
-0.0110869 -0.000230449 -3.48382e-05 -0.00387409 0.000652354 -9.19741e-06
-0.0112979 -0.000237388 -3.84007e-05 -0.00403721 0.000645087 -1.13447e-05
-0.0114888 -0.000245125 -4.20566e-05 -0.00417073 0.000635077 -1.34178e-05
-0.011656 -0.000253644 -4.56998e-05 -0.00426479 0.000622726 -1.54877e-05
-0.0117984 -0.000263158 -4.94019e-05 -0.00431905 0.000607897 -1.76204e-05
-0.0119171 -0.000273847 -5.32891e-05 -0.00434036 0.000589829 -1.98884e-05
-0.0120143 -0.000285758 -5.73729e-05 -0.00434165 0.000568516 -2.23053e-05
-0.0120915 -0.000298581 -6.15374e-05 -0.00433877 0.000543666 -2.47161e-05
-0.0121493 -0.000312106 -6.56685e-05 -0.0043336 0.000516387 -2.71137e-05
-0.0121882 -0.000326302 -6.97672e-05 -0.00432649 0.000486474 -2.94813e-05
-0.0122089 -0.000341061 -7.39126e-05 -0.0043177 0.000454664 -3.1916e-05
-0.0122128 -0.000356085 -7.81543e-05 -0.00430735 0.000421788 -3.44173e-05
-0.0122113 -0.00037109 -8.24623e-05 -0.00429565 0.000388746 -3.69445e-05
-0.0122082 -0.000385813 -8.67588e-05 -0.00428314 0.000356275 -3.94493e-05
-0.012204 -0.000399936 -9.10336e-05 -0.00427038 0.000325345 -4.19244e-05
-0.0121994 -0.000412913 -9.6694e-05 -0.00425794 0.000297228 -4.44897e-05
-0.0121953 -0.000423599 -0.000108343 -0.00424654 0.000272366 -4.62561e-05
-0.012193 -0.000424042 -0.000111845 -0.00424814 0.000341982 -1.93985e-05
-0.0121642 -0.000438575 -8.42175e-05 -0.00434186 0.00060533 -5.9124e-05
-0.0121659 -0.000414396 -9.18913e-05 -0.00435337 0.000637533 -9.92852e-06
-0.0121605 -0.0004364 -0.000110771 -0.00436164 0.000642239 -3.95605e-05
-0.0121651 -0.000462631 -0.000138316 -0.00433399 0.000586504 -5.6415e-05
-0.0121673 -0.000477924 -0.000146153 -0.00432695 0.000563959 -4.65255e-05
-0.0121668 -0.000477335 -0.000141319 -0.0043408 0.000599826 -4.1985e-05
-0.0121686 -0.000477281 -0.000148677 -0.00435278 0.000627939 -4.55104e-05
-0.0121758 -0.0004914 -0.000170954 -0.00435008 0.000616781 -5.2061e-05
-0.0121849 -0.000508191 -0.000187316 -0.00434359 0.000601237 -5.37107e-05
-0.0121932 -0.00051273 -0.000189565 -0.0043406 0.000600785 -4.56706e-05
-0.0122012 -0.000513768 -0.000191052 -0.00434659 0.000610641 -4.27657e-05
-0.0122095 -0.000522183 -0.000204016 -0.00435605 0.000625769 -4.75058e-05
-0.0122546 -0.000532551 -0.000216447 -0.00435561 0.000620798 -5.28053e-05
-0.0123155 -0.000541553 -0.0002158 -0.00434967 0.000615297 -4.96412e-05
-0.012363 -0.000549376 -0.000207773 -0.00434946 0.000618898 -4.18952e-05
-0.0124052 -0.000554908 -0.000202602 -0.00435423 0.000627422 -3.63731e-05
-0.0124186 -0.000549752 -0.000206248 -0.00435777 0.000634298 -3.77807e-05
-0.0124206 -0.000547503 -0.000212276 -0.00435732 0.000637729 -4.22942e-05
-0.0124199 -0.000546931 -0.000213282 -0.00435531 0.000638491 -4.28606e-05
-0.0124196 -0.000546273 -0.000208764 -0.00435411 0.000638951 -3.95076e-05
-0.0124191 -0.000544661 -0.00020504 -0.00435385 0.000641209 -3.67587e-05
-0.012418 -0.00054272 -0.000206446 -0.00435311 0.000644446 -3.77241e-05
-0.0124165 -0.000541725 -0.000210422 -0.0043514 0.000646576 -4.04851e-05
-0.0124148 -0.000542031 -0.000211842 -0.00434908 0.00064678 -4.14156e-05
-0.012413 -0.000542924 -0.00020962 -0.0043463 0.00064587 -3.97398e-05
-0.0124108 -0.000543792 -0.000207194 -0.00434324 0.000645027 -3.79399e-05
-0.0124085 -0.000544662 -0.00020758 -0.00434013 0.000644578 -3.81668e-05
-0.0124058 -0.000545827 -0.00020993 -0.00433685 0.00064409 -3.97786e-05
-0.0124024 -0.000547511 -0.000211306 -0.00433286 0.000643248 -4.07062e-05
-0.0123979 -0.000549658 -0.000210601 -0.00432753 0.0006415 -4.01646e-05
-0.0123923 -0.000552345 -0.000209373 -0.00432068 0.000638923 -3.92096e-05
-0.0123853 -0.00055541 -0.000209445 -0.00431259 0.000636097 -3.92216e-05
-0.0123772 -0.000558434 -0.000210772 -0.00430346 0.000633507 -4.01052e-05
-0.0123679 -0.000561249 -0.00021191 -0.00429345 0.000631235 -4.08524e-05
-0.0123578 -0.000564013 -0.000212007 -0.00428263 0.000628884 -4.08614e-05
-0.012347 -0.000566795 -0.000211609 -0.00427121 0.000626226 -4.05026e-05
-0.0123351 -0.000569269 -0.000211619 -0.00425939 0.000623868 -4.04778e-05
-0.0123224 -0.00057075 -0.000212213 -0.00424684 0.000622512 -4.08814e-05
-0.0123089 -0.000571075 -0.000212753 -0.00423389 0.000622426 -4.12258e-05
-0.0122949 -0.000570372 -0.000212748 -0.00422055 0.000623346 -4.1236e-05
-0.0122805 -0.000568741 -0.000212346 -0.00420686 0.000624957 -4.09336e-05
-0.0122661 -0.000565044 -0.00021194 -0.00419328 0.00062822 -4.05579e-05
-0.012252 -0.000558848 -0.000211732 -0.00418156 0.000633878 -4.05353e-05
-0.0122388 -0.000550734 -0.000211712 -0.0041746 0.00064061 -4.04053e-05
-0.0122272 -0.000541361 -0.000211607 -0.00417273 0.000648568 -4.04208e-05
-0.0122175 -0.000529744 -0.000211343 -0.00417354 0.000658566 -4.02566e-05
-0.0122098 -0.000515215 -0.000210972 -0.00417608 0.000670331 -4.01343e-05
-0.0122041 -0.000498635 -0.000210705 -0.00418043 0.000681103 -3.98111e-05
-0.0122004 -0.000481098 -0.000210377 -0.00418656 0.000690854 -3.93186e-05
-0.0121976 -0.000462536 -0.000209818 -0.00419372 0.000700845 -3.89428e-05
-0.0121951 -0.0004428 -0.000209257 -0.00420083 0.00071071 -3.82527e-05
-0.0121917 -0.000422961 -0.000208219 -0.00420795 0.000720998 -3.75675e-05
-0.0121866 -0.000403683 -0.000206459 -0.00421384 0.00073031 -3.57682e-05
-0.0121791 -0.000385289 -0.000203656 -0.00421701 0.000749159 -3.311e-05
-0.0121687 -0.000368035 -0.000199598 -0.00421749 0.000769191 -2.96026e-05
-0.0121555 -0.000352141 -0.000194456 -0.00421538 0.000782854 -2.48736e-05
-0.0121397 -0.000337762 -0.000188263 -0.00421106 0.000792515 -1.91666e-05
-0.0121219 -0.00032462 -0.000181316 -0.00420437 0.000798242 -1.43257e-05
-0.0121023 -0.000312769 -0.000174267 -0.004196 0.000802154 -1.21753e-05
-0.0120816 -0.000302074 -0.000167292 -0.00418644 0.000802847 -9.54564e-06
-0.0120601 -0.000292339 -0.000159471 -0.00417574 0.000801881 -6.74312e-06
-0.0120379 -0.000283397 -0.000150412 -0.00416418 0.000800156 -4.35637e-06
-0.0120153 -0.000275136 -0.000140857 -0.00415185 0.000797765 -2.34455e-06
-0.011992 -0.000267328 -0.000131441 -0.00413884 0.000794663 -5.63446e-07
-0.0119678 -0.000259802 -0.000121849 -0.00412511 0.000791364 1.11051e-06
-0.0119422 -0.000252319 -0.000111797 -0.00411034 0.000787757 2.89631e-06
-0.0119148 -0.000244802 -0.000100976 -0.00409431 0.000783866 4.96881e-06
-0.0118855 -0.000237026 -8.98653e-05 -0.00406756 0.000777574 7.17912e-06
-0.0118549 -0.000228374 -7.91005e-05 -0.00384606 0.000772805 9.03467e-06
-0.0118226 -0.00021803 -6.89352e-05 -0.00359676 0.000766592 1.13175e-05
-0.01151 -0.000205721 -5.8798e-05 -0.00336202 0.000763313 1.29826e-05
-0.0111593 -0.000192541 -4.8569e-05 -0.00314406 0.000761527 1.50153e-05
-0.0108182 -0.000177538 -3.83413e-05 -0.00293415 0.00076137 1.73181e-05
-0.0105107 -0.000161174 -2.84996e-05 -0.00274563 0.000762991 1.92135e-05
-0.010226 -0.000143076 -1.93926e-05 -0.00257931 0.000765192 2.10781e-05
-0.00996486 -0.000123308 -1.09568e-05 -0.00244405 0.000768149 2.29218e-05
-0.00973205 -0.000101871 -3.12244e-06 -0.00234645 0.00077528 2.47574e-05
-0.00956098 -7.92252e-05 2.48469e-06 -0.00228431 0.00079355 2.64381e-05
-0.00948613 -5.59386e-05 3.551e-06 -0.00225471 0.000814778 2.74615e-05
-0.00948656 -3.39453e-05 3.50815e-06 -0.00224755 0.000837459 2.84239e-05
-0.00949197 -1.29396e-05 3.80321e-06 -0.00224806 0.00086014 3.00205e-05
-0.00949925 8.28779e-06 3.90871e-06 -0.00225065 0.00088523 3.15756e-05
-0.00950575 2.35663e-05 4.44961e-06 -0.0022556 0.000910962 3.261e-05
-0.00951144 3.16987e-05 5.67907e-06 -0.00226157 0.000936236 3.35114e-05
-0.0095182 3.7428e-05 6.94315e-06 -0.00226869 0.000963179 3.44614e-05
-0.00952635 4.23704e-05 8.14638e-06 -0.00227889 0.000992952 3.53539e-05
-0.00953625 4.73475e-05 9.25859e-06 -0.00229239 0.0010222 3.64351e-05
-0.0095482 5.2269e-05 1.0428e-05 -0.00230785 0.00104887 3.7769e-05
-0.00956204 5.68737e-05 1.16649e-05 -0.00232473 0.00107393 3.91175e-05
-0.00957713 6.07518e-05 1.28918e-05 -0.00234363 0.00109816 4.02965e-05
-0.00959277 6.35957e-05 1.40455e-05 -0.00255209 0.00111639 4.14511e-05
-0.00960843 6.5279e-05 1.50494e-05 -0.00280719 0.00113659 4.19171e-05
-0.00962559 6.6011e-05 1.58861e-05 -0.00305172 0.00114713 4.32021e-05
-0.00971356 6.58348e-05 1.65088e-05 -0.00327348 0.00115394 4.43675e-05
-0.00979524 6.42814e-05 1.71516e-05 -0.0034724 0.00115409 4.56987e-05
-0.00986585 6.1276e-05 1.74619e-05 -0.00364744 0.00115169 4.70007e-05
-0.00992342 5.66224e-05 1.75746e-05 -0.0037964 0.00114783 4.79963e-05
-0.0099688 5.04548e-05 1.75018e-05 -0.00390563 0.00114202 4.89701e-05
-0.010003 4.29118e-05 1.72447e-05 -0.00397617 0.00113391 5.00396e-05
-0.0100298 3.40108e-05 1.67714e-05 -0.00402442 0.00112311 5.1206e-05
-0.0100513 2.36403e-05 1.61111e-05 -0.00405908 0.00111139 5.26934e-05
-0.0100638 1.14704e-05 1.50804e-05 -0.0041028 0.00110497 5.28931e-05
-0.0100645 -1.8858e-06 1.37084e-05 -0.00411878 0.00109151 5.44716e-05
-0.0100628 -1.59796e-05 1.24487e-05 -0.00413257 0.00107816 5.52819e-05
-0.0100606 -3.05061e-05 1.12449e-05 -0.00413688 0.00106351 5.58541e-05
-0.0100572 -4.55021e-05 9.87013e-06 -0.00413587 0.00104687 5.69535e-05
-0.0100523 -6.08159e-05 8.25491e-06 -0.00413339 0.00101575 5.75268e-05
-0.0100458 -7.70036e-05 6.68313e-06 -0.00412895 0.000970788 5.87564e-05
-0.0100379 -9.39695e-05 5.30305e-06 -0.00412301 0.000926931 5.92715e-05
-0.010029 -0.000110399 3.9675e-06 -0.00411553 0.000882658 6.00961e-05
-0.0100203 -0.000124506 2.55144e-06 -0.00410689 0.000840932 6.06352e-05
-0.0100121 -0.000136722 1.28938e-06 -0.004098 0.000803483 6.12044e-05
-0.010005 -0.000147363 2.61367e-07 -0.00408964 0.000771487 6.17178e-05
-0.00999922 -0.000156172 -6.20864e-07 -0.00408251 0.000745295 6.22028e-05
-0.00998923 -0.00016293 -1.34669e-06 -0.00407716 0.000725389 6.26336e-05
-0.00996313 -0.000167655 -1.75705e-06 -0.00407426 0.000712415 6.29391e-05
-0.00995858 -0.000170036 -1.95989e-06 -0.00407374 0.000707058 6.3086e-05
-0.00996027 -0.000169665 -1.96256e-06 -0.00407588 0.000707813 6.31762e-05
-0.0099729 -0.00016718 -2.97497e-06 -0.00408003 0.000711591 6.24663e-05
-0.00999224 -0.000162824 -6.32247e-06 -0.00408579 0.00071769 5.90226e-05
-0.0100131 -0.000156055 -1.18816e-05 -0.00409275 0.000726745 5.33872e-05
-0.0100326 -0.00014721 -1.90154e-05 -0.00410018 0.000738153 4.58772e-05
-0.010046 -0.000138022 -2.10532e-05 -0.00410734 0.000751318 3.80588e-05
-0.0100508 -0.000128095 -2.21922e-05 -0.00411328 0.000765745 3.03555e-05
-0.0100526 -0.000117444 -2.3278e-05 -0.00411773 0.000781095 2.23456e-05
-0.010065 -0.000105792 -2.48153e-05 -0.00412115 0.000796389 1.30991e-05
-0.0100729 -9.34565e-05 -2.64947e-05 -0.00412261 0.000811508 3.12427e-06
-0.0100723 -8.12964e-05 -2.80817e-05 -0.00412078 0.000825686 -5.04754e-06
-0.0100693 -6.86578e-05 -2.93939e-05 -0.00411532 0.000838534 -9.12435e-06
-0.010064 -5.59779e-05 -3.05578e-05 -0.00410599 0.000866839 -1.0134e-05
-0.0100567 -4.33151e-05 -3.16356e-05 -0.00409364 0.000897417 -9.49781e-06
-0.00998305 -3.06721e-05 -3.27835e-05 -0.00407888 0.000925374 -8.9251e-06
-0.0098705 -1.82707e-05 -3.38977e-05 -0.00406269 0.000950984 -8.41674e-06
-0.00974933 -6.30518e-06 -3.50089e-05 -0.00404566 0.00097554 -8.48149e-06
-0.00962748 5.40224e-06 -3.62092e-05 -0.00402856 0.00100001 -8.86639e-06
-0.00951031 1.70026e-05 -3.74055e-05 -0.00386427 0.00102924 -9.28887e-06
-0.00940457 2.86672e-05 -3.86044e-05 -0.00366796 0.00105695 -8.84934e-06
-0.00931039 4.00206e-05 -3.97255e-05 -0.00349932 0.00108543 -8.69451e-06
-0.00923048 5.09404e-05 -4.08059e-05 -0.00335517 0.00111125 -8.0394e-06
-0.00916726 6.12891e-05 -4.18279e-05 -0.00324123 0.00113735 -8.09991e-06
-0.00912159 7.10656e-05 -4.28069e-05 -0.00315042 0.00116221 -8.21416e-06
-0.00909104 8.02046e-05 -4.3745e-05 -0.00308443 0.0011857 -8.43312e-06
-0.00907255 8.86362e-05 -4.46256e-05 -0.00304218 0.00120681 -8.43612e-06
-0.00906367 9.62884e-05 -4.54286e-05 -0.00301595 0.00122528 -8.17385e-06
-0.00906086 0.000103023 -4.61461e-05 -0.0029984 0.00124109 -7.8702e-06
-0.00905892 0.00010865 -4.67974e-05 -0.00298455 0.00125428 -7.76445e-06
-0.00905283 0.000113052 -4.73974e-05 -0.00296916 0.0012642 -7.85259e-06
-0.00903909 0.000116216 -4.7944e-05 -0.00294524 0.00127036 -8.07539e-06
-0.00901524 0.00011817 -4.84304e-05 -0.00290667 0.0012725 -8.24235e-06
-0.00897877 0.000118872 -4.88501e-05 -0.0028562 0.00127176 -8.15344e-06
-0.00893193 0.000118276 -4.92085e-05 -0.0027926 0.00126962 -8.07807e-06
-0.00887544 0.000116354 -4.92012e-05 -0.00271706 0.00126612 -8.06445e-06
-0.00880923 0.000113034 -4.81763e-05 -0.00262895 0.00126123 -6.89919e-06
-0.00873362 0.000108443 -4.5883e-05 -0.00252784 0.00125473 -4.36296e-06
-0.00864937 0.000102756 -4.2162e-05 -0.00241433 0.00124685 -8.92622e-07
-0.00855856 9.62149e-05 -3.76165e-05 -0.00229321 0.00123848 1.28148e-06
-0.00846459 8.90696e-05 -3.30891e-05 -0.00217032 0.00122991 3.13747e-06
-0.00837123 8.15801e-05 -2.84882e-05 -0.00204942 0.0012209 5.13612e-06
-0.00828221 7.39399e-05 -2.33413e-05 -0.00193769 0.00121215 6.49976e-06
-0.00820223 6.63763e-05 -1.74892e-05 -0.00184114 0.00120387 8.3146e-06
-0.00813549 5.91306e-05 -1.12135e-05 -0.00176224 0.00119635 1.02799e-05
-0.008088 5.32242e-05 -5.14177e-06 -0.00170574 0.00119023 1.21327e-05
-0.0080634 4.89461e-05 3.93107e-07 -0.0016738 0.00118562 1.38483e-05
-0.00806066 4.66725e-05 4.68042e-06 -0.00166802 0.00118265 1.54938e-05
-0.00806342 4.68335e-05 6.33811e-06 -0.00167055 0.00118161 1.68334e-05
-0.00806864 4.78653e-05 5.93063e-06 -0.001676 0.00118245 1.78231e-05
-0.00807558 4.73343e-05 5.94425e-06 -0.00168412 0.00118418 1.92596e-05
-0.00808357 4.5583e-05 6.22097e-06 -0.00169474 0.00118719 2.06794e-05
-0.00809318 4.41801e-05 6.54133e-06 -0.00170769 0.00119188 2.17732e-05
-0.00810421 4.30682e-05 7.0658e-06 -0.0017224 0.00119754 2.27707e-05
-0.00811646 4.23072e-05 7.65499e-06 -0.0017386 0.00120426 2.39183e-05
-0.00812927 4.157e-05 8.22378e-06 -0.00175705 0.0012161 2.48652e-05
-0.00814236 4.08399e-05 8.59953e-06 -0.00177564 0.00122658 2.63097e-05
-0.00815563 4.00314e-05 8.9973e-06 -0.00180429 0.00123737 2.75865e-05
-0.0081687 3.89684e-05 9.51337e-06 -0.00200592 0.00124698 2.89059e-05
-0.00818131 3.74181e-05 1.00021e-05 -0.00220083 0.0012559 2.98732e-05
-0.00819328 3.52238e-05 1.03886e-05 -0.00238447 0.00125936 3.11354e-05
-0.008243 3.24787e-05 1.07096e-05 -0.00256532 0.00126302 3.25418e-05
-0.00832011 2.92848e-05 1.08707e-05 -0.00274129 0.00126531 3.37633e-05
-0.0083931 2.54524e-05 1.09115e-05 -0.00291141 0.00126598 3.54101e-05
-0.00845893 2.08184e-05 1.08933e-05 -0.00307211 0.00126521 3.6724e-05
-0.00851619 1.5439e-05 1.08097e-05 -0.00321734 0.00126272 3.82108e-05
-0.00856284 9.33699e-06 1.06687e-05 -0.00334419 0.00125885 3.94655e-05
-0.00859734 2.59685e-06 1.03989e-05 -0.00344723 0.00125322 4.08704e-05
-0.00861858 -4.68515e-06 9.98536e-06 -0.00352401 0.00124601 4.22976e-05
-0.00862632 -1.24207e-05 9.46618e-06 -0.00357289 0.00123736 4.37755e-05
-0.00862539 -2.0895e-05 8.86277e-06 -0.00359417 0.00122748 4.51875e-05
-0.00862235 -3.06434e-05 8.27247e-06 -0.00359449 0.00121622 4.64625e-05
-0.00861746 -4.14221e-05 7.65496e-06 -0.00359163 0.00120352 4.76986e-05
-0.00861162 -5.11938e-05 7.00727e-06 -0.00358681 0.00119031 4.88375e-05
-0.00860519 -5.979e-05 6.24351e-06 -0.00358016 0.00117727 4.98683e-05
-0.00859808 -6.79417e-05 5.53104e-06 -0.00357177 0.00116449 5.08986e-05
-0.00859051 -7.54204e-05 4.83284e-06 -0.00356191 0.00115227 5.17941e-05
-0.00858269 -8.20666e-05 4.20603e-06 -0.00355103 0.00114103 5.25163e-05
-0.00857494 -8.75864e-05 3.68613e-06 -0.00353995 0.00112003 5.2993e-05
-0.00851268 -9.19548e-05 3.30271e-06 -0.00352948 0.00109901 5.3369e-05
-0.00844656 -9.48849e-05 2.92137e-06 -0.00352013 0.00108211 5.35119e-05
-0.00838719 -9.64678e-05 2.71339e-06 -0.0035122 0.00107021 5.35177e-05
-0.00833873 -9.62929e-05 1.41847e-06 -0.00350609 0.00106465 5.21191e-05
-0.00830373 -9.41969e-05 -1.66753e-06 -0.00350221 0.00106471 4.92367e-05
-0.00828269 -9.02507e-05 -6.22804e-06 -0.00350054 0.0010676 4.47405e-05
-0.00827415 -8.46807e-05 -1.12761e-05 -0.00350086 0.00107293 3.89236e-05
-0.00827353 -7.82631e-05 -1.21894e-05 -0.00350286 0.00108045 3.31643e-05
-0.00827452 -7.02054e-05 -1.33722e-05 -0.00350621 0.00109003 2.72779e-05
-0.00827601 -6.08741e-05 -1.45923e-05 -0.00351032 0.00111513 2.11225e-05
-0.00827817 -5.06307e-05 -1.60004e-05 -0.00351485 0.00114841 1.38486e-05
-0.0082814 -4.05848e-05 -1.74685e-05 -0.00351931 0.0011833 5.89879e-06
-0.00828547 -3.0659e-05 -1.88787e-05 -0.00352322 0.00121835 -1.13214e-06
-0.00828937 -2.0652e-05 -2.01167e-05 -0.00352629 0.00125199 -5.59699e-06
-0.00829223 -1.06616e-05 -2.1132e-05 -0.00352855 0.00128275 -7.02965e-06
-0.00829378 -8.28012e-07 -2.20715e-05 -0.0035287 0.00131104 -7.41344e-06
-0.00829385 8.89327e-06 -2.29362e-05 -0.00352628 0.00133631 -6.70683e-06
-0.008292 1.8112e-05 -2.38018e-05 -0.0035211 0.00135843 -6.30089e-06
-0.00828791 2.6596e-05 -2.47269e-05 -0.00351293 0.00137679 -6.11257e-06
-0.0082814 3.42897e-05 -2.57064e-05 -0.0035013 0.00139142 -6.38551e-06
-0.00826746 4.13101e-05 -2.67283e-05 -0.00347013 0.0014024 -6.75473e-06
-0.00815277 4.77434e-05 -2.76245e-05 -0.0032438 0.00141381 -6.9382e-06
-0.0080169 5.38126e-05 -2.86726e-05 -0.00298298 0.00142061 -6.48063e-06
-0.00786074 5.91851e-05 -2.95647e-05 -0.0026874 0.00142557 -6.35625e-06
-0.00769247 6.39734e-05 -3.04253e-05 -0.00237403 0.00142869 -6.02813e-06
-0.00752086 6.82903e-05 -3.1262e-05 -0.00205418 0.00143139 -6.25516e-06
-0.00735441 7.22866e-05 -3.20562e-05 -0.00174335 0.00143409 -6.42417e-06
-0.00720187 7.61266e-05 -3.27733e-05 -0.00145905 0.0014377 -6.60557e-06
-0.00707162 7.99569e-05 -3.33755e-05 -0.00121425 0.00144292 -6.49577e-06
-0.00696911 8.38325e-05 -3.38475e-05 -0.00101805 0.00145041 -6.27289e-06
-0.00689616 8.77315e-05 -3.4205e-05 -0.000874186 0.00146049 -6.07679e-06
-0.00685293 9.17867e-05 -3.44395e-05 -0.000784115 0.00147337 -6.06247e-06
-0.00684168 9.68628e-05 -3.46445e-05 -0.000745585 0.00148945 -6.16847e-06
-0.00684363 0.000102965 -3.4734e-05 -0.00074503 0.00150863 -6.26071e-06
-0.00684798 0.000109468 -3.47832e-05 -0.000749472 0.00153076 -6.21179e-06
-0.00685309 0.000113111 -3.44997e-05 -0.000756538 0.00155315 -6.01866e-06
-0.00685919 0.000115736 -3.41763e-05 -0.000765108 0.00157578 -5.75683e-06
-0.00686582 0.000117712 -3.35249e-05 -0.000774746 0.00159814 -4.95627e-06
-0.00687236 0.000118813 -3.18709e-05 -0.00078463 0.00161912 -2.99436e-06
-0.00687826 0.000118905 -2.89723e-05 -0.000793812 0.00163797 -3.5898e-07
-0.00688306 0.000117945 -2.52412e-05 -0.000801481 0.0016545 1.20786e-06
-0.00688639 0.000115922 -2.11507e-05 -0.000807184 0.00166763 3.42275e-06
-0.00688812 0.000112829 -1.64288e-05 -0.00081005 0.0016783 5.20386e-06
-0.00688828 0.000108721 -1.08809e-05 -0.000810139 0.00168553 7.36634e-06
-0.00688674 0.000103512 -4.09375e-06 -0.000807977 0.00168926 9.86147e-06
-0.00688363 9.73587e-05 3.44519e-06 -0.000803594 0.00168984 1.27277e-05
-0.00687934 9.0837e-05 9.23365e-06 -0.000797325 0.00168908 1.54349e-05
-0.00687423 8.46379e-05 1.11538e-05 -0.000789433 0.00168767 1.74096e-05
-0.00686845 7.8722e-05 1.07054e-05 -0.000780192 0.00168568 1.91974e-05
-0.00686218 7.2667e-05 1.0333e-05 -0.000769801 0.00168135 2.14374e-05
-0.00685594 6.66257e-05 9.89311e-06 -0.000759154 0.00167706 2.43407e-05
-0.00684999 6.04067e-05 9.64555e-06 -0.000748982 0.00167334 2.63514e-05
-0.00684463 5.40664e-05 9.62993e-06 -0.000705202 0.00167027 2.85726e-05
-0.00682945 4.80015e-05 9.59496e-06 -0.000614279 0.00166806 3.06381e-05
-0.0067951 4.23003e-05 9.63114e-06 -0.000540419 0.00166686 3.28722e-05
-0.00677533 3.72922e-05 9.57932e-06 -0.000484612 0.00166655 3.53044e-05
-0.00676863 3.28426e-05 9.56277e-06 -0.000446313 0.00166735 3.7723e-05
-0.00676923 2.8835e-05 9.71153e-06 -0.000425279 0.00166938 3.99768e-05
-0.00677102 2.52832e-05 9.99915e-06 -0.000420394 0.00167264 4.20547e-05
-0.00677394 2.22686e-05 1.03739e-05 -0.000421394 0.00167716 4.40222e-05
-0.00677787 1.98746e-05 1.07803e-05 -0.0004235 0.00168278 4.6036e-05
-0.00678264 1.81076e-05 1.11935e-05 -0.000426453 0.00168939 4.80941e-05
-0.00678809 1.68676e-05 1.16323e-05 -0.000429979 0.00170869 5.01779e-05
-0.00679416 1.60089e-05 1.21384e-05 -0.000434188 0.00173114 5.20559e-05
-0.00680088 1.54129e-05 1.27226e-05 -0.000439275 0.00175532 5.38729e-05
-0.00680835 1.50277e-05 1.33565e-05 -0.000445563 0.00178087 5.55192e-05
-0.00681666 1.48364e-05 1.39963e-05 -0.000453264 0.00180697 5.7209e-05
-0.00682576 1.47723e-05 1.46159e-05 -0.000462455 0.00183318 5.89071e-05
-0.00683541 1.46961e-05 1.52065e-05 -0.000472869 0.00185873 6.06353e-05
-0.00684525 1.44346e-05 1.5781e-05 -0.000484069 0.00188291 6.23014e-05
-0.00685495 1.3835e-05 1.63413e-05 -0.000495613 0.00190499 6.38749e-05
-0.00686428 1.27991e-05 1.68615e-05 -0.000507236 0.00192428 6.53861e-05
-0.0068737 1.12779e-05 1.73059e-05 -0.000518986 0.00194005 6.69309e-05
-0.00688346 9.21222e-06 1.78701e-05 -0.000530942 0.00195064 7.12714e-05
-0.00689369 6.71492e-06 1.81872e-05 -0.000543106 0.001956 7.53619e-05
-0.00690444 3.63637e-06 1.83156e-05 -0.000555753 0.0019577 7.92154e-05
-0.00692747 -2.45014e-07 1.84679e-05 -0.000568898 0.00195621 8.34429e-05
-0.00699841 -4.85122e-06 1.86175e-05 -0.000582419 0.0019531 8.80476e-05
-0.00705739 -1.01922e-05 1.87335e-05 -0.000657729 0.00194779 9.26955e-05
-0.00711512 -1.60509e-05 1.86976e-05 -0.000825477 0.00194079 9.69817e-05
-0.0071718 -2.23894e-05 1.84904e-05 -0.000998975 0.00193173 0.000101038
-0.0072223 -3.03506e-05 1.82412e-05 -0.00117396 0.00192066 0.000104712
-0.007265 -4.00354e-05 1.80111e-05 -0.00134698 0.00190721 0.000108516
-0.00729862 -5.13379e-05 1.77667e-05 -0.00151507 0.00189171 0.000112009
-0.00732313 -6.30601e-05 1.75347e-05 -0.00167364 0.00187461 0.000115143
-0.00734787 -7.18572e-05 1.69087e-05 -0.0018196 0.00185693 0.000117682
-0.00736463 -8.00237e-05 1.62658e-05 -0.00194754 0.00183858 0.000119552
-0.00737106 -8.80215e-05 1.55827e-05 -0.00205423 0.00181948 0.000120916
-0.00737055 -9.57149e-05 1.48883e-05 -0.0021377 0.00179995 0.000121777
-0.0073691 -0.00010283 1.41537e-05 -0.00219416 0.00178079 0.000121906
-0.00736719 -0.000108798 1.32412e-05 -0.00222233 0.00176246 0.000120988
-0.00736487 -0.0001134 1.07316e-05 -0.00224081 0.00174491 0.000118413
-0.00736227 -0.000116651 6.61879e-06 -0.0022479 0.00172833 0.000114131
-0.00735968 -0.000118398 9.27164e-07 -0.00224854 0.00171309 0.000107987
-0.00735722 -0.00011853 -6.49811e-06 -0.00224803 0.00169932 0.00010006
-0.00735486 -0.000117402 -1.36302e-05 -0.00224697 0.00168725 9.08335e-05
-0.00735237 -0.0001163 -1.51788e-05 -0.00224497 0.00167696 8.19065e-05
-0.00735045 -0.000113802 -1.70784e-05 -0.00224225 0.00166884 7.27618e-05
-0.00734914 -0.000110081 -1.89552e-05 -0.00223931 0.0016628 6.29262e-05
-0.00734891 -0.000104873 -2.10558e-05 -0.00223697 0.00165896 5.15439e-05
-0.00735022 -9.82519e-05 -2.32838e-05 -0.00223605 0.00165726 3.901e-05
-0.00735336 -9.05365e-05 -2.5531e-05 -0.00223784 0.00165743 2.5732e-05
-0.00735857 -8.19783e-05 -2.7756e-05 -0.00224267 0.00165932 1.22652e-05
-0.00736608 -7.26353e-05 -2.98583e-05 -0.0022576 0.00166266 2.96518e-08
-0.00740563 -6.27426e-05 -3.15847e-05 -0.00237626 0.00166575 -8.48331e-06
-0.00749762 -5.20732e-05 -3.29854e-05 -0.0025186 0.00166854 -9.59436e-06
-0.00760002 -4.09884e-05 -3.41473e-05 -0.00267538 0.00167136 -8.98551e-06
-0.00770722 -2.98501e-05 -3.52554e-05 -0.00283873 0.00167408 -7.78171e-06
-0.00781306 -1.91972e-05 -3.63809e-05 -0.00299864 0.00167676 -6.98328e-06
-0.00791177 -9.47098e-06 -3.75347e-05 -0.00315761 0.00167999 -7.19882e-06
-0.00800026 -6.63438e-07 -3.87772e-05 -0.00329397 0.00168211 -8.09794e-06
-0.00807695 7.35246e-06 -4.00637e-05 -0.00339445 0.00168297 -8.50988e-06
-0.0081379 1.43374e-05 -4.13386e-05 -0.00347312 0.00168565 -8.31016e-06
-0.00817749 1.9767e-05 -4.27324e-05 -0.00354764 0.00169146 -8.20934e-06
-0.00819775 2.35269e-05 -4.43006e-05 -0.00360353 0.00169677 -8.11351e-06
-0.00820735 2.57874e-05 -4.58375e-05 -0.00362852 0.00170132 -8.53857e-06
-0.00821077 2.66971e-05 -4.72806e-05 -0.00362917 0.00170297 -9.5398e-06
-0.00821028 2.6231e-05 -4.87635e-05 -0.00362609 0.00170145 -1.0286e-05
-0.00820871 2.42828e-05 -5.03579e-05 -0.00362237 0.00169911 -1.10054e-05
-0.00820626 2.09263e-05 -5.20504e-05 -0.00361793 0.00169599 -1.13343e-05
-0.00820337 1.62835e-05 -5.37365e-05 -0.00361224 0.00169128 -1.14736e-05
-0.0082001 1.04011e-05 -5.53713e-05 -0.00360503 0.00168425 -1.19732e-05
-0.00819613 3.34165e-06 -5.70192e-05 -0.00359633 0.00167523 -1.28307e-05
-0.00819099 -4.83849e-06 -5.8719e-05 -0.00358619 0.00166506 -1.39913e-05
-0.00818433 -1.39684e-05 -6.04949e-05 -0.00357413 0.00164916 -1.48576e-05
-0.00817611 -2.382e-05 -6.23274e-05 -0.00356024 0.00161016 -1.54287e-05
-0.00816664 -3.41871e-05 -6.41624e-05 -0.00354451 0.00156897 -1.58809e-05
-0.00815643 -4.48867e-05 -6.59707e-05 -0.00352772 0.00152477 -1.65661e-05
-0.00814609 -5.57097e-05 -6.77762e-05 -0.00351055 0.00147963 -1.74481e-05
-0.00813621 -6.64204e-05 -6.95872e-05 -0.00349414 0.00143648 -1.84641e-05
-0.00812735 -7.67297e-05 -7.13988e-05 -0.00347953 0.00139656 -1.93614e-05
-0.00811999 -8.6365e-05 -7.31771e-05 -0.00346727 0.00135903 -1.99452e-05
-0.00811449 -9.50951e-05 -7.48944e-05 -0.00337619 0.00132682 -2.05939e-05
-0.00811095 -0.000102717 -7.654e-05 -0.00326193 0.00129599 -2.0958e-05
-0.00810891 -0.000109344 -7.81162e-05 -0.00317873 0.00127079 -2.16118e-05
-0.00810341 -0.000129342 -7.99832e-05 -0.00312504 0.00124627 -2.27914e-05
-0.00809797 -0.000150943 -8.06412e-05 -0.0030699 0.00122295 -2.26969e-05
-0.00809816 -0.00017155 -8.13711e-05 -0.00303272 0.00121662 -2.3808e-05
-0.0081129 -0.000192655 -8.27388e-05 -0.00303457 0.00120892 -2.45442e-05
-0.00812697 -0.00021031 -8.3778e-05 -0.00303389 0.00120357 -2.50065e-05
-0.00814068 -0.000225897 -8.47125e-05 -0.00303495 0.00119887 -2.49302e-05
-0.00815391 -0.000239321 -8.57105e-05 -0.0030386 0.00120078 -2.56226e-05
-0.00816615 -0.000249511 -8.68278e-05 -0.00304347 0.00120582 -2.59946e-05
-0.00817723 -0.000256598 -8.79366e-05 -0.00304876 0.00121338 -2.64672e-05
-0.00818742 -0.00026156 -8.89234e-05 -0.00305459 0.00122149 -2.67399e-05
-0.00819696 -0.000264523 -8.98427e-05 -0.00309943 0.00122977 -2.67557e-05
-0.00820607 -0.000265341 -9.07184e-05 -0.00318645 0.0012399 -2.69285e-05
-0.00824194 -0.000263737 -9.166e-05 -0.00328816 0.0012523 -2.7119e-05
-0.008313 -0.000260045 -9.26411e-05 -0.00340779 0.00126659 -2.73351e-05
-0.00838915 -0.000254928 -9.3589e-05 -0.00354247 0.0012813 -2.75523e-05
-0.00847166 -0.000246598 -0.000107811 -0.00367763 0.00129604 -2.96944e-05
-0.00855456 -0.000236958 -0.000120762 -0.00381588 0.001312 -3.07129e-05
-0.00863334 -0.000226393 -0.000131071 -0.00394957 0.00132844 -2.97567e-05
-0.00870205 -0.000216001 -0.00014166 -0.00406733 0.0013559 -2.89581e-05
-0.00875368 -0.000206645 -0.000154153 -0.00416055 0.00139216 -3.03329e-05
-0.00878169 -0.000198322 -0.000167533 -0.00421964 0.00142502 -3.22329e-05
-0.00878381 -0.00019147 -0.00017927 -0.00423986 0.00145606 -3.39047e-05
-0.00877847 -0.00018666 -0.000188062 -0.00423728 0.00148201 -3.41683e-05
-0.00876817 -0.000184528 -0.000194482 -0.00423046 0.00150006 -3.28683e-05
-0.00875313 -0.000185079 -0.000200657 -0.00421967 0.00151148 -3.24614e-05
-0.00873381 -0.000188243 -0.000203088 -0.00420527 0.00151915 -3.31939e-05
-0.00871108 -0.000193014 -0.000203992 -0.0041878 0.00152374 -3.39657e-05
-0.00868597 -0.000198881 -0.000204223 -0.00416802 0.00152421 -3.4314e-05
-0.00865972 -0.000205571 -0.000203529 -0.00399124 0.0015237 -3.41178e-05
-0.00863289 -0.000211539 -0.000202997 -0.0036918 0.0015215 -3.35258e-05
-0.00860517 -0.000217468 -0.000203086 -0.00339725 0.00151913 -3.35915e-05
-0.00846799 -0.000222801 -0.000202763 -0.00311375 0.00151579 -3.2504e-05
-0.00822742 -0.000226958 -0.000200515 -0.00284541 0.0015125 -3.00677e-05
-0.00798992 -0.000229428 -0.000196507 -0.00257383 0.00150912 -2.67253e-05
-0.00775945 -0.000230574 -0.000191397 -0.00231999 0.00150705 -2.20622e-05
-0.00753826 -0.000230054 -0.000185409 -0.00210115 0.00150611 -1.64086e-05
-0.00732919 -0.000227161 -0.000178829 -0.00190929 0.00150731 -1.25555e-05
-0.00713336 -0.00022179 -0.000172333 -0.00174836 0.00151005 -1.10686e-05
-0.00695911 -0.000213926 -0.000166164 -0.00160846 0.00151061 -8.78305e-06
-0.0068115 -0.000203877 -0.000159302 -0.00149799 0.00151037 -6.13998e-06
-0.00669653 -0.000191372 -0.000151244 -0.00143385 0.00151089 -3.79633e-06
-0.00662321 -0.00017624 -0.000142721 -0.00142032 0.00151351 -1.87174e-06
-0.00658246 -0.000158328 -0.000134424 -0.00142386 0.00151833 -4.09072e-07
-0.00657156 -0.00013809 -0.00012608 -0.0014305 0.00152344 1.03234e-06
-0.00657308 -0.000116098 -0.000116892 -0.00143907 0.00153288 3.08844e-06
-0.00657595 -9.27357e-05 -0.000106526 -0.00144909 0.00154411 5.60461e-06
-0.0065793 -6.86619e-05 -9.56327e-05 -0.00145964 0.00155596 8.11083e-06
-0.00658362 -4.45173e-05 -8.42927e-05 -0.00146999 0.00156919 1.0472e-05
-0.00658971 -2.12426e-05 -7.25683e-05 -0.00147874 0.00158085 1.26342e-05
-0.00659815 5.17958e-07 -6.03005e-05 -0.00148457 0.00158789 1.51006e-05
-0.00660702 2.06818e-05 -4.72006e-05 -0.00148706 0.00159073 1.78632e-05
-0.00661434 3.89238e-05 -3.32705e-05 -0.0014865 0.00159097 2.08537e-05
-0.006618 5.24156e-05 -1.89778e-05 -0.0014831 0.00158996 2.36738e-05
-0.00661953 6.44538e-05 -4.96034e-06 -0.0014764 0.00158827 2.64164e-05
-0.00661808 7.33311e-05 7.19489e-06 -0.00146666 0.00158572 2.86575e-05
-0.00661244 7.55071e-05 1.10992e-05 -0.00145365 0.00158094 3.026e-05
-0.00660371 7.34227e-05 1.08809e-05 -0.00143829 0.00157627 3.11415e-05
-0.00659342 7.03057e-05 1.06325e-05 -0.00142173 0.00157226 3.32087e-05
-0.00658266 6.71299e-05 1.02416e-05 -0.00124764 0.00156937 3.55785e-05
-0.00657255 6.43861e-05 1.02025e-05 -0.00101946 0.00156514 3.78036e-05
-0.00648913 6.18352e-05 1.07857e-05 -0.000801968 0.00156207 3.87887e-05
-0.00640071 5.97851e-05 1.1374e-05 -0.00060366 0.00155935 3.97118e-05
-0.00631714 5.82422e-05 1.18581e-05 -0.000428774 0.00155872 4.10267e-05
-0.00624444 5.76874e-05 1.22433e-05 -0.000271514 0.00155978 4.27168e-05
-0.00618507 5.82469e-05 1.26772e-05 -0.000126231 0.00156139 4.49791e-05
-0.00613861 5.97517e-05 1.33858e-05 5.34311e-07 0.00156357 4.70612e-05
-0.00610358 6.20069e-05 1.44204e-05 0.00010693 0.00156698 4.86391e-05
-0.0060798 6.502e-05 1.55575e-05 0.000190803 0.00157221 5.00889e-05
-0.00606893 6.88987e-05 1.67933e-05 0.000248919 0.00157955 5.14489e-05
-0.0060692 7.38548e-05 1.8082e-05 0.000278788 0.00158824 5.3147e-05
-0.00607168 8.0022e-05 1.94813e-05 0.000290059 0.0016086 5.51902e-05
-0.00608006 8.90726e-05 2.11524e-05 0.00064648 0.00165697 5.59293e-05
-0.0060898 9.74541e-05 2.42284e-05 0.000846905 0.00175473 6.71854e-05
-0.00609603 0.000104173 2.51553e-05 0.00102141 0.00187628 5.42055e-05
-0.0061029 0.000110703 2.6268e-05 0.00123852 0.00197729 6.67623e-05
-0.00611247 0.000117731 2.84609e-05 0.0014004 0.00210283 6.16931e-05
-0.00612191 0.00012423 3.06206e-05 0.00157722 0.00221667 6.65139e-05
-0.00612921 0.000129215 3.17938e-05 0.0017574 0.002328 6.68791e-05
-0.00613568 0.000132928 3.2878e-05 0.00194374 0.00242817 7.0007e-05
-0.00614154 0.000135312 3.42411e-05 0.00213267 0.00252889 7.12094e-05
-0.00614571 0.000135848 3.54395e-05 0.00233652 0.00262168 7.29912e-05
-0.0061475 0.000134234 3.61308e-05 0.00255458 0.00270353 7.45799e-05
-0.00614693 0.000130066 3.64956e-05 0.0027894 0.00277489 7.64789e-05
-0.00614407 0.000123512 3.8113e-05 0.00304664 0.00283333 9.35309e-05
-0.00613909 0.000115866 3.86649e-05 0.00333553 0.00287588 0.000110258
-0.00613247 0.000106641 3.82192e-05 0.00375834 0.00290026 0.000127011
-0.00612347 9.49456e-05 3.79713e-05 0.00416736 0.00291274 0.000144386
-0.00610993 5.98048e-05 3.57404e-05 0.00459435 0.00288588 0.000150093
-0.00607867 -6.0124e-06 3.32787e-05 0.00618343 0.00232142 0.000181999
-0.00566657 -5.08955e-05 2.12715e-05 0.00630122 0.00236947 0.000146681
-0.00525948 -8.5972e-05 1.25256e-05 0.00634619 0.00238731 0.00017857
-0.00507385 -0.000104636 5.71788e-06 0.00666807 0.00233375 0.000194908
-0.00503777 -0.000108644 5.7328e-06 0.00672246 0.00236509 0.000197657
-0.00517881 -6.58899e-05 3.46754e-06 0.00620851 0.00157166 0.00026215
-0.00528701 -3.04958e-05 8.10078e-06 0.0052464 0.00188327 0.000163518
-0.00605565 1.24757e-05 8.85213e-06 0.00556662 0.00148598 0.000217742
-0.00669926 2.88391e-05 2.45513e-05 0.00561646 0.0014314 0.000221523
-0.00694512 2.53053e-05 3.41208e-05 0.00464448 0.00147089 0.000215458
-0.00696269 8.17023e-06 4.05125e-05 0.00456779 0.00144767 0.000236816
-0.00694988 -1.06812e-05 3.58193e-05 0.00411296 0.00145247 0.000239385
-0.00694233 -2.56671e-05 3.0641e-05 0.00313349 0.00148532 0.000226108
-0.00695307 -3.3067e-05 2.77397e-05 0.00261247 0.00148342 0.000232707
-0.00710848 -3.33521e-05 2.93001e-05 0.00202666 0.00148924 0.000233657
-0.00756121 -1.96211e-05 -8.72818e-06 0.00112085 0.00159109 2.99113e-05
-0.00795102 -1.95071e-05 5.32235e-06 -0.000109186 0.00170549 5.51773e-05
-0.00830215 -1.89365e-05 1.54674e-05 -0.000554873 0.00167695 5.1512e-05
-0.00856857 -2.3734e-05 3.05123e-05 -0.00122239 0.00169104 5.85545e-05
-0.00880267 -2.87451e-05 3.07178e-05 -0.00230112 0.00171647 5.00123e-05
-0.00902839 -3.57799e-05 3.10097e-05 -0.00288948 0.00172018 5.40198e-05
-0.00927451 -4.29897e-05 3.0461e-05 -0.00352895 0.00171827 5.99688e-05
-0.00954173 -5.06671e-05 2.97682e-05 -0.00430298 0.00173189 5.32034e-05
-0.00979725 -6.03397e-05 2.87194e-05 -0.00486739 0.00172918 5.52034e-05
-0.0100102 -7.31014e-05 2.72666e-05 -0.00528354 0.00172528 5.63894e-05
-0.0101869 -8.87025e-05 2.55943e-05 -0.00570209 0.00172058 5.55598e-05
-0.0103335 -0.00010646 2.34312e-05 -0.00611497 0.00171197 5.52965e-05
-0.0104417 -0.000126196 2.04748e-05 -0.00647134 0.0017015 5.37887e-05
-0.0105134 -0.000147685 1.70802e-05 -0.00672782 0.00168789 5.25478e-05
-0.0105621 -0.000170267 1.37073e-05 -0.00692608 0.00167126 5.15936e-05
-0.0105993 -0.00019301 1.04857e-05 -0.00709567 0.00165325 4.99647e-05
-0.0106304 -0.000215043 7.28634e-06 -0.00720812 0.00163293 4.8186e-05
-0.0106595 -0.00023587 4.19879e-06 -0.00724752 0.00156941 4.65347e-05
-0.0106809 -0.000256395 1.49883e-06 -0.00724728 0.00150474 4.43482e-05
-0.0106861 -0.000277088 -1.34433e-06 -0.00724368 0.0014218 4.21411e-05
-0.0106841 -0.000298353 -4.44226e-06 -0.00723677 0.00133464 4.0924e-05
-0.01068 -0.000319847 -7.74438e-06 -0.00722787 0.00125273 3.81772e-05
-0.010675 -0.00034093 -1.11097e-05 -0.00721732 0.00116494 3.62924e-05
-0.0106698 -0.000361296 -1.42848e-05 -0.00720588 0.00107863 3.40132e-05
-0.0106649 -0.000380303 -1.72726e-05 -0.00719377 0.000996613 3.21194e-05
-0.0106616 -0.000397517 -1.98594e-05 -0.00718225 0.000919745 3.00539e-05
-0.0106605 -0.000412404 -2.2037e-05 -0.00717192 0.00084709 2.83639e-05
-0.0106622 -0.000424795 -2.37803e-05 -0.00716317 0.000781221 2.66831e-05
-0.0106667 -0.000434823 -2.50593e-05 -0.0071564 0.000722655 2.52493e-05
-0.0106736 -0.000442815 -2.58969e-05 -0.00715223 0.000671699 2.41248e-05
-0.0106825 -0.000449235 -2.64112e-05 -0.00715107 0.000629587 2.31814e-05
-0.0107452 -0.00045471 -2.67172e-05 -0.00715291 0.000596128 2.24686e-05
-0.0108503 -0.000459449 -2.71817e-05 -0.00715791 0.000571258 2.19983e-05
-0.0109582 -0.000463939 -2.76121e-05 -0.00716613 0.000557279 2.19013e-05
-0.0110634 -0.000468391 -2.81102e-05 -0.0071818 0.000569801 2.06078e-05
-0.0111796 -0.000471933 -2.86248e-05 -0.00719569 0.000562061 2.06251e-05
-0.0113091 -0.000473685 -2.88932e-05 -0.00720894 0.000560711 2.33511e-05
-0.0114696 -0.000472919 -2.84235e-05 -0.00722684 0.000569878 2.23653e-05
-0.0116606 -0.000470112 -2.72364e-05 -0.00726665 0.000580853 2.35576e-05
-0.0118636 -0.000465837 -2.61121e-05 -0.00762719 0.000589071 2.38203e-05
-0.0120723 -0.00046049 -2.49638e-05 -0.00799336 0.000595996 2.49608e-05
-0.0122813 -0.000454157 -2.36581e-05 -0.0082007 0.000602435 2.69787e-05
-0.0124791 -0.000447258 -2.21683e-05 -0.00820027 0.000615982 2.65413e-05
-0.0125426 -0.00043944 -2.11117e-05 -0.00819995 0.000629772 2.83742e-05
-0.0125436 -0.000431155 -1.94534e-05 -0.00820365 0.000643587 2.87392e-05
-0.0125693 -0.000422177 -1.83224e-05 -0.00823046 0.000655821 2.91202e-05
-0.012595 -0.000412802 -1.7724e-05 -0.00823404 0.000669365 2.84343e-05
-0.0126206 -0.000402473 -1.83788e-05 -0.00823485 0.000684304 2.69284e-05
-0.0126448 -0.000391456 -1.96995e-05 -0.00830122 0.000699611 2.46519e-05
-0.0126682 -0.000380156 -2.15191e-05 -0.00841874 0.000714077 2.17688e-05
-0.0126897 -0.000369058 -2.34586e-05 -0.0085142 0.000727506 1.89681e-05
-0.0127099 -0.000358422 -2.55085e-05 -0.00854915 0.000740744 1.59546e-05
-0.0127284 -0.000348261 -2.75492e-05 -0.00854776 0.000753822 1.353e-05
-0.0127447 -0.000338572 -2.93853e-05 -0.00854715 0.000766128 1.10609e-05
-0.0127571 -0.000329502 -3.08969e-05 -0.00854868 0.000777073 9.80561e-06
-0.0127663 -0.000321496 -3.18166e-05 -0.00856469 0.000786972 8.57495e-06
-0.0127712 -0.000316168 -3.17527e-05 -0.00856904 0.000794125 8.60868e-06
-0.012773 -0.000311938 -3.10896e-05 -0.00856708 0.000799981 8.53642e-06
-0.0127717 -0.000308645 -3.06787e-05 -0.00856419 0.000804546 8.5251e-06
-0.0127679 -0.000306235 -3.04371e-05 -0.00855929 0.00080827 8.39629e-06
-0.0127619 -0.000304707 -3.00603e-05 -0.00855228 0.000811033 8.21114e-06
-0.0127538 -0.000304032 -2.92357e-05 -0.00854245 0.000812491 8.47478e-06
-0.012744 -0.000304055 -2.82266e-05 -0.00853008 0.00081272 8.90983e-06
-0.012733 -0.000304856 -2.72727e-05 -0.00851607 0.000812125 9.63918e-06
-0.0127215 -0.000305741 -2.65358e-05 -0.00850105 0.000810826 1.03337e-05
-0.01271 -0.000306514 -2.60668e-05 -0.00848512 0.000808851 1.11224e-05
-0.012698 -0.000308962 -2.5665e-05 -0.00846804 0.000805334 1.16564e-05
-0.0126855 -0.000311836 -2.5181e-05 -0.00845045 0.000801691 1.24737e-05
-0.0126729 -0.000314212 -2.44224e-05 -0.00843359 0.000798538 1.32052e-05
-0.0126608 -0.000316014 -2.36997e-05 -0.00841783 0.000795817 1.41452e-05
-0.0126496 -0.000317534 -2.32622e-05 -0.00840326 0.000793635 1.48416e-05
-0.0126398 -0.000318484 -2.31688e-05 -0.00838967 0.000791729 1.52656e-05
-0.0126314 -0.00031859 -2.33061e-05 -0.00837728 0.000790463 1.54583e-05
-0.0126244 -0.000317942 -2.3533e-05 -0.00836678 0.000790309 1.53167e-05
-0.0126188 -0.000316731 -2.40053e-05 -0.00835839 0.000790325 1.47892e-05
-0.0126147 -0.000314973 -2.4966e-05 -0.00835206 0.000790825 1.39924e-05
-0.0126125 -0.000312345 -2.64509e-05 -0.00834792 0.000792657 1.27075e-05
-0.0126123 -0.000308891 -2.83583e-05 -0.00834596 0.00079554 1.09314e-05
-0.0126139 -0.000304597 -3.03756e-05 -0.00834622 0.000799336 8.79005e-06
-0.0126172 -0.000299659 -3.08179e-05 -0.00834877 0.000804003 7.05156e-06
-0.0126221 -0.000294147 -3.03731e-05 -0.0083532 0.000808769 7.20733e-06
-0.0126283 -0.000288119 -3.0014e-05 -0.00835917 0.000813951 6.83139e-06
-0.0126358 -0.000281797 -2.95599e-05 -0.0083667 0.00082008 6.4884e-06
-0.0126443 -0.00027523 -2.90391e-05 -0.00837548 0.000826199 6.64664e-06
-0.0126535 -0.000268518 -2.85301e-05 -0.00838501 0.000832136 6.99713e-06
-0.0126627 -0.000264414 -2.80752e-05 -0.00839512 0.000838098 7.38084e-06
-0.0126717 -0.000260889 -2.74749e-05 -0.00840533 0.000843544 7.70975e-06
-0.0126799 -0.000257858 -2.69563e-05 -0.00841475 0.000848189 7.89557e-06
-0.0126868 -0.000255407 -2.65298e-05 -0.00842271 0.000852393 8.08426e-06
-0.0126917 -0.000253627 -2.62217e-05 -0.00842889 0.000856306 8.03453e-06
-0.0126943 -0.000252584 -2.60405e-05 -0.00843285 0.000859428 8.06655e-06
-0.0126946 -0.000252277 -2.60069e-05 -0.00843473 0.000861439 8.29648e-06
-0.0126923 -0.000252812 -2.54027e-05 -0.00843486 0.000862665 8.71645e-06
-0.0126873 -0.000254475 -2.46705e-05 -0.00843288 0.000863113 9.05252e-06
-0.0126798 -0.000256871 -2.44939e-05 -0.00842854 0.000862677 9.1095e-06
-0.0126724 -0.000260145 -2.4138e-05 -0.00842165 0.000861533 9.77092e-06
-0.012664 -0.000263362 -2.37862e-05 -0.00841271 0.000859462 1.02581e-05
-0.0126553 -0.000265974 -2.34285e-05 -0.0084023 0.000857072 1.09416e-05
-0.0126462 -0.000269222 -2.30291e-05 -0.00839054 0.000853793 1.1471e-05
-0.0126364 -0.000273234 -2.24912e-05 -0.00837748 0.000849329 1.22408e-05
-0.0126265 -0.000276309 -2.20953e-05 -0.00836435 0.000845636 1.30309e-05
-0.0126169 -0.000278298 -2.17048e-05 -0.0083518 0.000842443 1.38468e-05
-0.0126079 -0.000279773 -2.12419e-05 -0.00834012 0.000839726 1.48278e-05
-0.0126001 -0.000280772 -2.07332e-05 -0.00832945 0.00083745 1.55777e-05
-0.0125937 -0.000281274 -2.0259e-05 -0.00831978 0.000835551 1.63205e-05
-0.0125885 -0.000281243 -1.98512e-05 -0.00831166 0.000834837 1.69167e-05
-0.0125846 -0.000280493 -1.95005e-05 -0.00830542 0.000834521 1.7288e-05
-0.0125823 -0.000278482 -1.92925e-05 -0.00830095 0.000834578 1.77803e-05
-0.0125817 -0.000275528 -1.90883e-05 -0.00829827 0.000836023 1.80183e-05
-0.0125827 -0.000271774 -1.8958e-05 -0.00829724 0.000838643 1.80495e-05
-0.012585 -0.000267372 -1.91429e-05 -0.00829761 0.00084158 1.77884e-05
-0.0125886 -0.000261941 -1.95079e-05 -0.00829926 0.000845062 1.73377e-05
-0.0125932 -0.000255627 -1.99652e-05 -0.00830202 0.000849419 1.67405e-05
-0.0125987 -0.000248745 -2.05592e-05 -0.00830561 0.000854333 1.60335e-05
-0.0126033 -0.00024528 -2.1447e-05 -0.00830971 0.000858994 1.50532e-05
-0.0126085 -0.000241414 -2.23845e-05 -0.00831431 0.000863363 1.40489e-05
-0.0126138 -0.000237716 -2.30157e-05 -0.0083194 0.000868273 1.311e-05
-0.012619 -0.000234096 -2.33832e-05 -0.00832448 0.000873127 1.2286e-05
-0.0126241 -0.000230723 -2.31791e-05 -0.00832928 0.000877555 1.18356e-05
-0.012629 -0.000227578 -2.25792e-05 -0.00833383 0.000882617 1.17174e-05
-0.0126335 -0.000224644 -2.20089e-05 -0.00833803 0.000895698 1.17941e-05
-0.0126374 -0.000221988 -2.14513e-05 -0.00834183 0.00090843 1.20105e-05
-0.0126406 -0.000219768 -2.06832e-05 -0.00834486 0.0009192 1.24949e-05
-0.0126429 -0.000218066 -1.9685e-05 -0.00834703 0.000928598 1.32369e-05
-0.0126443 -0.000216927 -1.84516e-05 -0.0083484 0.000936827 1.43032e-05
-0.0126449 -0.000216304 -1.70261e-05 -0.00834904 0.000943321 1.57443e-05
-0.0126447 -0.000216111 -1.54282e-05 -0.008349 0.000948236 1.74322e-05
-0.0126441 -0.00021623 -1.36687e-05 -0.00834836 0.000952298 1.88417e-05
-0.0126432 -0.000216529 -1.1768e-05 -0.00834721 0.000955282 2.0678e-05
