0 0 324.232 0 0 -324.232 0 0 849.834 0 0 -849.834 0 0 24.2709 0 0 -24.2709 0 0 -340.44 0 0 340.44 0 0 -850.84 0 0 850.84 0 0 -22.6076 0 0 22.6076
0 0 334.325 0 0 -334.325 0 0 848.9 0 0 -848.9 0 0 24.3031 0 0 -24.3031 0 0 -329.981 0 0 329.981 0 0 -851.942 0 0 851.942 0 0 -22.5516 0 0 22.5516
0 0 356.742 0 0 -356.742 0 0 846.897 0 0 -846.897 0 0 24.3711 0 0 -24.3711 0 0 -306.955 0 0 306.955 0 0 -854.083 0 0 854.083 0 0 -22.4876 0 0 22.4876
0 0 402.195 0 0 -402.195 0 0 843.332 0 0 -843.332 0 0 24.4414 0 0 -24.4414 0 0 -260.169 0 0 260.169 0 0 -857.95 0 0 857.95 0 0 -22.3791 0 0 22.3791
0 0 452.839 0 0 -452.839 0 0 840.048 0 0 -840.048 0 0 24.4667 0 0 -24.4667 0 0 -208.059 0 0 208.059 0 0 -861.507 0 0 861.507 0 0 -22.3378 0 0 22.3378
0 0 516.653 0 0 -516.653 0 0 836.901 0 0 -836.901 0 0 24.4178 0 0 -24.4178 0 0 -142.41 0 0 142.41 0 0 -864.988 0 0 864.988 0 0 -22.36 0 0 22.36
0 0 593.97 0 0 -593.97 0 0 834.456 0 0 -834.456 0 0 24.2485 0 0 -24.2485 0 0 -62.8916 0 0 62.8916 0 0 -867.766 0 0 867.766 0 0 -22.507 0 0 22.507
0 0 685.055 0 0 -685.055 0 0 833.383 0 0 -833.383 0 0 23.9051 0 0 -23.9051 0 0 30.7519 0 0 -30.7519 0 0 -869.126 0 0 869.126 0 0 -22.829 0 0 22.829
0 0 790.211 0 0 -790.211 0 0 834.438 0 0 -834.438 0 0 23.3394 0 0 -23.3394 0 0 138.818 0 0 -138.818 0 0 -868.277 0 0 868.277 0 0 -23.3821 0 0 23.3821
0 0 909.724 0 0 -909.724 0 0 838.454 0 0 -838.454 0 0 22.5047 0 0 -22.5047 0 0 261.579 0 0 -261.579 0 0 -864.359 0 0 864.359 0 0 -24.2187 0 0 24.2187
0 0 1043.67 0 0 -1043.67 0 0 846.33 0 0 -846.33 0 0 21.356 0 0 -21.356 0 0 399.099 0 0 -399.099 0 0 -856.437 0 0 856.437 0 0 -25.3869 0 0 25.3869
0 0 1191.48 0 0 -1191.48 0 0 859.049 0 0 -859.049 0 0 19.8519 0 0 -19.8519 0 0 550.762 0 0 -550.762 0 0 -843.463 0 0 843.463 0 0 -26.9303 0 0 26.9303
0 0 1351.46 0 0 -1351.46 0 0 877.695 0 0 -877.695 0 0 17.962 0 0 -17.962 0 0 714.434 0 0 -714.434 0 0 -824.466 0 0 824.466 0 0 -28.8744 0 0 28.8744
0 0 1520.23 0 0 -1520.23 0 0 903.331 0 0 -903.331 0 0 15.6834 0 0 -15.6834 0 0 886.496 0 0 -886.496 0 0 -798.115 0 0 798.115 0 0 -31.242 0 0 31.242
0 0 1693.1 0 0 -1693.1 0 0 937.398 0 0 -937.398 0 0 13.0017 0 0 -13.0017 0 0 1062.66 0 0 -1062.66 0 0 -762.947 0 0 762.947 0 0 -34.0318 0 0 34.0318
0 0 1863.64 0 0 -1863.64 0 0 981.195 0 0 -981.195 0 0 9.95202 0 0 -9.95202 0 0 1236.2 0 0 -1236.2 0 0 -717.581 0 0 717.581 0 0 -37.2667 0 0 37.2667
0 0 2024.32 0 0 -2024.32 0 0 1035.85 0 0 -1035.85 0 0 6.58812 0 0 -6.58812 0 0 1399.29 0 0 -1399.29 0 0 -660.875 0 0 660.875 0 0 -40.8525 0 0 40.8525
0 0 2167.15 0 0 -2167.15 0 0 1102.18 0 0 -1102.18 0 0 3.01752 0 0 -3.01752 0 0 1543.82 0 0 -1543.82 0 0 -591.848 0 0 591.848 0 0 -44.6868 0 0 44.6868
0 0 2284.6 0 0 -2284.6 0 0 1180.61 0 0 -1180.61 0 0 -0.597246 0 0 0.597246 0 0 1662.11 0 0 -1662.11 0 0 -510.04 0 0 510.04 0 0 -48.6168 0 0 48.6168
0 0 2369.94 0 0 -2369.94 0 0 1271 0 0 -1271 0 0 -4.07655 0 0 4.07655 0 0 1747.22 0 0 -1747.22 0 0 -415.603 0 0 415.603 0 0 -52.4358 0 0 52.4358
0 0 2417.14 0 0 -2417.14 0 0 1372.59 0 0 -1372.59 0 0 -7.0819 0 0 7.0819 0 0 1793.01 0 0 -1793.01 0 0 -309.31 0 0 309.31 0 0 -55.85 0 0 55.85
0 0 2420.15 0 0 -2420.15 0 0 1484.08 0 0 -1484.08 0 0 -9.29195 0 0 9.29195 0 0 1793.31 0 0 -1793.31 0 0 -192.49 0 0 192.49 0 0 -58.5117 0 0 58.5117
0 0 2372.29 0 0 -2372.29 0 0 1603.69 0 0 -1603.69 0 0 -10.3247 0 0 10.3247 0 0 1741.34 0 0 -1741.34 0 0 -67.0037 0 0 67.0037 0 0 -60.0264 0 0 60.0264
0 0 2265.72 0 0 -2265.72 0 0 1729.12 0 0 -1729.12 0 0 -9.75695 0 0 9.75695 0 0 1629.13 0 0 -1629.13 0 0 64.7916 0 0 -64.7916 0 0 -59.962 0 0 59.962
0 0 2091.58 0 0 -2091.58 0 0 1857.61 0 0 -1857.61 0 0 -7.12239 0 0 7.12239 0 0 1447.7 0 0 -1447.7 0 0 199.951 0 0 -199.951 0 0 -57.851 0 0 57.851
0 0 1841.35 0 0 -1841.35 0 0 1985.67 0 0 -1985.67 0 0 -1.93961 0 0 1.93961 0 0 1188.49 0 0 -1188.49 0 0 334.043 0 0 -334.043 0 0 -53.3588 0 0 53.3588
0 0 1510.35 0 0 -1510.35 0 0 2108.86 0 0 -2108.86 0 0 6.16118 0 0 -6.16118 0 0 846.757 0 0 -846.757 0 0 463.705 0 0 -463.705 0 0 -45.5818 0 0 45.5818
0 0 1102.15 0 0 -1102.15 0 0 2221.68 0 0 -2221.68 0 0 17.8914 0 0 -17.8914 0 0 426.325 0 0 -426.325 0 0 582.52 0 0 -582.52 0 0 -34.2266 0 0 34.2266
0 0 632.085 0 0 -632.085 0 0 2316.94 0 0 -2316.94 0 0 33.7719 0 0 -33.7719 0 0 -57.0072 0 0 57.0072 0 0 683.101 0 0 -683.101 0 0 -18.6348 0 0 18.6348
0 0 125.422 0 0 -125.422 0 0 2386.52 0 0 -2386.52 0 0 54.2996 0 0 -54.2996 0 0 -577.173 0 0 577.173 0 0 756.82 0 0 -756.82 0 0 1.64231 0 0 -1.64231
0 0 -388.587 0 0 388.587 0 0 2422.18 0 0 -2422.18 0 0 79.7577 0 0 -79.7577 0 0 -1104.11 0 0 1104.11 0 0 795.106 0 0 -795.106 0 0 27.0026 0 0 -27.0026
0 0 -882.562 0 0 882.562 0 0 2416.42 0 0 -2416.42 0 0 110.5 0 0 -110.5 0 0 -1611.24 0 0 1611.24 0 0 789.688 0 0 -789.688 0 0 57.8394 0 0 -57.8394
0 0 -1332.15 0 0 1332.15 0 0 2363.57 0 0 -2363.57 0 0 146.537 0 0 -146.537 0 0 -2072.26 0 0 2072.26 0 0 734.885 0 0 -734.885 0 0 94.1352 0 0 -94.1352
0 0 -1718.62 0 0 1718.62 0 0 2260.04 0 0 -2260.04 0 0 187.613 0 0 -187.613 0 0 -2467.58 0 0 2467.58 0 0 626.818 0 0 -626.818 0 0 135.82 0 0 -135.82
0 0 -2030.33 0 0 2030.33 0 0 2104.43 0 0 -2104.43 0 0 233.236 0 0 -233.236 0 0 -2784.88 0 0 2784.88 0 0 464.338 0 0 -464.338 0 0 182.234 0 0 -182.234
0 0 -2263.84 0 0 2263.84 0 0 1897.33 0 0 -1897.33 0 0 282.599 0 0 -282.599 0 0 -3020 0 0 3020 0 0 248.321 0 0 -248.321 0 0 232.599 0 0 -232.599
0 0 -2422.34 0 0 2422.34 0 0 1642.08 0 0 -1642.08 0 0 334.59 0 0 -334.59 0 0 -3175.62 0 0 3175.62 0 0 -18.1212 0 0 18.1212 0 0 285.856 0 0 -285.856
0 0 -2509.96 0 0 2509.96 0 0 1344.93 0 0 -1344.93 0 0 387.985 0 0 -387.985 0 0 -3258.18 0 0 3258.18 0 0 -328.684 0 0 328.684 0 0 340.646 0 0 -340.646
0 0 -2536.59 0 0 2536.59 0 0 1012.43 0 0 -1012.43 0 0 441.229 0 0 -441.229 0 0 -3277.15 0 0 3277.15 0 0 -676.735 0 0 676.735 0 0 395.308 0 0 -395.308
0 0 -2513.41 0 0 2513.41 0 0 652.732 0 0 -652.732 0 0 492.597 0 0 -492.597 0 0 -3244.15 0 0 3244.15 0 0 -1053.78 0 0 1053.78 0 0 448.444 0 0 -448.444
0 0 -2452.29 0 0 2452.29 0 0 276.098 0 0 -276.098 0 0 540.446 0 0 -540.446 0 0 -3171.91 0 0 3171.91 0 0 -1448.99 0 0 1448.99 0 0 497.907 0 0 -497.907
0 0 -2364.13 0 0 2364.13 0 0 -107.703 0 0 107.703 0 0 582.974 0 0 -582.974 0 0 -3071.88 0 0 3071.88 0 0 -1851.51 0 0 1851.51 0 0 542.201 0 0 -542.201
0 0 -2256.58 0 0 2256.58 0 0 -488.715 0 0 488.715 0 0 618.476 0 0 -618.476 0 0 -2951.98 0 0 2951.98 0 0 -2251.14 0 0 2251.14 0 0 579.361 0 0 -579.361
0 0 -2133.15 0 0 2133.15 0 0 -857.343 0 0 857.343 0 0 645.289 0 0 -645.289 0 0 -2816.1 0 0 2816.1 0 0 -2637.82 0 0 2637.82 0 0 607.732 0 0 -607.732
0 0 -1995.16 0 0 1995.16 0 0 -1204.46 0 0 1204.46 0 0 661.877 0 0 -661.877 0 0 -2665.94 0 0 2665.94 0 0 -3001.98 0 0 3001.98 0 0 625.732 0 0 -625.732
0 0 -1846.2 0 0 1846.2 0 0 -1521.42 0 0 1521.42 0 0 666.805 0 0 -666.805 0 0 -2505.39 0 0 2505.39 0 0 -3334.3 0 0 3334.3 0 0 631.965 0 0 -631.965
0 0 -1696.35 0 0 1696.35 0 0 -1801.29 0 0 1801.29 0 0 658.941 0 0 -658.941 0 0 -2345.16 0 0 2345.16 0 0 -3625.93 0 0 3625.93 0 0 625.086 0 0 -625.086
0 0 -1564.57 0 0 1564.57 0 0 -2032.81 0 0 2032.81 0 0 637.241 0 0 -637.241 0 0 -2204.69 0 0 2204.69 0 0 -3867.31 0 0 3867.31 0 0 604.277 0 0 -604.277
0 0 -1477.39 0 0 1477.39 0 0 -2208.39 0 0 2208.39 0 0 601.195 0 0 -601.195 0 0 -2111.29 0 0 2111.29 0 0 -4049.96 0 0 4049.96 0 0 568.741 0 0 -568.741
0 0 -1467.84 0 0 1467.84 0 0 -2321.29 0 0 2321.29 0 0 550.395 0 0 -550.395 0 0 -2098.98 0 0 2098.98 0 0 -4166.46 0 0 4166.46 0 0 518.134 0 0 -518.134
0 0 -1622.87 0 0 1622.87 0 0 -2366.48 0 0 2366.48 0 0 466.275 0 0 -466.275 0 0 -2257.06 0 0 2257.06 0 0 -4211.01 0 0 4211.01 0 0 433.721 0 0 -433.721
0 0 -2033.55 0 0 2033.55 0 0 -2301.16 0 0 2301.16 0 0 360.307 0 0 -360.307 0 0 -2679.69 0 0 2679.69 0 0 -4139.27 0 0 4139.27 0 0 326.836 0 0 -326.836
0 0 -2760.58 0 0 2760.58 0 0 -2129.77 0 0 2129.77 0 0 234.659 0 0 -234.659 0 0 -3428.94 0 0 3428.94 0 0 -3955.63 0 0 3955.63 0 0 199.692 0 0 -199.692
0 0 -3834.01 0 0 3834.01 0 0 -1867.48 0 0 1867.48 0 0 92.6901 0 0 -92.6901 0 0 -4535.31 0 0 4535.31 0 0 -3675.82 0 0 3675.82 0 0 55.7329 0 0 -55.7329
0 0 -5244.06 0 0 5244.06 0 0 -1540.61 0 0 1540.61 0 0 -62.8324 0 0 62.8324 0 0 -5988.28 0 0 5988.28 0 0 -3327.35 0 0 3327.35 0 0 -102.027 0 0 102.027
0 0 -6937.23 0 0 6937.23 0 0 -1186.02 0 0 1186.02 0 0 -225.423 0 0 225.423 0 0 -7732.12 0 0 7732.12 0 0 -2949.21 0 0 2949.21 0 0 -268.348 0 0 268.348
0 0 -8816.47 0 0 8816.47 0 0 -849.345 0 0 849.345 0 0 -388.451 0 0 388.451 0 0 -9666.48 0 0 9666.48 0 0 -2589.65 0 0 2589.65 0 0 -433.865 0 0 433.865
0 0 -10750.2 0 0 10750.2 0 0 -580.637 0 0 580.637 0 0 -545.916 0 0 545.916 0 0 -11655.5 0 0 11655.5 0 0 -2300.76 0 0 2300.76 0 0 -594.252 0 0 594.252
0 0 -12597.2 0 0 12597.2 0 0 -428.553 0 0 428.553 0 0 -692.23 0 0 692.23 0 0 -13553.3 0 0 13553.3 0 0 -2134.17 0 0 2134.17 0 0 -742.147 0 0 742.147
0 0 -14237.6 0 0 14237.6 0 0 -434.184 0 0 434.184 0 0 -822.476 0 0 822.476 0 0 -15235.9 0 0 15235.9 0 0 -2133.04 0 0 2133.04 0 0 -873.604 0 0 873.604
0 0 -15593.1 0 0 15593.1 0 0 -626.296 0 0 626.296 0 0 -933.303 0 0 933.303 0 0 -16622.4 0 0 16622.4 0 0 -2327.44 0 0 2327.44 0 0 -984.69 0 0 984.69
0 0 -16628.1 0 0 16628.1 0 0 -1019.3 0 0 1019.3 0 0 -1023.18 0 0 1023.18 0 0 -17675.7 0 0 17675.7 0 0 -2732.62 0 0 2732.62 0 0 -1073.97 0 0 1073.97
0 0 -17341.9 0 0 17341.9 0 0 -1613.17 0 0 1613.17 0 0 -1092.34 0 0 1092.34 0 0 -18395 0 0 18395 0 0 -3348.53 0 0 3348.53 0 0 -1141.35 0 0 1141.35
0 0 -17760.4 0 0 17760.4 0 0 -2394.45 0 0 2394.45 0 0 -1142.56 0 0 1142.56 0 0 -18806.9 0 0 18806.9 0 0 -4161.15 0 0 4161.15 0 0 -1188.85 0 0 1188.85
0 0 -17924.3 0 0 17924.3 0 0 -3338.22 0 0 3338.22 0 0 -1177.14 0 0 1177.14 0 0 -18953.7 0 0 18953.7 0 0 -5144.23 0 0 5144.23 0 0 -1219.98 0 0 1219.98
0 0 -17876.5 0 0 17876.5 0 0 -4410.68 0 0 4410.68 0 0 -1200.74 0 0 1200.74 0 0 -18880.1 0 0 18880.1 0 0 -6262.4 0 0 6262.4 0 0 -1239.54 0 0 1239.54
0 0 -17660.1 0 0 17660.1 0 0 -5571.17 0 0 5571.17 0 0 -1219.06 0 0 1219.06 0 0 -18631.4 0 0 18631.4 0 0 -7473.06 0 0 7473.06 0 0 -1253.37 0 0 1253.37
0 0 -17328 0 0 17328 0 0 -6773.26 0 0 6773.26 0 0 -1238.38 0 0 1238.38 0 0 -18263 0 0 18263 0 0 -8727.48 0 0 8727.48 0 0 -1267.97 0 0 1267.97
0 0 -16950.6 0 0 16950.6 0 0 -7966.4 0 0 7966.4 0 0 -1265.27 0 0 1265.27 0 0 -17848.3 0 0 17848.3 0 0 -9972.56 0 0 9972.56 0 0 -1290.24 0 0 1290.24
0 0 -16611.1 0 0 16611.1 0 0 -9099.03 0 0 9099.03 0 0 -1306.13 0 0 1306.13 0 0 -17473.6 0 0 17473.6 0 0 -11154.2 0 0 11154.2 0 0 -1326.87 0 0 1326.87
0 0 -16390.1 0 0 16390.1 0 0 -10122.9 0 0 10122.9 0 0 -1366.82 0 0 1366.82 0 0 -17223 0 0 17223 0 0 -12221.7 0 0 12221.7 0 0 -1383.91 0 0 1383.91
0 0 -16346.3 0 0 16346.3 0 0 -10997.7 0 0 10997.7 0 0 -1452.06 0 0 1452.06 0 0 -17157.7 0 0 17157.7 0 0 -13132.9 0 0 13132.9 0 0 -1466.24 0 0 1466.24
0 0 -16504.8 0 0 16504.8 0 0 -11694 0 0 11694 0 0 -1565.13 0 0 1565.13 0 0 -17304.2 0 0 17304.2 0 0 -13856.9 0 0 13856.9 0 0 -1577.34 0 0 1577.34
0 0 -16866.3 0 0 16866.3 0 0 -12193.7 0 0 12193.7 0 0 -1707.7 0 0 1707.7 0 0 -17663.9 0 0 17663.9 0 0 -14374.8 0 0 14374.8 0 0 -1718.97 0 0 1718.97
0 0 -17419.7 0 0 17419.7 0 0 -12489.4 0 0 12489.4 0 0 -1879.76 0 0 1879.76 0 0 -18225.7 0 0 18225.7 0 0 -14678.7 0 0 14678.7 0 0 -1891.15 0 0 1891.15
0 0 -18146.5 0 0 18146.5 0 0 -12583.9 0 0 12583.9 0 0 -2079.64 0 0 2079.64 0 0 -18970.5 0 0 18970.5 0 0 -14771.8 0 0 14771.8 0 0 -2092.16 0 0 2092.16
0 0 -19022.5 0 0 19022.5 0 0 -12489.7 0 0 12489.7 0 0 -2304.02 0 0 2304.02 0 0 -19873.1 0 0 19873.1 0 0 -14667.2 0 0 14667.2 0 0 -2318.61 0 0 2318.61
0 0 -20019.3 0 0 20019.3 0 0 -12228.3 0 0 12228.3 0 0 -2548.13 0 0 2548.13 0 0 -20903.9 0 0 20903.9 0 0 -14387.4 0 0 14387.4 0 0 -2565.62 0 0 2565.62
0 0 -21106 0 0 21106 0 0 -11828.4 0 0 11828.4 0 0 -2805.93 0 0 2805.93 0 0 -22030.5 0 0 22030.5 0 0 -13962.5 0 0 13962.5 0 0 -2827.02 0 0 2827.02
0 0 -22249.9 0 0 22249.9 0 0 -11324.4 0 0 11324.4 0 0 -3070.46 0 0 3070.46 0 0 -23218.4 0 0 23218.4 0 0 -13428.8 0 0 13428.8 0 0 -3095.61 0 0 3095.61
0 0 -23414.6 0 0 23414.6 0 0 -10755.4 0 0 10755.4 0 0 -3334.07 0 0 3334.07 0 0 -24429.2 0 0 24429.2 0 0 -12827.2 0 0 12827.2 0 0 -3363.56 0 0 3363.56
0 0 -24562.3 0 0 24562.3 0 0 -10162.6 0 0 10162.6 0 0 -3588.82 0 0 3588.82 0 0 -25623.3 0 0 25623.3 0 0 -12200.9 0 0 12200.9 0 0 -3622.68 0 0 3622.68
0 0 -25659.5 0 0 25659.5 0 0 -9586.84 0 0 9586.84 0 0 -3826.84 0 0 3826.84 0 0 -26765.1 0 0 26765.1 0 0 -11592.9 0 0 11592.9 0 0 -3864.91 0 0 3864.91
0 0 -26682.8 0 0 26682.8 0 0 -9066.52 0 0 9066.52 0 0 -4040.75 0 0 4040.75 0 0 -27829.7 0 0 27829.7 0 0 -11043.4 0 0 11043.4 0 0 -4082.63 0 0 4082.63
0 0 -27620.1 0 0 27620.1 0 0 -8635.5 0 0 8635.5 0 0 -4223.92 0 0 4223.92 0 0 -28803.7 0 0 28803.7 0 0 -10587.7 0 0 10587.7 0 0 -4269.03 0 0 4269.03
0 0 -28464.4 0 0 28464.4 0 0 -8322.54 0 0 8322.54 0 0 -4370.77 0 0 4370.77 0 0 -29679.1 0 0 29679.1 0 0 -10256.2 0 0 10256.2 0 0 -4418.37 0 0 4418.37
0 0 -29199.6 0 0 29199.6 0 0 -8151.5 0 0 8151.5 0 0 -4476.94 0 0 4476.94 0 0 -30438.9 0 0 30438.9 0 0 -10073.9 0 0 10073.9 0 0 -4526.15 0 0 4526.15
0 0 -29788.7 0 0 29788.7 0 0 -8141.38 0 0 8141.38 0 0 -4539.48 0 0 4539.48 0 0 -31044.8 0 0 31044.8 0 0 -10060.8 0 0 10060.8 0 0 -4589.31 0 0 4589.31
0 0 -30176.6 0 0 30176.6 0 0 -8304.96 0 0 8304.96 0 0 -4557.01 0 0 4557.01 0 0 -31439.9 0 0 31439.9 0 0 -10230.4 0 0 10230.4 0 0 -4606.39 0 0 4606.39
0 0 -30304.5 0 0 30304.5 0 0 -8646.23 0 0 8646.23 0 0 -4529.9 0 0 4529.9 0 0 -31563.7 0 0 31563.7 0 0 -10587 0 0 10587 0 0 -4577.75 0 0 4577.75
0 0 -30187.2 0 0 30187.2 0 0 -9042.83 0 0 9042.83 0 0 -4477.5 0 0 4477.5 0 0 -31434.3 0 0 31434.3 0 0 -11002.4 0 0 11002.4 0 0 -4523.36 0 0 4523.36
0 0 -29742.6 0 0 29742.6 0 0 -9677.9 0 0 9677.9 0 0 -4376.85 0 0 4376.85 0 0 -30963.2 0 0 30963.2 0 0 -11668.5 0 0 11668.5 0 0 -4419.37 0 0 4419.37
0 0 -28966 0 0 28966 0 0 -10439.9 0 0 10439.9 0 0 -4242.29 0 0 4242.29 0 0 -30148.2 0 0 30148.2 0 0 -12468.6 0 0 12468.6 0 0 -4280.66 0 0 4280.66
0 0 -27882.3 0 0 27882.3 0 0 -11288.2 0 0 11288.2 0 0 -4080.73 0 0 4080.73 0 0 -29015.5 0 0 29015.5 0 0 -13360 0 0 13360 0 0 -4114.35 0 0 4114.35
0 0 -26533.1 0 0 26533.1 0 0 -12173.8 0 0 12173.8 0 0 -3900.16 0 0 3900.16 0 0 -27609.1 0 0 27609.1 0 0 -14291.5 0 0 14291.5 0 0 -3928.69 0 0 3928.69
0 0 -24966.5 0 0 24966.5 0 0 -13042.5 0 0 13042.5 0 0 -3709.25 0 0 3709.25 0 0 -25979.6 0 0 25979.6 0 0 -15206.2 0 0 15206.2 0 0 -3732.64 0 0 3732.64
0 0 -23234.5 0 0 23234.5 0 0 -13837.9 0 0 13837.9 0 0 -3516.84 0 0 3516.84 0 0 -24182 0 0 24182 0 0 -16044.7 0 0 16044.7 0 0 -3535.35 0 0 3535.35
0 0 -21390 0 0 21390 0 0 -14503.8 0 0 14503.8 0 0 -3331.51 0 0 3331.51 0 0 -22271.8 0 0 22271.8 0 0 -16748.4 0 0 16748.4 0 0 -3345.66 0 0 3345.66
0 0 -19481.3 0 0 19481.3 0 0 -14988.2 0 0 14988.2 0 0 -3161.03 0 0 3161.03 0 0 -20299.9 0 0 20299.9 0 0 -17262.5 0 0 17262.5 0 0 -3171.64 0 0 3171.64
0 0 -17551.9 0 0 17551.9 0 0 -15244.9 0 0 15244.9 0 0 -3012.01 0 0 3012.01 0 0 -18312.5 0 0 18312.5 0 0 -17538.7 0 0 17538.7 0 0 -3020.13 0 0 3020.13
0 0 -15639.6 0 0 15639.6 0 0 -15236.2 0 0 15236.2 0 0 -2889.49 0 0 2889.49 0 0 -16349.1 0 0 16349.1 0 0 -17537.3 0 0 17537.3 0 0 -2896.36 0 0 2896.36
0 0 -13773.3 0 0 13773.3 0 0 -14934.8 0 0 14934.8 0 0 -2796.66 0 0 2796.66 0 0 -14440.2 0 0 14440.2 0 0 -17229.8 0 0 17229.8 0 0 -2803.64 0 0 2803.64
0 0 -11975.5 0 0 11975.5 0 0 -14324.9 0 0 14324.9 0 0 -2734.64 0 0 2734.64 0 0 -12609.5 0 0 12609.5 0 0 -16599.5 0 0 16599.5 0 0 -2743.17 0 0 2743.17
0 0 -10272.5 0 0 10272.5 0 0 -13401.7 0 0 13401.7 0 0 -2702.43 0 0 2702.43 0 0 -10884.1 0 0 10884.1 0 0 -15641.6 0 0 15641.6 0 0 -2713.98 0 0 2713.98
0 0 -8704.22 0 0 8704.22 0 0 -12171.5 0 0 12171.5 0 0 -2696.91 0 0 2696.91 0 0 -9304.63 0 0 9304.63 0 0 -14362.3 0 0 14362.3 0 0 -2712.92 0 0 2712.92
0 0 -7316.96 0 0 7316.96 0 0 -10651.8 0 0 10651.8 0 0 -2712.86 0 0 2712.86 0 0 -7918.21 0 0 7918.21 0 0 -12780.2 0 0 12780.2 0 0 -2734.66 0 0 2734.66
0 0 -6142.17 0 0 6142.17 0 0 -8874.07 0 0 8874.07 0 0 -2743.03 0 0 2743.03 0 0 -6756.2 0 0 6756.2 0 0 -10928.1 0 0 10928.1 0 0 -2771.78 0 0 2771.78
0 0 -5187.59 0 0 5187.59 0 0 -6883.05 0 0 6883.05 0 0 -2778.44 0 0 2778.44 0 0 -5825.44 0 0 5825.44 0 0 -8853.13 0 0 8853.13 0 0 -2815.06 0 0 2815.06
0 0 -4442.91 0 0 4442.91 0 0 -4734.97 0 0 4734.97 0 0 -2808.67 0 0 2808.67 0 0 -5113.92 0 0 5113.92 0 0 -6614.08 0 0 6614.08 0 0 -2853.81 0 0 2853.81
0 0 -3884.64 0 0 3884.64 0 0 -2494.75 0 0 2494.75 0 0 -2822.45 0 0 2822.45 0 0 -4595.84 0 0 4595.84 0 0 -4279.04 0 0 4279.04 0 0 -2876.39 0 0 2876.39
0 0 -3477.65 0 0 3477.65 0 0 -233.19 0 0 233.19 0 0 -2808.08 0 0 2808.08 0 0 -4233.35 0 0 4233.35 0 0 -1922.24 0 0 1922.24 0 0 -2870.76 0 0 2870.76
0 0 -3173.78 0 0 3173.78 0 0 1975.83 0 0 -1975.83 0 0 -2754.13 0 0 2754.13 0 0 -3975.19 0 0 3975.19 0 0 378.877 0 0 -378.877 0 0 -2825.09 0 0 2825.09
0 0 -2916.76 0 0 2916.76 0 0 4054.73 0 0 -4054.73 0 0 -2649.58 0 0 2649.58 0 0 -3753.51 0 0 3753.51 0 0 2546.01 0 0 -2546.01 0 0 -2728.28 0 0 2728.28
0 0 -2616.51 0 0 2616.51 0 0 5924.67 0 0 -5924.67 0 0 -2486.36 0 0 2486.36 0 0 -3490.85 0 0 3490.85 0 0 4498.99 0 0 -4498.99 0 0 -2570.76 0 0 2570.76
0 0 -2179.18 0 0 2179.18 0 0 7530.49 0 0 -7530.49 0 0 -2256.98 0 0 2256.98 0 0 -3082.43 0 0 3082.43 0 0 6163.46 0 0 -6163.46 0 0 -2346.22 0 0 2346.22
0 0 -1522.63 0 0 1522.63 0 0 8824.92 0 0 -8824.92 0 0 -1956.08 0 0 1956.08 0 0 -2439.89 0 0 2439.89 0 0 7505.3 0 0 -7505.3 0 0 -2048.37 0 0 2048.37
0 0 -604.806 0 0 604.806 0 0 9779.24 0 0 -9779.24 0 0 -1582.35 0 0 1582.35 0 0 -1522.39 0 0 1522.39 0 0 8486.45 0 0 -8486.45 0 0 -1675.4 0 0 1675.4
0 0 567.719 0 0 -567.719 0 0 10381.8 0 0 -10381.8 0 0 -1136.76 0 0 1136.76 0 0 -335.158 0 0 335.158 0 0 9101.85 0 0 -9101.85 0 0 -1229.24 0 0 1229.24
0 0 1958.12 0 0 -1958.12 0 0 10640.3 0 0 -10640.3 0 0 -624.119 0 0 624.119 0 0 1084.37 0 0 -1084.37 0 0 9354.95 0 0 -9354.95 0 0 -713.868 0 0 713.868
0 0 3526.33 0 0 -3526.33 0 0 10576.7 0 0 -10576.7 0 0 -52.4436 0 0 52.4436 0 0 2693.82 0 0 -2693.82 0 0 9271.1 0 0 -9271.1 0 0 -138.138 0 0 138.138
0 0 5247.14 0 0 -5247.14 0 0 10226.1 0 0 -10226.1 0 0 557.043 0 0 -557.043 0 0 4466.71 0 0 -4466.71 0 0 8887.86 0 0 -8887.86 0 0 480.385 0 0 -480.385
0 0 7112.54 0 0 -7112.54 0 0 9632.28 0 0 -9632.28 0 0 1204.61 0 0 -1204.61 0 0 6393.83 0 0 -6393.83 0 0 8250.05 0 0 -8250.05 0 0 1129.72 0 0 -1129.72
0 0 9116.27 0 0 -9116.27 0 0 8849.49 0 0 -8849.49 0 0 1873.28 0 0 -1873.28 0 0 8466.94 0 0 -8466.94 0 0 7414.11 0 0 -7414.11 0 0 1806.15 0 0 -1806.15
0 0 11242.5 0 0 -11242.5 0 0 7940.43 0 0 -7940.43 0 0 2547.53 0 0 -2547.53 0 0 10668.5 0 0 -10668.5 0 0 6446.28 0 0 -6446.28 0 0 2487.54 0 0 -2487.54
0 0 13469.7 0 0 -13469.7 0 0 6974.36 0 0 -6974.36 0 0 3211.33 0 0 -3211.33 0 0 12974.5 0 0 -12974.5 0 0 5419.6 0 0 -5419.6 0 0 3159 0 0 -3159
0 0 15777.7 0 0 -15777.7 0 0 6023.06 0 0 -6023.06 0 0 3848.86 0 0 -3848.86 0 0 15362.5 0 0 -15362.5 0 0 4407.65 0 0 -4407.65 0 0 3803.74 0 0 -3803.74
0 0 18148.3 0 0 -18148.3 0 0 5157.46 0 0 -5157.46 0 0 4443.78 0 0 -4443.78 0 0 17811.8 0 0 -17811.8 0 0 3485.82 0 0 -3485.82 0 0 4404.54 0 0 -4404.54
0 0 20561.4 0 0 -20561.4 0 0 4445.88 0 0 -4445.88 0 0 4980.77 0 0 -4980.77 0 0 20300 0 0 -20300 0 0 2725.33 0 0 -2725.33 0 0 4947.3 0 0 -4947.3
0 0 22987.8 0 0 -22987.8 0 0 3951.97 0 0 -3951.97 0 0 5446.71 0 0 -5446.71 0 0 22795.6 0 0 -22795.6 0 0 2192.59 0 0 -2192.59 0 0 5417.87 0 0 -5417.87
0 0 25378.9 0 0 -25378.9 0 0 3732.86 0 0 -3732.86 0 0 5830.76 0 0 -5830.76 0 0 25247.2 0 0 -25247.2 0 0 1947.65 0 0 -1947.65 0 0 5804.89 0 0 -5804.89
0 0 27658.7 0 0 -27658.7 0 0 3837.23 0 0 -3837.23 0 0 6124.38 0 0 -6124.38 0 0 27575.8 0 0 -27575.8 0 0 2041.65 0 0 -2041.65 0 0 6099.64 0 0 -6099.64
0 0 29729.9 0 0 -29729.9 0 0 4302.24 0 0 -4302.24 0 0 6321.92 0 0 -6321.92 0 0 29680.9 0 0 -29680.9 0 0 2513.8 0 0 -2513.8 0 0 6296.52 0 0 -6296.52
0 0 31494.6 0 0 -31494.6 0 0 5149.01 0 0 -5149.01 0 0 6421.4 0 0 -6421.4 0 0 31462.2 0 0 -31462.2 0 0 3386.22 0 0 -3386.22 0 0 6393.58 0 0 -6393.58
0 0 32876.9 0 0 -32876.9 0 0 6378.51 0 0 -6378.51 0 0 6424.72 0 0 -6424.72 0 0 32842 0 0 -32842 0 0 4660.04 0 0 -4660.04 0 0 6392.49 0 0 -6392.49
0 0 33834.6 0 0 -33834.6 0 0 7969.54 0 0 -7969.54 0 0 6337.5 0 0 -6337.5 0 0 33778 0 0 -33778 0 0 6313.31 0 0 -6313.31 0 0 6298.89 0 0 -6298.89
0 0 34366.6 0 0 -34366.6 0 0 9878.69 0 0 -9878.69 0 0 6168.88 0 0 -6168.88 0 0 34270.1 0 0 -34270.1 0 0 8300.57 0 0 -8300.57 0 0 6122.22 0 0 -6122.22
0 0 34509.9 0 0 -34509.9 0 0 12042.2 0 0 -12042.2 0 0 5931.28 0 0 -5931.28 0 0 34358.2 0 0 -34358.2 0 0 10555 0 0 -10555 0 0 5875.27 0 0 -5875.27
0 0 34334.6 0 0 -34334.6 0 0 14379.4 0 0 -14379.4 0 0 5639.83 0 0 -5639.83 0 0 34115.9 0 0 -34115.9 0 0 12991.9 0 0 -12991.9 0 0 5573.53 0 0 -5573.53
0 0 33936.8 0 0 -33936.8 0 0 16797 0 0 -16797 0 0 5311.61 0 0 -5311.61 0 0 33644.1 0 0 -33644.1 0 0 15513.8 0 0 -15513.8 0 0 5234.43 0 0 -5234.43
0 0 33426.5 0 0 -33426.5 0 0 19195.4 0 0 -19195.4 0 0 4964.72 0 0 -4964.72 0 0 33057.7 0 0 -33057.7 0 0 18016.2 0 0 -18016.2 0 0 4876.57 0 0 -4876.57
0 0 32911.6 0 0 -32911.6 0 0 21474.6 0 0 -21474.6 0 0 4617.32 0 0 -4617.32 0 0 32469.7 0 0 -32469.7 0 0 20394.5 0 0 -20394.5 0 0 4518.66 0 0 -4518.66
0 0 32486.9 0 0 -32486.9 0 0 23540.5 0 0 -23540.5 0 0 4286.85 0 0 -4286.85 0 0 31979.4 0 0 -31979.4 0 0 22550.1 0 0 -22550.1 0 0 4178.61 0 0 -4178.61
0 0 32232.2 0 0 -32232.2 0 0 25309.5 0 0 -25309.5 0 0 3989.19 0 0 -3989.19 0 0 31670.6 0 0 -31670.6 0 0 24395.6 0 0 -24395.6 0 0 3872.67 0 0 -3872.67
0 0 32210.4 0 0 -32210.4 0 0 26712.2 0 0 -26712.2 0 0 3737.86 0 0 -3737.86 0 0 31609.5 0 0 -31609.5 0 0 25858.5 0 0 -25858.5 0 0 3614.72 0 0 -3614.72
0 0 32376.4 0 0 -32376.4 0 0 27666.7 0 0 -27666.7 0 0 3545.97 0 0 -3545.97 0 0 31824.3 0 0 -31824.3 0 0 26876.7 0 0 -26876.7 0 0 3416.19 0 0 -3416.19
0 0 32478 0 0 -32478 0 0 28010 0 0 -28010 0 0 3424.81 0 0 -3424.81 0 0 32257.2 0 0 -32257.2 0 0 27374.5 0 0 -27374.5 0 0 3287.91 0 0 -3287.91
0 0 32928.8 0 0 -32928.8 0 0 27925.3 0 0 -27925.3 0 0 3367.16 0 0 -3367.16 0 0 33021.3 0 0 -33021.3 0 0 27416.3 0 0 -27416.3 0 0 3228.85 0 0 -3228.85
0 0 33820.2 0 0 -33820.2 0 0 27524.9 0 0 -27524.9 0 0 3371.84 0 0 -3371.84 0 0 34057.9 0 0 -34057.9 0 0 27034.1 0 0 -27034.1 0 0 3232.65 0 0 -3232.65
0 0 35009.7 0 0 -35009.7 0 0 26744.3 0 0 -26744.3 0 0 3437.46 0 0 -3437.46 0 0 35365.5 0 0 -35365.5 0 0 26241.1 0 0 -26241.1 0 0 3300.52 0 0 -3300.52
0 0 36148.2 0 0 -36148.2 0 0 25633.7 0 0 -25633.7 0 0 3556.77 0 0 -3556.77 0 0 36178.5 0 0 -36178.5 0 0 25182.2 0 0 -25182.2 0 0 3417.11 0 0 -3417.11
0 0 36269 0 0 -36269 0 0 24401.1 0 0 -24401.1 0 0 3713.33 0 0 -3713.33 0 0 36309.5 0 0 -36309.5 0 0 23882.2 0 0 -23882.2 0 0 3589.72 0 0 -3589.72
0 0 36414.2 0 0 -36414.2 0 0 22915.1 0 0 -22915.1 0 0 3913.24 0 0 -3913.24 0 0 36458.2 0 0 -36458.2 0 0 22362.3 0 0 -22362.3 0 0 3785.33 0 0 -3785.33
0 0 36577.6 0 0 -36577.6 0 0 21238.2 0 0 -21238.2 0 0 4135.99 0 0 -4135.99 0 0 36627.8 0 0 -36627.8 0 0 20639.3 0 0 -20639.3 0 0 4020.67 0 0 -4020.67
0 0 36757.3 0 0 -36757.3 0 0 19447.6 0 0 -19447.6 0 0 4374 0 0 -4374 0 0 36814 0 0 -36814 0 0 18802.8 0 0 -18802.8 0 0 4262.42 0 0 -4262.42
0 0 36947.7 0 0 -36947.7 0 0 17614.7 0 0 -17614.7 0 0 4612.1 0 0 -4612.1 0 0 37010.7 0 0 -37010.7 0 0 16912.4 0 0 -16912.4 0 0 4508.28 0 0 -4508.28
0 0 37141 0 0 -37141 0 0 15798.1 0 0 -15798.1 0 0 4837.37 0 0 -4837.37 0 0 37210.9 0 0 -37210.9 0 0 15046.9 0 0 -15046.9 0 0 4740.94 0 0 -4740.94
0 0 37329.6 0 0 -37329.6 0 0 14073.2 0 0 -14073.2 0 0 5037.1 0 0 -5037.1 0 0 37406.1 0 0 -37406.1 0 0 13275.9 0 0 -13275.9 0 0 4947.83 0 0 -4947.83
0 0 37506.5 0 0 -37506.5 0 0 12506.3 0 0 -12506.3 0 0 5199.9 0 0 -5199.9 0 0 37589 0 0 -37589 0 0 11666.8 0 0 -11666.8 0 0 5116.01 0 0 -5116.01
0 0 37666.7 0 0 -37666.7 0 0 11153.4 0 0 -11153.4 0 0 5314.85 0 0 -5314.85 0 0 37754.7 0 0 -37754.7 0 0 10279.3 0 0 -10279.3 0 0 5235.57 0 0 -5235.57
0 0 37807.9 0 0 -37807.9 0 0 10066.3 0 0 -10066.3 0 0 5372.78 0 0 -5372.78 0 0 37900.5 0 0 -37900.5 0 0 9165.88 0 0 -9165.88 0 0 5297.55 0 0 -5297.55
0 0 37929 0 0 -37929 0 0 9284.2 0 0 -9284.2 0 0 5367.56 0 0 -5367.56 0 0 38025.2 0 0 -38025.2 0 0 8367.91 0 0 -8367.91 0 0 5295.13 0 0 -5295.13
0 0 38029.3 0 0 -38029.3 0 0 8834.36 0 0 -8834.36 0 0 5295.84 0 0 -5295.84 0 0 38128.1 0 0 -38128.1 0 0 7914.08 0 0 -7914.08 0 0 5224.37 0 0 -5224.37
0 0 38107.6 0 0 -38107.6 0 0 8733.07 0 0 -8733.07 0 0 5156.39 0 0 -5156.39 0 0 38207.9 0 0 -38207.9 0 0 7819.87 0 0 -7819.87 0 0 5084.17 0 0 -5084.17
0 0 38162.5 0 0 -38162.5 0 0 8982.43 0 0 -8982.43 0 0 4950.54 0 0 -4950.54 0 0 38263.2 0 0 -38263.2 0 0 8087.84 0 0 -8087.84 0 0 4876.4 0 0 -4876.4
0 0 38192.1 0 0 -38192.1 0 0 9571.15 0 0 -9571.15 0 0 4682.89 0 0 -4682.89 0 0 38292 0 0 -38292 0 0 8706.64 0 0 -8706.64 0 0 4605.58 0 0 -4605.58
0 0 38143.9 0 0 -38143.9 0 0 10481.2 0 0 -10481.2 0 0 4360.59 0 0 -4360.59 0 0 38227.5 0 0 -38227.5 0 0 9659.34 0 0 -9659.34 0 0 4278.38 0 0 -4278.38
0 0 37738.9 0 0 -37738.9 0 0 11701.6 0 0 -11701.6 0 0 3992.65 0 0 -3992.65 0 0 37775.4 0 0 -37775.4 0 0 10939 0 0 -10939 0 0 3903.83 0 0 -3903.83
0 0 36954.5 0 0 -36954.5 0 0 13183.6 0 0 -13183.6 0 0 3591.27 0 0 -3591.27 0 0 36934.6 0 0 -36934.6 0 0 12492.4 0 0 -12492.4 0 0 3494.46 0 0 -3494.46
0 0 35829.8 0 0 -35829.8 0 0 14857.3 0 0 -14857.3 0 0 3170.62 0 0 -3170.62 0 0 35738.3 0 0 -35738.3 0 0 14245.2 0 0 -14245.2 0 0 3065.44 0 0 -3065.44
0 0 34433.3 0 0 -34433.3 0 0 16638.6 0 0 -16638.6 0 0 2747.09 0 0 -2747.09 0 0 34262.7 0 0 -34262.7 0 0 16112.2 0 0 -16112.2 0 0 2632.64 0 0 -2632.64
0 0 33180.7 0 0 -33180.7 0 0 18080.3 0 0 -18080.3 0 0 2417.57 0 0 -2417.57 0 0 32943.2 0 0 -32943.2 0 0 17623.2 0 0 -17623.2 0 0 2295.63 0 0 -2295.63
0 0 31862.5 0 0 -31862.5 0 0 19484.6 0 0 -19484.6 0 0 2105.73 0 0 -2105.73 0 0 31557.8 0 0 -31557.8 0 0 19094.8 0 0 -19094.8 0 0 1976.39 0 0 -1976.39
0 0 30528.9 0 0 -30528.9 0 0 20803.7 0 0 -20803.7 0 0 1819.85 0 0 -1819.85 0 0 30159 0 0 -30159 0 0 20477.2 0 0 -20477.2 0 0 1683.61 0 0 -1683.61
0 0 29227 0 0 -29227 0 0 21992.2 0 0 -21992.2 0 0 1567.7 0 0 -1567.7 0 0 28796.3 0 0 -28796.3 0 0 21723 0 0 -21723 0 0 1425.31 0 0 -1425.31
0 0 27999 0 0 -27999 0 0 23009 0 0 -23009 0 0 1356.3 0 0 -1356.3 0 0 27513.8 0 0 -27513.8 0 0 22789.2 0 0 -22789.2 0 0 1208.65 0 0 -1208.65
0 0 26880.8 0 0 -26880.8 0 0 23818.2 0 0 -23818.2 0 0 1191.67 0 0 -1191.67 0 0 26349.2 0 0 -26349.2 0 0 23638.2 0 0 -23638.2 0 0 1039.73 0 0 -1039.73
0 0 25898.7 0 0 -25898.7 0 0 24390.9 0 0 -24390.9 0 0 1078.49 0 0 -1078.49 0 0 25330.2 0 0 -25330.2 0 0 24239.6 0 0 -24239.6 0 0 923.399 0 0 -923.399
0 0 25065.2 0 0 -25065.2 0 0 24706 0 0 -24706 0 0 1019.98 0 0 -1019.98 0 0 24470.1 0 0 -24470.1 0 0 24571.5 0 0 -24571.5 0 0 863.075 0 0 -863.075
0 0 24376.9 0 0 -24376.9 0 0 24751.1 0 0 -24751.1 0 0 1017.88 0 0 -1017.88 0 0 23765.7 0 0 -23765.7 0 0 24621.2 0 0 -24621.2 0 0 860.59 0 0 -860.59
0 0 23814.7 0 0 -23814.7 0 0 24522.6 0 0 -24522.6 0 0 1072.43 0 0 -1072.43 0 0 23197.7 0 0 -23197.7 0 0 24385 0 0 -24385 0 0 916.162 0 0 -916.162
0 0 23346.7 0 0 -23346.7 0 0 24025.7 0 0 -24025.7 0 0 1182.37 0 0 -1182.37 0 0 22733.7 0 0 -22733.7 0 0 23868.3 0 0 -23868.3 0 0 1028.43 0 0 -1028.43
0 0 22935.7 0 0 -22935.7 0 0 23272.7 0 0 -23272.7 0 0 1344.92 0 0 -1344.92 0 0 22335.1 0 0 -22335.1 0 0 23084 0 0 -23084 0 0 1194.54 0 0 -1194.54
0 0 22547.3 0 0 -22547.3 0 0 22281.8 0 0 -22281.8 0 0 1555.94 0 0 -1555.94 0 0 21966.4 0 0 -21966.4 0 0 22051.3 0 0 -22051.3 0 0 1410.3 0 0 -1410.3
0 0 22156 0 0 -22156 0 0 21075.7 0 0 -21075.7 0 0 1810.1 0 0 -1810.1 0 0 21601.1 0 0 -21601.1 0 0 20793.9 0 0 -20793.9 0 0 1670.27 0 0 -1670.27
0 0 21748.7 0 0 -21748.7 0 0 19680.9 0 0 -19680.9 0 0 2101.04 0 0 -2101.04 0 0 21224.7 0 0 -21224.7 0 0 19339.6 0 0 -19339.6 0 0 1967.95 0 0 -1967.95
0 0 21321.9 0 0 -21321.9 0 0 18126.7 0 0 -18126.7 0 0 2421.54 0 0 -2421.54 0 0 20833 0 0 -20833 0 0 17718.9 0 0 -17718.9 0 0 2295.92 0 0 -2295.92
0 0 20875.1 0 0 -20875.1 0 0 16445.8 0 0 -16445.8 0 0 2763.58 0 0 -2763.58 0 0 20424.3 0 0 -20424.3 0 0 15965.9 0 0 -15965.9 0 0 2645.99 0 0 -2645.99
0 0 20403.8 0 0 -20403.8 0 0 14673.5 0 0 -14673.5 0 0 3118.57 0 0 -3118.57 0 0 19993.2 0 0 -19993.2 0 0 14117.7 0 0 -14117.7 0 0 3009.38 0 0 -3009.38
0 0 19897 0 0 -19897 0 0 12847.5 0 0 -12847.5 0 0 3477.51 0 0 -3477.51 0 0 19527.2 0 0 -19527.2 0 0 12213.5 0 0 -12213.5 0 0 3376.91 0 0 -3376.91
0 0 19339.2 0 0 -19339.2 0 0 11006.7 0 0 -11006.7 0 0 3831.24 0 0 -3831.24 0 0 19009.5 0 0 -19009.5 0 0 10294.1 0 0 -10294.1 0 0 3739.25 0 0 -3739.25
0 0 18714.6 0 0 -18714.6 0 0 9189.49 0 0 -9189.49 0 0 4170.7 0 0 -4170.7 0 0 18422.9 0 0 -18422.9 0 0 8399.57 0 0 -8399.57 0 0 4087.11 0 0 -4087.11
0 0 18009.4 0 0 -18009.4 0 0 7432.87 0 0 -7432.87 0 0 4487.08 0 0 -4487.08 0 0 17752.1 0 0 -17752.1 0 0 6568.69 0 0 -6568.69 0 0 4411.53 0 0 -4411.53
0 0 17211.7 0 0 -17211.7 0 0 5771.25 0 0 -5771.25 0 0 4772.11 0 0 -4772.11 0 0 16984 0 0 -16984 0 0 4837.47 0 0 -4837.47 0 0 4704.03 0 0 -4704.03
0 0 16310.5 0 0 -16310.5 0 0 4235.79 0 0 -4235.79 0 0 5018.18 0 0 -5018.18 0 0 16106.4 0 0 -16106.4 0 0 3238.55 0 0 -3238.55 0 0 4956.88 0 0 -4956.88
0 0 15295.7 0 0 -15295.7 0 0 2853.55 0 0 -2853.55 0 0 5218.57 0 0 -5218.57 0 0 15108.4 0 0 -15108.4 0 0 1800.28 0 0 -1800.28 0 0 5163.23 0 0 -5163.23
0 0 14159.7 0 0 -14159.7 0 0 1646.75 0 0 -1646.75 0 0 5367.56 0 0 -5367.56 0 0 13981.3 0 0 -13981.3 0 0 545.897 0 0 -545.897 0 0 5317.26 0 0 -5317.26
0 0 12898.8 0 0 -12898.8 0 0 631.951 0 0 -631.951 0 0 5460.63 0 0 -5460.63 0 0 12720.8 0 0 -12720.8 0 0 -507.228 0 0 507.228 0 0 5414.36 0 0 -5414.36
0 0 11514.3 0 0 -11514.3 0 0 -180.378 0 0 180.378 0 0 5494.48 0 0 -5494.48 0 0 11328.2 0 0 -11328.2 0 0 -1348.12 0 0 1348.12 0 0 5451.18 0 0 -5451.18
0 0 10012.5 0 0 -10012.5 0 0 -786.052 0 0 786.052 0 0 5467.12 0 0 -5467.12 0 0 9809.61 0 0 -9809.61 0 0 -1972.37 0 0 1972.37 0 0 5425.72 0 0 -5425.72
0 0 8404.89 0 0 -8404.89 0 0 -1187.19 0 0 1187.19 0 0 5377.9 0 0 -5377.9 0 0 8176.71 0 0 -8176.71 0 0 -2382.2 0 0 2382.2 0 0 5337.33 0 0 -5337.33
0 0 6707.12 0 0 -6707.12 0 0 -1392 0 0 1392 0 0 5227.49 0 0 -5227.49 0 0 6445.87 0 0 -6445.87 0 0 -2586.22 0 0 2586.22 0 0 5186.72 0 0 -5186.72
0 0 4938.89 0 0 -4938.89 0 0 -1414.38 0 0 1414.38 0 0 5017.8 0 0 -5017.8 0 0 4637.55 0 0 -4637.55 0 0 -2598.99 0 0 2598.99 0 0 4975.87 0 0 -4975.87
0 0 3123.53 0 0 -3123.53 0 0 -1273.43 0 0 1273.43 0 0 4751.96 0 0 -4751.96 0 0 2776.16 0 0 -2776.16 0 0 -2440.53 0 0 2440.53 0 0 4707.97 0 0 -4707.97
0 0 1287.87 0 0 -1287.87 0 0 -992.737 0 0 992.737 0 0 4434.13 0 0 -4434.13 0 0 889.564 0 0 -889.564 0 0 -2135.71 0 0 2135.71 0 0 4387.33 0 0 -4387.33
0 0 -196.493 0 0 196.493 0 0 -619.465 0 0 619.465 0 0 4070.28 0 0 -4070.28 0 0 -462.509 0 0 462.509 0 0 -1781.27 0 0 1781.27 0 0 4024.05 0 0 -4024.05
0 0 -1232.02 0 0 1232.02 0 0 -213.621 0 0 213.621 0 0 3665.61 0 0 -3665.61 0 0 -1518.6 0 0 1518.6 0 0 -1338.82 0 0 1338.82 0 0 3614 0 0 -3614
0 0 -2235.19 0 0 2235.19 0 0 268.522 0 0 -268.522 0 0 3225.78 0 0 -3225.78 0 0 -2524.31 0 0 2524.31 0 0 -851.392 0 0 851.392 0 0 3171.75 0 0 -3171.75
0 0 -3196.52 0 0 3196.52 0 0 786.129 0 0 -786.129 0 0 2757.77 0 0 -2757.77 0 0 -3500.12 0 0 3500.12 0 0 -308.28 0 0 308.28 0 0 2697.98 0 0 -2697.98
0 0 -4115.62 0 0 4115.62 0 0 1329.65 0 0 -1329.65 0 0 2265.86 0 0 -2265.86 0 0 -4435.43 0 0 4435.43 0 0 252.119 0 0 -252.119 0 0 2202.87 0 0 -2202.87
0 0 -4997.1 0 0 4997.1 0 0 1867.68 0 0 -1867.68 0 0 1757.76 0 0 -1757.76 0 0 -5331.65 0 0 5331.65 0 0 813.514 0 0 -813.514 0 0 1691.11 0 0 -1691.11
0 0 -5849.6 0 0 5849.6 0 0 2375.61 0 0 -2375.61 0 0 1240.46 0 0 -1240.46 0 0 -6196.81 0 0 6196.81 0 0 1346.27 0 0 -1346.27 0 0 1169.23 0 0 -1169.23
0 0 -6682.2 0 0 6682.2 0 0 2835.7 0 0 -2835.7 0 0 720.76 0 0 -720.76 0 0 -7042.43 0 0 7042.43 0 0 1827.6 0 0 -1827.6 0 0 645.447 0 0 -645.447
0 0 -7504.9 0 0 7504.9 0 0 3229.22 0 0 -3229.22 0 0 205.587 0 0 -205.587 0 0 -7879.01 0 0 7879.01 0 0 2237.83 0 0 -2237.83 0 0 126.195 0 0 -126.195
0 0 -8327.64 0 0 8327.64 0 0 3536.96 0 0 -3536.96 0 0 -307.431 0 0 307.431 0 0 -8714.66 0 0 8714.66 0 0 2558.11 0 0 -2558.11 0 0 -389.081 0 0 389.081
0 0 -9156.66 0 0 9156.66 0 0 3739.38 0 0 -3739.38 0 0 -802.018 0 0 802.018 0 0 -9555.52 0 0 9555.52 0 0 2768.33 0 0 -2768.33 0 0 -887.851 0 0 887.851
0 0 -9993.71 0 0 9993.71 0 0 3822.65 0 0 -3822.65 0 0 -1274.59 0 0 1274.59 0 0 -10404.2 0 0 10404.2 0 0 2850.84 0 0 -2850.84 0 0 -1365.22 0 0 1365.22
0 0 -10836.7 0 0 10836.7 0 0 3772.33 0 0 -3772.33 0 0 -1720.16 0 0 1720.16 0 0 -11258.2 0 0 11258.2 0 0 2790.75 0 0 -2790.75 0 0 -1813.6 0 0 1813.6
0 0 -11680.7 0 0 11680.7 0 0 3574.14 0 0 -3574.14 0 0 -2135.1 0 0 2135.1 0 0 -12112.5 0 0 12112.5 0 0 2579.11 0 0 -2579.11 0 0 -2229.74 0 0 2229.74
0 0 -12519.4 0 0 12519.4 0 0 3225.9 0 0 -3225.9 0 0 -2514.25 0 0 2514.25 0 0 -12960.8 0 0 12960.8 0 0 2208.55 0 0 -2208.55 0 0 -2609.19 0 0 2609.19
0 0 -13347.6 0 0 13347.6 0 0 2724 0 0 -2724 0 0 -2855.44 0 0 2855.44 0 0 -13797.9 0 0 13797.9 0 0 1676.19 0 0 -1676.19 0 0 -2950.24 0 0 2950.24
0 0 -14162.3 0 0 14162.3 0 0 2068.66 0 0 -2068.66 0 0 -3157.09 0 0 3157.09 0 0 -14620.5 0 0 14620.5 0 0 982.961 0 0 -982.961 0 0 -3251.05 0 0 3251.05
0 0 -14963.2 0 0 14963.2 0 0 1264.14 0 0 -1264.14 0 0 -3418.28 0 0 3418.28 0 0 -15428.4 0 0 15428.4 0 0 133.649 0 0 -133.649 0 0 -3510.65 0 0 3510.65
0 0 -15752.2 0 0 15752.2 0 0 319.241 0 0 -319.241 0 0 -3639.08 0 0 3639.08 0 0 -16223.5 0 0 16223.5 0 0 -863.812 0 0 863.812 0 0 -3728.79 0 0 3728.79
0 0 -16531.8 0 0 16531.8 0 0 -754.264 0 0 754.264 0 0 -3820.26 0 0 3820.26 0 0 -17008.5 0 0 17008.5 0 0 -1997.62 0 0 1997.62 0 0 -3906.32 0 0 3906.32
0 0 -17302.9 0 0 17302.9 0 0 -1942.27 0 0 1942.27 0 0 -3963.44 0 0 3963.44 0 0 -17784.3 0 0 17784.3 0 0 -3252.45 0 0 3252.45 0 0 -4045.09 0 0 4045.09
0 0 -18063.8 0 0 18063.8 0 0 -3228.19 0 0 3228.19 0 0 -4070.96 0 0 4070.96 0 0 -18549.3 0 0 18549.3 0 0 -4610.32 0 0 4610.32 0 0 -4147.64 0 0 4147.64
0 0 -18809.8 0 0 18809.8 0 0 -4593.06 0 0 4593.06 0 0 -4145.8 0 0 4145.8 0 0 -19298.8 0 0 19298.8 0 0 -6051.3 0 0 6051.3 0 0 -4217.07 0 0 4217.07
0 0 -19533.8 0 0 19533.8 0 0 -6016.04 0 0 6016.04 0 0 -4191.51 0 0 4191.51 0 0 -20025.8 0 0 20025.8 0 0 -7553.77 0 0 7553.77 0 0 -4256.94 0 0 4256.94
0 0 -20228.2 0 0 20228.2 0 0 -7474.88 0 0 7474.88 0 0 -4212.13 0 0 4212.13 0 0 -20722.8 0 0 20722.8 0 0 -9094.36 0 0 9094.36 0 0 -4271.33 0 0 4271.33
0 0 -20885.7 0 0 20885.7 0 0 -8946.33 0 0 8946.33 0 0 -4212.02 0 0 4212.02 0 0 -21382.3 0 0 21382.3 0 0 -10648.3 0 0 10648.3 0 0 -4264.72 0 0 4264.72
0 0 -21498.9 0 0 21498.9 0 0 -10406.5 0 0 10406.5 0 0 -4195.74 0 0 4195.74 0 0 -21997.1 0 0 21997.1 0 0 -12190.1 0 0 12190.1 0 0 -4241.9 0 0 4241.9
0 0 -22061.1 0 0 22061.1 0 0 -11830.9 0 0 11830.9 0 0 -4167.94 0 0 4167.94 0 0 -22560.5 0 0 22560.5 0 0 -13694 0 0 13694 0 0 -4207.69 0 0 4207.69
0 0 -22567.7 0 0 22567.7 0 0 -13195.5 0 0 13195.5 0 0 -4133.3 0 0 4133.3 0 0 -23068 0 0 23068 0 0 -15134.6 0 0 15134.6 0 0 -4166.93 0 0 4166.93
0 0 -23016.7 0 0 23016.7 0 0 -14476.3 0 0 14476.3 0 0 -4096.43 0 0 4096.43 0 0 -23517.5 0 0 23517.5 0 0 -16486.8 0 0 16486.8 0 0 -4124.28 0 0 4124.28
0 0 -23408.7 0 0 23408.7 0 0 -15650.8 0 0 15650.8 0 0 -4061.69 0 0 4061.69 0 0 -23909.8 0 0 23909.8 0 0 -17726.5 0 0 17726.5 0 0 -4084.19 0 0 4084.19
0 0 -23747.4 0 0 23747.4 0 0 -16697.8 0 0 16697.8 0 0 -4033.05 0 0 4033.05 0 0 -24248.6 0 0 24248.6 0 0 -18831.6 0 0 18831.6 0 0 -4050.77 0 0 4050.77
0 0 -24039.8 0 0 24039.8 0 0 -17598.1 0 0 17598.1 0 0 -4013.99 0 0 4013.99 0 0 -24541.1 0 0 24541.1 0 0 -19781.9 0 0 19781.9 0 0 -4027.66 0 0 4027.66
0 0 -24296.2 0 0 24296.2 0 0 -18334.9 0 0 18334.9 0 0 -4007.44 0 0 4007.44 0 0 -24798 0 0 24798 0 0 -20559.7 0 0 20559.7 0 0 -4017.89 0 0 4017.89
0 0 -24529.9 0 0 24529.9 0 0 -18894.5 0 0 18894.5 0 0 -4015.73 0 0 4015.73 0 0 -25032.4 0 0 25032.4 0 0 -21150.9 0 0 21150.9 0 0 -4023.82 0 0 4023.82
0 0 -24755.2 0 0 24755.2 0 0 -19266.7 0 0 19266.7 0 0 -4040.46 0 0 4040.46 0 0 -25259.1 0 0 25259.1 0 0 -21544.8 0 0 21544.8 0 0 -4047.06 0 0 4047.06
0 0 -24986.3 0 0 24986.3 0 0 -19445.4 0 0 19445.4 0 0 -4082.42 0 0 4082.42 0 0 -25492.3 0 0 25492.3 0 0 -21735.1 0 0 21735.1 0 0 -4088.45 0 0 4088.45
0 0 -25235.1 0 0 25235.1 0 0 -19428.7 0 0 19428.7 0 0 -4141.56 0 0 4141.56 0 0 -25744.3 0 0 25744.3 0 0 -21720.2 0 0 21720.2 0 0 -4147.94 0 0 4147.94
0 0 -25512.2 0 0 25512.2 0 0 -19219.6 0 0 19219.6 0 0 -4217 0 0 4217 0 0 -26025.8 0 0 26025.8 0 0 -21503.2 0 0 21503.2 0 0 -4224.66 0 0 4224.66
0 0 -25826.4 0 0 25826.4 0 0 -18823.9 0 0 18823.9 0 0 -4307.15 0 0 4307.15 0 0 -26346.8 0 0 26346.8 0 0 -21091.5 0 0 21091.5 0 0 -4316.93 0 0 4316.93
0 0 -26187.1 0 0 26187.1 0 0 -18253 0 0 18253 0 0 -4409.58 0 0 4409.58 0 0 -26717.1 0 0 26717.1 0 0 -20497.4 0 0 20497.4 0 0 -4422.22 0 0 4422.22
0 0 -26602.6 0 0 26602.6 0 0 -17523.4 0 0 17523.4 0 0 -4521.09 0 0 4521.09 0 0 -27144.8 0 0 27144.8 0 0 -19738 0 0 19738 0 0 -4537.29 0 0 4537.29
0 0 -27078.2 0 0 27078.2 0 0 -16655.4 0 0 16655.4 0 0 -4637.84 0 0 4637.84 0 0 -27634.5 0 0 27634.5 0 0 -18834.6 0 0 18834.6 0 0 -4658.15 0 0 4658.15
0 0 -27614.5 0 0 27614.5 0 0 -15673.2 0 0 15673.2 0 0 -4755.46 0 0 4755.46 0 0 -28186.8 0 0 28186.8 0 0 -17812.5 0 0 17812.5 0 0 -4780.34 0 0 4780.34
0 0 -28207.3 0 0 28207.3 0 0 -14604.1 0 0 14604.1 0 0 -4869.17 0 0 4869.17 0 0 -28797.1 0 0 28797.1 0 0 -16700.3 0 0 16700.3 0 0 -4898.93 0 0 4898.93
0 0 -28847.1 0 0 28847.1 0 0 -13478.3 0 0 13478.3 0 0 -4973.9 0 0 4973.9 0 0 -29455.3 0 0 29455.3 0 0 -15529.6 0 0 15529.6 0 0 -5008.68 0 0 5008.68
0 0 -29520.6 0 0 29520.6 0 0 -12327.8 0 0 12327.8 0 0 -5064.46 0 0 5064.46 0 0 -30147.7 0 0 30147.7 0 0 -14333.7 0 0 14333.7 0 0 -5104.26 0 0 5104.26
0 0 -30212.9 0 0 30212.9 0 0 -11185.2 0 0 11185.2 0 0 -5135.72 0 0 5135.72 0 0 -30858.8 0 0 30858.8 0 0 -13146.3 0 0 13146.3 0 0 -5180.36 0 0 5180.36
0 0 -30909.6 0 0 30909.6 0 0 -10082.5 0 0 10082.5 0 0 -5182.76 0 0 5182.76 0 0 -31573.7 0 0 31573.7 0 0 -12001.2 0 0 12001.2 0 0 -5231.93 0 0 5231.93
0 0 -31596.9 0 0 31596.9 0 0 -9050.92 0 0 9050.92 0 0 -5201.08 0 0 5201.08 0 0 -32278.2 0 0 32278.2 0 0 -10930.6 0 0 10930.6 0 0 -5254.28 0 0 5254.28
0 0 -32262 0 0 32262 0 0 -8119.28 0 0 8119.28 0 0 -5186.69 0 0 5186.69 0 0 -32958.8 0 0 32958.8 0 0 -9964.62 0 0 9964.62 0 0 -5243.3 0 0 5243.3
0 0 -32892.7 0 0 32892.7 0 0 -7313.73 0 0 7313.73 0 0 -5136.27 0 0 5136.27 0 0 -33603.1 0 0 33603.1 0 0 -9130.42 0 0 9130.42 0 0 -5195.55 0 0 5195.55
0 0 -33477.6 0 0 33477.6 0 0 -6656.91 0 0 6656.91 0 0 -5047.34 0 0 5047.34 0 0 -34199.1 0 0 34199.1 0 0 -8451.58 0 0 8451.58 0 0 -5108.42 0 0 5108.42
0 0 -34006.8 0 0 34006.8 0 0 -6167.35 0 0 6167.35 0 0 -4918.28 0 0 4918.28 0 0 -34736.9 0 0 34736.9 0 0 -7947.36 0 0 7947.36 0 0 -4980.25 0 0 4980.25
0 0 -34473.6 0 0 34473.6 0 0 -5858.84 0 0 5858.84 0 0 -4748.49 0 0 4748.49 0 0 -35209.3 0 0 35209.3 0 0 -7632.05 0 0 7632.05 0 0 -4810.35 0 0 4810.35
0 0 -34875.5 0 0 34875.5 0 0 -5739.94 0 0 5739.94 0 0 -4538.41 0 0 4538.41 0 0 -35613.8 0 0 35613.8 0 0 -7514.54 0 0 7514.54 0 0 -4599.15 0 0 4599.15
0 0 -35215 0 0 35215 0 0 -5813.79 0 0 5813.79 0 0 -4289.53 0 0 4289.53 0 0 -35952.9 0 0 35952.9 0 0 -7598.08 0 0 7598.08 0 0 -4348.13 0 0 4348.13
0 0 -35498.6 0 0 35498.6 0 0 -6077.8 0 0 6077.8 0 0 -4004.46 0 0 4004.46 0 0 -36147.4 0 0 36147.4 0 0 -7889.71 0 0 7889.71 0 0 -4059.3 0 0 4059.3
0 0 -35726.5 0 0 35726.5 0 0 -6523.19 0 0 6523.19 0 0 -3686.83 0 0 3686.83 0 0 -36178 0 0 36178 0 0 -8391.82 0 0 8391.82 0 0 -3735.82 0 0 3735.82
0 0 -35919 0 0 35919 0 0 -7137.02 0 0 7137.02 0 0 -3340.76 0 0 3340.76 0 0 -36203.1 0 0 36203.1 0 0 -9060.3 0 0 9060.3 0 0 -3385.69 0 0 3385.69
0 0 -36078.6 0 0 36078.6 0 0 -7907.08 0 0 7907.08 0 0 -2972.47 0 0 2972.47 0 0 -36223.5 0 0 36223.5 0 0 -9889.08 0 0 9889.08 0 0 -3009.79 0 0 3009.79
0 0 -36145.3 0 0 36145.3 0 0 -8819.76 0 0 8819.76 0 0 -2586.56 0 0 2586.56 0 0 -36239.1 0 0 36239.1 0 0 -10852.1 0 0 10852.1 0 0 -2619.04 0 0 2619.04
0 0 -36157.2 0 0 36157.2 0 0 -9844.69 0 0 9844.69 0 0 -2191.74 0 0 2191.74 0 0 -36248.9 0 0 36248.9 0 0 -11928.4 0 0 11928.4 0 0 -2216.36 0 0 2216.36
0 0 -36163.7 0 0 36163.7 0 0 -10955.1 0 0 10955.1 0 0 -1794.08 0 0 1794.08 0 0 -36253.3 0 0 36253.3 0 0 -13089.9 0 0 13089.9 0 0 -1811.63 0 0 1811.63
0 0 -36146.7 0 0 36146.7 0 0 -12123.3 0 0 12123.3 0 0 -1401.08 0 0 1401.08 0 0 -36209.8 0 0 36209.8 0 0 -14315.6 0 0 14315.6 0 0 -1411.18 0 0 1411.18
0 0 -36015.5 0 0 36015.5 0 0 -13319.5 0 0 13319.5 0 0 -1020.27 0 0 1020.27 0 0 -36062.7 0 0 36062.7 0 0 -15576.4 0 0 15576.4 0 0 -1023.21 0 0 1023.21
0 0 -35779.2 0 0 35779.2 0 0 -14520.9 0 0 14520.9 0 0 -659.37 0 0 659.37 0 0 -35809.4 0 0 35809.4 0 0 -16847.7 0 0 16847.7 0 0 -654.933 0 0 654.933
0 0 -35430.6 0 0 35430.6 0 0 -15705.2 0 0 15705.2 0 0 -325.478 0 0 325.478 0 0 -35435.6 0 0 35435.6 0 0 -18095.8 0 0 18095.8 0 0 -314.045 0 0 314.045
0 0 -34958.3 0 0 34958.3 0 0 -16840.8 0 0 16840.8 0 0 -26.0174 0 0 26.0174 0 0 -34932.6 0 0 34932.6 0 0 -19291.4 0 0 19291.4 0 0 -7.8716 0 0 7.8716
0 0 -34350.9 0 0 34350.9 0 0 -17895.9 0 0 17895.9 0 0 227.597 0 0 -227.597 0 0 -34291.7 0 0 34291.7 0 0 -20402.8 0 0 20402.8 0 0 253.23 0 0 -253.23
0 0 -33601.2 0 0 33601.2 0 0 -18844 0 0 18844 0 0 436.676 0 0 -436.676 0 0 -33504.2 0 0 33504.2 0 0 -21401.4 0 0 21401.4 0 0 465.905 0 0 -465.905
0 0 -32709.5 0 0 32709.5 0 0 -19658.9 0 0 19658.9 0 0 593.988 0 0 -593.988 0 0 -32569.6 0 0 32569.6 0 0 -22257.5 0 0 22257.5 0 0 626.598 0 0 -626.598
0 0 -31683.3 0 0 31683.3 0 0 -20311.7 0 0 20311.7 0 0 694.795 0 0 -694.795 0 0 -31499.8 0 0 31499.8 0 0 -22943.1 0 0 22943.1 0 0 730.445 0 0 -730.445
0 0 -30545.4 0 0 30545.4 0 0 -20775.9 0 0 20775.9 0 0 735.553 0 0 -735.553 0 0 -30320.9 0 0 30320.9 0 0 -23431.9 0 0 23431.9 0 0 773.836 0 0 -773.836
0 0 -29327 0 0 29327 0 0 -21030.2 0 0 21030.2 0 0 714.123 0 0 -714.123 0 0 -29064.9 0 0 29064.9 0 0 -23701 0 0 23701 0 0 753.95 0 0 -753.95
0 0 -28061.6 0 0 28061.6 0 0 -21057.7 0 0 21057.7 0 0 629.483 0 0 -629.483 0 0 -27765.8 0 0 27765.8 0 0 -23732.1 0 0 23732.1 0 0 669.378 0 0 -669.378
0 0 -26781.2 0 0 26781.2 0 0 -20845.8 0 0 20845.8 0 0 481.693 0 0 -481.693 0 0 -26457.1 0 0 26457.1 0 0 -23512.1 0 0 23512.1 0 0 520.164 0 0 -520.164
0 0 -25515.9 0 0 25515.9 0 0 -20387.6 0 0 20387.6 0 0 272.078 0 0 -272.078 0 0 -25170.6 0 0 25170.6 0 0 -23034 0 0 23034 0 0 307.876 0 0 -307.876
0 0 -24294.3 0 0 24294.3 0 0 -19682.8 0 0 19682.8 0 0 3.45151 0 0 -3.45151 0 0 -23935 0 0 23935 0 0 -22297.2 0 0 22297.2 0 0 35.4936 0 0 -35.4936
0 0 -23142.9 0 0 23142.9 0 0 -18736.4 0 0 18736.4 0 0 -326.125 0 0 326.125 0 0 -22777.7 0 0 22777.7 0 0 -21307.1 0 0 21307.1 0 0 -297.589 0 0 297.589
0 0 -22087.2 0 0 22087.2 0 0 -17561.4 0 0 17561.4 0 0 -703.708 0 0 703.708 0 0 -21724.2 0 0 21724.2 0 0 -20077.1 0 0 20077.1 0 0 -683.572 0 0 683.572
0 0 -21150.1 0 0 21150.1 0 0 -16175.9 0 0 16175.9 0 0 -1123.87 0 0 1123.87 0 0 -20798 0 0 20798 0 0 -18626 0 0 18626 0 0 -1112.55 0 0 1112.55
0 0 -20349.1 0 0 20349.1 0 0 -14604.6 0 0 14604.6 0 0 -1578.64 0 0 1578.64 0 0 -20016 0 0 20016 0 0 -16980 0 0 16980 0 0 -1576.45 0 0 1576.45
0 0 -19690 0 0 19690 0 0 -12878.4 0 0 12878.4 0 0 -2058.93 0 0 2058.93 0 0 -19383.5 0 0 19383.5 0 0 -15171.8 0 0 15171.8 0 0 -2066.13 0 0 2066.13
0 0 -19166.3 0 0 19166.3 0 0 -11034 0 0 11034 0 0 -2554.54 0 0 2554.54 0 0 -18892.8 0 0 18892.8 0 0 -13239.8 0 0 13239.8 0 0 -2571.8 0 0 2571.8
0 0 -18761.7 0 0 18761.7 0 0 -9112.39 0 0 9112.39 0 0 -3054.6 0 0 3054.6 0 0 -18526.3 0 0 18526.3 0 0 -11227 0 0 11227 0 0 -3082.75 0 0 3082.75
0 0 -18452.5 0 0 18452.5 0 0 -7158.04 0 0 7158.04 0 0 -3548.07 0 0 3548.07 0 0 -18258.5 0 0 18258.5 0 0 -9179.84 0 0 9179.84 0 0 -3587.59 0 0 3587.59
0 0 -18208.5 0 0 18208.5 0 0 -5217.02 0 0 5217.02 0 0 -4024.05 0 0 4024.05 0 0 -18057.3 0 0 18057.3 0 0 -7146.7 0 0 7146.7 0 0 -4074.8 0 0 4074.8
0 0 -17994.5 0 0 17994.5 0 0 -3335.66 0 0 3335.66 0 0 -4471.81 0 0 4471.81 0 0 -17885.3 0 0 17885.3 0 0 -5176.42 0 0 5176.42 0 0 -4533.17 0 0 4533.17
0 0 -17773.3 0 0 17773.3 0 0 -1559.02 0 0 1559.02 0 0 -4880.99 0 0 4880.99 0 0 -17703.2 0 0 17703.2 0 0 -3316.36 0 0 3316.36 0 0 -4952.14 0 0 4952.14
0 0 -17509.5 0 0 17509.5 0 0 70.8268 0 0 -70.8268 0 0 -5241.88 0 0 5241.88 0 0 -17473.8 0 0 17473.8 0 0 -1610.58 0 0 1610.58 0 0 -5321.95 0 0 5321.95
0 0 -17172.8 0 0 17172.8 0 0 1516.35 0 0 -1516.35 0 0 -5545.85 0 0 5545.85 0 0 -17164.8 0 0 17164.8 0 0 -98.3357 0 0 98.3357 0 0 -5633.84 0 0 5633.84
0 0 -16738.2 0 0 16738.2 0 0 2745.78 0 0 -2745.78 0 0 -5785.57 0 0 5785.57 0 0 -16750.1 0 0 16750.1 0 0 1187.06 0 0 -1187.06 0 0 -5880.24 0 0 5880.24
0 0 -16185.3 0 0 16185.3 0 0 3733.89 0 0 -3733.89 0 0 -5955.21 0 0 5955.21 0 0 -16208 0 0 16208 0 0 2219.09 0 0 -2219.09 0 0 -6055.03 0 0 6055.03
0 0 -15496.8 0 0 15496.8 0 0 4462.56 0 0 -4462.56 0 0 -6050.45 0 0 6050.45 0 0 -15520.2 0 0 15520.2 0 0 2978.68 0 0 -2978.68 0 0 -6153.72 0 0 6153.72
0 0 -14659.3 0 0 14659.3 0 0 4921.35 0 0 -4921.35 0 0 -6068.59 0 0 6068.59 0 0 -14672.8 0 0 14672.8 0 0 3454.91 0 0 -3454.91 0 0 -6173.57 0 0 6173.57
0 0 -13664.8 0 0 13664.8 0 0 5107.98 0 0 -5107.98 0 0 -6008.63 0 0 6008.63 0 0 -13657.4 0 0 13657.4 0 0 3645.42 0 0 -3645.42 0 0 -6113.66 0 0 6113.66
0 0 -12511 0 0 12511 0 0 5028.49 0 0 -5028.49 0 0 -5871.34 0 0 5871.34 0 0 -12472.1 0 0 12472.1 0 0 3556.55 0 0 -3556.55 0 0 -5974.81 0 0 5974.81
0 0 -11202.2 0 0 11202.2 0 0 4697.1 0 0 -4697.1 0 0 -5659.25 0 0 5659.25 0 0 -11121.3 0 0 11121.3 0 0 3203.17 0 0 -3203.17 0 0 -5759.58 0 0 5759.58
0 0 -9748 0 0 9748 0 0 4135.76 0 0 -4135.76 0 0 -5376.52 0 0 5376.52 0 0 -9615.48 0 0 9615.48 0 0 2608.23 0 0 -2608.23 0 0 -5472.22 0 0 5472.22
0 0 -8162.75 0 0 8162.75 0 0 3373.38 0 0 -3373.38 0 0 -5028.78 0 0 5028.78 0 0 -7970.13 0 0 7970.13 0 0 1802.03 0 0 -1802.03 0 0 -5118.51 0 0 5118.51
0 0 -6463.73 0 0 6463.73 0 0 2444.9 0 0 -2444.9 0 0 -4622.96 0 0 4622.96 0 0 -6203.79 0 0 6203.79 0 0 821.176 0 0 -821.176 0 0 -4705.64 0 0 4705.64
0 0 -4669.5 0 0 4669.5 0 0 1390.17 0 0 -1390.17 0 0 -4167.12 0 0 4167.12 0 0 -4336.48 0 0 4336.48 0 0 -292.58 0 0 292.58 0 0 -4241.91 0 0 4241.91
0 0 -2798.56 0 0 2798.56 0 0 252.712 0 0 -252.712 0 0 -3670.23 0 0 3670.23 0 0 -2388.29 0 0 2388.29 0 0 -1493.65 0 0 1493.65 0 0 -3736.56 0 0 3736.56
0 0 -868.753 0 0 868.753 0 0 -921.483 0 0 921.483 0 0 -3141.93 0 0 3141.93 0 0 -378.681 0 0 378.681 0 0 -2733.87 0 0 2733.87 0 0 -3199.46 0 0 3199.46
0 0 544.258 0 0 -544.258 0 0 -2030.6 0 0 2030.6 0 0 -2595.26 0 0 2595.26 0 0 847.262 0 0 -847.262 0 0 -3861.98 0 0 3861.98 0 0 -2647.93 0 0 2647.93
0 0 1707.21 0 0 -1707.21 0 0 -3071.01 0 0 3071.01 0 0 -2037.79 0 0 2037.79 0 0 2016.92 0 0 -2016.92 0 0 -4955.73 0 0 4955.73 0 0 -2074.59 0 0 2074.59
0 0 2882.59 0 0 -2882.59 0 0 -4020.36 0 0 4020.36 0 0 -1472.73 0 0 1472.73 0 0 3195.8 0 0 -3195.8 0 0 -5930.11 0 0 5930.11 0 0 -1510.94 0 0 1510.94
0 0 4056.13 0 0 -4056.13 0 0 -4840.89 0 0 4840.89 0 0 -917.844 0 0 917.844 0 0 4369.78 0 0 -4369.78 0 0 -6797 0 0 6797 0 0 -945.753 0 0 945.753
0 0 5211.95 0 0 -5211.95 0 0 -5510.34 0 0 5510.34 0 0 -376.767 0 0 376.767 0 0 5523.26 0 0 -5523.26 0 0 -7490.11 0 0 7490.11 0 0 -400.698 0 0 400.698
0 0 6333.01 0 0 -6333.01 0 0 -5989.48 0 0 5989.48 0 0 136.337 0 0 -136.337 0 0 6640.06 0 0 -6640.06 0 0 -7987.77 0 0 7987.77 0 0 119.283 0 0 -119.283
0 0 7400.87 0 0 -7400.87 0 0 -6252.88 0 0 6252.88 0 0 618.038 0 0 -618.038 0 0 7700.76 0 0 -7700.76 0 0 -8262.34 0 0 8262.34 0 0 603.41 0 0 -603.41
0 0 8393.25 0 0 -8393.25 0 0 -6287.1 0 0 6287.1 0 0 1065.44 0 0 -1065.44 0 0 8686.56 0 0 -8686.56 0 0 -8296.75 0 0 8296.75 0 0 1050.95 0 0 -1050.95
0 0 9284.79 0 0 -9284.79 0 0 -6084.19 0 0 6084.19 0 0 1473.33 0 0 -1473.33 0 0 9575.69 0 0 -9575.69 0 0 -8081.31 0 0 8081.31 0 0 1460.41 0 0 -1460.41
0 0 10073.7 0 0 -10073.7 0 0 -5631.67 0 0 5631.67 0 0 1838.7 0 0 -1838.7 0 0 10361.5 0 0 -10361.5 0 0 -7598.51 0 0 7598.51 0 0 1825.87 0 0 -1825.87
0 0 10754.2 0 0 -10754.2 0 0 -4924.36 0 0 4924.36 0 0 2159.28 0 0 -2159.28 0 0 11036.5 0 0 -11036.5 0 0 -6854.11 0 0 6854.11 0 0 2145.78 0 0 -2145.78
0 0 11324.3 0 0 -11324.3 0 0 -3981.34 0 0 3981.34 0 0 2434.55 0 0 -2434.55 0 0 11598.5 0 0 -11598.5 0 0 -5856.09 0 0 5856.09 0 0 2417.79 0 0 -2417.79
0 0 11784.4 0 0 -11784.4 0 0 -2806.84 0 0 2806.84 0 0 2664.11 0 0 -2664.11 0 0 12050 0 0 -12050 0 0 -4627.63 0 0 4627.63 0 0 2642.09 0 0 -2642.09
0 0 12139 0 0 -12139 0 0 -1423.25 0 0 1423.25 0 0 2850.46 0 0 -2850.46 0 0 12395.3 0 0 -12395.3 0 0 -3174.88 0 0 3174.88 0 0 2824.56 0 0 -2824.56
0 0 12393.4 0 0 -12393.4 0 0 146.896 0 0 -146.896 0 0 2996.39 0 0 -2996.39 0 0 12639.4 0 0 -12639.4 0 0 -1530.04 0 0 1530.04 0 0 2964.9 0 0 -2964.9
0 0 12554.3 0 0 -12554.3 0 0 1872.94 0 0 -1872.94 0 0 3106.08 0 0 -3106.08 0 0 12788.6 0 0 -12788.6 0 0 277.108 0 0 -277.108 0 0 3067.98 0 0 -3067.98
0 0 12629.5 0 0 -12629.5 0 0 3720.42 0 0 -3720.42 0 0 3184.58 0 0 -3184.58 0 0 12851.9 0 0 -12851.9 0 0 2209.15 0 0 -2209.15 0 0 3139.13 0 0 -3139.13
0 0 12619.7 0 0 -12619.7 0 0 5651.67 0 0 -5651.67 0 0 3237.36 0 0 -3237.36 0 0 12822.4 0 0 -12822.4 0 0 4228.76 0 0 -4228.76 0 0 3183.91 0 0 -3183.91
0 0 12510.4 0 0 -12510.4 0 0 7627.86 0 0 -7627.86 0 0 3270.24 0 0 -3270.24 0 0 12687.2 0 0 -12687.2 0 0 6295.9 0 0 -6295.9 0 0 3208.62 0 0 -3208.62
0 0 12332.5 0 0 -12332.5 0 0 9604.22 0 0 -9604.22 0 0 3289.63 0 0 -3289.63 0 0 12480.5 0 0 -12480.5 0 0 8363.41 0 0 -8363.41 0 0 3220.06 0 0 -3220.06
0 0 12125.2 0 0 -12125.2 0 0 11534.9 0 0 -11534.9 0 0 3302.38 0 0 -3302.38 0 0 12244.1 0 0 -12244.1 0 0 10382.5 0 0 -10382.5 0 0 3224.89 0 0 -3224.89
0 0 11935 0 0 -11935 0 0 13373.7 0 0 -13373.7 0 0 3315.1 0 0 -3315.1 0 0 12026.4 0 0 -12026.4 0 0 12304.9 0 0 -12304.9 0 0 3230.07 0 0 -3230.07
0 0 11813.1 0 0 -11813.1 0 0 15076.3 0 0 -15076.3 0 0 3334 0 0 -3334 0 0 11880.8 0 0 -11880.8 0 0 14084.6 0 0 -14084.6 0 0 3241.89 0 0 -3241.89
0 0 11809.8 0 0 -11809.8 0 0 16602.2 0 0 -16602.2 0 0 3364.64 0 0 -3364.64 0 0 11859.7 0 0 -11859.7 0 0 15679.3 0 0 -15679.3 0 0 3266.27 0 0 -3266.27
0 0 11968.3 0 0 -11968.3 0 0 17916.7 0 0 -17916.7 0 0 3411.83 0 0 -3411.83 0 0 12008.1 0 0 -12008.1 0 0 17052.6 0 0 -17052.6 0 0 3308.18 0 0 -3308.18
0 0 12322.1 0 0 -12322.1 0 0 18992 0 0 -18992 0 0 3479.37 0 0 -3479.37 0 0 12361.2 0 0 -12361.2 0 0 18175.4 0 0 -18175.4 0 0 3371.57 0 0 -3371.57
0 0 12756.5 0 0 -12756.5 0 0 19824.6 0 0 -19824.6 0 0 3568.75 0 0 -3568.75 0 0 12883.4 0 0 -12883.4 0 0 19030.7 0 0 -19030.7 0 0 3459.14 0 0 -3459.14
0 0 13221.3 0 0 -13221.3 0 0 20404.4 0 0 -20404.4 0 0 3683.66 0 0 -3683.66 0 0 13321.7 0 0 -13321.7 0 0 19648.9 0 0 -19648.9 0 0 3569.57 0 0 -3569.57
0 0 13820.6 0 0 -13820.6 0 0 20717.7 0 0 -20717.7 0 0 3821.55 0 0 -3821.55 0 0 13913.2 0 0 -13913.2 0 0 19974.2 0 0 -19974.2 0 0 3708.82 0 0 -3708.82
0 0 14551.2 0 0 -14551.2 0 0 20762.7 0 0 -20762.7 0 0 3984.24 0 0 -3984.24 0 0 14637.4 0 0 -14637.4 0 0 20030 0 0 -20030 0 0 3869.6 0 0 -3869.6
0 0 15402.9 0 0 -15402.9 0 0 20553.2 0 0 -20553.2 0 0 4167.95 0 0 -4167.95 0 0 15482.8 0 0 -15482.8 0 0 19815.3 0 0 -19815.3 0 0 4056.35 0 0 -4056.35
0 0 16359.8 0 0 -16359.8 0 0 20102.7 0 0 -20102.7 0 0 4370.83 0 0 -4370.83 0 0 16434.2 0 0 -16434.2 0 0 19353.6 0 0 -19353.6 0 0 4261.05 0 0 -4261.05
0 0 17403.8 0 0 -17403.8 0 0 19434.1 0 0 -19434.1 0 0 4588.25 0 0 -4588.25 0 0 17474.5 0 0 -17474.5 0 0 18664.1 0 0 -18664.1 0 0 4481.84 0 0 -4481.84
0 0 18518.1 0 0 -18518.1 0 0 18575.1 0 0 -18575.1 0 0 4815.38 0 0 -4815.38 0 0 18586.1 0 0 -18586.1 0 0 17776 0 0 -17776 0 0 4712.7 0 0 -4712.7
0 0 19686.4 0 0 -19686.4 0 0 17557.4 0 0 -17557.4 0 0 5046.29 0 0 -5046.29 0 0 19752.9 0 0 -19752.9 0 0 16722.6 0 0 -16722.6 0 0 4948.22 0 0 -4948.22
0 0 20892.6 0 0 -20892.6 0 0 16415.8 0 0 -16415.8 0 0 5274.64 0 0 -5274.64 0 0 20959.2 0 0 -20959.2 0 0 15541.2 0 0 -15541.2 0 0 5181.82 0 0 -5181.82
0 0 22119.8 0 0 -22119.8 0 0 15188.7 0 0 -15188.7 0 0 5493.85 0 0 -5493.85 0 0 22188.1 0 0 -22188.1 0 0 14272.1 0 0 -14272.1 0 0 5406.53 0 0 -5406.53
0 0 23350.4 0 0 -23350.4 0 0 13917.2 0 0 -13917.2 0 0 5697.1 0 0 -5697.1 0 0 23421.2 0 0 -23421.2 0 0 12956.9 0 0 -12956.9 0 0 5615.27 0 0 -5615.27
0 0 24567.3 0 0 -24567.3 0 0 12672.1 0 0 -12672.1 0 0 5662.37 0 0 -5662.37 0 0 24638.1 0 0 -24638.1 0 0 11743 0 0 -11743 0 0 4982.43 0 0 -4982.43
0 0 25783.8 0 0 -25783.8 0 0 11277.5 0 0 -11277.5 0 0 5414.13 0 0 -5414.13 0 0 25755.4 0 0 -25755.4 0 0 11237.9 0 0 -11237.9 0 0 2458.78 0 0 -2458.78
0 0 26909.6 0 0 -26909.6 0 0 10283 0 0 -10283 0 0 4770.6 0 0 -4770.6 0 0 26919.4 0 0 -26919.4 0 0 9636.37 0 0 -9636.37 0 0 3370.13 0 0 -3370.13
0 0 27980.7 0 0 -27980.7 0 0 9141.47 0 0 -9141.47 0 0 4774.12 0 0 -4774.12 0 0 27999.1 0 0 -27999.1 0 0 8737.34 0 0 -8737.34 0 0 2692.24 0 0 -2692.24
0 0 28984.5 0 0 -28984.5 0 0 8165.33 0 0 -8165.33 0 0 5085.18 0 0 -5085.18 0 0 28984.1 0 0 -28984.1 0 0 7716.75 0 0 -7716.75 0 0 2839.05 0 0 -2839.05
0 0 29887.2 0 0 -29887.2 0 0 7337.09 0 0 -7337.09 0 0 5419.43 0 0 -5419.43 0 0 29897.5 0 0 -29897.5 0 0 6902.39 0 0 -6902.39 0 0 2670.42 0 0 -2670.42
0 0 30695 0 0 -30695 0 0 6674.58 0 0 -6674.58 0 0 5436.47 0 0 -5436.47 0 0 30683.5 0 0 -30683.5 0 0 6317.06 0 0 -6317.06 0 0 2645.79 0 0 -2645.79
0 0 31375.9 0 0 -31375.9 0 0 6273.98 0 0 -6273.98 0 0 5166.18 0 0 -5166.18 0 0 31378.4 0 0 -31378.4 0 0 5838.55 0 0 -5838.55 0 0 2712.24 0 0 -2712.24
0 0 31938.5 0 0 -31938.5 0 0 6094.21 0 0 -6094.21 0 0 4894.07 0 0 -4894.07 0 0 31939.2 0 0 -31939.2 0 0 5604.41 0 0 -5604.41 0 0 2705.66 0 0 -2705.66
0 0 32369.6 0 0 -32369.6 0 0 6124.02 0 0 -6124.02 0 0 4781.17 0 0 -4781.17 0 0 32367.3 0 0 -32367.3 0 0 5607.97 0 0 -5607.97 0 0 2571.92 0 0 -2571.92
0 0 32666.1 0 0 -32666.1 0 0 6346.6 0 0 -6346.6 0 0 4753.1 0 0 -4753.1 0 0 32652.9 0 0 -32652.9 0 0 5884.88 0 0 -5884.88 0 0 2324.29 0 0 -2324.29
0 0 32827.2 0 0 -32827.2 0 0 6790.98 0 0 -6790.98 0 0 4622.38 0 0 -4622.38 0 0 32801.8 0 0 -32801.8 0 0 6392.92 0 0 -6392.92 0 0 2059.77 0 0 -2059.77
0 0 32853.4 0 0 -32853.4 0 0 7471.17 0 0 -7471.17 0 0 4312.98 0 0 -4312.98 0 0 32812.1 0 0 -32812.1 0 0 7097.34 0 0 -7097.34 0 0 1825 0 0 -1825
0 0 32682.6 0 0 -32682.6 0 0 8361.95 0 0 -8361.95 0 0 3913.05 0 0 -3913.05 0 0 32628.6 0 0 -32628.6 0 0 7992.05 0 0 -7992.05 0 0 1590.77 0 0 -1590.77
0 0 32340.9 0 0 -32340.9 0 0 9415.33 0 0 -9415.33 0 0 3550.41 0 0 -3550.41 0 0 32266.3 0 0 -32266.3 0 0 9073.45 0 0 -9073.45 0 0 1306.35 0 0 -1306.35
0 0 31860.1 0 0 -31860.1 0 0 10593.1 0 0 -10593.1 0 0 3260.8 0 0 -3260.8 0 0 31751.7 0 0 -31751.7 0 0 10321.3 0 0 -10321.3 0 0 959.587 0 0 -959.587
0 0 31270.6 0 0 -31270.6 0 0 11872.6 0 0 -11872.6 0 0 2984.04 0 0 -2984.04 0 0 31120.5 0 0 -31120.5 0 0 11682.9 0 0 -11682.9 0 0 613.887 0 0 -613.887
0 0 30602.8 0 0 -30602.8 0 0 13231.2 0 0 -13231.2 0 0 2659.09 0 0 -2659.09 0 0 30413.8 0 0 -30413.8 0 0 13094.3 0 0 -13094.3 0 0 338.164 0 0 -338.164
0 0 29892.9 0 0 -29892.9 0 0 14628.6 0 0 -14628.6 0 0 2297.85 0 0 -2297.85 0 0 29668.4 0 0 -29668.4 0 0 14518.8 0 0 -14518.8 0 0 117.967 0 0 -117.967
0 0 29179.6 0 0 -29179.6 0 0 16014 0 0 -16014 0 0 1959.16 0 0 -1959.16 0 0 28919.5 0 0 -28919.5 0 0 15927 0 0 -15927 0 0 -75.1931 0 0 75.1931
0 0 28497.8 0 0 -28497.8 0 0 17340.4 0 0 -17340.4 0 0 1689.01 0 0 -1689.01 0 0 28203 0 0 -28203 0 0 17277.6 0 0 -17277.6 0 0 -223.104 0 0 223.104
0 0 27875.4 0 0 -27875.4 0 0 18570.2 0 0 -18570.2 0 0 1481.38 0 0 -1481.38 0 0 27547.7 0 0 -27547.7 0 0 18541.1 0 0 -18541.1 0 0 -359.197 0 0 359.197
0 0 27329.5 0 0 -27329.5 0 0 19680.3 0 0 -19680.3 0 0 1295.45 0 0 -1295.45 0 0 26973.8 0 0 -26973.8 0 0 19673 0 0 -19673 0 0 -458.947 0 0 458.947
0 0 26867.3 0 0 -26867.3 0 0 20643.8 0 0 -20643.8 0 0 1106.82 0 0 -1106.82 0 0 26487.5 0 0 -26487.5 0 0 20653.8 0 0 -20653.8 0 0 -565.724 0 0 565.724
0 0 26488.1 0 0 -26488.1 0 0 21434.2 0 0 -21434.2 0 0 923.734 0 0 -923.734 0 0 26088 0 0 -26088 0 0 21457.4 0 0 -21457.4 0 0 -659.371 0 0 659.371
0 0 26188.1 0 0 -26188.1 0 0 22028.3 0 0 -22028.3 0 0 780.305 0 0 -780.305 0 0 25772.5 0 0 -25772.5 0 0 22062.1 0 0 -22062.1 0 0 -730.963 0 0 730.963
0 0 25963 0 0 -25963 0 0 22410.2 0 0 -22410.2 0 0 702.51 0 0 -702.51 0 0 25535.8 0 0 -25535.8 0 0 22453.1 0 0 -22453.1 0 0 -773.187 0 0 773.187
0 0 25807 0 0 -25807 0 0 22573.2 0 0 -22573.2 0 0 687.866 0 0 -687.866 0 0 25372.8 0 0 -25372.8 0 0 22619.7 0 0 -22619.7 0 0 -786.356 0 0 786.356
0 0 25711 0 0 -25711 0 0 22514.8 0 0 -22514.8 0 0 714.761 0 0 -714.761 0 0 25275.7 0 0 -25275.7 0 0 22560.8 0 0 -22560.8 0 0 -778.682 0 0 778.682
0 0 25667 0 0 -25667 0 0 22237.4 0 0 -22237.4 0 0 770.508 0 0 -770.508 0 0 25237.6 0 0 -25237.6 0 0 22274.2 0 0 -22274.2 0 0 -721.916 0 0 721.916
0 0 25669.1 0 0 -25669.1 0 0 21749.4 0 0 -21749.4 0 0 863.279 0 0 -863.279 0 0 25254.3 0 0 -25254.3 0 0 21761.3 0 0 -21761.3 0 0 -605.838 0 0 605.838
0 0 25717.7 0 0 -25717.7 0 0 21059.7 0 0 -21059.7 0 0 1012.14 0 0 -1012.14 0 0 25323.1 0 0 -25323.1 0 0 21042.1 0 0 -21042.1 0 0 -450.204 0 0 450.204
0 0 25816.4 0 0 -25816.4 0 0 20185.1 0 0 -20185.1 0 0 1218.63 0 0 -1218.63 0 0 25447.7 0 0 -25447.7 0 0 20132 0 0 -20132 0 0 -258.35 0 0 258.35
0 0 25969.1 0 0 -25969.1 0 0 19147.3 0 0 -19147.3 0 0 1467.4 0 0 -1467.4 0 0 25631.7 0 0 -25631.7 0 0 19053.7 0 0 -19053.7 0 0 -32.8761 0 0 32.8761
0 0 26176.1 0 0 -26176.1 0 0 17973.6 0 0 -17973.6 0 0 1734.3 0 0 -1734.3 0 0 25874.3 0 0 -25874.3 0 0 17838.8 0 0 -17838.8 0 0 192.564 0 0 -192.564
0 0 26431.2 0 0 -26431.2 0 0 16693 0 0 -16693 0 0 2004.54 0 0 -2004.54 0 0 26166.5 0 0 -26166.5 0 0 16523.7 0 0 -16523.7 0 0 396.155 0 0 -396.155
0 0 26719.1 0 0 -26719.1 0 0 15339.8 0 0 -15339.8 0 0 2276.51 0 0 -2276.51 0 0 26494.1 0 0 -26494.1 0 0 15132.2 0 0 -15132.2 0 0 613.002 0 0 -613.002
0 0 27020.2 0 0 -27020.2 0 0 13947.9 0 0 -13947.9 0 0 2560.8 0 0 -2560.8 0 0 26837.2 0 0 -26837.2 0 0 13698.2 0 0 -13698.2 0 0 841.465 0 0 -841.465
0 0 27316.1 0 0 -27316.1 0 0 12551 0 0 -12551 0 0 2863.11 0 0 -2863.11 0 0 27174.5 0 0 -27174.5 0 0 12262.3 0 0 -12262.3 0 0 1071.91 0 0 -1071.91
0 0 27590.8 0 0 -27590.8 0 0 11185.5 0 0 -11185.5 0 0 3172.53 0 0 -3172.53 0 0 27489.5 0 0 -27489.5 0 0 10859 0 0 -10859 0 0 1301.17 0 0 -1301.17
0 0 27832.4 0 0 -27832.4 0 0 9886.09 0 0 -9886.09 0 0 3470.58 0 0 -3470.58 0 0 27768.7 0 0 -27768.7 0 0 9524.82 0 0 -9524.82 0 0 1522.61 0 0 -1522.61
0 0 28031.9 0 0 -28031.9 0 0 8685.67 0 0 -8685.67 0 0 3743.72 0 0 -3743.72 0 0 28002.7 0 0 -28002.7 0 0 8291.55 0 0 -8291.55 0 0 1732.85 0 0 -1732.85
0 0 28183.6 0 0 -28183.6 0 0 7613.06 0 0 -7613.06 0 0 3989.9 0 0 -3989.9 0 0 28184.9 0 0 -28184.9 0 0 7188.69 0 0 -7188.69 0 0 1927.89 0 0 -1927.89
0 0 28285 0 0 -28285 0 0 6692.63 0 0 -6692.63 0 0 4212.71 0 0 -4212.71 0 0 28311.8 0 0 -28311.8 0 0 6242.46 0 0 -6242.46 0 0 2103.62 0 0 -2103.62
0 0 28334.8 0 0 -28334.8 0 0 5944.87 0 0 -5944.87 0 0 4412.02 0 0 -4412.02 0 0 28381.4 0 0 -28381.4 0 0 5475.1 0 0 -5475.1 0 0 2256.08 0 0 -2256.08
0 0 28330.5 0 0 -28330.5 0 0 5386.94 0 0 -5386.94 0 0 4580.91 0 0 -4580.91 0 0 28390.7 0 0 -28390.7 0 0 4904.36 0 0 -4904.36 0 0 2382.01 0 0 -2382.01
0 0 28265.7 0 0 -28265.7 0 0 5032.27 0 0 -5032.27 0 0 4710.43 0 0 -4710.43 0 0 28333 0 0 -28333 0 0 4543 0 0 -4543 0 0 2479.42 0 0 -2479.42
0 0 28128.7 0 0 -28128.7 0 0 4889.33 0 0 -4889.33 0 0 4796.17 0 0 -4796.17 0 0 28196.2 0 0 -28196.2 0 0 4399.04 0 0 -4399.04 0 0 2547.25 0 0 -2547.25
0 0 27903.1 0 0 -27903.1 0 0 4960.9 0 0 -4960.9 0 0 4839.96 0 0 -4839.96 0 0 27963.5 0 0 -27963.5 0 0 4475.69 0 0 -4475.69 0 0 2585.02 0 0 -2585.02
0 0 27570.5 0 0 -27570.5 0 0 5244.14 0 0 -5244.14 0 0 4846.1 0 0 -4846.1 0 0 27616.2 0 0 -27616.2 0 0 4770.9 0 0 -4770.9 0 0 2592.36 0 0 -2592.36
0 0 27112.9 0 0 -27112.9 0 0 5730.92 0 0 -5730.92 0 0 4815.28 0 0 -4815.28 0 0 27135.5 0 0 -27135.5 0 0 5278.97 0 0 -5278.97 0 0 2557.72 0 0 -2557.72
0 0 26512.2 0 0 -26512.2 0 0 6407.58 0 0 -6407.58 0 0 4745.08 0 0 -4745.08 0 0 26502.9 0 0 -26502.9 0 0 5987.1 0 0 -5987.1 0 0 2482.7 0 0 -2482.7
0 0 25751.4 0 0 -25751.4 0 0 7256.13 0 0 -7256.13 0 0 4634.12 0 0 -4634.12 0 0 25702.7 0 0 -25702.7 0 0 6873.06 0 0 -6873.06 0 0 2374.23 0 0 -2374.23
0 0 24819.4 0 0 -24819.4 0 0 8251.33 0 0 -8251.33 0 0 4487.63 0 0 -4487.63 0 0 24723.5 0 0 -24723.5 0 0 7911.91 0 0 -7911.91 0 0 2235.4 0 0 -2235.4
0 0 23712.2 0 0 -23712.2 0 0 9362.7 0 0 -9362.7 0 0 4314.35 0 0 -4314.35 0 0 23562.3 0 0 -23562.3 0 0 9072.08 0 0 -9072.08 0 0 2070.01 0 0 -2070.01
0 0 22433.8 0 0 -22433.8 0 0 10554.8 0 0 -10554.8 0 0 4122.41 0 0 -4122.41 0 0 22223.9 0 0 -22223.9 0 0 10317.7 0 0 -10317.7 0 0 1882.52 0 0 -1882.52
0 0 20996.6 0 0 -20996.6 0 0 11788.8 0 0 -11788.8 0 0 3917.05 0 0 -3917.05 0 0 20722.1 0 0 -20722.1 0 0 11608.1 0 0 -11608.1 0 0 1679.63 0 0 -1679.63
0 0 19421.8 0 0 -19421.8 0 0 13023.1 0 0 -13023.1 0 0 3702.46 0 0 -3702.46 0 0 19079.8 0 0 -19079.8 0 0 12899.3 0 0 -12899.3 0 0 1469.07 0 0 -1469.07
0 0 17738.9 0 0 -17738.9 0 0 14214.3 0 0 -14214.3 0 0 3484.51 0 0 -3484.51 0 0 17328.5 0 0 -17328.5 0 0 14145.4 0 0 -14145.4 0 0 1258.03 0 0 -1258.03
0 0 15983.9 0 0 -15983.9 0 0 15318.1 0 0 -15318.1 0 0 3271.17 0 0 -3271.17 0 0 15505.8 0 0 -15505.8 0 0 15300.5 0 0 -15300.5 0 0 1052.69 0 0 -1052.69
0 0 14195.5 0 0 -14195.5 0 0 16291.5 0 0 -16291.5 0 0 3070.57 0 0 -3070.57 0 0 13652.4 0 0 -13652.4 0 0 16320.2 0 0 -16320.2 0 0 858.575 0 0 -858.575
0 0 12411.9 0 0 -12411.9 0 0 17094.3 0 0 -17094.3 0 0 2890.38 0 0 -2890.38 0 0 11808.6 0 0 -11808.6 0 0 17161.2 0 0 -17161.2 0 0 690.443 0 0 -690.443
0 0 10667.1 0 0 -10667.1 0 0 17691.3 0 0 -17691.3 0 0 2735.82 0 0 -2735.82 0 0 10010.3 0 0 -10010.3 0 0 17786.6 0 0 -17786.6 0 0 549.029 0 0 -549.029
0 0 8989.58 0 0 -8989.58 0 0 18052.6 0 0 -18052.6 0 0 2609.57 0 0 -2609.57 0 0 8287.08 0 0 -8287.08 0 0 18165.6 0 0 -18165.6 0 0 436.758 0 0 -436.758
0 0 7402.82 0 0 -7402.82 0 0 18154.3 0 0 -18154.3 0 0 2514.98 0 0 -2514.98 0 0 6663.41 0 0 -6663.41 0 0 18273.5 0 0 -18273.5 0 0 362.15 0 0 -362.15
0 0 5925.44 0 0 -5925.44 0 0 17980.1 0 0 -17980.1 0 0 2450.87 0 0 -2450.87 0 0 5158.76 0 0 -5158.76 0 0 18095.6 0 0 -18095.6 0 0 306.134 0 0 -306.134
0 0 4572.4 0 0 -4572.4 0 0 17520.6 0 0 -17520.6 0 0 2415.8 0 0 -2415.8 0 0 3787.83 0 0 -3787.83 0 0 17623 0 0 -17623 0 0 276.783 0 0 -276.783
0 0 3354.06 0 0 -3354.06 0 0 16774.9 0 0 -16774.9 0 0 2408.99 0 0 -2408.99 0 0 2562.23 0 0 -2562.23 0 0 16852.1 0 0 -16852.1 0 0 273.646 0 0 -273.646
0 0 2276.73 0 0 -2276.73 0 0 15748.8 0 0 -15748.8 0 0 2431.08 0 0 -2431.08 0 0 1487.84 0 0 -1487.84 0 0 15789.4 0 0 -15789.4 0 0 300.347 0 0 -300.347
0 0 1341.08 0 0 -1341.08 0 0 14456.7 0 0 -14456.7 0 0 2480.71 0 0 -2480.71 0 0 565.42 0 0 -565.42 0 0 14449 0 0 -14449 0 0 350.452 0 0 -350.452
0 0 543.924 0 0 -543.924 0 0 12919.4 0 0 -12919.4 0 0 2553.65 0 0 -2553.65 0 0 -82.5555 0 0 82.5555 0 0 12843.5 0 0 -12843.5 0 0 416.111 0 0 -416.111
0 0 -39.9253 0 0 39.9253 0 0 11162.4 0 0 -11162.4 0 0 2642.04 0 0 -2642.04 0 0 -487.691 0 0 487.691 0 0 10986.3 0 0 -10986.3 0 0 500.639 0 0 -500.639
0 0 -383.002 0 0 383.002 0 0 9209.87 0 0 -9209.87 0 0 2739.54 0 0 -2739.54 0 0 -794.624 0 0 794.624 0 0 8963.45 0 0 -8963.45 0 0 591.302 0 0 -591.302
0 0 -669.341 0 0 669.341 0 0 7118.82 0 0 -7118.82 0 0 2839.92 0 0 -2839.92 0 0 -1043.31 0 0 1043.31 0 0 6793.45 0 0 -6793.45 0 0 691.112 0 0 -691.112
0 0 -902.48 0 0 902.48 0 0 4937.94 0 0 -4937.94 0 0 2937.53 0 0 -2937.53 0 0 -1237.72 0 0 1237.72 0 0 4528.85 0 0 -4528.85 0 0 781.72 0 0 -781.72
0 0 -1089.54 0 0 1089.54 0 0 2714.03 0 0 -2714.03 0 0 3022.99 0 0 -3022.99 0 0 -1388.5 0 0 1388.5 0 0 2213.55 0 0 -2213.55 0 0 866.078 0 0 -866.078
0 0 -1241.08 0 0 1241.08 0 0 486.927 0 0 -486.927 0 0 3089.56 0 0 -3089.56 0 0 -1503.48 0 0 1503.48 0 0 -99.1756 0 0 99.1756 0 0 930.326 0 0 -930.326
0 0 -1352.93 0 0 1352.93 0 0 -1681.32 0 0 1681.32 0 0 3127.81 0 0 -3127.81 0 0 -1596.65 0 0 1596.65 0 0 -2364.28 0 0 2364.28 0 0 971.623 0 0 -971.623
0 0 -1450.19 0 0 1450.19 0 0 -3749.69 0 0 3749.69 0 0 3131.06 0 0 -3131.06 0 0 -1683.77 0 0 1683.77 0 0 -4538.95 0 0 4538.95 0 0 981.648 0 0 -981.648
0 0 -1552.9 0 0 1552.9 0 0 -5688.53 0 0 5688.53 0 0 3093.67 0 0 -3093.67 0 0 -1772.78 0 0 1772.78 0 0 -6569.27 0 0 6569.27 0 0 954.235 0 0 -954.235
0 0 -1677.52 0 0 1677.52 0 0 -7458.11 0 0 7458.11 0 0 3008.7 0 0 -3008.7 0 0 -1880.96 0 0 1880.96 0 0 -8428.28 0 0 8428.28 0 0 880.531 0 0 -880.531
0 0 -1837.9 0 0 1837.9 0 0 -9025.4 0 0 9025.4 0 0 2870.84 0 0 -2870.84 0 0 -2029.61 0 0 2029.61 0 0 -10072.7 0 0 10072.7 0 0 752.054 0 0 -752.054
0 0 -2051.48 0 0 2051.48 0 0 -10346.5 0 0 10346.5 0 0 2675.58 0 0 -2675.58 0 0 -2234.06 0 0 2234.06 0 0 -11463 0 0 11463 0 0 572.421 0 0 -572.421
0 0 -2334.17 0 0 2334.17 0 0 -11402.8 0 0 11402.8 0 0 2422.75 0 0 -2422.75 0 0 -2508.56 0 0 2508.56 0 0 -12573.9 0 0 12573.9 0 0 336.402 0 0 -336.402
0 0 -2699.94 0 0 2699.94 0 0 -12176.1 0 0 12176.1 0 0 2118.47 0 0 -2118.47 0 0 -2867.13 0 0 2867.13 0 0 -13393.9 0 0 13393.9 0 0 86.2724 0 0 -86.2724
0 0 -3162.03 0 0 3162.03 0 0 -12650.4 0 0 12650.4 0 0 1775.55 0 0 -1775.55 0 0 -3321.63 0 0 3321.63 0 0 -13932.1 0 0 13932.1 0 0 -118.021 0 0 118.021
0 0 -3731.08 0 0 3731.08 0 0 -12830.4 0 0 12830.4 0 0 1411.81 0 0 -1411.81 0 0 -3884.91 0 0 3884.91 0 0 -14161.1 0 0 14161.1 0 0 -351.952 0 0 351.952
0 0 -4416.42 0 0 4416.42 0 0 -12715 0 0 12715 0 0 1016.6 0 0 -1016.6 0 0 -4564.86 0 0 4564.86 0 0 -14100.2 0 0 14100.2 0 0 -574.393 0 0 574.393
0 0 -5224.36 0 0 5224.36 0 0 -12318.5 0 0 12318.5 0 0 584.457 0 0 -584.457 0 0 -5368.36 0 0 5368.36 0 0 -13750.6 0 0 13750.6 0 0 -809.814 0 0 809.814
0 0 -6159.11 0 0 6159.11 0 0 -11658.3 0 0 11658.3 0 0 106.868 0 0 -106.868 0 0 -6300.6 0 0 6300.6 0 0 -13129.6 0 0 13129.6 0 0 -1074.65 0 0 1074.65
0 0 -7223.62 0 0 7223.62 0 0 -10759.2 0 0 10759.2 0 0 -418.389 0 0 418.389 0 0 -7363.7 0 0 7363.7 0 0 -12265.8 0 0 12265.8 0 0 -1358.03 0 0 1358.03
0 0 -8418.54 0 0 8418.54 0 0 -9653.47 0 0 9653.47 0 0 -984.583 0 0 984.583 0 0 -8558.45 0 0 8558.45 0 0 -11181.3 0 0 11181.3 0 0 -1733.69 0 0 1733.69
0 0 -9739.53 0 0 9739.53 0 0 -8389.07 0 0 8389.07 0 0 -1576.64 0 0 1576.64 0 0 -9885.73 0 0 9885.73 0 0 -9897 0 0 9897 0 0 -2198.75 0 0 2198.75
0 0 -11183.4 0 0 11183.4 0 0 -6993.95 0 0 6993.95 0 0 -2198.76 0 0 2198.76 0 0 -11333.5 0 0 11333.5 0 0 -8509.55 0 0 8509.55 0 0 -2623.51 0 0 2623.51
0 0 -12737 0 0 12737 0 0 -5529.58 0 0 5529.58 0 0 -2815.11 0 0 2815.11 0 0 -12892.4 0 0 12892.4 0 0 -7035.2 0 0 7035.2 0 0 -3068.72 0 0 3068.72
0 0 -14382.1 0 0 14382.1 0 0 -4041.99 0 0 4041.99 0 0 -3411.22 0 0 3411.22 0 0 -14542.6 0 0 14542.6 0 0 -5542.78 0 0 5542.78 0 0 -3496.88 0 0 3496.88
0 0 -16093.4 0 0 16093.4 0 0 -2584.03 0 0 2584.03 0 0 -4012.3 0 0 4012.3 0 0 -16260.4 0 0 16260.4 0 0 -4037.89 0 0 4037.89 0 0 -4166.01 0 0 4166.01
0 0 -17837.8 0 0 17837.8 0 0 -1221.68 0 0 1221.68 0 0 -4628.51 0 0 4628.51 0 0 -18021.3 0 0 18021.3 0 0 -2588.72 0 0 2588.72 0 0 -4797.54 0 0 4797.54
0 0 -19589.8 0 0 19589.8 0 0 25.1672 0 0 -25.1672 0 0 -5249.87 0 0 5249.87 0 0 -19778.6 0 0 19778.6 0 0 -1324.89 0 0 1324.89 0 0 -5340.1 0 0 5340.1
0 0 -21313.5 0 0 21313.5 0 0 1078.85 0 0 -1078.85 0 0 -5791.89 0 0 5791.89 0 0 -21511.8 0 0 21511.8 0 0 -233.033 0 0 233.033 0 0 -5848.44 0 0 5848.44
0 0 -22978.7 0 0 22978.7 0 0 1904.93 0 0 -1904.93 0 0 -6226.92 0 0 6226.92 0 0 -23183.4 0 0 23183.4 0 0 613.206 0 0 -613.206 0 0 -6307.43 0 0 6307.43
0 0 -24552.8 0 0 24552.8 0 0 2459.97 0 0 -2459.97 0 0 -6570.06 0 0 6570.06 0 0 -24764.4 0 0 24764.4 0 0 1189.2 0 0 -1189.2 0 0 -6702.8 0 0 6702.8
0 0 -26007.5 0 0 26007.5 0 0 2718.89 0 0 -2718.89 0 0 -6852.38 0 0 6852.38 0 0 -26223.9 0 0 26223.9 0 0 1453.48 0 0 -1453.48 0 0 -7005.6 0 0 7005.6
0 0 -27318.4 0 0 27318.4 0 0 2653.47 0 0 -2653.47 0 0 -7016.2 0 0 7016.2 0 0 -27535.8 0 0 27535.8 0 0 1358.73 0 0 -1358.73 0 0 -7065.5 0 0 7065.5
0 0 -28471.4 0 0 28471.4 0 0 2268.66 0 0 -2268.66 0 0 -7082.44 0 0 7082.44 0 0 -28680.8 0 0 28680.8 0 0 885.404 0 0 -885.404 0 0 -6979.62 0 0 6979.62
0 0 -29456.8 0 0 29456.8 0 0 1544.26 0 0 -1544.26 0 0 -7086 0 0 7086 0 0 -29665.5 0 0 29665.5 0 0 135.129 0 0 -135.129 0 0 -7025.83 0 0 7025.83
0 0 -30284.1 0 0 30284.1 0 0 505.582 0 0 -505.582 0 0 -7027.01 0 0 7027.01 0 0 -30490 0 0 30490 0 0 -960.09 0 0 960.09 0 0 -6986.99 0 0 6986.99
0 0 -30969.3 0 0 30969.3 0 0 -836.193 0 0 836.193 0 0 -6893.46 0 0 6893.46 0 0 -31167.9 0 0 31167.9 0 0 -2376.55 0 0 2376.55 0 0 -6859.78 0 0 6859.78
0 0 -31530.6 0 0 31530.6 0 0 -2454.94 0 0 2454.94 0 0 -6700.09 0 0 6700.09 0 0 -31720.5 0 0 31720.5 0 0 -4082.68 0 0 4082.68 0 0 -6650.77 0 0 6650.77
0 0 -31989.3 0 0 31989.3 0 0 -4314.45 0 0 4314.45 0 0 -6446.6 0 0 6446.6 0 0 -32167.5 0 0 32167.5 0 0 -6048.78 0 0 6048.78 0 0 -6367.99 0 0 6367.99
0 0 -32366.8 0 0 32366.8 0 0 -6379.04 0 0 6379.04 0 0 -6127.18 0 0 6127.18 0 0 -32532.6 0 0 32532.6 0 0 -8225.11 0 0 8225.11 0 0 -6031.67 0 0 6031.67
0 0 -32685.7 0 0 32685.7 0 0 -8603.11 0 0 8603.11 0 0 -5749.96 0 0 5749.96 0 0 -32837.7 0 0 32837.7 0 0 -10565.7 0 0 10565.7 0 0 -5651.56 0 0 5651.56
0 0 -32967.4 0 0 32967.4 0 0 -10935.6 0 0 10935.6 0 0 -5334.17 0 0 5334.17 0 0 -33104.7 0 0 33104.7 0 0 -13019.3 0 0 13019.3 0 0 -5234.85 0 0 5234.85
0 0 -33230.7 0 0 33230.7 0 0 -13322.9 0 0 13322.9 0 0 -4899.43 0 0 4899.43 0 0 -33352.5 0 0 33352.5 0 0 -15533.5 0 0 15533.5 0 0 -4788.95 0 0 4788.95
0 0 -33491.2 0 0 33491.2 0 0 -15712.4 0 0 15712.4 0 0 -4457.11 0 0 4457.11 0 0 -33597 0 0 33597 0 0 -18052.5 0 0 18052.5 0 0 -4326.6 0 0 4326.6
0 0 -33760.7 0 0 33760.7 0 0 -18052.9 0 0 18052.9 0 0 -4012.82 0 0 4012.82 0 0 -33850.6 0 0 33850.6 0 0 -20519.9 0 0 20519.9 0 0 -3863.98 0 0 3863.98
0 0 -23255.2 0 0 23255.2 0 0 -17125.4 0 0 17125.4 0 0 -3782.56 0 0 3782.56 0 0 -33617.8 0 0 33617.8 0 0 -22394.2 0 0 22394.2 0 0 -3437.67 0 0 3437.67
0 0 -7441.77 0 0 7441.77 0 0 -16516.7 0 0 16516.7 0 0 -2818.41 0 0 2818.41 0 0 -30098.1 0 0 30098.1 0 0 -20985.3 0 0 20985.3 0 0 -3340.21 0 0 3340.21
0 0 -6201.17 0 0 6201.17 0 0 -18870.8 0 0 18870.8 0 0 -2949.25 0 0 2949.25 0 0 -30016.3 0 0 30016.3 0 0 -24110.6 0 0 24110.6 0 0 -2610.88 0 0 2610.88
0 0 -6351.92 0 0 6351.92 0 0 -19590.7 0 0 19590.7 0 0 -2686.42 0 0 2686.42 0 0 -31154.7 0 0 31154.7 0 0 -26017.8 0 0 26017.8 0 0 -2429.24 0 0 2429.24
0 0 -6442.73 0 0 6442.73 0 0 -21175.3 0 0 21175.3 0 0 -2294.24 0 0 2294.24 0 0 -31749.9 0 0 31749.9 0 0 -27932.8 0 0 27932.8 0 0 -1992.69 0 0 1992.69
0 0 -5441.7 0 0 5441.7 0 0 -23232.8 0 0 23232.8 0 0 -1948.14 0 0 1948.14 0 0 -31556.1 0 0 31556.1 0 0 -29514.2 0 0 29514.2 0 0 -1622.5 0 0 1622.5
0 0 -4950.27 0 0 4950.27 0 0 -24614.1 0 0 24614.1 0 0 -1615.54 0 0 1615.54 0 0 -31776.4 0 0 31776.4 0 0 -30964.9 0 0 30964.9 0 0 -1322.17 0 0 1322.17
0 0 -4947.74 0 0 4947.74 0 0 -25332.7 0 0 25332.7 0 0 -1334.75 0 0 1334.75 0 0 -32501.1 0 0 32501.1 0 0 -32322.6 0 0 32322.6 0 0 -1058.51 0 0 1058.51
0 0 -4880.48 0 0 4880.48 0 0 -26145 0 0 26145 0 0 -1127.8 0 0 1127.8 0 0 -33083.6 0 0 33083.6 0 0 -33280.9 0 0 33280.9 0 0 -852.457 0 0 852.457
0 0 -4757.95 0 0 4757.95 0 0 -26923.4 0 0 26923.4 0 0 -981.145 0 0 981.145 0 0 -33040.7 0 0 33040.7 0 0 -33637.9 0 0 33637.9 0 0 -709.342 0 0 709.342
0 0 -4982.69 0 0 4982.69 0 0 -27227.1 0 0 27227.1 0 0 -876.96 0 0 876.96 0 0 -33423 0 0 33423 0 0 -33909.7 0 0 33909.7 0 0 -594.14 0 0 594.14
0 0 -5515.12 0 0 5515.12 0 0 -27151.5 0 0 27151.5 0 0 -805.805 0 0 805.805 0 0 -34118.8 0 0 34118.8 0 0 -33955.4 0 0 33955.4 0 0 -565.842 0 0 565.842
0 0 -6166.04 0 0 6166.04 0 0 -26932.7 0 0 26932.7 0 0 -804.1 0 0 804.1 0 0 -34673.7 0 0 34673.7 0 0 -33837.7 0 0 33837.7 0 0 -547.671 0 0 547.671
0 0 -6923.71 0 0 6923.71 0 0 -26610.1 0 0 26610.1 0 0 -858.054 0 0 858.054 0 0 -35385.2 0 0 35385.2 0 0 -33464.6 0 0 33464.6 0 0 -596.798 0 0 596.798
0 0 -7901 0 0 7901 0 0 -26011.8 0 0 26011.8 0 0 -959.381 0 0 959.381 0 0 -36209.9 0 0 36209.9 0 0 -32913.8 0 0 32913.8 0 0 -687.881 0 0 687.881
0 0 -9045.79 0 0 9045.79 0 0 -25178.8 0 0 25178.8 0 0 -1099.07 0 0 1099.07 0 0 -36352.3 0 0 36352.3 0 0 -32350.4 0 0 32350.4 0 0 -809.047 0 0 809.047
0 0 -10267.8 0 0 10267.8 0 0 -24222.2 0 0 24222.2 0 0 -1273.54 0 0 1273.54 0 0 -36475.6 0 0 36475.6 0 0 -31587.4 0 0 31587.4 0 0 -985.269 0 0 985.269
0 0 -11547.7 0 0 11547.7 0 0 -23159.4 0 0 23159.4 0 0 -1495.6 0 0 1495.6 0 0 -36597.3 0 0 36597.3 0 0 -30708.5 0 0 30708.5 0 0 -1175.35 0 0 1175.35
0 0 -12871.1 0 0 12871.1 0 0 -22009.2 0 0 22009.2 0 0 -1747.57 0 0 1747.57 0 0 -36719.9 0 0 36719.9 0 0 -29698 0 0 29698 0 0 -1411.47 0 0 1411.47
0 0 -14210 0 0 14210 0 0 -20782.5 0 0 20782.5 0 0 -2023.43 0 0 2023.43 0 0 -36840.3 0 0 36840.3 0 0 -28639.3 0 0 28639.3 0 0 -1664.4 0 0 1664.4
0 0 -15510.9 0 0 15510.9 0 0 -19538.1 0 0 19538.1 0 0 -2313.76 0 0 2313.76 0 0 -36954.7 0 0 36954.7 0 0 -27543.1 0 0 27543.1 0 0 -1941.34 0 0 1941.34
0 0 -16749.6 0 0 16749.6 0 0 -18314.2 0 0 18314.2 0 0 -2617.72 0 0 2617.72 0 0 -37061.3 0 0 37061.3 0 0 -26437.2 0 0 26437.2 0 0 -2242.2 0 0 2242.2
0 0 -17915.7 0 0 17915.7 0 0 -17133.5 0 0 17133.5 0 0 -2932.33 0 0 2932.33 0 0 -37160.1 0 0 37160.1 0 0 -25356.5 0 0 25356.5 0 0 -2551.9 0 0 2551.9
0 0 -18972.7 0 0 18972.7 0 0 -16018.8 0 0 16018.8 0 0 -3248.35 0 0 3248.35 0 0 -37250.3 0 0 37250.3 0 0 -24332.8 0 0 24332.8 0 0 -2860.79 0 0 2860.79
0 0 -19919.8 0 0 19919.8 0 0 -15006.4 0 0 15006.4 0 0 -3553.89 0 0 3553.89 0 0 -37331 0 0 37331 0 0 -23398.6 0 0 23398.6 0 0 -3162.24 0 0 3162.24
0 0 -20752.4 0 0 20752.4 0 0 -14120.7 0 0 14120.7 0 0 -3840.98 0 0 3840.98 0 0 -37402 0 0 37402 0 0 -22582.1 0 0 22582.1 0 0 -3450.02 0 0 3450.02
0 0 -21465 0 0 21465 0 0 -13381.1 0 0 13381.1 0 0 -4106.61 0 0 4106.61 0 0 -37463.3 0 0 37463.3 0 0 -21905.6 0 0 21905.6 0 0 -3718.14 0 0 3718.14
0 0 -22057.5 0 0 22057.5 0 0 -12810.3 0 0 12810.3 0 0 -4348.63 0 0 4348.63 0 0 -37515.1 0 0 37515.1 0 0 -21388.3 0 0 21388.3 0 0 -3960.47 0 0 3960.47
0 0 -22503.1 0 0 22503.1 0 0 -12416.6 0 0 12416.6 0 0 -4563.61 0 0 4563.61 0 0 -37557.1 0 0 37557.1 0 0 -21045 0 0 21045 0 0 -4172.53 0 0 4172.53
0 0 -22762.4 0 0 22762.4 0 0 -12202.9 0 0 12202.9 0 0 -4745.84 0 0 4745.84 0 0 -37588.7 0 0 37588.7 0 0 -20879.1 0 0 20879.1 0 0 -4352.53 0 0 4352.53
0 0 -22874.8 0 0 22874.8 0 0 -12182.3 0 0 12182.3 0 0 -4892.82 0 0 4892.82 0 0 -37610.3 0 0 37610.3 0 0 -20906.6 0 0 20906.6 0 0 -4497.69 0 0 4497.69
0 0 -22829.9 0 0 22829.9 0 0 -12408.8 0 0 12408.8 0 0 -4555.27 0 0 4555.27 0 0 -37622.5 0 0 37622.5 0 0 -21129.2 0 0 21129.2 0 0 -4565.75 0 0 4565.75
0 0 -22535.6 0 0 22535.6 0 0 -13059.6 0 0 13059.6 0 0 -3345.8 0 0 3345.8 0 0 -37625.7 0 0 37625.7 0 0 -21556.3 0 0 21556.3 0 0 -4126.04 0 0 4126.04
0 0 -22260.1 0 0 22260.1 0 0 -13639.4 0 0 13639.4 0 0 -3462.36 0 0 3462.36 0 0 -37537.3 0 0 37537.3 0 0 -22140.4 0 0 22140.4 0 0 -4082.5 0 0 4082.5
0 0 -21812.1 0 0 21812.1 0 0 -14320.3 0 0 14320.3 0 0 -3498.3 0 0 3498.3 0 0 -37343.9 0 0 37343.9 0 0 -22910.7 0 0 22910.7 0 0 -3969.93 0 0 3969.93
0 0 -21256.8 0 0 21256.8 0 0 -15132.4 0 0 15132.4 0 0 -3358.75 0 0 3358.75 0 0 -37062.7 0 0 37062.7 0 0 -23833.7 0 0 23833.7 0 0 -4046.14 0 0 4046.14
0 0 -20613.1 0 0 20613.1 0 0 -16088.3 0 0 16088.3 0 0 -3173.34 0 0 3173.34 0 0 -36718.3 0 0 36718.3 0 0 -24862 0 0 24862 0 0 -4104.26 0 0 4104.26
0 0 -19896.8 0 0 19896.8 0 0 -17158.9 0 0 17158.9 0 0 -3113.62 0 0 3113.62 0 0 -36312.5 0 0 36312.5 0 0 -25989.8 0 0 25989.8 0 0 -4076 0 0 4076
0 0 -19123.6 0 0 19123.6 0 0 -18286.8 0 0 18286.8 0 0 -3171.29 0 0 3171.29 0 0 -35854.5 0 0 35854.5 0 0 -27215.2 0 0 27215.2 0 0 -3956.85 0 0 3956.85
0 0 -21773.7 0 0 21773.7 0 0 -4650.34 0 0 4650.34 0 0 -2883.18 0 0 2883.18 0 0 -35482.6 0 0 35482.6 0 0 -25947 0 0 25947 0 0 -3290.12 0 0 3290.12
0 0 -20424.5 0 0 20424.5 0 0 -9493.91 0 0 9493.91 0 0 -2215.28 0 0 2215.28 0 0 -34782.3 0 0 34782.3 0 0 -27194.1 0 0 27194.1 0 0 -3515.41 0 0 3515.41
0 0 -20268.8 0 0 20268.8 0 0 -8376.04 0 0 8376.04 0 0 -2511.18 0 0 2511.18 0 0 -34166.3 0 0 34166.3 0 0 -28163 0 0 28163 0 0 -3141.92 0 0 3141.92
0 0 -19578.1 0 0 19578.1 0 0 -8810.47 0 0 8810.47 0 0 -2166.67 0 0 2166.67 0 0 -33580.7 0 0 33580.7 0 0 -29798.3 0 0 29798.3 0 0 -3264.41 0 0 3264.41
0 0 -19037.5 0 0 19037.5 0 0 -9106.78 0 0 9106.78 0 0 -2060.27 0 0 2060.27 0 0 -32688.5 0 0 32688.5 0 0 -31467.3 0 0 31467.3 0 0 -3001.11 0 0 3001.11
0 0 -18490.6 0 0 18490.6 0 0 -9230.44 0 0 9230.44 0 0 -2030.44 0 0 2030.44 0 0 -31846.1 0 0 31846.1 0 0 -32711.2 0 0 32711.2 0 0 -2913.72 0 0 2913.72
0 0 -17811.3 0 0 17811.3 0 0 -9381.21 0 0 9381.21 0 0 -2017.42 0 0 2017.42 0 0 -31040.5 0 0 31040.5 0 0 -33880.7 0 0 33880.7 0 0 -2820.36 0 0 2820.36
0 0 -17055.7 0 0 17055.7 0 0 -9628.71 0 0 9628.71 0 0 -1943.13 0 0 1943.13 0 0 -29908.9 0 0 29908.9 0 0 -34994.2 0 0 34994.2 0 0 -2824.04 0 0 2824.04
0 0 -16235.9 0 0 16235.9 0 0 -9877.33 0 0 9877.33 0 0 -1862.61 0 0 1862.61 0 0 -28584.4 0 0 28584.4 0 0 -36193.1 0 0 36193.1 0 0 -2837.61 0 0 2837.61
0 0 -15461 0 0 15461 0 0 -10102.2 0 0 10102.2 0 0 -1863.77 0 0 1863.77 0 0 -27564.4 0 0 27564.4 0 0 -36780.2 0 0 36780.2 0 0 -2908.31 0 0 2908.31
0 0 -14778.9 0 0 14778.9 0 0 -10295.5 0 0 10295.5 0 0 -1989.86 0 0 1989.86 0 0 -26818.2 0 0 26818.2 0 0 -36866.8 0 0 36866.8 0 0 -2994.63 0 0 2994.63
0 0 -14211.3 0 0 14211.3 0 0 -10295.8 0 0 10295.8 0 0 -2152.53 0 0 2152.53 0 0 -26012.5 0 0 26012.5 0 0 -36934 0 0 36934 0 0 -3113.54 0 0 3113.54
0 0 -13642.7 0 0 13642.7 0 0 -10274.8 0 0 10274.8 0 0 -2292.81 0 0 2292.81 0 0 -25264.1 0 0 25264.1 0 0 -36988.8 0 0 36988.8 0 0 -3319.99 0 0 3319.99
0 0 -13108.5 0 0 13108.5 0 0 -10190.9 0 0 10190.9 0 0 -2453.09 0 0 2453.09 0 0 -24578.4 0 0 24578.4 0 0 -37046 0 0 37046 0 0 -3542.95 0 0 3542.95
0 0 -12578.3 0 0 12578.3 0 0 -10052.5 0 0 10052.5 0 0 -2663.11 0 0 2663.11 0 0 -23912.1 0 0 23912.1 0 0 -37089.6 0 0 37089.6 0 0 -3816.8 0 0 3816.8
0 0 -12064.4 0 0 12064.4 0 0 -9870.54 0 0 9870.54 0 0 -2946.05 0 0 2946.05 0 0 -23302.3 0 0 23302.3 0 0 -37121.6 0 0 37121.6 0 0 -4106.94 0 0 4106.94
0 0 -11567.3 0 0 11567.3 0 0 -9594.76 0 0 9594.76 0 0 -3278.62 0 0 3278.62 0 0 -22669.8 0 0 22669.8 0 0 -37140.4 0 0 37140.4 0 0 -4425.32 0 0 4425.32
0 0 -11065.2 0 0 11065.2 0 0 -9247.15 0 0 9247.15 0 0 -3627.62 0 0 3627.62 0 0 -22034.8 0 0 22034.8 0 0 -37147.6 0 0 37147.6 0 0 -4787.39 0 0 4787.39
0 0 -10560.5 0 0 10560.5 0 0 -8816.89 0 0 8816.89 0 0 -3989.97 0 0 3989.97 0 0 -21401.2 0 0 21401.2 0 0 -37070.5 0 0 37070.5 0 0 -5188.36 0 0 5188.36
0 0 -10052 0 0 10052 0 0 -8292.13 0 0 8292.13 0 0 -4379.22 0 0 4379.22 0 0 -20823.7 0 0 20823.7 0 0 -36510.4 0 0 36510.4 0 0 -5585.78 0 0 5585.78
0 0 -9602.68 0 0 9602.68 0 0 -7755.71 0 0 7755.71 0 0 -4625.61 0 0 4625.61 0 0 -20277.7 0 0 20277.7 0 0 -35755.4 0 0 35755.4 0 0 -6019.48 0 0 6019.48
0 0 -9286.91 0 0 9286.91 0 0 -7290.5 0 0 7290.5 0 0 -4634.62 0 0 4634.62 0 0 -19696.8 0 0 19696.8 0 0 -35177.7 0 0 35177.7 0 0 -6335.18 0 0 6335.18
0 0 -9103.81 0 0 9103.81 0 0 -6746.09 0 0 6746.09 0 0 -4689.76 0 0 4689.76 0 0 -19142.7 0 0 19142.7 0 0 -34466.2 0 0 34466.2 0 0 -6643.39 0 0 6643.39
0 0 -8955.95 0 0 8955.95 0 0 -6185.17 0 0 6185.17 0 0 -4731.44 0 0 4731.44 0 0 -18610 0 0 18610 0 0 -33613.3 0 0 33613.3 0 0 -6955.51 0 0 6955.51
0 0 -8854.78 0 0 8854.78 0 0 -5553.06 0 0 5553.06 0 0 -4783.19 0 0 4783.19 0 0 -18074.2 0 0 18074.2 0 0 -32775.9 0 0 32775.9 0 0 -7304.7 0 0 7304.7
0 0 -8821.95 0 0 8821.95 0 0 -4829.22 0 0 4829.22 0 0 -4817.19 0 0 4817.19 0 0 -17579.2 0 0 17579.2 0 0 -31872.9 0 0 31872.9 0 0 -7472.86 0 0 7472.86
0 0 -8832.16 0 0 8832.16 0 0 -4201.49 0 0 4201.49 0 0 -3887.48 0 0 3887.48 0 0 -17145 0 0 17145 0 0 -30945.2 0 0 30945.2 0 0 -7338.58 0 0 7338.58
0 0 -8853.34 0 0 8853.34 0 0 -3723.97 0 0 3723.97 0 0 -2406.08 0 0 2406.08 0 0 -16838.3 0 0 16838.3 0 0 -29773.7 0 0 29773.7 0 0 -7345.82 0 0 7345.82
0 0 -9029.76 0 0 9029.76 0 0 -3096.35 0 0 3096.35 0 0 -1878.38 0 0 1878.38 0 0 -16627.1 0 0 16627.1 0 0 -28597.7 0 0 28597.7 0 0 -7232.98 0 0 7232.98
0 0 -9250.15 0 0 9250.15 0 0 -2418.9 0 0 2418.9 0 0 -1578.62 0 0 1578.62 0 0 -16509.7 0 0 16509.7 0 0 -27423.6 0 0 27423.6 0 0 -7037.63 0 0 7037.63
0 0 -9534.94 0 0 9534.94 0 0 -1691.95 0 0 1691.95 0 0 -1267 0 0 1267 0 0 -16498.2 0 0 16498.2 0 0 -26202.2 0 0 26202.2 0 0 -7039.13 0 0 7039.13
0 0 -9958.38 0 0 9958.38 0 0 -757.532 0 0 757.532 0 0 -1324.58 0 0 1324.58 0 0 -16582.5 0 0 16582.5 0 0 -24948.3 0 0 24948.3 0 0 -7066.27 0 0 7066.27
0 0 -10401.2 0 0 10401.2 0 0 96.9258 0 0 -96.9258 0 0 -1308.43 0 0 1308.43 0 0 -16742.1 0 0 16742.1 0 0 -23664.5 0 0 23664.5 0 0 -7110.99 0 0 7110.99
0 0 -10853.5 0 0 10853.5 0 0 858.15 0 0 -858.15 0 0 -1250.29 0 0 1250.29 0 0 -16955.4 0 0 16955.4 0 0 -22401.3 0 0 22401.3 0 0 -7094.55 0 0 7094.55
0 0 -11289.9 0 0 11289.9 0 0 1527.1 0 0 -1527.1 0 0 -1144.83 0 0 1144.83 0 0 -17192.5 0 0 17192.5 0 0 -21207.9 0 0 21207.9 0 0 -7000.26 0 0 7000.26
0 0 -11693.9 0 0 11693.9 0 0 2104.17 0 0 -2104.17 0 0 -1010.04 0 0 1010.04 0 0 -17425.9 0 0 17425.9 0 0 -20096.1 0 0 20096.1 0 0 -6902.37 0 0 6902.37
0 0 -12062.4 0 0 12062.4 0 0 2628.77 0 0 -2628.77 0 0 -819.925 0 0 819.925 0 0 -17631.6 0 0 17631.6 0 0 -19057.8 0 0 19057.8 0 0 -6853.31 0 0 6853.31
0 0 -12391.9 0 0 12391.9 0 0 3142.52 0 0 -3142.52 0 0 -737.216 0 0 737.216 0 0 -17784.3 0 0 17784.3 0 0 -18110.4 0 0 18110.4 0 0 -6851.76 0 0 6851.76
0 0 -12649 0 0 12649 0 0 3604.54 0 0 -3604.54 0 0 -697.979 0 0 697.979 0 0 -17856.7 0 0 17856.7 0 0 -17285.5 0 0 17285.5 0 0 -6867.61 0 0 6867.61
0 0 -12804.4 0 0 12804.4 0 0 3973.63 0 0 -3973.63 0 0 -656.623 0 0 656.623 0 0 -17822.2 0 0 17822.2 0 0 -16608.6 0 0 16608.6 0 0 -6869.19 0 0 6869.19
0 0 -12837.4 0 0 12837.4 0 0 4227.55 0 0 -4227.55 0 0 -585.464 0 0 585.464 0 0 -17655.1 0 0 17655.1 0 0 -16088.7 0 0 16088.7 0 0 -6842.23 0 0 6842.23
0 0 -12739.3 0 0 12739.3 0 0 4378.83 0 0 -4378.83 0 0 -502.504 0 0 502.504 0 0 -17331.6 0 0 17331.6 0 0 -15721.9 0 0 15721.9 0 0 -6804.32 0 0 6804.32
0 0 -12507.1 0 0 12507.1 0 0 4462.6 0 0 -4462.6 0 0 -474.34 0 0 474.34 0 0 -16830.6 0 0 16830.6 0 0 -15509.9 0 0 15509.9 0 0 -6776.7 0 0 6776.7
0 0 -12129.7 0 0 12129.7 0 0 4467.24 0 0 -4467.24 0 0 -444.292 0 0 444.292 0 0 -16137.1 0 0 16137.1 0 0 -15463.7 0 0 15463.7 0 0 -6757.31 0 0 6757.31
0 0 -11575.4 0 0 11575.4 0 0 4304.22 0 0 -4304.22 0 0 -291.83 0 0 291.83 0 0 -15247.6 0 0 15247.6 0 0 -15595 0 0 15595 0 0 -6704.23 0 0 6704.23
0 0 -10863.1 0 0 10863.1 0 0 3999.89 0 0 -3999.89 0 0 -120.192 0 0 120.192 0 0 -14168.7 0 0 14168.7 0 0 -15894.9 0 0 15894.9 0 0 -6581.19 0 0 6581.19
0 0 -10003.6 0 0 10003.6 0 0 3566.75 0 0 -3566.75 0 0 44.1058 0 0 -44.1058 0 0 -12912.1 0 0 12912.1 0 0 -16344.1 0 0 16344.1 0 0 -6375.36 0 0 6375.36
0 0 -9022.59 0 0 9022.59 0 0 3055.21 0 0 -3055.21 0 0 228.383 0 0 -228.383 0 0 -11496.5 0 0 11496.5 0 0 -16914.2 0 0 16914.2 0 0 -6110.86 0 0 6110.86
0 0 -7985.07 0 0 7985.07 0 0 2613.1 0 0 -2613.1 0 0 379.521 0 0 -379.521 0 0 -9951.6 0 0 9951.6 0 0 -17546.1 0 0 17546.1 0 0 -5834.98 0 0 5834.98
0 0 -6896.74 0 0 6896.74 0 0 2197.43 0 0 -2197.43 0 0 384.483 0 0 -384.483 0 0 -8307.09 0 0 8307.09 0 0 -18213.3 0 0 18213.3 0 0 -5615.96 0 0 5615.96
0 0 -5762.23 0 0 5762.23 0 0 1748.41 0 0 -1748.41 0 0 422.248 0 0 -422.248 0 0 -6600.88 0 0 6600.88 0 0 -18906.1 0 0 18906.1 0 0 -5404.82 0 0 5404.82
0 0 -4622.6 0 0 4622.6 0 0 1294.28 0 0 -1294.28 0 0 458.824 0 0 -458.824 0 0 -4878.62 0 0 4878.62 0 0 -19597.5 0 0 19597.5 0 0 -5177.56 0 0 5177.56
0 0 -3503.26 0 0 3503.26 0 0 834.009 0 0 -834.009 0 0 505.828 0 0 -505.828 0 0 -3181.95 0 0 3181.95 0 0 -20259.9 0 0 20259.9 0 0 -4901.15 0 0 4901.15
0 0 -2437.03 0 0 2437.03 0 0 387.723 0 0 -387.723 0 0 558.59 0 0 -558.59 0 0 -1549.2 0 0 1549.2 0 0 -20858.6 0 0 20858.6 0 0 -4585.61 0 0 4585.61
0 0 -1451.43 0 0 1451.43 0 0 -21.2076 0 0 21.2076 0 0 613.563 0 0 -613.563 0 0 -13.7925 0 0 13.7925 0 0 -21359.7 0 0 21359.7 0 0 -4265.24 0 0 4265.24
0 0 -575.135 0 0 575.135 0 0 -364.981 0 0 364.981 0 0 669.558 0 0 -669.558 0 0 572.593 0 0 -572.593 0 0 -21616.9 0 0 21616.9 0 0 -3976.3 0 0 3976.3
0 0 68.2613 0 0 -68.2613 0 0 -565.387 0 0 565.387 0 0 718.788 0 0 -718.788 0 0 1175.66 0 0 -1175.66 0 0 -21762.8 0 0 21762.8 0 0 -3699.42 0 0 3699.42
0 0 558.838 0 0 -558.838 0 0 -687.045 0 0 687.045 0 0 779.041 0 0 -779.041 0 0 1709.31 0 0 -1709.31 0 0 -21730.5 0 0 21730.5 0 0 -3442.6 0 0 3442.6
0 0 940.131 0 0 -940.131 0 0 -802.694 0 0 802.694 0 0 842.401 0 0 -842.401 0 0 2178.7 0 0 -2178.7 0 0 -21597.5 0 0 21597.5 0 0 -3165.59 0 0 3165.59
0 0 1243.34 0 0 -1243.34 0 0 -885.113 0 0 885.113 0 0 909.11 0 0 -909.11 0 0 2583.2 0 0 -2583.2 0 0 -21300 0 0 21300 0 0 -2884.03 0 0 2884.03
0 0 1474.7 0 0 -1474.7 0 0 -941.085 0 0 941.085 0 0 978.301 0 0 -978.301 0 0 2927.82 0 0 -2927.82 0 0 -20860.3 0 0 20860.3 0 0 -2609.97 0 0 2609.97
0 0 1620.5 0 0 -1620.5 0 0 -930.265 0 0 930.265 0 0 1045.39 0 0 -1045.39 0 0 3210.63 0 0 -3210.63 0 0 -20265.1 0 0 20265.1 0 0 -2357.76 0 0 2357.76
0 0 1682.73 0 0 -1682.73 0 0 -850.657 0 0 850.657 0 0 1113.14 0 0 -1113.14 0 0 3431.65 0 0 -3431.65 0 0 -19512.5 0 0 19512.5 0 0 -2129.46 0 0 2129.46
0 0 1653.8 0 0 -1653.8 0 0 -705.779 0 0 705.779 0 0 1181.89 0 0 -1181.89 0 0 3595.96 0 0 -3595.96 0 0 -18609 0 0 18609 0 0 -1913.46 0 0 1913.46
0 0 1530.38 0 0 -1530.38 0 0 -505.48 0 0 505.48 0 0 1253.72 0 0 -1253.72 0 0 3709.82 0 0 -3709.82 0 0 -17565.3 0 0 17565.3 0 0 -1700.64 0 0 1700.64
0 0 1321.7 0 0 -1321.7 0 0 -251.414 0 0 251.414 0 0 1326.4 0 0 -1326.4 0 0 3780.11 0 0 -3780.11 0 0 -16396.8 0 0 16396.8 0 0 -1488.33 0 0 1488.33
0 0 1040.42 0 0 -1040.42 0 0 51.2703 0 0 -51.2703 0 0 1400.01 0 0 -1400.01 0 0 3813.55 0 0 -3813.55 0 0 -15115.1 0 0 15115.1 0 0 -1282.85 0 0 1282.85
0 0 699.165 0 0 -699.165 0 0 397.896 0 0 -397.896 0 0 1473.35 0 0 -1473.35 0 0 3814.33 0 0 -3814.33 0 0 -13732.3 0 0 13732.3 0 0 -1090.59 0 0 1090.59
0 0 312.293 0 0 -312.293 0 0 780.125 0 0 -780.125 0 0 1546.65 0 0 -1546.65 0 0 3775.76 0 0 -3775.76 0 0 -12262.7 0 0 12262.7 0 0 -911.495 0 0 911.495
0 0 -89.9153 0 0 89.9153 0 0 1186.04 0 0 -1186.04 0 0 1620.65 0 0 -1620.65 0 0 3712.25 0 0 -3712.25 0 0 -10729.8 0 0 10729.8 0 0 -738.319 0 0 738.319
0 0 -509.876 0 0 509.876 0 0 1608.01 0 0 -1608.01 0 0 1694.75 0 0 -1694.75 0 0 3643.84 0 0 -3643.84 0 0 -9156.44 0 0 9156.44 0 0 -563.114 0 0 563.114
0 0 -917.78 0 0 917.78 0 0 2031.29 0 0 -2031.29 0 0 1771.22 0 0 -1771.22 0 0 3591.91 0 0 -3591.91 0 0 -7564.79 0 0 7564.79 0 0 -384.579 0 0 384.579
0 0 -1303.45 0 0 1303.45 0 0 2451 0 0 -2451 0 0 1845.68 0 0 -1845.68 0 0 3579.9 0 0 -3579.9 0 0 -5971.87 0 0 5971.87 0 0 -220.992 0 0 220.992
0 0 -1647.99 0 0 1647.99 0 0 2855.87 0 0 -2855.87 0 0 1921.55 0 0 -1921.55 0 0 3632.23 0 0 -3632.23 0 0 -4404.56 0 0 4404.56 0 0 -46.7578 0 0 46.7578
0 0 -1934.57 0 0 1934.57 0 0 3238.61 0 0 -3238.61 0 0 1997.44 0 0 -1997.44 0 0 3772.46 0 0 -3772.46 0 0 -2885.24 0 0 2885.24 0 0 131.484 0 0 -131.484
0 0 -2147.89 0 0 2147.89 0 0 3590.58 0 0 -3590.58 0 0 2071.65 0 0 -2071.65 0 0 3895.12 0 0 -3895.12 0 0 -1411.45 0 0 1411.45 0 0 298.951 0 0 -298.951
0 0 -2278.19 0 0 2278.19 0 0 3902.21 0 0 -3902.21 0 0 2142.55 0 0 -2142.55 0 0 4029.34 0 0 -4029.34 0 0 -60.4823 0 0 60.4823 0 0 440.304 0 0 -440.304
0 0 -2310.26 0 0 2310.26 0 0 4162.78 0 0 -4162.78 0 0 2210.6 0 0 -2210.6 0 0 4216.28 0 0 -4216.28 0 0 1084.85 0 0 -1084.85 0 0 535.638 0 0 -535.638
0 0 -2238.59 0 0 2238.59 0 0 4372.84 0 0 -4372.84 0 0 2278.96 0 0 -2278.96 0 0 4474.85 0 0 -4474.85 0 0 2143.13 0 0 -2143.13 0 0 644.022 0 0 -644.022
0 0 -2053.91 0 0 2053.91 0 0 4528.09 0 0 -4528.09 0 0 2346.32 0 0 -2346.32 0 0 4803.3 0 0 -4803.3 0 0 3123.23 0 0 -3123.23 0 0 764.695 0 0 -764.695
0 0 -1804.17 0 0 1804.17 0 0 4794.85 0 0 -4794.85 0 0 2408.08 0 0 -2408.08 0 0 5198.99 0 0 -5198.99 0 0 4023.43 0 0 -4023.43 0 0 871.976 0 0 -871.976
0 0 -1421.42 0 0 1421.42 0 0 4971.09 0 0 -4971.09 0 0 2473.58 0 0 -2473.58 0 0 5667.8 0 0 -5667.8 0 0 4814.6 0 0 -4814.6 0 0 987.593 0 0 -987.593
0 0 -931.068 0 0 931.068 0 0 5087.46 0 0 -5087.46 0 0 2534.62 0 0 -2534.62 0 0 6210.07 0 0 -6210.07 0 0 5470.52 0 0 -5470.52 0 0 1120.14 0 0 -1120.14
0 0 -331.548 0 0 331.548 0 0 5132.11 0 0 -5132.11 0 0 2598.49 0 0 -2598.49 0 0 6809.38 0 0 -6809.38 0 0 6042.94 0 0 -6042.94 0 0 1242.69 0 0 -1242.69
0 0 213.805 0 0 -213.805 0 0 5140.09 0 0 -5140.09 0 0 2656.85 0 0 -2656.85 0 0 7459.56 0 0 -7459.56 0 0 6513.77 0 0 -6513.77 0 0 1375.91 0 0 -1375.91
0 0 790.229 0 0 -790.229 0 0 5060.14 0 0 -5060.14 0 0 2732.69 0 0 -2732.69 0 0 8143.01 0 0 -8143.01 0 0 6897.63 0 0 -6897.63 0 0 1513.58 0 0 -1513.58
0 0 1288.16 0 0 -1288.16 0 0 5370.21 0 0 -5370.21 0 0 2780.89 0 0 -2780.89 0 0 8844.65 0 0 -8844.65 0 0 7252.48 0 0 -7252.48 0 0 1659.49 0 0 -1659.49
0 0 1815.44 0 0 -1815.44 0 0 5573.81 0 0 -5573.81 0 0 2843.97 0 0 -2843.97 0 0 9547.36 0 0 -9547.36 0 0 7564.64 0 0 -7564.64 0 0 1792.86 0 0 -1792.86
0 0 2341.38 0 0 -2341.38 0 0 5723.47 0 0 -5723.47 0 0 2896.92 0 0 -2896.92 0 0 10243.7 0 0 -10243.7 0 0 7802.08 0 0 -7802.08 0 0 1942.85 0 0 -1942.85
0 0 2874.16 0 0 -2874.16 0 0 5829.87 0 0 -5829.87 0 0 2957.46 0 0 -2957.46 0 0 10919.2 0 0 -10919.2 0 0 7967.27 0 0 -7967.27 0 0 2086.64 0 0 -2086.64
0 0 3398.43 0 0 -3398.43 0 0 5896.08 0 0 -5896.08 0 0 3012.61 0 0 -3012.61 0 0 11570.4 0 0 -11570.4 0 0 8067.71 0 0 -8067.71 0 0 2233.29 0 0 -2233.29
0 0 3910.86 0 0 -3910.86 0 0 5912.42 0 0 -5912.42 0 0 3068.76 0 0 -3068.76 0 0 12193.5 0 0 -12193.5 0 0 8122.85 0 0 -8122.85 0 0 2380.91 0 0 -2380.91
0 0 4604.52 0 0 -4604.52 0 0 6005.3 0 0 -6005.3 0 0 3119.1 0 0 -3119.1 0 0 12794.1 0 0 -12794.1 0 0 8165.54 0 0 -8165.54 0 0 2524.39 0 0 -2524.39
0 0 5371.28 0 0 -5371.28 0 0 6034.24 0 0 -6034.24 0 0 3184.46 0 0 -3184.46 0 0 13391.5 0 0 -13391.5 0 0 8216.76 0 0 -8216.76 0 0 2663.77 0 0 -2663.77
0 0 6117.17 0 0 -6117.17 0 0 6018.21 0 0 -6018.21 0 0 3403.97 0 0 -3403.97 0 0 13972.4 0 0 -13972.4 0 0 8210.3 0 0 -8210.3 0 0 2819.86 0 0 -2819.86
0 0 6869.34 0 0 -6869.34 0 0 5932.79 0 0 -5932.79 0 0 3916.18 0 0 -3916.18 0 0 14536.6 0 0 -14536.6 0 0 8179.56 0 0 -8179.56 0 0 3044.2 0 0 -3044.2
0 0 7618.13 0 0 -7618.13 0 0 5838.61 0 0 -5838.61 0 0 4281.06 0 0 -4281.06 0 0 15096.1 0 0 -15096.1 0 0 8150.56 0 0 -8150.56 0 0 3211.92 0 0 -3211.92
0 0 8365.44 0 0 -8365.44 0 0 5724.06 0 0 -5724.06 0 0 4602 0 0 -4602 0 0 15662.3 0 0 -15662.3 0 0 8125.01 0 0 -8125.01 0 0 3324 0 0 -3324
0 0 9124.07 0 0 -9124.07 0 0 5616.46 0 0 -5616.46 0 0 4905.65 0 0 -4905.65 0 0 16234 0 0 -16234 0 0 8127.96 0 0 -8127.96 0 0 3307.52 0 0 -3307.52
0 0 9898.53 0 0 -9898.53 0 0 5537.58 0 0 -5537.58 0 0 5202.89 0 0 -5202.89 0 0 16813.8 0 0 -16813.8 0 0 8111.41 0 0 -8111.41 0 0 3366.9 0 0 -3366.9
0 0 10683.9 0 0 -10683.9 0 0 5471.68 0 0 -5471.68 0 0 5502.28 0 0 -5502.28 0 0 17404.8 0 0 -17404.8 0 0 8117.97 0 0 -8117.97 0 0 3415.3 0 0 -3415.3
0 0 11479.2 0 0 -11479.2 0 0 5427.03 0 0 -5427.03 0 0 5770.41 0 0 -5770.41 0 0 18002.4 0 0 -18002.4 0 0 8178.83 0 0 -8178.83 0 0 3313.16 0 0 -3313.16
0 0 12287.1 0 0 -12287.1 0 0 5407.13 0 0 -5407.13 0 0 5891.88 0 0 -5891.88 0 0 18596.7 0 0 -18596.7 0 0 8403.47 0 0 -8403.47 0 0 2565.87 0 0 -2565.87
0 0 13102.1 0 0 -13102.1 0 0 5457.83 0 0 -5457.83 0 0 5814.92 0 0 -5814.92 0 0 19191 0 0 -19191 0 0 8613.91 0 0 -8613.91 0 0 2056.01 0 0 -2056.01
0 0 13910.3 0 0 -13910.3 0 0 5560.52 0 0 -5560.52 0 0 5743.59 0 0 -5743.59 0 0 19798.1 0 0 -19798.1 0 0 8785.59 0 0 -8785.59 0 0 1896.35 0 0 -1896.35
0 0 14713.2 0 0 -14713.2 0 0 5698.46 0 0 -5698.46 0 0 5798.35 0 0 -5798.35 0 0 20398.7 0 0 -20398.7 0 0 9025.41 0 0 -9025.41 0 0 1523.5 0 0 -1523.5
0 0 15509.5 0 0 -15509.5 0 0 5877.77 0 0 -5877.77 0 0 5973.36 0 0 -5973.36 0 0 20989.1 0 0 -20989.1 0 0 9269.2 0 0 -9269.2 0 0 1497.08 0 0 -1497.08
0 0 16285 0 0 -16285 0 0 6128.13 0 0 -6128.13 0 0 6182.99 0 0 -6182.99 0 0 21578.6 0 0 -21578.6 0 0 9481.57 0 0 -9481.57 0 0 1669.05 0 0 -1669.05
0 0 17042.2 0 0 -17042.2 0 0 6419.97 0 0 -6419.97 0 0 6339.34 0 0 -6339.34 0 0 22145.6 0 0 -22145.6 0 0 9803.43 0 0 -9803.43 0 0 1694.03 0 0 -1694.03
0 0 17774.9 0 0 -17774.9 0 0 6791.81 0 0 -6791.81 0 0 6366.08 0 0 -6366.08 0 0 22694.8 0 0 -22694.8 0 0 10165.2 0 0 -10165.2 0 0 1692.75 0 0 -1692.75
0 0 18481.3 0 0 -18481.3 0 0 7229.18 0 0 -7229.18 0 0 6303.25 0 0 -6303.25 0 0 23223.6 0 0 -23223.6 0 0 10586.6 0 0 -10586.6 0 0 1634.82 0 0 -1634.82
0 0 19161.1 0 0 -19161.1 0 0 7717.22 0 0 -7717.22 0 0 6229.29 0 0 -6229.29 0 0 23729.8 0 0 -23729.8 0 0 11058.9 0 0 -11058.9 0 0 1579.15 0 0 -1579.15
0 0 19812.2 0 0 -19812.2 0 0 8254.87 0 0 -8254.87 0 0 6190.01 0 0 -6190.01 0 0 24217.1 0 0 -24217.1 0 0 11559.4 0 0 -11559.4 0 0 1555.35 0 0 -1555.35
0 0 20435.3 0 0 -20435.3 0 0 8832.37 0 0 -8832.37 0 0 6163.63 0 0 -6163.63 0 0 24680.1 0 0 -24680.1 0 0 12117.5 0 0 -12117.5 0 0 1445.64 0 0 -1445.64
0 0 21026.3 0 0 -21026.3 0 0 9452.98 0 0 -9452.98 0 0 6082.87 0 0 -6082.87 0 0 25117.1 0 0 -25117.1 0 0 12710 0 0 -12710 0 0 1324.63 0 0 -1324.63
0 0 21579.2 0 0 -21579.2 0 0 10111.6 0 0 -10111.6 0 0 5923.93 0 0 -5923.93 0 0 25527.1 0 0 -25527.1 0 0 13325.4 0 0 -13325.4 0 0 1195.74 0 0 -1195.74
0 0 22092.2 0 0 -22092.2 0 0 10794.7 0 0 -10794.7 0 0 5719.95 0 0 -5719.95 0 0 25906.5 0 0 -25906.5 0 0 13960.1 0 0 -13960.1 0 0 1058.39 0 0 -1058.39
0 0 22565.6 0 0 -22565.6 0 0 11489.9 0 0 -11489.9 0 0 5521.16 0 0 -5521.16 0 0 26256.1 0 0 -26256.1 0 0 14600.2 0 0 -14600.2 0 0 923.274 0 0 -923.274
0 0 23001.8 0 0 -23001.8 0 0 12183.2 0 0 -12183.2 0 0 5344.57 0 0 -5344.57 0 0 26577.4 0 0 -26577.4 0 0 15239.6 0 0 -15239.6 0 0 773.773 0 0 -773.773
0 0 23798.6 0 0 -23798.6 0 0 10724.5 0 0 -10724.5 0 0 5254.68 0 0 -5254.68 0 0 14224.9 0 0 -14224.9 0 0 9287.79 0 0 -9287.79 0 0 1098.68 0 0 -1098.68
0 0 22921.4 0 0 -22921.4 0 0 6627.93 0 0 -6627.93 0 0 5344.98 0 0 -5344.98 0 0 9493.51 0 0 -9493.51 0 0 8670.78 0 0 -8670.78 0 0 321.909 0 0 -321.909
0 0 22824.6 0 0 -22824.6 0 0 7213.22 0 0 -7213.22 0 0 4888.72 0 0 -4888.72 0 0 9567.64 0 0 -9567.64 0 0 8171.77 0 0 -8171.77 0 0 825.859 0 0 -825.859
0 0 23960.6 0 0 -23960.6 0 0 10503.8 0 0 -10503.8 0 0 4557.42 0 0 -4557.42 0 0 10839.3 0 0 -10839.3 0 0 10633.3 0 0 -10633.3 0 0 95.4751 0 0 -95.4751
0 0 24179.8 0 0 -24179.8 0 0 12847.6 0 0 -12847.6 0 0 4167.2 0 0 -4167.2 0 0 12005.5 0 0 -12005.5 0 0 12287.9 0 0 -12287.9 0 0 31.4069 0 0 -31.4069
0 0 23770 0 0 -23770 0 0 12868.4 0 0 -12868.4 0 0 3898.83 0 0 -3898.83 0 0 10263.9 0 0 -10263.9 0 0 12854.5 0 0 -12854.5 0 0 -11.2758 0 0 11.2758
0 0 23251.1 0 0 -23251.1 0 0 13055.2 0 0 -13055.2 0 0 3648.49 0 0 -3648.49 0 0 8487.07 0 0 -8487.07 0 0 13638.4 0 0 -13638.4 0 0 -271.836 0 0 271.836
0 0 23064.9 0 0 -23064.9 0 0 14925.9 0 0 -14925.9 0 0 3302.83 0 0 -3302.83 0 0 8277.65 0 0 -8277.65 0 0 15097.8 0 0 -15097.8 0 0 -241.209 0 0 241.209
0 0 22961 0 0 -22961 0 0 16999.1 0 0 -16999.1 0 0 2959 0 0 -2959 0 0 7739.7 0 0 -7739.7 0 0 16400.7 0 0 -16400.7 0 0 -346.369 0 0 346.369
0 0 22377.9 0 0 -22377.9 0 0 18146 0 0 -18146 0 0 2640.2 0 0 -2640.2 0 0 7075.07 0 0 -7075.07 0 0 17662.6 0 0 -17662.6 0 0 -494.981 0 0 494.981
0 0 21703.7 0 0 -21703.7 0 0 19067.7 0 0 -19067.7 0 0 2318.12 0 0 -2318.12 0 0 5937.71 0 0 -5937.71 0 0 18514.1 0 0 -18514.1 0 0 -484.946 0 0 484.946
0 0 21273.7 0 0 -21273.7 0 0 20134.8 0 0 -20134.8 0 0 2031.2 0 0 -2031.2 0 0 4613.34 0 0 -4613.34 0 0 19435.9 0 0 -19435.9 0 0 -643.186 0 0 643.186
0 0 20818.4 0 0 -20818.4 0 0 21379.8 0 0 -21379.8 0 0 1744.97 0 0 -1744.97 0 0 4187.96 0 0 -4187.96 0 0 20472.9 0 0 -20472.9 0 0 -734.792 0 0 734.792
0 0 20445 0 0 -20445 0 0 22437.6 0 0 -22437.6 0 0 1478.89 0 0 -1478.89 0 0 3587.78 0 0 -3587.78 0 0 21282.1 0 0 -21282.1 0 0 -745.172 0 0 745.172
0 0 20093 0 0 -20093 0 0 23102.5 0 0 -23102.5 0 0 1252.66 0 0 -1252.66 0 0 2786.8 0 0 -2786.8 0 0 21879.4 0 0 -21879.4 0 0 -870.449 0 0 870.449
0 0 19803.8 0 0 -19803.8 0 0 23547.4 0 0 -23547.4 0 0 1034.12 0 0 -1034.12 0 0 2104.23 0 0 -2104.23 0 0 22257.7 0 0 -22257.7 0 0 -903.543 0 0 903.543
0 0 19659.2 0 0 -19659.2 0 0 23931.3 0 0 -23931.3 0 0 843.898 0 0 -843.898 0 0 1779.86 0 0 -1779.86 0 0 22588.6 0 0 -22588.6 0 0 -974.169 0 0 974.169
0 0 19653.6 0 0 -19653.6 0 0 24243.3 0 0 -24243.3 0 0 687.039 0 0 -687.039 0 0 1791.11 0 0 -1791.11 0 0 22815.3 0 0 -22815.3 0 0 -1024.12 0 0 1024.12
0 0 19754.6 0 0 -19754.6 0 0 24309.4 0 0 -24309.4 0 0 566.259 0 0 -566.259 0 0 1853.6 0 0 -1853.6 0 0 22812 0 0 -22812 0 0 -1054.7 0 0 1054.7
0 0 19918.1 0 0 -19918.1 0 0 24087.5 0 0 -24087.5 0 0 486.64 0 0 -486.64 0 0 2066.85 0 0 -2066.85 0 0 22610.1 0 0 -22610.1 0 0 -1090.92 0 0 1090.92
0 0 20192.4 0 0 -20192.4 0 0 23684.7 0 0 -23684.7 0 0 428.517 0 0 -428.517 0 0 2394.15 0 0 -2394.15 0 0 22193 0 0 -22193 0 0 -1102.22 0 0 1102.22
0 0 20579.6 0 0 -20579.6 0 0 23120.4 0 0 -23120.4 0 0 396.025 0 0 -396.025 0 0 2828.29 0 0 -2828.29 0 0 21593.3 0 0 -21593.3 0 0 -1123.72 0 0 1123.72
0 0 21046.8 0 0 -21046.8 0 0 22360.2 0 0 -22360.2 0 0 387.753 0 0 -387.753 0 0 3363.77 0 0 -3363.77 0 0 20801.8 0 0 -20801.8 0 0 -1127.14 0 0 1127.14
0 0 21586.4 0 0 -21586.4 0 0 21420 0 0 -21420 0 0 412.997 0 0 -412.997 0 0 4010.76 0 0 -4010.76 0 0 19844.5 0 0 -19844.5 0 0 -1086.99 0 0 1086.99
0 0 22196.4 0 0 -22196.4 0 0 20367.5 0 0 -20367.5 0 0 474.031 0 0 -474.031 0 0 4801.94 0 0 -4801.94 0 0 18779.2 0 0 -18779.2 0 0 -1020.17 0 0 1020.17
0 0 22863.9 0 0 -22863.9 0 0 19266.2 0 0 -19266.2 0 0 565.672 0 0 -565.672 0 0 5798.6 0 0 -5798.6 0 0 17677.5 0 0 -17677.5 0 0 -930.855 0 0 930.855
0 0 23567.7 0 0 -23567.7 0 0 18138.9 0 0 -18138.9 0 0 678.638 0 0 -678.638 0 0 6926.08 0 0 -6926.08 0 0 16537.3 0 0 -16537.3 0 0 -817.044 0 0 817.044
0 0 24214.2 0 0 -24214.2 0 0 16966 0 0 -16966 0 0 807.809 0 0 -807.809 0 0 8053.38 0 0 -8053.38 0 0 15354 0 0 -15354 0 0 -683.202 0 0 683.202
0 0 24618.7 0 0 -24618.7 0 0 15776.7 0 0 -15776.7 0 0 949.822 0 0 -949.822 0 0 9102.71 0 0 -9102.71 0 0 14133.9 0 0 -14133.9 0 0 -530.017 0 0 530.017
0 0 24997.2 0 0 -24997.2 0 0 14599.5 0 0 -14599.5 0 0 1101.47 0 0 -1101.47 0 0 10100.8 0 0 -10100.8 0 0 12940.3 0 0 -12940.3 0 0 -369.797 0 0 369.797
0 0 25324.4 0 0 -25324.4 0 0 13488.1 0 0 -13488.1 0 0 1259.31 0 0 -1259.31 0 0 11039.4 0 0 -11039.4 0 0 11809.6 0 0 -11809.6 0 0 -210.382 0 0 210.382
0 0 25587.5 0 0 -25587.5 0 0 12455.1 0 0 -12455.1 0 0 1416.66 0 0 -1416.66 0 0 11864.2 0 0 -11864.2 0 0 10767.7 0 0 -10767.7 0 0 -72.2732 0 0 72.2732
0 0 25771.9 0 0 -25771.9 0 0 11505.5 0 0 -11505.5 0 0 1553.87 0 0 -1553.87 0 0 12534.9 0 0 -12534.9 0 0 9827.01 0 0 -9827.01 0 0 18.8719 0 0 -18.8719
0 0 25870.9 0 0 -25870.9 0 0 10654.9 0 0 -10654.9 0 0 1674.59 0 0 -1674.59 0 0 13031.9 0 0 -13031.9 0 0 9010.87 0 0 -9010.87 0 0 65.7102 0 0 -65.7102
0 0 25872.7 0 0 -25872.7 0 0 9939.06 0 0 -9939.06 0 0 1775.89 0 0 -1775.89 0 0 13373.6 0 0 -13373.6 0 0 8336.62 0 0 -8336.62 0 0 104.81 0 0 -104.81
0 0 25739.7 0 0 -25739.7 0 0 9382.3 0 0 -9382.3 0 0 1865.72 0 0 -1865.72 0 0 13554.7 0 0 -13554.7 0 0 7818.89 0 0 -7818.89 0 0 131.687 0 0 -131.687
0 0 25466.5 0 0 -25466.5 0 0 8979.62 0 0 -8979.62 0 0 1949.31 0 0 -1949.31 0 0 13550.3 0 0 -13550.3 0 0 7455.38 0 0 -7455.38 0 0 156.705 0 0 -156.705
0 0 25055.1 0 0 -25055.1 0 0 8724.43 0 0 -8724.43 0 0 2027.85 0 0 -2027.85 0 0 13359.7 0 0 -13359.7 0 0 7238.94 0 0 -7238.94 0 0 183.951 0 0 -183.951
0 0 24518.6 0 0 -24518.6 0 0 8617.95 0 0 -8617.95 0 0 2097.43 0 0 -2097.43 0 0 12992.3 0 0 -12992.3 0 0 7173.1 0 0 -7173.1 0 0 207.854 0 0 -207.854
0 0 23873.2 0 0 -23873.2 0 0 8665.14 0 0 -8665.14 0 0 2151.31 0 0 -2151.31 0 0 12474.4 0 0 -12474.4 0 0 7257.89 0 0 -7257.89 0 0 226.642 0 0 -226.642
0 0 23135.2 0 0 -23135.2 0 0 8858.9 0 0 -8858.9 0 0 2186.62 0 0 -2186.62 0 0 11823.4 0 0 -11823.4 0 0 7484.29 0 0 -7484.29 0 0 239.654 0 0 -239.654
0 0 22319 0 0 -22319 0 0 9180.51 0 0 -9180.51 0 0 2206.22 0 0 -2206.22 0 0 11047.9 0 0 -11047.9 0 0 7835.95 0 0 -7835.95 0 0 247.318 0 0 -247.318
0 0 21437.1 0 0 -21437.1 0 0 9611.59 0 0 -9611.59 0 0 2215.31 0 0 -2215.31 0 0 10162.1 0 0 -10162.1 0 0 8295.66 0 0 -8295.66 0 0 252.37 0 0 -252.37
0 0 20501 0 0 -20501 0 0 10139.3 0 0 -10139.3 0 0 2216.8 0 0 -2216.8 0 0 9189.3 0 0 -9189.3 0 0 8851.85 0 0 -8851.85 0 0 252.259 0 0 -252.259
0 0 19519.2 0 0 -19519.2 0 0 10754.9 0 0 -10754.9 0 0 2209.19 0 0 -2209.19 0 0 8168.94 0 0 -8168.94 0 0 9501.64 0 0 -9501.64 0 0 234.67 0 0 -234.67
0 0 18501.7 0 0 -18501.7 0 0 11440.9 0 0 -11440.9 0 0 2189.16 0 0 -2189.16 0 0 7100.79 0 0 -7100.79 0 0 10216.6 0 0 -10216.6 0 0 210.737 0 0 -210.737
0 0 17449.4 0 0 -17449.4 0 0 12167.7 0 0 -12167.7 0 0 2159.2 0 0 -2159.2 0 0 5995.8 0 0 -5995.8 0 0 10975.8 0 0 -10975.8 0 0 181.827 0 0 -181.827
0 0 16364.3 0 0 -16364.3 0 0 12910.9 0 0 -12910.9 0 0 2125.94 0 0 -2125.94 0 0 4858.86 0 0 -4858.86 0 0 11750.8 0 0 -11750.8 0 0 159.908 0 0 -159.908
0 0 15248.9 0 0 -15248.9 0 0 13648.9 0 0 -13648.9 0 0 2096.47 0 0 -2096.47 0 0 3693.99 0 0 -3693.99 0 0 12521.4 0 0 -12521.4 0 0 134.661 0 0 -134.661
0 0 14103.7 0 0 -14103.7 0 0 14357.9 0 0 -14357.9 0 0 2073.1 0 0 -2073.1 0 0 2503.16 0 0 -2503.16 0 0 13262.9 0 0 -13262.9 0 0 111.54 0 0 -111.54
0 0 12927.1 0 0 -12927.1 0 0 15012.7 0 0 -15012.7 0 0 2054.86 0 0 -2054.86 0 0 1289.78 0 0 -1289.78 0 0 13950.3 0 0 -13950.3 0 0 92.5302 0 0 -92.5302
0 0 11720.3 0 0 -11720.3 0 0 15590.3 0 0 -15590.3 0 0 2042.08 0 0 -2042.08 0 0 57.6264 0 0 -57.6264 0 0 14560.4 0 0 -14560.4 0 0 82.2947 0 0 -82.2947
0 0 10519.3 0 0 -10519.3 0 0 16070.2 0 0 -16070.2 0 0 2036.59 0 0 -2036.59 0 0 -599.394 0 0 599.394 0 0 14961.8 0 0 -14961.8 0 0 87.6612 0 0 -87.6612
0 0 9300.54 0 0 -9300.54 0 0 16422.7 0 0 -16422.7 0 0 2047.77 0 0 -2047.77 0 0 -1313.32 0 0 1313.32 0 0 15285.7 0 0 -15285.7 0 0 89.4599 0 0 -89.4599
0 0 8056.61 0 0 -8056.61 0 0 16662.9 0 0 -16662.9 0 0 2068.27 0 0 -2068.27 0 0 -2010.06 0 0 2010.06 0 0 15447 0 0 -15447 0 0 116.226 0 0 -116.226
0 0 6805.25 0 0 -6805.25 0 0 16750.8 0 0 -16750.8 0 0 2106.32 0 0 -2106.32 0 0 -2714.9 0 0 2714.9 0 0 15494.8 0 0 -15494.8 0 0 131.259 0 0 -131.259
0 0 5536.22 0 0 -5536.22 0 0 16711.3 0 0 -16711.3 0 0 2152.65 0 0 -2152.65 0 0 -3359.84 0 0 3359.84 0 0 15439.9 0 0 -15439.9 0 0 159.386 0 0 -159.386
0 0 4266.11 0 0 -4266.11 0 0 16586.7 0 0 -16586.7 0 0 2205.23 0 0 -2205.23 0 0 -3891.69 0 0 3891.69 0 0 15309.1 0 0 -15309.1 0 0 188.934 0 0 -188.934
0 0 3029.17 0 0 -3029.17 0 0 16340.5 0 0 -16340.5 0 0 2267.54 0 0 -2267.54 0 0 -4370.57 0 0 4370.57 0 0 15065.2 0 0 -15065.2 0 0 206.804 0 0 -206.804
0 0 1815.5 0 0 -1815.5 0 0 15919.1 0 0 -15919.1 0 0 2338.93 0 0 -2338.93 0 0 -4796.59 0 0 4796.59 0 0 14668.1 0 0 -14668.1 0 0 231.322 0 0 -231.322
0 0 647.465 0 0 -647.465 0 0 15311.5 0 0 -15311.5 0 0 2421.78 0 0 -2421.78 0 0 -5172.22 0 0 5172.22 0 0 14104.9 0 0 -14104.9 0 0 262.532 0 0 -262.532
0 0 -245.571 0 0 245.571 0 0 14526.4 0 0 -14526.4 0 0 2516.81 0 0 -2516.81 0 0 -5465.2 0 0 5465.2 0 0 13409.1 0 0 -13409.1 0 0 291.391 0 0 -291.391
0 0 -921.84 0 0 921.84 0 0 13607.7 0 0 -13607.7 0 0 2614.12 0 0 -2614.12 0 0 -5626.58 0 0 5626.58 0 0 12603.5 0 0 -12603.5 0 0 321.242 0 0 -321.242
0 0 -1511.42 0 0 1511.42 0 0 12558.4 0 0 -12558.4 0 0 2719.26 0 0 -2719.26 0 0 -5694.04 0 0 5694.04 0 0 11663.7 0 0 -11663.7 0 0 357.554 0 0 -357.554
0 0 -1978.89 0 0 1978.89 0 0 11380.6 0 0 -11380.6 0 0 2827.85 0 0 -2827.85 0 0 -5648.04 0 0 5648.04 0 0 10596.5 0 0 -10596.5 0 0 386.637 0 0 -386.637
0 0 -2341.46 0 0 2341.46 0 0 10072.9 0 0 -10072.9 0 0 2934.84 0 0 -2934.84 0 0 -5460.4 0 0 5460.4 0 0 9390.85 0 0 -9390.85 0 0 420.664 0 0 -420.664
0 0 -2626.8 0 0 2626.8 0 0 8656.75 0 0 -8656.75 0 0 3037.18 0 0 -3037.18 0 0 -5145.29 0 0 5145.29 0 0 8073.37 0 0 -8073.37 0 0 448.591 0 0 -448.591
0 0 -2845.66 0 0 2845.66 0 0 7171.07 0 0 -7171.07 0 0 3131.58 0 0 -3131.58 0 0 -4692.46 0 0 4692.46 0 0 6674.77 0 0 -6674.77 0 0 474.879 0 0 -474.879
0 0 -3010.87 0 0 3010.87 0 0 5635.94 0 0 -5635.94 0 0 3216.56 0 0 -3216.56 0 0 -4142.82 0 0 4142.82 0 0 5215.45 0 0 -5215.45 0 0 499.432 0 0 -499.432
0 0 -3090.04 0 0 3090.04 0 0 4087.07 0 0 -4087.07 0 0 3288.59 0 0 -3288.59 0 0 -3538.12 0 0 3538.12 0 0 3721.54 0 0 -3721.54 0 0 518.316 0 0 -518.316
0 0 -3004.59 0 0 3004.59 0 0 2562.62 0 0 -2562.62 0 0 3342.71 0 0 -3342.71 0 0 -2911.92 0 0 2911.92 0 0 2222.45 0 0 -2222.45 0 0 532.055 0 0 -532.055
0 0 -2709.36 0 0 2709.36 0 0 1090.11 0 0 -1090.11 0 0 3374.43 0 0 -3374.43 0 0 -2292.12 0 0 2292.12 0 0 747.383 0 0 -747.383 0 0 538.073 0 0 -538.073
0 0 -2292.14 0 0 2292.14 0 0 -313.075 0 0 313.075 0 0 3381.44 0 0 -3381.44 0 0 -1725.04 0 0 1725.04 0 0 -617.147 0 0 617.147 0 0 529.664 0 0 -529.664
0 0 -1868.92 0 0 1868.92 0 0 -1623.37 0 0 1623.37 0 0 3359.19 0 0 -3359.19 0 0 -1235.25 0 0 1235.25 0 0 -1901.82 0 0 1901.82 0 0 521.341 0 0 -521.341
0 0 -1485.77 0 0 1485.77 0 0 -2815.25 0 0 2815.25 0 0 3306.92 0 0 -3306.92 0 0 -811.878 0 0 811.878 0 0 -3077.7 0 0 3077.7 0 0 460.214 0 0 -460.214
0 0 -1218.89 0 0 1218.89 0 0 -3817.47 0 0 3817.47 0 0 3215.91 0 0 -3215.91 0 0 -490.491 0 0 490.491 0 0 -4154.58 0 0 4154.58 0 0 372.631 0 0 -372.631
0 0 -1041.24 0 0 1041.24 0 0 -4674.03 0 0 4674.03 0 0 3085.66 0 0 -3085.66 0 0 -285.376 0 0 285.376 0 0 -5107.71 0 0 5107.71 0 0 264.624 0 0 -264.624
0 0 -948.455 0 0 948.455 0 0 -5424.13 0 0 5424.13 0 0 2920.97 0 0 -2920.97 0 0 -211.07 0 0 211.07 0 0 -5959.94 0 0 5959.94 0 0 146.148 0 0 -146.148
0 0 -971.405 0 0 971.405 0 0 -5988.97 0 0 5988.97 0 0 2733.16 0 0 -2733.16 0 0 -270.812 0 0 270.812 0 0 -6681.14 0 0 6681.14 0 0 -8.80014 0 0 8.80014
0 0 -1145.64 0 0 1145.64 0 0 -6286.23 0 0 6286.23 0 0 2522.52 0 0 -2522.52 0 0 -457.883 0 0 457.883 0 0 -7272.84 0 0 7272.84 0 0 -119.708 0 0 119.708
0 0 -1458.01 0 0 1458.01 0 0 -6352.93 0 0 6352.93 0 0 2298.12 0 0 -2298.12 0 0 -781.368 0 0 781.368 0 0 -7731.12 0 0 7731.12 0 0 -204.757 0 0 204.757
0 0 -1874.67 0 0 1874.67 0 0 -6276.46 0 0 6276.46 0 0 2061.59 0 0 -2061.59 0 0 -1245.53 0 0 1245.53 0 0 -8070.2 0 0 8070.2 0 0 -293.086 0 0 293.086
0 0 -2337.92 0 0 2337.92 0 0 -6130.1 0 0 6130.1 0 0 1812.45 0 0 -1812.45 0 0 -2289.49 0 0 2289.49 0 0 -8529.29 0 0 8529.29 0 0 -364.745 0 0 364.745
0 0 -2832.57 0 0 2832.57 0 0 -5931.89 0 0 5931.89 0 0 1534.08 0 0 -1534.08 0 0 -3303.33 0 0 3303.33 0 0 -8742.97 0 0 8742.97 0 0 -499.198 0 0 499.198
0 0 -3312.62 0 0 3312.62 0 0 -5665.23 0 0 5665.23 0 0 1216.66 0 0 -1216.66 0 0 -4444.59 0 0 4444.59 0 0 -8998.06 0 0 8998.06 0 0 -583.864 0 0 583.864
0 0 -3851.96 0 0 3851.96 0 0 -5315.18 0 0 5315.18 0 0 877.545 0 0 -877.545 0 0 -5689.39 0 0 5689.39 0 0 -9119.75 0 0 9119.75 0 0 -720.202 0 0 720.202
0 0 -4404.2 0 0 4404.2 0 0 -4939.79 0 0 4939.79 0 0 531.117 0 0 -531.117 0 0 -6340.76 0 0 6340.76 0 0 -9288.47 0 0 9288.47 0 0 -842.244 0 0 842.244
0 0 -4982.81 0 0 4982.81 0 0 -4527.84 0 0 4527.84 0 0 187.731 0 0 -187.731 0 0 -7065.18 0 0 7065.18 0 0 -9357.43 0 0 9357.43 0 0 -974.334 0 0 974.334
0 0 -5579.31 0 0 5579.31 0 0 -4116.62 0 0 4116.62 0 0 -74.1573 0 0 74.1573 0 0 -7805.6 0 0 7805.6 0 0 -9415.6 0 0 9415.6 0 0 -1079.07 0 0 1079.07
0 0 -6195.83 0 0 6195.83 0 0 -3687.85 0 0 3687.85 0 0 -313.703 0 0 313.703 0 0 -8560.11 0 0 8560.11 0 0 -9426.04 0 0 9426.04 0 0 -1202.85 0 0 1202.85
0 0 -6795.15 0 0 6795.15 0 0 -3352.91 0 0 3352.91 0 0 -286.702 0 0 286.702 0 0 -9320.77 0 0 9320.77 0 0 -9435.16 0 0 9435.16 0 0 -1277.86 0 0 1277.86
0 0 -7397.73 0 0 7397.73 0 0 -3009.13 0 0 3009.13 0 0 -279.069 0 0 279.069 0 0 -10081.9 0 0 10081.9 0 0 -9426.62 0 0 9426.62 0 0 -1367.55 0 0 1367.55
0 0 -7996.26 0 0 7996.26 0 0 -2681.97 0 0 2681.97 0 0 -254.964 0 0 254.964 0 0 -10845.1 0 0 10845.1 0 0 -9406.96 0 0 9406.96 0 0 -1476.86 0 0 1476.86
0 0 -8590.59 0 0 8590.59 0 0 -2354.47 0 0 2354.47 0 0 -235.887 0 0 235.887 0 0 -11604.3 0 0 11604.3 0 0 -9414.6 0 0 9414.6 0 0 -1573.61 0 0 1573.61
0 0 -9173.41 0 0 9173.41 0 0 -2027.65 0 0 2027.65 0 0 -224.399 0 0 224.399 0 0 -12355.1 0 0 12355.1 0 0 -9451.75 0 0 9451.75 0 0 -1664.26 0 0 1664.26
0 0 -9741.7 0 0 9741.7 0 0 -1704.59 0 0 1704.59 0 0 -221.638 0 0 221.638 0 0 -13094 0 0 13094 0 0 -9528.71 0 0 9528.71 0 0 -1742.74 0 0 1742.74
0 0 -10290.7 0 0 10290.7 0 0 -1398.72 0 0 1398.72 0 0 -222.303 0 0 222.303 0 0 -13819.4 0 0 13819.4 0 0 -9650.74 0 0 9650.74 0 0 -1817.35 0 0 1817.35
0 0 -10814.4 0 0 10814.4 0 0 -1124.63 0 0 1124.63 0 0 -221.499 0 0 221.499 0 0 -14530.2 0 0 14530.2 0 0 -9824.68 0 0 9824.68 0 0 -1897.61 0 0 1897.61
0 0 -11307.3 0 0 11307.3 0 0 -892.22 0 0 892.22 0 0 -217.312 0 0 217.312 0 0 -15223.5 0 0 15223.5 0 0 -10059.1 0 0 10059.1 0 0 -1984.23 0 0 1984.23
0 0 -11766.3 0 0 11766.3 0 0 -702.903 0 0 702.903 0 0 -211.638 0 0 211.638 0 0 -15897.2 0 0 15897.2 0 0 -10361.2 0 0 10361.2 0 0 -2074.84 0 0 2074.84
0 0 -12190.6 0 0 12190.6 0 0 -552.434 0 0 552.434 0 0 -208.585 0 0 208.585 0 0 -16549.2 0 0 16549.2 0 0 -10739.1 0 0 10739.1 0 0 -2162.22 0 0 2162.22
0 0 -12578.2 0 0 12578.2 0 0 -436.837 0 0 436.837 0 0 -211.909 0 0 211.909 0 0 -17176.4 0 0 17176.4 0 0 -11199.7 0 0 11199.7 0 0 -2240.88 0 0 2240.88
0 0 -12925.5 0 0 12925.5 0 0 -356.765 0 0 356.765 0 0 -222.671 0 0 222.671 0 0 -17774.7 0 0 17774.7 0 0 -11747.3 0 0 11747.3 0 0 -2310.23 0 0 2310.23
0 0 -13228.5 0 0 13228.5 0 0 -313.64 0 0 313.64 0 0 -259.174 0 0 259.174 0 0 -18341 0 0 18341 0 0 -12361 0 0 12361 0 0 -2530.69 0 0 2530.69
0 0 -13479.6 0 0 13479.6 0 0 -333.65 0 0 333.65 0 0 -282.069 0 0 282.069 0 0 -18876.2 0 0 18876.2 0 0 -13028.1 0 0 13028.1 0 0 -2779.43 0 0 2779.43
0 0 -13677.7 0 0 13677.7 0 0 -414.004 0 0 414.004 0 0 -296.722 0 0 296.722 0 0 -19368.2 0 0 19368.2 0 0 -13828 0 0 13828 0 0 -2923.27 0 0 2923.27
0 0 -13826.1 0 0 13826.1 0 0 -543.636 0 0 543.636 0 0 -310.219 0 0 310.219 0 0 -19825 0 0 19825 0 0 -14696.8 0 0 14696.8 0 0 -3069.49 0 0 3069.49
0 0 -13932.5 0 0 13932.5 0 0 -704.344 0 0 704.344 0 0 -336.61 0 0 336.61 0 0 -20248.4 0 0 20248.4 0 0 -15652.6 0 0 15652.6 0 0 -3222.27 0 0 3222.27
0 0 -14002.9 0 0 14002.9 0 0 -891.897 0 0 891.897 0 0 -376.459 0 0 376.459 0 0 -20643.9 0 0 20643.9 0 0 -16679.6 0 0 16679.6 0 0 -3400.18 0 0 3400.18
0 0 -14039.8 0 0 14039.8 0 0 -1112.88 0 0 1112.88 0 0 -421.017 0 0 421.017 0 0 -21016.1 0 0 21016.1 0 0 -17773.1 0 0 17773.1 0 0 -3579.13 0 0 3579.13
0 0 -14040.8 0 0 14040.8 0 0 -1374.84 0 0 1374.84 0 0 -461.066 0 0 461.066 0 0 -21365 0 0 21365 0 0 -18932.9 0 0 18932.9 0 0 -3729.73 0 0 3729.73
0 0 -14000.6 0 0 14000.6 0 0 -1676.64 0 0 1676.64 0 0 -494.443 0 0 494.443 0 0 -21689.2 0 0 21689.2 0 0 -20150 0 0 20150 0 0 -3846.83 0 0 3846.83
0 0 -13917.7 0 0 13917.7 0 0 -2007.46 0 0 2007.46 0 0 -526.505 0 0 526.505 0 0 -21984.9 0 0 21984.9 0 0 -21414.5 0 0 21414.5 0 0 -3944.74 0 0 3944.74
0 0 -13796.3 0 0 13796.3 0 0 -2353.56 0 0 2353.56 0 0 -563.802 0 0 563.802 0 0 -22250 0 0 22250 0 0 -22711.4 0 0 22711.4 0 0 -4046.19 0 0 4046.19
0 0 -13642.1 0 0 13642.1 0 0 -2706.42 0 0 2706.42 0 0 -608.118 0 0 608.118 0 0 -22486.1 0 0 22486.1 0 0 -24027.7 0 0 24027.7 0 0 -4160.29 0 0 4160.29
0 0 -13462.4 0 0 13462.4 0 0 -3063.89 0 0 3063.89 0 0 -655.582 0 0 655.582 0 0 -22697.5 0 0 22697.5 0 0 -25351.9 0 0 25351.9 0 0 -4279.11 0 0 4279.11
0 0 -13265.7 0 0 13265.7 0 0 -3425.85 0 0 3425.85 0 0 -700.691 0 0 700.691 0 0 -22890.5 0 0 22890.5 0 0 -26673.5 0 0 26673.5 0 0 -4388.99 0 0 4388.99
0 0 -13062.9 0 0 13062.9 0 0 -3788.65 0 0 3788.65 0 0 -740.812 0 0 740.812 0 0 -23072.7 0 0 23072.7 0 0 -27980.2 0 0 27980.2 0 0 -4483.86 0 0 4483.86
0 0 -12866.7 0 0 12866.7 0 0 -4143.57 0 0 4143.57 0 0 -777.491 0 0 777.491 0 0 -23252.3 0 0 23252.3 0 0 -29257.6 0 0 29257.6 0 0 -4570.36 0 0 4570.36
0 0 -12690.7 0 0 12690.7 0 0 -4479.89 0 0 4479.89 0 0 -813.965 0 0 813.965 0 0 -23438.3 0 0 23438.3 0 0 -30490.6 0 0 30490.6 0 0 -4660.87 0 0 4660.87
0 0 -12550.5 0 0 12550.5 0 0 -4766.42 0 0 4766.42 0 0 -848.628 0 0 848.628 0 0 -23653 0 0 23653 0 0 -31400.4 0 0 31400.4 0 0 -4705.93 0 0 4705.93
0 0 -12481.3 0 0 12481.3 0 0 -4921.94 0 0 4921.94 0 0 -887.01 0 0 887.01 0 0 -23987.2 0 0 23987.2 0 0 -31434.6 0 0 31434.6 0 0 -4798.82 0 0 4798.82
0 0 -12451.7 0 0 12451.7 0 0 -5066.76 0 0 5066.76 0 0 -918.211 0 0 918.211 0 0 -24324.3 0 0 24324.3 0 0 -31719 0 0 31719 0 0 -4908.81 0 0 4908.81
0 0 -12443.1 0 0 12443.1 0 0 -5177.39 0 0 5177.39 0 0 -954.656 0 0 954.656 0 0 -24346.7 0 0 24346.7 0 0 -31998 0 0 31998 0 0 -4984.22 0 0 4984.22
0 0 -12491.9 0 0 12491.9 0 0 -5281.9 0 0 5281.9 0 0 -981.913 0 0 981.913 0 0 -24339.6 0 0 24339.6 0 0 -32221.7 0 0 32221.7 0 0 -5098.31 0 0 5098.31
0 0 -12585.9 0 0 12585.9 0 0 -5398.82 0 0 5398.82 0 0 -999.213 0 0 999.213 0 0 -24564.9 0 0 24564.9 0 0 -32351.9 0 0 32351.9 0 0 -5177.57 0 0 5177.57
0 0 -12747.2 0 0 12747.2 0 0 -5478.18 0 0 5478.18 0 0 -1015.33 0 0 1015.33 0 0 -24809.8 0 0 24809.8 0 0 -32305.3 0 0 32305.3 0 0 -5306.53 0 0 5306.53
0 0 -12960.5 0 0 12960.5 0 0 -5525.43 0 0 5525.43 0 0 -1034.24 0 0 1034.24 0 0 -25042.4 0 0 25042.4 0 0 -32400.2 0 0 32400.2 0 0 -5419.24 0 0 5419.24
0 0 -13212.5 0 0 13212.5 0 0 -5543.08 0 0 5543.08 0 0 -1054.56 0 0 1054.56 0 0 -25291.2 0 0 25291.2 0 0 -32436.2 0 0 32436.2 0 0 -5552.34 0 0 5552.34
0 0 -13491.1 0 0 13491.1 0 0 -5538.26 0 0 5538.26 0 0 -1070.34 0 0 1070.34 0 0 -25606 0 0 25606 0 0 -32361.9 0 0 32361.9 0 0 -5696.7 0 0 5696.7
0 0 -13783.8 0 0 13783.8 0 0 -5514.73 0 0 5514.73 0 0 -1081.81 0 0 1081.81 0 0 -25932.1 0 0 25932.1 0 0 -32280.1 0 0 32280.1 0 0 -5835.47 0 0 5835.47
0 0 -14059.3 0 0 14059.3 0 0 -5476.43 0 0 5476.43 0 0 -1091.35 0 0 1091.35 0 0 -26224.2 0 0 26224.2 0 0 -32215.6 0 0 32215.6 0 0 -5968.89 0 0 5968.89
0 0 -14284 0 0 14284 0 0 -5417.81 0 0 5417.81 0 0 -1102.85 0 0 1102.85 0 0 -26512.9 0 0 26512.9 0 0 -32124 0 0 32124 0 0 -6105.85 0 0 6105.85
0 0 -14491.8 0 0 14491.8 0 0 -5351.87 0 0 5351.87 0 0 -1112.9 0 0 1112.9 0 0 -26804.4 0 0 26804.4 0 0 -31985.9 0 0 31985.9 0 0 -6253.81 0 0 6253.81
0 0 -14691.7 0 0 14691.7 0 0 -5267.04 0 0 5267.04 0 0 -1126.06 0 0 1126.06 0 0 -27072.6 0 0 27072.6 0 0 -31846.2 0 0 31846.2 0 0 -6407.14 0 0 6407.14
0 0 -14870.6 0 0 14870.6 0 0 -5177.31 0 0 5177.31 0 0 -1137.77 0 0 1137.77 0 0 -27309.8 0 0 27309.8 0 0 -31713.7 0 0 31713.7 0 0 -6559.49 0 0 6559.49
0 0 -15030.8 0 0 15030.8 0 0 -5070.53 0 0 5070.53 0 0 -1149.15 0 0 1149.15 0 0 -27526.8 0 0 27526.8 0 0 -31569.3 0 0 31569.3 0 0 -6709.29 0 0 6709.29
0 0 -15169.5 0 0 15169.5 0 0 -4960.31 0 0 4960.31 0 0 -1159.48 0 0 1159.48 0 0 -27722.2 0 0 27722.2 0 0 -31418.5 0 0 31418.5 0 0 -6855.15 0 0 6855.15
0 0 -15283 0 0 15283 0 0 -4849.73 0 0 4849.73 0 0 -1169.21 0 0 1169.21 0 0 -27885.3 0 0 27885.3 0 0 -31275.8 0 0 31275.8 0 0 -6998.62 0 0 6998.62
0 0 -15368.5 0 0 15368.5 0 0 -4739.37 0 0 4739.37 0 0 -1180.6 0 0 1180.6 0 0 -28014.8 0 0 28014.8 0 0 -31141.1 0 0 31141.1 0 0 -7142.09 0 0 7142.09
0 0 -15423.5 0 0 15423.5 0 0 -4631.48 0 0 4631.48 0 0 -1193.43 0 0 1193.43 0 0 -28113.1 0 0 28113.1 0 0 -31009.9 0 0 31009.9 0 0 -7286.16 0 0 7286.16
0 0 -15445.8 0 0 15445.8 0 0 -4532.06 0 0 4532.06 0 0 -1191.56 0 0 1191.56 0 0 -28175.8 0 0 28175.8 0 0 -30904 0 0 30904 0 0 -7333.46 0 0 7333.46
0 0 -15427.3 0 0 15427.3 0 0 -4442.1 0 0 4442.1 0 0 -1183.78 0 0 1183.78 0 0 -28183.3 0 0 28183.3 0 0 -30875.6 0 0 30875.6 0 0 -7293.19 0 0 7293.19
0 0 -15367.6 0 0 15367.6 0 0 -4354.94 0 0 4354.94 0 0 -1179.95 0 0 1179.95 0 0 -28121.2 0 0 28121.2 0 0 -30844.1 0 0 30844.1 0 0 -7306.83 0 0 7306.83
0 0 -15263.8 0 0 15263.8 0 0 -4274.8 0 0 4274.8 0 0 -1177.01 0 0 1177.01 0 0 -28038.1 0 0 28038.1 0 0 -30796.4 0 0 30796.4 0 0 -7307.21 0 0 7307.21
0 0 -15117.9 0 0 15117.9 0 0 -4201.31 0 0 4201.31 0 0 -1174.66 0 0 1174.66 0 0 -27884 0 0 27884 0 0 -30771.5 0 0 30771.5 0 0 -7316.38 0 0 7316.38
0 0 -14931 0 0 14931 0 0 -4134.17 0 0 4134.17 0 0 -1173.23 0 0 1173.23 0 0 -27660.1 0 0 27660.1 0 0 -30779.2 0 0 30779.2 0 0 -7313.67 0 0 7313.67
0 0 -14706.4 0 0 14706.4 0 0 -4071.8 0 0 4071.8 0 0 -1173.25 0 0 1173.25 0 0 -27393 0 0 27393 0 0 -30789.5 0 0 30789.5 0 0 -7316.09 0 0 7316.09
0 0 -14450.1 0 0 14450.1 0 0 -4014.25 0 0 4014.25 0 0 -1174.9 0 0 1174.9 0 0 -27086.2 0 0 27086.2 0 0 -30798.8 0 0 30798.8 0 0 -7324.19 0 0 7324.19
0 0 -14163.1 0 0 14163.1 0 0 -3976.26 0 0 3976.26 0 0 -1176.54 0 0 1176.54 0 0 -26739.8 0 0 26739.8 0 0 -30823.8 0 0 30823.8 0 0 -7329.88 0 0 7329.88
0 0 -13784.5 0 0 13784.5 0 0 -3926.93 0 0 3926.93 0 0 -1180.27 0 0 1180.27 0 0 -26273.5 0 0 26273.5 0 0 -30861 0 0 30861 0 0 -7336.66 0 0 7336.66
0 0 -13400 0 0 13400 0 0 -3876.63 0 0 3876.63 0 0 -1182.79 0 0 1182.79 0 0 -25802.3 0 0 25802.3 0 0 -30889.5 0 0 30889.5 0 0 -7344.58 0 0 7344.58
0 0 -13029.6 0 0 13029.6 0 0 -3820.54 0 0 3820.54 0 0 -1184.03 0 0 1184.03 0 0 -25343.6 0 0 25343.6 0 0 -30911.3 0 0 30911.3 0 0 -7350.48 0 0 7350.48
0 0 -12685.1 0 0 12685.1 0 0 -3755.19 0 0 3755.19 0 0 -1183.99 0 0 1183.99 0 0 -24915.8 0 0 24915.8 0 0 -30918.4 0 0 30918.4 0 0 -7354.89 0 0 7354.89
0 0 -12369.7 0 0 12369.7 0 0 -3677.61 0 0 3677.61 0 0 -1182.64 0 0 1182.64 0 0 -24524.5 0 0 24524.5 0 0 -30904.6 0 0 30904.6 0 0 -7359.23 0 0 7359.23
0 0 -12071.2 0 0 12071.2 0 0 -3583.11 0 0 3583.11 0 0 -1179.88 0 0 1179.88 0 0 -24339.2 0 0 24339.2 0 0 -30814 0 0 30814 0 0 -7368.74 0 0 7368.74
0 0 -11769.8 0 0 11769.8 0 0 -3477.08 0 0 3477.08 0 0 -1172.92 0 0 1172.92 0 0 -24124.6 0 0 24124.6 0 0 -30765.6 0 0 30765.6 0 0 -7348.76 0 0 7348.76
0 0 -11454.5 0 0 11454.5 0 0 -3355.63 0 0 3355.63 0 0 -1165.13 0 0 1165.13 0 0 -23896.6 0 0 23896.6 0 0 -30628.3 0 0 30628.3 0 0 -7356.71 0 0 7356.71
0 0 -11123.1 0 0 11123.1 0 0 -3217.83 0 0 3217.83 0 0 -1155.56 0 0 1155.56 0 0 -23617.2 0 0 23617.2 0 0 -30498.3 0 0 30498.3 0 0 -7351.16 0 0 7351.16
0 0 -10765.2 0 0 10765.2 0 0 -3064.98 0 0 3064.98 0 0 -1143.55 0 0 1143.55 0 0 -23301.3 0 0 23301.3 0 0 -30354.9 0 0 30354.9 0 0 -7343.09 0 0 7343.09
0 0 -10370.2 0 0 10370.2 0 0 -2897.45 0 0 2897.45 0 0 -1130.1 0 0 1130.1 0 0 -22923.8 0 0 22923.8 0 0 -30170.7 0 0 30170.7 0 0 -7340.95 0 0 7340.95
0 0 -9913.14 0 0 9913.14 0 0 -2715.82 0 0 2715.82 0 0 -1114.63 0 0 1114.63 0 0 -22463.5 0 0 22463.5 0 0 -29981.2 0 0 29981.2 0 0 -7332.41 0 0 7332.41
0 0 -9369.27 0 0 9369.27 0 0 -2520.24 0 0 2520.24 0 0 -1097.11 0 0 1097.11 0 0 -21894 0 0 21894 0 0 -29768.8 0 0 29768.8 0 0 -7323.37 0 0 7323.37
0 0 -8745.01 0 0 8745.01 0 0 -2313.39 0 0 2313.39 0 0 -1077.82 0 0 1077.82 0 0 -21203.1 0 0 21203.1 0 0 -29532.9 0 0 29532.9 0 0 -7315.41 0 0 7315.41
0 0 -8163.26 0 0 8163.26 0 0 -2093.15 0 0 2093.15 0 0 -1059.38 0 0 1059.38 0 0 -20412.9 0 0 20412.9 0 0 -29284.8 0 0 29284.8 0 0 -7304.48 0 0 7304.48
0 0 -7693.17 0 0 7693.17 0 0 -1853.38 0 0 1853.38 0 0 -1043.04 0 0 1043.04 0 0 -19561 0 0 19561 0 0 -29015.6 0 0 29015.6 0 0 -7294 0 0 7294
0 0 -7249.72 0 0 7249.72 0 0 -1601.07 0 0 1601.07 0 0 -1024.32 0 0 1024.32 0 0 -18640 0 0 18640 0 0 -28724 0 0 28724 0 0 -7283.71 0 0 7283.71
0 0 -6801.74 0 0 6801.74 0 0 -1335.48 0 0 1335.48 0 0 -1004.81 0 0 1004.81 0 0 -17663.9 0 0 17663.9 0 0 -28393.5 0 0 28393.5 0 0 -7269.87 0 0 7269.87
0 0 -6374.29 0 0 6374.29 0 0 -1025.11 0 0 1025.11 0 0 -983.348 0 0 983.348 0 0 -16679.6 0 0 16679.6 0 0 -27973 0 0 27973 0 0 -7256.22 0 0 7256.22
0 0 -5997.81 0 0 5997.81 0 0 -632.06 0 0 632.06 0 0 -962.587 0 0 962.587 0 0 -15716.3 0 0 15716.3 0 0 -27453.6 0 0 27453.6 0 0 -7242.42 0 0 7242.42
0 0 -5687.23 0 0 5687.23 0 0 -160.001 0 0 160.001 0 0 -941.439 0 0 941.439 0 0 -14800.2 0 0 14800.2 0 0 -26828.2 0 0 26828.2 0 0 -7228.71 0 0 7228.71
0 0 -5457.5 0 0 5457.5 0 0 394.966 0 0 -394.966 0 0 -920.442 0 0 920.442 0 0 -13957.7 0 0 13957.7 0 0 -26100.5 0 0 26100.5 0 0 -7214.75 0 0 7214.75
0 0 -5303.48 0 0 5303.48 0 0 989.733 0 0 -989.733 0 0 -901.675 0 0 901.675 0 0 -13200.5 0 0 13200.5 0 0 -25282.5 0 0 25282.5 0 0 -7201.42 0 0 7201.42
0 0 -5160.9 0 0 5160.9 0 0 1436.46 0 0 -1436.46 0 0 -872.978 0 0 872.978 0 0 -12520.4 0 0 12520.4 0 0 -24423.2 0 0 24423.2 0 0 -7187.53 0 0 7187.53
0 0 -5044.3 0 0 5044.3 0 0 1807.4 0 0 -1807.4 0 0 -841.41 0 0 841.41 0 0 -11907.4 0 0 11907.4 0 0 -23531.7 0 0 23531.7 0 0 -7169.16 0 0 7169.16
0 0 -4967.44 0 0 4967.44 0 0 2177.18 0 0 -2177.18 0 0 -812.546 0 0 812.546 0 0 -11344.1 0 0 11344.1 0 0 -22592.6 0 0 22592.6 0 0 -7153.15 0 0 7153.15
0 0 -4930.91 0 0 4930.91 0 0 2537.33 0 0 -2537.33 0 0 -784.29 0 0 784.29 0 0 -10817.4 0 0 10817.4 0 0 -21615 0 0 21615 0 0 -7138.03 0 0 7138.03
0 0 -4911.64 0 0 4911.64 0 0 2880.14 0 0 -2880.14 0 0 -756.862 0 0 756.862 0 0 -10317.5 0 0 10317.5 0 0 -20618.6 0 0 20618.6 0 0 -7119.43 0 0 7119.43
0 0 -4896.61 0 0 4896.61 0 0 3186.83 0 0 -3186.83 0 0 -695.138 0 0 695.138 0 0 -9832.79 0 0 9832.79 0 0 -19633.1 0 0 19633.1 0 0 -7059.99 0 0 7059.99
0 0 -4878.09 0 0 4878.09 0 0 3440.15 0 0 -3440.15 0 0 -592.525 0 0 592.525 0 0 -9358.57 0 0 9358.57 0 0 -18667.3 0 0 18667.3 0 0 -6955.14 0 0 6955.14
0 0 -4845.81 0 0 4845.81 0 0 3620.27 0 0 -3620.27 0 0 -449.57 0 0 449.57 0 0 -8890.75 0 0 8890.75 0 0 -17736.7 0 0 17736.7 0 0 -6801.14 0 0 6801.14
0 0 -4799.58 0 0 4799.58 0 0 3743.38 0 0 -3743.38 0 0 -259.261 0 0 259.261 0 0 -8422.03 0 0 8422.03 0 0 -16848.4 0 0 16848.4 0 0 -6598.04 0 0 6598.04
0 0 -4729.54 0 0 4729.54 0 0 3803.74 0 0 -3803.74 0 0 -20.4664 0 0 20.4664 0 0 -7940.77 0 0 7940.77 0 0 -16014 0 0 16014 0 0 -6347.15 0 0 6347.15
0 0 -4629.39 0 0 4629.39 0 0 3806.88 0 0 -3806.88 0 0 239.816 0 0 -239.816 0 0 -7435.16 0 0 7435.16 0 0 -15238 0 0 15238 0 0 -6051.9 0 0 6051.9
0 0 -4506.94 0 0 4506.94 0 0 3817.46 0 0 -3817.46 0 0 332.911 0 0 -332.911 0 0 -6889.54 0 0 6889.54 0 0 -14517.8 0 0 14517.8 0 0 -5759.67 0 0 5759.67
0 0 -4339 0 0 4339 0 0 3798.79 0 0 -3798.79 0 0 391.2 0 0 -391.2 0 0 -6283.92 0 0 6283.92 0 0 -13860.4 0 0 13860.4 0 0 -5479.61 0 0 5479.61
0 0 -4114.83 0 0 4114.83 0 0 3739.13 0 0 -3739.13 0 0 445.601 0 0 -445.601 0 0 -5603.02 0 0 5603.02 0 0 -13272.8 0 0 13272.8 0 0 -5187.66 0 0 5187.66
