0 0 843.71 0 0 -843.71 0 0 -856.705 0 0 856.705 0 0 842.679 0 0 -842.679 0 0 -845.108 0 0 845.108 0 0 24.2271 0 0 -24.2271 0 0 -22.6519 0 0 22.6519
0 0 850.41 0 0 -850.41 0 0 -849.643 0 0 849.643 0 0 842.06 0 0 -842.06 0 0 -845.847 0 0 845.847 0 0 24.2611 0 0 -24.2611 0 0 -22.6127 0 0 22.6127
0 0 865.755 0 0 -865.755 0 0 -833.496 0 0 833.496 0 0 840.687 0 0 -840.687 0 0 -847.319 0 0 847.319 0 0 24.318 0 0 -24.318 0 0 -22.5434 0 0 22.5434
0 0 897.45 0 0 -897.45 0 0 -800.207 0 0 800.207 0 0 838.107 0 0 -838.107 0 0 -850.04 0 0 850.04 0 0 24.3867 0 0 -24.3867 0 0 -22.4399 0 0 22.4399
0 0 933.449 0 0 -933.449 0 0 -762.364 0 0 762.364 0 0 835.673 0 0 -835.673 0 0 -852.574 0 0 852.574 0 0 24.4103 0 0 -24.4103 0 0 -22.3921 0 0 22.3921
0 0 979.77 0 0 -979.77 0 0 -713.675 0 0 713.675 0 0 833.267 0 0 -833.267 0 0 -855.139 0 0 855.139 0 0 24.368 0 0 -24.368 0 0 -22.4117 0 0 22.4117
0 0 1037.21 0 0 -1037.21 0 0 -653.307 0 0 653.307 0 0 831.252 0 0 -831.252 0 0 -857.328 0 0 857.328 0 0 24.2126 0 0 -24.2126 0 0 -22.545 0 0 22.545
0 0 1106.61 0 0 -1106.61 0 0 -580.38 0 0 580.38 0 0 830.053 0 0 -830.053 0 0 -858.662 0 0 858.662 0 0 23.894 0 0 -23.894 0 0 -22.841 0 0 22.841
0 0 1188.93 0 0 -1188.93 0 0 -493.898 0 0 493.898 0 0 830.19 0 0 -830.19 0 0 -858.609 0 0 858.609 0 0 23.3659 0 0 -23.3659 0 0 -23.3532 0 0 23.3532
0 0 1285.18 0 0 -1285.18 0 0 -392.811 0 0 392.811 0 0 832.247 0 0 -832.247 0 0 -856.592 0 0 856.592 0 0 22.5863 0 0 -22.5863 0 0 -24.1322 0 0 24.1322
0 0 1396.28 0 0 -1396.28 0 0 -276.165 0 0 276.165 0 0 836.86 0 0 -836.86 0 0 -851.961 0 0 851.961 0 0 21.5129 0 0 -21.5129 0 0 -25.2237 0 0 25.2237
0 0 1522.75 0 0 -1522.75 0 0 -143.433 0 0 143.433 0 0 844.728 0 0 -844.728 0 0 -843.973 0 0 843.973 0 0 20.1069 0 0 -20.1069 0 0 -26.6675 0 0 26.6675
0 0 1664.32 0 0 -1664.32 0 0 3.07737 0 0 -3.07737 0 0 856.645 0 0 -856.645 0 0 -831.845 0 0 831.845 0 0 18.34 0 0 -18.34 0 0 -28.4933 0 0 28.4933
0 0 1819.37 0 0 -1819.37 0 0 165.014 0 0 -165.014 0 0 873.402 0 0 -873.402 0 0 -814.611 0 0 814.611 0 0 16.2105 0 0 -16.2105 0 0 -30.7118 0 0 30.7118
0 0 1985.71 0 0 -1985.71 0 0 337.877 0 0 -337.877 0 0 896.127 0 0 -896.127 0 0 -791.455 0 0 791.455 0 0 13.7038 0 0 -13.7038 0 0 -33.3342 0 0 33.3342
0 0 2159.75 0 0 -2159.75 0 0 517.979 0 0 -517.979 0 0 925.872 0 0 -925.872 0 0 -760.992 0 0 760.992 0 0 10.8473 0 0 -10.8473 0 0 -36.3391 0 0 36.3391
0 0 2336.63 0 0 -2336.63 0 0 700.938 0 0 -700.938 0 0 963.603 0 0 -963.603 0 0 -722.188 0 0 722.188 0 0 7.69946 0 0 -7.69946 0 0 -39.6931 0 0 39.6931
0 0 2510.98 0 0 -2510.98 0 0 881.365 0 0 -881.365 0 0 1010.13 0 0 -1010.13 0 0 -674.26 0 0 674.26 0 0 4.36035 0 0 -4.36035 0 0 -43.3119 0 0 43.3119
0 0 2677.44 0 0 -2677.44 0 0 1053.51 0 0 -1053.51 0 0 1066.03 0 0 -1066.03 0 0 -616.667 0 0 616.667 0 0 0.979255 0 0 -0.979255 0 0 -47.0276 0 0 47.0276
0 0 2830.72 0 0 -2830.72 0 0 1211.78 0 0 -1211.78 0 0 1131.53 0 0 -1131.53 0 0 -549.18 0 0 549.18 0 0 -2.2712 0 0 2.2712 0 0 -50.6245 0 0 50.6245
0 0 2965.52 0 0 -2965.52 0 0 1350.69 0 0 -1350.69 0 0 1206.48 0 0 -1206.48 0 0 -471.936 0 0 471.936 0 0 -5.08531 0 0 5.08531 0 0 -53.8306 0 0 53.8306
0 0 3076.01 0 0 -3076.01 0 0 1464.24 0 0 -1464.24 0 0 1290.36 0 0 -1290.36 0 0 -385.432 0 0 385.432 0 0 -7.14311 0 0 7.14311 0 0 -56.3356 0 0 56.3356
0 0 3155.43 0 0 -3155.43 0 0 1545.38 0 0 -1545.38 0 0 1382.36 0 0 -1382.36 0 0 -290.505 0 0 290.505 0 0 -8.09201 0 0 8.09201 0 0 -57.772 0 0 57.772
0 0 3195.66 0 0 -3195.66 0 0 1585.71 0 0 -1585.71 0 0 1481.32 0 0 -1481.32 0 0 -188.331 0 0 188.331 0 0 -7.53268 0 0 7.53268 0 0 -57.726 0 0 57.726
0 0 3187.28 0 0 -3187.28 0 0 1575.47 0 0 -1575.47 0 0 1585.84 0 0 -1585.84 0 0 -80.5011 0 0 80.5011 0 0 -5.03092 0 0 5.03092 0 0 -55.7554 0 0 55.7554
0 0 3120.41 0 0 -3120.41 0 0 1504.36 0 0 -1504.36 0 0 1693.83 0 0 -1693.83 0 0 29.9734 0 0 -29.9734 0 0 -0.12683 0 0 0.12683 0 0 -51.4683 0 0 51.4683
0 0 2987.2 0 0 -2987.2 0 0 1364.49 0 0 -1364.49 0 0 1802.66 0 0 -1802.66 0 0 141.561 0 0 -141.561 0 0 7.52238 0 0 -7.52238 0 0 -44.2699 0 0 44.2699
0 0 2784.96 0 0 -2784.96 0 0 1153.06 0 0 -1153.06 0 0 1909 0 0 -1909 0 0 250.129 0 0 -250.129 0 0 18.554 0 0 -18.554 0 0 -33.6521 0 0 33.6521
0 0 2518.69 0 0 -2518.69 0 0 875.322 0 0 -875.322 0 0 2008.15 0 0 -2008.15 0 0 351.167 0 0 -351.167 0 0 33.4943 0 0 -33.4943 0 0 -18.9837 0 0 18.9837
0 0 2200.29 0 0 -2200.29 0 0 543.547 0 0 -543.547 0 0 2094.57 0 0 -2094.57 0 0 439.017 0 0 -439.017 0 0 52.8014 0 0 -52.8014 0 0 -0.18072 0 0 0.18072
0 0 1844.78 0 0 -1844.78 0 0 173.229 0 0 -173.229 0 0 2162.38 0 0 -2162.38 0 0 507.877 0 0 -507.877 0 0 76.7739 0 0 -76.7739 0 0 23.8161 0 0 -23.8161
0 0 1466.1 0 0 -1466.1 0 0 -223.608 0 0 223.608 0 0 2206.11 0 0 -2206.11 0 0 551.586 0 0 -551.586 0 0 105.703 0 0 -105.703 0 0 52.9926 0 0 -52.9926
0 0 1077.81 0 0 -1077.81 0 0 -634.167 0 0 634.167 0 0 2221.35 0 0 -2221.35 0 0 566.594 0 0 -566.594 0 0 139.618 0 0 -139.618 0 0 87.2795 0 0 -87.2795
0 0 690.941 0 0 -690.941 0 0 -1039.92 0 0 1039.92 0 0 2204.93 0 0 -2204.93 0 0 549.342 0 0 -549.342 0 0 178.303 0 0 -178.303 0 0 126.473 0 0 -126.473
0 0 313.277 0 0 -313.277 0 0 -1435.37 0 0 1435.37 0 0 2155.01 0 0 -2155.01 0 0 497.426 0 0 -497.426 0 0 221.261 0 0 -221.261 0 0 170.12 0 0 -170.12
0 0 -55.3642 0 0 55.3642 0 0 -1817.41 0 0 1817.41 0 0 2070.99 0 0 -2070.99 0 0 410.535 0 0 -410.535 0 0 267.722 0 0 -267.722 0 0 217.563 0 0 -217.563
0 0 -408.591 0 0 408.591 0 0 -2184.72 0 0 2184.72 0 0 1953.29 0 0 -1953.29 0 0 289.513 0 0 -289.513 0 0 316.737 0 0 -316.737 0 0 267.811 0 0 -267.811
0 0 -748.662 0 0 748.662 0 0 -2536.33 0 0 2536.33 0 0 1804.75 0 0 -1804.75 0 0 137.042 0 0 -137.042 0 0 366.975 0 0 -366.975 0 0 319.544 0 0 -319.544
0 0 -1075.79 0 0 1075.79 0 0 -2873.3 0 0 2873.3 0 0 1628.37 0 0 -1628.37 0 0 -46.9201 0 0 46.9201 0 0 417.099 0 0 -417.099 0 0 371.25 0 0 -371.25
0 0 -1390.92 0 0 1390.92 0 0 -3197.09 0 0 3197.09 0 0 1427.72 0 0 -1427.72 0 0 -253.584 0 0 253.584 0 0 465.465 0 0 -465.465 0 0 421.401 0 0 -421.401
0 0 -1694.12 0 0 1694.12 0 0 -3508.85 0 0 3508.85 0 0 1208.04 0 0 -1208.04 0 0 -480.522 0 0 480.522 0 0 510.511 0 0 -510.511 0 0 468.073 0 0 -468.073
0 0 -1985.1 0 0 1985.1 0 0 -3807.47 0 0 3807.47 0 0 974.321 0 0 -974.321 0 0 -722.128 0 0 722.128 0 0 550.546 0 0 -550.546 0 0 509.757 0 0 -509.757
0 0 -2260.93 0 0 2260.93 0 0 -4089.82 0 0 4089.82 0 0 731.635 0 0 -731.635 0 0 -973.178 0 0 973.178 0 0 583.953 0 0 -583.953 0 0 544.794 0 0 -544.794
0 0 -2515.51 0 0 2515.51 0 0 -4350.03 0 0 4350.03 0 0 484.852 0 0 -484.852 0 0 -1228.37 0 0 1228.37 0 0 609.169 0 0 -609.169 0 0 571.612 0 0 -571.612
0 0 -2741.37 0 0 2741.37 0 0 -4580.66 0 0 4580.66 0 0 238.659 0 0 -238.659 0 0 -1482.67 0 0 1482.67 0 0 624.75 0 0 -624.75 0 0 588.694 0 0 -588.694
0 0 -2933.08 0 0 2933.08 0 0 -4776.04 0 0 4776.04 0 0 -3.27277 0 0 3.27277 0 0 -1731.1 0 0 1731.1 0 0 629.404 0 0 -629.404 0 0 594.67 0 0 -594.67
0 0 -3090.8 0 0 3090.8 0 0 -4936.1 0 0 4936.1 0 0 -236.801 0 0 236.801 0 0 -1968.98 0 0 1968.98 0 0 621.785 0 0 -621.785 0 0 588.25 0 0 -588.25
0 0 -3220.33 0 0 3220.33 0 0 -5067.46 0 0 5067.46 0 0 -454.198 0 0 454.198 0 0 -2190.43 0 0 2190.43 0 0 601.413 0 0 -601.413 0 0 568.664 0 0 -568.664
0 0 -3335.08 0 0 3335.08 0 0 -5183.76 0 0 5183.76 0 0 -650.703 0 0 650.703 0 0 -2389.97 0 0 2389.97 0 0 567.453 0 0 -567.453 0 0 535.192 0 0 -535.192
0 0 -3454.16 0 0 3454.16 0 0 -5304.98 0 0 5304.98 0 0 -821.628 0 0 821.628 0 0 -2562.47 0 0 2562.47 0 0 519.565 0 0 -519.565 0 0 487.499 0 0 -487.499
0 0 -3646.76 0 0 3646.76 0 0 -5502.81 0 0 5502.81 0 0 -992.894 0 0 992.894 0 0 -2733.85 0 0 2733.85 0 0 440.27 0 0 -440.27 0 0 407.931 0 0 -407.931
0 0 -3939 0 0 3939 0 0 -5805.11 0 0 5805.11 0 0 -1112.16 0 0 1112.16 0 0 -2851.62 0 0 2851.62 0 0 340.393 0 0 -340.393 0 0 307.139 0 0 -307.139
0 0 -4382.21 0 0 4382.21 0 0 -6265.17 0 0 6265.17 0 0 -1179.49 0 0 1179.49 0 0 -2915.64 0 0 2915.64 0 0 221.966 0 0 -221.966 0 0 187.175 0 0 -187.175
0 0 -5013.71 0 0 5013.71 0 0 -6921.92 0 0 6921.92 0 0 -1201.51 0 0 1201.51 0 0 -2932.56 0 0 2932.56 0 0 88.1321 0 0 -88.1321 0 0 51.3138 0 0 -51.3138
0 0 -5850.36 0 0 5850.36 0 0 -7792.8 0 0 7792.8 0 0 -1192.05 0 0 1192.05 0 0 -2916.58 0 0 2916.58 0 0 -58.2273 0 0 58.2273 0 0 -99.2346 0 0 99.2346
0 0 -6884.75 0 0 6884.75 0 0 -8869.97 0 0 8869.97 0 0 -1171.32 0 0 1171.32 0 0 -2889.43 0 0 2889.43 0 0 -211.893 0 0 211.893 0 0 -253.816 0 0 253.816
0 0 -8083.4 0 0 8083.4 0 0 -10118.4 0 0 10118.4 0 0 -1165.2 0 0 1165.2 0 0 -2877.1 0 0 2877.1 0 0 -365.51 0 0 365.51 0 0 -411.491 0 0 411.491
0 0 -9389.88 0 0 9389.88 0 0 -11479.1 0 0 11479.1 0 0 -1203.44 0 0 1203.44 0 0 -2909.75 0 0 2909.75 0 0 -514.095 0 0 514.095 0 0 -562.299 0 0 562.299
0 0 -10738.7 0 0 10738.7 0 0 -12883.5 0 0 12883.5 0 0 -1315.33 0 0 1315.33 0 0 -3018.42 0 0 3018.42 0 0 -652.074 0 0 652.074 0 0 -702.258 0 0 702.258
0 0 -12074.1 0 0 12074.1 0 0 -14273.2 0 0 14273.2 0 0 -1525.72 0 0 1525.72 0 0 -3227.73 0 0 3227.73 0 0 -774.964 0 0 774.964 0 0 -826.315 0 0 826.315
0 0 -13361.3 0 0 13361.3 0 0 -15611.1 0 0 15611.1 0 0 -1852.15 0 0 1852.15 0 0 -3556.49 0 0 3556.49 0 0 -879.536 0 0 879.536 0 0 -931.124 0 0 931.124
0 0 -14585.7 0 0 14585.7 0 0 -16881.8 0 0 16881.8 0 0 -2303.52 0 0 2303.52 0 0 -4013.13 0 0 4013.13 0 0 -964.395 0 0 964.395 0 0 -1015.42 0 0 1015.42
0 0 -15746.9 0 0 15746.9 0 0 -18084.4 0 0 18084.4 0 0 -2880.07 0 0 2880.07 0 0 -4598.51 0 0 4598.51 0 0 -1029.72 0 0 1029.72 0 0 -1078.87 0 0 1078.87
0 0 -16852.5 0 0 16852.5 0 0 -19226.8 0 0 19226.8 0 0 -3574.19 0 0 3574.19 0 0 -5304.59 0 0 5304.59 0 0 -1077.2 0 0 1077.2 0 0 -1123.67 0 0 1123.67
0 0 -17911.6 0 0 17911.6 0 0 -20318.5 0 0 20318.5 0 0 -4371.68 0 0 4371.68 0 0 -6116.89 0 0 6116.89 0 0 -1109.97 0 0 1109.97 0 0 -1152.88 0 0 1152.88
0 0 -18926.4 0 0 18926.4 0 0 -21362.3 0 0 21362.3 0 0 -5253.34 0 0 5253.34 0 0 -7015.62 0 0 7015.62 0 0 -1132.41 0 0 1132.41 0 0 -1171.25 0 0 1171.25
0 0 -19893 0 0 19893 0 0 -22354.6 0 0 22354.6 0 0 -6196.1 0 0 6196.1 0 0 -7977.07 0 0 7977.07 0 0 -1149.86 0 0 1149.86 0 0 -1184.13 0 0 1184.13
0 0 -20809.4 0 0 20809.4 0 0 -23294 0 0 23294 0 0 -7173.43 0 0 7173.43 0 0 -8973.89 0 0 8973.89 0 0 -1168.26 0 0 1168.26 0 0 -1197.76 0 0 1197.76
0 0 -21683.8 0 0 21683.8 0 0 -24189.3 0 0 24189.3 0 0 -8156.03 0 0 8156.03 0 0 -9975.82 0 0 9975.82 0 0 -1193.77 0 0 1193.77 0 0 -1218.58 0 0 1218.58
0 0 -22533.2 0 0 22533.2 0 0 -25058.8 0 0 25058.8 0 0 -9113.46 0 0 9113.46 0 0 -10951.7 0 0 10951.7 0 0 -1232.46 0 0 1232.46 0 0 -1252.95 0 0 1252.95
0 0 -23376.2 0 0 23376.2 0 0 -25922.5 0 0 25922.5 0 0 -10016.9 0 0 10016.9 0 0 -11871.9 0 0 11871.9 0 0 -1289.81 0 0 1289.81 0 0 -1306.58 0 0 1306.58
0 0 -24221.4 0 0 24221.4 0 0 -26789.8 0 0 26789.8 0 0 -10841.8 0 0 10841.8 0 0 -12711.4 0 0 12711.4 0 0 -1370.3 0 0 1370.3 0 0 -1384.12 0 0 1384.12
0 0 -25060.9 0 0 25060.9 0 0 -27653.2 0 0 27653.2 0 0 -11570.4 0 0 11570.4 0 0 -13451.7 0 0 13451.7 0 0 -1477.01 0 0 1477.01 0 0 -1488.81 0 0 1488.81
0 0 -25878.4 0 0 25878.4 0 0 -28496.1 0 0 28496.1 0 0 -12190.8 0 0 12190.8 0 0 -14080.7 0 0 14080.7 0 0 -1611.49 0 0 1611.49 0 0 -1622.31 0 0 1622.31
0 0 -26657.7 0 0 26657.7 0 0 -29301.8 0 0 29301.8 0 0 -12697.2 0 0 12697.2 0 0 -14592.3 0 0 14592.3 0 0 -1773.75 0 0 1773.75 0 0 -1784.65 0 0 1784.65
0 0 -27386.7 0 0 27386.7 0 0 -30057.8 0 0 30057.8 0 0 -13088.9 0 0 13088.9 0 0 -14986.1 0 0 14986.1 0 0 -1962.19 0 0 1962.19 0 0 -1974.18 0 0 1974.18
0 0 -28057.5 0 0 28057.5 0 0 -30755.5 0 0 30755.5 0 0 -13370.6 0 0 13370.6 0 0 -15266.8 0 0 15266.8 0 0 -2173.69 0 0 2173.69 0 0 -2187.72 0 0 2187.72
0 0 -28666.9 0 0 28666.9 0 0 -31391.4 0 0 31391.4 0 0 -13551.3 0 0 13551.3 0 0 -15443.8 0 0 15443.8 0 0 -2403.75 0 0 2403.75 0 0 -2420.64 0 0 2420.64
0 0 -29216.7 0 0 29216.7 0 0 -31967.1 0 0 31967.1 0 0 -13644.3 0 0 13644.3 0 0 -15530.8 0 0 15530.8 0 0 -2646.7 0 0 2646.7 0 0 -2667.12 0 0 2667.12
0 0 -29712.4 0 0 29712.4 0 0 -32487.9 0 0 32487.9 0 0 -13665.6 0 0 13665.6 0 0 -15544.4 0 0 15544.4 0 0 -2895.96 0 0 2895.96 0 0 -2920.38 0 0 2920.38
0 0 -30160.9 0 0 30160.9 0 0 -32960.6 0 0 32960.6 0 0 -13633.7 0 0 13633.7 0 0 -15503.8 0 0 15503.8 0 0 -3144.33 0 0 3144.33 0 0 -3173.01 0 0 3173.01
0 0 -30569.9 0 0 30569.9 0 0 -33392.8 0 0 33392.8 0 0 -13568.7 0 0 13568.7 0 0 -15429.6 0 0 15429.6 0 0 -3384.34 0 0 3384.34 0 0 -3417.31 0 0 3417.31
0 0 -30950.2 0 0 30950.2 0 0 -33795.2 0 0 33795.2 0 0 -13490.4 0 0 13490.4 0 0 -15342.3 0 0 15342.3 0 0 -3608.59 0 0 3608.59 0 0 -3645.66 0 0 3645.66
0 0 -31318.1 0 0 31318.1 0 0 -34184.3 0 0 34184.3 0 0 -13417.4 0 0 13417.4 0 0 -15261.1 0 0 15261.1 0 0 -3810.11 0 0 3810.11 0 0 -3850.89 0 0 3850.89
0 0 -31694.7 0 0 31694.7 0 0 -34581.9 0 0 34581.9 0 0 -13366 0 0 13366 0 0 -15202.8 0 0 15202.8 0 0 -3982.67 0 0 3982.67 0 0 -4026.59 0 0 4026.59
0 0 -32100.8 0 0 32100.8 0 0 -35009.1 0 0 35009.1 0 0 -13350.2 0 0 13350.2 0 0 -15181.9 0 0 15181.9 0 0 -4121.03 0 0 4121.03 0 0 -4167.36 0 0 4167.36
0 0 -32545.9 0 0 32545.9 0 0 -35475.5 0 0 35475.5 0 0 -13381.8 0 0 13381.8 0 0 -15210.7 0 0 15210.7 0 0 -4221.09 0 0 4221.09 0 0 -4268.97 0 0 4268.97
0 0 -33018.9 0 0 33018.9 0 0 -35969.4 0 0 35969.4 0 0 -13471.2 0 0 13471.2 0 0 -15300 0 0 15300 0 0 -4280.06 0 0 4280.06 0 0 -4328.54 0 0 4328.54
0 0 -33488.5 0 0 33488.5 0 0 -36458.3 0 0 36458.3 0 0 -13626.2 0 0 13626.2 0 0 -15457.8 0 0 15457.8 0 0 -4296.65 0 0 4296.65 0 0 -4344.69 0 0 4344.69
0 0 -33912.7 0 0 33912.7 0 0 -36898.1 0 0 36898.1 0 0 -13850.7 0 0 13850.7 0 0 -15687.9 0 0 15687.9 0 0 -4271.2 0 0 4271.2 0 0 -4317.73 0 0 4317.73
0 0 -34190.1 0 0 34190.1 0 0 -37184.3 0 0 37184.3 0 0 -14079.2 0 0 14079.2 0 0 -15922.9 0 0 15922.9 0 0 -4221.91 0 0 4221.91 0 0 -4266.49 0 0 4266.49
0 0 -34427.5 0 0 34427.5 0 0 -37426.5 0 0 37426.5 0 0 -14419.1 0 0 14419.1 0 0 -16273.2 0 0 16273.2 0 0 -4127.18 0 0 4127.18 0 0 -4168.47 0 0 4168.47
0 0 -34517 0 0 34517 0 0 -37512.9 0 0 37512.9 0 0 -14805.5 0 0 14805.5 0 0 -16672.2 0 0 16672.2 0 0 -4000.5 0 0 4000.5 0 0 -4037.69 0 0 4037.69
0 0 -34440.9 0 0 34440.9 0 0 -37425.4 0 0 37425.4 0 0 -15217.3 0 0 15217.3 0 0 -17098.1 0 0 17098.1 0 0 -3848.36 0 0 3848.36 0 0 -3880.85 0 0 3880.85
0 0 -34187 0 0 34187 0 0 -37151.5 0 0 37151.5 0 0 -15628.7 0 0 15628.7 0 0 -17524.3 0 0 17524.3 0 0 -3678.3 0 0 3678.3 0 0 -3705.76 0 0 3705.76
0 0 -33743.1 0 0 33743.1 0 0 -36679.2 0 0 36679.2 0 0 -16010.7 0 0 16010.7 0 0 -17920.9 0 0 17920.9 0 0 -3498.47 0 0 3498.47 0 0 -3520.85 0 0 3520.85
0 0 -33098 0 0 33098 0 0 -35997.4 0 0 35997.4 0 0 -16332.6 0 0 16332.6 0 0 -18256.5 0 0 18256.5 0 0 -3317.21 0 0 3317.21 0 0 -3334.74 0 0 3334.74
0 0 -32241.5 0 0 32241.5 0 0 -35096.3 0 0 35096.3 0 0 -16564.1 0 0 16564.1 0 0 -18499.7 0 0 18499.7 0 0 -3142.57 0 0 3142.57 0 0 -3155.79 0 0 3155.79
0 0 -31163.2 0 0 31163.2 0 0 -33965.7 0 0 33965.7 0 0 -16676 0 0 16676 0 0 -18620.6 0 0 18620.6 0 0 -2981.9 0 0 2981.9 0 0 -2991.6 0 0 2991.6
0 0 -29854.6 0 0 29854.6 0 0 -32597.5 0 0 32597.5 0 0 -16642.6 0 0 16642.6 0 0 -18592.6 0 0 18592.6 0 0 -2841.4 0 0 2841.4 0 0 -2848.63 0 0 2848.63
0 0 -28310.4 0 0 28310.4 0 0 -30986.6 0 0 30986.6 0 0 -16442.1 0 0 16442.1 0 0 -18393.2 0 0 18393.2 0 0 -2725.83 0 0 2725.83 0 0 -2731.81 0 0 2731.81
0 0 -26527.6 0 0 26527.6 0 0 -29130.6 0 0 29130.6 0 0 -16057.8 0 0 16057.8 0 0 -18005.5 0 0 18005.5 0 0 -2638.18 0 0 2638.18 0 0 -2644.28 0 0 2644.28
0 0 -24508.6 0 0 24508.6 0 0 -27032.3 0 0 27032.3 0 0 -15479 0 0 15479 0 0 -17418.4 0 0 17418.4 0 0 -2579.5 0 0 2579.5 0 0 -2587.17 0 0 2587.17
0 0 -22268.8 0 0 22268.8 0 0 -24708.2 0 0 24708.2 0 0 -14700.4 0 0 14700.4 0 0 -16626.4 0 0 16626.4 0 0 -2548.87 0 0 2548.87 0 0 -2559.56 0 0 2559.56
0 0 -19843.9 0 0 19843.9 0 0 -22195.5 0 0 22195.5 0 0 -13721.9 0 0 13721.9 0 0 -15629.3 0 0 15629.3 0 0 -2543.33 0 0 2543.33 0 0 -2558.48 0 0 2558.48
0 0 -17286 0 0 17286 0 0 -19548.3 0 0 19548.3 0 0 -12549 0 0 12549 0 0 -14433.3 0 0 14433.3 0 0 -2557.98 0 0 2557.98 0 0 -2578.92 0 0 2578.92
0 0 -14647.8 0 0 14647.8 0 0 -16821.3 0 0 16821.3 0 0 -11195 0 0 11195 0 0 -13051.9 0 0 13051.9 0 0 -2586.01 0 0 2586.01 0 0 -2613.92 0 0 2613.92
0 0 -11976 0 0 11976 0 0 -14063 0 0 14063 0 0 -9680.78 0 0 9680.78 0 0 -11507 0 0 11507 0 0 -2618.94 0 0 2618.94 0 0 -2654.76 0 0 2654.76
0 0 -9313.45 0 0 9313.45 0 0 -11317.6 0 0 11317.6 0 0 -8034.33 0 0 8034.33 0 0 -9827.24 0 0 9827.24 0 0 -2646.99 0 0 2646.99 0 0 -2691.36 0 0 2691.36
0 0 -6701.24 0 0 6701.24 0 0 -8627.09 0 0 8627.09 0 0 -6288.89 0 0 6288.89 0 0 -8046.89 0 0 8046.89 0 0 -2659.52 0 0 2659.52 0 0 -2712.76 0 0 2712.76
0 0 -4176.84 0 0 4176.84 0 0 -6029.76 0 0 6029.76 0 0 -4481.82 0 0 4481.82 0 0 -6204.51 0 0 6204.51 0 0 -2645.54 0 0 2645.54 0 0 -2707.59 0 0 2707.59
0 0 -1770.65 0 0 1770.65 0 0 -3556.35 0 0 3556.35 0 0 -2653.22 0 0 2653.22 0 0 -4341.43 0 0 4341.43 0 0 -2594.28 0 0 2594.28 0 0 -2664.7 0 0 2664.7
0 0 484.919 0 0 -484.919 0 0 -1226.58 0 0 1226.58 0 0 -845.59 0 0 845.59 0 0 -2500.88 0 0 2500.88 0 0 -2495.63 0 0 2495.63 0 0 -2573.63 0 0 2573.63
0 0 2586.47 0 0 -2586.47 0 0 944.435 0 0 -944.435 0 0 883.117 0 0 -883.117 0 0 -732.392 0 0 732.392 0 0 -2341.8 0 0 2341.8 0 0 -2425.41 0 0 2425.41
0 0 4566.69 0 0 -4566.69 0 0 2962.24 0 0 -2962.24 0 0 2503.16 0 0 -2503.16 0 0 926.16 0 0 -926.16 0 0 -2124.81 0 0 2124.81 0 0 -2214.57 0 0 2214.57
0 0 6440.2 0 0 -6440.2 0 0 4892.89 0 0 -4892.89 0 0 3994.46 0 0 -3994.46 0 0 2420.46 0 0 -2420.46 0 0 -1840.92 0 0 1840.92 0 0 -1932.29 0 0 1932.29
0 0 8214.71 0 0 -8214.71 0 0 6709.71 0 0 -6709.71 0 0 5331.42 0 0 -5331.42 0 0 3776.89 0 0 -3776.89 0 0 -1488.39 0 0 1488.39 0 0 -1582.26 0 0 1582.26
0 0 9870.98 0 0 -9870.98 0 0 8412.62 0 0 -8412.62 0 0 6505.95 0 0 -6505.95 0 0 4960.32 0 0 -4960.32 0 0 -1068.34 0 0 1068.34 0 0 -1160.83 0 0 1160.83
0 0 11385.9 0 0 -11385.9 0 0 9970.93 0 0 -9970.93 0 0 7515.98 0 0 -7515.98 0 0 5971.17 0 0 -5971.17 0 0 -584.946 0 0 584.946 0 0 -675.12 0 0 675.12
0 0 12747.5 0 0 -12747.5 0 0 11372.7 0 0 -11372.7 0 0 8365.47 0 0 -8365.47 0 0 6819.32 0 0 -6819.32 0 0 -46.033 0 0 46.033 0 0 -132.272 0 0 132.272
0 0 13965.8 0 0 -13965.8 0 0 12629 0 0 -12629 0 0 9062.24 0 0 -9062.24 0 0 7511.27 0 0 -7511.27 0 0 528.835 0 0 -528.835 0 0 446.918 0 0 -446.918
0 0 15072.1 0 0 -15072.1 0 0 13771.6 0 0 -13771.6 0 0 9625.61 0 0 -9625.61 0 0 8064.14 0 0 -8064.14 0 0 1138.74 0 0 -1138.74 0 0 1064.54 0 0 -1064.54
0 0 16110 0 0 -16110 0 0 14845.3 0 0 -14845.3 0 0 10074.4 0 0 -10074.4 0 0 8497.82 0 0 -8497.82 0 0 1769.2 0 0 -1769.2 0 0 1702.95 0 0 -1702.95
0 0 17122.8 0 0 -17122.8 0 0 15893.3 0 0 -15893.3 0 0 10432.5 0 0 -10432.5 0 0 8842.84 0 0 -8842.84 0 0 2404.85 0 0 -2404.85 0 0 2343.95 0 0 -2343.95
0 0 18154.6 0 0 -18154.6 0 0 16962.9 0 0 -16962.9 0 0 10729.2 0 0 -10729.2 0 0 9122.98 0 0 -9122.98 0 0 3030.6 0 0 -3030.6 0 0 2979.9 0 0 -2979.9
0 0 19253.5 0 0 -19253.5 0 0 18101.6 0 0 -18101.6 0 0 10994.7 0 0 -10994.7 0 0 9372.2 0 0 -9372.2 0 0 3631.76 0 0 -3631.76 0 0 3587.45 0 0 -3587.45
0 0 20468.7 0 0 -20468.7 0 0 19360.3 0 0 -19360.3 0 0 11259.2 0 0 -11259.2 0 0 9621.53 0 0 -9621.53 0 0 4192.68 0 0 -4192.68 0 0 4155.34 0 0 -4155.34
0 0 21845.7 0 0 -21845.7 0 0 20785.5 0 0 -20785.5 0 0 11552.5 0 0 -11552.5 0 0 9901.32 0 0 -9901.32 0 0 4699.11 0 0 -4699.11 0 0 4668.14 0 0 -4668.14
0 0 23419.2 0 0 -23419.2 0 0 22412.2 0 0 -22412.2 0 0 11903.6 0 0 -11903.6 0 0 10242.4 0 0 -10242.4 0 0 5138.59 0 0 -5138.59 0 0 5112.53 0 0 -5112.53
0 0 25203.3 0 0 -25203.3 0 0 24254.6 0 0 -24254.6 0 0 12339.9 0 0 -12339.9 0 0 10671.9 0 0 -10671.9 0 0 5500.91 0 0 -5500.91 0 0 5478.51 0 0 -5478.51
0 0 27183.7 0 0 -27183.7 0 0 26297.1 0 0 -26297.1 0 0 12885.8 0 0 -12885.8 0 0 11215.9 0 0 -11215.9 0 0 5778.02 0 0 -5778.02 0 0 5757.03 0 0 -5757.03
0 0 29318.6 0 0 -29318.6 0 0 28496.6 0 0 -28496.6 0 0 13561.9 0 0 -13561.9 0 0 11895.6 0 0 -11895.6 0 0 5964.57 0 0 -5964.57 0 0 5943.21 0 0 -5943.21
0 0 31551.6 0 0 -31551.6 0 0 30794.2 0 0 -30794.2 0 0 14381.9 0 0 -14381.9 0 0 12724.5 0 0 -12724.5 0 0 6058.67 0 0 -6058.67 0 0 6035.01 0 0 -6035.01
0 0 33824.7 0 0 -33824.7 0 0 33129.9 0 0 -33129.9 0 0 15349.5 0 0 -15349.5 0 0 13706.6 0 0 -13706.6 0 0 6062.13 0 0 -6062.13 0 0 6033.94 0 0 -6033.94
0 0 36086.4 0 0 -36086.4 0 0 35450.5 0 0 -35450.5 0 0 16457 0 0 -16457 0 0 14834 0 0 -14834 0 0 5980.21 0 0 -5980.21 0 0 5945.44 0 0 -5945.44
0 0 38296.4 0 0 -38296.4 0 0 37714.6 0 0 -37714.6 0 0 17685.4 0 0 -17685.4 0 0 16087 0 0 -16087 0 0 5821.53 0 0 -5821.53 0 0 5778.36 0 0 -5778.36
0 0 40425.8 0 0 -40425.8 0 0 39893 0 0 -39893 0 0 19004.5 0 0 -19004.5 0 0 17434.6 0 0 -17434.6 0 0 5597.81 0 0 -5597.81 0 0 5544.85 0 0 -5544.85
0 0 42456 0 0 -42456 0 0 41967 0 0 -41967 0 0 20375.4 0 0 -20375.4 0 0 18836.5 0 0 -18836.5 0 0 5323.33 0 0 -5323.33 0 0 5259.54 0 0 -5259.54
0 0 44377.2 0 0 -44377.2 0 0 43927.5 0 0 -43927.5 0 0 21752.1 0 0 -21752.1 0 0 20245.4 0 0 -20245.4 0 0 5014.18 0 0 -5014.18 0 0 4938.97 0 0 -4938.97
0 0 46184.8 0 0 -46184.8 0 0 45770.6 0 0 -45770.6 0 0 23085.2 0 0 -23085.2 0 0 21610.6 0 0 -21610.6 0 0 4687.41 0 0 -4687.41 0 0 4600.71 0 0 -4600.71
0 0 47872.4 0 0 -47872.4 0 0 47490.7 0 0 -47490.7 0 0 24325.3 0 0 -24325.3 0 0 22881.1 0 0 -22881.1 0 0 4360.16 0 0 -4360.16 0 0 4262.47 0 0 -4262.47
0 0 49428.7 0 0 -49428.7 0 0 49077.1 0 0 -49077.1 0 0 25426.1 0 0 -25426.1 0 0 24009.3 0 0 -24009.3 0 0 4048.87 0 0 -4048.87 0 0 3941.18 0 0 -3941.18
0 0 50840.2 0 0 -50840.2 0 0 50516.9 0 0 -50516.9 0 0 26347 0 0 -26347 0 0 24953.4 0 0 -24953.4 0 0 3768.47 0 0 -3768.47 0 0 3652.18 0 0 -3652.18
0 0 52093.9 0 0 -52093.9 0 0 51797.2 0 0 -51797.2 0 0 27054.9 0 0 -27054.9 0 0 25679.4 0 0 -25679.4 0 0 3531.73 0 0 -3531.73 0 0 3408.56 0 0 -3408.56
0 0 52943.9 0 0 -52943.9 0 0 52868.3 0 0 -52868.3 0 0 27522.3 0 0 -27522.3 0 0 26158.7 0 0 -26158.7 0 0 3349.07 0 0 -3349.07 0 0 3221.03 0 0 -3221.03
0 0 52945.2 0 0 -52945.2 0 0 53606.4 0 0 -53606.4 0 0 27616.6 0 0 -27616.6 0 0 26333.5 0 0 -26333.5 0 0 3236.75 0 0 -3236.75 0 0 3100.45 0 0 -3100.45
0 0 52845.6 0 0 -52845.6 0 0 54210.7 0 0 -54210.7 0 0 27476.4 0 0 -27476.4 0 0 26261.7 0 0 -26261.7 0 0 3184.25 0 0 -3184.25 0 0 3043.31 0 0 -3043.31
0 0 53002.7 0 0 -53002.7 0 0 54631.4 0 0 -54631.4 0 0 27185.6 0 0 -27185.6 0 0 25978.2 0 0 -25978.2 0 0 3187.51 0 0 -3187.51 0 0 3048.1 0 0 -3048.1
0 0 53100.9 0 0 -53100.9 0 0 54903.4 0 0 -54903.4 0 0 26687.7 0 0 -26687.7 0 0 25478.6 0 0 -25478.6 0 0 3248.96 0 0 -3248.96 0 0 3112.11 0 0 -3112.11
0 0 53000.7 0 0 -53000.7 0 0 54577.9 0 0 -54577.9 0 0 26000.6 0 0 -26000.6 0 0 24842.1 0 0 -24842.1 0 0 3362.75 0 0 -3362.75 0 0 3225.79 0 0 -3225.79
0 0 51836.9 0 0 -51836.9 0 0 53555.5 0 0 -53555.5 0 0 25292.8 0 0 -25292.8 0 0 24104.2 0 0 -24104.2 0 0 3511.84 0 0 -3511.84 0 0 3381.4 0 0 -3381.4
0 0 50584.3 0 0 -50584.3 0 0 52248 0 0 -52248 0 0 24459 0 0 -24459 0 0 23249.1 0 0 -23249.1 0 0 3697.3 0 0 -3697.3 0 0 3573.48 0 0 -3573.48
0 0 49146.4 0 0 -49146.4 0 0 50843.3 0 0 -50843.3 0 0 23498.3 0 0 -23498.3 0 0 22285.2 0 0 -22285.2 0 0 3907.53 0 0 -3907.53 0 0 3790.4 0 0 -3790.4
0 0 47624.6 0 0 -47624.6 0 0 49311.7 0 0 -49311.7 0 0 22470.5 0 0 -22470.5 0 0 21248.4 0 0 -21248.4 0 0 4131.09 0 0 -4131.09 0 0 4021.78 0 0 -4021.78
0 0 46069.4 0 0 -46069.4 0 0 47755 0 0 -47755 0 0 21412.8 0 0 -21412.8 0 0 20176.3 0 0 -20176.3 0 0 4355.42 0 0 -4355.42 0 0 4252.66 0 0 -4252.66
0 0 44521.5 0 0 -44521.5 0 0 46214.1 0 0 -46214.1 0 0 20347.7 0 0 -20347.7 0 0 19098.2 0 0 -19098.2 0 0 4567.76 0 0 -4567.76 0 0 4473.05 0 0 -4473.05
0 0 43052.8 0 0 -43052.8 0 0 44754 0 0 -44754 0 0 19311.7 0 0 -19311.7 0 0 18053.9 0 0 -18053.9 0 0 4755.86 0 0 -4755.86 0 0 4668.37 0 0 -4668.37
0 0 41716.7 0 0 -41716.7 0 0 43421.9 0 0 -43421.9 0 0 18339.7 0 0 -18339.7 0 0 17073.2 0 0 -17073.2 0 0 4909.02 0 0 -4909.02 0 0 4827.4 0 0 -4827.4
0 0 40556 0 0 -40556 0 0 42273.7 0 0 -42273.7 0 0 17460 0 0 -17460 0 0 16185.5 0 0 -16185.5 0 0 5017.3 0 0 -5017.3 0 0 4940.57 0 0 -4940.57
0 0 39619.8 0 0 -39619.8 0 0 41350.6 0 0 -41350.6 0 0 16698.4 0 0 -16698.4 0 0 15417.6 0 0 -15417.6 0 0 5071.84 0 0 -5071.84 0 0 4999.08 0 0 -4999.08
0 0 38943.8 0 0 -38943.8 0 0 40690.3 0 0 -40690.3 0 0 16075 0 0 -16075 0 0 14791.7 0 0 -14791.7 0 0 5066.78 0 0 -5066.78 0 0 4997 0 0 -4997
0 0 38551 0 0 -38551 0 0 40318.9 0 0 -40318.9 0 0 15606.1 0 0 -15606.1 0 0 14323.2 0 0 -14323.2 0 0 4999.09 0 0 -4999.09 0 0 4930.24 0 0 -4930.24
0 0 38456.7 0 0 -38456.7 0 0 40250.1 0 0 -40250.1 0 0 15303.1 0 0 -15303.1 0 0 14022.6 0 0 -14022.6 0 0 4867.6 0 0 -4867.6 0 0 4797.89 0 0 -4797.89
0 0 38663.1 0 0 -38663.1 0 0 40485.2 0 0 -40485.2 0 0 15170 0 0 -15170 0 0 13894.7 0 0 -13894.7 0 0 4673.55 0 0 -4673.55 0 0 4601.72 0 0 -4601.72
0 0 39159.2 0 0 -39159.2 0 0 41013.3 0 0 -41013.3 0 0 15205.1 0 0 -15205.1 0 0 13938.5 0 0 -13938.5 0 0 4421.26 0 0 -4421.26 0 0 4345.97 0 0 -4345.97
0 0 39897.2 0 0 -39897.2 0 0 41767.9 0 0 -41767.9 0 0 15403.5 0 0 -15403.5 0 0 14150.3 0 0 -14150.3 0 0 4117.78 0 0 -4117.78 0 0 4037.3 0 0 -4037.3
0 0 40635 0 0 -40635 0 0 42529.5 0 0 -42529.5 0 0 15775.6 0 0 -15775.6 0 0 14540.4 0 0 -14540.4 0 0 3770.94 0 0 -3770.94 0 0 3683.46 0 0 -3683.46
0 0 41322.5 0 0 -41322.5 0 0 43227.4 0 0 -43227.4 0 0 16299.5 0 0 -16299.5 0 0 15085 0 0 -15085 0 0 3392.57 0 0 -3392.57 0 0 3297.07 0 0 -3297.07
0 0 41923.8 0 0 -41923.8 0 0 43835.2 0 0 -43835.2 0 0 16944.1 0 0 -16944.1 0 0 15753 0 0 -15753 0 0 2996.23 0 0 -2996.23 0 0 2891.65 0 0 -2891.65
0 0 42416.9 0 0 -42416.9 0 0 44329.6 0 0 -44329.6 0 0 17668.8 0 0 -17668.8 0 0 16503.6 0 0 -16503.6 0 0 2597.1 0 0 -2597.1 0 0 2483.07 0 0 -2483.07
0 0 42725.4 0 0 -42725.4 0 0 44635.6 0 0 -44635.6 0 0 18276.8 0 0 -18276.8 0 0 17132.9 0 0 -17132.9 0 0 2286.58 0 0 -2286.58 0 0 2164.82 0 0 -2164.82
0 0 42952.5 0 0 -42952.5 0 0 44857.2 0 0 -44857.2 0 0 18884.1 0 0 -18884.1 0 0 17760.7 0 0 -17760.7 0 0 1992.75 0 0 -1992.75 0 0 1863.36 0 0 -1863.36
0 0 43093.9 0 0 -43093.9 0 0 44990.7 0 0 -44990.7 0 0 19466.4 0 0 -19466.4 0 0 18362 0 0 -18362 0 0 1723.39 0 0 -1723.39 0 0 1586.89 0 0 -1586.89
0 0 43145 0 0 -43145 0 0 45032 0 0 -45032 0 0 20000.3 0 0 -20000.3 0 0 18913.5 0 0 -18913.5 0 0 1485.81 0 0 -1485.81 0 0 1342.99 0 0 -1342.99
0 0 43101.5 0 0 -43101.5 0 0 44976.8 0 0 -44976.8 0 0 20464.5 0 0 -20464.5 0 0 19393 0 0 -19393 0 0 1286.63 0 0 -1286.63 0 0 1138.41 0 0 -1138.41
0 0 42958.7 0 0 -42958.7 0 0 44820.7 0 0 -44820.7 0 0 20840.4 0 0 -20840.4 0 0 19781.4 0 0 -19781.4 0 0 1131.51 0 0 -1131.51 0 0 978.921 0 0 -978.921
0 0 42710.5 0 0 -42710.5 0 0 44558 0 0 -44558 0 0 21112.6 0 0 -21112.6 0 0 20062.6 0 0 -20062.6 0 0 1024.85 0 0 -1024.85 0 0 869.076 0 0 -869.076
0 0 42347.6 0 0 -42347.6 0 0 44179.1 0 0 -44179.1 0 0 21269.5 0 0 -21269.5 0 0 20225.1 0 0 -20225.1 0 0 969.711 0 0 -969.711 0 0 812.089 0 0 -812.089
0 0 41856.1 0 0 -41856.1 0 0 43670 0 0 -43670 0 0 21304.1 0 0 -21304.1 0 0 20261.6 0 0 -20261.6 0 0 967.708 0 0 -967.708 0 0 809.692 0 0 -809.692
0 0 41218 0 0 -41218 0 0 43012.2 0 0 -43012.2 0 0 21213.9 0 0 -21213.9 0 0 20169.7 0 0 -20169.7 0 0 1019.07 0 0 -1019.07 0 0 862.087 0 0 -862.087
0 0 40412.9 0 0 -40412.9 0 0 42184.8 0 0 -42184.8 0 0 21000.4 0 0 -21000.4 0 0 19951 0 0 -19951 0 0 1122.6 0 0 -1122.6 0 0 967.983 0 0 -967.983
0 0 39422.5 0 0 -39422.5 0 0 41168.6 0 0 -41168.6 0 0 20669.1 0 0 -20669.1 0 0 19610.9 0 0 -19610.9 0 0 1275.68 0 0 -1275.68 0 0 1124.69 0 0 -1124.69
0 0 38235.9 0 0 -38235.9 0 0 39952.6 0 0 -39952.6 0 0 20227.6 0 0 -20227.6 0 0 19157.2 0 0 -19157.2 0 0 1474.41 0 0 -1474.41 0 0 1328.24 0 0 -1328.24
0 0 36853.4 0 0 -36853.4 0 0 38536.5 0 0 -38536.5 0 0 19685.1 0 0 -19685.1 0 0 18599.8 0 0 -18599.8 0 0 1713.77 0 0 -1713.77 0 0 1573.52 0 0 -1573.52
0 0 35288 0 0 -35288 0 0 36933.4 0 0 -36933.4 0 0 19052.4 0 0 -19052.4 0 0 17949.5 0 0 -17949.5 0 0 1987.77 0 0 -1987.77 0 0 1854.39 0 0 -1854.39
0 0 33562.9 0 0 -33562.9 0 0 35166.9 0 0 -35166.9 0 0 18340.9 0 0 -18340.9 0 0 17218.4 0 0 -17218.4 0 0 2289.61 0 0 -2289.61 0 0 2163.88 0 0 -2163.88
0 0 31706.5 0 0 -31706.5 0 0 33265.9 0 0 -33265.9 0 0 17563.6 0 0 -17563.6 0 0 16419.5 0 0 -16419.5 0 0 2611.76 0 0 -2611.76 0 0 2494.27 0 0 -2494.27
0 0 29746.9 0 0 -29746.9 0 0 31258.8 0 0 -31258.8 0 0 16734.4 0 0 -16734.4 0 0 15567.7 0 0 -15567.7 0 0 2946.11 0 0 -2946.11 0 0 2837.29 0 0 -2837.29
0 0 27708.8 0 0 -27708.8 0 0 29171.1 0 0 -29171.1 0 0 15868.7 0 0 -15868.7 0 0 14678.8 0 0 -14678.8 0 0 3284.19 0 0 -3284.19 0 0 3184.27 0 0 -3184.27
0 0 25614.6 0 0 -25614.6 0 0 27025.4 0 0 -27025.4 0 0 14982.6 0 0 -14982.6 0 0 13769.1 0 0 -13769.1 0 0 3617.37 0 0 -3617.37 0 0 3526.4 0 0 -3526.4
0 0 23486.1 0 0 -23486.1 0 0 24843.9 0 0 -24843.9 0 0 14091.8 0 0 -14091.8 0 0 12855.2 0 0 -12855.2 0 0 3937.11 0 0 -3937.11 0 0 3854.89 0 0 -3854.89
0 0 21345.2 0 0 -21345.2 0 0 22648.9 0 0 -22648.9 0 0 13211.5 0 0 -13211.5 0 0 11952.4 0 0 -11952.4 0 0 4235.11 0 0 -4235.11 0 0 4161.28 0 0 -4161.28
0 0 19213.2 0 0 -19213.2 0 0 20462.1 0 0 -20462.1 0 0 12355.4 0 0 -12355.4 0 0 11075.4 0 0 -11075.4 0 0 4503.57 0 0 -4503.57 0 0 4437.57 0 0 -4437.57
0 0 17109.1 0 0 -17109.1 0 0 18302.7 0 0 -18302.7 0 0 11536.2 0 0 -11536.2 0 0 10236.8 0 0 -10236.8 0 0 4735.31 0 0 -4735.31 0 0 4676.42 0 0 -4676.42
0 0 15049 0 0 -15049 0 0 16187.3 0 0 -16187.3 0 0 10764.2 0 0 -10764.2 0 0 9447.87 0 0 -9447.87 0 0 4923.99 0 0 -4923.99 0 0 4871.35 0 0 -4871.35
0 0 13046.5 0 0 -13046.5 0 0 14129.6 0 0 -14129.6 0 0 10048.2 0 0 -10048.2 0 0 8717.2 0 0 -8717.2 0 0 5064.24 0 0 -5064.24 0 0 5016.86 0 0 -5016.86
0 0 11113.1 0 0 -11113.1 0 0 12141.4 0 0 -12141.4 0 0 9393.82 0 0 -9393.82 0 0 8050.93 0 0 -8050.93 0 0 5151.77 0 0 -5151.77 0 0 5108.58 0 0 -5108.58
0 0 9258.78 0 0 -9258.78 0 0 10233.1 0 0 -10233.1 0 0 8804.26 0 0 -8804.26 0 0 7452.32 0 0 -7452.32 0 0 5183.48 0 0 -5183.48 0 0 5143.35 0 0 -5143.35
0 0 7491.96 0 0 -7491.96 0 0 8413.14 0 0 -8413.14 0 0 8279.72 0 0 -8279.72 0 0 6921.65 0 0 -6921.65 0 0 5157.49 0 0 -5157.49 0 0 5119.25 0 0 -5119.25
0 0 5819.06 0 0 -5819.06 0 0 6688.38 0 0 -6688.38 0 0 7817.63 0 0 -7817.63 0 0 6456.31 0 0 -6456.31 0 0 5073.19 0 0 -5073.19 0 0 5035.7 0 0 -5035.7
0 0 4244.65 0 0 -4244.65 0 0 5063.63 0 0 -5063.63 0 0 7412.7 0 0 -7412.7 0 0 6050.87 0 0 -6050.87 0 0 4931.21 0 0 -4931.21 0 0 4893.35 0 0 -4893.35
0 0 2771.19 0 0 -2771.19 0 0 3541.63 0 0 -3541.63 0 0 7057.2 0 0 -7057.2 0 0 5697.38 0 0 -5697.38 0 0 4733.35 0 0 -4733.35 0 0 4694.1 0 0 -4694.1
0 0 1399.36 0 0 -1399.36 0 0 2123.33 0 0 -2123.33 0 0 6741.2 0 0 -6741.2 0 0 5385.61 0 0 -5385.61 0 0 4482.56 0 0 -4482.56 0 0 4440.96 0 0 -4440.96
0 0 128.531 0 0 -128.531 0 0 807.855 0 0 -807.855 0 0 6452.9 0 0 -6452.9 0 0 5103.33 0 0 -5103.33 0 0 4182.79 0 0 -4182.79 0 0 4138.03 0 0 -4138.03
0 0 -873.768 0 0 873.768 0 0 -30.1496 0 0 30.1496 0 0 6176.79 0 0 -6176.79 0 0 4800.24 0 0 -4800.24 0 0 3838.52 0 0 -3838.52 0 0 3792.14 0 0 -3792.14
0 0 -1336.66 0 0 1336.66 0 0 -634.705 0 0 634.705 0 0 5851.02 0 0 -5851.02 0 0 4479.3 0 0 -4479.3 0 0 3459.5 0 0 -3459.5 0 0 3408.94 0 0 -3408.94
0 0 -1787.18 0 0 1787.18 0 0 -1173.18 0 0 1173.18 0 0 5517.56 0 0 -5517.56 0 0 4150.26 0 0 -4150.26 0 0 3044.43 0 0 -3044.43 0 0 2991.01 0 0 -2991.01
0 0 -2196.3 0 0 2196.3 0 0 -1596.81 0 0 1596.81 0 0 5174.41 0 0 -5174.41 0 0 3823.61 0 0 -3823.61 0 0 2601.99 0 0 -2601.99 0 0 2544.42 0 0 -2544.42
0 0 -2553.67 0 0 2553.67 0 0 -1966.72 0 0 1966.72 0 0 4819.8 0 0 -4819.8 0 0 3466.65 0 0 -3466.65 0 0 2138.31 0 0 -2138.31 0 0 2075.45 0 0 -2075.45
0 0 -2891.32 0 0 2891.32 0 0 -2333.62 0 0 2333.62 0 0 4436.58 0 0 -4436.58 0 0 3080.73 0 0 -3080.73 0 0 1659.38 0 0 -1659.38 0 0 1591.8 0 0 -1591.8
0 0 -3240.22 0 0 3240.22 0 0 -2712.31 0 0 2712.31 0 0 4013.98 0 0 -4013.98 0 0 2661.17 0 0 -2661.17 0 0 1171.66 0 0 -1171.66 0 0 1100.01 0 0 -1100.01
0 0 -3619.82 0 0 3619.82 0 0 -3117.48 0 0 3117.48 0 0 3549.85 0 0 -3549.85 0 0 2201.3 0 0 -2201.3 0 0 681.714 0 0 -681.714 0 0 606.321 0 0 -606.321
0 0 -4052.79 0 0 4052.79 0 0 -3579.89 0 0 3579.89 0 0 3041.63 0 0 -3041.63 0 0 1693.06 0 0 -1693.06 0 0 196.033 0 0 -196.033 0 0 116.736 0 0 -116.736
0 0 -4565.3 0 0 4565.3 0 0 -4128.96 0 0 4128.96 0 0 2481 0 0 -2481 0 0 1129.23 0 0 -1129.23 0 0 -286.681 0 0 286.681 0 0 -367.589 0 0 367.589
0 0 -5177.51 0 0 5177.51 0 0 -4784.92 0 0 4784.92 0 0 1865.34 0 0 -1865.34 0 0 508.968 0 0 -508.968 0 0 -753.625 0 0 753.625 0 0 -842.005 0 0 842.005
0 0 -5901.06 0 0 5901.06 0 0 -5561.3 0 0 5561.3 0 0 1190.22 0 0 -1190.22 0 0 -181.939 0 0 181.939 0 0 -1199.06 0 0 1199.06 0 0 -1291.82 0 0 1291.82
0 0 -6745.91 0 0 6745.91 0 0 -6467.94 0 0 6467.94 0 0 452.621 0 0 -452.621 0 0 -929.731 0 0 929.731 0 0 -1619.2 0 0 1619.2 0 0 -1712.75 0 0 1712.75
0 0 -7717.53 0 0 7717.53 0 0 -7511.65 0 0 7511.65 0 0 -354.425 0 0 354.425 0 0 -1747.78 0 0 1747.78 0 0 -2009.75 0 0 2009.75 0 0 -2103.81 0 0 2103.81
0 0 -8817.05 0 0 8817.05 0 0 -8692.18 0 0 8692.18 0 0 -1227.3 0 0 1227.3 0 0 -2634.36 0 0 2634.36 0 0 -2367.58 0 0 2367.58 0 0 -2461.95 0 0 2461.95
0 0 -10041.3 0 0 10041.3 0 0 -10006.9 0 0 10006.9 0 0 -2160.26 0 0 2160.26 0 0 -3586.05 0 0 3586.05 0 0 -2689.42 0 0 2689.42 0 0 -2784.03 0 0 2784.03
0 0 -11386.9 0 0 11386.9 0 0 -11452.6 0 0 11452.6 0 0 -3152.52 0 0 3152.52 0 0 -4598.66 0 0 4598.66 0 0 -2973.85 0 0 2973.85 0 0 -3067.68 0 0 3067.68
0 0 -12849.6 0 0 12849.6 0 0 -13024.6 0 0 13024.6 0 0 -4199.62 0 0 4199.62 0 0 -5667 0 0 5667 0 0 -3220.27 0 0 3220.27 0 0 -3312.01 0 0 3312.01
0 0 -14422.9 0 0 14422.9 0 0 -14716.2 0 0 14716.2 0 0 -5293.94 0 0 5293.94 0 0 -6785.11 0 0 6785.11 0 0 -3428.62 0 0 3428.62 0 0 -3517.26 0 0 3517.26
0 0 -16098.1 0 0 16098.1 0 0 -16518 0 0 16518 0 0 -6427.11 0 0 6427.11 0 0 -7945.43 0 0 7945.43 0 0 -3599.61 0 0 3599.61 0 0 -3684.48 0 0 3684.48
0 0 -17863.1 0 0 17863.1 0 0 -18416.8 0 0 18416.8 0 0 -7590.89 0 0 7590.89 0 0 -9138.74 0 0 9138.74 0 0 -3734.79 0 0 3734.79 0 0 -3815.31 0 0 3815.31
0 0 -19701.3 0 0 19701.3 0 0 -20395 0 0 20395 0 0 -8776.36 0 0 8776.36 0 0 -10354.8 0 0 10354.8 0 0 -3836.42 0 0 3836.42 0 0 -3911.98 0 0 3911.98
0 0 -21592 0 0 21592 0 0 -22430.6 0 0 22430.6 0 0 -9973.22 0 0 9973.22 0 0 -11583.1 0 0 11583.1 0 0 -3907.31 0 0 3907.31 0 0 -3977.35 0 0 3977.35
0 0 -23511.6 0 0 23511.6 0 0 -24497.8 0 0 24497.8 0 0 -11170.3 0 0 11170.3 0 0 -12812.7 0 0 12812.7 0 0 -3950.75 0 0 3950.75 0 0 -4014.84 0 0 4014.84
0 0 -25434.7 0 0 25434.7 0 0 -26569.3 0 0 26569.3 0 0 -12356.1 0 0 12356.1 0 0 -14031.9 0 0 14031.9 0 0 -3970.53 0 0 3970.53 0 0 -4028.34 0 0 4028.34
0 0 -27334.8 0 0 27334.8 0 0 -28616.6 0 0 28616.6 0 0 -13519.3 0 0 13519.3 0 0 -15228.6 0 0 15228.6 0 0 -3970.77 0 0 3970.77 0 0 -4022.09 0 0 4022.09
0 0 -29185.1 0 0 29185.1 0 0 -30610.6 0 0 30610.6 0 0 -14648.3 0 0 14648.3 0 0 -16390.4 0 0 16390.4 0 0 -3955.78 0 0 3955.78 0 0 -4000.57 0 0 4000.57
0 0 -30959 0 0 30959 0 0 -32522.5 0 0 32522.5 0 0 -15731.3 0 0 15731.3 0 0 -17504.9 0 0 17504.9 0 0 -3929.93 0 0 3929.93 0 0 -3968.31 0 0 3968.31
0 0 -32631.5 0 0 32631.5 0 0 -34325.3 0 0 34325.3 0 0 -16756.3 0 0 16756.3 0 0 -18559.9 0 0 18559.9 0 0 -3897.62 0 0 3897.62 0 0 -3929.86 0 0 3929.86
0 0 -34180 0 0 34180 0 0 -35994.6 0 0 35994.6 0 0 -17711.7 0 0 17711.7 0 0 -19543.6 0 0 19543.6 0 0 -3863.17 0 0 3863.17 0 0 -3889.63 0 0 3889.63
0 0 -35584.9 0 0 35584.9 0 0 -37509 0 0 37509 0 0 -18586.5 0 0 18586.5 0 0 -20444.2 0 0 20444.2 0 0 -3830.7 0 0 3830.7 0 0 -3851.82 0 0 3851.82
0 0 -36830 0 0 36830 0 0 -38851.2 0 0 38851.2 0 0 -19370.4 0 0 19370.4 0 0 -21251 0 0 21251 0 0 -3803.94 0 0 3803.94 0 0 -3820.29 0 0 3820.29
0 0 -37903.6 0 0 37903.6 0 0 -40008.6 0 0 40008.6 0 0 -20053.7 0 0 20053.7 0 0 -21954 0 0 21954 0 0 -3786.18 0 0 3786.18 0 0 -3798.48 0 0 3798.48
0 0 -38798.5 0 0 38798.5 0 0 -40973.5 0 0 40973.5 0 0 -20627.7 0 0 20627.7 0 0 -22544.4 0 0 22544.4 0 0 -3780.17 0 0 3780.17 0 0 -3789.23 0 0 3789.23
0 0 -39512.5 0 0 39512.5 0 0 -41743.4 0 0 41743.4 0 0 -21085.3 0 0 21085.3 0 0 -23014.9 0 0 23014.9 0 0 -3788.11 0 0 3788.11 0 0 -3794.79 0 0 3794.79
0 0 -40047.3 0 0 40047.3 0 0 -42320.5 0 0 42320.5 0 0 -21420.9 0 0 21420.9 0 0 -23359.7 0 0 23359.7 0 0 -3811.49 0 0 3811.49 0 0 -3816.67 0 0 3816.67
0 0 -40408 0 0 40408 0 0 -42710.4 0 0 42710.4 0 0 -21630.9 0 0 21630.9 0 0 -23575.2 0 0 23575.2 0 0 -3851.07 0 0 3851.07 0 0 -3855.65 0 0 3855.65
0 0 -40602 0 0 40602 0 0 -42921.3 0 0 42921.3 0 0 -21713.9 0 0 21713.9 0 0 -23660.1 0 0 23660.1 0 0 -3906.8 0 0 3906.8 0 0 -3911.71 0 0 3911.71
0 0 -40639.1 0 0 40639.1 0 0 -42964.7 0 0 42964.7 0 0 -21670.9 0 0 21670.9 0 0 -23615.4 0 0 23615.4 0 0 -3977.85 0 0 3977.85 0 0 -3984.01 0 0 3984.01
0 0 -40529.3 0 0 40529.3 0 0 -42854.8 0 0 42854.8 0 0 -21503.9 0 0 21503.9 0 0 -23443.9 0 0 23443.9 0 0 -4062.73 0 0 4062.73 0 0 -4070.98 0 0 4070.98
0 0 -40288.9 0 0 40288.9 0 0 -42611 0 0 42611 0 0 -21218.2 0 0 21218.2 0 0 -23151.3 0 0 23151.3 0 0 -4159.15 0 0 4159.15 0 0 -4170.22 0 0 4170.22
0 0 -39939.3 0 0 39939.3 0 0 -42255.3 0 0 42255.3 0 0 -20821.5 0 0 20821.5 0 0 -22745.4 0 0 22745.4 0 0 -4264.1 0 0 4264.1 0 0 -4278.66 0 0 4278.66
0 0 -39503.6 0 0 39503.6 0 0 -41810.8 0 0 41810.8 0 0 -20324.1 0 0 20324.1 0 0 -22236.8 0 0 22236.8 0 0 -4373.96 0 0 4373.96 0 0 -4392.6 0 0 4392.6
0 0 -39004.1 0 0 39004.1 0 0 -41301.1 0 0 41301.1 0 0 -19737.8 0 0 19737.8 0 0 -21637.7 0 0 21637.7 0 0 -4484.63 0 0 4484.63 0 0 -4507.79 0 0 4507.79
0 0 -38462.5 0 0 38462.5 0 0 -40749.1 0 0 40749.1 0 0 -19076.6 0 0 19076.6 0 0 -20962.7 0 0 20962.7 0 0 -4591.61 0 0 4591.61 0 0 -4619.58 0 0 4619.58
0 0 -37899.2 0 0 37899.2 0 0 -40175.5 0 0 40175.5 0 0 -18356.4 0 0 18356.4 0 0 -20227.9 0 0 20227.9 0 0 -4690.12 0 0 4690.12 0 0 -4723.06 0 0 4723.06
0 0 -37333 0 0 37333 0 0 -39599.7 0 0 39599.7 0 0 -17594.2 0 0 17594.2 0 0 -19450.6 0 0 19450.6 0 0 -4775.27 0 0 4775.27 0 0 -4813.19 0 0 4813.19
0 0 -36782.5 0 0 36782.5 0 0 -39040.6 0 0 39040.6 0 0 -16807.4 0 0 16807.4 0 0 -18648.8 0 0 18648.8 0 0 -4842.24 0 0 4842.24 0 0 -4884.98 0 0 4884.98
0 0 -36265.7 0 0 36265.7 0 0 -38517 0 0 38517 0 0 -16013.8 0 0 16013.8 0 0 -17840.7 0 0 17840.7 0 0 -4886.41 0 0 4886.41 0 0 -4933.65 0 0 4933.65
0 0 -35800.9 0 0 35800.9 0 0 -38047.4 0 0 38047.4 0 0 -15230.5 0 0 15230.5 0 0 -17043.9 0 0 17043.9 0 0 -4903.52 0 0 4903.52 0 0 -4954.81 0 0 4954.81
0 0 -35404.7 0 0 35404.7 0 0 -37648.9 0 0 37648.9 0 0 -14474.2 0 0 14474.2 0 0 -16275.3 0 0 16275.3 0 0 -4889.83 0 0 4889.83 0 0 -4944.56 0 0 4944.56
0 0 -35091.9 0 0 35091.9 0 0 -37336.8 0 0 37336.8 0 0 -13760.2 0 0 13760.2 0 0 -15550.6 0 0 15550.6 0 0 -4842.23 0 0 4842.23 0 0 -4899.68 0 0 4899.68
0 0 -34874.9 0 0 34874.9 0 0 -37123.5 0 0 37123.5 0 0 -13102.6 0 0 13102.6 0 0 -14884.2 0 0 14884.2 0 0 -4758.35 0 0 4758.35 0 0 -4817.71 0 0 4817.71
0 0 -34763.6 0 0 34763.6 0 0 -37019.2 0 0 37019.2 0 0 -12513.4 0 0 12513.4 0 0 -14288.4 0 0 14288.4 0 0 -4636.7 0 0 4636.7 0 0 -4697.06 0 0 4697.06
0 0 -34765.6 0 0 34765.6 0 0 -37031.8 0 0 37031.8 0 0 -12002.6 0 0 12002.6 0 0 -13773.3 0 0 13773.3 0 0 -4476.7 0 0 4476.7 0 0 -4537.1 0 0 4537.1
0 0 -34887.5 0 0 34887.5 0 0 -37168.1 0 0 37168.1 0 0 -11577.7 0 0 11577.7 0 0 -13346.5 0 0 13346.5 0 0 -4278.76 0 0 4278.76 0 0 -4338.21 0 0 4338.21
0 0 -35135.1 0 0 35135.1 0 0 -37433.9 0 0 37433.9 0 0 -11243.6 0 0 11243.6 0 0 -13013.1 0 0 13013.1 0 0 -4044.3 0 0 4044.3 0 0 -4101.79 0 0 4101.79
0 0 -35508.8 0 0 35508.8 0 0 -37785.3 0 0 37785.3 0 0 -11003.2 0 0 11003.2 0 0 -12779.6 0 0 12779.6 0 0 -3775.7 0 0 3775.7 0 0 -3830.07 0 0 3830.07
0 0 -35996.3 0 0 35996.3 0 0 -38191.7 0 0 38191.7 0 0 -10856.5 0 0 10856.5 0 0 -12654.7 0 0 12654.7 0 0 -3476.44 0 0 3476.44 0 0 -3525.29 0 0 3525.29
0 0 -36608.2 0 0 36608.2 0 0 -38756.4 0 0 38756.4 0 0 -10799.2 0 0 10799.2 0 0 -12616.2 0 0 12616.2 0 0 -3150.82 0 0 3150.82 0 0 -3194.42 0 0 3194.42
0 0 -37344.8 0 0 37344.8 0 0 -39462.8 0 0 39462.8 0 0 -10829 0 0 10829 0 0 -12663.8 0 0 12663.8 0 0 -2803.79 0 0 2803.79 0 0 -2840.84 0 0 2840.84
0 0 -38148 0 0 38148 0 0 -40282.3 0 0 40282.3 0 0 -10940.8 0 0 10940.8 0 0 -12791 0 0 12791 0 0 -2440.81 0 0 2440.81 0 0 -2471.91 0 0 2471.91
0 0 -39016.2 0 0 39016.2 0 0 -41197.3 0 0 41197.3 0 0 -11127.3 0 0 11127.3 0 0 -12991.3 0 0 12991.3 0 0 -2068.46 0 0 2068.46 0 0 -2093.14 0 0 2093.14
0 0 -39963.8 0 0 39963.8 0 0 -42191.8 0 0 42191.8 0 0 -11377 0 0 11377 0 0 -13254.6 0 0 13254.6 0 0 -1693.78 0 0 1693.78 0 0 -1711.43 0 0 1711.43
0 0 -40953.4 0 0 40953.4 0 0 -43216.2 0 0 43216.2 0 0 -11679.7 0 0 11679.7 0 0 -13574.3 0 0 13574.3 0 0 -1323.67 0 0 1323.67 0 0 -1333.87 0 0 1333.87
0 0 -41855.3 0 0 41855.3 0 0 -44195.5 0 0 44195.5 0 0 -12024.3 0 0 12024.3 0 0 -13939.4 0 0 13939.4 0 0 -965.281 0 0 965.281 0 0 -967.849 0 0 967.849
0 0 -42696.3 0 0 42696.3 0 0 -45105.5 0 0 45105.5 0 0 -12406.6 0 0 12406.6 0 0 -14344.1 0 0 14344.1 0 0 -625.162 0 0 625.162 0 0 -620.526 0 0 620.526
0 0 -43445.3 0 0 43445.3 0 0 -45907.8 0 0 45907.8 0 0 -12816.5 0 0 12816.5 0 0 -14774.7 0 0 14774.7 0 0 -310.6 0 0 310.6 0 0 -298.966 0 0 298.966
0 0 -44066.2 0 0 44066.2 0 0 -46569.2 0 0 46569.2 0 0 -13241.8 0 0 13241.8 0 0 -15219.2 0 0 15219.2 0 0 -28.3892 0 0 28.3892 0 0 -10.1187 0 0 10.1187
0 0 -44520.6 0 0 44520.6 0 0 -47054.5 0 0 47054.5 0 0 -13669.7 0 0 13669.7 0 0 -15664.6 0 0 15664.6 0 0 211.066 0 0 -211.066 0 0 233.956 0 0 -233.956
0 0 -44780.6 0 0 44780.6 0 0 -47330.1 0 0 47330.1 0 0 -14085.5 0 0 14085.5 0 0 -16097.6 0 0 16097.6 0 0 407.543 0 0 -407.543 0 0 435.04 0 0 -435.04
0 0 -44823.9 0 0 44823.9 0 0 -47368.3 0 0 47368.3 0 0 -14478.5 0 0 14478.5 0 0 -16504.5 0 0 16504.5 0 0 555.643 0 0 -555.643 0 0 587.817 0 0 -587.817
0 0 -44625.2 0 0 44625.2 0 0 -47152.1 0 0 47152.1 0 0 -14833.6 0 0 14833.6 0 0 -16870.7 0 0 16870.7 0 0 650.625 0 0 -650.625 0 0 686.951 0 0 -686.951
0 0 -44176.2 0 0 44176.2 0 0 -46678.1 0 0 46678.1 0 0 -15135.2 0 0 15135.2 0 0 -17181.2 0 0 17181.2 0 0 689.049 0 0 -689.049 0 0 728.538 0 0 -728.538
0 0 -43481.9 0 0 43481.9 0 0 -45950.1 0 0 45950.1 0 0 -15370.4 0 0 15370.4 0 0 -17422.4 0 0 17422.4 0 0 668.895 0 0 -668.895 0 0 709.975 0 0 -709.975
0 0 -42552.8 0 0 42552.8 0 0 -44977.5 0 0 44977.5 0 0 -15527.6 0 0 15527.6 0 0 -17582 0 0 17582 0 0 589.217 0 0 -589.217 0 0 630.119 0 0 -630.119
0 0 -41401.3 0 0 41401.3 0 0 -43774.3 0 0 43774.3 0 0 -15596.9 0 0 15596.9 0 0 -17649.8 0 0 17649.8 0 0 450.035 0 0 -450.035 0 0 489.253 0 0 -489.253
0 0 -40043.2 0 0 40043.2 0 0 -42358.6 0 0 42358.6 0 0 -15570.3 0 0 15570.3 0 0 -17618.1 0 0 17618.1 0 0 252.595 0 0 -252.595 0 0 288.983 0 0 -288.983
0 0 -38499.8 0 0 38499.8 0 0 -40751.7 0 0 40751.7 0 0 -15443 0 0 15443 0 0 -17482 0 0 17482 0 0 -0.505583 0 0 0.505583 0 0 32.1246 0 0 -32.1246
0 0 -36795.8 0 0 36795.8 0 0 -38979.3 0 0 38979.3 0 0 -15214.3 0 0 15214.3 0 0 -17239.8 0 0 17239.8 0 0 -310.392 0 0 310.392 0 0 -285.494 0 0 285.494
0 0 -34961 0 0 34961 0 0 -37072.6 0 0 37072.6 0 0 -14882.3 0 0 14882.3 0 0 -16892.1 0 0 16892.1 0 0 -666.46 0 0 666.46 0 0 -648.041 0 0 648.041
0 0 -33028.5 0 0 33028.5 0 0 -35066.6 0 0 35066.6 0 0 -14451.3 0 0 14451.3 0 0 -16442.2 0 0 16442.2 0 0 -1062.31 0 0 1062.31 0 0 -1050.15 0 0 1050.15
0 0 -31033.2 0 0 31033.2 0 0 -32996.9 0 0 32996.9 0 0 -13928 0 0 13928 0 0 -15897.3 0 0 15897.3 0 0 -1490.6 0 0 1490.6 0 0 -1486.53 0 0 1486.53
0 0 -29007.1 0 0 29007.1 0 0 -30896.9 0 0 30896.9 0 0 -13322.2 0 0 13322.2 0 0 -15267 0 0 15267 0 0 -1942.86 0 0 1942.86 0 0 -1948.76 0 0 1948.76
0 0 -26977 0 0 26977 0 0 -28794.5 0 0 28794.5 0 0 -12646.5 0 0 12646.5 0 0 -14564.7 0 0 14564.7 0 0 -2409.52 0 0 2409.52 0 0 -2426.36 0 0 2426.36
0 0 -24966.5 0 0 24966.5 0 0 -26714.1 0 0 26714.1 0 0 -11916.7 0 0 11916.7 0 0 -13807 0 0 13807 0 0 -2880.38 0 0 2880.38 0 0 -2908.32 0 0 2908.32
0 0 -22996.6 0 0 22996.6 0 0 -24676.8 0 0 24676.8 0 0 -11150.5 0 0 11150.5 0 0 -13012.4 0 0 13012.4 0 0 -3345.04 0 0 3345.04 0 0 -3383.91 0 0 3383.91
0 0 -21084.5 0 0 21084.5 0 0 -22700.3 0 0 22700.3 0 0 -10366.7 0 0 10366.7 0 0 -12200.5 0 0 12200.5 0 0 -3793.21 0 0 3793.21 0 0 -3842.72 0 0 3842.72
0 0 -19244.2 0 0 19244.2 0 0 -20798.5 0 0 20798.5 0 0 -9584.86 0 0 9584.86 0 0 -11391.3 0 0 11391.3 0 0 -4214.76 0 0 4214.76 0 0 -4274.5 0 0 4274.5
0 0 -17486.6 0 0 17486.6 0 0 -18982.8 0 0 18982.8 0 0 -8824.08 0 0 8824.08 0 0 -10604.9 0 0 10604.9 0 0 -4599.93 0 0 4599.93 0 0 -4669.29 0 0 4669.29
0 0 -15821.6 0 0 15821.6 0 0 -17262.9 0 0 17262.9 0 0 -8102.49 0 0 8102.49 0 0 -9859.81 0 0 9859.81 0 0 -4939.63 0 0 4939.63 0 0 -5017.74 0 0 5017.74
0 0 -14259 0 0 14259 0 0 -15648.4 0 0 15648.4 0 0 -7436.3 0 0 7436.3 0 0 -9172.73 0 0 9172.73 0 0 -5225.71 0 0 5225.71 0 0 -5311.52 0 0 5311.52
0 0 -12807.5 0 0 12807.5 0 0 -14148.2 0 0 14148.2 0 0 -6839.08 0 0 6839.08 0 0 -8557.78 0 0 8557.78 0 0 -5451.31 0 0 5451.31 0 0 -5543.53 0 0 5543.53
0 0 -11473.7 0 0 11473.7 0 0 -12768.8 0 0 12768.8 0 0 -6321.48 0 0 6321.48 0 0 -8026.09 0 0 8026.09 0 0 -5610.92 0 0 5610.92 0 0 -5708.06 0 0 5708.06
0 0 -10260.3 0 0 10260.3 0 0 -11512.7 0 0 11512.7 0 0 -5891.04 0 0 5891.04 0 0 -7585.49 0 0 7585.49 0 0 -5700.47 0 0 5700.47 0 0 -5800.95 0 0 5800.95
0 0 -9165.86 0 0 9165.86 0 0 -10378.4 0 0 10378.4 0 0 -5551.87 0 0 5551.87 0 0 -7240.21 0 0 7240.21 0 0 -5717.43 0 0 5717.43 0 0 -5819.61 0 0 5819.61
0 0 -8185.91 0 0 8185.91 0 0 -9361.13 0 0 9361.13 0 0 -5304.43 0 0 5304.43 0 0 -6990.66 0 0 6990.66 0 0 -5660.85 0 0 5660.85 0 0 -5763.14 0 0 5763.14
0 0 -7313.22 0 0 7313.22 0 0 -8453.45 0 0 8453.45 0 0 -5145.3 0 0 5145.3 0 0 -6833.33 0 0 6833.33 0 0 -5531.48 0 0 5531.48 0 0 -5632.32 0 0 5632.32
0 0 -6537.99 0 0 6537.99 0 0 -7645.21 0 0 7645.21 0 0 -5067.3 0 0 5067.3 0 0 -6760.87 0 0 6760.87 0 0 -5331.67 0 0 5331.67 0 0 -5429.55 0 0 5429.55
0 0 -5847.96 0 0 5847.96 0 0 -6923.84 0 0 6923.84 0 0 -5059.7 0 0 5059.7 0 0 -6762.25 0 0 6762.25 0 0 -5065.34 0 0 5065.34 0 0 -5158.82 0 0 5158.82
0 0 -5228.2 0 0 5228.2 0 0 -6274.05 0 0 6274.05 0 0 -5108.66 0 0 5108.66 0 0 -6823.19 0 0 6823.19 0 0 -4737.78 0 0 4737.78 0 0 -4825.57 0 0 4825.57
0 0 -4660.72 0 0 4660.72 0 0 -5677.43 0 0 5677.43 0 0 -5197.63 0 0 5197.63 0 0 -6926.61 0 0 6926.61 0 0 -4355.52 0 0 4355.52 0 0 -4436.55 0 0 4436.55
0 0 -4124.14 0 0 4124.14 0 0 -5112.12 0 0 5112.12 0 0 -5307.97 0 0 5307.97 0 0 -7053.28 0 0 7053.28 0 0 -3926.12 0 0 3926.12 0 0 -3999.57 0 0 3999.57
0 0 -3593.77 0 0 3593.77 0 0 -4552.88 0 0 4552.88 0 0 -5419.5 0 0 5419.5 0 0 -7182.4 0 0 7182.4 0 0 -3458.04 0 0 3458.04 0 0 -3523.3 0 0 3523.3
0 0 -3042.21 0 0 3042.21 0 0 -3971.67 0 0 3971.67 0 0 -5511.13 0 0 5511.13 0 0 -7292.2 0 0 7292.2 0 0 -2960.34 0 0 2960.34 0 0 -3017.04 0 0 3017.04
0 0 -2863.44 0 0 2863.44 0 0 -3866.09 0 0 3866.09 0 0 -5529.42 0 0 5529.42 0 0 -7287.82 0 0 7287.82 0 0 -2443.28 0 0 2443.28 0 0 -2495.14 0 0 2495.14
0 0 -2761.15 0 0 2761.15 0 0 -3746.08 0 0 3746.08 0 0 -5461.89 0 0 5461.89 0 0 -7249.14 0 0 7249.14 0 0 -1916.62 0 0 1916.62 0 0 -1959.59 0 0 1959.59
0 0 -2560.23 0 0 2560.23 0 0 -3580.47 0 0 3580.47 0 0 -5317.91 0 0 5317.91 0 0 -7116.3 0 0 7116.3 0 0 -1387.45 0 0 1387.45 0 0 -1423.01 0 0 1423.01
0 0 -2252.02 0 0 2252.02 0 0 -3287.72 0 0 3287.72 0 0 -5091.59 0 0 5091.59 0 0 -6894.62 0 0 6894.62 0 0 -864.356 0 0 864.356 0 0 -891.776 0 0 891.776
0 0 -1818.35 0 0 1818.35 0 0 -2824.38 0 0 2824.38 0 0 -4769.79 0 0 4769.79 0 0 -6566.24 0 0 6566.24 0 0 -354.727 0 0 354.727 0 0 -377.757 0 0 377.757
0 0 -1233 0 0 1233 0 0 -2212.84 0 0 2212.84 0 0 -4333.79 0 0 4333.79 0 0 -6129.55 0 0 6129.55 0 0 129.35 0 0 -129.35 0 0 104.133 0 0 -104.133
0 0 -488.413 0 0 488.413 0 0 -1452.76 0 0 1452.76 0 0 -3775.2 0 0 3775.2 0 0 -5570.42 0 0 5570.42 0 0 582.883 0 0 -582.883 0 0 565.185 0 0 -565.185
0 0 396.346 0 0 -396.346 0 0 -530.718 0 0 530.718 0 0 -3089.2 0 0 3089.2 0 0 -4881.62 0 0 4881.62 0 0 1004.64 0 0 -1004.64 0 0 992.141 0 0 -992.141
0 0 1404.83 0 0 -1404.83 0 0 545.636 0 0 -545.636 0 0 -2280.99 0 0 2280.99 0 0 -4062.31 0 0 4062.31 0 0 1389.66 0 0 -1389.66 0 0 1379.85 0 0 -1379.85
0 0 2558.24 0 0 -2558.24 0 0 1776.42 0 0 -1776.42 0 0 -1343.46 0 0 1343.46 0 0 -3107.27 0 0 3107.27 0 0 1734.17 0 0 -1734.17 0 0 1724.43 0 0 -1724.43
0 0 3856.39 0 0 -3856.39 0 0 3147.97 0 0 -3147.97 0 0 -276.107 0 0 276.107 0 0 -2020.79 0 0 2020.79 0 0 2036.63 0 0 -2036.63 0 0 2025.09 0 0 -2025.09
0 0 5285.93 0 0 -5285.93 0 0 4660.57 0 0 -4660.57 0 0 895.69 0 0 -895.69 0 0 -811.07 0 0 811.07 0 0 2295.52 0 0 -2295.52 0 0 2280.91 0 0 -2280.91
0 0 6836.57 0 0 -6836.57 0 0 6303.67 0 0 -6303.67 0 0 2180.24 0 0 -2180.24 0 0 498.509 0 0 -498.509 0 0 2513.14 0 0 -2513.14 0 0 2492.72 0 0 -2492.72
0 0 8491.93 0 0 -8491.93 0 0 8061.02 0 0 -8061.02 0 0 3559.51 0 0 -3559.51 0 0 1908.24 0 0 -1908.24 0 0 2689.33 0 0 -2689.33 0 0 2663.51 0 0 -2663.51
0 0 10236.2 0 0 -10236.2 0 0 9909.49 0 0 -9909.49 0 0 5020.55 0 0 -5020.55 0 0 3397.99 0 0 -3397.99 0 0 2827.13 0 0 -2827.13 0 0 2795.45 0 0 -2795.45
0 0 12045.5 0 0 -12045.5 0 0 11826.7 0 0 -11826.7 0 0 6546.99 0 0 -6546.99 0 0 4954.24 0 0 -4954.24 0 0 2930.77 0 0 -2930.77 0 0 2893.02 0 0 -2893.02
0 0 13893.8 0 0 -13893.8 0 0 13785.5 0 0 -13785.5 0 0 8120.14 0 0 -8120.14 0 0 6556.88 0 0 -6556.88 0 0 3005.15 0 0 -3005.15 0 0 2960.6 0 0 -2960.6
0 0 15749.7 0 0 -15749.7 0 0 15745.4 0 0 -15745.4 0 0 9718.38 0 0 -9718.38 0 0 8186.03 0 0 -8186.03 0 0 3055.37 0 0 -3055.37 0 0 3003.16 0 0 -3003.16
0 0 17563.8 0 0 -17563.8 0 0 17662.1 0 0 -17662.1 0 0 11321.1 0 0 -11321.1 0 0 9821.28 0 0 -9821.28 0 0 3086.68 0 0 -3086.68 0 0 3026.34 0 0 -3026.34
0 0 19321.2 0 0 -19321.2 0 0 19516.8 0 0 -19516.8 0 0 12903.1 0 0 -12903.1 0 0 11436.4 0 0 -11436.4 0 0 3105.32 0 0 -3105.32 0 0 3036.71 0 0 -3036.71
0 0 21009.6 0 0 -21009.6 0 0 21297.4 0 0 -21297.4 0 0 14439.6 0 0 -14439.6 0 0 13004.5 0 0 -13004.5 0 0 3117.68 0 0 -3117.68 0 0 3040.83 0 0 -3040.83
0 0 22622.7 0 0 -22622.7 0 0 22998.3 0 0 -22998.3 0 0 15904.9 0 0 -15904.9 0 0 14499.2 0 0 -14499.2 0 0 3130.01 0 0 -3130.01 0 0 3045.29 0 0 -3045.29
0 0 24159.8 0 0 -24159.8 0 0 24619 0 0 -24619 0 0 17273.8 0 0 -17273.8 0 0 15895.2 0 0 -15895.2 0 0 3148.14 0 0 -3148.14 0 0 3056.16 0 0 -3056.16
0 0 25622.8 0 0 -25622.8 0 0 26161.9 0 0 -26161.9 0 0 18523.3 0 0 -18523.3 0 0 17169.3 0 0 -17169.3 0 0 3177.29 0 0 -3177.29 0 0 3078.96 0 0 -3078.96
0 0 27013.5 0 0 -27013.5 0 0 27629.2 0 0 -27629.2 0 0 19633.6 0 0 -19633.6 0 0 18301 0 0 -18301 0 0 3222 0 0 -3222 0 0 3118.38 0 0 -3118.38
0 0 28332.4 0 0 -28332.4 0 0 29021.8 0 0 -29021.8 0 0 20589.4 0 0 -20589.4 0 0 19274.1 0 0 -19274.1 0 0 3285.9 0 0 -3285.9 0 0 3178.12 0 0 -3178.12
0 0 29510.6 0 0 -29510.6 0 0 30312.3 0 0 -30312.3 0 0 21382.5 0 0 -21382.5 0 0 20078.7 0 0 -20078.7 0 0 3371.43 0 0 -3371.43 0 0 3260.72 0 0 -3260.72
0 0 30448.8 0 0 -30448.8 0 0 31299 0 0 -31299 0 0 22025.9 0 0 -22025.9 0 0 20736.3 0 0 -20736.3 0 0 3478.27 0 0 -3478.27 0 0 3365.77 0 0 -3365.77
0 0 31250.4 0 0 -31250.4 0 0 32128.9 0 0 -32128.9 0 0 22498.7 0 0 -22498.7 0 0 21211.8 0 0 -21211.8 0 0 3608.9 0 0 -3608.9 0 0 3496.06 0 0 -3496.06
0 0 31905.5 0 0 -31905.5 0 0 32820.8 0 0 -32820.8 0 0 22798.2 0 0 -22798.2 0 0 21519.3 0 0 -21519.3 0 0 3762.35 0 0 -3762.35 0 0 3649.04 0 0 -3649.04
0 0 32418 0 0 -32418 0 0 33362.9 0 0 -33362.9 0 0 22931.2 0 0 -22931.2 0 0 21654.1 0 0 -21654.1 0 0 3935.87 0 0 -3935.87 0 0 3824.14 0 0 -3824.14
0 0 32788.7 0 0 -32788.7 0 0 33752.8 0 0 -33752.8 0 0 22904.5 0 0 -22904.5 0 0 21626.7 0 0 -21626.7 0 0 4127.02 0 0 -4127.02 0 0 4017.57 0 0 -4017.57
0 0 33021.7 0 0 -33021.7 0 0 33995.7 0 0 -33995.7 0 0 22729.5 0 0 -22729.5 0 0 21447.7 0 0 -21447.7 0 0 4332 0 0 -4332 0 0 4226.09 0 0 -4226.09
0 0 33129.3 0 0 -33129.3 0 0 34106.4 0 0 -34106.4 0 0 22420.4 0 0 -22420.4 0 0 21131.7 0 0 -21131.7 0 0 4546.11 0 0 -4546.11 0 0 4444.5 0 0 -4444.5
0 0 33126.4 0 0 -33126.4 0 0 34103 0 0 -34103 0 0 21992.7 0 0 -21992.7 0 0 20695 0 0 -20695 0 0 4763.77 0 0 -4763.77 0 0 4667.2 0 0 -4667.2
0 0 33031.4 0 0 -33031.4 0 0 34006.4 0 0 -34006.4 0 0 21463.2 0 0 -21463.2 0 0 20155.7 0 0 -20155.7 0 0 4979 0 0 -4979 0 0 4887.97 0 0 -4887.97
0 0 32866 0 0 -32866 0 0 33838.9 0 0 -33838.9 0 0 20851.6 0 0 -20851.6 0 0 19533.7 0 0 -19533.7 0 0 5185.6 0 0 -5185.6 0 0 5100.33 0 0 -5100.33
0 0 32654 0 0 -32654 0 0 33623.8 0 0 -33623.8 0 0 20179.4 0 0 -20179.4 0 0 18850.3 0 0 -18850.3 0 0 5377.16 0 0 -5377.16 0 0 5297.65 0 0 -5297.65
0 0 32435.7 0 0 -32435.7 0 0 33413.8 0 0 -33413.8 0 0 19446.4 0 0 -19446.4 0 0 17977.4 0 0 -17977.4 0 0 5178.72 0 0 -5178.72 0 0 4028.4 0 0 -4028.4
0 0 32187.4 0 0 -32187.4 0 0 33411.1 0 0 -33411.1 0 0 18494.9 0 0 -18494.9 0 0 16711.8 0 0 -16711.8 0 0 5066.41 0 0 -5066.41 0 0 2487.62 0 0 -2487.62
0 0 32056.3 0 0 -32056.3 0 0 33045.9 0 0 -33045.9 0 0 17689.1 0 0 -17689.1 0 0 16028.9 0 0 -16028.9 0 0 4618.47 0 0 -4618.47 0 0 2660.05 0 0 -2660.05
0 0 31798.8 0 0 -31798.8 0 0 32932.4 0 0 -32932.4 0 0 16982.2 0 0 -16982.2 0 0 15197.4 0 0 -15197.4 0 0 4588.05 0 0 -4588.05 0 0 2344.59 0 0 -2344.59
0 0 31645 0 0 -31645 0 0 32769 0 0 -32769 0 0 16386 0 0 -16386 0 0 14557.4 0 0 -14557.4 0 0 4865.86 0 0 -4865.86 0 0 2493 0 0 -2493
0 0 31583 0 0 -31583 0 0 32710.4 0 0 -32710.4 0 0 15814.9 0 0 -15814.9 0 0 13889.7 0 0 -13889.7 0 0 5160.86 0 0 -5160.86 0 0 2479.6 0 0 -2479.6
0 0 31583.7 0 0 -31583.7 0 0 32743.3 0 0 -32743.3 0 0 15262.2 0 0 -15262.2 0 0 13380.3 0 0 -13380.3 0 0 5169.38 0 0 -5169.38 0 0 2507.93 0 0 -2507.93
0 0 31680.7 0 0 -31680.7 0 0 32848.4 0 0 -32848.4 0 0 14820.8 0 0 -14820.8 0 0 12929.4 0 0 -12929.4 0 0 4932.23 0 0 -4932.23 0 0 2543.17 0 0 -2543.17
0 0 31876 0 0 -31876 0 0 33048.2 0 0 -33048.2 0 0 14517.1 0 0 -14517.1 0 0 12598.7 0 0 -12598.7 0 0 4689.31 0 0 -4689.31 0 0 2503.47 0 0 -2503.47
0 0 32176.8 0 0 -32176.8 0 0 33349 0 0 -33349 0 0 14327.1 0 0 -14327.1 0 0 12380.1 0 0 -12380.1 0 0 4584.19 0 0 -4584.19 0 0 2348.62 0 0 -2348.62
0 0 32572.4 0 0 -32572.4 0 0 33763.2 0 0 -33763.2 0 0 14214.1 0 0 -14214.1 0 0 12294.6 0 0 -12294.6 0 0 4546.68 0 0 -4546.68 0 0 2111.02 0 0 -2111.02
0 0 33065.9 0 0 -33065.9 0 0 34279.4 0 0 -34279.4 0 0 14192.1 0 0 -14192.1 0 0 12323.6 0 0 -12323.6 0 0 4415.07 0 0 -4415.07 0 0 1866.22 0 0 -1866.22
0 0 33651.8 0 0 -33651.8 0 0 34881.5 0 0 -34881.5 0 0 14290.6 0 0 -14290.6 0 0 12447 0 0 -12447 0 0 4125.62 0 0 -4125.62 0 0 1647.74 0 0 -1647.74
0 0 34248.5 0 0 -34248.5 0 0 35508.5 0 0 -35508.5 0 0 14510.9 0 0 -14510.9 0 0 12662.2 0 0 -12662.2 0 0 3756.14 0 0 -3756.14 0 0 1427.32 0 0 -1427.32
0 0 34861.5 0 0 -34861.5 0 0 36164.1 0 0 -36164.1 0 0 14823.8 0 0 -14823.8 0 0 12973.1 0 0 -12973.1 0 0 3417.78 0 0 -3417.78 0 0 1160.44 0 0 -1160.44
0 0 35500 0 0 -35500 0 0 36841.7 0 0 -36841.7 0 0 15201.8 0 0 -15201.8 0 0 13375.8 0 0 -13375.8 0 0 3140.79 0 0 -3140.79 0 0 837.729 0 0 -837.729
0 0 36156 0 0 -36156 0 0 37530.8 0 0 -37530.8 0 0 15638 0 0 -15638 0 0 13856.3 0 0 -13856.3 0 0 2873.85 0 0 -2873.85 0 0 518.031 0 0 -518.031
0 0 36814.8 0 0 -36814.8 0 0 38220.4 0 0 -38220.4 0 0 16131.3 0 0 -16131.3 0 0 14391.8 0 0 -14391.8 0 0 2564.66 0 0 -2564.66 0 0 258.465 0 0 -258.465
0 0 37467.4 0 0 -37467.4 0 0 38903.9 0 0 -38903.9 0 0 16665.8 0 0 -16665.8 0 0 14957.1 0 0 -14957.1 0 0 2225.18 0 0 -2225.18 0 0 48.8717 0 0 -48.8717
0 0 38110.5 0 0 -38110.5 0 0 39574.6 0 0 -39574.6 0 0 17211.2 0 0 -17211.2 0 0 15534.9 0 0 -15534.9 0 0 1907.46 0 0 -1907.46 0 0 -132.133 0 0 132.133
0 0 38735.8 0 0 -38735.8 0 0 40222.6 0 0 -40222.6 0 0 17742.7 0 0 -17742.7 0 0 16116.8 0 0 -16116.8 0 0 1649.4 0 0 -1649.4 0 0 -274.733 0 0 274.733
0 0 39329.1 0 0 -39329.1 0 0 40839.7 0 0 -40839.7 0 0 18242.3 0 0 -18242.3 0 0 16671 0 0 -16671 0 0 1447.53 0 0 -1447.53 0 0 -392.452 0 0 392.452
0 0 39875.8 0 0 -39875.8 0 0 41407.4 0 0 -41407.4 0 0 18700.3 0 0 -18700.3 0 0 17176.5 0 0 -17176.5 0 0 1266.73 0 0 -1266.73 0 0 -484.939 0 0 484.939
0 0 40356.3 0 0 -40356.3 0 0 41907.4 0 0 -41907.4 0 0 19100.7 0 0 -19100.7 0 0 17605.6 0 0 -17605.6 0 0 1086.68 0 0 -1086.68 0 0 -581.338 0 0 581.338
0 0 40749.4 0 0 -40749.4 0 0 42315.6 0 0 -42315.6 0 0 19427.3 0 0 -19427.3 0 0 17954.1 0 0 -17954.1 0 0 914.428 0 0 -914.428 0 0 -669.025 0 0 669.025
0 0 41034.7 0 0 -41034.7 0 0 42611 0 0 -42611 0 0 19669.9 0 0 -19669.9 0 0 18217.2 0 0 -18217.2 0 0 779.696 0 0 -779.696 0 0 -736.465 0 0 736.465
0 0 41195.2 0 0 -41195.2 0 0 42776.2 0 0 -42776.2 0 0 19825.8 0 0 -19825.8 0 0 18390.7 0 0 -18390.7 0 0 705.35 0 0 -705.35 0 0 -775.355 0 0 775.355
0 0 41218.9 0 0 -41218.9 0 0 42798.3 0 0 -42798.3 0 0 19894 0 0 -19894 0 0 18467.2 0 0 -18467.2 0 0 689.711 0 0 -689.711 0 0 -787.048 0 0 787.048
0 0 41093.5 0 0 -41093.5 0 0 42668.6 0 0 -42668.6 0 0 19870.5 0 0 -19870.5 0 0 18441.4 0 0 -18441.4 0 0 713.992 0 0 -713.992 0 0 -778.914 0 0 778.914
0 0 40813.6 0 0 -40813.6 0 0 42382.3 0 0 -42382.3 0 0 19753.8 0 0 -19753.8 0 0 18320.6 0 0 -18320.6 0 0 766.776 0 0 -766.776 0 0 -722.894 0 0 722.894
0 0 40381.7 0 0 -40381.7 0 0 41940.3 0 0 -41940.3 0 0 19549 0 0 -19549 0 0 18109.3 0 0 -18109.3 0 0 855.821 0 0 -855.821 0 0 -615.441 0 0 615.441
0 0 39807.6 0 0 -39807.6 0 0 41354.3 0 0 -41354.3 0 0 19263 0 0 -19263 0 0 17812.8 0 0 -17812.8 0 0 996.673 0 0 -996.673 0 0 -468.638 0 0 468.638
0 0 39109.6 0 0 -39109.6 0 0 40641.7 0 0 -40641.7 0 0 18902.9 0 0 -18902.9 0 0 17437.6 0 0 -17437.6 0 0 1191.02 0 0 -1191.02 0 0 -287.756 0 0 287.756
0 0 38309.8 0 0 -38309.8 0 0 39825.6 0 0 -39825.6 0 0 18475.9 0 0 -18475.9 0 0 16993.6 0 0 -16993.6 0 0 1424.62 0 0 -1424.62 0 0 -75.8918 0 0 75.8918
0 0 37431.5 0 0 -37431.5 0 0 38931 0 0 -38931 0 0 17990.2 0 0 -17990.2 0 0 16483.9 0 0 -16483.9 0 0 1676.56 0 0 -1676.56 0 0 135.393 0 0 -135.393
0 0 36496.4 0 0 -36496.4 0 0 37980.8 0 0 -37980.8 0 0 17457.6 0 0 -17457.6 0 0 15919.2 0 0 -15919.2 0 0 1932.84 0 0 -1932.84 0 0 326.486 0 0 -326.486
0 0 35522.8 0 0 -35522.8 0 0 36990.8 0 0 -36990.8 0 0 16895.2 0 0 -16895.2 0 0 15323.6 0 0 -15323.6 0 0 2192.04 0 0 -2192.04 0 0 528.458 0 0 -528.458
0 0 34525.7 0 0 -34525.7 0 0 35977 0 0 -35977 0 0 16321.4 0 0 -16321.4 0 0 14714.4 0 0 -14714.4 0 0 2462.89 0 0 -2462.89 0 0 740.914 0 0 -740.914
0 0 33522 0 0 -33522 0 0 34957.4 0 0 -34957.4 0 0 15752.8 0 0 -15752.8 0 0 14110.2 0 0 -14110.2 0 0 2749.62 0 0 -2749.62 0 0 957.194 0 0 -957.194
0 0 32532.1 0 0 -32532.1 0 0 33951.1 0 0 -33951.1 0 0 15205.2 0 0 -15205.2 0 0 13527.5 0 0 -13527.5 0 0 3042.49 0 0 -3042.49 0 0 1172.18 0 0 -1172.18
0 0 31577.1 0 0 -31577.1 0 0 32979.9 0 0 -32979.9 0 0 14692.5 0 0 -14692.5 0 0 12981.7 0 0 -12981.7 0 0 3324.69 0 0 -3324.69 0 0 1380.04 0 0 -1380.04
0 0 30678.1 0 0 -30678.1 0 0 32065.6 0 0 -32065.6 0 0 14228.9 0 0 -14228.9 0 0 12487.2 0 0 -12487.2 0 0 3584.01 0 0 -3584.01 0 0 1576.89 0 0 -1576.89
0 0 29856.7 0 0 -29856.7 0 0 31229.6 0 0 -31229.6 0 0 13827.9 0 0 -13827.9 0 0 12057.4 0 0 -12057.4 0 0 3818.24 0 0 -3818.24 0 0 1759.15 0 0 -1759.15
0 0 29133.1 0 0 -29133.1 0 0 30492.6 0 0 -30492.6 0 0 13500.8 0 0 -13500.8 0 0 11704.8 0 0 -11704.8 0 0 4030.1 0 0 -4030.1 0 0 1923.32 0 0 -1923.32
0 0 28525.3 0 0 -28525.3 0 0 29873 0 0 -29873 0 0 13256.1 0 0 -13256.1 0 0 11439.3 0 0 -11439.3 0 0 4219.13 0 0 -4219.13 0 0 2065.93 0 0 -2065.93
0 0 28046.4 0 0 -28046.4 0 0 29384.2 0 0 -29384.2 0 0 13100.3 0 0 -13100.3 0 0 11268 0 0 -11268 0 0 4378.99 0 0 -4378.99 0 0 2183.92 0 0 -2183.92
0 0 27702.8 0 0 -27702.8 0 0 29032.6 0 0 -29032.6 0 0 13038.7 0 0 -13038.7 0 0 11195.8 0 0 -11195.8 0 0 4501.66 0 0 -4501.66 0 0 2275.23 0 0 -2275.23
0 0 27492.6 0 0 -27492.6 0 0 28816.2 0 0 -28816.2 0 0 13074.4 0 0 -13074.4 0 0 11225.4 0 0 -11225.4 0 0 4583.16 0 0 -4583.16 0 0 2338.76 0 0 -2338.76
0 0 27405.8 0 0 -27405.8 0 0 28724.5 0 0 -28724.5 0 0 13208.4 0 0 -13208.4 0 0 11358.3 0 0 -11358.3 0 0 4625.02 0 0 -4625.02 0 0 2374.05 0 0 -2374.05
0 0 27425.6 0 0 -27425.6 0 0 28740.6 0 0 -28740.6 0 0 13439.2 0 0 -13439.2 0 0 11593.3 0 0 -11593.3 0 0 4630.93 0 0 -4630.93 0 0 2380.58 0 0 -2380.58
0 0 27531 0 0 -27531 0 0 28843 0 0 -28843 0 0 13761.6 0 0 -13761.6 0 0 11923.2 0 0 -11923.2 0 0 4601.73 0 0 -4601.73 0 0 2347.43 0 0 -2347.43
0 0 27695.5 0 0 -27695.5 0 0 29004.8 0 0 -29004.8 0 0 14168.2 0 0 -14168.2 0 0 12341.3 0 0 -12341.3 0 0 4535.1 0 0 -4535.1 0 0 2277.01 0 0 -2277.01
0 0 27888.9 0 0 -27888.9 0 0 29194.4 0 0 -29194.4 0 0 14649.5 0 0 -14649.5 0 0 12837 0 0 -12837 0 0 4430.4 0 0 -4430.4 0 0 2174.36 0 0 -2174.36
0 0 28079.3 0 0 -28079.3 0 0 29379.7 0 0 -29379.7 0 0 15193.3 0 0 -15193.3 0 0 13397.7 0 0 -13397.7 0 0 4292.34 0 0 -4292.34 0 0 2043.13 0 0 -2043.13
0 0 28236.1 0 0 -28236.1 0 0 29529.3 0 0 -29529.3 0 0 15784.4 0 0 -15784.4 0 0 14007.4 0 0 -14007.4 0 0 4128.98 0 0 -4128.98 0 0 1886.79 0 0 -1886.79
0 0 28330.8 0 0 -28330.8 0 0 29613.9 0 0 -29613.9 0 0 16404.8 0 0 -16404.8 0 0 14647.8 0 0 -14647.8 0 0 3947.78 0 0 -3947.78 0 0 1709.81 0 0 -1709.81
0 0 28337.1 0 0 -28337.1 0 0 29606.9 0 0 -29606.9 0 0 17034 0 0 -17034 0 0 15298.4 0 0 -15298.4 0 0 3753.78 0 0 -3753.78 0 0 1518.4 0 0 -1518.4
0 0 28233.4 0 0 -28233.4 0 0 29486.4 0 0 -29486.4 0 0 17650.4 0 0 -17650.4 0 0 15936.5 0 0 -15936.5 0 0 3551.11 0 0 -3551.11 0 0 1319.67 0 0 -1319.67
0 0 28002.8 0 0 -28002.8 0 0 29235.2 0 0 -29235.2 0 0 18231 0 0 -18231 0 0 16538.1 0 0 -16538.1 0 0 3345.41 0 0 -3345.41 0 0 1120.39 0 0 -1120.39
0 0 27632.7 0 0 -27632.7 0 0 28840.9 0 0 -28840.9 0 0 18752.4 0 0 -18752.4 0 0 17079.1 0 0 -17079.1 0 0 3144.12 0 0 -3144.12 0 0 926.427 0 0 -926.427
0 0 27114.2 0 0 -27114.2 0 0 28294.6 0 0 -28294.6 0 0 19191.2 0 0 -19191.2 0 0 17535.7 0 0 -17535.7 0 0 2954.77 0 0 -2954.77 0 0 743.132 0 0 -743.132
0 0 26440.2 0 0 -26440.2 0 0 27589.2 0 0 -27589.2 0 0 19526.1 0 0 -19526.1 0 0 17887.9 0 0 -17887.9 0 0 2784.33 0 0 -2784.33 0 0 583.848 0 0 -583.848
0 0 25604.8 0 0 -25604.8 0 0 26718.9 0 0 -26718.9 0 0 19737.6 0 0 -19737.6 0 0 18113.5 0 0 -18113.5 0 0 2638.03 0 0 -2638.03 0 0 452.352 0 0 -452.352
0 0 24602.5 0 0 -24602.5 0 0 25678.6 0 0 -25678.6 0 0 19808.7 0 0 -19808.7 0 0 18195.4 0 0 -18195.4 0 0 2518.97 0 0 -2518.97 0 0 345.823 0 0 -345.823
0 0 23429.5 0 0 -23429.5 0 0 24464.6 0 0 -24464.6 0 0 19726.2 0 0 -19726.2 0 0 18121.7 0 0 -18121.7 0 0 2428.73 0 0 -2428.73 0 0 274.038 0 0 -274.038
0 0 22085.6 0 0 -22085.6 0 0 23077.2 0 0 -23077.2 0 0 19478.5 0 0 -19478.5 0 0 17875.5 0 0 -17875.5 0 0 2367.8 0 0 -2367.8 0 0 222.668 0 0 -222.668
0 0 20573.2 0 0 -20573.2 0 0 21519.1 0 0 -21519.1 0 0 19059.2 0 0 -19059.2 0 0 17453.8 0 0 -17453.8 0 0 2334.37 0 0 -2334.37 0 0 195.46 0 0 -195.46
0 0 18899.1 0 0 -18899.1 0 0 19796.9 0 0 -19796.9 0 0 18466.4 0 0 -18466.4 0 0 16852.8 0 0 -16852.8 0 0 2327.92 0 0 -2327.92 0 0 192.624 0 0 -192.624
0 0 17073.2 0 0 -17073.2 0 0 17920.9 0 0 -17920.9 0 0 17702.2 0 0 -17702.2 0 0 16076.6 0 0 -16076.6 0 0 2348.6 0 0 -2348.6 0 0 217.935 0 0 -217.935
0 0 15108.7 0 0 -15108.7 0 0 15904.5 0 0 -15904.5 0 0 16772.9 0 0 -16772.9 0 0 15129.8 0 0 -15129.8 0 0 2395.31 0 0 -2395.31 0 0 263.656 0 0 -263.656
0 0 13025.1 0 0 -13025.1 0 0 13822.2 0 0 -13822.2 0 0 15686.9 0 0 -15686.9 0 0 14017.9 0 0 -14017.9 0 0 2463.95 0 0 -2463.95 0 0 326.201 0 0 -326.201
0 0 10882.6 0 0 -10882.6 0 0 11741.4 0 0 -11741.4 0 0 14456.4 0 0 -14456.4 0 0 12743.5 0 0 -12743.5 0 0 2547.12 0 0 -2547.12 0 0 405.47 0 0 -405.47
0 0 8780.59 0 0 -8780.59 0 0 9562.23 0 0 -9562.23 0 0 13087.3 0 0 -13087.3 0 0 11347.1 0 0 -11347.1 0 0 2640.01 0 0 -2640.01 0 0 492.564 0 0 -492.564
0 0 6566.46 0 0 -6566.46 0 0 7279.49 0 0 -7279.49 0 0 11616.4 0 0 -11616.4 0 0 9847.73 0 0 -9847.73 0 0 2734.38 0 0 -2734.38 0 0 585.256 0 0 -585.256
0 0 4301.3 0 0 -4301.3 0 0 4950.59 0 0 -4950.59 0 0 10069 0 0 -10069 0 0 8268.94 0 0 -8268.94 0 0 2825.84 0 0 -2825.84 0 0 672.671 0 0 -672.671
0 0 2026.96 0 0 -2026.96 0 0 2608.71 0 0 -2608.71 0 0 8467.83 0 0 -8467.83 0 0 6633.74 0 0 -6633.74 0 0 2906.51 0 0 -2906.51 0 0 751.015 0 0 -751.015
0 0 -239.508 0 0 239.508 0 0 289.163 0 0 -289.163 0 0 6831.59 0 0 -6831.59 0 0 4965.72 0 0 -4965.72 0 0 2968.94 0 0 -2968.94 0 0 811.877 0 0 -811.877
0 0 -2384.02 0 0 2384.02 0 0 -2010.21 0 0 2010.21 0 0 5194.1 0 0 -5194.1 0 0 3293.07 0 0 -3293.07 0 0 3004.5 0 0 -3004.5 0 0 850.519 0 0 -850.519
0 0 -4446.62 0 0 4446.62 0 0 -4199.09 0 0 4199.09 0 0 3574.02 0 0 -3574.02 0 0 1635.3 0 0 -1635.3 0 0 3007.43 0 0 -3007.43 0 0 860.251 0 0 -860.251
0 0 -6406.47 0 0 6406.47 0 0 -6265.47 0 0 6265.47 0 0 1990.14 0 0 -1990.14 0 0 16.1591 0 0 -16.1591 0 0 2971.84 0 0 -2971.84 0 0 834.187 0 0 -834.187
0 0 -8238.02 0 0 8238.02 0 0 -8200.22 0 0 8200.22 0 0 461.251 0 0 -461.251 0 0 -1568.54 0 0 1568.54 0 0 2891.45 0 0 -2891.45 0 0 764.692 0 0 -764.692
0 0 -9910.54 0 0 9910.54 0 0 -9975.04 0 0 9975.04 0 0 -1001.69 0 0 1001.69 0 0 -3062.63 0 0 3062.63 0 0 2760.25 0 0 -2760.25 0 0 646.426 0 0 -646.426
0 0 -11407.3 0 0 11407.3 0 0 -11565.7 0 0 11565.7 0 0 -2367.99 0 0 2367.99 0 0 -4447.5 0 0 4447.5 0 0 2576.34 0 0 -2576.34 0 0 477.325 0 0 -477.325
0 0 -12726.4 0 0 12726.4 0 0 -12960.6 0 0 12960.6 0 0 -3615.92 0 0 3615.92 0 0 -5714.09 0 0 5714.09 0 0 2337.45 0 0 -2337.45 0 0 254.339 0 0 -254.339
0 0 -13859.8 0 0 13859.8 0 0 -14157.7 0 0 14157.7 0 0 -4734.39 0 0 4734.39 0 0 -6838.76 0 0 6838.76 0 0 2050.01 0 0 -2050.01 0 0 28.1752 0 0 -28.1752
0 0 -14802.7 0 0 14802.7 0 0 -15163.6 0 0 15163.6 0 0 -5707.62 0 0 5707.62 0 0 -7798.51 0 0 7798.51 0 0 1724.7 0 0 -1724.7 0 0 -177.865 0 0 177.865
0 0 -15564.5 0 0 15564.5 0 0 -15974.9 0 0 15974.9 0 0 -6532.18 0 0 6532.18 0 0 -8602.21 0 0 8602.21 0 0 1376.56 0 0 -1376.56 0 0 -384.183 0 0 384.183
0 0 -16153.2 0 0 16153.2 0 0 -16606.9 0 0 16606.9 0 0 -7206.99 0 0 7206.99 0 0 -9243.77 0 0 9243.77 0 0 1000.04 0 0 -1000.04 0 0 -588.227 0 0 588.227
0 0 -16583.8 0 0 16583.8 0 0 -17071.6 0 0 17071.6 0 0 -7736.33 0 0 7736.33 0 0 -9728.51 0 0 9728.51 0 0 585.796 0 0 -585.796 0 0 -804.816 0 0 804.816
0 0 -16874.5 0 0 16874.5 0 0 -17389.8 0 0 17389.8 0 0 -8128.73 0 0 8128.73 0 0 -10069.7 0 0 10069.7 0 0 129.514 0 0 -129.514 0 0 -1047.58 0 0 1047.58
0 0 -17050 0 0 17050 0 0 -17587.9 0 0 17587.9 0 0 -8394.47 0 0 8394.47 0 0 -10276.1 0 0 10276.1 0 0 -370.622 0 0 370.622 0 0 -1309.49 0 0 1309.49
0 0 -17138.7 0 0 17138.7 0 0 -17692.6 0 0 17692.6 0 0 -8548.24 0 0 8548.24 0 0 -10380.2 0 0 10380.2 0 0 -907.847 0 0 907.847 0 0 -1676.27 0 0 1676.27
0 0 -17172.9 0 0 17172.9 0 0 -17732.7 0 0 17732.7 0 0 -8609 0 0 8609 0 0 -10393 0 0 10393 0 0 -1474.64 0 0 1474.64 0 0 -2085.06 0 0 2085.06
0 0 -17181.9 0 0 17181.9 0 0 -17759.1 0 0 17759.1 0 0 -8589.36 0 0 8589.36 0 0 -10321.8 0 0 10321.8 0 0 -2062.57 0 0 2062.57 0 0 -2486.06 0 0 2486.06
0 0 -17207.7 0 0 17207.7 0 0 -17796 0 0 17796 0 0 -8509.12 0 0 8509.12 0 0 -10189.7 0 0 10189.7 0 0 -2647.67 0 0 2647.67 0 0 -2898 0 0 2898
0 0 -17278 0 0 17278 0 0 -17882.5 0 0 17882.5 0 0 -8388.61 0 0 8388.61 0 0 -10019.1 0 0 10019.1 0 0 -3213.51 0 0 3213.51 0 0 -3300.3 0 0 3300.3
0 0 -17418 0 0 17418 0 0 -18032 0 0 18032 0 0 -8266.98 0 0 8266.98 0 0 -9900.26 0 0 9900.26 0 0 -3774.66 0 0 3774.66 0 0 -3928.14 0 0 3928.14
0 0 -17652.9 0 0 17652.9 0 0 -18276.2 0 0 18276.2 0 0 -8167.86 0 0 8167.86 0 0 -9773 0 0 9773 0 0 -4366.1 0 0 4366.1 0 0 -4506.15 0 0 4506.15
0 0 -17998.9 0 0 17998.9 0 0 -18655.4 0 0 18655.4 0 0 -8101.67 0 0 8101.67 0 0 -9698.23 0 0 9698.23 0 0 -4945.42 0 0 4945.42 0 0 -5032.88 0 0 5032.88
0 0 -18486.8 0 0 18486.8 0 0 -19175.3 0 0 19175.3 0 0 -8085.42 0 0 8085.42 0 0 -9671.06 0 0 9671.06 0 0 -5454.41 0 0 5454.41 0 0 -5517.61 0 0 5517.61
0 0 -19122.5 0 0 19122.5 0 0 -19858.9 0 0 19858.9 0 0 -8137.53 0 0 8137.53 0 0 -9729.48 0 0 9729.48 0 0 -5864.84 0 0 5864.84 0 0 -5952.43 0 0 5952.43
0 0 -19917.2 0 0 19917.2 0 0 -20711.6 0 0 20711.6 0 0 -8286.06 0 0 8286.06 0 0 -9881.45 0 0 9881.45 0 0 -6190.94 0 0 6190.94 0 0 -6320.19 0 0 6320.19
0 0 -20876.1 0 0 20876.1 0 0 -21739.2 0 0 21739.2 0 0 -8546.76 0 0 8546.76 0 0 -10144.1 0 0 10144.1 0 0 -6458.35 0 0 6458.35 0 0 -6601.81 0 0 6601.81
0 0 -22004.6 0 0 22004.6 0 0 -22950.7 0 0 22950.7 0 0 -8905.37 0 0 8905.37 0 0 -10494.5 0 0 10494.5 0 0 -6617.4 0 0 6617.4 0 0 -6636.44 0 0 6636.44
0 0 -23294.6 0 0 23294.6 0 0 -24346.8 0 0 24346.8 0 0 -9372.04 0 0 9372.04 0 0 -10970.9 0 0 10970.9 0 0 -6675.85 0 0 6675.85 0 0 -6595.57 0 0 6595.57
0 0 -24746.1 0 0 24746.1 0 0 -25894.1 0 0 25894.1 0 0 -9987.19 0 0 9987.19 0 0 -11609.2 0 0 11609.2 0 0 -6682.72 0 0 6682.72 0 0 -6622.25 0 0 6622.25
0 0 -26348.3 0 0 26348.3 0 0 -27613.3 0 0 27613.3 0 0 -10736.7 0 0 10736.7 0 0 -12379.7 0 0 12379.7 0 0 -6625.93 0 0 6625.93 0 0 -6582.23 0 0 6582.23
0 0 -28106.1 0 0 28106.1 0 0 -29496.2 0 0 29496.2 0 0 -11599 0 0 11599 0 0 -13270.1 0 0 13270.1 0 0 -6500.69 0 0 6500.69 0 0 -6460.54 0 0 6460.54
0 0 -30011 0 0 30011 0 0 -31533.7 0 0 31533.7 0 0 -12562.6 0 0 12562.6 0 0 -14266.6 0 0 14266.6 0 0 -6318.83 0 0 6318.83 0 0 -6262.13 0 0 6262.13
0 0 -32045.7 0 0 32045.7 0 0 -33713.3 0 0 33713.3 0 0 -13612.2 0 0 13612.2 0 0 -15355.3 0 0 15355.3 0 0 -6079.14 0 0 6079.14 0 0 -5997.85 0 0 5997.85
0 0 -34192.8 0 0 34192.8 0 0 -36013.4 0 0 36013.4 0 0 -14732.2 0 0 14732.2 0 0 -16514.7 0 0 16514.7 0 0 -5778.36 0 0 5778.36 0 0 -5682.03 0 0 5682.03
0 0 -36430.1 0 0 36430.1 0 0 -38409 0 0 38409 0 0 -15902.8 0 0 15902.8 0 0 -17725.3 0 0 17725.3 0 0 -5423.97 0 0 5423.97 0 0 -5324.2 0 0 5324.2
0 0 -38729.9 0 0 38729.9 0 0 -40871.4 0 0 40871.4 0 0 -17100.9 0 0 17100.9 0 0 -18965 0 0 18965 0 0 -5033.41 0 0 5033.41 0 0 -4931.1 0 0 4931.1
0 0 -41060.7 0 0 41060.7 0 0 -43367.8 0 0 43367.8 0 0 -18302.8 0 0 18302.8 0 0 -20211.1 0 0 20211.1 0 0 -4624.38 0 0 4624.38 0 0 -4510.7 0 0 4510.7
0 0 -43388.1 0 0 43388.1 0 0 -45861.2 0 0 45861.2 0 0 -19486.1 0 0 19486.1 0 0 -21439.6 0 0 21439.6 0 0 -4207.66 0 0 4207.66 0 0 -4075.3 0 0 4075.3
0 0 -45675.6 0 0 45675.6 0 0 -48312.1 0 0 48312.1 0 0 -20629.1 0 0 20629.1 0 0 -22626.8 0 0 22626.8 0 0 -3789.12 0 0 3789.12 0 0 -3639.74 0 0 3639.74
0 0 -8071.61 0 0 8071.61 0 0 -48915.3 0 0 48915.3 0 0 -21769.7 0 0 21769.7 0 0 -23540.2 0 0 23540.2 0 0 -3401.64 0 0 3401.64 0 0 -3239.03 0 0 3239.03
0 0 -2177.53 0 0 2177.53 0 0 -43320.1 0 0 43320.1 0 0 -18848.2 0 0 18848.2 0 0 -21692.1 0 0 21692.1 0 0 -3642.95 0 0 3642.95 0 0 -3085.82 0 0 3085.82
0 0 -2675.23 0 0 2675.23 0 0 -44532.8 0 0 44532.8 0 0 -20138.1 0 0 20138.1 0 0 -23554.3 0 0 23554.3 0 0 -2926.25 0 0 2926.25 0 0 -2609.16 0 0 2609.16
0 0 -1235.2 0 0 1235.2 0 0 -48320.2 0 0 48320.2 0 0 -20438.2 0 0 20438.2 0 0 -24419.9 0 0 24419.9 0 0 -2484.13 0 0 2484.13 0 0 -2214.82 0 0 2214.82
0 0 -1957.03 0 0 1957.03 0 0 -50831 0 0 50831 0 0 -21134.4 0 0 21134.4 0 0 -25051.9 0 0 25051.9 0 0 -2198.65 0 0 2198.65 0 0 -1831.35 0 0 1831.35
0 0 -2419.41 0 0 2419.41 0 0 -51462.3 0 0 51462.3 0 0 -22264.2 0 0 22264.2 0 0 -25659.2 0 0 25659.2 0 0 -1855.53 0 0 1855.53 0 0 -1539.12 0 0 1539.12
0 0 -2565.12 0 0 2565.12 0 0 -52692.3 0 0 52692.3 0 0 -22823.6 0 0 22823.6 0 0 -26307.4 0 0 26307.4 0 0 -1524.21 0 0 1524.21 0 0 -1272.79 0 0 1272.79
0 0 -2389.25 0 0 2389.25 0 0 -54675.9 0 0 54675.9 0 0 -22905.8 0 0 22905.8 0 0 -26907.6 0 0 26907.6 0 0 -1269.09 0 0 1269.09 0 0 -1007.88 0 0 1007.88
0 0 -2367.93 0 0 2367.93 0 0 -55947.3 0 0 55947.3 0 0 -23248.3 0 0 23248.3 0 0 -27290.3 0 0 27290.3 0 0 -1080.3 0 0 1080.3 0 0 -789.072 0 0 789.072
0 0 -2416.16 0 0 2416.16 0 0 -55513.9 0 0 55513.9 0 0 -23675 0 0 23675 0 0 -27348.1 0 0 27348.1 0 0 -941.38 0 0 941.38 0 0 -649.328 0 0 649.328
0 0 -2331.29 0 0 2331.29 0 0 -55546.2 0 0 55546.2 0 0 -23749.5 0 0 23749.5 0 0 -27407.8 0 0 27407.8 0 0 -837.518 0 0 837.518 0 0 -561.885 0 0 561.885
0 0 -2151.72 0 0 2151.72 0 0 -55901.7 0 0 55901.7 0 0 -23553.6 0 0 23553.6 0 0 -27376.7 0 0 27376.7 0 0 -773.612 0 0 773.612 0 0 -526.191 0 0 526.191
0 0 -1999.07 0 0 1999.07 0 0 -55951.2 0 0 55951.2 0 0 -23378.8 0 0 23378.8 0 0 -27272.9 0 0 27272.9 0 0 -768.812 0 0 768.812 0 0 -522.072 0 0 522.072
0 0 -1857.88 0 0 1857.88 0 0 -56038.4 0 0 56038.4 0 0 -23252 0 0 23252 0 0 -27059.7 0 0 27059.7 0 0 -820.638 0 0 820.638 0 0 -563.794 0 0 563.794
0 0 -1656.36 0 0 1656.36 0 0 -56153.9 0 0 56153.9 0 0 -22984.5 0 0 22984.5 0 0 -26775.8 0 0 26775.8 0 0 -918.713 0 0 918.713 0 0 -644.886 0 0 644.886
0 0 -1423.23 0 0 1423.23 0 0 -55873.1 0 0 55873.1 0 0 -22582.8 0 0 22582.8 0 0 -26530.2 0 0 26530.2 0 0 -1049.67 0 0 1049.67 0 0 -760.681 0 0 760.681
0 0 -1194.97 0 0 1194.97 0 0 -55356.6 0 0 55356.6 0 0 -22137.3 0 0 22137.3 0 0 -26202.3 0 0 26202.3 0 0 -1215.81 0 0 1215.81 0 0 -920.04 0 0 920.04
0 0 -969.633 0 0 969.633 0 0 -54706.1 0 0 54706.1 0 0 -21691 0 0 21691 0 0 -25841.1 0 0 25841.1 0 0 -1423.07 0 0 1423.07 0 0 -1108.71 0 0 1108.71
0 0 -736.703 0 0 736.703 0 0 -53996.4 0 0 53996.4 0 0 -21230 0 0 21230 0 0 -25432.3 0 0 25432.3 0 0 -1662.95 0 0 1662.95 0 0 -1326.72 0 0 1326.72
0 0 -501.176 0 0 501.176 0 0 -53257.1 0 0 53257.1 0 0 -20739.6 0 0 20739.6 0 0 -25019.5 0 0 25019.5 0 0 -1924 0 0 1924 0 0 -1563.72 0 0 1563.72
0 0 -280.511 0 0 280.511 0 0 -52465.8 0 0 52465.8 0 0 -20249.4 0 0 20249.4 0 0 -24612.8 0 0 24612.8 0 0 -2197.84 0 0 2197.84 0 0 -1824.15 0 0 1824.15
0 0 -76.8064 0 0 76.8064 0 0 -51651.1 0 0 51651.1 0 0 -19790.5 0 0 19790.5 0 0 -24225.8 0 0 24225.8 0 0 -2483.87 0 0 2483.87 0 0 -2107.97 0 0 2107.97
0 0 121.254 0 0 -121.254 0 0 -50862.8 0 0 50862.8 0 0 -19378 0 0 19378 0 0 -23867.4 0 0 23867.4 0 0 -2780.43 0 0 2780.43 0 0 -2400.07 0 0 2400.07
0 0 335.811 0 0 -335.811 0 0 -50123.3 0 0 50123.3 0 0 -19014.7 0 0 19014.7 0 0 -23549.3 0 0 23549.3 0 0 -3078.76 0 0 3078.76 0 0 -2690.69 0 0 2690.69
0 0 525.861 0 0 -525.861 0 0 -49447.5 0 0 49447.5 0 0 -18711.9 0 0 18711.9 0 0 -23289.9 0 0 23289.9 0 0 -3366.6 0 0 3366.6 0 0 -2974.26 0 0 2974.26
0 0 676.522 0 0 -676.522 0 0 -48861.4 0 0 48861.4 0 0 -18478.2 0 0 18478.2 0 0 -23101.3 0 0 23101.3 0 0 -3636.8 0 0 3636.8 0 0 -3245.38 0 0 3245.38
0 0 786.261 0 0 -786.261 0 0 -48391.6 0 0 48391.6 0 0 -18325.3 0 0 18325.3 0 0 -22989.7 0 0 22989.7 0 0 -3887.08 0 0 3887.08 0 0 -3497.93 0 0 3497.93
0 0 835.904 0 0 -835.904 0 0 -48054.7 0 0 48054.7 0 0 -18266.5 0 0 18266.5 0 0 -22961.3 0 0 22961.3 0 0 -4115.37 0 0 4115.37 0 0 -3726.09 0 0 3726.09
0 0 869.767 0 0 -869.767 0 0 -47857.3 0 0 47857.3 0 0 -18304.7 0 0 18304.7 0 0 -23022.3 0 0 23022.3 0 0 -4317.53 0 0 4317.53 0 0 -3925.8 0 0 3925.8
0 0 921.174 0 0 -921.174 0 0 -47798.4 0 0 47798.4 0 0 -18426.3 0 0 18426.3 0 0 -23170.8 0 0 23170.8 0 0 -4490.01 0 0 4490.01 0 0 -4095.22 0 0 4095.22
0 0 940.056 0 0 -940.056 0 0 -47893.6 0 0 47893.6 0 0 -18645.3 0 0 18645.3 0 0 -23416.3 0 0 23416.3 0 0 -4628.08 0 0 4628.08 0 0 -4232.08 0 0 4232.08
0 0 935.935 0 0 -935.935 0 0 -48147.8 0 0 48147.8 0 0 -18895.9 0 0 18895.9 0 0 -23746.8 0 0 23746.8 0 0 -3684.55 0 0 3684.55 0 0 -4254.72 0 0 4254.72
0 0 888.202 0 0 -888.202 0 0 -48569.9 0 0 48569.9 0 0 -18788.8 0 0 18788.8 0 0 -23941.6 0 0 23941.6 0 0 -3318.28 0 0 3318.28 0 0 -3992.26 0 0 3992.26
0 0 847.081 0 0 -847.081 0 0 -49067 0 0 49067 0 0 -19419.3 0 0 19419.3 0 0 -24450.8 0 0 24450.8 0 0 -3259.48 0 0 3259.48 0 0 -3826.68 0 0 3826.68
0 0 774.071 0 0 -774.071 0 0 -49628.4 0 0 49628.4 0 0 -19968.8 0 0 19968.8 0 0 -25040.7 0 0 25040.7 0 0 -3267.3 0 0 3267.3 0 0 -3752.47 0 0 3752.47
0 0 685.45 0 0 -685.45 0 0 -50260.7 0 0 50260.7 0 0 -20545.8 0 0 20545.8 0 0 -25777.6 0 0 25777.6 0 0 -3143.46 0 0 3143.46 0 0 -3831.67 0 0 3831.67
0 0 584.129 0 0 -584.129 0 0 -50957.4 0 0 50957.4 0 0 -21239 0 0 21239 0 0 -26539.4 0 0 26539.4 0 0 -2974.52 0 0 2974.52 0 0 -3900.05 0 0 3900.05
0 0 470.673 0 0 -470.673 0 0 -51698.5 0 0 51698.5 0 0 -22051.8 0 0 22051.8 0 0 -27320.4 0 0 27320.4 0 0 -2923.99 0 0 2923.99 0 0 -3870.24 0 0 3870.24
0 0 346.716 0 0 -346.716 0 0 -52472.2 0 0 52472.2 0 0 -22897.7 0 0 22897.7 0 0 -28144.7 0 0 28144.7 0 0 -2972.7 0 0 2972.7 0 0 -3752.74 0 0 3752.74
0 0 3539.84 0 0 -3539.84 0 0 -52085.8 0 0 52085.8 0 0 -10087.1 0 0 10087.1 0 0 -25520.1 0 0 25520.1 0 0 -2167.55 0 0 2167.55 0 0 -3174.06 0 0 3174.06
0 0 1024.13 0 0 -1024.13 0 0 -52667.2 0 0 52667.2 0 0 -8599.25 0 0 8599.25 0 0 -26478 0 0 26478 0 0 -2734.03 0 0 2734.03 0 0 -3279.75 0 0 3279.75
0 0 1610.76 0 0 -1610.76 0 0 -53447.9 0 0 53447.9 0 0 -7580.73 0 0 7580.73 0 0 -26815.1 0 0 26815.1 0 0 -2255.4 0 0 2255.4 0 0 -3022.88 0 0 3022.88
0 0 1271.98 0 0 -1271.98 0 0 -54611.6 0 0 54611.6 0 0 -6674.25 0 0 6674.25 0 0 -28012.9 0 0 28012.9 0 0 -2069.32 0 0 2069.32 0 0 -3024.15 0 0 3024.15
0 0 566.629 0 0 -566.629 0 0 -55409.7 0 0 55409.7 0 0 -5894.75 0 0 5894.75 0 0 -29043.9 0 0 29043.9 0 0 -1913.6 0 0 1913.6 0 0 -2901.98 0 0 2901.98
0 0 150.925 0 0 -150.925 0 0 -56092.4 0 0 56092.4 0 0 -5213.52 0 0 5213.52 0 0 -29695.1 0 0 29695.1 0 0 -1879.27 0 0 1879.27 0 0 -2803.2 0 0 2803.2
0 0 57.3131 0 0 -57.3131 0 0 -56840.1 0 0 56840.1 0 0 -4740.52 0 0 4740.52 0 0 -30264.3 0 0 30264.3 0 0 -1895.37 0 0 1895.37 0 0 -2714.55 0 0 2714.55
0 0 -58.8906 0 0 58.8906 0 0 -56880.8 0 0 56880.8 0 0 -4303.77 0 0 4303.77 0 0 -30995 0 0 30995 0 0 -1836.29 0 0 1836.29 0 0 -2692.42 0 0 2692.42
0 0 -208.528 0 0 208.528 0 0 -56626.4 0 0 56626.4 0 0 -3801.58 0 0 3801.58 0 0 -31944.8 0 0 31944.8 0 0 -1747.47 0 0 1747.47 0 0 -2712.18 0 0 2712.18
0 0 -347.918 0 0 347.918 0 0 -56557.7 0 0 56557.7 0 0 -3420.89 0 0 3420.89 0 0 -32512.4 0 0 32512.4 0 0 -1738.01 0 0 1738.01 0 0 -2765.18 0 0 2765.18
0 0 -456.396 0 0 456.396 0 0 -56735 0 0 56735 0 0 -3228.62 0 0 3228.62 0 0 -32717.9 0 0 32717.9 0 0 -1865.78 0 0 1865.78 0 0 -2875.18 0 0 2875.18
0 0 -547.57 0 0 547.57 0 0 -56721.2 0 0 56721.2 0 0 -2973.08 0 0 2973.08 0 0 -32953.6 0 0 32953.6 0 0 -2014.23 0 0 2014.23 0 0 -2996.5 0 0 2996.5
0 0 -651.014 0 0 651.014 0 0 -56701.6 0 0 56701.6 0 0 -2710.47 0 0 2710.47 0 0 -33296 0 0 33296 0 0 -2152.21 0 0 2152.21 0 0 -3174.95 0 0 3174.95
0 0 -729.004 0 0 729.004 0 0 -56710 0 0 56710 0 0 -2473.54 0 0 2473.54 0 0 -33715.9 0 0 33715.9 0 0 -2298.09 0 0 2298.09 0 0 -3394.75 0 0 3394.75
0 0 -705.312 0 0 705.312 0 0 -56678.9 0 0 56678.9 0 0 -2329.55 0 0 2329.55 0 0 -34178.4 0 0 34178.4 0 0 -2494.13 0 0 2494.13 0 0 -3646.71 0 0 3646.71
0 0 -608.294 0 0 608.294 0 0 -56655.2 0 0 56655.2 0 0 -2293.59 0 0 2293.59 0 0 -34651.9 0 0 34651.9 0 0 -2764.22 0 0 2764.22 0 0 -3922.11 0 0 3922.11
0 0 -430.546 0 0 430.546 0 0 -56499.3 0 0 56499.3 0 0 -2297.62 0 0 2297.62 0 0 -35153.2 0 0 35153.2 0 0 -3076.36 0 0 3076.36 0 0 -4225.61 0 0 4225.61
0 0 -157.548 0 0 157.548 0 0 -56239.7 0 0 56239.7 0 0 -2324.57 0 0 2324.57 0 0 -35707.3 0 0 35707.3 0 0 -3404.57 0 0 3404.57 0 0 -4567.77 0 0 4567.77
0 0 219.334 0 0 -219.334 0 0 -55858.7 0 0 55858.7 0 0 -2361.33 0 0 2361.33 0 0 -36242.1 0 0 36242.1 0 0 -3746.79 0 0 3746.79 0 0 -4947.38 0 0 4947.38
0 0 711.144 0 0 -711.144 0 0 -55251.1 0 0 55251.1 0 0 -2429.62 0 0 2429.62 0 0 -36240.4 0 0 36240.4 0 0 -4111.02 0 0 4111.02 0 0 -5329.86 0 0 5329.86
0 0 1152.81 0 0 -1152.81 0 0 -54515.4 0 0 54515.4 0 0 -2513.59 0 0 2513.59 0 0 -36151 0 0 36151 0 0 -4296.93 0 0 4296.93 0 0 -5707.87 0 0 5707.87
0 0 1384.45 0 0 -1384.45 0 0 -53769 0 0 53769 0 0 -2580.12 0 0 2580.12 0 0 -36304.3 0 0 36304.3 0 0 -4347.61 0 0 4347.61 0 0 -6033.14 0 0 6033.14
0 0 1518.51 0 0 -1518.51 0 0 -52938.7 0 0 52938.7 0 0 -2667.14 0 0 2667.14 0 0 -36388.2 0 0 36388.2 0 0 -4380.42 0 0 4380.42 0 0 -6334.24 0 0 6334.24
0 0 1630.73 0 0 -1630.73 0 0 -52004.3 0 0 52004.3 0 0 -2769.83 0 0 2769.83 0 0 -36398.5 0 0 36398.5 0 0 -4413.42 0 0 4413.42 0 0 -6634.96 0 0 6634.96
0 0 1759.21 0 0 -1759.21 0 0 -51003.7 0 0 51003.7 0 0 -2861.23 0 0 2861.23 0 0 -36515.1 0 0 36515.1 0 0 -4452.69 0 0 4452.69 0 0 -6975.53 0 0 6975.53
0 0 1905.94 0 0 -1905.94 0 0 -49940.9 0 0 49940.9 0 0 -2904.18 0 0 2904.18 0 0 -36541.6 0 0 36541.6 0 0 -4478.26 0 0 4478.26 0 0 -7074.71 0 0 7074.71
0 0 2062.58 0 0 -2062.58 0 0 -48859.1 0 0 48859.1 0 0 -2690.05 0 0 2690.05 0 0 -36413.6 0 0 36413.6 0 0 -3417.79 0 0 3417.79 0 0 -7061.76 0 0 7061.76
0 0 2211.92 0 0 -2211.92 0 0 -47736.4 0 0 47736.4 0 0 -2217.36 0 0 2217.36 0 0 -36137.3 0 0 36137.3 0 0 -2333.65 0 0 2333.65 0 0 -7067.35 0 0 7067.35
0 0 2400.22 0 0 -2400.22 0 0 -46632 0 0 46632 0 0 -2200.98 0 0 2200.98 0 0 -35844 0 0 35844 0 0 -1690.99 0 0 1690.99 0 0 -6965 0 0 6965
0 0 2576.03 0 0 -2576.03 0 0 -45545.9 0 0 45545.9 0 0 -2223.12 0 0 2223.12 0 0 -35539.2 0 0 35539.2 0 0 -1296.77 0 0 1296.77 0 0 -6815.84 0 0 6815.84
0 0 2755.12 0 0 -2755.12 0 0 -44482.8 0 0 44482.8 0 0 -2210.9 0 0 2210.9 0 0 -35275.6 0 0 35275.6 0 0 -1073.08 0 0 1073.08 0 0 -6798.51 0 0 6798.51
0 0 2961.55 0 0 -2961.55 0 0 -43455.1 0 0 43455.1 0 0 -2295.03 0 0 2295.03 0 0 -34966 0 0 34966 0 0 -1067.5 0 0 1067.5 0 0 -6818.61 0 0 6818.61
0 0 3159.14 0 0 -3159.14 0 0 -42461.3 0 0 42461.3 0 0 -2414.41 0 0 2414.41 0 0 -34602.7 0 0 34602.7 0 0 -1067.65 0 0 1067.65 0 0 -6853.98 0 0 6853.98
0 0 3348.64 0 0 -3348.64 0 0 -41520.6 0 0 41520.6 0 0 -2544.56 0 0 2544.56 0 0 -34208.4 0 0 34208.4 0 0 -1012.78 0 0 1012.78 0 0 -6836.05 0 0 6836.05
0 0 3527.59 0 0 -3527.59 0 0 -40643.9 0 0 40643.9 0 0 -2649.65 0 0 2649.65 0 0 -33816.3 0 0 33816.3 0 0 -907.695 0 0 907.695 0 0 -6753.87 0 0 6753.87
0 0 3683.63 0 0 -3683.63 0 0 -39825.2 0 0 39825.2 0 0 -2757.54 0 0 2757.54 0 0 -33450.3 0 0 33450.3 0 0 -759.037 0 0 759.037 0 0 -6666.1 0 0 6666.1
0 0 3826.23 0 0 -3826.23 0 0 -39052.6 0 0 39052.6 0 0 -2855.44 0 0 2855.44 0 0 -33098.6 0 0 33098.6 0 0 -594.673 0 0 594.673 0 0 -6621 0 0 6621
0 0 3959.78 0 0 -3959.78 0 0 -38324.1 0 0 38324.1 0 0 -2979.23 0 0 2979.23 0 0 -32764.9 0 0 32764.9 0 0 -509.908 0 0 509.908 0 0 -6616.4 0 0 6616.4
0 0 4078.41 0 0 -4078.41 0 0 -37640.9 0 0 37640.9 0 0 -3085.93 0 0 3085.93 0 0 -32465.3 0 0 32465.3 0 0 -472.847 0 0 472.847 0 0 -6628.23 0 0 6628.23
0 0 4177.57 0 0 -4177.57 0 0 -37002.5 0 0 37002.5 0 0 -3155.91 0 0 3155.91 0 0 -32211.9 0 0 32211.9 0 0 -431.16 0 0 431.16 0 0 -6628.47 0 0 6628.47
0 0 4255.49 0 0 -4255.49 0 0 -36401.5 0 0 36401.5 0 0 -3183.67 0 0 3183.67 0 0 -32000.7 0 0 32000.7 0 0 -361.028 0 0 361.028 0 0 -6605.31 0 0 6605.31
0 0 4313.38 0 0 -4313.38 0 0 -35822.9 0 0 35822.9 0 0 -3177.09 0 0 3177.09 0 0 -31825.9 0 0 31825.9 0 0 -280.589 0 0 280.589 0 0 -6572.52 0 0 6572.52
0 0 4353.26 0 0 -4353.26 0 0 -35252 0 0 35252 0 0 -3145.96 0 0 3145.96 0 0 -31692.2 0 0 31692.2 0 0 -252.553 0 0 252.553 0 0 -6545.58 0 0 6545.58
0 0 4374.58 0 0 -4374.58 0 0 -34680.4 0 0 34680.4 0 0 -3097.44 0 0 3097.44 0 0 -31609.8 0 0 31609.8 0 0 -208.69 0 0 208.69 0 0 -6524.8 0 0 6524.8
0 0 4370.1 0 0 -4370.1 0 0 -34108.5 0 0 34108.5 0 0 -3047.54 0 0 3047.54 0 0 -31578.9 0 0 31578.9 0 0 -76.9233 0 0 76.9233 0 0 -6474.48 0 0 6474.48
0 0 4346.01 0 0 -4346.01 0 0 -33533.6 0 0 33533.6 0 0 -3026.82 0 0 3026.82 0 0 -31584.7 0 0 31584.7 0 0 82.5782 0 0 -82.5782 0 0 -6358.86 0 0 6358.86
0 0 4303.39 0 0 -4303.39 0 0 -32945.7 0 0 32945.7 0 0 -3031.73 0 0 3031.73 0 0 -31612.6 0 0 31612.6 0 0 238.649 0 0 -238.649 0 0 -6165.78 0 0 6165.78
0 0 4246.54 0 0 -4246.54 0 0 -32334.6 0 0 32334.6 0 0 -2996.46 0 0 2996.46 0 0 -31652.1 0 0 31652.1 0 0 410.473 0 0 -410.473 0 0 -5918.25 0 0 5918.25
0 0 4191 0 0 -4191 0 0 -31684.2 0 0 31684.2 0 0 -2814.29 0 0 2814.29 0 0 -31671.1 0 0 31671.1 0 0 530.823 0 0 -530.823 0 0 -5661.33 0 0 5661.33
0 0 4135.56 0 0 -4135.56 0 0 -30989.3 0 0 30989.3 0 0 -2630.56 0 0 2630.56 0 0 -31689.9 0 0 31689.9 0 0 556.176 0 0 -556.176 0 0 -5445.29 0 0 5445.29
0 0 4077.37 0 0 -4077.37 0 0 -30261.4 0 0 30261.4 0 0 -2430.64 0 0 2430.64 0 0 -31691.5 0 0 31691.5 0 0 577.319 0 0 -577.319 0 0 -5241.71 0 0 5241.71
0 0 4024.13 0 0 -4024.13 0 0 -29509.1 0 0 29509.1 0 0 -2219.96 0 0 2219.96 0 0 -31659.9 0 0 31659.9 0 0 605.838 0 0 -605.838 0 0 -5019.7 0 0 5019.7
0 0 3976.09 0 0 -3976.09 0 0 -28734.1 0 0 28734.1 0 0 -1995.69 0 0 1995.69 0 0 -31571 0 0 31571 0 0 642.707 0 0 -642.707 0 0 -4753.66 0 0 4753.66
0 0 3936.83 0 0 -3936.83 0 0 -27934.9 0 0 27934.9 0 0 -1764.4 0 0 1764.4 0 0 -31409 0 0 31409 0 0 685.987 0 0 -685.987 0 0 -4452.19 0 0 4452.19
0 0 3911.14 0 0 -3911.14 0 0 -27109.1 0 0 27109.1 0 0 -1531.64 0 0 1531.64 0 0 -31167 0 0 31167 0 0 731.002 0 0 -731.002 0 0 -4146.1 0 0 4146.1
0 0 3900.76 0 0 -3900.76 0 0 -26689.5 0 0 26689.5 0 0 -1276.12 0 0 1276.12 0 0 -30772.2 0 0 30772.2 0 0 774.324 0 0 -774.324 0 0 -3866.22 0 0 3866.22
0 0 3919.73 0 0 -3919.73 0 0 -26237.2 0 0 26237.2 0 0 -948.888 0 0 948.888 0 0 -30307.1 0 0 30307.1 0 0 817.044 0 0 -817.044 0 0 -3603.5 0 0 3603.5
0 0 3937.64 0 0 -3937.64 0 0 -25671.5 0 0 25671.5 0 0 -625.758 0 0 625.758 0 0 -29705.7 0 0 29705.7 0 0 865.651 0 0 -865.651 0 0 -3348.66 0 0 3348.66
0 0 3989.67 0 0 -3989.67 0 0 -24993.7 0 0 24993.7 0 0 -373.638 0 0 373.638 0 0 -29043.6 0 0 29043.6 0 0 918.538 0 0 -918.538 0 0 -3086.06 0 0 3086.06
0 0 4062.36 0 0 -4062.36 0 0 -24214.6 0 0 24214.6 0 0 -175.124 0 0 175.124 0 0 -28289.3 0 0 28289.3 0 0 976.073 0 0 -976.073 0 0 -2816.44 0 0 2816.44
0 0 4149.93 0 0 -4149.93 0 0 -23351.3 0 0 23351.3 0 0 -26.9578 0 0 26.9578 0 0 -27459.3 0 0 27459.3 0 0 1034.95 0 0 -1034.95 0 0 -2553.54 0 0 2553.54
0 0 4260 0 0 -4260 0 0 -22387 0 0 22387 0 0 97.9333 0 0 -97.9333 0 0 -26540.4 0 0 26540.4 0 0 1093.7 0 0 -1093.7 0 0 -2310.26 0 0 2310.26
0 0 4394.31 0 0 -4394.31 0 0 -21314.9 0 0 21314.9 0 0 206.19 0 0 -206.19 0 0 -25532 0 0 25532 0 0 1152.6 0 0 -1152.6 0 0 -2089.25 0 0 2089.25
0 0 4551.46 0 0 -4551.46 0 0 -20141.1 0 0 20141.1 0 0 297.243 0 0 -297.243 0 0 -24437.6 0 0 24437.6 0 0 1213.12 0 0 -1213.12 0 0 -1881.19 0 0 1881.19
0 0 4725.72 0 0 -4725.72 0 0 -18873.3 0 0 18873.3 0 0 373.273 0 0 -373.273 0 0 -23262.1 0 0 23262.1 0 0 1276.18 0 0 -1276.18 0 0 -1676.38 0 0 1676.38
0 0 4918.25 0 0 -4918.25 0 0 -17518.2 0 0 17518.2 0 0 436.651 0 0 -436.651 0 0 -22013.7 0 0 22013.7 0 0 1341.48 0 0 -1341.48 0 0 -1472.56 0 0 1472.56
0 0 5128.14 0 0 -5128.14 0 0 -16081.8 0 0 16081.8 0 0 488.759 0 0 -488.759 0 0 -20699.9 0 0 20699.9 0 0 1407.66 0 0 -1407.66 0 0 -1275.34 0 0 1275.34
0 0 5352.83 0 0 -5352.83 0 0 -14572.5 0 0 14572.5 0 0 530.274 0 0 -530.274 0 0 -19328.3 0 0 19328.3 0 0 1473.82 0 0 -1473.82 0 0 -1090.47 0 0 1090.47
0 0 5589.07 0 0 -5589.07 0 0 -13011.9 0 0 13011.9 0 0 563.78 0 0 -563.78 0 0 -17905.8 0 0 17905.8 0 0 1539.94 0 0 -1539.94 0 0 -917.738 0 0 917.738
0 0 5831.77 0 0 -5831.77 0 0 -11407.4 0 0 11407.4 0 0 594.537 0 0 -594.537 0 0 -16443.3 0 0 16443.3 0 0 1606.72 0 0 -1606.72 0 0 -750.708 0 0 750.708
0 0 6084.48 0 0 -6084.48 0 0 -9765.17 0 0 9765.17 0 0 626.617 0 0 -626.617 0 0 -14951.3 0 0 14951.3 0 0 1674.75 0 0 -1674.75 0 0 -581.938 0 0 581.938
0 0 6338.78 0 0 -6338.78 0 0 -8091.26 0 0 8091.26 0 0 662.059 0 0 -662.059 0 0 -13440.3 0 0 13440.3 0 0 1743.39 0 0 -1743.39 0 0 -412.528 0 0 412.528
0 0 6593.59 0 0 -6593.59 0 0 -6386.59 0 0 6386.59 0 0 702.628 0 0 -702.628 0 0 -11925.4 0 0 11925.4 0 0 1811.82 0 0 -1811.82 0 0 -253.124 0 0 253.124
0 0 6846.1 0 0 -6846.1 0 0 -4655.63 0 0 4655.63 0 0 752.052 0 0 -752.052 0 0 -10411.7 0 0 10411.7 0 0 1880.6 0 0 -1880.6 0 0 -85.4718 0 0 85.4718
0 0 7094.19 0 0 -7094.19 0 0 -2901.39 0 0 2901.39 0 0 813.256 0 0 -813.256 0 0 -8913.78 0 0 8913.78 0 0 1949.48 0 0 -1949.48 0 0 86.8753 0 0 -86.8753
0 0 7335.31 0 0 -7335.31 0 0 -1202.23 0 0 1202.23 0 0 889.326 0 0 -889.326 0 0 -7432.94 0 0 7432.94 0 0 2016.86 0 0 -2016.86 0 0 246.938 0 0 -246.938
0 0 7562.52 0 0 -7562.52 0 0 299.069 0 0 -299.069 0 0 984.37 0 0 -984.37 0 0 -6023.56 0 0 6023.56 0 0 2081.13 0 0 -2081.13 0 0 370.394 0 0 -370.394
0 0 7776.72 0 0 -7776.72 0 0 1770.25 0 0 -1770.25 0 0 1096.62 0 0 -1096.62 0 0 -4726.53 0 0 4726.53 0 0 2144.88 0 0 -2144.88 0 0 472.205 0 0 -472.205
0 0 7977.36 0 0 -7977.36 0 0 3165.93 0 0 -3165.93 0 0 1226.45 0 0 -1226.45 0 0 -3491.48 0 0 3491.48 0 0 2207.67 0 0 -2207.67 0 0 575.144 0 0 -575.144
0 0 8164.92 0 0 -8164.92 0 0 4532.85 0 0 -4532.85 0 0 1380.7 0 0 -1380.7 0 0 -2276.53 0 0 2276.53 0 0 2269.38 0 0 -2269.38 0 0 685.588 0 0 -685.588
0 0 8350.58 0 0 -8350.58 0 0 5875.47 0 0 -5875.47 0 0 1775.7 0 0 -1775.7 0 0 -1077.53 0 0 1077.53 0 0 2327.27 0 0 -2327.27 0 0 792.183 0 0 -792.183
0 0 8515.91 0 0 -8515.91 0 0 7185.19 0 0 -7185.19 0 0 2162.48 0 0 -2162.48 0 0 43.2614 0 0 -43.2614 0 0 2385.16 0 0 -2385.16 0 0 905.173 0 0 -905.173
0 0 8666.96 0 0 -8666.96 0 0 8437.16 0 0 -8437.16 0 0 2548.94 0 0 -2548.94 0 0 1108.25 0 0 -1108.25 0 0 2442.05 0 0 -2442.05 0 0 1027.62 0 0 -1027.62
0 0 8803.09 0 0 -8803.09 0 0 9633.31 0 0 -9633.31 0 0 2939.46 0 0 -2939.46 0 0 2132.18 0 0 -2132.18 0 0 2498.5 0 0 -2498.5 0 0 1146.24 0 0 -1146.24
0 0 8940.83 0 0 -8940.83 0 0 10774.4 0 0 -10774.4 0 0 3311.24 0 0 -3311.24 0 0 3105.33 0 0 -3105.33 0 0 2556.51 0 0 -2556.51 0 0 1271.58 0 0 -1271.58
0 0 9040.46 0 0 -9040.46 0 0 11858.3 0 0 -11858.3 0 0 3699.2 0 0 -3699.2 0 0 4036.11 0 0 -4036.11 0 0 2612.87 0 0 -2612.87 0 0 1400.41 0 0 -1400.41
0 0 9167.64 0 0 -9167.64 0 0 12903 0 0 -12903 0 0 4578.19 0 0 -4578.19 0 0 5001.36 0 0 -5001.36 0 0 2663.39 0 0 -2663.39 0 0 1536.07 0 0 -1536.07
0 0 9278.49 0 0 -9278.49 0 0 13891 0 0 -13891 0 0 5469.89 0 0 -5469.89 0 0 5950.15 0 0 -5950.15 0 0 2715.47 0 0 -2715.47 0 0 1668.39 0 0 -1668.39
0 0 9380.06 0 0 -9380.06 0 0 14804.2 0 0 -14804.2 0 0 6273.64 0 0 -6273.64 0 0 6862.69 0 0 -6862.69 0 0 2766.94 0 0 -2766.94 0 0 1810.02 0 0 -1810.02
0 0 9469.9 0 0 -9469.9 0 0 15633.8 0 0 -15633.8 0 0 7073.19 0 0 -7073.19 0 0 7721.64 0 0 -7721.64 0 0 2816.9 0 0 -2816.9 0 0 1949.15 0 0 -1949.15
0 0 9547.62 0 0 -9547.62 0 0 16390.9 0 0 -16390.9 0 0 7853.48 0 0 -7853.48 0 0 8530.42 0 0 -8530.42 0 0 2867.44 0 0 -2867.44 0 0 2089.35 0 0 -2089.35
0 0 9612.47 0 0 -9612.47 0 0 17083.3 0 0 -17083.3 0 0 8588.21 0 0 -8588.21 0 0 9305.52 0 0 -9305.52 0 0 2917.75 0 0 -2917.75 0 0 2229.01 0 0 -2229.01
0 0 10220 0 0 -10220 0 0 17762.4 0 0 -17762.4 0 0 9313.91 0 0 -9313.91 0 0 10069.6 0 0 -10069.6 0 0 2971.01 0 0 -2971.01 0 0 2365.82 0 0 -2365.82
0 0 10960.9 0 0 -10960.9 0 0 18456.5 0 0 -18456.5 0 0 10023.4 0 0 -10023.4 0 0 10829.6 0 0 -10829.6 0 0 3019.78 0 0 -3019.78 0 0 2499.79 0 0 -2499.79
0 0 11641.8 0 0 -11641.8 0 0 19087.5 0 0 -19087.5 0 0 10743.1 0 0 -10743.1 0 0 11536.7 0 0 -11536.7 0 0 3322.05 0 0 -3322.05 0 0 2651.12 0 0 -2651.12
0 0 12321.4 0 0 -12321.4 0 0 19657.5 0 0 -19657.5 0 0 11553.5 0 0 -11553.5 0 0 12246.2 0 0 -12246.2 0 0 3708.91 0 0 -3708.91 0 0 2844.26 0 0 -2844.26
0 0 12992.2 0 0 -12992.2 0 0 20214 0 0 -20214 0 0 12253.9 0 0 -12253.9 0 0 12909.3 0 0 -12909.3 0 0 4058.97 0 0 -4058.97 0 0 3003.51 0 0 -3003.51
0 0 13615.6 0 0 -13615.6 0 0 20775.5 0 0 -20775.5 0 0 12899.7 0 0 -12899.7 0 0 13524.9 0 0 -13524.9 0 0 4371.97 0 0 -4371.97 0 0 3079.34 0 0 -3079.34
0 0 14242.4 0 0 -14242.4 0 0 21342.1 0 0 -21342.1 0 0 13524.2 0 0 -13524.2 0 0 14074.6 0 0 -14074.6 0 0 4669.15 0 0 -4669.15 0 0 3079.88 0 0 -3079.88
0 0 14902.2 0 0 -14902.2 0 0 21899.9 0 0 -21899.9 0 0 14134 0 0 -14134 0 0 14604.7 0 0 -14604.7 0 0 4958.2 0 0 -4958.2 0 0 3121.51 0 0 -3121.51
0 0 15572.4 0 0 -15572.4 0 0 22477.4 0 0 -22477.4 0 0 14702.7 0 0 -14702.7 0 0 15112.6 0 0 -15112.6 0 0 5246.39 0 0 -5246.39 0 0 3162.64 0 0 -3162.64
0 0 16257.5 0 0 -16257.5 0 0 23086.3 0 0 -23086.3 0 0 15227.5 0 0 -15227.5 0 0 15573.7 0 0 -15573.7 0 0 5499.75 0 0 -5499.75 0 0 2988.73 0 0 -2988.73
0 0 16979.2 0 0 -16979.2 0 0 23758.9 0 0 -23758.9 0 0 15676.7 0 0 -15676.7 0 0 15849.9 0 0 -15849.9 0 0 5635.72 0 0 -5635.72 0 0 2395.31 0 0 -2395.31
0 0 17749.7 0 0 -17749.7 0 0 24439.2 0 0 -24439.2 0 0 16097.1 0 0 -16097.1 0 0 16158.6 0 0 -16158.6 0 0 5587.01 0 0 -5587.01 0 0 1876.1 0 0 -1876.1
0 0 18535 0 0 -18535 0 0 25133.4 0 0 -25133.4 0 0 16529.7 0 0 -16529.7 0 0 16530.2 0 0 -16530.2 0 0 5526.57 0 0 -5526.57 0 0 1643.29 0 0 -1643.29
0 0 19338.7 0 0 -19338.7 0 0 25863.6 0 0 -25863.6 0 0 16954.3 0 0 -16954.3 0 0 16825.7 0 0 -16825.7 0 0 5591.98 0 0 -5591.98 0 0 1326.29 0 0 -1326.29
0 0 20179.4 0 0 -20179.4 0 0 26604.6 0 0 -26604.6 0 0 17380 0 0 -17380 0 0 17221.5 0 0 -17221.5 0 0 5756.71 0 0 -5756.71 0 0 1311.51 0 0 -1311.51
0 0 21053.8 0 0 -21053.8 0 0 27355.6 0 0 -27355.6 0 0 17808.4 0 0 -17808.4 0 0 17633.3 0 0 -17633.3 0 0 5951.48 0 0 -5951.48 0 0 1431.38 0 0 -1431.38
0 0 21939.8 0 0 -21939.8 0 0 28149 0 0 -28149 0 0 18212.3 0 0 -18212.3 0 0 18020.9 0 0 -18020.9 0 0 6093.26 0 0 -6093.26 0 0 1468.89 0 0 -1468.89
0 0 22861.3 0 0 -22861.3 0 0 28965.7 0 0 -28965.7 0 0 18601.7 0 0 -18601.7 0 0 18373.9 0 0 -18373.9 0 0 6121.89 0 0 -6121.89 0 0 1460.37 0 0 -1460.37
0 0 23810.2 0 0 -23810.2 0 0 29807.9 0 0 -29807.9 0 0 18971.7 0 0 -18971.7 0 0 18700.3 0 0 -18700.3 0 0 6068.76 0 0 -6068.76 0 0 1403.74 0 0 -1403.74
0 0 24775.8 0 0 -24775.8 0 0 30672 0 0 -30672 0 0 19323.9 0 0 -19323.9 0 0 19021.2 0 0 -19021.2 0 0 6002.57 0 0 -6002.57 0 0 1355.21 0 0 -1355.21
0 0 25755.9 0 0 -25755.9 0 0 31549.8 0 0 -31549.8 0 0 19666.7 0 0 -19666.7 0 0 19338.8 0 0 -19338.8 0 0 5964.89 0 0 -5964.89 0 0 1319.98 0 0 -1319.98
0 0 26745.9 0 0 -26745.9 0 0 32443.7 0 0 -32443.7 0 0 19992.6 0 0 -19992.6 0 0 19628.1 0 0 -19628.1 0 0 5936.41 0 0 -5936.41 0 0 1226.56 0 0 -1226.56
0 0 27741.2 0 0 -27741.2 0 0 33341.4 0 0 -33341.4 0 0 20296.8 0 0 -20296.8 0 0 19899.2 0 0 -19899.2 0 0 5858.16 0 0 -5858.16 0 0 1114.52 0 0 -1114.52
0 0 28728.9 0 0 -28728.9 0 0 34235.2 0 0 -34235.2 0 0 20576.2 0 0 -20576.2 0 0 20145.5 0 0 -20145.5 0 0 5709.18 0 0 -5709.18 0 0 992.111 0 0 -992.111
0 0 29697.8 0 0 -29697.8 0 0 35115.9 0 0 -35115.9 0 0 20831.3 0 0 -20831.3 0 0 20369.4 0 0 -20369.4 0 0 5518.99 0 0 -5518.99 0 0 861.45 0 0 -861.45
0 0 30641.3 0 0 -30641.3 0 0 35974 0 0 -35974 0 0 21064.1 0 0 -21064.1 0 0 20572 0 0 -20572 0 0 5331.53 0 0 -5331.53 0 0 734.748 0 0 -734.748
0 0 31551.2 0 0 -31551.2 0 0 36802.4 0 0 -36802.4 0 0 21269.4 0 0 -21269.4 0 0 20748.7 0 0 -20748.7 0 0 5163.36 0 0 -5163.36 0 0 592.997 0 0 -592.997
0 0 30144.7 0 0 -30144.7 0 0 11445.1 0 0 -11445.1 0 0 19703.4 0 0 -19703.4 0 0 16473.7 0 0 -16473.7 0 0 5133.37 0 0 -5133.37 0 0 757.653 0 0 -757.653
0 0 23070 0 0 -23070 0 0 -102.394 0 0 102.394 0 0 16452.6 0 0 -16452.6 0 0 15521.5 0 0 -15521.5 0 0 5139.23 0 0 -5139.23 0 0 504.719 0 0 -504.719
0 0 22927.3 0 0 -22927.3 0 0 -1407.75 0 0 1407.75 0 0 16223.5 0 0 -16223.5 0 0 15240 0 0 -15240 0 0 4806.18 0 0 -4806.18 0 0 541.899 0 0 -541.899
0 0 28761.4 0 0 -28761.4 0 0 2994.71 0 0 -2994.71 0 0 18301.9 0 0 -18301.9 0 0 16621.2 0 0 -16621.2 0 0 4387.98 0 0 -4387.98 0 0 51.9262 0 0 -51.9262
0 0 31665.1 0 0 -31665.1 0 0 6216.68 0 0 -6216.68 0 0 19579.6 0 0 -19579.6 0 0 17433 0 0 -17433 0 0 4021.33 0 0 -4021.33 0 0 -160.857 0 0 160.857
0 0 30203.3 0 0 -30203.3 0 0 3796.9 0 0 -3796.9 0 0 19004.3 0 0 -19004.3 0 0 17357.3 0 0 -17357.3 0 0 3790.45 0 0 -3790.45 0 0 -234.418 0 0 234.418
0 0 29036.8 0 0 -29036.8 0 0 1720.42 0 0 -1720.42 0 0 18468.2 0 0 -18468.2 0 0 17322.9 0 0 -17322.9 0 0 3551.03 0 0 -3551.03 0 0 -333.776 0 0 333.776
0 0 30903.6 0 0 -30903.6 0 0 2883.79 0 0 -2883.79 0 0 19209.7 0 0 -19209.7 0 0 17924.7 0 0 -17924.7 0 0 3212.83 0 0 -3212.83 0 0 -318.575 0 0 318.575
0 0 33218.3 0 0 -33218.3 0 0 3625.22 0 0 -3625.22 0 0 20164.5 0 0 -20164.5 0 0 18391.2 0 0 -18391.2 0 0 2870.51 0 0 -2870.51 0 0 -405.046 0 0 405.046
0 0 33422.3 0 0 -33422.3 0 0 4086.52 0 0 -4086.52 0 0 20413.8 0 0 -20413.8 0 0 18740 0 0 -18740 0 0 2567.75 0 0 -2567.75 0 0 -529.601 0 0 529.601
0 0 33307.1 0 0 -33307.1 0 0 3323.32 0 0 -3323.32 0 0 20456.8 0 0 -20456.8 0 0 18905.7 0 0 -18905.7 0 0 2274.03 0 0 -2274.03 0 0 -578.831 0 0 578.831
0 0 33845.9 0 0 -33845.9 0 0 2491.32 0 0 -2491.32 0 0 20643.9 0 0 -20643.9 0 0 19096.8 0 0 -19096.8 0 0 1987.23 0 0 -1987.23 0 0 -691.15 0 0 691.15
0 0 34630.8 0 0 -34630.8 0 0 3081.51 0 0 -3081.51 0 0 20992.5 0 0 -20992.5 0 0 19391.9 0 0 -19391.9 0 0 1709.5 0 0 -1709.5 0 0 -757.663 0 0 757.663
0 0 35264.1 0 0 -35264.1 0 0 3178.44 0 0 -3178.44 0 0 21263.3 0 0 -21263.3 0 0 19579.3 0 0 -19579.3 0 0 1456.05 0 0 -1456.05 0 0 -785.597 0 0 785.597
0 0 35413.6 0 0 -35413.6 0 0 2646.28 0 0 -2646.28 0 0 21288.7 0 0 -21288.7 0 0 19593.6 0 0 -19593.6 0 0 1236.59 0 0 -1236.59 0 0 -867.872 0 0 867.872
0 0 35380.8 0 0 -35380.8 0 0 2032.1 0 0 -2032.1 0 0 21172.4 0 0 -21172.4 0 0 19522.2 0 0 -19522.2 0 0 1031.37 0 0 -1031.37 0 0 -911.327 0 0 911.327
0 0 35525.7 0 0 -35525.7 0 0 1874.3 0 0 -1874.3 0 0 21063.3 0 0 -21063.3 0 0 19441.6 0 0 -19441.6 0 0 846.772 0 0 -846.772 0 0 -972.54 0 0 972.54
0 0 35802.3 0 0 -35802.3 0 0 2059.83 0 0 -2059.83 0 0 20972 0 0 -20972 0 0 19334.4 0 0 -19334.4 0 0 693.876 0 0 -693.876 0 0 -1017.66 0 0 1017.66
0 0 35900.8 0 0 -35900.8 0 0 2050.66 0 0 -2050.66 0 0 20764.5 0 0 -20764.5 0 0 19106.7 0 0 -19106.7 0 0 581.395 0 0 -581.395 0 0 -1047.04 0 0 1047.04
0 0 35723.6 0 0 -35723.6 0 0 1997.46 0 0 -1997.46 0 0 20401.3 0 0 -20401.3 0 0 18772.1 0 0 -18772.1 0 0 503.189 0 0 -503.189 0 0 -1073.5 0 0 1073.5
0 0 35505.2 0 0 -35505.2 0 0 1856.85 0 0 -1856.85 0 0 19952.9 0 0 -19952.9 0 0 18340.4 0 0 -18340.4 0 0 448.025 0 0 -448.025 0 0 -1086.63 0 0 1086.63
0 0 35275.4 0 0 -35275.4 0 0 1636.16 0 0 -1636.16 0 0 19443 0 0 -19443 0 0 17820.9 0 0 -17820.9 0 0 416.147 0 0 -416.147 0 0 -1103.42 0 0 1103.42
0 0 34911.4 0 0 -34911.4 0 0 1331.59 0 0 -1331.59 0 0 18845.1 0 0 -18845.1 0 0 17209.9 0 0 -17209.9 0 0 408.699 0 0 -408.699 0 0 -1104.58 0 0 1104.58
0 0 34419.4 0 0 -34419.4 0 0 995.954 0 0 -995.954 0 0 18169.8 0 0 -18169.8 0 0 16532.4 0 0 -16532.4 0 0 432.908 0 0 -432.908 0 0 -1068.18 0 0 1068.18
0 0 33899.7 0 0 -33899.7 0 0 752.286 0 0 -752.286 0 0 17458.6 0 0 -17458.6 0 0 15821.6 0 0 -15821.6 0 0 491.001 0 0 -491.001 0 0 -1004.87 0 0 1004.87
0 0 33418.7 0 0 -33418.7 0 0 782.487 0 0 -782.487 0 0 16753 0 0 -16753 0 0 15123.6 0 0 -15123.6 0 0 576.616 0 0 -576.616 0 0 -919.769 0 0 919.769
0 0 32977.8 0 0 -32977.8 0 0 976.382 0 0 -976.382 0 0 16066.4 0 0 -16066.4 0 0 14433.9 0 0 -14433.9 0 0 682.339 0 0 -682.339 0 0 -813.339 0 0 813.339
0 0 32474.3 0 0 -32474.3 0 0 1138.69 0 0 -1138.69 0 0 15376.6 0 0 -15376.6 0 0 13743.5 0 0 -13743.5 0 0 803.754 0 0 -803.754 0 0 -686.492 0 0 686.492
0 0 31724.4 0 0 -31724.4 0 0 1174.07 0 0 -1174.07 0 0 14700.3 0 0 -14700.3 0 0 13055.1 0 0 -13055.1 0 0 936.443 0 0 -936.443 0 0 -542.567 0 0 542.567
0 0 30977 0 0 -30977 0 0 1208.15 0 0 -1208.15 0 0 14045.3 0 0 -14045.3 0 0 12400.9 0 0 -12400.9 0 0 1080.31 0 0 -1080.31 0 0 -390.289 0 0 390.289
0 0 30273.4 0 0 -30273.4 0 0 1282.87 0 0 -1282.87 0 0 13449.5 0 0 -13449.5 0 0 11800.9 0 0 -11800.9 0 0 1229.5 0 0 -1229.5 0 0 -241.599 0 0 241.599
0 0 29601.3 0 0 -29601.3 0 0 1350.46 0 0 -1350.46 0 0 12916.8 0 0 -12916.8 0 0 11260.5 0 0 -11260.5 0 0 1376.99 0 0 -1376.99 0 0 -110.501 0 0 110.501
0 0 28933.9 0 0 -28933.9 0 0 1367.17 0 0 -1367.17 0 0 12439.1 0 0 -12439.1 0 0 10773.9 0 0 -10773.9 0 0 1507.47 0 0 -1507.47 0 0 -31.1555 0 0 31.1555
0 0 28281.7 0 0 -28281.7 0 0 1330.11 0 0 -1330.11 0 0 12025.2 0 0 -12025.2 0 0 10354.6 0 0 -10354.6 0 0 1622.46 0 0 -1622.46 0 0 14.3818 0 0 -14.3818
0 0 27680.9 0 0 -27680.9 0 0 1297.45 0 0 -1297.45 0 0 11695.9 0 0 -11695.9 0 0 10024.9 0 0 -10024.9 0 0 1721.21 0 0 -1721.21 0 0 50.1363 0 0 -50.1363
0 0 27125.8 0 0 -27125.8 0 0 1271.23 0 0 -1271.23 0 0 11469.4 0 0 -11469.4 0 0 9793.29 0 0 -9793.29 0 0 1807.83 0 0 -1807.83 0 0 73.9211 0 0 -73.9211
0 0 26605.2 0 0 -26605.2 0 0 1209.29 0 0 -1209.29 0 0 11340 0 0 -11340 0 0 9660.04 0 0 -9660.04 0 0 1888.04 0 0 -1888.04 0 0 96.8429 0 0 -96.8429
0 0 26102.6 0 0 -26102.6 0 0 1096.54 0 0 -1096.54 0 0 11299.7 0 0 -11299.7 0 0 9619.92 0 0 -9619.92 0 0 1963.35 0 0 -1963.35 0 0 120.661 0 0 -120.661
0 0 25632.8 0 0 -25632.8 0 0 941.091 0 0 -941.091 0 0 11347.4 0 0 -11347.4 0 0 9672.9 0 0 -9672.9 0 0 2029.67 0 0 -2029.67 0 0 141.926 0 0 -141.926
0 0 25219 0 0 -25219 0 0 773.394 0 0 -773.394 0 0 11485.2 0 0 -11485.2 0 0 9817.26 0 0 -9817.26 0 0 2080.99 0 0 -2080.99 0 0 158.51 0 0 -158.51
0 0 24867.3 0 0 -24867.3 0 0 598.751 0 0 -598.751 0 0 11708.2 0 0 -11708.2 0 0 10046.4 0 0 -10046.4 0 0 2114.84 0 0 -2114.84 0 0 169.633 0 0 -169.633
0 0 24566.8 0 0 -24566.8 0 0 402.588 0 0 -402.588 0 0 12004 0 0 -12004 0 0 10349.2 0 0 -10349.2 0 0 2133.87 0 0 -2133.87 0 0 176.213 0 0 -176.213
0 0 24307.9 0 0 -24307.9 0 0 180.693 0 0 -180.693 0 0 12360.7 0 0 -12360.7 0 0 10715.3 0 0 -10715.3 0 0 2142.79 0 0 -2142.79 0 0 180.619 0 0 -180.619
0 0 24090.6 0 0 -24090.6 0 0 -49.3455 0 0 49.3455 0 0 12770.8 0 0 -12770.8 0 0 11137.4 0 0 -11137.4 0 0 2144.15 0 0 -2144.15 0 0 178.995 0 0 -178.995
0 0 23919.4 0 0 -23919.4 0 0 -231.084 0 0 231.084 0 0 13230.1 0 0 -13230.1 0 0 11609.7 0 0 -11609.7 0 0 2136.66 0 0 -2136.66 0 0 163.393 0 0 -163.393
0 0 23789.2 0 0 -23789.2 0 0 -397.127 0 0 397.127 0 0 13728.5 0 0 -13728.5 0 0 12117.8 0 0 -12117.8 0 0 2117.69 0 0 -2117.69 0 0 140.467 0 0 -140.467
0 0 23667.5 0 0 -23667.5 0 0 -554.907 0 0 554.907 0 0 14248.6 0 0 -14248.6 0 0 12649.6 0 0 -12649.6 0 0 2089.53 0 0 -2089.53 0 0 114.004 0 0 -114.004
0 0 23531.8 0 0 -23531.8 0 0 -719.964 0 0 719.964 0 0 14776.5 0 0 -14776.5 0 0 13192 0 0 -13192 0 0 2058.33 0 0 -2058.33 0 0 92.198 0 0 -92.198
0 0 23369.1 0 0 -23369.1 0 0 -908.932 0 0 908.932 0 0 15300.7 0 0 -15300.7 0 0 13729.9 0 0 -13729.9 0 0 2030.55 0 0 -2030.55 0 0 68.5973 0 0 -68.5973
0 0 23159.1 0 0 -23159.1 0 0 -1140.82 0 0 1140.82 0 0 15807.7 0 0 -15807.7 0 0 14250.2 0 0 -14250.2 0 0 2008.12 0 0 -2008.12 0 0 46.8663 0 0 -46.8663
0 0 22874.8 0 0 -22874.8 0 0 -1432.88 0 0 1432.88 0 0 16282 0 0 -16282 0 0 14737.9 0 0 -14737.9 0 0 1990.61 0 0 -1990.61 0 0 28.9186 0 0 -28.9186
0 0 22495.5 0 0 -22495.5 0 0 -1802.1 0 0 1802.1 0 0 16710.1 0 0 -16710.1 0 0 15180.2 0 0 -15180.2 0 0 1978.41 0 0 -1978.41 0 0 19.7187 0 0 -19.7187
0 0 22059 0 0 -22059 0 0 -2017.23 0 0 2017.23 0 0 17071 0 0 -17071 0 0 15499 0 0 -15499 0 0 1974.76 0 0 -1974.76 0 0 21.0843 0 0 -21.0843
0 0 21493 0 0 -21493 0 0 -2266.69 0 0 2266.69 0 0 17356.8 0 0 -17356.8 0 0 15778 0 0 -15778 0 0 1982.99 0 0 -1982.99 0 0 29.078 0 0 -29.078
0 0 20806 0 0 -20806 0 0 -2634.03 0 0 2634.03 0 0 17571.1 0 0 -17571.1 0 0 15949.8 0 0 -15949.8 0 0 2003.89 0 0 -2003.89 0 0 46.6757 0 0 -46.6757
0 0 19974.7 0 0 -19974.7 0 0 -3144.76 0 0 3144.76 0 0 17697 0 0 -17697 0 0 16046.5 0 0 -16046.5 0 0 2038.71 0 0 -2038.71 0 0 64.9321 0 0 -64.9321
0 0 19001.2 0 0 -19001.2 0 0 -3560.5 0 0 3560.5 0 0 17744.9 0 0 -17744.9 0 0 16082.5 0 0 -16082.5 0 0 2083.23 0 0 -2083.23 0 0 93.0824 0 0 -93.0824
0 0 17982.8 0 0 -17982.8 0 0 -3777.38 0 0 3777.38 0 0 17748.2 0 0 -17748.2 0 0 16073.6 0 0 -16073.6 0 0 2134.13 0 0 -2134.13 0 0 115.707 0 0 -115.707
0 0 16909.6 0 0 -16909.6 0 0 -3972.9 0 0 3972.9 0 0 17682.3 0 0 -17682.3 0 0 15986.4 0 0 -15986.4 0 0 2192.77 0 0 -2192.77 0 0 133.066 0 0 -133.066
0 0 15677.6 0 0 -15677.6 0 0 -4221.68 0 0 4221.68 0 0 17502.6 0 0 -17502.6 0 0 15796.4 0 0 -15796.4 0 0 2261.22 0 0 -2261.22 0 0 154.762 0 0 -154.762
0 0 14291.7 0 0 -14291.7 0 0 -4548.82 0 0 4548.82 0 0 17199.5 0 0 -17199.5 0 0 15495.7 0 0 -15495.7 0 0 2341.2 0 0 -2341.2 0 0 181.396 0 0 -181.396
0 0 12941.1 0 0 -12941.1 0 0 -4851.26 0 0 4851.26 0 0 16790.9 0 0 -16790.9 0 0 15101 0 0 -15101 0 0 2429.57 0 0 -2429.57 0 0 208.266 0 0 -208.266
0 0 11666.7 0 0 -11666.7 0 0 -5024.65 0 0 5024.65 0 0 16281.2 0 0 -16281.2 0 0 14624.4 0 0 -14624.4 0 0 2525.48 0 0 -2525.48 0 0 234.277 0 0 -234.277
0 0 10348.7 0 0 -10348.7 0 0 -5196.5 0 0 5196.5 0 0 15681.5 0 0 -15681.5 0 0 14052.9 0 0 -14052.9 0 0 2626.78 0 0 -2626.78 0 0 264.115 0 0 -264.115
0 0 9061.19 0 0 -9061.19 0 0 -5371.71 0 0 5371.71 0 0 14986.9 0 0 -14986.9 0 0 13384.4 0 0 -13384.4 0 0 2730.85 0 0 -2730.85 0 0 290.932 0 0 -290.932
0 0 7746.26 0 0 -7746.26 0 0 -5560.53 0 0 5560.53 0 0 14191.5 0 0 -14191.5 0 0 12612.5 0 0 -12612.5 0 0 2833.29 0 0 -2833.29 0 0 319.703 0 0 -319.703
0 0 6392.55 0 0 -6392.55 0 0 -5743.88 0 0 5743.88 0 0 13304 0 0 -13304 0 0 11748.3 0 0 -11748.3 0 0 2931.56 0 0 -2931.56 0 0 344.685 0 0 -344.685
0 0 5032.26 0 0 -5032.26 0 0 -5867.45 0 0 5867.45 0 0 12347.8 0 0 -12347.8 0 0 10810 0 0 -10810 0 0 3022.43 0 0 -3022.43 0 0 367.754 0 0 -367.754
0 0 3675.61 0 0 -3675.61 0 0 -5959.91 0 0 5959.91 0 0 11332.3 0 0 -11332.3 0 0 9808.61 0 0 -9808.61 0 0 3104.13 0 0 -3104.13 0 0 388.646 0 0 -388.646
0 0 2450.16 0 0 -2450.16 0 0 -6047.61 0 0 6047.61 0 0 10273.8 0 0 -10273.8 0 0 8758.06 0 0 -8758.06 0 0 3173.42 0 0 -3173.42 0 0 405.254 0 0 -405.254
0 0 1482.27 0 0 -1482.27 0 0 -6139.27 0 0 6139.27 0 0 9191.45 0 0 -9191.45 0 0 7675.96 0 0 -7675.96 0 0 3225.39 0 0 -3225.39 0 0 417.073 0 0 -417.073
0 0 890.125 0 0 -890.125 0 0 -6236.24 0 0 6236.24 0 0 8104.62 0 0 -8104.62 0 0 6578.84 0 0 -6578.84 0 0 3255.73 0 0 -3255.73 0 0 422.2 0 0 -422.2
0 0 563.487 0 0 -563.487 0 0 -6337.35 0 0 6337.35 0 0 7024.21 0 0 -7024.21 0 0 5538.7 0 0 -5538.7 0 0 3261.76 0 0 -3261.76 0 0 417.286 0 0 -417.286
0 0 340.123 0 0 -340.123 0 0 -6497.1 0 0 6497.1 0 0 5965.66 0 0 -5965.66 0 0 4486.56 0 0 -4486.56 0 0 3241.01 0 0 -3241.01 0 0 400.137 0 0 -400.137
0 0 187.693 0 0 -187.693 0 0 -6623.36 0 0 6623.36 0 0 4964.05 0 0 -4964.05 0 0 3458.4 0 0 -3458.4 0 0 3189.84 0 0 -3189.84 0 0 345.753 0 0 -345.753
0 0 59.0102 0 0 -59.0102 0 0 -6760.15 0 0 6760.15 0 0 4092.24 0 0 -4092.24 0 0 2460.77 0 0 -2460.77 0 0 3103.95 0 0 -3103.95 0 0 262.716 0 0 -262.716
0 0 -31.928 0 0 31.928 0 0 -6921.43 0 0 6921.43 0 0 3265.88 0 0 -3265.88 0 0 1508.87 0 0 -1508.87 0 0 2982.65 0 0 -2982.65 0 0 167.338 0 0 -167.338
0 0 -110.315 0 0 110.315 0 0 -7131.78 0 0 7131.78 0 0 2464.17 0 0 -2464.17 0 0 590.403 0 0 -590.403 0 0 2825.58 0 0 -2825.58 0 0 51.9363 0 0 -51.9363
0 0 -168.999 0 0 168.999 0 0 -7367.57 0 0 7367.57 0 0 1795.15 0 0 -1795.15 0 0 -288.438 0 0 288.438 0 0 2644.54 0 0 -2644.54 0 0 -84.436 0 0 84.436
0 0 -199.167 0 0 199.167 0 0 -7618.3 0 0 7618.3 0 0 1343.03 0 0 -1343.03 0 0 -1089.33 0 0 1089.33 0 0 2445.9 0 0 -2445.9 0 0 -190.679 0 0 190.679
0 0 -204.862 0 0 204.862 0 0 -7899.22 0 0 7899.22 0 0 1048.22 0 0 -1048.22 0 0 -1813.63 0 0 1813.63 0 0 2231.11 0 0 -2231.11 0 0 -270.358 0 0 270.358
0 0 -194.193 0 0 194.193 0 0 -8229.44 0 0 8229.44 0 0 834.358 0 0 -834.358 0 0 -2485.8 0 0 2485.8 0 0 2004.89 0 0 -2004.89 0 0 -349.307 0 0 349.307
0 0 -157.565 0 0 157.565 0 0 -9572.87 0 0 9572.87 0 0 652.275 0 0 -652.275 0 0 -3257.31 0 0 3257.31 0 0 1759.7 0 0 -1759.7 0 0 -420.547 0 0 420.547
0 0 -164.413 0 0 164.413 0 0 -10641.2 0 0 10641.2 0 0 470.844 0 0 -470.844 0 0 -3916.85 0 0 3916.85 0 0 1493.78 0 0 -1493.78 0 0 -525.2 0 0 525.2
0 0 -159.12 0 0 159.12 0 0 -11846.9 0 0 11846.9 0 0 289.483 0 0 -289.483 0 0 -4627.04 0 0 4627.04 0 0 1189.31 0 0 -1189.31 0 0 -613.081 0 0 613.081
0 0 -107.312 0 0 107.312 0 0 -13058.7 0 0 13058.7 0 0 84.8263 0 0 -84.8263 0 0 -5284.41 0 0 5284.41 0 0 869.365 0 0 -869.365 0 0 -730.339 0 0 730.339
0 0 -62.9696 0 0 62.9696 0 0 -13927.9 0 0 13927.9 0 0 -130.87 0 0 130.87 0 0 -5992.54 0 0 5992.54 0 0 531.756 0 0 -531.756 0 0 -841.892 0 0 841.892
0 0 -23.7696 0 0 23.7696 0 0 -14657.1 0 0 14657.1 0 0 -357.849 0 0 357.849 0 0 -6654.68 0 0 6654.68 0 0 208.979 0 0 -208.979 0 0 -957.96 0 0 957.96
0 0 22.0977 0 0 -22.0977 0 0 -15411.1 0 0 15411.1 0 0 -587.368 0 0 587.368 0 0 -7334.66 0 0 7334.66 0 0 -53.5737 0 0 53.5737 0 0 -1055.93 0 0 1055.93
0 0 80.0197 0 0 -80.0197 0 0 -16194.2 0 0 16194.2 0 0 -823.552 0 0 823.552 0 0 -8005.19 0 0 8005.19 0 0 -261.181 0 0 261.181 0 0 -1161.44 0 0 1161.44
0 0 132.519 0 0 -132.519 0 0 -16963.5 0 0 16963.5 0 0 -1035.73 0 0 1035.73 0 0 -8660.55 0 0 8660.55 0 0 -254.122 0 0 254.122 0 0 -1233.37 0 0 1233.37
0 0 182.327 0 0 -182.327 0 0 -17700.4 0 0 17700.4 0 0 -1251.02 0 0 1251.02 0 0 -9315.21 0 0 9315.21 0 0 -234.256 0 0 234.256 0 0 -1324.61 0 0 1324.61
0 0 232.522 0 0 -232.522 0 0 -18443.6 0 0 18443.6 0 0 -1463.95 0 0 1463.95 0 0 -9977.93 0 0 9977.93 0 0 -209.07 0 0 209.07 0 0 -1429.49 0 0 1429.49
0 0 283.937 0 0 -283.937 0 0 -19214.6 0 0 19214.6 0 0 -1675 0 0 1675 0 0 -10657.6 0 0 10657.6 0 0 -185.833 0 0 185.833 0 0 -1525.8 0 0 1525.8
0 0 332.105 0 0 -332.105 0 0 -20005.2 0 0 20005.2 0 0 -1883.54 0 0 1883.54 0 0 -11350.7 0 0 11350.7 0 0 -171.057 0 0 171.057 0 0 -1611.85 0 0 1611.85
0 0 375.801 0 0 -375.801 0 0 -20816.4 0 0 20816.4 0 0 -2089.49 0 0 2089.49 0 0 -12057.4 0 0 12057.4 0 0 -165.078 0 0 165.078 0 0 -1686.13 0 0 1686.13
0 0 415.741 0 0 -415.741 0 0 -21661.3 0 0 21661.3 0 0 -2290.36 0 0 2290.36 0 0 -12783.2 0 0 12783.2 0 0 -163.221 0 0 163.221 0 0 -1757.16 0 0 1757.16
0 0 451.012 0 0 -451.012 0 0 -22550.2 0 0 22550.2 0 0 -2481.68 0 0 2481.68 0 0 -13534.7 0 0 13534.7 0 0 -159.854 0 0 159.854 0 0 -1833.5 0 0 1833.5
0 0 479.4 0 0 -479.4 0 0 -23485 0 0 23485 0 0 -2659.8 0 0 2659.8 0 0 -14316.9 0 0 14316.9 0 0 -152.497 0 0 152.497 0 0 -1916.92 0 0 1916.92
0 0 499.998 0 0 -499.998 0 0 -24469.5 0 0 24469.5 0 0 -2824.03 0 0 2824.03 0 0 -15130.5 0 0 15130.5 0 0 -143.092 0 0 143.092 0 0 -2004.36 0 0 2004.36
0 0 513.123 0 0 -513.123 0 0 -25509.3 0 0 25509.3 0 0 -2975.65 0 0 2975.65 0 0 -15974.9 0 0 15974.9 0 0 -136.381 0 0 136.381 0 0 -2088.6 0 0 2088.6
0 0 518.571 0 0 -518.571 0 0 -26607.6 0 0 26607.6 0 0 -3115.38 0 0 3115.38 0 0 -16849.9 0 0 16849.9 0 0 -136.566 0 0 136.566 0 0 -2164.07 0 0 2164.07
0 0 515.35 0 0 -515.35 0 0 -27764.9 0 0 27764.9 0 0 -3242.13 0 0 3242.13 0 0 -17756.6 0 0 17756.6 0 0 -144.749 0 0 144.749 0 0 -2230.27 0 0 2230.27
0 0 502.786 0 0 -502.786 0 0 -28972 0 0 28972 0 0 -3354.61 0 0 3354.61 0 0 -18737.2 0 0 18737.2 0 0 -173.395 0 0 173.395 0 0 -2456.19 0 0 2456.19
0 0 480.194 0 0 -480.194 0 0 -30226.9 0 0 30226.9 0 0 -3446.32 0 0 3446.32 0 0 -19743.8 0 0 19743.8 0 0 -191.146 0 0 191.146 0 0 -2664.78 0 0 2664.78
0 0 447.846 0 0 -447.846 0 0 -31548.6 0 0 31548.6 0 0 -3518.55 0 0 3518.55 0 0 -20781 0 0 20781 0 0 -199.185 0 0 199.185 0 0 -2818.29 0 0 2818.29
0 0 405.094 0 0 -405.094 0 0 -32917.2 0 0 32917.2 0 0 -3572.59 0 0 3572.59 0 0 -21838.2 0 0 21838.2 0 0 -207.512 0 0 207.512 0 0 -2963.12 0 0 2963.12
0 0 353.951 0 0 -353.951 0 0 -34338.6 0 0 34338.6 0 0 -3613.76 0 0 3613.76 0 0 -22929 0 0 22929 0 0 -228.231 0 0 228.231 0 0 -3116.69 0 0 3116.69
0 0 295.49 0 0 -295.49 0 0 -35807 0 0 35807 0 0 -3643.99 0 0 3643.99 0 0 -24051.1 0 0 24051.1 0 0 -262.339 0 0 262.339 0 0 -3286.8 0 0 3286.8
0 0 230.062 0 0 -230.062 0 0 -37319.6 0 0 37319.6 0 0 -3662.67 0 0 3662.67 0 0 -25196.4 0 0 25196.4 0 0 -301.526 0 0 301.526 0 0 -3454.38 0 0 3454.38
0 0 157.478 0 0 -157.478 0 0 -38872.8 0 0 38872.8 0 0 -3667.9 0 0 3667.9 0 0 -26357 0 0 26357 0 0 -336.834 0 0 336.834 0 0 -3597.53 0 0 3597.53
0 0 77.4782 0 0 -77.4782 0 0 -40457 0 0 40457 0 0 -3657.5 0 0 3657.5 0 0 -27526.5 0 0 27526.5 0 0 -366.091 0 0 366.091 0 0 -3711.44 0 0 3711.44
0 0 -9.49203 0 0 9.49203 0 0 -42061.4 0 0 42061.4 0 0 -3633.68 0 0 3633.68 0 0 -28703.2 0 0 28703.2 0 0 -394.203 0 0 394.203 0 0 -3808.92 0 0 3808.92
0 0 -102.176 0 0 102.176 0 0 -43672.3 0 0 43672.3 0 0 -3599.66 0 0 3599.66 0 0 -29886.4 0 0 29886.4 0 0 -427.545 0 0 427.545 0 0 -3908.56 0 0 3908.56
0 0 -199.217 0 0 199.217 0 0 -45279 0 0 45279 0 0 -3558.26 0 0 3558.26 0 0 -31073.2 0 0 31073.2 0 0 -467.892 0 0 467.892 0 0 -4018.12 0 0 4018.12
0 0 -299.238 0 0 299.238 0 0 -46873.4 0 0 46873.4 0 0 -3510.97 0 0 3510.97 0 0 -32256.6 0 0 32256.6 0 0 -511.45 0 0 511.45 0 0 -4131.08 0 0 4131.08
0 0 -400.675 0 0 400.675 0 0 -48448.2 0 0 48448.2 0 0 -3459.07 0 0 3459.07 0 0 -33429 0 0 33429 0 0 -552.811 0 0 552.811 0 0 -4235.97 0 0 4235.97
0 0 -501.717 0 0 501.717 0 0 -49997.7 0 0 49997.7 0 0 -3405 0 0 3405 0 0 -34582.7 0 0 34582.7 0 0 -589.362 0 0 589.362 0 0 -4327.8 0 0 4327.8
0 0 -600.26 0 0 600.26 0 0 -51514.2 0 0 51514.2 0 0 -3352.66 0 0 3352.66 0 0 -35712.9 0 0 35712.9 0 0 -622.557 0 0 622.557 0 0 -4412.44 0 0 4412.44
0 0 -694.036 0 0 694.036 0 0 -52990.7 0 0 52990.7 0 0 -3306.58 0 0 3306.58 0 0 -36816.1 0 0 36816.1 0 0 -655.49 0 0 655.49 0 0 -4500.67 0 0 4500.67
0 0 -779.887 0 0 779.887 0 0 -54343.6 0 0 54343.6 0 0 -3243.9 0 0 3243.9 0 0 -37331.7 0 0 37331.7 0 0 -690.362 0 0 690.362 0 0 -4573.19 0 0 4573.19
0 0 -851.816 0 0 851.816 0 0 -55431.8 0 0 55431.8 0 0 -3088.68 0 0 3088.68 0 0 -36856 0 0 36856 0 0 -721.652 0 0 721.652 0 0 -4631.22 0 0 4631.22
0 0 -899.883 0 0 899.883 0 0 -56536.3 0 0 56536.3 0 0 -2955.5 0 0 2955.5 0 0 -36756.3 0 0 36756.3 0 0 -754.526 0 0 754.526 0 0 -4716.85 0 0 4716.85
0 0 -899.519 0 0 899.519 0 0 -56647.3 0 0 56647.3 0 0 -2859.04 0 0 2859.04 0 0 -36873.3 0 0 36873.3 0 0 -785.69 0 0 785.69 0 0 -4811.46 0 0 4811.46
0 0 -890.693 0 0 890.693 0 0 -56539.6 0 0 56539.6 0 0 -2809.1 0 0 2809.1 0 0 -37061 0 0 37061 0 0 -809.46 0 0 809.46 0 0 -4923.81 0 0 4923.81
0 0 -875.297 0 0 875.297 0 0 -56814 0 0 56814 0 0 -2809.17 0 0 2809.17 0 0 -37073.5 0 0 37073.5 0 0 -825.195 0 0 825.195 0 0 -5012.45 0 0 5012.45
0 0 -844.558 0 0 844.558 0 0 -57025 0 0 57025 0 0 -2830.3 0 0 2830.3 0 0 -36968.1 0 0 36968.1 0 0 -837.48 0 0 837.48 0 0 -5117.16 0 0 5117.16
0 0 -805.665 0 0 805.665 0 0 -57162.4 0 0 57162.4 0 0 -2871.63 0 0 2871.63 0 0 -37083.2 0 0 37083.2 0 0 -853.464 0 0 853.464 0 0 -5235.66 0 0 5235.66
0 0 -763.426 0 0 763.426 0 0 -57258.4 0 0 57258.4 0 0 -2926.99 0 0 2926.99 0 0 -37188.8 0 0 37188.8 0 0 -869.433 0 0 869.433 0 0 -5370.17 0 0 5370.17
0 0 -716.324 0 0 716.324 0 0 -57438 0 0 57438 0 0 -2991.79 0 0 2991.79 0 0 -37193.8 0 0 37193.8 0 0 -881.421 0 0 881.421 0 0 -5504.46 0 0 5504.46
0 0 -664.193 0 0 664.193 0 0 -57621.3 0 0 57621.3 0 0 -3063.67 0 0 3063.67 0 0 -37219.7 0 0 37219.7 0 0 -889.339 0 0 889.339 0 0 -5635.62 0 0 5635.62
0 0 -615.766 0 0 615.766 0 0 -57741.1 0 0 57741.1 0 0 -3137.09 0 0 3137.09 0 0 -37302.6 0 0 37302.6 0 0 -895.109 0 0 895.109 0 0 -5767.96 0 0 5767.96
0 0 -577.825 0 0 577.825 0 0 -57869.8 0 0 57869.8 0 0 -3195.65 0 0 3195.65 0 0 -37370.3 0 0 37370.3 0 0 -901.608 0 0 901.608 0 0 -5903.5 0 0 5903.5
0 0 -541.995 0 0 541.995 0 0 -58018.6 0 0 58018.6 0 0 -3258.03 0 0 3258.03 0 0 -37397.4 0 0 37397.4 0 0 -908.178 0 0 908.178 0 0 -6045.11 0 0 6045.11
0 0 -506.42 0 0 506.42 0 0 -58151.6 0 0 58151.6 0 0 -3320.33 0 0 3320.33 0 0 -37439.2 0 0 37439.2 0 0 -915.975 0 0 915.975 0 0 -6192.29 0 0 6192.29
0 0 -475.388 0 0 475.388 0 0 -58263.8 0 0 58263.8 0 0 -3378.92 0 0 3378.92 0 0 -37499.2 0 0 37499.2 0 0 -923.862 0 0 923.862 0 0 -6340.68 0 0 6340.68
0 0 -448.339 0 0 448.339 0 0 -58375.3 0 0 58375.3 0 0 -3415.03 0 0 3415.03 0 0 -37545.9 0 0 37545.9 0 0 -930.574 0 0 930.574 0 0 -6485.65 0 0 6485.65
0 0 -424.55 0 0 424.55 0 0 -58487.5 0 0 58487.5 0 0 -3444.71 0 0 3444.71 0 0 -37580.7 0 0 37580.7 0 0 -935.969 0 0 935.969 0 0 -6626.36 0 0 6626.36
0 0 -404.705 0 0 404.705 0 0 -58587.7 0 0 58587.7 0 0 -3469.3 0 0 3469.3 0 0 -37620.7 0 0 37620.7 0 0 -941.658 0 0 941.658 0 0 -6765.56 0 0 6765.56
0 0 -390.098 0 0 390.098 0 0 -58677.2 0 0 58677.2 0 0 -3486.97 0 0 3486.97 0 0 -37662.1 0 0 37662.1 0 0 -948.672 0 0 948.672 0 0 -6905.03 0 0 6905.03
0 0 -381.072 0 0 381.072 0 0 -58763.9 0 0 58763.9 0 0 -3496.34 0 0 3496.34 0 0 -37694.6 0 0 37694.6 0 0 -957.09 0 0 957.09 0 0 -7044.2 0 0 7044.2
0 0 -377.281 0 0 377.281 0 0 -58848.1 0 0 58848.1 0 0 -3496.05 0 0 3496.05 0 0 -37703.5 0 0 37703.5 0 0 -953.291 0 0 953.291 0 0 -7075.08 0 0 7075.08
0 0 -380.449 0 0 380.449 0 0 -58918.3 0 0 58918.3 0 0 -3485.43 0 0 3485.43 0 0 -37751.9 0 0 37751.9 0 0 -947.268 0 0 947.268 0 0 -7058.35 0 0 7058.35
0 0 -391.115 0 0 391.115 0 0 -58951 0 0 58951 0 0 -3463.17 0 0 3463.17 0 0 -37800.9 0 0 37800.9 0 0 -943.019 0 0 943.019 0 0 -7065.88 0 0 7065.88
0 0 -409.544 0 0 409.544 0 0 -59021.5 0 0 59021.5 0 0 -3428.7 0 0 3428.7 0 0 -37795.7 0 0 37795.7 0 0 -940.005 0 0 940.005 0 0 -7065.87 0 0 7065.87
0 0 -434.548 0 0 434.548 0 0 -59069.4 0 0 59069.4 0 0 -3382.98 0 0 3382.98 0 0 -37801.3 0 0 37801.3 0 0 -937.578 0 0 937.578 0 0 -7070.14 0 0 7070.14
0 0 -466.758 0 0 466.758 0 0 -59097.3 0 0 59097.3 0 0 -3326.12 0 0 3326.12 0 0 -37820.4 0 0 37820.4 0 0 -936.063 0 0 936.063 0 0 -7069.5 0 0 7069.5
0 0 -505.907 0 0 505.907 0 0 -59126 0 0 59126 0 0 -3258.91 0 0 3258.91 0 0 -37823.3 0 0 37823.3 0 0 -935.747 0 0 935.747 0 0 -7072.81 0 0 7072.81
0 0 -550.372 0 0 550.372 0 0 -59151.5 0 0 59151.5 0 0 -3188.16 0 0 3188.16 0 0 -37810.7 0 0 37810.7 0 0 -936.829 0 0 936.829 0 0 -7079.6 0 0 7079.6
0 0 -599.796 0 0 599.796 0 0 -59167.9 0 0 59167.9 0 0 -3130.19 0 0 3130.19 0 0 -37803.9 0 0 37803.9 0 0 -938.725 0 0 938.725 0 0 -7085.22 0 0 7085.22
0 0 -665.021 0 0 665.021 0 0 -59179.6 0 0 59179.6 0 0 -3052.79 0 0 3052.79 0 0 -37795 0 0 37795 0 0 -941.606 0 0 941.606 0 0 -7091.26 0 0 7091.26
0 0 -731.576 0 0 731.576 0 0 -59190.6 0 0 59190.6 0 0 -2974.28 0 0 2974.28 0 0 -37777.9 0 0 37777.9 0 0 -943.756 0 0 943.756 0 0 -7098.54 0 0 7098.54
0 0 -795.58 0 0 795.58 0 0 -59197.1 0 0 59197.1 0 0 -2900.5 0 0 2900.5 0 0 -37765.2 0 0 37765.2 0 0 -944.638 0 0 944.638 0 0 -7103.79 0 0 7103.79
0 0 -855.234 0 0 855.234 0 0 -59201.7 0 0 59201.7 0 0 -2834.49 0 0 2834.49 0 0 -37756.9 0 0 37756.9 0 0 -944.366 0 0 944.366 0 0 -7108.08 0 0 7108.08
0 0 -910.081 0 0 910.081 0 0 -59206.2 0 0 59206.2 0 0 -2777.27 0 0 2777.27 0 0 -37750.5 0 0 37750.5 0 0 -942.802 0 0 942.802 0 0 -7111.94 0 0 7111.94
0 0 -941.15 0 0 941.15 0 0 -59053.3 0 0 59053.3 0 0 -2731.62 0 0 2731.62 0 0 -37761.2 0 0 37761.2 0 0 -939.427 0 0 939.427 0 0 -7115.95 0 0 7115.95
0 0 -935.022 0 0 935.022 0 0 -58895.3 0 0 58895.3 0 0 -2696.45 0 0 2696.45 0 0 -37825 0 0 37825 0 0 -933.632 0 0 933.632 0 0 -7105.98 0 0 7105.98
0 0 -890.735 0 0 890.735 0 0 -58687.5 0 0 58687.5 0 0 -2668.69 0 0 2668.69 0 0 -37829.1 0 0 37829.1 0 0 -925.232 0 0 925.232 0 0 -7107.05 0 0 7107.05
0 0 -795.708 0 0 795.708 0 0 -58449.6 0 0 58449.6 0 0 -2651.31 0 0 2651.31 0 0 -37857.2 0 0 37857.2 0 0 -915.287 0 0 915.287 0 0 -7102.87 0 0 7102.87
0 0 -640.35 0 0 640.35 0 0 -58160.4 0 0 58160.4 0 0 -2644.38 0 0 2644.38 0 0 -37893.4 0 0 37893.4 0 0 -903.727 0 0 903.727 0 0 -7095.88 0 0 7095.88
0 0 -424.211 0 0 424.211 0 0 -57819.6 0 0 57819.6 0 0 -2644.83 0 0 2644.83 0 0 -37908.8 0 0 37908.8 0 0 -890.253 0 0 890.253 0 0 -7091.81 0 0 7091.81
0 0 -127.554 0 0 127.554 0 0 -57390.4 0 0 57390.4 0 0 -2652.68 0 0 2652.68 0 0 -37938 0 0 37938 0 0 -874.789 0 0 874.789 0 0 -7083.86 0 0 7083.86
0 0 267.237 0 0 -267.237 0 0 -56860.7 0 0 56860.7 0 0 -2666.76 0 0 2666.76 0 0 -37963 0 0 37963 0 0 -857.474 0 0 857.474 0 0 -7074.77 0 0 7074.77
0 0 725.932 0 0 -725.932 0 0 -56209.2 0 0 56209.2 0 0 -2681.7 0 0 2681.7 0 0 -37981.8 0 0 37981.8 0 0 -839.091 0 0 839.091 0 0 -7066.17 0 0 7066.17
0 0 1048.49 0 0 -1048.49 0 0 -55460.3 0 0 55460.3 0 0 -2680.6 0 0 2680.6 0 0 -38005.4 0 0 38005.4 0 0 -821.153 0 0 821.153 0 0 -7055.33 0 0 7055.33
0 0 1164.5 0 0 -1164.5 0 0 -54638.7 0 0 54638.7 0 0 -2661.63 0 0 2661.63 0 0 -38022.2 0 0 38022.2 0 0 -803.633 0 0 803.633 0 0 -7044.7 0 0 7044.7
0 0 1215.09 0 0 -1215.09 0 0 -53747.8 0 0 53747.8 0 0 -2639.31 0 0 2639.31 0 0 -38033.8 0 0 38033.8 0 0 -785.395 0 0 785.395 0 0 -7033.57 0 0 7033.57
0 0 1268.05 0 0 -1268.05 0 0 -52761.7 0 0 52761.7 0 0 -2619.98 0 0 2619.98 0 0 -38024.1 0 0 38024.1 0 0 -765.815 0 0 765.815 0 0 -7020.17 0 0 7020.17
0 0 1335.84 0 0 -1335.84 0 0 -51677.9 0 0 51677.9 0 0 -2566.05 0 0 2566.05 0 0 -37934.6 0 0 37934.6 0 0 -745.162 0 0 745.162 0 0 -7006.46 0 0 7006.46
0 0 1424.08 0 0 -1424.08 0 0 -50514.2 0 0 50514.2 0 0 -2439.27 0 0 2439.27 0 0 -37751.9 0 0 37751.9 0 0 -724.181 0 0 724.181 0 0 -6992.56 0 0 6992.56
0 0 1528.45 0 0 -1528.45 0 0 -49279.4 0 0 49279.4 0 0 -2242.12 0 0 2242.12 0 0 -37468.5 0 0 37468.5 0 0 -703.339 0 0 703.339 0 0 -6978.63 0 0 6978.63
0 0 1650.55 0 0 -1650.55 0 0 -47997.3 0 0 47997.3 0 0 -1966.71 0 0 1966.71 0 0 -37085.1 0 0 37085.1 0 0 -682.792 0 0 682.792 0 0 -6964.72 0 0 6964.72
0 0 1787.59 0 0 -1787.59 0 0 -46684.8 0 0 46684.8 0 0 -1675.82 0 0 1675.82 0 0 -36611.9 0 0 36611.9 0 0 -661.205 0 0 661.205 0 0 -6950.95 0 0 6950.95
0 0 1921.55 0 0 -1921.55 0 0 -45362.1 0 0 45362.1 0 0 -1580.34 0 0 1580.34 0 0 -36096.7 0 0 36096.7 0 0 -634.706 0 0 634.706 0 0 -6936.61 0 0 6936.61
0 0 2058.83 0 0 -2058.83 0 0 -44034.1 0 0 44034.1 0 0 -1584.7 0 0 1584.7 0 0 -35539.4 0 0 35539.4 0 0 -605.355 0 0 605.355 0 0 -6919.55 0 0 6919.55
0 0 2200.48 0 0 -2200.48 0 0 -42683.8 0 0 42683.8 0 0 -1586.91 0 0 1586.91 0 0 -34915.6 0 0 34915.6 0 0 -576.001 0 0 576.001 0 0 -6903.7 0 0 6903.7
0 0 2329.28 0 0 -2329.28 0 0 -41313.7 0 0 41313.7 0 0 -1588.01 0 0 1588.01 0 0 -34219 0 0 34219 0 0 -548.36 0 0 548.36 0 0 -6889.2 0 0 6889.2
0 0 2463.09 0 0 -2463.09 0 0 -39933.6 0 0 39933.6 0 0 -1583.89 0 0 1583.89 0 0 -33462 0 0 33462 0 0 -522.057 0 0 522.057 0 0 -6868.64 0 0 6868.64
0 0 2596.97 0 0 -2596.97 0 0 -38551.4 0 0 38551.4 0 0 -1564.1 0 0 1564.1 0 0 -32651.5 0 0 32651.5 0 0 -462.217 0 0 462.217 0 0 -6812.69 0 0 6812.69
0 0 2728.63 0 0 -2728.63 0 0 -37174.6 0 0 37174.6 0 0 -1540.78 0 0 1540.78 0 0 -31787.3 0 0 31787.3 0 0 -364.176 0 0 364.176 0 0 -6712.72 0 0 6712.72
0 0 2856.5 0 0 -2856.5 0 0 -35814.8 0 0 35814.8 0 0 -1524.69 0 0 1524.69 0 0 -30874.6 0 0 30874.6 0 0 -229.694 0 0 229.694 0 0 -6567.14 0 0 6567.14
0 0 2980.26 0 0 -2980.26 0 0 -34474.4 0 0 34474.4 0 0 -1491.05 0 0 1491.05 0 0 -29917.6 0 0 29917.6 0 0 -49.8793 0 0 49.8793 0 0 -6374.88 0 0 6374.88
0 0 3097.59 0 0 -3097.59 0 0 -33154 0 0 33154 0 0 -1436.94 0 0 1436.94 0 0 -28924.1 0 0 28924.1 0 0 175.505 0 0 -175.505 0 0 -6138.12 0 0 6138.12
0 0 3208.82 0 0 -3208.82 0 0 -31852.4 0 0 31852.4 0 0 -1364.27 0 0 1364.27 0 0 -27897.6 0 0 27897.6 0 0 414.486 0 0 -414.486 0 0 -5860.08 0 0 5860.08
0 0 3317.05 0 0 -3317.05 0 0 -30559.4 0 0 30559.4 0 0 -1290.6 0 0 1290.6 0 0 -26854.9 0 0 26854.9 0 0 503.015 0 0 -503.015 0 0 -5581.04 0 0 5581.04
0 0 3418.31 0 0 -3418.31 0 0 -29264.6 0 0 29264.6 0 0 -1200.54 0 0 1200.54 0 0 -25807 0 0 25807 0 0 548.434 0 0 -548.434 0 0 -5310.16 0 0 5310.16
0 0 3513.02 0 0 -3513.02 0 0 -27964.9 0 0 27964.9 0 0 -1090.94 0 0 1090.94 0 0 -24749 0 0 24749 0 0 593.328 0 0 -593.328 0 0 -5027.81 0 0 5027.81
0 0 3600.74 0 0 -3600.74 0 0 -26655.5 0 0 26655.5 0 0 -960.246 0 0 960.246 0 0 -23668.7 0 0 23668.7 0 0 644.413 0 0 -644.413 0 0 -4698.87 0 0 4698.87
