12.932 2.97287e-05 12.6636 2.91118e-05 0.862599 1.98299e-06
12.8445 2.95275e-05 12.6806 2.91509e-05 0.860993 1.97929e-06
12.6418 2.90615e-05 12.7221 2.92462e-05 0.856969 1.97004e-06
12.2256 2.81047e-05 12.7988 2.94226e-05 0.851514 1.9575e-06
11.7541 2.7021e-05 12.8747 2.9597e-05 0.847751 1.94885e-06
11.1488 2.56295e-05 12.9551 2.97818e-05 0.846732 1.94651e-06
10.4001 2.39082e-05 13.0326 2.99599e-05 0.850423 1.955e-06
9.49752 2.18334e-05 13.0979 3.01101e-05 0.861171 1.9797e-06
8.42962 1.93784e-05 13.1399 3.02068e-05 0.881227 2.02581e-06
7.18402 1.6515e-05 13.146 3.02207e-05 0.912809 2.09841e-06
5.74983 1.3218e-05 13.1024 3.01205e-05 0.958138 2.20262e-06
4.12127 9.47418e-06 12.9939 2.98711e-05 1.01927 2.34315e-06
2.30841 5.30669e-06 12.8033 2.94328e-05 1.09793 2.52397e-06
0.349196 8.0275e-07 12.5156 2.87716e-05 1.19425 2.7454e-06
-1.07765 -5.06905e-06 12.1 2.7816e-05 1.31067 3.01304e-06
-2.56444 -1.11875e-05 11.5336 2.6514e-05 1.44629 3.3248e-06
-4.06772 -1.73739e-05 10.7923 2.48099e-05 1.59987 3.67787e-06
-5.53972 -2.34315e-05 9.85604 2.26576e-05 1.76805 4.06449e-06
-6.93371 -2.91681e-05 8.71093 2.00251e-05 1.94521 4.47174e-06
-8.20384 -3.43949e-05 7.35125 1.68994e-05 2.12356 4.88174e-06
-9.30411 -3.89228e-05 5.77982 1.3287e-05 2.29152 5.26787e-06
-10.1846 -4.25461e-05 4.00748 9.2126e-06 2.43587 5.59969e-06
-10.7876 -4.50277e-05 2.05185 4.71689e-06 2.54162 5.8428e-06
-11.0438 -4.60822e-05 0.091293 -4.94084e-07 2.59183 5.95822e-06
-10.8727 -4.53779e-05 -1.51752 -7.11472e-06 2.56809 5.90366e-06
-10.1897 -4.25673e-05 -3.18044 -1.3958e-05 2.45117 5.63488e-06
-8.92994 -3.7383e-05 -4.85836 -2.0863e-05 2.2223 5.10874e-06
-7.07347 -2.97432e-05 -6.50366 -2.76338e-05 1.85407 4.26223e-06
-4.6706 -1.98548e-05 -8.03532 -3.39369e-05 1.32103 3.03686e-06
-1.83116 -8.16992e-06 -9.35888 -3.93837e-05 0.601305 1.38231e-06
2.06069 3.57438e-06 -10.373 -4.3557e-05 -0.243291 -1.30779e-06
6.98189 1.48875e-05 -10.9794 -4.60525e-05 -1.21043 -5.28779e-06
11.9792 2.63755e-05 -11.1111 -4.65943e-05 -2.36922 -1.00565e-05
16.9102 3.77112e-05 -10.7158 -4.49676e-05 -3.71308 -1.55868e-05
21.6631 4.86373e-05 -9.76502 -4.1055e-05 -5.22717 -2.18176e-05
26.2135 5.90981e-05 -8.25422 -3.48378e-05 -6.88451 -2.86379e-05
30.5068 6.89677e-05 -6.20132 -2.63896e-05 -8.65066 -3.5906e-05
34.578 7.83268e-05 -3.65526 -1.5912e-05 -10.4809 -4.34377e-05
38.4477 8.72227e-05 -0.673109 -3.63977e-06 -12.3241 -5.10232e-05
42.1382 9.57067e-05 3.82975 7.63032e-06 -14.1181 -5.84058e-05
45.6542 0.000103789 8.90502 1.92976e-05 -15.8107 -6.53713e-05
49.0026 0.000111487 14.2368 3.15546e-05 -17.3382 -7.16573e-05
52.1573 0.000118739 19.6954 4.41031e-05 -18.6416 -7.70211e-05
55.0467 0.000125381 25.1636 5.66737e-05 -19.6639 -8.12282e-05
57.5829 0.000131212 30.5295 6.90091e-05 -20.3529 -8.40634e-05
59.705 0.00013609 35.6867 8.08647e-05 -20.6607 -8.53299e-05
61.4204 0.000140033 40.5132 9.19602e-05 -20.5408 -8.48367e-05
62.8173 0.000143245 44.8662 0.000101967 -19.9663 -8.24725e-05
64.0769 0.00014614 48.6269 0.000110612 -18.9092 -7.81223e-05
65.4518 0.000149301 51.6823 0.000117636 -17.3546 -7.17247e-05
67.8243 0.000154755 54.3493 0.000123767 -14.7116 -6.0848e-05
71.5854 0.000163401 55.6074 0.000126659 -11.3208 -4.68942e-05
77.3907 0.000176747 55.4522 0.000126303 -7.25204 -3.01504e-05
85.7033 0.000195856 54.0414 0.000123059 -2.61853 -1.10824e-05
96.7116 0.000221163 51.7108 0.000117702 2.95716 6.28037e-06
110.285 0.000252365 48.9476 0.00011135 9.27181 2.07968e-05
125.943 0.000288362 46.4022 0.000105498 15.5793 3.52968e-05
142.912 0.00032737 44.8095 0.000101837 21.6518 4.92565e-05
160.299 0.000367341 44.8958 0.000102035 27.2319 6.20843e-05
177.348 0.000406534 47.2752 0.000107505 32.1233 7.33289e-05
193.586 0.000443862 52.3771 0.000119233 36.1764 8.26465e-05
208.815 0.000478871 60.4154 0.000137712 39.3304 8.98969e-05
223.03 0.00051155 71.3903 0.000162942 41.5916 9.50951e-05
236.345 0.00054216 85.114 0.000194491 43.0364 9.84165e-05
248.9 0.000571022 101.241 0.000231565 43.8033 0.000100179
260.76 0.000598285 119.311 0.000273103 44.0864 0.00010083
271.91 0.000623917 138.771 0.00031784 44.1209 0.00010091
282.372 0.000647969 158.99 0.000364322 44.1686 0.000101019
292.301 0.000670794 179.267 0.000410933 44.5035 0.000101789
301.97 0.000693022 198.869 0.000455996 45.3963 0.000103842
311.667 0.000715312 217.107 0.000497922 47.0935 0.000107743
321.542 0.000738013 233.403 0.000535386 49.7956 0.000113955
331.523 0.000760959 247.345 0.000567435 53.6411 0.000122795
341.414 0.000783696 258.676 0.000593484 58.7015 0.000134428
351.017 0.000805773 267.279 0.000613262 64.9802 0.000148862
360.173 0.000826821 273.168 0.000626798 72.4121 0.000165947
368.768 0.00084658 276.478 0.000634409 80.866 0.000185381
376.741 0.000864909 277.46 0.000636666 90.1506 0.000206725
384.088 0.000881797 276.454 0.000634354 100.025 0.000229424
390.846 0.000897334 273.877 0.000628428 110.207 0.000252833
397.067 0.000911634 270.201 0.000619977 120.391 0.000276244
402.81 0.000924837 265.931 0.000610162 130.256 0.000298921
408.173 0.000937166 261.57 0.000600138 139.484 0.000320135
413.33 0.000949021 257.583 0.000590972 147.778 0.000339202
418.523 0.000960959 254.374 0.000583594 154.872 0.000355511
423.992 0.000973531 252.286 0.000578793 160.542 0.000368545
429.836 0.000986966 251.613 0.000577247 164.613 0.000377903
435.892 0.00100089 252.616 0.000579552 166.962 0.000383303
441.743 0.00101434 255.497 0.000586176 167.53 0.00038461
446.841 0.00102606 260.36 0.000597354 166.328 0.000381845
450.005 0.00103333 265.654 0.000609525 164.146 0.000376829
452.42 0.00103888 273.865 0.000628402 160.023 0.000367352
452.811 0.00103978 283.513 0.00065058 154.557 0.000354787
450.994 0.00103561 294.083 0.000674879 148.03 0.000339782
446.86 0.0010261 304.941 0.00069984 140.769 0.000323089
440.306 0.00101103 315.383 0.000723845 133.128 0.000305523
431.244 0.000990203 324.669 0.000745192 125.47 0.000287918
419.6 0.000963434 332.061 0.000762185 118.147 0.000271084
405.292 0.000930543 336.864 0.000773227 111.479 0.000255756
388.258 0.000891385 338.46 0.000776896 105.74 0.000242562
368.468 0.00084589 336.333 0.000772007 101.138 0.000231984
345.912 0.000794037 330.098 0.000757671 97.8092 0.000224331
320.639 0.000735938 319.51 0.000733331 95.8029 0.000219719
292.853 0.000672063 304.459 0.000698732 95.0846 0.000218068
263.013 0.000603464 284.955 0.000653895 95.535 0.000219103
231.773 0.000531649 261.141 0.000599149 96.9504 0.000222357
199.784 0.00045811 233.342 0.000535244 99.0439 0.000227169
167.599 0.000384121 202.079 0.000463375 101.454 0.00023271
135.715 0.000310825 168.034 0.000385112 103.761 0.000238014
104.593 0.000239281 132.016 0.000302311 105.506 0.000242026
74.645 0.000170435 94.9231 0.00021704 106.214 0.000243653
46.1872 0.000105015 57.7174 0.00013151 105.415 0.000241815
19.4291 4.35018e-05 21.4174 4.80616e-05 102.665 0.000235493
-2.40544 -1.86902e-05 -9.0661 -3.95326e-05 97.6032 0.000223858
-18.3772 -8.44176e-05 -31.4773 -0.00013176 89.9247 0.000206206
-33.6145 -0.000147123 -51.3777 -0.000213655 79.4095 0.000182033
-48.213 -0.000207199 -68.3641 -0.000283557 65.9656 0.000151127
-61.9956 -0.000263917 -82.386 -0.000341261 49.6504 0.000113621
-74.7612 -0.000316451 -93.4502 -0.000386792 30.6261 6.98872e-05
-86.3974 -0.000364336 -101.672 -0.000420628 9.21887 2.06751e-05
-96.9675 -0.000407835 -107.258 -0.000443616 -11.6875 -4.89459e-05
-106.719 -0.000447964 -110.582 -0.000457295 -32.4488 -0.000134383
-116.004 -0.000486172 -112.01 -0.000463171 -54.0071 -0.000223101
-125.154 -0.000523829 -112.012 -0.00046318 -75.7966 -0.000312769
-134.513 -0.000562343 -111.142 -0.000459598 -97.2773 -0.000401167
-144.456 -0.000603259 -109.965 -0.000454754 -117.93 -0.000486158
-155.363 -0.000648147 -109.043 -0.000450962 -137.184 -0.000565394
-167.591 -0.000698468 -108.925 -0.000450474 -154.54 -0.000636814
-181.4 -0.000755294 -110.141 -0.00045548 -169.541 -0.000698551
-196.874 -0.000818972 -113.19 -0.000468026 -181.822 -0.000749087
-213.854 -0.000888851 -118.517 -0.000489949 -191.086 -0.00078721
-231.954 -0.000963335 -126.499 -0.000522796 -197.136 -0.000812107
-250.666 -0.00104034 -137.387 -0.000567602 -199.896 -0.000823467
-269.486 -0.00111779 -151.249 -0.000624649 -199.426 -0.000821532
-287.982 -0.0011939 -167.947 -0.000693365 -195.912 -0.000807073
-305.835 -0.00126737 -187.132 -0.000772314 -189.666 -0.000781369
-322.838 -0.00133734 -208.26 -0.000859262 -181.111 -0.000746163
-338.881 -0.00140336 -230.624 -0.000951294 -170.767 -0.000703594
-353.943 -0.00146535 -253.393 -0.00104499 -159.22 -0.000656076
-368.049 -0.0015234 -275.672 -0.00113668 -147.093 -0.000606168
-381.205 -0.00157754 -296.568 -0.00122267 -135.009 -0.000556441
-393.373 -0.00162761 -315.246 -0.00129953 -123.567 -0.000509356
-404.487 -0.00167335 -330.97 -0.00136424 -113.31 -0.000467146
-414.476 -0.00171445 -343.139 -0.00141432 -104.699 -0.00043171
-423.088 -0.00174989 -351.181 -0.00144741 -98.1201 -0.000404635
-429.477 -0.00177619 -353.67 -0.00145766 -94.0087 -0.000387716
-433.454 -0.00179255 -352.438 -0.00145259 -92.068 -0.00037973
-438.033 -0.0018114 -347.688 -0.00143304 -92.3804 -0.000381015
-441.062 -0.00182386 -339.431 -0.00139906 -94.8199 -0.000391054
-439.637 -0.001818 -328.44 -0.00135383 -99.1265 -0.000408777
-429.56 -0.00177653 -317.349 -0.00130818 -104.575 -0.0004312
-419.064 -0.00173333 -303.411 -0.00125083 -111.603 -0.000460121
-406.628 -0.00168216 -287.882 -0.00118692 -119.384 -0.000492142
-393.613 -0.0016286 -271.138 -0.00111802 -127.739 -0.000526524
-380.338 -0.00157397 -253.95 -0.00104728 -136.117 -0.000561002
-367.003 -0.00151909 -236.802 -0.000976716 -144.065 -0.000593708
-354.383 -0.00146716 -220.219 -0.000908473 -151.173 -0.000622961
-342.914 -0.00141996 -204.813 -0.000845074 -157.037 -0.000647094
-332.899 -0.00137874 -191.12 -0.000788726 -161.284 -0.000664569
-324.793 -0.00134539 -179.54 -0.000741071 -163.605 -0.000674121
-318.89 -0.0013211 -170.406 -0.000703484 -163.79 -0.000674881
-315.35 -0.00130653 -164.005 -0.000677141 -161.716 -0.000666347
-314.319 -0.00130229 -160.506 -0.000662743 -157.337 -0.000648326
-315.819 -0.00130846 -159.951 -0.000660458 -150.697 -0.000621002
-319.759 -0.00132467 -162.285 -0.000670065 -141.947 -0.000584995
-325.717 -0.00134919 -167.414 -0.000691171 -131.331 -0.000541306
-331.363 -0.00137242 -175.581 -0.00072478 -119.1 -0.000490971
-336.428 -0.00139327 -186.351 -0.000769099 -105.679 -0.000435741
-340.608 -0.00141047 -199.165 -0.000821831 -91.5541 -0.000377615
-343.778 -0.00142352 -213.269 -0.000879876 -77.2844 -0.000318892
-345.554 -0.00143082 -224.952 -0.000927953 -66.1539 -0.000273087
-346.648 -0.00143533 -236.525 -0.000975579 -55.6003 -0.000229657
-347.05 -0.00143698 -247.555 -0.00102097 -45.9089 -0.000189775
-346.752 -0.00143575 -257.623 -0.0010624 -37.3485 -0.000154547
-345.742 -0.0014316 -266.351 -0.00109832 -30.162 -0.000124972
-344.002 -0.00142444 -273.414 -0.00112738 -24.5561 -0.000101903
-341.497 -0.00141413 -278.542 -0.00114849 -20.693 -8.60055e-05
-338.16 -0.0014004 -281.539 -0.00116082 -18.6852 -7.7743e-05
-333.877 -0.00138277 -282.289 -0.00116391 -18.5936 -7.7366e-05
-328.494 -0.00136062 -280.761 -0.00115762 -20.4268 -8.49101e-05
-321.829 -0.00133319 -277.003 -0.00114215 -24.1409 -0.000100194
-313.715 -0.0012998 -271.124 -0.00111796 -29.6409 -0.000122828
-304.046 -0.00126001 -263.279 -0.00108568 -36.7866 -0.000152234
-292.813 -0.00121378 -253.651 -0.00104606 -45.3979 -0.000187672
-280.109 -0.0011615 -242.444 -0.000999937 -55.2612 -0.000228261
-266.122 -0.00110394 -229.88 -0.000948233 -66.1335 -0.000273004
-251.078 -0.00104203 -216.202 -0.000891942 -77.7468 -0.000320795
-235.197 -0.00097668 -201.677 -0.000832169 -89.812 -0.000370446
-218.671 -0.000908672 -186.598 -0.000770117 -102.026 -0.000420711
-201.669 -0.000838706 -171.271 -0.000707041 -114.082 -0.000470322
-184.356 -0.00076746 -155.996 -0.000644183 -125.672 -0.000518018
-166.9 -0.000695624 -141.062 -0.000582726 -136.502 -0.000562585
-149.465 -0.000623874 -126.734 -0.000523763 -146.292 -0.000602874
-132.196 -0.000552808 -113.251 -0.000468277 -154.788 -0.000637836
-115.217 -0.000482935 -100.82 -0.000417119 -161.763 -0.000666541
-98.6308 -0.000414679 -89.6068 -0.000370976 -167.027 -0.000688204
-82.5288 -0.000348416 -79.7311 -0.000330335 -170.429 -0.000702201
-66.9925 -0.000284481 -71.2595 -0.000295473 -171.858 -0.000708084
-52.092 -0.000223162 -64.2064 -0.000266447 -171.252 -0.000705588
-37.8861 -0.000164701 -58.5333 -0.000243101 -168.59 -0.000694633
-24.4205 -0.000109287 -54.1516 -0.00022507 -163.898 -0.000675325
-11.7261 -5.70468e-05 -50.9265 -0.000211798 -157.244 -0.000647942
0.373553 -8.35825e-06 -48.6811 -0.000202557 -148.736 -0.00061293
16.7108 2.91985e-05 -47.2015 -0.000196468 -138.518 -0.000570882
28.7556 5.68878e-05 -45.9622 -0.000191368 -126.779 -0.000522575
34.1296 6.92418e-05 -43.7753 -0.000182369 -113.942 -0.000469744
39.9949 8.27254e-05 -42.2924 -0.000176266 -99.759 -0.00041138
45.1763 9.46367e-05 -40.5857 -0.000169243 -84.7071 -0.000349438
49.606 0.00010482 -38.912 -0.000162355 -68.8925 -0.000284357
53.758 0.000114365 -36.8749 -0.000153972 -52.5749 -0.000217207
58.1021 0.000124351 -34.3228 -0.000143469 -35.9795 -0.000148913
62.8202 0.000135197 -31.1596 -0.000130452 -19.3342 -8.04135e-05
68.1585 0.000147469 -27.2957 -0.000114551 -2.86692 -1.26471e-05
74.486 0.000162015 -22.5994 -9.5225e-05 16.0877 3.42693e-05
82.0614 0.00017943 -16.9765 -7.20855e-05 34.677 7.70034e-05
91.0067 0.000199994 -10.2937 -4.45842e-05 52.3562 0.000117645
101.457 0.000224019 -2.40918 -1.21379e-05 68.9655 0.000155827
113.474 0.000251643 9.36288 1.88212e-05 84.3142 0.000191112
127.066 0.00028289 23.5896 5.15263e-05 98.277 0.00022321
142.195 0.000317667 39.4313 8.79441e-05 110.731 0.000251841
158.825 0.000355898 56.8866 0.000128071 121.617 0.000276865
176.901 0.000397453 75.8727 0.000171717 130.907 0.000298222
196.346 0.000442154 96.2217 0.000218497 138.609 0.000315928
217.055 0.000489761 117.747 0.000267981 144.76 0.000330068
238.88 0.000539932 140.266 0.000319749 149.429 0.0003408
261.613 0.000592193 163.578 0.000373339 152.711 0.000348345
285 0.000645955 187.443 0.000428201 154.728 0.000352983
308.746 0.000700543 211.593 0.000483719 155.627 0.000355048
332.537 0.000755235 235.756 0.000539264 155.569 0.000354915
356.044 0.000809276 259.658 0.000594213 154.731 0.000352989
378.933 0.000861894 283.023 0.000647924 153.296 0.00034969
400.874 0.000912332 305.56 0.000699733 151.452 0.000345451
421.556 0.000959878 326.976 0.000748967 149.387 0.000340704
440.701 0.00100389 346.99 0.000794975 147.287 0.000335877
458.064 0.0010438 365.331 0.000837139 145.328 0.000331374
473.448 0.00107917 381.747 0.000874878 143.669 0.00032756
486.71 0.00110966 396.001 0.000907645 142.451 0.00032476
497.764 0.00113507 407.882 0.000934956 141.794 0.000323249
506.585 0.00115535 417.212 0.000956406 141.791 0.000323242
513.2 0.00117055 423.859 0.000971686 142.507 0.000324889
517.674 0.00118084 427.735 0.000980597 143.976 0.000328266
520.106 0.00118643 428.808 0.000983062 146.197 0.000333371
520.625 0.00118762 427.098 0.000979132 149.134 0.000340123
519.413 0.00118484 422.67 0.000968952 152.724 0.000348376
516.664 0.00117852 415.653 0.000952821 156.868 0.000357902
512.639 0.00116926 406.236 0.000931174 161.437 0.000368407
507.621 0.00115773 394.659 0.000904559 166.279 0.000379537
501.871 0.00114451 381.212 0.000873647 171.216 0.000390886
495.641 0.00113019 366.235 0.000839216 176.054 0.000402007
489.172 0.00111532 350.104 0.000802134 180.587 0.000412428
482.686 0.00110041 333.224 0.00076333 184.603 0.000421661
476.395 0.00108594 316.013 0.000723764 187.894 0.000429225
470.51 0.00107242 298.887 0.000684394 190.257 0.000434658
465.243 0.00106031 282.251 0.000646151 191.507 0.000437532
460.789 0.00105007 266.49 0.000609918 191.479 0.000437469
457.32 0.00104209 251.957 0.000576509 190.037 0.000434152
454.977 0.00103671 238.969 0.00054665 187.072 0.000427338
453.876 0.00103418 227.794 0.000520961 182.517 0.000416866
454.107 0.00103471 218.647 0.000499934 176.34 0.000402666
455.746 0.00103847 211.679 0.000483916 168.554 0.000384766
458.86 0.00104563 206.977 0.000473105 159.212 0.00036329
463.26 0.00105575 204.588 0.000467614 148.409 0.000338457
467.596 0.00106572 204.846 0.000468207 136.229 0.000310457
474.056 0.00108057 207.067 0.000473313 122.915 0.00027985
482.119 0.0010991 211.251 0.000482932 108.705 0.000247182
491.42 0.00112048 217.252 0.000496728 93.7774 0.000212866
501.934 0.00114466 224.727 0.00051391 78.4668 0.00017767
513.308 0.0011708 233.603 0.000534316 62.9962 0.000142105
525.101 0.00119791 243.538 0.000557154 47.6764 0.000106887
536.241 0.00122352 254.348 0.000582006 32.7859 7.26559e-05
546.41 0.0012469 265.788 0.000608304 18.6187 4.00876e-05
555.396 0.00126756 277.59 0.000635436 5.47602 9.87459e-06
562.705 0.00128436 289.427 0.000662646 -5.00443 -2.7641e-05
567.81 0.00129609 301.003 0.000689257 -13.554 -6.28244e-05
570.385 0.00130201 311.959 0.000714444 -20.6121 -9.187e-05
570.175 0.00130153 322.003 0.000737535 -25.9743 -0.000113937
566.97 0.00129416 330.781 0.000757714 -29.4786 -0.000128358
560.689 0.00127972 337.946 0.000774184 -30.9992 -0.000134615
551.431 0.00125844 343.181 0.00078622 -30.4562 -0.000132381
539.366 0.0012307 346.215 0.000793195 -27.8063 -0.000121476
524.655 0.00119689 346.83 0.000794608 -23.0454 -0.000101884
507.508 0.00115747 344.869 0.000790101 -16.2126 -7.37651e-05
488.208 0.0011131 340.241 0.000779462 -7.39598 -3.74828e-05
467.072 0.00106451 332.95 0.0007627 4.15013 1.61785e-06
444.472 0.00101256 323.009 0.000739847 18.9067 3.5541e-05
420.817 0.000958178 310.567 0.000711244 35.3648 7.33757e-05
396.541 0.000902372 295.825 0.000677356 53.2096 0.000114398
372.025 0.000846012 279.072 0.000638842 72.0919 0.000157806
347.579 0.000789815 260.668 0.000596533 91.6149 0.000202686
323.469 0.00073439 241.046 0.000551426 111.351 0.000248057
299.923 0.000680261 220.689 0.000504629 130.862 0.000292908
277.12 0.00062784 200.109 0.000457317 149.71 0.000336239
255.193 0.000577433 179.823 0.000410685 167.47 0.000377066
234.242 0.000529271 160.345 0.000365906 183.728 0.000414441
214.356 0.000483555 142.155 0.000324091 198.099 0.000447478
195.622 0.000440489 125.684 0.000286227 210.24 0.000475388
178.127 0.00040027 111.293 0.000253144 219.859 0.000497501
161.931 0.000363038 99.2664 0.000225496 226.724 0.000513283
147.051 0.000328832 89.8065 0.000203749 230.664 0.000522339
133.462 0.000297591 83.0304 0.000188172 231.571 0.000524425
121.102 0.000269179 78.9597 0.000178814 229.408 0.000519451
109.887 0.000243397 77.5164 0.000175496 224.206 0.000507493
99.7034 0.000219986 78.5252 0.000177815 216.068 0.000488786
90.4154 0.000198634 81.7198 0.000185159 205.163 0.000463717
81.8592 0.000178965 86.7532 0.00019673 191.717 0.000432806
73.8366 0.000160522 93.2093 0.000211572 176.008 0.000396694
66.111 0.000142762 100.617 0.000228602 158.361 0.000356126
58.4062 0.00012505 108.466 0.000246646 139.135 0.000311927
50.4136 0.000106676 116.221 0.000264473 118.715 0.000264986
49.2304 0.000103956 122 0.000277757 97.6157 0.000216481
47.7509 0.000100555 126.029 0.00028702 76.2745 0.000167421
45.265 9.48405e-05 128.92 0.000293666 54.6896 0.000117801
41.532 8.62589e-05 129.758 0.000295591 33.5495 6.92025e-05
36.3758 7.44055e-05 128.579 0.000292881 12.9593 2.18687e-05
29.392 5.83508e-05 124.761 0.000284105 -5.05798 -3.42361e-05
20.4928 3.78929e-05 118.129 0.000268858 -20.3817 -9.72964e-05
9.82678 1.33733e-05 108.495 0.000246712 -34.5368 -0.000155548
-1.53791 -1.66816e-05 95.9054 0.000217769 -47.3394 -0.000208234
-11.0747 -5.59275e-05 80.2249 0.000181722 -58.6772 -0.000254891
-21.8325 -0.000100199 61.4014 0.00013845 -68.476 -0.000295216
-33.6813 -0.000148959 39.6694 8.84913e-05 -76.7091 -0.000329097
-46.4914 -0.000201675 15.2665 3.23927e-05 -83.4128 -0.000356684
-60.1566 -0.000257911 -7.58465 -3.78727e-05 -88.6236 -0.000378128
-74.5446 -0.00031712 -28.2448 -0.000122894 -92.4623 -0.000393925
-89.4728 -0.000378553 -50.1308 -0.00021296 -95.0839 -0.000404713
-104.707 -0.000441246 -72.9526 -0.000306877 -96.66 -0.000411199
-119.97 -0.000504057 -96.344 -0.000403138 -97.3856 -0.000414185
-134.807 -0.000565115 -119.969 -0.000500361 -97.4567 -0.000414478
-149.151 -0.000624141 -143.389 -0.000596738 -97.1044 -0.000413028
-162.909 -0.000680762 -166.185 -0.000690548 -96.5647 -0.000410807
-176.059 -0.000734874 -187.916 -0.000779978 -96.0679 -0.000408763
-188.623 -0.00078658 -208.144 -0.000863221 -95.8349 -0.000407803
-200.646 -0.000836056 -226.471 -0.000938638 -96.0618 -0.000408737
-212.164 -0.000883456 -242.559 -0.00100485 -96.9182 -0.000412262
-223.199 -0.000928868 -256.146 -0.00106076 -98.5378 -0.000418927
-233.385 -0.000970783 -267.12 -0.00110592 -101.008 -0.000429093
-241.075 -0.00100243 -275.695 -0.00114121 -104.337 -0.000442791
-247.79 -0.00103006 -281.629 -0.00116563 -108.536 -0.00046007
-253.206 -0.00105235 -284.747 -0.00117846 -113.671 -0.000481204
-257.483 -0.00106996 -285.252 -0.00118054 -119.577 -0.000505509
-260.615 -0.00108284 -283.204 -0.00117211 -126.214 -0.000532822
-262.609 -0.00109105 -278.857 -0.00115422 -133.409 -0.000562431
-263.572 -0.00109501 -272.441 -0.00112782 -141.003 -0.000593682
-263.66 -0.00109537 -264.227 -0.00109401 -148.793 -0.000625737
-263.018 -0.00109273 -254.512 -0.00105403 -156.561 -0.000657705
-261.815 -0.00108778 -243.642 -0.0010093 -164.08 -0.000688648
-260.249 -0.00108134 -231.984 -0.000961325 -171.115 -0.000717597
-258.508 -0.00107417 -219.905 -0.00091162 -177.428 -0.000743578
-256.769 -0.00106702 -207.767 -0.000861669 -182.79 -0.000765643
-255.211 -0.0010606 -195.922 -0.000812922 -186.986 -0.000782912
-253.999 -0.00105562 -184.707 -0.000766771 -189.827 -0.000794602
-253.281 -0.00105266 -174.433 -0.000724492 -191.149 -0.000800044
-253.186 -0.00105227 -165.369 -0.000687193 -190.823 -0.000798701
-253.82 -0.00105488 -157.742 -0.000655803 -188.754 -0.000790187
-255.253 -0.00106078 -151.732 -0.00063107 -184.891 -0.000774288
-257.512 -0.00107007 -147.473 -0.000613546 -179.224 -0.000750971
-260.589 -0.00108274 -145.047 -0.000603561 -171.793 -0.000720388
-264.454 -0.00109864 -144.474 -0.000601203 -162.678 -0.000682878
-269.064 -0.00111761 -145.714 -0.000606304 -152.006 -0.000638959
-274.365 -0.00113943 -148.638 -0.000618339 -139.95 -0.000589348
-279.636 -0.00116112 -153.236 -0.000637262 -126.697 -0.000534808
-285.024 -0.00118329 -159.313 -0.000662268 -112.486 -0.000476327
-290.489 -0.00120578 -166.58 -0.000692176 -97.6029 -0.000415079
-295.925 -0.00122815 -174.743 -0.000725767 -82.3334 -0.000352242
-301.274 -0.00125016 -183.462 -0.000761649 -66.9929 -0.000289112
-306.51 -0.00127171 -192.403 -0.00079844 -51.8964 -0.000226987
-311.578 -0.00129257 -201.22 -0.000834726 -37.3586 -0.000167161
-316.4 -0.00131241 -209.577 -0.000869119 -23.6822 -0.000110879
-320.899 -0.00133093 -217.164 -0.000900338 -11.1501 -5.93066e-05
-324.961 -0.00134764 -223.713 -0.000927289 -0.0181567 -1.3496e-05
-328.419 -0.00136187 -229.011 -0.000949092 11.2513 1.24108e-05
-331.095 -0.00137288 -232.887 -0.000965044 20.5041 3.36816e-05
-332.829 -0.00138002 -235.241 -0.000974728 27.4012 4.95369e-05
-333.504 -0.0013828 -235.989 -0.000977808 31.8395 5.97399e-05
-333.028 -0.00138084 -235.101 -0.000974156 33.7711 6.41805e-05
-331.338 -0.00137388 -232.593 -0.000963834 33.1979 6.28626e-05
-328.41 -0.00136183 -228.536 -0.000947136 30.1631 5.58861e-05
-324.288 -0.00134487 -223.033 -0.000924492 24.7596 4.34643e-05
-319.072 -0.00132341 -216.221 -0.000896458 17.1364 2.59398e-05
-312.917 -0.00129808 -208.259 -0.000863692 7.5697 3.9473e-06
-306.019 -0.00126969 -199.344 -0.000827006 -2.78007 -2.88165e-05
-298.578 -0.00123907 -189.714 -0.000787376 -13.5728 -7.32309e-05
-290.774 -0.00120695 -179.624 -0.000745852 -25.3662 -0.000121764
-282.75 -0.00117393 -169.361 -0.000703617 -37.8934 -0.000173316
-274.636 -0.00114054 -159.226 -0.000661911 -50.871 -0.000226721
-266.565 -0.00110733 -149.519 -0.000621965 -64.0131 -0.000280804
-258.688 -0.00107491 -140.521 -0.000584937 -77.0351 -0.000334393
-251.166 -0.00104396 -132.491 -0.000551891 -89.663 -0.00038636
-244.166 -0.00101515 -125.659 -0.000523774 -101.643 -0.000435659
-237.847 -0.000989147 -120.221 -0.000501397 -112.745 -0.000481347
-232.363 -0.000966579 -116.336 -0.000485408 -122.768 -0.000522596
-227.845 -0.000947987 -114.118 -0.000476282 -131.542 -0.000558702
-224.384 -0.000933743 -113.645 -0.000474335 -138.93 -0.000589103
-222.01 -0.000923974 -114.956 -0.000479729 -144.831 -0.000613389
-220.685 -0.00091852 -118.054 -0.000492478 -149.187 -0.000631312
-220.3 -0.000916937 -122.903 -0.000512435 -151.976 -0.000642792
-220.695 -0.000918564 -129.426 -0.000539276 -153.219 -0.000647906
-221.672 -0.000922584 -137.497 -0.00057249 -152.973 -0.000646894
-222.992 -0.000928015 -146.948 -0.000611384 -151.333 -0.000640146
-224.387 -0.000933757 -157.569 -0.000655091 -148.43 -0.0006282
-225.587 -0.000938692 -169.102 -0.000702555 -144.426 -0.000611724
-226.333 -0.000941764 -181.25 -0.000752543 -139.511 -0.000591496
-226.392 -0.000942005 -193.672 -0.000803663 -133.895 -0.000568386
-225.556 -0.000938568 -206 -0.000854397 -127.805 -0.000543322
-223.664 -0.000930782 -217.843 -0.000903134 -121.474 -0.00051727
-220.598 -0.000918164 -228.797 -0.000948211 -115.139 -0.000491198
-216.283 -0.000900406 -238.458 -0.000987968 -109.027 -0.000466046
-210.676 -0.000877332 -246.439 -0.00102081 -103.351 -0.000442689
-203.753 -0.000848844 -252.387 -0.00104529 -98.3006 -0.000421905
-195.498 -0.000814871 -255.992 -0.00106013 -94.0342 -0.000404348
-185.897 -0.000775361 -257.005 -0.0010643 -90.6744 -0.000390522
-174.95 -0.000730311 -255.239 -0.00105703 -88.3034 -0.000380764
-162.678 -0.00067981 -250.572 -0.00103782 -86.96 -0.000375236
-149.13 -0.000624057 -242.954 -0.00100647 -86.6379 -0.00037391
-134.384 -0.000563372 -232.401 -0.000963045 -87.2856 -0.000376576
-118.543 -0.000498186 -219.005 -0.000907916 -88.8072 -0.000382838
-101.733 -0.000429007 -202.924 -0.000841737 -91.0648 -0.000392128
-84.9757 -0.000360047 -184.241 -0.000764855 -93.8961 -0.000403779
-68.2003 -0.000291012 -163.051 -0.000677654 -97.1549 -0.00041719
-50.3395 -0.000217511 -140.424 -0.000584535 -100.405 -0.000430566
-31.9982 -0.000142033 -116.221 -0.000484936 -103.562 -0.000443557
-13.5364 -6.60581e-05 -91.1639 -0.00038182 -106.245 -0.000454598
7.29092 5.78312e-06 -65.4971 -0.000276196 -108.235 -0.000462789
34.2412 6.77377e-05 -39.6712 -0.000169916 -109.257 -0.000466994
60.1221 0.000127234 -14.1673 -6.49616e-05 -109.053 -0.000466154
84.6305 0.000183575 15.5613 2.614e-05 -107.403 -0.000459363
107.936 0.000237152 49.0389 0.0001031 -104.047 -0.000445551
129.357 0.000286394 80.6479 0.000175764 -98.8405 -0.000424127
148.545 0.000330506 109.814 0.000242812 -91.6805 -0.000394662
165.547 0.000369591 136.102 0.000303246 -82.5017 -0.000356889
180.345 0.000403609 159.262 0.000356486 -71.2598 -0.000310626
192.77 0.000432173 179.071 0.000402025 -57.9773 -0.000255965
202.854 0.000455353 195.354 0.000439457 -42.7256 -0.000193201
210.779 0.000473571 208.041 0.000468622 -25.6339 -0.000122865
216.713 0.000487212 217.185 0.000489642 -6.88197 -4.56967e-05
220.832 0.000496683 222.98 0.000502964 16.4515 1.70694e-05
223.45 0.000502701 225.557 0.00050889 42.0437 7.59021e-05
224.923 0.000506087 225.243 0.000508167 68.6297 0.000137019
225.638 0.00050773 222.388 0.000501603 95.8052 0.000199492
225.995 0.000508552 217.424 0.000490192 123.146 0.000262345
226.43 0.000509551 210.833 0.00047504 150.185 0.000324502
227.364 0.000511699 203.143 0.000457362 176.434 0.000384844
229.164 0.000515837 194.917 0.000438453 201.414 0.000442271
232.137 0.000522671 186.737 0.000419646 224.673 0.000495739
236.563 0.000532845 179.158 0.000402223 245.784 0.00054427
242.63 0.000546792 172.748 0.000387488 263.944 0.000586018
250.811 0.000565599 166.798 0.000373809 265.208 0.000588923
261.3 0.000589712 161.848 0.000362432 265.733 0.000590129
273.091 0.000616818 161.973 0.000362718 265.382 0.000589323
287.008 0.000648811 164.012 0.000367406 264.927 0.000588277
302.771 0.000685047 169.417 0.000379831 265.095 0.000588663
320.288 0.000725316 178.175 0.000399964 264.583 0.000587487
339.568 0.000769638 189.931 0.000426989 260.902 0.000579024
360.493 0.000817741 204.967 0.000461556 253.282 0.000561507
383.036 0.000869564 222.774 0.000502492 242.346 0.000536367
407.083 0.000924844 242.848 0.000548637 228.904 0.000505466
432.43 0.000983115 264.832 0.000599177 213.534 0.000470132
458.851 0.00104385 288.378 0.000653305 196.372 0.000430681
486.047 0.00110637 313.048 0.000710017 177.483 0.000387257
513.691 0.00116992 338.252 0.000767957 157.267 0.000340784
541.425 0.00123368 363.383 0.00082573 136.439 0.000292904
568.859 0.00129674 387.891 0.00088207 115.706 0.000245241
595.566 0.00135814 411.284 0.000935848 95.5263 0.000198851
621.106 0.00141685 433.094 0.000985985 76.1812 0.000154379
645.057 0.00147191 452.869 0.00103145 57.9892 0.000112558
573.656 0.00130777 365.315 0.000830172 60.245 0.000117744
633.102 0.00144443 388.084 0.000882514 36.6981 6.36134e-05
594.632 0.00135599 405.396 0.000922311 21.7149 2.91693e-05
574.956 0.00131076 422.427 0.000961463 8.62117 -9.31291e-07
617.419 0.00140838 373.278 0.000848478 -19.3304 -0.000101514
672.866 0.00153584 382.657 0.000870039 -21.3681 -0.0001099
658.736 0.00150336 392.835 0.000893437 -28.785 -0.000140422
652.893 0.00148993 384.594 0.000874491 -36.7624 -0.000173251
679.672 0.00155149 378.168 0.000859719 -39.2863 -0.000183637
690.946 0.0015774 386 0.000877723 -40.3216 -0.000187898
681.542 0.00155579 399.796 0.000909439 -39.2986 -0.000183688
677.009 0.00154537 405.049 0.000921514 -37.8211 -0.000177608
684.396 0.00156235 398.799 0.000907147 -34.2237 -0.000162804
688.818 0.00157251 397.428 0.000903993 -28.6467 -0.000139853
686.266 0.00156665 404.947 0.00092128 -21.1964 -0.000109193
685.705 0.00156536 413.952 0.000941981 -12.1162 -7.1826e-05
689.189 0.00157337 418.062 0.000951428 -2.1563 -3.08389e-05
691.173 0.00157793 419.089 0.00095379 10.3224 1.17397e-06
690.308 0.00157594 421.739 0.000959882 24.9918 3.48967e-05
689.538 0.00157417 427.548 0.000973236 41.2192 7.2201e-05
689.992 0.00157521 434.127 0.000988359 58.2133 0.000111268
690.06 0.00157537 439.214 0.00100005 75.5194 0.000151052
689.445 0.00157395 443.68 0.00101032 93.1882 0.00019167
689.287 0.00157359 448.909 0.00102234 111.46 0.000233674
689.839 0.00157486 455.82 0.00103823 130.05 0.00027641
690.696 0.00157683 463.638 0.0010562 148.508 0.000318841
691.862 0.00157951 471.421 0.00107409 166.439 0.000360063
693.816 0.001584 479.754 0.00109325 183.849 0.000400085
696.591 0.00159038 488.314 0.00111293 200.646 0.0004387
699.705 0.00159754 498.248 0.00113576 216.706 0.00047562
701.377 0.00160138 509.105 0.00116072 231.858 0.000510452
701.809 0.00160238 519.534 0.0011847 246.009 0.000542981
702.144 0.00160315 531.103 0.00121129 259.103 0.000573084
702.315 0.00160354 542.233 0.00123688 261.009 0.000577466
702.485 0.00160393 552.392 0.00126023 261.292 0.000578114
702.695 0.00160441 564.996 0.00128921 260.993 0.000577429
702.798 0.00160465 577.584 0.00131815 260.602 0.000576529
702.804 0.00160466 590.24 0.00134724 260.612 0.000576553
702.692 0.00160441 595.25 0.00135876 260.978 0.000577394
702.366 0.00160366 596.255 0.00136107 261.276 0.000578079
701.679 0.00160208 597.369 0.00136363 261.113 0.000577704
701.198 0.00160097 598.993 0.00136736 260.586 0.000576494
701.082 0.0016007 600.89 0.00137172 260.296 0.000575825
700.682 0.00159979 602.581 0.00137561 260.191 0.000575584
700 0.00159822 603.983 0.00137883 260.311 0.000575861
699.547 0.00159718 605.282 0.00138182 260.184 0.000575569
699.277 0.00159655 606.792 0.00138529 259.647 0.000574335
698.801 0.00159546 608.355 0.00138888 259.038 0.000572935
698.243 0.00159418 609.682 0.00139194 258.726 0.000572217
697.864 0.00159331 610.767 0.00139443 258.607 0.000571943
697.535 0.00159255 611.777 0.00139675 258.558 0.000571831
697.099 0.00159155 612.792 0.00139908 258.662 0.00057207
696.604 0.00159041 613.714 0.0014012 258.956 0.000572746
695.943 0.00158889 614.415 0.00140281 259.082 0.000573035
694.417 0.00158538 614.877 0.00140388 259.077 0.000573024
691.783 0.00157933 615.138 0.00140448 259.165 0.000573226
687.881 0.00157036 615.215 0.00140465 259.296 0.000573526
682.692 0.00155843 615.048 0.00140427 259.422 0.000573816
676.1 0.00154328 612.927 0.00139939 259.516 0.000574034
668.165 0.00152503 609.333 0.00139113 259.654 0.000574349
659.512 0.00150514 604.177 0.00137928 259.827 0.000574748
649.996 0.00148327 597.643 0.00136426 260.041 0.000575239
639.548 0.00145925 590.082 0.00134688 260.296 0.000575826
628.873 0.00143471 581.705 0.00132762 260.611 0.000576549
618.091 0.00140992 571.606 0.0013044 260.856 0.000577112
607.204 0.00138489 560.134 0.00127803 261.093 0.000577658
596.499 0.00136028 547.677 0.0012494 261.408 0.000578383
586.142 0.00133647 534.416 0.00121891 261.777 0.000579231
576.208 0.00131364 520.546 0.00118702 262.135 0.000580053
566.7 0.00129178 505.809 0.00115315 262.417 0.000580701
557.668 0.00127102 490.691 0.00111839 262.664 0.00058127
549.159 0.00125146 475.561 0.00108361 262.897 0.000581806
541.133 0.00123301 460.702 0.00104945 262.522 0.000580943
533.581 0.00121564 446.037 0.00101574 260.96 0.000577353
526.491 0.00119935 431.716 0.000982817 257.815 0.000570122
519.828 0.00118403 418.011 0.000951313 252.99 0.00055903
513.516 0.00116952 405.193 0.000921844 246.467 0.000544035
507.41 0.00115548 393.432 0.000894809 238.268 0.000525187
501.366 0.00114159 382.77 0.000870298 228.404 0.00050251
495.241 0.00112751 373.254 0.000848423 216.875 0.000476007
488.895 0.00111292 364.96 0.000829356 203.74 0.000445811
482.216 0.00109757 357.913 0.000813155 189.138 0.000412245
475.12 0.00108125 352.036 0.000799645 173.275 0.000375777
467.561 0.00106388 347.175 0.00078847 156.376 0.00033693
459.447 0.00104522 343.163 0.000779248 138.677 0.000296241
450.73 0.00102518 339.82 0.000771562 120.438 0.000254312
441.408 0.00100375 336.935 0.00076493 101.944 0.000211798
431.499 0.000980974 334.244 0.000758744 83.5143 0.000169431
421.05 0.000956954 331.455 0.000752331 65.4704 0.000127951
410.135 0.000931863 328.282 0.000745039 48.1222 8.807e-05
398.789 0.000905779 324.482 0.000736302 31.7516 5.04364e-05
387.004 0.000878688 319.837 0.000725624 16.6132 1.56356e-05
374.74 0.000850493 314.163 0.00071258 2.93569 -1.58071e-05
361.902 0.000820981 307.428 0.000697097 -4.43831 -4.61527e-05
348.296 0.000789703 299.943 0.000679892 -10.2685 -7.01452e-05
334.127 0.000757131 290.614 0.000658444 -14.582 -8.78961e-05
319.191 0.000722794 280.015 0.00063408 -17.7669 -0.000101003
303.647 0.000687061 267.879 0.000606181 -19.9592 -0.000110025
287.302 0.000649486 254.469 0.000575353 -21.4229 -0.000116048
270.147 0.00061005 239.848 0.000541742 -21.9977 -0.000118414
252.274 0.000568963 224.114 0.000505572 -21.3499 -0.000115748
233.764 0.000526411 207.399 0.000467147 -19.3339 -0.000107451
214.637 0.000482441 189.819 0.000426732 -16.1164 -9.42107e-05
194.895 0.000437057 171.642 0.000384946 -11.9771 -7.71766e-05
174.629 0.000390468 153.112 0.000342348 -7.14002 -5.72709e-05
153.958 0.000342948 134.404 0.000299342 -1.78423 -3.52306e-05
132.952 0.000294659 115.714 0.000256377 4.6022 -1.79636e-05
111.707 0.00024582 97.1867 0.000213785 11.4205 -2.28942e-06
90.279 0.00019656 79.1326 0.000172281 18.1052 1.30778e-05
68.7243 0.000147009 61.745 0.000132309 24.4577 2.76812e-05
47.0728 9.72358e-05 45.2259 9.43345e-05 30.2425 4.09796e-05
25.3395 4.72742e-05 29.7288 5.87091e-05 35.2934 5.25908e-05
8.72616 9.08251e-06 14.9028 2.46262e-05 39.4991 6.22592e-05
-5.07363 -3.254e-05 2.28153 -4.38815e-06 42.5379 6.9245e-05
-14.7768 -7.24707e-05 -6.26232 -3.9548e-05 44.3754 7.34691e-05
-24.7357 -0.000113454 -12.6004 -6.56305e-05 45.1146 7.51683e-05
-33.7342 -0.000150485 -18.2624 -8.89312e-05 44.9273 7.47378e-05
-42.3556 -0.000185964 -22.8776 -0.000107924 43.3336 7.1074e-05
-50.6413 -0.000220061 -26.96 -0.000124724 40.2165 6.39084e-05
-58.6651 -0.000253081 -30.5621 -0.000139547 35.9111 5.40109e-05
-66.4246 -0.000285013 -33.3847 -0.000151163 30.2039 4.08908e-05
-73.7278 -0.000315067 -35.8432 -0.00016128 23.426 2.53095e-05
-80.7216 -0.000343848 -37.9369 -0.000169896 15.6051 7.33043e-06
-87.4065 -0.000371358 -39.8156 -0.000177627 6.98398 -1.24882e-05
-93.7311 -0.000397385 -41.5386 -0.000184718 0.24451 -2.79813e-05
-99.842 -0.000422533 -42.9302 -0.000190445 -5.4123 -5.12603e-05
-105.541 -0.000445987 -44.6007 -0.000197319 -10.8918 -7.38097e-05
-110.954 -0.000468262 -46.4593 -0.000204968 -16.3087 -9.61013e-05
-116.207 -0.000489881 -48.5403 -0.000213531 -21.8016 -0.000118706
-121.297 -0.000510826 -50.9041 -0.000223259 -27.3857 -0.000141686
-126.308 -0.000531445 -53.5675 -0.00023422 -32.9815 -0.000164714
-132.281 -0.000556027 -56.6774 -0.000247018 -38.3679 -0.00018688
-137.601 -0.000577919 -60.6893 -0.000263527 -43.1957 -0.000206747
-142.933 -0.000599864 -65.3652 -0.00028277 -47.9355 -0.000226253
-149.202 -0.000625661 -70.605 -0.000304333 -52.3972 -0.000244614
-156.052 -0.000653849 -76.2203 -0.000327441 -56.7141 -0.000262379
-162.791 -0.000681585 -82.2534 -0.000352268 -60.7296 -0.000278903
-169.836 -0.000710576 -88.8738 -0.000379513 -64.4282 -0.000294124
-177.509 -0.00074215 -96.0885 -0.000409203 -67.8291 -0.000308119
-185.498 -0.000775028 -103.774 -0.000440833 -70.9363 -0.000320906
-193.659 -0.000808613 -111.77 -0.000473738 -73.7956 -0.000332673
-202.117 -0.000843417 -120.053 -0.000507821 -76.428 -0.000343506
-211.247 -0.000880988 -131.163 -0.000553544 -79.1237 -0.0003546
-219.845 -0.000916373 -141.811 -0.000597361 -81.9353 -0.00036617
-228.502 -0.000951997 -152.461 -0.000641187 -84.4234 -0.000376409
-237.763 -0.000990108 -163.677 -0.000687343 -86.9166 -0.000386669
-246.886 -0.00102765 -175.545 -0.000736185 -89.5383 -0.000397458
-255.468 -0.00106297 -187.347 -0.000784754 -92.1266 -0.000408109
-263.968 -0.00109795 -198.39 -0.000830196 -94.7329 -0.000418835
-272.39 -0.00113261 -208.929 -0.000873569 -97.4329 -0.000429946
-280.374 -0.00116546 -219.281 -0.000916169 -100.343 -0.000441923
0 -0.0268975 -205.294 -0.000858608 -105.66 -0.000463802
0 -0.059482 -132.088 -0.000557351 -122.045 -0.00053123
0 -0.0717107 -150.539 -0.00063328 -120.178 -0.000523549
0 -0.0691901 -170.086 -0.000713719 -123.883 -0.000538795
0 -0.0627766 -201.565 -0.000843264 -123.877 -0.00053877
0 -0.0655587 -210.418 -0.000879693 -125.923 -0.00054719
0 -0.0729181 -207.626 -0.000868206 -129.364 -0.00056135
0 -0.0755605 -221.427 -0.000924999 -129.596 -0.000562303
0 -0.0750339 -237.919 -0.000992867 -129.159 -0.000560506
0 -0.0755603 -249.193 -0.00103926 -129.37 -0.000561375
0 -0.077909 -258.063 -0.00107577 -129.748 -0.00056293
0 -0.0817108 -262.339 -0.00109336 -130.395 -0.000565591
0 -0.083146 -270.863 -0.00112844 -130.696 -0.00056683
0 -0.0834768 -281.824 -0.00117354 -129.783 -0.000563075
0 -0.08457 -288.334 -0.00120034 -131.097 -0.000568481
0 -0.0863617 -293.013 -0.00121959 -131.813 -0.000571427
0 -0.0877438 -296.583 -0.00123428 -132.732 -0.000575211
0 -0.0881421 -300.537 -0.00125056 -133.68 -0.000579113
0 -0.0881131 -304.054 -0.00126503 -134.805 -0.000583741
0 -0.0881779 -305.139 -0.00126949 -136.477 -0.000590622
0 -0.0883519 -304.551 -0.00126707 -138.344 -0.000598303
0 -0.0883179 -302.248 -0.00125759 -140.393 -0.000606736
0 -0.0881932 -298.648 -0.00124278 -142.581 -0.000615741
0 -0.0880659 -293.217 -0.00122043 -144.993 -0.000625668
0 -0.0879233 -286.426 -0.00119248 -147.433 -0.000635709
0 -0.0877385 -278.343 -0.00115922 -149.847 -0.00064564
0 -0.087439 -269.496 -0.00112281 -152.127 -0.000655025
0 -0.0868593 -260.219 -0.00108464 -154.18 -0.000663472
0 -0.0859287 -250.956 -0.00104652 -155.917 -0.000670622
0 -0.0848003 -241.595 -0.00100799 -157.257 -0.000676135
0 -0.083711 -231.843 -0.000967862 -158.198 -0.000680006
0 -0.0827537 -221.875 -0.000926842 -158.662 -0.000681917
0 -0.0818633 -212.113 -0.00088667 -158.416 -0.000680904
0 -0.0809609 -202.917 -0.000848825 -157.191 -0.000675864
0 -0.0800807 -194.38 -0.000813693 -154.88 -0.000666353
0 -0.0793046 -186.476 -0.000781167 -151.472 -0.000652327
0 -0.0786495 -179.338 -0.000751795 -146.948 -0.00063371
0 -0.0780749 -173.181 -0.000726457 -141.301 -0.000610473
0 -0.0775604 -168.127 -0.000705658 -134.552 -0.0005827
0 -0.0771367 -164.095 -0.000689066 -126.767 -0.000550664
0 -0.0768266 -161.03 -0.000676454 -118.027 -0.000514696
0 -0.0766188 -158.906 -0.000667711 -108.435 -0.000475222
0 -0.0764859 -157.676 -0.000662651 -98.1226 -0.000432784
0 -0.0764164 -157.24 -0.000660857 -87.239 -0.000387996
0 -0.0764086 -157.425 -0.000661617 -75.953 -0.000341551
0 -0.0764171 -158.139 -0.000664556 -64.4244 -0.000294108
0 -0.0764308 -159.244 -0.000669101 -52.8299 -0.000246394
0 -0.0764476 -160.529 -0.000674391 -41.3789 -0.000199271
0 -0.0764656 -161.848 -0.000679816 -30.2474 -0.000153462
0 -0.0764781 -163.036 -0.000684708 -19.624 -0.000109744
0 -0.076477 -163.962 -0.000688516 -9.67288 -6.87936e-05
0 -0.0764572 -164.5 -0.000690731 -0.552909 -3.12628e-05
0 -0.0764138 -164.637 -0.000691294 7.2177 -1.33993e-05
0 -0.0763383 -164.357 -0.000690145 13.1847 3.17889e-07
0 -0.0761155 -163.305 -0.000685812 17.8212 1.09765e-05
0 -0.0755133 -162.283 -0.000681608 21.7491 2.00062e-05
0 -0.0746223 -160.836 -0.000675652 24.8257 2.70788e-05
0 -0.0735245 -158.713 -0.000666917 26.8311 3.1689e-05
0 -0.0722585 -155.916 -0.000655406 27.7109 3.37115e-05
0 -0.0707778 -152.433 -0.000641074 27.223 3.25899e-05
0 -0.0690103 -148.562 -0.000625141 25.3067 2.81845e-05
0 -0.0670624 -143.904 -0.000605973 21.9088 2.03732e-05
0 -0.0649304 -138.58 -0.000584064 17.1005 9.31984e-06
0 -0.0625681 -132.905 -0.000560712 11.0742 -4.53393e-06
0 -0.059975 -126.702 -0.000535185 4.32475 -2.00498e-05
0 -0.0571595 -120.079 -0.000507928 -2.13706 -4.03363e-05
0 -0.0542087 -112.918 -0.00047846 -8.50724 -6.65511e-05
0 -0.0511665 -105.29 -0.000447071 -15.295 -9.44841e-05
0 -0.0480324 -97.2582 -0.000414017 -22.4616 -0.000123976
0 -0.0448215 -88.9465 -0.000379812 -29.934 -0.000154727
0 -0.0416051 -80.4943 -0.000345029 -37.5483 -0.000186061
0 -0.0384717 -71.7319 -0.00030897 -45.153 -0.000217357
0 -0.0354171 -62.8044 -0.000272231 -52.5542 -0.000247814
0 -0.0323651 -54.0844 -0.000236347 -59.6196 -0.00027689
0 -0.0293281 -45.8395 -0.000202417 -66.2617 -0.000304224
0 -0.0264062 -38.1148 -0.000170628 -72.347 -0.000329266
0 -0.0237055 -30.9485 -0.000141137 -77.7583 -0.000351535
0 -0.0212435 -24.5213 -0.000114688 -82.3025 -0.000370235
0 -0.0189423 -18.786 -9.10857e-05 -85.9157 -0.000385105
0 -0.0167048 -13.717 -7.02256e-05 -88.5484 -0.000395939
0 -0.0145666 -9.07151 -5.11085e-05 -90.2235 -0.000402832
0 -0.0126448 -4.5225 -3.23883e-05 -90.9984 -0.000406021
0 -0.0108803 -0.58934 -1.62024e-05 -90.6268 -0.000404492
0 -0.00928004 4.39017 -4.37415e-06 -89.0683 -0.000398078
0 -0.00776478 8.79123 5.74321e-06 -86.2966 -0.000386672
0 -0.00631216 11.9062 1.2904e-05 -82.3445 -0.000370408
0 -0.004982 15.0511 2.01338e-05 -77.4199 -0.000350142
0 -0.00375413 17.9696 2.68429e-05 -71.3734 -0.00032526
0 -0.00259967 20.8031 3.33566e-05 -64.4534 -0.000296782
0 -0.00147393 23.6684 3.99436e-05 -56.6673 -0.000264741
0 -0.000344842 26.5676 4.66084e-05 -48.1487 -0.000229685
0 0.000630379 29.6741 5.37499e-05 -39.0863 -0.000192391
0 0.000704413 34.7756 6.54775e-05 -30.0077 -0.00015503
0 0.000780164 40.4339 7.8485e-05 -20.8328 -0.000117273
0 0.000839143 45.9983 9.12766e-05 -10.9897 -7.67671e-05
0 0.000892186 52.981 0.000107329 -1.56047 -3.79635e-05
0 0.000946091 59.8314 0.000123077 6.79929 -1.66355e-05
0 0.00100226 67.3134 0.000140277 14.3716 7.72179e-07
0 0.00105675 76.1717 0.000160641 21.2658 1.66209e-05
0 0.00111108 85.7688 0.000182703 28.178 3.25109e-05
0 0.00116829 96.1481 0.000206564 34.9245 4.80202e-05
0 0.00122806 107.438 0.000232517 41.3817 6.28642e-05
0 0.00128911 119.74 0.000260798 47.4026 7.67055e-05
0 0.00135161 133.119 0.000291555 52.9303 8.94128e-05
0 0.00141684 147.384 0.000324348 58.0822 0.000101256
0 0.00148455 162.484 0.00035906 62.9541 0.000112456
0 0.00155404 178.434 0.000395727 67.5556 0.000123034
0 0.00162519 195.223 0.000434323 71.8429 0.00013289
0 0.00169815 212.798 0.000474724 75.8003 0.000141988
0 0.00177257 231.054 0.000516693 79.5009 0.000150495
0 0.00184788 249.908 0.000560036 83.0521 0.000158658
0 0.00192385 269.279 0.000604565 86.5469 0.000166692
0 0.00200048 289.064 0.000650048 90.0329 0.000174706
0 0.00207758 309.141 0.000696203 93.5495 0.00018279
0 0.00215483 329.379 0.000742726 97.1646 0.000191101
0 0.00223188 349.66 0.00078935 100.976 0.000199862
0 0.00230832 369.897 0.00083587 105.075 0.000209287
0 0.00238362 390.008 0.000882104 109.527 0.00021952
0 0.00245721 409.915 0.000927867 114.371 0.000230656
0 0.00252871 429.522 0.000972939 119.65 0.000242792
0 0.00259793 448.724 0.00101708 125.419 0.000256054
0 0.00266466 467.43 0.00106009 131.734 0.000270572
0 0.00272877 485.549 0.00110174 138.636 0.000286438
0 0.0027901 503.002 0.00114186 146.142 0.000303694
0 0.00284827 519.692 0.00118023 154.273 0.000322384
0 0.00290424 535.539 0.00121666 163 0.000342446
0 0.00295744 550.564 0.0012512 172.318 0.000363867
0 0.00299151 564.702 0.0012837 182.212 0.000386611
0 0.002997 575.463 0.00130844 192.978 0.000411361
0 0.00300337 583.5 0.00132691 204.76 0.000438447
0 0.00301008 594.233 0.00135159 215.912 0.000464083
0 0.00301607 603.018 0.00137178 227.686 0.000491151
0 0.00302275 610.621 0.00138926 239.711 0.000518795
0 0.00302962 610.171 0.00138823 250.968 0.000544672
0 0.00303502 609.021 0.00138558 260.877 0.000567451
0 0.00303943 608.107 0.00138348 263.193 0.000572774
0 0.00304501 608.017 0.00138327 263.439 0.000573342
0 0.0030512 608.163 0.00138361 263.393 0.000573235
0 0.00305561 608.024 0.00138329 263.538 0.000573568
0 0.00305893 607.731 0.00138262 264.066 0.000574783
0 0.00306329 607.525 0.00138214 264.745 0.000576344
0 0.00306775 607.594 0.0013823 265.246 0.000577494
0 0.00307072 607.949 0.00138312 265.401 0.00057785
0 0.00307302 608.417 0.00138419 265.365 0.000577768
0 0.00307575 608.866 0.00138522 265.431 0.000577919
0 0.00307813 609.396 0.00138644 265.688 0.00057851
0 0.00307933 610.175 0.00138823 265.964 0.000579146
0 0.00307991 611.201 0.00139059 266.051 0.000579344
0 0.00308038 612.389 0.00139332 265.939 0.000579087
0 0.00308027 613.677 0.00139628 265.796 0.000578759
0 0.00307933 614.992 0.00139931 265.713 0.00057857
0 0.00307802 616.425 0.0014026 265.698 0.000578534
0 0.00307656 618.002 0.00140623 265.652 0.000578429
0 0.00307474 619.653 0.00141002 265.511 0.000578104
0 0.00307255 621.292 0.00141379 265.299 0.000577618
0 0.0030697 623.269 0.00141834 265.062 0.000577073
0 0.00306695 625.168 0.0014227 264.924 0.000576754
0 0.00306437 626.933 0.00142676 264.817 0.000576509
0 0.00305319 628.489 0.00143034 264.662 0.000576152
0 0.00304228 629.647 0.001433 264.517 0.000575818
0 0.00303261 630.368 0.00143466 264.486 0.000575748
0 0.00302638 630.934 0.00143596 264.588 0.000575983
0 0.00301719 631.592 0.00143747 264.69 0.000576217
0 0.00300858 632.08 0.00143859 264.687 0.000576209
0 0.00300022 632.061 0.00143855 264.786 0.000576439
0 0.00298831 631.776 0.00143789 265.082 0.000577117
0 0.00297076 630.796 0.00143564 265.379 0.0005778
0 0.00294516 628.157 0.00142957 265.602 0.000578312
0 0.00291117 623.416 0.00141867 265.842 0.000578864
0 0.00287138 617.075 0.0014041 266.145 0.000579561
0 0.00282677 609.862 0.00138751 266.464 0.000580294
0 0.00277593 602.232 0.00136998 266.823 0.000581121
0 0.00272342 590.457 0.0013429 198.41 0.000423848
0 0.00265482 588.271 0.00133788 231.352 0.000499577
0 0.00259806 572.63 0.00130192 213.228 0.000457914
0 0.00252728 560.359 0.00127371 218.687 0.000470463
0 0.00245551 548.91 0.0012474 213.477 0.000458486
0 0.00238637 536.627 0.00121916 222.376 0.000478942
0 0.00231508 521.016 0.00118327 227.771 0.000491346
0 0.002243 505.584 0.0011478 232.08 0.000501251
0 0.00217203 491.477 0.00111537 228.932 0.000494013
0 0.00210049 477.657 0.0010836 231.803 0.000500614
0 0.00203025 462.64 0.00104907 234.239 0.000506213
0 0.00196165 448.013 0.00101545 236.195 0.000510711
0 0.00189402 434.963 0.000985448 233.162 0.000503739
0 0.00182817 422.612 0.000957055 228.89 0.000493918
0 0.00176472 410.55 0.000929327 225.706 0.000486598
0 0.0017037 399.023 0.000902827 222.279 0.00047872
0 0.00164426 388.596 0.000878858 214.554 0.000460961
0 0.00158594 379.229 0.000857325 204.4 0.00043762
0 0.00152851 370.405 0.000837038 193.718 0.000413063
0 0.00147112 361.916 0.000817523 182.993 0.000388407
0 0.00141282 353.998 0.000799322 171.421 0.000361805
0 0.00135339 346.61 0.000782339 159.307 0.000333956
0 0.00129313 338.986 0.000764811 147.428 0.00030665
0 0.00123184 330.998 0.000746449 136.02 0.000280424
0 0.00116981 322.414 0.000726715 124.935 0.000254941
0 0.00110763 312.95 0.000704959 113.521 0.000228702
0 0.00105796 301.655 0.000678994 101.772 0.000201693
0 0.0010081 288.799 0.000649438 90.4098 0.000175573
0 0.0009547 275.068 0.000617875 79.7094 0.000150974
0 0.000895478 260.333 0.000583999 69.5518 0.000127623
0 0.000829646 244.488 0.000547575 59.75 0.00010509
0 0.000752682 227.629 0.000508818 50.6106 8.40801e-05
0 0.000655074 209.976 0.000468236 41.9452 6.41598e-05
0 0.000488569 191.602 0.000425999 33.8383 4.55232e-05
0 4.56558e-05 172.996 0.000383226 26.073 2.76719e-05
0 -0.000518632 153.846 0.000339202 18.6712 1.06562e-05
0 -0.00110247 134.01 0.000293603 11.7828 -5.1792e-06
0 -0.00171472 113.508 0.000246472 5.39614 -1.98611e-05
0 -0.00266922 92.9703 0.000199258 1.30111 -2.9275e-05
0 -0.00443503 74.0421 0.000155745 -1.34328 -3.80098e-05
0 -0.00718692 56.5853 0.000115615 -3.73735 -4.78619e-05
0 -0.0107128 40.3655 7.83277e-05 -6.21946 -5.80764e-05
0 -0.0143266 22.8546 3.80728e-05 -8.44294 -6.72265e-05
0 -0.0177305 4.55563 -3.99379e-06 -10.4874 -7.56398e-05
0 -0.0210057 -5.19856 -3.73485e-05 -12.2906 -8.30603e-05
0 -0.024137 -13.9965 -7.35542e-05 -13.3966 -8.76119e-05
0 -0.0273 -21.9392 -0.00010624 -14.995 -9.41899e-05
0 -0.030289 -30.8795 -0.000143032 -16.251 -9.93585e-05
0 -0.0331297 -39.8643 -0.000180006 -17.5975 -0.0001049
0 -0.0358549 -48.7161 -0.000216433 -19.019 -0.000110749
0 -0.0384312 -57.6279 -0.000253107 -20.5267 -0.000116954
0 -0.0408453 -66.3791 -0.00028912 -22.2954 -0.000124233
0 -0.0430431 -74.9843 -0.000324533 -24.2627 -0.000132328
0 -0.045049 -83.1166 -0.000357999 -26.524 -0.000141634
0 -0.0468847 -90.7346 -0.000389349 -29.1115 -0.000152282
0 -0.048551 -97.7517 -0.000418226 -32.0856 -0.000164521
0 -0.0500451 -104.011 -0.000443983 -35.4883 -0.000178524
0 -0.051402 -109.369 -0.000466034 -39.3299 -0.000194333
0 -0.0526323 -113.916 -0.000484747 -43.5661 -0.000211766
0 -0.0537229 -117.676 -0.00050022 -48.1663 -0.000230697
0 -0.0545295 -120.929 -0.000513604 -53.1419 -0.000251173
0 -0.0551071 -123.557 -0.000524421 -58.4381 -0.000272968
0 -0.0555372 -125.668 -0.000533106 -63.5457 -0.000293987
0 -0.0558786 -127.386 -0.000540176 -68.6269 -0.000314897
0 -0.0561198 -128.744 -0.000545764 -74.0436 -0.000337188
0 -0.056249 -129.968 -0.000550803 -79.8498 -0.000361082
0 -0.0563554 -131.057 -0.000555286 -85.9518 -0.000386193
0 -0.0564632 -131.985 -0.000559105 -91.8233 -0.000410355
0 -0.0565828 -132.928 -0.000562982 -97.2091 -0.000432519
0 -0.0567259 -134.104 -0.000567823 -102.455 -0.000454108
0 -0.0569351 -135.439 -0.000573318 -107.069 -0.000473094
0 -0.0572407 -136.977 -0.000579646 -111.046 -0.000489461
0 -0.057643 -138.832 -0.000587281 -114.157 -0.000502264
0 -0.0581316 -141.105 -0.000596635 -116.507 -0.000511934
0 -0.0586665 -143.806 -0.000607751 -118.368 -0.000519592
0 -0.0592137 -146.954 -0.000620703 -119.799 -0.000525484
0 -0.0597873 -150.433 -0.000635023 -120.57 -0.000528654
0 -0.0604057 -154.199 -0.000650518 -120.374 -0.000527849
0 -0.0610811 -158.071 -0.000666454 -118.902 -0.000521789
0 -0.0618134 -161.904 -0.000682226 -116.311 -0.000511129
0 -0.0626029 -165.586 -0.000697379 -112.672 -0.000496154
0 -0.063428 -168.884 -0.000710953 -108.175 -0.000477645
0 -0.0643443 -171.755 -0.000722767 -103.023 -0.000456445
0 -0.0653703 -173.974 -0.000731896 -97.6056 -0.000434151
0 -0.0665183 -175.516 -0.000738244 -92.02 -0.000411165
0 -0.0677615 -176.358 -0.00074171 -86.3565 -0.000387859
0 -0.0690746 -176.252 -0.000741273 -80.7015 -0.000364587
0 -0.070423 -174.937 -0.000735861 -75.0153 -0.000341187
0 -0.0717728 -172.531 -0.00072596 -69.4192 -0.000318158
0 -0.0731116 -169.251 -0.00071246 -63.8561 -0.000295264
0 -0.0743651 -165.168 -0.000695659 -58.3529 -0.000272617
0 -0.0755657 -160.657 -0.000677094 -53.1209 -0.000251086
0 -0.0767616 -156.414 -0.000659635 -49.0589 -0.00023437
0 -0.0780213 -152.12 -0.000641962 -45.3741 -0.000219206
0 -0.0789675 -149.408 -0.000630803 -41.3235 -0.000202537
0 -0.0797639 -146.975 -0.000620791 -37.2847 -0.000185917
0 -0.0806157 -145.147 -0.000613269 -33.2897 -0.000169477
0 -0.0817273 -144.137 -0.000609111 -29.3269 -0.000153169
0 -0.0832578 -143.459 -0.00060632 -25.529 -0.000137539
0 -0.0848378 -143.47 -0.000606369 -21.9348 -0.000122749
0 -0.0861929 -144.599 -0.000611012 -18.3913 -0.000108166
0 -0.0876075 -146.351 -0.000618223 -15.0254 -9.43149e-05
0 -0.0892836 -148.562 -0.000627321 -11.8838 -8.13864e-05
0 -0.0911376 -151.162 -0.00063802 -9.10919 -6.99682e-05
0 -0.0929671 -154.498 -0.00065175 -6.739 -6.02144e-05
0 -0.094801 -158.406 -0.000667831 -4.85332 -5.24544e-05
0 -0.096739 -162.615 -0.000685153 -3.48912 -4.68404e-05
0 -0.0987763 -166.289 -0.000700274 -2.62231 -4.32733e-05
0 -0.100765 -170.081 -0.000715877 -2.01001 -4.07535e-05
0 -0.102647 -174.489 -0.000734017 -2.10575 -4.11475e-05
0 -0.104673 -178.692 -0.000751314 -3.08993 -4.51976e-05
0 -0.106962 -182.019 -0.000765006 -5.00653 -5.30849e-05
0 -0.109359 -184.775 -0.000776346 -7.14976 -6.19048e-05
0 -0.111735 -188.88 -0.000793238 -10.0251 -7.37374e-05
0 -0.114404 -192.318 -0.000807388 -13.5927 -8.84189e-05
0 -0.11721 -196.213 -0.000823417 -17.8807 -0.000106065
0 -0.119966 -201.071 -0.000843406 -22.7597 -0.000126143
0 -0.12261 -206.436 -0.000865488 -27.9122 -0.000147347
0 -0.125245 -212.109 -0.000888832 -33.5278 -0.000170456
0 -0.127935 -218.304 -0.000914324 -39.7674 -0.000196134
0 -0.130613 -225.202 -0.000942714 -46.4076 -0.00022346
0 -0.133242 -232.559 -0.000972987 -53.3606 -0.000252073
0 -0.135824 -240.32 -0.00100493 -60.6386 -0.000282024
0 -0.138352 -248.571 -0.00103888 -68.3334 -0.000313689
0 -0.140804 -257.219 -0.00107447 -76.5735 -0.000347599
0 -0.143152 -266.19 -0.00111139 -86.6309 -0.000388988
0 -0.145372 -275.207 -0.00114849 -96.7448 -0.000430609
0 -0.147467 -284.405 -0.00118635 -107.246 -0.000473823
0 -0.149418 -293.762 -0.00122485 -117.711 -0.000516891
0 -0.15122 -302.698 -0.00126162 -123.273 -0.000539779
0 -0.152892 -311.132 -0.00129633 -129.447 -0.000565186
0 -0.154361 -319.473 -0.00133066 -135.814 -0.000591386
0 -0.155693 -327.155 -0.00136227 -141.238 -0.000613707
0 -0.156896 -334.498 -0.00139249 -142.625 -0.000619418
0 -0.157981 -341.185 -0.00142001 -142.38 -0.000618407
0 -0.158954 -346.924 -0.00144362 -143.612 -0.000623478
0 -0.159786 -351.683 -0.00146321 -147.32 -0.000638739
0 -0.160497 -355.281 -0.00147802 -156.037 -0.00067461
0 -0.161165 -357.9 -0.0014888 -166.019 -0.000715688
0 -0.161795 -359.959 -0.00149727 -173.222 -0.00074533
0 -0.162453 -361.538 -0.00150377 -176.852 -0.000760268
0 -0.163145 -362.604 -0.00150815 -178.67 -0.000767751
0 -0.163866 -363.108 -0.00151023 -182.134 -0.000782005
0 -0.164615 -363.104 -0.00151021 -188.376 -0.00080769
0 -0.165205 -363.15 -0.0015104 -195.586 -0.000837363
0 -0.165514 -364.21 -0.00151476 -200.842 -0.000858993
0 -0.165981 -365.186 -0.00151878 -203.335 -0.000869251
0 -0.166734 -366.377 -0.00152368 -203.978 -0.000871899
0 -0.167653 -367.687 -0.00152907 -204.924 -0.000875789
0 -0.168594 -369.449 -0.00153632 -207.057 -0.00088457
0 -0.16967 -371.515 -0.00154483 -209.708 -0.000895478
0 -0.171033 -373.74 -0.00155398 -210.98 -0.000900713
0 -0.172587 -376.453 -0.00156514 -209.239 -0.000893547
0 -0.174188 -379.644 -0.00157828 -205.637 -0.000878724
0 -0.175856 -383.037 -0.00159224 -201.434 -0.00086143
0 -0.177642 -386.475 -0.00160639 -196.093 -0.000839448
0 -0.179527 -390.022 -0.00162098 -188.841 -0.000809606
0 -0.181422 -393.686 -0.00163606 -180.478 -0.000775189
0 -0.183268 -397.205 -0.00165055 -173.106 -0.000744853
0 -0.184788 -399.786 -0.00166116 -167.381 -0.000721293
0 -0.186404 -401.909 -0.0016699 -161.612 -0.000697552
0 -0.187897 -403.754 -0.0016775 -154.883 -0.000669861
0 -0.189133 -405.521 -0.00168477 -147.026 -0.000637526
0 -0.190227 -406.672 -0.0016895 -138.813 -0.000603728
0 -0.191189 -407.128 -0.00169138 -131.488 -0.000573585
0 -0.191882 -406.918 -0.00169051 -124.925 -0.000546578
0 -0.192226 -406.034 -0.00168688 -119.215 -0.000523078
0 -0.192267 -404.121 -0.00167901 -113.519 -0.000499638
0 -0.192193 -400.72 -0.00166501 -107.733 -0.000475828
0 -0.192058 -395.718 -0.00164442 -102.549 -0.000454494
0 -0.191854 -389.129 -0.00161731 -98.0995 -0.000436184
0 -0.191583 -381.024 -0.00158396 -94.52 -0.000421453
0 -0.191023 -371.786 -0.00154594 -91.7084 -0.000409883
0 -0.189586 -362.755 -0.00150877 -89.2706 -0.00039985
0 -0.187322 -353.89 -0.00147229 -86.9671 -0.000390371
0 -0.184842 -344.116 -0.00143207 -85.0628 -0.000382534
0 -0.18239 -333.274 -0.00138745 -83.7261 -0.000377034
0 -0.179711 -322.168 -0.00134175 -82.8357 -0.00037337
0 -0.176731 -311.069 -0.00129607 -82.2453 -0.00037094
0 -0.173694 -299.655 -0.0012491 -81.8086 -0.000369143
0 -0.170726 -287.929 -0.00120085 -81.4553 -0.000367689
0 -0.167729 -276.401 -0.00115341 -81.1405 -0.000366393
0 -0.164692 -265.304 -0.00110774 -80.8568 -0.000365226
0 -0.161718 -254.654 -0.00106392 -80.5057 -0.000363781
0 -0.158827 -244.66 -0.00102279 -79.9199 -0.00036137
0 -0.155948 -235.681 -0.000985836 -78.9886 -0.000357538
0 -0.153062 -227.877 -0.00095372 -77.7229 -0.000352329
0 -0.150194 -221.239 -0.000926405 -76.1491 -0.000345852
0 -0.147336 -215.774 -0.000903916 -74.2306 -0.000337957
0 -0.144458 -211.446 -0.000886103 -71.9248 -0.000328469
0 -0.141564 -208.058 -0.000872162 -69.2636 -0.000317517
0 -0.138672 -205.327 -0.000860924 -66.3434 -0.0003055
0 -0.135774 -202.989 -0.000851302 -63.255 -0.000292791
0 -0.132848 -200.789 -0.000842249 -60.0557 -0.000279625
0 -0.129882 -198.446 -0.000832606 -56.7942 -0.000266203
0 -0.12686 -195.692 -0.000821273 -53.5382 -0.000252804
0 -0.12375 -192.324 -0.000807414 -50.3727 -0.000239777
0 -0.120555 -188.059 -0.000789859 -47.3986 -0.000227538
0 -0.117604 -181.538 -0.000763027 -44.8352 -0.000216989
0 -0.114454 -174.601 -0.000734479 -42.2638 -0.000206407
0 -0.110984 -167.02 -0.000703281 -39.9169 -0.000196749
0 -0.107233 -158.644 -0.000668811 -37.691 -0.000187589
0 -0.103305 -148.884 -0.000628645 -35.6999 -0.000179395
0 -0.0991319 -138.085 -0.000584207 -33.879 -0.000171902
0 -0.0946386 -127.071 -0.000538882 -32.0379 -0.000164325
0 -0.0901021 -115.713 -0.000492142 -30.253 -0.00015698
0 -0.0857762 -103.631 -0.000442421 -28.6281 -0.000150293
0 -0.0815197 -90.5122 -0.000388434 -27.1296 -0.000144126
0 -0.0769641 -76.7569 -0.000331827 -25.5654 -0.000137689
0 -0.0721325 -62.4159 -0.000272811 -23.88 -0.000130754
0 -0.0673453 -47.4051 -0.000211038 -22.273 -0.00012414
0 -0.0626806 -31.1526 -0.000144156 -20.591 -0.000117218
0 -0.0579709 -14.8761 -7.71737e-05 -18.6995 -0.000109435
0 -0.0532381 0.49832 -1.53737e-05 -16.9001 -0.00010203
0 -0.048793 13.8369 1.52898e-05 -15.6931 -9.70624e-05
0 -0.0448394 28.7143 4.94907e-05 -14.6915 -9.29407e-05
0 -0.0408145 42.1779 8.04415e-05 -12.5207 -8.40075e-05
0 -0.0367921 56.0733 0.000112385 -10.3085 -7.49035e-05
0 -0.0328667 70.1587 0.000144765 -7.32571 -6.26288e-05
0 -0.0293107 85.3697 0.000179733 -3.75466 -4.79332e-05
0 -0.0260083 100.659 0.000214881 -0.0654363 -3.27512e-05
0 -0.0228416 115.63 0.000249297 2.97687 -2.57573e-05
0 -0.0198928 130.69 0.000283917 6.37148 -1.79537e-05
0 -0.0173179 146.045 0.000319217 10.3678 -8.76675e-06
0 -0.0150907 161.285 0.00035425 15.0362 1.96515e-06
0 -0.0131359 176.072 0.000388243 20.5126 1.45548e-05
0 -0.0112859 189.975 0.000420206 26.7792 2.89606e-05
0 -0.00955695 202.633 0.000449303 33.9066 4.53455e-05
0 -0.0081995 215.051 0.000477851 41.5368 6.28863e-05
0 -0.00720651 226.444 0.000504041 49.8796 8.2065e-05
0 -0.00651934 237.098 0.000528533 58.8685 0.000102729
0 -0.00604194 246.586 0.000550345 68.6914 0.000125311
0 -0.00581551 255.061 0.000569828 79.1947 0.000149456
0 -0.00583892 262.757 0.00058752 89.7003 0.000173607
0 -0.00590178 269.314 0.000602593 100.925 0.00019941
0 -0.00600284 274.785 0.000615171 112.864 0.000226856
0 -0.00615234 279.282 0.000625507 124.183 0.000252878
0 -0.0063373 283.191 0.000634495 135.51 0.000278916
0 -0.00653958 286.583 0.000642292 147.712 0.000306966
0 -0.0067459 289.476 0.000648942 159.834 0.000334834
0 -0.0069509 291.969 0.000654675 170.794 0.000360029
0 -0.00715192 294.197 0.000659795 180.791 0.00038301
0 -0.00733524 296.196 0.000664392 190.59 0.000405538
0 -0.00749378 298.021 0.000668587 200.215 0.000427665
0 -0.00762852 299.878 0.000672855 208.914 0.000447662
0 -0.00773732 301.997 0.000677727 216.182 0.000464368
0 -0.00781884 304.487 0.00068345 222.235 0.000478284
0 -0.00787423 307.359 0.000690052 227.451 0.000490275
0 -0.00790262 310.648 0.000697615 231.739 0.000500133
0 -0.00790244 314.403 0.000706245 234.684 0.000506903
0 -0.00787413 318.599 0.000715893 236.31 0.000510642
0 -0.0077856 322.981 0.000725966 236.514 0.00051111
0 -0.00766968 327.467 0.000736277 234.498 0.000506474
0 -0.00751536 332.034 0.000746776 229.997 0.000496129
0 -0.00732924 336.524 0.000757099 223.113 0.000480302
0 -0.00711965 340.76 0.000766836 214.637 0.000460818
0 -0.00689495 344.426 0.000775265 205.648 0.000440153
0 -0.00666469 347.09 0.000781389 195.813 0.000417544
0 -0.00642579 349.039 0.000785868 184.721 0.000392045
0 -0.00616834 349.922 0.000787899 172.666 0.000364332
0 -0.00590218 348.904 0.000785558 159.693 0.00033451
0 -0.00545118 345.174 0.000776985 145.911 0.000302827
0 -0.00414234 336.903 0.00075797 132.072 0.000271012
0 -0.00255754 328.168 0.000737891 118.109 0.000238915
0 -0.00103799 317.545 0.000713468 103.963 0.000206394
0 0.000276482 305.959 0.000686834 89.4889 0.000173121
0 0.000720237 294.811 0.000661207 74.8178 0.000139394
0 0.000770671 285.171 0.000639047 59.5773 0.000104359
0 0.000815352 273.966 0.000613287 44.9115 7.06441e-05
0 0.000849644 262.349 0.000586581 30.1645 3.6743e-05
0 0.000879792 250.354 0.000559007 15.7887 3.69519e-06
0 0.000903129 238.611 0.000532012 1.68557 -2.87259e-05
0 0.000919213 227.582 0.000506659 -4.138 -5.1059e-05
0 0.000930834 216.731 0.000481713 -9.98304 -7.51127e-05
0 0.000938061 206.227 0.000457565 -15.7086 -9.86749e-05
0 0.00093997 196.205 0.000434527 -21.226 -0.00012138
0 0.000938035 186.654 0.00041257 -26.4278 -0.000142787
0 0.000932476 177.549 0.000391639 -31.2647 -0.000162692
0 0.000922833 168.985 0.000371952 -35.7209 -0.00018103
0 0.000910017 160.842 0.000353233 -39.747 -0.000197598
0 0.000894306 153.105 0.000335446 -43.3547 -0.000212444
0 0.000875444 145.811 0.000318678 -46.5567 -0.000225622
0 0.000854877 138.982 0.000302979 -49.3634 -0.000237172
0 0.000833313 132.694 0.000288525 -51.7762 -0.000247101
0 0.000810117 126.93 0.000275275 -53.7862 -0.000255373
0 0.000784717 121.632 0.000263095 -55.2969 -0.000261589
0 0.000756342 116.806 0.000252001 -56.2808 -0.000265638
0 0.00072426 112.517 0.000242141 -56.7207 -0.000267449
0 0.000686735 108.787 0.000233567 -56.5991 -0.000266948
0 0.000639797 105.729 0.000226537 -55.6779 -0.000263157
0 0.000577382 103.461 0.000221322 -53.7154 -0.000255081
0 0.000494504 102.033 0.000218039 -50.6491 -0.000242463
0 0.0003952 101.479 0.000216765 -46.8047 -0.000226642
0 0.000289479 102.026 0.000218023 -42.7683 -0.000210032
0 0.000185339 103.683 0.000221833 -38.6121 -0.000192928
0 8.18485e-05 106.553 0.00022843 -34.1565 -0.000174592
0 -2.0865e-05 110.529 0.00023757 -29.1819 -0.00015412
0 -0.000124422 115.677 0.000249404 -23.2616 -0.000129757
0 -0.000230275 121.871 0.000263644 -16.5559 -0.000102161
0 -0.000341439 128.803 0.00027958 -9.91849 -7.48471e-05
0 -0.000464089 135.926 0.000295955 -3.38333 -4.79534e-05
0 -0.000605538 143.194 0.000312663 3.06307 -2.79543e-05
0 -0.000758089 150.368 0.000329154 9.51829 -1.31147e-05
0 -0.000917669 157.725 0.000346066 16.4697 2.8656e-06
0 -0.00108292 164.864 0.000362478 23.569 1.91858e-05
0 -0.00121053 171.75 0.000378308 30.6238 3.54038e-05
0 -0.00133496 178.116 0.000392944 37.7418 5.1767e-05
0 -0.00146597 184.299 0.000407157 44.8445 6.8095e-05
0 -0.00160855 190.053 0.000420384 52.0942 8.47609e-05
0 -0.00176189 195.366 0.000432598 59.444 0.000101657
0 -0.00193976 200.157 0.000443611 66.8327 0.000118643
0 -0.00216397 204.503 0.000453603 74.1436 0.000135449
0 -0.00245578 208.385 0.000462527 81.2384 0.000151759
0 -0.00284048 211.808 0.000470395 87.9868 0.000167273
0 -0.003349 214.732 0.000477117 94.3303 0.000181855
0 -0.00401328 217.151 0.000482679 100.338 0.000195666
0 -0.00485552 219.046 0.000487036 106.027 0.000208744
0 -0.0058704 220.341 0.000490011 111.3 0.000220866
0 -0.00702844 220.883 0.000491258 116.129 0.000231968
0 -0.00826276 220.294 0.000489904 120.419 0.00024183
0 -0.00958196 218.67 0.000486171 124.047 0.000250171
0 -0.0109316 216.373 0.00048089 127.023 0.000257011
0 -0.0122932 213.032 0.000473209 129.362 0.000262389
0 -0.0135948 208.361 0.000462471 131.058 0.000266286
0 -0.0148506 202.903 0.000449925 132.137 0.000268766
0 -0.0160636 196.514 0.000435238 132.458 0.000269505
0 -0.0172228 189.119 0.000418238 131.38 0.000267027
0 -0.0183111 180.82 0.000399159 128.695 0.000260855
0 -0.0193056 171.811 0.00037845 124.566 0.000251362
0 -0.0202028 162.181 0.00035631 119.523 0.00023977
0 -0.021016 152.12 0.000333181 113.693 0.000226366
0 -0.0217527 141.612 0.000309025 107.34 0.000211763
0 -0.0224104 131.053 0.000284752 99.8516 0.000194548
0 -0.0229895 120.504 0.000260501 90.7821 0.000173699
0 -0.0234971 109.97 0.000236286 80.2731 0.00014954
0 -0.0239345 99.4844 0.000212181 69.1751 0.000124027
0 -0.0242963 89.0452 0.000188182 57.0733 9.62072e-05
0 -0.0245755 78.6666 0.000164323 44.0276 6.6217e-05
0 -0.0247683 68.3183 0.000140534 30.1452 3.43034e-05
0 -0.0248596 57.9646 0.000116733 15.6048 8.77257e-07
0 -0.0248687 47.5645 9.28244e-05 2.95705 -2.8198e-05
0 -0.0248616 38.1999 7.12966e-05 -4.47571 -5.58997e-05
0 -0.0248418 28.4775 4.89463e-05 -11.3597 -8.42288e-05
0 -0.0248067 19.0576 2.72913e-05 -18.5172 -0.000113684
0 -0.0247236 9.28769 4.83175e-06 -25.6495 -0.000143034
0 -0.0244992 0.917892 -1.44092e-05 -32.7539 -0.000172271
0 -0.0241154 -4.24481 -3.56548e-05 -39.4477 -0.000199817
0 -0.0236608 -8.95422 -5.50352e-05 -46.0042 -0.000226799
0 -0.0231715 -13.8732 -7.5278e-05 -52.287 -0.000252654
0 -0.0227266 -18.6312 -9.48581e-05 -58.2845 -0.000277335
0 -0.0222566 -23.0491 -0.000113039 -64.0961 -0.000301251
0 -0.0217101 -27.5938 -0.000131741 -69.4988 -0.000323484
0 -0.0210678 -31.9878 -0.000149823 -74.6943 -0.000344865
0 -0.0204227 -36.4087 -0.000168017 -79.4598 -0.000364476
0 -0.0198367 -40.3862 -0.000184385 -83.9029 -0.00038276
0 -0.0192553 -43.9291 -0.000198965 -87.9127 -0.000399262
0 -0.0186456 -46.9017 -0.000211198 -91.5224 -0.000414116
0 -0.018062 -49.1556 -0.000220473 -94.7522 -0.000427408
0 -0.0175421 -50.5434 -0.000226184 -97.6429 -0.000439304
0 -0.0170608 -51.0667 -0.000228338 -100.21 -0.000449867
0 -0.0165963 -50.5172 -0.000226076 -102.444 -0.000459063
0 -0.0161755 -48.5031 -0.000217788 -104.135 -0.000466021
0 -0.0158154 -45.0353 -0.000203517 -105.224 -0.000470501
0 -0.0155109 -40.3112 -0.000184076 -105.742 -0.000472634
0 -0.0152631 -34.574 -0.000160466 -105.491 -0.0004716
0 -0.0150895 -28.0466 -0.000133605 -103.78 -0.000464559
0 -0.014999 -21.1718 -0.000105313 -100.336 -0.000450388
0 -0.014954 -14.5874 -7.82168e-05 -95.4525 -0.00043029
0 -0.0149668 -8.38197 -5.26802e-05 -89.7899 -0.000406987
0 -0.015005 -2.54423 -2.86566e-05 -83.7099 -0.000381967
0 -0.015045 4.10424 -9.30423e-06 -76.764 -0.000353383
0 -0.0150872 10.7975 6.08257e-06 -68.2378 -0.000318295
0 -0.0151459 15.2729 1.63708e-05 -58.7722 -0.000279342
0 -0.0152063 19.5464 2.61949e-05 -47.5703 -0.000233244
0 -0.0152617 23.425 3.51113e-05 -35.8691 -0.000185091
0 -0.0153156 27.1659 4.3711e-05 -23.7897 -0.000135381
0 -0.0153604 30.8751 5.22379e-05 -10.8401 -8.20906e-05
0 -0.0153925 34.7159 6.10675e-05 2.50665 -3.17862e-05
0 -0.0154049 38.3593 6.94431e-05 12.5133 -8.78242e-06
0 -0.0154001 42.3996 7.8731e-05 22.659 1.4541e-05
0 -0.0153857 47.1713 8.97006e-05 32.8538 3.79774e-05
0 -0.015356 52.6671 0.000102334 42.8149 6.08765e-05
0 -0.015311 59.0696 0.000117053 52.3657 8.28324e-05
0 -0.015241 66.4528 0.000134026 61.429 0.000103667
0 -0.0151519 74.9562 0.000153574 69.8841 0.000123105
0 -0.0150418 84.4927 0.000175497 77.7419 0.000141168
0 -0.0149063 95.0408 0.000199745 84.9818 0.000157812
0 -0.0145648 106.446 0.000225964 91.6209 0.000173074
0 -0.0138755 118.019 0.000252568 97.7727 0.000187216
0 -0.0130986 130.52 0.000281306 103.151 0.00019958
0 -0.0123363 143.527 0.000311208 107.896 0.000210489
0 -0.0115137 157.084 0.000342372 112.055 0.000220048
0 -0.0105598 170.654 0.000373569 115.777 0.000228605
0 -0.00952888 184.173 0.000404647 119.003 0.000236022
0 -0.00833374 196.904 0.000433914 121.932 0.000242754
0 -0.00719233 209.987 0.000463989 124.497 0.000248652
0 -0.00608061 222.366 0.000492447 126.659 0.00025362
0 -0.00505254 234.5 0.000520341 128.389 0.000257598
0 -0.00407641 245.99 0.000546756 130.098 0.000261526
0 -0.003165 256.638 0.000571233 131.891 0.00026565
0 -0.00236867 266.343 0.000593544 133.619 0.000269622
0 -0.00169612 274.997 0.000613438 135.217 0.000273294
0 -0.00115135 282.561 0.000630825 136.783 0.000276896
0 -0.000749576 288.861 0.000645309 138.511 0.000280868
0 -0.000518952 293.838 0.00065675 140.451 0.000285327
0 -0.000478364 297.421 0.000664987 142.53 0.000290107
0 -0.000534821 299.514 0.000669798 144.661 0.000295005
0 -0.000632755 300.084 0.000671109 146.875 0.000300094
0 -0.000781382 298.456 0.000667367 149.215 0.000305475
0 -0.00100397 294.379 0.000657994 151.436 0.00031058
0 -0.00128052 288.068 0.000643486 153.769 0.000315942
0 -0.0015943 280.673 0.000626487 156.134 0.000321381
0 -0.00193801 271.07 0.000604409 158.398 0.000326586
0 -0.00231925 259.639 0.000578133 160.438 0.000331275
0 -0.00272794 246.964 0.000548993 162.168 0.00033525
0 -0.00326289 233.124 0.000517178 163.485 0.000338279
0 -0.0041516 218.257 0.000483001 164.28 0.000340107
0 -0.00557051 203.183 0.000448347 164.316 0.00034019
0 -0.00743387 188.268 0.00041406 162.958 0.000337067
0 -0.00939644 172.822 0.000378552 159.998 0.000330264
0 -0.0112106 156.529 0.000341098 155.427 0.000319756
0 -0.0128588 139.835 0.00030272 149.625 0.000306416
0 -0.0144217 123.455 0.000265064 142.753 0.000290619
0 -0.015868 107.217 0.000227736 135.374 0.000273656
0 -0.0170953 91.0657 0.000190607 127.014 0.000254437
0 -0.0180871 75.2705 0.000154296 116.916 0.000231223
0 -0.0188918 60.2028 0.000119658 104.822 0.000203422
0 -0.0196845 46.6681 8.85437e-05 91.509 0.000172817
0 -0.020301 33.7385 5.88204e-05 77.0926 0.000139676
0 -0.0206641 21.5973 3.09098e-05 61.4767 0.000103777
0 -0.0207949 10.3189 4.98241e-06 44.7277 6.52737e-05
0 -0.020887 0.507627 -1.75723e-05 26.9513 2.44084e-05
0 -0.0210179 -3.31236 -3.32924e-05 8.57154 -1.78439e-05
0 -0.0209981 -6.52598 -4.65172e-05 -2.13348 -4.89447e-05
0 -0.0209919 -8.35565 -5.40467e-05 -11.1826 -8.6184e-05
0 -0.0209484 -10.6092 -6.33204e-05 -19.9931 -0.000122441
0 -0.0209027 -12.458 -7.09287e-05 -28.9054 -0.000159117
0 -0.0208577 -14.4538 -7.91419e-05 -37.5222 -0.000194577
0 -0.0208582 -16.6644 -8.82393e-05 -45.658 -0.000228058
0 -0.0209377 -19.2369 -9.88253e-05 -53.3013 -0.000259512
0 -0.0212483 -22.309 -0.000111468 -60.4473 -0.000288919
0 -0.0218447 -25.6869 -0.000125369 -67.0413 -0.000316055
0 -0.0226882 -29.5934 -0.000141445 -72.8508 -0.000339962
0 -0.0237363 -34.0727 -0.000159878 -77.8738 -0.000360633
0 -0.0250319 -39.1585 -0.000180807 -82.1226 -0.000378118
0 -0.0266545 -44.694 -0.000203587 -85.5363 -0.000392166
0 -0.028588 -50.7183 -0.000228378 -88.0868 -0.000402662
0 -0.0307812 -57.2426 -0.000255227 -89.7255 -0.000409406
0 -0.0332274 -64.233 -0.000283995 -90.6193 -0.000413084
0 -0.0359592 -71.5365 -0.00031405 -90.9091 -0.000414276
0 -0.0389619 -79.0241 -0.000344863 -90.156 -0.000411177
0 -0.0421736 -86.7699 -0.000376739 -87.8362 -0.000401631
0 -0.0455313 -94.8158 -0.00040985 -84.0149 -0.000385905
0 -0.0489886 -103.092 -0.000443908 -79.2139 -0.000366148
0 -0.0524913 -111.482 -0.000478434 -74.5613 -0.000347001
0 -0.0559462 -119.835 -0.00051281 -69.9318 -0.00032795
0 -0.0593772 -128.109 -0.000546859 -64.9352 -0.000307388
0 -0.0631387 -135.583 -0.000577618 -60.1156 -0.000287554
0 -0.0669193 -142.736 -0.000607052 -54.9541 -0.000266314
0 -0.0705438 -149.454 -0.000634697 -49.6845 -0.000244628
0 -0.0739261 -155.852 -0.000661028 -44.9978 -0.000225341
0 -0.0772034 -161.686 -0.000685036 -41.115 -0.000209362
0 -0.0804348 -167.751 -0.000709994 -38.1285 -0.000197072
0 -0.0835597 -173.128 -0.000732123 -36.0596 -0.000188559
0 -0.0865692 -177.252 -0.000749095 -34.3351 -0.000181462
0 -0.0892778 -181.377 -0.000766067 -33.3859 -0.000177555
0 -0.0916827 -185.058 -0.000781218 -33.5512 -0.000178236
0 -0.0938806 -187.597 -0.000791665 -34.8528 -0.000183592
0 -0.0959954 -190.003 -0.000801566 -36.6621 -0.000191038
0 -0.0981449 -191.604 -0.000808155 -39.1608 -0.000201321
0 -0.0996878 -193.254 -0.000814945 -41.9906 -0.000212966
0 -0.10053 -194.901 -0.000821724 -45.3495 -0.000226788
0 -0.101235 -195.704 -0.000825029 -49.7958 -0.000245086
0 -0.101847 -196.158 -0.000826898 -54.8584 -0.00026592
0 -0.102124 -196.482 -0.000828231 -60.1425 -0.000287665
0 -0.102107 -196.748 -0.000829324 -65.5484 -0.000309911
0 -0.102089 -196.489 -0.000828257 -71.4862 -0.000334347
0 -0.102051 -196.101 -0.000826661 -77.7592 -0.000360162
0 -0.101985 -195.559 -0.000824431 -84.1954 -0.000386648
0 -0.101916 -194.948 -0.000821917 -88.957 -0.000406243
0 -0.101852 -194.098 -0.000818419 -92.504 -0.00042084
0 -0.101759 -193.748 -0.000816976 -95.8687 -0.000434686
0 -0.101594 -193.648 -0.000816566 -99.1745 -0.00044829
0 -0.101332 -194.067 -0.00081829 -102.148 -0.000460527
0 -0.10097 -195.059 -0.000822371 -104.76 -0.000471276
0 -0.100498 -196.712 -0.000829177 -107.058 -0.000480731
0 -0.0999129 -198.987 -0.000838537 -109.089 -0.000489092
0 -0.099204 -201.817 -0.000850184 -110.819 -0.000496209
0 -0.0983665 -205.094 -0.00086367 -112.188 -0.000501844
0 -0.0973985 -208.624 -0.000878198 -113.233 -0.000506145
0 -0.0962968 -212.191 -0.000892877 -114.046 -0.000509489
0 -0.0952905 -215.128 -0.000904964 -114.763 -0.000512441
0 -0.0944696 -216.874 -0.000912146 -115.529 -0.000515595
0 -0.0934371 -218.688 -0.000919613 -115.949 -0.00051732
0 -0.0921316 -219.732 -0.000923909 -116.344 -0.000518948
0 -0.0906079 -220.063 -0.000925269 -116.565 -0.000519857
0 -0.0889662 -218.672 -0.000919547 -116.779 -0.000520736
0 -0.0870381 -215.779 -0.00090764 -116.852 -0.000521036
0 -0.0847962 -211.585 -0.000890381 -116.678 -0.000520321
0 -0.0823686 -205.932 -0.000867118 -116.227 -0.000518465
0 -0.079828 -198.973 -0.000838482 -115.448 -0.000515258
0 -0.0771912 -190.751 -0.000804643 -114.339 -0.000510695
0 -0.0744164 -181.154 -0.000765152 -112.869 -0.000504646
0 -0.0714488 -170.144 -0.00071984 -111.062 -0.000497209
0 -0.0682958 -157.613 -0.000668274 -109.104 -0.000489152
0 -0.0650656 -143.575 -0.000610504 -107.029 -0.000480614
0 -0.0618223 -128.586 -0.00054882 -104.802 -0.000471448
0 -0.0585984 -112.263 -0.000481648 -102.152 -0.000460544
0 -0.0553397 -95.4289 -0.000412373 -98.8361 -0.000446898
0 -0.0520627 -79.8511 -0.000348267 -94.9432 -0.000430878
0 -0.0489538 -64.957 -0.000286974 -90.6647 -0.000413271
0 -0.0460187 -49.8585 -0.00022484 -85.7204 -0.000392924
0 -0.0430118 -35.629 -0.000166283 -79.9457 -0.00036916
0 -0.0398133 -22.4324 -0.000111976 -73.2055 -0.000341422
0 -0.0365544 -9.38435 -5.828e-05 -65.469 -0.000309585
0 -0.0333357 5.81108 -8.74353e-06 -56.822 -0.000274
0 -0.030093 18.373 2.01344e-05 -47.6992 -0.000236458
0 -0.0268742 30.5331 4.80888e-05 -38.6694 -0.000199298
0 -0.0234438 41.885 7.41849e-05 -28.2975 -0.000156616
0 -0.0200303 54.4011 0.000102958 -17.5839 -0.000112527
0 -0.0168729 67.7421 0.000133627 -6.26969 -6.59661e-05
0 -0.0136526 80.8156 0.000163681 4.02231 -3.19438e-05
0 -0.0102212 93.961 0.0001939 12.4678 -1.25289e-05
0 -0.00655211 107.708 0.000225503 20.6985 6.39223e-06
0 -0.00285713 122.275 0.00025899 29.2696 2.60959e-05
0 0.0007172 137.778 0.00029463 37.8408 4.57999e-05
0 0.00088038 159.258 0.000344008 45.3386 6.30361e-05
0 0.00105362 181.049 0.000394103 52.291 7.90186e-05
0 0.00118185 204.44 0.000447875 59.8743 9.64517e-05
0 0.0013116 228.296 0.000502715 66.9464 0.000112709
0 0.00145565 252.411 0.000558152 74.431 0.000129915
0 0.00159029 278.465 0.000618048 81.5419 0.000146262
0 0.00172542 304.798 0.000678582 88.806 0.000162961
0 0.00186728 331.554 0.000740091 96.0729 0.000179667
0 0.00200745 358.915 0.00080299 103.565 0.00019689
0 0.00214588 387.067 0.000867707 111.265 0.000214591
0 0.00228648 415.405 0.000932851 119.356 0.000233192
0 0.00242614 443.913 0.000998388 127.826 0.000252662
0 0.00256331 472.653 0.00106446 136.695 0.000273052
0 0.00269931 501.514 0.0011308 145.968 0.000294369
0 0.00283235 530.263 0.00119689 155.666 0.000316662
0 0.00296252 558.683 0.00126223 165.842 0.000340056
0 0.00308722 586.848 0.00132697 176.532 0.000364631
0 0.00281827 612.002 0.0013848 188.256 0.000391581
0 0.000746443 431.442 0.000969718 218.851 0.000461916
0 -0.00529718 551.79 0.00124638 221.517 0.000468043
0 -0.00079262 551.083 0.00124476 242.797 0.000516964
0 0.000609803 629.289 0.00142454 250.02 0.000533567
0 0.000766165 644.665 0.00145989 257.051 0.000549731
0 0.000793722 639.285 0.00144752 257.059 0.000549751
0 0.000765754 635.873 0.00143967 258.161 0.000552283
0 0.00027372 140.522 0.000300936 213.988 0.000450737
0 -0.00132285 38.8498 6.72075e-05 169.629 0.000348762
0 0.000648996 54.1956 9.28512e-05 224.085 0.000473948
0 0.000743635 139.579 0.000289134 225.436 0.000477053
0 0.000730441 151.503 0.000316546 249.099 0.000531452
0 0.00071617 138.499 0.000286653 257.938 0.00055177
0 0.000709997 136.137 0.000281222 258.809 0.000553772
0 0.00070208 148.659 0.000310007 256.445 0.000548339
0 0.000694251 153.507 0.000321153 256.695 0.000548912
0 0.000685509 149.314 0.000311515 258.448 0.000552943
0 0.000678887 148.943 0.000310662 259.438 0.000555219
0 0.000673162 154.464 0.000323353 259.003 0.00055422
0 0.000666508 157.204 0.000329652 258.735 0.000553602
0 0.000661786 155.475 0.000325678 259.594 0.000555578
0 0.000657814 155.011 0.000324612 261.214 0.000559302
0 0.000653424 157.162 0.000329555 116.37 0.000226327
0 0.000649092 158.473 0.000332569 48.7215 7.08129e-05
0 0.000654647 154.486 0.000323403 44.397 6.08716e-05
0 0.000646529 153.521 0.000321186 44.4119 6.09059e-05
0 0.000645871 155.499 0.000325733 51.4655 7.71211e-05
0 0.000655226 153.469 0.000321065 55.6223 8.66769e-05
0 0.000652187 149.876 0.000312806 52.8543 8.03136e-05
0 0.000652386 148.421 0.000309461 49.7814 7.32495e-05
0 0.000660407 147.023 0.000306247 52.0345 7.84291e-05
0 0.000662561 144.13 0.000299597 56.5177 8.87353e-05
0 0.000664716 141.013 0.000292431 57.9388 9.2002e-05
0 0.000671392 138.368 0.00028635 56.75 8.92693e-05
0 0.000674464 135.769 0.000280376 56.7856 8.93512e-05
0 0.000678441 132.838 0.000273639 59.1803 9.48562e-05
0 0.000683719 129.798 0.000266649 61.6565 0.000100549
0 0.000687797 127.172 0.000260613 62.3791 0.00010221
0 0.000692066 124.832 0.000255234 62.2969 0.000102021
0 0.000695333 122.503 0.000249881 63.1555 0.000103995
0 0.000697768 120.357 0.000244946 64.8734 0.000107944
0 0.000699048 118.637 0.000240993 66.1514 0.000110882
0 0.000700139 117.261 0.000237829 66.5074 0.0001117
0 0.000700184 116.079 0.000235112 66.7322 0.000112217
0 0.00069905 115.289 0.000233296 67.4023 0.000113757
0 0.000697332 114.916 0.000232437 68.2422 0.000115688
0 0.000694725 114.864 0.00023232 68.702 0.000116745
0 0.000690933 115.161 0.000233001 68.7185 0.000116783
