-0.0550541 -2.77064e-05 -0.139531 -4.38742e-05 -0.0426907 -7.66388e-06
-0.0546951 -2.75258e-05 -0.139609 -4.38986e-05 -0.0426666 -7.65956e-06
-0.053845 -2.70979e-05 -0.139798 -4.39583e-05 -0.042576 -7.6433e-06
-0.0520804 -2.62099e-05 -0.14009 -4.40501e-05 -0.0424647 -7.62331e-06
-0.0500553 -2.51908e-05 -0.140375 -4.41397e-05 -0.0423925 -7.61036e-06
-0.047425 -2.3867e-05 -0.140673 -4.42335e-05 -0.0423876 -7.60948e-06
-0.0441276 -2.22076e-05 -0.140938 -4.43165e-05 -0.0424841 -7.6268e-06
-0.0400951 -2.01782e-05 -0.141104 -4.4369e-05 -0.0427324 -7.67138e-06
-0.0352536 -1.77417e-05 -0.141116 -4.43728e-05 -0.0431862 -7.75283e-06
-0.0295231 -1.48578e-05 -0.140917 -4.431e-05 -0.0438968 -7.88042e-06
-0.0228274 -1.14881e-05 -0.140434 -4.41581e-05 -0.0449098 -8.06226e-06
-0.0151091 -7.60378e-06 -0.139581 -4.38901e-05 -0.0462626 -8.30512e-06
-0.00639269 -3.21718e-06 -0.138264 -4.34758e-05 -0.0479884 -8.61494e-06
0.00317458 1.59764e-06 -0.136422 -4.28968e-05 -0.05008 -8.99042e-06
0.0137929 6.94139e-06 -0.133869 -4.20938e-05 -0.05261 -9.44462e-06
0.0250871 1.26253e-05 -0.130513 -4.10385e-05 -0.0555362 -9.96994e-06
0.0368194 1.85297e-05 -0.126228 -3.96914e-05 -0.0588259 -1.05605e-05
0.0487086 2.4513e-05 -0.120906 -3.80179e-05 -0.0623955 -1.12013e-05
0.0604416 3.04178e-05 -0.114474 -3.59954e-05 -0.0661159 -1.18692e-05
0.0717014 3.60844e-05 -0.106901 -3.3614e-05 -0.0697965 -1.253e-05
0.0821661 4.13508e-05 -0.0981926 -3.08758e-05 -0.0732094 -1.31427e-05
0.0914652 4.60306e-05 -0.0883926 -2.77943e-05 -0.0760416 -1.36511e-05
0.0991551 4.99006e-05 -0.0775798 -2.43943e-05 -0.0779349 -1.3991e-05
0.104705 5.26935e-05 -0.0659367 -2.07332e-05 -0.078504 -1.40931e-05
0.107493 5.40966e-05 -0.0537293 -1.68947e-05 -0.0773517 -1.38863e-05
0.106849 5.37727e-05 -0.041138 -1.29355e-05 -0.0740668 -1.32966e-05
0.102206 5.14358e-05 -0.0283794 -8.92366e-06 -0.0681888 -1.22413e-05
0.0932512 4.69295e-05 -0.0157158 -4.9417e-06 -0.0591619 -1.06208e-05
0.0801171 4.03196e-05 -0.00375199 -1.17978e-06 -0.0464308 -8.33532e-06
0.0632933 3.18529e-05 0.00689907 2.16935e-06 -0.0295222 -5.29987e-06
0.0436208 2.19526e-05 0.0156057 4.90707e-06 -0.00818573 -1.46951e-06
0.0214128 1.07762e-05 0.0217 6.82337e-06 0.0181938 3.26618e-06
-0.00244493 -1.23043e-06 0.0247809 7.79213e-06 0.0495775 8.90022e-06
-0.0275335 -1.38565e-05 0.0244217 7.67918e-06 0.0857198 1.53885e-05
-0.0533924 -2.68702e-05 0.0203614 6.40247e-06 0.126258 2.2666e-05
-0.0797497 -4.01347e-05 0.0125528 3.94711e-06 0.17049 3.06067e-05
-0.106515 -5.36048e-05 0.00107609 3.38367e-07 0.217486 3.90434e-05
-0.133593 -6.72319e-05 -0.013904 -4.37199e-06 0.26608 4.7767e-05
-0.160733 -8.08904e-05 -0.0321201 -1.00999e-05 0.314833 5.65191e-05
-0.187852 -9.4538e-05 -0.0539416 -1.69615e-05 0.362062 6.49978e-05
-0.214787 -0.000108093 -0.0780874 -2.45539e-05 0.406503 7.29759e-05
-0.24123 -0.000121401 -0.104102 -3.2734e-05 0.446423 8.01424e-05
-0.266738 -0.000134238 -0.131433 -4.13278e-05 0.480234 8.62122e-05
-0.29074 -0.000146317 -0.159573 -5.01761e-05 0.506421 9.09134e-05
-0.312594 -0.000157316 -0.188005 -5.91164e-05 0.523616 9.40002e-05
-0.331744 -0.000166953 -0.216196 -6.7981e-05 0.530568 9.52483e-05
-0.347972 -0.00017512 -0.243609 -7.66005e-05 0.526141 9.44535e-05
-0.361438 -0.000181897 -0.269814 -8.48404e-05 0.509433 9.14541e-05
-0.372666 -0.000187547 -0.294048 -9.24606e-05 0.479832 8.614e-05
-0.382597 -0.000192545 -0.315665 -9.9258e-05 0.436983 7.84478e-05
-0.395206 -0.000198891 -0.338376 -0.000106399 0.364765 6.54831e-05
-0.410872 -0.000206775 -0.355857 -0.000111896 0.272583 4.89345e-05
-0.432664 -0.000217742 -0.367955 -0.0001157 0.162369 2.91486e-05
-0.463121 -0.00023307 -0.375233 -0.000117989 0.0371773 6.67411e-06
-0.503856 -0.00025357 -0.379224 -0.000119243 -0.100667 -1.80719e-05
-0.555352 -0.000279485 -0.382161 -0.000120167 -0.244999 -4.39825e-05
-0.616787 -0.000310403 -0.386862 -0.000121645 -0.389945 -7.00034e-05
-0.686132 -0.000345302 -0.396466 -0.000124665 -0.52946 -9.50493e-05
-0.760787 -0.000382872 -0.414266 -0.000130262 -0.657738 -0.000118078
-0.838546 -0.000422006 -0.44305 -0.000139313 -0.770822 -0.000138379
-0.918127 -0.000462055 -0.484692 -0.000152407 -0.865665 -0.000155405
-0.999066 -0.000502788 -0.540163 -0.000169849 -0.940586 -0.000168855
-1.08135 -0.0005442 -0.609537 -0.000191663 -0.995562 -0.000178725
-1.16511 -0.000586351 -0.692001 -0.000217593 -1.03239 -0.000185335
-1.25025 -0.000629201 -0.785979 -0.000247144 -1.05438 -0.000189283
-1.33609 -0.0006724 -0.889398 -0.000279663 -1.0658 -0.000191334
-1.42138 -0.000715323 -0.999774 -0.00031437 -1.07179 -0.000192409
-1.50486 -0.000757333 -1.11421 -0.000350353 -1.07816 -0.000193553
-1.58572 -0.000798029 -1.22949 -0.000386601 -1.09116 -0.000195886
-1.66369 -0.000837265 -1.34229 -0.000422072 -1.11682 -0.000200494
-1.73861 -0.000874972 -1.44949 -0.00045578 -1.1606 -0.000208352
-1.80999 -0.000910892 -1.54841 -0.000486884 -1.22689 -0.000220253
-1.87661 -0.000944422 -1.63707 -0.000514761 -1.31883 -0.000236757
-1.93706 -0.000974842 -1.71415 -0.000539 -1.438 -0.000258151
-1.99021 -0.00100159 -1.77897 -0.00055938 -1.58445 -0.000284443
-2.03542 -0.00102434 -1.8314 -0.000575869 -1.75665 -0.000315357
-2.07253 -0.00104302 -1.87189 -0.000588599 -1.95163 -0.000350359
-2.1019 -0.0010578 -1.90132 -0.000597854 -2.16507 -0.000388677
-2.12433 -0.00106909 -1.921 -0.000604042 -2.39154 -0.000429332
-2.141 -0.00107748 -1.93258 -0.000607683 -2.62467 -0.000471185
-2.15328 -0.00108365 -1.93796 -0.000609373 -2.85754 -0.000512988
-2.16263 -0.00108836 -1.93917 -0.000609753 -3.08291 -0.000553448
-2.17068 -0.00109241 -1.93825 -0.000609464 -3.29366 -0.000591282
-2.17932 -0.00109676 -1.93709 -0.000609102 -3.48307 -0.000625286
-2.19063 -0.00110245 -1.93738 -0.000609192 -3.64515 -0.000654381
-2.2065 -0.00111044 -1.94054 -0.000610184 -3.77484 -0.000677664
-2.22809 -0.00112131 -1.94781 -0.000612473 -3.86821 -0.000694426
-2.25524 -0.00113497 -1.96032 -0.000616406 -3.92253 -0.000704177
-2.28646 -0.00115068 -1.97894 -0.000622261 -3.93646 -0.000706678
-2.31942 -0.00116727 -2.00411 -0.000630174 -3.91026 -0.000701975
-2.34527 -0.00118028 -2.02887 -0.00063796 -3.86165 -0.000693248
-2.37472 -0.0011951 -2.06494 -0.000649303 -3.76925 -0.000676661
-2.39879 -0.00120721 -2.10528 -0.000661986 -3.64636 -0.0006546
-2.41545 -0.0012156 -2.14766 -0.000675312 -3.4993 -0.000628198
-2.4228 -0.00121929 -2.18936 -0.000688424 -3.3354 -0.000598776
-2.41877 -0.00121726 -2.22732 -0.000700362 -3.16263 -0.000567759
-2.4013 -0.00120848 -2.25829 -0.0007101 -2.98911 -0.000536608
-2.36841 -0.00119192 -2.279 -0.000716612 -2.82272 -0.000506738
-2.31818 -0.00116664 -2.28638 -0.000718933 -2.67065 -0.000479439
-2.24895 -0.0011318 -2.27765 -0.000716185 -2.53901 -0.000455806
-2.15945 -0.00108676 -2.25042 -0.000707624 -2.43247 -0.000436681
-2.04882 -0.00103109 -2.20289 -0.000692677 -2.35403 -0.000422598
-1.91678 -0.000964634 -2.13383 -0.000670962 -2.30479 -0.000413759
-1.76407 -0.000887781 -2.04257 -0.000642266 -2.28393 -0.000410014
-1.59288 -0.000801632 -1.92895 -0.00060654 -2.28873 -0.000410875
-1.40668 -0.000707921 -1.79343 -0.000563929 -2.31456 -0.000415513
-1.20927 -0.000608573 -1.63731 -0.000514837 -2.35496 -0.000422765
-1.00446 -0.000505501 -1.46269 -0.00045993 -2.40175 -0.000431165
-0.796133 -0.000400661 -1.27242 -0.000400099 -2.44549 -0.000439017
-0.588279 -0.000296057 -1.06995 -0.000336435 -2.47587 -0.000444471
-0.384833 -0.000193671 -0.859246 -0.000270182 -2.48222 -0.000445611
-0.189399 -9.53165e-05 -0.644583 -0.000202683 -2.454 -0.000440545
-0.00480588 -2.4186e-06 -0.430402 -0.000135336 -2.38132 -0.000427497
0.165421 8.32496e-05 -0.222848 -7.00725e-05 -2.25545 -0.000404901
0.322829 0.000162466 -0.0302169 -9.50144e-06 -2.07102 -0.000371792
0.466882 0.000234962 0.15034 4.72731e-05 -1.82206 -0.000327099
0.596453 0.00030017 0.316589 9.95485e-05 -1.50647 -0.000270443
0.710604 0.000357617 0.466728 0.000146759 -1.12638 -0.000202208
0.808207 0.000406737 0.599834 0.000188612 -0.685317 -0.000123029
0.888815 0.000447304 0.71692 0.000225429 -0.190304 -3.41636e-05
0.95401 0.000480114 0.818575 0.000257393 0.342678 6.15179e-05
1.0067 0.000506633 0.905855 0.000284838 0.904821 0.000162435
1.0507 0.000528775 0.980589 0.000308337 1.48904 0.000267314
1.0901 0.000548603 1.04546 0.000328735 2.08025 0.000373449
1.12918 0.000568268 1.10294 0.000346811 2.66332 0.000478123
1.17246 0.000590052 1.15562 0.000363373 3.22276 0.000578554
1.22459 0.000616287 1.2066 0.000379405 3.7443 0.000672181
1.28992 0.000649165 1.25888 0.000395844 4.21538 0.00075675
1.37205 0.000690494 1.31516 0.000413539 4.62373 0.000830057
1.4732 0.000741399 1.37812 0.000433337 4.95859 0.000890173
1.59373 0.00080206 1.4504 0.000456064 5.21231 0.000935721
1.73211 0.0008717 1.53419 0.000482411 5.38002 0.000965828
1.8855 0.000948894 1.63091 0.000512825 5.45989 0.000980167
2.0505 0.00103193 1.74106 0.000547459 5.45314 0.000978955
2.22354 0.00111902 1.86404 0.000586132 5.36466 0.000963071
2.40118 0.00120842 1.99803 0.000628261 5.2029 0.000934031
2.58015 0.00129848 2.13999 0.000672901 4.9793 0.00089389
2.75737 0.00138767 2.28602 0.00071882 4.70759 0.000845113
2.92999 0.00147455 2.43151 0.000764566 4.40327 0.000790481
3.09533 0.00155775 2.57142 0.000808561 4.0829 0.000732968
3.25058 0.00163588 2.70075 0.000849225 3.76321 0.000675576
3.39281 0.00170746 2.81479 0.000885086 3.46009 0.000621159
3.51921 0.00177107 2.90946 0.000914852 3.18793 0.0005723
3.62734 0.00182549 2.98141 0.000937478 2.959 0.000531203
3.70309 0.00186361 3.02865 0.000952333 2.78341 0.00049968
3.76189 0.00189321 3.05002 0.000959052 2.66873 0.000479094
3.80436 0.00191458 3.05025 0.000959123 2.61274 0.000469042
3.81128 0.00191806 3.01837 0.000949099 2.62141 0.000470598
3.80463 0.00191471 2.96601 0.000932635 2.68263 0.00048159
3.76845 0.00189651 2.90061 0.000912072 2.79174 0.000501177
3.66235 0.00184311 2.83259 0.000890683 2.93342 0.00052661
3.54353 0.00178331 2.73787 0.000860899 3.12219 0.0005605
3.415 0.00171863 2.64196 0.00083074 3.32491 0.000596892
3.27569 0.00164852 2.53714 0.00079778 3.54337 0.000636111
3.1307 0.00157555 2.42612 0.000762871 3.76318 0.000675571
2.98929 0.00150439 2.31495 0.000727916 3.97219 0.000713093
2.85382 0.00143621 2.20714 0.000694015 4.15864 0.000746565
2.72976 0.00137378 2.10477 0.000661826 4.3107 0.000773862
2.62263 0.00131986 2.0105 0.000632185 4.41943 0.000793382
2.53566 0.00127609 1.92731 0.000606026 4.47798 0.000803892
2.47195 0.00124403 1.85772 0.000584145 4.4799 0.000804238
2.43419 0.00122503 1.80306 0.000566955 4.42088 0.000793642
2.42335 0.00121957 1.76412 0.000554713 4.30025 0.000771987
2.43968 0.00122779 1.74183 0.000547704 4.12012 0.000739649
2.48249 0.00124933 1.73635 0.00054598 3.8843 0.000697314
2.54835 0.00128248 1.74717 0.00054938 3.59872 0.000646046
2.62098 0.00131903 1.77704 0.000558774 3.27003 0.000587039
2.69727 0.00135742 1.82225 0.000572991 2.91028 0.000522457
2.773 0.00139553 1.88067 0.000591358 2.53246 0.00045463
2.84517 0.00143186 1.94852 0.000612696 2.15114 0.000386176
2.89823 0.00145856 2.00647 0.000630916 1.8537 0.000332779
2.94558 0.00148239 2.06482 0.000649264 1.57177 0.000282165
2.98584 0.00150265 2.1212 0.000666993 1.31308 0.000235727
3.01765 0.00151866 2.17337 0.000683395 1.08483 0.00019475
3.03972 0.00152976 2.21912 0.000697784 0.893297 0.000160366
3.05089 0.00153539 2.25646 0.000709524 0.743822 0.000133532
3.05013 0.001535 2.28373 0.000718098 0.640732 0.000115025
3.03637 0.00152808 2.29977 0.000723142 0.587133 0.000105403
3.00849 0.00151405 2.3039 0.00072444 0.584697 0.000104966
2.96533 0.00149233 2.29582 0.000721901 0.633581 0.000113741
2.90579 0.00146237 2.27566 0.000715562 0.732521 0.000131503
2.82909 0.00142376 2.24389 0.000705571 0.878979 0.000157795
2.73501 0.00137642 2.20125 0.000692164 1.06928 0.000191958
2.62412 0.00132061 2.14865 0.000675623 1.29866 0.000233136
2.49781 0.00125704 2.08706 0.000656256 1.5614 0.000280305
2.35818 0.00118677 2.01753 0.000634394 1.85099 0.000332292
2.2077 0.00111104 1.94125 0.000610407 2.16023 0.000387807
2.04888 0.00103112 1.85953 0.000584714 2.48142 0.000445467
1.8841 0.000948189 1.77383 0.000557765 2.8065 0.000503826
1.71561 0.000863396 1.68562 0.000530028 3.12722 0.000561403
1.54563 0.000777853 1.59637 0.000501964 3.43541 0.000616728
1.37636 0.000692663 1.50749 0.000474016 3.72312 0.00066838
1.20988 0.000608881 1.42027 0.000446592 3.98291 0.000715018
1.04807 0.000527452 1.33588 0.000420056 4.20795 0.000755417
0.892555 0.000449186 1.25528 0.000394711 4.39218 0.00078849
0.744656 0.000374755 1.17922 0.000370794 4.53049 0.000813319
0.605463 0.000304704 1.10819 0.000348462 4.61879 0.000829171
0.475822 0.000239461 1.04245 0.000327789 4.65415 0.00083552
0.356321 0.000179322 0.981939 0.000308762 4.63484 0.000832052
0.24729 0.000124451 0.926339 0.000291279 4.5603 0.000818671
0.148792 7.48808e-05 0.875063 0.000275156 4.4312 0.000795495
0.0606279 3.05115e-05 0.827294 0.000260135 4.24934 0.000762847
-0.0175952 -8.85492e-06 0.782008 0.000245896 4.01758 0.000721241
-0.0854814 -4.30193e-05 0.737993 0.000232055 3.73977 0.000671368
-0.129581 -6.52129e-05 0.690766 0.000217205 3.42115 0.000614169
-0.146698 -7.38272e-05 0.631939 0.000198707 3.07412 0.00055187
-0.16114 -8.10953e-05 0.582668 0.000183215 2.6877 0.000482499
-0.170404 -8.57572e-05 0.525452 0.000165224 2.27948 0.000409216
-0.178735 -8.99499e-05 0.465209 0.000146281 1.85037 0.000332181
-0.185738 -9.34744e-05 0.400854 0.000126045 1.40797 0.000252761
-0.192971 -9.71146e-05 0.333486 0.000104862 0.957754 0.000171937
-0.203726 -0.000102527 0.261655 8.22752e-05 0.505602 9.07663e-05
-0.220092 -0.000110763 0.183877 5.78184e-05 0.057892 1.03928e-05
-0.243159 -0.000122372 0.1 3.14442e-05 -0.385522 -6.92093e-05
-0.274432 -0.00013811 0.0105117 3.30531e-06 -0.814683 -0.000146253
-0.315561 -0.000158809 -0.0849758 -2.67199e-05 -1.2242 -0.00021977
-0.367532 -0.000184963 -0.187672 -5.90117e-05 -1.60926 -0.000288897
-0.430483 -0.000216644 -0.297089 -9.34171e-05 -1.96458 -0.000352684
-0.504827 -0.000254059 -0.413573 -0.000130044 -2.28818 -0.000410777
-0.590539 -0.000297194 -0.536467 -0.000168687 -2.57794 -0.000462796
-0.687304 -0.000345892 -0.664494 -0.000208944 -2.83252 -0.000508498
-0.794711 -0.000399945 -0.797007 -0.000250612 -3.05085 -0.000547692
-0.912245 -0.000459095 -0.933728 -0.000293602 -3.23283 -0.000580363
-1.03908 -0.000522924 -1.07405 -0.000337727 -3.37933 -0.000606661
-1.17406 -0.000590856 -1.21679 -0.000382609 -3.49201 -0.000626889
-1.31579 -0.000662185 -1.36061 -0.000427832 -3.57317 -0.000641461
-1.4626 -0.000736065 -1.50443 -0.000473056 -3.6256 -0.000650872
-1.61254 -0.000811525 -1.64731 -0.000517982 -3.65245 -0.000655692
-1.76355 -0.000887524 -1.78811 -0.000562256 -3.65726 -0.000656557
-1.9135 -0.000962984 -1.92552 -0.000605462 -3.64399 -0.000654174
-2.06019 -0.00103681 -2.05818 -0.000647178 -3.61686 -0.000649303
-2.20145 -0.0011079 -2.18491 -0.000687025 -3.58021 -0.000642724
-2.33519 -0.00117521 -2.30454 -0.000724643 -3.53831 -0.000635202
-2.45948 -0.00123775 -2.41591 -0.000759661 -3.49523 -0.000627467
-2.57257 -0.00129467 -2.51781 -0.000791702 -3.45485 -0.000620219
-2.67298 -0.0013452 -2.60913 -0.000820417 -3.42082 -0.000614109
-2.75948 -0.00138873 -2.6889 -0.000845499 -3.39638 -0.000609723
-2.83121 -0.00142483 -2.75626 -0.000866682 -3.38426 -0.000607546
-2.88766 -0.00145324 -2.81048 -0.000883731 -3.3865 -0.00060795
-2.92862 -0.00147385 -2.85097 -0.000896461 -3.40453 -0.000611185
-2.95422 -0.00148673 -2.87734 -0.000904752 -3.43906 -0.000617384
-2.96481 -0.00149207 -2.88946 -0.000908564 -3.49011 -0.000626549
-2.96101 -0.00149015 -2.88744 -0.000907928 -3.55692 -0.000638542
-2.94376 -0.00148147 -2.87158 -0.000902942 -3.63798 -0.000653094
-2.91451 -0.00146675 -2.84247 -0.000893788 -3.73104 -0.0006698
-2.87478 -0.00144676 -2.80088 -0.00088071 -3.83321 -0.000688142
-2.82627 -0.00142235 -2.7478 -0.00086402 -3.94106 -0.000707505
-2.77097 -0.00139451 -2.6845 -0.000844117 -4.05061 -0.000727171
-2.71088 -0.00136427 -2.61245 -0.000821462 -4.15749 -0.000746357
-2.64791 -0.00133258 -2.53327 -0.000796562 -4.25707 -0.000764234
-2.58399 -0.00130042 -2.4487 -0.00076997 -4.34462 -0.000779952
-2.52107 -0.00126875 -2.36059 -0.000742267 -4.41545 -0.000792667
-2.46106 -0.00123855 -2.27082 -0.000714038 -4.46505 -0.000801572
-2.4058 -0.00121074 -2.1812 -0.000685858 -4.48928 -0.00080592
-2.35703 -0.0011862 -2.0935 -0.000658281 -4.48445 -0.000805054
-2.31631 -0.0011657 -2.00939 -0.000631834 -4.4475 -0.000798421
-2.28493 -0.00114991 -1.93039 -0.000606994 -4.37609 -0.000785601
-2.26396 -0.00113936 -1.85785 -0.000584184 -4.26868 -0.000766319
-2.25422 -0.00113445 -1.7929 -0.000563761 -4.12463 -0.000740459
-2.2563 -0.0011355 -1.73642 -0.000546003 -3.94423 -0.000708073
-2.27061 -0.0011427 -1.68906 -0.000531108 -3.72875 -0.00066939
-2.29569 -0.00115533 -1.65149 -0.000519296 -3.48034 -0.000624796
-2.32347 -0.00116931 -1.62815 -0.000511957 -3.19983 -0.000574438
-2.36882 -0.00119213 -1.61137 -0.00050668 -2.89452 -0.000519627
-2.42415 -0.00121998 -1.60336 -0.000504163 -2.56988 -0.000461348
-2.49003 -0.00125313 -1.60411 -0.000504398 -2.22885 -0.000400126
-2.56571 -0.00129121 -1.61132 -0.000506664 -1.87961 -0.000337429
-2.64727 -0.00133226 -1.62629 -0.000511373 -1.52634 -0.00027401
-2.73282 -0.00137532 -1.64726 -0.000517966 -1.17716 -0.000211325
-2.81598 -0.00141716 -1.675 -0.000526689 -0.838169 -0.000150469
-2.89657 -0.00145773 -1.70787 -0.000537023 -0.516128 -9.26559e-05
-2.97028 -0.00149482 -1.74457 -0.000548565 -0.217446 -3.90362e-05
-3.03471 -0.00152724 -1.78389 -0.000560929 0.0511738 9.18679e-06
-3.08803 -0.00155408 -1.82518 -0.00057391 0.280326 5.03245e-05
-3.12736 -0.00157387 -1.86678 -0.000586992 0.468326 8.40745e-05
-3.15009 -0.00158531 -1.90723 -0.000599713 0.610257 0.000109554
-3.15466 -0.00158761 -1.94502 -0.000611595 0.702877 0.000126181
-3.14071 -0.00158059 -1.97882 -0.000622222 0.742935 0.000133373
-3.10766 -0.00156395 -2.0072 -0.000631147 0.727639 0.000130627
-3.05533 -0.00153762 -2.02874 -0.000637917 0.65537 0.000117653
-2.98432 -0.00150188 -2.04224 -0.000642165 0.526266 9.44759e-05
-2.89551 -0.00145719 -2.0468 -0.000643597 0.341907 6.13796e-05
-2.78996 -0.00140407 -2.0417 -0.000641994 0.104915 1.88345e-05
-2.66913 -0.00134326 -2.02675 -0.000637295 -0.185648 -3.33278e-05
-2.53511 -0.00127581 -2.00166 -0.000629405 -0.521607 -9.36395e-05
-2.39026 -0.00120292 -1.96658 -0.000618374 -0.896764 -0.000160988
-2.23717 -0.00112588 -1.92182 -0.0006043 -1.30281 -0.000233883
-2.0784 -0.00104597 -1.8683 -0.00058747 -1.73139 -0.000310822
-1.91644 -0.000964463 -1.80724 -0.000568271 -2.17393 -0.000390267
-1.75364 -0.000882536 -1.74009 -0.000547154 -2.62136 -0.00047059
-1.5923 -0.00080134 -1.66841 -0.000524616 -3.06388 -0.000550031
-1.43455 -0.000721951 -1.59401 -0.000501221 -3.49123 -0.00062675
-1.28233 -0.000645346 -1.51881 -0.000477577 -3.89338 -0.000698945
-1.13739 -0.000572403 -1.44474 -0.000454286 -4.26102 -0.000764943
-1.00133 -0.000503926 -1.37355 -0.0004319 -4.5857 -0.000823231
-0.875611 -0.000440659 -1.30677 -0.000410904 -4.85987 -0.000872449
-0.761542 -0.000383253 -1.24575 -0.000391714 -5.07688 -0.000911408
-0.660116 -0.000332209 -1.19154 -0.000374668 -5.2313 -0.00093913
-0.571924 -0.000287826 -1.14489 -0.000360001 -5.31916 -0.000954902
-0.497147 -0.000250193 -1.10619 -0.000347833 -5.33809 -0.000958301
-0.435575 -0.000219207 -1.07544 -0.000338163 -5.28735 -0.000949192
-0.386642 -0.000194581 -1.05227 -0.000330876 -5.1677 -0.000927712
-0.349432 -0.000175854 -1.03594 -0.000325741 -4.98137 -0.000894262
-0.322698 -0.0001624 -1.02536 -0.000322415 -4.73205 -0.000849503
-0.30487 -0.000153428 -1.01912 -0.000320453 -4.42481 -0.000794347
-0.29405 -0.000147983 -1.01553 -0.000319323 -4.06599 -0.000729931
-0.288025 -0.000144951 -1.01269 -0.000318433 -3.66291 -0.00065757
-0.284299 -0.000143076 -1.0086 -0.000317144 -3.22368 -0.000578718
-0.280155 -0.00014099 -1.00112 -0.000314793 -2.75694 -0.00049493
-0.307078 -0.000154539 -0.978895 -0.000307805 -2.27454 -0.000408329
-0.326257 -0.000164192 -0.948312 -0.000298188 -1.78747 -0.00032089
-0.341952 -0.00017209 -0.915019 -0.00028772 -1.29099 -0.00023176
-0.347325 -0.000174794 -0.867124 -0.000272659 -0.806437 -0.000144773
-0.339864 -0.000171039 -0.808415 -0.000254199 -0.33308 -5.97949e-05
-0.319341 -0.000160711 -0.73749 -0.000231897 0.115534 2.07409e-05
-0.28454 -0.000143197 -0.655333 -0.000206064 0.531619 9.54369e-05
-0.234865 -0.000118198 -0.559484 -0.000175925 0.916451 0.000164522
-0.169879 -8.54929e-05 -0.449261 -0.000141266 1.26607 0.000227287
-0.0887117 -4.46449e-05 -0.325069 -0.000102215 1.57807 0.000283297
0.00730371 3.67565e-06 -0.187913 -5.90876e-05 1.8492 0.000331971
0.11749 5.91279e-05 -0.0387074 -1.21712e-05 2.07872 0.000373174
0.241215 0.000121394 0.119777 3.76628e-05 2.26638 0.000406864
0.377085 0.000189771 0.285913 8.99027e-05 2.41456 0.000433465
0.522921 0.000263165 0.459659 0.000144536 2.52682 0.000453619
0.676881 0.000340646 0.639196 0.000200989 2.60677 0.000467971
0.836501 0.000420977 0.822334 0.000258575 2.65827 0.000477215
0.998684 0.000502597 1.00721 0.000316707 2.68663 0.000482307
1.15906 0.000583308 1.19249 0.000374967 2.69739 0.000484239
1.31598 0.000662277 1.37506 0.000432376 2.69683 0.000484138
1.46746 0.000738511 1.55204 0.000488026 2.69097 0.000483087
1.61203 0.000811267 1.72068 0.000541053 2.68572 0.000482145
1.74855 0.000879974 1.87852 0.000590685 2.68694 0.000482363
1.87614 0.000944185 2.02328 0.000636202 2.69989 0.000484688
1.99408 0.00100354 2.15276 0.000676916 2.7291 0.000489932
2.10172 0.00105771 2.26517 0.000712261 2.77808 0.000498725
2.19818 0.00110625 2.35925 0.000741846 2.84934 0.000511517
2.26727 0.00114103 2.43768 0.000766507 2.94297 0.000528326
2.32359 0.00116937 2.49808 0.0007855 3.05809 0.000548992
2.36352 0.00118946 2.53849 0.000798206 3.19862 0.00057422
2.38762 0.00120159 2.5618 0.000805536 3.3587 0.000602958
2.3967 0.00120616 2.56741 0.0008073 3.53793 0.000635134
2.39194 0.00120376 2.55676 0.00080395 3.7309 0.000669776
2.37462 0.00119505 2.53076 0.000795775 3.93387 0.000706214
2.34626 0.00118078 2.49127 0.000783359 4.14167 0.000743518
2.30926 0.00116216 2.44035 0.000767348 4.34855 0.000780658
2.26597 0.00114037 2.37995 0.000748353 4.54821 0.000816501
2.21864 0.00111655 2.31194 0.000726967 4.73428 0.000849904
2.17205 0.0010931 2.23519 0.000702837 28.3255 0.0356258
2.14823 0.00108112 1.9933 0.000626777 31.4004 0.0940779
2.083 0.00104829 2.01738 0.000634348 32.1135 0.107633
2.05282 0.0010331 1.87539 0.000589699 32.8251 0.12116
2.01827 0.00101571 1.80141 0.000566438 28.4015 0.120898
1.98343 0.000998177 1.7534 0.000551341 23.5333 0.120024
1.96986 0.00099135 1.70264 0.000535378 23.0026 0.119929
1.9612 0.000986992 1.66185 0.000522553 25.9713 0.120462
1.96663 0.000989725 1.60279 0.000503982 27.9832 0.120823
1.98155 0.000997232 1.56479 0.000492033 25.5605 0.120388
2.01011 0.00101161 1.55288 0.00048829 20.2091 0.119427
2.05012 0.00103174 1.55799 0.000489895 15.297 0.118545
2.10038 0.00105703 1.56254 0.000491328 12.3949 0.118024
2.15668 0.00108537 1.56695 0.000492712 10.1271 0.117617
2.21975 0.00111711 1.58382 0.000498019 6.34226 0.116938
2.28735 0.00115113 1.61882 0.000509023 0.589747 0.115905
2.35788 0.00118662 1.6654 0.000523669 -0.385619 0.114058
2.43041 0.00122312 1.71451 0.000539113 -1.06356 0.110996
2.50368 0.00126 1.76146 0.000553875 -1.95754 0.106959
2.57578 0.00129628 1.81012 0.000569175 -3.04608 0.102043
2.64506 0.00133115 1.86502 0.000586439 -4.4227 0.0958265
2.71054 0.0013641 1.92007 0.000603749 -5.92694 0.0890333
2.77027 0.00139416 1.96998 0.000619441 -7.38925 0.0824295
2.82243 0.00142041 2.00932 0.000631813 -8.50147 0.0774068
2.86513 0.0014419 2.04011 0.000641496 -9.26173 0.0739735
2.89657 0.00145772 2.06456 0.000649182 -9.80262 0.0715308
2.91548 0.00146724 2.0816 0.000654539 -10.2364 0.0695718
2.92076 0.0014699 2.08959 0.000657053 -10.5522 0.0681459
2.91188 0.00146543 2.08716 0.000656289 -10.5841 0.0677476
2.88876 0.00145379 2.07537 0.000652582 -9.56839 0.0679299
2.85142 0.001435 2.05634 0.000646599 -7.67052 0.0682706
2.80097 0.00140961 2.02889 0.000637966 -5.22507 0.0687096
2.73866 0.00137826 1.99465 0.000627199 -2.42952 0.0692115
2.66645 0.00134192 1.95442 0.00061455 0.128151 0.0698507
2.58645 0.00130165 1.90824 0.000600029 1.12744 0.0714338
2.50077 0.00125853 1.85559 0.000583474 3.13319 0.0746116
2.41095 0.00121333 1.79984 0.000565945 5.60613 0.0785294
2.31878 0.00116695 1.74346 0.000548215 8.16018 0.0825758
2.2263 0.0011204 1.68759 0.000530647 10.6407 0.0865057
2.13528 0.0010746 1.63462 0.000513993 13.007 0.0902546
2.04791 0.00103063 1.5855 0.000498546 15.317 0.0939143
1.96627 0.000989543 1.54129 0.000484646 17.5874 0.0975114
1.89228 0.000952305 1.50314 0.000472648 19.744 0.100928
1.82771 0.000919809 1.47249 0.00046301 21.6668 0.103974
1.77414 0.000892852 1.45065 0.000456144 23.2754 0.106523
1.73279 0.000872042 1.43826 0.000452249 24.5648 0.108566
1.70433 0.000857718 1.43543 0.000451359 25.5667 0.110153
1.68883 0.00084992 1.4422 0.000453487 26.2911 0.111301
1.68578 0.000848383 1.45878 0.0004587 26.708 0.111961
1.69413 0.000852587 1.4853 0.000467038 26.7431 0.112089
1.71247 0.000861816 1.52111 0.000478299 26.1253 0.111978
1.73896 0.000875145 1.56504 0.000492113 24.9208 0.111762
1.77123 0.000891386 1.61642 0.000508267 23.2406 0.11146
1.8069 0.000909337 1.67355 0.000526233 21.144 0.111084
1.84337 0.000927692 1.73509 0.000545585 18.6382 0.110634
1.87809 0.000945167 1.79935 0.00056579 15.7703 0.110119
1.90859 0.000960513 1.86433 0.000586221 12.6547 0.10956
1.93254 0.00097257 1.92761 0.000606121 9.43726 0.108982
1.9479 0.000980296 1.98666 0.000624689 6.23972 0.108408
1.95284 0.000982782 2.03905 0.000641159 3.14267 0.107852
1.94579 0.000979237 2.08247 0.000654815 0.212935 0.107326
1.92536 0.000968956 2.11494 0.000665025 -0.157592 0.106627
1.89031 0.000951315 2.13434 0.000671124 -0.36034 0.105776
1.83962 0.000925806 2.13875 0.00067251 -0.568983 0.1049
1.77252 0.000892034 2.12658 0.000668683 -0.804035 0.103913
1.68854 0.000849774 2.09658 0.000659252 -0.962871 0.103247
1.58774 0.000799045 2.0478 0.000643912 -1.04129 0.102917
1.47032 0.000739951 1.98036 0.000622707 -0.961271 0.102883
1.33712 0.000672918 1.89416 0.000595601 -0.414861 0.102982
1.18918 0.000598464 1.79006 0.000562869 0.335399 0.103246
1.0298 0.000518256 1.66819 0.000524546 1.1563 0.103712
0.871682 0.000438681 1.52483 0.000479469 2.18586 0.104296
0.694622 0.000349574 1.37409 0.000432071 3.34245 0.104953
0.514305 0.000258829 1.21056 0.00038065 4.52821 0.105625
0.326737 0.000164433 1.03706 0.000326095 5.70401 0.106292
0.135824 6.83545e-05 0.856887 0.00026944 6.7457 0.106884
-0.0510671 -2.56999e-05 0.672753 0.000211541 7.60936 0.107374
-0.235387 -0.00011846 0.486551 0.000152991 8.21109 0.107715
-0.413862 -0.00020828 0.300148 9.43788e-05 8.49199 0.107874
-0.581112 -0.000292449 0.113453 3.56744e-05 8.28768 0.107841
-0.735133 -0.000369962 -0.0708873 -2.22899e-05 7.35847 0.107675
-0.875494 -0.0004406 -0.246279 -7.74401e-05 5.68931 0.107375
-1.00022 -0.000503369 -0.413084 -0.000129891 3.20855 0.10693
-1.10652 -0.000556864 -0.568625 -0.000178799 -0.00659839 0.106326
-1.19418 -0.000600983 -0.710067 -0.000223274 -0.49711 0.104285
-1.26412 -0.000636182 -0.832152 -0.000261663 -1.65706 0.0994565
-1.31527 -0.000661919 -0.94015 -0.000295622 -3.34645 0.0924248
-1.34868 -0.000678734 -1.02963 -0.000323756 -5.54159 0.0832881
-1.36529 -0.000687095 -1.10334 -0.000346936 -8.09564 0.0726574
-1.36671 -0.00068781 -1.16238 -0.000365499 -10.816 0.0613344
-1.35504 -0.000681937 -1.20757 -0.00037971 -13.6703 0.0494544
-1.33253 -0.000670605 -1.24153 -0.000390389 -16.1873 0.0389777
-1.30116 -0.000654821 -1.27101 -0.000399658 -18.3509 0.0299725
-1.26643 -0.000637341 -1.28526 -0.00040414 -20.5561 0.0207936
-1.22939 -0.0006187 -1.29607 -0.000407537 -22.732 0.0117369
-1.19425 -0.000601017 -1.30152 -0.000409252 -24.9177 0.00263962
-1.16319 -0.000585385 -1.30996 -0.000411905 -25.5029 0.000203916
-1.13768 -0.000572546 -1.32642 -0.000417081 -25.5642 -5.13783e-05
-1.12534 -0.000566339 -1.33457 -0.000419643 -25.5986 -0.000194407
-1.12328 -0.000565302 -1.35629 -0.000426473 -25.6248 -0.000303535
-1.13709 -0.000572248 -1.38189 -0.000434524 -25.649 -0.000404394
-1.16694 -0.000587272 -1.41461 -0.000444811 -25.6695 -0.000489687
-1.21422 -0.000611065 -1.45494 -0.000457492 -25.6837 -0.000548756
-1.27989 -0.000644118 -1.50448 -0.000473069 -25.6515 -0.000549011
-1.36539 -0.000687147 -1.55815 -0.000489947 -25.6109 -0.000541727
-1.46632 -0.000737939 -1.63718 -0.000514798 -25.6081 -0.000541225
-1.58598 -0.000798157 -1.72298 -0.000541775 -25.5893 -0.000537851
-1.72265 -0.00086694 -1.81894 -0.000571948 -25.4785 -0.000517947
-1.87463 -0.000943423 -1.92656 -0.000605788 -25.2595 -0.000478642
-2.04119 -0.00102724 -2.04169 -0.000641991 -24.9582 -0.000424549
-2.21957 -0.00111702 -2.16272 -0.000680047 -24.6022 -0.000360637
-2.40726 -0.00121147 -2.2867 -0.000719032 -24.2009 -0.000288592
-2.60136 -0.00130916 -2.41253 -0.000758597 -23.7364 -0.00020521
-2.79878 -0.00140851 -2.53854 -0.000798222 -23.1847 -0.000106159
-2.99604 -0.00150778 -2.66238 -0.00083716 -22.5287 1.15923e-05
-3.18955 -0.00160517 -2.78132 -0.000874561 -21.7523 0.000150978
-3.26934 -0.00164532 -2.93334 -0.000922364 -20.9143 0.000301418
-2.88785 -0.00145334 -3.03769 -0.000955173 -19.9493 0.000474662
-2.6586 -0.00133796 -2.99521 -0.000941817 -19.5217 0.000551429
-3.33772 -0.00167974 -3.28811 -0.00103392 -16.0233 0.00117945
-3.61973 -0.00182166 -3.33114 -0.00104745 -12.7483 0.00176739
-3.43841 -0.00173041 -3.28398 -0.00103262 -10.3432 0.00219915
-3.48514 -0.00175393 -3.38908 -0.00106567 -6.82896 0.00283004
-3.77163 -0.0018981 -3.53872 -0.00111272 -2.57209 0.00359424
-3.869 -0.00194711 -3.57261 -0.00112337 0.0718631 0.00431331
-3.77706 -0.00190084 -3.5055 -0.00110227 0.237479 0.00490634
-3.76999 -0.00189728 -3.49061 -0.00109759 0.372414 0.00538952
-3.82675 -0.00192585 -3.54269 -0.00111397 0.490575 0.00581263
-3.82576 -0.00192535 -3.53628 -0.00111195 0.373414 0.005832
-3.7809 -0.00190277 -3.50279 -0.00110142 -0.116871 0.00571875
-3.76567 -0.00189511 -3.46736 -0.00109028 -0.914186 0.00540348
-3.73195 -0.00187814 -3.46596 -0.00108984 -2.09039 0.0049384
-3.67117 -0.00184755 -3.46944 -0.00109093 -3.53797 0.00436602
-3.59121 -0.00180731 -3.44157 -0.00108217 -5.41092 0.00362544
-3.50971 -0.00176629 -3.41324 -0.00107326 -7.42789 0.00282791
-3.43183 -0.0017271 -3.38726 -0.00106509 -9.64362 0.00195179
-3.3478 -0.00168481 -3.36722 -0.00105879 -11.6542 0.00115681
-3.26038 -0.00164082 -3.34728 -0.00105252 -12.835 0.000689881
-3.17849 -0.0015996 -3.32652 -0.00104599 -13.4603 0.000442631
-3.10393 -0.00156208 -3.30853 -0.00104034 -13.8591 0.000284953
-3.03441 -0.0015271 -3.29721 -0.00103678 -14.1527 0.000168851
-2.97298 -0.00149618 -3.29422 -0.00103584 -14.3852 7.69443e-05
-2.92381 -0.00147143 -3.29839 -0.00103715 -14.5729 2.73397e-06
-2.88751 -0.00145316 -3.30861 -0.00104036 -14.7242 -5.70936e-05
-2.86383 -0.00144125 -3.32654 -0.001046 -14.8457 -0.000105139
-2.85342 -0.00143601 -3.35424 -0.00105471 -14.9427 -0.000143523
-2.85613 -0.00143737 -3.39153 -0.00106644 -15.0188 -0.000173587
-2.8748 -0.00144677 -3.43812 -0.00108109 -15.0984 -0.000205057
-2.9118 -0.00146539 -3.44606 -0.00108358 -14.863 -0.000173595
-2.95434 -0.0014868 -3.46995 -0.00109109 -14.24 -6.1754e-05
-3.00198 -0.00151077 -3.5483 -0.00111573 -14.0674 -3.07745e-05
-3.0584 -0.00153916 -3.65898 -0.00115053 -14.3673 -8.46127e-05
-3.12154 -0.00157094 -3.75549 -0.00118088 -14.7194 -0.000147824
-3.18997 -0.00160538 -3.82994 -0.00120429 -14.7068 -0.00014555
-3.26138 -0.00164132 -3.91468 -0.00123094 -14.3715 -8.5357e-05
-3.21791 -0.00161944 -4.25998 -0.00133951 -13.8252 1.27073e-05
-3.10781 -0.00156403 -3.67801 -0.00115652 -13.5182 6.78303e-05
-3.2613 -0.00164128 -3.70513 -0.00116504 -13.6379 4.63439e-05
-3.39285 -0.00170748 -4.05234 -0.00127422 -13.5402 6.38679e-05
-3.43734 -0.00172987 -4.3134 -0.00135631 -13.4682 7.68036e-05
-3.46801 -0.00174531 -4.35355 -0.00136893 -13.0181 0.000157604
-3.55059 -0.00178686 -4.29196 -0.00134957 -12.7171 0.000211642
-3.57542 -0.00179936 -4.36103 -0.00137129 -12.7414 0.00020728
-3.57936 -0.00180134 -4.54603 -0.00142946 -12.9886 0.000162899
-3.58352 -0.00180344 -4.71232 -0.00148175 -13.1106 0.000140996
-3.60097 -0.00181222 -4.6592 -0.00146504 -13.2678 0.000112782
-3.61585 -0.00181971 -4.65335 -0.0014632 -13.4045 8.82426e-05
-3.61742 -0.0018205 -4.69964 -0.00147776 -13.695 3.60763e-05
-3.62026 -0.00182193 -4.77023 -0.00149996 -14.1284 -4.1727e-05
-3.62959 -0.00182662 -4.85378 -0.00152623 -14.5044 -0.000109215
-3.63172 -0.0018277 -4.90831 -0.00154337 -14.8269 -0.00016712
-3.62445 -0.00182404 -4.96409 -0.00156091 -15.1431 -0.00022388
-3.6092 -0.00181636 -5.04577 -0.0015866 -15.315 -0.000290718
-3.58766 -0.00180552 -5.12575 -0.00161174 -15.5094 -0.000367596
-3.54657 -0.00178484 -5.1471 -0.00161846 -15.6985 -0.000442351
-3.49175 -0.00175726 -5.16587 -0.00162436 -15.8784 -0.000513505
-3.44141 -0.00173192 -5.17446 -0.00162706 -16.0564 -0.00058388
-3.38535 -0.00170371 -5.18179 -0.00162937 -16.1722 -0.000629647
-3.31985 -0.00167074 -5.19421 -0.00163327 -16.276 -0.000670725
-3.24948 -0.00163533 -5.21107 -0.00163858 -16.4243 -0.000729338
-3.17216 -0.00159642 -5.22223 -0.00164208 -16.4623 -0.000745812
-3.09375 -0.00155696 -5.20039 -0.00163522 -16.6733 -0.000827818
-3.01245 -0.00151604 -5.15798 -0.00162188 -16.6544 -0.000837188
-2.93161 -0.00147536 -5.07341 -0.00159529 -16.2174 -0.000758735
-2.84869 -0.00143363 -5.02362 -0.00157963 -15.8705 -0.000696453
-2.76508 -0.00139155 -5.01527 -0.00157701 -15.9224 -0.000705779
-2.68272 -0.0013501 -4.99537 -0.00157075 -16.2224 -0.000759629
-2.60078 -0.00130886 -4.9477 -0.00155576 -16.5246 -0.000813884
-2.52247 -0.00126945 -4.8895 -0.00153746 -16.5665 -0.00082141
-2.45072 -0.00123334 -4.83916 -0.00152163 -16.3504 -0.000782614
-2.38397 -0.00119976 -4.79806 -0.00150871 -16.1056 -0.000738665
-2.32104 -0.00116808 -4.7563 -0.00149558 -16.0338 -0.000725782
-2.26193 -0.00113834 -4.70995 -0.001481 -16.1219 -0.000741583
-2.20743 -0.00111091 -4.66897 -0.00146811 -16.2654 -0.000767358
-2.15841 -0.00108624 -4.63928 -0.00145878 -16.3378 -0.000780345
-2.11514 -0.00106446 -4.61518 -0.0014512 -16.2929 -0.000772286
-2.07658 -0.00104506 -4.59023 -0.00144336 -16.1846 -0.000752851
-2.04148 -0.00102739 -4.56631 -0.00143583 -16.0928 -0.000736362
-2.00924 -0.00101117 -4.5505 -0.00143087 -16.0924 -0.000736289
-1.9809 -0.000996906 -4.54228 -0.00142828 -16.1378 -0.000744448
-1.95696 -0.000984856 -4.53537 -0.00142611 -16.0806 -0.000734175
-1.93569 -0.000974152 -4.52664 -0.00142336 -15.8681 -0.000696033
-1.91548 -0.000963982 -4.51788 -0.00142061 -15.573 -0.000643054
-1.89386 -0.000953102 -4.51142 -0.00141857 -15.2843 -0.000591221
-1.86925 -0.000940714 -4.50265 -0.00141582 -15.0613 -0.000551194
-1.84336 -0.000927686 -4.49186 -0.00141242 -14.9163 -0.000525161
-1.81682 -0.000914332 -4.47877 -0.00140831 -14.7449 -0.000494381
-1.78844 -0.000900048 -4.45802 -0.00140178 -14.4767 -0.000446235
-1.75697 -0.000884213 -4.42586 -0.00139167 -14.121 -0.000382393
-1.722 -0.000866611 -4.38264 -0.00137808 -13.7498 -0.000315753
-1.7204 -0.000865804 -4.31757 -0.00135762 -13.4312 -0.000258556
-1.69667 -0.000853864 -4.24219 -0.00133392 -13.1668 -0.000211092
-1.66552 -0.000838188 -4.16348 -0.00130917 -12.8843 -0.000160367
-1.63087 -0.000820751 -4.06391 -0.00127786 -12.5558 -0.000101397
-1.58711 -0.000798726 -3.95833 -0.00124466 -12.1552 -2.94794e-05
-1.53309 -0.000771543 -3.84138 -0.00120789 -11.725 4.77416e-05
-1.46975 -0.000739666 -3.71515 -0.0011682 -11.3001 0.000124028
-1.3981 -0.000703604 -3.57751 -0.00112491 -10.8836 0.000198796
-1.31762 -0.000663106 -3.42747 -0.00107774 -10.4344 0.000279441
-1.22761 -0.000617807 -3.26759 -0.00102746 -9.88151 0.000378693
-1.12969 -0.000568525 -3.09969 -0.000974669 -9.1588 0.000508436
-1.02503 -0.000515854 -2.92449 -0.000919581 -8.21217 0.000678376
-0.914017 -0.000459987 -2.74175 -0.000862118 -6.99362 0.000897131
-0.798247 -0.000401724 -2.55193 -0.000802432 -5.45345 0.00117362
-0.678638 -0.00034153 -2.35696 -0.000741124 -3.5468 0.00151591
-0.556516 -0.000280072 -2.15841 -0.000678692 -1.26547 0.00192546
-0.432305 -0.000217561 -1.95721 -0.000615426 0.0941087 0.00249507
-0.3063 -0.000154148 -1.75512 -0.000551881 0.392265 0.00357998
-0.179252 -9.02101e-05 -1.55282 -0.000488269 0.722042 0.00477995
-0.0519779 -2.61583e-05 -1.35175 -0.000425045 1.06128 0.00601434
0.0705115 3.54855e-05 -1.15302 -0.000362557 1.54858 0.0077875
0.177149 8.91518e-05 -0.95967 -0.00030176 2.12211 0.00987444
0.278569 0.000140192 -0.796505 -0.000250454 2.91882 0.0127734
0.376945 0.000189701 -0.619879 -0.000194915 3.96521 0.016581
0.468457 0.000235755 -0.451426 -0.000141947 5.13812 0.0208489
0.557331 0.000280481 -0.291492 -9.16572e-05 6.46063 0.0256611
0.642341 0.000323264 -0.137987 -4.33889e-05 7.79856 0.0305295
0.719589 0.000362139 0.0143141 4.50093e-06 9.12359 0.0353509
0.791822 0.000398491 0.156954 4.93529e-05 10.516 0.0404177
0.857957 0.000431774 0.294104 9.24783e-05 11.9841 0.0457596
0.921877 0.000463942 0.422361 0.000132808 13.535 0.0514029
0.982403 0.000494403 0.541337 0.000170218 15.178 0.0573812
1.04276 0.000524776 0.674833 0.000212195 16.8606 0.0635039
1.09531 0.000551226 0.811866 0.000255284 18.5035 0.0694818
1.14088 0.000574158 0.929863 0.000292387 20.1397 0.0754356
1.1816 0.000594648 1.03331 0.000324914 21.7888 0.0814363
1.21894 0.000613441 1.13614 0.000357248 23.4642 0.0875325
1.25357 0.000630869 1.24056 0.000390084 25.1614 0.0937083
1.2942 0.000651319 1.34158 0.000421848 26.8515 0.0998581
1.33369 0.000671191 1.43572 0.00045145 28.3272 0.105228
1.36066 0.000684766 1.52681 0.000480091 30.0014 0.111319
1.38619 0.000697614 1.62427 0.000510737 32.2222 0.119401
1.41708 0.000713158 1.71743 0.00054003 33.3756 0.131625
1.44761 0.000728522 1.79073 0.000563078 34.1603 0.146541
1.4748 0.000742204 1.86071 0.000585082 34.8442 0.159541
1.50399 0.000756896 1.93133 0.00060729 35.4221 0.170527
1.53753 0.000773773 2.00085 0.000629151 22.0074 0.186459
1.57528 0.000792775 2.0362 0.000640264 7.12096 0.216192
1.61388 0.0008122 2.07668 0.000652995 7.12096 0.246902
1.65264 0.000831704 2.12277 0.000667485 7.12096 0.268125
1.69693 0.000853993 2.1572 0.000678313 7.12096 0.287303
1.74216 0.000876756 2.20123 0.000692157 7.12096 0.295946
1.7854 0.00089852 2.26819 0.000713211 7.12096 0.296406
1.83678 0.000924378 2.31288 0.000727264 7.12096 0.297218
1.88926 0.000950785 2.35452 0.000740358 7.12096 0.299687
1.94411 0.00097839 2.38911 0.000751233 7.12096 0.303355
2.00236 0.00100771 2.42163 0.00076146 7.12096 0.305815
2.06205 0.00103775 2.4578 0.000772833 6.17594 0.305742
2.12395 0.0010689 2.48726 0.000782096 4.10283 0.305369
2.18695 0.0011006 2.51308 0.000790216 1.88996 0.304972
2.25033 0.0011325 2.53521 0.000797174 0.145424 0.304659
2.31409 0.00116459 2.55174 0.000802372 -0.0424283 0.304141
2.37657 0.00119603 2.56542 0.000806672 -0.173482 0.302623
2.43737 0.00122663 2.57699 0.000810311 -0.379556 0.300235
8.93253 0.274541 2.01177 0.000632584 0.299422 0.299577
8.93253 0.493746 1.6429 0.000516594 2.08885 0.301541
8.81859 0.546647 1.97093 0.00061974 -0.427516 0.296268
-2.33536 0.503232 1.7964 0.00056486 -0.566321 0.294677
-4.61438 0.465195 1.89597 0.000596171 -1.13669 0.288142
4.15886 0.504386 1.89511 0.0005959 -2.03647 0.277833
8.93253 0.555325 1.8949 0.000595833 -2.86695 0.268317
3.56678 0.560051 1.97269 0.000620296 -3.96483 0.255738
-0.144951 0.555767 1.95001 0.000613162 -4.94398 0.24452
7.67654 0.56178 1.95972 0.000616215 -5.82936 0.234375
8.93253 0.581339 2.01254 0.000632824 -6.80667 0.223178
8.93253 0.602267 1.97329 0.000620482 -7.64318 0.213593
8.93253 0.605546 2.01028 0.000632113 -8.50695 0.203696
8.93253 0.609205 2.01181 0.000632597 -9.40076 0.193456
8.93253 0.620867 1.98253 0.000623387 -10.113 0.185295
8.93253 0.63411 1.97026 0.00061953 -10.7694 0.177774
8.93253 0.640881 1.95367 0.000614315 -11.3188 0.171479
8.09214 0.640809 1.9339 0.000608098 -11.7935 0.166041
7.83675 0.64068 1.89691 0.000596466 -12.1991 0.161393
8.00188 0.640763 1.85517 0.000583342 -12.5036 0.157904
6.98413 0.640251 1.80841 0.00056864 -12.7131 0.155504
4.51501 0.639009 1.74862 0.000549837 -12.8019 0.154487
1.81356 0.637649 1.67963 0.000528146 -12.6156 0.154459
-0.0243497 0.636261 1.60508 0.000504704 -11.8912 0.154589
-0.187592 0.633076 1.52922 0.000480848 -10.7861 0.154787
-0.564372 0.625724 1.45811 0.00045849 -9.40874 0.155035
-1.10989 0.61508 1.39161 0.00043758 -7.73265 0.155336
-1.68363 0.603885 1.32268 0.000415906 -5.654 0.155709
-2.21623 0.593493 1.25326 0.000394076 -3.27927 0.156135
-2.74519 0.583172 1.1886 0.000373744 -0.761552 0.156587
-3.31386 0.572076 1.13253 0.000356113 0.0222106 0.157189
-3.89262 0.560784 1.08145 0.000340053 0.0765985 0.158329
-4.43481 0.550204 1.03662 0.000325957 0.166155 0.160205
-4.92469 0.540646 0.997677 0.000313711 0.302208 0.163055
-5.39287 0.531511 0.969736 0.000304925 0.463712 0.166439
-5.84841 0.522622 0.952493 0.000299503 0.632574 0.169977
-6.25921 0.514606 0.94387 0.000296791 0.779167 0.173048
-6.60108 0.507936 0.945757 0.000297385 0.892475 0.175422
-6.87229 0.502644 0.956859 0.000300876 0.977821 0.17721
-7.08951 0.498406 0.977279 0.000307297 1.04422 0.178601
-7.25778 0.495122 1.00606 0.000316348 1.09706 0.179708
-7.36653 0.493 1.04162 0.000327527 1.13514 0.180505
-7.4117 0.492119 1.08343 0.000340676 1.15276 0.180875
-7.27661 0.49214 1.13087 0.000355591 1.02044 0.180865
-6.95273 0.492303 1.18362 0.00037218 0.665979 0.180801
-6.49744 0.492532 1.2398 0.000389845 0.201918 0.180718
-5.91432 0.492826 1.29799 0.000408141 -0.0125684 0.180594
-5.27675 0.493147 1.35765 0.0004269 -0.0614266 0.180255
-4.76985 0.493402 1.41681 0.000445503 -0.118648 0.179857
-4.51612 0.493529 1.47405 0.000463502 -0.178036 0.179445
-4.58929 0.493493 1.52836 0.000480578 -0.228744 0.179093
-5.08285 0.493244 1.57782 0.000496131 -0.270152 0.178805
-4.77614 0.493398 1.61133 0.000506667 -0.269409 0.178695
-4.88874 0.493342 1.63144 0.000512992 0.000259438 0.178748
-5.96091 0.492802 1.65561 0.000520592 0.0128745 0.178973
-7.41679 0.49202 1.66058 0.000522154 0.0492938 0.179623
-7.61528 0.488147 1.66392 0.000523204 0.0995325 0.180521
-8.0737 0.479202 1.66996 0.000525105 0.175896 0.181884
-8.69776 0.467025 1.66229 0.000522694 0.291074 0.183941
-9.402 0.453284 1.64764 0.000518085 0.430051 0.186423
-10.1523 0.438644 1.62284 0.000510287 0.587769 0.18924
-11.0046 0.422013 1.58808 0.000499357 0.760444 0.192323
-12.021 0.402182 1.55108 0.000487723 0.925007 0.195262
-13.1436 0.380278 1.50225 0.000472368 1.09291 0.198261
-14.3106 0.357507 1.44121 0.000453177 1.26954 0.201415
-15.4911 0.334473 1.37002 0.00043079 1.44929 0.204625
-16.6906 0.31107 1.28699 0.000404682 1.63179 0.207884
-17.9419 0.286653 1.19606 0.00037609 1.80724 0.211017
-19.2311 0.261498 1.09736 0.000345053 1.96561 0.213846
-20.5206 0.236338 0.991114 0.000311647 2.10112 0.216265
-21.7767 0.211829 0.878663 0.000276288 2.20781 0.218171
-22.9791 0.188368 0.76106 0.000239308 2.282 0.219496
-24.1201 0.166104 0.643325 0.000202288 2.31851 0.220148
-25.2044 0.144948 0.531529 0.000167135 2.04088 0.220122
-26.273 0.124098 0.412773 0.000129793 1.31298 0.219991
-27.3156 0.103753 0.298083 9.37296e-05 0.0375621 0.219762
-28.3129 0.0842936 0.186068 5.85074e-05 -0.0994881 0.218919
-29.2478 0.0660519 0.078487 2.46795e-05 -0.291561 0.217304
-30.1288 0.0488634 -0.0348999 -1.0974e-05 -0.568352 0.214976
-30.9654 0.0325387 -0.143808 -4.52192e-05 -1.08648 0.210619
-31.7474 0.0172812 -0.240444 -7.56054e-05 -1.87237 0.204011
-32.461 0.00335735 -0.328387 -0.000103258 -2.8156 0.196079
-32.5945 0.000752306 -0.430693 -0.000135428 -3.82448 0.187595
-32.6048 0.000550765 -0.547794 -0.000172249 -4.83874 0.179067
-32.6125 0.000401295 -0.637869 -0.000200572 -5.94572 0.169758
-32.6204 0.000247076 -0.744626 -0.000234141 -7.08689 0.160162
-32.6238 0.000180036 -0.852323 -0.000268005 -8.31779 0.149811
-32.6264 0.000128806 -0.959537 -0.000301718 -9.64632 0.13864
-32.6287 8.41679e-05 -1.0597 -0.000333214 -11.0472 0.12686
-32.6311 3.70464e-05 -1.16433 -0.000366114 -12.4061 0.115433
-32.6333 -4.26788e-06 -1.26376 -0.000397377 -13.6915 0.104624
-32.6351 -4.06224e-05 -1.35734 -0.000426802 -14.7488 0.0957337
-32.6369 -7.56624e-05 -1.45324 -0.000456958 -15.6223 0.0883886
-32.6388 -0.000112026 -1.55158 -0.00048788 -16.5111 0.0809146
-32.6406 -0.000147553 -1.65465 -0.000520291 -17.5518 0.0721628
-32.6424 -0.000182523 -1.75904 -0.000553116 -18.7696 0.0619225
-32.6442 -0.000218716 -1.86484 -0.000586383 -20.0571 0.0510965
-32.6462 -0.000256536 -1.97366 -0.0006206 -21.2609 0.0409738
-32.6482 -0.000295793 -2.08627 -0.000656009 -22.2915 0.0323075
-32.6503 -0.000336529 -2.20296 -0.000692702 -23.1646 0.0249652
-32.6525 -0.000379196 -2.32328 -0.000730536 -23.9776 0.018129
-32.6548 -0.000423888 -2.44715 -0.000769484 -24.8304 0.0109574
-32.6571 -0.000470359 -2.57532 -0.000809786 -25.7553 0.00318073
-32.6596 -0.000518398 -2.71107 -0.000852473 -26.0464 0.0007323
-32.6621 -0.000567356 -2.8593 -0.00089908 -26.0718 0.000519214
-32.6648 -0.000619666 -2.99724 -0.000942455 -26.0827 0.000427305
-32.6675 -0.00067289 -3.14419 -0.000988661 -26.0889 0.00037533
-32.6703 -0.000727805 -3.29417 -0.00103582 -26.0968 0.000308773
-32.6732 -0.00078416 -3.44963 -0.00108471 -26.1064 0.000228207
-32.6762 -0.000841761 -3.60822 -0.00113457 -26.1152 0.000154317
-32.6792 -0.000900716 -3.76712 -0.00118454 -26.1213 0.000102486
-32.6823 -0.000960703 -3.92631 -0.00123459 -26.1248 7.32966e-05
-32.6854 -0.0010214 -4.08575 -0.00128473 -26.1271 5.40815e-05
-32.6885 -0.0010823 -4.24611 -0.00133515 -26.1298 3.11478e-05
-32.6916 -0.00114301 -4.40691 -0.00138571 -26.1335 -2.93189e-07
-32.6947 -0.0012032 -4.56716 -0.0014361 -26.1377 -3.49374e-05
-32.6977 -0.00126267 -4.72543 -0.00148587 -26.1412 -6.42565e-05
-32.7007 -0.0013211 -4.88073 -0.0015347 -26.1436 -8.50475e-05
-32.7037 -0.00137812 -5.03268 -0.00158248 -26.1455 -0.000101082
-32.7065 -0.00143338 -5.18116 -0.00162917 -26.1476 -0.000118774
-32.7091 -0.00148477 -5.20162 -0.0016356 -26.1501 -0.000139496
-32.7109 -0.00151872 -5.21411 -0.00163953 -26.1362 -0.000139797
-32.7126 -0.00155314 -5.22485 -0.00164291 -26.1518 -0.000154082
-32.7128 -0.00155674 -5.22481 -0.0016429 -26.1553 -0.000183347
-32.713 -0.00156069 -5.22221 -0.00164208 -26.1581 -0.000206756
-32.7131 -0.00156258 -5.22835 -0.00164401 -26.1598 -0.00022138
-32.7133 -0.00156587 -5.2395 -0.00164751 -26.1612 -0.000232908
-32.7134 -0.00156863 -5.24618 -0.00164961 -26.1644 -0.000259672
-32.7135 -0.00156943 -5.25282 -0.0016517 -26.1681 -0.000290674
-32.7135 -0.00156984 -5.26292 -0.00165488 -26.1713 -0.000317426
-32.7136 -0.00157133 -5.27373 -0.00165828 -26.1741 -0.000341714
-32.7136 -0.00157255 -5.28354 -0.00166136 -26.177 -0.00036599
-32.7136 -0.00157291 -5.29278 -0.00166427 -26.1799 -0.00039041
-32.7137 -0.00157354 -5.30168 -0.00166706 -26.183 -0.000416301
-32.7137 -0.0015747 -5.31001 -0.00166968 -26.1864 -0.000444935
-32.7138 -0.00157544 -5.31874 -0.00167243 -26.1899 -0.000474333
-32.7138 -0.00157576 -5.32868 -0.00167556 -26.1931 -0.000501351
-32.7138 -0.00157633 -5.3374 -0.0016783 -26.1961 -0.000526061
-32.7139 -0.00157721 -5.34449 -0.00168053 -26.199 -0.000550459
-32.7139 -0.00157798 -5.35132 -0.00168267 -26.202 -0.000575667
-32.7139 -0.00157871 -5.35867 -0.00168498 -26.205 -0.00060133
-32.714 -0.00157971 -5.36563 -0.00168718 -26.202 -0.000604391
-32.7141 -0.00158107 -5.37048 -0.0016887 -26.2055 -0.000605233
-32.7141 -0.00158244 -5.37461 -0.00169 -26.2056 -0.000606478
-32.7142 -0.00158376 -5.37876 -0.0016913 -26.2058 -0.000607567
-32.7143 -0.00158557 -5.38169 -0.00169222 -26.2058 -0.000608007
-32.7144 -0.0015875 -5.38346 -0.00169278 -26.2058 -0.00060811
-32.7145 -0.00158928 -5.38499 -0.00169326 -26.2058 -0.000608211
-32.7146 -0.00159123 -5.38599 -0.00169358 -26.2059 -0.000608753
-32.7147 -0.00159344 -5.38583 -0.00169353 -26.206 -0.00060985
-32.7148 -0.00159621 -5.38605 -0.0016936 -26.2062 -0.000611234
-32.715 -0.00159875 -5.38625 -0.00169366 -26.2063 -0.000612001
-32.7151 -0.00160123 -5.38588 -0.00169354 -26.2063 -0.000612381
-32.7152 -0.00160347 -5.38596 -0.00169357 -26.2064 -0.000612873
-32.7153 -0.00160538 -5.38714 -0.00169394 -26.2065 -0.000613609
-32.7048 -0.00160068 -5.38779 -0.00169414 -26.2066 -0.000614464
-32.6995 -0.00159801 -5.38868 -0.00169442 -26.2067 -0.000615083
-32.6866 -0.0015915 -5.39146 -0.0016953 -26.2053 -0.000614833
-32.6719 -0.00158411 -5.39316 -0.00169583 -26.2055 -0.00061488
-32.6552 -0.0015757 -5.39545 -0.00169655 -26.2067 -0.000615227
-32.6335 -0.00156478 -5.39948 -0.00169782 -26.2067 -0.000615334
-32.6065 -0.00155122 -5.40337 -0.00169904 -26.2056 -0.000615144
-32.5731 -0.00153438 -5.40704 -0.0017002 -26.2031 -0.000614686
-32.5318 -0.00151363 -5.41097 -0.00170143 -26.2004 -0.000614211
-32.4834 -0.00148924 -5.41415 -0.00170243 -26.1985 -0.000613864
-32.4317 -0.00146322 -5.41485 -0.00170265 -26.1973 -0.000613648
-32.3762 -0.00143533 -5.41376 -0.00170231 -26.1965 -0.000613512
-32.3125 -0.00140323 -5.40809 -0.00170052 -26.1948 -0.000613204
-32.2412 -0.00136738 -5.39573 -0.00169664 -26.191 -0.000612528
-32.1639 -0.00132846 -5.37154 -0.00168903 -26.1867 -0.000611741
-32.0788 -0.00128562 -5.33322 -0.00167698 -26.1832 -0.000611128
-31.9882 -0.00124007 -5.28321 -0.00166126 -26.1803 -0.000610602
-31.8938 -0.00119255 -5.22252 -0.00164218 -26.1767 -0.000609951
-31.7981 -0.0011444 -5.15072 -0.0016196 -26.1719 -0.000609086
-31.7028 -0.00109642 -5.07732 -0.00159652 -26.1624 -0.000607396
-31.6041 -0.00104677 -4.99726 -0.00157134 -26.15 -0.000605164
-31.5022 -0.000995483 -4.90198 -0.00154138 -26.1397 -0.000603317
-31.3995 -0.000943753 -4.79808 -0.00150871 -26.1211 -0.000599965
-31.2956 -0.000891486 -4.68966 -0.00147462 -26.0781 -0.000592248
-31.1912 -0.000838955 -4.5734 -0.00143806 -25.9897 -0.00057638
-31.088 -0.000787 -4.44649 -0.00139816 -25.8506 -0.00055141
-30.9855 -0.000735412 -4.31358 -0.00135637 -25.6679 -0.00051861
-30.8836 -0.000684142 -4.17541 -0.00131292 -25.446 -0.000478777
-30.7826 -0.000633303 -4.03131 -0.00126761 -25.1757 -0.000430258
-30.681 -0.000582198 -3.88487 -0.00122156 -24.8579 -0.000373203
-30.5773 -0.000529977 -3.74238 -0.00117676 -24.5858 -0.000324347
-30.4722 -0.000477128 -3.5984 -0.00113148 -24.3238 -0.000277327
-30.3649 -0.00042312 -3.44793 -0.00108417 -23.9757 -0.000214831
-30.2542 -0.000367417 -3.29313 -0.00103549 -23.5131 -0.00013179
-30.14 -0.000309923 -3.13787 -0.000986675 -22.9861 -3.71654e-05
-30.0213 -0.000250193 -2.98115 -0.000937395 -22.4261 6.33547e-05
-29.8969 -0.000187593 -2.82048 -0.000886874 -21.7689 0.000181347
-29.7658 -0.000121612 -2.65588 -0.000835117 -20.848 0.000346664
-29.6364 -5.64676e-05 -2.48702 -0.000782022 -19.3165 0.000621594
-29.5204 1.89943e-06 -2.30748 -0.000725566 -16.1634 0.00118764
-29.3822 7.14369e-05 -2.13142 -0.000670206 -10.2721 0.00224525
-29.2285 0.00014882 -1.95005 -0.000613176 -3.56926 0.00344856
-29.0399 0.000243705 -1.76669 -0.000555519 0.0211663 0.00498645
-28.7974 0.000365761 -1.58347 -0.000497907 0.0942427 0.0080838
-28.4555 0.000537837 -1.40277 -0.000441087 0.23419 0.0140155
-27.8707 0.000832136 -1.22818 -0.000386189 0.431088 0.022361
-26.3994 0.00157256 -1.0485 -0.000329691 0.70097 0.0337999
-21.6592 0.00395814 -0.875851 -0.000275403 1.00991 0.0468943
-15.4985 0.00705852 -0.699543 -0.000219965 1.29914 0.0591533
-9.2325 0.010212 -0.522625 -0.000164335 1.54854 0.0697243
-2.81789 0.0134402 -0.345218 -0.000108551 1.76692 0.0789803
0.0350579 0.0173166 -0.167521 -5.26756e-05 1.97928 0.0879812
0.131471 0.0240774 0.00155615 4.89318e-07 2.20518 0.0975558
0.293604 0.0354466 0.0898796 2.82618e-05 2.43135 0.107142
0.51788 0.0511735 0.190107 5.97774e-05 2.62277 0.115255
0.813137 0.0718777 0.267453 8.40982e-05 2.80648 0.123042
1.11995 0.0933925 0.352804 0.000110936 2.95313 0.129258
1.42239 0.1146 0.432959 0.00013614 3.0935 0.135207
1.71601 0.13519 0.515226 0.000162008 3.23965 0.141402
2.0113 0.155896 0.598153 0.000188084 3.38142 0.147411
2.30884 0.176761 0.677775 0.00021312 3.51145 0.152922
2.59411 0.196764 0.75885 0.000238614 3.61501 0.157311
2.86427 0.215709 0.837752 0.000263424 3.70011 0.160918
3.12491 0.233985 0.91512 0.000287751 3.78034 0.164319
3.37711 0.25167 0.990466 0.000311443 3.86675 0.167982
3.61588 0.268414 1.06346 0.000334396 3.95946 0.171911
3.83834 0.284013 1.13368 0.000356475 4.04996 0.175747
4.04849 0.29875 1.1997 0.000377235 4.13336 0.179282
4.24983 0.312868 1.26177 0.000396752 4.2126 0.18264
4.45072 0.326955 1.31799 0.000414431 4.2974 0.186235
4.64198 0.340367 1.36879 0.000430404 4.39675 0.190446
4.81066 0.352195 1.41921 0.000446258 4.50451 0.195013
4.96157 0.362777 1.46134 0.000459504 4.61925 0.199876
5.10173 0.372605 1.50047 0.000471808 4.73274 0.204686
5.21092 0.380262 1.54072 0.000484464 4.84212 0.209323
5.28932 0.38576 1.5755 0.000495403 4.9507 0.213925
5.3445 0.389629 1.60574 0.000504911 5.06627 0.218823
5.39129 0.39291 1.63464 0.000513999 5.18376 0.223803
5.43097 0.395693 1.65961 0.00052185 5.30219 0.228823
5.45237 0.397193 1.68116 0.000528625 5.41185 0.233471
5.46224 0.397885 1.69668 0.000533506 5.51204 0.237717
5.47413 0.398719 1.7098 0.000537632 5.6053 0.24167
5.48587 0.399542 1.72169 0.000541369 5.69136 0.245318
5.4912 0.399916 1.73114 0.000544341 5.76887 0.248603
5.49274 0.400024 1.73919 0.000546874 5.83384 0.251356
5.49959 0.400505 1.74655 0.000549186 5.88327 0.253452
5.51462 0.401558 1.75371 0.000551439 5.9164 0.254856
5.53423 0.402934 1.7587 0.000553007 5.93451 0.255623
5.55667 0.404507 1.76278 0.000554291 5.9024 0.255789
5.5856 0.406536 1.76506 0.000555008 5.53888 0.255723
5.62094 0.409014 1.76539 0.00055511 4.68332 0.25557
5.6616 0.411865 1.76331 0.000554457 3.36931 0.255334
5.70856 0.415158 1.75929 0.000553194 1.68383 0.255031
5.76587 0.419177 1.75332 0.000551317 -0.00769018 0.254654
5.8368 0.424151 1.74434 0.000548493 -0.112329 0.253637
5.92057 0.430025 1.73213 0.000544652 -0.29823 0.251831
6.01715 0.436797 1.71443 0.000539089 -0.50247 0.249846
6.1273 0.444521 1.69289 0.000532315 -0.712888 0.247801
6.24744 0.452946 1.66501 0.000523546 -0.923107 0.245758
6.36229 0.460999 1.6402 0.000515747 -1.22445 0.242829
6.46851 0.468448 1.61738 0.000508571 -1.64472 0.238744
6.58124 0.476353 1.59435 0.000501328 -2.15315 0.233803
6.70726 0.485189 1.57292 0.00049459 -2.68906 0.228595
6.8445 0.494814 1.5523 0.000488108 -3.23952 0.223245
6.98105 0.504388 1.53434 0.00048246 -3.77607 0.218031
7.11957 0.514102 1.52031 0.000478048 -4.31242 0.212818
7.26662 0.524413 1.5111 0.000475151 -4.83347 0.207754
7.42303 0.535381 1.50664 0.000473748 -5.30974 0.203125
7.58249 0.546563 1.50872 0.000474403 -5.71125 0.199223
7.74739 0.558126 1.51452 0.000476228 -6.00395 0.196379
7.95881 0.572951 1.52154 0.000478435 -6.22776 0.194204
8.18114 0.588542 1.53085 0.000481362 -6.45762 0.19197
8.37696 0.602273 1.55191 0.000487984 -6.72867 0.189335
8.56355 0.615358 1.57762 0.000496069 -6.9773 0.186919
8.74723 0.628238 1.59737 0.000502279 -7.1427 0.185312
8.92443 0.640664 1.60862 0.000505815 -7.19501 0.184803
8.93253 0.653263 1.63324 0.000513558 -7.21698 0.18459
8.93253 0.666383 1.65256 0.000519634 -7.06681 0.18461
8.93253 0.679554 1.6726 0.000525935 -6.87106 0.184645
8.93253 0.692401 1.69496 0.000532965 -6.1021 0.184783
8.93253 0.705613 1.72372 0.000542007 -4.65558 0.185043
8.93253 0.719663 1.74784 0.000549592 -2.86686 0.185364
8.93253 0.734029 1.78191 0.000560306 -0.869705 0.185722
8.93253 0.749752 1.82783 0.000574745 0.0269207 0.186332
8.93253 0.765602 1.86797 0.000587366 0.173812 0.188808
8.93253 0.781545 1.90268 0.000598281 0.484295 0.194042
8.93253 0.798269 1.94456 0.000611451 0.826314 0.199807
8.93253 0.816226 1.99321 0.000626747 1.16477 0.205512
8.93253 0.834757 2.03965 0.000641348 1.46279 0.210536
8.93253 0.853073 2.08823 0.000656625 1.7469 0.215325
8.93253 0.871279 2.14246 0.000673676 2.07721 0.220892
8.93253 0.889883 2.20102 0.000692091 2.46817 0.227483
8.93253 0.908852 2.26074 0.000710869 2.87968 0.234419
8.93253 0.927595 2.32275 0.000730367 3.26575 0.240927
8.93253 0.945689 2.38992 0.00075149 3.62092 0.246914
8.93253 0.963612 2.45995 0.000773508 3.98055 0.252976
8.93253 0.981534 2.5322 0.000796227 4.37256 0.259583
8.93253 0.999076 2.60642 0.000819564 4.78914 0.266605
8.93253 1.01588 2.68321 0.000843712 5.19925 0.273518
8.93253 1.03196 2.76146 0.000868317 5.58524 0.280025
8.93253 1.04731 2.83994 0.000892994 5.95928 0.28633
8.93253 1.06167 2.9185 0.000917697 6.34519 0.292835
8.93253 1.07483 2.99676 0.000942305 6.75191 0.29969
8.93253 1.08685 3.07362 0.000966471 7.12096 0.306554
8.93253 1.09777 3.15139 0.000990925 7.12096 0.316863
8.93253 1.10684 39.1926 0.107507 7.12096 0.331923
-0.770997 1.07658 8.93253 0.337867 -0.860319 0.319838
0.67403 1.07276 8.93253 0.457873 2.61468 0.324373
0.37331 1.07388 -0.187216 0.475258 0.284263 0.323998
4.8977 1.0913 -4.7019 0.409416 6.21382 0.330872
7.34088 1.10071 0.0391563 0.385497 7.12096 0.355159
6.44828 1.10026 4.91651 0.437762 7.12096 0.377501
7.55026 1.10151 8.93253 0.489217 7.12096 0.385381
8.93253 1.10912 -0.0222459 0.492781 7.12096 0.393264
8.93253 1.12521 -0.932087 0.479101 7.12096 0.412236
8.93253 1.14328 3.46448 0.485147 7.12096 0.440131
8.93253 1.15489 8.93253 0.509241 7.12096 0.462421
8.93253 1.16156 8.93253 0.534144 7.12096 0.472535
8.93253 1.17279 8.62192 0.539486 7.12096 0.478668
8.93253 1.19064 8.93253 0.540315 7.12096 0.492249
8.93253 1.20443 8.93253 0.552187 7.12096 0.513872
8.93253 1.21166 8.93253 0.571996 7.12096 0.53289
8.93253 1.21656 8.93253 0.587151 7.12096 0.541651
8.93253 1.22478 8.93253 0.597259 7.12096 0.5446
8.93253 1.23427 8.93253 0.604697 7.12096 0.551628
8.93253 1.24231 8.93253 0.612842 7.12096 0.564583
8.93253 1.24886 8.93253 0.623236 7.12096 0.577166
8.93253 1.2555 8.93253 0.634435 7.12096 0.583932
8.93253 1.26275 8.93253 0.644483 7.12096 0.586719
8.93253 1.27024 8.93253 0.653027 7.12096 0.591053
8.93253 1.27791 8.93253 0.660937 7.12096 0.598955
8.93253 1.28575 8.93253 0.669015 7.12096 0.607201
8.93253 1.29339 8.93253 0.677377 7.12096 0.612156
8.93253 1.30055 8.93253 0.685777 7.12096 0.614119
8.93253 1.30737 8.93253 0.694131 7.12096 0.616125
8.93253 1.31407 8.93253 0.702025 7.12096 0.61989
8.93253 1.32039 8.93253 0.709273 7.12096 0.624165
8.93253 1.3258 8.93253 0.71615 7.12096 0.626819
8.93253 1.33002 8.93253 0.723085 7.12096 0.627609
8.93253 1.33301 8.93253 0.730179 7.12096 0.628007
8.93253 1.33492 8.93253 0.73691 7.12096 0.62921
8.93253 1.33576 8.93253 0.742633 7.12096 0.630952
8.65672 1.33564 8.93253 0.747315 7.12096 0.632257
7.99144 1.3353 8.93253 0.751199 7.12096 0.632887
6.81099 1.33471 8.93253 0.754442 7.12096 0.633491
5.03324 1.33381 8.93253 0.756711 7.12096 0.634691
2.76771 1.33267 8.93253 0.757502 7.12096 0.636515
-0.000472136 1.33126 7.82393 0.757153 7.12096 0.638477
-0.0748988 1.32827 6.33309 0.756684 7.12096 0.640095
-0.267053 1.32053 4.99089 0.756262 7.12096 0.641458
-0.588519 1.30759 3.22931 0.755708 7.12096 0.642588
-0.953822 1.29289 0.231076 0.754766 7.12096 0.643706
-1.31033 1.27854 -0.0796575 0.752873 7.12096 0.644823
-1.67505 1.26387 -0.280322 0.748289 7.12096 0.646094
-2.06248 1.24827 -0.607181 0.740822 7.12096 0.647421
-2.45769 1.23237 -1.00658 0.731698 7.12096 0.648491
-2.85151 1.21652 -1.44284 0.721732 7.12096 0.649314
-3.26518 1.19987 -1.87125 0.711945 6.89683 0.649377
-3.70296 1.18225 -2.31132 0.701892 6.16211 0.649245
-4.14603 1.16442 -2.78451 0.691082 5.0464 0.649044
-4.59427 1.14638 -3.27681 0.679836 3.492 0.648765
-5.05831 1.1277 -3.78351 0.66826 1.42166 0.648394
-5.53544 1.1085 -4.28359 0.656836 -0.0162 0.647742
-6.00954 1.08942 -4.78625 0.645353 -0.123201 0.645126
-6.47826 1.07055 -5.28623 0.633931 -0.391422 0.638568
-6.94715 1.05168 -5.78353 0.62257 -0.735571 0.630153
-7.40961 1.03307 -6.2859 0.611094 -1.11808 0.6208
-7.8626 1.01484 -6.79543 0.599454 -1.54763 0.610297
-8.30884 0.996878 -7.31797 0.587517 -2.03515 0.598377
-8.75645 0.978864 -7.85323 0.575289 -2.5776 0.585113
-9.21071 0.960581 -8.39063 0.563012 -3.16516 0.570747
-9.67682 0.941822 -8.93348 0.550611 -3.74153 0.556654
-10.1628 0.922261 -9.48896 0.537921 -4.28669 0.543324
-10.6771 0.901563 -10.0624 0.524822 -4.82705 0.530112
-11.1731 0.881603 -10.673 0.510873 -5.38568 0.516453
-11.6558 0.862173 -11.3457 0.495505 -5.94939 0.502669
-12.1862 0.840828 -12.0212 0.480073 -6.51332 0.488881
-12.7735 0.81719 -12.67 0.465251 -7.05114 0.47573
-13.3802 0.792772 -13.3041 0.450766 -7.56383 0.463195
-14.0014 0.767773 -13.9499 0.436013 -8.07633 0.450663
-14.6381 0.742149 -14.6502 0.420014 -8.58179 0.438304
-15.3019 0.715433 -15.3994 0.4029 -9.06039 0.426602
-15.9945 0.687557 -16.1543 0.385654 -9.50054 0.41584
-16.6969 0.659289 -16.8951 0.368732 -9.89957 0.406083
-17.3875 0.631495 -17.6378 0.351765 -10.264 0.397172
-18.0437 0.605085 -18.4078 0.334174 -10.5777 0.389502
-18.6644 0.580102 -19.2131 0.315777 -10.809 0.383847
-19.2864 0.555071 -20.0302 0.297111 -11.0191 0.378709
-19.923 0.529449 -20.8378 0.278663 -11.2677 0.37263
-20.5184 0.505485 -21.6351 0.260448 -11.5582 0.365528
-21.0471 0.484207 -22.4129 0.24268 -11.8507 0.358375
-21.5564 0.463712 -23.149 0.225863 -12.1337 0.351457
-22.068 0.443121 -23.8942 0.20884 -12.3877 0.345245
-22.5432 0.423993 -24.6921 0.190612 -12.6161 0.339661
-22.9544 0.407445 -25.5233 0.171623 -12.8505 0.333929
-23.3221 0.392648 -26.3355 0.15307 -13.1236 0.327252
-23.7022 0.377348 -27.0898 0.135836 -13.4467 0.319352
-24.0965 0.361478 -27.7652 0.120408 -13.8172 0.310292
-24.4331 0.347932 -28.4453 0.104872 -14.1853 0.301292
-24.6883 0.337664 -29.1399 0.0890026 -14.554 0.292278
-24.8853 0.329733 -29.8412 0.0729821 -14.939 0.282863
-25.0538 0.32295 -30.5091 0.057724 -15.363 0.272497
-25.1916 0.317404 -31.1053 0.0441046 -15.8462 0.260682
-25.2687 0.314303 -31.6484 0.0316965 -16.375 0.247753
-25.2318 0.313698 -32.1688 0.0198087 -16.9294 0.234197
-24.6777 0.313977 -32.6709 0.00833914 -17.4985 0.220282
-23.6823 0.314478 -32.9925 0.000992986 -18.0846 0.205951
-22.8042 0.31492 -33.0021 0.000771917 -18.7377 0.189982
-20.4257 0.316117 -33.0056 0.000692915 -19.3999 0.173788
-18.1864 0.317244 -33.0104 0.000583701 -20.0796 0.157171
-15.5057 0.318593 -33.0154 0.000468987 -20.7778 0.140098
-12.2578 0.320227 -33.0182 0.000403933 -21.4555 0.123527
-8.98805 0.321873 -33.0191 0.000384468 -22.1201 0.107279
-5.66397 0.323546 -33.0204 0.000355669 -22.7448 0.0920029
-2.4279 0.325174 -33.0218 0.000323266 -23.3496 0.0772163
0.00362499 0.326806 -33.0227 0.000303082 -23.9226 0.063204
0.0209564 0.328764 -33.0228 0.000299411 -24.4589 0.0500925
0.0417027 0.331109 -33.0232 0.000290611 -24.94 0.0383272
0.0658017 0.333832 -33.024 0.000273308 -25.3544 0.028195
0.0912602 0.336709 -33.0245 0.000260568 -25.6966 0.0198275
0.115544 0.339453 -33.0248 0.000254907 -25.9691 0.013165
0.134042 0.341543 -33.0251 0.000247865 -26.1747 0.00813853
0.145778 0.342869 -33.0257 0.00023473 -26.3117 0.00478967
0.075858 0.343093 -33.0262 0.000222409 -26.3717 0.00332213
-0.064098 0.342366 -33.0266 0.000213628 -25.8855 0.00334716
-0.230976 0.340573 -33.0247 0.000212534 -24.1654 0.00365595
-0.499457 0.337688 -33.0089 0.000217498 -21.3186 0.00416701
-0.879334 0.333606 -32.9889 0.000223812 -17.5209 0.00484879
-1.35802 0.328463 -32.9626 0.000232055 -13.0623 0.00564919
-1.90865 0.322547 -32.9392 0.000239434 -8.97005 0.00638384
-2.54362 0.315724 -32.9023 0.000251026 -5.01756 0.0070934
-3.32611 0.307317 -32.837 0.000271571 -0.218421 0.00795495
-4.2562 0.297323 -32.7428 0.000301169 0.0200851 0.00980333
-5.25663 0.286574 -32.6358 0.00033484 0.0676481 0.0140876
-6.30903 0.275266 -32.4938 0.000379471 0.167485 0.0230804
-7.39537 0.263594 -32.3054 0.000438721 0.304443 0.035417
-8.53335 0.251367 -32.074 0.000511494 0.480147 0.0512435
-9.70638 0.238763 -31.7501 0.000613325 0.67434 0.0687356
-10.8997 0.225942 -31.2527 0.000769718 0.862448 0.0856794
-12.0834 0.213223 -30.4294 0.0010286 1.02906 0.100687
-13.2379 0.200818 -28.8188 0.00153506 1.17895 0.114188
-14.2439 0.190009 -25.9636 0.00243285 1.33008 0.127802
-15.0748 0.181081 -22.8053 0.00342594 1.49786 0.142915
-15.8868 0.172357 -19.0975 0.00459181 1.67459 0.158833
-16.6692 0.163951 -15.9585 0.00557886 1.84784 0.174439
-17.3972 0.156128 -12.7641 0.0065833 2.00111 0.188245
-18.0041 0.149607 -9.73443 0.00753596 2.13442 0.200253
-18.5221 0.144042 -6.78206 0.0084643 2.25731 0.211322
-18.9883 0.139032 -4.0297 0.00932976 2.37998 0.222372
-19.3786 0.134839 -1.51542 0.0101203 2.50393 0.233537
-19.6663 0.131748 0.00389121 0.0109222 2.61998 0.24399
-19.8666 0.129596 0.0152508 0.0118721 2.71691 0.252721
-20.0063 0.128095 0.0288065 0.0130056 2.79069 0.259367
-20.0832 0.127268 0.0440207 0.0142777 2.84616 0.264363
-19.9958 0.127215 0.0606968 0.0156721 2.89141 0.268438
-19.6618 0.127384 0.0804605 0.0173247 2.92976 0.271893
-19.1536 0.127639 0.10315 0.0192219 2.9554 0.274203
-18.3747 0.128031 0.127773 0.0212808 2.9464 0.274903
-17.3109 0.128567 0.153531 0.0234345 2.17922 0.274765
-16.0855 0.129183 0.176708 0.0253725 0.753703 0.27451
-14.6997 0.129881 0.195117 0.0269119 -0.0373629 0.273984
-13.2458 0.130612 0.210696 0.0282144 -0.294092 0.2713
-11.8274 0.131326 0.224291 0.0293513 -0.745689 0.266579
-10.4065 0.132041 0.232405 0.0300297 -1.31387 0.260639
-9.09649 0.132701 0.192403 0.030191 -1.95342 0.253952
-7.98151 0.133262 -0.238065 0.0298415 -2.54392 0.247779
-7.02063 0.133745 -0.900896 0.0290369 -3.13296 0.241621
-6.33732 0.134089 -1.81221 0.0279306 -3.77325 0.234927
-5.95382 0.134282 -3.08656 0.0263836 -4.4605 0.227743
-5.88806 0.134315 -4.79197 0.0243133 -5.11389 0.220912
-6.06801 0.134225 -6.87389 0.021786 -5.69641 0.214822
-6.45453 0.13403 -9.10673 0.0190755 -6.21473 0.209403
-6.78252 0.133865 -11.7807 0.0158294 -6.59801 0.205396
-7.06251 0.133724 -14.6677 0.0123248 -6.95002 0.201716
-7.54423 0.133482 -17.4926 0.00889556 -7.39069 0.19711
-8.1088 0.133198 -20.6268 0.00509086 -7.9069 0.191713
-8.69044 0.132905 -23.7914 0.00124915 -8.41701 0.18638
-9.69477 0.1324 -24.2478 0.000695178 -8.9255 0.181064
-10.4457 0.132022 -24.4174 0.000489192 -9.37793 0.176334
-11.2596 0.131612 -24.5297 0.00035298 -9.81433 0.171772
-13.0927 0.130689 -24.6206 0.000242564 -10.3129 0.16656
-14.3799 0.130042 -24.6827 0.000167189 -10.8814 0.160616
-15.1835 0.129637 -24.717 0.000125502 -11.4533 0.154638
-15.8529 0.1293 -24.7462 9.00985e-05 -12.0176 0.148738
-16.0877 0.129182 -24.7769 5.28734e-05 -12.5737 0.142925
-15.9591 0.129247 -24.8027 2.15496e-05 -13.1091 0.137327
-15.5095 0.129473 -24.8215 -1.30805e-06 -13.6951 0.131201
-14.6466 0.129907 -24.8392 -2.2842e-05 -14.3317 0.124546
-13.4828 0.130493 -24.8555 -4.25586e-05 -15.0202 0.117348
-11.9954 0.131242 -24.8687 -5.85642e-05 -15.7129 0.110106
-10.2268 0.132132 -24.8783 -7.027e-05 -16.385 0.103081
-8.21161 0.133146 -24.8863 -8.00035e-05 -17.0336 0.0962995
-6.00909 0.134254 -24.8933 -8.84388e-05 -17.6803 0.0895391
-3.61485 0.135459 -24.8966 -9.24361e-05 -18.3365 0.0826786
-1.12883 0.13671 -24.8909 -9.07014e-05 -18.9889 0.0758579
0.00590046 0.13807 -24.8756 -8.58907e-05 -19.6134 0.0693298
0.0189661 0.139823 -24.8617 -8.15218e-05 -20.1796 0.0634098
0.0363958 0.142162 -24.8439 -7.59362e-05 -20.6644 0.0583421
0.058412 0.145116 -24.8141 -6.65672e-05 -21.0769 0.0540298
0.08281 0.148389 -24.7797 -5.57528e-05 -21.4336 0.0503002
0.105604 0.151448 -24.7507 -4.66248e-05 -21.7319 0.0471822
0.122117 0.153663 -24.7184 -3.64719e-05 -21.9469 0.0449339
0.131136 0.154873 -24.6792 -2.41495e-05 -22.064 0.0437102
0.134713 0.155353 -24.6384 -1.1305e-05 -21.9732 0.0435613
-0.0095967 0.155251 -24.5987 1.16117e-06 -21.287 0.0436845
-0.168713 0.154434 -24.5572 1.42123e-05 -19.8989 0.0439337
-0.46165 0.152928 -24.5112 2.8682e-05 -17.6881 0.0443306
-0.858257 0.15089 -24.4649 4.32596e-05 -14.707 0.0448658
-1.34827 0.148371 -24.4271 5.51402e-05 -11.3393 0.0454703
-1.94293 0.145315 -24.4008 6.34053e-05 -8.34768 0.0460074
-2.64032 0.141731 -24.3681 7.36845e-05 -5.30375 0.0465538
-3.41553 0.137746 -24.328 8.63044e-05 -1.49909 0.0472369
-4.22458 0.133588 -24.2834 0.000100309 0.00994139 0.0483463
-5.03037 0.129447 -24.2369 0.000114946 0.0391108 0.0508119
-5.89346 0.125011 -24.1893 0.000129914 0.0958495 0.0556078
-6.95613 0.119549 -24.1383 0.000145936 0.178567 0.0625996
-8.06662 0.113842 -24.0853 0.000162599 0.294889 0.072432
-9.1439 0.108305 -24.0217 0.000182605 0.440701 0.084757
-10.2377 0.102684 -23.9432 0.000207303 0.587393 0.0971563
-11.4079 0.0966694 -23.8491 0.000236892 0.715476 0.107983
-12.6233 0.0904231 -23.7364 0.000272325 0.820296 0.116843
-13.8599 0.0840674 -23.6009 0.000314922 0.914299 0.124789
-14.8219 0.0791232 -23.4762 0.000354122 1.01426 0.133238
-15.7845 0.0741757 -23.315 0.000404837 1.12536 0.142628
-16.7756 0.0690822 -23.1348 0.000461491 1.23531 0.151923
-17.8007 0.0638138 -22.9415 0.000522254 1.33303 0.160183
-18.7942 0.0587075 -22.7206 0.000591734 1.40997 0.166686
-19.7528 0.0537809 -22.4781 0.000667986 1.47353 0.172058
-20.7126 0.0488481 -22.2265 0.000747103 1.53403 0.177172
-21.6434 0.0440642 -22.0057 0.000816505 1.59864 0.182634
-22.5184 0.039567 -21.834 0.000870512 1.66374 0.188137
-23.3514 0.0352857 -21.743 0.000899126 1.72022 0.192911
-24.172 0.0310681 -21.7578 0.000894456 1.76126 0.19638
-24.983 0.0269004 -21.8894 0.000853077 1.78786 0.198628
-25.7839 0.0227837 -22.121 0.00078025 1.80683 0.200232
-26.5131 0.0190363 -22.4107 0.000689161 1.82403 0.201685
-27.155 0.0157369 -22.694 0.000600101 1.83895 0.202947
-27.6522 0.0131819 -22.9302 0.000525805 1.84483 0.203443
-28.0908 0.0109276 -23.1558 0.000454886 1.34154 0.203353
-28.5345 0.00864724 -23.3917 0.000380702 0.33754 0.203173
-28.9547 0.00648753 -23.606 0.000313322 -0.0720875 0.202551
-29.321 0.00460483 -23.7858 0.000256796 -0.413749 0.199891
-29.6674 0.00282474 -23.9521 0.000204498 -0.936862 0.195818
-29.8849 0.00170694 -24.1097 0.000154934 -1.68151 0.19002
-29.9505 0.00136959 -24.259 0.000107999 -2.46765 0.1839
-29.9906 0.00116329 -24.3928 6.59063e-05 -3.29839 0.177432
-30.0224 0.00100024 -24.5204 2.57927e-05 -4.208 0.17035
-30.0447 0.00088533 -24.6428 -1.26852e-05 -5.19886 0.162635
-30.0635 0.000789006 -24.7556 -4.81573e-05 -6.27751 0.154237
-30.0807 0.000700327 -24.8555 -7.95866e-05 -7.3177 0.146139
-30.094 0.000632258 -24.9033 -0.000100578 -8.12879 0.139824
-30.1059 0.000571119 -24.9233 -0.000124938 -8.82468 0.134406
-30.1173 0.000512507 -24.9435 -0.000149351 -9.69556 0.127625
-30.126 0.000467779 -24.9638 -0.000174031 -10.7661 0.119291
-30.1329 0.000432284 -24.9845 -0.00019918 -11.8814 0.110607
-30.141 0.000390583 -25.0054 -0.000224519 -12.8985 0.102688
-30.1491 0.000348757 -25.027 -0.000250804 -13.7733 0.0958771
-30.1578 0.000304202 -25.0488 -0.000277246 -14.5666 0.0897011
-30.1669 0.0002576 -25.0706 -0.000303743 -15.406 0.0831659
-30.1761 0.000210191 -25.0928 -0.000330688 -16.3107 0.0761221
-30.1853 0.000162957 -25.1155 -0.000358139 -17.2278 0.0689821
-30.1944 0.000116051 -25.1382 -0.00038573 -18.0763 0.0623757
-30.2034 6.9863e-05 -25.1607 -0.000413098 -18.8154 0.0566212
-30.2121 2.49684e-05 -25.1827 -0.000439799 -19.48 0.0514467
-30.2207 -1.89665e-05 -25.2048 -0.000466565 -20.141 0.0463008
-30.2288 -6.05789e-05 -25.2267 -0.000493226 -20.8336 0.0409079
-30.2363 -9.9348e-05 -25.2481 -0.00051917 -21.5473 0.0353516
-30.2432 -0.000134528 -25.269 -0.000544535 -22.2249 0.0300758
-30.2492 -0.000165614 -25.2893 -0.000569181 -22.8357 0.0253205
-30.2546 -0.00019307 -25.3089 -0.000593004 -23.3939 0.0209746
-30.2591 -0.000216536 -25.3276 -0.000615719 -23.9497 0.0166474
-30.2629 -0.000235839 -25.3454 -0.000637233 -24.5427 0.0120303
-30.2659 -0.000251235 -25.362 -0.000657491 -25.1719 0.00713118
-30.268 -0.000262033 -25.3776 -0.000676324 -25.7944 0.00228507
-30.2688 -0.000266406 -25.3921 -0.000694 -25.966 0.000949049
-30.2648 -0.000264371 -25.4057 -0.000710475 -25.996 0.000714983
-30.249 -0.000256426 -25.4169 -0.000724106 -26.0119 0.000591465
-30.2166 -0.00024011 -25.4271 -0.000736506 -26.0259 0.000482366
-30.1703 -0.000216806 -25.4358 -0.00074698 -26.0391 0.00037968
-30.1218 -0.000192413 -25.4422 -0.000754852 -26.0498 0.000296259
-30.0649 -0.000163783 -25.445 -0.000758228 -26.0582 0.000231068
-29.9867 -0.000124443 -25.4463 -0.000759961 -26.0643 0.000183194
-29.8922 -7.68884e-05 -25.4401 -0.000758022 -26.0698 0.000140398
-29.7702 -1.54955e-05 -25.419 -0.000751359 -26.0752 9.85796e-05
-29.6175 6.13983e-05 -25.3827 -0.000739964 -26.0803 5.92363e-05
-29.4294 0.000156051 -25.3349 -0.000724929 -26.0844 2.67863e-05
-29.1988 0.000272102 -25.2758 -0.000706349 -26.0875 2.54628e-06
-28.8986 0.000423187 -25.2142 -0.000686963 -26.0896 -1.36396e-05
-28.452 0.000647949 -25.1404 -0.000663761 -26.0912 -2.5814e-05
-27.6149 0.00106922 -25.0513 -0.000635753 -26.0924 -3.51678e-05
-25.1171 0.00232622 -24.9557 -0.000605703 -26.0927 -3.84729e-05
-20.0129 0.00489498 -24.858 -0.000574974 -26.0543 -3.15704e-05
-14.9754 0.00743012 -24.7468 -0.000539992 -25.9586 -1.43914e-05
-10.332 0.00976696 -24.625 -0.000501697 -25.7805 1.75825e-05
-5.90327 0.0119958 -24.4918 -0.000459827 -25.5082 6.64572e-05
-1.74321 0.0140894 -24.3492 -0.000414973 -25.1257 0.000135131
0.00790192 0.0161351 -24.1963 -0.000366893 -24.6063 0.000228368
0.0258593 0.0187903 -24.041 -0.000318088 -23.9071 0.000353898
0.0494336 0.0222761 -23.8835 -0.000268542 -23.0993 0.000498917
0.077435 0.0264166 -23.7165 -0.000216042 -21.8392 0.000725123
0.108119 0.0309537 -23.5334 -0.000158449 -18.9408 0.00124546
0.140739 0.035777 -23.3368 -9.6631e-05 -12.97 0.00231733
0.171563 0.0403348 -23.1221 -2.91293e-05 -5.8529 0.00359501
0.200997 0.0446871 -22.8825 4.61949e-05 0.00342288 0.00495565
0.235322 0.0497625 -22.6128 0.000131008 0.0342275 0.00774488
0.268355 0.0546469 -22.2835 0.000234549 0.116514 0.0151955
0.302048 0.059629 -21.9031 0.000354181 0.258824 0.0280811
0.340857 0.0653675 -21.3824 0.000517908 0.491278 0.0491287
0.383318 0.0716459 -20.4953 0.000796829 0.750845 0.0726314
0.426445 0.078023 -18.274 0.0014953 0.99527 0.094763
0.469273 0.0843557 -11.9343 0.00348879 1.193 0.112666
0.519177 0.0917348 -4.02812 0.0059748 1.35605 0.12743
0.581417 0.100938 0.0184639 0.00879222 1.52009 0.142283
0.649204 0.110961 0.09186 0.0149569 1.70411 0.158945
0.712386 0.120304 0.235778 0.0270449 1.89628 0.176346
0.776343 0.129761 0.422885 0.0427603 2.07476 0.192506
0.856026 0.141543 0.625582 0.0597852 2.21928 0.205592
0.95528 0.156219 0.815757 0.0757584 2.3285 0.215481
1.06854 0.172967 0.99523 0.0908326 2.42437 0.224162
1.18847 0.190699 1.19246 0.107399 2.52373 0.233158
1.31746 0.209773 1.41426 0.126028 2.63048 0.242824
1.46071 0.230954 1.64586 0.145481 2.73191 0.252008
1.61779 0.254181 1.87163 0.164443 2.81628 0.259647
1.7846 0.278847 2.08517 0.182379 2.8799 0.265407
1.95712 0.304356 2.30133 0.200534 2.92702 0.269674
2.13433 0.330559 2.53111 0.219834 2.97102 0.273658
2.31359 0.357066 2.77007 0.239905 3.01869 0.277974
2.49413 0.383761 3.00932 0.26 3.06588 0.282247
2.67436 0.41041 3.24217 0.279557 3.10628 0.285905
2.85557 0.437206 3.47087 0.298766 3.1395 0.288913
3.03719 0.464061 3.70349 0.318304 3.17002 0.291677
3.21792 0.490785 3.94101 0.338255 3.20606 0.29494
3.39586 0.517095 4.17619 0.358007 3.2531 0.299199
3.57738 0.543936 4.40191 0.376967 3.30989 0.304341
3.76694 0.571966 4.61026 0.394466 3.37637 0.310361
3.9504 0.599092 4.81391 0.411571 3.44724 0.316778
4.12048 0.624241 5.01317 0.428307 3.52447 0.323771
4.29718 0.65037 5.22747 0.446306 3.61918 0.332347
4.47643 0.676874 5.4771 0.467273 3.7172 0.341222
4.63854 0.700844 5.71473 0.487232 3.82464 0.35095
4.80821 0.725933 5.90682 0.503366 3.94371 0.361731
4.96148 0.748596 6.066 0.516736 4.0755 0.373664
5.08704 0.767162 6.23601 0.531016 4.20999 0.385841
5.19304 0.782835 6.42876 0.547205 4.35108 0.398617
5.28555 0.796515 6.62423 0.563623 4.50175 0.412259
5.36062 0.807614 6.79583 0.578036 4.66547 0.427084
5.41637 0.815859 6.93765 0.589948 4.84091 0.442968
5.45194 0.821117 7.07537 0.601515 5.02103 0.459277
5.47405 0.824387 7.22261 0.613882 5.20257 0.475715
5.48388 0.825841 7.37122 0.626364 5.38566 0.492293
5.32982 0.825857 7.50509 0.637608 5.57197 0.509163
5.03397 0.825708 7.61709 0.647015 5.73161 0.523618
4.3737 0.825376 7.72978 0.65648 5.95233 0.543603
3.47116 0.824922 7.84893 0.666488 6.23937 0.569592
2.52379 0.824445 7.96034 0.675846 6.51862 0.594878
1.49615 0.823928 8.06096 0.684297 6.72817 0.613852
0.450027 0.823401 8.15611 0.692288 6.87367 0.627026
-0.0181925 0.822719 8.25933 0.700958 7.01493 0.639816
-0.0714719 0.821383 8.36776 0.710066 7.12096 0.65565
-0.176685 0.818744 8.47092 0.71873 7.12096 0.672722
-0.337853 0.814702 8.56813 0.726895 7.12096 0.686879
-0.532938 0.80981 8.66796 0.735279 7.12096 0.695209
-0.742546 0.804553 8.77131 0.74396 7.12096 0.698704
-0.962664 0.799033 8.86779 0.752063 7.12096 0.702092
-1.16092 0.794062 8.93253 0.758906 7.12096 0.705657
-1.23687 0.792157 8.93253 0.763287 7.12096 0.708502
-1.32728 0.789889 8.93253 0.766456 7.02319 0.709288
-1.49315 0.78573 8.93253 0.768868 6.15076 0.709131
-1.71114 0.780263 8.93253 0.770536 4.77285 0.708884
-1.91837 0.775066 8.31147 0.770615 3.22456 0.708606
-2.16693 0.768833 6.09429 0.769918 1.02098 0.70821
-2.5153 0.760097 3.21352 0.769012 -0.0258042 0.707338
-2.93109 0.74967 -0.003707 0.767916 -0.168893 0.703518
-3.40253 0.737847 -0.107873 0.765495 -0.444654 0.696157
-3.91353 0.725032 -0.400854 0.758685 -0.747345 0.688077
-4.45962 0.711337 -0.878594 0.747582 -1.0466 0.680089
-5.05772 0.696338 -1.46214 0.734019 -1.36365 0.671626
-5.709 0.680006 -2.07687 0.719731 -1.73376 0.661746
-6.40224 0.662621 -2.72004 0.704783 -2.16764 0.650164
-7.11184 0.644825 -3.46298 0.687515 -2.63883 0.637586
-7.82695 0.626892 -4.33751 0.66719 -3.10401 0.625169
-8.55833 0.608551 -5.29678 0.644894 -3.56363 0.6129
-9.32212 0.589396 -6.25202 0.622693 -4.03017 0.600446
-10.1225 0.569324 -7.18576 0.600991 -4.55059 0.586554
-10.9381 0.54887 -8.13152 0.579009 -5.12807 0.571139
-11.74 0.528761 -9.13547 0.555676 -5.73307 0.554989
-12.528 0.508999 -10.1857 0.531267 -6.35016 0.538517
-13.3318 0.488842 -11.2341 0.506899 -6.98973 0.521444
-14.1696 0.467832 -12.2471 0.483356 -7.67509 0.503149
-15.0169 0.446583 -13.2215 0.460709 -8.40941 0.483548
-15.8784 0.424979 -14.1843 0.438332 -9.16976 0.463251
-16.753 0.403046 -15.1567 0.41573 -9.87276 0.444485
-17.6292 0.381073 -16.0571 0.394803 -10.5439 0.426569
-18.5271 0.358556 -16.8859 0.37554 -11.0924 0.411928
-19.4144 0.336303 -17.7246 0.356047 -11.5764 0.39901
-20.2509 0.315327 -18.6729 0.334007 -12.1091 0.384788
-21.111 0.293755 -19.6943 0.310268 -12.756 0.367519
-22.0425 0.270395 -20.737 0.286034 -13.4468 0.34908
-23.0442 0.245275 -21.7417 0.262684 -14.0884 0.331954
-24.0826 0.219234 -22.7299 0.239715 -14.6584 0.316739
-25.1546 0.192352 -23.7776 0.215366 -15.1588 0.30338
-26.2898 0.163882 -24.9114 0.189012 -15.6587 0.290037
-27.4924 0.133725 -26.1041 0.161292 -16.2053 0.275445
-28.7566 0.10202 -27.311 0.133242 -16.7728 0.260297
-30.0802 0.0688292 -28.5151 0.105255 -17.3364 0.245252
-31.4664 0.0340644 -29.7491 0.0765758 -17.8572 0.231349
-32.7948 0.000753156 -31.0495 0.0463527 -18.3264 0.218825
-32.8119 0.000323001 -32.5957 0.0104139 -18.7239 0.208215
-32.8223 6.10225e-05 -33.0338 0.000232138 -19.1024 0.198112
-32.8327 -0.00019898 -33.04 8.90316e-05 -19.8588 0.177919
-32.8395 -0.000369828 -33.0457 -4.4242e-05 -20.3419 0.165023
-32.8455 -0.00052044 -33.0525 -0.000202884 -21.0519 0.146073
-32.8511 -0.000659531 -33.0595 -0.000365481 -21.6502 0.1301
-32.8565 -0.000795457 -33.0636 -0.000458959 -22.3036 0.112659
-32.8612 -0.000912267 -33.0673 -0.000545092 -22.9627 0.0950658
-32.8657 -0.00102587 -33.0719 -0.000652953 -23.7049 0.0752515
-32.8701 -0.00113534 -33.0766 -0.000762736 -24.5142 0.0536499
-32.874 -0.00123442 -33.0804 -0.000850187 -25.3805 0.030526
-32.8776 -0.00132443 -33.0839 -0.00093259 -26.2843 0.00639926
-32.8809 -0.00140817 -33.088 -0.00102657 -26.5089 0.000404098
-32.8839 -0.00148157 -33.0921 -0.00112312 -26.5183 0.000153606
-32.8849 -0.00150641 -33.095 -0.00119001 -26.5234 1.65011e-05
-32.8864 -0.00154611 -33.0983 -0.0012655 -26.5284 -0.000116541
-32.8875 -0.001574 0.144415 0.0213965 -26.5346 -0.000282693
-31.9083 -0.00108118 1.22538 0.113577 -21.4671 0.000622386
-32.3975 -0.00132738 3.53416 0.31046 -26.1651 -0.000221008
-32.3491 -0.00130303 6.33707 0.54948 -26.3044 -0.000266778
-32.3837 -0.00132042 7.49451 0.648182 -25.762 -0.000169402
-32.6595 -0.00145924 -0.217917 0.655873 -26.4901 -0.000300126
0.0471373 0.0219468 -3.68016 0.586542 -26.5439 -0.000530838
1.50909 0.238117 -6.03263 0.539434 -26.5492 -0.000672239
4.23902 0.641775 -13.8777 0.382339 -24.7501 -0.000349265
5.79354 0.871632 -12.2931 0.324004 -25.8891 -0.000553746
-0.280361 0.887351 0.369557 0.346195 -26.4153 -0.000648204
-2.67108 0.822272 1.18774 0.386767 -26.5421 -0.000670963
-8.03435 0.676275 2.50136 0.451906 -26.5002 -0.00066818
-13.9076 0.516397 4.02252 0.527336 -26.1887 -0.000612261
-17.5004 0.418596 4.91974 0.571827 -25.9239 -0.000564726
-18.5865 0.38903 5.33691 0.592513 -25.5067 -0.000489823
-18.8893 0.380787 5.55197 0.603177 -5.55536 0.00309186
-19.7215 0.358133 2.92762 0.611652 -7.92085 0.00266721
-20.6637 0.332484 -0.994276 0.59229 -9.58042 0.00236928
-22.5986 0.279815 0.00192261 0.586379 -6.17547 0.00298054
-25.5476 0.199538 0.5283 0.59725 -6.78464 0.00287118
-27.8068 0.138038 0.912953 0.605194 -7.51053 0.00274087
-29.4573 0.0931103 1.55919 0.618539 -7.67242 0.0027118
-30.4786 0.0653065 2.83167 0.644818 -7.06768 0.00282037
-30.8587 0.0549603 4.26674 0.674455 -6.24139 0.0029687
-30.8743 0.0538252 6.01175 0.710492 -6.16597 0.00298224
-30.169 0.0541802 8.15129 0.754677 -6.51975 0.00291873
-28.8235 0.0548573 8.93253 0.804027 -6.42645 0.00293548
-27.4806 0.0555332 8.93253 0.855417 -5.72321 0.00306173
-26.4087 0.0560726 8.93253 0.904408 -4.91868 0.00320616
-25.4343 0.0565629 8.93253 0.947008 -4.49734 0.0032818
-24.409 0.0570789 8.93253 0.97914 -4.37832 0.00330316
-23.4846 0.0575442 8.93253 0.995141 -4.12514 0.00334862
-22.7923 0.0578926 -0.0274489 0.992278 -3.59381 0.003444
-22.205 0.0581881 -0.494 0.978299 -3.09896 0.00353284
-21.5315 0.0585271 -1.20215 0.957082 -2.83106 0.00358093
-20.8904 0.0588497 -1.94386 0.934859 -2.66238 0.00361121
-20.2734 0.0591603 -2.6368 0.914097 -2.34747 0.00366775
-19.5887 0.0595048 -3.36958 0.892141 -1.80882 0.00376445
-18.8611 0.059871 -4.17343 0.868057 -1.30206 0.00385542
-18.1411 0.0602333 -5.12634 0.839506 -0.99533 0.00391048
-17.4024 0.0606051 -6.27456 0.805103 -0.817599 0.00394239
-16.6339 0.0609919 -7.67145 0.763249 -0.609003 0.00397984
-15.8763 0.0613731 -9.31247 0.714081 -0.362858 0.00402403
-15.136 0.0617457 -11.1352 0.65947 -0.185429 0.00405588
-14.3774 0.0621274 -13.0237 0.602886 -0.14665 0.00406284
-13.5776 0.06253 -14.8232 0.548971 -0.191512 0.00405479
-12.7298 0.0629566 -16.3712 0.502588 -0.21204 0.0040511
-11.8102 0.0634194 -17.5244 0.468037 -0.155583 0.00406124
-10.8093 0.0639231 -18.1573 0.449072 -0.0659102 0.00407733
-9.61473 0.0645243 -10.164 0.451585 -0.0882256 0.00407333
-8.2704 0.0652008 0.0460215 0.457569 0.000206419 0.00410961
-7.32228 0.065678 0.154281 0.464128 0.000566065 0.00414523
-6.34072 0.066172 0.24102 0.469382 -0.0325546 0.00413423
-4.97869 0.0668574 0.319432 0.474132 -0.132326 0.00410083
-3.33621 0.067684 0.403088 0.4792 -0.275831 0.00405279
-1.70863 0.0685031 0.495448 0.484795 -0.35979 0.00402469
-0.627125 0.0690474 0.583429 0.490125 -0.416043 0.00400585
-0.66022 0.0690307 0.655489 0.494491 -0.512629 0.00397352
-0.775328 0.0689728 0.721964 0.498518 -0.638447 0.00393141
-0.689837 0.0690158 0.789173 0.502589 -0.728385 0.0039013
-0.604786 0.0690586 0.860329 0.5069 -0.177518 0.00400019
-0.637209 0.0690423 0.928781 0.511046 0.001732 0.0042036
-0.586728 0.0690677 0.989484 0.514724 0.00466975 0.00449456
-0.170534 0.0692772 1.04412 0.518033 0.00879303 0.00490294
0.00187347 0.0696286 1.09715 0.521246 0.0146101 0.00547907
0.00425789 0.0699667 1.1505 0.524478 0.0236937 0.00637873
0.00579384 0.0701844 1.20231 0.527616 0.0336298 0.00736282
0.00663514 0.0703037 1.25009 0.530511 0.0497084 0.00895527
0.00784312 0.070475 1.29493 0.533227 0.0680403 0.0107709
0.0100243 0.0707842 1.34444 0.536227 0.0937549 0.0133177
0.0129198 0.0711947 1.41802 0.540684 0.118635 0.0157819
0.0154446 0.0715527 1.50654 0.546047 0.14144 0.0180406
0.0180418 0.0719209 1.62619 0.553295 0.160296 0.0199081
0.020947 0.0723328 1.78366 0.562834 0.173844 0.0212499
0.0241704 0.0727898 1.98282 0.574899 0.181458 0.022004
0.027555 0.0732696 2.21471 0.588947 0.184826 0.0223375
0.0308673 0.0737392 2.45861 0.603722 0.186819 0.022535
0.0340245 0.0741868 2.68986 0.617732 0.0888275 0.0225349
0.0371484 0.0746297 2.88207 0.629375 -0.145271 0.0223704
0.0403186 0.0750792 3.00828 0.637021 -0.519328 0.0219878
0.0434467 0.0755227 3.04799 0.639427 -0.938124 0.0215594
0.0463712 0.0759373 2.74575 0.639442 -1.28245 0.0212072
0.0490533 0.0763175 2.6945 0.639426 -1.54503 0.0209387
0.0516704 0.0766886 3.06593 0.640514 -1.87671 0.0205994
0.0542919 0.0770602 3.10404 0.642822 -2.25584 0.0202116
0.0568341 0.0774207 3.14035 0.645022 -2.65909 0.0197992
0.0591596 0.0777504 3.1537 0.645831 -2.95791 0.0194935
0.0612187 0.0780423 3.02823 0.645864 -3.07759 0.0193711
0.0631034 0.0783095 3.15665 0.646009 -3.04729 0.01937
0.0648981 0.0785639 3.16576 0.646561 -2.80811 0.019413
0.0665411 0.0787969 3.17803 0.647305 -2.3898 0.0194881
0.067964 0.0789986 3.18626 0.647803 -1.8502 0.0195849
0.0691567 0.0791677 2.91569 0.64776 -1.05389 0.0197279
0.0701534 0.079309 1.94512 0.647455 0.000128112 0.0199295
0.0709953 0.0794284 1.07871 0.647183 0.00715364 0.0206096
0.0716598 0.0795226 0.0567065 0.646861 0.0284317 0.0226696
0.0720891 0.0795834 -0.0308736 0.646238 0.0514141 0.0248946
0.072312 0.0796151 -0.0754612 0.645363 0.0762288 0.0272969
0.0724013 0.0796277 -0.139876 0.644099 0.107644 0.0303382
0.0619198 0.079623 -0.210001 0.642722 0.143819 0.0338404
0.0383364 0.0796111 -0.276063 0.641426 0.181931 0.0375301
0.0243537 0.0796041 -0.314149 0.640678 0.218681 0.0410878
0.0148511 0.0795993 0.00912946 0.641116 0.251335 0.0442491
0.00152946 0.0795926 0.0679242 0.643453 0.278939 0.0469215
-0.00159655 0.0795872 0.185663 0.648135 0.300997 0.049057
-0.00131431 0.0795866 0.371141 0.655509 0.319907 0.0508876
0.000225115 0.079619 0.624347 0.665577 0.337254 0.0525671
0.00083551 0.0797048 0.938505 0.678068 0.351524 0.0539486
0.00178576 0.0798384 1.29023 0.692052 0.359398 0.0547109
0.00301156 0.0800108 1.64547 0.706176 0.229627 0.0547558
0.00428001 0.0801892 1.96535 0.718895 -0.0331363 0.0546407
0.00570194 0.0803892 2.20418 0.728391 -0.243457 0.054172
0.00732203 0.080617 2.32366 0.733141 -0.49611 0.053609
0.0090447 0.0808593 2.34192 0.733867 -0.778487 0.0529797
0.0107469 0.0810986 1.75273 0.733682 -1.06021 0.0523519
0.0124556 0.0813389 2.34621 0.734038 -1.42645 0.0515357
0.0142571 0.0815923 2.38289 0.735496 -1.85409 0.0505828
0.0161163 0.0818537 2.43112 0.737414 -2.25254 0.0496948
0.0179391 0.0821101 2.45432 0.738336 -2.60267 0.0489146
0.0196161 0.0823459 1.94663 0.7382 -2.87224 0.0483138
0.0211541 0.0825622 1.26111 0.737985 -3.10972 0.0477846
0.0226503 0.0827726 1.33508 0.738008 -3.32066 0.0473145
0.0240956 0.0829759 1.36953 0.738019 -3.45278 0.0470201
0.0254432 0.0831654 0.595132 0.737775 -3.5329 0.0468416
0.0267076 0.0833432 -0.0241814 0.737048 -3.53915 0.0467983
0.0279354 0.0835159 -0.0829931 0.735735 -3.35613 0.0468312
0.029153 0.0836871 -0.157896 0.734062 -3.03457 0.0468889
0.0303781 0.0838594 -0.23136 0.732421 -2.66739 0.0469548
0.0316311 0.0840356 -0.309668 0.730672 -2.25674 0.0470285
0.0329433 0.0842201 -0.405059 0.728542 -1.74263 0.0471208
0.034367 0.0844204 -0.496438 0.726501 -1.13265 0.0472303
0.0358772 0.0846327 -0.556646 0.725156 -0.565418 0.0473321
0.0374199 0.0848497 -0.590413 0.724402 -0.0674879 0.0474215
0.0389783 0.0850688 -0.604238 0.724093 0.00102544 0.047529
0.0405952 0.0852962 -0.251389 0.724107 0.0018902 0.0476093
0.0423147 0.085538 0.0265289 0.724993 -0.00242207 0.0476182
0.0441601 0.0857976 0.0901567 0.726928 -0.020436 0.0475829
0.046112 0.0860721 0.199576 0.730257 -0.0395453 0.0475454
0.0481443 0.0863579 0.367188 0.735355 -0.0779783 0.0474699
0.0502746 0.0866574 0.595589 0.742303 -0.160066 0.0473088
0.052522 0.0869735 0.873978 0.750772 -0.293994 0.0470459
0.0548682 0.0873034 1.18299 0.760172 -0.552935 0.0465376
0.0572724 0.0876416 1.49754 0.76974 -1.07026 0.0455222
0.0597044 0.0879836 1.7872 0.778552 -1.66585 0.0443531
