0.669004 2.30691e-05 0.566271 1.95266e-05 0.00418529 1.4432e-07
0.664455 2.29122e-05 0.567163 1.95573e-05 0.00412254 1.42157e-07
0.653946 2.25499e-05 0.569337 1.96323e-05 0.00399523 1.37766e-07
0.632402 2.1807e-05 0.573432 1.97735e-05 0.00381135 1.31426e-07
0.608044 2.0967e-05 0.577483 1.99132e-05 0.00367992 1.26894e-07
0.576822 1.98904e-05 0.581781 2.00614e-05 0.00362979 1.25165e-07
0.538272 1.85611e-05 0.585951 2.02052e-05 0.00373325 1.28733e-07
0.491902 1.69621e-05 0.589536 2.03288e-05 0.00406678 1.40234e-07
0.437157 1.50744e-05 0.591956 2.04123e-05 0.00469878 1.62027e-07
0.373442 1.28773e-05 0.592548 2.04327e-05 0.00569777 1.96475e-07
0.300247 1.03533e-05 0.590599 2.03655e-05 0.00713859 2.46158e-07
0.217326 7.494e-06 0.585339 2.01841e-05 0.00909502 3.13621e-07
0.125232 4.31835e-06 0.575875 1.98577e-05 0.0116268 4.00926e-07
0.0259526 8.94916e-07 0.561423 1.93594e-05 0.0147489 5.08582e-07
-0.106617 -3.67644e-06 0.540409 1.86348e-05 0.0185207 6.38645e-07
-0.244367 -8.42645e-06 0.511628 1.76423e-05 0.0229348 7.90857e-07
-0.383115 -1.32109e-05 0.473832 1.6339e-05 0.0279582 9.64076e-07
-0.518298 -1.78723e-05 0.425984 1.46891e-05 0.0334913 1.15487e-06
-0.645514 -2.22591e-05 0.367371 1.2668e-05 0.0393589 1.3572e-06
-0.760464 -2.62229e-05 0.2977 1.02655e-05 0.0453305 1.56312e-06
-0.858838 -2.96151e-05 0.217126 7.48709e-06 0.0510073 1.75887e-06
-0.935995 -3.22757e-05 0.126223 4.35251e-06 0.0559859 1.93055e-06
-0.986603 -3.40208e-05 0.0259185 8.93743e-07 0.0598136 2.06254e-06
-1.00425 -3.46292e-05 -0.0914102 -3.15208e-06 0.0619581 2.13648e-06
-0.981473 -3.38439e-05 -0.243574 -8.39912e-06 0.0618208 2.13175e-06
-0.910505 -3.13967e-05 -0.400888 -1.38237e-05 0.0587713 2.0266e-06
-0.785451 -2.70845e-05 -0.559556 -1.9295e-05 0.0522541 1.80187e-06
-0.604739 -2.08531e-05 -0.714957 -2.46537e-05 0.0413414 1.42556e-06
-0.373452 -1.28776e-05 -0.859414 -2.9635e-05 0.0252112 8.69351e-07
-0.10235 -3.5293e-06 -0.98387 -3.39266e-05 0.00315247 1.08706e-07
0.165454 5.70532e-06 -1.07858 -3.71923e-05 -0.0388197 -1.33861e-06
0.417913 1.44108e-05 -1.13414 -3.91083e-05 -0.106066 -3.65743e-06
0.672063 2.31746e-05 -1.1441 -3.94518e-05 -0.186858 -6.44337e-06
0.920228 3.1732e-05 -1.10355 -3.80536e-05 -0.280806 -9.68295e-06
1.15659 3.98823e-05 -1.00985 -3.48225e-05 -0.386834 -1.33391e-05
1.38017 4.75921e-05 -0.862581 -2.97442e-05 -0.503036 -1.73461e-05
1.58791 5.47554e-05 -0.663504 -2.28794e-05 -0.627004 -2.16208e-05
1.78203 6.14494e-05 -0.417498 -1.43965e-05 -0.755575 -2.60543e-05
1.96417 6.773e-05 -0.130157 -4.48817e-06 -0.885253 -3.0526e-05
2.13579 7.36479e-05 0.12762 4.4007e-06 -1.01168 -3.48854e-05
2.29743 7.92217e-05 0.39262 1.35386e-05 -1.13108 -3.90027e-05
2.45002 8.44835e-05 0.670236 2.31116e-05 -1.23902 -4.27247e-05
2.59279 8.94064e-05 0.953622 3.28835e-05 -1.33137 -4.59093e-05
2.72246 9.38779e-05 1.23659 4.26411e-05 -1.40414 -4.84185e-05
2.83495 9.7757e-05 1.51329 5.21825e-05 -1.45362 -5.0125e-05
2.92762 0.000100952 1.77819 6.13169e-05 -1.47645 -5.09122e-05
3.00126 0.000103492 2.02487 6.98232e-05 -1.46927 -5.06645e-05
3.0608 0.000105545 2.24557 7.74336e-05 -1.43035 -4.93225e-05
3.11603 0.000107449 2.43434 8.39429e-05 -1.35762 -4.68144e-05
3.18026 0.000109664 2.5854 8.91517e-05 -1.24997 -4.31023e-05
3.29875 0.00011375 2.71265 9.35396e-05 -1.06632 -3.67697e-05
3.49391 0.00012048 2.76457 9.53302e-05 -0.830256 -2.86295e-05
3.79918 0.000131006 2.74109 9.45205e-05 -0.546596 -1.88481e-05
4.23755 0.000146123 2.65068 9.14027e-05 -0.223245 -7.6981e-06
4.81741 0.000166118 2.51093 8.65838e-05 0.0475282 1.6389e-06
5.53022 0.000190697 2.3474 8.09447e-05 0.245051 8.45004e-06
6.34913 0.000218936 2.19435 7.56674e-05 0.441579 1.52269e-05
7.23185 0.000249374 2.09062 7.20903e-05 0.630815 2.17522e-05
8.13026 0.000280354 2.0743 7.15276e-05 0.804631 2.77459e-05
9.00348 0.000310465 2.17762 7.50905e-05 0.956361 3.2978e-05
9.82582 0.000338821 2.42321 8.35591e-05 1.08096 3.72745e-05
10.5864 0.000365048 2.82229 9.73204e-05 1.1768 4.05795e-05
11.285 0.000389137 3.37478 0.000116372 1.24427 4.29058e-05
11.928 0.000411309 4.07079 0.000140372 1.28569 4.43342e-05
12.5239 0.000431857 4.89219 0.000168696 1.30525 4.50087e-05
13.0775 0.00045095 5.81476 0.000200509 1.3092 4.51447e-05
13.5904 0.000468633 6.80956 0.000234812 1.30512 4.5004e-05
14.0657 0.000485025 7.84345 0.000270464 1.30136 4.48745e-05
14.5141 0.000500485 8.87962 0.000306194 1.30654 4.50532e-05
14.952 0.000515586 9.87972 0.00034068 1.32925 4.58362e-05
15.3967 0.00053092 10.8075 0.000372673 1.3774 4.74964e-05
15.8579 0.000546823 11.6328 0.000401132 1.45742 5.02558e-05
16.3334 0.000563221 12.334 0.000425311 1.5737 5.42655e-05
16.814 0.000579795 12.8979 0.000444756 1.72851 5.96036e-05
17.2901 0.00059621 13.3185 0.00045926 1.92199 6.62754e-05
17.7532 0.00061218 13.5967 0.000468853 2.15214 7.42118e-05
18.197 0.000627482 13.74 0.000473792 2.41485 8.32706e-05
18.6172 0.000641972 13.7616 0.000474537 2.70405 9.32432e-05
19.0122 0.000655593 13.6798 0.000471716 3.01214 0.000103867
19.3823 0.000668355 13.5166 0.00046609 3.33027 0.000114837
19.7282 0.000680282 13.2973 0.000458527 3.64873 0.000125818
20.0508 0.000691408 13.0486 0.000449951 3.95739 0.000136462
20.3533 0.000701837 12.7972 0.000441282 4.24623 0.000146422
20.6426 0.000711813 12.5676 0.000433367 4.50583 0.000155374
20.9295 0.000721707 12.3814 0.000426946 4.72781 0.000163028
21.225 0.000731895 12.2567 0.000422646 4.90508 0.000169141
21.5329 0.000742512 12.2091 0.000421002 5.03208 0.00017352
21.8439 0.000753237 12.2521 0.000422488 5.10495 0.000176033
22.1359 0.000763306 12.3967 0.000427472 5.12178 0.000176613
22.3805 0.000771743 12.6482 0.000436144 5.08289 0.000175272
22.5233 0.000776665 12.9251 0.000445693 5.01339 0.000172876
22.6158 0.000779854 13.3575 0.000460602 4.88261 0.000168366
22.5981 0.000779245 13.8679 0.000478202 4.70962 0.000162401
22.4628 0.00077458 14.4292 0.000497559 4.50334 0.000155288
22.2067 0.00076575 15.0081 0.00051752 4.27414 0.000147384
21.8273 0.000752665 15.5673 0.000536805 4.03326 0.000139078
21.3228 0.000735267 16.068 0.00055407 3.79221 0.000130766
20.6921 0.000713522 16.4713 0.000567976 3.56216 0.000122833
19.9339 0.000687375 16.7406 0.000577263 3.35326 0.00011563
19.0471 0.000656797 16.8435 0.000580811 3.17419 0.000109455
18.0322 0.0006218 16.7529 0.000577688 3.03162 0.000104539
16.89 0.000582415 16.4487 0.000567198 2.92981 0.000101028
15.624 0.000538757 15.9183 0.000548906 2.87041 9.89797e-05
14.2448 0.0004912 15.156 0.00052262 2.85235 9.8357e-05
12.7758 0.000440544 14.1625 0.000488363 2.8719 9.90309e-05
11.2497 0.000387921 12.9457 0.000446403 2.92263 0.00010078
9.69843 0.000334429 11.5228 0.000397338 2.99552 0.000103294
8.14812 0.00028097 9.92142 0.000342118 3.07914 0.000106177
6.62152 0.000228328 8.17773 0.000281991 3.16023 0.000108974
5.13905 0.000177209 6.33432 0.000218425 3.22426 0.000111181
3.71829 0.000128217 4.43856 0.000153054 3.25615 0.000112281
2.3718 8.17863e-05 2.541 8.76206e-05 3.24102 0.000111759
1.10714 3.81774e-05 0.695307 2.39761e-05 3.16475 0.000109129
-0.199239 -6.87032e-06 -1.26276 -4.35434e-05 3.01652 0.000104018
-1.61796 -5.57916e-05 -3.35541 -0.000115704 2.78519 9.60411e-05
-2.98178 -0.00010282 -5.20223 -0.000179387 2.46482 8.49936e-05
-4.30272 -0.00014837 -6.76409 -0.000233244 2.05254 7.07772e-05
-5.56367 -0.000191851 -8.03791 -0.000277169 1.54932 5.34249e-05
-6.74532 -0.000232597 -9.02552 -0.000311225 0.960419 3.31179e-05
-7.83658 -0.000270227 -9.73768 -0.000335782 0.296467 1.0223e-05
-8.84145 -0.000304877 -10.195 -0.000351553 -0.808861 -2.78918e-05
-9.7811 -0.000337279 -10.4351 -0.000359831 -2.25651 -7.78106e-05
-10.6862 -0.00036849 -10.4936 -0.000361849 -3.75924 -0.000129629
-11.585 -0.000399481 -10.4162 -0.000359178 -5.27736 -0.000181978
-12.5062 -0.00043125 -10.2571 -0.000353693 -6.77373 -0.000233577
-13.482 -0.000464895 -10.072 -0.00034731 -8.21358 -0.000283227
-14.5446 -0.000501537 -9.91539 -0.00034191 -9.55595 -0.000329515
-15.7241 -0.00054221 -9.8405 -0.000339328 -10.7649 -0.000371205
-17.042 -0.000587656 -9.89922 -0.000341352 -11.8089 -0.000407202
-18.5034 -0.000638048 -10.1399 -0.000349651 -12.6628 -0.000436648
-20.0909 -0.00069279 -10.6056 -0.000365709 -13.3059 -0.000458824
-21.7664 -0.000750564 -11.3327 -0.000390783 -13.7239 -0.000473238
-23.4809 -0.000809687 -12.3456 -0.000425711 -13.9113 -0.000479699
-25.1873 -0.000868529 -13.6508 -0.000470717 -13.8726 -0.000478365
-26.8459 -0.000925722 -15.2346 -0.00052533 -13.621 -0.000469688
-28.4288 -0.000980305 -17.063 -0.000588378 -13.1781 -0.000454418
-29.9198 -0.00103172 -19.0833 -0.000658044 -12.5736 -0.000433574
-31.3126 -0.00107974 -21.2268 -0.000731959 -11.844 -0.000408415
-32.6096 -0.00112447 -23.413 -0.000807344 -11.0306 -0.000380366
-33.818 -0.00116614 -25.5551 -0.000881209 -10.177 -0.000350933
-34.9433 -0.00120494 -27.5665 -0.000950567 -9.32705 -0.000321622
-35.9864 -0.00124091 -29.3662 -0.00101263 -8.52261 -0.000293883
-36.945 -0.00127397 -30.883 -0.00106493 -7.80188 -0.00026903
-37.8159 -0.001304 -32.0583 -0.00110546 -7.19727 -0.000248182
-38.5963 -0.00133091 -32.8355 -0.00113226 -6.73598 -0.000232275
-39.1709 -0.00135072 -33.0679 -0.00114027 -6.45264 -0.000222505
-39.5186 -0.00136271 -32.9399 -0.00113586 -6.32073 -0.000217956
-39.9901 -0.00137897 -32.4856 -0.00112019 -6.3423 -0.0002187
-40.3208 -0.00139037 -31.6923 -0.00109284 -6.5172 -0.000224731
-40.2318 -0.0013873 -30.6312 -0.00105625 -6.82493 -0.000235342
-39.3481 -0.00135683 -29.5629 -0.00101941 -7.21068 -0.000248644
-38.4418 -0.00132558 -28.2314 -0.000973495 -7.70222 -0.000265594
-37.3473 -0.00128784 -26.7364 -0.000921946 -8.25268 -0.000284575
-36.2099 -0.00124862 -25.1261 -0.000866417 -8.84294 -0.000304929
-35.0547 -0.00120878 -23.4772 -0.000809558 -9.43414 -0.000325315
-33.8871 -0.00116852 -21.8326 -0.000752848 -9.99443 -0.000344635
-32.7849 -0.00113051 -20.2426 -0.00069802 -10.4961 -0.000361933
-31.7848 -0.00109603 -18.768 -0.000647174 -10.9116 -0.000376264
-30.9094 -0.00106584 -17.4614 -0.000602119 -11.2139 -0.000386688
-30.2014 -0.00104143 -16.3606 -0.000564157 -11.3801 -0.000392416
-29.6864 -0.00102367 -15.497 -0.000534381 -11.396 -0.000392965
-29.3769 -0.001013 -14.8989 -0.000513754 -11.2542 -0.000388077
-29.2865 -0.00100988 -14.5828 -0.000502855 -10.9509 -0.000377618
-29.417 -0.00101438 -14.5519 -0.000501791 -10.4883 -0.000361666
-29.7603 -0.00102622 -14.8005 -0.000510362 -9.87713 -0.000340591
-30.2775 -0.00104405 -15.3193 -0.00052825 -9.13501 -0.000315
-30.7502 -0.00106035 -16.1301 -0.000556211 -8.27965 -0.000285505
-31.1554 -0.00107433 -17.1925 -0.000592843 -7.34022 -0.000253111
-31.4684 -0.00108512 -18.4509 -0.000636238 -6.35075 -0.000218991
-31.6807 -0.00109244 -19.8319 -0.000683857 -5.35073 -0.000184508
-31.7782 -0.0010958 -20.9736 -0.000723228 -4.57071 -0.000157611
-31.8135 -0.00109702 -22.1035 -0.00076219 -3.83105 -0.000132105
-31.7878 -0.00109613 -23.1794 -0.00079929 -3.15159 -0.000108675
-31.7026 -0.00109319 -24.1607 -0.000833126 -2.55118 -8.79717e-05
-31.5587 -0.00108823 -25.0107 -0.000862439 -2.04704 -7.05877e-05
-31.3562 -0.00108125 -25.6981 -0.000886143 -1.65386 -5.70296e-05
-31.0932 -0.00107218 -26.1971 -0.00090335 -1.383 -4.76896e-05
-30.7644 -0.00106084 -26.4887 -0.000913402 -1.24224 -4.28359e-05
-30.3597 -0.00104689 -26.5615 -0.000915913 -1.23581 -4.26141e-05
-29.8648 -0.00102982 -26.4127 -0.000910783 -1.36438 -4.70477e-05
-29.2624 -0.00100905 -26.0472 -0.000898181 -1.62497 -5.60333e-05
-28.5361 -0.000984003 -25.4759 -0.000878478 -2.01092 -6.93421e-05
-27.6752 -0.000954318 -24.7136 -0.000852195 -2.51234 -8.66323e-05
-26.6777 -0.00091992 -23.7785 -0.000819949 -3.11654 -0.000107467
-25.5512 -0.000881075 -22.6905 -0.00078243 -3.80857 -0.00013133
-24.3117 -0.000838336 -21.4712 -0.000740388 -4.57144 -0.000157636
-22.9792 -0.000792386 -20.1445 -0.000694639 -5.38638 -0.000185737
-21.5724 -0.000743877 -18.7366 -0.000646091 -6.23312 -0.000214935
-20.1077 -0.00069337 -17.2761 -0.000595727 -7.09041 -0.000244497
-18.5991 -0.000641348 -15.7927 -0.000544577 -7.93665 -0.000273678
-17.0602 -0.000588281 -14.3161 -0.00049366 -8.75043 -0.000301739
-15.5049 -0.000534653 -12.8744 -0.000443945 -9.51103 -0.000327967
-13.9472 -0.000480937 -11.4935 -0.000396327 -10.1989 -0.000351688
-12.399 -0.000427553 -10.1968 -0.000351613 -10.7963 -0.000372286
-10.8708 -0.000374856 -9.00457 -0.000310502 -11.2873 -0.000389216
-9.37119 -0.000323145 -7.93323 -0.00027356 -11.6585 -0.000402018
-7.90792 -0.000272687 -6.99448 -0.000241189 -11.8994 -0.000410326
-6.48816 -0.00022373 -6.19498 -0.00021362 -12.0024 -0.000413877
-5.11832 -0.000176494 -5.53626 -0.000190905 -11.963 -0.000412518
-3.80404 -0.000131174 -5.01472 -0.000172921 -11.7798 -0.000406202
-2.55005 -8.79329e-05 -4.62189 -0.000159376 -11.4547 -0.000394991
-1.35993 -4.68944e-05 -4.34475 -0.000149819 -10.9924 -0.00037905
-0.244054 -8.41584e-06 -4.1662 -0.000143662 -10.4006 -0.000358641
0.603928 2.08249e-05 -4.06552 -0.000140191 -9.68928 -0.000334113
1.23918 4.27302e-05 -3.99361 -0.000137711 -8.87154 -0.000305915
1.52694 5.2653e-05 -3.83734 -0.000132322 -7.9758 -0.000275028
1.84819 6.37305e-05 -3.74263 -0.000129056 -6.98926 -0.000241009
2.13789 7.37201e-05 -3.63421 -0.000125318 -5.94038 -0.000204841
2.38486 8.22363e-05 -3.53285 -0.000121822 -4.83856 -0.000166847
2.61771 9.02658e-05 -3.39873 -0.000117198 -3.70134 -0.000127632
2.8615 9.86722e-05 -3.21483 -0.000110856 -2.54503 -8.77598e-05
3.12137 0.000107633 -2.97294 -0.000102515 -1.38583 -4.77871e-05
3.4083 0.000117527 -2.66551 -9.19142e-05 -0.239417 -8.25575e-06
3.74219 0.000129041 -2.2791 -7.85896e-05 0.421851 1.45466e-05
4.13573 0.000142611 -1.80335 -6.21845e-05 0.999088 3.44513e-05
4.59334 0.000158391 -1.22491 -4.22381e-05 1.54671 5.33347e-05
5.12133 0.000176597 -0.530519 -1.82938e-05 2.06086 7.10642e-05
5.72302 0.000197345 0.118349 4.08101e-06 2.53651 8.74657e-05
6.3983 0.000220631 0.802743 2.76808e-05 2.96885 0.000102374
7.14486 0.000246374 1.57298 5.42408e-05 3.35336 0.000115633
7.96125 0.000274526 2.43052 8.38112e-05 3.68814 0.000127177
8.84487 0.000304995 3.37134 0.000116253 3.9728 0.000136993
9.79199 0.000337655 4.38605 0.000151243 4.20782 0.000145097
10.7979 0.000372341 5.46457 0.000188433 4.39438 0.00015153
11.8557 0.000408818 6.59775 0.000227509 4.53447 0.000156361
12.9557 0.000446749 7.77554 0.000268122 4.63103 0.000159691
14.0856 0.00048571 8.98535 0.000309839 4.68789 0.000161651
15.2314 0.000525219 10.2128 0.000352166 4.70972 0.000162404
16.378 0.000564758 11.4435 0.000394602 4.70182 0.000162132
17.5097 0.000603783 12.6632 0.000436661 4.66977 0.000161027
18.6105 0.00064174 13.8573 0.00047784 4.61927 0.000159285
19.6645 0.000678087 15.0107 0.000517611 4.55611 0.000157107
20.6572 0.000712316 16.1077 0.000555439 4.48628 0.000154699
21.5752 0.000743971 17.1334 0.000590805 4.41573 0.000152267
22.4071 0.000772659 18.0735 0.000623225 4.35008 0.000150003
23.1439 0.000798066 18.9148 0.000652236 4.29433 0.00014808
23.7791 0.000819969 19.6448 0.000677406 4.25286 0.00014665
24.3092 0.000838249 20.2521 0.000698348 4.22941 0.000145842
24.7336 0.000852882 20.7275 0.000714742 4.22702 0.000145759
25.0541 0.000863935 21.064 0.000726344 4.24781 0.000146476
25.2745 0.000871535 21.2569 0.000732995 4.29281 0.000148028
25.3999 0.000875858 21.3044 0.000734636 4.36197 0.000150413
25.4369 0.000877134 21.2079 0.000731306 4.45418 0.000153592
25.3947 0.000875679 20.9704 0.000723117 4.56745 0.000157498
25.2821 0.000871798 20.5989 0.000710307 4.69871 0.000162025
25.1122 0.000865938 20.1034 0.00069322 4.84391 0.000167031
24.8985 0.00085857 19.4965 0.000672293 4.99815 0.00017235
24.6532 0.000850111 18.7936 0.000648055 5.15583 0.000177787
24.3877 0.000840956 18.0125 0.00062112 5.31083 0.000183132
24.113 0.000831483 17.1732 0.000592178 5.45662 0.000188159
23.8389 0.000822032 16.2969 0.000561963 5.58647 0.000192637
23.5746 0.000812918 15.4057 0.000531231 5.69374 0.000196336
23.3293 0.00080446 14.5214 0.000500739 5.77204 0.000199036
23.1124 0.00079698 13.6653 0.000471219 5.81547 0.000200533
22.9325 0.000790774 12.8576 0.000443366 5.81877 0.000200647
22.7969 0.0007861 12.1167 0.000417818 5.77758 0.000199227
22.7119 0.00078317 11.4592 0.000395143 5.68849 0.000196155
22.6825 0.000782156 10.8989 0.000375823 5.54926 0.000191354
22.7126 0.000783193 10.4469 0.000360239 5.3589 0.00018479
22.8057 0.000786403 10.1111 0.000348657 5.11774 0.000176474
22.965 0.000791898 9.89546 0.000341223 4.82745 0.000166464
23.1819 0.000799375 9.80211 0.000338004 4.49105 0.000154864
23.3904 0.000806566 9.84501 0.000339483 4.11216 0.000141799
23.6945 0.00081705 9.99372 0.000344611 3.69669 0.000127472
24.076 0.000830207 10.2456 0.000353297 3.25201 0.000112138
24.5127 0.000845265 10.5923 0.000365251 2.78492 9.60316e-05
25.0043 0.000862217 11.0165 0.000379879 2.3053 7.94932e-05
25.5366 0.000880572 11.5126 0.000396987 1.82104 6.27946e-05
26.0869 0.000899546 12.0628 0.000415959 1.34086 4.62365e-05
26.6027 0.000917335 12.6556 0.000436402 0.873737 3.01289e-05
27.0657 0.000933299 13.2788 0.000457889 0.428824 1.4787e-05
27.4705 0.00094726 13.9183 0.000479942 0.0160175 5.52328e-07
27.7923 0.000958354 14.5567 0.000501955 -0.59803 -2.06217e-05
28.0029 0.000965619 15.1776 0.000523366 -1.1965 -4.12585e-05
28.0881 0.000968556 15.7623 0.000543527 -1.69173 -5.83355e-05
28.0372 0.000966801 16.2955 0.000561915 -2.06886 -7.134e-05
27.8407 0.000960023 16.7586 0.000577883 -2.31545 -7.98432e-05
27.4941 0.000948072 17.133 0.000590795 -2.42259 -8.35376e-05
27.0044 0.000931185 17.4023 0.000600078 -2.38531 -8.22521e-05
26.3818 0.000909718 17.5522 0.000605248 -2.20106 -7.58987e-05
25.635 0.000883966 17.5716 0.000605918 -1.86929 -6.44581e-05
24.7747 0.000854301 17.4526 0.000601814 -1.3922 -4.80069e-05
23.8158 0.000821235 17.1907 0.000592783 -0.775717 -2.67489e-05
22.7746 0.000785331 16.7864 0.00057884 -0.146238 -5.0427e-06
21.6694 0.000747221 16.2407 0.000560024 0.316666 1.09195e-05
20.5204 0.0007076 15.5622 0.000536626 0.832492 2.87066e-05
19.3487 0.000667197 14.7621 0.000509037 1.39249 4.80169e-05
18.1725 0.000626637 13.8559 0.000477791 1.98611 6.84867e-05
17.0058 0.000586408 12.8632 0.00044356 2.60046 8.96711e-05
15.8604 0.000546909 11.8073 0.00040715 3.22145 0.000111085
14.7456 0.00050847 10.7143 0.000369459 3.83515 0.000132247
13.6687 0.000471333 9.61156 0.000331433 4.42818 0.000152696
12.6339 0.000435653 8.52686 0.00029403 4.98745 0.000171981
11.6444 0.000401532 7.48754 0.000258191 5.49995 0.000189653
10.7027 0.000369057 6.5194 0.000224807 5.95326 0.000205285
9.8113 0.00033832 5.64552 0.000194673 6.33633 0.000218494
8.97321 0.000309421 4.88521 0.000168456 6.64005 0.000228967
8.19031 0.000282424 4.25363 0.000146677 6.85725 0.000236457
7.46259 0.000257331 3.76165 0.000129712 6.98266 0.000240781
6.78821 0.000234076 3.41558 0.000117779 7.01282 0.000241821
6.16399 0.000212551 3.21667 0.00011092 6.94642 0.000239532
5.58579 0.000192613 3.16084 0.000108995 6.78446 0.000233947
5.04858 0.000174089 3.23882 0.000111683 6.53026 0.000225181
4.54641 0.000156773 3.43649 0.0001185 6.18921 0.000213421
4.0723 0.000140424 3.73545 0.000128809 5.76851 0.000198914
3.61779 0.000124751 4.11364 0.00014185 5.27692 0.000181963
3.17266 0.000109402 4.54604 0.00015676 4.72463 0.000162918
2.72487 9.3961e-05 5.0055 0.000172603 4.12301 0.000142173
2.26083 7.79595e-05 5.46355 0.000188398 3.48429 0.000120148
2.14554 7.39838e-05 5.82482 0.000200856 2.82443 9.73943e-05
2.02588 6.98579e-05 6.09478 0.000210165 2.15616 7.43504e-05
1.85282 6.389e-05 6.30208 0.000217313 1.48409 5.11754e-05
1.62371 5.59899e-05 6.40792 0.000220963 0.824164 2.84194e-05
1.33245 4.59463e-05 6.40997 0.000221033 0.182812 6.30386e-06
0.955574 3.29507e-05 6.27381 0.000216338 -0.688971 -2.37576e-05
0.489977 1.68956e-05 5.98813 0.000206487 -1.7563 -6.0562e-05
-0.054582 -1.88231e-06 5.54502 0.000191208 -2.74176 -9.45435e-05
-0.715141 -2.46602e-05 4.94791 0.000170618 -3.63151 -0.000125225
-1.58395 -5.46193e-05 4.18856 0.000144433 -4.41711 -0.000152314
-2.55647 -8.81544e-05 3.26272 0.000112507 -5.09459 -0.000175676
-3.6201 -0.000124831 2.18287 7.52713e-05 -5.66213 -0.000195246
-4.76225 -0.000164216 0.95946 3.30848e-05 -6.12346 -0.000211154
-5.97406 -0.000206002 -0.61167 -2.10921e-05 -6.47977 -0.00022344
-7.24526 -0.000249837 -2.5454 -8.77724e-05 -6.73917 -0.000232385
-8.55971 -0.000295163 -4.59929 -0.000158596 -6.91307 -0.000238382
-9.89688 -0.000341272 -6.74587 -0.000232616 -7.01423 -0.00024187
-11.2327 -0.000387336 -8.94943 -0.000308601 -7.05617 -0.000243316
-12.5267 -0.000431956 -11.1767 -0.000385405 -7.05236 -0.000243185
-13.7745 -0.000474982 -13.386 -0.000461585 -7.01889 -0.000242031
-14.9697 -0.000516198 -15.5372 -0.000535767 -6.97256 -0.000240433
-16.1124 -0.0005556 -17.5881 -0.000606488 -6.92979 -0.000238958
-17.207 -0.000593344 -19.4961 -0.00067228 -6.90607 -0.00023814
-18.2595 -0.000629638 -21.2226 -0.000731815 -6.91514 -0.000238453
-19.2751 -0.00066466 -22.7355 -0.000783982 -6.96888 -0.000240306
-20.2572 -0.000698525 -24.0094 -0.000827909 -7.07672 -0.000244025
-21.1686 -0.000729952 -25.0344 -0.000863254 -7.24465 -0.000249816
-21.863 -0.000753897 -25.8294 -0.00089067 -7.47327 -0.000257699
-22.4762 -0.000775041 -26.3722 -0.000909387 -7.76461 -0.000267745
-22.98 -0.000792415 -26.6471 -0.000918864 -8.12125 -0.000280043
-23.3906 -0.000806571 -26.6716 -0.000919709 -8.53292 -0.000294238
-23.7056 -0.000817436 -26.4525 -0.000912155 -8.99616 -0.000310213
-23.924 -0.000824965 -26.0146 -0.000897055 -9.49969 -0.000327576
-24.055 -0.000829482 -25.3806 -0.000875194 -10.0318 -0.000345926
-24.1122 -0.000831454 -24.5763 -0.000847458 -10.5781 -0.000364761
-24.107 -0.000831278 -23.6302 -0.000814833 -11.1232 -0.000383557
-24.0534 -0.000829429 -22.5756 -0.000778469 -11.6514 -0.000401771
-23.9683 -0.000826492 -21.4485 -0.000739603 -12.1462 -0.000418836
-23.8873 -0.0008237 -20.2502 -0.000698284 -53.7432 -0.00185322
-24.0198 -0.00082827 -18.0272 -0.000621628 -51.0378 -0.00175993
-23.8941 -0.000823934 -17.3182 -0.000597179 -42.5407 -0.00146693
-23.7663 -0.000819527 -16.0604 -0.000553807 -41.7591 -0.00143997
-23.7366 -0.000818504 -15.1667 -0.000522989 -43.5842 -0.00150291
-23.7427 -0.000818716 -14.2568 -0.000491612 -45.65 -0.00157414
-23.8241 -0.00082152 -13.3615 -0.000460742 -45.7645 -0.00157809
-23.8916 -0.000823849 -12.8495 -0.000443085 -44.0887 -0.0015203
-24.0585 -0.000829602 -12.5549 -0.000432928 -42.2328 -0.00145631
-24.2927 -0.00083768 -12.4163 -0.000428147 -40.7541 -0.00140532
-24.5972 -0.000848179 -12.3307 -0.000425198 -39.3164 -0.00135574
-24.9595 -0.000860671 -12.4091 -0.0004279 -36.9858 -0.00127538
-25.3714 -0.000874875 -12.755 -0.000439829 -33.4691 -0.00115411
-25.7821 -0.000889039 -13.3501 -0.00046035 -29.2769 -0.00100955
-26.1851 -0.000902933 -14.0818 -0.000485578 -25.0777 -0.000864754
-26.6032 -0.000917353 -14.8718 -0.00051282 -21.0761 -0.000726767
-27.0289 -0.000932033 -15.7392 -0.000542732 -16.4228 -0.000566309
-27.4407 -0.000946231 -16.7301 -0.000576901 -10.826 -0.000373313
-27.8366 -0.000959882 -17.8116 -0.000614192 -5.51671 -0.000190235
-28.2261 -0.000973314 -18.8997 -0.000651712 -1.10714 -3.81813e-05
-28.6075 -0.000986465 -19.9363 -0.000687459 2.5467 8.78131e-05
-28.9723 -0.000999044 -20.8893 -0.000720321 5.07479 0.000174989
-29.3094 -0.00101067 -21.7658 -0.000750544 6.90384 0.00023806
-29.6074 -0.00102094 -22.5359 -0.000777102 8.7683 0.000302351
-29.8518 -0.00102937 -23.1677 -0.000798886 10.5701 0.000364483
-30.026 -0.00103538 -23.6375 -0.000815085 11.9666 0.000412636
-30.1188 -0.00103858 -23.9364 -0.000825393 12.7186 0.000438569
-30.1206 -0.00103864 -24.0675 -0.000829913 12.8752 0.000443968
-30.0256 -0.00103537 -24.0264 -0.000828496 12.6324 0.000435596
-29.8279 -0.00102855 -23.8152 -0.000821214 11.8662 0.000409177
-29.5266 -0.00101816 -23.4482 -0.000808557 10.5476 0.000363705
-29.1319 -0.00100455 -22.9259 -0.000790547 8.57272 0.000295607
-28.6565 -0.000988154 -22.2626 -0.000767676 5.9821 0.000206275
-28.1156 -0.000969505 -21.4719 -0.00074041 2.85244 9.83561e-05
-27.5258 -0.000949166 -20.571 -0.000709345 -1.07172 -3.69598e-05
-26.9038 -0.000927719 -19.5773 -0.000675079 -4.91857 -0.00016961
-26.2589 -0.000905478 -18.5279 -0.000638892 -8.46087 -0.000291758
-25.5974 -0.000882668 -17.4555 -0.000601913 -12.1593 -0.000419289
-24.9312 -0.000859696 -16.3836 -0.000564951 -16.0056 -0.000551921
-24.2727 -0.000836991 -15.3426 -0.000529055 -19.8688 -0.000685137
-23.6354 -0.000815016 -14.359 -0.000495137 -23.5955 -0.000813642
-23.0324 -0.000794222 -13.4615 -0.000464188 -27.0664 -0.000933327
-22.4781 -0.000775106 -12.6742 -0.000437041 -30.2375 -0.00104268
-21.9867 -0.000758162 -12.0153 -0.000414322 -33.0969 -0.00114128
-21.5706 -0.000743814 -11.4991 -0.000396519 -35.6086 -0.00122789
-21.2386 -0.000732366 -11.1381 -0.000384073 -37.7012 -0.00130004
-20.9944 -0.000723945 -10.9441 -0.000377384 -39.3011 -0.00135522
-20.8355 -0.000718464 -10.9249 -0.000376721 -40.3725 -0.00139216
-20.7531 -0.000715624 -11.0826 -0.000382158 -40.9231 -0.00141115
-20.7342 -0.000714974 -11.4141 -0.000393588 -40.9676 -0.00141268
-20.7629 -0.000715961 -11.9103 -0.000410701 -40.4892 -0.00139618
-20.8197 -0.000717922 -12.5587 -0.000433057 -39.503 -0.00136218
-20.8811 -0.00072004 -13.3476 -0.000460262 -38.0228 -0.00131114
-20.9242 -0.000721524 -14.2561 -0.000491588 -36.1135 -0.0012453
-20.9274 -0.000721636 -15.2585 -0.000526154 -33.8582 -0.00116753
-20.8718 -0.000719717 -16.3233 -0.000562872 -31.3443 -0.00108084
-20.7402 -0.000715178 -17.4167 -0.000600576 -28.6484 -0.000987881
-20.5193 -0.000707563 -18.5033 -0.000638045 -25.8464 -0.000891258
-20.2003 -0.000696564 -19.5453 -0.000673977 -23.0239 -0.000793931
-19.778 -0.000682 -20.5029 -0.000706998 -20.2764 -0.000699191
-19.2498 -0.000663786 -21.3363 -0.000735736 -17.6973 -0.000610254
-18.6143 -0.000641871 -22.01 -0.000758966 -15.1406 -0.000522095
-17.8699 -0.000616203 -22.4923 -0.000775595 -12.7838 -0.000440824
-17.0159 -0.000586755 -22.7555 -0.000784674 -10.7798 -0.000371722
-16.052 -0.000553519 -22.7766 -0.000785399 -9.16892 -0.000316174
-14.9795 -0.000516534 -22.5373 -0.00077715 -8.11384 -0.000279791
-13.8025 -0.00047595 -22.0259 -0.000759514 -7.60812 -0.000262353
-12.5255 -0.000431915 -21.2425 -0.0007325 -7.63686 -0.000263344
-11.1564 -0.000384702 -20.1905 -0.000696225 -8.077 -0.000278521
-9.70374 -0.000334612 -18.882 -0.000651103 -8.90977 -0.000307237
-8.19484 -0.000282581 -17.3278 -0.000597511 -10.1381 -0.000349595
-6.76855 -0.000233398 -15.5212 -0.000535215 -11.6421 -0.000401457
-5.26427 -0.000181527 -13.5382 -0.000466833 -13.3092 -0.00045894
-3.69673 -0.000127474 -11.4054 -0.000393288 -15.0135 -0.000517713
-2.09653 -7.22944e-05 -9.1682 -0.000316145 -16.7123 -0.00057629
-0.500801 -1.72692e-05 -6.86241 -0.000236635 -18.2476 -0.000629232
0.835555 2.88121e-05 -4.51952 -0.000155846 -19.5387 -0.000673752
2.07339 7.14962e-05 -2.19104 -7.55531e-05 -20.4527 -0.000705268
3.24106 0.00011176 0.0877366 3.0254e-06 -20.9054 -0.00072088
4.36151 0.000150397 1.74394 6.01358e-05 -20.8001 -0.00071725
5.41649 0.000186775 3.32313 0.000114591 -20.0739 -0.000692206
6.37399 0.000219793 4.78791 0.0001651 -18.6867 -0.000644374
7.2319 0.000249376 6.11067 0.000210713 -16.582 -0.000571796
7.99627 0.000275733 7.26976 0.000250681 -13.7315 -0.000473504
8.66111 0.000298659 8.25237 0.000284564 -9.70474 -0.00033465
9.22581 0.000318131 9.02979 0.000311372 -4.56097 -0.000157279
9.69352 0.000334259 9.61695 0.000331619 -0.0240171 -8.32168e-07
10.0729 0.000347341 10.0006 0.000344849 4.17495 0.00014396
10.3702 0.000357592 10.1971 0.000351622 8.1349 0.00028051
10.5948 0.000365337 10.2175 0.000352329 12.5443 0.00043256
10.7619 0.0003711 10.0743 0.000347391 17.3899 0.000599648
10.8877 0.000375437 9.79073 0.000337611 15.3713 0.000530041
10.9817 0.000378679 9.4164 0.000324703 11.1248 0.000383609
11.0747 0.000381887 8.92808 0.000307865 6.98902 0.000240997
11.182 0.000385585 8.38317 0.000289075 2.91523 0.000100521
11.3199 0.000390341 7.79763 0.000268884 -1.3397 -4.62005e-05
11.4953 0.00039639 7.23914 0.000249625 0.689147 2.37597e-05
11.7094 0.000403771 6.76077 0.00023313 4.78427 0.000164971
12.0093 0.000414115 6.29747 0.000217154 9.01693 0.000310924
12.3803 0.000426905 5.9397 0.000204817 12.6828 0.000437333
12.8361 0.000442623 5.69149 0.000196258 15.5457 0.000536055
13.3736 0.00046116 5.60539 0.000193289 17.7457 0.000611918
14.001 0.000482795 5.68707 0.000196106 19.5714 0.00067487
14.7211 0.000507625 5.92101 0.000204173 20.0648 0.000691885
15.5371 0.000535761 6.29395 0.000217033 20.2924 0.000699733
16.4196 0.000566192 6.92191 0.000238687 20.3107 0.000700366
17.3812 0.000599352 7.73274 0.000266646 20.1748 0.000695678
18.4285 0.000635465 8.70908 0.000300313 19.9729 0.000688718
19.5537 0.000674264 9.83604 0.000339174 19.7432 0.000680797
20.7489 0.00071548 11.0901 0.000382416 19.4618 0.000671092
22.0029 0.000758722 12.4593 0.000429632 19.0917 0.000658329
23.3062 0.000803663 13.9148 0.00047982 18.6412 0.000642796
24.6436 0.000849779 15.4226 0.000531812 18.1632 0.000626314
25.9981 0.000896487 16.9469 0.000584377 17.7152 0.000610865
27.3513 0.000943147 18.4571 0.000636453 17.3296 0.000597568
28.6823 0.000989046 19.9257 0.000687094 17.0249 0.000587063
18.6293 0.00064239 20.3332 0.000701144 16.8813 0.000582109
28.16 0.000971034 18.3146 0.000631538 17.2809 0.000595889
31.1324 0.00107353 18.4681 0.00063683 16.8306 0.000580361
27.0202 0.00093173 19.7954 0.000682602 18.261 0.000629684
27.0763 0.000933664 21.1978 0.000730958 19.8781 0.000685447
30.6782 0.00105787 22.1907 0.000765198 20.9059 0.000720887
32.0547 0.00110533 22.6924 0.000782498 18.7358 0.000646058
31.256 0.00107779 23.0443 0.000794631 15.1167 0.00052126
31.5274 0.00108715 23.6244 0.000814634 12.2106 0.000421051
32.4893 0.00112032 24.0016 0.000827643 10.1545 0.000350152
32.6504 0.00112587 23.953 0.000825964 8.77945 0.000302736
32.182 0.00110972 23.7246 0.000818089 7.68017 0.00026483
32.2441 0.00111186 23.4354 0.000808118 7.66499 0.000264306
32.6884 0.00112719 23.2535 0.000801843 8.1176 0.000279913
32.8445 0.00113257 22.9138 0.000790133 9.01373 0.000310814
32.5767 0.00112333 22.4339 0.000773581 10.2394 0.000353077
32.3474 0.00111543 21.8956 0.000755021 11.7603 0.000405524
32.1879 0.00110993 21.3063 0.0007347 13.7436 0.000473913
31.8958 0.00109985 20.7367 0.000715057 15.9536 0.00055012
31.5051 0.00108638 20.1112 0.000693489 18.3844 0.00063394
31.1398 0.00107379 19.4539 0.000670823 20.8756 0.000719844
30.8052 0.00106225 18.8157 0.000648818 23.2705 0.000802426
30.4442 0.0010498 18.2375 0.00062888 25.6104 0.000883114
30.0751 0.00103707 17.7188 0.000610995 27.907 0.000962308
29.761 0.00102624 17.2559 0.00059503 30.1003 0.00103794
29.5036 0.00101737 16.8629 0.000581478 32.1423 0.00110835
29.2862 0.00100987 16.5678 0.000571304 34.0158 0.00117295
29.1278 0.00100441 16.3893 0.000565147 35.7106 0.00123139
29.0348 0.0010012 16.3242 0.000562905 37.2021 0.00128283
29.0237 0.00100082 16.3598 0.00056413 38.4591 0.00132617
29.0945 0.00100326 16.5073 0.000569217 39.4511 0.00136038
29.2341 0.00100807 16.7584 0.000577875 39.0461 0.00134641
29.429 0.00101479 17.0687 0.000588575 39.2148 0.00135223
29.6722 0.00102318 17.751 0.000612102 40.0137 0.00137978
29.9742 0.00103359 18.3004 0.000631049 40.2887 0.00138926
30.3016 0.00104488 18.8601 0.000650348 39.7006 0.00136898
30.6315 0.00105626 19.6269 0.000676788 38.9741 0.00134393
30.9866 0.0010685 20.5716 0.000709365 38.8307 0.00133898
31.3671 0.00108163 21.5152 0.000741904 39.2028 0.00135182
31.2151 0.00107638 18.6581 0.000643384 38.3835 0.00132356
33.3991 0.00115169 20.3854 0.000702945 39.7412 0.00137038
33.1299 0.00114241 21.4763 0.000740562 36.9911 0.00127555
33.0066 0.00113816 21.245 0.000732585 34.5755 0.00119225
33.9726 0.00117147 21.1757 0.000730198 33.7607 0.00116416
34.6921 0.00119628 22.3829 0.000771826 33.213 0.00114527
34.8787 0.00120271 24.0445 0.000829122 32.8399 0.00113241
34.6985 0.0011965 25.0524 0.000863877 31.9199 0.00110068
34.748 0.00119821 25.2662 0.00087125 31.1653 0.00107466
34.7675 0.00119888 25.6131 0.000883211 31.1382 0.00107373
34.6327 0.00119423 25.9691 0.000895486 32.5163 0.00112125
34.5252 0.00119052 26.613 0.000917689 33.8971 0.00116886
34.5377 0.00119096 27.0211 0.000931762 35.1226 0.00121112
34.5271 0.00119059 27.1622 0.000936628 36.5606 0.00126071
34.4509 0.00118796 27.445 0.00094638 38.3386 0.00132202
34.3806 0.00118554 27.9016 0.000962122 40.7427 0.00140492
34.3136 0.00118323 28.3994 0.000979289 43.5022 0.00150007
34.1711 0.00117832 28.7993 0.000993078 46.3634 0.00159873
33.9424 0.00117043 29.0133 0.00100046 49.3226 0.00170077
33.5827 0.00115802 28.9285 0.000997534 52.388 0.00180648
33.1351 0.00114259 28.8648 0.000995336 54.7967 0.00188954
32.7085 0.00112788 28.837 0.00099438 57.4123 0.00197973
32.1966 0.00111023 28.8109 0.000993481 60.4461 0.00208434
31.6163 0.00109022 28.7574 0.000991636 63.6369 0.00219437
31.0308 0.00107003 28.6697 0.00098861 66.763 0.00230217
30.4263 0.00104918 28.5198 0.000983443 67.6067 0.00233126
29.8131 0.00102804 28.181 0.000971758 65.1058 0.00224502
29.1339 0.00100462 27.9558 0.000963992 64.662 0.00222972
28.4586 0.00098133 27.823 0.000959413 67.3578 0.00232268
27.8447 0.000960161 27.4287 0.000945817 69.4203 0.0023938
27.2541 0.000939795 26.8284 0.000925118 69.2107 0.00238657
26.6746 0.000919815 26.2422 0.000904903 67.6191 0.00233169
26.1346 0.000901193 25.7506 0.000887952 66.0147 0.00227636
25.6172 0.000883351 25.2882 0.000872006 65.888 0.00227199
25.1197 0.000866196 24.7713 0.000854183 67.2229 0.00231803
24.6523 0.000850078 24.2369 0.000835755 68.7036 0.00236909
24.2135 0.000834948 23.7554 0.00081915 69.1797 0.0023855
23.8007 0.000820713 23.3632 0.000805626 68.7421 0.00237041
23.4152 0.00080742 23.0135 0.000793568 67.9837 0.00234426
23.0505 0.000794844 22.688 0.000782343 67.621 0.00233176
22.6967 0.000782644 22.4191 0.000773073 67.9117 0.00234178
22.3455 0.000770533 22.2499 0.000767238 68.5465 0.00236367
21.9933 0.000758391 22.1795 0.00076481 69.0065 0.00237953
21.6387 0.000746162 22.1761 0.000764692 68.6016 0.00236557
21.2729 0.00073355 22.2322 0.000766628 67.2681 0.00231959
20.8836 0.000720125 22.3679 0.000771305 65.7585 0.00226753
20.4752 0.000706041 22.5776 0.000778537 64.3991 0.00222066
20.05 0.000691379 22.8143 0.0007867 62.8865 0.0021685
19.6024 0.000675945 23.0388 0.000794441 61.1641 0.0021091
19.1394 0.000659979 23.2964 0.000803326 59.2199 0.00204206
18.656 0.000643312 23.5425 0.000811812 56.8111 0.001959
18.1467 0.000625746 23.7532 0.000819076 54.2736 0.0018715
17.6251 0.000607763 23.9123 0.000824563 51.9107 0.00179002
17.0972 0.000589559 24.0132 0.000828041 49.7201 0.00171448
16.5569 0.000570928 24.0421 0.000829036 47.5033 0.00163804
16.2712 0.000561075 23.9202 0.000824836 45.1352 0.00155638
15.9568 0.000550234 23.6484 0.000815463 42.6651 0.00147121
15.6244 0.000538773 23.2993 0.000803424 40.1814 0.00138556
15.2097 0.000524474 22.8548 0.000788098 37.9518 0.00130868
14.7253 0.000507767 22.333 0.000770105 35.9183 0.00123856
14.2004 0.000489669 21.7045 0.000748432 34.0104 0.00117277
13.6154 0.000469495 20.9786 0.000723399 32.1122 0.00110731
12.961 0.000446931 20.1672 0.00069542 30.2142 0.00104186
12.2482 0.000422352 19.272 0.000664552 28.3958 0.00097916
11.4902 0.000396212 18.2886 0.00063064 26.7175 0.00092129
10.6838 0.000368406 17.217 0.000593691 25.1634 0.000867699
9.82679 0.000338855 16.071 0.000554173 23.6417 0.000815226
8.92823 0.00030787 14.8668 0.000512647 22.0566 0.000760567
8.00381 0.000275993 13.614 0.000469447 20.3651 0.00070224
7.05524 0.000243284 12.3193 0.000424805 18.5766 0.00064057
6.08143 0.000209704 10.9943 0.000379113 16.7129 0.000576304
5.08682 0.000175407 9.65274 0.000332853 14.6834 0.000506319
4.07427 0.000140492 8.31365 0.000286677 12.2164 0.000421251
3.04435 0.000104977 6.9874 0.000240945 9.57041 0.00033001
1.99754 6.88804e-05 5.6832 0.000195972 6.7927 0.000234227
0.967122 3.33489e-05 4.41047 0.000152085 3.8111 0.000131413
0.0693708 2.39193e-06 3.18874 0.000109957 1.38222 4.76586e-05
-1.0116 -3.4883e-05 2.14026 7.38021e-05 -1.0295 -3.55041e-05
-2.08463 -7.1884e-05 1.11667 3.85058e-05 -3.21795 -0.000110968
-3.12923 -0.000107905 0.161447 5.56713e-06 -5.19451 -0.000179125
-4.15907 -0.000143416 -0.891883 -3.07546e-05 -7.03376 -0.000242548
-5.14108 -0.000177279 -2.0567 -7.09206e-05 -9.02099 -0.000311073
-6.08716 -0.000209902 -3.114 -0.000107379 -11.1085 -0.000383054
-7.02692 -0.000242308 -4.07754 -0.000140605 -13.3399 -0.000460003
-7.91592 -0.000272963 -4.99742 -0.000172325 -15.6442 -0.000539459
-8.73369 -0.000301162 -5.87563 -0.000202608 -17.9991 -0.000620664
-9.50484 -0.000327753 -6.87888 -0.000237203 -20.4522 -0.000705255
-10.208 -0.000352001 -7.72499 -0.000266379 -23.0501 -0.000794836
-10.8634 -0.000374599 -8.46505 -0.000291898 -25.6953 -0.000886053
-11.4888 -0.000396167 -9.22482 -0.000318097 -28.3927 -0.000979066
-12.0507 -0.000415541 -9.99745 -0.00034474 -31.0898 -0.00107207
-12.55 -0.000432757 -10.7014 -0.000369013 -33.7591 -0.00116412
-13.135 -0.000452931 -11.3825 -0.0003925 -36.3996 -0.00125517
-13.5523 -0.000467322 -12.0248 -0.000414649 -38.9973 -0.00134476
-13.9329 -0.000480444 -12.6978 -0.000437857 -42.3396 -0.00146002
-14.4048 -0.000496718 -13.3446 -0.00046016 -45.7662 -0.00157819
-14.8655 -0.000512602 -13.8519 -0.000477651 -48.66 -0.001678
-15.251 -0.000525897 -14.3143 -0.000493596 -49.9399 -0.00172214
-15.6526 -0.000539744 -14.7603 -0.000508978 -50.6092 -0.00174523
-16.0963 -0.000555045 -15.2306 -0.000525192 -51.4024 -0.00177259
-16.5323 -0.000570078 -15.6578 -0.000539923 -52.4698 -0.0018094
-16.9713 -0.000585218 -16.0327 -0.000552853 -51.8478 -0.00178796
-17.4698 -0.000602408 -16.2119 -0.000559033 -48.3595 -0.00166767
-18.0137 -0.000621162 -16.4483 -0.000567181 -42.4553 -0.00146408
-18.5162 -0.00063849 -16.8034 -0.000579427 -37.5085 -0.0012935
-19.03 -0.000656206 -17.1465 -0.00059126 -34.3053 -0.00118304
-19.5866 -0.0006754 -17.5012 -0.000603488 -34.7667 -0.00119895
-20.1255 -0.000693984 -17.9632 -0.00061942 -36.5348 -0.00125992
-20.6863 -0.000713322 -18.3576 -0.00063302 -37.8822 -0.00130639
-21.2661 -0.000733315 -18.8041 -0.000648416 -37.645 -0.0012982
-21.8662 -0.000754008 -19.2523 -0.000663873 -36.4456 -0.00125685
-22.477 -0.00077507 -19.6934 -0.000679082 -35.4277 -0.00122175
-23.0879 -0.000796135 -20.1554 -0.000695014 -34.7858 -0.00119961
-23.7119 -0.000817653 -20.594 -0.000710139 -34.0461 -0.00117411
-24.3429 -0.000839411 -21.03 -0.000725171 -32.7567 -0.00112964
-24.9626 -0.00086078 -21.4698 -0.000740336 -30.8727 -0.00106468
-25.5701 -0.000881727 -21.9017 -0.000755229 -28.4298 -0.000980439
-26.161 -0.000902103 -22.3226 -0.000769746 -25.4593 -0.000878007
-26.732 -0.000921792 -22.715 -0.000783277 -22.1087 -0.000762469
-29.7641 -0.00102635 -18.4449 -0.000636032 -22.1903 -0.000765285
-0.969121 -3.34182e-05 -12.7475 -0.00043957 -26.2692 -0.000905935
2.53672 8.74729e-05 -14.0863 -0.000485735 -16.7131 -0.000576416
-7.93571 -0.000273645 -15.996 -0.000551586 -12.9407 -0.000446332
-10.7521 -0.000370762 -18.3629 -0.000633203 -6.1318 -0.000211543
-7.26937 -0.000250668 -17.9748 -0.000619822 -2.44183 -8.43025e-05
-4.78564 -0.000165022 -17.4505 -0.000601742 -1.18808 -4.10699e-05
-6.93736 -0.00023922 -18.8096 -0.000648606 0.944057 3.24522e-05
-10.1096 -0.000348608 -20.1593 -0.000695148 3.02943 0.000104362
-10.2696 -0.000354125 -20.8896 -0.00072033 4.88757 0.000168435
-7.63046 -0.00026312 -21.4514 -0.000739704 6.88411 0.000237281
-7.09943 -0.000244808 -21.6528 -0.00074665 8.48757 0.000292573
-7.64512 -0.000263625 -22.4477 -0.00077406 10.1545 0.000350054
-7.98306 -0.000275278 -23.0861 -0.000796071 11.7578 0.00040534
-6.97048 -0.000240362 -23.2981 -0.000803383 12.996 0.000448037
-5.65346 -0.000194947 -23.3465 -0.000805052 14.2936 0.000492781
-5.32685 -0.000183685 -23.3388 -0.000804786 15.4603 0.000533013
-5.63234 -0.000194219 -23.363 -0.000805622 16.4479 0.000567068
-5.81244 -0.000200429 -23.2068 -0.000800235 17.1624 0.000591706
-5.54262 -0.000191125 -22.8242 -0.000787043 17.6137 0.000607267
-5.2629 -0.000181479 -22.2685 -0.000767879 17.9384 0.000618465
-4.97493 -0.000171549 -21.5552 -0.000743284 18.1042 0.00062418
-4.48599 -0.000154689 -20.7039 -0.000713929 18.0269 0.000621517
-3.85536 -0.000132944 -19.7374 -0.000680599 17.4986 0.000603299
-3.14664 -0.000108505 -18.6987 -0.000644783 16.5227 0.000569646
-2.72389 -9.39273e-05 -17.6543 -0.000608769 15.1985 0.000523983
-2.61391 -9.01352e-05 -16.6335 -0.000573568 13.6135 0.000469331
-2.50435 -8.63573e-05 -15.5929 -0.000537686 11.7724 0.000405842
-2.17723 -7.50772e-05 -14.5536 -0.000501847 9.74501 0.000335933
-1.83748 -6.33617e-05 -13.5398 -0.00046689 7.57446 0.000261087
-1.56049 -5.38103e-05 -12.6116 -0.000434884 5.20886 0.000179514
-1.29992 -4.48252e-05 -11.7671 -0.000405761 2.58059 8.88842e-05
-0.968351 -3.33916e-05 -11.0096 -0.000379643 0.305275 1.04252e-05
-0.586871 -2.02372e-05 -10.3431 -0.000356657 -1.48968 -5.14699e-05
-0.359718 -1.24043e-05 -9.81177 -0.000338337 -2.85683 -9.86131e-05
-0.156962 -5.41271e-06 -9.43697 -0.000325413 -3.57481 -0.000123371
0.0616678 2.12625e-06 -9.20618 -0.000317454 -4.24645 -0.000146531
0.354321 1.22177e-05 -9.119 -0.000314448 -4.87362 -0.000168157
0.686817 2.36831e-05 -9.16668 -0.000316093 -5.41953 -0.000186982
1.01126 3.48707e-05 -9.35341 -0.000322531 -5.82107 -0.000200828
1.32001 4.55172e-05 -9.67269 -0.000333541 -6.05471 -0.000208885
1.63826 5.64917e-05 -10.1053 -0.000348459 -6.15357 -0.000212293
1.97862 6.82281e-05 -10.6341 -0.000366693 -6.16763 -0.000212778
2.29941 7.92898e-05 -11.2459 -0.000387791 -6.07307 -0.000209518
2.57209 8.86925e-05 -11.9358 -0.000411579 -5.83731 -0.000201388
2.78251 9.59483e-05 -12.6866 -0.000437467 -5.45309 -0.000188139
2.9858 0.000102958 -13.4745 -0.000464639 -4.94423 -0.000170592
3.20883 0.000110649 -14.2814 -0.000492461 -4.28548 -0.000147877
3.46693 0.000119549 -15.0835 -0.000520122 -3.62457 -0.000125087
3.78661 0.000130572 -15.8583 -0.000546836 -3.00845 -0.000103841
4.20685 0.000145063 -16.5855 -0.000571914 -2.48619 -8.58322e-05
4.75357 0.000163916 -17.2448 -0.000594648 -2.13663 -7.37783e-05
5.00852 0.000172707 -17.7629 -0.000612513 -1.98901 -6.86882e-05
5.39877 0.000186164 -18.1213 -0.000624872 -2.14059 -7.3915e-05
6.01335 0.000207357 -18.4241 -0.000635315 -2.39293 -8.26165e-05
6.76636 0.000233323 -18.5553 -0.000639837 -3.02332 -0.000104354
7.43517 0.000256385 -18.6106 -0.000641746 -3.83614 -0.000132382
7.9405 0.00027381 -18.6429 -0.000642858 -4.33457 -0.000149569
8.25643 0.000284704 -18.547 -0.000639552 -4.85566 -0.000167538
8.74249 0.000301465 -18.3058 -0.000631234 -5.46642 -0.000188599
9.38377 0.000323578 -17.896 -0.000617104 -6.18598 -0.000213411
9.93308 0.00034252 -17.3325 -0.000597674 -6.98878 -0.000241094
10.3805 0.000357947 -16.674 -0.000574966 -7.79033 -0.000268734
10.7755 0.00037157 -15.8857 -0.000547781 -8.64831 -0.000298319
11.208 0.000386481 -14.9596 -0.000515849 -9.55711 -0.000329657
11.706 0.000403656 -13.8949 -0.000479134 -10.4575 -0.000360704
12.1824 0.000420083 -12.6951 -0.000437763 -11.3425 -0.000391222
12.5812 0.000433833 -11.4067 -0.000393335 -12.18 -0.000420103
12.924 0.000445654 -10.0437 -0.000346334 -12.9561 -0.000446863
13.2511 0.000456936 -8.63145 -0.000297636 -13.6512 -0.000470832
13.5978 0.00046889 -7.20354 -0.000248398 -14.2204 -0.000490459
13.9572 0.000481283 -5.79033 -0.000199666 -14.6249 -0.000504408
14.332 0.000494205 -4.42742 -0.00015267 -14.8354 -0.000511668
14.7023 0.000506976 -3.16126 -0.000109009 -14.6907 -0.000506677
15.0577 0.000519231 -1.93472 -6.67144e-05 -14.1858 -0.000489268
15.3989 0.000530996 -0.792595 -2.73309e-05 -13.1954 -0.000455114
15.779 0.000544102 0.24037 8.28862e-06 -11.5009 -0.000396685
16.2336 0.000559779 1.00707 3.47266e-05 -8.94642 -0.000308599
16.7165 0.00057643 1.67521 5.7766e-05 -6.0423 -0.000208457
17.218 0.000593724 2.22651 7.67762e-05 -3.20883 -0.000110751
17.7698 0.000612751 2.71543 9.36355e-05 -1.43044 -4.94272e-05
18.3904 0.000634151 3.16527 0.000109147 -0.0355874 -1.32868e-06
19.5061 0.000672623 3.62171 0.000124887 1.42523 4.90443e-05
21.2495 0.00073274 4.10428 0.000141527 3.04865 0.000105024
22.7171 0.000783348 4.45754 0.000153708 5.1114 0.000176154
23.8306 0.000821746 4.85091 0.000167273 7.25216 0.000249973
24.6722 0.000850766 5.23202 0.000180414 9.46407 0.000326246
25.7031 0.000886313 5.60851 0.000193397 11.5914 0.000399602
26.6207 0.000917956 5.9503 0.000205183 13.573 0.000467933
27.4308 0.000945889 6.30265 0.000217333 15.5592 0.000536423
28.2582 0.000974422 6.64818 0.000229247 17.0522 0.000587905
29.1268 0.00100437 7.0164 0.000241945 19.0596 0.000657124
29.9739 0.00103358 7.40894 0.000255481 21.3304 0.000735429
30.8135 0.00106253 7.79593 0.000268825 23.5368 0.000811512
31.6873 0.00109266 8.18557 0.000282261 25.3889 0.000875379
32.6081 0.00112442 8.58837 0.000296151 26.8834 0.000926914
33.5605 0.00115726 9.02062 0.000311056 28.2331 0.000973452
34.5433 0.00119115 9.48788 0.000327168 29.6933 0.00102381
35.5764 0.00122677 9.98895 0.000344447 31.3874 0.00108222
36.6668 0.00126437 10.527 0.000362998 33.2256 0.00114561
37.813 0.0013039 11.1047 0.00038292 34.9919 0.00120652
39.0184 0.00134546 11.7216 0.000404195 36.4998 0.00125851
40.2883 0.00138925 12.3761 0.000426763 37.7104 0.00130026
41.6177 0.00143509 13.0811 0.000451074 38.9934 0.0013445
42.9788 0.00148203 13.8727 0.000478369 40.4053 0.00139318
44.4137 0.00153151 14.6717 0.000505922 42.1866 0.00145461
45.8974 0.00158267 15.5303 0.000535527 43.8612 0.00151236
47.438 0.00163579 16.4149 0.000566031 45.1966 0.0015584
49.0288 0.00169065 17.3336 0.000597711 46.1276 0.0015905
50.6669 0.00174713 18.2849 0.000630514 46.8661 0.00161597
52.3469 0.00180507 19.2617 0.000664195 47.6653 0.00164353
54.0569 0.00186403 20.2608 0.000698647 48.5919 0.00167548
55.7841 0.00192359 21.2764 0.000733669 49.5228 0.00170758
57.5152 0.00198328 22.3059 0.00076917 50.2923 0.00173411
59.2403 0.00204277 23.3444 0.000804979 50.8505 0.00175337
60.951 0.00210176 24.385 0.00084086 51.2877 0.00176844
62.6399 0.00216 25.4194 0.00087653 51.7561 0.00178459
64.2993 0.00221722 26.4399 0.000911721 52.3305 0.0018044
65.9235 0.00227323 27.4396 0.000946195 52.9732 0.00182656
67.5067 0.00232782 28.4115 0.000979708 53.602 0.00184824
69.001 0.00237935 28.7414 0.000991083 54.1347 0.00186661
70.0412 0.00241522 28.7836 0.000992539 54.0885 0.00186502
70.9644 0.00244706 28.8238 0.000993925 54.211 0.00186924
71.0375 0.00244958 28.8889 0.000996169 54.7674 0.00188843
71.1739 0.00245428 28.9534 0.000998394 55.5354 0.00191491
71.2979 0.00245856 28.9811 0.000999349 56.3689 0.00194365
71.3693 0.00246102 28.9897 0.000999645 57.1075 0.00196912
71.4684 0.00246444 29.0069 0.00100024 57.9833 0.00199933
71.6247 0.00246983 29.0189 0.00100065 58.8635 0.00202968
71.7673 0.00247475 29.0176 0.00100061 59.7381 0.00205984
71.867 0.00247819 29.0111 0.00100038 60.7325 0.00209412
71.9781 0.00248201 29.0039 0.00100013 61.8576 0.00213292
72.1037 0.00248635 28.9987 0.000999955 62.9998 0.00217231
72.2062 0.00248988 28.9975 0.000999913 64.0834 0.00220967
72.287 0.00249267 28.9982 0.000999938 65.149 0.00224642
72.3768 0.00249576 28.9946 0.000999815 66.2393 0.00228401
72.4711 0.00249901 28.9844 0.000999463 67.3567 0.00232255
72.5503 0.00250175 28.9814 0.000999359 68.4909 0.00236166
72.6169 0.00250405 28.9867 0.00099954 69.6199 0.00240059
72.683 0.00250632 28.993 0.00099976 70.7111 0.00243821
72.7456 0.00250848 28.9972 0.000999905 71.7497 0.00247403
72.7961 0.00251023 29.0038 0.00100013 71.9708 0.00248165
72.8368 0.00251163 29.0185 0.00100064 72.001 0.00248269
72.8761 0.00251298 29.0368 0.00100127 72.0148 0.00248317
72.9037 0.00251393 29.0593 0.00100204 72.0309 0.00248372
72.9108 0.00251418 29.0892 0.00100308 72.0638 0.00248486
72.9114 0.0025142 29.1247 0.0010043 72.1063 0.00248633
72.9085 0.0025141 29.1626 0.00100561 72.1468 0.00248772
72.8938 0.00251359 29.2049 0.00100707 72.1711 0.00248856
72.8667 0.00251266 29.2536 0.00100875 72.1778 0.00248879
72.8268 0.00251128 29.3116 0.00101074 72.1849 0.00248903
72.7872 0.00250992 29.369 0.00101272 72.2089 0.00248986
72.7458 0.00250849 29.4272 0.00101473 72.2442 0.00249108
72.7088 0.00250722 29.4801 0.00101656 72.2764 0.00249219
72.6777 0.00250614 29.5241 0.00101807 72.3015 0.00249305
72.4824 0.00249941 29.5638 0.00101944 72.3252 0.00249387
72.2456 0.00249124 29.5934 0.00102046 72.3612 0.00249511
71.9947 0.00248259 29.6141 0.00102118 72.4205 0.00249716
71.7116 0.00247283 29.6367 0.00102196 72.4714 0.00249892
71.3675 0.00246096 29.6519 0.00102248 72.5142 0.00250039
70.9711 0.00244729 29.6559 0.00102262 72.5633 0.00250208
70.4932 0.00243081 29.6566 0.00102264 72.6221 0.00250411
69.893 0.00241012 29.6551 0.00102259 72.689 0.00250642
69.1783 0.00238547 29.6491 0.00102238 72.7554 0.00250871
68.3843 0.00235809 29.6432 0.00102218 72.8171 0.00251083
67.4681 0.0023265 29.6472 0.00102232 72.8734 0.00251277
66.4625 0.00229182 29.657 0.00102265 72.9255 0.00251457
65.4132 0.00225564 29.6338 0.00102186 72.982 0.00251652
64.2469 0.00221542 29.5354 0.00101846 73.0479 0.00251879
62.9812 0.00217178 29.3488 0.00101203 73.1141 0.00252107
61.6698 0.00212656 29.0791 0.00100273 73.1717 0.00252306
60.3165 0.00207989 28.7106 0.000990019 73.2228 0.00252482
58.9314 0.00203213 28.2648 0.00097465 73.2736 0.00252658
57.5281 0.00198374 27.7993 0.000958596 73.3269 0.00252841
56.0842 0.00193395 27.2617 0.00094006 73.4018 0.002531
54.6255 0.00188365 26.6609 0.000919342 73.487 0.00253393
53.1579 0.00183305 26.0395 0.000897915 73.5525 0.00253619
51.6611 0.00178143 25.3814 0.00087522 73.5189 0.00253504
50.1647 0.00172983 24.6616 0.000850399 73.1557 0.00252251
48.6754 0.00167848 23.9128 0.000824581 72.458 0.00249845
47.1909 0.00162729 23.1551 0.000798451 71.4433 0.00246346
45.7222 0.00157664 22.3766 0.000771607 70.0284 0.00241467
44.2762 0.00152678 21.5794 0.000744119 68.1907 0.0023513
42.8421 0.00147733 20.7785 0.000716501 66.0704 0.00227819
41.4167 0.00142818 19.9792 0.000688937 64.259 0.00221573
40.0012 0.00137936 19.1656 0.000660881 62.0542 0.0021397
38.569 0.00132998 18.3563 0.000632976 59.4296 0.0020492
37.1159 0.00127987 17.5701 0.000605864 56.6757 0.00195423
35.6546 0.00122948 16.7906 0.000578988 53.8595 0.00185713
34.1886 0.00117893 16.0032 0.000551836 50.8078 0.00175189
32.7278 0.00112856 15.2114 0.000524531 47.3956 0.00163423
31.2848 0.0010788 14.4156 0.00049709 43.7197 0.00150748
29.866 0.00102988 13.6033 0.00046908 39.9042 0.00137591
28.5432 0.000984262 12.7599 0.000439997 35.9401 0.00123921
27.4576 0.000946829 11.8546 0.000408781 31.4903 0.00108577
26.3171 0.000907502 10.9491 0.000377556 26.0878 0.00089948
25.1333 0.000866678 10.0243 0.000345665 20.4411 0.000704767
23.9202 0.000824848 9.08675 0.000313336 14.4987 0.000499854
22.6447 0.000780867 8.14259 0.000280779 7.77038 0.000267844
21.2796 0.000733793 7.20677 0.000248509 1.64878 5.67541e-05
19.8034 0.000682889 6.30404 0.000217381 -1.76947 -6.11167e-05
18.1875 0.00062717 5.39567 0.000186057 -3.56407 -0.000122999
16.2345 0.000559826 4.51107 0.000155554 -4.68203 -0.00016155
14.1656 0.000488484 3.6126 0.000124573 -5.80798 -0.000200376
11.9715 0.000412824 2.69912 9.30731e-05 -7.04877 -0.000243162
9.70744 0.000334753 1.76307 6.07956e-05 -8.33375 -0.000287471
7.37051 0.00025417 0.811312 2.79763e-05 -9.50432 -0.000327836
4.81083 0.000165905 -0.107779 -3.71652e-06 -10.4821 -0.000361553
2.56282 8.83872e-05 -0.741904 -2.55829e-05 -11.2584 -0.00038832
1.10359 3.80689e-05 -1.4175 -4.88793e-05 -11.9409 -0.000411857
0.0602832 2.09271e-06 -2.01448 -6.94647e-05 -12.8304 -0.000442528
-0.438443 -1.51047e-05 -2.68358 -9.25374e-05 -13.633 -0.000470206
-0.982555 -3.38672e-05 -3.37402 -0.000116345 -14.3313 -0.000494285
-1.36419 -4.70271e-05 -4.09915 -0.00014135 -14.8576 -0.000512433
-1.63576 -5.63916e-05 -4.86097 -0.00016762 -15.2296 -0.000525261
-1.83825 -6.3374e-05 -5.64107 -0.00019452 -15.5818 -0.000537406
-2.01846 -6.95881e-05 -6.45262 -0.000222504 -15.9383 -0.0005497
-2.2022 -7.59241e-05 -7.27808 -0.000250968 -16.3013 -0.000562217
-2.33726 -8.05811e-05 -8.10728 -0.000279562 -16.6065 -0.000572738
-2.41861 -8.33864e-05 -8.92094 -0.000307619 -16.8264 -0.000580321
-2.49833 -8.61354e-05 -9.70593 -0.000334687 -16.9964 -0.000586184
-2.59924 -8.96149e-05 -10.4563 -0.000360561 -17.1833 -0.00059263
-2.70807 -9.33678e-05 -11.1546 -0.000384642 -17.4446 -0.000601638
-2.82394 -9.73634e-05 -11.7825 -0.000406295 -17.7812 -0.000613248
-3.0143 -0.000103928 -12.3183 -0.000424768 -18.1631 -0.000626415
-3.17484 -0.000109463 -12.7534 -0.000439771 -18.5681 -0.000640381
-3.39854 -0.000117177 -13.1253 -0.000452597 -18.9704 -0.000654253
-3.71588 -0.00012812 -13.4089 -0.000462377 -19.4433 -0.000670559
-4.00973 -0.000138253 -13.6149 -0.000469479 -19.991 -0.000689447
-4.21468 -0.00014532 -13.7726 -0.000474917 -20.5927 -0.000710195
-4.5469 -0.000156776 -13.8845 -0.000478776 -21.2162 -0.000731696
-4.88021 -0.000168269 -13.9445 -0.000480845 -21.8452 -0.000753384
-5.15496 -0.000177743 -13.9551 -0.000481211 -22.4436 -0.00077402
-5.41273 -0.000186632 -13.902 -0.00047938 -23.0497 -0.000794919
-5.68902 -0.000196159 -13.8381 -0.000477177 -23.6443 -0.000815423
-5.95601 -0.000205366 -13.7799 -0.000475169 -24.2251 -0.000835453
-6.16764 -0.000212663 -13.6906 -0.000472088 -24.7686 -0.000854195
-6.34228 -0.000218686 -13.5843 -0.000468424 -25.242 -0.000870517
-6.52707 -0.000225057 -13.4913 -0.000465219 -25.6396 -0.000884229
-6.70067 -0.000231044 -13.4279 -0.00046303 -25.9668 -0.000895511
-6.8209 -0.00023519 -13.388 -0.000461655 -26.2323 -0.000904666
-6.88719 -0.000237476 -13.3763 -0.000461251 -26.4307 -0.000911507
-6.93446 -0.000239106 -13.3895 -0.000461707 -26.5462 -0.000915493
-6.9718 -0.000240393 -13.4302 -0.000463112 -26.5307 -0.000914956
-6.9835 -0.000240797 -13.4891 -0.000465142 -26.169 -0.000902486
-6.95016 -0.000239647 -13.5696 -0.000467918 -25.4074 -0.000876222
-6.91394 -0.000238398 -13.6667 -0.000471264 -24.2849 -0.000837515
-6.89271 -0.000237666 -13.7642 -0.000474626 -22.83 -0.000787346
-6.88503 -0.000237401 -13.8473 -0.000477492 -21.0757 -0.000726854
-6.90224 -0.000237995 -13.9022 -0.000479388 -18.7609 -0.000647034
-6.96248 -0.000240072 -13.9168 -0.000479891 -15.9603 -0.000550462
-7.08547 -0.000244313 -13.867 -0.000478172 -12.9871 -0.000447935
-7.2554 -0.000250172 -13.7575 -0.000474396 -9.8373 -0.000339323
-7.4443 -0.000256686 -13.5962 -0.000468836 -6.57854 -0.000226952
-7.58724 -0.000261615 -13.4426 -0.000463537 -3.47341 -0.000119878
-7.83469 -0.000270148 -13.3119 -0.000459031 -1.01301 -3.5037e-05
-8.106 -0.000279504 -13.1684 -0.000454084 1.01805 3.49995e-05
-8.33141 -0.000287276 -13.0155 -0.000448811 2.46376 8.48516e-05
-8.55869 -0.000295114 -12.8754 -0.00044398 3.53379 0.000121749
-8.81422 -0.000303925 -12.7743 -0.000440494 4.57323 0.000157592
-9.08293 -0.000313191 -12.7145 -0.000438432 5.52372 0.000190368
-9.31085 -0.00032105 -12.6987 -0.000437886 6.37766 0.000219814
-9.50357 -0.000327695 -12.7331 -0.000439073 7.12988 0.000245752
-9.71432 -0.000334963 -12.827 -0.000442309 7.71138 0.000265804
-10.0315 -0.0003459 -13.0538 -0.000450131 8.43318 0.000290694
-10.0759 -0.000347429 -13.2978 -0.000458544 9.15311 0.000315519
-10.129 -0.000349261 -13.5767 -0.000468163 9.67935 0.000333665
-10.3524 -0.000356966 -13.9565 -0.000481257 10.0167 0.000345299
-10.5586 -0.000364076 -14.2509 -0.00049141 10.2678 0.000353958
-10.7188 -0.0003696 -14.6361 -0.000504694 10.5997 0.000365402
-10.8921 -0.000375577 -14.9559 -0.00051572 10.9588 0.000377783
-10.8121 -0.000372818 -15.2223 -0.000524908 11.2773 0.000388767
-10.752 -0.000370746 -15.463 -0.000533206 11.266 0.000388376
-10.7053 -0.000369135 -15.7565 -0.000543328 10.9846 0.000378674
-10.7452 -0.000370509 -16.0498 -0.00055344 10.275 0.000354206
-10.8111 -0.000372784 -16.3182 -0.000562697 9.33806 0.000321897
-10.8423 -0.000373858 -16.6638 -0.000574613 8.01823 0.000276385
-10.7936 -0.00037218 -17.0537 -0.000588059 6.24155 0.00021512
-10.7616 -0.000371075 -17.3743 -0.000599115 3.95847 0.000136393
-10.771 -0.000371401 -17.744 -0.000611861 1.24568 4.28491e-05
-10.8502 -0.000374132 -18.159 -0.000626173 -0.383614 -1.33336e-05
-10.8545 -0.000374278 -18.5334 -0.000639082 -1.58188 -5.46531e-05
-10.5941 -0.000365301 -18.8966 -0.000651606 -2.94548 -0.000101674
-10.2879 -0.000354743 -19.3084 -0.000665806 -4.54299 -0.00015676
-10.0028 -0.00034491 -19.7843 -0.000682218 -6.24513 -0.000215455
-9.71556 -0.000335005 -20.2874 -0.000699566 -7.94073 -0.000273924
-9.3597 -0.000322734 -20.823 -0.000718034 -9.6008 -0.000331168
-8.94287 -0.000308361 -21.4148 -0.000738442 -11.2968 -0.000389651
-8.72059 -0.000300696 -22.0636 -0.000760815 -13.0957 -0.00045168
-8.57992 -0.000295846 -22.7653 -0.00078501 -14.9727 -0.000516406
-8.40296 -0.000289744 -23.5073 -0.000810596 -16.8569 -0.00058138
-8.1609 -0.000281397 -24.2896 -0.000837572 -18.6919 -0.000644655
-7.89998 -0.000272399 -25.1056 -0.000865709 -20.4974 -0.000706911
-7.64259 -0.000263524 -25.9496 -0.000894813 -22.3289 -0.000770066
-7.36489 -0.000253948 -26.8126 -0.000924572 -24.2155 -0.000835124
-7.05505 -0.000243264 -27.6845 -0.000954638 -26.1304 -0.000901153
-6.74174 -0.00023246 -28.5534 -0.000984598 -28.0263 -0.00096653
-6.44399 -0.000222193 -29.4062 -0.00101401 -29.8956 -0.00103099
-6.15857 -0.000212351 -30.2301 -0.00104242 -31.848 -0.00109831
-5.90209 -0.000203506 -30.9981 -0.0010689 -33.1501 -0.00114321
-5.46859 -0.000188558 -44.6549 -0.00153982 -32.6557 -0.00112616
2.08706 7.19814e-05 -25.6916 -0.000885916 -7.52771 -0.000259682
-0.909806 -3.13588e-05 0.931923 3.21353e-05 -15.7518 -0.00054327
0.19508 6.74069e-06 -5.08018 -0.000175178 -19.1407 -0.000660128
-1.41294 -4.87083e-05 -16.7171 -0.00057645 -33.336 -0.00114962
-2.7552 -9.49931e-05 -21.2733 -0.000733561 -30.4742 -0.00105094
-2.82408 -9.73683e-05 -15.0495 -0.000518948 -24.1102 -0.000831493
-2.82595 -9.74328e-05 -11.0111 -0.000379693 -24.9291 -0.00085973
-3.51595 -0.000121226 -14.5054 -0.000500185 -30.5753 -0.00105443
-3.50093 -0.000120708 -19.6201 -0.000676554 -32.3334 -0.00111505
-2.95281 -0.000101807 -20.2898 -0.000699648 -28.7678 -0.000992097
-2.80134 -9.65843e-05 -18.2282 -0.000628558 -26.0277 -0.000897614
-3.08937 -0.000106516 -17.4106 -0.000600365 -28.2828 -0.000975376
-3.14695 -0.000108502 -19.5705 -0.000674844 -32.1635 -0.00110919
-2.59136 -8.93435e-05 -21.4656 -0.000740193 -31.3923 -0.0010826
-2.20795 -7.61223e-05 -21.0167 -0.000724713 -25.9548 -0.000895098
-2.42671 -8.36659e-05 -19.4259 -0.000669859 -21.8016 -0.000751885
-2.64778 -9.12889e-05 -18.6245 -0.000642224 -22.616 -0.000779967
-2.53163 -8.72838e-05 -18.8707 -0.000650714 -25.6431 -0.000884351
-2.34801 -8.09519e-05 -19.4173 -0.00066956 -26.4303 -0.000911496
-2.37601 -8.19178e-05 -19.6055 -0.000676051 -24.4856 -0.000844435
-2.47398 -8.52958e-05 -19.3623 -0.000667666 -22.7389 -0.000784206
-2.46718 -8.50614e-05 -19.0753 -0.000657768 -23.3308 -0.000804615
-2.40436 -8.28951e-05 -19.0635 -0.000657361 -25.1653 -0.000867875
-2.37511 -8.18865e-05 -19.2617 -0.000664196 -25.8527 -0.000891579
-2.35136 -8.10674e-05 -19.4242 -0.000669799 -24.8344 -0.000856463
-2.28777 -7.88748e-05 -19.4728 -0.000671476 -23.6769 -0.00081655
-2.21753 -7.64526e-05 -19.4929 -0.000672167 -23.7789 -0.000820069
-2.1736 -7.4938e-05 -19.4925 -0.000672156 -24.7545 -0.00085371
-2.11891 -7.30521e-05 -19.4078 -0.000669235 -25.2644 -0.000871291
-2.01882 -6.96007e-05 -19.3348 -0.000666718 -24.7983 -0.000855219
-1.88918 -6.51305e-05 -19.3479 -0.00066717 -24.0878 -0.000830718
-1.75319 -6.04411e-05 -19.4453 -0.000670526 -23.9668 -0.000826546
-1.61484 -5.56703e-05 -19.5122 -0.000672836 -24.3865 -0.000841019
-1.46536 -5.05158e-05 -19.4898 -0.000672061 -24.6798 -0.000851134
-1.30541 -4.50004e-05 -19.4571 -0.000670934 -24.4891 -0.000844558
-1.14791 -3.95691e-05 -19.5216 -0.000673158 -24.1042 -0.000831285
-0.927489 -3.19686e-05 -19.6636 -0.000678056 -23.9692 -0.000826628
-0.564238 -1.94427e-05 -19.7452 -0.00068087 -24.1405 -0.000832537
-0.0369024 -1.2587e-06 -19.72 -0.00068 -24.3226 -0.000838816
0.633631 2.18631e-05 -19.644 -0.000677381 -24.3045 -0.000838192
1.44994 5.00118e-05 -19.5971 -0.000675764 -24.1859 -0.000834102
2.4228 8.35586e-05 -19.391 -0.000668656 -24.1439 -0.000832653
3.6002 0.000124159 -18.9215 -0.000652467 -24.2083 -0.000834874
4.58156 0.000157998 -18.249 -0.000629274 -24.3215 -0.000838779
4.9114 0.000169372 -17.4737 -0.000602543 -24.4042 -0.000841628
5.10757 0.000176137 -16.4317 -0.000566609 -24.4558 -0.000843408
5.44272 0.000187694 -15.0537 -0.000519092 -24.4851 -0.00084442
5.69777 0.000196488 -13.6972 -0.000472317 -24.5575 -0.000846916
5.81991 0.0002007 -12.5713 -0.000433492 -24.6578 -0.000850373
5.97105 0.000205912 -11.6297 -0.000401023 -24.6962 -0.0008517
6.16315 0.000212536 -10.6184 -0.000366151 -24.6832 -0.00085125
6.35655 0.000219205 -9.51185 -0.000327995 -24.5309 -0.000846
6.54141 0.00022558 -8.4221 -0.000290417 -24.0572 -0.000829666
6.78407 0.000233947 -7.43715 -0.000256454 -23.1763 -0.000799289
7.02429 0.000242231 -6.7563 -0.000232976 -21.8008 -0.000751859
7.16421 0.000247056 -6.1558 -0.000212269 -19.9894 -0.000689396
7.32685 0.000252664 -5.59629 -0.000192976 -17.5525 -0.000605365
7.55206 0.00026043 -5.0743 -0.000174976 -14.351 -0.000494968
7.83351 0.000270135 -4.6464 -0.000160221 -11.802 -0.000407072
8.11501 0.000279842 -4.24097 -0.00014624 -9.09491 -0.000313723
8.39732 0.000289577 -3.8341 -0.00013221 -6.00377 -0.000207132
8.71861 0.000300655 -3.46597 -0.000119516 -4.28073 -0.000147717
9.05347 0.000312202 -3.15376 -0.00010875 -2.98494 -0.000103035
9.38585 0.000323664 -2.85652 -9.85006e-05 -1.93096 -6.66903e-05
9.73721 0.00033578 -2.55252 -8.8018e-05 -0.934376 -3.23254e-05
10.1161 0.000348845 -2.22743 -7.68081e-05 0.142348 4.80304e-06
10.522 0.000362841 -1.91375 -6.59913e-05 1.47218 5.06594e-05
10.9514 0.000377648 -1.61717 -5.57646e-05 2.88654 9.94302e-05
11.2633 0.000388402 -1.24625 -4.29742e-05 4.13198 0.000142377
11.7804 0.000406234 -0.818515 -2.82246e-05 5.16755 0.000178086
12.0703 0.00041623 -0.417212 -1.43866e-05 6.26135 0.000215803
12.2374 0.000421992 0.0521043 1.79671e-06 7.49354 0.000258292
12.4264 0.000428512 0.728178 2.51096e-05 8.73613 0.00030114
12.6731 0.000437016 1.41812 4.89007e-05 9.8641 0.000340036
12.9001 0.000444845 2.08091 7.17555e-05 10.7968 0.000372197
13.0551 0.000450189 2.73612 9.43489e-05 11.6664 0.000402184
13.158 0.000453737 3.48261 0.00012009 12.5794 0.000433665
13.216 0.00045574 4.3364 0.000149531 13.3751 0.000461106
13.2726 0.000457691 5.20974 0.000179646 13.7821 0.00047514
13.3996 0.00046207 5.97881 0.000206166 14.2674 0.000491875
13.5911 0.000468671 6.73193 0.000232135 15.0146 0.000517638
13.6972 0.00047233 7.48328 0.000258044 15.7479 0.000542925
13.6936 0.000472206 8.11079 0.000279683 16.1992 0.000558488
13.822 0.000476635 8.63918 0.000297903 16.3097 0.000562298
14.1276 0.000487172 9.27732 0.000319908 16.3591 0.000564001
14.3512 0.000494882 10.0337 0.000345991 16.489 0.00056848
14.3754 0.000495718 10.7522 0.000370766 16.8051 0.000579381
14.3737 0.000495659 11.3639 0.000391858 17.2358 0.000594234
14.4203 0.000497265 11.9379 0.000411652 17.6377 0.00060809
14.4251 0.000497431 12.5752 0.000433627 17.921 0.000617859
14.4555 0.00049848 13.2604 0.000457256 18.131 0.000625103
14.328 0.000494084 13.9071 0.000479555 18.4225 0.000635154
14.1816 0.000489034 14.5974 0.000503359 18.8301 0.000649208
14.1967 0.000489556 15.1226 0.00052147 19.4274 0.000669806
14.2264 0.000490578 15.5169 0.000535065 20.1455 0.000694567
14.145 0.000487772 15.857 0.000546794 20.8856 0.000720087
14.0613 0.000484887 16.1881 0.000558212 21.621 0.000745445
14.0519 0.000484562 16.511 0.000569345 22.3729 0.000771373
14.0832 0.00048564 16.7274 0.000576806 23.2243 0.000800732
13.9658 0.000481592 16.7725 0.000578363 24.2377 0.000835678
13.6561 0.000470914 16.8455 0.000580878 25.4023 0.000875836
13.4722 0.000464573 17.1824 0.000592498 26.7346 0.000921778
12.9424 0.000446304 17.9864 0.000620222 27.9522 0.000963763
12.3454 0.000425719 18.2143 0.00062808 29.1905 0.00100647
11.609 0.000400326 18.07 0.000623103 30.4676 0.0010505
10.802 0.000372495 18.0049 0.00062086 31.7432 0.00109449
9.97347 0.000343926 18.0516 0.000622468 33.0553 0.00113973
9.13102 0.000314876 17.948 0.000618897 34.3507 0.0011844
8.37826 0.000288919 17.5431 0.000604934 35.6195 0.00122815
7.66927 0.000264471 17.1623 0.000591804 36.7436 0.00126692
6.96917 0.00024033 16.8979 0.000582686 37.75 0.00130162
6.34118 0.000218675 16.607 0.000572655 38.6706 0.00133336
5.81164 0.000200415 16.2783 0.000561322 39.5206 0.00136267
5.38073 0.000185556 16.062 0.000553861 40.2636 0.00138829
5.0639 0.000174631 16.001 0.000551759 40.846 0.00140838
4.8602 0.000167607 16.0054 0.000551909 41.2447 0.00142213
4.74012 0.000163466 16.0556 0.000553643 41.4647 0.00142971
4.71121 0.000162469 16.2071 0.000558867 41.5383 0.00143225
4.76127 0.000164195 16.4055 0.000565708 41.0561 0.00141562
4.92804 0.000169946 16.642 0.000573863 39.5425 0.00136343
5.22358 0.000180137 16.9174 0.000583359 37.0783 0.00127846
5.64291 0.000194597 17.1915 0.000592811 33.7942 0.00116521
6.20092 0.000213839 17.4613 0.000602113 30.6063 0.00105528
6.91458 0.000238448 17.6986 0.000610297 27.0056 0.000931122
7.71688 0.000266113 17.8997 0.000617231 22.9566 0.000791502
8.07991 0.000278631 17.9954 0.000620532 18.5792 0.000640556
8.36064 0.000288312 17.9258 0.000618132 13.3012 0.000458557
8.6656 0.000298827 17.7541 0.000612212 7.12817 0.000245694
9.05211 0.000312156 17.5547 0.000605333 2.04564 7.0434e-05
9.49122 0.000327297 17.2406 0.000594503 -0.502307 -1.74261e-05
9.9736 0.000343931 16.8042 0.000579454 -1.02062 -3.52989e-05
10.4617 0.000360763 16.2751 0.00056121 -1.29825 -4.48726e-05
10.9598 0.000377937 15.6912 0.000541075 -1.73263 -5.9851e-05
11.4601 0.000395188 15.0256 0.000518125 -2.51537 -8.68421e-05
11.972 0.000412842 14.247 0.000491276 -3.51498 -0.000121311
12.3517 0.000425934 13.4314 0.000463151 -4.43 -0.000152864
12.7701 0.000440362 12.7408 0.000439338 -5.07096 -0.000174966
13.1697 0.00045414 11.9402 0.000411732 -5.45375 -0.000188165
13.4328 0.000463215 11.2309 0.000387272 -5.85809 -0.000202108
13.6767 0.000471624 10.4962 0.000361938 -6.44522 -0.000222354
13.9201 0.000480017 9.85226 0.000339733 -7.21592 -0.00024893
14.125 0.000487081 9.24764 0.000318884 -7.96819 -0.00027487
14.2494 0.000491371 8.66849 0.000298913 -8.51977 -0.00029389
14.3273 0.000494059 8.12901 0.000280311 -8.85139 -0.000305326
14.4019 0.000496632 7.6257 0.000262955 -9.09565 -0.000313748
14.4606 0.000498657 7.10611 0.000245038 -9.40038 -0.000324256
14.4806 0.000499344 6.56954 0.000226536 -9.79913 -0.000338006
14.4829 0.000499423 6.03256 0.000208019 -10.189 -0.00035145
14.4765 0.000499205 5.49838 0.000189599 -10.4356 -0.000359954
14.4246 0.000497414 4.94508 0.00017052 -10.4844 -0.000361638
14.2899 0.000492767 4.41401 0.000152207 -10.3904 -0.000358394
14.1147 0.000486726 3.85168 0.000132816 -10.2387 -0.000353162
13.8906 0.000479002 3.36795 0.000116136 -9.6657 -0.000333405
13.6159 0.000469529 2.88748 9.95684e-05 -8.54427 -0.000294735
13.31 0.000458978 2.42626 8.36641e-05 -6.76666 -0.000233438
13.0047 0.000448453 1.99811 6.89005e-05 -4.71393 -0.000162655
12.7142 0.000438433 1.5887 5.47827e-05 -2.67653 -9.23993e-05
12.4223 0.00042837 1.25993 4.34457e-05 -0.903394 -3.12567e-05
12.1599 0.00041932 0.967859 3.33745e-05 0.135342 4.5618e-06
11.9459 0.00041194 0.798053 2.75191e-05 1.35149 4.6498e-05
11.7664 0.000405752 0.785035 2.70702e-05 2.66561 9.18125e-05
11.6513 0.000401783 0.960333 3.31149e-05 3.87878 0.000133646
11.5861 0.000399535 1.33447 4.60162e-05 4.93397 0.000170032
11.5809 0.000399356 1.91283 6.59597e-05 5.95693 0.000205306
11.5924 0.000399751 2.73159 9.41928e-05 6.76118 0.000233039
11.6054 0.000400201 3.74244 0.00012905 7.52279 0.000259301
11.6186 0.000400657 4.83835 0.00016684 8.48227 0.000292387
11.6399 0.000401389 6.0737 0.000209438 9.38839 0.000323632
11.671 0.000402462 7.47442 0.000257739 10.0417 0.000346159
11.7024 0.000403546 8.97673 0.000309542 10.5024 0.000362047
11.7389 0.000404803 10.5669 0.000364374 10.9607 0.00037785
11.8906 0.000410033 11.8456 0.000408469 11.6206 0.000400606
11.9728 0.000412869 13.5106 0.000465882 12.3886 0.000427086
12.0756 0.000416413 15.0414 0.00051867 13.2112 0.000455452
12.4793 0.000430335 16.2849 0.000561548 13.9992 0.000482625
12.7463 0.00043954 17.42 0.000600689 14.7008 0.00050682
12.8708 0.000443835 18.3735 0.000633569 15.3161 0.000528036
12.9559 0.000446769 19.1758 0.000661235 16.0565 0.000553568
12.9355 0.000446067 19.8368 0.000684029 16.9841 0.000585554
12.8181 0.000442017 20.4642 0.000705662 17.9866 0.000620122
12.5988 0.000434454 21.0462 0.000725731 19.0028 0.000655162
12.2801 0.000423465 21.5213 0.000742114 19.9613 0.000688215
11.8892 0.000409986 21.848 0.000753379 20.9249 0.000721443
11.4146 0.000393622 22.0938 0.000761854 21.9471 0.000756693
10.8802 0.000375195 22.2536 0.000767365 23.0764 0.000795633
10.2963 0.000355058 22.2988 0.000768924 24.2802 0.000837142
9.67626 0.000333678 22.211 0.000765896 25.4774 0.000878425
9.039 0.000311703 21.9853 0.000758114 26.6034 0.000917252
8.41726 0.000290264 21.6421 0.00074628 27.6377 0.000952919
7.80668 0.00026921 21.2373 0.000732322 28.6243 0.000986939
7.19895 0.000248253 20.7432 0.000715282 29.6018 0.00102065
6.63196 0.000228702 20.2057 0.000696747 30.5477 0.00105327
6.17818 0.000213054 19.692 0.000679035 31.3936 0.00108243
5.8668 0.000202317 19.1807 0.000661404 32.0719 0.00110582
5.6952 0.0001964 18.6858 0.000644337 32.5687 0.00112295
5.57769 0.000192348 18.2008 0.000627613 32.9177 0.00113499
5.521 0.000190393 17.7703 0.000612768 33.1418 0.00114272
5.53741 0.000190959 17.4093 0.000600322 33.1758 0.00114389
5.63411 0.000194294 17.0952 0.000589489 32.6181 0.00112466
5.79106 0.000199705 16.8551 0.000581212 31.3382 0.00108052
6.01031 0.000207266 16.711 0.000576241 29.3947 0.00101351
6.30448 0.00021741 16.6523 0.000574219 26.9617 0.000929608
6.66909 0.000229982 16.6834 0.00057529 24.5881 0.000847762
7.10345 0.000244961 16.7564 0.000577807 21.8376 0.000752916
7.58485 0.00026156 16.8596 0.000581364 18.7463 0.000646321
8.11992 0.000280011 16.985 0.00058569 15.4004 0.000530944
8.68881 0.000299628 17.0664 0.000588495 11.5453 0.000398008
9.29043 0.000320374 17.1273 0.000590597 6.86943 0.000236772
9.71658 0.000335068 17.1871 0.00059266 2.12918 7.33149e-05
9.97603 0.000344015 17.2117 0.000593505 -0.425209 -1.47676e-05
10.2366 0.000352999 17.1954 0.000592946 -1.46256 -5.05384e-05
10.5902 0.000365194 17.1283 0.00059063 -1.71516 -5.92485e-05
10.9828 0.000378733 16.9722 0.000585249 -1.92109 -6.63498e-05
11.396 0.000392979 16.6992 0.000575833 -2.34303 -8.08995e-05
11.8716 0.000409379 16.3084 0.000562359 -2.99998 -0.000103553
12.4294 0.000428612 15.8207 0.00054554 -3.68343 -0.00012712
12.8291 0.000442398 15.3802 0.000530351 -4.16982 -0.000143892
13.3695 0.000461031 14.8933 0.000513561 -4.39892 -0.000151792
13.874 0.000478426 14.3523 0.000494907 -4.49911 -0.000155247
14.3977 0.000496486 13.7731 0.000474935 -4.69272 -0.000161923
14.9454 0.000515373 13.203 0.000455275 -5.04636 -0.000174118
15.4932 0.000534262 12.6914 0.000437633 -5.47685 -0.000188962
16.0032 0.00055185 12.2428 0.000422166 -5.8118 -0.000200512
16.4645 0.000567756 11.8949 0.000410169 -5.97494 -0.000206138
16.8932 0.000582537 11.6768 0.000402648 -6.02907 -0.000208004
17.2741 0.000595672 11.6042 0.000400146 -6.11342 -0.000210913
17.6027 0.000607005 11.6768 0.000402649 -6.30999 -0.000217691
17.885 0.000616738 11.9124 0.000410771 -6.57928 -0.000226977
18.1137 0.000624625 12.3096 0.00042447 -6.80505 -0.000234762
18.2572 0.000629571 12.8502 0.000443109 -6.90421 -0.000238181
18.3637 0.000633246 13.4327 0.000463196 -6.89594 -0.000237896
18.4767 0.000637142 14.1442 0.000487731 -6.88145 -0.000237397
18.5686 0.000640311 14.9108 0.000514167 -6.61671 -0.000228267
18.614 0.000641875 15.6795 0.000540673 -5.92741 -0.000204499
18.6709 0.000643837 16.4616 0.000567642 -4.62723 -0.000159665
18.7753 0.000647439 17.2442 0.000594628 -3.14886 -0.000108687
18.9123 0.000652161 17.9978 0.000620615 -1.45874 -5.04065e-05
19.1048 0.000658802 18.6969 0.00064472 -0.42581 -1.47883e-05
19.3984 0.000668924 19.3774 0.000668187 0.741036 2.54478e-05
19.7336 0.000680484 20.0201 0.000690347 2.25889 7.77876e-05
20.0686 0.000692033 20.6334 0.000711498 3.95723 0.000136351
20.457 0.000705428 21.1945 0.000730846 5.54126 0.000190973
20.8812 0.000720057 21.7261 0.000749176 6.74003 0.00023231
21.3151 0.000735017 22.2938 0.000768751 8.00038 0.00027577
21.7491 0.000749983 22.6677 0.000781644 9.72106 0.000335104
22.1863 0.000765058 23.04 0.000794483 11.5918 0.000399614
22.6445 0.000780859 23.4059 0.000807101 13.2536 0.000456915
23.0695 0.000795512 23.8503 0.000822425 14.5434 0.000501391
23.4189 0.000807563 24.3777 0.00084061 15.8067 0.000544954
23.7942 0.000820504 24.9559 0.000860548 17.2128 0.000593439
24.2039 0.000834632 25.5988 0.000882718 18.8074 0.000648426
24.6354 0.000849511 26.314 0.000907379 20.4263 0.000704252
25.0953 0.00086537 27.0987 0.000934438 21.8454 0.000753183
25.593 0.00088253 27.9408 0.000963476 23.0557 0.00079492
26.1109 0.000900389 28.8392 0.000994455 24.1457 0.000832505
26.6437 0.000918763 29.8018 0.00102765 25.2523 0.000870663
27.1985 0.000937892 30.8232 0.00106287 26.434 0.000911412
27.7683 0.00095754 31.8709 0.001099 27.6288 0.000952614
28.3536 0.000977725 32.9381 0.0011358 28.7211 0.000990277
28.9349 0.00099777 34.0257 0.0011733 29.6477 0.00102223
29.4927 0.001017 35.1301 0.00121138 30.4726 0.00105067
30.0035 0.00103462 36.2485 0.00124995 31.2936 0.00107898
30.4567 0.00105025 37.3642 0.00128842 32.1784 0.00110949
30.836 0.00106332 38.4653 0.00132639 33.1011 0.00114131
31.1525 0.00107424 39.5338 0.00136323 33.9926 0.00117205
31.4126 0.00108321 40.5478 0.0013982 34.8125 0.00120033
31.6021 0.00108974 41.492 0.00143076 35.5891 0.00122711
31.6972 0.00109302 42.3563 0.00146056 36.4045 0.00125522
31.692 0.00109284 43.1419 0.00148765 37.4185 0.00129019
31.5521 0.00108802 43.8518 0.00151213 38.6485 0.0013326
31.2885 0.00107893 44.4297 0.00153206 40.0339 0.00138037
30.9021 0.0010656 44.899 0.00154824 41.3128 0.00142447
30.4166 0.00104886 45.2452 0.00156018 42.4702 0.00146438
29.8337 0.00102876 45.4901 0.00156862 43.6178 0.00150396
29.2581 0.00100891 45.5806 0.00157175 44.8663 0.00154701
28.5402 0.000984158 45.5466 0.00157057 46.1684 0.00159191
27.661 0.00095384 45.2767 0.00156127 47.4314 0.00163546
26.6815 0.000920065 44.8099 0.00154517 48.5417 0.00167375
25.6105 0.000883136 44.1284 0.00152167 49.5315 0.00170788
24.4486 0.000843071 43.2888 0.00149272 50.4336 0.00173899
23.2256 0.000800895 42.3645 0.00146085 51.2934 0.00176863
21.9503 0.000756921 41.2571 0.00142266 52.0702 0.00179542
20.6635 0.000712547 40.0202 0.00138001 52.6633 0.00181587
19.3537 0.000667383 38.7033 0.00133459 53.0251 0.00182835
17.9424 0.000618716 37.2857 0.00128571 53.178 0.00183362
16.3751 0.000564673 35.8081 0.00123476 53.0564 0.00182943
14.8791 0.000513086 34.2388 0.00118065 52.4941 0.00181004
13.4002 0.000462088 32.64 0.00112552 51.4593 0.00177435
12.0203 0.000414508 30.9928 0.00106872 49.9586 0.0017226
10.7473 0.00037061 29.3103 0.0010107 47.9423 0.00165308
9.54432 0.000329128 27.6196 0.0009524 45.6654 0.00157457
8.4031 0.000289776 25.959 0.000895139 43.5662 0.00150218
7.37251 0.000254238 24.2991 0.000837901 40.7989 0.00140675
6.50829 0.000224438 22.7059 0.000782961 37.44 0.00129093
5.80061 0.000200035 21.1824 0.000730428 33.498 0.001155
5.19861 0.000179276 19.7168 0.00067989 28.528 0.000983619
4.59756 0.00015855 18.2942 0.000630834 22.9216 0.000790294
3.98038 0.000137268 16.94 0.000584139 16.8803 0.000581974
3.395 0.000117083 15.6904 0.000541049 9.48761 0.000327054
2.9124 0.000100441 14.4869 0.000499549 1.80153 6.20169e-05
2.38884 8.23877e-05 13.4061 0.000462279 -1.56205 -5.39686e-05
1.87598 6.47028e-05 12.3803 0.000426906 -1.99258 -6.88144e-05
1.41434 4.8784e-05 11.3376 0.000390953 -2.07654 -7.17097e-05
0.918954 3.17019e-05 10.1673 0.000350597 -2.46455 -8.50894e-05
0.517857 1.78709e-05 8.53142 0.000294187 -3.41616 -0.000117903
0.141456 4.89158e-06 6.75356 0.000232881 -4.73172 -0.000163268
-0.192667 -6.6299e-06 4.91355 0.000169433 -5.89514 -0.000203386
-0.475436 -1.63806e-05 3.18945 0.000109981 -6.49735 -0.000224152
-0.742287 -2.55823e-05 2.21272 7.63008e-05 -6.59671 -0.000227578
-1.01364 -3.49394e-05 1.79291 6.18245e-05 -6.69163 -0.000230851
-1.15845 -3.99326e-05 1.70947 5.89473e-05 -7.09414 -0.00024473
-1.21091 -4.17418e-05 1.44833 4.99423e-05 -7.80194 -0.000269137
-1.28401 -4.42624e-05 0.985834 3.39943e-05 -8.52173 -0.000293958
-1.39409 -4.80584e-05 0.617458 2.12917e-05 -8.8972 -0.000306905
-1.50275 -5.18051e-05 0.475398 1.6393e-05 -8.8537 -0.000305405
-1.56658 -5.40061e-05 0.332221 1.14559e-05 -8.64744 -0.000298293
-1.60898 -5.54684e-05 -0.0515734 -1.77839e-06 -8.64191 -0.000298102
-1.66493 -5.73977e-05 -0.583711 -2.0128e-05 -8.90744 -0.000307258
-1.71276 -5.90469e-05 -1.17311 -4.04521e-05 -9.17764 -0.000316575
-1.67629 -5.77892e-05 -1.68052 -5.79488e-05 -9.23917 -0.000318697
-1.59105 -5.48499e-05 -2.11032 -7.27696e-05 -9.03891 -0.000311792
-1.50105 -5.17466e-05 -2.63297 -9.07921e-05 -8.72494 -0.000300965
-1.40463 -4.84218e-05 -3.28642 -0.000113325 -8.52464 -0.000294058
-1.3068 -4.50483e-05 -3.97932 -0.000137218 -8.51479 -0.000293718
-1.20153 -4.14182e-05 -4.61114 -0.000159005 -8.57077 -0.000295649
-1.11069 -3.8286e-05 -5.13545 -0.000177085 -8.54208 -0.000294659
-1.06064 -3.656e-05 -5.60487 -0.000193271 -8.40044 -0.000289775
-1.1062 -3.81311e-05 -6.07878 -0.000209613 -8.24925 -0.000284562
-1.08979 -3.75652e-05 -6.52496 -0.000224999 -8.24418 -0.000284387
-1.05009 -3.61963e-05 -6.99824 -0.000241319 -8.37185 -0.00028879
-1.11383 -3.8394e-05 -7.92531 -0.000273286 -8.59126 -0.000296355
-0.95943 -3.307e-05 -8.43582 -0.00029089 -8.98705 -0.000310003
-0.845367 -2.91368e-05 -8.57166 -0.000295575 -9.34425 -0.00032232
-0.648036 -2.23323e-05 -9.03363 -0.000311504 -9.69934 -0.000334565
-0.454172 -1.56473e-05 -9.71931 -0.000335149 -10.0699 -0.000347343
-0.326289 -1.12375e-05 -10.5467 -0.000363678 -10.5522 -0.000363975
-0.384354 -1.32398e-05 -11.1815 -0.000385568 -11.1 -0.000382862
-0.417214 -1.43729e-05 -11.3509 -0.000391411 -11.7159 -0.000404101
-0.359332 -1.2377e-05 -11.3271 -0.000390588 -12.3473 -0.000425875
-0.362401 -1.24828e-05 -11.4838 -0.000395994 -12.9884 -0.00044798
-0.422645 -1.45602e-05 -11.8092 -0.000407215 -13.6564 -0.000471016
-0.482644 -1.66291e-05 -12.0666 -0.00041609 -14.3641 -0.000495419
-0.539658 -1.85951e-05 -11.9784 -0.000413048 -15.1367 -0.000522059
-0.609496 -2.10033e-05 -11.7058 -0.000403647 -15.9486 -0.000550057
-0.688717 -2.37351e-05 -11.5329 -0.000397685 -16.7801 -0.000578728
-0.731418 -2.52075e-05 -11.5064 -0.000396772 -19.0054 -0.000655462
-0.68327 -2.35472e-05 -11.2207 -0.00038692 -20.26 -0.000698724
-0.573392 -1.97583e-05 -10.638 -0.000366828 -20.0938 -0.000692993
-0.429732 -1.48045e-05 -10.165 -0.000350517 -20.2633 -0.000698839
-0.238899 -8.22408e-06 -9.9761 -0.000344004 -21.548 -0.000743141
-0.0092365 -3.04701e-07 -9.80706 -0.000338175 -23.5016 -0.000810506
0.320206 1.10554e-05 -9.54576 -0.000329164 -25.038 -0.000863486
0.781156 2.69502e-05 -9.27488 -0.000319823 -25.452 -0.000877758
1.28671 4.43832e-05 -9.20333 -0.000317356 -24.9917 -0.000861888
1.72436 5.94743e-05 -9.37636 -0.000323323 -24.9124 -0.000859154
2.15562 7.43456e-05 -9.58991 -0.000330687 -25.5744 -0.000881979
2.65828 9.16787e-05 -9.78684 -0.000337477 -26.1208 -0.000900823
3.20587 0.000110561 -10.0033 -0.00034494 -26.3358 -0.000908237
3.62943 0.000125166 -10.2479 -0.000353377 -26.0532 -0.000898491
4.08908 0.000141016 -10.3959 -0.00035848 -25.7767 -0.000888957
4.66682 0.000160938 -10.7126 -0.000369401 -25.7296 -0.000887332
4.99498 0.000172255 -10.9085 -0.000376157 -25.3602 -0.000874594
5.35866 0.000184795 -10.9722 -0.000378352 -24.3084 -0.000838327
5.80168 0.000200072 -10.8787 -0.000375126 -22.7287 -0.000783852
6.25356 0.000215654 -10.559 -0.000364104 -20.6672 -0.000712766
6.65908 0.000229637 -9.9157 -0.000341921 -17.8994 -0.000617325
7.07111 0.000243845 -8.89037 -0.000306565 -14.8174 -0.000511049
7.56694 0.000260943 -7.65679 -0.000264027 -12.1977 -0.000420716
7.98576 0.000275385 -6.57863 -0.000226849 -9.70663 -0.000334816
8.27234 0.000285267 -5.89455 -0.00020326 -7.04638 -0.000243083
8.49707 0.000293016 -5.2111 -0.000179693 -5.4376 -0.000187608
8.68553 0.000299515 -4.19033 -0.000144494 -4.32661 -0.000149298
8.83232 0.000304576 -2.86803 -9.88977e-05 -3.56066 -0.000122886
8.92491 0.000307769 -1.83169 -6.31616e-05 -2.93261 -0.000101229
8.9722 0.0003094 -1.00931 -3.48038e-05 -2.04154 -7.05026e-05
9.01399 0.000310841 -0.201602 -6.9518e-06 -0.788213 -2.72846e-05
9.03152 0.000311446 0.709488 2.44651e-05 0.432194 1.47984e-05
9.02498 0.00031122 1.80133 6.21148e-05 1.57354 5.41552e-05
9.0319 0.000311459 2.84124 9.79737e-05 2.67142 9.20129e-05
9.09807 0.00031374 3.66166 0.000126264 3.86897 0.000133308
9.26714 0.00031957 4.29004 0.000147932 5.30486 0.000182821
9.47102 0.000326601 4.87232 0.000168011 6.92456 0.000238673
9.71963 0.000335173 5.3881 0.000185797 8.50796 0.000293273
10.0747 0.000347418 5.97005 0.000205864 9.95582 0.000343199
10.5333 0.000363231 6.36421 0.000219456 11.2626 0.000388262
11.0551 0.000381224 6.44844 0.00022236 12.0119 0.0004141
11.7388 0.000404801 6.65242 0.000229394 12.7121 0.000438245
12.5155 0.000431582 7.05779 0.000243372 14.2872 0.000492556
13.1302 0.00045278 7.52552 0.000259501 16.1547 0.000556954
13.824 0.000476704 7.83243 0.000270084 17.4675 0.000602222
14.5792 0.000502746 7.86466 0.000271195 18.0603 0.000622663
15.2221 0.000524913 7.99868 0.000275816 18.4175 0.00063498
15.8547 0.000546729 8.40622 0.00028987 19.0703 0.00065749
16.577 0.000571636 9.01176 0.00031075 20.1471 0.000694621
17.3193 0.000597232 9.59479 0.000330855 21.4586 0.000739847
18.0319 0.000621803 10.0227 0.000345609 22.5697 0.000778161
18.7435 0.000646341 10.4185 0.000359257 23.2581 0.0008019
19.4864 0.00067196 10.9755 0.000378467 23.7186 0.000817778
20.2691 0.000698947 11.7291 0.000404453 24.1535 0.000832774
21.0497 0.000725865 12.5648 0.000433269 24.774 0.000854172
22.4894 0.00077551 13.3523 0.000460423 25.5925 0.000882393
24.5751 0.00084743 14.6826 0.000506298 26.3045 0.000906946
28.7709 0.000992115 17.4054 0.000600187 26.8748 0.000926611
32.3321 0.00111491 22.031 0.000759689 27.8224 0.000959288
35.5638 0.00122635 27.8465 0.000960224 27.8227 0.000959299
39.4618 0.00136077 31.4182 0.00108339 28.6369 0.000987373
42.9863 0.0014823 35.1688 0.00121272 29.4202 0.00101438
46.3647 0.0015988 39.7791 0.00137169 30.474 0.00105072
49.7908 0.00171694 44.5616 0.00153661 31.5055 0.00108629
53.1396 0.00183241 48.4333 0.00167012 32.6024 0.00112412
56.2464 0.00193955 52.1271 0.00179749 33.6479 0.00116017
59.2607 0.00204349 56.1147 0.00193499 34.7416 0.00119788
62.1375 0.00214269 59.9661 0.0020678 36.0432 0.00124276
64.7906 0.00223417 63.4032 0.00218632 39.5314 0.00136305
67.1886 0.00231686 66.8143 0.00230395 44.2212 0.00152476
68.3004 0.0023552 69.6599 0.00240208 50.0128 0.00172447
69.4659 0.00239539 72.4168 0.00249715 55.5861 0.00191666
70.67 0.00243691 0 0.136064 60.3862 0.00208218
58.2457 0.00200849 0 0.703596 43.3628 0.00149516
62.548 0.00215684 0 0.96276 55.5225 0.00191447
67.0892 0.00231343 0 1.21608 61.5484 0.00212225
67.0293 0.00231137 0 1.38634 66.4759 0.00229217
68.8501 0.00237416 0 1.41918 72.0098 0.00248299
0 0.617889 0 1.36192 75.3933 0.00259966
0 1.0576 0 1.18367 72.3705 0.00249543
0 1.42419 0 1.16232 65.3526 0.00225343
0 1.66742 0 1.16452 72.6437 0.00250485
0 1.76595 0 1.18366 73.5175 0.00253498
0 1.7158 0 1.29714 72.9068 0.00251392
0 1.60258 0 1.41832 73.1257 0.00252147
0 1.50262 0 1.52196 75.132 0.00259065
0 1.43789 0 1.624 76.7462 0.00264632
0 1.43728 0 1.70272 72.9991 0.00251711
0 1.47317 0 1.74755 26.1498 0.000901614
0 1.51638 0 1.7685 23.1704 0.000798873
0 1.51465 0 1.82459 25.1598 0.000867476
0 1.4895 0 1.87387 25.9961 0.000896311
0 1.46446 0 1.92154 25.8484 0.00089122
0 1.42936 0 1.98534 25.6717 0.000885126
0 1.41205 0 2.05478 25.6321 0.000883761
0 1.41958 0 2.12203 25.7796 0.000888848
0 1.43369 0 2.2001 25.9801 0.000895761
0 1.44718 0 2.28644 25.9984 0.00089639
0 1.46421 0 2.37646 25.9127 0.000893436
0 1.48508 0 2.46851 25.9353 0.000894216
0 1.50506 0 2.56017 26.1054 0.00090008
0 1.52082 0 2.64877 26.2993 0.000906767
0 1.53478 0 2.72967 26.4006 0.000910262
0 1.54898 0 2.7971 26.4292 0.000911248
0 1.56158 0 2.84673 26.4901 0.000913346
0 1.57116 0 2.87674 26.6176 0.000917744
0 1.57941 0 2.89345 26.7363 0.000921835
0 1.58828 0 2.90376 26.8005 0.000924049
0 1.59669 0 2.91183 26.8409 0.000925443
0 1.60504 0 2.91864 26.9163 0.000928043
0 1.61398 0 2.92382 27.0452 0.000932489
0 1.62349 0 2.9264 27.1665 0.00093667
0 1.63309 0 2.92308 27.2398 0.000939199
0 1.64306 0 2.91313 27.2823 0.000940664
0 1.65345 0 2.89579 27.3322 0.000942384
0 1.66394 0 2.87131 27.391 0.000944413
0 1.67442 0 2.8418 27.4334 0.000945875
0 1.68526 0 2.81087 27.4427 0.000946195
0 1.69673 0 2.78302 27.432 0.000945825
0 1.7089 0 2.76323 27.4271 0.000945656
0 1.72203 0 2.75579 27.4406 0.000946121
0 1.73625 0 2.76288 27.462 0.00094686
0 1.75353 0 2.78093 27.4567 0.000946677
0 1.77149 0 2.81759 27.4845 0.000947635
0 1.78544 0 2.85734 27.4962 0.000948039
0 1.80023 0 2.89008 27.4866 0.000947709
0 1.81922 0 2.92005 27.4577 0.000946712
0 1.84254 0 2.95114 27.4161 0.000945279
0 1.86538 0 2.98507 27.3918 0.00094444
0 1.88018 0 3.01718 27.3755 0.000943877
0 1.88001 0 3.04409 27.3475 0.000942912
0 1.8794 0 3.06935 27.311 0.000941654
0 1.8806 0 3.09434 27.2679 0.000940167
0 1.88215 0 3.1205 26.7602 0.000922661
0 1.88227 0 3.14558 25.8617 0.000891679
0 1.88333 0 3.16808 24.5871 0.000847726
0 1.88922 0 3.18839 23.0378 0.000794302
0 1.89884 0 3.20779 21.2 0.000730928
0 1.90805 0 3.22689 18.9512 0.000653386
0 1.9142 0 3.24502 16.6694 0.000574701
0 1.91783 0 3.26153 14.1799 0.000488858
0 1.92283 0 3.27642 11.9352 0.000411454
0 1.93131 0 3.29022 9.84377 0.000339336
0 1.94254 0 3.30393 8.3143 0.000286595
0 1.95238 0 3.31556 7.58084 0.000261304
0 1.96255 0 3.32855 6.96621 0.000240109
0 1.97394 0 3.343 6.42707 0.000221518
0 1.98629 0 3.35839 6.06618 0.000209074
0 1.9992 0 3.3742 5.95349 0.000205188
0 2.01183 0 3.38975 6.02574 0.000207679
0 2.0239 0 3.40374 6.24385 0.0002152
0 2.0358 0 3.41429 6.58074 0.000226817
0 2.04779 0 3.4198 7.03444 0.000242462
0 2.05959 0 3.41948 7.53242 0.000259634
0 2.07062 0 3.41778 7.97513 0.0002749
0 2.08075 0 3.41638 8.41341 0.000290013
0 2.09064 0 3.41475 8.97897 0.000309515
0 2.10046 0 3.4132 9.53098 0.00032855
0 2.10998 0 3.41141 10.0099 0.000345064
0 2.11873 0 3.40893 10.3307 0.000356127
0 2.12655 0 3.40636 10.4825 0.00036136
0 2.13375 0 3.4041 10.5299 0.000362996
0 2.14057 0 3.40287 10.3939 0.000358305
0 2.14681 0 3.40253 10.0145 0.000345224
0 2.1523 0 3.40243 9.44707 0.000325656
0 2.15698 0 3.40251 8.67299 0.000298964
0 2.16095 0 3.40301 7.73932 0.000266768
0 2.16435 0 3.40404 6.79062 0.000234055
0 2.16709 0 3.40575 6.07892 0.000209513
0 2.16896 0 3.40792 5.26847 0.000181566
0 2.17012 0 3.41014 4.69502 0.000161792
0 2.17075 0 3.41249 4.47753 0.000154293
0 2.17088 0 3.41518 4.34494 0.000149721
0 2.17079 0 3.41756 4.27748 0.000147394
0 2.17074 0 3.42027 4.19775 0.000144645
0 2.17071 0 3.42445 4.05437 0.000139701
0 2.17067 0 3.43033 3.85263 0.000132745
0 2.17071 0 3.43795 3.65738 0.000126012
0 2.17089 0 3.44775 3.52261 0.000121365
0 2.17186 0 3.45972 3.48418 0.000120039
0 2.17418 0 3.47321 3.64573 0.00012561
0 2.17768 0 3.48719 3.79738 0.000130839
0 2.18218 0 3.50046 3.91519 0.000134902
0 2.18688 0 3.51152 4.1807 0.000144057
0 2.19212 0 3.51883 4.56365 0.000157262
0 2.19808 0 3.52076 5.07487 0.000174891
0 2.20443 0 3.5191 5.59647 0.000192877
0 2.21069 0 3.51764 6.03014 0.000207831
0 2.21703 0 3.51646 6.52199 0.000224791
0 2.22372 0 3.51533 7.07864 0.000243986
0 2.23059 0 3.51438 7.63096 0.000263032
0 2.23737 0 3.51315 8.16102 0.00028131
0 2.24365 0 3.51185 8.5933 0.000296216
0 2.24949 0 3.51087 8.95045 0.000308531
0 2.25518 0 3.51078 9.22264 0.000317917
0 2.26065 0 3.51147 9.368 0.00032293
0 2.26586 0 3.51241 9.44947 0.000325739
0 2.27083 0 3.51349 9.44503 0.000325586
0 2.27567 0 3.51496 9.27549 0.00031974
0 2.28049 0 3.51687 8.98942 0.000309875
0 2.28539 0 3.51917 8.64116 0.000297866
0 2.29043 0 3.52174 8.23349 0.000283809
0 2.29565 0 3.52439 7.68652 0.000264947
0 2.30123 0 3.52774 7.10651 0.000244947
0 2.30717 0 3.53191 6.58317 0.000226901
0 2.31324 0 3.53695 6.12243 0.000211013
0 2.31938 0 3.54297 5.70702 0.000196689
0 2.32574 0 3.5495 5.39372 0.000185886
0 2.33247 0 3.55683 5.22419 0.00018004
0 2.33966 0 3.56507 5.19344 0.000178979
0 2.34723 0 3.57486 5.27351 0.00018174
0 2.35509 0 3.58649 5.51585 0.000190097
0 2.36331 0 3.5999 5.95738 0.000205322
0 2.37194 0 3.61483 6.57779 0.000226715
0 2.38092 0 3.6307 7.20416 0.000248314
0 2.39011 0 3.64669 7.87939 0.000271598
0 2.39941 0 3.66192 8.64881 0.00029813
