0.0025 -8.4746e-06
0.0125 -1.19215e-05
0.0225 -2.08829e-05
0.035 -3.99258e-05
0.045 -6.16106e-05
0.055 -8.92958e-05
0.065 -0.000123206
0.075 -0.000163549
0.085 -0.000210537
0.095 -0.000264406
0.105 -0.000325316
0.115 -0.000393189
0.125 -0.000467495
0.135 -0.00054703
0.145 -0.000629878
0.155 -0.000713371
0.165 -0.00079427
0.175 -0.000869055
0.185 -0.000934271
0.195 -0.000986761
0.205 -0.00102364
0.215 -0.00104204
0.225 -0.00103876
0.235 -0.00101009
0.245 -0.000951746
0.255 -0.000859339
0.265 -0.000729791
0.275 -0.000563272
0.285 -0.00036494
0.295 -0.000144701
0.305 8.51495e-05
0.315 0.000312555
0.325 0.000526833
0.335 0.000719353
0.345 0.000884361
0.355 0.00101926
0.365 0.00112417
0.375 0.00120121
0.385 0.00125367
0.395 0.00128567
0.405 0.0013016
0.415 0.00130552
0.425 0.00130019
0.435 0.00128652
0.445 0.00126425
0.455 0.00123373
0.465 0.00119799
0.475 0.0011639
0.485 0.00114198
0.495 0.00114596
0.5075 0.00121231
0.52 0.00137846
0.5325 0.00167384
0.545 0.00211608
0.5575 0.00270639
0.57 0.00342735
0.5825 0.00424258
0.595 0.00509953
0.6075 0.00593902
0.62 0.00670883
0.6325 0.00737339
0.645 0.00791534
0.6575 0.00833227
0.67 0.00863296
0.6825 0.00883269
0.695 0.00894755
0.7075 0.00899266
0.72 0.00898623
0.7325 0.00895366
0.745 0.00892663
0.7575 0.0089373
0.77 0.00900991
0.7825 0.00915494
0.795 0.00937191
0.8075 0.00965549
0.82 0.00999786
0.8325 0.0103895
0.845 0.0108198
0.8575 0.0112777
0.87 0.0117522
0.8825 0.0122308
0.895 0.0127007
0.9075 0.0131505
0.92 0.0135726
0.9325 0.0139647
0.945 0.0143263
0.9575 0.0146539
0.97 0.0149343
0.9825 0.0151447
0.995 0.0152587
1.005 0.0152648
1.0175 0.0151522
1.03 0.0149009
1.0425 0.0145163
1.055 0.0140113
1.0675 0.0134018
1.08 0.0127052
1.0925 0.0119396
1.105 0.011122
1.1175 0.0102673
1.13 0.00938914
1.1425 0.00849828
1.155 0.00760338
1.1675 0.00671522
1.18 0.00585133
1.1925 0.00503458
1.205 0.00428388
1.2175 0.00360895
1.23 0.00301203
1.2425 0.00249007
1.255 0.00203538
1.2675 0.00163489
1.28 0.00126812
1.2925 0.000906035
1.305 0.00051343
1.3175 5.77513e-05
1.33 -0.000479294
1.3425 -0.0010965
1.355 -0.00177892
1.3675 -0.00250982
1.38 -0.00327986
1.3925 -0.0040889
1.405 -0.00493995
1.4175 -0.00583309
1.43 -0.00676599
1.4425 -0.00773681
1.455 -0.00874478
1.4675 -0.00978832
1.48 -0.0108619
1.4925 -0.011951
1.505 -0.0130283
1.5175 -0.0140546
1.53 -0.0149871
1.5425 -0.0157894
1.555 -0.0164378
1.5675 -0.0169242
1.58 -0.0172566
1.5925 -0.0174561
1.605 -0.0175553
1.6175 -0.0175931
1.63 -0.0176084
1.6425 -0.0176354
1.655 -0.0177026
1.6675 -0.0178323
1.68 -0.0180393
1.6925 -0.0183283
1.705 -0.01869
1.7175 -0.0191194
1.73 -0.019612
1.7425 -0.0201708
1.755 -0.0208061
1.7675 -0.0215387
1.78 -0.0223695
1.7925 -0.0232874
1.805 -0.0242647
1.8175 -0.0252629
1.83 -0.0262408
1.8425 -0.027162
1.855 -0.0280029
1.8675 -0.0287534
1.88 -0.0294113
1.8925 -0.0299755
1.905 -0.030441
1.9175 -0.0307987
1.93 -0.0310364
1.9425 -0.0311425
1.955 -0.0311065
1.9675 -0.0309256
1.98 -0.0306076
1.9925 -0.0301733
2.0025 -0.0297623
2.0125 -0.0293137
2.0225 -0.0288457
2.0325 -0.0283751
2.0425 -0.0279171
2.0525 -0.0274849
2.0625 -0.027088
2.0725 -0.0267311
2.0825 -0.0264125
2.0925 -0.0261244
2.1025 -0.0258535
2.1125 -0.0255842
2.1225 -0.0253023
2.1325 -0.0249974
2.1425 -0.0246652
2.1525 -0.0243065
2.1625 -0.0239244
2.1725 -0.0235209
2.1825 -0.0230956
2.1925 -0.0226458
2.2025 -0.0221683
2.2125 -0.0216604
2.2225 -0.0211204
2.2325 -0.0205463
2.2425 -0.0199365
2.2525 -0.0192895
2.2625 -0.0186052
2.2725 -0.0178847
2.2825 -0.0171312
2.2925 -0.016349
2.3025 -0.0155443
2.3125 -0.0147243
2.3225 -0.0138973
2.3325 -0.0130728
2.3425 -0.0122619
2.3525 -0.0114763
2.3625 -0.0107187
2.3725 -0.00999488
2.3825 -0.00930491
2.3925 -0.00864418
2.4025 -0.00800433
2.4125 -0.0073752
2.4225 -0.00674629
2.4325 -0.0061081
2.4425 -0.00545356
2.4525 -0.00477892
2.4625 -0.00408401
2.4725 -0.00337153
2.4825 -0.0026455
2.4925 -0.00190993
2.5025 -0.00116761
2.5125 -0.000419521
2.5225 0.000334783
2.5325 0.00109589
2.5425 0.00186306
2.5525 0.00263323
2.5625 0.00340068
2.5725 0.00415762
2.5825 0.00489547
2.5925 0.00560564
2.6025 0.00627948
2.6125 0.00690884
2.6225 0.00748697
2.6325 0.00800924
2.6425 0.00847323
2.6525 0.00887909
2.6625 0.0092298
2.6725 0.0095313
2.6825 0.0097921
2.6925 0.0100224
2.7025 0.0102326
2.7125 0.0104321
2.7225 0.0106298
2.7325 0.0108347
2.7425 0.0110556
2.7525 0.0113009
2.7625 0.011577
2.7725 0.0118875
2.7825 0.0122323
2.7925 0.0126077
2.8025 0.0130067
2.8125 0.0134214
2.8225 0.0138437
2.8325 0.0142662
2.8425 0.0146819
2.8525 0.0150839
2.8625 0.0154659
2.8725 0.0158221
2.8825 0.0161483
2.8925 0.0164434
2.9025 0.0167095
2.9125 0.0169514
2.9225 0.0171741
2.9325 0.0173845
2.9425 0.017585
2.9525 0.0177736
2.9625 0.0179454
2.9725 0.0180932
2.9825 0.0182104
2.9925 0.0182898
3.0025 0.0183239
3.0125 0.0183051
3.0225 0.0182253
3.0325 0.0180765
3.0425 0.0178514
3.0525 0.017546
3.0625 0.0171615
3.0725 0.0167054
3.0825 0.0161889
3.0925 0.015625
3.1025 0.0150271
3.1125 0.0144082
3.1225 0.0137813
3.1325 0.0131589
3.1425 0.0125538
3.1525 0.0119785
3.1625 0.0114439
3.1725 0.0109569
3.1825 0.0105192
3.1925 0.0101283
3.2025 0.00977858
3.2125 0.0094615
3.2225 0.0091662
3.2325 0.0088805
3.2425 0.00859243
3.2525 0.00829161
3.2625 0.00796962
3.2725 0.00761947
3.2825 0.007235
3.2925 0.00681089
3.3025 0.00634327
3.3125 0.00583013
3.3225 0.00527138
3.3325 0.00466876
3.3425 0.00402548
3.3525 0.00334562
3.3625 0.00263343
3.3725 0.00189287
3.3825 0.00112735
3.3925 0.000342364
3.4025 -0.000461731
3.4125 -0.00128404
3.4225 -0.00211902
3.4325 -0.00295888
3.4425 -0.00379339
3.4525 -0.00461079
3.4625 -0.00539883
3.4725 -0.00614647
3.4825 -0.00684475
3.4925 -0.00748809
3.5025 -0.0080735
3.5125 -0.00860036
3.5225 -0.00906939
3.5325 -0.00948171
3.5425 -0.0098386
3.5525 -0.0101422
3.5625 -0.0103962
3.5725 -0.0106064
3.5825 -0.0107816
3.5925 -0.0109338
3.6025 -0.0110787
3.6125 -0.0112344
3.6225 -0.0114196
3.6325 -0.0116509
3.6425 -0.0119414
3.6525 -0.0123002
3.6625 -0.0127315
3.6725 -0.0132372
3.6825 -0.0138139
3.6925 -0.0144542
3.7025 -0.0151482
3.7125 -0.0158846
3.7225 -0.0166532
3.7325 -0.0174454
3.7425 -0.0182531
3.7525 -0.0190677
3.7625 -0.0198799
3.7725 -0.0206804
3.7825 -0.0214628
3.7925 -0.0222135
3.8025 -0.0229238
3.8125 -0.0235896
3.8225 -0.0242004
3.8325 -0.0247529
3.8425 -0.0252387
3.8525 -0.0256531
3.8625 -0.0259903
3.8725 -0.0262468
3.8825 -0.0264229
3.8925 -0.0265227
3.9025 -0.026553
3.9125 -0.0265225
3.9225 -0.0264412
3.9325 -0.0263193
3.9425 -0.026168
3.9525 -0.025999
3.9625 -0.0258247
3.9725 -0.0256568
3.9825 -0.0255047
3.9925 -0.0253736
4.0025 -0.0252641
4.0125 -0.0251736
4.0225 -0.0250982
4.0325 -0.025034
4.0425 -0.0249776
4.0525 -0.0249254
4.0625 -0.0248742
4.0725 -0.0248221
4.0825 -0.0247697
4.0925 -0.0247199
4.1025 -0.0246769
4.1125 -0.0246441
4.1225 -0.024622
4.1325 -0.0246083
4.1425 -0.0245979
4.1525 -0.0245859
4.1625 -0.0245686
4.1725 -0.0245439
4.1825 -0.024511
4.1925 -0.0244701
4.2025 -0.0244224
4.2125 -0.0243697
4.2225 -0.0243128
4.2325 -0.0242507
4.2425 -0.0241794
4.2525 -0.0240921
4.2625 -0.0239803
4.2725 -0.0238349
4.2825 -0.0236462
4.2925 -0.0234042
4.3025 -0.0231006
4.3125 -0.0227296
4.3225 -0.0222887
4.3325 -0.0217785
4.3425 -0.0212034
4.3525 -0.0205715
4.3625 -0.0198939
4.3725 -0.0191834
4.3825 -0.0184532
4.3925 -0.0177154
4.4025 -0.01698
4.4125 -0.0162555
4.4225 -0.0155488
4.4325 -0.0148659
4.4425 -0.0142117
4.4525 -0.01359
4.4625 -0.0130029
4.4725 -0.0124512
4.4825 -0.0119351
4.4925 -0.0114496
4.5025 -0.0109935
4.5125 -0.0105655
4.5225 -0.0101649
4.5325 -0.0097902
4.5425 -0.00943834
4.5525 -0.00910577
4.5625 -0.00878573
4.5725 -0.00847024
4.5825 -0.00815103
4.5925 -0.00781968
4.6025 -0.00746781
4.6125 -0.00708697
4.6225 -0.00666865
4.6325 -0.00620492
4.6425 -0.0056887
4.6525 -0.00511374
4.6625 -0.00447457
4.6725 -0.00376622
4.6825 -0.00298443
4.6925 -0.00212644
4.7025 -0.00119147
4.7125 -0.000182679
4.7225 0.000892047
4.7325 0.00202026
4.7425 0.00318584
4.7525 0.00437203
4.7625 0.00556018
4.7725 0.00673145
4.7825 0.00786648
4.7925 0.00894663
4.8025 0.00995569
4.8125 0.0108825
4.8225 0.0117223
4.8325 0.0124784
4.8425 0.0131601
4.8525 0.0137782
4.8625 0.0143448
4.8725 0.0148716
4.8825 0.0153704
4.8925 0.0158518
4.9025 0.0163243
4.9125 0.0167939
4.9225 0.0172639
4.9325 0.0177488
4.9425 0.0183979
4.9525 0.0188991
4.9625 0.0193078
4.9725 0.0197125
4.9825 0.0201576
4.9925 0.0205787
5.0025 0.020966
5.0125 0.0213719
5.0225 0.0218314
5.0325 0.0223178
5.0425 0.022826
5.0525 0.0233754
5.0625 0.0239617
5.0725 0.0245762
5.0825 0.0252039
5.0925 0.0258382
5.1025 0.0264699
5.1125 0.0270817
5.1225 0.0276612
5.1325 0.0282005
5.1425 0.0286953
5.1525 0.0291438
5.1625 0.0295468
5.1725 0.0299065
5.1825 0.0302249
5.1925 0.0305038
5.2025 0.0307457
5.2125 0.0309531
5.2225 0.0311283
5.2325 0.0312729
5.2425 0.0313883
5.2525 0.0314764
5.2625 0.0315396
5.2725 0.0315811
5.2825 0.0316039
5.2925 0.0316104
5.3025 0.0316035
5.3125 0.031585
5.3225 0.0315572
5.3325 0.0315124
5.3425 0.0314305
5.3525 0.0313147
5.3625 0.03119
5.3725 0.0310471
5.3825 0.0308855
5.3925 0.0307221
5.4025 0.0305653
5.4125 0.0304019
5.4225 0.0302306
5.4325 0.0300603
5.4425 0.0298865
5.4525 0.0297024
5.4625 0.0295056
5.4725 0.0292929
5.4825 0.0290653
5.4925 0.0288215
5.5025 0.0285609
5.5125 0.0282821
5.5225 0.0279829
5.5325 0.0276633
5.5425 0.0273227
5.5525 0.0269645
5.5625 0.0265976
5.5725 0.0262332
5.5825 0.0258836
5.5925 0.0255603
5.6025 0.0252728
5.6125 0.0250275
5.6225 0.0248251
5.6325 0.024663
5.6425 0.0245365
5.6525 0.0244382
5.6625 0.0243594
5.6725 0.0242907
5.6825 0.0242228
5.6925 0.0241466
5.7025 0.0240533
5.7125 0.0239327
5.7225 0.0237738
5.7325 0.0235655
5.7425 0.0232983
5.7525 0.0229653
5.7625 0.0225634
5.7725 0.0220924
5.7825 0.0215551
5.7925 0.0209567
5.8025 0.0203048
5.8125 0.0196096
5.8225 0.0188841
5.8325 0.018144
5.8425 0.0174054
5.8525 0.0166827
5.8625 0.0159872
5.8725 0.0153306
5.8825 0.0147144
5.8925 0.0141372
5.9025 0.0135987
5.9125 0.0130974
5.9225 0.0126332
5.9325 0.012205
5.9425 0.0118112
5.9525 0.011449
5.9625 0.0111146
5.9725 0.0108027
5.9825 0.010508
5.9925 0.0102254
6.0025 0.00994975
6.0125 0.00967607
6.0225 0.00939852
6.0325 0.00911049
6.0425 0.0088046
6.0525 0.00847296
6.0625 0.00810782
6.0725 0.00770279
6.0825 0.00725109
6.0925 0.00675041
6.1025 0.00619983
6.1125 0.00559716
6.1225 0.00494137
6.1325 0.00423307
6.1425 0.00347547
6.1525 0.00267476
6.1625 0.00184218
6.1725 0.000991631
6.1825 0.0001383
6.1925 -0.000703789
6.2025 -0.0015224
6.2125 -0.00230868
6.2225 -0.00305623
6.2325 -0.00376253
6.2425 -0.00442856
6.2525 -0.0050582
6.2625 -0.00566263
6.2725 -0.00625295
6.2825 -0.00683717
6.2925 -0.00742136
6.3025 -0.00801127
6.3125 -0.00861057
6.3225 -0.00922028
6.3325 -0.00984048
6.3425 -0.0104706
6.3525 -0.0111086
6.3625 -0.0117504
6.3725 -0.0123936
6.3825 -0.0130349
6.3925 -0.01367
6.4025 -0.0142964
6.4125 -0.014911
6.4225 -0.0155117
6.4325 -0.0160978
6.4425 -0.0166679
6.4525 -0.0172208
6.4625 -0.017753
6.4725 -0.0182602
6.4825 -0.0187391
6.4925 -0.0191883
6.5025 -0.019608
6.5125 -0.0203262
6.5225 -0.0208588
6.5325 -0.0211563
6.5425 -0.0214008
6.5525 -0.0215708
6.5625 -0.0217357
6.5725 -0.0218559
6.5825 -0.021893
6.5925 -0.0218903
6.6025 -0.0218457
6.6125 -0.0217835
6.6225 -0.0217283
6.6325 -0.0216475
6.6425 -0.0215747
6.6525 -0.0215217
6.6625 -0.0214871
6.6725 -0.0214707
6.6825 -0.0214741
6.6925 -0.0215031
6.7025 -0.0215532
6.7125 -0.0216245
6.7225 -0.0217173
6.7325 -0.0218304
6.7425 -0.0219621
6.7525 -0.0221095
6.7625 -0.022266
6.7725 -0.0224255
6.7825 -0.0225818
6.7925 -0.0227261
6.8025 -0.0228472
6.8125 -0.0229351
6.8225 -0.0229836
6.8325 -0.0229882
6.8425 -0.0229466
6.8525 -0.0228572
6.8625 -0.02272
6.8725 -0.0225376
6.8825 -0.0223133
6.8925 -0.0220519
6.9025 -0.021759
6.9125 -0.0214408
6.9225 -0.0211031
6.9325 -0.020751
6.9425 -0.0203871
6.9525 -0.0200125
6.9625 -0.0196279
6.9725 -0.0192325
6.9825 -0.0188249
6.9925 -0.0184025
7.0025 -0.0179625
7.0125 -0.0175019
7.0225 -0.0170181
7.0325 -0.0165134
7.0425 -0.0159856
7.0525 -0.0154318
7.0625 -0.014855
7.0725 -0.0142527
7.0825 -0.0136251
7.0925 -0.012981
7.1025 -0.0123272
7.1125 -0.0116732
7.1225 -0.0110283
7.1325 -0.0104
7.1425 -0.00979862
7.1525 -0.00923107
7.1625 -0.0087009
7.1725 -0.00820846
7.1825 -0.00774927
7.1925 -0.00731686
7.2025 -0.00690307
7.2125 -0.00649878
7.2225 -0.00609525
7.2325 -0.00568544
7.2425 -0.00526428
7.2525 -0.00482604
7.2625 -0.00436787
7.2725 -0.00388726
7.2825 -0.00338258
7.2925 -0.00285269
7.3025 -0.00229695
7.3125 -0.00171556
7.3225 -0.00110943
7.3325 -0.000489901
7.3425 0.000153653
7.3525 0.000820027
7.3625 0.00150246
7.3725 0.00219645
7.3825 0.00290157
7.3925 0.00361278
7.4025 0.00432616
7.4125 0.00504134
7.4225 0.00575815
7.4325 0.00647545
7.4425 0.00719235
7.4525 0.00790814
7.4625 0.00862215
7.4725 0.00933375
7.4825 0.0100426
7.4925 0.0107487
7.5025 0.0114517
7.5125 0.0121507
7.5225 0.0128443
7.5325 0.0135303
7.5425 0.0142053
7.5525 0.0148658
7.5625 0.0155104
7.5725 0.0161393
7.5825 0.016755
7.5925 0.0173609
7.6025 0.0179591
7.6125 0.0185495
7.6225 0.019129
7.6325 0.0196927
7.6425 0.020236
7.6525 0.0207576
7.6625 0.0212585
7.6725 0.0217416
7.6825 0.0222108
7.6925 0.0226707
7.7025 0.023126
7.7125 0.0235817
7.7225 0.0240387
7.7325 0.0245061
7.7425 0.0250062
7.7525 0.0255364
7.7625 0.026077
7.7725 0.0266362
7.7825 0.0272139
7.7925 0.0278004
7.8025 0.0283818
7.8125 0.0289503
7.8225 0.0295002
7.8325 0.0300237
7.8425 0.0305165
7.8525 0.0309784
7.8625 0.0314093
7.8725 0.0318079
7.8825 0.0321738
7.8925 0.0325071
7.9025 0.032807
7.9125 0.0330725
7.9225 0.0333029
7.9325 0.0334982
7.9425 0.033658
7.9525 0.0337801
7.9625 0.0338659
7.9725 0.033917
7.9825 0.0339344
7.9925 0.0339213
8.0025 0.0338823
8.015 0.0338064
8.0275 0.0337128
8.04 0.0336148
8.0525 0.033521
8.065 0.0334322
8.0775 0.0333393
8.09 0.0332365
8.1025 0.0331197
8.115 0.032986
8.1275 0.0328331
8.14 0.032655
8.1525 0.0324402
8.165 0.0321758
8.1775 0.0318534
8.19 0.0314711
8.2025 0.0310338
8.215 0.0305517
8.2275 0.0300359
8.24 0.0294964
8.2525 0.0289461
8.265 0.0283993
8.2775 0.0278685
8.29 0.0273611
8.3025 0.0268783
8.315 0.0264159
8.3275 0.0259679
8.34 0.0255294
8.3525 0.0250973
8.365 0.0246703
8.3775 0.0242481
8.39 0.0238302
8.4025 0.0234154
8.415 0.0230006
8.4275 0.0225809
8.44 0.0221503
8.4525 0.0217008
8.465 0.0212246
8.4775 0.0207177
8.49 0.0201834
8.5025 0.0196303
8.515 0.01907
8.5275 0.0185138
8.54 0.0179719
8.5525 0.0174516
8.565 0.0169565
8.5775 0.0164768
8.59 0.0159996
8.6025 0.0155072
8.615 0.0149817
8.6275 0.0144089
8.64 0.0137796
8.6525 0.0130921
8.665 0.0123504
8.6775 0.0115663
8.69 0.0107525
8.7025 0.00992351
8.715 0.00909407
8.7275 0.00827597
8.74 0.00748261
8.7525 0.00672757
8.765 0.00601626
8.7775 0.00536911
8.79 0.00478888
8.8025 0.00427962
8.815 0.00384085
8.8275 0.00347014
8.84 0.00316497
8.8525 0.00291937
8.865 0.00272491
8.8775 0.00257024
8.89 0.00244091
8.9025 0.00231947
8.915 0.00218563
8.9275 0.00201889
8.94 0.00180041
8.9525 0.00152098
8.965 0.00117833
8.9775 0.000776956
8.99 0.000330265
9.0025 -0.000143585
9.015 -0.000635781
9.0275 -0.00113798
9.04 -0.00164505
9.0525 -0.00215084
9.065 -0.00264649
9.0775 -0.00312431
9.09 -0.00357665
9.1025 -0.00399375
9.115 -0.00436397
9.1275 -0.00467532
9.14 -0.0049203
9.1525 -0.00509962
9.165 -0.00522136
9.1775 -0.00529657
9.19 -0.0053365
9.2025 -0.00535216
9.215 -0.00535762
9.2275 -0.00537146
9.24 -0.0054156
9.2525 -0.00551075
9.265 -0.00567222
9.2775 -0.00590954
9.29 -0.0062253
9.3025 -0.00661537
9.315 -0.00706792
9.3275 -0.00757411
9.34 -0.00812491
9.3525 -0.00870842
9.365 -0.00930975
9.3775 -0.00990956
9.39 -0.0104906
9.4025 -0.0110399
9.415 -0.0115525
9.4275 -0.0120316
9.44 -0.0124822
9.4525 -0.0129113
9.465 -0.0133154
9.4775 -0.0136859
9.49 -0.0140218
9.5025 -0.0143268
9.515 -0.0146116
9.5275 -0.0148893
9.54 -0.0151736
9.5525 -0.015476
9.565 -0.0158093
9.5775 -0.0161866
9.59 -0.0166185
9.6025 -0.017111
9.615 -0.0176715
9.6275 -0.0182959
9.64 -0.0189744
9.6525 -0.0196897
9.665 -0.0204189
9.6775 -0.0211375
9.69 -0.021824
9.7025 -0.0224634
9.715 -0.0230471
9.7275 -0.0235721
9.74 -0.0240403
9.7525 -0.0244561
9.765 -0.0248246
9.7775 -0.0251478
9.79 -0.0254249
9.8025 -0.0256548
9.815 -0.0258386
9.8275 -0.0259791
9.84 -0.0260803
9.8525 -0.026149
9.865 -0.026196
9.8775 -0.0262355
9.89 -0.0262798
9.9025 -0.0262187
9.915 -0.0262795
9.9275 -0.0263416
9.94 -0.0264649
9.9525 -0.0266107
9.965 -0.0267699
9.9775 -0.0269705
9.99 -0.0272258
10.0025 -0.0275224
10.015 -0.0278397
10.0275 -0.028157
10.04 -0.0284651
10.0525 -0.028765
10.065 -0.0290527
10.0775 -0.0293137
10.09 -0.0295532
10.1025 -0.0297805
10.115 -0.0300003
10.1275 -0.0302092
10.14 -0.0304046
10.1525 -0.0305864
10.165 -0.0307583
10.1775 -0.0309245
10.19 -0.0310877
10.2025 -0.0312486
10.215 -0.0314053
10.2275 -0.031554
10.24 -0.0316898
10.2525 -0.0318056
10.265 -0.0318922
10.2775 -0.0319395
10.29 -0.0319391
10.3025 -0.0318876
10.315 -0.0317864
10.3275 -0.0316401
10.34 -0.0314551
10.3525 -0.0312371
10.365 -0.0309906
10.3775 -0.0307171
10.39 -0.0304178
10.4025 -0.0300953
10.415 -0.0297542
10.4275 -0.0294008
10.44 -0.0290421
10.4525 -0.0286893
10.465 -0.0283564
10.4775 -0.0280513
10.49 -0.0277754
10.5025 -0.0275234
10.515 -0.0272853
10.5275 -0.0270472
10.54 -0.0267905
10.5525 -0.0264971
10.565 -0.026154
10.5775 -0.0257537
10.59 -0.0252958
10.6025 -0.0247862
10.615 -0.0242352
10.6275 -0.0236535
10.64 -0.0230503
10.6525 -0.0224339
10.665 -0.0218084
10.6775 -0.0211744
10.69 -0.0205283
10.7025 -0.0198628
10.715 -0.0191677
10.7275 -0.0184316
10.74 -0.0176456
10.7525 -0.0168136
10.765 -0.0159395
10.7775 -0.0150302
10.79 -0.0140998
10.8025 -0.0131641
10.815 -0.0122357
10.8275 -0.0113281
10.84 -0.010452
10.8525 -0.0096148
10.865 -0.00882038
10.8775 -0.00806693
10.89 -0.00734963
10.9025 -0.00666485
10.915 -0.00601246
10.9275 -0.00539914
10.94 -0.00483865
10.9525 -0.00434398
10.965 -0.00392329
10.9775 -0.00358234
10.99 -0.00332584
11.0025 -0.00315613
11.015 -0.00307084
11.0275 -0.00305877
11.04 -0.0031089
11.0525 -0.00321047
11.065 -0.0033456
11.0775 -0.00349584
11.09 -0.00364557
11.1025 -0.0037846
11.115 -0.00391066
11.1275 -0.00402521
11.14 -0.00413059
11.1525 -0.00423125
11.165 -0.00432996
11.1775 -0.00443523
11.19 -0.00454731
11.2025 -0.00466274
11.215 -0.00477135
11.2275 -0.00485936
11.24 -0.00491678
11.2525 -0.00493887
11.265 -0.00492839
11.2775 -0.00489408
11.29 -0.00484832
11.3025 -0.00480446
11.315 -0.00477273
11.3275 -0.00475799
11.34 -0.00476131
11.3525 -0.00478289
11.365 -0.0048196
11.3775 -0.00486568
11.39 -0.0049119
11.4025 -0.00494763
11.415 -0.00496104
11.4275 -0.00493991
11.44 -0.00487239
11.4525 -0.00474727
11.465 -0.00455423
11.4775 -0.00428636
11.49 -0.00393933
11.5025 -0.00350805
11.515 -0.0029934
11.5275 -0.00240446
11.54 -0.00175981
11.5525 -0.00108091
11.565 -0.000388033
11.5775 0.000300909
11.59 0.00096578
11.6025 0.00159088
11.615 0.00216497
11.6275 0.00267418
11.64 0.00311131
11.6525 0.00347342
11.665 0.00376398
11.6775 0.00398954
11.69 0.00415813
11.7025 0.00428028
11.715 0.00436876
11.7275 0.00443722
11.74 0.00449843
11.7525 0.0045627
11.765 0.00463718
11.7775 0.00472426
11.79 0.00482451
11.8025 0.00493877
11.815 0.0050687
11.8275 0.00521466
11.84 0.00537339
11.8525 0.00553773
11.865 0.00569866
11.8775 0.005848
11.89 0.00597894
11.9025 0.00608612
11.915 0.00616532
11.9275 0.00621211
11.94 0.00622178
11.9525 0.00618936
11.965 0.00611147
11.9775 0.00598777
11.99 0.00582135
12.0025 0.00561825
12.015 0.00538496
12.0275 0.00512676
12.04 0.00484903
12.0525 0.00455599
12.065 0.00425496
12.0775 0.00395528
12.09 0.0036568
12.1025 0.00335807
12.115 0.00305501
12.1275 0.00274462
12.14 0.00242843
12.1525 0.00211342
12.165 0.00180892
12.1775 0.00152457
12.19 0.00126882
12.2025 0.0010491
12.215 0.000870339
12.2275 0.000734307
12.24 0.000640061
12.2525 0.000584952
12.265 0.000564671
12.2775 0.000574673
12.29 0.000612185
12.3025 0.000675638
12.315 0.000763535
12.3275 0.000873085
12.34 0.000999037
12.3525 0.00113298
12.365 0.00126406
12.3775 0.00138259
12.39 0.00148295
12.4025 0.00156313
12.415 0.00162474
12.4275 0.00167273
12.44 0.00171353
12.4525 0.00175379
12.465 0.00180045
12.4775 0.00186017
12.49 0.00193894
12.5025 0.00204256
12.515 0.00217846
12.5275 0.00235354
12.54 0.00257638
12.5525 0.00285456
12.565 0.00319562
12.5775 0.00360726
12.59 0.0040965
12.6025 0.00466238
12.615 0.00530546
12.6275 0.0060111
12.64 0.00675623
12.6525 0.00751303
12.665 0.00825247
12.6775 0.00894486
12.69 0.00956231
12.7025 0.0100858
12.715 0.0105077
12.7275 0.0108281
12.74 0.0110515
12.7525 0.0111851
12.765 0.0112389
12.7775 0.0112279
12.79 0.0111691
12.8025 0.0110808
12.815 0.0109811
12.8275 0.0108879
12.84 0.0108168
12.8525 0.0107803
12.865 0.0107845
12.8775 0.0108318
12.89 0.0109219
12.9025 0.011052
12.915 0.0112195
12.9275 0.0114204
12.94 0.0116485
12.9525 0.0118952
12.965 0.0121499
12.9775 0.0124017
12.99 0.0126407
13.0025 0.0128593
13.015 0.0130547
13.0275 0.0132248
13.04 0.0133698
13.0525 0.0134914
13.065 0.0135918
13.0775 0.0136733
13.09 0.0137395
13.1025 0.0137951
13.115 0.0138438
13.1275 0.0138849
13.14 0.013912
13.1525 0.0139162
13.165 0.0138897
13.1775 0.0138278
13.19 0.0137324
13.2025 0.0136106
13.215 0.0134707
13.2275 0.0133164
13.24 0.0131464
13.2525 0.0129577
13.265 0.0127482
13.2775 0.0125153
13.29 0.0122535
13.3025 0.0119559
13.315 0.0116187
13.3275 0.0112439
13.34 0.0108343
13.3525 0.010398
13.365 0.00994423
13.3775 0.00948152
13.39 0.00901864
13.4025 0.00856647
13.415 0.00813665
13.4275 0.00773852
13.44 0.00737623
13.4525 0.00704862
13.465 0.00675205
13.4775 0.00648514
13.49 0.00624454
13.5025 0.00602879
13.515 0.00583657
13.5275 0.0056666
13.54 0.00551726
13.5525 0.0053855
13.565 0.00526322
13.5775 0.00513746
13.59 0.00499185
13.6025 0.00480941
13.615 0.00457431
13.6275 0.00427556
13.64 0.00391407
13.6525 0.00349467
13.665 0.00302971
13.6775 0.00253521
13.69 0.00202588
13.7025 0.00151811
13.715 0.00102443
13.7275 0.000555088
13.74 0.000116975
13.7525 -0.000290892
13.765 -0.000679814
13.7775 -0.00106359
13.79 -0.00145259
13.8025 -0.00185423
13.815 -0.00227384
13.8275 -0.00271869
13.84 -0.00319287
13.8525 -0.00369227
13.865 -0.00420507
13.8775 -0.00471555
13.89 -0.00520892
13.9025 -0.00567421
13.915 -0.00611012
13.9275 -0.00652492
13.94 -0.00693419
13.9525 -0.00735425
13.965 -0.0077993
13.9775 -0.00827772
13.99 -0.00879305
14.0025 -0.00934067
14.015 -0.00990875
14.0275 -0.0104882
14.04 -0.0110741
14.0525 -0.011656
14.065 -0.0122179
14.0775 -0.0127617
14.09 -0.0132747
14.1025 -0.0137494
14.115 -0.0141813
14.1275 -0.0145672
14.14 -0.0149068
14.1525 -0.0152063
14.165 -0.0154756
14.1775 -0.0157286
14.19 -0.0159743
14.2025 -0.0162179
14.215 -0.0164618
14.2275 -0.0167008
14.24 -0.0169242
14.2525 -0.0171169
14.265 -0.0172617
14.2775 -0.0173414
14.29 -0.0173395
14.3025 -0.0172432
14.315 -0.0170467
14.3275 -0.0167532
14.34 -0.0163743
14.3525 -0.015926
14.365 -0.0154259
14.3775 -0.0148914
14.39 -0.0143371
14.4025 -0.0137619
14.415 -0.0131711
14.4275 -0.0125695
14.44 -0.0119651
14.4525 -0.0113616
14.465 -0.0107614
14.4775 -0.0101697
14.49 -0.00959141
14.5025 -0.00903689
14.515 -0.00851853
14.5275 -0.00804682
14.54 -0.0076291
14.5525 -0.00726751
14.565 -0.00695847
14.5775 -0.00668921
14.59 -0.0064383
14.6025 -0.00618037
14.615 -0.00589062
14.6275 -0.00554848
14.64 -0.00513909
14.6525 -0.00465403
14.665 -0.00409096
14.6775 -0.00345022
14.69 -0.002733
14.7025 -0.00193995
14.715 -0.00107517
14.7275 -0.000146756
14.74 0.000832876
14.7525 0.00184507
14.765 0.00287574
14.7775 0.00391852
14.79 0.00496668
14.8025 0.00601825
14.815 0.00707368
14.8275 0.00813504
14.84 0.00920534
14.8525 0.0102853
14.865 0.0113724
14.8775 0.0124612
14.89 0.013545
14.9025 0.0146164
14.915 0.0156257
14.9275 0.0166369
14.94 0.0176296
14.9525 0.0185985
14.965 0.0195607
14.9775 0.0205085
14.99 0.0214456
15.0025 0.022376
15.015 0.0233003
15.0275 0.0242175
15.04 0.0251298
15.0525 0.0260399
15.065 0.0269511
15.0775 0.0278657
15.09 0.0287735
15.1025 0.029679
15.115 0.030576
15.1275 0.0313194
15.14 0.0321143
15.1525 0.032829
15.165 0.0333983
15.1775 0.0338838
15.19 0.0350171
15.2025 0.0358375
15.215 0.0361495
15.2275 0.0364823
15.24 0.0368753
15.2525 0.0370511
15.265 0.0372273
15.2775 0.0374165
15.29 0.0375181
15.3025 0.0375853
15.315 0.0376432
15.3275 0.0376831
15.34 0.0375886
15.3525 0.0374634
15.365 0.0373668
15.3775 0.0372024
15.39 0.0370478
15.4025 0.0369315
15.415 0.0368198
15.4275 0.0367206
15.44 0.0366631
15.4525 0.0366559
15.465 0.0366899
15.4775 0.0367562
15.49 0.0368566
15.5025 0.0369929
15.515 0.0371609
15.5275 0.0373607
15.54 0.0376007
15.5525 0.0378877
15.565 0.038219
15.5775 0.0385927
15.59 0.0390046
15.6025 0.0394474
15.615 0.0399093
15.6275 0.040377
15.64 0.0408367
15.6525 0.0412768
15.665 0.0416897
15.6775 0.0420716
15.69 0.0424213
15.7025 0.0427397
15.715 0.04303
15.7275 0.0432957
15.74 0.0435426
15.7525 0.0437631
15.765 0.0439437
15.7775 0.0440929
15.79 0.0442198
15.8025 0.0443316
15.815 0.0444223
15.8275 0.0444795
15.84 0.0444899
15.8525 0.0444928
15.865 0.0445039
15.8775 0.0445207
15.89 0.0445442
15.9025 0.0445855
15.915 0.0446524
15.9275 0.0447422
15.94 0.0448458
15.9525 0.0449592
15.965 0.0450885
15.9775 0.0452506
15.99 0.0454606
16.0025 0.0457295
16.0125 0.0459923
16.0225 0.0463013
16.0325 0.0466605
16.0425 0.0470688
16.0525 0.0475226
16.0625 0.0480155
16.0725 0.0485406
16.0825 0.0490911
16.0925 0.0496592
16.1025 0.0502359
16.1125 0.0508115
16.1225 0.0513777
16.1325 0.0519282
16.1425 0.0524563
16.1525 0.0529551
16.1625 0.0534182
16.1725 0.0538404
16.1825 0.0542183
16.1925 0.0545487
16.2025 0.0548279
16.2125 0.055053
16.2225 0.0552224
16.2325 0.0553363
16.2425 0.0553965
16.2525 0.0554054
16.2625 0.0553662
16.2725 0.0552836
16.2825 0.0551644
16.2925 0.0550168
16.3025 0.0548521
16.3125 0.0546838
16.3225 0.0545257
16.3325 0.0543908
16.3425 0.0542907
16.3525 0.0542343
16.3625 0.0542285
16.3725 0.0542789
16.3825 0.0543886
16.3925 0.0545584
16.4025 0.0547861
16.4125 0.0550665
16.4225 0.0553913
16.4325 0.0557493
16.4425 0.0561283
16.4525 0.0565174
16.4625 0.0569067
16.4725 0.0572862
16.4825 0.0576467
16.4925 0.0579799
16.5025 0.0582803
16.5125 0.0585449
16.5225 0.058773
16.5325 0.0589659
16.5425 0.0591266
16.5525 0.0592599
16.5625 0.0593709
16.5725 0.0594657
16.5825 0.0595502
16.5925 0.0596294
16.6025 0.059707
16.6125 0.0597855
16.6225 0.059867
16.6325 0.0599548
16.6425 0.0600532
16.6525 0.0601664
16.6625 0.0602978
16.6725 0.0604499
16.6825 0.0606245
16.6925 0.0608223
16.7025 0.0610425
16.7125 0.0612825
16.7225 0.0615385
16.7325 0.0618065
