0.0025 1.37812e-05
0.0125 1.37783e-05
0.0225 1.37694e-05
0.035 1.37694e-05
0.045 1.37952e-05
0.055 1.38646e-05
0.065 1.39972e-05
0.075 1.42127e-05
0.085 1.4529e-05
0.095 1.49604e-05
0.105 1.55149e-05
0.115 1.61914e-05
0.125 1.6978e-05
0.135 1.78448e-05
0.145 1.87554e-05
0.155 1.96449e-05
0.165 2.04248e-05
0.175 2.09764e-05
0.185 2.11468e-05
0.195 2.07481e-05
0.205 1.95582e-05
0.215 1.73249e-05
0.225 1.37702e-05
0.235 8.59687e-06
0.245 1.49735e-06
0.255 -7.84803e-06
0.265 -1.97545e-05
0.275 -3.45041e-05
0.285 -5.23617e-05
0.295 -7.35326e-05
0.305 -9.81277e-05
0.315 -0.000126157
0.325 -0.000157467
0.335 -0.000191723
0.345 -0.000228423
0.355 -0.000266877
0.365 -0.000306221
0.375 -0.000345442
0.385 -0.000383394
0.395 -0.000418855
0.405 -0.000450507
0.415 -0.000477035
0.425 -0.000497143
0.435 -0.000509605
0.445 -0.000513299
0.455 -0.000507232
0.465 -0.000490569
0.475 -0.00046268
0.485 -0.000423163
0.495 -0.000371875
0.5075 -0.000291449
0.52 -0.000193805
0.5325 -8.06693e-05
0.545 4.54591e-05
0.5575 0.000181444
0.57 0.000323536
0.5825 0.000467694
0.595 0.00060989
0.6075 0.000746389
0.62 0.000874059
0.6325 0.000990659
0.645 0.00109501
0.6575 0.00118709
0.67 0.00126798
0.6825 0.00133981
0.695 0.0014056
0.7075 0.00146904
0.72 0.00153426
0.7325 0.0016056
0.745 0.00168727
0.7575 0.00178307
0.77 0.00189608
0.7825 0.00202843
0.795 0.00218115
0.8075 0.00235409
0.82 0.0025459
0.8325 0.00275406
0.845 0.00297499
0.8575 0.00320421
0.87 0.00343651
0.8825 0.00366619
0.895 0.00388734
0.9075 0.00409405
0.92 0.00428076
0.9325 0.00444242
0.945 0.00457476
0.9575 0.00467447
0.97 0.00473927
0.9825 0.00476811
0.995 0.00476121
1.005 0.00473096
1.0175 0.00466451
1.03 0.00456985
1.0425 0.00445181
1.055 0.00431599
1.0675 0.00416847
1.08 0.00401547
1.0925 0.003863
1.105 0.00371654
1.1175 0.0035807
1.13 0.00345901
1.1425 0.00335363
1.155 0.00326524
1.1675 0.00319296
1.18 0.00313436
1.1925 0.00308549
1.205 0.00304098
1.2175 0.00299426
1.23 0.0029378
1.2425 0.00286352
1.255 0.00276313
1.2675 0.00262858
1.28 0.00245251
1.2925 0.00222866
1.305 0.00195221
1.3175 0.00162032
1.33 0.00123234
1.3425 0.000789935
1.355 0.00029712
1.3675 -0.000239939
1.38 -0.000812936
1.3925 -0.00141208
1.405 -0.00202612
1.4175 -0.00264273
1.43 -0.00324903
1.4425 -0.00383206
1.455 -0.00437921
1.4675 -0.00487871
1.48 -0.00532012
1.4925 -0.00569475
1.505 -0.00599595
1.5175 -0.00621951
1.53 -0.00636383
1.5425 -0.00643016
1.555 -0.00642256
1.5675 -0.00634777
1.58 -0.00621492
1.5925 -0.00603515
1.605 -0.00582106
1.6175 -0.00558608
1.63 -0.00534388
1.6425 -0.00510764
1.655 -0.00488952
1.6675 -0.00470007
1.68 -0.00454778
1.6925 -0.00443844
1.705 -0.00437432
1.7175 -0.00435672
1.73 -0.00438318
1.7425 -0.00444904
1.755 -0.00454703
1.7675 -0.0046733
1.78 -0.00481792
1.7925 -0.00497273
1.805 -0.00512753
1.8175 -0.00527242
1.83 -0.00539788
1.8425 -0.00549492
1.855 -0.00555552
1.8675 -0.00557318
1.88 -0.00554318
1.8925 -0.00546268
1.905 -0.00533097
1.9175 -0.00514948
1.93 -0.00492186
1.9425 -0.00465377
1.955 -0.00435256
1.9675 -0.00402766
1.98 -0.00369011
1.9925 -0.00335205
2.0025 -0.00308973
2.0125 -0.00284164
2.0225 -0.00261403
2.0325 -0.00241273
2.0425 -0.00224296
2.0525 -0.00210919
2.0625 -0.00201495
2.0725 -0.00196274
2.0825 -0.00195397
2.0925 -0.00198887
2.1025 -0.00206653
2.1125 -0.0021849
2.1225 -0.00234088
2.1325 -0.00253041
2.1425 -0.00274856
2.1525 -0.00298965
2.1625 -0.0032474
2.1725 -0.00351504
2.1825 -0.00378549
2.1925 -0.00405149
2.2025 -0.00430584
2.2125 -0.00454149
2.2225 -0.00475178
2.2325 -0.00493053
2.2425 -0.00507225
2.2525 -0.00517217
2.2625 -0.00522645
2.2725 -0.00523215
2.2825 -0.00518738
2.2925 -0.00509126
2.3025 -0.00494394
2.3125 -0.00474657
2.3225 -0.00450124
2.3325 -0.00421091
2.3425 -0.00387943
2.3525 -0.00351196
2.3625 -0.00311137
2.3725 -0.00268346
2.3825 -0.00223332
2.3925 -0.00176658
2.4025 -0.001289
2.4125 -0.000806221
2.4225 -0.000323864
2.4325 0.000152847
2.4425 0.000618636
2.4525 0.00106869
2.4625 0.00149867
2.4725 0.00190496
2.4825 0.00228442
2.4925 0.0026345
2.5025 0.00295336
2.5125 0.00323987
2.5225 0.00349361
2.5325 0.00371483
2.5425 0.00390441
2.5525 0.00406378
2.5625 0.00419494
2.5725 0.00430033
2.5825 0.00438279
2.5925 0.00444547
2.6025 0.00449168
2.6125 0.00452488
2.6225 0.00454855
2.6325 0.0045661
2.6425 0.00458077
2.6525 0.00459553
2.6625 0.00461303
2.6725 0.00463549
2.6825 0.00466466
2.6925 0.00470173
2.7025 0.00474735
2.7125 0.00480153
2.7225 0.00486369
2.7325 0.00493266
2.7425 0.00500668
2.7525 0.00508348
2.7625 0.00516033
2.7725 0.00523412
2.7825 0.00530143
2.7925 0.00535868
2.8025 0.00540221
2.8125 0.00542842
2.8225 0.00543386
2.8325 0.00541543
2.8425 0.00537039
2.8525 0.00529655
2.8625 0.0051923
2.8725 0.00505673
2.8825 0.00488967
2.8925 0.00469173
2.9025 0.00446432
2.9125 0.00420962
2.9225 0.0039303
2.9325 0.00363039
2.9425 0.00331447
2.9525 0.00298726
2.9625 0.00265434
2.9725 0.00232121
2.9825 0.00199382
2.9925 0.00167813
3.0025 0.00138018
3.0125 0.0011059
3.0225 0.000860938
3.0325 0.000650602
3.0425 0.000479545
3.0525 0.000351917
3.0625 0.000271158
3.0725 0.000239862
3.0825 0.000259701
3.0925 0.00033135
3.1025 0.000454425
3.1125 0.000627452
3.1225 0.000847856
3.1325 0.00111205
3.1425 0.00141521
3.1525 0.00175161
3.1625 0.00211467
3.1725 0.00249706
3.1825 0.00289081
3.1925 0.00328749
3.2025 0.00367846
3.2125 0.00405501
3.2225 0.00440863
3.2325 0.00473115
3.2425 0.00501497
3.2525 0.00525328
3.2625 0.00544017
3.2725 0.00557082
3.2825 0.0056416
3.2925 0.00565014
3.3025 0.00559538
3.3125 0.00547757
3.3225 0.00529832
3.3325 0.00506045
3.3425 0.00476798
3.3525 0.00442594
3.3625 0.00404029
3.3725 0.00361771
3.3825 0.00316542
3.3925 0.00269142
3.4025 0.00220355
3.4125 0.00170765
3.4225 0.00121189
3.4325 0.000722525
3.4425 0.000246135
3.4525 -0.000211559
3.4625 -0.000645837
3.4725 -0.00105266
3.4825 -0.00142896
3.4925 -0.0017725
3.5025 -0.00208213
3.5125 -0.00235773
3.5225 -0.00260017
3.5325 -0.00281098
3.5425 -0.00299264
3.5525 -0.00314827
3.5625 -0.0032816
3.5725 -0.00339674
3.5825 -0.00349815
3.5925 -0.00359041
3.6025 -0.00367804
3.6125 -0.00376539
3.6225 -0.00385638
3.6325 -0.0039544
3.6425 -0.00406214
3.6525 -0.00418152
3.6625 -0.00431349
3.6725 -0.00445817
3.6825 -0.00461545
3.6925 -0.00478364
3.7025 -0.00496071
3.7125 -0.00514358
3.7225 -0.00532864
3.7325 -0.00551173
3.7425 -0.00568827
3.7525 -0.0058534
3.7625 -0.00600213
3.7725 -0.00613917
3.7825 -0.00628119
3.7925 -0.00632517
3.8025 -0.006381
3.8125 -0.00642536
3.8225 -0.00644509
3.8325 -0.00642294
3.8425 -0.00634782
3.8525 -0.00623692
3.8625 -0.00610213
3.8725 -0.00594414
3.8825 -0.00575379
3.8925 -0.0055265
3.9025 -0.00526904
3.9125 -0.00499392
3.9225 -0.00471009
3.9325 -0.00441956
3.9425 -0.00412273
3.9525 -0.00382518
3.9625 -0.00353624
3.9725 -0.00326434
3.9825 -0.00301546
3.9925 -0.00279215
4.0025 -0.00259771
4.0125 -0.00243599
4.0225 -0.00231142
4.0325 -0.00222769
4.0425 -0.00218637
4.0525 -0.00218726
4.0625 -0.00222892
4.0725 -0.00231005
4.0825 -0.00242993
4.0925 -0.00258611
4.1025 -0.0027744
4.1125 -0.00298983
4.1225 -0.00322736
4.1325 -0.00348109
4.1425 -0.00374587
4.1525 -0.00401674
4.1625 -0.00428774
4.1725 -0.00455257
4.1825 -0.00480521
4.1925 -0.00504057
4.2025 -0.0052544
4.2125 -0.00544293
4.2225 -0.0056027
4.2325 -0.0057307
4.2425 -0.00582489
4.2525 -0.0058843
4.2625 -0.00590901
4.2725 -0.00589993
4.2825 -0.00585851
4.2925 -0.00578673
4.3025 -0.0056877
4.3125 -0.00556535
4.3225 -0.00542418
4.3325 -0.00526886
4.3425 -0.00510423
4.3525 -0.00493527
4.3625 -0.00476705
4.3725 -0.00460444
4.3825 -0.00445175
4.3925 -0.00431281
4.4025 -0.0041907
4.4125 -0.00408762
4.4225 -0.00400508
4.4325 -0.00394346
4.4425 -0.0039021
4.4525 -0.00387956
4.4625 -0.00387353
4.4725 -0.00388087
4.4825 -0.00389763
4.4925 -0.00391833
4.5025 -0.00393746
4.5125 -0.00394974
4.5225 -0.00394901
4.5325 -0.00392945
4.5425 -0.00388516
4.5525 -0.00381072
4.5625 -0.00370111
4.5725 -0.00355226
4.5825 -0.00336059
4.5925 -0.00312351
4.6025 -0.00283958
4.6125 -0.00250803
4.6225 -0.00212879
4.6325 -0.00170554
4.6425 -0.00124026
4.6525 -0.000736473
4.6625 -0.000198633
4.6725 0.000367864
4.6825 0.000955314
4.6925 0.00155546
4.7025 0.00216316
4.7125 0.00276804
4.7225 0.00336123
4.7325 0.00393128
4.7425 0.0044723
4.7525 0.00497974
4.7625 0.00544024
4.7725 0.00584554
4.7825 0.00619013
4.7925 0.00647152
4.8025 0.00668919
4.8125 0.00684124
4.8225 0.00692014
4.8325 0.00693054
4.8425 0.00687721
4.8525 0.00676449
4.8625 0.00659767
4.8725 0.00638224
4.8825 0.00612546
4.8925 0.00583606
4.9025 0.00552346
4.9125 0.00519696
4.9225 0.00486551
4.9325 0.00453768
4.9425 0.00420591
4.9525 0.00390702
4.9625 0.00357484
4.9725 0.00325921
4.9825 0.00297993
4.9925 0.00272576
5.0025 0.00249895
5.0125 0.00230843
5.0225 0.00216297
5.0325 0.00206191
5.0425 0.00199993
5.0525 0.00198259
5.0625 0.00200609
5.0725 0.00206945
5.0825 0.00217031
5.0925 0.00230499
5.1025 0.00247249
5.1125 0.00266614
5.1225 0.00288216
5.1325 0.00311569
5.1425 0.00336127
5.1525 0.00361348
5.1625 0.00386703
5.1725 0.00411689
5.1825 0.00435813
5.1925 0.00458622
5.2025 0.00479729
5.2125 0.00498816
5.2225 0.00515614
5.2325 0.0052992
5.2425 0.00541661
5.2525 0.00552394
5.2625 0.00561069
5.2725 0.00567107
5.2825 0.00569874
5.2925 0.00570454
5.3025 0.00570287
5.3125 0.00569937
5.3225 0.00565355
5.3325 0.00560878
5.3425 0.00557792
5.3525 0.00555562
5.3625 0.00556081
5.3725 0.00557035
5.3825 0.00559179
5.3925 0.00563766
5.4025 0.00571906
5.4125 0.0058328
5.4225 0.0059867
5.4325 0.00616919
5.4425 0.00638134
5.4525 0.00662931
5.4625 0.00690805
5.4725 0.00721752
5.4825 0.0075563
5.4925 0.00792209
5.5025 0.00831253
5.5125 0.00872002
5.5225 0.00914361
5.5325 0.00959332
5.5425 0.0100607
5.5525 0.0105375
5.5625 0.0110204
5.5725 0.0115046
5.5825 0.0119909
5.5925 0.0124796
5.6025 0.0129778
5.6125 0.0134698
5.6225 0.0139346
5.6325 0.01437
5.6425 0.0147823
5.6525 0.015179
5.6625 0.0155596
5.6725 0.015912
5.6825 0.0162228
5.6925 0.0164855
5.7025 0.0167014
5.7125 0.0168737
5.7225 0.0170034
5.7325 0.017087
5.7425 0.0171193
5.7525 0.0170977
5.7625 0.0170244
5.7725 0.0169055
5.7825 0.0167456
5.7925 0.0165464
5.8025 0.0163078
5.8125 0.0160306
5.8225 0.0157198
5.8325 0.015383
5.8425 0.0150276
5.8525 0.0146582
5.8625 0.0142771
5.8725 0.0138868
5.8825 0.0134909
5.8925 0.0130916
5.9025 0.0126952
5.9125 0.0123034
5.9225 0.0119172
5.9325 0.0115365
5.9425 0.0111614
5.9525 0.010793
5.9625 0.0104321
5.9725 0.0100783
5.9825 0.00973013
5.9925 0.00938542
6.0025 0.00904224
6.0125 0.00869898
6.0225 0.00835397
6.0325 0.00800511
6.0425 0.00764965
6.0525 0.0072854
6.0625 0.00691018
6.0725 0.00652181
6.0825 0.00611849
6.0925 0.0056966
6.1025 0.00525864
6.1125 0.00480401
6.1225 0.00433118
6.1325 0.0038409
6.1425 0.00333465
6.1525 0.0028123
6.1625 0.00227639
6.1725 0.00172871
6.1825 0.00116989
6.1925 0.000601292
6.2025 2.70026e-05
6.2125 -0.000549998
6.2225 -0.00112638
6.2325 -0.00169947
6.2425 -0.00226685
6.2525 -0.00282571
6.2625 -0.00337225
6.2725 -0.0039015
6.2825 -0.00440959
6.2925 -0.00489432
6.3025 -0.00535583
6.3125 -0.00578917
6.3225 -0.00619312
6.3325 -0.00656664
6.3425 -0.00691246
6.3525 -0.00721438
6.3625 -0.00747303
6.3725 -0.00770469
6.3825 -0.00790519
6.3925 -0.00806794
6.4025 -0.00819629
6.4125 -0.00828423
6.4225 -0.00833315
6.4325 -0.00834721
6.4425 -0.00832928
6.4525 -0.0082825
6.4625 -0.00820483
6.4725 -0.00809595
6.4825 -0.00795964
6.4925 -0.00780086
6.5025 -0.00762403
6.5125 -0.00746167
6.5225 -0.00730687
6.5325 -0.00700995
6.5425 -0.006719
6.5525 -0.00638359
6.5625 -0.00603477
6.5725 -0.00568352
6.5825 -0.00530539
6.5925 -0.00492314
6.6025 -0.00454269
6.6125 -0.00416223
6.6225 -0.00380229
6.6325 -0.00345219
6.6425 -0.00311884
6.6525 -0.00281458
6.6625 -0.00253601
6.6725 -0.00228768
6.6825 -0.00207103
6.6925 -0.00188874
6.7025 -0.0017428
6.7125 -0.0016327
6.7225 -0.00155887
6.7325 -0.00151932
6.7425 -0.00151181
6.7525 -0.00153429
6.7625 -0.00158359
6.7725 -0.00165578
6.7825 -0.00174764
6.7925 -0.00185545
6.8025 -0.00197538
6.8125 -0.00210318
6.8225 -0.00223533
6.8325 -0.00236815
6.8425 -0.00249833
6.8525 -0.0026222
6.8625 -0.00273769
6.8725 -0.00284343
6.8825 -0.00293799
6.8925 -0.00302041
6.9025 -0.0030899
6.9125 -0.00314619
6.9225 -0.00318979
6.9325 -0.00322172
6.9425 -0.0032433
6.9525 -0.003256
6.9625 -0.00326124
6.9725 -0.00326091
6.9825 -0.00325715
6.9925 -0.0032526
7.0025 -0.00324957
7.0125 -0.00324996
7.0225 -0.00325557
7.0325 -0.00326865
7.0425 -0.00329144
7.0525 -0.00332238
7.0625 -0.0033639
7.0725 -0.00341455
7.0825 -0.00347339
7.0925 -0.00354149
7.1025 -0.00361781
7.1125 -0.00370126
7.1225 -0.00379051
7.1325 -0.00388283
7.1425 -0.00397635
7.1525 -0.00406899
7.1625 -0.0041574
7.1725 -0.0042386
7.1825 -0.00430891
7.1925 -0.00436473
7.2025 -0.00440263
7.2125 -0.00441899
7.2225 -0.00441038
7.2325 -0.00437355
7.2425 -0.00430499
7.2525 -0.00420449
7.2625 -0.00406994
7.2725 -0.00390027
7.2825 -0.00369437
7.2925 -0.00345325
7.3025 -0.00317657
7.3125 -0.00286574
7.3225 -0.00252269
7.3325 -0.00214894
7.3425 -0.00174749
7.3525 -0.00131438
7.3625 -0.00085746
7.3725 -0.000378649
7.3825 0.000118703
7.3925 0.000633254
7.4025 0.00116133
7.4125 0.00170204
7.4225 0.00225336
7.4325 0.00281094
7.4425 0.0033707
7.4525 0.00392771
7.4625 0.00447887
7.4725 0.00502275
7.4825 0.00555873
7.4925 0.00608599
7.5025 0.00660242
7.5125 0.00710507
7.5225 0.00759116
7.5325 0.00805902
7.5425 0.00850674
7.5525 0.00893586
7.5625 0.00935134
7.5725 0.00974833
7.5825 0.0101244
7.5925 0.0104789
7.6025 0.0108138
7.6125 0.0111328
7.6225 0.0114381
7.6325 0.0117304
7.6425 0.0120096
7.6525 0.0122764
7.6625 0.0125335
7.6725 0.0127844
7.6825 0.0130319
7.6925 0.0132779
7.7025 0.0135237
7.7125 0.0137658
7.7225 0.0139904
7.7325 0.014223
7.7425 0.0144762
7.7525 0.0147427
7.7625 0.0150142
7.7725 0.0152894
7.7825 0.0155772
7.7925 0.0158732
7.8025 0.0161734
7.8125 0.0164801
7.8225 0.0167945
7.8325 0.017113
7.8425 0.017433
7.8525 0.0177545
7.8625 0.0180775
7.8725 0.0184002
7.8825 0.0187215
7.8925 0.0190406
7.9025 0.0193561
7.9125 0.0196666
7.9225 0.0199728
7.9325 0.0202759
7.9425 0.0205722
7.9525 0.0208607
7.9625 0.0211424
7.9725 0.0214184
7.9825 0.0216878
7.9925 0.0219505
8.0025 0.0222077
8.015 0.0225221
8.0275 0.0228296
8.04 0.0231316
8.0525 0.0234289
8.065 0.0237222
8.0775 0.0240134
8.09 0.0243035
8.1025 0.0245876
8.115 0.0248673
8.1275 0.0251422
8.14 0.0254102
8.1525 0.0256715
8.165 0.0259247
8.1775 0.0261683
8.19 0.0264013
8.2025 0.0266221
8.215 0.0268296
8.2275 0.0270228
8.24 0.0271996
8.2525 0.0273579
8.265 0.0274958
8.2775 0.0276111
8.29 0.0277015
8.3025 0.0277651
8.315 0.0277994
8.3275 0.0278004
8.34 0.0277645
8.3525 0.0276886
8.365 0.0275709
8.3775 0.0274096
8.39 0.027203
8.4025 0.0269498
8.415 0.0266497
8.4275 0.0263031
8.44 0.0259099
8.4525 0.0254689
8.465 0.0249826
8.4775 0.0244559
8.49 0.0238928
8.5025 0.023295
8.515 0.0226648
8.5275 0.0220069
8.54 0.0213277
8.5525 0.0206326
8.565 0.0199259
8.5775 0.0192102
8.59 0.0184912
8.6025 0.0177736
8.615 0.017061
8.6275 0.0163566
8.64 0.0156626
8.6525 0.0149851
8.665 0.0143244
8.6775 0.0136822
8.69 0.0130596
8.7025 0.0124581
8.715 0.0118803
8.7275 0.011327
8.74 0.0108052
8.7525 0.010311
8.765 0.00983558
8.7775 0.00938896
8.79 0.00896904
8.8025 0.00857626
8.815 0.00821006
8.8275 0.00786663
8.84 0.00754462
8.8525 0.00724068
8.865 0.00695236
8.8775 0.00667657
8.89 0.0064098
8.9025 0.00614856
8.915 0.0058892
8.9275 0.00562899
8.94 0.00536581
8.9525 0.00509849
8.965 0.0048284
8.9775 0.00455395
8.99 0.00427666
9.0025 0.0039991
9.015 0.003723
9.0275 0.00345031
9.04 0.00318454
9.0525 0.00292766
9.065 0.00268389
9.0775 0.00245596
9.09 0.00224672
9.1025 0.00205956
9.115 0.00189715
9.1275 0.00176177
9.14 0.00165501
9.1525 0.00157826
9.165 0.00153262
9.1775 0.00151897
9.19 0.0015363
9.2025 0.0015836
9.215 0.00165934
9.2275 0.00176142
9.24 0.00188727
9.2525 0.00203413
9.265 0.00219923
9.2775 0.00237918
9.29 0.00257195
9.3025 0.00277491
9.315 0.00298587
9.3275 0.00320253
9.34 0.00342129
9.3525 0.00364046
9.365 0.00385829
9.3775 0.00407237
9.39 0.00428034
9.4025 0.00448007
9.415 0.00466978
9.4275 0.004848
9.44 0.00501265
9.4525 0.00516068
9.465 0.00528827
9.4775 0.00539382
9.49 0.00547572
9.5025 0.00553322
9.515 0.00556357
9.5275 0.00556598
9.54 0.00553367
9.5525 0.00546766
9.565 0.00536708
9.5775 0.00523155
9.59 0.00506017
9.6025 0.00485219
9.615 0.00460898
9.6275 0.00433325
9.64 0.00402747
9.6525 0.0036931
9.665 0.00333153
9.6775 0.00294419
9.69 0.00253503
9.7025 0.00210726
9.715 0.00166371
9.7275 0.00120617
9.74 0.000735923
9.7525 0.000255054
9.765 -0.000234305
9.7775 -0.000729807
9.79 -0.00123017
9.8025 -0.00173473
9.815 -0.00224293
9.8275 -0.00275371
9.84 -0.00326562
9.8525 -0.00377753
9.865 -0.00428869
9.8775 -0.00479703
9.89 -0.00523728
9.9025 -0.00539701
9.915 -0.00592103
9.9275 -0.00642982
9.94 -0.00700239
9.9525 -0.00757074
9.965 -0.008086
9.9775 -0.00861512
9.99 -0.00918615
10.0025 -0.00975679
10.015 -0.010307
10.0275 -0.010839
10.04 -0.0113596
10.0525 -0.0118905
10.065 -0.0124073
10.0775 -0.0128862
10.09 -0.0133415
10.1025 -0.0137897
10.115 -0.0142291
10.1275 -0.0146472
10.14 -0.0150372
10.1525 -0.0154031
10.165 -0.015752
10.1775 -0.0160838
10.19 -0.0163931
10.2025 -0.0166766
10.215 -0.0169371
10.2275 -0.0171784
10.24 -0.0174009
10.2525 -0.0176022
10.265 -0.0177817
10.2775 -0.0179421
10.29 -0.018086
10.3025 -0.0182149
10.315 -0.0183288
10.3275 -0.0184289
10.34 -0.0185178
10.3525 -0.0185984
10.365 -0.0186723
10.3775 -0.0187402
10.39 -0.0188022
10.4025 -0.0188592
10.415 -0.0189107
10.4275 -0.0189548
10.44 -0.0189904
10.4525 -0.0190153
10.465 -0.0190288
10.4775 -0.01903
10.49 -0.019019
10.5025 -0.0189924
10.515 -0.0189451
10.5275 -0.0188742
10.54 -0.0187751
10.5525 -0.0186455
10.565 -0.0184828
10.5775 -0.0182843
10.59 -0.0180501
10.6025 -0.0177793
10.615 -0.0174719
10.6275 -0.0171283
10.64 -0.016752
10.6525 -0.0163441
10.665 -0.0159053
10.6775 -0.0154388
10.69 -0.0149492
10.7025 -0.0144387
10.715 -0.0139099
10.7275 -0.0133661
10.74 -0.0128115
10.7525 -0.0122519
10.765 -0.0116921
10.7775 -0.01113
10.79 -0.0105695
10.8025 -0.010015
10.815 -0.00946795
10.8275 -0.00893147
10.84 -0.00840643
10.8525 -0.00789214
10.865 -0.00738864
10.8775 -0.00689591
10.89 -0.00641285
10.9025 -0.00593932
10.915 -0.00547379
10.9275 -0.005016
10.94 -0.00456638
10.9525 -0.00412149
10.965 -0.00367545
10.9775 -0.00322477
10.99 -0.0027679
11.0025 -0.00230251
11.015 -0.00182507
11.0275 -0.00133084
11.04 -0.00081427
11.0525 -0.000277993
11.065 0.000281895
11.0775 0.000866603
11.09 0.00147664
11.1025 0.00211278
11.115 0.002773
11.1275 0.00345573
11.14 0.00415957
11.1525 0.00488253
11.165 0.00562689
11.1775 0.00637191
11.19 0.00711939
11.2025 0.00786384
11.215 0.00859441
11.2275 0.0093051
11.24 0.00998745
11.2525 0.0106366
11.265 0.0112424
11.2775 0.0117981
11.29 0.0122976
11.3025 0.0127352
11.315 0.0131048
11.3275 0.0134017
11.34 0.0136229
11.3525 0.0137665
11.365 0.0138315
11.3775 0.0138178
11.39 0.0137274
11.4025 0.0135641
11.415 0.0133322
11.4275 0.013036
11.44 0.0126784
11.4525 0.0122667
11.465 0.0118111
11.4775 0.0113198
11.49 0.0107964
11.5025 0.010245
11.515 0.00967315
11.5275 0.00908762
11.54 0.0084925
11.5525 0.00788998
11.565 0.00728311
11.5775 0.00667662
11.59 0.00607552
11.6025 0.00548362
11.615 0.00490752
11.6275 0.00434834
11.64 0.00381025
11.6525 0.00329618
11.665 0.00281113
11.6775 0.00235996
11.69 0.0019462
11.7025 0.00157251
11.715 0.00124121
11.7275 0.000954517
11.74 0.000714822
11.7525 0.000524156
11.765 0.000383849
11.7775 0.000293941
11.79 0.000253236
11.8025 0.000259395
11.815 0.000310141
11.8275 0.000403305
11.84 0.000536289
11.8525 0.000703597
11.865 0.000899912
11.8775 0.00112305
11.89 0.00136878
11.9025 0.00163243
11.915 0.00190967
11.9275 0.00219658
11.94 0.00249051
11.9525 0.00278952
11.965 0.00309252
11.9775 0.00339749
11.99 0.00370265
12.0025 0.00400729
12.015 0.00431152
12.0275 0.00461766
12.04 0.00493249
12.0525 0.00525095
12.065 0.00557542
12.0775 0.00590783
12.09 0.00624649
12.1025 0.00658733
12.115 0.00693717
12.1275 0.00729681
12.14 0.00766372
12.1525 0.00803728
12.165 0.00841508
12.1775 0.00879642
12.19 0.00917888
12.2025 0.00956025
12.215 0.00993735
12.2275 0.0103061
12.24 0.0106616
12.2525 0.010999
12.265 0.0113147
12.2775 0.011605
12.29 0.0118648
12.3025 0.0120892
12.315 0.012274
12.3275 0.0124158
12.34 0.0125119
12.3525 0.0125602
12.365 0.0125586
12.3775 0.0125068
12.39 0.0124047
12.4025 0.0122542
12.415 0.0120576
12.4275 0.011817
12.44 0.0115347
12.4525 0.011216
12.465 0.0108685
12.4775 0.0104979
12.49 0.0101076
12.5025 0.00970235
12.515 0.00928822
12.5275 0.00887181
12.54 0.00845776
12.5525 0.00804919
12.565 0.00764838
12.5775 0.0072582
12.59 0.00688211
12.6025 0.00652264
12.615 0.00618243
12.6275 0.0058635
12.64 0.0055652
12.6525 0.00528831
12.665 0.00503327
12.6775 0.0048018
12.69 0.00459475
12.7025 0.00441257
12.715 0.00425532
12.7275 0.00412373
12.74 0.00401937
12.7525 0.00394433
12.765 0.00390037
12.7775 0.00388843
12.79 0.00390976
12.8025 0.00396628
12.815 0.00405962
12.8275 0.00419129
12.84 0.00436184
12.8525 0.00456954
12.865 0.00481421
12.8775 0.00509477
12.89 0.00540971
12.9025 0.00575565
12.915 0.00612903
12.9275 0.00652689
12.94 0.00694756
12.9525 0.007387
12.965 0.00784101
12.9775 0.00830487
12.99 0.00877199
13.0025 0.00924097
13.015 0.00971119
13.0275 0.0101806
13.04 0.0106458
13.0525 0.0111031
13.065 0.0115504
13.0775 0.011987
13.09 0.012413
13.1025 0.0128288
13.115 0.0132341
13.1275 0.013628
13.14 0.01401
13.1525 0.0143811
13.165 0.0147427
13.1775 0.0150964
13.19 0.0154432
13.2025 0.0157837
13.215 0.0161185
13.2275 0.0164486
13.24 0.0167751
13.2525 0.0170979
13.265 0.0174182
13.2775 0.0177364
13.29 0.018048
13.3025 0.018351
13.315 0.018644
13.3275 0.0189269
13.34 0.0191959
13.3525 0.0194469
13.365 0.0196748
13.3775 0.0198763
13.39 0.0200482
13.4025 0.020188
13.415 0.0202915
13.4275 0.0203533
13.44 0.020369
13.4525 0.0203351
13.465 0.0202487
13.4775 0.020108
13.49 0.0199107
13.5025 0.0196561
13.515 0.0193439
13.5275 0.0189745
13.54 0.0185473
13.5525 0.0180621
13.565 0.0175227
13.5775 0.0169353
13.59 0.0163044
13.6025 0.015633
13.615 0.0149251
13.6275 0.0141866
13.64 0.0134259
13.6525 0.0126494
13.665 0.0118657
13.6775 0.0110807
13.69 0.0102966
13.7025 0.00951912
13.715 0.00875264
13.7275 0.00800403
13.74 0.00728444
13.7525 0.0066004
13.765 0.0059477
13.7775 0.00532524
13.79 0.00473276
13.8025 0.00417153
13.815 0.00364643
13.8275 0.00315717
13.84 0.00270011
13.8525 0.00227121
13.865 0.00186784
13.8775 0.00148905
13.89 0.00113211
13.9025 0.000792757
13.915 0.000466517
13.9275 0.000147528
13.94 -0.000170129
13.9525 -0.000490659
13.965 -0.000818563
13.9775 -0.0011588
13.99 -0.00151609
14.0025 -0.0018963
14.015 -0.00229951
14.0275 -0.00272889
14.04 -0.00319065
14.0525 -0.00367757
14.065 -0.00419279
14.0775 -0.00474134
14.09 -0.00532248
14.1025 -0.00593116
14.115 -0.00656755
14.1275 -0.00722996
14.14 -0.00791695
14.1525 -0.0086256
14.165 -0.00935056
14.1775 -0.0100883
14.19 -0.0108342
14.2025 -0.011584
14.215 -0.0123316
14.2275 -0.013064
14.24 -0.0137743
14.2525 -0.0144604
14.265 -0.0151183
14.2775 -0.0157415
14.29 -0.0163179
14.3025 -0.0168396
14.315 -0.0173039
14.3275 -0.0177098
14.34 -0.0180561
14.3525 -0.018341
14.365 -0.018564
14.3775 -0.0187263
14.39 -0.0188331
14.4025 -0.0188824
14.415 -0.0188763
14.4275 -0.0188156
14.44 -0.0187028
14.4525 -0.0185404
14.465 -0.0183312
14.4775 -0.0180775
14.49 -0.0177825
14.5025 -0.0174545
14.515 -0.0170927
14.5275 -0.0166954
14.54 -0.0162639
14.5525 -0.0158004
14.565 -0.0153064
14.5775 -0.0147812
14.59 -0.0142227
14.6025 -0.0136309
14.615 -0.013005
14.6275 -0.0123454
14.64 -0.0116534
14.6525 -0.0109294
14.665 -0.0101749
14.6775 -0.00939302
14.69 -0.00858751
14.7025 -0.00776116
14.715 -0.00691859
14.7275 -0.00605925
14.74 -0.00518416
14.7525 -0.00430078
14.765 -0.00341822
14.7775 -0.00253688
14.79 -0.00165794
14.8025 -0.000779439
14.815 9.85501e-05
14.8275 0.000972544
14.84 0.00184022
14.8525 0.0027004
14.865 0.00355381
14.8775 0.00440312
14.89 0.00525053
14.9025 0.00609779
14.915 0.00693442
14.9275 0.00779255
14.94 0.00869133
14.9525 0.009574
14.965 0.0105091
14.9775 0.0114681
14.99 0.0124621
15.0025 0.013491
15.015 0.0145678
15.0275 0.0156908
15.04 0.0168595
15.0525 0.0180771
15.065 0.0193402
15.0775 0.0206525
15.09 0.022022
15.1025 0.0234216
15.115 0.0248095
15.1275 0.0255136
15.14 0.0268583
15.1525 0.0282688
15.165 0.0295875
15.1775 0.0310043
15.19 0.0324233
15.2025 0.0341674
15.215 0.035253
15.2275 0.0364527
15.24 0.0377614
15.2525 0.0388748
15.265 0.040023
15.2775 0.0412438
15.29 0.0423822
15.3025 0.0434983
15.315 0.0447424
15.3275 0.0459836
15.34 0.0471114
15.3525 0.0483264
15.365 0.0496241
15.3775 0.0509087
15.39 0.0522349
15.4025 0.0536466
15.415 0.0550841
15.4275 0.0565586
15.44 0.0580877
15.4525 0.0596683
15.465 0.0612985
15.4775 0.0629691
15.49 0.064675
15.5025 0.0664158
15.515 0.0681842
15.5275 0.0699723
15.54 0.0717767
15.5525 0.0735803
15.565 0.075375
15.5775 0.0771593
15.59 0.0789198
15.6025 0.0806488
15.615 0.0823368
15.6275 0.083976
15.64 0.0855581
15.6525 0.0870764
15.665 0.0885236
15.6775 0.0898939
15.69 0.091183
15.7025 0.0923874
15.715 0.0935044
15.7275 0.0945331
15.74 0.0954881
15.7525 0.0963328
15.765 0.0970845
15.7775 0.0977677
15.79 0.0983738
15.8025 0.0989036
15.815 0.0993565
15.8275 0.0997451
15.84 0.10008
15.8525 0.100357
15.865 0.100581
15.8775 0.100752
15.89 0.100878
15.9025 0.100967
15.915 0.101024
15.9275 0.101052
15.94 0.101054
15.9525 0.101037
15.965 0.101007
15.9775 0.10097
15.99 0.100929
16.0025 0.100888
16.0125 0.100858
16.0225 0.10083
16.0325 0.100806
16.0425 0.100789
16.0525 0.100781
16.0625 0.100778
16.0725 0.100782
16.0825 0.100792
16.0925 0.100806
16.1025 0.100825
16.1125 0.100845
16.1225 0.100864
16.1325 0.100881
16.1425 0.100894
16.1525 0.100902
16.1625 0.100905
16.1725 0.1009
16.1825 0.100886
16.1925 0.100863
16.2025 0.100828
16.2125 0.100785
16.2225 0.100732
16.2325 0.100671
16.2425 0.100602
16.2525 0.100525
16.2625 0.100442
16.2725 0.100356
16.2825 0.100268
16.2925 0.100181
16.3025 0.100095
16.3125 0.100013
16.3225 0.0999356
16.3325 0.0998651
16.3425 0.0998032
16.3525 0.0997508
16.3625 0.099709
16.3725 0.0996788
16.3825 0.0996602
16.3925 0.0996525
16.4025 0.0996552
16.4125 0.0996681
16.4225 0.099691
16.4325 0.0997222
16.4425 0.0997578
16.4525 0.0997969
16.4625 0.099838
16.4725 0.09988
16.4825 0.0999222
16.4925 0.0999627
16.5025 0.1
16.5125 0.100034
16.5225 0.100062
16.5325 0.100086
16.5425 0.100107
16.5525 0.100124
16.5625 0.100137
16.5725 0.100149
16.5825 0.10016
16.5925 0.100171
16.6025 0.100183
16.6125 0.1002
16.6225 0.10022
16.6325 0.100247
16.6425 0.100281
16.6525 0.100324
16.6625 0.100379
16.6725 0.100445
16.6825 0.100523
16.6925 0.100613
16.7025 0.100717
16.7125 0.100834
16.7225 0.100965
16.7325 0.10111
