-0.0367298 -1.84846e-05 -0.0987133 -3.10395e-05 -0.02987 -5.36231e-06
-0.0371176 -1.86798e-05 -0.0985907 -3.1001e-05 -0.0299051 -5.3686e-06
-0.0379975 -1.91226e-05 -0.0983224 -3.09166e-05 -0.0299617 -5.37876e-06
-0.0398046 -2.0032e-05 -0.0978032 -3.07533e-05 -0.0300406 -5.39293e-06
-0.0418449 -2.10588e-05 -0.0972899 -3.05919e-05 -0.0300871 -5.40128e-06
-0.0444546 -2.23722e-05 -0.0967404 -3.04192e-05 -0.0300898 -5.40175e-06
-0.0476695 -2.39901e-05 -0.0962024 -3.025e-05 -0.0300101 -5.38745e-06
-0.0515265 -2.59312e-05 -0.0957317 -3.0102e-05 -0.0298078 -5.35114e-06
-0.0560675 -2.82164e-05 -0.0953991 -2.99974e-05 -0.0294466 -5.2863e-06
-0.0613367 -3.08682e-05 -0.0952858 -2.99618e-05 -0.028892 -5.18672e-06
-0.0673722 -3.39056e-05 -0.0954784 -3.00223e-05 -0.0281077 -5.04593e-06
-0.0741877 -3.73356e-05 -0.0960721 -3.0209e-05 -0.0270579 -4.85747e-06
-0.0817537 -4.11432e-05 -0.0971778 -3.05567e-05 -0.0257136 -4.61614e-06
-0.0899645 -4.52754e-05 -0.0989117 -3.11019e-05 -0.0240623 -4.31969e-06
-0.0986734 -4.96583e-05 -0.101437 -3.18961e-05 -0.0220881 -3.96528e-06
-0.107668 -5.4185e-05 -0.104918 -3.29907e-05 -0.0197952 -3.55366e-06
-0.116662 -5.87114e-05 -0.109503 -3.44322e-05 -0.0172133 -3.09016e-06
-0.125344 -6.30805e-05 -0.115315 -3.62597e-05 -0.0144029 -2.58562e-06
-0.133412 -6.71408e-05 -0.122444 -3.85013e-05 -0.0114618 -2.05764e-06
-0.140577 -7.07464e-05 -0.130925 -4.11683e-05 -0.00873886 -1.56881e-06
-0.146552 -7.37538e-05 -0.140739 -4.42542e-05 -0.00620064 -1.11315e-06
-0.151035 -7.60095e-05 -0.151813 -4.77363e-05 -0.00404912 -7.26904e-07
-0.153675 -7.73382e-05 -0.164033 -5.15788e-05 -0.00251049 -4.50686e-07
-0.154055 -7.75296e-05 -0.177243 -5.57324e-05 -0.00184674 -3.3153e-07
-0.151693 -7.63406e-05 -0.191253 -6.01378e-05 -0.0023509 -4.22037e-07
-0.146091 -7.35214e-05 -0.2058 -6.47119e-05 -0.00433566 -7.78343e-07
-0.136878 -6.88853e-05 -0.220503 -6.93353e-05 -0.00816619 -1.46601e-06
-0.123991 -6.23995e-05 -0.234858 -7.3849e-05 -0.0146438 -2.62887e-06
-0.107806 -5.42542e-05 -0.248161 -7.80321e-05 -0.0239477 -4.29912e-06
-0.0890978 -4.48392e-05 -0.259554 -8.16143e-05 -0.0364285 -6.53969e-06
-0.0688109 -3.46297e-05 -0.268124 -8.43092e-05 -0.0523553 -9.39889e-06
-0.047833 -2.40724e-05 -0.27303 -8.58519e-05 -0.071967 -1.29196e-05
-0.0269718 -1.35738e-05 -0.273608 -8.60335e-05 -0.0953493 -1.71172e-05
-0.00690627 -3.47564e-06 -0.26941 -8.47137e-05 -0.122395 -2.19725e-05
0.0119122 5.99494e-06 -0.260203 -8.18185e-05 -0.152772 -2.74258e-05
0.0294874 1.48398e-05 -0.245932 -7.7331e-05 -0.185948 -3.33816e-05
0.0455336 2.29152e-05 -0.22675 -7.12996e-05 -0.221248 -3.97188e-05
0.0597632 3.00763e-05 -0.203209 -6.38973e-05 -0.257725 -4.62671e-05
0.0727853 3.66298e-05 -0.175843 -5.52922e-05 -0.294422 -5.28549e-05
0.0847595 4.26559e-05 -0.145317 -4.56937e-05 -0.330152 -5.92693e-05
0.0958098 4.82171e-05 -0.11248 -3.53684e-05 -0.363762 -6.53031e-05
0.106066 5.33785e-05 -0.0781787 -2.45826e-05 -0.394032 -7.07372e-05
0.115513 5.8133e-05 -0.0432448 -1.35979e-05 -0.419794 -7.5362e-05
0.123949 6.23786e-05 -0.00846526 -2.66183e-06 -0.439911 -7.89733e-05
0.131097 6.59757e-05 0.0254208 7.99334e-06 -0.453324 -8.13813e-05
0.136791 6.88412e-05 0.0577723 1.8166e-05 -0.459072 -8.24133e-05
0.141159 7.10396e-05 0.0862834 2.7131e-05 -0.456142 -8.18872e-05
0.144646 7.27944e-05 0.111517 3.50656e-05 -0.444188 -7.97412e-05
0.148101 7.45332e-05 0.132792 4.17551e-05 -0.422579 -7.5862e-05
0.152661 7.68277e-05 0.149416 4.69826e-05 -0.391014 -7.01953e-05
0.16206 8.15582e-05 0.162638 5.114e-05 -0.337608 -6.06077e-05
0.1784 8.97812e-05 0.166649 5.24011e-05 -0.269373 -4.83582e-05
0.204403 0.000102868 0.161453 5.07675e-05 -0.18771 -3.3698e-05
0.24188 0.000121728 0.14808 4.65625e-05 -0.0948645 -1.70302e-05
0.291375 0.000146637 0.128626 4.04452e-05 0.00322892 5.79661e-07
0.351969 0.000177132 0.106202 3.33941e-05 0.100574 1.80551e-05
0.421206 0.000211976 0.0848895 2.66927e-05 0.197612 3.54755e-05
0.495322 0.000249275 0.0693639 2.18109e-05 0.291076 5.22543e-05
0.570083 0.000286899 0.0641897 2.01839e-05 0.377192 6.7714e-05
0.64188 0.000323032 0.0732246 2.30248e-05 0.452775 8.12828e-05
0.708419 0.000356518 0.0991853 3.11879e-05 0.51555 9.25522e-05
0.768703 0.000386856 0.14342 4.50972e-05 0.564634 0.000101364
0.822697 0.000414029 0.205925 6.47513e-05 0.600183 0.000107746
0.871 0.000438338 0.285512 8.97767e-05 0.623326 0.0001119
0.914444 0.000460202 0.380014 0.000119492 0.636129 0.000114199
0.953631 0.000479923 0.486526 0.000152984 0.641577 0.000115177
0.988912 0.000497678 0.601581 0.000189162 0.643304 0.000115487
1.02085 0.00051375 0.721208 0.000226777 0.64533 0.00011585
1.05059 0.000528719 0.840996 0.000264444 0.651819 0.000117015
1.07982 0.000543427 0.95636 0.000300719 0.666892 0.000119721
1.11022 0.00055873 1.06297 0.00033424 0.694317 0.000124645
1.14286 0.000575155 1.15721 0.000363874 0.737164 0.000132337
1.17774 0.000592707 1.23651 0.00038881 0.797541 0.000143176
1.21422 0.000611065 1.2993 0.000408555 0.87654 0.000157358
1.25155 0.000629852 1.3449 0.000422892 0.974216 0.000174892
1.28903 0.000648715 1.37344 0.000431865 1.08957 0.000195601
1.32606 0.00066735 1.38584 0.000435765 1.22058 0.00021912
1.36216 0.000685519 1.38375 0.000435109 1.3643 0.000244921
1.39703 0.000703069 1.3694 0.000430597 1.51702 0.000272338
1.43049 0.000719905 1.34549 0.000423077 1.67442 0.000300594
1.46235 0.00073594 1.31506 0.00041351 1.83177 0.000328842
1.49246 0.000751091 1.2814 0.000402923 1.98414 0.000356196
1.52081 0.000765363 1.24772 0.000392333 2.12667 0.000381782
1.54777 0.00077893 1.21702 0.000382681 2.25475 0.000404776
1.57402 0.000792138 1.19191 0.000374784 2.36431 0.000424444
1.60027 0.000805351 1.17458 0.000369336 2.45188 0.000440165
1.62671 0.000818657 1.16693 0.000366932 2.51476 0.000451453
1.65246 0.000831614 1.17062 0.00036809 2.55108 0.000457974
1.67561 0.000843267 1.18692 0.000373215 2.55995 0.000459566
1.69381 0.000852427 1.21648 0.000382512 2.54155 0.000456263
1.70327 0.000857186 1.24954 0.000392907 2.50806 0.00045025
1.70717 0.000859147 1.30158 0.00040927 2.44473 0.00043888
1.70121 0.000856151 1.36339 0.000428706 2.36074 0.000423803
1.68502 0.000848002 1.43171 0.000450188 2.26043 0.000405795
1.65862 0.000834713 1.5025 0.000472449 2.14881 0.000385757
1.62211 0.000816342 1.5713 0.000494082 2.03133 0.000364666
1.57571 0.000792989 1.63341 0.000513611 1.91355 0.000343523
1.51966 0.000764784 1.68416 0.000529568 1.80088 0.000323297
1.45417 0.000731824 1.71914 0.00054057 1.69823 0.000304869
1.37944 0.000694217 1.73448 0.00054539 1.60979 0.000288991
1.29575 0.000652096 1.72691 0.000543012 1.53875 0.000276239
1.20333 0.000605586 1.69405 0.000532679 1.48718 0.00026698
1.10258 0.000554882 1.63439 0.00051392 1.45583 0.000261353
0.994424 0.000500453 1.5473 0.000486535 1.44417 0.000259259
0.880751 0.000443245 1.4329 0.000450562 1.45032 0.000260364
0.764154 0.000384567 1.29216 0.000406309 1.47114 0.0002641
0.647066 0.000325642 1.12722 0.000354445 1.50216 0.00026967
0.531386 0.000267424 0.941432 0.000296025 1.53783 0.000276073
0.418648 0.000210688 0.739169 0.000232425 1.57169 0.000282151
0.310147 0.000156084 0.52558 0.000165264 1.59667 0.000286636
0.206902 0.000104125 0.306372 9.63359e-05 1.60547 0.000288217
0.109502 5.51077e-05 0.0876196 2.75512e-05 1.59089 0.000285599
0.0167602 8.43473e-06 -0.124083 -3.90167e-05 1.54607 0.000277552
-0.0716711 -3.60691e-05 -0.325918 -0.000102482 1.46613 0.000263201
-0.156775 -7.88983e-05 -0.515476 -0.000162087 1.34518 0.000241488
-0.240056 -0.00012081 -0.681229 -0.000214206 1.18069 0.000211959
-0.322461 -0.000162281 -0.819685 -0.000257743 0.971449 0.000174396
-0.403015 -0.000202821 -0.930144 -0.000292475 0.717817 0.000128863
-0.480348 -0.000241739 -1.01301 -0.000318532 0.422488 7.58456e-05
-0.553567 -0.000278587 -1.06944 -0.000336276 0.0905921 1.62632e-05
-0.62274 -0.000313399 -1.10155 -0.000346372 -0.295489 -5.30465e-05
-0.689035 -0.000346763 -1.1129 -0.000349943 -0.713554 -0.000128098
-0.754151 -0.000379533 -1.10715 -0.000348132 -1.14674 -0.000205864
-0.81962 -0.000412481 -1.08868 -0.000342325 -1.58416 -0.000284391
-0.886966 -0.000446373 -1.06277 -0.000334178 -2.01518 -0.000361768
-0.957879 -0.000482061 -1.03487 -0.000325404 -2.42959 -0.000436163
-1.03411 -0.000520424 -1.01025 -0.000317664 -2.81603 -0.000505537
-1.11724 -0.00056226 -0.994076 -0.000312578 -3.16414 -0.00056803
-1.20831 -0.000608093 -0.991372 -0.000311728 -3.46503 -0.000622047
-1.3073 -0.000657912 -1.0068 -0.000316579 -3.71152 -0.000666297
-1.41276 -0.000710981 -1.04451 -0.000328435 -3.89773 -0.000699726
-1.52187 -0.000765895 -1.10797 -0.00034839 -4.01969 -0.00072162
-1.63127 -0.000820948 -1.19949 -0.000377168 -4.07593 -0.000731717
-1.73776 -0.000874544 -1.31966 -0.000414955 -4.06776 -0.000730249
-1.83885 -0.000925415 -1.46714 -0.000461329 -3.99893 -0.000717892
-1.93292 -0.00097276 -1.63863 -0.000515254 -3.87562 -0.000695757
-2.0193 -0.00101623 -1.82905 -0.000575129 -3.70626 -0.000665352
-2.09807 -0.00105587 -2.03177 -0.000638873 -3.50119 -0.000628537
-2.16995 -0.00109205 -2.23905 -0.000704049 -3.27209 -0.000587409
-2.23604 -0.00112531 -2.44254 -0.000768036 -3.03131 -0.000544185
-2.29732 -0.00115615 -2.63393 -0.000828216 -2.79125 -0.000501089
-2.35441 -0.00118488 -2.80544 -0.000882145 -2.56379 -0.000460256
-2.40769 -0.00121169 -2.9502 -0.000927663 -2.35975 -0.000423625
-2.45733 -0.00123667 -3.0626 -0.000963006 -2.18831 -0.000392848
-2.4942 -0.00125523 -3.13596 -0.000986076 -2.0574 -0.000369348
-2.49375 -0.001255 -3.14781 -0.000989802 -1.98048 -0.000355537
-2.49107 -0.00125365 -3.12377 -0.000982241 -1.94724 -0.000349571
-2.50917 -0.00126276 -3.07905 -0.000968179 -1.95294 -0.000350594
-2.5271 -0.00127179 -3.00234 -0.000944057 -2.00178 -0.000359362
-2.5349 -0.00127571 -2.89704 -0.000910949 -2.08905 -0.000375029
-2.48839 -0.00125231 -2.79122 -0.000877675 -2.20061 -0.000395057
-2.43961 -0.00122775 -2.66654 -0.000838471 -2.33795 -0.000419712
-2.38191 -0.00119872 -2.52189 -0.000792987 -2.49465 -0.000447842
-2.32163 -0.00116838 -2.36752 -0.000744446 -2.6611 -0.000477724
-2.26053 -0.00113763 -2.2098 -0.000694851 -2.82824 -0.00050773
-2.1992 -0.00110677 -2.05193 -0.000645212 -2.98698 -0.000536227
-2.14133 -0.00107764 -1.89981 -0.000597378 -3.12848 -0.00056163
-2.08891 -0.00105126 -1.75925 -0.000553181 -3.24523 -0.000582589
-2.04328 -0.0010283 -1.6349 -0.00051408 -3.32988 -0.000597785
-2.0066 -0.00100984 -1.53074 -0.000481327 -3.37574 -0.000606017
-1.98028 -0.000996591 -1.44982 -0.000455884 -3.37866 -0.000606541
-1.96505 -0.00098893 -1.39467 -0.000438542 -3.33661 -0.000598992
-1.96161 -0.000987196 -1.36696 -0.000429828 -3.24857 -0.000583188
-1.97 -0.00099142 -1.36697 -0.000429832 -3.1152 -0.000559244
-1.98975 -0.00100136 -1.39406 -0.00043835 -2.93954 -0.000527711
-2.01837 -0.00101576 -1.44736 -0.00045511 -2.72662 -0.000489487
-2.04282 -0.00102806 -1.52812 -0.000480505 -2.4819 -0.000445553
-2.0609 -0.00103717 -1.63296 -0.000513468 -2.21367 -0.0003974
-2.07166 -0.00104258 -1.75625 -0.000552236 -1.93165 -0.000346772
-2.075 -0.00104426 -1.89101 -0.000594611 -1.64686 -0.000295646
-2.07273 -0.00104312 -2.00212 -0.00062955 -1.42489 -0.000255799
-2.0665 -0.00103998 -2.11189 -0.000664065 -1.21456 -0.000218039
-2.05671 -0.00103506 -2.21625 -0.000696881 -1.02149 -0.000183379
-2.04373 -0.00102852 -2.31132 -0.000726773 -0.850986 -0.00015277
-2.02786 -0.00102054 -2.39359 -0.000752643 -0.707901 -0.000127083
-2.00934 -0.00101122 -2.46006 -0.000773544 -0.596385 -0.000107064
-1.98822 -0.00100059 -2.50827 -0.000788702 -0.519663 -9.32906e-05
-1.96426 -0.000988532 -2.5364 -0.000797547 -0.479932 -8.61581e-05
-1.93688 -0.000974753 -2.54339 -0.000799746 -0.478379 -8.58792e-05
-1.90514 -0.000958779 -2.52898 -0.000795216 -0.515191 -9.24878e-05
-1.86786 -0.000940016 -2.49366 -0.000784108 -0.589523 -0.000105832
-1.82387 -0.00091788 -2.43846 -0.000766753 -0.6995 -0.000125575
-1.77237 -0.000891959 -2.36487 -0.000743611 -0.842312 -0.000151213
-1.71305 -0.00086211 -2.27462 -0.000715232 -1.01435 -0.000182098
-1.64629 -0.00082851 -2.16966 -0.00068223 -1.21136 -0.000217465
-1.57296 -0.000791606 -2.05212 -0.000645272 -1.42848 -0.000256443
-1.49418 -0.000751959 -1.92432 -0.000605087 -1.66035 -0.000298068
-1.411 -0.000710098 -1.78883 -0.000562481 -1.90119 -0.000341304
-1.32428 -0.000666453 -1.64841 -0.000518329 -2.14494 -0.000385063
-1.23471 -0.000621377 -1.50599 -0.000473544 -2.38546 -0.00042824
-1.14297 -0.00057521 -1.36442 -0.00042903 -2.61664 -0.000469742
-1.04977 -0.000528308 -1.22646 -0.000385651 -2.83258 -0.000508508
-0.955822 -0.000481026 -1.09465 -0.000344202 -3.02772 -0.00054354
-0.861735 -0.000433675 -0.97126 -0.000305404 -3.19695 -0.000573921
-0.768033 -0.000386519 -0.858288 -0.000269881 -3.33578 -0.000598844
-0.675158 -0.000339779 -0.757337 -0.000238138 -3.4404 -0.000617624
-0.583527 -0.000293665 -0.669566 -0.000210539 -3.50777 -0.000629719
-0.493552 -0.000248384 -0.595643 -0.000187295 -3.53572 -0.000634736
-0.405638 -0.000204141 -0.535738 -0.000168458 -3.52295 -0.000632445
-0.320174 -0.00016113 -0.489527 -0.000153927 -3.46908 -0.000622773
-0.237528 -0.000119538 -0.456209 -0.000143451 -3.37459 -0.000605811
-0.158032 -7.95309e-05 -0.434541 -0.000136638 -3.24084 -0.0005818
-0.0819872 -4.12607e-05 -0.422884 -0.000132972 -3.06996 -0.000551123
-0.00968747 -4.8753e-06 -0.419253 -0.00013183 -2.86482 -0.000514296
0.0473212 2.38148e-05 -0.420041 -0.000132078 -2.62879 -0.000471924
0.0764605 3.84794e-05 -0.416572 -0.000130987 -2.36823 -0.000425148
0.105785 5.32373e-05 -0.414062 -0.000130198 -2.08392 -0.000374107
0.133322 6.70956e-05 -0.413013 -0.000129868 -1.78036 -0.000319612
0.157825 7.94268e-05 -0.412499 -0.000129707 -1.4622 -0.000262496
0.181199 9.11898e-05 -0.409412 -0.000128736 -1.13368 -0.000203519
0.20499 0.000103163 -0.401522 -0.000126255 -0.799445 -0.000143517
0.229689 0.000115593 -0.388314 -0.000122102 -0.464146 -8.33241e-05
0.2562 0.000128935 -0.369193 -0.000116089 -0.132307 -2.3752e-05
0.285864 0.000143864 -0.34262 -0.000107734 0.17459 3.13426e-05
0.319569 0.000160826 -0.307482 -9.66848e-05 0.46312 8.31399e-05
0.357653 0.000179992 -0.262795 -8.26334e-05 0.737363 0.000132372
0.400483 0.000201546 -0.207809 -6.53436e-05 0.995117 0.000178645
0.448292 0.000225607 -0.145709 -4.5817e-05 1.23405 0.000221538
0.501025 0.000252145 -0.074379 -2.33878e-05 1.4517 0.000260611
0.558478 0.000281059 0.00739455 2.32515e-06 1.64597 0.000295487
0.620518 0.000312281 0.0999196 3.14188e-05 1.81598 0.000326007
0.686978 0.000345728 0.202745 6.37514e-05 1.96148 0.000352128
0.75762 0.000381279 0.314767 9.89758e-05 2.08255 0.000373862
0.832144 0.000418784 0.434796 0.000136718 2.17969 0.0003913
0.910101 0.000458016 0.561764 0.000176642 2.25392 0.000404626
0.990827 0.000498642 0.694491 0.000218376 2.30674 0.000414109
1.07346 0.000540227 0.831479 0.000261451 2.34001 0.000420082
1.15699 0.000582268 0.971024 0.00030533 2.35594 0.000422941
1.24036 0.000624221 1.1114 0.000349471 2.35705 0.000423141
1.32243 0.000665523 1.25093 0.000393344 2.34608 0.000421171
1.40206 0.000705598 1.38787 0.000436404 2.32582 0.000417535
1.47813 0.000743882 1.52039 0.000478073 2.29914 0.000412745
1.54961 0.000779854 1.64662 0.000517765 2.26891 0.000407318
1.61558 0.000813053 1.76476 0.000554912 2.23802 0.000401772
1.67527 0.000843093 1.87311 0.000588981 2.20918 0.000396596
1.72809 0.000869676 1.97005 0.000619464 2.18486 0.000392229
1.77366 0.000892611 2.05407 0.000645884 2.16719 0.000389057
1.81183 0.00091182 2.1238 0.00066781 2.158 0.000387406
1.84266 0.000927334 2.17811 0.000684887 2.15874 0.00038754
1.86639 0.000939278 2.21613 0.000696842 2.17045 0.000389641
1.8834 0.000947835 2.23729 0.000703497 2.19362 0.000393802
1.89411 0.000953228 2.24138 0.000704782 2.22824 0.000400016
1.89905 0.000955712 2.22851 0.000700735 2.27375 0.000408187
1.89872 0.000955545 2.19901 0.000691458 2.32923 0.000418146
1.8938 0.000953074 2.15365 0.000677197 2.39316 0.000429623
1.88528 0.000948783 2.09367 0.000658334 2.46358 0.000442265
1.87413 0.000943172 2.02061 0.000635363 2.53808 0.00045564
1.86122 0.000936674 1.93633 0.000608862 2.61396 0.000469261
1.84731 0.000929677 1.84297 0.000579506 2.68822 0.000482593
1.83311 0.000922527 1.74296 0.000548059 2.75769 0.000495065
1.81917 0.000915515 1.63889 0.000515333 2.81912 0.000506092
1.80604 0.000908906 1.53339 0.00048216 2.86926 0.000515094
1.79424 0.000902967 1.42911 0.000449372 2.90504 0.000521517
1.78432 0.000897974 1.32863 0.000417775 2.92358 0.000524845
1.77678 0.000894177 1.23435 0.00038813 2.92236 0.000524626
1.77204 0.000891795 1.14849 0.000361133 2.89926 0.000520479
1.77046 0.000891001 1.07302 0.000337402 2.85265 0.000512112
1.77232 0.000891934 1.00959 0.000317458 2.78148 0.000499335
1.77783 0.000894709 0.959511 0.000301709 2.68528 0.000482065
1.78723 0.000899441 0.923656 0.000290435 2.56425 0.000460337
1.80079 0.000906262 0.902489 0.00028378 2.41923 0.000434304
1.81864 0.000915248 0.896024 0.000281747 2.25176 0.000404239
1.84039 0.000926193 0.903318 0.00028404 2.06444 0.000370611
1.86615 0.000939156 0.924571 0.000290723 1.85937 0.000333797
1.89676 0.000954562 0.95864 0.000301436 1.63976 0.000294372
1.92887 0.00097072 1.00467 0.000315908 1.40926 0.000252993
1.96279 0.000987789 1.06099 0.000333619 1.17213 0.000210422
1.99985 0.00100644 1.12532 0.000353848 0.9331 0.000167511
2.03824 0.00102576 1.19592 0.000376047 0.696369 0.000125013
2.07182 0.00104266 1.27047 0.000399486 0.466659 8.37751e-05
2.10153 0.00105761 1.34822 0.000423934 0.248139 4.45463e-05
2.12653 0.00107019 1.42768 0.00044892 0.0455435 8.17603e-06
2.14513 0.00107956 1.5067 0.000473768 -0.143562 -2.57724e-05
2.15544 0.00108474 1.58299 0.000497757 -0.314044 -5.63776e-05
2.15638 0.00108522 1.65445 0.000520226 -0.454787 -8.16439e-05
2.14722 0.00108061 1.71933 0.000540627 -0.561741 -0.000100845
2.12701 0.00107044 1.77526 0.000558216 -0.631278 -0.000113328
2.09556 0.00105461 1.81988 0.000572246 -0.660846 -0.000118636
2.05353 0.00103346 1.85126 0.000582111 -0.649048 -0.000116518
2.00181 0.00100743 1.86778 0.000587308 -0.595213 -0.000106853
1.94124 0.000976944 1.86812 0.000587414 -0.499208 -8.96185e-05
1.87277 0.000942485 1.85132 0.000582131 -0.361729 -6.4938e-05
1.79761 0.000904665 1.81693 0.000571318 -0.184502 -3.31221e-05
1.7171 0.000864143 1.76504 0.000555002 0.0183098 3.28699e-06
1.63266 0.000821652 1.6959 0.00053326 0.246453 4.42436e-05
1.54589 0.000777981 1.61056 0.000506425 0.500535 8.98567e-05
1.45835 0.000733928 1.5105 0.000474962 0.77611 0.000139328
1.37137 0.000690154 1.39767 0.000439484 1.06783 0.000191698
1.2859 0.00064714 1.2745 0.000400754 1.3694 0.000245837
1.20266 0.000605247 1.14387 0.000359681 1.67408 0.000300533
1.12216 0.000564739 1.00903 0.00031728 1.97508 0.000354568
1.04473 0.000525768 0.87334 0.000274614 2.26579 0.000406758
0.970448 0.000488386 0.740225 0.000232757 2.53974 0.000455937
0.899304 0.000452582 0.613037 0.000192764 2.79053 0.00050096
0.831253 0.000418335 0.494944 0.000155631 3.01218 0.00054075
0.766299 0.000385646 0.388774 0.000122246 3.19933 0.000574348
0.704488 0.00035454 0.296897 9.33567e-05 3.34751 0.00060095
0.645829 0.000325019 0.221178 6.95474e-05 3.45319 0.000619921
0.590214 0.00029703 0.162953 5.12392e-05 3.51374 0.000630791
0.537432 0.000270467 0.123 3.86762e-05 3.5275 0.000633261
0.487209 0.000245192 0.101479 3.19092e-05 3.49385 0.000627221
0.439237 0.00022105 0.0979049 3.07853e-05 3.41329 0.000612759
0.393185 0.000197874 0.111156 3.49521e-05 3.28742 0.000590161
0.348689 0.000175481 0.139524 4.38722e-05 3.11882 0.000559895
0.305343 0.000153667 0.180776 5.68434e-05 2.91102 0.00052259
0.262653 0.000132183 0.23223 7.30226e-05 2.66829 0.000479015
0.220013 0.000110723 0.290844 9.14531e-05 2.3956 0.000430062
0.176686 8.89186e-05 0.353311 0.000111096 2.09851 0.000376728
0.131825 6.63421e-05 0.416164 0.000130859 1.78297 0.000320081
0.107822 5.42624e-05 0.470107 0.000147821 1.45617 0.000261414
0.0900709 4.53289e-05 0.513967 0.000161612 1.12354 0.000201699
0.0677101 3.40757e-05 0.547692 0.000172217 0.790681 0.000141944
0.0414436 2.08568e-05 0.57124 0.000179621 0.462296 8.2992e-05
0.0108961 5.48354e-06 0.582062 0.000183024 0.143672 2.57921e-05
-0.025251 -1.27078e-05 0.576615 0.000181311 -0.172467 -3.09615e-05
-0.067046 -3.37415e-05 0.552859 0.000173842 -0.481857 -8.65036e-05
-0.113264 -5.70008e-05 0.510436 0.000160502 -0.767874 -0.00013785
-0.163046 -8.20544e-05 0.449901 0.000141467 -1.02692 -0.000184354
-0.21835 -0.000109886 0.369771 0.000116271 -1.25626 -0.000225525
-0.278288 -0.000140051 0.269408 8.47128e-05 -1.45506 -0.000261214
-0.342212 -0.000172221 0.143089 4.4993e-05 -1.62218 -0.000291216
-0.409615 -0.000206142 -0.00216093 -6.79485e-07 -1.75958 -0.000315881
-0.479912 -0.00024152 -0.163608 -5.14451e-05 -1.86717 -0.000335197
-0.552633 -0.000278117 -0.33914 -0.00010664 -1.94712 -0.000349549
-0.626862 -0.000315474 -0.526533 -0.000165564 -2.00265 -0.000359518
-0.701628 -0.000353101 -0.722998 -0.00022734 -2.03751 -0.000365776
-0.775703 -0.000390379 -0.925192 -0.000290918 -2.0554 -0.000368989
-0.84695 -0.000426235 -1.12981 -0.000355258 -2.06016 -0.000369842
-0.915134 -0.000460549 -1.33302 -0.000419156 -2.0563 -0.00036915
-0.980218 -0.000493303 -1.53097 -0.000481401 -2.04862 -0.000367771
-1.04249 -0.000524641 -1.71963 -0.000540723 -2.04175 -0.000366538
-1.10251 -0.00055485 -1.89497 -0.000595857 -2.03998 -0.000366221
-1.16095 -0.000584257 -2.05332 -0.000645649 -2.04717 -0.000367511
-1.21835 -0.000613143 -2.19162 -0.000689136 -2.06666 -0.00037101
-1.27511 -0.000641709 -2.30747 -0.000725564 -2.10113 -0.000377198
-1.32699 -0.00066782 -2.40059 -0.000754844 -2.15212 -0.000386352
-1.36972 -0.000689325 -2.47161 -0.000777174 -2.21981 -0.000398502
-1.40827 -0.000708724 -2.51813 -0.000791803 -2.3059 -0.000413959
-1.44233 -0.000725866 -2.53991 -0.000798653 -2.40948 -0.000432553
-1.47212 -0.000740859 -2.53782 -0.000797993 -2.5288 -0.000453973
-1.49743 -0.000753597 -2.51313 -0.000790231 -2.66197 -0.000477881
-1.51815 -0.000764023 -2.46778 -0.00077597 -2.8064 -0.000503809
-1.53462 -0.000772311 -2.40414 -0.000755961 -2.95859 -0.000531129
-1.54734 -0.000778713 -2.32469 -0.000730977 -3.11443 -0.000559106
-1.55681 -0.000783479 -2.2321 -0.000701862 -3.26959 -0.000586961
-1.56369 -0.000786943 -2.12955 -0.000669619 -3.4196 -0.000613892
-1.5688 -0.000789511 -2.02055 -0.000635343 -3.55983 -0.000639066
-1.57367 -0.000791962 -1.90738 -0.000599759 -3.69644 -0.00066359
-1.57691 -0.000793596 -1.7825 -0.00056049 -3.49627 -0.000627654
-1.58689 -0.000798614 -1.6619 -0.00052257 -2.99927 -0.000538432
-1.58621 -0.000798275 -1.56606 -0.000492435 -2.96116 -0.000531592
-1.59131 -0.000800842 -1.47945 -0.000465199 -3.29019 -0.000590659
-1.60011 -0.000805268 -1.39386 -0.000438287 -3.64663 -0.000654648
-1.60892 -0.000809702 -1.31595 -0.000413788 -3.67026 -0.000658891
-1.62011 -0.000815332 -1.26192 -0.0003968 -3.41085 -0.00061232
-1.63395 -0.000822301 -1.23501 -0.000388337 -3.16215 -0.000567672
-1.65091 -0.000830834 -1.22344 -0.0003847 -3.1059 -0.000557575
-1.66994 -0.000840413 -1.22032 -0.000383718 -3.15484 -0.000566361
-1.69133 -0.000851174 -1.23202 -0.000387398 -3.10754 -0.00055787
-1.71488 -0.00086303 -1.26733 -0.000398501 -2.88195 -0.000517372
-1.73656 -0.000873941 -1.3251 -0.000416665 -2.57183 -0.000461698
-1.75663 -0.000884038 -1.39639 -0.000439082 -2.3128 -0.000415197
-1.77629 -0.000893934 -1.47486 -0.000463757 -2.13948 -0.000384082
-1.79557 -0.000903634 -1.56092 -0.000490818 -1.97808 -0.000355108
-1.81391 -0.000912868 -1.65656 -0.000520889 -1.76039 -0.000316027
-1.83138 -0.000921658 -1.75933 -0.000553206 -1.49604 -0.000268572
-1.84849 -0.000930269 -1.86247 -0.000585637 -1.24746 -0.000223946
-1.86535 -0.000938756 -1.96017 -0.000616358 -1.05961 -0.000190223
-1.88161 -0.000946937 -2.05025 -0.000644682 -0.925112 -0.000166077
-1.89689 -0.000954628 -2.13241 -0.000670516 -0.803806 -0.0001443
-1.91053 -0.00096149 -2.20494 -0.000693324 -0.671599 -0.000120566
-1.92168 -0.000967103 -2.26458 -0.000712077 -0.535499 -9.61334e-05
-1.92949 -0.000971031 -2.30884 -0.000725993 -0.42771 -7.6783e-05
-1.93322 -0.000972909 -2.33704 -0.000734863 -0.372841 -6.69329e-05
-1.93235 -0.000972473 -2.34934 -0.00073873 -0.368402 -6.61359e-05
-1.92629 -0.000969423 -2.34549 -0.000737519 -0.392779 -7.05122e-05
-1.91468 -0.000963579 -2.3253 -0.000731168 -0.428076 -7.68487e-05
-1.89757 -0.000954966 -2.28932 -0.000719856 -0.484495 -8.69771e-05
-1.87535 -0.000943785 -2.23866 -0.000703927 -0.581949 -0.000104472
-1.84883 -0.000930438 -2.1744 -0.000683719 -0.724519 -0.000130067
-1.81889 -0.000915373 -2.09788 -0.000659661 -0.897825 -0.000161179
-1.78647 -0.000899058 -2.011 -0.000632342 -1.0838 -0.000194566
-1.75237 -0.000881894 -1.91613 -0.000602509 -1.2698 -0.000227956
-1.71714 -0.000864168 -1.8159 -0.000570992 -1.45264 -0.000260781
-1.68113 -0.000846045 -1.71312 -0.000538675 -1.64448 -0.000295219
-1.64478 -0.000827752 -1.61055 -0.000506423 -1.85283 -0.000332622
-1.60877 -0.000809625 -1.51082 -0.000475064 -2.06921 -0.000371467
-1.57375 -0.000792002 -1.41657 -0.000445427 -2.27663 -0.000408704
-1.54045 -0.000775247 -1.33041 -0.000418334 -2.46339 -0.000442231
-1.50967 -0.000759756 -1.25465 -0.000394514 -2.62927 -0.00047201
-1.48219 -0.000745926 -1.19109 -0.000374528 -2.77964 -0.000499005
-1.4587 -0.000734104 -1.1411 -0.00035881 -2.91588 -0.000523463
-1.43969 -0.000724535 -1.10591 -0.000347745 -3.03214 -0.000544333
-1.42533 -0.00071731 -1.08661 -0.000341674 -3.1202 -0.000560141
-1.41542 -0.000712321 -1.08391 -0.000340826 -3.17619 -0.000570194
-1.40935 -0.000709268 -1.09805 -0.000345271 -3.20231 -0.000574883
-1.40627 -0.000707717 -1.12875 -0.000354925 -3.20315 -0.000575033
-1.40512 -0.000707139 -1.17534 -0.000369574 -3.18088 -0.000571036
-1.40465 -0.000706905 -1.23678 -0.000388895 -3.13182 -0.000562229
-1.40348 -0.000706313 -1.31169 -0.000412448 -3.05371 -0.000548206
-1.40019 -0.000704656 -1.39818 -0.000439644 -2.95025 -0.000529633
-1.39354 -0.00070131 -1.4938 -0.000469711 -2.829 -0.000507866
-1.38245 -0.000695728 -1.5956 -0.000501721 -2.69637 -0.000484056
-1.36602 -0.000687463 -1.70033 -0.000534655 -2.55553 -0.000458773
-1.34364 -0.000676201 -1.80459 -0.000567436 -2.4084 -0.00043236
-1.31498 -0.000661777 -1.90474 -0.000598928 -2.25867 -0.000405479
-1.27996 -0.000644149 -1.99702 -0.000627944 -2.11231 -0.000379205
-1.23865 -0.000623361 -2.07765 -0.000653299 -1.97562 -0.000354666
-1.19122 -0.000599491 -2.14317 -0.000673901 -1.85301 -0.000332654
-1.1378 -0.000572608 -2.19051 -0.000688787 -1.74855 -0.000313903
-1.07851 -0.000542768 -2.21709 -0.000697143 -1.66502 -0.000298906
-1.01345 -0.000510026 -2.22079 -0.000698308 -1.60313 -0.000287797
-0.942814 -0.000474479 -2.2 -0.000691769 -1.56397 -0.000280766
-0.866874 -0.000436262 -2.15375 -0.000677227 -1.54543 -0.000277438
-0.786015 -0.000395569 -2.08182 -0.000654609 -1.54679 -0.000277682
-0.700686 -0.000352626 -1.98464 -0.000624051 -1.56841 -0.000281563
-0.611427 -0.000307706 -1.86322 -0.000585874 -1.61114 -0.000289234
-0.51893 -0.000261156 -1.71916 -0.000540575 -1.67149 -0.000300067
-0.426332 -0.000214555 -1.5549 -0.000488923 -1.74281 -0.000312871
-0.339008 -0.000170609 -1.36967 -0.000430679 -1.82203 -0.000327094
-0.246907 -0.000124258 -1.17088 -0.000368172 -1.90337 -0.000341696
-0.153567 -7.72841e-05 -0.962565 -0.00030267 -1.98358 -0.000356095
-0.0606644 -3.05299e-05 -0.748172 -0.000235256 -2.0572 -0.000369312
0.03201 1.61093e-05 -0.530529 -0.00016682 -2.11849 -0.000380314
0.116137 5.8447e-05 -0.315496 -9.92047e-05 -2.16065 -0.000387883
0.196443 9.88618e-05 -0.106065 -3.33511e-05 -2.17944 -0.000391256
0.273352 0.000137567 0.095359 2.99848e-05 -2.17122 -0.00038978
0.345904 0.000174079 0.285412 8.97452e-05 -2.13156 -0.00038266
0.412457 0.000207572 0.457053 0.000143716 -2.05508 -0.000368931
0.472688 0.000237884 0.606085 0.000190578 -1.94061 -0.00034838
0.527151 0.000265293 0.735358 0.000231227 -1.7865 -0.000320714
0.575546 0.000289648 0.843642 0.000265276 -1.58993 -0.000285426
0.617633 0.000310829 0.929417 0.000292247 -1.36589 -0.000245206
0.654096 0.00032918 0.991838 0.000311874 -1.12667 -0.000202261
0.685329 0.000344898 1.03132 0.000324288 -0.869391 -0.000156074
0.711974 0.000358307 1.0485 0.00032969 -0.583356 -0.000104725
0.734744 0.000369766 1.04464 0.000328478 -0.262487 -4.71219e-05
0.754637 0.000379778 1.02146 0.000321189 0.0719023 1.2908e-05
0.772787 0.000388912 0.981206 0.000308531 0.41156 7.38838e-05
0.790388 0.00039777 0.926848 0.000291439 0.775118 0.00013915
0.808341 0.000406804 0.861811 0.000270989 1.15947 0.00020815
0.828416 0.000416907 0.788689 0.000247996 1.54244 0.0002769
0.851295 0.000428422 0.711372 0.000223684 1.90799 0.000342525
0.87764 0.00044168 0.634916 0.000199644 2.23042 0.000400407
0.90808 0.000456999 0.563709 0.000177253 2.61053 0.000468646
0.942756 0.00047445 0.500649 0.000157424 3.00632 0.000539698
0.982892 0.000494649 0.44745 0.000140697 3.34651 0.00060077
1.02792 0.000517311 0.408961 0.000128594 3.5968 0.000645703
1.07801 0.000542517 0.389761 0.000122557 3.78227 0.000678998
1.13309 0.000570235 0.391925 0.000123237 3.94163 0.000707607
1.1931 0.000600438 0.414254 0.000130258 4.05357 0.000727701
1.25745 0.000632823 0.458172 0.000144068 4.10494 0.000736925
1.32625 0.000667447 0.526578 0.000165578 4.10563 0.000737047
1.39883 0.000703974 0.619365 0.000194754 4.0517 0.000727367
1.47587 0.000742745 0.733169 0.000230538 3.95782 0.000710513
1.55728 0.000783713 0.865439 0.00027213 3.83715 0.000688851
1.64244 0.000826573 1.01406 0.000318861 3.68266 0.000661116
1.73102 0.000871152 1.17674 0.000370017 3.48411 0.000625471
1.82245 0.000917162 1.35032 0.000424595 3.2449 0.000582528
1.91589 0.000964188 1.53058 0.000481276 2.98171 0.00053528
2.01032 0.00101171 1.71327 0.000538722 2.71094 0.000486672
2.10462 0.00105917 1.89463 0.000595748 2.43918 0.000437885
2.1975 0.00110591 2.07119 0.000651268 2.16624 0.000388886
42.2514 0.136113 2.01301 0.000632972 1.94476 0.000349126
8.93253 0.537959 1.5262 0.000479901 2.06146 0.000370076
8.93253 0.568832 1.68543 0.000529969 1.62067 0.000290944
5.81856 0.572106 1.69196 0.00053202 1.39598 0.000250608
8.93253 0.575351 1.82283 0.000573173 1.22226 0.000219422
8.93253 0.607817 2.00359 0.00063001 0.984604 0.000176757
8.93253 0.634419 2.06847 0.000650411 0.757558 0.000135998
8.93253 0.642926 2.06199 0.000648373 0.597628 0.000107287
8.93253 0.65419 2.11474 0.000664962 0.484376 8.69558e-05
8.93253 0.672387 2.18954 0.000688482 0.395669 7.10311e-05
8.93253 0.686453 2.19631 0.000690611 0.324941 5.83338e-05
8.93253 0.694305 2.14958 0.000675916 0.284121 5.10058e-05
8.93253 0.703316 2.11238 0.000664218 0.282902 5.07869e-05
8.93253 0.714794 2.08642 0.000656057 0.321586 5.77316e-05
8.93253 0.724285 2.03675 0.000640437 0.389903 6.99959e-05
8.93253 0.73074 1.95739 0.000615483 0.477797 8.57748e-05
8.93253 0.736265 1.86841 0.000587503 0.588547 0.000105657
8.93253 0.741646 1.78247 0.000560483 0.726445 0.000130412
8.93253 0.745592 1.69441 0.000532791 0.887695 0.00015936
8.93253 0.747857 1.60009 0.000503135 1.06128 0.000190521
8.93253 0.74925 1.50353 0.000472772 1.24007 0.000222619
8.93253 0.7501 1.41137 0.000443794 1.42522 0.000255857
8.9062 0.750252 1.32696 0.00041725 1.61901 0.000290648
8.7511 0.750174 1.24998 0.000393046 1.8151 0.000325849
8.61102 0.750103 1.1814 0.000371482 2.00256 0.000359502
8.54464 0.75007 1.12264 0.000353005 2.17589 0.000390618
8.56684 0.750081 1.07633 0.000338441 2.3352 0.000419217
8.75129 0.750174 1.04503 0.0003286 2.4806 0.000445321
8.93253 0.750764 1.02846 0.000323391 2.6095 0.000468461
8.93253 0.752847 1.02432 0.00032209 2.71862 0.00048805
8.93253 0.755769 1.03486 0.000325401 2.80413 0.0005034
8.93253 0.759583 1.05601 0.000332052 26.9318 0.0091321
8.93253 0.765389 1.07232 0.000337181 28.7833 0.0443278
8.93253 0.770259 1.15334 0.000362658 29.1445 0.0511942
8.93253 0.776768 1.21321 0.000381483 29.3773 0.0556194
8.93253 0.783665 1.27149 0.00039981 27.9029 0.0553547
8.93253 0.791092 1.35349 0.000425592 25.9732 0.0550083
8.93253 0.798939 1.45939 0.000458893 25.4077 0.0549067
8.93253 0.807143 1.5669 0.000492699 25.9925 0.0550117
-0.186528 0.800162 41.4918 0.146653 16.6472 0.053334
6.80157 0.806793 42.6032 0.165576 21.0525 0.0541249
4.85657 0.805814 44.3065 0.194576 16.9669 0.0533914
5.94888 0.806364 35.7323 0.208162 14.6741 0.0529798
7.94875 0.808106 17.5505 0.223477 12.8612 0.0526544
8.93253 0.810364 8.93253 0.244908 12.3378 0.0525604
8.93253 0.813068 8.93253 0.266696 12.244 0.0525436
8.93253 0.814723 8.93253 0.284933 11.2992 0.052374
8.93253 0.817948 8.93253 0.299964 9.98136 0.0521374
8.93253 0.821086 8.93253 0.31399 9.50059 0.0520511
8.93253 0.822679 8.93253 0.326485 10.3584 0.0522051
8.93253 0.822956 8.93253 0.340714 11.422 0.052396
8.93253 0.823527 8.93253 0.35405 12.2926 0.0525523
8.86818 0.823656 8.93253 0.365424 13.1772 0.0527111
8.4547 0.823447 8.93253 0.375724 14.5827 0.0529634
7.76383 0.8231 8.93253 0.385198 16.7414 0.053351
6.76238 0.822596 8.93253 0.39425 19.3185 0.0538136
5.40181 0.821911 8.93253 0.402082 22.0246 0.0542994
3.65849 0.821034 8.93253 0.408472 24.836 0.0548041
1.43579 0.819915 8.93253 0.413089 27.879 0.0553504
-0.063356 0.817611 8.93253 0.416625 29.5672 0.0592298
-0.273635 0.812363 8.93253 0.418822 30.1943 0.0711494
-0.61013 0.803964 8.93253 0.420539 30.9352 0.0852334
-1.0028 0.794164 8.93253 0.421122 31.7448 0.100624
-1.42274 0.783683 8.65226 0.421039 32.5278 0.115508
-1.86453 0.772656 7.78843 0.420768 33.1633 0.127589
-2.31127 0.761506 5.19266 0.419951 34.7378 0.157519
-2.73112 0.751027 0.211764 0.418385 7.12096 0.212896
-3.17975 0.739829 -0.18935 0.415894 7.12096 0.255232
-3.58351 0.729752 -0.551266 0.411261 7.12096 0.287174
-3.96784 0.72016 -0.983549 0.405726 7.12096 0.309358
-4.35635 0.710463 -1.36845 0.400799 7.12096 0.315257
-4.71533 0.701503 -1.7835 0.395485 7.12096 0.319431
-5.04569 0.693257 -2.24718 0.389549 7.12096 0.328916
-5.34948 0.685675 -2.75564 0.383039 7.12096 0.344777
-5.62963 0.678683 -3.30443 0.376013 7.12096 0.362634
-5.8941 0.672082 -3.82606 0.369335 7.12096 0.378527
-6.15037 0.665686 -4.28139 0.363505 7.12096 0.387586
-6.3981 0.659503 -4.67049 0.358524 7.12096 0.3921
-6.63727 0.653533 -5.00686 0.354217 7.12096 0.396168
-6.87235 0.647666 -5.28756 0.350624 7.12096 0.402131
-7.11246 0.641673 -5.48983 0.348034 7.12096 0.408963
-7.36683 0.635324 -5.59213 0.346724 7.12096 0.413001
-7.64023 0.6285 -5.48166 0.346606 6.71949 0.413258
-7.92509 0.621391 -4.87001 0.346798 5.39989 0.413021
-8.22729 0.613848 -3.61555 0.347192 3.89942 0.412752
-8.5476 0.605853 -1.78912 0.347767 2.55 0.412509
-8.88763 0.597366 0.0522875 0.348755 0.334044 0.412111
-9.26225 0.588016 0.386884 0.351482 -0.167924 0.40943
-9.66761 0.577899 0.846315 0.355227 -0.714002 0.400906
-10.0887 0.567389 1.30195 0.35894 -1.41049 0.390034
-10.5245 0.556513 1.72482 0.362386 -2.16284 0.378289
-10.9654 0.545507 2.0755 0.365244 -2.87248 0.367212
-11.407 0.534486 2.33367 0.367348 -3.52474 0.35703
-11.8484 0.52347 2.47875 0.36853 -4.16977 0.346961
-12.2668 0.513026 2.30565 0.368652 -4.85812 0.336216
-12.6721 0.502911 1.20857 0.368307 -5.59445 0.324722
-12.9955 0.494839 -0.113509 0.366645 -6.31498 0.313474
-13.3553 0.485858 -0.455592 0.36278 -6.96591 0.303313
-13.7378 0.476312 -0.949133 0.357204 -7.54574 0.294262
-14.1347 0.466404 -1.61886 0.349637 -8.07739 0.285963
-14.5578 0.455844 -2.42222 0.34056 -8.59649 0.27786
-15.0108 0.444539 -3.34483 0.330136 -9.10845 0.269868
-15.4874 0.432644 -4.38333 0.318403 -9.59252 0.262311
-15.9743 0.42049 -5.541 0.305323 -10.0251 0.255558
-16.4747 0.408002 -6.81015 0.290984 -10.404 0.249645
-16.9905 0.395127 -8.17927 0.275515 -10.7461 0.244303
-17.5218 0.381866 -9.631 0.259113 -11.0743 0.23918
-18.0668 0.368264 -11.1496 0.241956 -11.3998 0.2341
-18.6256 0.354318 -12.7214 0.224197 -11.7198 0.229104
-19.2058 0.339836 -14.3264 0.206063 -12.03 0.224263
-19.7978 0.32506 -15.956 0.187651 -12.3305 0.219571
-20.4039 0.309933 -17.5878 0.169214 -12.6347 0.214822
-21.0246 0.294441 -19.2057 0.150935 -12.9536 0.209845
-21.6614 0.278546 -20.7939 0.132991 -13.3005 0.20443
-22.3129 0.262287 -22.3373 0.115553 -13.6828 0.198461
-22.9644 0.246025 -23.8195 0.0988067 -14.0808 0.19225
-23.6264 0.229502 -25.2037 0.0831673 -14.4981 0.185736
-24.2991 0.212713 -26.5087 0.0684232 -14.9363 0.178894
-24.9865 0.195555 -27.729 0.0546358 -15.4048 0.171582
-25.7009 0.177724 -28.7072 0.0435839 -15.9342 0.163318
-26.4255 0.159638 -29.5681 0.0338569 -16.5191 0.154187
-27.1571 0.141381 -30.3472 0.0250547 -17.1511 0.144321
-27.8946 0.122972 -31.0494 0.0171213 -17.8266 0.133777
-28.6004 0.105356 -31.6992 0.00977889 -18.5323 0.12276
-29.2051 0.0902632 -32.3488 0.0024403 -19.2432 0.111663
-29.8528 0.0740967 -32.5174 0.000534574 -20.0182 0.0995659
-30.4735 0.0586052 -32.5357 0.000328638 -20.8242 0.0869847
-31.0579 0.0440186 -32.5445 0.000228578 -21.6459 0.0741578
-31.6023 0.0304326 -32.5508 0.000157282 -22.4881 0.0610109
-32.1049 0.0178881 -32.5557 0.000102349 -23.3416 0.0476867
-32.5636 0.00643775 -32.5593 6.10188e-05 -24.1855 0.0345143
-32.7793 0.00105574 -32.5629 2.0944e-05 -25.0049 0.0217223
-32.7914 0.0007521 -32.5658 -1.19518e-05 -25.7953 0.00938504
-32.7974 0.000603578 -32.5685 -4.21197e-05 -26.3549 0.000649525
-32.8016 0.000499479 -32.5712 -7.23764e-05 -26.3744 0.000344687
-32.8048 0.000419462 -32.573 -9.33814e-05 -26.3826 0.000217269
-32.8072 0.000357911 -32.5745 -0.000110282 -26.388 0.00013216
-32.8094 0.000304546 -32.576 -0.000127223 -26.3924 6.42158e-05
-32.8114 0.000254969 -32.5775 -0.000143765 -26.3962 5.02917e-06
-32.8132 0.000210205 -32.5787 -0.000157775 -26.3997 -5.06895e-05
-32.8148 0.000169149 -32.5798 -0.000169544 -26.4034 -0.000108488
-32.8164 0.00012974 -32.5807 -0.000180087 -26.4056 -0.000141659
-32.8179 9.10751e-05 -32.5816 -0.000190403 -26.329 -0.000127911
-32.8194 5.49817e-05 -32.5826 -0.000202104 -26.208 -0.000106185
-32.8207 2.09659e-05 -32.5838 -0.00021469 -26.268 -0.000116959
-32.8221 -1.24862e-05 -32.5848 -0.000226622 -26.406 -0.000147586
-32.8234 -4.51291e-05 -32.5858 -0.000237942 -26.4085 -0.000187015
-32.8246 -7.59086e-05 -32.5869 -0.000250245 -26.4103 -0.000214882
-32.8258 -0.000106287 -32.5881 -0.000263657 -26.4 -0.000217122
-32.827 -0.000136034 -32.5893 -0.000277741 -26.3215 -0.000203043
-32.8282 -0.000164802 -32.5906 -0.000291779 -26.2384 -0.000188122
-32.8293 -0.000192742 -32.5918 -0.000305725 -26.212 -0.000183377
-32.8304 -0.000219898 -32.5931 -0.000319881 -26.2195 -0.000184726
-32.8314 -0.000246292 -32.5943 -0.000334121 -26.1754 -0.000176808
-32.8325 -0.000271608 -32.5956 -0.000348433 -26.0444 -0.000153294
-32.8334 -0.000295666 -32.5969 -0.000362801 -25.8635 -0.00012082
-32.8343 -0.000318531 -32.5981 -0.00037687 -25.6921 -9.00375e-05
-32.8352 -0.000340123 -32.5993 -0.000390143 -25.5556 -6.55313e-05
-32.7057 -0.000398953 -32.4124 -0.000331374 -25.5466 -6.39154e-05
-32.0711 -7.95885e-05 -31.8255 -0.000146838 -25.5858 -7.09529e-05
-32.0237 -5.57512e-05 -31.7726 -0.000130204 -25.2906 -1.7971e-05
-32.5399 -0.00031551 -32.2187 -0.00027046 -24.8041 6.93746e-05
-32.7494 -0.000420977 -32.4616 -0.000346848 -24.3507 0.000150768
-32.5615 -0.000326377 -32.3821 -0.000321856 -24.0654 0.000201977
-32.4123 -0.000251296 -32.3117 -0.000299727 -23.7067 0.000266374
-32.5433 -0.000317218 -32.4648 -0.000347861 -22.9923 0.00039462
-32.7106 -0.000401432 -32.6011 -0.000410683 -21.9117 0.000588626
-32.6758 -0.000383905 -32.6031 -0.000433078 -20.443 0.000852279
-32.6305 -0.000361129 -32.6039 -0.000442607 -18.3762 0.00122332
-32.6498 -0.000370843 -32.6057 -0.000462804 -15.931 0.00166228
-32.688 -0.00039008 -32.608 -0.000489033 -13.4321 0.0021109
-32.7177 -0.000405025 -32.6101 -0.000512083 -11.1368 0.00252294
-32.7124 -0.000402319 -32.611 -0.000522458 -9.16751 0.00287647
-32.6963 -0.000394248 -32.6111 -0.000524194 -7.24473 0.00322165
-32.6993 -0.000395765 -32.6113 -0.000525906 -4.76413 0.00366697
-32.7185 -0.000405434 -32.6115 -0.000528211 -1.78317 0.00420212
-32.7269 -0.000409637 -32.5997 -0.000524505 0.00301799 0.00469549
-32.7166 -0.000404449 -32.56 -0.000512004 0.0113168 0.00517192
-32.71 -0.000401139 -32.5043 -0.000494487 0.0169642 0.00549613
-32.7096 -0.000400917 -32.4372 -0.000473396 0.0204979 0.005699
-32.7024 -0.000397311 -32.3538 -0.000447187 -0.0115135 0.0057409
-32.6881 -0.00039009 -32.2549 -0.000416085 -0.280766 0.00563463
-32.6738 -0.000382897 -32.1464 -0.00038198 -0.837832 0.00541477
-32.6636 -0.000377805 -32.0345 -0.000346775 -1.6264 0.00510354
-32.6582 -0.00037504 -31.9213 -0.000311185 -2.57524 0.00472905
-32.6485 -0.000370169 -31.8037 -0.000274213 -3.64053 0.00430861
-32.6225 -0.000357123 -31.6845 -0.000236718 -4.78477 0.003857
-32.5961 -0.000343804 -31.5635 -0.000198682 -6.00859 0.00337399
-32.5723 -0.000331823 -31.4476 -0.000162222 -7.26877 0.00287662
-32.5495 -0.000320348 -31.3384 -0.000127897 -8.51025 0.00238664
-32.5246 -0.000307816 -31.2353 -9.54749e-05 -9.59922 0.00195685
-32.498 -0.000294429 -31.1408 -6.57635e-05 -10.5283 0.00159015
-32.4721 -0.000281393 -31.0606 -4.05548e-05 -11.2607 0.00130108
-32.447 -0.000268793 -31.0011 -2.18388e-05 -11.8199 0.00108038
-32.4215 -0.000255928 -30.963 -9.86882e-06 -12.2445 0.000912816
-32.3936 -0.000241927 -30.9456 -4.37177e-06 -12.5642 0.000786626
-32.3648 -0.000227393 -30.9492 -5.52658e-06 -12.7914 0.000696974
-32.3369 -0.00021336 -30.9746 -1.35027e-05 -12.9363 0.00063977
-32.3106 -0.000200155 -31.0197 -2.76877e-05 -13.0158 0.000608392
-32.2853 -0.000187388 -31.0804 -4.67845e-05 -13.0505 0.000594695
-32.2603 -0.000174803 -31.1528 -6.95242e-05 -13.0582 0.000591652
-32.2359 -0.000162543 -31.234 -9.50623e-05 -13.0417 0.000594612
-32.2132 -0.00015109 -31.3225 -0.000122895 -12.9898 0.000603933
-32.1923 -0.000140593 -31.4159 -0.00015228 -12.8842 0.000622891
-32.171 -0.000129871 -31.5107 -0.000182061 -12.7278 0.000650973
-32.148 -0.000118306 -31.6041 -0.000211435 -12.5462 0.000683564
-32.1232 -0.000105801 -31.6945 -0.000239876 -12.3757 0.000714178
-32.0954 -9.18253e-05 -31.78 -0.000266766 -12.2294 0.000740454
-32.0628 -7.5436e-05 -31.8585 -0.000291421 -12.1056 0.000762678
-32.024 -5.5911e-05 -31.9281 -0.000313326 -12.0062 0.000780518
-31.9814 -3.44561e-05 -31.9878 -0.000332096 -11.9519 0.000790258
-31.9294 -8.29137e-06 -32.035 -0.000346927 -11.9656 0.000787809
-31.8684 2.2401e-05 -32.0695 -0.000357771 -12.0616 0.000770561
-31.7945 5.96242e-05 -32.0908 -0.000364467 -12.2356 0.000739336
-31.7025 0.00010592 -32.0994 -0.000367196 -12.4534 0.000700232
-31.6017 0.000156641 -32.1008 -0.000367632 -12.6954 0.000656782
-31.4873 0.000214202 -32.0924 -0.000364983 -12.9567 0.000609875
-31.3364 0.000290123 -32.0656 -0.000356552 -13.1637 0.00055002
-31.1285 0.000394756 -32.0189 -0.000341877 -13.33 0.00048439
-30.8626 0.000528598 -31.9536 -0.000321347 -13.487 0.000422445
-30.4846 0.000718796 -31.8712 -0.000295439 -13.6321 0.000365166
-29.6611 0.00113324 -31.7737 -0.00026478 -13.7652 0.000312645
-26.515 0.00271654 -31.6598 -0.000228951 -13.8852 0.000265286
-21.4105 0.00528545 -31.5256 -0.000186749 -13.9909 0.000223544
-16.1615 0.00792703 -31.3698 -0.000137768 -14.0833 0.000187063
-10.9156 0.0105671 -31.1923 -8.19654e-05 -14.163 0.000155641
-5.61483 0.0132347 -30.9886 -1.79178e-05 -14.2314 0.000128635
0.0129312 0.0172296 -30.754 5.58483e-05 -14.2883 0.000106189
0.0915238 0.0243355 -30.4794 0.000142198 -14.3318 8.90041e-05
0.21671 0.0356542 -30.1444 0.00024756 -14.3604 7.77034e-05
0.378404 0.0502736 -29.6941 0.000389148 -14.3737 7.24634e-05
0.555098 0.0662492 -28.9646 0.00061853 -14.3694 7.30143e-05
0.737605 0.0827504 -27.1629 0.00118505 -14.3318 7.9779e-05
0.91405 0.0987035 -22.0188 0.00280258 -14.2523 9.4039e-05
1.08885 0.114507 -14.6542 0.0051183 -14.118 0.000118155
1.265 0.130434 -7.7294 0.00729574 -13.9271 0.00015243
1.43836 0.146109 0.00711004 0.0100536 -13.6845 0.000195967
1.60421 0.161104 0.104889 0.014557 -13.3792 0.000250791
1.76392 0.175544 0.238827 0.0207257 -12.9905 0.000320557
1.92107 0.189753 0.389112 0.0276473 -12.4913 0.000410181
2.07972 0.204097 0.544826 0.034819 -11.7846 0.000537053
2.26056 0.220447 0.714653 0.0426406 -10.6975 0.000732214
2.43235 0.235979 0.8712 0.0498506 -8.88414 0.00105774
2.56863 0.248301 1.02135 0.0567661 -6.46252 0.00149248
2.7024 0.260395 1.15892 0.0631021 -3.69655 0.00198903
2.8377 0.272629 1.29836 0.0695242 0.00172981 0.0027524
2.97134 0.284712 1.42656 0.0754286 0.0518142 0.00564085
3.09861 0.296219 1.54826 0.0810338 0.131793 0.0102534
3.22848 0.307961 1.65619 0.0860046 0.331233 0.0217554
3.36076 0.319921 1.7632 0.0909329 0.58054 0.0361333
3.493 0.331878 1.87247 0.0959655 0.855723 0.0520035
3.62553 0.34386 1.98311 0.101061 1.13239 0.0679592
3.7601 0.356027 2.09938 0.106416 1.38663 0.0826218
3.89782 0.368479 2.22434 0.112172 1.61225 0.0956336
4.03877 0.381223 2.35898 0.118372 1.82049 0.107643
4.18368 0.394325 2.50329 0.125019 2.02915 0.119677
4.33405 0.40792 2.65766 0.132129 2.24929 0.132373
4.4906 0.422075 2.82347 0.139765 2.47763 0.145541
4.65321 0.436777 3.00253 0.148012 2.70015 0.158374
4.82171 0.452011 3.19645 0.156943 2.90201 0.170016
4.99617 0.467785 3.40615 0.166601 3.07687 0.1801
5.17624 0.484066 3.63237 0.17702 3.226 0.188701
5.3616 0.500825 3.87593 0.188238 3.385 0.197871
5.55276 0.518108 4.13092 0.199982 3.56738 0.208389
5.74915 0.535865 4.40106 0.212423 3.74742 0.218772
5.95019 0.554042 4.68625 0.225558 3.89714 0.227407
6.1557 0.572623 4.98583 0.239356 4.00757 0.233776
6.36556 0.591597 5.29786 0.253727 4.09381 0.23875
6.57966 0.610955 5.61917 0.268526 4.17851 0.243634
6.79581 0.630498 5.94853 0.283695 4.27153 0.248999
7.0119 0.650036 6.28527 0.299204 4.365 0.254389
7.22607 0.6694 6.62895 0.315033 4.44444 0.258971
7.43697 0.688468 6.97821 0.331118 4.50332 0.262366
7.64407 0.707193 7.33018 0.347329 4.54831 0.264961
7.84725 0.725563 7.68125 0.363498 4.59274 0.267523
8.04648 0.743577 8.02794 0.379465 4.64536 0.270558
8.24175 0.761231 8.36745 0.395102 4.7054 0.274021
8.43302 0.778525 8.69741 0.410298 4.76655 0.277547
8.6201 0.79544 8.93253 0.423799 4.8243 0.280878
8.79432 0.811191 8.93253 0.436694 4.86831 0.283416
8.93253 0.826431 8.93253 0.448755 4.91246 0.285962
8.93253 0.840861 8.93253 0.460039 4.97351 0.289483
8.93253 0.855277 8.93253 0.470413 5.0551 0.294188
8.93253 0.869852 8.93253 0.479423 5.15457 0.299925
8.93253 0.884203 8.93253 0.487597 5.25936 0.305969
8.93253 0.898498 8.93253 0.495171 5.36631 0.312136
8.93253 0.91278 8.93253 0.502292 5.47497 0.318403
8.93253 0.926725 8.93253 0.508912 5.5898 0.325025
8.93253 0.940045 8.93253 0.51506 5.71569 0.332286
8.93253 0.952757 8.93253 0.520909 5.85152 0.340119
8.93253 0.963969 8.93253 0.526896 5.98984 0.348096
8.93253 0.974551 8.93253 0.532714 6.12685 0.355998
8.93253 0.98436 8.93253 0.538428 6.26201 0.363793
8.93253 0.993618 8.93253 0.544061 6.39744 0.371604
8.93253 1.00232 8.93253 0.549798 6.53504 0.379539
8.93253 1.01041 8.93253 0.555612 6.67467 0.387591
8.93253 1.01796 8.93253 0.561464 6.81408 0.395632
8.93253 1.02501 8.93253 0.567402 6.94961 0.403448
8.93253 1.03159 8.93253 0.573433 7.07983 0.410958
8.93253 1.03769 8.93253 0.579567 7.12096 0.41768
8.93253 1.04329 8.93253 0.585821 7.12096 0.423849
8.93253 1.04827 8.93253 0.592314 7.12096 0.429688
8.93253 1.05263 8.93253 0.599006 7.12096 0.435313
8.93253 1.05634 8.93253 0.605889 7.12096 0.440808
8.93253 1.05944 8.93253 0.612951 7.12096 0.446157
8.93253 1.06198 8.93253 0.62017 7.12096 0.45131
8.93253 1.06397 8.93253 0.627481 7.12096 0.456229
8.93253 1.06551 8.93253 0.634626 7.12096 0.460953
8.93253 1.06689 8.93253 0.643487 7.12096 0.466662
8.93253 1.06787 8.93253 0.652172 7.12096 0.47231
8.93253 1.06862 8.93253 0.660546 7.12096 0.477965
8.93253 1.06926 8.93253 0.668482 7.12096 0.483608
8.93253 1.06978 8.93253 0.675901 7.12096 0.489236
8.85035 1.06992 8.93253 0.682766 7.12096 0.494906
8.64038 1.06981 8.93253 0.688929 7.12096 0.500708
8.26496 1.06962 8.93253 0.694579 7.12096 0.506626
7.68938 1.06933 8.93253 0.699693 7.12096 0.512571
6.87414 1.06892 8.93253 0.704161 7.12096 0.518516
5.80304 1.06838 8.93253 0.708023 7.12096 0.52447
4.38859 1.06767 8.93253 0.711302 7.12096 0.530446
2.55079 1.06675 8.93253 0.713999 7.12096 0.536423
-0.00413173 1.06533 8.93253 0.71615 7.12096 0.542319
-0.128002 1.06133 8.93253 0.718038 7.12096 0.547979
-0.381652 1.05313 8.93253 0.719808 7.12096 0.553332
-0.708717 1.04256 8.93253 0.721098 7.12096 0.55849
-1.06609 1.03102 8.93253 0.721682 7.12096 0.563461
-1.45274 1.01852 8.5792 0.721575 7.12096 0.568238
-1.86828 1.0051 7.49419 0.721234 7.12096 0.572701
-2.30086 0.99112 5.67774 0.720662 7.12096 0.576798
-2.74444 0.976787 3.05506 0.719838 7.12096 0.58046
-3.19313 0.96229 -0.0231961 0.718372 7.12096 0.58367
-3.62802 0.948238 -0.223219 0.714016 7.12096 0.586744
-4.05426 0.934466 -0.538734 0.707146 7.12096 0.58954
-4.48121 0.92067 -0.899042 0.6993 7.12096 0.591715
-4.91504 0.906653 -1.28817 0.690827 7.12096 0.59313
-5.35173 0.892543 -1.70641 0.68172 7.11361 0.593577
-5.78611 0.878508 -2.15581 0.671934 6.80922 0.593522
-6.21508 0.864647 -2.63433 0.661514 6.18934 0.593411
-6.63647 0.851032 -3.14604 0.650371 5.27522 0.593247
-7.05096 0.837639 -3.67483 0.638856 3.97207 0.593013
-7.45741 0.824506 -4.21747 0.62704 2.26652 0.592707
-7.85882 0.811537 -4.76725 0.615069 -0.0223759 0.5918
-8.26219 0.798503 -5.30507 0.603357 -0.281481 0.586006
-8.66978 0.785334 -5.83016 0.591923 -0.734577 0.575875
-9.08413 0.771946 -6.34839 0.580639 -1.2881 0.563498
-9.50773 0.758259 -6.85753 0.569552 -1.87535 0.550367
-9.9381 0.744353 -7.36069 0.558595 -2.47342 0.536994
-10.3721 0.730332 -7.86201 0.547679 -3.11587 0.522629
-10.8056 0.716323 -8.36342 0.536761 -3.83018 0.506657
-11.2337 0.702491 -8.86904 0.52575 -4.5964 0.489524
-11.652 0.688975 -9.38647 0.514483 -5.37452 0.472126
-12.0564 0.675908 -9.92104 0.502843 -6.14977 0.454791
-12.4365 0.663626 -10.4755 0.490768 -6.93493 0.437235
-12.8129 0.651466 -11.0429 0.478413 -7.73774 0.419284
-13.1953 0.63911 -11.6256 0.465724 -8.54126 0.401317
-13.59 0.626358 -12.217 0.452847 -9.3314 0.383649
-14.0077 0.61286 -12.813 0.43987 -10.1006 0.366449
-14.4338 0.599093 -13.4217 0.426614 -10.816 0.350453
-14.8931 0.584252 -14.0268 0.413438 -11.4411 0.336476
-15.3846 0.568372 -14.6338 0.40022 -12.0173 0.323593
-15.9048 0.551562 -15.2361 0.387105 -12.5594 0.311472
-16.445 0.534109 -15.8348 0.374068 -13.0873 0.299668
-17.0135 0.51574 -16.4415 0.360857 -13.6169 0.287826
-17.6031 0.496688 -17.0589 0.347413 -14.1404 0.276119
-18.1998 0.477408 -17.686 0.333759 -14.6334 0.265097
-18.7944 0.458199 -18.3166 0.320027 -15.078 0.255155
-19.3645 0.439778 -18.8968 0.307391 -15.4742 0.246296
-19.8983 0.42253 -19.47 0.29491 -15.8393 0.238132
-20.4146 0.405846 -20.041 0.282477 -16.2043 0.229972
-20.9029 0.390071 -20.631 0.26963 -16.5452 0.222348
-21.382 0.374588 -21.2527 0.256092 -16.8466 0.215609
-21.8424 0.359715 -21.9035 0.24192 -17.0975 0.209999
-22.2682 0.345955 -22.5796 0.227198 -17.3023 0.205419
-22.6611 0.333262 -23.2738 0.212082 -17.4813 0.201416
-23.0249 0.321505 -23.9861 0.196571 -17.6444 0.197771
-23.3631 0.310579 -24.7106 0.180795 -17.7949 0.194406
-23.6725 0.300582 -25.4353 0.165014 -17.9282 0.191425
-23.9536 0.291499 -26.1483 0.149487 -18.0422 0.188876
-24.2145 0.28307 -26.8404 0.134416 -18.1439 0.186601
-24.4629 0.275044 -27.5014 0.120024 -18.2481 0.184272
-24.7045 0.267235 -28.1168 0.106623 -18.3693 0.181563
-24.946 0.259434 -28.6732 0.0945067 -18.5129 0.17835
-25.198 0.251292 -29.161 0.0838845 -18.6767 0.174687
-25.458 0.242889 -29.5725 0.0749252 -18.8579 0.170636
-25.7321 0.234033 -29.9141 0.0674855 -19.0539 0.166253
-26.0223 0.224658 -30.1873 0.0615364 -19.272 0.161378
-26.3144 0.215219 -30.391 0.0571015 -19.5149 0.155946
-26.5957 0.206131 -30.534 0.0539872 -19.7788 0.150046
-26.879 0.196978 -30.6329 0.0518329 -20.0539 0.143893
-27.1556 0.18804 -30.688 0.0506338 -20.3341 0.137628
-27.4178 0.179568 -30.6694 0.0503742 -20.613 0.131391
-27.6646 0.171592 -30.2503 0.050506 -20.8881 0.125242
-27.888 0.164375 -29.634 0.0506998 -21.1549 0.119276
-28.0568 0.158919 -29.1303 0.0508581 -21.4059 0.113664
-28.2109 0.153942 -28.3767 0.0510951 -21.6408 0.10841
-28.3474 0.14953 -27.5219 0.0513639 -21.8501 0.103731
-28.4705 0.145553 -26.7689 0.0516007 -22.0294 0.0997216
-28.578 0.142079 -26.2085 0.0517769 -22.1779 0.0964011
-28.665 0.13927 -25.846 0.0518909 -22.2952 0.0937775
-28.7323 0.137094 -25.7087 0.051934 -22.3797 0.0918884
-28.7875 0.135312 -25.824 0.0518978 -22.4285 0.0907981
-28.8364 0.133729 -26.1871 0.0517836 -22.4207 0.0905496
-28.8799 0.132325 -26.7244 0.0516147 -22.1709 0.0905944
-28.9176 0.131107 -27.3934 0.0514043 -21.6716 0.0906841
-28.958 0.129802 -28.1457 0.0511677 -20.9475 0.0908141
-29.0099 0.128126 -28.8743 0.0509386 -20.0009 0.090984
-29.0809 0.125832 -29.4438 0.0507596 -18.8556 0.0911896
-29.1789 0.122665 -29.7452 0.0506648 -17.5736 0.0914197
-29.3107 0.118407 -29.7129 0.0506749 -16.2472 0.0916579
-29.4811 0.112901 -29.287 0.0508089 -14.8797 0.0919034
-29.6901 0.106148 -28.4581 0.0510695 -13.3962 0.0921697
-29.9188 0.0987573 -27.4036 0.0514011 -11.7948 0.0924572
-30.1604 0.0909514 -26.2252 0.0517716 -10.1649 0.0927498
-30.4319 0.0821774 -25.0578 0.0521387 -8.66911 0.0930183
-30.7258 0.0726828 -23.8272 0.0525257 -7.28886 0.0932661
-31.0299 0.0628552 -22.5264 0.0529347 -5.81329 0.093531
-31.344 0.0527071 -21.3074 0.053318 -3.68951 0.0939122
-31.6666 0.0422848 -20.3446 0.0536207 -0.595224 0.0944677
-31.9919 0.031773 -19.7112 0.0538199 0.0102085 0.09529
-32.3101 0.0214937 -19.436 0.0539064 0.0291757 0.0966191
-32.6187 0.0115209 -19.5882 0.0538586 0.0634909 0.0990237
-32.9146 0.00196121 -20.2837 0.0536399 0.128403 0.103572
-32.948 0.000880338 -22.5251 0.0529351 0.210224 0.109306
-32.9546 0.000668662 -24.6924 0.0522536 0.28857 0.114796
-32.9586 0.00053844 -27.1865 0.0514693 0.35519 0.119465
-32.9617 0.00043942 -30.3002 0.0504903 0.407422 0.123125
-32.9638 0.000370994 -30.8755 0.0465521 0.453705 0.126368
-32.9654 0.000317342 -31.125 0.0411182 0.497836 0.129461
-32.9668 0.000271946 -31.3882 0.035388 0.53905 0.132349
-32.9681 0.000231501 -31.652 0.0296435 0.572714 0.134708
-32.9692 0.000195971 -31.9137 0.023944 0.587611 0.135752
-32.9702 0.000162762 -32.1842 0.0180548 0.426747 0.135752
-32.9713 0.000129634 -32.4658 0.0119223 -0.0048368 0.13565
-32.9723 9.66269e-05 -32.7448 0.00584752 -0.218212 0.134528
-32.9733 6.32967e-05 -32.9652 0.00104759 -0.612498 0.132454
-32.9744 2.68276e-05 -32.9821 0.000678268 -1.28975 0.128891
-32.9756 -9.26092e-06 -32.9892 0.000524195 -2.08387 0.124714
-32.9767 -4.57966e-05 -32.9939 0.000422227 -2.95851 0.120113
-32.9778 -8.30637e-05 -32.9975 0.000343652 -3.81904 0.115586
-32.979 -0.00011942 -33.0003 0.00028358 -4.63481 0.111295
-32.98 -0.000154125 -33.0025 0.000234472 -5.5545 0.106457
-32.9811 -0.000187042 -33.0046 0.000189402 -6.64225 0.100735
-32.982 -0.000218812 -33.0066 0.00014628 -7.83344 0.0944694
-32.983 -0.000249049 -33.0084 0.000105868 -9.02384 0.0882075
-32.9838 -0.000277 -33.0102 6.76349e-05 -10.1788 0.0821318
-32.9846 -0.000302938 -33.0119 3.01524e-05 -11.349 0.0759763
-32.9854 -0.00032747 -33.0136 -6.89667e-06 -12.5916 0.0694398
-32.9861 -0.000351409 -33.0153 -4.33647e-05 -13.9033 0.0625402
-32.9868 -0.000374115 -33.0169 -7.91658e-05 -15.2321 0.05555
-32.9875 -0.000395181 -33.0185 -0.000114417 -16.5324 0.0487099
-32.9881 -0.000415102 -33.0201 -0.000149294 -17.8074 0.0420028
-32.9887 -0.000434038 -33.0217 -0.000183717 -19.0978 0.0352151
-32.9892 -0.00045152 -33.0233 -0.000217544 -20.4325 0.0281943
-32.9897 -0.000466933 -33.0248 -0.000250709 -21.7963 0.02102
-32.9901 -0.000480564 -33.0263 -0.00028298 -23.1511 0.0138934
-32.9905 -0.000492691 -33.0277 -0.000314023 -24.4772 0.00691767
-32.9908 -0.000503384 -33.0291 -0.000343578 -25.5917 0.00105499
-32.9911 -0.000512878 -33.0303 -0.000371377 -25.7029 0.00046995
-32.9899 -0.000520451 -33.0406 -0.000593785 -25.6835 0.000343331
-32.979 -0.000515296 -32.3461 -0.000426035 -22.7132 0.000876564
-32.9927 -0.000562778 -31.3804 -0.000122386 -20.5537 0.00126424
-32.9844 -0.000563319 -31.8657 -0.00027498 -24.8572 0.000491669
-32.9852 -0.000563691 -32.755 -0.000554626 -25.7712 0.000110755
-32.9932 -0.000580405 -32.9833 -0.0006264 -25.7419 5.76542e-05
-32.994 -0.000605441 -32.5554 -0.000491843 -25.3629 0.000125698
-32.9945 -0.00062193 -32.266 -0.000400839 -25.5479 9.24824e-05
-32.9951 -0.000640408 -32.6006 -0.000506054 -25.8077 -8.1008e-05
-32.9956 -0.000658553 -33.014 -0.000636059 -25.828 -0.000188063
-32.9961 -0.000671891 -32.9876 -0.000634749 -25.7473 -0.000178987
-32.9967 -0.00069132 -32.8138 -0.000580103 -25.6663 -0.000164449
-32.9974 -0.000715843 -32.869 -0.00059746 -25.8369 -0.000234753
-32.998 -0.000734112 -33.0351 -0.000649691 -25.8529 -0.000318954
-32.9983 -0.000744015 -33.045 -0.000690986 -25.8249 -0.000328819
-32.9987 -0.000756308 -33.0457 -0.0007048 -25.5857 -0.000285864
-32.9992 -0.000772945 -33.0342 -0.000701676 -25.4193 -0.000256
-32.9993 -0.000777596 -33.0101 -0.000694089 -25.5269 -0.000275322
-32.9968 -0.000776655 -33.0246 -0.000698645 -25.7532 -0.000315949
-32.9927 -0.000774595 -33.0458 -0.000708204 -25.8133 -0.000326737
-32.9955 -0.000776001 -33.046 -0.000711825 -25.6713 -0.000301237
-32.9994 -0.00077854 -33.0346 -0.000708249 -25.5426 -0.000278138
-32.9994 -0.000779319 -33.0209 -0.00070393 -25.5875 -0.000286204
-32.9991 -0.00077916 -33.0216 -0.000704171 -25.7246 -0.000310805
-32.9994 -0.000779561 -33.0335 -0.000707896 -25.7765 -0.000320129
-32.9994 -0.000780056 -33.0434 -0.000711027 -25.7023 -0.000306807
-32.999 -0.000779883 -33.046 -0.000712251 -25.6173 -0.000291544
-32.9984 -0.000779581 -33.046 -0.000712989 -25.6255 -0.000293009
-32.9986 -0.000779684 -33.0461 -0.000714298 -25.6983 -0.000306085
-32.9984 -0.000779561 -33.0462 -0.000715971 -25.7365 -0.00031295
-32.9965 -0.000778618 -33.0463 -0.000717683 -25.7025 -0.000306844
-32.9935 -0.000777088 -33.0464 -0.000720627 -25.6502 -0.000297451
-32.99 -0.000775328 -33.0466 -0.000724865 -25.6414 -0.000295876
-32.9861 -0.000773386 -33.0468 -0.000728619 -25.6727 -0.000301482
-32.9816 -0.000771115 -33.0469 -0.00073092 -25.6944 -0.000305391
-32.9765 -0.000768527 -33.047 -0.000732918 -25.6803 -0.000302857
-32.9697 -0.000765142 -33.0471 -0.000736195 -25.6518 -0.000297733
-32.9594 -0.000759939 -33.0473 -0.000740388 -25.6418 -0.000295938
-32.944 -0.000752191 -33.0474 -0.00074325 -25.6545 -0.000298231
-32.9237 -0.000741979 -33.0475 -0.000744045 -25.6682 -0.000300674
-32.8994 -0.000729771 -33.0461 -0.000743609 -25.667 -0.000300468
-32.8705 -0.000715187 -33.0443 -0.00074305 -25.6585 -0.000298939
-32.8364 -0.000698028 -33.0416 -0.000742207 -25.6557 -0.000298442
-32.7975 -0.000678468 -33.0248 -0.000736927 -25.6609 -0.000299364
-32.7582 -0.000658696 -32.9924 -0.000726722 -25.6695 -0.00030092
-32.7236 -0.000641283 -32.9563 -0.000715368 -25.6759 -0.000302067
-32.6881 -0.000623397 -32.9153 -0.000702479 -25.68 -0.000302802
-32.6471 -0.000602787 -32.8563 -0.000683933 -25.6824 -0.000303238
-32.6069 -0.00058252 -32.7831 -0.000660921 -25.6879 -0.000304225
-32.5692 -0.000563583 -32.7152 -0.00063957 -25.6955 -0.000305578
-32.5298 -0.000543718 -32.6467 -0.000618021 -25.6985 -0.000306114
-32.4874 -0.000522391 -32.5651 -0.000592368 -25.6972 -0.000305893
-32.4433 -0.000500224 -32.4768 -0.000564591 -25.6855 -0.000303783
-32.3973 -0.00047706 -32.3888 -0.000536924 -25.661 -0.000299397
-32.3466 -0.000451542 -32.3063 -0.000510981 -25.6112 -0.000290442
-32.2901 -0.000423098 -32.2269 -0.000486018 -25.5296 -0.000275804
-32.2304 -0.000393052 -32.1488 -0.000461483 -25.4212 -0.000256335
-32.1675 -0.000361435 -32.0735 -0.000437801 -25.2884 -0.000232503
-32.1006 -0.000327765 -32.0003 -0.000414772 -25.126 -0.000203345
-32.0302 -0.000292308 -31.9316 -0.000393169 -24.9534 -0.000172361
-31.958 -0.000255957 -31.8644 -0.000372031 -24.7901 -0.000143041
-31.8838 -0.000218644 -31.797 -0.000350848 -24.5963 -0.000108254
-31.8063 -0.00017963 -31.7305 -0.00032994 -24.3425 -6.26914e-05
-31.7252 -0.000138814 -31.6657 -0.000309575 -24.0574 -1.15071e-05
-31.6396 -9.57435e-05 -31.6008 -0.00028917 -23.7604 4.18168e-05
-31.5469 -4.9091e-05 -31.5342 -0.000268202 -23.4269 0.000101685
-31.4435 2.94134e-06 -31.4646 -0.000246338 -23.02 0.000174733
-31.3246 6.28021e-05 -31.3934 -0.000223926 -22.4796 0.000271739
-31.1827 0.000134177 -31.3201 -0.000200901 -21.7404 0.000404449
-31.0101 0.000221082 -31.2399 -0.000175673 -20.689 0.000593185
-30.7687 0.000342524 -31.1502 -0.000147464 -19.1245 0.000874049
-30.5017 0.000476918 -31.0494 -0.000115775 -16.9116 0.00127131
-30.0697 0.000694312 -30.9363 -8.02052e-05 -14.2451 0.00175001
-28.9197 0.00127305 -30.799 -3.70395e-05 -11.4639 0.00224929
-23.8914 0.00380359 -30.6436 1.18187e-05 -8.77649 0.00273174
-17.4558 0.0070424 -30.4618 6.89793e-05 -5.85219 0.00325671
-10.9413 0.0103209 -30.2377 0.000139448 -1.50192 0.00403768
-3.94969 0.0138394 -29.9315 0.000235743 0.0128526 0.00537088
0.0367486 0.0201639 -29.4668 0.000381852 0.047404 0.00823006
0.14221 0.0326094 -28.5678 0.000664544 0.120887 0.0143109
0.305082 0.05183 -24.313 0.00200242 0.228537 0.0232191
0.488694 0.0734981 -14.3798 0.00512583 0.341919 0.0326017
0.676366 0.0956453 -3.08516 0.00867733 0.454991 0.0419585
0.851329 0.116293 0.0783864 0.0158958 0.550669 0.0498761
1.01181 0.135232 0.242201 0.028954 0.621431 0.0557317
1.16331 0.15311 0.456989 0.0460754 0.674881 0.0601548
1.30185 0.169459 0.688633 0.0645404 0.732172 0.0648957
1.42426 0.183905 0.921429 0.0830972 0.800797 0.0705746
1.5325 0.196678 1.15516 0.101729 0.876465 0.0768363
1.62706 0.207837 1.39169 0.120583 0.951791 0.0830695
1.70633 0.217192 1.62993 0.139574 1.02367 0.0890174
1.77089 0.22481 1.86607 0.158397 1.0959 0.0949951
1.81731 0.230289 2.09357 0.176532 1.17784 0.101776
1.85031 0.234183 2.315 0.194183 1.27402 0.109734
1.88806 0.238638 2.52238 0.210714 1.38811 0.119176
1.9183 0.242206 2.71658 0.226194 1.51657 0.129806
1.93764 0.244488 2.8934 0.240289 1.65676 0.141407
1.94872 0.245797 3.05381 0.253076 1.80658 0.153804
1.95511 0.24655 3.19942 0.264682 1.96649 0.167038
1.94104 0.246758 3.32746 0.274889 2.1399 0.181388
1.68022 0.246626 3.43155 0.283186 2.33028 0.197142
1.0443 0.246306 3.50311 0.28889 2.53759 0.214297
-4.86202e-05 0.24578 3.56666 0.293956 2.76443 0.233069
-0.297422 0.243449 3.63468 0.299379 2.99937 0.25251
-0.785609 0.239621 3.67939 0.302943 3.23243 0.271797
-1.32765 0.235371 3.68969 0.303763 3.46386 0.290947
-1.89962 0.230887 3.69183 0.303934 3.69652 0.310201
-2.48692 0.226282 3.64626 0.304021 3.93303 0.329772
-3.06302 0.221765 2.97538 0.30381 4.16384 0.348872
-3.59103 0.217625 1.59441 0.303376 4.38244 0.366961
-4.06143 0.213937 -0.00849918 0.302795 4.58647 0.383845
-4.45637 0.21084 -0.165804 0.301323 4.77579 0.399512
-4.7733 0.208355 -0.403463 0.2991 4.94694 0.413675
-5.03181 0.206328 -0.650677 0.296787 5.09733 0.42612
-5.24908 0.204625 -0.836987 0.295043 5.22555 0.43673
-5.43705 0.203151 -0.934097 0.294135 5.32897 0.445289
-5.61511 0.201755 -0.958498 0.293907 5.40358 0.451462
-5.71824 0.200946 -0.835937 0.29393 5.449 0.455221
-5.76254 0.200599 -0.306724 0.294096 5.4659 0.45662
-5.66019 0.200635 0.015114 0.294916 5.13309 0.456577
-5.32279 0.200804 0.0544837 0.2968 4.13243 0.456397
-4.67664 0.20113 0.100537 0.299004 2.51673 0.456107
-3.71299 0.201614 0.148851 0.301316 -0.0108105 0.455469
-2.46704 0.202242 0.204145 0.303962 -0.358961 0.449466
-0.839802 0.20306 0.265545 0.306901 -0.993939 0.438517
0.018386 0.205267 0.320393 0.309526 -1.77361 0.425073
0.0846578 0.211695 0.351783 0.311028 -2.57876 0.41119
0.176926 0.220645 0.360196 0.311431 -3.36253 0.397675
0.281121 0.230752 -0.00208388 0.311297 -4.15765 0.383965
0.400641 0.242346 -0.107256 0.310287 -4.97445 0.369881
0.534848 0.255365 -0.308108 0.308357 -5.74591 0.356579
0.681371 0.269578 -0.601622 0.305537 -6.45979 0.344269
0.826693 0.283674 -0.942764 0.302259 -7.14238 0.332499
0.969109 0.297489 -1.31279 0.298704 -7.84405 0.3204
1.11093 0.311245 -1.70918 0.294895 -8.59308 0.307485
1.25143 0.324874 -2.12377 0.290912 -9.3747 0.294008
1.38457 0.337789 -2.53772 0.286934 -10.1426 0.280766
1.51355 0.350301 -2.92347 0.283228 -10.861 0.26838
1.6349 0.362072 -3.30059 0.279604 -11.5261 0.25691
1.74095 0.372359 -3.66831 0.276071 -12.1706 0.245799
1.83463 0.381446 -4.01429 0.272747 -12.8187 0.234622
1.91718 0.389454 -4.31553 0.269852 -13.4693 0.223404
1.98719 0.396245 -4.58471 0.267266 -14.0912 0.21268
2.04314 0.401672 -4.84125 0.264801 -14.6517 0.203016
2.08684 0.405911 -5.08584 0.262451 -15.1403 0.194592
2.12114 0.409239 -5.31383 0.26026 -15.5694 0.187193
2.1466 0.411708 -5.53248 0.25816 -15.9562 0.180523
2.16333 0.413331 -5.75467 0.256025 -16.3046 0.174516
2.1735 0.414317 -5.98872 0.253776 -16.5996 0.169429
2.17951 0.4149 -6.23633 0.251397 -16.8197 0.165633
2.18017 0.415088 -6.50304 0.248834 -16.9531 0.163333
2.07144 0.415033 -6.79719 0.246008 -17.0037 0.162461
1.87632 0.414935 -7.11004 0.243002 -16.9045 0.162443
1.59913 0.414796 -7.42931 0.239934 -16.5466 0.162508
1.25153 0.414621 -7.75102 0.236843 -15.8298 0.162636
0.877532 0.414432 -8.06699 0.233807 -14.6903 0.162841
0.511717 0.414248 -8.36917 0.230904 -13.2752 0.163095
0.0699226 0.414026 -8.64286 0.228274 -11.8861 0.163344
-0.0268623 0.413645 -8.86571 0.226133 -10.4849 0.163596
-0.0721813 0.413062 -9.03156 0.224539 -8.92411 0.163876
-0.126406 0.412365 -9.12859 0.223607 -7.16583 0.164192
-0.180149 0.411674 -9.07685 0.223458 -5.30258 0.164526
-0.216342 0.411208 -8.43515 0.22366 -2.98238 0.164943
-0.229299 0.411041 -7.13718 0.224068 0.00313744 0.165667
-0.16944 0.411072 -5.15398 0.224692 0.0259502 0.167038
-0.100722 0.411106 -2.48299 0.225531 0.0807532 0.170333
-0.12459 0.411094 0.0112377 0.226935 0.191606 0.176997
-0.245203 0.410837 0.085429 0.23105 0.313431 0.184321
-0.323062 0.409835 0.214121 0.238187 0.430131 0.191337
-0.423195 0.408548 0.366854 0.246657 0.532077 0.197466
-0.538434 0.407065 0.534747 0.255968 0.61431 0.202409
-0.660424 0.405496 0.712133 0.265805 0.685267 0.206675
-0.793319 0.403787 0.897415 0.27608 0.770163 0.211779
-0.949278 0.401781 1.10185 0.287418 0.873785 0.218009
-1.11374 0.399666 1.30585 0.298731 0.983702 0.224617
-1.26088 0.397773 1.49767 0.309369 1.08828 0.230903
-1.42403 0.395674 1.68295 0.319644 1.18528 0.236735
-1.61649 0.393199 1.85696 0.329294 1.28203 0.242552
-1.80479 0.390777 2.0166 0.338147 1.3916 0.249139
-1.99864 0.388284 2.15716 0.345943 1.5198 0.256846
-2.23548 0.385237 2.28565 0.353068 1.66018 0.265286
-2.51614 0.381627 2.40079 0.359453 1.80598 0.27405
-2.829 0.377603 2.49907 0.364904 1.9491 0.282655
-3.16479 0.373284 2.57744 0.36925 2.09232 0.291265
-3.51511 0.368778 2.63591 0.372493 2.24295 0.30032
-3.86911 0.364225 2.67339 0.374571 2.40579 0.31011
-4.21799 0.359738 2.68958 0.375469 2.57747 0.320431
-4.5545 0.355409 2.46733 0.375437 2.74991 0.330798
-4.87654 0.351267 1.68512 0.375191 2.91474 0.340708
-5.17877 0.34738 0.314934 0.37476 3.06949 0.350011
-5.4458 0.343945 -0.129974 0.373166 3.21757 0.358913
-5.66609 0.341112 -0.394268 0.370127 3.36246 0.367624
-5.84476 0.338814 -0.69102 0.366714 3.49931 0.375851
-5.97457 0.337144 -0.996568 0.363201 3.62281 0.383275
-6.05477 0.336113 -1.30525 0.359651 3.72653 0.389511
-6.0841 0.335735 -1.62326 0.355994 3.80695 0.394346
-6.12618 0.335194 -1.91489 0.352641 3.86339 0.397739
-6.13172 0.335082 -2.17986 0.349594 3.89887 0.399871
-5.9936 0.335152 -2.40166 0.347043 3.91155 0.400634
-5.68066 0.335309 -2.58106 0.34498 3.57358 0.400573
-5.21297 0.335545 -2.71858 0.343399 2.72724 0.400421
-4.61254 0.335847 -2.80893 0.34236 1.46214 0.400194
-3.86371 0.336224 -2.84883 0.341901 -0.0321231 0.399445
-3.00405 0.336656 -2.53408 0.341994 -0.381458 0.39415
-1.9984 0.337162 -1.89479 0.342195 -0.919636 0.385993
-0.836667 0.337747 -1.00785 0.342473 -1.56793 0.376168
0.0087516 0.338885 0.00167165 0.342861 -2.2331 0.366086
0.0395827 0.341411 0.0216411 0.343708 -2.89293 0.356086
0.0906629 0.345596 0.0474347 0.344802 -3.58058 0.345664
0.154046 0.350788 0.0696457 0.345745 -4.30075 0.334749
0.222357 0.356385 0.0809591 0.346224 -4.97108 0.324589
0.296108 0.362426 -0.00230111 0.346209 -5.57812 0.315388
0.37912 0.369227 -0.0544313 0.345654 -6.12838 0.307049
0.472262 0.376858 -0.167895 0.344446 -6.64937 0.299152
0.574533 0.385236 -0.353136 0.342473 -7.18157 0.291086
0.689026 0.394616 -0.608896 0.339749 -7.73079 0.282762
0.818297 0.405206 -0.930545 0.336323 -8.26376 0.274684
0.93904 0.415098 -1.26301 0.332782 -8.74767 0.26735
1.07475 0.426216 -1.63995 0.328767 -9.15638 0.261156
1.21655 0.437833 -2.05577 0.324339 -9.51206 0.255765
1.36256 0.449795 -2.49299 0.319682 -9.85124 0.250624
1.51026 0.461895 -2.92154 0.315118 -10.1902 0.245487
1.65529 0.473776 -3.31582 0.310918 -10.5202 0.240486
1.79264 0.485029 -3.66323 0.307218 -10.8157 0.236006
1.91845 0.495335 -3.94374 0.30423 -11.0643 0.232239
2.0309 0.504548 -4.13667 0.302175 -11.2742 0.229058
2.12867 0.512558 -4.23197 0.301161 -11.467 0.226135
2.21165 0.519355 -4.09592 0.301092 -11.6574 0.22325
2.28312 0.525211 -3.29214 0.301344 -11.8349 0.220559
2.34099 0.529952 -1.75229 0.301829 -11.9811 0.218343
2.38234 0.533339 0.00925424 0.302814 -12.0783 0.216871
2.40617 0.535292 0.0832062 0.306285 -12.1404 0.21593
2.42005 0.536429 0.192488 0.311415 -12.1673 0.215521
2.42745 0.537035 0.314487 0.317142 -12.1169 0.2155
2.42917 0.537176 0.441352 0.323097 -11.7984 0.215557
2.43015 0.537256 0.571379 0.329201 -11.1101 0.215681
2.43496 0.53765 0.702969 0.335378 -10.1489 0.215854
2.44475 0.538452 0.830816 0.341379 -9.08744 0.216044
2.45983 0.539687 0.951894 0.347063 -7.82708 0.21627
2.48416 0.541681 1.06876 0.352549 -6.31439 0.216542
2.51522 0.544225 1.18035 0.357787 -4.42297 0.216882
2.55048 0.547114 1.28363 0.362635 -1.77421 0.217357
2.59265 0.550569 1.3746 0.366905 0.0152052 0.218478
2.64267 0.554667 1.45493 0.370676 0.094143 0.222645
2.69808 0.559206 1.5306 0.374228 0.264801 0.231654
2.75709 0.56404 1.60266 0.377611 0.489189 0.243499
2.81861 0.56908 1.67361 0.380941 0.736524 0.256555
2.88096 0.574188 1.74966 0.384511 0.97215 0.268994
2.94172 0.579166 1.8394 0.388724 1.17976 0.279953
2.99715 0.583707 1.94363 0.393617 1.3675 0.289864
3.04649 0.587749 2.06395 0.399264 1.56376 0.300224
3.09855 0.592014 2.19606 0.405466 1.7817 0.311728
3.15172 0.59637 2.34276 0.412352 2.00322 0.323422
3.20534 0.600763 2.50533 0.419984 2.20886 0.334278
3.25916 0.605172 2.68379 0.42836 2.3854 0.343596
3.31347 0.609621 2.87637 0.437401 2.54154 0.351839
3.36864 0.614141 3.08178 0.447043 2.69628 0.360007
3.42553 0.618802 3.29828 0.457206 2.85893 0.368593
3.48441 0.623625 3.5232 0.467764 3.02344 0.377278
3.54448 0.628546 3.7544 0.478617 3.17565 0.385313
3.60332 0.633367 3.99163 0.489753 3.30723 0.392258
3.65807 0.637853 4.23393 0.501127 3.42349 0.398396
3.70596 0.641775 4.47936 0.512647 3.53688 0.404381
3.74426 0.644913 4.72501 0.524178 3.65655 0.410698
3.77178 0.647168 4.96757 0.535565 3.78147 0.417293
3.79039 0.648693 5.2038 0.546653 3.90376 0.423748
3.80138 0.649593 5.43013 0.557278 4.01763 0.429759
3.79663 0.64983 5.64276 0.567259 4.12552 0.435455
3.60676 0.649735 5.83759 0.576405 4.23581 0.441276
3.13324 0.649497 6.01193 0.584588 4.34924 0.447264
2.3256 0.64909 6.16289 0.591675 4.49511 0.454965
1.15779 0.648502 6.28772 0.597534 4.66133 0.463739
-0.0258587 0.647407 6.38715 0.602202 4.82323 0.472285
-0.19268 0.644096 6.46271 0.605749 4.9699 0.480028
-0.494478 0.638106 6.51956 0.608417 5.10772 0.487303
-0.852408 0.631003 6.55289 0.609982 5.25694 0.49518
-1.2684 0.622747 6.52922 0.610381 5.41731 0.503646
-1.75227 0.613144 5.83381 0.610162 5.57366 0.511899
-2.29237 0.602426 4.37267 0.609703 5.71361 0.519287
-2.87897 0.590784 2.12586 0.608996 5.83399 0.525641
-3.50686 0.578323 -0.0447621 0.607501 5.94394 0.531446
-4.12914 0.565973 -0.290465 0.602961 6.05442 0.537278
-4.74837 0.553684 -0.63985 0.596507 6.15529 0.542602
-5.35847 0.541576 -1.04052 0.589104 6.23558 0.546841
-5.95064 0.529824 -1.48273 0.580934 6.29038 0.549733
-6.51486 0.518627 -1.96543 0.572016 6.31932 0.551261
-7.03875 0.50823 -2.48611 0.562397 6.25707 0.551502
-7.52308 0.498618 -3.04747 0.552025 5.79028 0.551418
-7.98386 0.489473 -3.63836 0.541109 4.89031 0.551257
-8.40634 0.481089 -4.24881 0.52983 3.55255 0.551017
-8.78626 0.473549 -4.8726 0.518306 1.6952 0.550683
-9.13062 0.466715 -5.50295 0.50666 -0.0585315 0.549162
-9.44131 0.460549 -6.10582 0.495522 -0.44146 0.541201
-9.70202 0.455375 -6.69276 0.484678 -1.0028 0.52953
-9.92903 0.450869 -7.25865 0.474223 -1.67519 0.515551
-10.1332 0.446817 -7.80345 0.464158 -2.37825 0.500934
-10.3271 0.44297 -8.3237 0.454547 -3.09953 0.485939
-10.5314 0.438914 -8.81603 0.445451 -3.88335 0.469643
-10.7691 0.434198 -9.27763 0.436923 -4.7611 0.451395
-11.0445 0.428732 -9.70276 0.429068 -5.70618 0.431746
-11.3307 0.423051 -10.1015 0.421702 -6.6462 0.412203
-11.6275 0.417162 -10.5023 0.414296 -7.46391 0.395203
-11.9553 0.410656 -10.8917 0.407103 -8.21345 0.37962
-12.2957 0.4039 -11.2801 0.399926 -8.90884 0.365163
-12.6602 0.396667 -11.6804 0.392531 -9.6279 0.350213
-13.0473 0.388985 -12.1036 0.384712 -10.405 0.334057
-13.4461 0.38107 -12.5448 0.376561 -11.2147 0.317222
-13.8453 0.373147 -13.0183 0.367813 -11.9909 0.301085
-14.2471 0.365174 -13.5404 0.358168 -12.6678 0.287012
-14.6764 0.356653 -14.0891 0.34803 -13.2217 0.275498
-15.152 0.347214 -14.6414 0.337826 -13.7034 0.265482
-15.6556 0.33722 -15.233 0.326896 -14.1845 0.255481
-16.1778 0.326858 -15.8886 0.314784 -14.6836 0.245105
-16.739 0.31572 -16.6024 0.301596 -15.158 0.235242
-17.353 0.303533 -17.3583 0.287632 -15.545 0.227196
-18.0233 0.290231 -18.1357 0.273268 -15.8259 0.221355
-18.7413 0.275983 -18.9402 0.258405 -16.0398 0.216908
-19.4986 0.260953 -19.7905 0.242697 -16.2464 0.212613
-20.2895 0.245256 -20.6847 0.226175 -16.4621 0.208128
-21.1017 0.229138 -21.619 0.208914 -16.6543 0.204134
-21.9213 0.212873 -22.5822 0.191119 -16.7903 0.201306
-22.7335 0.196754 -23.5691 0.172886 -16.865 0.199753
-23.5349 0.18085 -24.5885 0.154052 -16.9056 0.198907
-24.3257 0.165154 -25.6354 0.134711 -16.9512 0.19796
-25.1145 0.149501 -26.6905 0.115218 -17.0202 0.196527
-25.9089 0.133735 -27.7341 0.0959378 -17.1029 0.194807
-26.7173 0.117692 -28.752 0.0771307 -17.1849 0.193102
-27.5419 0.101326 -29.7397 0.0588828 -17.2687 0.19136
-28.3852 0.0845908 -30.6957 0.0412215 -17.3744 0.189162
-29.2249 0.0679265 -31.6053 0.0244164 -17.5287 0.185955
-30.05 0.0515511 -32.4788 0.00827814 -17.734 0.181686
-30.942 0.0338476 -32.8944 0.000599935 -18.0135 0.175876
-31.8755 0.0153215 -32.9077 0.000354054 -18.3862 0.168127
-32.5959 0.00102506 -32.9139 0.000239429 -18.7655 0.16024
-32.617 0.000606971 -32.919 0.000145689 -19.1587 0.152065
-32.6261 0.000425244 -32.9228 7.57821e-05 -19.6171 0.142536
-32.6317 0.000313962 -32.9259 1.73675e-05 -20.1372 0.131722
-32.6359 0.000231553 -32.9285 -2.9781e-05 -20.6933 0.120161
-32.639 0.000170158 -32.9303 -6.29816e-05 -21.2744 0.10808
-32.6413 0.000124692 -32.9317 -8.81078e-05 -21.8848 0.09539
-32.6431 8.85387e-05 -32.933 -0.000112587 -22.5362 0.0818466
-32.6446 5.92277e-05 -32.9343 -0.000136924 -23.2287 0.0674497
-32.6458 3.54111e-05 -32.9354 -0.000157623 -23.9502 0.0524493
-32.6467 1.74063e-05 -32.9361 -0.00017096 -24.6867 0.0371373
-32.6474 3.177e-06 -32.9366 -0.000179579 -25.4354 0.0215712
-32.648 -9.18065e-06 -32.9371 -0.00018798 -26.1975 0.00572805
-32.6485 -1.84035e-05 -32.9376 -0.000198809 -26.4508 0.00046225
-32.6489 -2.60321e-05 -32.938 -0.000204618 -26.4616 0.000237956
-32.6492 -3.22289e-05 -32.9374 -0.000205016 -26.4663 0.000140054
-32.6494 -3.65532e-05 -32.9381 -0.000206413 -26.4702 5.92554e-05
-32.6495 -3.88795e-05 -32.9384 -0.000211831 -26.4744 -2.78259e-05
-32.649 -3.8947e-05 -32.9387 -0.000217634 -26.4785 -0.000113375
-32.6433 -3.60556e-05 -32.9389 -0.00022229 -26.4817 -0.000181463
-32.6291 -2.8918e-05 -32.9392 -0.000227289 -26.4839 -0.000225954
-32.6071 -1.785e-05 -32.9397 -0.000235904 -26.4853 -0.000254688
-32.5776 -3.01727e-06 -32.9404 -0.000248858 -26.4866 -0.000283428
-32.5405 1.56551e-05 -32.9411 -0.000262317 -26.4875 -0.000300705
-32.495 3.85764e-05 -32.9418 -0.000275244 -26.4879 -0.000309204
-32.4424 6.50593e-05 -32.9425 -0.000288131 -26.4881 -0.000312647
-32.3875 9.26921e-05 -32.9432 -0.000301616 -26.4679 -0.000309035
-32.3204 0.000126447 -32.9438 -0.000313039 -26.4478 -0.000305428
-32.2406 0.000166584 -32.9445 -0.000324943 -26.4507 -0.000305933
-32.18 0.000197074 -32.9449 -0.000333146 -26.4499 -0.000305791
-32.1166 0.000229 -32.9451 -0.000336879 -26.4009 -0.000297009
-32.0382 0.000268443 -32.9451 -0.000337337 -26.3015 -0.000279159
-31.9439 0.000315928 -32.9447 -0.000337676 -26.1807 -0.000257472
-31.8329 0.0003718 -32.931 -0.000333361 -26.0447 -0.000233055
-31.6917 0.000442818 -32.8971 -0.000322719 -25.8798 -0.00020346
-31.496 0.000541327 -32.8466 -0.000306831 -25.7193 -0.000174634
-31.2084 0.000686076 -32.7856 -0.000287653 -25.5743 -0.000148606
-30.698 0.000942911 -32.7257 -0.000268812 -25.4066 -0.00011851
-29.3055 0.00164372 -32.6541 -0.000246284 -25.187 -7.90744e-05
-25.6596 0.00347856 -32.5582 -0.000216153 -24.9428 -3.52464e-05
-21.4376 0.00560331 -32.4376 -0.000178217 -24.7015 8.07462e-06
-17.0996 0.00778646 -32.3017 -0.000135502 -24.4464 5.38823e-05
-12.6893 0.010006 -32.1583 -9.03985e-05 -24.1311 0.000110478
-8.16025 0.0122852 -31.998 -3.99897e-05 -23.7134 0.000185466
-2.88717 0.014939 -31.8096 1.92422e-05 -23.1776 0.000281658
0.0263168 0.0194959 -31.5799 9.14885e-05 -22.4325 0.000415408
0.0958811 0.0277009 -31.3029 0.000178583 -21.2656 0.000624894
0.207569 0.0408741 -30.9504 0.000289417 -19.2101 0.0009939
0.354069 0.0581533 -30.4084 0.000459836 -16.0493 0.00156133
0.520222 0.0777506 -29.0282 0.000893831 -12.2939 0.0022355
0.693876 0.0982326 -20.9749 0.00342612 -8.39673 0.00293513
0.878651 0.120026 -10.1331 0.00683524 -2.25546 0.00403762
1.07335 0.14299 0.0183673 0.0114848 0.0275465 0.00672152
1.26986 0.166168 0.137004 0.0209367 0.109133 0.0134714
1.47109 0.189902 0.298764 0.0338244 0.292676 0.0286563
1.67971 0.214509 0.485614 0.0487109 0.526359 0.0479896
1.89139 0.239476 0.682318 0.0643825 0.778486 0.0688488
2.11001 0.265261 0.882063 0.0802964 1.01156 0.0881318
2.32728 0.290888 1.0866 0.0965917 1.21011 0.104559
2.54578 0.316659 1.30037 0.113623 1.38794 0.11927
2.76674 0.34272 1.53113 0.132008 1.56808 0.134174
2.99543 0.369694 1.77881 0.151741 1.77189 0.151036
3.23287 0.3977 2.03766 0.172364 1.98369 0.168559
3.47858 0.426681 2.30236 0.193453 2.18394 0.185126
3.73063 0.456409 2.57737 0.215363 2.36185 0.199845
3.99033 0.48704 2.87033 0.238704 2.5138 0.212416
4.25753 0.518555 3.18314 0.263626 2.65993 0.224506
4.53064 0.550768 3.51181 0.289811 2.81323 0.237188
4.80316 0.582911 3.85405 0.317078 2.97452 0.250532
5.09504 0.617336 4.24363 0.348116 3.12407 0.262905
5.44447 0.658552 4.64171 0.379832 3.25397 0.273652
5.76322 0.696147 5.09965 0.416316 3.42965 0.288186
6.06413 0.731638 5.60783 0.456803 3.57934 0.300571
6.38979 0.770048 6.07444 0.493978 3.74253 0.314072
6.70634 0.807385 6.52896 0.530191 3.91111 0.328019
7.00564 0.842687 7.00112 0.567808 4.1186 0.345185
7.30476 0.877968 7.48055 0.606005 4.34169 0.363642
7.5994 0.912719 7.92976 0.641794 4.56922 0.382466
7.88085 0.945915 8.35615 0.675765 4.80411 0.401899
8.1522 0.97792 8.77821 0.709391 5.06086 0.423141
8.41339 1.00873 8.93253 0.742113 5.34571 0.446707
8.66176 1.03802 8.93253 0.772796 5.6186 0.469284
8.89933 1.06604 8.93253 0.801466 5.99656 0.500554
8.93253 1.09169 8.93253 0.827612 6.46301 0.539144
8.93253 1.11567 8.93253 0.851997 6.93746 0.578397
8.93253 1.13893 -1.73389 0.822303 7.12096 0.61529
2.43551 1.13737 -2.12064 0.756467 7.12096 0.646787
0.355097 1.13632 0.378738 0.761944 7.12096 0.719668
3.64849 1.13798 1.0199 0.770086 7.12096 0.7885
6.32284 1.13933 2.17321 0.784733 7.12096 0.850428
8.93253 1.14594 3.82936 0.805766 7.12096 0.891317
0.415189 1.06355 6.05885 0.83408 7.12096 0.90865
3.56297 1.0958 8.93253 0.931129 0.722367 0.907501
6.35922 1.12445 8.93253 1.01696 -0.0202905 0.906678
8.47964 1.14618 8.93253 1.08388 2.30331 0.907319
8.93253 1.16213 8.93253 1.13191 5.10772 0.908094
8.93253 1.16399 8.93253 1.15655 7.12096 0.918882
8.93253 1.17261 8.93253 1.17388 7.12096 0.953742
8.93253 1.18243 8.93253 1.19131 7.12096 0.996535
8.93253 1.19461 8.93253 1.21734 7.12096 1.03419
8.93253 1.21412 8.93253 1.25589 7.12096 1.05382
8.93253 1.24577 8.93253 1.29883 -0.271777 1.04178
8.93253 1.26924 8.93253 1.34291 0.0426847 1.03865
8.93253 1.28906 8.93253 1.38301 2.72808 1.0444
8.93253 1.30555 8.93253 1.4214 6.93702 1.05342
8.93253 1.3206 8.93253 1.4558 7.12096 1.07434
8.93253 1.33382 8.93253 1.48939 7.12096 1.09883
8.93253 1.34659 8.93253 1.52355 7.12096 1.12663
8.93253 1.36046 8.93253 1.55883 7.12096 1.15769
8.93253 1.37391 8.93253 1.59414 7.12096 1.19134
8.93253 1.38437 8.93253 1.62727 7.12096 1.22599
8.93253 1.39289 8.93253 1.65847 7.12096 1.26165
8.93253 1.40092 8.93253 1.68824 7.12096 1.30002
8.93253 1.40752 8.93253 1.71585 7.12096 1.3418
8.93253 1.4128 8.93253 1.74142 7.12096 1.38557
8.93253 1.4177 8.93253 1.76578 7.12096 1.42925
8.93253 1.42292 8.93253 1.78958 7.12096 1.47204
8.93253 1.42882 8.93253 1.81307 7.12096 1.5143
8.93253 1.43567 8.93253 1.83587 7.12096 1.55594
8.93253 1.44331 8.93253 1.85702 7.12096 1.59644
8.93253 1.45136 8.93253 1.87774 7.12096 1.63635
8.93253 1.45954 8.93253 1.89805 7.12096 1.67637
8.93253 1.46785 8.93253 1.91721 7.12096 1.71674
8.93253 1.47676 8.93253 1.93574 7.12096 1.75715
8.93253 1.48636 8.93253 1.95359 7.12096 1.79655
8.93253 1.4966 8.93253 1.97187 7.12096 1.83411
8.93253 1.50757 8.93253 1.99066 7.12096 1.86937
8.93253 1.51936 8.93253 2.01021 7.12096 1.90222
8.93253 1.53184 8.93253 2.03064 7.12096 1.93255
8.93253 1.54482 8.93253 2.05195 7.12096 1.96014
8.93253 1.55809 8.93253 2.07407 7.12096 1.98501
8.93253 1.57138 8.93253 2.09674 7.12096 2.00764
8.93253 1.58509 8.93253 2.1194 7.12096 2.02883
8.93253 1.59903 8.93253 2.14166 7.12096 2.04927
8.93253 1.61227 8.93253 2.16387 7.12096 2.06904
8.93253 1.62443 8.93253 2.18697 7.12096 2.08829
8.93253 1.63672 8.93253 2.20927 7.12096 2.10679
8.93253 1.64877 8.93253 2.23122 7.12096 2.12324
8.93253 1.66145 8.93253 2.25317 7.12096 2.13623
8.93253 1.67534 8.93253 2.27585 7.12096 2.14602
8.93253 1.68919 8.93253 2.29904 7.12096 2.15405
8.93253 1.70293 8.93253 2.32224 7.12096 2.16094
8.93253 1.71667 8.93253 2.34487 7.12096 2.16636
8.93253 1.72908 8.93253 2.36572 7.12096 2.17001
8.60994 1.73301 8.93253 2.38293 7.12096 2.17283
8.93253 1.73421 8.93253 2.39994 7.12096 2.17459
8.93253 1.73664 8.93253 2.41619 7.12096 2.17536
8.93253 1.73873 8.93253 2.43141 6.93008 2.17534
8.93253 1.74144 8.93253 2.44592 6.3857 2.17524
8.93253 1.74425 8.93253 2.45987 5.65793 2.17511
8.93253 1.74742 8.93253 2.47322 4.81022 2.17496
8.93253 1.75095 8.93253 2.48577 3.93966 2.1748
8.93253 1.75485 8.93253 2.49731 3.05963 2.17464
8.93253 1.75918 8.93253 2.50775 2.19946 2.17449
8.93253 1.7642 8.93253 2.51733 1.13498 2.1743
8.93253 1.77028 8.93253 2.5262 -0.00188929 2.17394
8.93253 1.77762 8.93253 2.53419 -0.0104912 2.17324
8.93253 1.7846 8.93253 2.53985 -0.0248703 2.17207
8.93253 1.79266 8.93253 2.54485 -0.0448114 2.17044
8.93253 1.80147 8.93253 2.5489 -0.0603462 2.16917
8.93253 1.81058 8.93253 2.55184 -0.0678148 2.16856
8.93253 1.81988 8.93253 2.55368 0.0287988 2.16857
8.93253 1.82929 8.93253 2.55449 0.28222 2.16882
8.93253 1.83882 8.81546 2.55452 0.618001 2.16914
8.93253 1.84845 8.39104 2.55438 0.925881 2.16943
8.93253 1.85832 7.79538 2.5542 1.1675 2.16966
8.93253 1.86845 6.9653 2.55394 1.32324 2.16981
8.93253 1.8784 5.33692 2.55342 1.37074 2.16986
8.93253 1.8879 3.6031 2.55288 1.48901 2.16997
8.93253 1.89688 2.30896 2.55247 1.75479 2.17023
8.93253 1.90541 1.27202 2.55215 2.03551 2.1705
8.93253 1.91355 -0.00126828 2.55165 2.20697 2.17066
8.93253 1.92131 -0.0124322 2.55079 2.24483 2.1707
8.93253 1.92864 -0.0285001 2.54957 2.19867 2.17069
8.93253 1.9354 -0.0434983 2.54842 2.14047 2.17068
8.93253 1.94149 -0.052232 2.54775 2.02548 2.17066
8.93253 1.94688 -0.0224589 2.54765 1.7684 2.17061
8.93253 1.95163 0.151609 2.54777 1.34891 2.17054
8.93253 1.95576 0.475312 2.54802 0.782292 2.17044
8.93253 1.95927 1.0194 2.54844 -0.000944026 2.17022
8.93253 1.9621 1.90674 2.54913 -0.0182838 2.16881
8.93253 1.96423 3.09498 2.55005 -0.0515672 2.1661
8.93253 1.96574 4.41647 2.55107 -0.0892037 2.16303
8.93253 1.96666 5.80156 2.55214 -0.130138 2.1597
8.93253 1.96707 7.24613 2.55325 -0.171632 2.15632
8.9042 1.96711 8.763 2.55442 -0.210554 2.15315
8.64059 1.96698 8.93253 2.55738 -0.24707 2.15017
8.32135 1.96682 8.93253 2.56104 -0.28299 2.14725
8.01731 1.96666 8.93253 2.56423 -0.316931 2.14448
7.74368 1.96653 8.93253 2.56683 -0.348189 2.14193
7.56748 1.96644 8.93253 2.56883 -0.372915 2.13992
7.54469 1.96642 8.93253 2.5702 -0.38845 2.13866
7.61946 1.96646 8.93253 2.57087 -0.392549 2.1383
7.85528 1.96658 8.88045 2.57092 -0.180783 2.13833
8.28057 1.9668 8.55905 2.57082 0.0438213 2.13859
8.93253 1.96713 7.95084 2.57063 0.192816 2.13937
8.93253 1.9695 6.96987 2.57032 0.352094 2.1402
8.93253 1.97322 5.95817 2.57 0.530359 2.14112
8.93253 1.97795 4.99486 2.5697 0.709637 2.14205
8.93253 1.98346 3.46653 2.56922 0.849519 2.14278
8.93253 1.98924 1.61069 2.56863 0.94554 2.14328
8.93253 1.99518 -0.00263926 2.56792 1.09686 2.14407
8.93253 2.00117 -0.011157 2.56727 1.31472 2.1452
8.93253 2.00716 -0.0192656 2.56664 1.54115 2.14638
8.93253 2.01312 -0.0291202 2.56588 1.73255 2.14737
8.93253 2.01896 -0.0395696 2.56508 1.87108 2.14809
8.93253 2.02449 -0.0458297 2.5646 1.97731 2.14864
8.93253 2.02959 0.165932 2.56472 2.07042 2.14913
8.93253 2.03443 0.803786 2.56517 2.14896 2.14953
8.93253 2.03905 1.70866 2.56581 2.19236 2.14976
8.93253 2.04351 2.7741 2.56657 2.16887 2.14978
8.93253 2.04787 3.9134 2.56738 2.04518 2.14975
8.93253 2.05222 5.36292 2.5684 1.8754 2.14972
8.93253 2.05657 7.11805 2.56965 1.67558 2.14969
8.93253 2.06102 8.93253 2.57115 1.43984 2.14964
8.93253 2.06512 8.93253 2.57549 1.03738 2.14957
8.93253 2.06924 8.93253 2.58059 0.66032 2.1495
8.93253 2.07345 8.93253 2.58598 0.135647 2.14941
8.93253 2.07773 8.93253 2.59159 -0.0021995 2.14921
8.93253 2.08213 8.93253 2.59733 -0.00892898 2.14867
8.93253 2.0867 8.93253 2.60318 -0.0192248 2.14784
8.93253 2.09152 8.93253 2.60891 -0.027097 2.1472
8.93253 2.09658 8.93253 2.61459 -0.0176128 2.14702
8.93253 2.10186 8.93253 2.62016 0.069393 2.1473
8.93253 2.10735 8.93253 2.62556 0.248459 2.14801
8.93253 2.11303 8.93253 2.63078 0.509627 2.14905
8.93253 2.11891 8.93253 2.63586 0.837314 2.15036
8.93253 2.125 8.93253 2.64085 1.22848 2.15191
8.93253 2.13128 8.93253 2.6458 1.67921 2.15371
8.93253 2.13774 8.93253 2.65081 2.17044 2.15566
