-0.0193558 -9.74099e-06 -0.0581541 -1.8286e-05 -0.0157048 -2.81935e-06
-0.0196112 -9.86952e-06 -0.0580773 -1.82619e-05 -0.0157221 -2.82246e-06
-0.0201884 -1.016e-05 -0.0579058 -1.82079e-05 -0.0157472 -2.82695e-06
-0.0213702 -1.07547e-05 -0.057563 -1.81002e-05 -0.0157842 -2.83361e-06
-0.0227001 -1.1424e-05 -0.0572233 -1.79934e-05 -0.0158076 -2.83781e-06
-0.0243962 -1.22776e-05 -0.0568597 -1.7879e-05 -0.015813 -2.83878e-06
-0.0264784 -1.33255e-05 -0.0564996 -1.77658e-05 -0.0157819 -2.83319e-06
-0.0289667 -1.45778e-05 -0.0561743 -1.76635e-05 -0.0156964 -2.81784e-06
-0.0318846 -1.60462e-05 -0.0559279 -1.7586e-05 -0.0155412 -2.78998e-06
-0.0352565 -1.77431e-05 -0.0558126 -1.75498e-05 -0.0153016 -2.74696e-06
-0.0391021 -1.96785e-05 -0.0558822 -1.75716e-05 -0.0149608 -2.68579e-06
-0.0434253 -2.18542e-05 -0.0561939 -1.76697e-05 -0.0145017 -2.60337e-06
-0.0482026 -2.42584e-05 -0.0568152 -1.7865e-05 -0.0139106 -2.49724e-06
-0.0533596 -2.68537e-05 -0.0578195 -1.81808e-05 -0.0131803 -2.36614e-06
-0.0587904 -2.95868e-05 -0.0593058 -1.86482e-05 -0.0123064 -2.20927e-06
-0.0643596 -3.23895e-05 -0.0613798 -1.93003e-05 -0.011287 -2.02626e-06
-0.0698734 -3.51644e-05 -0.0641337 -2.01662e-05 -0.0101334 -1.81917e-06
-0.0751244 -3.7807e-05 -0.0676434 -2.12699e-05 -0.00887021 -1.59239e-06
-0.0799188 -4.02198e-05 -0.0719642 -2.26285e-05 -0.00753921 -1.35345e-06
-0.0840717 -4.23098e-05 -0.0771181 -2.42491e-05 -0.0066495 -1.19373e-06
-0.0874017 -4.39856e-05 -0.0830908 -2.61271e-05 -0.00579885 -1.04102e-06
-0.0897183 -4.51515e-05 -0.0898348 -2.82477e-05 -0.00503972 -9.04737e-07
-0.090807 -4.56994e-05 -0.0972767 -3.05878e-05 -0.00442968 -7.95222e-07
-0.0904097 -4.54995e-05 -0.105317 -3.31161e-05 -0.00404191 -7.25608e-07
-0.088229 -4.4402e-05 -0.11384 -3.57961e-05 -0.00396467 -7.11743e-07
-0.0839624 -4.22548e-05 -0.12269 -3.85786e-05 -0.00429313 -7.70708e-07
-0.0773934 -3.89489e-05 -0.131619 -4.13864e-05 -0.00533471 -9.57693e-07
-0.0685097 -3.44781e-05 -0.140308 -4.41184e-05 -0.00793674 -1.42481e-06
-0.0575895 -2.89824e-05 -0.148325 -4.66395e-05 -0.0118111 -2.12035e-06
-0.0451728 -2.27336e-05 -0.155129 -4.87788e-05 -0.017067 -3.06388e-06
-0.0319072 -1.60576e-05 -0.160135 -5.0353e-05 -0.0238244 -4.27698e-06
-0.0184109 -9.26546e-06 -0.162813 -5.11949e-05 -0.0321762 -5.77632e-06
-0.00520816 -2.62105e-06 -0.16274 -5.11722e-05 -0.0421826 -7.57268e-06
0.00722679 3.63694e-06 -0.159653 -5.02014e-05 -0.0538102 -9.66007e-06
0.0185943 9.35776e-06 -0.153416 -4.82404e-05 -0.0669104 -1.20118e-05
0.028922 1.45553e-05 -0.144002 -4.52802e-05 -0.0812489 -1.45859e-05
0.0379998 1.91237e-05 -0.131517 -4.13544e-05 -0.096536 -1.73303e-05
0.044735 2.25133e-05 -0.116332 -3.65794e-05 -0.112358 -2.01707e-05
0.0505435 2.54364e-05 -0.0988046 -3.10682e-05 -0.128315 -2.30354e-05
0.0555597 2.79609e-05 -0.0793826 -2.49611e-05 -0.143896 -2.58323e-05
0.059894 3.01422e-05 -0.0585942 -1.84244e-05 -0.15858 -2.84685e-05
0.0636958 3.20554e-05 -0.0370041 -1.16356e-05 -0.171845 -3.08499e-05
0.0670251 3.3731e-05 -0.0151545 -4.7652e-06 -0.183188 -3.28862e-05
0.069811 3.5133e-05 0.00644793 2.02749e-06 -0.192117 -3.44891e-05
0.0719374 3.62031e-05 0.0273339 8.5949e-06 -0.198169 -3.55756e-05
0.0733641 3.69211e-05 0.0470976 1.48094e-05 -0.200924 -3.607e-05
0.0742196 3.73516e-05 0.0624339 1.96318e-05 -0.199925 -3.58909e-05
0.074821 3.76543e-05 0.0755966 2.37707e-05 -0.195053 -3.50162e-05
0.0757405 3.81171e-05 0.0862454 2.71191e-05 -0.186011 -3.33929e-05
0.0777021 3.91043e-05 0.0940129 2.95615e-05 -0.172659 -3.0996e-05
0.0829516 4.17461e-05 0.0990414 3.11427e-05 -0.149934 -2.69164e-05
0.0930398 4.68231e-05 0.0983463 3.09241e-05 -0.120797 -2.16855e-05
0.109581 5.51477e-05 0.0919666 2.89181e-05 -0.0858368 -1.54095e-05
0.133568 6.72194e-05 0.0805502 2.53283e-05 -0.0460195 -8.26148e-06
0.16517 8.3123e-05 0.0653285 2.05419e-05 -0.00970297 -1.74189e-06
0.203609 0.000102468 0.0481153 1.51294e-05 0.0172376 3.09451e-06
0.24713 0.00012437 0.0313548 9.85922e-06 0.0438436 7.87086e-06
0.293165 0.000147538 0.0178482 5.61219e-06 0.0694773 1.24726e-05
0.338872 0.00017054 0.0102811 3.2328e-06 0.093054 1.67052e-05
0.381831 0.00019216 0.0109218 3.43425e-06 0.113524 2.038e-05
0.420488 0.000211614 0.0213883 6.72537e-06 0.13013 2.3361e-05
0.454155 0.000228557 0.0424729 1.33552e-05 0.14272 2.56212e-05
0.482808 0.000242977 0.0741505 2.3316e-05 0.151392 2.71781e-05
0.50689 0.000255097 0.115711 3.63844e-05 0.156445 2.80853e-05
0.52705 0.000265242 0.165883 5.21604e-05 0.158405 2.84371e-05
0.543853 0.000273699 0.222952 7.01053e-05 0.158156 2.83923e-05
0.557758 0.000280696 0.284876 8.95767e-05 0.156784 2.81461e-05
0.569383 0.000286547 0.349327 0.000109843 0.15546 2.79083e-05
0.579736 0.000291757 0.413721 0.000130091 0.15535 2.78886e-05
0.590138 0.000296992 0.475361 0.000149473 0.157643 2.83003e-05
0.601909 0.000302916 0.531698 0.000167187 0.163453 2.93433e-05
0.615928 0.000309971 0.580624 0.000182572 0.173688 3.11807e-05
0.63238 0.000318251 0.620654 0.000195159 0.18895 3.39205e-05
0.650998 0.00032762 0.650907 0.000204672 0.209551 3.76189e-05
0.671376 0.000337876 0.671023 0.000210997 0.235522 4.22813e-05
0.693077 0.000348797 0.681125 0.000214174 0.266599 4.78602e-05
0.715663 0.000360164 0.681809 0.000214389 0.302214 5.42539e-05
0.738722 0.000371768 0.674101 0.000211965 0.341531 6.13121e-05
0.761898 0.000383432 0.659374 0.000207334 0.383497 6.88459e-05
0.784867 0.000394991 0.639276 0.000201014 0.426894 7.66365e-05
0.807289 0.000406275 0.615667 0.000193591 0.470383 8.44437e-05
0.828818 0.00041711 0.590533 0.000185688 0.512563 9.2016e-05
0.84921 0.000427372 0.56584 0.000177923 0.552048 9.91044e-05
0.868444 0.000437052 0.543399 0.000170867 0.587537 0.000105475
0.88673 0.000446254 0.524785 0.000165014 0.617868 0.00011092
0.90433 0.000455112 0.511324 0.000160781 0.64206 0.000115263
0.921204 0.000463604 0.504148 0.000158525 0.659341 0.000118366
0.936706 0.000471405 0.504245 0.000158555 0.669175 0.000120131
0.94961 0.000477899 0.512387 0.000161116 0.671301 0.000120513
0.958466 0.000482356 0.528964 0.000166328 0.665764 0.000119519
0.961735 0.000484001 0.548206 0.000172378 0.656055 0.000117776
0.96021 0.000483234 0.579109 0.000182096 0.637889 0.000114515
0.951988 0.000479096 0.616343 0.000193804 0.613935 0.000110214
0.937082 0.000471594 0.657958 0.000206889 0.585431 0.000105097
0.915806 0.000460887 0.701545 0.000220594 0.553813 9.94212e-05
0.888557 0.000447174 0.744435 0.000234081 0.52064 9.34659e-05
0.855805 0.000430691 0.783845 0.000246473 0.487512 8.75187e-05
0.818047 0.000411689 0.817006 0.0002569 0.455977 8.18575e-05
0.775722 0.000390389 0.841316 0.000264544 0.427445 7.67355e-05
0.729246 0.000366999 0.854474 0.000268682 0.403121 7.23688e-05
0.67901 0.000341718 0.854588 0.000268718 0.383933 6.89242e-05
0.625338 0.000314707 0.840261 0.000264213 0.370474 6.6508e-05
0.568564 0.000286135 0.810643 0.0002549 0.362976 6.51619e-05
0.509284 0.000256302 0.765405 0.000240675 0.361296 6.48604e-05
0.448603 0.000225764 0.70467 0.000221577 0.364922 6.55112e-05
0.387981 0.000195255 0.62906 0.000197802 0.372963 6.69547e-05
0.328692 0.000165417 0.539873 0.000169758 0.384167 6.89661e-05
0.271605 0.000136688 0.439143 0.000138085 0.396959 7.12626e-05
0.217301 0.000109359 0.329514 0.000103613 0.409502 7.35144e-05
0.166161 8.3622e-05 0.214062 6.73099e-05 0.419779 7.53593e-05
0.118364 5.95676e-05 0.0961728 3.02407e-05 0.425699 7.64221e-05
0.073811 3.7146e-05 -0.0205586 -6.46448e-06 0.425202 7.63328e-05
0.0275069 1.38431e-05 -0.132234 -4.15797e-05 0.416303 7.47353e-05
-0.0198004 -9.96471e-06 -0.242799 -7.63459e-05 0.397768 7.14078e-05
-0.0661537 -3.32924e-05 -0.353465 -0.000111144 0.367508 6.59754e-05
-0.112742 -5.67385e-05 -0.448233 -0.000140943 0.325076 5.83581e-05
-0.160482 -8.07637e-05 -0.524785 -0.000165014 0.270131 4.84942e-05
-0.208693 -0.000105027 -0.58305 -0.000183335 0.202525 3.63575e-05
-0.256459 -0.000129065 -0.623465 -0.000196043 0.123051 2.20903e-05
-0.303155 -0.000152565 -0.646685 -0.000203344 0.0332715 5.97293e-06
-0.34863 -0.000175451 -0.654191 -0.000205705 -0.122379 -2.19696e-05
-0.393426 -0.000197995 -0.648534 -0.000203926 -0.301349 -5.40985e-05
-0.438397 -0.000220627 -0.632101 -0.000198759 -0.486729 -8.73782e-05
-0.484215 -0.000243685 -0.607746 -0.0001911 -0.673789 -0.000120959
-0.53153 -0.000267497 -0.579022 -0.000182068 -0.858071 -0.000154042
-0.581093 -0.00029244 -0.549594 -0.000172815 -1.03548 -0.000185891
-0.633684 -0.000318907 -0.522895 -0.00016442 -1.20092 -0.000215591
-0.68999 -0.000347243 -0.502295 -0.000157942 -1.34977 -0.000242312
-0.750375 -0.000377632 -0.491121 -0.000154429 -1.47819 -0.000265366
-0.814545 -0.000409927 -0.492425 -0.000154838 -1.58327 -0.00028423
-0.88132 -0.000443532 -0.508879 -0.000160012 -1.66242 -0.000298439
-0.948726 -0.000477455 -0.542729 -0.000170656 -1.71384 -0.000307671
-1.01449 -0.000510548 -0.595478 -0.000187243 -1.73686 -0.000311804
-1.07656 -0.000541787 -0.667494 -0.000209888 -1.73212 -0.000310952
-1.13343 -0.00057041 -0.757864 -0.000238304 -1.70125 -0.00030541
-1.18431 -0.000596013 -0.864424 -0.00027181 -1.64689 -0.000295652
-1.22905 -0.000618528 -0.983857 -0.000309365 -1.57267 -0.000282328
-1.2681 -0.000638182 -1.11185 -0.00034961 -1.48308 -0.000266244
-1.30239 -0.000655441 -1.24334 -0.000390957 -1.38321 -0.000248315
-1.3331 -0.000670896 -1.37291 -0.000431699 -1.2784 -0.0002295
-1.36134 -0.000685104 -1.49515 -0.000470136 -1.17401 -0.00021076
-1.38795 -0.000698496 -1.60499 -0.000504673 -1.07519 -0.000193019
-1.41357 -0.00071139 -1.69796 -0.000533907 -0.986629 -0.000177121
-1.43864 -0.00072401 -1.7704 -0.000556685 -0.912316 -0.00016378
-1.45985 -0.000734684 -1.81788 -0.000571615 -0.855708 -0.000153618
-1.45834 -0.000733921 -1.8255 -0.000574013 -0.823228 -0.000147787
-1.45489 -0.000732184 -1.81 -0.000569139 -0.809471 -0.000145317
-1.47128 -0.000740435 -1.78217 -0.000560387 -0.811891 -0.000145752
-1.48775 -0.000748723 -1.73361 -0.000545118 -0.833778 -0.000149681
-1.49691 -0.00075333 -1.66636 -0.000523972 -0.872619 -0.000156654
-1.47322 -0.000741411 -1.59919 -0.00050285 -0.921483 -0.000165426
-1.44985 -0.000729647 -1.52112 -0.000478303 -0.980736 -0.000176063
-1.42 -0.000714628 -1.42901 -0.000449339 -1.04941 -0.000188392
-1.38969 -0.000699376 -1.33082 -0.000418465 -1.12229 -0.000201475
-1.35954 -0.000684203 -1.2312 -0.000387139 -1.19532 -0.000214585
-1.32851 -0.000668586 -1.13164 -0.000355835 -1.26456 -0.000227015
-1.29955 -0.000654008 -1.03571 -0.000325671 -1.3264 -0.000238117
-1.2735 -0.0006409 -0.947492 -0.00029793 -1.37778 -0.000247341
-1.25062 -0.000629386 -0.870132 -0.000273605 -1.4153 -0.000254077
-1.23231 -0.00062017 -0.806019 -0.000253445 -1.43583 -0.000257761
-1.21927 -0.000613609 -0.757 -0.000238032 -1.43772 -0.000258102
-1.21171 -0.000609805 -0.724795 -0.000227905 -1.42031 -0.000254975
-1.21008 -0.000608983 -0.710521 -0.000223417 -1.38303 -0.000248283
-1.2144 -0.000611155 -0.714215 -0.000224579 -1.32599 -0.000238043
-1.22436 -0.000616169 -0.735375 -0.000231232 -1.25055 -0.000224501
-1.23847 -0.000623273 -0.773423 -0.000243196 -1.159 -0.000208065
-1.24839 -0.000628261 -0.828997 -0.000260671 -1.05367 -0.000189157
-1.25295 -0.000630557 -0.900093 -0.000283026 -0.938039 -0.000168398
-1.25189 -0.000630027 -0.982887 -0.00030906 -0.816293 -0.000146542
-1.24552 -0.000626818 -1.07272 -0.000337306 -0.693267 -0.000124456
-1.23716 -0.000622614 -1.14646 -0.000360494 -0.597376 -0.000107242
-1.22645 -0.000617224 -1.21914 -0.000383348 -0.506487 -9.09251e-05
-1.21386 -0.000610886 -1.2881 -0.000405031 -0.42301 -7.59393e-05
-1.19984 -0.00060383 -1.35079 -0.000424742 -0.349241 -6.26962e-05
-1.1848 -0.000596261 -1.40494 -0.000441769 -0.287314 -5.15791e-05
-1.16905 -0.000588335 -1.44863 -0.000455508 -0.239061 -4.29165e-05
-1.15276 -0.000580138 -1.48029 -0.000465463 -0.205875 -3.69589e-05
-1.1359 -0.000571649 -1.49874 -0.000471266 -0.188686 -3.38732e-05
-1.11813 -0.000562707 -1.50331 -0.000472703 -0.188002 -3.37503e-05
-1.09887 -0.000553016 -1.49384 -0.000469726 -0.203915 -3.66072e-05
-1.07735 -0.000542184 -1.47069 -0.000462444 -0.236079 -4.23812e-05
-1.05276 -0.000529809 -1.43455 -0.00045108 -0.283682 -5.09269e-05
-1.02448 -0.000515581 -1.3864 -0.000435942 -0.345497 -6.20241e-05
-0.992244 -0.000499355 -1.32742 -0.000417395 -0.419956 -7.53911e-05
-0.956135 -0.000481183 -1.2589 -0.000395848 -0.505218 -9.06973e-05
-0.916587 -0.00046128 -1.18225 -0.000371747 -0.599195 -0.000107568
-0.874159 -0.000439928 -1.09902 -0.000345577 -0.699575 -0.000125589
-0.829355 -0.00041738 -1.01091 -0.000317873 -0.803855 -0.000144309
-0.782543 -0.000393821 -0.919778 -0.000289216 -0.909419 -0.00016326
-0.733985 -0.000369384 -0.827543 -0.000260213 -1.01361 -0.000181964
-0.683933 -0.000344195 -0.736127 -0.000231468 -1.11378 -0.000199948
-0.632662 -0.000318393 -0.647351 -0.000203554 -1.20741 -0.000216756
-0.58046 -0.000292122 -0.562901 -0.000176999 -1.29209 -0.000231957
-0.527577 -0.000265507 -0.484301 -0.000152284 -1.36561 -0.000245155
-0.474214 -0.000238653 -0.412878 -0.000129826 -1.42603 -0.000256002
-0.420552 -0.000211646 -0.349714 -0.000109964 -1.47171 -0.000264204
-0.366777 -0.000184583 -0.295593 -9.29465e-05 -1.50135 -0.000269525
-0.313106 -0.000157573 -0.250975 -7.89168e-05 -1.51402 -0.000271799
-0.259778 -0.000130736 -0.215994 -6.79175e-05 -1.50916 -0.000270926
-0.207057 -0.000104203 -0.190461 -5.98886e-05 -1.4866 -0.000266876
-0.155221 -7.81161e-05 -0.173869 -5.46717e-05 -1.44656 -0.000259688
-0.104548 -5.26149e-05 -0.165424 -5.2016e-05 -1.38963 -0.000249469
-0.0553288 -2.78447e-05 -0.164063 -5.15881e-05 -1.31674 -0.000236384
-0.00786513 -3.95819e-06 -0.168497 -5.29822e-05 -1.22913 -0.000220656
0.0283881 1.42865e-05 -0.176548 -5.55139e-05 -1.12823 -0.000202542
0.0471787 2.37431e-05 -0.182626 -5.7425e-05 -1.01665 -0.000182511
0.0672793 3.38589e-05 -0.188835 -5.93774e-05 -0.895374 -0.000160739
0.0867222 4.36437e-05 -0.197032 -6.19548e-05 -0.765573 -0.000137437
0.10378 5.22283e-05 -0.206286 -6.48649e-05 -0.629544 -0.000113017
0.120174 6.04788e-05 -0.21423 -6.73626e-05 -0.489019 -8.77893e-05
0.136983 6.8938e-05 -0.219076 -6.88863e-05 -0.346114 -6.21348e-05
0.153958 7.74806e-05 -0.220646 -6.93803e-05 -0.202871 -3.64197e-05
0.171427 8.62722e-05 -0.218746 -6.87828e-05 -0.0611908 -1.0985e-05
0.190338 9.57894e-05 -0.212283 -6.67505e-05 0.0353736 6.35031e-06
0.211158 0.000106267 -0.200331 -6.29924e-05 0.113635 2.03999e-05
0.233851 0.000117688 -0.182131 -5.72693e-05 0.187569 3.36726e-05
0.258564 0.000130125 -0.157207 -4.94322e-05 0.256939 4.6126e-05
0.285469 0.000143665 -0.132421 -4.16387e-05 0.321372 5.7693e-05
0.314452 0.000158251 -0.103773 -3.26305e-05 0.379924 6.82044e-05
0.34536 0.000173805 -0.0687441 -2.16159e-05 0.431795 7.75164e-05
0.378149 0.000190307 -0.0268024 -8.42778e-06 0.476731 8.55834e-05
0.41275 0.00020772 0.0218603 6.87376e-06 0.514806 9.24186e-05
0.449052 0.000225989 0.0764484 2.40385e-05 0.546128 9.80415e-05
0.48695 0.000245062 0.136187 4.28227e-05 0.570844 0.000102479
0.526272 0.000264851 0.20055 6.30613e-05 0.589198 0.000105774
0.566714 0.000285204 0.268963 8.45729e-05 0.60157 0.000107995
0.607865 0.000305913 0.34054 0.00010708 0.608483 0.000109236
0.649248 0.00032674 0.414198 0.000130241 0.6106 0.000109616
0.690351 0.000347425 0.488889 0.000153727 0.608682 0.000109271
0.730634 0.000367698 0.563646 0.000177233 0.603511 0.000108343
0.769546 0.000387281 0.63747 0.000200447 0.59585 0.000106968
0.806558 0.000405907 0.70925 0.000223017 0.586472 0.000105284
0.841189 0.000423336 0.777836 0.000244584 0.576198 0.00010344
0.873027 0.000439358 0.842138 0.000264803 0.565877 0.000101587
0.901741 0.000453809 0.901153 0.000283359 0.556306 9.98687e-05
0.927103 0.000466573 0.953922 0.000299952 0.548167 9.84076e-05
0.948997 0.000477591 0.999526 0.000314292 0.542043 9.73082e-05
0.96743 0.000486868 1.03713 0.000326118 0.538446 9.66624e-05
0.982523 0.000494463 1.06607 0.000335215 0.537809 9.65482e-05
0.994487 0.000500484 1.08581 0.000341423 0.540444 9.70212e-05
1.00358 0.000505061 1.09603 0.000344638 0.546496 9.81077e-05
1.01008 0.000508332 1.0966 0.000344817 0.555947 9.98043e-05
1.01429 0.000510452 1.08759 0.000341983 0.568639 0.000102083
1.01651 0.000511567 1.06919 0.000336198 0.584317 0.000104897
1.01702 0.000511824 1.04188 0.000327611 0.602569 0.000108174
1.01634 0.00051148 1.00639 0.000316451 0.622832 0.000111812
1.01496 0.000510789 0.963666 0.000303016 0.644413 0.000115686
1.01325 0.000509928 0.914797 0.00028765 0.666543 0.000119659
1.01149 0.000509039 0.861067 0.000270755 0.688373 0.000123578
1.0099 0.000508243 0.803927 0.000252788 0.708995 0.00012728
1.00867 0.000507622 0.744914 0.000234231 0.727471 0.000130597
1.00789 0.000507229 0.685593 0.000215579 0.742876 0.000133362
1.00769 0.000507127 0.627524 0.000197319 0.754321 0.000135417
1.00821 0.000507388 0.572216 0.000179928 0.76098 0.000136612
1.00957 0.000508075 0.521082 0.00016385 0.762123 0.000136817
1.01188 0.000509238 0.475407 0.000149487 0.757137 0.000135922
1.01521 0.000510911 0.436321 0.000137197 0.745546 0.000133841
1.0196 0.000513122 0.404767 0.000127275 0.727032 0.000130518
1.02512 0.000515898 0.381465 0.000119948 0.701453 0.000125926
1.03184 0.000519281 0.366885 0.000115364 0.668849 0.000120073
1.0399 0.00052334 0.361233 0.000113587 0.629451 0.000113
1.04949 0.000528164 0.364421 0.000114589 0.583681 0.000104783
1.06053 0.000533721 0.375536 0.000118084 0.532525 9.55996e-05
1.07243 0.000539709 0.395307 0.000124301 0.476097 8.54695e-05
1.08672 0.000546902 0.422566 0.000132872 0.415301 7.45554e-05
1.10098 0.000554078 0.45659 0.000143571 0.351483 6.30987e-05
1.11552 0.000561395 0.496542 0.000156133 0.285696 5.12884e-05
1.13152 0.000569446 0.540905 0.000170083 0.219468 3.93992e-05
1.14787 0.000577674 0.588641 0.000185093 0.153659 2.7585e-05
1.16131 0.000584439 0.638091 0.000200642 0.0896377 1.60919e-05
1.172 0.000589818 0.68884 0.0002166 0.0285689 5.12872e-06
1.18019 0.000593942 0.739994 0.000232684 -0.0280826 -5.04142e-06
1.1849 0.00059631 0.790221 0.000248478 -0.0927902 -1.66578e-05
1.18483 0.000596274 0.838036 0.000263513 -0.166304 -2.98551e-05
1.17964 0.000593665 0.882179 0.000277393 -0.22723 -4.07926e-05
1.16922 0.000588418 0.921649 0.000289804 -0.273708 -4.91363e-05
1.15312 0.000580317 0.955055 0.000300308 -0.303968 -5.45687e-05
1.13123 0.000569301 0.980957 0.000308453 -0.316889 -5.68882e-05
1.10416 0.000555676 0.998205 0.000313877 -0.311989 -5.60087e-05
1.07264 0.000539818 1.00591 0.000316298 -0.289065 -5.18933e-05
1.03722 0.000521988 1.00332 0.000315485 -0.24801 -4.45231e-05
0.998459 0.000502483 0.989955 0.000311282 -0.189022 -3.39335e-05
0.957149 0.000481694 0.965616 0.000303629 -0.112794 -2.0249e-05
0.914073 0.000460015 0.930409 0.000292559 -0.0482902 -8.66912e-06
0.870017 0.000437843 0.884563 0.000278143 0.0152517 2.73801e-06
0.825813 0.000415598 0.828844 0.000260623 0.0858895 1.5419e-05
0.782286 0.000393692 0.764279 0.000240321 0.162739 2.92151e-05
0.740049 0.000372436 0.69211 0.000217628 0.244447 4.38835e-05
0.699451 0.000352005 0.613867 0.000193025 0.329117 5.90836e-05
0.660679 0.000332492 0.53139 0.000167091 0.414651 7.44387e-05
0.623787 0.000313926 0.446736 0.000140472 0.499101 8.95992e-05
0.588682 0.000296259 0.36203 0.000113837 0.580722 0.000104252
0.555144 0.000279381 0.279389 8.78512e-05 0.657804 0.00011809
0.522893 0.00026315 0.200887 6.31671e-05 0.728548 0.00013079
0.491653 0.000247428 0.128502 4.04063e-05 0.791171 0.000142032
0.461201 0.000232103 0.0640051 2.01258e-05 0.844096 0.000151533
0.431377 0.000217094 0.00887132 2.78951e-06 0.886079 0.00015907
0.402034 0.000202327 -0.0357481 -1.12407e-05 0.91618 0.000164474
0.373003 0.000187717 -0.0690222 -2.17034e-05 0.933693 0.000167618
0.344094 0.000173168 -0.0904551 -2.84428e-05 0.938129 0.000168414
0.315128 0.000158591 -0.0999247 -3.14204e-05 0.929275 0.000166825
0.285959 0.000143911 -0.0977124 -3.07248e-05 0.907263 0.000162873
0.256473 0.000129072 -0.0844948 -2.65686e-05 0.872571 0.000156645
0.226583 0.00011403 -0.0613078 -1.92777e-05 0.82597 0.000148279
0.196218 9.87482e-05 -0.0295048 -9.27753e-06 0.768463 0.000137956
0.16529 8.31834e-05 0.0092859 2.91987e-06 0.701252 0.00012589
0.133673 6.72719e-05 0.0532099 1.67314e-05 0.625736 0.000112333
0.101186 5.09225e-05 0.100248 3.1522e-05 0.543492 9.75683e-05
0.0675942 3.40174e-05 0.148278 4.66246e-05 0.456223 8.19018e-05
0.046856 2.35807e-05 0.192261 6.04547e-05 0.365938 6.56936e-05
0.0309404 1.5571e-05 0.230276 7.24082e-05 0.273898 4.91705e-05
0.0120349 6.05667e-06 0.262111 8.24183e-05 0.182847 3.28249e-05
-0.00822696 -4.14029e-06 0.289142 9.0918e-05 0.0926045 1.66245e-05
-0.0297022 -1.49479e-05 0.309238 9.72371e-05 0.00543839 9.76306e-07
-0.0535626 -2.69558e-05 0.319785 0.000100553 -0.105822 -1.89973e-05
-0.0796686 -4.00939e-05 0.319187 0.000100365 -0.238003 -4.27266e-05
-0.107029 -5.38631e-05 0.307597 9.67211e-05 -0.360095 -6.46448e-05
-0.13531 -6.8096e-05 0.285576 8.97969e-05 -0.470347 -8.44373e-05
-0.168013 -8.45539e-05 0.252048 7.92542e-05 -0.567485 -0.000101876
-0.202622 -0.000101971 0.206294 6.48672e-05 -0.651368 -0.000116934
-0.238676 -0.000120116 0.135117 4.24862e-05 -0.721541 -0.000129532
-0.275794 -0.000138796 0.0513697 1.61527e-05 -0.779035 -0.000139853
-0.313719 -0.000157882 -0.0428902 -1.34864e-05 -0.823574 -0.000147849
-0.352367 -0.000177332 -0.146194 -4.59693e-05 -0.856032 -0.000153676
-0.391249 -0.0001969 -0.257405 -8.09386e-05 -0.877903 -0.000157602
-0.429883 -0.000216342 -0.37485 -0.000117868 -0.890943 -0.000159943
-0.467678 -0.000235363 -0.496301 -0.000156057 -0.896734 -0.000160983
-0.503467 -0.000253374 -0.619502 -0.000194797 -0.896873 -0.000161008
-0.53731 -0.000270406 -0.742075 -0.000233339 -0.893304 -0.000160367
-0.569405 -0.000286558 -0.86163 -0.000270932 -0.888139 -0.00015944
-0.600157 -0.000302034 -0.975596 -0.000306767 -0.883438 -0.000158596
-0.630151 -0.000317129 -1.08134 -0.000340017 -0.881064 -0.00015817
-0.660002 -0.000332152 -1.17648 -0.000369934 -0.882679 -0.00015846
-0.690233 -0.000347366 -1.25909 -0.000395909 -0.889731 -0.000159726
-0.72123 -0.000362965 -1.32766 -0.000417471 -0.903389 -0.000162178
-0.75006 -0.000377474 -1.38206 -0.000434575 -0.924296 -0.000165931
-0.774647 -0.000389848 -1.42254 -0.000447305 -0.952544 -0.000171002
-0.797587 -0.000401393 -1.44781 -0.000455251 -0.989057 -0.000177557
-0.818875 -0.000412106 -1.45773 -0.000458371 -1.0331 -0.000185463
-0.838777 -0.000422122 -1.45261 -0.000456761 -1.08413 -0.000194624
-0.857006 -0.000431296 -1.4334 -0.000450719 -1.14125 -0.000204879
-0.873294 -0.000439493 -1.4014 -0.000440658 -1.20347 -0.000216048
-0.887776 -0.000446781 -1.35823 -0.000427084 -1.26917 -0.000227844
-0.900704 -0.000453287 -1.30542 -0.000410476 -1.33655 -0.000239939
-0.912163 -0.000459054 -1.24463 -0.000391362 -1.40371 -0.000251996
-0.922374 -0.000464193 -1.17794 -0.000370392 -1.46877 -0.000263676
-0.931708 -0.00046889 -1.10766 -0.000348292 -1.52974 -0.000274621
-0.940842 -0.000473487 -1.03521 -0.000325511 -1.79293 -0.000321869
-0.948389 -0.000477285 -0.963949 -0.000303105 -1.57984 -0.000283615
-0.962908 -0.000484592 -0.879911 -0.00027668 -1.15974 -0.000208198
-0.965466 -0.000485879 -0.82784 -0.000260307 -1.10979 -0.000199231
-0.973562 -0.000489953 -0.77604 -0.000244019 -1.38245 -0.000248179
-0.984431 -0.000495423 -0.719143 -0.000226128 -1.686 -0.000302673
-0.993011 -0.000499742 -0.667065 -0.000209753 -1.71011 -0.000307001
-1.00206 -0.000504297 -0.634832 -0.000199617 -1.49715 -0.00026877
-1.01189 -0.00050924 -0.625546 -0.000196697 -1.30458 -0.0002342
-1.02303 -0.00051485 -0.623781 -0.000196142 -1.29556 -0.000232581
-1.03426 -0.000520502 -0.622415 -0.000195713 -1.39349 -0.000250162
-1.04592 -0.000526368 -0.62932 -0.000197884 -1.41961 -0.00025485
-1.05797 -0.000532432 -0.655107 -0.000205992 -1.29909 -0.000233214
-1.06792 -0.000537438 -0.698644 -0.000219682 -1.11298 -0.000199803
-1.07572 -0.000541363 -0.75001 -0.000235834 -0.980174 -0.000175962
-1.08278 -0.000544917 -0.802866 -0.000252454 -0.929762 -0.000166912
-1.08925 -0.000548172 -0.859215 -0.000270172 -0.891263 -0.000160001
-1.09465 -0.00055089 -0.923047 -0.000290244 -0.801743 -0.00014393
-1.09918 -0.000553171 -0.993235 -0.000312314 -0.666681 -0.000119683
-1.10359 -0.000555391 -1.06343 -0.000334387 -0.539889 -9.69215e-05
-1.10818 -0.000557703 -1.12831 -0.000354788 -0.45955 -8.24989e-05
-1.11278 -0.000560015 -1.18717 -0.000373295 -0.417115 -7.4881e-05
-1.1173 -0.000562292 -1.2411 -0.000390253 -0.377879 -6.78374e-05
-1.12148 -0.000564394 -1.28957 -0.000405492 -0.320584 -5.75516e-05
-1.1249 -0.000566115 -1.32969 -0.000418109 -0.250351 -4.49433e-05
-1.12709 -0.000567218 -1.35917 -0.000427379 -0.193235 -3.46899e-05
-1.12766 -0.000567505 -1.37765 -0.000433191 -0.168975 -3.03346e-05
-1.12633 -0.000566837 -1.38562 -0.000435696 -0.174969 -3.14107e-05
-1.12275 -0.000565033 -1.38311 -0.000434906 -0.192844 -3.46196e-05
-1.11663 -0.000561952 -1.36986 -0.000430742 -0.205214 -3.68403e-05
-1.10798 -0.000557598 -1.34611 -0.000423271 -0.221506 -3.9765e-05
-1.09701 -0.000552078 -1.31265 -0.000412751 -0.259738 -4.66285e-05
-1.08418 -0.000545623 -1.27007 -0.000399362 -0.32476 -5.83013e-05
-1.06994 -0.000538457 -1.21924 -0.000383379 -0.40576 -7.28425e-05
-1.05475 -0.000530811 -1.16155 -0.000365238 -0.490835 -8.81154e-05
-1.03898 -0.000522875 -1.09874 -0.000345489 -0.571438 -0.000102585
-1.02287 -0.000514767 -1.03242 -0.000324635 -0.64475 -0.000115746
-1.00642 -0.00050649 -0.964352 -0.000303232 -0.722657 -0.000129732
-0.989754 -0.000498102 -0.896302 -0.000281834 -0.813449 -0.000146031
-0.973163 -0.000489753 -0.829893 -0.000260952 -0.911917 -0.000163709
-0.956897 -0.000481566 -0.766949 -0.00024116 -1.00541 -0.000180492
-0.941249 -0.000473691 -0.709311 -0.000223036 -1.0857 -0.000194905
-0.926591 -0.000466315 -0.658539 -0.000207072 -1.15424 -0.00020721
-0.91332 -0.000459636 -0.615709 -0.000193604 -1.21714 -0.000218502
-0.901774 -0.000453825 -0.581616 -0.000182884 -1.2769 -0.000229231
-0.892181 -0.000448998 -0.557081 -0.000175169 -1.32959 -0.00023869
-0.884593 -0.000445179 -0.542926 -0.000170718 -1.36898 -0.000245761
-0.878835 -0.000442281 -0.539711 -0.000169707 -1.39227 -0.000249942
-0.874509 -0.000440104 -0.547561 -0.000172176 -1.4016 -0.000251617
-0.871074 -0.000438375 -0.566236 -0.000178048 -1.40101 -0.000251512
-0.867897 -0.000436777 -0.59529 -0.000187184 -1.39284 -0.000250044
-0.864244 -0.000434938 -0.634115 -0.000199392 -1.37322 -0.000246522
-0.859317 -0.000432459 -0.681846 -0.0002144 -1.33921 -0.000240416
-0.852324 -0.000428939 -0.737337 -0.000231849 -1.29272 -0.000232071
-0.842624 -0.000424058 -0.798959 -0.000251226 -1.23883 -0.000222396
-0.829699 -0.000417553 -0.864757 -0.000271915 -1.18139 -0.000212085
-0.813164 -0.000409232 -0.932629 -0.000293257 -1.12123 -0.000201285
-0.792823 -0.000398995 -1.00042 -0.000314573 -1.05795 -0.000189925
-0.768676 -0.000386843 -1.06585 -0.000335146 -0.992649 -0.000178202
-0.740888 -0.000372858 -1.12648 -0.00035421 -0.928508 -0.000166687
-0.70972 -0.000357172 -1.17984 -0.00037099 -0.869061 -0.000156015
-0.675467 -0.000339934 -1.22367 -0.000384773 -0.815738 -0.000146442
-0.638386 -0.000321273 -1.25605 -0.000394953 -0.770564 -0.000138333
-0.598691 -0.000301296 -1.27533 -0.000401018 -0.735074 -0.000131961
-0.556569 -0.000280098 -1.28019 -0.000402545 -0.708981 -0.000127277
-0.512222 -0.00025778 -1.26958 -0.000399209 -0.693286 -0.00012446
-0.465865 -0.000234451 -1.24292 -0.000390825 -0.686119 -0.000123173
-0.41776 -0.000210241 -1.20006 -0.000377348 -0.68682 -0.000123299
-0.368155 -0.000185277 -1.14134 -0.000358883 -0.695921 -0.000124933
-0.317336 -0.000159702 -1.06739 -0.000335632 -0.715444 -0.000128437
-0.265576 -0.000133653 -0.979285 -0.000307927 -0.743417 -0.000133459
-0.214708 -0.000108053 -0.878829 -0.00027634 -0.775811 -0.000139275
-0.168913 -8.50068e-05 -0.764734 -0.000240464 -0.811247 -0.000145636
-0.119867 -6.03239e-05 -0.642525 -0.000202036 -0.847495 -0.000152143
-0.0707592 -3.56102e-05 -0.514834 -0.000161885 -0.883498 -0.000158607
-0.0225029 -1.13248e-05 -0.383654 -0.000120636 -0.91721 -0.000164659
0.0260269 1.30983e-05 -0.250677 -7.88231e-05 -0.945746 -0.000169781
0.0631201 3.17657e-05 -0.119806 -3.76719e-05 -0.965805 -0.000173382
0.0977565 4.91968e-05 0.00692026 2.17601e-06 -0.975523 -0.000175127
0.131672 6.62652e-05 0.12806 4.02673e-05 -0.973799 -0.000174818
0.164339 8.2705e-05 0.241337 7.58864e-05 -0.958906 -0.000172144
0.194266 9.77662e-05 0.337005 0.000105968 -0.927846 -0.000166568
0.221608 0.000111526 0.412411 0.000129679 -0.880179 -0.000158011
0.247328 0.00012447 0.475456 0.000149503 -0.815138 -0.000146335
0.271172 0.00013647 0.52582 0.000165339 -0.725689 -0.000130277
0.292825 0.000147367 0.562982 0.000177025 -0.625819 -0.000112348
0.312934 0.000157487 0.585887 0.000184227 -0.52337 -9.3956e-05
0.33169 0.000166926 0.595275 0.000187179 -0.417613 -7.49705e-05
0.349402 0.00017584 0.59141 0.000185964 -0.298937 -5.36656e-05
0.366353 0.00018437 0.575028 0.000180812 -0.161401 -2.89749e-05
0.383012 0.000192754 0.547142 0.000172044 -0.048882 -8.77536e-06
0.399909 0.000201258 0.509023 0.000160058 0.0391813 7.03388e-06
0.417525 0.000210123 0.462331 0.000145376 0.140226 2.51735e-05
0.435953 0.000219397 0.410226 0.000128992 0.255644 4.58935e-05
0.456286 0.00022963 0.353231 0.00011107 0.370632 6.65364e-05
0.47844 0.000240779 0.294132 9.24871e-05 0.473589 8.50192e-05
0.50251 0.000252892 0.235824 7.41526e-05 0.517774 9.29515e-05
0.528585 0.000266015 0.181141 5.69583e-05 0.630134 0.000113122
0.556278 0.000279952 0.132608 4.16974e-05 0.776786 0.00013945
0.586505 0.000295164 0.0892156 2.8053e-05 0.894372 0.000160559
0.618181 0.000311105 0.0556644 1.75032e-05 0.95208 0.000170919
0.651294 0.000327769 0.0353299 1.11092e-05 0.977771 0.000175531
0.685716 0.000345092 0.0291594 9.16892e-06 1.0117 0.000181622
0.721291 0.000362996 0.0355358 1.11739e-05 1.05718 0.000189786
0.757484 0.00038121 0.0557701 1.75364e-05 1.08901 0.0001955
0.794581 0.00039988 0.0906811 2.85139e-05 1.08881 0.000195465
0.831851 0.000418636 0.141876 4.46115e-05 1.0582 0.000189969
0.870126 0.000437898 0.206311 6.48727e-05 1.02239 0.00018354
0.909519 0.000457723 0.281888 8.86372e-05 0.992152 0.000178112
0.949674 0.000477931 0.367792 0.000115649 0.957072 0.000171815
0.990684 0.00049857 0.463007 0.000145588 0.903435 0.000162186
1.03252 0.000519624 0.565718 0.000177885 0.83022 0.000149042
1.07496 0.000540982 0.673 0.000211619 0.749173 0.000134493
1.11767 0.000562476 0.781959 0.00024588 0.671403 0.000120531
1.16031 0.000583934 0.890322 0.000279954 0.598174 0.000107385
1.20242 0.000605126 0.996174 0.000313238 0.524103 9.40877e-05
40.1117 0.106965 0.95121 0.000299099 0.463925 8.32845e-05
8.93253 0.423891 0.637283 0.000200388 0.53845 9.66633e-05
8.93253 0.448279 0.718835 0.000226031 0.355248 6.37745e-05
6.30795 0.45075 0.704225 0.000221437 0.326489 5.86118e-05
8.93253 0.453268 0.809231 0.000254455 0.296079 5.31525e-05
8.93253 0.478913 0.939273 0.000295346 0.215747 3.87312e-05
8.93253 0.499888 0.959989 0.00030186 0.13797 2.47685e-05
8.93253 0.506553 0.933593 0.00029356 0.0966625 1.7353e-05
8.93253 0.515422 0.972176 0.000305692 0.0743895 1.33545e-05
8.93253 0.529785 1.03717 0.00032613 0.0521014 9.35331e-06
8.93253 0.540875 1.0416 0.000327521 0.027553 4.94634e-06
8.93253 0.547052 0.998609 0.000314004 0.0144314 2.59075e-06
8.93253 0.554156 0.97225 0.000305715 0.014493 2.60181e-06
8.93253 0.563213 0.962536 0.000302661 0.0290121 5.20828e-06
8.93253 0.570697 0.936673 0.000294528 0.0504785 9.06196e-06
8.93253 0.575785 0.883466 0.000277798 0.0745319 1.33801e-05
8.93253 0.580144 0.822452 0.000258613 0.105311 1.89055e-05
8.93253 0.584391 0.768686 0.000241706 0.14473 2.59821e-05
8.93253 0.587507 0.715101 0.000224857 0.193384 3.47166e-05
8.93253 0.589296 0.655836 0.000206222 0.244144 4.3829e-05
8.93253 0.590399 0.592625 0.000186346 0.293432 5.26773e-05
8.93253 0.591074 0.532014 0.000167287 0.343549 6.16744e-05
8.91389 0.591198 0.477458 0.000150132 0.399153 7.16565e-05
8.79961 0.59114 0.427852 0.000134534 0.457507 8.21323e-05
8.6973 0.591089 0.382355 0.000120228 0.511909 9.18986e-05
8.65225 0.591066 0.341748 0.00010746 0.559669 0.000100472
8.6749 0.591078 0.308672 9.7059e-05 0.602672 0.000108192
8.82325 0.591152 0.285299 8.97098e-05 0.642874 0.00011541
8.93253 0.591618 0.270938 8.51939e-05 0.679584 0.000122
8.93253 0.593262 0.263521 8.28617e-05 0.710698 0.000127585
8.93253 0.595564 0.264515 8.31745e-05 0.734006 0.00013177
8.93253 0.59857 0.272006 8.55298e-05 26.7372 0.00543302
8.93253 0.603143 0.290653 9.13931e-05 27.9703 0.0288729
8.93253 0.60698 0.347828 0.000109371 28.2104 0.0334373
8.93253 0.612107 0.375917 0.000118204 28.3644 0.036365
8.93253 0.617541 0.395197 0.000124266 27.3411 0.0361813
8.93253 0.623391 0.437216 0.000137479 26.0108 0.0359425
8.93253 0.629571 0.502819 0.000158107 25.6487 0.0358775
8.93253 0.636033 0.566253 0.000178053 26.1088 0.0359601
-0.134783 0.630569 39.3024 0.109375 20.4439 0.0349431
6.84241 0.635805 40.1377 0.123598 23.1998 0.0354378
5.28303 0.63502 41.4129 0.145309 20.6112 0.0349731
6.10755 0.635435 42.0079 0.155441 19.1553 0.0347118
7.96072 0.636808 42.6793 0.166872 18.0528 0.0345138
8.93253 0.638589 43.6217 0.182917 17.8076 0.0344698
8.93253 0.640713 44.5805 0.199242 17.7905 0.0344667
8.93253 0.642013 30.1198 0.21289 17.1792 0.034357
8.93253 0.644554 16.79 0.224118 16.3123 0.0342014
8.93253 0.647026 8.93253 0.234596 16.0009 0.0341455
8.93253 0.648279 8.93253 0.243947 16.5453 0.0342432
8.93253 0.648494 8.93253 0.254599 17.2149 0.0343634
8.93253 0.648945 8.93253 0.264574 17.7262 0.0344552
8.88128 0.649045 8.93253 0.273075 18.2159 0.0345431
8.55415 0.648881 8.93253 0.280774 19.0371 0.0346905
8.01166 0.648608 8.93253 0.287858 20.3428 0.0349249
7.22821 0.648213 8.93253 0.294627 21.9102 0.0352063
6.16377 0.647678 8.93253 0.30048 23.5401 0.0354989
4.79924 0.646991 8.93253 0.305254 25.2162 0.0357998
3.06063 0.646116 8.93253 0.308703 27.0338 0.0361261
-0.0135361 0.644308 8.93253 0.311344 28.4851 0.0386593
-0.22266 0.640179 8.93253 0.312986 28.898 0.0465081
-0.557637 0.633565 8.93253 0.314269 29.3865 0.0557933
-0.94862 0.625844 8.93253 0.314703 29.9203 0.0659419
-1.36672 0.617588 8.71877 0.314639 30.4363 0.0757503
-1.80656 0.608903 8.0712 0.314436 30.855 0.083709
-2.25134 0.600121 6.14586 0.31383 31.8943 0.103467
-2.66935 0.591867 2.46753 0.312674 33.8192 0.140057
-3.11603 0.583046 -0.111457 0.310825 35.2926 0.168065
-3.51797 0.57511 -0.470588 0.307368 19.0238 0.189193
-3.90056 0.567555 -0.900205 0.303233 7.12096 0.203838
-4.28731 0.559918 -1.28271 0.299551 7.12096 0.207696
-4.64463 0.552863 -1.6949 0.295583 7.12096 0.210416
-4.97346 0.546369 -2.15541 0.29115 7.12096 0.216666
-5.27587 0.540398 -2.66064 0.286287 7.12096 0.227145
-5.55476 0.534891 -3.20627 0.281035 7.12096 0.238951
-5.81806 0.529692 -3.72487 0.276043 7.12096 0.249455
-6.07319 0.524654 -4.17757 0.271686 7.12096 0.255429
-6.31982 0.519784 -4.56444 0.267962 7.12096 0.258395
-6.55794 0.515082 -4.89898 0.264742 7.12096 0.261075
-6.79203 0.51046 -5.17815 0.262055 7.12096 0.265018
-7.03114 0.505738 -5.3792 0.260119 7.12096 0.269542
-7.28448 0.500736 -5.48077 0.259142 7.12096 0.272213
-7.55677 0.495359 -5.40021 0.259054 6.86085 0.272384
-7.84051 0.489757 -4.94396 0.259198 6.0028 0.27223
-8.14156 0.483812 -4.01002 0.259491 5.06388 0.272062
-8.46066 0.477511 -2.65004 0.259919 4.27315 0.27192
-8.79942 0.470822 -0.306442 0.260656 2.94948 0.271682
-9.17264 0.463452 0.321523 0.262694 -0.118143 0.269932
-9.57644 0.455479 0.785005 0.265494 -0.661707 0.264315
-9.99592 0.447196 1.24467 0.26827 -1.35542 0.257146
-10.4301 0.438623 1.67127 0.270847 -2.10469 0.249403
-10.8693 0.42995 2.02515 0.272984 -2.81109 0.242104
-11.3092 0.421264 2.28589 0.274559 -3.46006 0.235397
-11.7489 0.412582 2.4327 0.275446 -4.10183 0.228766
-12.1657 0.404351 2.31723 0.275541 -4.78697 0.221685
-12.5694 0.396381 1.51562 0.275289 -5.52008 0.21411
-12.8915 0.39002 -0.0890007 0.274055 -6.23747 0.206696
-13.2498 0.382944 -0.427096 0.271175 -6.8854 0.200001
-13.6308 0.375421 -0.915563 0.267014 -7.46238 0.194039
-14.0261 0.367615 -1.57906 0.261362 -7.99136 0.188572
-14.4475 0.359295 -2.37516 0.25458 -8.50797 0.183234
-14.8985 0.350389 -3.28948 0.246791 -9.01759 0.177968
-15.3731 0.341017 -4.31866 0.238024 -9.49947 0.172988
-15.858 0.331443 -5.46599 0.228251 -9.93003 0.168539
-16.3563 0.321604 -6.72387 0.217535 -10.307 0.164644
-16.8699 0.311461 -8.08088 0.205976 -10.6474 0.161126
-17.399 0.301015 -9.51977 0.193718 -10.9739 0.157751
-17.9416 0.2903 -11.0249 0.180897 -11.2978 0.154405
-18.498 0.279313 -12.5828 0.167625 -11.6163 0.151113
-19.0757 0.267905 -14.1737 0.154074 -11.9249 0.147924
-19.6652 0.256265 -15.7889 0.140314 -12.2239 0.144834
-20.2687 0.244348 -17.4063 0.126536 -12.5267 0.141706
-20.8868 0.232144 -19.0099 0.112876 -12.8439 0.138428
-21.5209 0.219622 -20.584 0.099467 -13.1891 0.134861
-22.1696 0.206813 -22.1137 0.0864361 -13.5696 0.130928
-22.8184 0.194001 -23.5827 0.0739223 -13.9657 0.126836
-23.4777 0.180985 -24.9546 0.0622355 -14.381 0.122544
-24.1476 0.167757 -26.2479 0.0512193 -14.8171 0.118037
-24.8322 0.154239 -27.4571 0.0409179 -15.2832 0.11322
-25.5436 0.14019 -28.43 0.0326307 -15.8101 0.107776
-26.2653 0.12594 -29.2861 0.0253379 -16.3923 0.10176
-26.9938 0.111555 -30.0607 0.0187397 -17.0214 0.0952588
-27.7283 0.0970504 -30.7588 0.012793 -17.6938 0.0883107
-28.4313 0.0831699 -31.4048 0.0072895 -18.3962 0.0810518
-29.0336 0.0712774 -32.0505 0.00178891 -19.1038 0.0737398
-29.6787 0.0585394 -32.2172 0.000369208 -19.8751 0.0657693
-30.2968 0.0463338 -32.2338 0.000227374 -20.6773 0.0574795
-30.8788 0.0348408 -32.2411 0.000165155 -21.4953 0.0490272
-31.421 0.0241357 -32.2462 0.000122446 -22.3336 0.0403639
-31.9215 0.0142513 -32.2499 9.02281e-05 -23.1833 0.0315838
-32.3785 0.00522907 -32.2525 6.82472e-05 -24.0232 0.022904
-32.5931 0.000991567 -32.2548 4.87172e-05 -24.8389 0.0144752
-32.6048 0.000759048 -32.2565 3.42804e-05 -25.6256 0.00634627
-32.6104 0.00064852 -32.2581 2.0912e-05 -26.1813 0.000603508
-32.6144 0.000570684 -32.2595 8.44238e-06 -26.1997 0.000413513
-32.6174 0.000511701 -32.2601 3.65779e-06 -26.2065 0.000343385
-32.6196 0.000468259 -32.2604 1.24528e-06 -26.2107 0.000299348
-32.6214 0.000431104 -32.2609 -3.01312e-06 -26.214 0.000265383
-32.6232 0.0003964 -32.2614 -7.59296e-06 -26.2169 0.000235957
-32.6247 0.000365873 -32.2617 -1.02036e-05 -26.2196 0.000207182
-32.6261 0.00033884 -32.2618 -1.11098e-05 -26.2233 0.000169599
-32.6274 0.000313271 -32.262 -1.27053e-05 -26.2254 0.000147367
-32.6287 0.000288296 -32.2622 -1.43728e-05 -26.1406 0.000162594
-32.6298 0.000265862 -32.2626 -1.75953e-05 -26.0074 0.000186508
-32.6308 0.000245693 -32.2632 -2.2326e-05 -26.0328 0.000181943
-32.6318 0.000225905 -32.2635 -2.56217e-05 -26.1403 0.000162645
-32.6328 0.000206917 -32.2637 -2.7318e-05 -26.2266 0.000135807
-32.6336 0.000190145 -32.2642 -3.10648e-05 -26.2284 0.000117012
-32.6345 0.000173849 -32.2648 -3.63283e-05 -26.2145 0.000117524
-32.6353 0.000158278 -32.2655 -4.26758e-05 -26.1456 0.000129885
-32.636 0.000143837 -32.2663 -4.90749e-05 -26.0811 0.000141474
-32.6367 0.000130274 -32.267 -5.52116e-05 -26.0755 0.000142485
-32.6373 0.000117482 -32.2678 -6.18466e-05 -26.1104 0.000136207
-32.6379 0.00010534 -32.2686 -6.88975e-05 -26.1104 0.000136221
-32.6385 9.41011e-05 -32.2695 -7.65061e-05 -26.0429 0.000148333
-32.639 8.38301e-05 -32.2705 -8.47429e-05 -25.9396 0.000166874
-32.6395 7.42881e-05 -32.2715 -9.30905e-05 -25.8511 0.00018277
-32.64 6.54729e-05 -32.2724 -0.000101041 -25.7994 0.000192044
-32.5359 -9.22925e-05 -32.1768 -7.09907e-05 -25.8146 0.000189319
-31.7868 0.000284669 -31.7865 5.17416e-05 -25.8331 0.000186003
-31.7021 0.000327302 -31.7265 7.061e-05 -25.6943 0.000210916
-32.294 2.94274e-05 -32.054 -3.23823e-05 -25.4316 0.000258068
-32.5101 -7.9337e-05 -32.2237 -8.57325e-05 -25.1954 0.000300476
-32.2384 5.73937e-05 -32.1718 -6.93999e-05 -25.0624 0.000324358
-32.0261 0.000164235 -32.121 -5.34461e-05 -24.8839 0.000356401
-32.1613 9.61931e-05 -32.2215 -8.50278e-05 -24.482 0.00042854
-32.3401 6.25244e-06 -32.2758 -0.000130369 -23.8433 0.000543205
-32.2633 4.48775e-05 -32.2778 -0.000147383 -22.9475 0.000704022
-32.1882 8.2665e-05 -32.2786 -0.00015356 -21.6651 0.000934237
-32.1955 7.90217e-05 -32.2803 -0.000168255 -20.1427 0.00120754
-32.2245 6.43926e-05 -32.2824 -0.000186025 -18.5822 0.00148768
-32.2459 5.36369e-05 -32.2844 -0.000203065 -17.1493 0.00174493
-32.2291 6.2091e-05 -32.2854 -0.000212006 -15.9204 0.00196553
-32.2024 7.55487e-05 -32.2857 -0.000214065 -14.7142 0.00218207
-32.2003 7.6588e-05 -32.2859 -0.000215936 -13.1402 0.00246463
-32.2203 6.65306e-05 -32.2862 -0.00021857 -11.2324 0.00280712
-32.2291 6.20704e-05 -32.2826 -0.000217725 -9.46728 0.00312401
-32.2182 6.75522e-05 -32.2606 -0.000210819 -7.75405 0.00343157
-32.2163 6.855e-05 -32.227 -0.000200239 -6.58747 0.00364099
-32.226 6.36525e-05 -32.186 -0.000187342 -5.85466 0.00377255
-32.2303 6.15066e-05 -32.1347 -0.000171211 -5.69977 0.00380035
-32.2279 6.27062e-05 -32.0732 -0.00015188 -6.07653 0.00373272
-32.2267 6.32923e-05 -32.0048 -0.000130376 -6.86175 0.00359175
-32.2308 6.12532e-05 -31.9331 -0.000107814 -7.97584 0.00339175
-32.2411 5.60685e-05 -31.8598 -8.47873e-05 -9.31536 0.00315128
-32.248 5.25728e-05 -31.7836 -6.08176e-05 -10.816 0.00288188
-32.2423 5.54341e-05 -31.7059 -3.63738e-05 -12.4254 0.00259296
-32.236 5.86267e-05 -31.626 -1.12778e-05 -14.1464 0.002284
-32.2329 6.0175e-05 -31.5486 1.3072e-05 -15.9197 0.00196566
-32.2308 6.12546e-05 -31.4752 3.61396e-05 -17.6674 0.0016519
-32.2253 6.39772e-05 -31.4055 5.80788e-05 -19.1979 0.00137715
-32.2168 6.82558e-05 -31.3411 7.83282e-05 -20.5004 0.00114332
-32.2077 7.28694e-05 -31.2857 9.57247e-05 -21.522 0.000959928
-32.1991 7.71937e-05 -31.2442 0.000108802 -22.2989 0.00082046
-32.1891 8.22017e-05 -31.2172 0.000117284 -22.8869 0.0007149
-32.1755 8.90566e-05 -31.2041 0.000121387 -23.3294 0.000635459
-32.1594 9.71603e-05 -31.2055 0.000120963 -23.6433 0.000579102
-32.143 0.000105421 -31.2216 0.000115894 -23.8422 0.000543396
-32.1268 0.000113558 -31.2512 0.00010659 -23.9493 0.000524174
-32.1099 0.000122073 -31.2914 9.39508e-05 -23.9942 0.000516117
-32.0917 0.000131237 -31.3393 7.88997e-05 -24.003 0.000514543
-32.0726 0.000140869 -31.3928 6.20534e-05 -23.9935 0.000516244
-32.0539 0.00015026 -31.451 4.37728e-05 -23.9641 0.000521523
-32.0365 0.000159001 -31.5121 2.4537e-05 -23.901 0.000532847
-32.0183 0.000168197 -31.5739 5.11235e-06 -23.8047 0.000550131
-31.9984 0.000178199 -31.6345 -1.39506e-05 -23.6921 0.000570345
-31.9776 0.000188652 -31.693 -3.23221e-05 -23.5878 0.000589075
-31.9556 0.000199725 -31.7479 -4.96026e-05 -23.4996 0.000604914
-31.9311 0.000212077 -31.798 -6.53596e-05 -23.4249 0.000618322
-31.9032 0.000226096 -31.8424 -7.93082e-05 -23.3634 0.00062936
-31.8736 0.000240995 -31.8808 -9.13864e-05 -23.3288 0.000635564
-31.8386 0.000258633 -31.911 -0.000100892 -23.3355 0.000634374
-31.7996 0.000278258 -31.9322 -0.000107561 -23.3948 0.000623716
-31.7526 0.000301903 -31.9459 -0.000111849 -23.502 0.000604472
-31.6906 0.00033311 -31.9512 -0.000113529 -23.6346 0.00058068
-31.6265 0.000365332 -31.9516 -0.000113641 -23.7818 0.000554245
-31.5565 0.000400565 -31.9462 -0.000111955 -23.9395 0.000525927
-31.4583 0.000449994 -31.9288 -0.00010648 -24.1422 0.000489549
-31.3155 0.000521877 -31.8986 -9.69662e-05 -24.3643 0.000449679
-31.1282 0.000616141 -31.8563 -8.36907e-05 -24.5717 0.000412447
-30.8543 0.000753964 -31.8028 -6.6844e-05 -24.7613 0.000378404
-30.2324 0.00106695 -31.7397 -4.70166e-05 -24.9335 0.000347487
-27.7837 0.00229926 -31.666 -2.38519e-05 -25.0868 0.000319963
-23.7947 0.00430676 -31.5788 3.58332e-06 -25.2195 0.000296142
-19.6931 0.00637094 -31.477 3.55956e-05 -25.3333 0.000275716
-15.5954 0.00843312 -31.36 7.23781e-05 -25.4297 0.000258411
-11.4557 0.0105165 -31.2243 0.000115055 -25.512 0.000243646
-5.23959 0.0136448 -31.0658 0.000164878 -25.5803 0.00023137
0.0415461 0.0192248 -30.8772 0.000224186 -25.6328 0.000221949
0.16723 0.0281284 -30.6425 0.000297989 -25.6675 0.000215729
0.329708 0.0396385 -30.3195 0.000399556 -25.6839 0.000212784
0.507315 0.0522204 -29.7823 0.000568483 -25.6848 0.000212624
0.690802 0.0652187 -28.4232 0.000995821 -25.6693 0.0002154
0.868192 0.0777852 -24.5515 0.00221326 -25.6322 0.000222062
1.04395 0.0902361 -19.109 0.00392458 -25.5619 0.000234673
1.22109 0.102785 -13.9928 0.00553332 -25.462 0.000252621
1.39543 0.115135 -7.49778 0.00757564 -25.334 0.000275588
1.56221 0.12695 0.029055 0.0109246 -25.1675 0.000305485
1.72283 0.138329 0.16385 0.0155237 -24.9508 0.000344394
1.88089 0.149526 0.315287 0.0206907 -24.6702 0.000394766
2.04039 0.160825 0.472245 0.026046 -24.2608 0.000468252
2.22235 0.173715 0.643445 0.0318872 -23.6081 0.00058542
2.39517 0.185958 0.801293 0.0372729 -22.4901 0.000786131
2.53221 0.195666 0.952665 0.0424377 -20.9838 0.00105656
2.66675 0.205197 1.09134 0.0471691 -19.2596 0.00136607
2.80286 0.214839 1.23189 0.0519648 -16.5718 0.00184859
2.9373 0.224363 1.36112 0.0563738 -6.11987 0.00372494
3.06531 0.233431 1.48377 0.0605588 0.0508544 0.00673471
3.19594 0.242685 1.59255 0.0642702 0.252477 0.0143117
3.329 0.252111 1.70042 0.0679506 0.504739 0.0237918
3.46202 0.261535 1.81058 0.0717092 0.783294 0.03426
3.59533 0.270978 1.92211 0.0755148 1.06333 0.0447837
3.73068 0.280567 2.03931 0.0795134 1.32055 0.0544502
3.86921 0.29038 2.16528 0.0838116 1.54869 0.0630235
4.01098 0.300424 2.30102 0.0884429 1.75918 0.0709341
4.15674 0.310749 2.44653 0.0934075 1.97016 0.0788628
4.30798 0.321463 2.60219 0.0987186 2.19286 0.0872319
4.46544 0.332618 2.7694 0.104424 2.42394 0.0959156
4.629 0.344204 2.94997 0.110585 2.64913 0.104379
4.79846 0.35621 3.14555 0.117258 2.85336 0.112053
4.97393 0.36864 3.35706 0.124474 3.03018 0.118699
5.15504 0.38147 3.58523 0.132259 3.18075 0.124357
5.34146 0.394676 3.8309 0.140642 3.34151 0.130398
5.53371 0.408295 4.08814 0.149418 3.52613 0.137336
5.73121 0.422287 4.36065 0.158716 3.70844 0.144188
5.93341 0.43661 4.64836 0.168533 3.85993 0.149881
6.14008 0.451251 4.95058 0.178844 3.9715 0.154074
6.35113 0.466202 5.26537 0.189585 4.05854 0.157345
6.56645 0.481455 5.58953 0.200645 4.14411 0.16056
6.78382 0.496854 5.92182 0.211983 4.23824 0.164097
7.00113 0.512249 6.26155 0.223574 4.33286 0.167653
7.21651 0.527506 6.6083 0.235405 4.41323 0.170674
7.4286 0.542531 6.96068 0.247428 4.47271 0.172909
7.63687 0.557285 7.3158 0.259544 4.51809 0.174615
7.84119 0.571759 7.67 0.27163 4.56294 0.1763
8.04154 0.585952 8.01979 0.283564 4.61615 0.178299
8.2379 0.599863 8.36234 0.295252 4.6769 0.180582
8.43025 0.613489 8.69525 0.30661 4.73875 0.182907
8.61839 0.626817 8.93253 0.316704 4.79713 0.185101
8.79359 0.639228 8.93253 0.326346 4.84163 0.186773
8.93253 0.651236 8.93253 0.335365 4.88621 0.188449
8.93253 0.662607 8.93253 0.343804 4.94787 0.190766
8.93253 0.673968 8.93253 0.351562 5.03038 0.193866
8.93253 0.685455 8.93253 0.358297 5.13105 0.19765
8.93253 0.696764 8.93253 0.364406 5.23711 0.201635
8.93253 0.708029 8.93253 0.370067 5.34525 0.205699
8.93253 0.719285 8.93253 0.37539 5.4551 0.209827
8.93253 0.730276 8.93253 0.380338 5.57121 0.214191
8.93253 0.740772 8.93253 0.384932 5.69856 0.218977
8.93253 0.750791 8.93253 0.389303 5.83598 0.224141
8.93253 0.759628 8.93253 0.393778 5.97591 0.2294
8.93253 0.767967 8.93253 0.398126 6.1145 0.234608
8.93253 0.775697 8.93253 0.402397 6.25119 0.239745
8.93253 0.782994 8.93253 0.406607 6.38815 0.244892
8.93253 0.78985 8.93253 0.410895 6.52733 0.250122
8.93253 0.796231 8.93253 0.415242 6.66857 0.25543
8.93253 0.80218 8.93253 0.419617 6.80961 0.26073
8.93253 0.807737 8.93253 0.424056 6.9467 0.265882
8.93253 0.812923 8.93253 0.428565 7.0784 0.270832
8.93253 0.817728 8.93253 0.433151 7.12096 0.275263
8.93253 0.82214 8.93253 0.437827 7.12096 0.279331
8.93253 0.826062 8.93253 0.442682 7.12096 0.28318
8.93253 0.8295 8.93253 0.447686 7.12096 0.286888
8.93253 0.832422 8.93253 0.452832 7.12096 0.290511
8.93253 0.834867 8.93253 0.458113 7.12096 0.294038
8.93253 0.83687 8.93253 0.463512 7.12096 0.297436
8.93253 0.838437 8.93253 0.468979 7.12096 0.300678
8.93253 0.839648 8.93253 0.474321 7.12096 0.303792
8.93253 0.840735 8.93253 0.480945 7.12096 0.307556
8.93253 0.841509 8.93253 0.487438 7.12096 0.31128
8.93253 0.842098 8.93253 0.493699 7.12096 0.315008
8.93253 0.842602 8.93253 0.499632 7.12096 0.318728
8.93253 0.84301 8.93253 0.505178 7.12096 0.322439
8.86809 0.843117 8.93253 0.510311 7.12096 0.326177
8.70168 0.843033 8.93253 0.514918 7.12096 0.330002
8.40732 0.842885 8.93253 0.519142 7.12096 0.333905
7.95631 0.842658 8.93253 0.522965 7.12096 0.337824
7.3174 0.842336 8.93253 0.526304 7.12096 0.341744
6.47871 0.841914 8.93253 0.529191 7.12096 0.345669
5.37141 0.841357 8.93253 0.531642 7.12096 0.34961
3.93266 0.840633 8.93253 0.533658 7.12096 0.353551
1.72586 0.839522 8.93253 0.535265 7.12096 0.357439
-0.0891996 0.836376 8.93253 0.536676 7.12096 0.361171
-0.341912 0.829921 8.93253 0.537999 7.12096 0.364701
-0.66791 0.821595 8.93253 0.538964 7.12096 0.368102
-1.0241 0.812498 8.93253 0.5394 7.12096 0.37138
-1.40947 0.802656 8.67059 0.539321 7.12096 0.37453
-1.82363 0.792078 7.86783 0.539068 7.12096 0.377473
-2.25475 0.781068 6.52531 0.538646 7.12096 0.380175
-2.69683 0.769777 4.58646 0.538037 7.12096 0.382589
-3.14399 0.758357 1.12959 0.53695 7.12096 0.384707
-3.57739 0.747287 -0.177159 0.533701 7.12096 0.386734
-4.0022 0.736438 -0.491474 0.528567 7.12096 0.388579
-4.42771 0.72557 -0.850424 0.522704 7.12096 0.390014
-4.86011 0.714527 -1.23801 0.516373 7.12096 0.390948
-5.29538 0.70341 -1.65458 0.509569 7.11744 0.391243
-5.72834 0.692352 -2.10222 0.502258 6.93494 0.391211
-6.15591 0.681432 -2.57891 0.494472 6.56532 0.391144
-6.57594 0.670705 -3.08876 0.486144 6.02362 0.391047
-6.98908 0.660153 -3.61561 0.477538 5.24729 0.390908
-7.39422 0.649806 -4.15626 0.468708 4.22564 0.390724
-7.79434 0.639587 -4.70398 0.459761 1.0401 0.390152
-8.19642 0.629318 -5.23978 0.45101 -0.245091 0.386343
-8.6027 0.618941 -5.76292 0.442465 -0.696757 0.379666
-9.01573 0.608392 -6.27922 0.434032 -1.24868 0.371507
-9.438 0.597608 -6.78641 0.425748 -1.83409 0.362852
-9.86701 0.586651 -7.28761 0.417561 -2.43011 0.354041
-10.2996 0.575602 -7.78698 0.409405 -3.07039 0.344576
-10.7318 0.564564 -8.28644 0.401247 -3.78244 0.33405
-11.1586 0.553665 -8.79008 0.393021 -4.5463 0.322758
-11.5756 0.543015 -9.30547 0.384602 -5.32193 0.311292
-11.9787 0.532718 -9.83795 0.375905 -6.09463 0.299869
-12.3577 0.52304 -10.3903 0.366884 -6.87723 0.2883
-12.7328 0.513458 -10.9555 0.357652 -7.67748 0.27647
-13.114 0.503722 -11.5359 0.348171 -8.47844 0.264629
-13.5075 0.493673 -12.125 0.338549 -9.26605 0.252986
-13.9239 0.483037 -12.7187 0.328852 -10.0329 0.24165
-14.3487 0.472189 -13.3251 0.318948 -10.746 0.231108
-14.8066 0.460495 -13.9278 0.309102 -11.3691 0.221896
-15.2965 0.447981 -14.5325 0.299226 -11.9434 0.213407
-15.8152 0.434735 -15.1325 0.289426 -12.4836 0.20542
-16.3536 0.420983 -15.7289 0.279685 -13.0097 0.197643
-16.9204 0.406509 -16.3332 0.269814 -13.5377 0.189838
-17.5082 0.391496 -16.9482 0.259768 -14.0596 0.182122
-18.103 0.376304 -17.5729 0.249565 -14.5511 0.174857
-18.6957 0.361167 -18.2012 0.239304 -14.9943 0.168306
-19.264 0.346653 -18.7793 0.229861 -15.3891 0.162469
-19.7961 0.333063 -19.3502 0.220535 -15.753 0.15709
-20.3108 0.319917 -19.9191 0.211243 -16.1167 0.151712
-20.7974 0.307488 -20.5069 0.201642 -16.4566 0.146687
-21.2751 0.29529 -21.1264 0.191524 -16.7571 0.142246
-21.7339 0.28357 -21.7749 0.180932 -17.0071 0.13855
-22.1584 0.272729 -22.4485 0.169928 -17.2112 0.135532
-22.5499 0.26273 -23.1403 0.15863 -17.3896 0.132896
-22.9126 0.253468 -23.8501 0.147036 -17.552 0.130494
-23.2496 0.24486 -24.5721 0.135244 -17.702 0.128277
-23.5579 0.236985 -25.2943 0.123447 -17.8349 0.126313
-23.8381 0.22983 -26.0049 0.111841 -17.9485 0.124633
-24.0981 0.223191 -26.6946 0.100575 -18.0498 0.123135
-24.3456 0.216868 -27.3532 0.0898173 -18.1536 0.121601
-24.5865 0.210717 -27.9665 0.0798001 -18.2743 0.119816
-24.8271 0.204571 -28.521 0.0707436 -18.4175 0.1177
-25.0783 0.198156 -29.0071 0.0628041 -18.5808 0.115286
-25.3375 0.191537 -29.417 0.0561081 -18.7614 0.112616
-25.6107 0.184559 -29.7574 0.0505484 -18.9567 0.109728
-25.8999 0.177171 -30.0296 0.0461031 -19.174 0.106516
-26.1912 0.169733 -30.2324 0.0427899 -19.4162 0.102936
-26.4716 0.162572 -30.3748 0.0404643 -19.6792 0.0990472
-26.754 0.155358 -30.4732 0.0388561 -19.9536 0.0949921
-27.0298 0.148314 -30.528 0.037962 -20.2329 0.090863
-27.2912 0.141637 -30.5156 0.0377704 -20.5109 0.0867526
-27.5374 0.135351 -30.1968 0.0378707 -20.7851 0.0826996
-27.7601 0.129663 -29.7334 0.0380164 -21.0511 0.0787675
-27.9284 0.125363 -29.3553 0.0381353 -21.3013 0.0750686
-28.0821 0.12144 -28.7921 0.0383124 -21.5355 0.071606
-28.2182 0.117962 -28.1541 0.038513 -21.7441 0.0685223
-28.3409 0.114828 -27.5924 0.0386896 -21.9229 0.0658797
-28.4482 0.112089 -27.1742 0.0388211 -22.0709 0.0636913
-28.5349 0.109875 -26.9032 0.0389063 -22.1879 0.0619621
-28.602 0.10816 -26.7994 0.0389389 -22.2721 0.060717
-28.657 0.106756 -26.8835 0.0389125 -22.3207 0.0599984
-28.7058 0.105508 -27.1518 0.0388282 -22.3199 0.0598345
-28.7491 0.104402 -27.5497 0.038703 -22.1621 0.0598628
-28.7867 0.103443 -28.0462 0.0385469 -21.8485 0.0599191
-28.8269 0.102415 -28.6054 0.0383711 -21.395 0.0600005
-28.8786 0.101096 -29.1477 0.0382006 -20.8017 0.060107
-28.9494 0.0992886 -29.5727 0.0380669 -20.0829 0.0602361
-29.047 0.0967943 -29.7996 0.0379956 -19.2764 0.0603809
-29.1784 0.0934392 -29.7799 0.0380018 -18.4449 0.0605301
-29.3483 0.0891008 -29.4689 0.0380996 -17.5904 0.0606835
-29.5566 0.0837805 -28.8595 0.0382912 -16.6609 0.0608504
-29.7846 0.0779567 -28.0836 0.0385351 -15.6548 0.061031
-30.0254 0.0718063 -27.2157 0.0388081 -14.6283 0.0612153
-30.2961 0.0648923 -26.3561 0.0390783 -13.6902 0.0613837
-30.5891 0.0574105 -25.4496 0.0393634 -12.8285 0.0615384
-30.8923 0.0496667 -24.4904 0.039665 -11.9027 0.0617046
-31.2054 0.0416706 -23.5917 0.0399476 -10.5525 0.061947
-31.5269 0.0334581 -22.8829 0.0401705 -8.56677 0.0623035
-31.8512 0.025175 -22.4174 0.0403168 -5.60522 0.0628351
-32.1684 0.0170755 -22.2164 0.0403801 -0.782294 0.0637009
-32.476 0.00921794 -22.3312 0.0403439 0.0312418 0.0652778
-32.7709 0.00168611 -22.8472 0.0401817 0.096448 0.0682758
-32.804 0.000840625 -24.5077 0.0396596 0.178682 0.0720567
-32.8103 0.000681636 -26.1137 0.0391546 0.257436 0.0756776
-32.814 0.000586949 -27.9615 0.0385736 0.324387 0.0787558
-32.8168 0.000515638 -30.2667 0.0378487 0.376858 0.0811683
-32.8186 0.000467655 -30.7151 0.0349056 0.423345 0.0833056
-32.8201 0.000431233 -30.9639 0.030842 0.467691 0.0853446
-32.8212 0.000400968 -31.2262 0.0265569 0.509127 0.0872497
-32.8223 0.000374117 -31.4891 0.022263 0.542979 0.0888061
-32.8232 0.000351602 -31.75 0.0180025 0.557958 0.0894948
-32.824 0.000330887 -32.0195 0.0135997 0.454208 0.0894957
-32.8248 0.000309889 -32.3002 0.00901527 0.091833 0.0894307
-32.8256 0.00028914 -32.5782 0.00447491 -0.204227 0.0886937
-32.8264 0.000268901 -32.7977 0.000889429 -0.59086 0.0873297
-32.8272 0.000247929 -32.8142 0.000620373 -1.25553 0.0849848
-32.828 0.000227559 -32.8207 0.000514282 -2.03502 0.0822348
-32.8288 0.000207069 -32.8248 0.000446462 -2.89359 0.0792058
-32.8297 0.000186049 -32.8279 0.000395611 -3.73795 0.076227
-32.8304 0.000166087 -32.8301 0.000359765 -4.53794 0.0734047
-32.8312 0.000147671 -32.8317 0.00033306 -5.44014 0.0702218
-32.8318 0.000130882 -32.8332 0.000309283 -6.50776 0.0664553
-32.8324 0.000114826 -32.8345 0.000287451 -7.6771 0.06233
-32.833 9.98373e-05 -32.8357 0.000268813 -8.84537 0.0582085
-32.8335 8.67699e-05 -32.8367 0.000252735 -9.97853 0.0542108
-32.834 7.53726e-05 -32.8376 0.0002377 -11.1265 0.0501609
-32.8344 6.5192e-05 -32.8384 0.000223628 -12.3458 0.0458592
-32.8348 5.52915e-05 -32.8392 0.000210938 -13.6331 0.0413176
-32.8351 4.64184e-05 -32.8399 0.000199392 -14.9373 0.0367165
-32.8354 3.9014e-05 -32.8406 0.000188687 -16.2133 0.0322151
-32.8357 3.23906e-05 -32.8412 0.000178697 -17.4642 0.0278018
-32.8359 2.62435e-05 -32.8418 0.000169477 -18.7303 0.0233352
-32.8361 2.10003e-05 -32.8423 0.000160881 -20.0401 0.0187145
-32.8363 1.70382e-05 -32.8428 0.000152766 -21.3786 0.0139924
-32.8364 1.39406e-05 -32.8432 0.000145245 -22.7081 0.00930203
-32.8365 1.13888e-05 -32.8437 0.000138435 -24.0092 0.00471188
-32.8366 9.37455e-06 -32.844 0.000132341 -25.1002 0.000862893
-32.8366 7.62926e-06 -32.8443 0.000127897 -25.2066 0.000487566
-32.8311 8.42638e-06 -32.8645 -0.000202532 -25.191 0.000414363
-32.7891 2.95556e-05 -32.0076 3.49403e-05 -23.3729 0.000740757
-32.8375 -1.48449e-05 -30.7444 0.000432139 -22.034 0.000981114
-32.8131 -3.95559e-06 -31.2774 0.00026455 -24.7913 0.000486122
-32.7939 5.71452e-06 -32.2954 -5.55541e-05 -25.2675 0.000272488
-32.8071 -9.38863e-07 -32.4748 -0.000111959 -25.23 0.00025654
-32.836 -1.55129e-05 -31.8465 8.5595e-05 -24.9577 0.000305423
-32.8377 -1.87675e-05 -31.3999 0.000226043 -25.072 0.000284892
-32.838 -2.60143e-05 -31.7371 0.000119992 -25.2953 0.000174519
-32.8383 -3.37456e-05 -32.1649 -1.45281e-05 -25.3111 0.000118796
-32.8383 -3.42231e-05 -32.0819 1.1568e-05 -25.1756 0.000143047
-32.8386 -4.12121e-05 -31.787 0.000104299 -25.0538 0.000164902
-32.8391 -5.46741e-05 -31.7745 0.000108223 -25.2894 0.000122617
-32.8394 -6.31461e-05 -31.9028 6.78819e-05 -25.3269 6.31275e-05
-32.8356 -6.20194e-05 -32.001 3.70166e-05 -25.3048 5.57745e-05
-32.8388 -6.36103e-05 -31.9924 3.97278e-05 -25.1127 9.02576e-05
-32.8398 -7.2929e-05 -31.9322 5.86378e-05 -24.9791 0.000114229
-32.84 -7.7055e-05 -31.9051 6.71874e-05 -25.0633 9.91228e-05
-32.8364 -7.54824e-05 -31.9174 6.33043e-05 -25.2416 6.71183e-05
-32.831 -7.27683e-05 -31.9461 5.42659e-05 -25.2877 5.88329e-05
-32.8326 -7.35943e-05 -31.9557 5.12748e-05 -25.1733 7.93723e-05
-32.8366 -7.55962e-05 -31.9418 5.56262e-05 -25.0698 9.79483e-05
-32.8371 -7.58288e-05 -31.9256 6.07349e-05 -25.1044 9.17351e-05
-32.8357 -7.51111e-05 -31.9241 6.11882e-05 -25.2123 7.23677e-05
-32.8353 -7.49581e-05 -31.934 5.80723e-05 -25.2526 6.51358e-05
-32.8352 -7.48977e-05 -31.9421 5.55311e-05 -25.1927 7.5898e-05
-32.8338 -7.41629e-05 -31.9441 5.49072e-05 -25.1243 8.81794e-05
-32.8321 -7.33098e-05 -31.9445 5.47734e-05 -25.13 8.71415e-05
-32.8312 -7.28878e-05 -31.9468 5.40643e-05 -25.1873 7.68532e-05
-32.83 -7.2267e-05 -31.9503 5.29698e-05 -25.2172 7.14857e-05
-32.8272 -7.08556e-05 -31.9539 5.18154e-05 -25.1898 7.64187e-05
-32.8233 -6.8909e-05 -31.9616 4.93994e-05 -25.1478 8.39516e-05
-32.8192 -6.68079e-05 -31.9735 4.56702e-05 -25.1405 8.52565e-05
-32.8148 -6.46132e-05 -31.9838 4.24369e-05 -25.1652 8.08365e-05
-32.8099 -6.21767e-05 -31.9894 4.06696e-05 -25.1824 7.77494e-05
-32.8046 -5.95098e-05 -31.9941 3.91847e-05 -25.1711 7.97765e-05
-32.7987 -5.65296e-05 -32.0031 3.63603e-05 -25.1483 8.38621e-05
-32.7917 -5.30118e-05 -32.0152 3.25385e-05 -25.1403 8.53059e-05
-32.7822 -4.82335e-05 -32.0234 2.99814e-05 -25.1503 8.35044e-05
-32.7707 -4.24298e-05 -32.0251 2.94268e-05 -25.161 8.15868e-05
-32.7585 -3.62694e-05 -32.0232 3.00224e-05 -25.1599 8.17838e-05
-32.7444 -2.92109e-05 -32.0215 3.05729e-05 -25.1529 8.30448e-05
-32.7285 -2.12076e-05 -32.027 2.88424e-05 -25.1503 8.34958e-05
-32.7099 -1.18421e-05 -32.0239 2.98159e-05 -25.1541 8.28185e-05
-32.6921 -2.87054e-06 -32.0075 3.49812e-05 -25.1607 8.16282e-05
-32.6811 2.67501e-06 -31.9918 3.99163e-05 -25.1656 8.07579e-05
-32.6704 8.02822e-06 -31.9802 4.35555e-05 -25.1686 8.02139e-05
-32.6545 1.60295e-05 -31.9573 5.07591e-05 -25.1703 7.99056e-05
-32.6406 2.30298e-05 -31.9234 6.1408e-05 -25.1745 7.91539e-05
-32.6309 2.79209e-05 -31.9017 6.82542e-05 -25.1803 7.81117e-05
-32.62 3.34324e-05 -31.8852 7.34293e-05 -25.1825 7.77145e-05
-32.6069 4.00279e-05 -31.8578 8.20533e-05 -25.1816 7.78821e-05
-32.5934 4.68115e-05 -31.8247 9.24539e-05 -25.1783 7.84694e-05
-32.5797 5.37191e-05 -31.7932 0.000102362 -25.1735 7.93334e-05
-32.5628 6.22277e-05 -31.7693 0.000109875 -25.1558 8.25121e-05
-32.5412 7.30522e-05 -31.7492 0.000116202 -25.1214 8.86898e-05
-32.5182 8.46712e-05 -31.7294 0.000122427 -25.0761 9.68268e-05
-32.4931 9.72638e-05 -31.7115 0.000128051 -25.0223 0.000106484
-32.4647 0.000111584 -31.6955 0.000133068 -24.9489 0.000119651
-32.433 0.000127516 -31.6844 0.000136574 -24.8703 0.000133772
-32.4 0.00014413 -31.6742 0.000139786 -24.8087 0.000144823
-32.3654 0.000161566 -31.6638 0.000143059 -24.7312 0.000158737
-32.3275 0.000180628 -31.6553 0.000145723 -24.6099 0.000180517
-32.2866 0.0002012 -31.6498 0.00014746 -24.4708 0.000205481
-32.2424 0.000223427 -31.6449 0.000148991 -24.3313 0.000230534
-32.193 0.000248318 -31.6391 0.000150806 -24.1725 0.000259035
-32.1357 0.000277133 -31.6316 0.000153176 -23.9674 0.000295859
-32.0673 0.000311571 -31.624 0.000155557 -23.674 0.000348535
-31.9823 0.000354325 -31.6166 0.000157897 -23.2527 0.000424169
-31.8758 0.000407946 -31.6043 0.000161746 -22.6338 0.000535265
-31.7146 0.000489044 -31.5879 0.00016691 -21.6871 0.000705224
-31.5309 0.000581508 -31.5688 0.000172921 -20.3208 0.000950503
-31.2198 0.000738065 -31.5402 0.000181896 -18.6591 0.00124882
-30.3447 0.00117846 -31.492 0.000197079 -16.9209 0.00156085
-26.4187 0.0031543 -31.4319 0.000215963 -15.2419 0.00186227
-21.3867 0.00568669 -31.3565 0.000239689 -13.4067 0.00219174
-16.2943 0.00824948 -31.2528 0.000272289 -10.6379 0.00268879
-10.8274 0.0110007 -31.0884 0.000323966 -5.84772 0.00354873
-0.970637 0.0159612 -30.8035 0.000413554 0.0150804 0.00541734
0.100461 0.0257473 -30.1914 0.000606018 0.0887161 0.00941552
0.263972 0.0408801 -27.0786 0.00158484 0.19686 0.0152874
0.448392 0.0579481 -19.7398 0.00389244 0.310823 0.0214752
0.636909 0.0753952 -11.3851 0.00651949 0.424477 0.0276463
0.812663 0.0916611 0.0302117 0.0118897 0.520605 0.0328657
0.973891 0.106583 0.194696 0.0216363 0.591639 0.0367227
1.1261 0.12067 0.41063 0.0344316 0.645272 0.0396347
1.2653 0.133552 0.643608 0.0482369 0.702779 0.0427572
1.38827 0.144933 0.877738 0.0621105 0.771708 0.0464998
1.49699 0.154995 1.11279 0.0760388 0.847736 0.0506279
1.59198 0.163787 1.35065 0.090133 0.923413 0.0547369
1.67161 0.171156 1.59024 0.10433 0.995599 0.0586564
1.73646 0.177158 1.82772 0.118402 1.06812 0.0625942
1.78308 0.181472 2.05652 0.13196 1.1504 0.0670614
1.81621 0.184538 2.27922 0.145157 1.24698 0.0723058
1.85412 0.188047 2.48777 0.157514 1.36161 0.0785295
1.8845 0.190859 2.68305 0.169086 1.49068 0.0855375
1.90391 0.192655 2.86085 0.179621 1.63153 0.0931853
1.91503 0.193685 3.02215 0.189179 1.78203 0.101357
1.92145 0.194278 3.16856 0.197855 1.94267 0.110079
1.91104 0.194442 3.2973 0.205484 2.11687 0.119538
1.70793 0.19434 3.40194 0.211684 2.30815 0.129924
1.21067 0.19409 3.47377 0.21594 2.51645 0.141234
0.394182 0.193679 3.53763 0.219724 2.74438 0.15361
-0.260232 0.191846 3.6061 0.223782 2.98043 0.166427
-0.740074 0.188833 3.65101 0.226443 3.21459 0.179141
-1.27286 0.185488 3.66123 0.227048 3.44711 0.191766
-1.83494 0.181958 3.6633 0.227171 3.68088 0.204459
-2.41211 0.178334 3.62881 0.227235 3.91852 0.217362
-2.97829 0.174779 3.12359 0.227076 4.15044 0.229954
-3.49714 0.171521 2.08514 0.22675 4.37009 0.241881
-3.95933 0.168619 0.70329 0.226315 4.5751 0.253012
-4.34739 0.166182 -0.124311 0.225216 4.76532 0.26334
-4.65874 0.164227 -0.359817 0.223552 4.93728 0.272677
-4.91269 0.162632 -0.604959 0.22182 5.0884 0.280882
-5.12612 0.161292 -0.789672 0.220516 5.21723 0.287878
-5.31079 0.160132 -0.885876 0.219836 5.32116 0.293521
-5.48579 0.159033 -0.910111 0.219665 5.39612 0.297591
-5.58717 0.158397 -0.82264 0.219681 5.44176 0.300069
-5.63075 0.158123 -0.432578 0.219803 5.45873 0.30099
-5.55191 0.158151 0.0133007 0.220415 5.25599 0.300965
-5.28932 0.158283 0.0527107 0.221824 4.6529 0.300856
-4.78562 0.158536 0.0988319 0.223474 3.6809 0.300682
-4.03428 0.158914 0.147218 0.225204 1.44181 0.30028
-3.06232 0.159403 0.202587 0.227185 -0.323212 0.296332
-1.79132 0.160043 0.264075 0.229384 -0.955341 0.289116
0.0108683 0.161775 0.319016 0.231349 -1.73174 0.280254
0.07715 0.166837 0.350499 0.232475 -2.53334 0.271104
0.169481 0.173888 0.358986 0.232778 -3.31341 0.262199
0.273746 0.181851 0.051888 0.232682 -4.10482 0.253166
0.393355 0.190986 -0.101325 0.23193 -4.91804 0.243883
0.527669 0.201244 -0.29952 0.230491 -5.68605 0.235116
0.67431 0.212444 -0.589399 0.228386 -6.3966 0.227006
0.819751 0.223551 -0.926356 0.22594 -7.07589 0.219252
0.962281 0.234437 -1.2918 0.223286 -7.77425 0.21128
1.10422 0.245277 -1.68333 0.220444 -8.5199 0.202769
1.24483 0.256016 -2.09293 0.21747 -9.29811 0.193886
1.37808 0.266193 -2.50196 0.2145 -10.0627 0.185158
1.50717 0.276052 -2.88311 0.211733 -10.7777 0.176996
1.62862 0.285327 -3.25569 0.209028 -11.4397 0.169439
1.73476 0.293433 -3.61908 0.20639 -12.0811 0.162118
1.8285 0.300593 -3.96097 0.203907 -12.7263 0.154754
1.91112 0.306903 -4.25857 0.201747 -13.374 0.14736
1.98119 0.312254 -4.52447 0.199816 -13.9932 0.140292
2.03717 0.31653 -4.77789 0.197976 -14.5511 0.133924
2.08091 0.31987 -5.01953 0.196222 -15.0374 0.128373
2.11523 0.322491 -5.24476 0.194587 -15.4645 0.123498
2.1407 0.324437 -5.46076 0.193018 -15.8495 0.119103
2.15745 0.325715 -5.68032 0.191424 -16.1963 0.115144
2.16762 0.326492 -5.91166 0.189745 -16.4901 0.111791
2.17363 0.326952 -6.15645 0.187968 -16.7092 0.10929
2.17471 0.3271 -6.42016 0.186053 -16.842 0.107774
2.0901 0.327058 -6.71107 0.183941 -16.8922 0.1072
1.93861 0.326981 -7.0205 0.181694 -16.8277 0.107189
1.72356 0.326873 -7.33636 0.179401 -16.6058 0.107229
1.45346 0.326737 -7.65468 0.17709 -16.1595 0.107309
1.16302 0.326591 -7.96738 0.17482 -15.4416 0.107438
0.879307 0.326448 -8.26654 0.172648 -14.5437 0.107599
0.53579 0.326275 -8.53752 0.17068 -13.6725 0.107755
-0.00273386 0.325978 -8.75819 0.169078 -12.8004 0.107912
-0.0473969 0.325521 -8.92251 0.167885 -11.8239 0.108087
-0.100916 0.324973 -9.01885 0.167186 -10.7176 0.108286
-0.153989 0.32443 -8.98831 0.167072 -9.54327 0.108497
-0.189725 0.324064 -8.52054 0.167219 -8.07454 0.10876
-0.202503 0.323933 -7.56723 0.167519 -5.4872 0.109225
-0.155438 0.323957 -6.10765 0.167978 -0.519909 0.110117
-0.10237 0.323983 -4.1383 0.168597 0.052351 0.112276
-0.122691 0.323973 -0.826245 0.169638 0.163646 0.116668
-0.218412 0.32377 0.0679017 0.172707 0.286043 0.121499
-0.295519 0.322981 0.19685 0.178041 0.403293 0.126126
-0.394715 0.321966 0.349938 0.184374 0.505647 0.130166
-0.508881 0.320797 0.518212 0.191335 0.588143 0.133421
-0.629728 0.31956 0.69594 0.198686 0.659321 0.13623
-0.761386 0.318212 0.88159 0.206366 0.744537 0.139594
-0.915861 0.316631 1.08654 0.214844 0.848595 0.1437
-1.07875 0.314964 1.29103 0.223303 0.95899 0.148057
-1.22452 0.313472 1.48322 0.231253 1.06399 0.152201
-1.38611 0.311818 1.66888 0.238933 1.16136 0.156044
-1.57668 0.309867 1.84329 0.246148 1.25844 0.159875
-1.76315 0.307959 2.00328 0.252766 1.36843 0.164216
-1.95508 0.305994 2.14412 0.258592 1.49717 0.169297
-2.18954 0.303594 2.27286 0.263918 1.63816 0.174861
-2.46738 0.300751 2.38825 0.268691 1.78457 0.180639
-2.77707 0.297581 2.48673 0.272765 1.92827 0.186311
-3.10945 0.294178 2.56523 0.276012 2.07205 0.191985
-3.45621 0.290629 2.6238 0.278435 2.22327 0.197953
-3.80658 0.287043 2.66132 0.279987 2.3868 0.204407
-4.15186 0.283509 2.67751 0.280657 2.55921 0.211211
-4.48488 0.2801 2.50752 0.280631 2.7324 0.218046
-4.80355 0.276838 1.92239 0.280447 2.89792 0.224579
-5.10257 0.273778 0.903781 0.280126 3.0533 0.230711
-5.36675 0.271074 -0.104455 0.278937 3.202 0.236579
-5.58469 0.268843 -0.366641 0.276664 3.34749 0.242321
-5.76142 0.267034 -0.660999 0.274112 3.48494 0.247746
-5.88977 0.26572 -0.963967 0.271486 3.60898 0.252641
-5.96902 0.264909 -1.27001 0.268833 3.71314 0.256752
-5.99792 0.264613 -1.58543 0.266098 3.79391 0.259939
-6.03948 0.264188 -1.8747 0.263591 3.85058 0.262176
-6.0454 0.2641 -2.13746 0.261313 3.8862 0.263582
-5.93632 0.264155 -2.35736 0.259407 3.89896 0.264085
-5.69086 0.264279 -2.53521 0.257865 3.69722 0.264049
-5.32486 0.264463 -2.67147 0.256684 3.18427 0.263957
-4.8559 0.264699 -2.76087 0.255909 2.42162 0.26382
-4.27116 0.264993 -2.8002 0.255568 -0.00437006 0.263341
-3.59995 0.265331 -2.56255 0.255638 -0.351411 0.259856
-2.81493 0.265726 -2.08486 0.255789 -0.886684 0.25448
-1.9083 0.266182 -1.42274 0.255997 -1.5316 0.248004
-0.1366 0.267074 -0.50084 0.256287 -2.1931 0.24136
0.0297255 0.26906 0.015041 0.256921 -2.8491 0.234772
0.0808183 0.272354 0.040932 0.257741 -3.53286 0.227905
0.144256 0.276445 0.0632442 0.258448 -4.24915 0.220712
0.212622 0.280854 0.0746441 0.258809 -4.91587 0.214016
0.286431 0.285613 -0.00152362 0.2588 -5.51953 0.207954
0.369524 0.290971 -0.0528389 0.258387 -6.06659 0.20246
0.46276 0.296983 -0.164898 0.257486 -6.58452 0.197258
0.565134 0.303585 -0.348059 0.256014 -7.11372 0.191944
0.679748 0.310976 -0.601078 0.253979 -7.65998 0.186458
0.809165 0.319321 -0.919354 0.25142 -8.19011 0.181134
0.930039 0.327115 -1.24838 0.248774 -8.67137 0.1763
1.06591 0.335877 -1.62138 0.245775 -9.07771 0.17222
1.20788 0.345032 -2.03294 0.242466 -9.43127 0.168669
1.35406 0.354458 -2.46574 0.238986 -9.76848 0.165282
1.50194 0.363994 -2.88997 0.235574 -10.1056 0.161897
1.64715 0.373358 -3.28025 0.232436 -10.4338 0.158601
1.78466 0.382225 -3.62414 0.229671 -10.7277 0.155649
1.91062 0.390347 -3.90183 0.227438 -10.9749 0.153167
2.0232 0.397607 -4.0928 0.225903 -11.1835 0.151071
2.12109 0.403919 -4.18709 0.225144 -11.3752 0.149146
2.20415 0.409275 -4.08827 0.225093 -11.5645 0.147245
2.27569 0.413889 -3.49248 0.22528 -11.7411 0.145471
2.33362 0.417624 -2.35284 0.225639 -11.8866 0.14401
2.375 0.420292 -0.0269355 0.22637 -11.9832 0.14304
2.39884 0.42183 0.0737374 0.228963 -12.0449 0.14242
2.41272 0.422725 0.183201 0.232798 -12.0717 0.142151
2.42013 0.423202 0.305393 0.23708 -12.0439 0.142136
2.42183 0.423312 0.432423 0.241532 -11.8487 0.142171
2.4228 0.423375 0.56261 0.246094 -11.416 0.142249
2.42761 0.423685 0.694368 0.250711 -10.8086 0.142358
2.43741 0.424317 0.822363 0.255197 -10.1467 0.142477
2.45249 0.42529 0.943559 0.259444 -9.36151 0.142618
2.47686 0.426861 1.06052 0.263543 -8.41699 0.142787
2.50797 0.428867 1.17221 0.267456 -7.22861 0.143001
2.54327 0.431143 1.27556 0.271078 -5.55195 0.143302
2.58551 0.433867 1.36656 0.274267 -1.52304 0.144025
2.63559 0.437097 1.44691 0.277083 0.0708586 0.146756
2.69108 0.440675 1.52262 0.279736 0.242005 0.152691
2.75017 0.444485 1.59473 0.282263 0.467252 0.160502
2.81177 0.448457 1.6657 0.28475 0.715596 0.169114
2.87421 0.452483 1.74176 0.287415 0.95208 0.177315
2.93504 0.456407 1.83155 0.290562 1.1603 0.184536
2.99055 0.459985 1.93587 0.294217 1.34855 0.191065
3.03995 0.463172 2.05628 0.298437 1.54543 0.197892
3.09207 0.466532 2.18851 0.303071 1.76415 0.205477
3.14531 0.469965 2.33535 0.308217 1.9865 0.213188
3.19899 0.473427 2.4981 0.31392 2.19286 0.220344
3.25287 0.476901 2.67674 0.32018 2.36993 0.226485
3.30723 0.480407 2.86954 0.326936 2.52652 0.231915
3.36246 0.483968 3.07519 0.334143 2.68173 0.237297
3.41941 0.48764 3.29195 0.341739 2.84493 0.242957
3.47834 0.49144 3.51715 0.349631 3.01003 0.248682
3.53846 0.495317 3.74863 0.357743 3.16277 0.253979
3.59736 0.499115 3.98616 0.366066 3.29475 0.258556
3.65216 0.502649 4.22876 0.374568 3.41133 0.262599
3.70008 0.505739 4.47451 0.38318 3.52504 0.266542
3.73841 0.508211 4.72047 0.391799 3.6451 0.270706
3.76594 0.509986 4.96335 0.40031 3.77045 0.275053
3.78456 0.511187 5.19989 0.408599 3.89316 0.279308
3.79554 0.511895 5.42652 0.416541 4.00738 0.283269
3.79207 0.512081 5.63943 0.424002 4.11559 0.287022
3.64168 0.512006 5.8345 0.430838 4.2262 0.290858
3.26987 0.511819 6.00905 0.436955 4.33992 0.294801
2.6367 0.5115 6.1602 0.442252 4.4863 0.299878
1.72181 0.51104 6.28518 0.446631 4.65317 0.305664
0.0139658 0.51018 6.38472 0.45012 4.81564 0.311299
-0.165147 0.507575 6.46035 0.45277 4.96274 0.3164
-0.465032 0.502856 6.51725 0.454764 5.10096 0.321193
-0.820675 0.497261 6.5506 0.455933 5.25068 0.326385
-1.23399 0.490758 6.53478 0.45623 5.41163 0.331967
-1.71477 0.483193 6.01737 0.456068 5.56855 0.337409
-2.25139 0.47475 4.93497 0.455727 5.70897 0.342278
-2.83419 0.465581 3.27243 0.455205 5.82972 0.346466
-3.45807 0.455765 -0.00589841 0.454094 5.94003 0.350291
-4.07641 0.446036 -0.250198 0.450705 6.0509 0.354136
-4.69173 0.436355 -0.597915 0.445881 6.15216 0.357647
-5.29796 0.426817 -0.996634 0.440349 6.23276 0.360442
-5.88637 0.417559 -1.43662 0.434245 6.28775 0.36235
-6.44701 0.408738 -1.9169 0.427582 6.3168 0.363357
-6.96754 0.400548 -2.43516 0.420392 6.28313 0.363517
-7.44876 0.392977 -2.99392 0.412641 6.00517 0.363467
-7.90662 0.385773 -3.58203 0.404482 5.46849 0.363371
-8.32642 0.379168 -4.18958 0.396053 4.67098 0.363228
-8.70392 0.373228 -4.81039 0.38744 3.55869 0.363028
-9.04612 0.367844 -5.43769 0.378738 -0.024844 0.362048
-9.35485 0.362987 -6.03765 0.370414 -0.406129 0.356805
-9.6139 0.358911 -6.62179 0.362311 -0.965537 0.349113
-9.83948 0.355362 -7.18493 0.354498 -1.63568 0.339898
-10.0424 0.352169 -7.72702 0.346978 -2.33623 0.330265
-10.2351 0.349138 -8.24465 0.339796 -3.05475 0.320385
-10.4382 0.345942 -8.73448 0.333001 -3.83562 0.309648
-10.6744 0.342225 -9.1937 0.32663 -4.71025 0.297622
-10.9482 0.337917 -9.61659 0.320763 -5.65211 0.284671
-11.2327 0.333441 -10.0132 0.315262 -6.58896 0.271789
-11.5278 0.328799 -10.4119 0.309731 -7.40378 0.260585
-11.8536 0.323672 -10.7991 0.304359 -8.15052 0.250317
-12.192 0.318348 -11.1854 0.298999 -8.84314 0.240793
-12.5544 0.312647 -11.5835 0.293476 -9.55948 0.230943
-12.9391 0.306593 -12.0045 0.287635 -10.3339 0.220295
-13.3355 0.300356 -12.4433 0.281548 -11.1409 0.209198
-13.7323 0.294113 -12.9144 0.275013 -11.9146 0.19856
-14.1316 0.287831 -13.434 0.267804 -12.589 0.189286
-14.5583 0.281117 -13.9801 0.260228 -13.1407 0.181701
-15.031 0.27368 -14.5294 0.252608 -13.6205 0.175103
-15.5315 0.265806 -15.1179 0.244443 -14.0998 0.168512
-16.0503 0.257643 -15.7704 0.23539 -14.5972 0.161673
-16.6079 0.248869 -16.481 0.225532 -15.0701 0.155171
-17.2182 0.239268 -17.2334 0.215094 -15.4557 0.149869
-17.8842 0.228789 -18.0071 0.20436 -15.7355 0.146022
-18.5976 0.217565 -18.8077 0.193254 -15.9484 0.143093
-19.3501 0.205725 -19.654 0.181513 -16.1542 0.140264
-20.136 0.19336 -20.5442 0.169163 -16.3692 0.137308
-20.943 0.180663 -21.4743 0.156259 -16.5606 0.134675
-21.7573 0.16785 -22.4331 0.142958 -16.6961 0.132813
-22.5643 0.155154 -23.4154 0.129331 -16.7704 0.131791
-23.3606 0.142626 -24.4302 0.115253 -16.8108 0.131235
-24.1463 0.130263 -25.4723 0.100795 -16.8561 0.130613
-24.93 0.117933 -26.5227 0.086223 -16.9248 0.129668
-25.7193 0.105514 -27.5615 0.071811 -17.0072 0.128535
-26.5225 0.0928771 -28.5748 0.0577534 -17.0888 0.127412
-27.3419 0.0799852 -29.558 0.0441141 -17.1722 0.126265
-28.1798 0.0668015 -30.5095 0.030913 -17.2774 0.124819
-29.0141 0.0536745 -31.4149 0.0183519 -17.4311 0.122706
-29.834 0.0407752 -32.2845 0.00628892 -17.6357 0.119893
-30.7204 0.0268287 -32.6975 0.00055933 -17.9141 0.116065
-31.6479 0.0122358 -32.7094 0.00039354 -18.2855 0.110958
-32.3633 0.000980174 -32.7142 0.000327505 -18.6635 0.10576
-32.3833 0.00066562 -32.7178 0.000277064 -19.0553 0.100373
-32.3914 0.000537337 -32.7204 0.00024054 -19.512 0.0940932
-32.3961 0.000462981 -32.7226 0.000210194 -20.0302 0.086967
-32.3996 0.000409143 -32.7242 0.000188847 -20.5844 0.0793476
-32.402 0.000370709 -32.7248 0.000179811 -21.1634 0.0713856
-32.4037 0.000343955 -32.725 0.000176588 -21.7716 0.0630223
-32.405 0.000322844 -32.7254 0.000171345 -22.4207 0.0540968
-32.4061 0.000305551 -32.726 0.000163847 -23.1108 0.0446089
-32.407 0.000291547 -32.7264 0.000158335 -23.8297 0.0347231
-32.4077 0.000280951 -32.7213 0.000159568 -24.5636 0.0246318
-32.4082 0.000272368 -32.7058 0.000164455 -25.3097 0.0143728
-32.4088 0.00026427 -32.6953 0.000167761 -26.069 0.00393198
-32.4092 0.000257867 -32.6934 0.000168351 -26.3201 0.000479138
-32.4095 0.000252118 -32.6766 0.000173634 -26.3298 0.000345471
-32.4099 0.000247018 -32.6428 0.000184257 -26.3333 0.000297421
-32.4101 0.000243133 -32.615 0.000192995 -26.3361 0.000259332
-32.4103 0.000240543 -32.603 0.000196776 -26.3394 0.0002137
-32.4103 0.000239494 -32.5922 0.000200183 -26.3429 0.000166308
-32.4081 0.000240635 -32.5759 0.000205292 -26.3455 0.00013018
-32.3997 0.000244871 -32.559 0.000210632 -26.3469 0.000110667
-32.3858 0.000251824 -32.553 0.000212496 -26.3476 0.000101641
-32.3669 0.000261351 -32.5606 0.000210107 -26.3484 9.0563e-05
-32.3423 0.000273714 -32.5702 0.000207105 -26.3492 7.98836e-05
-32.3111 0.000289411 -32.5785 0.000204497 -26.3496 7.33637e-05
-32.2749 0.000307645 -32.5879 0.00020153 -26.3498 7.07918e-05
-32.2387 0.000325895 -32.6023 0.000196991 -26.3332 7.37697e-05
-32.192 0.000349389 -32.6156 0.000192815 -26.3169 7.67007e-05
-32.135 0.00037805 -32.6366 0.000186218 -26.319 7.63224e-05
-32.0945 0.000398456 -32.6501 0.000181981 -26.3304 7.42786e-05
-32.0517 0.000419964 -32.6554 0.000180308 -26.3145 7.71365e-05
-31.9972 0.000447413 -32.6599 0.000178887 -26.2662 8.58051e-05
-31.9316 0.000480416 -32.6758 0.000173894 -26.2113 9.5656e-05
-31.8557 0.000518627 -32.6838 0.000171382 -26.1565 0.000105502
-31.758 0.000567769 -32.679 0.000172888 -26.0805 0.000119131
-31.6185 0.000638006 -32.6654 0.00017716 -26.0119 0.000131461
-31.4094 0.000743247 -32.6498 0.00018208 -25.9599 0.000140788
-31.0269 0.000935721 -32.6478 0.000182691 -25.8915 0.000153071
-29.9517 0.00147682 -32.6443 0.000183808 -25.7833 0.0001725
-27.1052 0.00290934 -32.6229 0.000190527 -25.6635 0.000193999
-23.807 0.00456918 -32.5845 0.0002026 -25.5548 0.00021352
-20.419 0.00627424 -32.5407 0.000216365 -25.4417 0.000233822
-16.9751 0.0080074 -32.5016 0.000228656 -25.2879 0.000261435
-13.4386 0.00978719 -32.4564 0.00024288 -25.0662 0.000301235
-9.31763 0.0118611 -32.3912 0.000263394 -24.7732 0.000353824
-2.2194 0.0154333 -32.2923 0.000294482 -24.3533 0.000429206
0.0576009 0.0218805 -32.1589 0.00033643 -23.6685 0.000552136
0.169625 0.032247 -31.9727 0.000394982 -22.4156 0.000777075
0.316668 0.0458541 -31.648 0.000497086 -20.4516 0.00112965
0.48349 0.0612915 -30.6975 0.000795934 -18.1051 0.00155089
0.657855 0.0774268 -24.774 0.00265855 -15.6691 0.00198821
0.843417 0.0945984 -16.771 0.00517501 -11.7768 0.00268696
1.03895 0.112693 -5.81934 0.00861866 -2.09995 0.00442416
1.23631 0.130956 0.0879713 0.0156579 0.0745759 0.00884825
1.43842 0.149659 0.25047 0.0252805 0.258962 0.0188546
1.64797 0.16905 0.438328 0.0364048 0.493901 0.0316044
1.86058 0.188725 0.636152 0.0481193 0.747435 0.0453632
2.08016 0.209044 0.837001 0.0600129 0.981726 0.0580778
2.2984 0.22924 1.04262 0.072189 1.18118 0.0689021
2.51786 0.249548 1.25755 0.0849161 1.35976 0.0785933
2.73978 0.270084 1.4896 0.0986575 1.54074 0.0884145
2.96948 0.29134 1.73869 0.113408 1.74558 0.0995307
3.20796 0.313409 1.99902 0.128824 1.9585 0.111085
3.45474 0.336245 2.26519 0.144585 2.15978 0.122009
3.70789 0.359671 2.54172 0.160961 2.33853 0.131709
3.96872 0.383808 2.83634 0.178407 2.49115 0.139992
4.23707 0.408641 3.15094 0.197036 2.63793 0.147957
4.51137 0.434024 3.48149 0.216611 2.79195 0.156316
4.78501 0.459346 3.82569 0.236993 2.95404 0.165112
5.07813 0.48647 4.21755 0.260198 3.10434 0.173269
5.42919 0.518957 4.61747 0.28388 3.23488 0.180353
5.74926 0.548576 5.0783 0.311168 3.41138 0.189931
6.05145 0.576539 5.58972 0.341453 3.56169 0.198088
6.37854 0.606808 6.05885 0.369233 3.72563 0.206985
6.69646 0.636228 6.51571 0.396287 3.89501 0.216177
6.99703 0.664042 6.99068 0.424413 4.10352 0.227493
7.29746 0.691843 7.47299 0.452974 4.32771 0.239659
7.59338 0.719227 7.92468 0.479722 4.55634 0.252066
7.87604 0.745384 8.35337 0.505107 4.79234 0.264874
8.14857 0.770603 8.77785 0.530243 5.05032 0.278874
8.41092 0.79488 8.93253 0.554706 5.33654 0.294406
8.66038 0.817965 8.93253 0.577639 5.61049 0.309273
8.89899 0.840045 8.93253 0.599065 5.99032 0.329886
8.93253 0.860262 8.93253 0.61861 6.45939 0.355342
8.93253 0.879157 8.93253 0.636839 6.93635 0.381226
8.93253 0.897494 -1.69948 0.614509 7.12096 0.405538
3.88293 0.896301 -2.15198 0.565327 7.12096 0.426358
2.2079 0.895458 0.379547 0.569603 7.12096 0.474334
4.85939 0.896793 1.02139 0.575691 7.12096 0.519748
6.94365 0.897842 2.17523 0.586634 7.12096 0.560645
8.93253 0.903029 3.82952 0.602324 7.12096 0.587605
0.389347 0.837968 6.05749 0.623456 7.12096 0.598986
3.56135 0.863552 8.93253 0.695982 2.92033 0.598231
6.35975 0.886123 8.93253 0.760132 0.249511 0.597752
8.48146 0.903236 8.93253 0.810151 2.40284 0.598139
8.93253 0.915796 8.93253 0.846098 4.92757 0.598592
8.93253 0.917224 8.93253 0.864531 7.12096 0.605667
8.93253 0.924001 8.93253 0.877492 7.12096 0.628652
8.93253 0.931729 8.93253 0.890535 7.12096 0.6569
8.93253 0.941317 8.93253 0.909991 7.12096 0.681751
8.93253 0.956703 8.93253 0.938811 7.12096 0.69469
8.93253 0.98167 8.93253 0.97091 -0.251887 0.686826
8.93253 1.00017 8.93253 1.00386 0.0222838 0.684713
8.93253 1.01578 8.93253 1.03383 2.70185 0.688479
8.93253 1.02876 8.93253 1.06253 6.9191 0.694406
8.93253 1.04062 8.93253 1.08825 7.12096 0.708188
8.93253 1.05103 8.93253 1.11336 7.12096 0.724328
8.93253 1.06108 8.93253 1.13889 7.12096 0.742653
8.93253 1.07202 8.93253 1.16527 7.12096 0.763137
8.93253 1.08263 8.93253 1.19167 7.12096 0.785331
8.93253 1.09086 8.93253 1.21643 7.12096 0.808172
8.93253 1.09758 8.93253 1.23975 7.12096 0.831678
8.93253 1.1039 8.93253 1.262 7.12096 0.856979
8.93253 1.10911 8.93253 1.28265 7.12096 0.884532
8.93253 1.11327 8.93253 1.30176 7.12096 0.913393
8.93253 1.11713 8.93253 1.31997 7.12096 0.942195
8.93253 1.12125 8.93253 1.33776 7.12096 0.970406
8.93253 1.1259 8.93253 1.35532 7.12096 0.998273
8.93253 1.13129 8.93253 1.37235 7.12096 1.02573
8.93253 1.13732 8.93253 1.38815 7.12096 1.05244
8.93253 1.14367 8.93253 1.40364 7.12096 1.07875
8.93253 1.15011 8.93253 1.41881 7.12096 1.10514
8.93253 1.15666 8.93253 1.43314 7.12096 1.13176
8.93253 1.16368 8.93253 1.44698 7.12096 1.15841
8.93253 1.17125 8.93253 1.46032 7.12096 1.18438
8.93253 1.17932 8.93253 1.47398 7.12096 1.20915
8.93253 1.18797 8.93253 1.48803 7.12096 1.2324
8.93253 1.19726 8.93253 1.50264 7.12096 1.25406
8.93253 1.2071 8.93253 1.5179 7.12096 1.27405
8.93253 1.21733 8.93253 1.53383 7.12096 1.29225
8.93253 1.22779 8.93253 1.55036 7.12096 1.30864
8.93253 1.23825 8.93253 1.5673 7.12096 1.32356
8.93253 1.24906 8.93253 1.58424 7.12096 1.33753
8.93253 1.26004 8.93253 1.60088 7.12096 1.35101
8.93253 1.27048 8.93253 1.61748 7.12096 1.36405
8.93253 1.28006 8.93253 1.63475 7.12096 1.37673
8.93253 1.28974 8.93253 1.65143 7.12096 1.38893
8.93253 1.29924 8.93253 1.66785 7.12096 1.39978
8.93253 1.30923 8.93253 1.68426 7.12096 1.40835
8.93253 1.32018 8.93253 1.70121 7.12096 1.4148
8.93253 1.33108 8.93253 1.71854 7.12096 1.42009
8.93253 1.34191 8.93253 1.7359 7.12096 1.42463
8.93253 1.35274 8.93253 1.75282 7.12096 1.4282
8.93253 1.36251 8.93253 1.76841 7.12096 1.43061
8.67732 1.3656 8.93253 1.78127 7.12096 1.43247
8.93253 1.36656 8.93253 1.79399 7.12096 1.43363
8.93253 1.36847 8.93253 1.80614 7.12096 1.43413
8.93253 1.37011 8.93253 1.81752 6.9976 1.43412
8.93253 1.37225 8.93253 1.82837 6.65609 1.43406
8.93253 1.37446 8.93253 1.8388 6.21084 1.43398
8.93253 1.37696 8.93253 1.84877 5.6977 1.43388
8.93253 1.37974 8.93253 1.85816 5.15962 1.43379
8.93253 1.38282 8.93253 1.86679 4.60243 1.43369
8.93253 1.38622 8.93253 1.8746 4.05881 1.43359
8.93253 1.39018 8.93253 1.88176 3.38277 1.43347
8.93253 1.39497 8.93253 1.88839 2.09686 1.43324
8.93253 1.40076 8.93253 1.89437 -0.00151343 1.43278
8.93253 1.40626 8.93253 1.8986 -0.0158482 1.43201
8.93253 1.41261 8.93253 1.90234 -0.0357767 1.43093
8.93253 1.41955 8.93253 1.90536 -0.0513102 1.4301
8.93253 1.42673 8.93253 1.90756 -0.0587846 1.4297
8.93253 1.43406 8.93253 1.90894 0.0240968 1.4297
8.93253 1.44148 8.93253 1.90955 0.278547 1.42986
8.93253 1.44898 8.84713 1.90956 0.615512 1.43007
8.93253 1.45658 8.53561 1.90947 0.923767 1.43027
8.93253 1.46436 8.09691 1.90933 1.16503 1.43042
8.93253 1.47234 7.47917 1.90913 1.32029 1.43051
8.93253 1.48018 6.2491 1.90875 1.36767 1.43054
8.93253 1.48767 4.94693 1.90834 1.48665 1.43062
8.93253 1.49475 3.99281 1.90804 1.75343 1.43078
8.93253 1.50148 3.23527 1.9078 2.03454 1.43096
8.93253 1.50789 2.06653 1.90743 2.20553 1.43107
8.93253 1.51401 0.039699 1.9068 2.243 1.43109
8.93253 1.51978 -0.0158643 1.90587 2.214 1.43109
8.93253 1.52511 -0.0308658 1.90502 2.17965 1.43108
8.93253 1.52991 -0.0395708 1.90452 2.10959 1.43107
8.93253 1.53416 -0.0161456 1.90444 1.948 1.43104
8.93253 1.5379 0.153689 1.90454 1.68246 1.43099
8.93253 1.54116 0.475756 1.90472 1.32515 1.43093
8.93253 1.54392 1.01664 1.90503 0.550933 1.43079
8.93253 1.54615 1.90232 1.90554 -0.0154352 1.42986
8.93253 1.54783 3.09044 1.90623 -0.0486888 1.42807
8.93253 1.54902 4.41148 1.90699 -0.0862957 1.42605
8.93253 1.54974 5.79422 1.90779 -0.127198 1.42385
8.93253 1.55007 7.23531 1.90861 -0.168657 1.42162
8.90897 1.55009 8.74879 1.90949 -0.207538 1.41953
8.69952 1.54999 8.93253 1.9117 -0.244009 1.41757
8.44785 1.54986 8.93253 1.91444 -0.279887 1.41564
8.20867 1.54974 8.93253 1.91682 -0.313794 1.41382
7.99276 1.54963 8.93253 1.91876 -0.345028 1.41214
7.85332 1.54956 8.93253 1.92026 -0.369737 1.41081
7.83504 1.54955 8.93253 1.92129 -0.385262 1.40998
7.89294 1.54958 8.93253 1.92178 -0.389196 1.40974
8.07763 1.54967 8.89536 1.92182 -0.251924 1.40977
8.41184 1.54984 8.66089 1.92175 0.0367189 1.40994
8.92931 1.5501 8.2148 1.92161 0.185848 1.41045
8.93253 1.55197 7.49333 1.92138 0.345132 1.41099
8.93253 1.55491 6.74833 1.92115 0.523532 1.4116
8.93253 1.55863 6.03826 1.92092 0.703057 1.41221
8.93253 1.56298 4.8925 1.92056 0.843201 1.41269
8.93253 1.56754 3.49398 1.92012 0.939382 1.41302
8.93253 1.57222 1.81167 1.9196 1.09082 1.41354
8.93253 1.57694 0.2691 1.91911 1.30884 1.41428
8.93253 1.58166 -0.006561 1.91865 1.53548 1.41506
8.93253 1.58636 -0.0163934 1.91808 1.72712 1.41571
8.93253 1.59096 -0.0268825 1.91748 1.86587 1.41619
8.93253 1.59532 -0.0331901 1.91711 1.97225 1.41655
8.93253 1.59934 0.166525 1.9172 2.06541 1.41687
8.93253 1.60316 0.806944 1.91754 2.14397 1.41714
8.93253 1.60679 1.71164 1.91802 2.18737 1.41728
8.93253 1.61031 2.77239 1.91858 2.17387 1.41729
8.93253 1.61375 3.90647 1.91918 2.09607 1.41728
8.93253 1.61717 5.35173 1.91994 1.98938 1.41726
8.93253 1.6206 7.10403 1.92087 1.8632 1.41724
8.93253 1.6241 8.93253 1.92199 1.7139 1.41721
8.93253 1.62734 8.93253 1.92523 1.45898 1.41717
8.93253 1.63058 8.93253 1.92905 1.2212 1.41712
8.93253 1.6339 8.93253 1.93307 0.886443 1.41706
8.93253 1.63727 8.93253 1.93727 0.15618 1.41693
8.93253 1.64073 8.93253 1.94157 -0.00618064 1.41657
8.93253 1.64434 8.93253 1.94594 -0.0164743 1.41603
8.93253 1.64813 8.93253 1.95022 -0.0243523 1.41561
8.93253 1.65212 8.93253 1.95447 -0.0198188 1.41549
8.93253 1.65629 8.93253 1.95863 0.0687321 1.41567
8.93253 1.66061 8.93253 1.96267 0.247844 1.41614
8.93253 1.66508 8.93253 1.96657 0.509002 1.41682
8.93253 1.66972 8.93253 1.97037 0.836552 1.41768
8.93253 1.67452 8.93253 1.9741 1.22758 1.41871
8.93253 1.67946 8.93253 1.9778 1.67822 1.41989
8.93253 1.68456 8.93253 1.98155 2.16932 1.42117
